,BVP,time
0,-566.8,2022-10-26 16:35:22.312500
1,-540.67,2022-10-26 16:35:22.328125
2,-504.74,2022-10-26 16:35:22.343750
3,-456.98,2022-10-26 16:35:22.359375
4,-395.26,2022-10-26 16:35:22.375000
5,-320.33,2022-10-26 16:35:22.390625
6,-237.26,2022-10-26 16:35:22.406250
7,-154.6,2022-10-26 16:35:22.421875
8,-80.12,2022-10-26 16:35:22.437500
9,-17.03,2022-10-26 16:35:22.453125
10,38.29,2022-10-26 16:35:22.468750
11,94.09,2022-10-26 16:35:22.484375
12,158.31,2022-10-26 16:35:22.500000
13,233.3,2022-10-26 16:35:22.515625
14,312.96,2022-10-26 16:35:22.531250
15,385.96,2022-10-26 16:35:22.546875
16,441.53,2022-10-26 16:35:22.562500
17,474.99,2022-10-26 16:35:22.578125
18,489.78,2022-10-26 16:35:22.593750
19,494.57,2022-10-26 16:35:22.609375
20,498.29,2022-10-26 16:35:22.625000
21,504.42,2022-10-26 16:35:22.640625
22,509.86,2022-10-26 16:35:22.656250
23,508.26,2022-10-26 16:35:22.671875
24,493.57,2022-10-26 16:35:22.687500
25,463.73,2022-10-26 16:35:22.703125
26,421.39,2022-10-26 16:35:22.718750
27,370.23,2022-10-26 16:35:22.734375
28,313.1,2022-10-26 16:35:22.750000
29,250.95,2022-10-26 16:35:22.765625
30,184.76,2022-10-26 16:35:22.781250
31,117.74,2022-10-26 16:35:22.796875
32,56.81,2022-10-26 16:35:22.812500
33,11.33,2022-10-26 16:35:22.828125
34,-10.69,2022-10-26 16:35:22.843750
35,-6.36,2022-10-26 16:35:22.859375
36,20.14,2022-10-26 16:35:22.875000
37,57.91,2022-10-26 16:35:22.890625
38,93.05,2022-10-26 16:35:22.906250
39,112.12,2022-10-26 16:35:22.921875
40,106.48,2022-10-26 16:35:22.937500
41,74.81,2022-10-26 16:35:22.953125
42,23.38,2022-10-26 16:35:22.968750
43,-35.46,2022-10-26 16:35:22.984375
44,-87.6,2022-10-26 16:35:23.000000
45,-121.84,2022-10-26 16:35:23.015625
46,-133.35,2022-10-26 16:35:23.031250
47,-124.94,2022-10-26 16:35:23.046875
48,-105.37,2022-10-26 16:35:23.062500
49,-85.08,2022-10-26 16:35:23.078125
50,-72.18,2022-10-26 16:35:23.093750
51,-70.19,2022-10-26 16:35:23.109375
52,-77.97,2022-10-26 16:35:23.125000
53,-91.22,2022-10-26 16:35:23.140625
54,-104.36,2022-10-26 16:35:23.156250
55,-112.07,2022-10-26 16:35:23.171875
56,-110.28,2022-10-26 16:35:23.187500
57,-97.56,2022-10-26 16:35:23.203125
58,-75.84,2022-10-26 16:35:23.218750
59,-50.4,2022-10-26 16:35:23.234375
60,-28.49,2022-10-26 16:35:23.250000
61,-16.42,2022-10-26 16:35:23.265625
62,-16.67,2022-10-26 16:35:23.281250
63,-27.61,2022-10-26 16:35:23.296875
64,-44.38,2022-10-26 16:35:23.312500
65,-62.15,2022-10-26 16:35:23.328125
66,-79.1,2022-10-26 16:35:23.343750
67,-96.86,2022-10-26 16:35:23.359375
68,-118.27,2022-10-26 16:35:23.375000
69,-144.15,2022-10-26 16:35:23.390625
70,-170.47,2022-10-26 16:35:23.406250
71,-189.23,2022-10-26 16:35:23.421875
72,-190.99,2022-10-26 16:35:23.437500
73,-169.67,2022-10-26 16:35:23.453125
74,-126.42,2022-10-26 16:35:23.468750
75,-69.4,2022-10-26 16:35:23.484375
76,-10.14,2022-10-26 16:35:23.500000
77,40.31,2022-10-26 16:35:23.515625
78,76.25,2022-10-26 16:35:23.531250
79,98.73,2022-10-26 16:35:23.546875
80,112.61,2022-10-26 16:35:23.562500
81,122.72,2022-10-26 16:35:23.578125
82,130.66,2022-10-26 16:35:23.593750
83,134.43,2022-10-26 16:35:23.609375
84,131.12,2022-10-26 16:35:23.625000
85,119.61,2022-10-26 16:35:23.640625
86,102.82,2022-10-26 16:35:23.656250
87,86.14,2022-10-26 16:35:23.671875
88,75.2,2022-10-26 16:35:23.687500
89,73.29,2022-10-26 16:35:23.703125
90,79.65,2022-10-26 16:35:23.718750
91,92.02,2022-10-26 16:35:23.734375
92,108.66,2022-10-26 16:35:23.750000
93,129.87,2022-10-26 16:35:23.765625
94,158.04,2022-10-26 16:35:23.781250
95,193.65,2022-10-26 16:35:23.796875
96,232.43,2022-10-26 16:35:23.812500
97,265.2,2022-10-26 16:35:23.828125
98,280.23,2022-10-26 16:35:23.843750
99,268.57,2022-10-26 16:35:23.859375
100,229.36,2022-10-26 16:35:23.875000
101,171.48,2022-10-26 16:35:23.890625
102,111.35,2022-10-26 16:35:23.906250
103,66.09,2022-10-26 16:35:23.921875
104,46.05,2022-10-26 16:35:23.937500
105,50.71,2022-10-26 16:35:23.953125
106,68.51,2022-10-26 16:35:23.968750
107,82.61,2022-10-26 16:35:23.984375
108,78.91,2022-10-26 16:35:24.000000
109,51.6,2022-10-26 16:35:24.015625
110,4.19,2022-10-26 16:35:24.031250
111,-52.68,2022-10-26 16:35:24.046875
112,-106.26,2022-10-26 16:35:24.062500
113,-145.75,2022-10-26 16:35:24.078125
114,-164.2,2022-10-26 16:35:24.093750
115,-159.46,2022-10-26 16:35:24.109375
116,-133.48,2022-10-26 16:35:24.125000
117,-91.48,2022-10-26 16:35:24.140625
118,-41.42,2022-10-26 16:35:24.156250
119,7.73,2022-10-26 16:35:24.171875
120,48.47,2022-10-26 16:35:24.187500
121,77.5,2022-10-26 16:35:24.203125
122,95.86,2022-10-26 16:35:24.218750
123,108.47,2022-10-26 16:35:24.234375
124,121.38,2022-10-26 16:35:24.250000
125,138.85,2022-10-26 16:35:24.265625
126,161.82,2022-10-26 16:35:24.281250
127,188.04,2022-10-26 16:35:24.296875
128,212.53,2022-10-26 16:35:24.312500
129,228.79,2022-10-26 16:35:24.328125
130,230.22,2022-10-26 16:35:24.343750
131,212.21,2022-10-26 16:35:24.359375
132,174.63,2022-10-26 16:35:24.375000
133,123.37,2022-10-26 16:35:24.390625
134,69.53,2022-10-26 16:35:24.406250
135,26.09,2022-10-26 16:35:24.421875
136,2.49,2022-10-26 16:35:24.437500
137,1.21,2022-10-26 16:35:24.453125
138,16.75,2022-10-26 16:35:24.468750
139,38.75,2022-10-26 16:35:24.484375
140,57.13,2022-10-26 16:35:24.500000
141,66.68,2022-10-26 16:35:24.515625
142,67.89,2022-10-26 16:35:24.531250
143,64.99,2022-10-26 16:35:24.546875
144,62.16,2022-10-26 16:35:24.562500
145,60.93,2022-10-26 16:35:24.578125
146,60.01,2022-10-26 16:35:24.593750
147,57.23,2022-10-26 16:35:24.609375
148,51.25,2022-10-26 16:35:24.625000
149,43.0,2022-10-26 16:35:24.640625
150,34.38,2022-10-26 16:35:24.656250
151,26.99,2022-10-26 16:35:24.671875
152,21.05,2022-10-26 16:35:24.687500
153,15.99,2022-10-26 16:35:24.703125
154,10.94,2022-10-26 16:35:24.718750
155,6.16,2022-10-26 16:35:24.734375
156,3.42,2022-10-26 16:35:24.750000
157,5.79,2022-10-26 16:35:24.765625
158,16.17,2022-10-26 16:35:24.781250
159,36.27,2022-10-26 16:35:24.796875
160,65.8,2022-10-26 16:35:24.812500
161,102.38,2022-10-26 16:35:24.828125
162,141.95,2022-10-26 16:35:24.843750
163,180.57,2022-10-26 16:35:24.859375
164,215.18,2022-10-26 16:35:24.875000
165,244.0,2022-10-26 16:35:24.890625
166,266.65,2022-10-26 16:35:24.906250
167,283.5,2022-10-26 16:35:24.921875
168,294.9,2022-10-26 16:35:24.937500
169,300.48,2022-10-26 16:35:24.953125
170,299.16,2022-10-26 16:35:24.968750
171,289.5,2022-10-26 16:35:24.984375
172,270.11,2022-10-26 16:35:25.000000
173,240.4,2022-10-26 16:35:25.015625
174,200.83,2022-10-26 16:35:25.031250
175,152.96,2022-10-26 16:35:25.046875
176,99.11,2022-10-26 16:35:25.062500
177,42.27,2022-10-26 16:35:25.078125
178,-14.62,2022-10-26 16:35:25.093750
179,-68.65,2022-10-26 16:35:25.109375
180,-117.38,2022-10-26 16:35:25.125000
181,-158.78,2022-10-26 16:35:25.140625
182,-191.59,2022-10-26 16:35:25.156250
183,-215.15,2022-10-26 16:35:25.171875
184,-229.63,2022-10-26 16:35:25.187500
185,-235.81,2022-10-26 16:35:25.203125
186,-234.84,2022-10-26 16:35:25.218750
187,-227.96,2022-10-26 16:35:25.234375
188,-216.47,2022-10-26 16:35:25.250000
189,-201.42,2022-10-26 16:35:25.265625
190,-184.01,2022-10-26 16:35:25.281250
191,-165.61,2022-10-26 16:35:25.296875
192,-147.92,2022-10-26 16:35:25.312500
193,-132.56,2022-10-26 16:35:25.328125
194,-121.07,2022-10-26 16:35:25.343750
195,-114.65,2022-10-26 16:35:25.359375
196,-113.39,2022-10-26 16:35:25.375000
197,-116.56,2022-10-26 16:35:25.390625
198,-123.17,2022-10-26 16:35:25.406250
199,-131.78,2022-10-26 16:35:25.421875
200,-141.45,2022-10-26 16:35:25.437500
201,-152.21,2022-10-26 16:35:25.453125
202,-164.47,2022-10-26 16:35:25.468750
203,-178.88,2022-10-26 16:35:25.484375
204,-195.46,2022-10-26 16:35:25.500000
205,-212.99,2022-10-26 16:35:25.515625
206,-228.17,2022-10-26 16:35:25.531250
207,-235.57,2022-10-26 16:35:25.546875
208,-228.78,2022-10-26 16:35:25.562500
209,-201.47,2022-10-26 16:35:25.578125
210,-149.29,2022-10-26 16:35:25.593750
211,-71.98,2022-10-26 16:35:25.609375
212,25.57,2022-10-26 16:35:25.625000
213,133.32,2022-10-26 16:35:25.640625
214,237.67,2022-10-26 16:35:25.656250
215,324.63,2022-10-26 16:35:25.671875
216,383.49,2022-10-26 16:35:25.687500
217,409.34,2022-10-26 16:35:25.703125
218,403.64,2022-10-26 16:35:25.718750
219,372.68,2022-10-26 16:35:25.734375
220,324.15,2022-10-26 16:35:25.750000
221,264.63,2022-10-26 16:35:25.765625
222,197.92,2022-10-26 16:35:25.781250
223,125.83,2022-10-26 16:35:25.796875
224,49.66,2022-10-26 16:35:25.812500
225,-28.51,2022-10-26 16:35:25.828125
226,-105.38,2022-10-26 16:35:25.843750
227,-177.51,2022-10-26 16:35:25.859375
228,-241.64,2022-10-26 16:35:25.875000
229,-294.97,2022-10-26 16:35:25.890625
230,-335.33,2022-10-26 16:35:25.906250
231,-360.72,2022-10-26 16:35:25.921875
232,-370.55,2022-10-26 16:35:25.937500
233,-367.3,2022-10-26 16:35:25.953125
234,-356.41,2022-10-26 16:35:25.968750
235,-344.59,2022-10-26 16:35:25.984375
236,-336.64,2022-10-26 16:35:26.000000
237,-333.02,2022-10-26 16:35:26.015625
238,-330.18,2022-10-26 16:35:26.031250
239,-323.09,2022-10-26 16:35:26.046875
240,-309.3,2022-10-26 16:35:26.062500
241,-291.1,2022-10-26 16:35:26.078125
242,-273.8,2022-10-26 16:35:26.093750
243,-262.52,2022-10-26 16:35:26.109375
244,-258.42,2022-10-26 16:35:26.125000
245,-257.3,2022-10-26 16:35:26.140625
246,-252.36,2022-10-26 16:35:26.156250
247,-237.74,2022-10-26 16:35:26.171875
248,-211.97,2022-10-26 16:35:26.187500
249,-177.35,2022-10-26 16:35:26.203125
250,-137.13,2022-10-26 16:35:26.218750
251,-92.75,2022-10-26 16:35:26.234375
252,-43.38,2022-10-26 16:35:26.250000
253,12.1,2022-10-26 16:35:26.265625
254,71.53,2022-10-26 16:35:26.281250
255,128.47,2022-10-26 16:35:26.296875
256,174.29,2022-10-26 16:35:26.312500
257,202.65,2022-10-26 16:35:26.328125
258,212.88,2022-10-26 16:35:26.343750
259,209.74,2022-10-26 16:35:26.359375
260,199.5,2022-10-26 16:35:26.375000
261,185.28,2022-10-26 16:35:26.390625
262,164.32,2022-10-26 16:35:26.406250
263,130.46,2022-10-26 16:35:26.421875
264,79.11,2022-10-26 16:35:26.437500
265,12.46,2022-10-26 16:35:26.453125
266,-60.39,2022-10-26 16:35:26.468750
267,-126.31,2022-10-26 16:35:26.484375
268,-174.69,2022-10-26 16:35:26.500000
269,-202.1,2022-10-26 16:35:26.515625
270,-212.79,2022-10-26 16:35:26.531250
271,-214.98,2022-10-26 16:35:26.546875
272,-215.39,2022-10-26 16:35:26.562500
273,-215.92,2022-10-26 16:35:26.578125
274,-213.27,2022-10-26 16:35:26.593750
275,-202.13,2022-10-26 16:35:26.609375
276,-180.25,2022-10-26 16:35:26.625000
277,-151.27,2022-10-26 16:35:26.640625
278,-124.54,2022-10-26 16:35:26.656250
279,-110.48,2022-10-26 16:35:26.671875
280,-115.8,2022-10-26 16:35:26.687500
281,-138.78,2022-10-26 16:35:26.703125
282,-168.7,2022-10-26 16:35:26.718750
283,-189.92,2022-10-26 16:35:26.734375
284,-188.32,2022-10-26 16:35:26.750000
285,-157.6,2022-10-26 16:35:26.765625
286,-101.47,2022-10-26 16:35:26.781250
287,-31.89,2022-10-26 16:35:26.796875
288,36.46,2022-10-26 16:35:26.812500
289,92.66,2022-10-26 16:35:26.828125
290,132.85,2022-10-26 16:35:26.843750
291,159.08,2022-10-26 16:35:26.859375
292,175.6,2022-10-26 16:35:26.875000
293,184.41,2022-10-26 16:35:26.890625
294,183.51,2022-10-26 16:35:26.906250
295,169.72,2022-10-26 16:35:26.921875
296,142.54,2022-10-26 16:35:26.937500
297,107.87,2022-10-26 16:35:26.953125
298,74.77,2022-10-26 16:35:26.968750
299,51.67,2022-10-26 16:35:26.984375
300,41.48,2022-10-26 16:35:27.000000
301,39.6,2022-10-26 16:35:27.015625
302,37.23,2022-10-26 16:35:27.031250
303,26.65,2022-10-26 16:35:27.046875
304,5.36,2022-10-26 16:35:27.062500
305,-23.53,2022-10-26 16:35:27.078125
306,-54.45,2022-10-26 16:35:27.093750
307,-82.82,2022-10-26 16:35:27.109375
308,-107.12,2022-10-26 16:35:27.125000
309,-127.91,2022-10-26 16:35:27.140625
310,-145.27,2022-10-26 16:35:27.156250
311,-157.36,2022-10-26 16:35:27.171875
312,-162.15,2022-10-26 16:35:27.187500
313,-159.62,2022-10-26 16:35:27.203125
314,-152.96,2022-10-26 16:35:27.218750
315,-147.56,2022-10-26 16:35:27.234375
316,-147.52,2022-10-26 16:35:27.250000
317,-153.06,2022-10-26 16:35:27.265625
318,-160.29,2022-10-26 16:35:27.281250
319,-163.43,2022-10-26 16:35:27.296875
320,-159.43,2022-10-26 16:35:27.312500
321,-150.71,2022-10-26 16:35:27.328125
322,-144.34,2022-10-26 16:35:27.343750
323,-149.21,2022-10-26 16:35:27.359375
324,-171.25,2022-10-26 16:35:27.375000
325,-210.64,2022-10-26 16:35:27.390625
326,-261.8,2022-10-26 16:35:27.406250
327,-316.44,2022-10-26 16:35:27.421875
328,-367.38,2022-10-26 16:35:27.437500
329,-409.13,2022-10-26 16:35:27.453125
330,-438.72,2022-10-26 16:35:27.468750
331,-453.26,2022-10-26 16:35:27.484375
332,-448.75,2022-10-26 16:35:27.500000
333,-420.56,2022-10-26 16:35:27.515625
334,-365.63,2022-10-26 16:35:27.531250
335,-284.24,2022-10-26 16:35:27.546875
336,-180.6,2022-10-26 16:35:27.562500
337,-62.33,2022-10-26 16:35:27.578125
338,61.0,2022-10-26 16:35:27.593750
339,179.94,2022-10-26 16:35:27.609375
340,286.17,2022-10-26 16:35:27.625000
341,373.05,2022-10-26 16:35:27.640625
342,436.79,2022-10-26 16:35:27.656250
343,477.04,2022-10-26 16:35:27.671875
344,497.81,2022-10-26 16:35:27.687500
345,506.42,2022-10-26 16:35:27.703125
346,512.15,2022-10-26 16:35:27.718750
347,522.79,2022-10-26 16:35:27.734375
348,541.51,2022-10-26 16:35:27.750000
349,565.65,2022-10-26 16:35:27.765625
350,587.27,2022-10-26 16:35:27.781250
351,596.96,2022-10-26 16:35:27.796875
352,588.22,2022-10-26 16:35:27.812500
353,560.5,2022-10-26 16:35:27.828125
354,519.33,2022-10-26 16:35:27.843750
355,473.65,2022-10-26 16:35:27.859375
356,431.3,2022-10-26 16:35:27.875000
357,395.23,2022-10-26 16:35:27.890625
358,362.2,2022-10-26 16:35:27.906250
359,324.62,2022-10-26 16:35:27.921875
360,274.34,2022-10-26 16:35:27.937500
361,206.98,2022-10-26 16:35:27.953125
362,124.35,2022-10-26 16:35:27.968750
363,35.13,2022-10-26 16:35:27.984375
364,-48.67,2022-10-26 16:35:28.000000
365,-115.69,2022-10-26 16:35:28.015625
366,-159.44,2022-10-26 16:35:28.031250
367,-180.5,2022-10-26 16:35:28.046875
368,-185.99,2022-10-26 16:35:28.062500
369,-186.73,2022-10-26 16:35:28.078125
370,-193.21,2022-10-26 16:35:28.093750
371,-212.11,2022-10-26 16:35:28.109375
372,-244.93,2022-10-26 16:35:28.125000
373,-288.62,2022-10-26 16:35:28.140625
374,-337.01,2022-10-26 16:35:28.156250
375,-383.69,2022-10-26 16:35:28.171875
376,-422.89,2022-10-26 16:35:28.187500
377,-450.64,2022-10-26 16:35:28.203125
378,-464.14,2022-10-26 16:35:28.218750
379,-462.98,2022-10-26 16:35:28.234375
380,-449.78,2022-10-26 16:35:28.250000
381,-430.34,2022-10-26 16:35:28.265625
382,-412.43,2022-10-26 16:35:28.281250
383,-402.91,2022-10-26 16:35:28.296875
384,-404.11,2022-10-26 16:35:28.312500
385,-411.53,2022-10-26 16:35:28.328125
386,-414.56,2022-10-26 16:35:28.343750
387,-399.88,2022-10-26 16:35:28.359375
388,-356.15,2022-10-26 16:35:28.375000
389,-279.18,2022-10-26 16:35:28.390625
390,-174.57,2022-10-26 16:35:28.406250
391,-57.09,2022-10-26 16:35:28.421875
392,53.77,2022-10-26 16:35:28.437500
393,139.27,2022-10-26 16:35:28.453125
394,187.07,2022-10-26 16:35:28.468750
395,195.38,2022-10-26 16:35:28.484375
396,173.18,2022-10-26 16:35:28.500000
397,135.7,2022-10-26 16:35:28.515625
398,99.43,2022-10-26 16:35:28.531250
399,76.45,2022-10-26 16:35:28.546875
400,71.55,2022-10-26 16:35:28.562500
401,83.13,2022-10-26 16:35:28.578125
402,106.46,2022-10-26 16:35:28.593750
403,136.31,2022-10-26 16:35:28.609375
404,167.85,2022-10-26 16:35:28.625000
405,195.4,2022-10-26 16:35:28.640625
406,211.9,2022-10-26 16:35:28.656250
407,210.45,2022-10-26 16:35:28.671875
408,187.72,2022-10-26 16:35:28.687500
409,146.89,2022-10-26 16:35:28.703125
410,97.55,2022-10-26 16:35:28.718750
411,51.28,2022-10-26 16:35:28.734375
412,15.57,2022-10-26 16:35:28.750000
413,-10.09,2022-10-26 16:35:28.765625
414,-33.5,2022-10-26 16:35:28.781250
415,-64.85,2022-10-26 16:35:28.796875
416,-110.2,2022-10-26 16:35:28.812500
417,-168.03,2022-10-26 16:35:28.828125
418,-229.29,2022-10-26 16:35:28.843750
419,-282.06,2022-10-26 16:35:28.859375
420,-316.04,2022-10-26 16:35:28.875000
421,-326.16,2022-10-26 16:35:28.890625
422,-312.55,2022-10-26 16:35:28.906250
423,-279.48,2022-10-26 16:35:28.921875
424,-234.2,2022-10-26 16:35:28.937500
425,-185.55,2022-10-26 16:35:28.953125
426,-142.54,2022-10-26 16:35:28.968750
427,-112.64,2022-10-26 16:35:28.984375
428,-98.66,2022-10-26 16:35:29.000000
429,-98.02,2022-10-26 16:35:29.015625
430,-103.14,2022-10-26 16:35:29.031250
431,-104.76,2022-10-26 16:35:29.046875
432,-96.13,2022-10-26 16:35:29.062500
433,-75.43,2022-10-26 16:35:29.078125
434,-45.6,2022-10-26 16:35:29.093750
435,-12.38,2022-10-26 16:35:29.109375
436,19.43,2022-10-26 16:35:29.125000
437,47.55,2022-10-26 16:35:29.140625
438,72.44,2022-10-26 16:35:29.156250
439,95.64,2022-10-26 16:35:29.171875
440,118.0,2022-10-26 16:35:29.187500
441,139.46,2022-10-26 16:35:29.203125
442,159.55,2022-10-26 16:35:29.218750
443,178.63,2022-10-26 16:35:29.234375
444,198.11,2022-10-26 16:35:29.250000
445,219.67,2022-10-26 16:35:29.265625
446,243.81,2022-10-26 16:35:29.281250
447,268.72,2022-10-26 16:35:29.296875
448,290.42,2022-10-26 16:35:29.312500
449,303.62,2022-10-26 16:35:29.328125
450,303.73,2022-10-26 16:35:29.343750
451,288.5,2022-10-26 16:35:29.359375
452,258.98,2022-10-26 16:35:29.375000
453,218.62,2022-10-26 16:35:29.390625
454,172.01,2022-10-26 16:35:29.406250
455,123.42,2022-10-26 16:35:29.421875
456,75.54,2022-10-26 16:35:29.437500
457,28.93,2022-10-26 16:35:29.453125
458,-17.04,2022-10-26 16:35:29.468750
459,-62.88,2022-10-26 16:35:29.484375
460,-108.05,2022-10-26 16:35:29.500000
461,-150.56,2022-10-26 16:35:29.515625
462,-187.5,2022-10-26 16:35:29.531250
463,-216.2,2022-10-26 16:35:29.546875
464,-235.85,2022-10-26 16:35:29.562500
465,-248.09,2022-10-26 16:35:29.578125
466,-256.39,2022-10-26 16:35:29.593750
467,-264.75,2022-10-26 16:35:29.609375
468,-276.25,2022-10-26 16:35:29.625000
469,-291.61,2022-10-26 16:35:29.640625
470,-308.78,2022-10-26 16:35:29.656250
471,-323.93,2022-10-26 16:35:29.671875
472,-332.68,2022-10-26 16:35:29.687500
473,-331.01,2022-10-26 16:35:29.703125
474,-315.88,2022-10-26 16:35:29.718750
475,-285.82,2022-10-26 16:35:29.734375
476,-242.05,2022-10-26 16:35:29.750000
477,-188.69,2022-10-26 16:35:29.765625
478,-132.51,2022-10-26 16:35:29.781250
479,-81.02,2022-10-26 16:35:29.796875
480,-39.24,2022-10-26 16:35:29.812500
481,-7.53,2022-10-26 16:35:29.828125
482,19.33,2022-10-26 16:35:29.843750
483,49.68,2022-10-26 16:35:29.859375
484,91.59,2022-10-26 16:35:29.875000
485,148.63,2022-10-26 16:35:29.890625
486,217.86,2022-10-26 16:35:29.906250
487,290.19,2022-10-26 16:35:29.921875
488,353.68,2022-10-26 16:35:29.937500
489,397.75,2022-10-26 16:35:29.953125
490,416.83,2022-10-26 16:35:29.968750
491,411.6,2022-10-26 16:35:29.984375
492,388.4,2022-10-26 16:35:30.000000
493,356.2,2022-10-26 16:35:30.015625
494,323.28,2022-10-26 16:35:30.031250
495,295.15,2022-10-26 16:35:30.046875
496,273.39,2022-10-26 16:35:30.062500
497,256.39,2022-10-26 16:35:30.078125
498,241.35,2022-10-26 16:35:30.093750
499,226.32,2022-10-26 16:35:30.109375
500,210.76,2022-10-26 16:35:30.125000
501,194.32,2022-10-26 16:35:30.140625
502,176.15,2022-10-26 16:35:30.156250
503,154.67,2022-10-26 16:35:30.171875
504,128.37,2022-10-26 16:35:30.187500
505,97.87,2022-10-26 16:35:30.203125
506,66.51,2022-10-26 16:35:30.218750
507,40.73,2022-10-26 16:35:30.234375
508,26.86,2022-10-26 16:35:30.250000
509,28.17,2022-10-26 16:35:30.265625
510,42.74,2022-10-26 16:35:30.281250
511,63.49,2022-10-26 16:35:30.296875
512,81.98,2022-10-26 16:35:30.312500
513,91.59,2022-10-26 16:35:30.328125
514,90.85,2022-10-26 16:35:30.343750
515,83.33,2022-10-26 16:35:30.359375
516,74.88,2022-10-26 16:35:30.375000
517,69.31,2022-10-26 16:35:30.390625
518,65.95,2022-10-26 16:35:30.406250
519,59.71,2022-10-26 16:35:30.421875
520,44.0,2022-10-26 16:35:30.437500
521,15.67,2022-10-26 16:35:30.453125
522,-21.35,2022-10-26 16:35:30.468750
523,-56.65,2022-10-26 16:35:30.484375
524,-77.44,2022-10-26 16:35:30.500000
525,-74.67,2022-10-26 16:35:30.515625
526,-48.16,2022-10-26 16:35:30.531250
527,-6.66,2022-10-26 16:35:30.546875
528,36.75,2022-10-26 16:35:30.562500
529,70.57,2022-10-26 16:35:30.578125
530,90.67,2022-10-26 16:35:30.593750
531,99.62,2022-10-26 16:35:30.609375
532,103.58,2022-10-26 16:35:30.625000
533,106.52,2022-10-26 16:35:30.640625
534,107.03,2022-10-26 16:35:30.656250
535,99.96,2022-10-26 16:35:30.671875
536,81.2,2022-10-26 16:35:30.687500
537,52.42,2022-10-26 16:35:30.703125
538,21.26,2022-10-26 16:35:30.718750
539,-1.28,2022-10-26 16:35:30.734375
540,-7.62,2022-10-26 16:35:30.750000
541,2.84,2022-10-26 16:35:30.765625
542,23.58,2022-10-26 16:35:30.781250
543,44.21,2022-10-26 16:35:30.796875
544,56.77,2022-10-26 16:35:30.812500
545,58.62,2022-10-26 16:35:30.828125
546,52.38,2022-10-26 16:35:30.843750
547,42.97,2022-10-26 16:35:30.859375
548,34.08,2022-10-26 16:35:30.875000
549,26.17,2022-10-26 16:35:30.890625
550,16.78,2022-10-26 16:35:30.906250
551,4.11,2022-10-26 16:35:30.921875
552,-11.94,2022-10-26 16:35:30.937500
553,-29.43,2022-10-26 16:35:30.953125
554,-46.46,2022-10-26 16:35:30.968750
555,-63.19,2022-10-26 16:35:30.984375
556,-81.64,2022-10-26 16:35:31.000000
557,-103.17,2022-10-26 16:35:31.015625
558,-126.11,2022-10-26 16:35:31.031250
559,-144.61,2022-10-26 16:35:31.046875
560,-151.24,2022-10-26 16:35:31.062500
561,-141.59,2022-10-26 16:35:31.078125
562,-116.45,2022-10-26 16:35:31.093750
563,-82.31,2022-10-26 16:35:31.109375
564,-46.48,2022-10-26 16:35:31.125000
565,-12.94,2022-10-26 16:35:31.140625
566,19.8,2022-10-26 16:35:31.156250
567,56.14,2022-10-26 16:35:31.171875
568,99.01,2022-10-26 16:35:31.187500
569,146.93,2022-10-26 16:35:31.203125
570,193.5,2022-10-26 16:35:31.218750
571,231.61,2022-10-26 16:35:31.234375
572,256.46,2022-10-26 16:35:31.250000
573,268.13,2022-10-26 16:35:31.265625
574,270.69,2022-10-26 16:35:31.281250
575,268.54,2022-10-26 16:35:31.296875
576,264.12,2022-10-26 16:35:31.312500
577,256.07,2022-10-26 16:35:31.328125
578,240.58,2022-10-26 16:35:31.343750
579,213.91,2022-10-26 16:35:31.359375
580,175.53,2022-10-26 16:35:31.375000
581,129.9,2022-10-26 16:35:31.390625
582,83.97,2022-10-26 16:35:31.406250
583,44.71,2022-10-26 16:35:31.421875
584,16.05,2022-10-26 16:35:31.437500
585,-2.27,2022-10-26 16:35:31.453125
586,-13.06,2022-10-26 16:35:31.468750
587,-19.71,2022-10-26 16:35:31.484375
588,-23.86,2022-10-26 16:35:31.500000
589,-25.01,2022-10-26 16:35:31.515625
590,-22.47,2022-10-26 16:35:31.531250
591,-16.98,2022-10-26 16:35:31.546875
592,-12.0,2022-10-26 16:35:31.562500
593,-12.16,2022-10-26 16:35:31.578125
594,-20.69,2022-10-26 16:35:31.593750
595,-38.09,2022-10-26 16:35:31.609375
596,-61.43,2022-10-26 16:35:31.625000
597,-86.47,2022-10-26 16:35:31.640625
598,-108.87,2022-10-26 16:35:31.656250
599,-125.64,2022-10-26 16:35:31.671875
600,-135.74,2022-10-26 16:35:31.687500
601,-139.19,2022-10-26 16:35:31.703125
602,-137.16,2022-10-26 16:35:31.718750
603,-130.33,2022-10-26 16:35:31.734375
604,-119.08,2022-10-26 16:35:31.750000
605,-103.26,2022-10-26 16:35:31.765625
606,-83.63,2022-10-26 16:35:31.781250
607,-63.1,2022-10-26 16:35:31.796875
608,-46.59,2022-10-26 16:35:31.812500
609,-39.86,2022-10-26 16:35:31.828125
610,-45.57,2022-10-26 16:35:31.843750
611,-61.59,2022-10-26 16:35:31.859375
612,-80.86,2022-10-26 16:35:31.875000
613,-93.83,2022-10-26 16:35:31.890625
614,-91.98,2022-10-26 16:35:31.906250
615,-71.08,2022-10-26 16:35:31.921875
616,-31.99,2022-10-26 16:35:31.937500
617,20.91,2022-10-26 16:35:31.953125
618,81.36,2022-10-26 16:35:31.968750
619,142.25,2022-10-26 16:35:31.984375
620,196.4,2022-10-26 16:35:32.000000
621,237.17,2022-10-26 16:35:32.015625
622,259.17,2022-10-26 16:35:32.031250
623,260.26,2022-10-26 16:35:32.046875
624,241.69,2022-10-26 16:35:32.062500
625,207.59,2022-10-26 16:35:32.078125
626,163.34,2022-10-26 16:35:32.093750
627,113.33,2022-10-26 16:35:32.109375
628,60.9,2022-10-26 16:35:32.125000
629,7.59,2022-10-26 16:35:32.140625
630,-45.77,2022-10-26 16:35:32.156250
631,-98.44,2022-10-26 16:35:32.171875
632,-149.08,2022-10-26 16:35:32.187500
633,-195.37,2022-10-26 16:35:32.203125
634,-234.5,2022-10-26 16:35:32.218750
635,-263.2,2022-10-26 16:35:32.234375
636,-279.07,2022-10-26 16:35:32.250000
637,-281.49,2022-10-26 16:35:32.265625
638,-271.68,2022-10-26 16:35:32.281250
639,-251.45,2022-10-26 16:35:32.296875
640,-222.28,2022-10-26 16:35:32.312500
641,-184.77,2022-10-26 16:35:32.328125
642,-139.73,2022-10-26 16:35:32.343750
643,-89.46,2022-10-26 16:35:32.359375
644,-37.87,2022-10-26 16:35:32.375000
645,10.48,2022-10-26 16:35:32.390625
646,52.2,2022-10-26 16:35:32.406250
647,86.29,2022-10-26 16:35:32.421875
648,113.67,2022-10-26 16:35:32.437500
649,135.37,2022-10-26 16:35:32.453125
650,151.61,2022-10-26 16:35:32.468750
651,161.83,2022-10-26 16:35:32.484375
652,166.11,2022-10-26 16:35:32.500000
653,166.89,2022-10-26 16:35:32.515625
654,167.9,2022-10-26 16:35:32.531250
655,172.5,2022-10-26 16:35:32.546875
656,181.19,2022-10-26 16:35:32.562500
657,190.57,2022-10-26 16:35:32.578125
658,195.66,2022-10-26 16:35:32.593750
659,192.15,2022-10-26 16:35:32.609375
660,178.61,2022-10-26 16:35:32.625000
661,156.21,2022-10-26 16:35:32.640625
662,126.24,2022-10-26 16:35:32.656250
663,89.15,2022-10-26 16:35:32.671875
664,45.0,2022-10-26 16:35:32.687500
665,-4.91,2022-10-26 16:35:32.703125
666,-56.95,2022-10-26 16:35:32.718750
667,-105.48,2022-10-26 16:35:32.734375
668,-144.66,2022-10-26 16:35:32.750000
669,-171.12,2022-10-26 16:35:32.765625
670,-184.4,2022-10-26 16:35:32.781250
671,-186.18,2022-10-26 16:35:32.796875
672,-178.41,2022-10-26 16:35:32.812500
673,-161.79,2022-10-26 16:35:32.828125
674,-135.76,2022-10-26 16:35:32.843750
675,-99.56,2022-10-26 16:35:32.859375
676,-53.65,2022-10-26 16:35:32.875000
677,-0.37,2022-10-26 16:35:32.890625
678,55.4,2022-10-26 16:35:32.906250
679,106.6,2022-10-26 16:35:32.921875
680,145.82,2022-10-26 16:35:32.937500
681,166.03,2022-10-26 16:35:32.953125
682,163.31,2022-10-26 16:35:32.968750
683,139.86,2022-10-26 16:35:32.984375
684,103.98,2022-10-26 16:35:33.000000
685,67.69,2022-10-26 16:35:33.015625
686,41.88,2022-10-26 16:35:33.031250
687,31.03,2022-10-26 16:35:33.046875
688,31.61,2022-10-26 16:35:33.062500
689,33.77,2022-10-26 16:35:33.078125
690,27.05,2022-10-26 16:35:33.093750
691,5.94,2022-10-26 16:35:33.109375
692,-28.39,2022-10-26 16:35:33.125000
693,-68.42,2022-10-26 16:35:33.140625
694,-104.72,2022-10-26 16:35:33.156250
695,-129.59,2022-10-26 16:35:33.171875
696,-139.72,2022-10-26 16:35:33.187500
697,-136.86,2022-10-26 16:35:33.203125
698,-126.77,2022-10-26 16:35:33.218750
699,-117.26,2022-10-26 16:35:33.234375
700,-116.1,2022-10-26 16:35:33.250000
701,-129.05,2022-10-26 16:35:33.265625
702,-157.73,2022-10-26 16:35:33.281250
703,-199.12,2022-10-26 16:35:33.296875
704,-245.55,2022-10-26 16:35:33.312500
705,-287.77,2022-10-26 16:35:33.328125
706,-317.65,2022-10-26 16:35:33.343750
707,-331.82,2022-10-26 16:35:33.359375
708,-332.77,2022-10-26 16:35:33.375000
709,-327.29,2022-10-26 16:35:33.390625
710,-322.63,2022-10-26 16:35:33.406250
711,-323.51,2022-10-26 16:35:33.421875
712,-329.35,2022-10-26 16:35:33.437500
713,-334.6,2022-10-26 16:35:33.453125
714,-331.9,2022-10-26 16:35:33.468750
715,-314.52,2022-10-26 16:35:33.484375
716,-279.46,2022-10-26 16:35:33.500000
717,-228.12,2022-10-26 16:35:33.515625
718,-165.23,2022-10-26 16:35:33.531250
719,-96.55,2022-10-26 16:35:33.546875
720,-26.43,2022-10-26 16:35:33.562500
721,43.23,2022-10-26 16:35:33.578125
722,111.81,2022-10-26 16:35:33.593750
723,179.01,2022-10-26 16:35:33.609375
724,243.65,2022-10-26 16:35:33.625000
725,303.07,2022-10-26 16:35:33.640625
726,353.65,2022-10-26 16:35:33.656250
727,392.4,2022-10-26 16:35:33.671875
728,418.28,2022-10-26 16:35:33.687500
729,432.71,2022-10-26 16:35:33.703125
730,439.6,2022-10-26 16:35:33.718750
731,443.47,2022-10-26 16:35:33.734375
732,447.5,2022-10-26 16:35:33.750000
733,451.98,2022-10-26 16:35:33.765625
734,453.69,2022-10-26 16:35:33.781250
735,447.61,2022-10-26 16:35:33.796875
736,429.82,2022-10-26 16:35:33.812500
737,399.32,2022-10-26 16:35:33.828125
738,358.96,2022-10-26 16:35:33.843750
739,314.45,2022-10-26 16:35:33.859375
740,271.3,2022-10-26 16:35:33.875000
741,232.16,2022-10-26 16:35:33.890625
742,196.61,2022-10-26 16:35:33.906250
743,162.39,2022-10-26 16:35:33.921875
744,128.04,2022-10-26 16:35:33.937500
745,94.87,2022-10-26 16:35:33.953125
746,66.4,2022-10-26 16:35:33.968750
747,45.78,2022-10-26 16:35:33.984375
748,32.95,2022-10-26 16:35:34.000000
749,24.53,2022-10-26 16:35:34.015625
750,15.37,2022-10-26 16:35:34.031250
751,1.6,2022-10-26 16:35:34.046875
752,-17.47,2022-10-26 16:35:34.062500
753,-39.42,2022-10-26 16:35:34.078125
754,-61.49,2022-10-26 16:35:34.093750
755,-82.95,2022-10-26 16:35:34.109375
756,-105.74,2022-10-26 16:35:34.125000
757,-132.8,2022-10-26 16:35:34.140625
758,-166.26,2022-10-26 16:35:34.156250
759,-205.15,2022-10-26 16:35:34.171875
760,-245.67,2022-10-26 16:35:34.187500
761,-282.89,2022-10-26 16:35:34.203125
762,-311.14,2022-10-26 16:35:34.218750
763,-326.35,2022-10-26 16:35:34.234375
764,-326.64,2022-10-26 16:35:34.250000
765,-313.53,2022-10-26 16:35:34.265625
766,-292.46,2022-10-26 16:35:34.281250
767,-271.9,2022-10-26 16:35:34.296875
768,-260.4,2022-10-26 16:35:34.312500
769,-262.48,2022-10-26 16:35:34.328125
770,-276.85,2022-10-26 16:35:34.343750
771,-295.46,2022-10-26 16:35:34.359375
772,-307.7,2022-10-26 16:35:34.375000
773,-303.97,2022-10-26 16:35:34.390625
774,-278.82,2022-10-26 16:35:34.406250
775,-231.39,2022-10-26 16:35:34.421875
776,-164.1,2022-10-26 16:35:34.437500
777,-81.4,2022-10-26 16:35:34.453125
778,11.5,2022-10-26 16:35:34.468750
779,108.27,2022-10-26 16:35:34.484375
780,201.76,2022-10-26 16:35:34.500000
781,284.62,2022-10-26 16:35:34.515625
782,350.73,2022-10-26 16:35:34.531250
783,395.64,2022-10-26 16:35:34.546875
784,417.41,2022-10-26 16:35:34.562500
785,417.28,2022-10-26 16:35:34.578125
786,398.56,2022-10-26 16:35:34.593750
787,366.9,2022-10-26 16:35:34.609375
788,328.03,2022-10-26 16:35:34.625000
789,286.82,2022-10-26 16:35:34.640625
790,245.36,2022-10-26 16:35:34.656250
791,203.31,2022-10-26 16:35:34.671875
792,159.96,2022-10-26 16:35:34.687500
793,115.99,2022-10-26 16:35:34.703125
794,75.05,2022-10-26 16:35:34.718750
795,42.0,2022-10-26 16:35:34.734375
796,20.84,2022-10-26 16:35:34.750000
797,11.56,2022-10-26 16:35:34.765625
798,10.12,2022-10-26 16:35:34.781250
799,10.23,2022-10-26 16:35:34.796875
800,6.16,2022-10-26 16:35:34.812500
801,-4.04,2022-10-26 16:35:34.828125
802,-19.04,2022-10-26 16:35:34.843750
803,-35.84,2022-10-26 16:35:34.859375
804,-52.09,2022-10-26 16:35:34.875000
805,-66.98,2022-10-26 16:35:34.890625
806,-81.37,2022-10-26 16:35:34.906250
807,-96.72,2022-10-26 16:35:34.921875
808,-114.66,2022-10-26 16:35:34.937500
809,-136.81,2022-10-26 16:35:34.953125
810,-164.76,2022-10-26 16:35:34.968750
811,-199.68,2022-10-26 16:35:34.984375
812,-241.74,2022-10-26 16:35:35.000000
813,-288.87,2022-10-26 16:35:35.015625
814,-336.2,2022-10-26 16:35:35.031250
815,-377.05,2022-10-26 16:35:35.046875
816,-403.87,2022-10-26 16:35:35.062500
817,-410.52,2022-10-26 16:35:35.078125
818,-394.95,2022-10-26 16:35:35.093750
819,-358.8,2022-10-26 16:35:35.109375
820,-306.79,2022-10-26 16:35:35.125000
821,-243.73,2022-10-26 16:35:35.140625
822,-172.53,2022-10-26 16:35:35.156250
823,-94.27,2022-10-26 16:35:35.171875
824,-9.49,2022-10-26 16:35:35.187500
825,79.41,2022-10-26 16:35:35.203125
826,166.81,2022-10-26 16:35:35.218750
827,244.27,2022-10-26 16:35:35.234375
828,303.2,2022-10-26 16:35:35.250000
829,337.59,2022-10-26 16:35:35.265625
830,345.76,2022-10-26 16:35:35.281250
831,330.08,2022-10-26 16:35:35.296875
832,295.49,2022-10-26 16:35:35.312500
833,247.84,2022-10-26 16:35:35.328125
834,193.07,2022-10-26 16:35:35.343750
835,137.11,2022-10-26 16:35:35.359375
836,86.73,2022-10-26 16:35:35.375000
837,48.33,2022-10-26 16:35:35.390625
838,26.22,2022-10-26 16:35:35.406250
839,20.7,2022-10-26 16:35:35.421875
840,27.37,2022-10-26 16:35:35.437500
841,38.34,2022-10-26 16:35:35.453125
842,45.06,2022-10-26 16:35:35.468750
843,42.54,2022-10-26 16:35:35.484375
844,31.15,2022-10-26 16:35:35.500000
845,17.08,2022-10-26 16:35:35.515625
846,9.16,2022-10-26 16:35:35.531250
847,14.32,2022-10-26 16:35:35.546875
848,34.36,2022-10-26 16:35:35.562500
849,64.79,2022-10-26 16:35:35.578125
850,96.91,2022-10-26 16:35:35.593750
851,122.04,2022-10-26 16:35:35.609375
852,135.64,2022-10-26 16:35:35.625000
853,139.18,2022-10-26 16:35:35.640625
854,138.85,2022-10-26 16:35:35.656250
855,141.82,2022-10-26 16:35:35.671875
856,151.65,2022-10-26 16:35:35.687500
857,165.8,2022-10-26 16:35:35.703125
858,176.91,2022-10-26 16:35:35.718750
859,176.66,2022-10-26 16:35:35.734375
860,160.71,2022-10-26 16:35:35.750000
861,130.64,2022-10-26 16:35:35.765625
862,93.28,2022-10-26 16:35:35.781250
863,55.85,2022-10-26 16:35:35.796875
864,21.71,2022-10-26 16:35:35.812500
865,-10.75,2022-10-26 16:35:35.828125
866,-45.94,2022-10-26 16:35:35.843750
867,-86.64,2022-10-26 16:35:35.859375
868,-130.0,2022-10-26 16:35:35.875000
869,-168.53,2022-10-26 16:35:35.890625
870,-193.42,2022-10-26 16:35:35.906250
871,-200.47,2022-10-26 16:35:35.921875
872,-192.99,2022-10-26 16:35:35.937500
873,-180.42,2022-10-26 16:35:35.953125
874,-173.61,2022-10-26 16:35:35.968750
875,-179.03,2022-10-26 16:35:35.984375
876,-195.91,2022-10-26 16:35:36.000000
877,-217.94,2022-10-26 16:35:36.015625
878,-238.36,2022-10-26 16:35:36.031250
879,-254.91,2022-10-26 16:35:36.046875
880,-271.3,2022-10-26 16:35:36.062500
881,-293.87,2022-10-26 16:35:36.078125
882,-325.71,2022-10-26 16:35:36.093750
883,-361.94,2022-10-26 16:35:36.109375
884,-389.95,2022-10-26 16:35:36.125000
885,-394.7,2022-10-26 16:35:36.140625
886,-367.21,2022-10-26 16:35:36.156250
887,-309.56,2022-10-26 16:35:36.171875
888,-235.09,2022-10-26 16:35:36.187500
889,-162.6,2022-10-26 16:35:36.203125
890,-108.65,2022-10-26 16:35:36.218750
891,-81.81,2022-10-26 16:35:36.234375
892,-80.61,2022-10-26 16:35:36.250000
893,-97.03,2022-10-26 16:35:36.265625
894,-120.87,2022-10-26 16:35:36.281250
895,-142.67,2022-10-26 16:35:36.296875
896,-155.68,2022-10-26 16:35:36.312500
897,-155.44,2022-10-26 16:35:36.328125
898,-140.18,2022-10-26 16:35:36.343750
899,-110.54,2022-10-26 16:35:36.359375
900,-68.95,2022-10-26 16:35:36.375000
901,-19.42,2022-10-26 16:35:36.390625
902,34.42,2022-10-26 16:35:36.406250
903,90.34,2022-10-26 16:35:36.421875
904,146.87,2022-10-26 16:35:36.437500
905,202.38,2022-10-26 16:35:36.453125
906,253.54,2022-10-26 16:35:36.468750
907,295.73,2022-10-26 16:35:36.484375
908,325.39,2022-10-26 16:35:36.500000
909,341.26,2022-10-26 16:35:36.515625
910,345.76,2022-10-26 16:35:36.531250
911,343.43,2022-10-26 16:35:36.546875
912,337.95,2022-10-26 16:35:36.562500
913,329.95,2022-10-26 16:35:36.578125
914,316.95,2022-10-26 16:35:36.593750
915,296.55,2022-10-26 16:35:36.609375
916,269.26,2022-10-26 16:35:36.625000
917,240.83,2022-10-26 16:35:36.640625
918,220.35,2022-10-26 16:35:36.656250
919,216.21,2022-10-26 16:35:36.671875
920,230.13,2022-10-26 16:35:36.687500
921,254.91,2022-10-26 16:35:36.703125
922,276.38,2022-10-26 16:35:36.718750
923,278.82,2022-10-26 16:35:36.734375
924,252.86,2022-10-26 16:35:36.750000
925,199.46,2022-10-26 16:35:36.765625
926,129.23,2022-10-26 16:35:36.781250
927,57.61,2022-10-26 16:35:36.796875
928,-1.83,2022-10-26 16:35:36.812500
929,-41.95,2022-10-26 16:35:36.828125
930,-63.09,2022-10-26 16:35:36.843750
931,-70.89,2022-10-26 16:35:36.859375
932,-71.96,2022-10-26 16:35:36.875000
933,-71.41,2022-10-26 16:35:36.890625
934,-72.46,2022-10-26 16:35:36.906250
935,-77.21,2022-10-26 16:35:36.921875
936,-87.41,2022-10-26 16:35:36.937500
937,-103.22,2022-10-26 16:35:36.953125
938,-122.06,2022-10-26 16:35:36.968750
939,-138.18,2022-10-26 16:35:36.984375
940,-143.86,2022-10-26 16:35:37.000000
941,-132.57,2022-10-26 16:35:37.015625
942,-102.29,2022-10-26 16:35:37.031250
943,-56.22,2022-10-26 16:35:37.046875
944,-1.35,2022-10-26 16:35:37.062500
945,54.26,2022-10-26 16:35:37.078125
946,103.82,2022-10-26 16:35:37.093750
947,142.61,2022-10-26 16:35:37.109375
948,167.89,2022-10-26 16:35:37.125000
949,179.23,2022-10-26 16:35:37.140625
950,178.03,2022-10-26 16:35:37.156250
951,168.21,2022-10-26 16:35:37.171875
952,155.14,2022-10-26 16:35:37.187500
953,144.24,2022-10-26 16:35:37.203125
954,138.86,2022-10-26 16:35:37.218750
955,138.52,2022-10-26 16:35:37.234375
956,140.21,2022-10-26 16:35:37.250000
957,139.6,2022-10-26 16:35:37.265625
958,133.28,2022-10-26 16:35:37.281250
959,119.57,2022-10-26 16:35:37.296875
960,98.44,2022-10-26 16:35:37.312500
961,70.47,2022-10-26 16:35:37.328125
962,36.92,2022-10-26 16:35:37.343750
963,-0.19,2022-10-26 16:35:37.359375
964,-37.61,2022-10-26 16:35:37.375000
965,-71.05,2022-10-26 16:35:37.390625
966,-97.18,2022-10-26 16:35:37.406250
967,-114.77,2022-10-26 16:35:37.421875
968,-124.57,2022-10-26 16:35:37.437500
969,-128.37,2022-10-26 16:35:37.453125
970,-127.5,2022-10-26 16:35:37.468750
971,-122.66,2022-10-26 16:35:37.484375
972,-115.74,2022-10-26 16:35:37.500000
973,-110.19,2022-10-26 16:35:37.515625
974,-111.4,2022-10-26 16:35:37.531250
975,-123.89,2022-10-26 16:35:37.546875
976,-149.19,2022-10-26 16:35:37.562500
977,-185.1,2022-10-26 16:35:37.578125
978,-226.4,2022-10-26 16:35:37.593750
979,-267.05,2022-10-26 16:35:37.609375
980,-301.19,2022-10-26 16:35:37.625000
981,-323.37,2022-10-26 16:35:37.640625
982,-327.93,2022-10-26 16:35:37.656250
983,-309.06,2022-10-26 16:35:37.671875
984,-264.3,2022-10-26 16:35:37.687500
985,-197.4,2022-10-26 16:35:37.703125
986,-119.91,2022-10-26 16:35:37.718750
987,-48.93,2022-10-26 16:35:37.734375
988,-0.55,2022-10-26 16:35:37.750000
989,16.94,2022-10-26 16:35:37.765625
990,6.11,2022-10-26 16:35:37.781250
991,-21.32,2022-10-26 16:35:37.796875
992,-50.42,2022-10-26 16:35:37.812500
993,-70.19,2022-10-26 16:35:37.828125
994,-76.78,2022-10-26 16:35:37.843750
995,-73.2,2022-10-26 16:35:37.859375
996,-66.36,2022-10-26 16:35:37.875000
997,-62.08,2022-10-26 16:35:37.890625
998,-62.56,2022-10-26 16:35:37.906250
999,-64.51,2022-10-26 16:35:37.921875
1000,-60.68,2022-10-26 16:35:37.937500
1001,-43.43,2022-10-26 16:35:37.953125
1002,-8.35,2022-10-26 16:35:37.968750
1003,42.77,2022-10-26 16:35:37.984375
1004,102.26,2022-10-26 16:35:38.000000
1005,159.79,2022-10-26 16:35:38.015625
1006,206.85,2022-10-26 16:35:38.031250
1007,240.06,2022-10-26 16:35:38.046875
1008,261.25,2022-10-26 16:35:38.062500
1009,275.39,2022-10-26 16:35:38.078125
1010,286.94,2022-10-26 16:35:38.093750
1011,297.02,2022-10-26 16:35:38.109375
1012,303.46,2022-10-26 16:35:38.125000
1013,302.5,2022-10-26 16:35:38.140625
1014,290.42,2022-10-26 16:35:38.156250
1015,265.32,2022-10-26 16:35:38.171875
1016,225.79,2022-10-26 16:35:38.187500
1017,171.81,2022-10-26 16:35:38.203125
1018,104.88,2022-10-26 16:35:38.218750
1019,28.56,2022-10-26 16:35:38.234375
1020,-50.61,2022-10-26 16:35:38.250000
1021,-124.24,2022-10-26 16:35:38.265625
1022,-184.28,2022-10-26 16:35:38.281250
1023,-224.79,2022-10-26 16:35:38.296875
1024,-242.42,2022-10-26 16:35:38.312500
1025,-237.08,2022-10-26 16:35:38.328125
1026,-211.33,2022-10-26 16:35:38.343750
1027,-170.08,2022-10-26 16:35:38.359375
1028,-120.19,2022-10-26 16:35:38.375000
1029,-68.83,2022-10-26 16:35:38.390625
1030,-22.28,2022-10-26 16:35:38.406250
1031,15.7,2022-10-26 16:35:38.421875
1032,43.98,2022-10-26 16:35:38.437500
1033,63.6,2022-10-26 16:35:38.453125
1034,76.21,2022-10-26 16:35:38.468750
1035,83.0,2022-10-26 16:35:38.484375
1036,84.63,2022-10-26 16:35:38.500000
1037,81.72,2022-10-26 16:35:38.515625
1038,76.72,2022-10-26 16:35:38.531250
1039,73.54,2022-10-26 16:35:38.546875
1040,76.21,2022-10-26 16:35:38.562500
1041,86.84,2022-10-26 16:35:38.578125
1042,103.68,2022-10-26 16:35:38.593750
1043,122.48,2022-10-26 16:35:38.609375
1044,137.64,2022-10-26 16:35:38.625000
1045,144.55,2022-10-26 16:35:38.640625
1046,140.04,2022-10-26 16:35:38.656250
1047,122.6,2022-10-26 16:35:38.671875
1048,90.75,2022-10-26 16:35:38.687500
1049,44.41,2022-10-26 16:35:38.703125
1050,-14.0,2022-10-26 16:35:38.718750
1051,-79.08,2022-10-26 16:35:38.734375
1052,-142.5,2022-10-26 16:35:38.750000
1053,-195.47,2022-10-26 16:35:38.765625
1054,-231.59,2022-10-26 16:35:38.781250
1055,-248.67,2022-10-26 16:35:38.796875
1056,-248.62,2022-10-26 16:35:38.812500
1057,-235.82,2022-10-26 16:35:38.828125
1058,-214.44,2022-10-26 16:35:38.843750
1059,-187.64,2022-10-26 16:35:38.859375
1060,-157.29,2022-10-26 16:35:38.875000
1061,-124.75,2022-10-26 16:35:38.890625
1062,-91.07,2022-10-26 16:35:38.906250
1063,-56.53,2022-10-26 16:35:38.921875
1064,-20.47,2022-10-26 16:35:38.937500
1065,18.65,2022-10-26 16:35:38.953125
1066,60.37,2022-10-26 16:35:38.968750
1067,101.86,2022-10-26 16:35:38.984375
1068,137.49,2022-10-26 16:35:39.000000
1069,159.93,2022-10-26 16:35:39.015625
1070,163.86,2022-10-26 16:35:39.031250
1071,147.68,2022-10-26 16:35:39.046875
1072,114.26,2022-10-26 16:35:39.062500
1073,70.51,2022-10-26 16:35:39.078125
1074,24.42,2022-10-26 16:35:39.093750
1075,-16.71,2022-10-26 16:35:39.109375
1076,-48.29,2022-10-26 16:35:39.125000
1077,-69.79,2022-10-26 16:35:39.140625
1078,-83.67,2022-10-26 16:35:39.156250
1079,-92.14,2022-10-26 16:35:39.171875
1080,-95.56,2022-10-26 16:35:39.187500
1081,-90.35,2022-10-26 16:35:39.203125
1082,-70.71,2022-10-26 16:35:39.218750
1083,-32.95,2022-10-26 16:35:39.234375
1084,20.61,2022-10-26 16:35:39.250000
1085,80.71,2022-10-26 16:35:39.265625
1086,134.57,2022-10-26 16:35:39.281250
1087,172.25,2022-10-26 16:35:39.296875
1088,191.57,2022-10-26 16:35:39.312500
1089,198.59,2022-10-26 16:35:39.328125
1090,203.73,2022-10-26 16:35:39.343750
1091,214.86,2022-10-26 16:35:39.359375
1092,232.85,2022-10-26 16:35:39.375000
1093,251.36,2022-10-26 16:35:39.390625
1094,262.37,2022-10-26 16:35:39.406250
1095,261.68,2022-10-26 16:35:39.421875
1096,251.0,2022-10-26 16:35:39.437500
1097,236.82,2022-10-26 16:35:39.453125
1098,224.38,2022-10-26 16:35:39.468750
1099,213.36,2022-10-26 16:35:39.484375
1100,197.84,2022-10-26 16:35:39.500000
1101,169.55,2022-10-26 16:35:39.515625
1102,123.62,2022-10-26 16:35:39.531250
1103,62.54,2022-10-26 16:35:39.546875
1104,-4.64,2022-10-26 16:35:39.562500
1105,-65.84,2022-10-26 16:35:39.578125
1106,-112.17,2022-10-26 16:35:39.593750
1107,-142.33,2022-10-26 16:35:39.609375
1108,-161.9,2022-10-26 16:35:39.625000
1109,-179.92,2022-10-26 16:35:39.640625
1110,-202.85,2022-10-26 16:35:39.656250
1111,-230.77,2022-10-26 16:35:39.671875
1112,-258.48,2022-10-26 16:35:39.687500
1113,-278.82,2022-10-26 16:35:39.703125
1114,-287.48,2022-10-26 16:35:39.718750
1115,-284.56,2022-10-26 16:35:39.734375
1116,-273.71,2022-10-26 16:35:39.750000
1117,-258.53,2022-10-26 16:35:39.765625
1118,-240.49,2022-10-26 16:35:39.781250
1119,-219.45,2022-10-26 16:35:39.796875
1120,-196.16,2022-10-26 16:35:39.812500
1121,-174.88,2022-10-26 16:35:39.828125
1122,-163.25,2022-10-26 16:35:39.843750
1123,-168.42,2022-10-26 16:35:39.859375
1124,-192.68,2022-10-26 16:35:39.875000
1125,-232.15,2022-10-26 16:35:39.890625
1126,-278.27,2022-10-26 16:35:39.906250
1127,-322.03,2022-10-26 16:35:39.921875
1128,-357.68,2022-10-26 16:35:39.937500
1129,-383.23,2022-10-26 16:35:39.953125
1130,-398.75,2022-10-26 16:35:39.968750
1131,-404.89,2022-10-26 16:35:39.984375
1132,-402.4,2022-10-26 16:35:40.000000
1133,-392.58,2022-10-26 16:35:40.015625
1134,-379.02,2022-10-26 16:35:40.031250
1135,-365.95,2022-10-26 16:35:40.046875
1136,-356.57,2022-10-26 16:35:40.062500
1137,-349.96,2022-10-26 16:35:40.078125
1138,-340.22,2022-10-26 16:35:40.093750
1139,-319.31,2022-10-26 16:35:40.109375
1140,-281.57,2022-10-26 16:35:40.125000
1141,-227.36,2022-10-26 16:35:40.140625
1142,-163.44,2022-10-26 16:35:40.156250
1143,-99.62,2022-10-26 16:35:40.171875
1144,-44.1,2022-10-26 16:35:40.187500
1145,0.27,2022-10-26 16:35:40.203125
1146,35.48,2022-10-26 16:35:40.218750
1147,66.16,2022-10-26 16:35:40.234375
1148,96.36,2022-10-26 16:35:40.250000
1149,128.55,2022-10-26 16:35:40.265625
1150,164.37,2022-10-26 16:35:40.281250
1151,206.35,2022-10-26 16:35:40.296875
1152,257.62,2022-10-26 16:35:40.312500
1153,320.06,2022-10-26 16:35:40.328125
1154,390.24,2022-10-26 16:35:40.343750
1155,458.64,2022-10-26 16:35:40.359375
1156,512.38,2022-10-26 16:35:40.375000
1157,540.38,2022-10-26 16:35:40.390625
1158,538.97,2022-10-26 16:35:40.406250
1159,514.33,2022-10-26 16:35:40.421875
1160,479.13,2022-10-26 16:35:40.437500
1161,446.27,2022-10-26 16:35:40.453125
1162,422.37,2022-10-26 16:35:40.468750
1163,405.35,2022-10-26 16:35:40.484375
1164,386.3,2022-10-26 16:35:40.500000
1165,356.12,2022-10-26 16:35:40.515625
1166,310.44,2022-10-26 16:35:40.531250
1167,251.78,2022-10-26 16:35:40.546875
1168,187.19,2022-10-26 16:35:40.562500
1169,123.73,2022-10-26 16:35:40.578125
1170,65.24,2022-10-26 16:35:40.593750
1171,12.55,2022-10-26 16:35:40.609375
1172,-35.58,2022-10-26 16:35:40.625000
1173,-79.48,2022-10-26 16:35:40.640625
1174,-118.46,2022-10-26 16:35:40.656250
1175,-151.55,2022-10-26 16:35:40.671875
1176,-179.04,2022-10-26 16:35:40.687500
1177,-202.19,2022-10-26 16:35:40.703125
1178,-222.44,2022-10-26 16:35:40.718750
1179,-239.77,2022-10-26 16:35:40.734375
1180,-251.55,2022-10-26 16:35:40.750000
1181,-253.78,2022-10-26 16:35:40.765625
1182,-243.22,2022-10-26 16:35:40.781250
1183,-219.23,2022-10-26 16:35:40.796875
1184,-184.41,2022-10-26 16:35:40.812500
1185,-142.65,2022-10-26 16:35:40.828125
1186,-98.03,2022-10-26 16:35:40.843750
1187,-53.8,2022-10-26 16:35:40.859375
1188,-11.85,2022-10-26 16:35:40.875000
1189,26.79,2022-10-26 16:35:40.890625
1190,60.62,2022-10-26 16:35:40.906250
1191,88.19,2022-10-26 16:35:40.921875
1192,107.23,2022-10-26 16:35:40.937500
1193,116.0,2022-10-26 16:35:40.953125
1194,114.72,2022-10-26 16:35:40.968750
1195,106.38,2022-10-26 16:35:40.984375
1196,96.63,2022-10-26 16:35:41.000000
1197,91.79,2022-10-26 16:35:41.015625
1198,95.55,2022-10-26 16:35:41.031250
1199,106.34,2022-10-26 16:35:41.046875
1200,117.43,2022-10-26 16:35:41.062500
1201,120.29,2022-10-26 16:35:41.078125
1202,108.99,2022-10-26 16:35:41.093750
1203,84.11,2022-10-26 16:35:41.109375
1204,52.67,2022-10-26 16:35:41.125000
1205,25.41,2022-10-26 16:35:41.140625
1206,10.79,2022-10-26 16:35:41.156250
1207,10.45,2022-10-26 16:35:41.171875
1208,18.13,2022-10-26 16:35:41.187500
1209,23.48,2022-10-26 16:35:41.203125
1210,17.93,2022-10-26 16:35:41.218750
1211,-0.03,2022-10-26 16:35:41.234375
1212,-23.44,2022-10-26 16:35:41.250000
1213,-41.39,2022-10-26 16:35:41.265625
1214,-45.41,2022-10-26 16:35:41.281250
1215,-34.45,2022-10-26 16:35:41.296875
1216,-15.52,2022-10-26 16:35:41.312500
1217,1.82,2022-10-26 16:35:41.328125
1218,12.0,2022-10-26 16:35:41.343750
1219,18.13,2022-10-26 16:35:41.359375
1220,30.45,2022-10-26 16:35:41.375000
1221,60.19,2022-10-26 16:35:41.390625
1222,112.49,2022-10-26 16:35:41.406250
1223,183.28,2022-10-26 16:35:41.421875
1224,260.88,2022-10-26 16:35:41.437500
1225,331.45,2022-10-26 16:35:41.453125
1226,384.91,2022-10-26 16:35:41.468750
1227,416.78,2022-10-26 16:35:41.484375
1228,427.54,2022-10-26 16:35:41.500000
1229,420.31,2022-10-26 16:35:41.515625
1230,398.36,2022-10-26 16:35:41.531250
1231,364.06,2022-10-26 16:35:41.546875
1232,318.05,2022-10-26 16:35:41.562500
1233,259.37,2022-10-26 16:35:41.578125
1234,186.44,2022-10-26 16:35:41.593750
1235,98.48,2022-10-26 16:35:41.609375
1236,-3.34,2022-10-26 16:35:41.625000
1237,-114.27,2022-10-26 16:35:41.640625
1238,-226.07,2022-10-26 16:35:41.656250
1239,-328.77,2022-10-26 16:35:41.671875
1240,-412.74,2022-10-26 16:35:41.687500
1241,-471.72,2022-10-26 16:35:41.703125
1242,-504.74,2022-10-26 16:35:41.718750
1243,-516.96,2022-10-26 16:35:41.734375
1244,-518.07,2022-10-26 16:35:41.750000
1245,-518.33,2022-10-26 16:35:41.765625
1246,-523.57,2022-10-26 16:35:41.781250
1247,-531.57,2022-10-26 16:35:41.796875
1248,-532.5,2022-10-26 16:35:41.812500
1249,-513.22,2022-10-26 16:35:41.828125
1250,-464.86,2022-10-26 16:35:41.843750
1251,-387.88,2022-10-26 16:35:41.859375
1252,-292.93,2022-10-26 16:35:41.875000
1253,-195.81,2022-10-26 16:35:41.890625
1254,-110.81,2022-10-26 16:35:41.906250
1255,-45.04,2022-10-26 16:35:41.921875
1256,2.54,2022-10-26 16:35:41.937500
1257,37.82,2022-10-26 16:35:41.953125
1258,67.82,2022-10-26 16:35:41.968750
1259,97.39,2022-10-26 16:35:41.984375
1260,128.53,2022-10-26 16:35:42.000000
1261,161.13,2022-10-26 16:35:42.015625
1262,192.94,2022-10-26 16:35:42.031250
1263,220.22,2022-10-26 16:35:42.046875
1264,238.96,2022-10-26 16:35:42.062500
1265,246.43,2022-10-26 16:35:42.078125
1266,243.33,2022-10-26 16:35:42.093750
1267,234.31,2022-10-26 16:35:42.109375
1268,225.82,2022-10-26 16:35:42.125000
1269,222.84,2022-10-26 16:35:42.140625
1270,225.41,2022-10-26 16:35:42.156250
1271,228.31,2022-10-26 16:35:42.171875
1272,223.49,2022-10-26 16:35:42.187500
1273,203.92,2022-10-26 16:35:42.203125
1274,167.69,2022-10-26 16:35:42.218750
1275,118.95,2022-10-26 16:35:42.234375
1276,66.11,2022-10-26 16:35:42.250000
1277,18.55,2022-10-26 16:35:42.265625
1278,-16.8,2022-10-26 16:35:42.281250
1279,-37.87,2022-10-26 16:35:42.296875
1280,-46.97,2022-10-26 16:35:42.312500
1281,-48.67,2022-10-26 16:35:42.328125
1282,-47.34,2022-10-26 16:35:42.343750
1283,-45.39,2022-10-26 16:35:42.359375
1284,-43.49,2022-10-26 16:35:42.375000
1285,-40.97,2022-10-26 16:35:42.390625
1286,-37.46,2022-10-26 16:35:42.406250
1287,-33.44,2022-10-26 16:35:42.421875
1288,-30.22,2022-10-26 16:35:42.437500
1289,-28.9,2022-10-26 16:35:42.453125
1290,-29.63,2022-10-26 16:35:42.468750
1291,-31.73,2022-10-26 16:35:42.484375
1292,-33.88,2022-10-26 16:35:42.500000
1293,-34.18,2022-10-26 16:35:42.515625
1294,-30.09,2022-10-26 16:35:42.531250
1295,-19.09,2022-10-26 16:35:42.546875
1296,0.66,2022-10-26 16:35:42.562500
1297,28.85,2022-10-26 16:35:42.578125
1298,62.9,2022-10-26 16:35:42.593750
1299,97.26,2022-10-26 16:35:42.609375
1300,124.58,2022-10-26 16:35:42.625000
1301,137.89,2022-10-26 16:35:42.640625
1302,132.35,2022-10-26 16:35:42.656250
1303,107.43,2022-10-26 16:35:42.671875
1304,66.54,2022-10-26 16:35:42.687500
1305,16.05,2022-10-26 16:35:42.703125
1306,-37.07,2022-10-26 16:35:42.718750
1307,-87.27,2022-10-26 16:35:42.734375
1308,-131.23,2022-10-26 16:35:42.750000
1309,-166.92,2022-10-26 16:35:42.765625
1310,-192.86,2022-10-26 16:35:42.781250
1311,-207.63,2022-10-26 16:35:42.796875
1312,-210.43,2022-10-26 16:35:42.812500
1313,-201.88,2022-10-26 16:35:42.828125
1314,-184.04,2022-10-26 16:35:42.843750
1315,-160.09,2022-10-26 16:35:42.859375
1316,-132.71,2022-10-26 16:35:42.875000
1317,-102.8,2022-10-26 16:35:42.890625
1318,-69.16,2022-10-26 16:35:42.906250
1319,-29.17,2022-10-26 16:35:42.921875
1320,18.53,2022-10-26 16:35:42.937500
1321,73.51,2022-10-26 16:35:42.953125
1322,133.49,2022-10-26 16:35:42.968750
1323,195.55,2022-10-26 16:35:42.984375
1324,257.54,2022-10-26 16:35:43.000000
1325,316.94,2022-10-26 16:35:43.015625
1326,370.23,2022-10-26 16:35:43.031250
1327,411.89,2022-10-26 16:35:43.046875
1328,436.05,2022-10-26 16:35:43.062500
1329,438.89,2022-10-26 16:35:43.078125
1330,421.18,2022-10-26 16:35:43.093750
1331,388.19,2022-10-26 16:35:43.109375
1332,347.63,2022-10-26 16:35:43.125000
1333,306.31,2022-10-26 16:35:43.140625
1334,266.98,2022-10-26 16:35:43.156250
1335,228.09,2022-10-26 16:35:43.171875
1336,185.55,2022-10-26 16:35:43.187500
1337,136.22,2022-10-26 16:35:43.203125
1338,81.21,2022-10-26 16:35:43.218750
1339,25.65,2022-10-26 16:35:43.234375
1340,-24.07,2022-10-26 16:35:43.250000
1341,-63.88,2022-10-26 16:35:43.265625
1342,-94.66,2022-10-26 16:35:43.281250
1343,-120.43,2022-10-26 16:35:43.296875
1344,-144.81,2022-10-26 16:35:43.312500
1345,-167.01,2022-10-26 16:35:43.328125
1346,-181.11,2022-10-26 16:35:43.343750
1347,-179.09,2022-10-26 16:35:43.359375
1348,-156.37,2022-10-26 16:35:43.375000
1349,-116.6,2022-10-26 16:35:43.390625
1350,-72.05,2022-10-26 16:35:43.406250
1351,-38.86,2022-10-26 16:35:43.421875
1352,-29.4,2022-10-26 16:35:43.437500
1353,-46.21,2022-10-26 16:35:43.453125
1354,-81.08,2022-10-26 16:35:43.468750
1355,-120.08,2022-10-26 16:35:43.484375
1356,-150.53,2022-10-26 16:35:43.500000
1357,-168.4,2022-10-26 16:35:43.515625
1358,-179.61,2022-10-26 16:35:43.531250
1359,-196.38,2022-10-26 16:35:43.546875
1360,-230.59,2022-10-26 16:35:43.562500
1361,-286.35,2022-10-26 16:35:43.578125
1362,-357.45,2022-10-26 16:35:43.593750
1363,-428.9,2022-10-26 16:35:43.609375
1364,-482.71,2022-10-26 16:35:43.625000
1365,-504.92,2022-10-26 16:35:43.640625
1366,-489.35,2022-10-26 16:35:43.656250
1367,-438.43,2022-10-26 16:35:43.671875
1368,-359.69,2022-10-26 16:35:43.687500
1369,-262.02,2022-10-26 16:35:43.703125
1370,-153.14,2022-10-26 16:35:43.718750
1371,-39.78,2022-10-26 16:35:43.734375
1372,70.8,2022-10-26 16:35:43.750000
1373,169.87,2022-10-26 16:35:43.765625
1374,248.62,2022-10-26 16:35:43.781250
1375,300.94,2022-10-26 16:35:43.796875
1376,326.63,2022-10-26 16:35:43.812500
1377,332.06,2022-10-26 16:35:43.828125
1378,326.07,2022-10-26 16:35:43.843750
1379,315.64,2022-10-26 16:35:43.859375
1380,301.76,2022-10-26 16:35:43.875000
1381,279.96,2022-10-26 16:35:43.890625
1382,244.38,2022-10-26 16:35:43.906250
1383,192.67,2022-10-26 16:35:43.921875
1384,128.3,2022-10-26 16:35:43.937500
1385,58.47,2022-10-26 16:35:43.953125
1386,-10.0,2022-10-26 16:35:43.968750
1387,-74.86,2022-10-26 16:35:43.984375
1388,-138.01,2022-10-26 16:35:44.000000
1389,-202.01,2022-10-26 16:35:44.015625
1390,-266.44,2022-10-26 16:35:44.031250
1391,-325.83,2022-10-26 16:35:44.046875
1392,-372.41,2022-10-26 16:35:44.062500
1393,-399.68,2022-10-26 16:35:44.078125
1394,-405.96,2022-10-26 16:35:44.093750
1395,-393.97,2022-10-26 16:35:44.109375
1396,-368.93,2022-10-26 16:35:44.125000
1397,-336.02,2022-10-26 16:35:44.140625
1398,-298.76,2022-10-26 16:35:44.156250
1399,-259.34,2022-10-26 16:35:44.171875
1400,-218.76,2022-10-26 16:35:44.187500
1401,-177.42,2022-10-26 16:35:44.203125
1402,-134.97,2022-10-26 16:35:44.218750
1403,-90.5,2022-10-26 16:35:44.234375
1404,-42.92,2022-10-26 16:35:44.250000
1405,7.63,2022-10-26 16:35:44.265625
1406,59.85,2022-10-26 16:35:44.281250
1407,110.96,2022-10-26 16:35:44.296875
1408,157.3,2022-10-26 16:35:44.312500
1409,195.69,2022-10-26 16:35:44.328125
1410,223.79,2022-10-26 16:35:44.343750
1411,240.35,2022-10-26 16:35:44.359375
1412,244.5,2022-10-26 16:35:44.375000
1413,236.35,2022-10-26 16:35:44.390625
1414,217.23,2022-10-26 16:35:44.406250
1415,190.21,2022-10-26 16:35:44.421875
1416,159.9,2022-10-26 16:35:44.437500
1417,131.04,2022-10-26 16:35:44.453125
1418,107.29,2022-10-26 16:35:44.468750
1419,90.36,2022-10-26 16:35:44.484375
1420,79.89,2022-10-26 16:35:44.500000
1421,74.59,2022-10-26 16:35:44.515625
1422,73.42,2022-10-26 16:35:44.531250
1423,77.12,2022-10-26 16:35:44.546875
1424,88.14,2022-10-26 16:35:44.562500
1425,109.3,2022-10-26 16:35:44.578125
1426,140.41,2022-10-26 16:35:44.593750
1427,176.34,2022-10-26 16:35:44.609375
1428,207.06,2022-10-26 16:35:44.625000
1429,220.96,2022-10-26 16:35:44.640625
1430,211.03,2022-10-26 16:35:44.656250
1431,178.45,2022-10-26 16:35:44.671875
1432,133.23,2022-10-26 16:35:44.687500
1433,89.57,2022-10-26 16:35:44.703125
1434,59.34,2022-10-26 16:35:44.718750
1435,46.74,2022-10-26 16:35:44.734375
1436,47.99,2022-10-26 16:35:44.750000
1437,54.29,2022-10-26 16:35:44.765625
1438,57.47,2022-10-26 16:35:44.781250
1439,54.26,2022-10-26 16:35:44.796875
1440,46.88,2022-10-26 16:35:44.812500
1441,39.88,2022-10-26 16:35:44.828125
1442,37.58,2022-10-26 16:35:44.843750
1443,42.0,2022-10-26 16:35:44.859375
1444,53.09,2022-10-26 16:35:44.875000
1445,69.57,2022-10-26 16:35:44.890625
1446,89.19,2022-10-26 16:35:44.906250
1447,108.84,2022-10-26 16:35:44.921875
1448,124.03,2022-10-26 16:35:44.937500
1449,130.08,2022-10-26 16:35:44.953125
1450,124.37,2022-10-26 16:35:44.968750
1451,107.33,2022-10-26 16:35:44.984375
1452,82.6,2022-10-26 16:35:45.000000
1453,55.23,2022-10-26 16:35:45.015625
1454,29.17,2022-10-26 16:35:45.031250
1455,6.66,2022-10-26 16:35:45.046875
1456,-11.86,2022-10-26 16:35:45.062500
1457,-25.71,2022-10-26 16:35:45.078125
1458,-33.46,2022-10-26 16:35:45.093750
1459,-34.49,2022-10-26 16:35:45.109375
1460,-29.79,2022-10-26 16:35:45.125000
1461,-23.39,2022-10-26 16:35:45.140625
1462,-20.12,2022-10-26 16:35:45.156250
1463,-23.36,2022-10-26 16:35:45.171875
1464,-32.4,2022-10-26 16:35:45.187500
1465,-43.08,2022-10-26 16:35:45.203125
1466,-50.76,2022-10-26 16:35:45.218750
1467,-53.52,2022-10-26 16:35:45.234375
1468,-53.59,2022-10-26 16:35:45.250000
1469,-55.39,2022-10-26 16:35:45.265625
1470,-62.14,2022-10-26 16:35:45.281250
1471,-73.01,2022-10-26 16:35:45.296875
1472,-82.97,2022-10-26 16:35:45.312500
1473,-86.65,2022-10-26 16:35:45.328125
1474,-81.49,2022-10-26 16:35:45.343750
1475,-70.23,2022-10-26 16:35:45.359375
1476,-59.74,2022-10-26 16:35:45.375000
1477,-57.46,2022-10-26 16:35:45.390625
1478,-68.11,2022-10-26 16:35:45.406250
1479,-91.43,2022-10-26 16:35:45.421875
1480,-123.01,2022-10-26 16:35:45.437500
1481,-156.58,2022-10-26 16:35:45.453125
1482,-185.4,2022-10-26 16:35:45.468750
1483,-204.45,2022-10-26 16:35:45.484375
1484,-211.12,2022-10-26 16:35:45.500000
1485,-205.87,2022-10-26 16:35:45.515625
1486,-192.08,2022-10-26 16:35:45.531250
1487,-174.58,2022-10-26 16:35:45.546875
1488,-158.2,2022-10-26 16:35:45.562500
1489,-145.67,2022-10-26 16:35:45.578125
1490,-136.99,2022-10-26 16:35:45.593750
1491,-130.69,2022-10-26 16:35:45.609375
1492,-124.96,2022-10-26 16:35:45.625000
1493,-119.55,2022-10-26 16:35:45.640625
1494,-115.42,2022-10-26 16:35:45.656250
1495,-113.93,2022-10-26 16:35:45.671875
1496,-115.12,2022-10-26 16:35:45.687500
1497,-117.2,2022-10-26 16:35:45.703125
1498,-117.27,2022-10-26 16:35:45.718750
1499,-113.29,2022-10-26 16:35:45.734375
1500,-104.86,2022-10-26 16:35:45.750000
1501,-92.53,2022-10-26 16:35:45.765625
1502,-77.23,2022-10-26 16:35:45.781250
1503,-59.52,2022-10-26 16:35:45.796875
1504,-39.77,2022-10-26 16:35:45.812500
1505,-18.89,2022-10-26 16:35:45.828125
1506,1.55,2022-10-26 16:35:45.843750
1507,20.42,2022-10-26 16:35:45.859375
1508,37.88,2022-10-26 16:35:45.875000
1509,56.39,2022-10-26 16:35:45.890625
1510,78.88,2022-10-26 16:35:45.906250
1511,106.15,2022-10-26 16:35:45.921875
1512,135.21,2022-10-26 16:35:45.937500
1513,158.69,2022-10-26 16:35:45.953125
1514,168.27,2022-10-26 16:35:45.968750
1515,158.05,2022-10-26 16:35:45.984375
1516,128.82,2022-10-26 16:35:46.000000
1517,88.83,2022-10-26 16:35:46.015625
1518,51.43,2022-10-26 16:35:46.031250
1519,30.68,2022-10-26 16:35:46.046875
1520,36.14,2022-10-26 16:35:46.062500
1521,69.7,2022-10-26 16:35:46.078125
1522,125.28,2022-10-26 16:35:46.093750
1523,190.67,2022-10-26 16:35:46.109375
1524,252.43,2022-10-26 16:35:46.125000
1525,299.78,2022-10-26 16:35:46.140625
1526,328.01,2022-10-26 16:35:46.156250
1527,338.55,2022-10-26 16:35:46.171875
1528,336.19,2022-10-26 16:35:46.187500
1529,325.86,2022-10-26 16:35:46.203125
1530,310.13,2022-10-26 16:35:46.218750
1531,288.9,2022-10-26 16:35:46.234375
1532,260.75,2022-10-26 16:35:46.250000
1533,225.72,2022-10-26 16:35:46.265625
1534,187.46,2022-10-26 16:35:46.281250
1535,152.26,2022-10-26 16:35:46.296875
1536,126.47,2022-10-26 16:35:46.312500
1537,113.41,2022-10-26 16:35:46.328125
1538,111.52,2022-10-26 16:35:46.343750
1539,116.14,2022-10-26 16:35:46.359375
1540,121.88,2022-10-26 16:35:46.375000
1541,126.11,2022-10-26 16:35:46.390625
1542,129.4,2022-10-26 16:35:46.406250
1543,134.01,2022-10-26 16:35:46.421875
1544,140.78,2022-10-26 16:35:46.437500
1545,145.89,2022-10-26 16:35:46.453125
1546,141.71,2022-10-26 16:35:46.468750
1547,119.63,2022-10-26 16:35:46.484375
1548,74.71,2022-10-26 16:35:46.500000
1549,9.32,2022-10-26 16:35:46.515625
1550,-67.28,2022-10-26 16:35:46.531250
1551,-142.54,2022-10-26 16:35:46.546875
1552,-205.27,2022-10-26 16:35:46.562500
1553,-249.42,2022-10-26 16:35:46.578125
1554,-274.27,2022-10-26 16:35:46.593750
1555,-282.57,2022-10-26 16:35:46.609375
1556,-277.48,2022-10-26 16:35:46.625000
1557,-260.47,2022-10-26 16:35:46.640625
1558,-231.3,2022-10-26 16:35:46.656250
1559,-189.63,2022-10-26 16:35:46.671875
1560,-137.41,2022-10-26 16:35:46.687500
1561,-80.21,2022-10-26 16:35:46.703125
1562,-26.96,2022-10-26 16:35:46.718750
1563,13.06,2022-10-26 16:35:46.734375
1564,33.59,2022-10-26 16:35:46.750000
1565,33.96,2022-10-26 16:35:46.765625
1566,19.8,2022-10-26 16:35:46.781250
1567,0.42,2022-10-26 16:35:46.796875
1568,-14.48,2022-10-26 16:35:46.812500
1569,-18.84,2022-10-26 16:35:46.828125
1570,-12.7,2022-10-26 16:35:46.843750
1571,-1.37,2022-10-26 16:35:46.859375
1572,7.89,2022-10-26 16:35:46.875000
1573,9.4,2022-10-26 16:35:46.890625
1574,0.91,2022-10-26 16:35:46.906250
1575,-16.32,2022-10-26 16:35:46.921875
1576,-38.89,2022-10-26 16:35:46.937500
1577,-62.88,2022-10-26 16:35:46.953125
1578,-84.7,2022-10-26 16:35:46.968750
1579,-100.97,2022-10-26 16:35:46.984375
1580,-109.73,2022-10-26 16:35:47.000000
1581,-110.51,2022-10-26 16:35:47.015625
1582,-106.01,2022-10-26 16:35:47.031250
1583,-101.95,2022-10-26 16:35:47.046875
1584,-104.91,2022-10-26 16:35:47.062500
1585,-119.94,2022-10-26 16:35:47.078125
1586,-148.0,2022-10-26 16:35:47.093750
1587,-184.95,2022-10-26 16:35:47.109375
1588,-223.7,2022-10-26 16:35:47.125000
1589,-257.32,2022-10-26 16:35:47.140625
1590,-281.45,2022-10-26 16:35:47.156250
1591,-294.47,2022-10-26 16:35:47.171875
1592,-295.42,2022-10-26 16:35:47.187500
1593,-282.67,2022-10-26 16:35:47.203125
1594,-254.06,2022-10-26 16:35:47.218750
1595,-209.97,2022-10-26 16:35:47.234375
1596,-156.21,2022-10-26 16:35:47.250000
1597,-103.82,2022-10-26 16:35:47.265625
1598,-65.07,2022-10-26 16:35:47.281250
1599,-47.94,2022-10-26 16:35:47.296875
1600,-51.91,2022-10-26 16:35:47.312500
1601,-67.69,2022-10-26 16:35:47.328125
1602,-81.06,2022-10-26 16:35:47.343750
1603,-79.14,2022-10-26 16:35:47.359375
1604,-54.63,2022-10-26 16:35:47.375000
1605,-7.95,2022-10-26 16:35:47.390625
1606,53.76,2022-10-26 16:35:47.406250
1607,118.03,2022-10-26 16:35:47.421875
1608,170.53,2022-10-26 16:35:47.437500
1609,198.39,2022-10-26 16:35:47.453125
1610,193.76,2022-10-26 16:35:47.468750
1611,157.95,2022-10-26 16:35:47.484375
1612,101.92,2022-10-26 16:35:47.500000
1613,43.62,2022-10-26 16:35:47.515625
1614,1.43,2022-10-26 16:35:47.531250
1615,-12.94,2022-10-26 16:35:47.546875
1616,1.3,2022-10-26 16:35:47.562500
1617,34.71,2022-10-26 16:35:47.578125
1618,72.24,2022-10-26 16:35:47.593750
1619,101.23,2022-10-26 16:35:47.609375
1620,116.67,2022-10-26 16:35:47.625000
1621,121.71,2022-10-26 16:35:47.640625
1622,124.68,2022-10-26 16:35:47.656250
1623,132.75,2022-10-26 16:35:47.671875
1624,147.04,2022-10-26 16:35:47.687500
1625,162.34,2022-10-26 16:35:47.703125
1626,171.18,2022-10-26 16:35:47.718750
1627,169.09,2022-10-26 16:35:47.734375
1628,158.58,2022-10-26 16:35:47.750000
1629,148.23,2022-10-26 16:35:47.765625
1630,147.53,2022-10-26 16:35:47.781250
1631,161.51,2022-10-26 16:35:47.796875
1632,187.36,2022-10-26 16:35:47.812500
1633,215.77,2022-10-26 16:35:47.828125
1634,235.97,2022-10-26 16:35:47.843750
1635,240.62,2022-10-26 16:35:47.859375
1636,228.3,2022-10-26 16:35:47.875000
1637,203.25,2022-10-26 16:35:47.890625
1638,173.16,2022-10-26 16:35:47.906250
1639,145.86,2022-10-26 16:35:47.921875
1640,128.42,2022-10-26 16:35:47.937500
1641,125.66,2022-10-26 16:35:47.953125
1642,138.95,2022-10-26 16:35:47.968750
1643,165.11,2022-10-26 16:35:47.984375
1644,196.16,2022-10-26 16:35:48.000000
1645,221.73,2022-10-26 16:35:48.015625
1646,232.76,2022-10-26 16:35:48.031250
1647,225.57,2022-10-26 16:35:48.046875
1648,202.78,2022-10-26 16:35:48.062500
1649,172.11,2022-10-26 16:35:48.078125
1650,141.14,2022-10-26 16:35:48.093750
1651,113.86,2022-10-26 16:35:48.109375
1652,89.54,2022-10-26 16:35:48.125000
1653,64.75,2022-10-26 16:35:48.140625
1654,36.42,2022-10-26 16:35:48.156250
1655,4.43,2022-10-26 16:35:48.171875
1656,-28.87,2022-10-26 16:35:48.187500
1657,-60.48,2022-10-26 16:35:48.203125
1658,-87.91,2022-10-26 16:35:48.218750
1659,-109.94,2022-10-26 16:35:48.234375
1660,-125.92,2022-10-26 16:35:48.250000
1661,-134.98,2022-10-26 16:35:48.265625
1662,-135.77,2022-10-26 16:35:48.281250
1663,-127.31,2022-10-26 16:35:48.296875
1664,-110.17,2022-10-26 16:35:48.312500
1665,-86.83,2022-10-26 16:35:48.328125
1666,-61.39,2022-10-26 16:35:48.343750
1667,-38.32,2022-10-26 16:35:48.359375
1668,-21.49,2022-10-26 16:35:48.375000
1669,-13.28,2022-10-26 16:35:48.390625
1670,-14.94,2022-10-26 16:35:48.406250
1671,-26.82,2022-10-26 16:35:48.421875
1672,-47.72,2022-10-26 16:35:48.437500
1673,-74.96,2022-10-26 16:35:48.453125
1674,-104.28,2022-10-26 16:35:48.468750
1675,-130.27,2022-10-26 16:35:48.484375
1676,-148.25,2022-10-26 16:35:48.500000
1677,-155.48,2022-10-26 16:35:48.515625
1678,-152.43,2022-10-26 16:35:48.531250
1679,-142.52,2022-10-26 16:35:48.546875
1680,-131.61,2022-10-26 16:35:48.562500
1681,-126.44,2022-10-26 16:35:48.578125
1682,-132.69,2022-10-26 16:35:48.593750
1683,-153.55,2022-10-26 16:35:48.609375
1684,-188.4,2022-10-26 16:35:48.625000
1685,-232.69,2022-10-26 16:35:48.640625
1686,-279.25,2022-10-26 16:35:48.656250
1687,-320.5,2022-10-26 16:35:48.671875
1688,-350.96,2022-10-26 16:35:48.687500
1689,-368.84,2022-10-26 16:35:48.703125
1690,-376.83,2022-10-26 16:35:48.718750
1691,-380.9,2022-10-26 16:35:48.734375
1692,-387.99,2022-10-26 16:35:48.750000
1693,-404.8,2022-10-26 16:35:48.765625
1694,-435.34,2022-10-26 16:35:48.781250
1695,-479.55,2022-10-26 16:35:48.796875
1696,-532.38,2022-10-26 16:35:48.812500
1697,-583.31,2022-10-26 16:35:48.828125
1698,-618.73,2022-10-26 16:35:48.843750
1699,-626.72,2022-10-26 16:35:48.859375
1700,-602.38,2022-10-26 16:35:48.875000
1701,-550.2,2022-10-26 16:35:48.890625
1702,-482.75,2022-10-26 16:35:48.906250
1703,-414.76,2022-10-26 16:35:48.921875
1704,-356.02,2022-10-26 16:35:48.937500
1705,-307.58,2022-10-26 16:35:48.953125
1706,-262.69,2022-10-26 16:35:48.968750
1707,-211.57,2022-10-26 16:35:48.984375
1708,-147.16,2022-10-26 16:35:49.000000
1709,-67.45,2022-10-26 16:35:49.015625
1710,25.08,2022-10-26 16:35:49.031250
1711,125.82,2022-10-26 16:35:49.046875
1712,228.77,2022-10-26 16:35:49.062500
1713,326.43,2022-10-26 16:35:49.078125
1714,409.67,2022-10-26 16:35:49.093750
1715,468.06,2022-10-26 16:35:49.109375
1716,493.98,2022-10-26 16:35:49.125000
1717,486.03,2022-10-26 16:35:49.140625
1718,451.6,2022-10-26 16:35:49.156250
1719,404.91,2022-10-26 16:35:49.171875
1720,361.68,2022-10-26 16:35:49.187500
1721,333.37,2022-10-26 16:35:49.203125
1722,323.1,2022-10-26 16:35:49.218750
1723,325.91,2022-10-26 16:35:49.234375
1724,332.38,2022-10-26 16:35:49.250000
1725,333.14,2022-10-26 16:35:49.265625
1726,322.82,2022-10-26 16:35:49.281250
1727,301.04,2022-10-26 16:35:49.296875
1728,270.33,2022-10-26 16:35:49.312500
1729,234.02,2022-10-26 16:35:49.328125
1730,194.56,2022-10-26 16:35:49.343750
1731,153.6,2022-10-26 16:35:49.359375
1732,112.46,2022-10-26 16:35:49.375000
1733,72.0,2022-10-26 16:35:49.390625
1734,32.44,2022-10-26 16:35:49.406250
1735,-7.59,2022-10-26 16:35:49.421875
1736,-50.23,2022-10-26 16:35:49.437500
1737,-96.34,2022-10-26 16:35:49.453125
1738,-143.19,2022-10-26 16:35:49.468750
1739,-183.25,2022-10-26 16:35:49.484375
1740,-206.09,2022-10-26 16:35:49.500000
1741,-202.04,2022-10-26 16:35:49.515625
1742,-166.64,2022-10-26 16:35:49.531250
1743,-102.77,2022-10-26 16:35:49.546875
1744,-20.61,2022-10-26 16:35:49.562500
1745,65.62,2022-10-26 16:35:49.578125
1746,141.85,2022-10-26 16:35:49.593750
1747,197.69,2022-10-26 16:35:49.609375
1748,228.57,2022-10-26 16:35:49.625000
1749,235.44,2022-10-26 16:35:49.640625
1750,223.28,2022-10-26 16:35:49.656250
1751,198.86,2022-10-26 16:35:49.671875
1752,168.41,2022-10-26 16:35:49.687500
1753,135.68,2022-10-26 16:35:49.703125
1754,102.78,2022-10-26 16:35:49.718750
1755,71.49,2022-10-26 16:35:49.734375
1756,44.87,2022-10-26 16:35:49.750000
1757,27.42,2022-10-26 16:35:49.765625
1758,22.96,2022-10-26 16:35:49.781250
1759,32.1,2022-10-26 16:35:49.796875
1760,49.96,2022-10-26 16:35:49.812500
1761,68.69,2022-10-26 16:35:49.828125
1762,81.31,2022-10-26 16:35:49.843750
1763,86.29,2022-10-26 16:35:49.859375
1764,89.36,2022-10-26 16:35:49.875000
1765,100.01,2022-10-26 16:35:49.890625
1766,126.47,2022-10-26 16:35:49.906250
1767,170.46,2022-10-26 16:35:49.921875
1768,225.98,2022-10-26 16:35:49.937500
1769,283.17,2022-10-26 16:35:49.953125
1770,333.28,2022-10-26 16:35:49.968750
1771,372.21,2022-10-26 16:35:49.984375
1772,400.93,2022-10-26 16:35:50.000000
1773,421.89,2022-10-26 16:35:50.015625
1774,435.84,2022-10-26 16:35:50.031250
1775,440.83,2022-10-26 16:35:50.046875
1776,433.34,2022-10-26 16:35:50.062500
1777,411.53,2022-10-26 16:35:50.078125
1778,375.77,2022-10-26 16:35:50.093750
1779,328.46,2022-10-26 16:35:50.109375
1780,271.96,2022-10-26 16:35:50.125000
1781,207.73,2022-10-26 16:35:50.140625
1782,137.35,2022-10-26 16:35:50.156250
1783,63.9,2022-10-26 16:35:50.171875
1784,-7.28,2022-10-26 16:35:50.187500
1785,-71.35,2022-10-26 16:35:50.203125
1786,-126.71,2022-10-26 16:35:50.218750
1787,-176.54,2022-10-26 16:35:50.234375
1788,-226.63,2022-10-26 16:35:50.250000
1789,-280.17,2022-10-26 16:35:50.265625
1790,-333.74,2022-10-26 16:35:50.281250
1791,-376.32,2022-10-26 16:35:50.296875
1792,-394.82,2022-10-26 16:35:50.312500
1793,-382.02,2022-10-26 16:35:50.328125
1794,-341.66,2022-10-26 16:35:50.343750
1795,-287.13,2022-10-26 16:35:50.359375
1796,-233.17,2022-10-26 16:35:50.375000
1797,-187.84,2022-10-26 16:35:50.390625
1798,-147.89,2022-10-26 16:35:50.406250
1799,-103.35,2022-10-26 16:35:50.421875
1800,-46.9,2022-10-26 16:35:50.437500
1801,19.15,2022-10-26 16:35:50.453125
1802,81.84,2022-10-26 16:35:50.468750
1803,124.14,2022-10-26 16:35:50.484375
1804,135.54,2022-10-26 16:35:50.500000
1805,117.99,2022-10-26 16:35:50.515625
1806,84.81,2022-10-26 16:35:50.531250
1807,53.67,2022-10-26 16:35:50.546875
1808,36.91,2022-10-26 16:35:50.562500
1809,37.28,2022-10-26 16:35:50.578125
1810,48.0,2022-10-26 16:35:50.593750
1811,58.32,2022-10-26 16:35:50.609375
1812,58.98,2022-10-26 16:35:50.625000
1813,45.16,2022-10-26 16:35:50.640625
1814,16.66,2022-10-26 16:35:50.656250
1815,-23.5,2022-10-26 16:35:50.671875
1816,-70.74,2022-10-26 16:35:50.687500
1817,-120.1,2022-10-26 16:35:50.703125
1818,-167.14,2022-10-26 16:35:50.718750
1819,-209.63,2022-10-26 16:35:50.734375
1820,-247.58,2022-10-26 16:35:50.750000
1821,-283.2,2022-10-26 16:35:50.765625
1822,-319.51,2022-10-26 16:35:50.781250
1823,-358.85,2022-10-26 16:35:50.796875
1824,-402.32,2022-10-26 16:35:50.812500
1825,-449.38,2022-10-26 16:35:50.828125
1826,-497.36,2022-10-26 16:35:50.843750
1827,-542.34,2022-10-26 16:35:50.859375
1828,-578.58,2022-10-26 16:35:50.875000
1829,-600.29,2022-10-26 16:35:50.890625
1830,-604.05,2022-10-26 16:35:50.906250
1831,-590.53,2022-10-26 16:35:50.921875
1832,-564.93,2022-10-26 16:35:50.937500
1833,-535.27,2022-10-26 16:35:50.953125
1834,-508.41,2022-10-26 16:35:50.968750
1835,-487.81,2022-10-26 16:35:50.984375
1836,-471.69,2022-10-26 16:35:51.000000
1837,-455.01,2022-10-26 16:35:51.015625
1838,-432.23,2022-10-26 16:35:51.031250
1839,-398.86,2022-10-26 16:35:51.046875
1840,-352.43,2022-10-26 16:35:51.062500
1841,-291.44,2022-10-26 16:35:51.078125
1842,-215.02,2022-10-26 16:35:51.093750
1843,-123.12,2022-10-26 16:35:51.109375
1844,-17.86,2022-10-26 16:35:51.125000
1845,95.78,2022-10-26 16:35:51.140625
1846,210.05,2022-10-26 16:35:51.156250
1847,317.17,2022-10-26 16:35:51.171875
1848,411.39,2022-10-26 16:35:51.187500
1849,490.81,2022-10-26 16:35:51.203125
1850,557.0,2022-10-26 16:35:51.218750
1851,612.96,2022-10-26 16:35:51.234375
1852,660.51,2022-10-26 16:35:51.250000
1853,698.39,2022-10-26 16:35:51.265625
1854,722.44,2022-10-26 16:35:51.281250
1855,727.41,2022-10-26 16:35:51.296875
1856,709.61,2022-10-26 16:35:51.312500
1857,668.43,2022-10-26 16:35:51.328125
1858,606.75,2022-10-26 16:35:51.343750
1859,529.31,2022-10-26 16:35:51.359375
1860,441.29,2022-10-26 16:35:51.375000
1861,348.21,2022-10-26 16:35:51.390625
1862,254.84,2022-10-26 16:35:51.406250
1863,166.04,2022-10-26 16:35:51.421875
1864,87.13,2022-10-26 16:35:51.437500
1865,22.71,2022-10-26 16:35:51.453125
1866,-23.62,2022-10-26 16:35:51.468750
1867,-50.63,2022-10-26 16:35:51.484375
1868,-59.69,2022-10-26 16:35:51.500000
1869,-53.75,2022-10-26 16:35:51.515625
1870,-37.4,2022-10-26 16:35:51.531250
1871,-16.38,2022-10-26 16:35:51.546875
1872,3.29,2022-10-26 16:35:51.562500
1873,15.97,2022-10-26 16:35:51.578125
1874,17.66,2022-10-26 16:35:51.593750
1875,7.74,2022-10-26 16:35:51.609375
1876,-10.27,2022-10-26 16:35:51.625000
1877,-29.58,2022-10-26 16:35:51.640625
1878,-43.06,2022-10-26 16:35:51.656250
1879,-45.22,2022-10-26 16:35:51.671875
1880,-34.51,2022-10-26 16:35:51.687500
1881,-13.45,2022-10-26 16:35:51.703125
1882,13.23,2022-10-26 16:35:51.718750
1883,40.42,2022-10-26 16:35:51.734375
1884,63.14,2022-10-26 16:35:51.750000
1885,77.12,2022-10-26 16:35:51.765625
1886,78.13,2022-10-26 16:35:51.781250
1887,63.11,2022-10-26 16:35:51.796875
1888,31.91,2022-10-26 16:35:51.812500
1889,-10.63,2022-10-26 16:35:51.828125
1890,-54.59,2022-10-26 16:35:51.843750
1891,-88.63,2022-10-26 16:35:51.859375
1892,-105.03,2022-10-26 16:35:51.875000
1893,-102.62,2022-10-26 16:35:51.890625
1894,-87.64,2022-10-26 16:35:51.906250
1895,-69.63,2022-10-26 16:35:51.921875
1896,-56.48,2022-10-26 16:35:51.937500
1897,-50.72,2022-10-26 16:35:51.953125
1898,-49.37,2022-10-26 16:35:51.968750
1899,-46.67,2022-10-26 16:35:51.984375
1900,-38.14,2022-10-26 16:35:52.000000
1901,-23.1,2022-10-26 16:35:52.015625
1902,-4.3,2022-10-26 16:35:52.031250
1903,13.28,2022-10-26 16:35:52.046875
1904,25.59,2022-10-26 16:35:52.062500
1905,31.34,2022-10-26 16:35:52.078125
1906,31.64,2022-10-26 16:35:52.093750
1907,28.7,2022-10-26 16:35:52.109375
1908,23.92,2022-10-26 16:35:52.125000
1909,17.44,2022-10-26 16:35:52.140625
1910,8.43,2022-10-26 16:35:52.156250
1911,-2.43,2022-10-26 16:35:52.171875
1912,-11.31,2022-10-26 16:35:52.187500
1913,-12.74,2022-10-26 16:35:52.203125
1914,-1.88,2022-10-26 16:35:52.218750
1915,21.53,2022-10-26 16:35:52.234375
1916,51.6,2022-10-26 16:35:52.250000
1917,79.02,2022-10-26 16:35:52.265625
1918,95.39,2022-10-26 16:35:52.281250
1919,98.49,2022-10-26 16:35:52.296875
1920,93.4,2022-10-26 16:35:52.312500
1921,88.76,2022-10-26 16:35:52.328125
1922,91.46,2022-10-26 16:35:52.343750
1923,101.54,2022-10-26 16:35:52.359375
1924,112.04,2022-10-26 16:35:52.375000
1925,114.12,2022-10-26 16:35:52.390625
1926,101.92,2022-10-26 16:35:52.406250
1927,76.12,2022-10-26 16:35:52.421875
1928,41.77,2022-10-26 16:35:52.437500
1929,4.46,2022-10-26 16:35:52.453125
1930,-32.9,2022-10-26 16:35:52.468750
1931,-70.09,2022-10-26 16:35:52.484375
1932,-106.18,2022-10-26 16:35:52.500000
1933,-136.31,2022-10-26 16:35:52.515625
1934,-151.84,2022-10-26 16:35:52.531250
1935,-144.27,2022-10-26 16:35:52.546875
1936,-110.68,2022-10-26 16:35:52.562500
1937,-56.91,2022-10-26 16:35:52.578125
1938,4.65,2022-10-26 16:35:52.593750
1939,60.43,2022-10-26 16:35:52.609375
1940,102.62,2022-10-26 16:35:52.625000
1941,131.36,2022-10-26 16:35:52.640625
1942,151.73,2022-10-26 16:35:52.656250
1943,168.4,2022-10-26 16:35:52.671875
1944,181.14,2022-10-26 16:35:52.687500
1945,185.69,2022-10-26 16:35:52.703125
1946,177.95,2022-10-26 16:35:52.718750
1947,158.35,2022-10-26 16:35:52.734375
1948,133.21,2022-10-26 16:35:52.750000
1949,111.16,2022-10-26 16:35:52.765625
1950,98.05,2022-10-26 16:35:52.781250
1951,93.02,2022-10-26 16:35:52.796875
1952,89.09,2022-10-26 16:35:52.812500
1953,77.03,2022-10-26 16:35:52.828125
1954,50.3,2022-10-26 16:35:52.843750
1955,8.48,2022-10-26 16:35:52.859375
1956,-43.12,2022-10-26 16:35:52.875000
1957,-95.44,2022-10-26 16:35:52.890625
1958,-138.9,2022-10-26 16:35:52.906250
1959,-165.32,2022-10-26 16:35:52.921875
1960,-170.29,2022-10-26 16:35:52.937500
1961,-154.96,2022-10-26 16:35:52.953125
1962,-126.65,2022-10-26 16:35:52.968750
1963,-98.21,2022-10-26 16:35:52.984375
1964,-83.98,2022-10-26 16:35:53.000000
1965,-93.77,2022-10-26 16:35:53.015625
1966,-128.02,2022-10-26 16:35:53.031250
1967,-176.95,2022-10-26 16:35:53.046875
1968,-224.48,2022-10-26 16:35:53.062500
1969,-255.28,2022-10-26 16:35:53.078125
1970,-260.66,2022-10-26 16:35:53.093750
1971,-240.97,2022-10-26 16:35:53.109375
1972,-202.91,2022-10-26 16:35:53.125000
1973,-155.95,2022-10-26 16:35:53.140625
1974,-108.59,2022-10-26 16:35:53.156250
1975,-67.23,2022-10-26 16:35:53.171875
1976,-36.49,2022-10-26 16:35:53.187500
1977,-19.22,2022-10-26 16:35:53.203125
1978,-15.35,2022-10-26 16:35:53.218750
1979,-20.66,2022-10-26 16:35:53.234375
1980,-27.27,2022-10-26 16:35:53.250000
1981,-26.76,2022-10-26 16:35:53.265625
1982,-15.0,2022-10-26 16:35:53.281250
1983,4.96,2022-10-26 16:35:53.296875
1984,22.26,2022-10-26 16:35:53.312500
1985,22.98,2022-10-26 16:35:53.328125
1986,-2.68,2022-10-26 16:35:53.343750
1987,-54.97,2022-10-26 16:35:53.359375
1988,-123.7,2022-10-26 16:35:53.375000
1989,-192.79,2022-10-26 16:35:53.390625
1990,-246.94,2022-10-26 16:35:53.406250
1991,-277.05,2022-10-26 16:35:53.421875
1992,-282.31,2022-10-26 16:35:53.437500
1993,-268.02,2022-10-26 16:35:53.453125
1994,-241.45,2022-10-26 16:35:53.468750
1995,-209.18,2022-10-26 16:35:53.484375
1996,-175.36,2022-10-26 16:35:53.500000
1997,-142.32,2022-10-26 16:35:53.515625
1998,-111.18,2022-10-26 16:35:53.531250
1999,-81.61,2022-10-26 16:35:53.546875
2000,-51.81,2022-10-26 16:35:53.562500
2001,-17.97,2022-10-26 16:35:53.578125
2002,23.1,2022-10-26 16:35:53.593750
2003,70.93,2022-10-26 16:35:53.609375
2004,119.44,2022-10-26 16:35:53.625000
2005,157.28,2022-10-26 16:35:53.640625
2006,172.87,2022-10-26 16:35:53.656250
2007,159.54,2022-10-26 16:35:53.671875
2008,119.74,2022-10-26 16:35:53.687500
2009,63.87,2022-10-26 16:35:53.703125
2010,6.44,2022-10-26 16:35:53.718750
2011,-38.97,2022-10-26 16:35:53.734375
2012,-64.21,2022-10-26 16:35:53.750000
2013,-67.37,2022-10-26 16:35:53.765625
2014,-52.35,2022-10-26 16:35:53.781250
2015,-25.8,2022-10-26 16:35:53.796875
2016,5.17,2022-10-26 16:35:53.812500
2017,34.28,2022-10-26 16:35:53.828125
2018,56.92,2022-10-26 16:35:53.843750
2019,70.44,2022-10-26 16:35:53.859375
2020,74.69,2022-10-26 16:35:53.875000
2021,72.08,2022-10-26 16:35:53.890625
2022,66.86,2022-10-26 16:35:53.906250
2023,64.36,2022-10-26 16:35:53.921875
2024,70.3,2022-10-26 16:35:53.937500
2025,89.2,2022-10-26 16:35:53.953125
2026,122.7,2022-10-26 16:35:53.968750
2027,168.06,2022-10-26 16:35:53.984375
2028,217.53,2022-10-26 16:35:54.000000
2029,259.99,2022-10-26 16:35:54.015625
2030,285.16,2022-10-26 16:35:54.031250
2031,288.5,2022-10-26 16:35:54.046875
2032,272.63,2022-10-26 16:35:54.062500
2033,246.0,2022-10-26 16:35:54.078125
2034,217.51,2022-10-26 16:35:54.093750
2035,191.93,2022-10-26 16:35:54.109375
2036,168.35,2022-10-26 16:35:54.125000
2037,141.6,2022-10-26 16:35:54.140625
2038,106.39,2022-10-26 16:35:54.156250
2039,60.27,2022-10-26 16:35:54.171875
2040,4.6,2022-10-26 16:35:54.187500
2041,-57.49,2022-10-26 16:35:54.203125
2042,-124.02,2022-10-26 16:35:54.218750
2043,-194.74,2022-10-26 16:35:54.234375
2044,-270.39,2022-10-26 16:35:54.250000
2045,-349.61,2022-10-26 16:35:54.265625
2046,-426.9,2022-10-26 16:35:54.281250
2047,-492.73,2022-10-26 16:35:54.296875
2048,-535.8,2022-10-26 16:35:54.312500
2049,-546.56,2022-10-26 16:35:54.328125
2050,-520.67,2022-10-26 16:35:54.343750
2051,-460.63,2022-10-26 16:35:54.359375
2052,-376.31,2022-10-26 16:35:54.375000
2053,-282.57,2022-10-26 16:35:54.390625
2054,-194.78,2022-10-26 16:35:54.406250
2055,-124.01,2022-10-26 16:35:54.421875
2056,-72.92,2022-10-26 16:35:54.437500
2057,-34.51,2022-10-26 16:35:54.453125
2058,3.86,2022-10-26 16:35:54.468750
2059,54.73,2022-10-26 16:35:54.484375
2060,124.08,2022-10-26 16:35:54.500000
2061,207.91,2022-10-26 16:35:54.515625
2062,292.87,2022-10-26 16:35:54.531250
2063,361.59,2022-10-26 16:35:54.546875
2064,399.61,2022-10-26 16:35:54.562500
2065,400.93,2022-10-26 16:35:54.578125
2066,369.76,2022-10-26 16:35:54.593750
2067,317.4,2022-10-26 16:35:54.609375
2068,256.57,2022-10-26 16:35:54.625000
2069,196.42,2022-10-26 16:35:54.640625
2070,141.08,2022-10-26 16:35:54.656250
2071,91.88,2022-10-26 16:35:54.671875
2072,50.14,2022-10-26 16:35:54.687500
2073,19.44,2022-10-26 16:35:54.703125
2074,4.01,2022-10-26 16:35:54.718750
2075,6.03,2022-10-26 16:35:54.734375
2076,22.51,2022-10-26 16:35:54.750000
2077,45.75,2022-10-26 16:35:54.765625
2078,67.38,2022-10-26 16:35:54.781250
2079,82.7,2022-10-26 16:35:54.796875
2080,92.91,2022-10-26 16:35:54.812500
2081,103.89,2022-10-26 16:35:54.828125
2082,122.03,2022-10-26 16:35:54.843750
2083,148.77,2022-10-26 16:35:54.859375
2084,178.9,2022-10-26 16:35:54.875000
2085,202.14,2022-10-26 16:35:54.890625
2086,208.38,2022-10-26 16:35:54.906250
2087,192.27,2022-10-26 16:35:54.921875
2088,154.92,2022-10-26 16:35:54.937500
2089,102.9,2022-10-26 16:35:54.953125
2090,44.05,2022-10-26 16:35:54.968750
2091,-15.75,2022-10-26 16:35:54.984375
2092,-74.28,2022-10-26 16:35:55.000000
2093,-131.05,2022-10-26 16:35:55.015625
2094,-184.68,2022-10-26 16:35:55.031250
2095,-230.6,2022-10-26 16:35:55.046875
2096,-261.11,2022-10-26 16:35:55.062500
2097,-268.83,2022-10-26 16:35:55.078125
2098,-250.54,2022-10-26 16:35:55.093750
2099,-210.72,2022-10-26 16:35:55.109375
2100,-161.19,2022-10-26 16:35:55.125000
2101,-116.69,2022-10-26 16:35:55.140625
2102,-88.78,2022-10-26 16:35:55.156250
2103,-79.64,2022-10-26 16:35:55.171875
2104,-81.57,2022-10-26 16:35:55.187500
2105,-80.82,2022-10-26 16:35:55.203125
2106,-65.91,2022-10-26 16:35:55.218750
2107,-34.09,2022-10-26 16:35:55.234375
2108,6.25,2022-10-26 16:35:55.250000
2109,39.63,2022-10-26 16:35:55.265625
2110,51.69,2022-10-26 16:35:55.281250
2111,37.19,2022-10-26 16:35:55.296875
2112,2.33,2022-10-26 16:35:55.312500
2113,-39.05,2022-10-26 16:35:55.328125
2114,-71.75,2022-10-26 16:35:55.343750
2115,-85.86,2022-10-26 16:35:55.359375
2116,-79.1,2022-10-26 16:35:55.375000
2117,-56.67,2022-10-26 16:35:55.390625
2118,-27.32,2022-10-26 16:35:55.406250
2119,-0.2,2022-10-26 16:35:55.421875
2120,18.11,2022-10-26 16:35:55.437500
2121,25.7,2022-10-26 16:35:55.453125
2122,25.45,2022-10-26 16:35:55.468750
2123,23.67,2022-10-26 16:35:55.484375
2124,26.6,2022-10-26 16:35:55.500000
2125,36.8,2022-10-26 16:35:55.515625
2126,51.44,2022-10-26 16:35:55.531250
2127,63.68,2022-10-26 16:35:55.546875
2128,67.23,2022-10-26 16:35:55.562500
2129,60.6,2022-10-26 16:35:55.578125
2130,48.94,2022-10-26 16:35:55.593750
2131,41.36,2022-10-26 16:35:55.609375
2132,45.94,2022-10-26 16:35:55.625000
2133,66.05,2022-10-26 16:35:55.640625
2134,99.15,2022-10-26 16:35:55.656250
2135,139.0,2022-10-26 16:35:55.671875
2136,178.74,2022-10-26 16:35:55.687500
2137,212.69,2022-10-26 16:35:55.703125
2138,236.6,2022-10-26 16:35:55.718750
2139,247.6,2022-10-26 16:35:55.734375
2140,243.81,2022-10-26 16:35:55.750000
2141,225.96,2022-10-26 16:35:55.765625
2142,197.28,2022-10-26 16:35:55.781250
2143,162.16,2022-10-26 16:35:55.796875
2144,123.54,2022-10-26 16:35:55.812500
2145,81.23,2022-10-26 16:35:55.828125
2146,32.43,2022-10-26 16:35:55.843750
2147,-25.93,2022-10-26 16:35:55.859375
2148,-92.89,2022-10-26 16:35:55.875000
2149,-163.49,2022-10-26 16:35:55.890625
2150,-230.85,2022-10-26 16:35:55.906250
2151,-290.73,2022-10-26 16:35:55.921875
2152,-344.36,2022-10-26 16:35:55.937500
2153,-396.65,2022-10-26 16:35:55.953125
2154,-451.75,2022-10-26 16:35:55.968750
2155,-508.09,2022-10-26 16:35:55.984375
2156,-557.25,2022-10-26 16:35:56.000000
2157,-588.53,2022-10-26 16:35:56.015625
2158,-594.6,2022-10-26 16:35:56.031250
2159,-575.93,2022-10-26 16:35:56.046875
2160,-539.98,2022-10-26 16:35:56.062500
2161,-495.94,2022-10-26 16:35:56.078125
2162,-448.6,2022-10-26 16:35:56.093750
2163,-395.7,2022-10-26 16:35:56.109375
2164,-329.83,2022-10-26 16:35:56.125000
2165,-243.92,2022-10-26 16:35:56.140625
2166,-137.42,2022-10-26 16:35:56.156250
2167,-18.52,2022-10-26 16:35:56.171875
2168,98.98,2022-10-26 16:35:56.187500
2169,201.79,2022-10-26 16:35:56.203125
2170,283.26,2022-10-26 16:35:56.218750
2171,346.44,2022-10-26 16:35:56.234375
2172,400.6,2022-10-26 16:35:56.250000
2173,456.22,2022-10-26 16:35:56.265625
2174,519.43,2022-10-26 16:35:56.281250
2175,589.4,2022-10-26 16:35:56.296875
2176,659.64,2022-10-26 16:35:56.312500
2177,721.33,2022-10-26 16:35:56.328125
2178,767.36,2022-10-26 16:35:56.343750
2179,794.45,2022-10-26 16:35:56.359375
2180,803.31,2022-10-26 16:35:56.375000
2181,796.82,2022-10-26 16:35:56.390625
2182,778.79,2022-10-26 16:35:56.406250
2183,752.33,2022-10-26 16:35:56.421875
2184,720.17,2022-10-26 16:35:56.437500
2185,685.09,2022-10-26 16:35:56.453125
2186,649.16,2022-10-26 16:35:56.468750
2187,613.25,2022-10-26 16:35:56.484375
2188,576.97,2022-10-26 16:35:56.500000
2189,538.56,2022-10-26 16:35:56.515625
2190,496.01,2022-10-26 16:35:56.531250
2191,447.57,2022-10-26 16:35:56.546875
2192,392.34,2022-10-26 16:35:56.562500
2193,330.43,2022-10-26 16:35:56.578125
2194,264.16,2022-10-26 16:35:56.593750
2195,198.19,2022-10-26 16:35:56.609375
2196,138.6,2022-10-26 16:35:56.625000
2197,90.81,2022-10-26 16:35:56.640625
2198,57.07,2022-10-26 16:35:56.656250
2199,34.79,2022-10-26 16:35:56.671875
2200,16.96,2022-10-26 16:35:56.687500
2201,-4.79,2022-10-26 16:35:56.703125
2202,-36.58,2022-10-26 16:35:56.718750
2203,-79.62,2022-10-26 16:35:56.734375
2204,-130.98,2022-10-26 16:35:56.750000
2205,-185.96,2022-10-26 16:35:56.765625
2206,-241.58,2022-10-26 16:35:56.781250
2207,-298.0,2022-10-26 16:35:56.796875
2208,-356.77,2022-10-26 16:35:56.812500
2209,-418.41,2022-10-26 16:35:56.828125
2210,-480.85,2022-10-26 16:35:56.843750
2211,-539.78,2022-10-26 16:35:56.859375
2212,-590.88,2022-10-26 16:35:56.875000
2213,-631.57,2022-10-26 16:35:56.890625
2214,-661.15,2022-10-26 16:35:56.906250
2215,-680.21,2022-10-26 16:35:56.921875
2216,-688.73,2022-10-26 16:35:56.937500
2217,-685.38,2022-10-26 16:35:56.953125
2218,-668.72,2022-10-26 16:35:56.968750
2219,-637.59,2022-10-26 16:35:56.984375
2220,-592.72,2022-10-26 16:35:57.000000
2221,-537.34,2022-10-26 16:35:57.015625
2222,-476.81,2022-10-26 16:35:57.031250
2223,-417.14,2022-10-26 16:35:57.046875
2224,-362.19,2022-10-26 16:35:57.062500
2225,-312.16,2022-10-26 16:35:57.078125
2226,-262.46,2022-10-26 16:35:57.093750
2227,-205.33,2022-10-26 16:35:57.109375
2228,-133.97,2022-10-26 16:35:57.125000
2229,-47.71,2022-10-26 16:35:57.140625
2230,45.62,2022-10-26 16:35:57.156250
2231,130.62,2022-10-26 16:35:57.171875
2232,191.23,2022-10-26 16:35:57.187500
2233,217.52,2022-10-26 16:35:57.203125
2234,210.39,2022-10-26 16:35:57.218750
2235,180.81,2022-10-26 16:35:57.234375
2236,143.59,2022-10-26 16:35:57.250000
2237,110.83,2022-10-26 16:35:57.265625
2238,87.37,2022-10-26 16:35:57.281250
2239,71.09,2022-10-26 16:35:57.296875
2240,56.19,2022-10-26 16:35:57.312500
2241,37.98,2022-10-26 16:35:57.328125
2242,15.88,2022-10-26 16:35:57.343750
2243,-7.34,2022-10-26 16:35:57.359375
2244,-28.82,2022-10-26 16:35:57.375000
2245,-47.82,2022-10-26 16:35:57.390625
2246,-66.73,2022-10-26 16:35:57.406250
2247,-89.96,2022-10-26 16:35:57.421875
2248,-119.93,2022-10-26 16:35:57.437500
2249,-154.28,2022-10-26 16:35:57.453125
2250,-186.81,2022-10-26 16:35:57.468750
2251,-209.56,2022-10-26 16:35:57.484375
2252,-217.41,2022-10-26 16:35:57.500000
2253,-210.31,2022-10-26 16:35:57.515625
2254,-193.28,2022-10-26 16:35:57.531250
2255,-173.62,2022-10-26 16:35:57.546875
2256,-157.26,2022-10-26 16:35:57.562500
2257,-146.87,2022-10-26 16:35:57.578125
2258,-141.46,2022-10-26 16:35:57.593750
2259,-137.88,2022-10-26 16:35:57.609375
2260,-132.2,2022-10-26 16:35:57.625000
2261,-120.89,2022-10-26 16:35:57.640625
2262,-101.51,2022-10-26 16:35:57.656250
2263,-73.46,2022-10-26 16:35:57.671875
2264,-38.81,2022-10-26 16:35:57.687500
2265,-3.16,2022-10-26 16:35:57.703125
2266,25.4,2022-10-26 16:35:57.718750
2267,39.41,2022-10-26 16:35:57.734375
2268,35.43,2022-10-26 16:35:57.750000
2269,16.69,2022-10-26 16:35:57.765625
2270,-7.82,2022-10-26 16:35:57.781250
2271,-26.02,2022-10-26 16:35:57.796875
2272,-28.3,2022-10-26 16:35:57.812500
2273,-10.07,2022-10-26 16:35:57.828125
2274,28.11,2022-10-26 16:35:57.843750
2275,81.9,2022-10-26 16:35:57.859375
2276,145.13,2022-10-26 16:35:57.875000
2277,210.38,2022-10-26 16:35:57.890625
2278,269.84,2022-10-26 16:35:57.906250
2279,315.29,2022-10-26 16:35:57.921875
2280,339.66,2022-10-26 16:35:57.937500
2281,340.12,2022-10-26 16:35:57.953125
2282,318.54,2022-10-26 16:35:57.968750
2283,282.09,2022-10-26 16:35:57.984375
2284,240.17,2022-10-26 16:35:58.000000
2285,200.54,2022-10-26 16:35:58.015625
2286,167.39,2022-10-26 16:35:58.031250
2287,140.56,2022-10-26 16:35:58.046875
2288,117.94,2022-10-26 16:35:58.062500
2289,97.37,2022-10-26 16:35:58.078125
2290,78.25,2022-10-26 16:35:58.093750
2291,60.95,2022-10-26 16:35:58.109375
2292,45.84,2022-10-26 16:35:58.125000
2293,32.82,2022-10-26 16:35:58.140625
2294,21.69,2022-10-26 16:35:58.156250
2295,13.96,2022-10-26 16:35:58.171875
2296,13.19,2022-10-26 16:35:58.187500
2297,23.31,2022-10-26 16:35:58.203125
2298,45.55,2022-10-26 16:35:58.218750
2299,76.52,2022-10-26 16:35:58.234375
2300,108.51,2022-10-26 16:35:58.250000
2301,132.63,2022-10-26 16:35:58.265625
2302,143.25,2022-10-26 16:35:58.281250
2303,139.86,2022-10-26 16:35:58.296875
2304,126.82,2022-10-26 16:35:58.312500
2305,110.13,2022-10-26 16:35:58.328125
2306,95.04,2022-10-26 16:35:58.343750
2307,84.29,2022-10-26 16:35:58.359375
2308,78.05,2022-10-26 16:35:58.375000
2309,74.82,2022-10-26 16:35:58.390625
2310,72.13,2022-10-26 16:35:58.406250
2311,67.45,2022-10-26 16:35:58.421875
2312,58.04,2022-10-26 16:35:58.437500
2313,42.47,2022-10-26 16:35:58.453125
2314,20.71,2022-10-26 16:35:58.468750
2315,-5.14,2022-10-26 16:35:58.484375
2316,-31.08,2022-10-26 16:35:58.500000
2317,-53.74,2022-10-26 16:35:58.515625
2318,-70.74,2022-10-26 16:35:58.531250
2319,-81.87,2022-10-26 16:35:58.546875
2320,-88.03,2022-10-26 16:35:58.562500
2321,-90.63,2022-10-26 16:35:58.578125
2322,-90.5,2022-10-26 16:35:58.593750
2323,-87.9,2022-10-26 16:35:58.609375
2324,-82.39,2022-10-26 16:35:58.625000
2325,-73.53,2022-10-26 16:35:58.640625
2326,-60.64,2022-10-26 16:35:58.656250
2327,-43.22,2022-10-26 16:35:58.671875
2328,-21.71,2022-10-26 16:35:58.687500
2329,1.92,2022-10-26 16:35:58.703125
2330,24.04,2022-10-26 16:35:58.718750
2331,40.98,2022-10-26 16:35:58.734375
2332,50.78,2022-10-26 16:35:58.750000
2333,54.33,2022-10-26 16:35:58.765625
2334,55.87,2022-10-26 16:35:58.781250
2335,60.36,2022-10-26 16:35:58.796875
2336,71.09,2022-10-26 16:35:58.812500
2337,87.25,2022-10-26 16:35:58.828125
2338,104.69,2022-10-26 16:35:58.843750
2339,118.24,2022-10-26 16:35:58.859375
2340,124.55,2022-10-26 16:35:58.875000
2341,124.18,2022-10-26 16:35:58.890625
2342,121.27,2022-10-26 16:35:58.906250
2343,121.4,2022-10-26 16:35:58.921875
2344,128.22,2022-10-26 16:35:58.937500
2345,141.28,2022-10-26 16:35:58.953125
2346,155.81,2022-10-26 16:35:58.968750
2347,165.0,2022-10-26 16:35:58.984375
2348,163.28,2022-10-26 16:35:59.000000
2349,148.04,2022-10-26 16:35:59.015625
2350,120.27,2022-10-26 16:35:59.031250
2351,82.15,2022-10-26 16:35:59.046875
2352,35.42,2022-10-26 16:35:59.062500
2353,-20.13,2022-10-26 16:35:59.078125
2354,-85.78,2022-10-26 16:35:59.093750
2355,-161.2,2022-10-26 16:35:59.109375
2356,-241.58,2022-10-26 16:35:59.125000
2357,-317.95,2022-10-26 16:35:59.140625
2358,-379.52,2022-10-26 16:35:59.156250
2359,-417.86,2022-10-26 16:35:59.171875
2360,-430.88,2022-10-26 16:35:59.187500
2361,-423.68,2022-10-26 16:35:59.203125
2362,-405.44,2022-10-26 16:35:59.218750
2363,-384.37,2022-10-26 16:35:59.234375
2364,-363.98,2022-10-26 16:35:59.250000
2365,-341.28,2022-10-26 16:35:59.265625
2366,-309.95,2022-10-26 16:35:59.281250
2367,-264.11,2022-10-26 16:35:59.296875
2368,-201.35,2022-10-26 16:35:59.312500
2369,-125.2,2022-10-26 16:35:59.328125
2370,-42.89,2022-10-26 16:35:59.343750
2371,37.18,2022-10-26 16:35:59.359375
2372,108.07,2022-10-26 16:35:59.375000
2373,166.03,2022-10-26 16:35:59.390625
2374,210.15,2022-10-26 16:35:59.406250
2375,240.97,2022-10-26 16:35:59.421875
2376,258.84,2022-10-26 16:35:59.437500
2377,262.76,2022-10-26 16:35:59.453125
2378,251.11,2022-10-26 16:35:59.468750
2379,223.63,2022-10-26 16:35:59.484375
2380,182.6,2022-10-26 16:35:59.500000
2381,132.88,2022-10-26 16:35:59.515625
2382,80.43,2022-10-26 16:35:59.531250
2383,29.52,2022-10-26 16:35:59.546875
2384,-17.88,2022-10-26 16:35:59.562500
2385,-61.43,2022-10-26 16:35:59.578125
2386,-100.41,2022-10-26 16:35:59.593750
2387,-133.02,2022-10-26 16:35:59.609375
2388,-156.27,2022-10-26 16:35:59.625000
2389,-168.52,2022-10-26 16:35:59.640625
2390,-171.02,2022-10-26 16:35:59.656250
2391,-167.33,2022-10-26 16:35:59.671875
2392,-161.24,2022-10-26 16:35:59.687500
2393,-153.83,2022-10-26 16:35:59.703125
2394,-142.39,2022-10-26 16:35:59.718750
2395,-121.62,2022-10-26 16:35:59.734375
2396,-87.47,2022-10-26 16:35:59.750000
2397,-40.32,2022-10-26 16:35:59.765625
2398,13.74,2022-10-26 16:35:59.781250
2399,64.13,2022-10-26 16:35:59.796875
2400,100.19,2022-10-26 16:35:59.812500
2401,115.28,2022-10-26 16:35:59.828125
2402,109.66,2022-10-26 16:35:59.843750
2403,89.58,2022-10-26 16:35:59.859375
2404,63.65,2022-10-26 16:35:59.875000
2405,39.27,2022-10-26 16:35:59.890625
2406,19.52,2022-10-26 16:35:59.906250
2407,2.9,2022-10-26 16:35:59.921875
2408,-13.67,2022-10-26 16:35:59.937500
2409,-31.92,2022-10-26 16:35:59.953125
2410,-49.96,2022-10-26 16:35:59.968750
2411,-62.36,2022-10-26 16:35:59.984375
2412,-63.7,2022-10-26 16:36:00.000000
2413,-52.25,2022-10-26 16:36:00.015625
2414,-32.0,2022-10-26 16:36:00.031250
2415,-11.36,2022-10-26 16:36:00.046875
2416,1.27,2022-10-26 16:36:00.062500
2417,1.59,2022-10-26 16:36:00.078125
2418,-9.0,2022-10-26 16:36:00.093750
2419,-25.52,2022-10-26 16:36:00.109375
2420,-42.14,2022-10-26 16:36:00.125000
2421,-55.48,2022-10-26 16:36:00.140625
2422,-64.55,2022-10-26 16:36:00.156250
2423,-69.87,2022-10-26 16:36:00.171875
2424,-71.66,2022-10-26 16:36:00.187500
2425,-68.84,2022-10-26 16:36:00.203125
2426,-59.7,2022-10-26 16:36:00.218750
2427,-43.61,2022-10-26 16:36:00.234375
2428,-22.94,2022-10-26 16:36:00.250000
2429,-3.34,2022-10-26 16:36:00.265625
2430,8.23,2022-10-26 16:36:00.281250
2431,7.51,2022-10-26 16:36:00.296875
2432,-4.59,2022-10-26 16:36:00.312500
2433,-21.4,2022-10-26 16:36:00.328125
2434,-33.15,2022-10-26 16:36:00.343750
2435,-31.32,2022-10-26 16:36:00.359375
2436,-12.91,2022-10-26 16:36:00.375000
2437,18.38,2022-10-26 16:36:00.390625
2438,54.39,2022-10-26 16:36:00.406250
2439,86.75,2022-10-26 16:36:00.421875
2440,111.87,2022-10-26 16:36:00.437500
2441,131.77,2022-10-26 16:36:00.453125
2442,151.78,2022-10-26 16:36:00.468750
2443,175.92,2022-10-26 16:36:00.484375
2444,203.04,2022-10-26 16:36:00.500000
2445,227.19,2022-10-26 16:36:00.515625
2446,240.16,2022-10-26 16:36:00.531250
2447,236.37,2022-10-26 16:36:00.546875
2448,215.84,2022-10-26 16:36:00.562500
2449,184.72,2022-10-26 16:36:00.578125
2450,152.45,2022-10-26 16:36:00.593750
2451,127.43,2022-10-26 16:36:00.609375
2452,113.46,2022-10-26 16:36:00.625000
2453,108.38,2022-10-26 16:36:00.640625
2454,105.27,2022-10-26 16:36:00.656250
2455,96.35,2022-10-26 16:36:00.671875
2456,76.59,2022-10-26 16:36:00.687500
2457,46.17,2022-10-26 16:36:00.703125
2458,10.1,2022-10-26 16:36:00.718750
2459,-24.16,2022-10-26 16:36:00.734375
2460,-50.2,2022-10-26 16:36:00.750000
2461,-65.53,2022-10-26 16:36:00.765625
2462,-72.38,2022-10-26 16:36:00.781250
2463,-76.17,2022-10-26 16:36:00.796875
2464,-83.22,2022-10-26 16:36:00.812500
2465,-97.43,2022-10-26 16:36:00.828125
2466,-118.66,2022-10-26 16:36:00.843750
2467,-142.6,2022-10-26 16:36:00.859375
2468,-162.57,2022-10-26 16:36:00.875000
2469,-172.46,2022-10-26 16:36:00.890625
2470,-169.51,2022-10-26 16:36:00.906250
2471,-155.72,2022-10-26 16:36:00.921875
2472,-137.43,2022-10-26 16:36:00.937500
2473,-122.96,2022-10-26 16:36:00.953125
2474,-119.58,2022-10-26 16:36:00.968750
2475,-131.22,2022-10-26 16:36:00.984375
2476,-157.7,2022-10-26 16:36:01.000000
2477,-194.66,2022-10-26 16:36:01.015625
2478,-235.29,2022-10-26 16:36:01.031250
2479,-271.46,2022-10-26 16:36:01.046875
2480,-295.02,2022-10-26 16:36:01.062500
2481,-299.93,2022-10-26 16:36:01.078125
2482,-284.18,2022-10-26 16:36:01.093750
2483,-250.4,2022-10-26 16:36:01.109375
2484,-205.64,2022-10-26 16:36:01.125000
2485,-157.66,2022-10-26 16:36:01.140625
2486,-111.73,2022-10-26 16:36:01.156250
2487,-67.89,2022-10-26 16:36:01.171875
2488,-21.79,2022-10-26 16:36:01.187500
2489,32.65,2022-10-26 16:36:01.203125
2490,98.07,2022-10-26 16:36:01.218750
2491,170.99,2022-10-26 16:36:01.234375
2492,242.89,2022-10-26 16:36:01.250000
2493,302.47,2022-10-26 16:36:01.265625
2494,340.98,2022-10-26 16:36:01.281250
2495,355.12,2022-10-26 16:36:01.296875
2496,346.97,2022-10-26 16:36:01.312500
2497,321.8,2022-10-26 16:36:01.328125
2498,285.11,2022-10-26 16:36:01.343750
2499,240.58,2022-10-26 16:36:01.359375
2500,191.02,2022-10-26 16:36:01.375000
2501,139.37,2022-10-26 16:36:01.390625
2502,89.49,2022-10-26 16:36:01.406250
2503,46.4,2022-10-26 16:36:01.421875
2504,14.34,2022-10-26 16:36:01.437500
2505,-4.42,2022-10-26 16:36:01.453125
2506,-10.37,2022-10-26 16:36:01.468750
2507,-6.43,2022-10-26 16:36:01.484375
2508,3.05,2022-10-26 16:36:01.500000
2509,13.56,2022-10-26 16:36:01.515625
2510,21.47,2022-10-26 16:36:01.531250
2511,23.35,2022-10-26 16:36:01.546875
2512,16.04,2022-10-26 16:36:01.562500
2513,-2.36,2022-10-26 16:36:01.578125
2514,-32.07,2022-10-26 16:36:01.593750
2515,-70.0,2022-10-26 16:36:01.609375
2516,-110.14,2022-10-26 16:36:01.625000
2517,-144.73,2022-10-26 16:36:01.640625
2518,-166.14,2022-10-26 16:36:01.656250
2519,-169.93,2022-10-26 16:36:01.671875
2520,-156.53,2022-10-26 16:36:01.687500
2521,-131.2,2022-10-26 16:36:01.703125
2522,-102.59,2022-10-26 16:36:01.718750
2523,-78.99,2022-10-26 16:36:01.734375
2524,-64.35,2022-10-26 16:36:01.750000
2525,-56.17,2022-10-26 16:36:01.765625
2526,-46.16,2022-10-26 16:36:01.781250
2527,-23.06,2022-10-26 16:36:01.796875
2528,21.61,2022-10-26 16:36:01.812500
2529,89.42,2022-10-26 16:36:01.828125
2530,173.45,2022-10-26 16:36:01.843750
2531,259.52,2022-10-26 16:36:01.859375
2532,331.93,2022-10-26 16:36:01.875000
2533,379.03,2022-10-26 16:36:01.890625
2534,397.61,2022-10-26 16:36:01.906250
2535,393.65,2022-10-26 16:36:01.921875
2536,378.24,2022-10-26 16:36:01.937500
2537,361.15,2022-10-26 16:36:01.953125
2538,346.09,2022-10-26 16:36:01.968750
2539,329.46,2022-10-26 16:36:01.984375
2540,303.56,2022-10-26 16:36:02.000000
2541,261.61,2022-10-26 16:36:02.015625
2542,201.81,2022-10-26 16:36:02.031250
2543,129.13,2022-10-26 16:36:02.046875
2544,52.78,2022-10-26 16:36:02.062500
2545,-17.38,2022-10-26 16:36:02.078125
2546,-74.04,2022-10-26 16:36:02.093750
2547,-113.68,2022-10-26 16:36:02.109375
2548,-136.37,2022-10-26 16:36:02.125000
2549,-144.41,2022-10-26 16:36:02.140625
2550,-140.68,2022-10-26 16:36:02.156250
2551,-128.65,2022-10-26 16:36:02.171875
2552,-112.06,2022-10-26 16:36:02.187500
2553,-95.27,2022-10-26 16:36:02.203125
2554,-82.54,2022-10-26 16:36:02.218750
2555,-77.28,2022-10-26 16:36:02.234375
2556,-81.43,2022-10-26 16:36:02.250000
2557,-94.26,2022-10-26 16:36:02.265625
2558,-113.19,2022-10-26 16:36:02.281250
2559,-133.56,2022-10-26 16:36:02.296875
2560,-150.19,2022-10-26 16:36:02.312500
2561,-159.34,2022-10-26 16:36:02.328125
2562,-159.22,2022-10-26 16:36:02.343750
2563,-151.04,2022-10-26 16:36:02.359375
2564,-138.05,2022-10-26 16:36:02.375000
2565,-124.06,2022-10-26 16:36:02.390625
2566,-112.4,2022-10-26 16:36:02.406250
2567,-104.61,2022-10-26 16:36:02.421875
2568,-99.41,2022-10-26 16:36:02.437500
2569,-93.14,2022-10-26 16:36:02.453125
2570,-81.09,2022-10-26 16:36:02.468750
2571,-60.1,2022-10-26 16:36:02.484375
2572,-31.05,2022-10-26 16:36:02.500000
2573,0.78,2022-10-26 16:36:02.515625
2574,27.2,2022-10-26 16:36:02.531250
2575,41.59,2022-10-26 16:36:02.546875
2576,42.73,2022-10-26 16:36:02.562500
2577,35.91,2022-10-26 16:36:02.578125
2578,30.42,2022-10-26 16:36:02.593750
2579,35.54,2022-10-26 16:36:02.609375
2580,56.15,2022-10-26 16:36:02.625000
2581,90.5,2022-10-26 16:36:02.640625
2582,131.3,2022-10-26 16:36:02.656250
2583,168.24,2022-10-26 16:36:02.671875
2584,191.39,2022-10-26 16:36:02.687500
2585,193.44,2022-10-26 16:36:02.703125
2586,171.86,2022-10-26 16:36:02.718750
2587,130.25,2022-10-26 16:36:02.734375
2588,77.7,2022-10-26 16:36:02.750000
2589,27.25,2022-10-26 16:36:02.765625
2590,-8.84,2022-10-26 16:36:02.781250
2591,-23.37,2022-10-26 16:36:02.796875
2592,-17.2,2022-10-26 16:36:02.812500
2593,0.25,2022-10-26 16:36:02.828125
2594,15.16,2022-10-26 16:36:02.843750
2595,13.74,2022-10-26 16:36:02.859375
2596,-13.15,2022-10-26 16:36:02.875000
2597,-67.52,2022-10-26 16:36:02.890625
2598,-143.89,2022-10-26 16:36:02.906250
2599,-230.55,2022-10-26 16:36:02.921875
2600,-312.7,2022-10-26 16:36:02.937500
2601,-376.04,2022-10-26 16:36:02.953125
2602,-411.32,2022-10-26 16:36:02.968750
2603,-417.14,2022-10-26 16:36:02.984375
2604,-399.93,2022-10-26 16:36:03.000000
2605,-371.07,2022-10-26 16:36:03.015625
2606,-341.84,2022-10-26 16:36:03.031250
2607,-318.88,2022-10-26 16:36:03.046875
2608,-302.95,2022-10-26 16:36:03.062500
2609,-289.32,2022-10-26 16:36:03.078125
2610,-270.37,2022-10-26 16:36:03.093750
2611,-238.63,2022-10-26 16:36:03.109375
2612,-188.51,2022-10-26 16:36:03.125000
2613,-117.67,2022-10-26 16:36:03.140625
2614,-27.52,2022-10-26 16:36:03.156250
2615,75.87,2022-10-26 16:36:03.171875
2616,182.6,2022-10-26 16:36:03.187500
2617,280.72,2022-10-26 16:36:03.203125
2618,359.17,2022-10-26 16:36:03.218750
2619,412.27,2022-10-26 16:36:03.234375
2620,440.27,2022-10-26 16:36:03.250000
2621,449.01,2022-10-26 16:36:03.265625
2622,446.46,2022-10-26 16:36:03.281250
2623,439.36,2022-10-26 16:36:03.296875
2624,430.86,2022-10-26 16:36:03.312500
2625,420.02,2022-10-26 16:36:03.328125
2626,402.64,2022-10-26 16:36:03.343750
2627,373.61,2022-10-26 16:36:03.359375
2628,329.3,2022-10-26 16:36:03.375000
2629,269.77,2022-10-26 16:36:03.390625
2630,199.47,2022-10-26 16:36:03.406250
2631,127.06,2022-10-26 16:36:03.421875
2632,62.27,2022-10-26 16:36:03.437500
2633,13.0,2022-10-26 16:36:03.453125
2634,-18.09,2022-10-26 16:36:03.468750
2635,-34.41,2022-10-26 16:36:03.484375
2636,-43.7,2022-10-26 16:36:03.500000
2637,-54.45,2022-10-26 16:36:03.515625
2638,-72.3,2022-10-26 16:36:03.531250
2639,-98.36,2022-10-26 16:36:03.546875
2640,-130.39,2022-10-26 16:36:03.562500
2641,-164.48,2022-10-26 16:36:03.578125
2642,-196.69,2022-10-26 16:36:03.593750
2643,-223.31,2022-10-26 16:36:03.609375
2644,-240.73,2022-10-26 16:36:03.625000
2645,-246.6,2022-10-26 16:36:03.640625
2646,-240.97,2022-10-26 16:36:03.656250
2647,-227.31,2022-10-26 16:36:03.671875
2648,-211.66,2022-10-26 16:36:03.687500
2649,-200.12,2022-10-26 16:36:03.703125
2650,-196.06,2022-10-26 16:36:03.718750
2651,-198.19,2022-10-26 16:36:03.734375
2652,-201.76,2022-10-26 16:36:03.750000
2653,-201.91,2022-10-26 16:36:03.765625
2654,-196.82,2022-10-26 16:36:03.781250
2655,-188.91,2022-10-26 16:36:03.796875
2656,-183.06,2022-10-26 16:36:03.812500
2657,-181.98,2022-10-26 16:36:03.828125
2658,-184.17,2022-10-26 16:36:03.843750
2659,-183.32,2022-10-26 16:36:03.859375
2660,-171.57,2022-10-26 16:36:03.875000
2661,-143.84,2022-10-26 16:36:03.890625
2662,-100.91,2022-10-26 16:36:03.906250
2663,-49.02,2022-10-26 16:36:03.921875
2664,2.89,2022-10-26 16:36:03.937500
2665,47.83,2022-10-26 16:36:03.953125
2666,83.19,2022-10-26 16:36:03.968750
2667,110.54,2022-10-26 16:36:03.984375
2668,133.3,2022-10-26 16:36:04.000000
2669,153.28,2022-10-26 16:36:04.015625
2670,170.2,2022-10-26 16:36:04.031250
2671,182.72,2022-10-26 16:36:04.046875
2672,190.32,2022-10-26 16:36:04.062500
2673,195.51,2022-10-26 16:36:04.078125
2674,201.87,2022-10-26 16:36:04.093750
2675,212.29,2022-10-26 16:36:04.109375
2676,226.77,2022-10-26 16:36:04.125000
2677,241.83,2022-10-26 16:36:04.140625
2678,251.58,2022-10-26 16:36:04.156250
2679,250.69,2022-10-26 16:36:04.171875
2680,235.42,2022-10-26 16:36:04.187500
2681,205.07,2022-10-26 16:36:04.203125
2682,161.74,2022-10-26 16:36:04.218750
2683,109.26,2022-10-26 16:36:04.234375
2684,52.58,2022-10-26 16:36:04.250000
2685,-4.01,2022-10-26 16:36:04.265625
2686,-57.67,2022-10-26 16:36:04.281250
2687,-107.06,2022-10-26 16:36:04.296875
2688,-152.06,2022-10-26 16:36:04.312500
2689,-191.34,2022-10-26 16:36:04.328125
2690,-222.08,2022-10-26 16:36:04.343750
2691,-240.45,2022-10-26 16:36:04.359375
2692,-243.28,2022-10-26 16:36:04.375000
2693,-229.83,2022-10-26 16:36:04.390625
2694,-202.23,2022-10-26 16:36:04.406250
2695,-164.61,2022-10-26 16:36:04.421875
2696,-121.62,2022-10-26 16:36:04.437500
2697,-77.08,2022-10-26 16:36:04.453125
2698,-34.07,2022-10-26 16:36:04.468750
2699,4.09,2022-10-26 16:36:04.484375
2700,33.92,2022-10-26 16:36:04.500000
2701,52.97,2022-10-26 16:36:04.515625
2702,62.01,2022-10-26 16:36:04.531250
2703,65.74,2022-10-26 16:36:04.546875
2704,71.15,2022-10-26 16:36:04.562500
2705,84.77,2022-10-26 16:36:04.578125
2706,108.73,2022-10-26 16:36:04.593750
2707,139.36,2022-10-26 16:36:04.609375
2708,169.19,2022-10-26 16:36:04.625000
2709,190.6,2022-10-26 16:36:04.640625
2710,199.27,2022-10-26 16:36:04.656250
2711,196.3,2022-10-26 16:36:04.671875
2712,186.83,2022-10-26 16:36:04.687500
2713,177.84,2022-10-26 16:36:04.703125
2714,174.01,2022-10-26 16:36:04.718750
2715,175.35,2022-10-26 16:36:04.734375
2716,177.52,2022-10-26 16:36:04.750000
2717,173.38,2022-10-26 16:36:04.765625
2718,156.4,2022-10-26 16:36:04.781250
2719,124.0,2022-10-26 16:36:04.796875
2720,78.33,2022-10-26 16:36:04.812500
2721,25.84,2022-10-26 16:36:04.828125
2722,-25.72,2022-10-26 16:36:04.843750
2723,-69.83,2022-10-26 16:36:04.859375
2724,-103.41,2022-10-26 16:36:04.875000
2725,-127.2,2022-10-26 16:36:04.890625
2726,-144.53,2022-10-26 16:36:04.906250
2727,-159.41,2022-10-26 16:36:04.921875
2728,-174.67,2022-10-26 16:36:04.937500
2729,-191.24,2022-10-26 16:36:04.953125
2730,-208.72,2022-10-26 16:36:04.968750
2731,-226.01,2022-10-26 16:36:04.984375
2732,-242.37,2022-10-26 16:36:05.000000
2733,-256.99,2022-10-26 16:36:05.015625
2734,-268.62,2022-10-26 16:36:05.031250
2735,-275.84,2022-10-26 16:36:05.046875
2736,-277.82,2022-10-26 16:36:05.062500
2737,-274.81,2022-10-26 16:36:05.078125
2738,-268.35,2022-10-26 16:36:05.093750
2739,-260.13,2022-10-26 16:36:05.109375
2740,-249.94,2022-10-26 16:36:05.125000
2741,-235.14,2022-10-26 16:36:05.140625
2742,-211.31,2022-10-26 16:36:05.156250
2743,-175.56,2022-10-26 16:36:05.171875
2744,-130.18,2022-10-26 16:36:05.187500
2745,-82.85,2022-10-26 16:36:05.203125
2746,-44.05,2022-10-26 16:36:05.218750
2747,-21.4,2022-10-26 16:36:05.234375
2748,-14.53,2022-10-26 16:36:05.250000
2749,-14.3,2022-10-26 16:36:05.265625
2750,-6.78,2022-10-26 16:36:05.281250
2751,20.21,2022-10-26 16:36:05.296875
2752,70.12,2022-10-26 16:36:05.312500
2753,135.74,2022-10-26 16:36:05.328125
2754,202.08,2022-10-26 16:36:05.343750
2755,253.74,2022-10-26 16:36:05.359375
2756,282.18,2022-10-26 16:36:05.375000
2757,288.57,2022-10-26 16:36:05.390625
2758,281.55,2022-10-26 16:36:05.406250
2759,271.64,2022-10-26 16:36:05.421875
2760,265.78,2022-10-26 16:36:05.437500
2761,265.24,2022-10-26 16:36:05.453125
2762,266.7,2022-10-26 16:36:05.468750
2763,266.32,2022-10-26 16:36:05.484375
2764,262.15,2022-10-26 16:36:05.500000
2765,254.33,2022-10-26 16:36:05.515625
2766,243.63,2022-10-26 16:36:05.531250
2767,229.85,2022-10-26 16:36:05.546875
2768,211.45,2022-10-26 16:36:05.562500
2769,187.49,2022-10-26 16:36:05.578125
2770,158.94,2022-10-26 16:36:05.593750
2771,128.63,2022-10-26 16:36:05.609375
2772,99.4,2022-10-26 16:36:05.625000
2773,71.0,2022-10-26 16:36:05.640625
2774,39.77,2022-10-26 16:36:05.656250
2775,1.18,2022-10-26 16:36:05.671875
2776,-46.0,2022-10-26 16:36:05.687500
2777,-96.58,2022-10-26 16:36:05.703125
2778,-139.45,2022-10-26 16:36:05.718750
2779,-162.44,2022-10-26 16:36:05.734375
2780,-157.46,2022-10-26 16:36:05.750000
2781,-124.95,2022-10-26 16:36:05.765625
2782,-74.22,2022-10-26 16:36:05.781250
2783,-19.68,2022-10-26 16:36:05.796875
2784,24.37,2022-10-26 16:36:05.812500
2785,48.77,2022-10-26 16:36:05.828125
2786,51.24,2022-10-26 16:36:05.843750
2787,35.59,2022-10-26 16:36:05.859375
2788,9.16,2022-10-26 16:36:05.875000
2789,-20.19,2022-10-26 16:36:05.890625
2790,-45.94,2022-10-26 16:36:05.906250
2791,-63.74,2022-10-26 16:36:05.921875
2792,-70.95,2022-10-26 16:36:05.937500
2793,-65.9,2022-10-26 16:36:05.953125
2794,-48.75,2022-10-26 16:36:05.968750
2795,-21.89,2022-10-26 16:36:05.984375
2796,9.94,2022-10-26 16:36:06.000000
2797,39.82,2022-10-26 16:36:06.015625
2798,60.53,2022-10-26 16:36:06.031250
2799,67.92,2022-10-26 16:36:06.046875
2800,62.61,2022-10-26 16:36:06.062500
2801,51.33,2022-10-26 16:36:06.078125
2802,44.68,2022-10-26 16:36:06.093750
2803,52.06,2022-10-26 16:36:06.109375
2804,76.91,2022-10-26 16:36:06.125000
2805,113.76,2022-10-26 16:36:06.140625
2806,150.59,2022-10-26 16:36:06.156250
2807,173.67,2022-10-26 16:36:06.171875
2808,173.3,2022-10-26 16:36:06.187500
2809,147.33,2022-10-26 16:36:06.203125
2810,101.03,2022-10-26 16:36:06.218750
2811,42.7,2022-10-26 16:36:06.234375
2812,-20.51,2022-10-26 16:36:06.250000
2813,-85.67,2022-10-26 16:36:06.265625
2814,-153.3,2022-10-26 16:36:06.281250
2815,-224.28,2022-10-26 16:36:06.296875
2816,-296.36,2022-10-26 16:36:06.312500
2817,-362.48,2022-10-26 16:36:06.328125
2818,-413.7,2022-10-26 16:36:06.343750
2819,-441.87,2022-10-26 16:36:06.359375
2820,-443.5,2022-10-26 16:36:06.375000
2821,-420.82,2022-10-26 16:36:06.390625
2822,-380.06,2022-10-26 16:36:06.406250
2823,-329.74,2022-10-26 16:36:06.421875
2824,-278.0,2022-10-26 16:36:06.437500
2825,-230.8,2022-10-26 16:36:06.453125
2826,-191.5,2022-10-26 16:36:06.468750
2827,-161.18,2022-10-26 16:36:06.484375
2828,-139.41,2022-10-26 16:36:06.500000
2829,-124.52,2022-10-26 16:36:06.515625
2830,-114.26,2022-10-26 16:36:06.531250
2831,-105.22,2022-10-26 16:36:06.546875
2832,-94.26,2022-10-26 16:36:06.562500
2833,-79.27,2022-10-26 16:36:06.578125
2834,-59.55,2022-10-26 16:36:06.593750
2835,-35.99,2022-10-26 16:36:06.609375
2836,-9.7,2022-10-26 16:36:06.625000
2837,18.37,2022-10-26 16:36:06.640625
2838,47.52,2022-10-26 16:36:06.656250
2839,77.0,2022-10-26 16:36:06.671875
2840,105.2,2022-10-26 16:36:06.687500
2841,129.34,2022-10-26 16:36:06.703125
2842,146.36,2022-10-26 16:36:06.718750
2843,154.22,2022-10-26 16:36:06.734375
2844,153.11,2022-10-26 16:36:06.750000
2845,145.43,2022-10-26 16:36:06.765625
2846,134.93,2022-10-26 16:36:06.781250
2847,125.1,2022-10-26 16:36:06.796875
2848,118.72,2022-10-26 16:36:06.812500
2849,118.25,2022-10-26 16:36:06.828125
2850,125.85,2022-10-26 16:36:06.843750
2851,143.05,2022-10-26 16:36:06.859375
2852,169.19,2022-10-26 16:36:06.875000
2853,199.4,2022-10-26 16:36:06.890625
2854,225.15,2022-10-26 16:36:06.906250
2855,237.18,2022-10-26 16:36:06.921875
2856,229.32,2022-10-26 16:36:06.937500
2857,201.51,2022-10-26 16:36:06.953125
2858,160.46,2022-10-26 16:36:06.968750
2859,117.02,2022-10-26 16:36:06.984375
2860,81.77,2022-10-26 16:36:07.000000
2861,61.01,2022-10-26 16:36:07.015625
2862,55.09,2022-10-26 16:36:07.031250
2863,59.44,2022-10-26 16:36:07.046875
2864,67.51,2022-10-26 16:36:07.062500
2865,73.69,2022-10-26 16:36:07.078125
2866,75.65,2022-10-26 16:36:07.093750
2867,74.45,2022-10-26 16:36:07.109375
2868,73.89,2022-10-26 16:36:07.125000
2869,78.4,2022-10-26 16:36:07.140625
2870,91.48,2022-10-26 16:36:07.156250
2871,114.12,2022-10-26 16:36:07.171875
2872,144.62,2022-10-26 16:36:07.187500
2873,178.62,2022-10-26 16:36:07.203125
2874,210.27,2022-10-26 16:36:07.218750
2875,234.08,2022-10-26 16:36:07.234375
2876,245.8,2022-10-26 16:36:07.250000
2877,243.62,2022-10-26 16:36:07.265625
2878,228.33,2022-10-26 16:36:07.281250
2879,203.11,2022-10-26 16:36:07.296875
2880,173.47,2022-10-26 16:36:07.312500
2881,145.55,2022-10-26 16:36:07.328125
2882,124.95,2022-10-26 16:36:07.343750
2883,114.06,2022-10-26 16:36:07.359375
2884,111.44,2022-10-26 16:36:07.375000
2885,112.29,2022-10-26 16:36:07.390625
2886,110.29,2022-10-26 16:36:07.406250
2887,100.49,2022-10-26 16:36:07.421875
2888,80.11,2022-10-26 16:36:07.437500
2889,48.77,2022-10-26 16:36:07.453125
2890,7.61,2022-10-26 16:36:07.468750
2891,-41.02,2022-10-26 16:36:07.484375
2892,-93.55,2022-10-26 16:36:07.500000
2893,-145.17,2022-10-26 16:36:07.515625
2894,-189.94,2022-10-26 16:36:07.531250
2895,-223.26,2022-10-26 16:36:07.546875
2896,-243.76,2022-10-26 16:36:07.562500
2897,-254.08,2022-10-26 16:36:07.578125
2898,-260.34,2022-10-26 16:36:07.593750
2899,-268.8,2022-10-26 16:36:07.609375
2900,-282.19,2022-10-26 16:36:07.625000
2901,-298.98,2022-10-26 16:36:07.640625
2902,-314.22,2022-10-26 16:36:07.656250
2903,-323.38,2022-10-26 16:36:07.671875
2904,-325.35,2022-10-26 16:36:07.687500
2905,-323.01,2022-10-26 16:36:07.703125
2906,-321.45,2022-10-26 16:36:07.718750
2907,-323.62,2022-10-26 16:36:07.734375
2908,-327.52,2022-10-26 16:36:07.750000
2909,-325.98,2022-10-26 16:36:07.765625
2910,-309.82,2022-10-26 16:36:07.781250
2911,-272.97,2022-10-26 16:36:07.796875
2912,-216.41,2022-10-26 16:36:07.812500
2913,-149.59,2022-10-26 16:36:07.828125
2914,-86.34,2022-10-26 16:36:07.843750
2915,-40.26,2022-10-26 16:36:07.859375
2916,-20.08,2022-10-26 16:36:07.875000
2917,-27.36,2022-10-26 16:36:07.890625
2918,-57.84,2022-10-26 16:36:07.906250
2919,-103.4,2022-10-26 16:36:07.921875
2920,-154.8,2022-10-26 16:36:07.937500
2921,-202.54,2022-10-26 16:36:07.953125
2922,-238.12,2022-10-26 16:36:07.968750
2923,-254.58,2022-10-26 16:36:07.984375
2924,-248.73,2022-10-26 16:36:08.000000
2925,-222.84,2022-10-26 16:36:08.015625
2926,-183.72,2022-10-26 16:36:08.031250
2927,-139.84,2022-10-26 16:36:08.046875
2928,-97.16,2022-10-26 16:36:08.062500
2929,-55.21,2022-10-26 16:36:08.078125
2930,-8.32,2022-10-26 16:36:08.093750
2931,50.19,2022-10-26 16:36:08.109375
2932,124.01,2022-10-26 16:36:08.125000
2933,210.58,2022-10-26 16:36:08.140625
2934,301.78,2022-10-26 16:36:08.156250
2935,386.75,2022-10-26 16:36:08.171875
2936,455.14,2022-10-26 16:36:08.187500
2937,499.86,2022-10-26 16:36:08.203125
2938,518.06,2022-10-26 16:36:08.218750
2939,510.99,2022-10-26 16:36:08.234375
2940,483.15,2022-10-26 16:36:08.250000
2941,439.86,2022-10-26 16:36:08.265625
2942,386.33,2022-10-26 16:36:08.281250
2943,325.7,2022-10-26 16:36:08.296875
2944,259.05,2022-10-26 16:36:08.312500
2945,186.03,2022-10-26 16:36:08.328125
2946,106.9,2022-10-26 16:36:08.343750
2947,25.6,2022-10-26 16:36:08.359375
2948,-50.55,2022-10-26 16:36:08.375000
2949,-112.28,2022-10-26 16:36:08.390625
2950,-152.03,2022-10-26 16:36:08.406250
2951,-167.63,2022-10-26 16:36:08.421875
2952,-162.56,2022-10-26 16:36:08.437500
2953,-143.23,2022-10-26 16:36:08.453125
2954,-115.16,2022-10-26 16:36:08.468750
2955,-80.15,2022-10-26 16:36:08.484375
2956,-36.82,2022-10-26 16:36:08.500000
2957,16.7,2022-10-26 16:36:08.515625
2958,79.55,2022-10-26 16:36:08.531250
2959,146.97,2022-10-26 16:36:08.546875
2960,210.99,2022-10-26 16:36:08.562500
2961,264.36,2022-10-26 16:36:08.578125
2962,303.17,2022-10-26 16:36:08.593750
2963,326.78,2022-10-26 16:36:08.609375
2964,336.74,2022-10-26 16:36:08.625000
2965,334.41,2022-10-26 16:36:08.640625
2966,319.15,2022-10-26 16:36:08.656250
2967,289.31,2022-10-26 16:36:08.671875
2968,243.93,2022-10-26 16:36:08.687500
2969,184.46,2022-10-26 16:36:08.703125
2970,115.68,2022-10-26 16:36:08.718750
2971,44.35,2022-10-26 16:36:08.734375
2972,-22.97,2022-10-26 16:36:08.750000
2973,-81.71,2022-10-26 16:36:08.765625
2974,-129.79,2022-10-26 16:36:08.781250
2975,-167.36,2022-10-26 16:36:08.796875
2976,-194.63,2022-10-26 16:36:08.812500
2977,-210.93,2022-10-26 16:36:08.828125
2978,-214.93,2022-10-26 16:36:08.843750
2979,-205.21,2022-10-26 16:36:08.859375
2980,-182.3,2022-10-26 16:36:08.875000
2981,-150.33,2022-10-26 16:36:08.890625
2982,-117.19,2022-10-26 16:36:08.906250
2983,-92.56,2022-10-26 16:36:08.921875
2984,-85.32,2022-10-26 16:36:08.937500
2985,-99.98,2022-10-26 16:36:08.953125
2986,-135.1,2022-10-26 16:36:08.968750
2987,-183.62,2022-10-26 16:36:08.984375
2988,-235.63,2022-10-26 16:36:09.000000
2989,-281.97,2022-10-26 16:36:09.015625
2990,-317.19,2022-10-26 16:36:09.031250
2991,-340.32,2022-10-26 16:36:09.046875
2992,-353.87,2022-10-26 16:36:09.062500
2993,-360.92,2022-10-26 16:36:09.078125
2994,-361.89,2022-10-26 16:36:09.093750
2995,-353.54,2022-10-26 16:36:09.109375
2996,-330.71,2022-10-26 16:36:09.125000
2997,-289.11,2022-10-26 16:36:09.140625
2998,-229.93,2022-10-26 16:36:09.156250
2999,-160.41,2022-10-26 16:36:09.171875
3000,-91.14,2022-10-26 16:36:09.187500
3001,-31.71,2022-10-26 16:36:09.203125
3002,14.32,2022-10-26 16:36:09.218750
3003,50.14,2022-10-26 16:36:09.234375
3004,81.78,2022-10-26 16:36:09.250000
3005,113.41,2022-10-26 16:36:09.265625
3006,143.25,2022-10-26 16:36:09.281250
3007,163.38,2022-10-26 16:36:09.296875
3008,164.54,2022-10-26 16:36:09.312500
3009,141.11,2022-10-26 16:36:09.328125
3010,94.46,2022-10-26 16:36:09.343750
3011,32.53,2022-10-26 16:36:09.359375
3012,-33.26,2022-10-26 16:36:09.375000
3013,-92.23,2022-10-26 16:36:09.390625
3014,-137.64,2022-10-26 16:36:09.406250
3015,-167.28,2022-10-26 16:36:09.421875
3016,-182.46,2022-10-26 16:36:09.437500
3017,-185.65,2022-10-26 16:36:09.453125
3018,-179.17,2022-10-26 16:36:09.468750
3019,-164.88,2022-10-26 16:36:09.484375
3020,-144.89,2022-10-26 16:36:09.500000
3021,-122.32,2022-10-26 16:36:09.515625
3022,-101.36,2022-10-26 16:36:09.531250
3023,-85.67,2022-10-26 16:36:09.546875
3024,-75.7,2022-10-26 16:36:09.562500
3025,-67.92,2022-10-26 16:36:09.578125
3026,-55.43,2022-10-26 16:36:09.593750
3027,-31.33,2022-10-26 16:36:09.609375
3028,6.33,2022-10-26 16:36:09.625000
3029,52.9,2022-10-26 16:36:09.640625
3030,98.54,2022-10-26 16:36:09.656250
3031,133.93,2022-10-26 16:36:09.671875
3032,155.77,2022-10-26 16:36:09.687500
3033,168.25,2022-10-26 16:36:09.703125
3034,180.52,2022-10-26 16:36:09.718750
3035,199.69,2022-10-26 16:36:09.734375
3036,226.01,2022-10-26 16:36:09.750000
3037,252.96,2022-10-26 16:36:09.765625
3038,271.37,2022-10-26 16:36:09.781250
3039,275.15,2022-10-26 16:36:09.796875
3040,264.35,2022-10-26 16:36:09.812500
3041,244.47,2022-10-26 16:36:09.828125
3042,221.95,2022-10-26 16:36:09.843750
3043,200.42,2022-10-26 16:36:09.859375
3044,179.59,2022-10-26 16:36:09.875000
3045,156.73,2022-10-26 16:36:09.890625
3046,130.63,2022-10-26 16:36:09.906250
3047,102.86,2022-10-26 16:36:09.921875
3048,77.14,2022-10-26 16:36:09.937500
3049,56.29,2022-10-26 16:36:09.953125
3050,39.88,2022-10-26 16:36:09.968750
3051,25.32,2022-10-26 16:36:09.984375
3052,10.67,2022-10-26 16:36:10.000000
3053,-2.21,2022-10-26 16:36:10.015625
3054,-7.59,2022-10-26 16:36:10.031250
3055,1.21,2022-10-26 16:36:10.046875
3056,28.62,2022-10-26 16:36:10.062500
3057,73.86,2022-10-26 16:36:10.078125
3058,130.86,2022-10-26 16:36:10.093750
3059,190.82,2022-10-26 16:36:10.109375
3060,244.12,2022-10-26 16:36:10.125000
3061,282.74,2022-10-26 16:36:10.140625
3062,301.03,2022-10-26 16:36:10.156250
3063,296.29,2022-10-26 16:36:10.171875
3064,268.89,2022-10-26 16:36:10.187500
3065,222.74,2022-10-26 16:36:10.203125
3066,165.03,2022-10-26 16:36:10.218750
3067,104.33,2022-10-26 16:36:10.234375
3068,47.75,2022-10-26 16:36:10.250000
3069,-1.44,2022-10-26 16:36:10.265625
3070,-44.92,2022-10-26 16:36:10.281250
3071,-87.67,2022-10-26 16:36:10.296875
3072,-135.17,2022-10-26 16:36:10.312500
3073,-190.25,2022-10-26 16:36:10.328125
3074,-251.47,2022-10-26 16:36:10.343750
3075,-313.13,2022-10-26 16:36:10.359375
3076,-366.35,2022-10-26 16:36:10.375000
3077,-402.4,2022-10-26 16:36:10.390625
3078,-415.83,2022-10-26 16:36:10.406250
3079,-407.08,2022-10-26 16:36:10.421875
3080,-382.88,2022-10-26 16:36:10.437500
3081,-353.61,2022-10-26 16:36:10.453125
3082,-329.37,2022-10-26 16:36:10.468750
3083,-316.41,2022-10-26 16:36:10.484375
3084,-315.21,2022-10-26 16:36:10.500000
3085,-321.43,2022-10-26 16:36:10.515625
3086,-327.81,2022-10-26 16:36:10.531250
3087,-327.12,2022-10-26 16:36:10.546875
3088,-313.95,2022-10-26 16:36:10.562500
3089,-285.57,2022-10-26 16:36:10.578125
3090,-242.79,2022-10-26 16:36:10.593750
3091,-188.65,2022-10-26 16:36:10.609375
3092,-127.72,2022-10-26 16:36:10.625000
3093,-64.64,2022-10-26 16:36:10.640625
3094,-2.94,2022-10-26 16:36:10.656250
3095,55.11,2022-10-26 16:36:10.671875
3096,107.86,2022-10-26 16:36:10.687500
3097,153.43,2022-10-26 16:36:10.703125
3098,189.97,2022-10-26 16:36:10.718750
3099,216.29,2022-10-26 16:36:10.734375
3100,232.49,2022-10-26 16:36:10.750000
3101,240.63,2022-10-26 16:36:10.765625
3102,243.64,2022-10-26 16:36:10.781250
3103,244.12,2022-10-26 16:36:10.796875
3104,243.48,2022-10-26 16:36:10.812500
3105,242.51,2022-10-26 16:36:10.828125
