,BVP,time
0,-19.37,2022-10-26 15:55:37.734375
1,-15.18,2022-10-26 15:55:37.750000
2,-12.69,2022-10-26 15:55:37.765625
3,-11.46,2022-10-26 15:55:37.781250
4,-10.87,2022-10-26 15:55:37.796875
5,-10.53,2022-10-26 15:55:37.812500
6,-10.58,2022-10-26 15:55:37.828125
7,-11.41,2022-10-26 15:55:37.843750
8,-13.32,2022-10-26 15:55:37.859375
9,-16.24,2022-10-26 15:55:37.875000
10,-19.63,2022-10-26 15:55:37.890625
11,-22.67,2022-10-26 15:55:37.906250
12,-24.66,2022-10-26 15:55:37.921875
13,-25.26,2022-10-26 15:55:37.937500
14,-24.57,2022-10-26 15:55:37.953125
15,-22.95,2022-10-26 15:55:37.968750
16,-20.78,2022-10-26 15:55:37.984375
17,-18.22,2022-10-26 15:55:38.000000
18,-15.2,2022-10-26 15:55:38.015625
19,-11.51,2022-10-26 15:55:38.031250
20,-7.11,2022-10-26 15:55:38.046875
21,-2.21,2022-10-26 15:55:38.062500
22,2.68,2022-10-26 15:55:38.078125
23,6.96,2022-10-26 15:55:38.093750
24,10.14,2022-10-26 15:55:38.109375
25,12.02,2022-10-26 15:55:38.125000
26,12.62,2022-10-26 15:55:38.140625
27,12.16,2022-10-26 15:55:38.156250
28,10.9,2022-10-26 15:55:38.171875
29,9.07,2022-10-26 15:55:38.187500
30,6.95,2022-10-26 15:55:38.203125
31,4.78,2022-10-26 15:55:38.218750
32,2.89,2022-10-26 15:55:38.234375
33,1.54,2022-10-26 15:55:38.250000
34,0.92,2022-10-26 15:55:38.265625
35,1.06,2022-10-26 15:55:38.281250
36,1.87,2022-10-26 15:55:38.296875
37,3.19,2022-10-26 15:55:38.312500
38,4.84,2022-10-26 15:55:38.328125
39,6.62,2022-10-26 15:55:38.343750
40,8.32,2022-10-26 15:55:38.359375
41,9.62,2022-10-26 15:55:38.375000
42,10.28,2022-10-26 15:55:38.390625
43,10.14,2022-10-26 15:55:38.406250
44,9.34,2022-10-26 15:55:38.421875
45,8.29,2022-10-26 15:55:38.437500
46,7.57,2022-10-26 15:55:38.453125
47,7.74,2022-10-26 15:55:38.468750
48,9.07,2022-10-26 15:55:38.484375
49,11.38,2022-10-26 15:55:38.500000
50,14.12,2022-10-26 15:55:38.515625
51,16.46,2022-10-26 15:55:38.531250
52,17.63,2022-10-26 15:55:38.546875
53,17.18,2022-10-26 15:55:38.562500
54,15.11,2022-10-26 15:55:38.578125
55,11.77,2022-10-26 15:55:38.593750
56,7.65,2022-10-26 15:55:38.609375
57,3.16,2022-10-26 15:55:38.625000
58,-1.45,2022-10-26 15:55:38.640625
59,-6.12,2022-10-26 15:55:38.656250
60,-10.7,2022-10-26 15:55:38.671875
61,-14.84,2022-10-26 15:55:38.687500
62,-17.99,2022-10-26 15:55:38.703125
63,-19.53,2022-10-26 15:55:38.718750
64,-19.08,2022-10-26 15:55:38.734375
65,-16.67,2022-10-26 15:55:38.750000
66,-12.8,2022-10-26 15:55:38.765625
67,-8.26,2022-10-26 15:55:38.781250
68,-3.87,2022-10-26 15:55:38.796875
69,-0.22,2022-10-26 15:55:38.812500
70,2.4,2022-10-26 15:55:38.828125
71,3.96,2022-10-26 15:55:38.843750
72,4.54,2022-10-26 15:55:38.859375
73,4.27,2022-10-26 15:55:38.875000
74,3.32,2022-10-26 15:55:38.890625
75,1.92,2022-10-26 15:55:38.906250
76,0.44,2022-10-26 15:55:38.921875
77,-0.71,2022-10-26 15:55:38.937500
78,-1.24,2022-10-26 15:55:38.953125
79,-1.08,2022-10-26 15:55:38.968750
80,-0.46,2022-10-26 15:55:38.984375
81,0.21,2022-10-26 15:55:39.000000
82,0.51,2022-10-26 15:55:39.015625
83,0.21,2022-10-26 15:55:39.031250
84,-0.62,2022-10-26 15:55:39.046875
85,-1.58,2022-10-26 15:55:39.062500
86,-2.2,2022-10-26 15:55:39.078125
87,-2.03,2022-10-26 15:55:39.093750
88,-0.88,2022-10-26 15:55:39.109375
89,1.14,2022-10-26 15:55:39.125000
90,3.7,2022-10-26 15:55:39.140625
91,6.35,2022-10-26 15:55:39.156250
92,8.73,2022-10-26 15:55:39.171875
93,10.65,2022-10-26 15:55:39.187500
94,12.13,2022-10-26 15:55:39.203125
95,13.32,2022-10-26 15:55:39.218750
96,14.39,2022-10-26 15:55:39.234375
97,15.5,2022-10-26 15:55:39.250000
98,16.82,2022-10-26 15:55:39.265625
99,18.58,2022-10-26 15:55:39.281250
100,21.07,2022-10-26 15:55:39.296875
101,24.46,2022-10-26 15:55:39.312500
102,28.61,2022-10-26 15:55:39.328125
103,32.94,2022-10-26 15:55:39.343750
104,36.45,2022-10-26 15:55:39.359375
105,38.11,2022-10-26 15:55:39.375000
106,37.35,2022-10-26 15:55:39.390625
107,34.34,2022-10-26 15:55:39.406250
108,30.08,2022-10-26 15:55:39.421875
109,25.93,2022-10-26 15:55:39.437500
110,23.03,2022-10-26 15:55:39.453125
111,21.72,2022-10-26 15:55:39.468750
112,21.48,2022-10-26 15:55:39.484375
113,21.16,2022-10-26 15:55:39.500000
114,19.62,2022-10-26 15:55:39.515625
115,16.2,2022-10-26 15:55:39.531250
116,11.07,2022-10-26 15:55:39.546875
117,5.08,2022-10-26 15:55:39.562500
118,-0.46,2022-10-26 15:55:39.578125
119,-4.14,2022-10-26 15:55:39.593750
120,-4.72,2022-10-26 15:55:39.609375
121,-1.32,2022-10-26 15:55:39.625000
122,6.22,2022-10-26 15:55:39.640625
123,17.15,2022-10-26 15:55:39.656250
124,29.58,2022-10-26 15:55:39.671875
125,40.78,2022-10-26 15:55:39.687500
126,48.07,2022-10-26 15:55:39.703125
127,49.85,2022-10-26 15:55:39.718750
128,46.5,2022-10-26 15:55:39.734375
129,40.41,2022-10-26 15:55:39.750000
130,35.19,2022-10-26 15:55:39.765625
131,34.27,2022-10-26 15:55:39.781250
132,39.53,2022-10-26 15:55:39.796875
133,50.47,2022-10-26 15:55:39.812500
134,64.45,2022-10-26 15:55:39.828125
135,77.63,2022-10-26 15:55:39.843750
136,86.15,2022-10-26 15:55:39.859375
137,87.25,2022-10-26 15:55:39.875000
138,79.48,2022-10-26 15:55:39.890625
139,62.49,2022-10-26 15:55:39.906250
140,36.66,2022-10-26 15:55:39.921875
141,3.22,2022-10-26 15:55:39.937500
142,-35.11,2022-10-26 15:55:39.953125
143,-73.92,2022-10-26 15:55:39.968750
144,-107.62,2022-10-26 15:55:39.984375
145,-131.15,2022-10-26 15:55:40.000000
146,-141.91,2022-10-26 15:55:40.015625
147,-141.02,2022-10-26 15:55:40.031250
148,-132.83,2022-10-26 15:55:40.046875
149,-122.95,2022-10-26 15:55:40.062500
150,-115.58,2022-10-26 15:55:40.078125
151,-111.93,2022-10-26 15:55:40.093750
152,-110.39,2022-10-26 15:55:40.109375
153,-108.18,2022-10-26 15:55:40.125000
154,-103.47,2022-10-26 15:55:40.140625
155,-96.3,2022-10-26 15:55:40.156250
156,-88.27,2022-10-26 15:55:40.171875
157,-81.04,2022-10-26 15:55:40.187500
158,-75.13,2022-10-26 15:55:40.203125
159,-69.62,2022-10-26 15:55:40.218750
160,-62.91,2022-10-26 15:55:40.234375
161,-53.77,2022-10-26 15:55:40.250000
162,-42.06,2022-10-26 15:55:40.265625
163,-28.83,2022-10-26 15:55:40.281250
164,-15.73,2022-10-26 15:55:40.296875
165,-4.48,2022-10-26 15:55:40.312500
166,3.75,2022-10-26 15:55:40.328125
167,8.64,2022-10-26 15:55:40.343750
168,10.67,2022-10-26 15:55:40.359375
169,10.79,2022-10-26 15:55:40.375000
170,10.1,2022-10-26 15:55:40.390625
171,9.44,2022-10-26 15:55:40.406250
172,9.19,2022-10-26 15:55:40.421875
173,9.32,2022-10-26 15:55:40.437500
174,9.7,2022-10-26 15:55:40.453125
175,10.38,2022-10-26 15:55:40.468750
176,11.78,2022-10-26 15:55:40.484375
177,14.5,2022-10-26 15:55:40.500000
178,18.98,2022-10-26 15:55:40.515625
179,25.08,2022-10-26 15:55:40.531250
180,31.97,2022-10-26 15:55:40.546875
181,38.4,2022-10-26 15:55:40.562500
182,43.21,2022-10-26 15:55:40.578125
183,45.89,2022-10-26 15:55:40.593750
184,46.8,2022-10-26 15:55:40.609375
185,46.96,2022-10-26 15:55:40.625000
186,47.46,2022-10-26 15:55:40.640625
187,48.88,2022-10-26 15:55:40.656250
188,50.89,2022-10-26 15:55:40.671875
189,52.34,2022-10-26 15:55:40.687500
190,51.78,2022-10-26 15:55:40.703125
191,48.09,2022-10-26 15:55:40.718750
192,40.98,2022-10-26 15:55:40.734375
193,31.19,2022-10-26 15:55:40.750000
194,20.29,2022-10-26 15:55:40.765625
195,10.11,2022-10-26 15:55:40.781250
196,2.1,2022-10-26 15:55:40.796875
197,-3.3,2022-10-26 15:55:40.812500
198,-6.73,2022-10-26 15:55:40.828125
199,-9.65,2022-10-26 15:55:40.843750
200,-13.62,2022-10-26 15:55:40.859375
201,-19.61,2022-10-26 15:55:40.875000
202,-27.6,2022-10-26 15:55:40.890625
203,-36.71,2022-10-26 15:55:40.906250
204,-45.61,2022-10-26 15:55:40.921875
205,-53.1,2022-10-26 15:55:40.937500
206,-58.45,2022-10-26 15:55:40.953125
207,-61.47,2022-10-26 15:55:40.968750
208,-62.3,2022-10-26 15:55:40.984375
209,-61.13,2022-10-26 15:55:41.000000
210,-58.1,2022-10-26 15:55:41.015625
211,-53.38,2022-10-26 15:55:41.031250
212,-47.28,2022-10-26 15:55:41.046875
213,-40.4,2022-10-26 15:55:41.062500
214,-33.47,2022-10-26 15:55:41.078125
215,-27.27,2022-10-26 15:55:41.093750
216,-22.33,2022-10-26 15:55:41.109375
217,-18.83,2022-10-26 15:55:41.125000
218,-16.62,2022-10-26 15:55:41.140625
219,-15.34,2022-10-26 15:55:41.156250
220,-14.53,2022-10-26 15:55:41.171875
221,-13.84,2022-10-26 15:55:41.187500
222,-13.1,2022-10-26 15:55:41.203125
223,-12.3,2022-10-26 15:55:41.218750
224,-11.56,2022-10-26 15:55:41.234375
225,-10.94,2022-10-26 15:55:41.250000
226,-10.44,2022-10-26 15:55:41.265625
227,-9.91,2022-10-26 15:55:41.281250
228,-9.18,2022-10-26 15:55:41.296875
229,-8.1,2022-10-26 15:55:41.312500
230,-6.65,2022-10-26 15:55:41.328125
231,-4.94,2022-10-26 15:55:41.343750
232,-3.2,2022-10-26 15:55:41.359375
233,-1.71,2022-10-26 15:55:41.375000
234,-0.74,2022-10-26 15:55:41.390625
235,-0.49,2022-10-26 15:55:41.406250
236,-0.98,2022-10-26 15:55:41.421875
237,-2.1,2022-10-26 15:55:41.437500
238,-3.62,2022-10-26 15:55:41.453125
239,-5.25,2022-10-26 15:55:41.468750
240,-6.81,2022-10-26 15:55:41.484375
241,-8.26,2022-10-26 15:55:41.500000
242,-9.72,2022-10-26 15:55:41.515625
243,-11.43,2022-10-26 15:55:41.531250
244,-13.64,2022-10-26 15:55:41.546875
245,-16.44,2022-10-26 15:55:41.562500
246,-19.77,2022-10-26 15:55:41.578125
247,-23.38,2022-10-26 15:55:41.593750
248,-26.84,2022-10-26 15:55:41.609375
249,-29.63,2022-10-26 15:55:41.625000
250,-31.2,2022-10-26 15:55:41.640625
251,-31.05,2022-10-26 15:55:41.656250
252,-28.93,2022-10-26 15:55:41.671875
253,-24.89,2022-10-26 15:55:41.687500
254,-19.36,2022-10-26 15:55:41.703125
255,-13.01,2022-10-26 15:55:41.718750
256,-6.56,2022-10-26 15:55:41.734375
257,-0.57,2022-10-26 15:55:41.750000
258,4.6,2022-10-26 15:55:41.765625
259,8.86,2022-10-26 15:55:41.781250
260,12.25,2022-10-26 15:55:41.796875
261,14.85,2022-10-26 15:55:41.812500
262,16.83,2022-10-26 15:55:41.828125
263,18.33,2022-10-26 15:55:41.843750
264,19.56,2022-10-26 15:55:41.859375
265,20.7,2022-10-26 15:55:41.875000
266,21.85,2022-10-26 15:55:41.890625
267,22.97,2022-10-26 15:55:41.906250
268,23.91,2022-10-26 15:55:41.921875
269,24.48,2022-10-26 15:55:41.937500
270,24.56,2022-10-26 15:55:41.953125
271,24.18,2022-10-26 15:55:41.968750
272,23.52,2022-10-26 15:55:41.984375
273,22.87,2022-10-26 15:55:42.000000
274,22.54,2022-10-26 15:55:42.015625
275,22.73,2022-10-26 15:55:42.031250
276,23.49,2022-10-26 15:55:42.046875
277,24.74,2022-10-26 15:55:42.062500
278,26.23,2022-10-26 15:55:42.078125
279,27.65,2022-10-26 15:55:42.093750
280,28.67,2022-10-26 15:55:42.109375
281,28.94,2022-10-26 15:55:42.125000
282,28.25,2022-10-26 15:55:42.140625
283,26.45,2022-10-26 15:55:42.156250
284,23.62,2022-10-26 15:55:42.171875
285,20.01,2022-10-26 15:55:42.187500
286,16.0,2022-10-26 15:55:42.203125
287,11.95,2022-10-26 15:55:42.218750
288,8.09,2022-10-26 15:55:42.234375
289,4.39,2022-10-26 15:55:42.250000
290,0.64,2022-10-26 15:55:42.265625
291,-3.41,2022-10-26 15:55:42.281250
292,-7.85,2022-10-26 15:55:42.296875
293,-12.48,2022-10-26 15:55:42.312500
294,-16.8,2022-10-26 15:55:42.328125
295,-20.15,2022-10-26 15:55:42.343750
296,-21.96,2022-10-26 15:55:42.359375
297,-21.85,2022-10-26 15:55:42.375000
298,-19.78,2022-10-26 15:55:42.390625
299,-16.0,2022-10-26 15:55:42.406250
300,-10.92,2022-10-26 15:55:42.421875
301,-5.01,2022-10-26 15:55:42.437500
302,1.24,2022-10-26 15:55:42.453125
303,7.41,2022-10-26 15:55:42.468750
304,13.07,2022-10-26 15:55:42.484375
305,17.85,2022-10-26 15:55:42.500000
306,21.46,2022-10-26 15:55:42.515625
307,23.79,2022-10-26 15:55:42.531250
308,24.87,2022-10-26 15:55:42.546875
309,24.94,2022-10-26 15:55:42.562500
310,24.29,2022-10-26 15:55:42.578125
311,23.21,2022-10-26 15:55:42.593750
312,21.93,2022-10-26 15:55:42.609375
313,20.6,2022-10-26 15:55:42.625000
314,19.29,2022-10-26 15:55:42.640625
315,18.07,2022-10-26 15:55:42.656250
316,17.01,2022-10-26 15:55:42.671875
317,16.15,2022-10-26 15:55:42.687500
318,15.55,2022-10-26 15:55:42.703125
319,15.2,2022-10-26 15:55:42.718750
320,15.08,2022-10-26 15:55:42.734375
321,15.15,2022-10-26 15:55:42.750000
322,15.34,2022-10-26 15:55:42.765625
323,15.52,2022-10-26 15:55:42.781250
324,15.54,2022-10-26 15:55:42.796875
325,15.19,2022-10-26 15:55:42.812500
326,14.26,2022-10-26 15:55:42.828125
327,12.66,2022-10-26 15:55:42.843750
328,10.38,2022-10-26 15:55:42.859375
329,7.59,2022-10-26 15:55:42.875000
330,4.56,2022-10-26 15:55:42.890625
331,1.51,2022-10-26 15:55:42.906250
332,-1.39,2022-10-26 15:55:42.921875
333,-4.18,2022-10-26 15:55:42.937500
334,-6.98,2022-10-26 15:55:42.953125
335,-9.96,2022-10-26 15:55:42.968750
336,-13.25,2022-10-26 15:55:42.984375
337,-16.85,2022-10-26 15:55:43.000000
338,-20.65,2022-10-26 15:55:43.015625
339,-24.36,2022-10-26 15:55:43.031250
340,-27.55,2022-10-26 15:55:43.046875
341,-29.68,2022-10-26 15:55:43.062500
342,-30.15,2022-10-26 15:55:43.078125
343,-28.54,2022-10-26 15:55:43.093750
344,-24.74,2022-10-26 15:55:43.109375
345,-19.07,2022-10-26 15:55:43.125000
346,-12.19,2022-10-26 15:55:43.140625
347,-4.97,2022-10-26 15:55:43.156250
348,1.86,2022-10-26 15:55:43.171875
349,7.83,2022-10-26 15:55:43.187500
350,12.75,2022-10-26 15:55:43.203125
351,16.67,2022-10-26 15:55:43.218750
352,19.66,2022-10-26 15:55:43.234375
353,21.75,2022-10-26 15:55:43.250000
354,22.9,2022-10-26 15:55:43.265625
355,23.14,2022-10-26 15:55:43.281250
356,22.58,2022-10-26 15:55:43.296875
357,21.49,2022-10-26 15:55:43.312500
358,20.18,2022-10-26 15:55:43.328125
359,18.93,2022-10-26 15:55:43.343750
360,17.88,2022-10-26 15:55:43.359375
361,17.05,2022-10-26 15:55:43.375000
362,16.41,2022-10-26 15:55:43.390625
363,15.93,2022-10-26 15:55:43.406250
364,15.62,2022-10-26 15:55:43.421875
365,15.52,2022-10-26 15:55:43.437500
366,15.66,2022-10-26 15:55:43.453125
367,15.99,2022-10-26 15:55:43.468750
368,16.39,2022-10-26 15:55:43.484375
369,16.67,2022-10-26 15:55:43.500000
370,16.61,2022-10-26 15:55:43.515625
371,16.09,2022-10-26 15:55:43.531250
372,14.99,2022-10-26 15:55:43.546875
373,13.35,2022-10-26 15:55:43.562500
374,11.25,2022-10-26 15:55:43.578125
375,8.85,2022-10-26 15:55:43.593750
376,6.32,2022-10-26 15:55:43.609375
377,3.82,2022-10-26 15:55:43.625000
378,1.42,2022-10-26 15:55:43.640625
379,-0.88,2022-10-26 15:55:43.656250
380,-3.17,2022-10-26 15:55:43.671875
381,-5.6,2022-10-26 15:55:43.687500
382,-8.36,2022-10-26 15:55:43.703125
383,-11.62,2022-10-26 15:55:43.718750
384,-15.35,2022-10-26 15:55:43.734375
385,-19.27,2022-10-26 15:55:43.750000
386,-22.78,2022-10-26 15:55:43.765625
387,-25.09,2022-10-26 15:55:43.781250
388,-25.45,2022-10-26 15:55:43.796875
389,-23.42,2022-10-26 15:55:43.812500
390,-19.05,2022-10-26 15:55:43.828125
391,-12.86,2022-10-26 15:55:43.843750
392,-5.67,2022-10-26 15:55:43.859375
393,1.69,2022-10-26 15:55:43.875000
394,8.63,2022-10-26 15:55:43.890625
395,14.77,2022-10-26 15:55:43.906250
396,19.98,2022-10-26 15:55:43.921875
397,24.11,2022-10-26 15:55:43.937500
398,27.02,2022-10-26 15:55:43.953125
399,28.54,2022-10-26 15:55:43.968750
400,28.65,2022-10-26 15:55:43.984375
401,27.52,2022-10-26 15:55:44.000000
402,25.6,2022-10-26 15:55:44.015625
403,23.44,2022-10-26 15:55:44.031250
404,21.52,2022-10-26 15:55:44.046875
405,20.09,2022-10-26 15:55:44.062500
406,19.11,2022-10-26 15:55:44.078125
407,18.33,2022-10-26 15:55:44.093750
408,17.48,2022-10-26 15:55:44.109375
409,16.45,2022-10-26 15:55:44.125000
410,15.4,2022-10-26 15:55:44.140625
411,14.65,2022-10-26 15:55:44.156250
412,14.49,2022-10-26 15:55:44.171875
413,15.02,2022-10-26 15:55:44.187500
414,16.03,2022-10-26 15:55:44.203125
415,17.05,2022-10-26 15:55:44.218750
416,17.55,2022-10-26 15:55:44.234375
417,17.12,2022-10-26 15:55:44.250000
418,15.69,2022-10-26 15:55:44.265625
419,13.48,2022-10-26 15:55:44.281250
420,10.97,2022-10-26 15:55:44.296875
421,8.63,2022-10-26 15:55:44.312500
422,6.81,2022-10-26 15:55:44.328125
423,5.6,2022-10-26 15:55:44.343750
424,4.79,2022-10-26 15:55:44.359375
425,3.95,2022-10-26 15:55:44.375000
426,2.51,2022-10-26 15:55:44.390625
427,-0.16,2022-10-26 15:55:44.406250
428,-4.64,2022-10-26 15:55:44.421875
429,-11.26,2022-10-26 15:55:44.437500
430,-19.84,2022-10-26 15:55:44.453125
431,-29.49,2022-10-26 15:55:44.468750
432,-38.64,2022-10-26 15:55:44.484375
433,-45.4,2022-10-26 15:55:44.500000
434,-48.18,2022-10-26 15:55:44.515625
435,-46.27,2022-10-26 15:55:44.531250
436,-39.98,2022-10-26 15:55:44.546875
437,-30.42,2022-10-26 15:55:44.562500
438,-18.81,2022-10-26 15:55:44.578125
439,-5.95,2022-10-26 15:55:44.593750
440,7.98,2022-10-26 15:55:44.609375
441,23.07,2022-10-26 15:55:44.625000
442,39.08,2022-10-26 15:55:44.640625
443,54.98,2022-10-26 15:55:44.656250
444,68.96,2022-10-26 15:55:44.671875
445,78.88,2022-10-26 15:55:44.687500
446,83.06,2022-10-26 15:55:44.703125
447,80.82,2022-10-26 15:55:44.718750
448,72.69,2022-10-26 15:55:44.734375
449,60.27,2022-10-26 15:55:44.750000
450,45.69,2022-10-26 15:55:44.765625
451,31.18,2022-10-26 15:55:44.781250
452,18.61,2022-10-26 15:55:44.796875
453,9.24,2022-10-26 15:55:44.812500
454,3.66,2022-10-26 15:55:44.828125
455,1.73,2022-10-26 15:55:44.843750
456,2.85,2022-10-26 15:55:44.859375
457,6.14,2022-10-26 15:55:44.875000
458,10.74,2022-10-26 15:55:44.890625
459,16.02,2022-10-26 15:55:44.906250
460,21.57,2022-10-26 15:55:44.921875
461,27.21,2022-10-26 15:55:44.937500
462,32.83,2022-10-26 15:55:44.953125
463,38.28,2022-10-26 15:55:44.968750
464,43.36,2022-10-26 15:55:44.984375
465,47.86,2022-10-26 15:55:45.000000
466,51.63,2022-10-26 15:55:45.015625
467,54.69,2022-10-26 15:55:45.031250
468,57.16,2022-10-26 15:55:45.046875
469,59.2,2022-10-26 15:55:45.062500
470,60.93,2022-10-26 15:55:45.078125
471,62.35,2022-10-26 15:55:45.093750
472,63.36,2022-10-26 15:55:45.109375
473,63.9,2022-10-26 15:55:45.125000
474,64.02,2022-10-26 15:55:45.140625
475,63.98,2022-10-26 15:55:45.156250
476,64.08,2022-10-26 15:55:45.171875
477,64.64,2022-10-26 15:55:45.187500
478,65.74,2022-10-26 15:55:45.203125
479,67.28,2022-10-26 15:55:45.218750
480,68.94,2022-10-26 15:55:45.234375
481,70.4,2022-10-26 15:55:45.250000
482,71.4,2022-10-26 15:55:45.265625
483,71.86,2022-10-26 15:55:45.281250
484,71.83,2022-10-26 15:55:45.296875
485,71.41,2022-10-26 15:55:45.312500
486,70.74,2022-10-26 15:55:45.328125
487,69.98,2022-10-26 15:55:45.343750
488,69.39,2022-10-26 15:55:45.359375
489,69.28,2022-10-26 15:55:45.375000
490,69.94,2022-10-26 15:55:45.390625
491,71.48,2022-10-26 15:55:45.406250
492,73.62,2022-10-26 15:55:45.421875
493,75.66,2022-10-26 15:55:45.437500
494,76.65,2022-10-26 15:55:45.453125
495,75.64,2022-10-26 15:55:45.468750
496,72.04,2022-10-26 15:55:45.484375
497,65.81,2022-10-26 15:55:45.500000
498,57.35,2022-10-26 15:55:45.515625
499,47.37,2022-10-26 15:55:45.531250
500,36.61,2022-10-26 15:55:45.546875
501,25.71,2022-10-26 15:55:45.562500
502,15.18,2022-10-26 15:55:45.578125
503,5.51,2022-10-26 15:55:45.593750
504,-2.85,2022-10-26 15:55:45.609375
505,-9.64,2022-10-26 15:55:45.625000
506,-14.9,2022-10-26 15:55:45.640625
507,-19.07,2022-10-26 15:55:45.656250
508,-22.87,2022-10-26 15:55:45.671875
509,-27.1,2022-10-26 15:55:45.687500
510,-32.32,2022-10-26 15:55:45.703125
511,-38.72,2022-10-26 15:55:45.718750
512,-46.09,2022-10-26 15:55:45.734375
513,-53.91,2022-10-26 15:55:45.750000
514,-61.62,2022-10-26 15:55:45.765625
515,-68.77,2022-10-26 15:55:45.781250
516,-75.29,2022-10-26 15:55:45.796875
517,-81.51,2022-10-26 15:55:45.812500
518,-87.97,2022-10-26 15:55:45.828125
519,-95.16,2022-10-26 15:55:45.843750
520,-103.06,2022-10-26 15:55:45.859375
521,-111.07,2022-10-26 15:55:45.875000
522,-118.12,2022-10-26 15:55:45.890625
523,-123.23,2022-10-26 15:55:45.906250
524,-125.99,2022-10-26 15:55:45.921875
525,-126.83,2022-10-26 15:55:45.937500
526,-126.78,2022-10-26 15:55:45.953125
527,-126.89,2022-10-26 15:55:45.968750
528,-127.74,2022-10-26 15:55:45.984375
529,-129.11,2022-10-26 15:55:46.000000
530,-130.26,2022-10-26 15:55:46.015625
531,-130.31,2022-10-26 15:55:46.031250
532,-128.82,2022-10-26 15:55:46.046875
533,-125.93,2022-10-26 15:55:46.062500
534,-122.3,2022-10-26 15:55:46.078125
535,-118.81,2022-10-26 15:55:46.093750
536,-116.15,2022-10-26 15:55:46.109375
537,-114.6,2022-10-26 15:55:46.125000
538,-113.88,2022-10-26 15:55:46.140625
539,-113.25,2022-10-26 15:55:46.156250
540,-111.74,2022-10-26 15:55:46.171875
541,-108.48,2022-10-26 15:55:46.187500
542,-102.97,2022-10-26 15:55:46.203125
543,-95.24,2022-10-26 15:55:46.218750
544,-85.92,2022-10-26 15:55:46.234375
545,-76.0,2022-10-26 15:55:46.250000
546,-66.67,2022-10-26 15:55:46.265625
547,-58.93,2022-10-26 15:55:46.281250
548,-53.26,2022-10-26 15:55:46.296875
549,-49.4,2022-10-26 15:55:46.312500
550,-46.3,2022-10-26 15:55:46.328125
551,-42.45,2022-10-26 15:55:46.343750
552,-36.46,2022-10-26 15:55:46.359375
553,-27.64,2022-10-26 15:55:46.375000
554,-16.34,2022-10-26 15:55:46.390625
555,-3.93,2022-10-26 15:55:46.406250
556,7.74,2022-10-26 15:55:46.421875
557,16.84,2022-10-26 15:55:46.437500
558,22.03,2022-10-26 15:55:46.453125
559,22.66,2022-10-26 15:55:46.468750
560,18.79,2022-10-26 15:55:46.484375
561,11.12,2022-10-26 15:55:46.500000
562,0.97,2022-10-26 15:55:46.515625
563,-9.88,2022-10-26 15:55:46.531250
564,-19.57,2022-10-26 15:55:46.546875
565,-26.62,2022-10-26 15:55:46.562500
566,-30.43,2022-10-26 15:55:46.578125
567,-31.38,2022-10-26 15:55:46.593750
568,-30.52,2022-10-26 15:55:46.609375
569,-28.9,2022-10-26 15:55:46.625000
570,-26.95,2022-10-26 15:55:46.640625
571,-24.43,2022-10-26 15:55:46.656250
572,-20.72,2022-10-26 15:55:46.671875
573,-15.53,2022-10-26 15:55:46.687500
574,-9.28,2022-10-26 15:55:46.703125
575,-3.1,2022-10-26 15:55:46.718750
576,1.86,2022-10-26 15:55:46.734375
577,5.11,2022-10-26 15:55:46.750000
578,7.26,2022-10-26 15:55:46.765625
579,9.75,2022-10-26 15:55:46.781250
580,14.05,2022-10-26 15:55:46.796875
581,20.78,2022-10-26 15:55:46.812500
582,29.19,2022-10-26 15:55:46.828125
583,37.44,2022-10-26 15:55:46.843750
584,43.54,2022-10-26 15:55:46.859375
585,46.34,2022-10-26 15:55:46.875000
586,46.11,2022-10-26 15:55:46.890625
587,44.25,2022-10-26 15:55:46.906250
588,42.41,2022-10-26 15:55:46.921875
589,41.57,2022-10-26 15:55:46.937500
590,41.57,2022-10-26 15:55:46.953125
591,41.44,2022-10-26 15:55:46.968750
592,40.09,2022-10-26 15:55:46.984375
593,37.08,2022-10-26 15:55:47.000000
594,32.8,2022-10-26 15:55:47.015625
595,28.24,2022-10-26 15:55:47.031250
596,24.28,2022-10-26 15:55:47.046875
597,21.24,2022-10-26 15:55:47.062500
598,18.68,2022-10-26 15:55:47.078125
599,15.73,2022-10-26 15:55:47.093750
600,11.58,2022-10-26 15:55:47.109375
601,5.94,2022-10-26 15:55:47.125000
602,-0.73,2022-10-26 15:55:47.140625
603,-7.47,2022-10-26 15:55:47.156250
604,-13.15,2022-10-26 15:55:47.171875
605,-16.89,2022-10-26 15:55:47.187500
606,-18.39,2022-10-26 15:55:47.203125
607,-17.91,2022-10-26 15:55:47.218750
608,-16.11,2022-10-26 15:55:47.234375
609,-13.69,2022-10-26 15:55:47.250000
610,-11.13,2022-10-26 15:55:47.265625
611,-8.56,2022-10-26 15:55:47.281250
612,-5.86,2022-10-26 15:55:47.296875
613,-2.77,2022-10-26 15:55:47.312500
614,0.92,2022-10-26 15:55:47.328125
615,5.23,2022-10-26 15:55:47.343750
616,9.96,2022-10-26 15:55:47.359375
617,14.7,2022-10-26 15:55:47.375000
618,18.87,2022-10-26 15:55:47.390625
619,21.86,2022-10-26 15:55:47.406250
620,23.29,2022-10-26 15:55:47.421875
621,23.15,2022-10-26 15:55:47.437500
622,21.91,2022-10-26 15:55:47.453125
623,20.33,2022-10-26 15:55:47.468750
624,19.11,2022-10-26 15:55:47.484375
625,18.62,2022-10-26 15:55:47.500000
626,18.73,2022-10-26 15:55:47.515625
627,18.97,2022-10-26 15:55:47.531250
628,18.86,2022-10-26 15:55:47.546875
629,18.21,2022-10-26 15:55:47.562500
630,17.26,2022-10-26 15:55:47.578125
631,16.48,2022-10-26 15:55:47.593750
632,16.32,2022-10-26 15:55:47.609375
633,16.83,2022-10-26 15:55:47.625000
634,17.66,2022-10-26 15:55:47.640625
635,18.09,2022-10-26 15:55:47.656250
636,17.44,2022-10-26 15:55:47.671875
637,15.36,2022-10-26 15:55:47.687500
638,12.0,2022-10-26 15:55:47.703125
639,7.95,2022-10-26 15:55:47.718750
640,3.86,2022-10-26 15:55:47.734375
641,0.14,2022-10-26 15:55:47.750000
642,-3.22,2022-10-26 15:55:47.765625
643,-6.57,2022-10-26 15:55:47.781250
644,-10.2,2022-10-26 15:55:47.796875
645,-14.06,2022-10-26 15:55:47.812500
646,-17.61,2022-10-26 15:55:47.828125
647,-19.99,2022-10-26 15:55:47.843750
648,-20.45,2022-10-26 15:55:47.859375
649,-18.7,2022-10-26 15:55:47.875000
650,-15.04,2022-10-26 15:55:47.890625
651,-10.21,2022-10-26 15:55:47.906250
652,-5.01,2022-10-26 15:55:47.921875
653,-0.01,2022-10-26 15:55:47.937500
654,4.58,2022-10-26 15:55:47.953125
655,8.74,2022-10-26 15:55:47.968750
656,12.48,2022-10-26 15:55:47.984375
657,15.71,2022-10-26 15:55:48.000000
658,18.21,2022-10-26 15:55:48.015625
659,19.82,2022-10-26 15:55:48.031250
660,20.49,2022-10-26 15:55:48.046875
661,20.3,2022-10-26 15:55:48.062500
662,19.44,2022-10-26 15:55:48.078125
663,18.11,2022-10-26 15:55:48.093750
664,16.55,2022-10-26 15:55:48.109375
665,15.02,2022-10-26 15:55:48.125000
666,13.91,2022-10-26 15:55:48.140625
667,13.56,2022-10-26 15:55:48.156250
668,14.2,2022-10-26 15:55:48.171875
669,15.72,2022-10-26 15:55:48.187500
670,17.6,2022-10-26 15:55:48.203125
671,19.07,2022-10-26 15:55:48.218750
672,19.35,2022-10-26 15:55:48.234375
673,18.05,2022-10-26 15:55:48.250000
674,15.3,2022-10-26 15:55:48.265625
675,11.75,2022-10-26 15:55:48.281250
676,8.23,2022-10-26 15:55:48.296875
677,5.45,2022-10-26 15:55:48.312500
678,3.67,2022-10-26 15:55:48.328125
679,2.64,2022-10-26 15:55:48.343750
680,1.78,2022-10-26 15:55:48.359375
681,0.46,2022-10-26 15:55:48.375000
682,-1.61,2022-10-26 15:55:48.390625
683,-4.28,2022-10-26 15:55:48.406250
684,-6.95,2022-10-26 15:55:48.421875
685,-8.81,2022-10-26 15:55:48.437500
686,-9.12,2022-10-26 15:55:48.453125
687,-7.55,2022-10-26 15:55:48.468750
688,-4.26,2022-10-26 15:55:48.484375
689,0.14,2022-10-26 15:55:48.500000
690,4.78,2022-10-26 15:55:48.515625
691,8.85,2022-10-26 15:55:48.531250
692,11.79,2022-10-26 15:55:48.546875
693,13.48,2022-10-26 15:55:48.562500
694,14.15,2022-10-26 15:55:48.578125
695,14.24,2022-10-26 15:55:48.593750
696,14.19,2022-10-26 15:55:48.609375
697,14.27,2022-10-26 15:55:48.625000
698,14.49,2022-10-26 15:55:48.640625
699,14.65,2022-10-26 15:55:48.656250
700,14.48,2022-10-26 15:55:48.671875
701,13.8,2022-10-26 15:55:48.687500
702,12.57,2022-10-26 15:55:48.703125
703,10.9,2022-10-26 15:55:48.718750
704,8.96,2022-10-26 15:55:48.734375
705,6.94,2022-10-26 15:55:48.750000
706,4.96,2022-10-26 15:55:48.765625
707,3.15,2022-10-26 15:55:48.781250
708,1.66,2022-10-26 15:55:48.796875
709,0.64,2022-10-26 15:55:48.812500
710,0.21,2022-10-26 15:55:48.828125
711,0.34,2022-10-26 15:55:48.843750
712,0.84,2022-10-26 15:55:48.859375
713,1.36,2022-10-26 15:55:48.875000
714,1.56,2022-10-26 15:55:48.890625
715,1.18,2022-10-26 15:55:48.906250
716,0.21,2022-10-26 15:55:48.921875
717,-1.2,2022-10-26 15:55:48.937500
718,-2.76,2022-10-26 15:55:48.953125
719,-4.32,2022-10-26 15:55:48.968750
720,-5.88,2022-10-26 15:55:48.984375
721,-7.66,2022-10-26 15:55:49.000000
722,-9.89,2022-10-26 15:55:49.015625
723,-12.69,2022-10-26 15:55:49.031250
724,-15.84,2022-10-26 15:55:49.046875
725,-18.77,2022-10-26 15:55:49.062500
726,-20.77,2022-10-26 15:55:49.078125
727,-21.19,2022-10-26 15:55:49.093750
728,-19.75,2022-10-26 15:55:49.109375
729,-16.6,2022-10-26 15:55:49.125000
730,-12.3,2022-10-26 15:55:49.140625
731,-7.59,2022-10-26 15:55:49.156250
732,-3.17,2022-10-26 15:55:49.171875
733,0.43,2022-10-26 15:55:49.187500
734,2.99,2022-10-26 15:55:49.203125
735,4.45,2022-10-26 15:55:49.218750
736,4.96,2022-10-26 15:55:49.234375
737,4.7,2022-10-26 15:55:49.250000
738,3.88,2022-10-26 15:55:49.265625
739,2.68,2022-10-26 15:55:49.281250
740,1.24,2022-10-26 15:55:49.296875
741,-0.34,2022-10-26 15:55:49.312500
742,-2.0,2022-10-26 15:55:49.328125
743,-3.63,2022-10-26 15:55:49.343750
744,-5.08,2022-10-26 15:55:49.359375
745,-6.12,2022-10-26 15:55:49.375000
746,-6.48,2022-10-26 15:55:49.390625
747,-5.89,2022-10-26 15:55:49.406250
748,-4.18,2022-10-26 15:55:49.421875
749,-1.37,2022-10-26 15:55:49.437500
750,2.32,2022-10-26 15:55:49.453125
751,6.48,2022-10-26 15:55:49.468750
752,10.55,2022-10-26 15:55:49.484375
753,14.01,2022-10-26 15:55:49.500000
754,16.49,2022-10-26 15:55:49.515625
755,17.87,2022-10-26 15:55:49.531250
756,18.29,2022-10-26 15:55:49.546875
757,18.08,2022-10-26 15:55:49.562500
758,17.62,2022-10-26 15:55:49.578125
759,17.15,2022-10-26 15:55:49.593750
760,16.68,2022-10-26 15:55:49.609375
761,16.02,2022-10-26 15:55:49.625000
762,14.89,2022-10-26 15:55:49.640625
763,13.08,2022-10-26 15:55:49.656250
764,10.64,2022-10-26 15:55:49.671875
765,7.96,2022-10-26 15:55:49.687500
766,5.65,2022-10-26 15:55:49.703125
767,4.41,2022-10-26 15:55:49.718750
768,4.75,2022-10-26 15:55:49.734375
769,6.86,2022-10-26 15:55:49.750000
770,10.51,2022-10-26 15:55:49.765625
771,15.17,2022-10-26 15:55:49.781250
772,20.14,2022-10-26 15:55:49.796875
773,24.77,2022-10-26 15:55:49.812500
774,28.59,2022-10-26 15:55:49.828125
775,31.38,2022-10-26 15:55:49.843750
776,33.09,2022-10-26 15:55:49.859375
777,33.87,2022-10-26 15:55:49.875000
778,33.88,2022-10-26 15:55:49.890625
779,33.31,2022-10-26 15:55:49.906250
780,32.3,2022-10-26 15:55:49.921875
781,30.94,2022-10-26 15:55:49.937500
782,29.26,2022-10-26 15:55:49.953125
783,27.23,2022-10-26 15:55:49.968750
784,24.85,2022-10-26 15:55:49.984375
785,22.17,2022-10-26 15:55:50.000000
786,19.31,2022-10-26 15:55:50.015625
787,16.46,2022-10-26 15:55:50.031250
788,13.83,2022-10-26 15:55:50.046875
789,11.59,2022-10-26 15:55:50.062500
790,9.77,2022-10-26 15:55:50.078125
791,8.29,2022-10-26 15:55:50.093750
792,6.98,2022-10-26 15:55:50.109375
793,5.64,2022-10-26 15:55:50.125000
794,4.14,2022-10-26 15:55:50.140625
795,2.42,2022-10-26 15:55:50.156250
796,0.51,2022-10-26 15:55:50.171875
797,-1.44,2022-10-26 15:55:50.187500
798,-3.24,2022-10-26 15:55:50.203125
799,-4.7,2022-10-26 15:55:50.218750
800,-5.73,2022-10-26 15:55:50.234375
801,-6.41,2022-10-26 15:55:50.250000
802,-7.02,2022-10-26 15:55:50.265625
803,-7.93,2022-10-26 15:55:50.281250
804,-9.44,2022-10-26 15:55:50.296875
805,-11.62,2022-10-26 15:55:50.312500
806,-14.19,2022-10-26 15:55:50.328125
807,-16.57,2022-10-26 15:55:50.343750
808,-18.13,2022-10-26 15:55:50.359375
809,-18.35,2022-10-26 15:55:50.375000
810,-17.05,2022-10-26 15:55:50.390625
811,-14.42,2022-10-26 15:55:50.406250
812,-10.98,2022-10-26 15:55:50.421875
813,-7.37,2022-10-26 15:55:50.437500
814,-4.14,2022-10-26 15:55:50.453125
815,-1.6,2022-10-26 15:55:50.468750
816,0.17,2022-10-26 15:55:50.484375
817,1.33,2022-10-26 15:55:50.500000
818,2.08,2022-10-26 15:55:50.515625
819,2.54,2022-10-26 15:55:50.531250
820,2.71,2022-10-26 15:55:50.546875
821,2.54,2022-10-26 15:55:50.562500
822,2.02,2022-10-26 15:55:50.578125
823,1.27,2022-10-26 15:55:50.593750
824,0.55,2022-10-26 15:55:50.609375
825,0.08,2022-10-26 15:55:50.625000
826,-0.01,2022-10-26 15:55:50.640625
827,0.18,2022-10-26 15:55:50.656250
828,0.44,2022-10-26 15:55:50.671875
829,0.57,2022-10-26 15:55:50.687500
830,0.52,2022-10-26 15:55:50.703125
831,0.46,2022-10-26 15:55:50.718750
832,0.66,2022-10-26 15:55:50.734375
833,1.3,2022-10-26 15:55:50.750000
834,2.36,2022-10-26 15:55:50.765625
835,3.56,2022-10-26 15:55:50.781250
836,4.51,2022-10-26 15:55:50.796875
837,4.82,2022-10-26 15:55:50.812500
838,4.32,2022-10-26 15:55:50.828125
839,3.06,2022-10-26 15:55:50.843750
840,1.24,2022-10-26 15:55:50.859375
841,-0.84,2022-10-26 15:55:50.875000
842,-2.91,2022-10-26 15:55:50.890625
843,-4.79,2022-10-26 15:55:50.906250
844,-6.39,2022-10-26 15:55:50.921875
845,-7.67,2022-10-26 15:55:50.937500
846,-8.68,2022-10-26 15:55:50.953125
847,-9.52,2022-10-26 15:55:50.968750
848,-10.27,2022-10-26 15:55:50.984375
849,-10.94,2022-10-26 15:55:51.000000
850,-11.41,2022-10-26 15:55:51.015625
851,-11.45,2022-10-26 15:55:51.031250
852,-10.76,2022-10-26 15:55:51.046875
853,-9.13,2022-10-26 15:55:51.062500
854,-6.54,2022-10-26 15:55:51.078125
855,-3.23,2022-10-26 15:55:51.093750
856,0.39,2022-10-26 15:55:51.109375
857,3.9,2022-10-26 15:55:51.125000
858,6.96,2022-10-26 15:55:51.140625
859,9.44,2022-10-26 15:55:51.156250
860,11.37,2022-10-26 15:55:51.171875
861,12.9,2022-10-26 15:55:51.187500
862,14.12,2022-10-26 15:55:51.203125
863,15.04,2022-10-26 15:55:51.218750
864,15.59,2022-10-26 15:55:51.234375
865,15.67,2022-10-26 15:55:51.250000
866,15.32,2022-10-26 15:55:51.265625
867,14.75,2022-10-26 15:55:51.281250
868,14.3,2022-10-26 15:55:51.296875
869,14.33,2022-10-26 15:55:51.312500
870,15.04,2022-10-26 15:55:51.328125
871,16.35,2022-10-26 15:55:51.343750
872,17.91,2022-10-26 15:55:51.359375
873,19.24,2022-10-26 15:55:51.375000
874,19.99,2022-10-26 15:55:51.390625
875,20.07,2022-10-26 15:55:51.406250
876,19.64,2022-10-26 15:55:51.421875
877,19.02,2022-10-26 15:55:51.437500
878,18.36,2022-10-26 15:55:51.453125
879,17.55,2022-10-26 15:55:51.468750
880,16.19,2022-10-26 15:55:51.484375
881,13.91,2022-10-26 15:55:51.500000
882,10.61,2022-10-26 15:55:51.515625
883,6.66,2022-10-26 15:55:51.531250
884,2.78,2022-10-26 15:55:51.546875
885,-0.27,2022-10-26 15:55:51.562500
886,-2.05,2022-10-26 15:55:51.578125
887,-2.63,2022-10-26 15:55:51.593750
888,-2.48,2022-10-26 15:55:51.609375
889,-2.21,2022-10-26 15:55:51.625000
890,-2.24,2022-10-26 15:55:51.640625
891,-2.65,2022-10-26 15:55:51.656250
892,-3.26,2022-10-26 15:55:51.671875
893,-3.85,2022-10-26 15:55:51.687500
894,-4.36,2022-10-26 15:55:51.703125
895,-4.94,2022-10-26 15:55:51.718750
896,-5.83,2022-10-26 15:55:51.734375
897,-7.16,2022-10-26 15:55:51.750000
898,-8.8,2022-10-26 15:55:51.765625
899,-10.33,2022-10-26 15:55:51.781250
900,-11.23,2022-10-26 15:55:51.796875
901,-11.08,2022-10-26 15:55:51.812500
902,-9.71,2022-10-26 15:55:51.828125
903,-7.33,2022-10-26 15:55:51.843750
904,-4.33,2022-10-26 15:55:51.859375
905,-1.21,2022-10-26 15:55:51.875000
906,1.68,2022-10-26 15:55:51.890625
907,4.14,2022-10-26 15:55:51.906250
908,6.14,2022-10-26 15:55:51.921875
909,7.8,2022-10-26 15:55:51.937500
910,9.17,2022-10-26 15:55:51.953125
911,10.32,2022-10-26 15:55:51.968750
912,11.19,2022-10-26 15:55:51.984375
913,11.69,2022-10-26 15:55:52.000000
914,11.73,2022-10-26 15:55:52.015625
915,11.27,2022-10-26 15:55:52.031250
916,10.24,2022-10-26 15:55:52.046875
917,8.57,2022-10-26 15:55:52.062500
918,6.14,2022-10-26 15:55:52.078125
919,2.84,2022-10-26 15:55:52.093750
920,-1.2,2022-10-26 15:55:52.109375
921,-5.58,2022-10-26 15:55:52.125000
922,-9.53,2022-10-26 15:55:52.140625
923,-12.15,2022-10-26 15:55:52.156250
924,-12.78,2022-10-26 15:55:52.171875
925,-11.27,2022-10-26 15:55:52.187500
926,-8.14,2022-10-26 15:55:52.203125
927,-4.39,2022-10-26 15:55:52.218750
928,-1.15,2022-10-26 15:55:52.234375
929,0.77,2022-10-26 15:55:52.250000
930,1.1,2022-10-26 15:55:52.265625
931,0.11,2022-10-26 15:55:52.281250
932,-1.67,2022-10-26 15:55:52.296875
933,-3.65,2022-10-26 15:55:52.312500
934,-5.4,2022-10-26 15:55:52.328125
935,-6.72,2022-10-26 15:55:52.343750
936,-7.56,2022-10-26 15:55:52.359375
937,-7.97,2022-10-26 15:55:52.375000
938,-8.05,2022-10-26 15:55:52.390625
939,-7.91,2022-10-26 15:55:52.406250
940,-7.72,2022-10-26 15:55:52.421875
941,-7.66,2022-10-26 15:55:52.437500
942,-7.95,2022-10-26 15:55:52.453125
943,-8.74,2022-10-26 15:55:52.468750
944,-10.05,2022-10-26 15:55:52.484375
945,-11.74,2022-10-26 15:55:52.500000
946,-13.54,2022-10-26 15:55:52.515625
947,-15.16,2022-10-26 15:55:52.531250
948,-16.43,2022-10-26 15:55:52.546875
949,-17.37,2022-10-26 15:55:52.562500
950,-18.16,2022-10-26 15:55:52.578125
951,-19.02,2022-10-26 15:55:52.593750
952,-20.09,2022-10-26 15:55:52.609375
953,-21.34,2022-10-26 15:55:52.625000
954,-22.54,2022-10-26 15:55:52.640625
955,-23.34,2022-10-26 15:55:52.656250
956,-23.41,2022-10-26 15:55:52.671875
957,-22.61,2022-10-26 15:55:52.687500
958,-20.97,2022-10-26 15:55:52.703125
959,-18.75,2022-10-26 15:55:52.718750
960,-16.31,2022-10-26 15:55:52.734375
961,-14.02,2022-10-26 15:55:52.750000
962,-12.1,2022-10-26 15:55:52.765625
963,-10.58,2022-10-26 15:55:52.781250
964,-9.26,2022-10-26 15:55:52.796875
965,-7.81,2022-10-26 15:55:52.812500
966,-5.94,2022-10-26 15:55:52.828125
967,-3.51,2022-10-26 15:55:52.843750
968,-0.63,2022-10-26 15:55:52.859375
969,2.34,2022-10-26 15:55:52.875000
970,4.99,2022-10-26 15:55:52.890625
971,6.98,2022-10-26 15:55:52.906250
972,8.19,2022-10-26 15:55:52.921875
973,8.67,2022-10-26 15:55:52.937500
974,8.57,2022-10-26 15:55:52.953125
975,7.96,2022-10-26 15:55:52.968750
976,6.81,2022-10-26 15:55:52.984375
977,4.98,2022-10-26 15:55:53.000000
978,2.4,2022-10-26 15:55:53.015625
979,-0.81,2022-10-26 15:55:53.031250
980,-4.36,2022-10-26 15:55:53.046875
981,-7.82,2022-10-26 15:55:53.062500
982,-10.8,2022-10-26 15:55:53.078125
983,-13.0,2022-10-26 15:55:53.093750
984,-14.32,2022-10-26 15:55:53.109375
985,-14.77,2022-10-26 15:55:53.125000
986,-14.53,2022-10-26 15:55:53.140625
987,-13.92,2022-10-26 15:55:53.156250
988,-13.44,2022-10-26 15:55:53.171875
989,-13.62,2022-10-26 15:55:53.187500
990,-14.89,2022-10-26 15:55:53.203125
991,-17.31,2022-10-26 15:55:53.218750
992,-20.43,2022-10-26 15:55:53.234375
993,-23.33,2022-10-26 15:55:53.250000
994,-24.84,2022-10-26 15:55:53.265625
995,-23.87,2022-10-26 15:55:53.281250
996,-19.83,2022-10-26 15:55:53.296875
997,-12.85,2022-10-26 15:55:53.312500
998,-3.83,2022-10-26 15:55:53.328125
999,5.75,2022-10-26 15:55:53.343750
1000,14.29,2022-10-26 15:55:53.359375
1001,20.54,2022-10-26 15:55:53.375000
1002,23.97,2022-10-26 15:55:53.390625
1003,24.9,2022-10-26 15:55:53.406250
1004,24.24,2022-10-26 15:55:53.421875
1005,23.11,2022-10-26 15:55:53.437500
1006,22.27,2022-10-26 15:55:53.453125
1007,21.96,2022-10-26 15:55:53.468750
1008,21.84,2022-10-26 15:55:53.484375
1009,21.29,2022-10-26 15:55:53.500000
1010,19.77,2022-10-26 15:55:53.515625
1011,17.01,2022-10-26 15:55:53.531250
1012,13.08,2022-10-26 15:55:53.546875
1013,8.26,2022-10-26 15:55:53.562500
1014,2.94,2022-10-26 15:55:53.578125
1015,-2.49,2022-10-26 15:55:53.593750
1016,-7.69,2022-10-26 15:55:53.609375
1017,-12.31,2022-10-26 15:55:53.625000
1018,-16.04,2022-10-26 15:55:53.640625
1019,-18.65,2022-10-26 15:55:53.656250
1020,-20.09,2022-10-26 15:55:53.671875
1021,-20.56,2022-10-26 15:55:53.687500
1022,-20.54,2022-10-26 15:55:53.703125
1023,-20.68,2022-10-26 15:55:53.718750
1024,-21.52,2022-10-26 15:55:53.734375
1025,-23.28,2022-10-26 15:55:53.750000
1026,-25.7,2022-10-26 15:55:53.765625
1027,-28.04,2022-10-26 15:55:53.781250
1028,-29.35,2022-10-26 15:55:53.796875
1029,-28.83,2022-10-26 15:55:53.812500
1030,-26.12,2022-10-26 15:55:53.828125
1031,-21.48,2022-10-26 15:55:53.843750
1032,-15.73,2022-10-26 15:55:53.859375
1033,-9.93,2022-10-26 15:55:53.875000
1034,-5.11,2022-10-26 15:55:53.890625
1035,-1.92,2022-10-26 15:55:53.906250
1036,-0.49,2022-10-26 15:55:53.921875
1037,-0.47,2022-10-26 15:55:53.937500
1038,-1.17,2022-10-26 15:55:53.953125
1039,-1.83,2022-10-26 15:55:53.968750
1040,-1.82,2022-10-26 15:55:53.984375
1041,-0.82,2022-10-26 15:55:54.000000
1042,1.19,2022-10-26 15:55:54.015625
1043,3.97,2022-10-26 15:55:54.031250
1044,7.13,2022-10-26 15:55:54.046875
1045,10.27,2022-10-26 15:55:54.062500
1046,13.11,2022-10-26 15:55:54.078125
1047,15.56,2022-10-26 15:55:54.093750
1048,17.75,2022-10-26 15:55:54.109375
1049,20.05,2022-10-26 15:55:54.125000
1050,22.81,2022-10-26 15:55:54.140625
1051,26.23,2022-10-26 15:55:54.156250
1052,30.11,2022-10-26 15:55:54.171875
1053,33.88,2022-10-26 15:55:54.187500
1054,36.8,2022-10-26 15:55:54.203125
1055,38.26,2022-10-26 15:55:54.218750
1056,38.05,2022-10-26 15:55:54.234375
1057,36.44,2022-10-26 15:55:54.250000
1058,33.97,2022-10-26 15:55:54.265625
1059,31.24,2022-10-26 15:55:54.281250
1060,28.6,2022-10-26 15:55:54.296875
1061,26.14,2022-10-26 15:55:54.312500
1062,23.67,2022-10-26 15:55:54.328125
1063,20.94,2022-10-26 15:55:54.343750
1064,17.73,2022-10-26 15:55:54.359375
1065,13.93,2022-10-26 15:55:54.375000
1066,9.57,2022-10-26 15:55:54.390625
1067,4.85,2022-10-26 15:55:54.406250
1068,0.1,2022-10-26 15:55:54.421875
1069,-4.18,2022-10-26 15:55:54.437500
1070,-7.42,2022-10-26 15:55:54.453125
1071,-9.08,2022-10-26 15:55:54.468750
1072,-8.79,2022-10-26 15:55:54.484375
1073,-6.35,2022-10-26 15:55:54.500000
1074,-1.94,2022-10-26 15:55:54.515625
1075,3.86,2022-10-26 15:55:54.531250
1076,9.97,2022-10-26 15:55:54.546875
1077,14.85,2022-10-26 15:55:54.562500
1078,16.78,2022-10-26 15:55:54.578125
1079,14.39,2022-10-26 15:55:54.593750
1080,7.26,2022-10-26 15:55:54.609375
1081,-3.65,2022-10-26 15:55:54.625000
1082,-16.13,2022-10-26 15:55:54.640625
1083,-27.48,2022-10-26 15:55:54.656250
1084,-35.43,2022-10-26 15:55:54.671875
1085,-39.04,2022-10-26 15:55:54.687500
1086,-38.91,2022-10-26 15:55:54.703125
1087,-36.74,2022-10-26 15:55:54.718750
1088,-34.46,2022-10-26 15:55:54.734375
1089,-33.41,2022-10-26 15:55:54.750000
1090,-33.97,2022-10-26 15:55:54.765625
1091,-35.7,2022-10-26 15:55:54.781250
1092,-37.81,2022-10-26 15:55:54.796875
1093,-39.59,2022-10-26 15:55:54.812500
1094,-40.64,2022-10-26 15:55:54.828125
1095,-40.81,2022-10-26 15:55:54.843750
1096,-39.98,2022-10-26 15:55:54.859375
1097,-38.04,2022-10-26 15:55:54.875000
1098,-34.93,2022-10-26 15:55:54.890625
1099,-30.75,2022-10-26 15:55:54.906250
1100,-25.93,2022-10-26 15:55:54.921875
1101,-21.06,2022-10-26 15:55:54.937500
1102,-16.74,2022-10-26 15:55:54.953125
1103,-13.27,2022-10-26 15:55:54.968750
1104,-10.64,2022-10-26 15:55:54.984375
1105,-8.48,2022-10-26 15:55:55.000000
1106,-6.31,2022-10-26 15:55:55.015625
1107,-3.85,2022-10-26 15:55:55.031250
1108,-1.11,2022-10-26 15:55:55.046875
1109,1.54,2022-10-26 15:55:55.062500
1110,3.51,2022-10-26 15:55:55.078125
1111,4.21,2022-10-26 15:55:55.093750
1112,3.23,2022-10-26 15:55:55.109375
1113,0.62,2022-10-26 15:55:55.125000
1114,-3.17,2022-10-26 15:55:55.140625
1115,-7.23,2022-10-26 15:55:55.156250
1116,-10.62,2022-10-26 15:55:55.171875
1117,-12.57,2022-10-26 15:55:55.187500
1118,-12.86,2022-10-26 15:55:55.203125
1119,-11.8,2022-10-26 15:55:55.218750
1120,-10.07,2022-10-26 15:55:55.234375
1121,-8.34,2022-10-26 15:55:55.250000
1122,-6.95,2022-10-26 15:55:55.265625
1123,-5.83,2022-10-26 15:55:55.281250
1124,-4.64,2022-10-26 15:55:55.296875
1125,-3.02,2022-10-26 15:55:55.312500
1126,-0.9,2022-10-26 15:55:55.328125
1127,1.52,2022-10-26 15:55:55.343750
1128,3.85,2022-10-26 15:55:55.359375
1129,5.79,2022-10-26 15:55:55.375000
1130,7.32,2022-10-26 15:55:55.390625
1131,8.7,2022-10-26 15:55:55.406250
1132,10.3,2022-10-26 15:55:55.421875
1133,12.35,2022-10-26 15:55:55.437500
1134,14.64,2022-10-26 15:55:55.453125
1135,16.54,2022-10-26 15:55:55.468750
1136,17.07,2022-10-26 15:55:55.484375
1137,15.39,2022-10-26 15:55:55.500000
1138,11.24,2022-10-26 15:55:55.515625
1139,5.17,2022-10-26 15:55:55.531250
1140,-1.64,2022-10-26 15:55:55.546875
1141,-7.8,2022-10-26 15:55:55.562500
1142,-12.32,2022-10-26 15:55:55.578125
1143,-14.88,2022-10-26 15:55:55.593750
1144,-15.74,2022-10-26 15:55:55.609375
1145,-15.38,2022-10-26 15:55:55.625000
1146,-14.02,2022-10-26 15:55:55.640625
1147,-11.56,2022-10-26 15:55:55.656250
1148,-7.78,2022-10-26 15:55:55.671875
1149,-2.6,2022-10-26 15:55:55.687500
1150,3.55,2022-10-26 15:55:55.703125
1151,9.81,2022-10-26 15:55:55.718750
1152,15.21,2022-10-26 15:55:55.734375
1153,18.96,2022-10-26 15:55:55.750000
1154,20.77,2022-10-26 15:55:55.765625
1155,20.8,2022-10-26 15:55:55.781250
1156,19.59,2022-10-26 15:55:55.796875
1157,17.76,2022-10-26 15:55:55.812500
1158,15.88,2022-10-26 15:55:55.828125
1159,14.32,2022-10-26 15:55:55.843750
1160,13.19,2022-10-26 15:55:55.859375
1161,12.42,2022-10-26 15:55:55.875000
1162,11.85,2022-10-26 15:55:55.890625
1163,11.34,2022-10-26 15:55:55.906250
1164,10.92,2022-10-26 15:55:55.921875
1165,10.74,2022-10-26 15:55:55.937500
1166,10.93,2022-10-26 15:55:55.953125
1167,11.53,2022-10-26 15:55:55.968750
1168,12.32,2022-10-26 15:55:55.984375
1169,12.92,2022-10-26 15:55:56.000000
1170,12.93,2022-10-26 15:55:56.015625
1171,12.07,2022-10-26 15:55:56.031250
1172,10.24,2022-10-26 15:55:56.046875
1173,7.51,2022-10-26 15:55:56.062500
1174,4.0,2022-10-26 15:55:56.078125
1175,-0.21,2022-10-26 15:55:56.093750
1176,-4.98,2022-10-26 15:55:56.109375
1177,-10.15,2022-10-26 15:55:56.125000
1178,-15.49,2022-10-26 15:55:56.140625
1179,-20.74,2022-10-26 15:55:56.156250
1180,-25.7,2022-10-26 15:55:56.171875
1181,-30.23,2022-10-26 15:55:56.187500
1182,-34.22,2022-10-26 15:55:56.203125
1183,-37.45,2022-10-26 15:55:56.218750
1184,-39.62,2022-10-26 15:55:56.234375
1185,-40.31,2022-10-26 15:55:56.250000
1186,-39.25,2022-10-26 15:55:56.265625
1187,-36.47,2022-10-26 15:55:56.281250
1188,-32.3,2022-10-26 15:55:56.296875
1189,-27.33,2022-10-26 15:55:56.312500
1190,-22.18,2022-10-26 15:55:56.328125
1191,-17.25,2022-10-26 15:55:56.343750
1192,-12.69,2022-10-26 15:55:56.359375
1193,-8.46,2022-10-26 15:55:56.375000
1194,-4.44,2022-10-26 15:55:56.390625
1195,-0.53,2022-10-26 15:55:56.406250
1196,3.24,2022-10-26 15:55:56.421875
1197,6.81,2022-10-26 15:55:56.437500
1198,10.07,2022-10-26 15:55:56.453125
1199,12.9,2022-10-26 15:55:56.468750
1200,15.18,2022-10-26 15:55:56.484375
1201,16.85,2022-10-26 15:55:56.500000
1202,17.86,2022-10-26 15:55:56.515625
1203,18.27,2022-10-26 15:55:56.531250
1204,18.22,2022-10-26 15:55:56.546875
1205,17.92,2022-10-26 15:55:56.562500
1206,17.55,2022-10-26 15:55:56.578125
1207,17.25,2022-10-26 15:55:56.593750
1208,17.08,2022-10-26 15:55:56.609375
1209,17.03,2022-10-26 15:55:56.625000
1210,16.98,2022-10-26 15:55:56.640625
1211,16.71,2022-10-26 15:55:56.656250
1212,15.93,2022-10-26 15:55:56.671875
1213,14.27,2022-10-26 15:55:56.687500
1214,11.42,2022-10-26 15:55:56.703125
1215,7.16,2022-10-26 15:55:56.718750
1216,1.5,2022-10-26 15:55:56.734375
1217,-5.32,2022-10-26 15:55:56.750000
1218,-12.83,2022-10-26 15:55:56.765625
1219,-20.43,2022-10-26 15:55:56.781250
1220,-27.5,2022-10-26 15:55:56.796875
1221,-33.61,2022-10-26 15:55:56.812500
1222,-38.58,2022-10-26 15:55:56.828125
1223,-42.46,2022-10-26 15:55:56.843750
1224,-45.43,2022-10-26 15:55:56.859375
1225,-47.57,2022-10-26 15:55:56.875000
1226,-48.73,2022-10-26 15:55:56.890625
1227,-48.57,2022-10-26 15:55:56.906250
1228,-46.68,2022-10-26 15:55:56.921875
1229,-42.89,2022-10-26 15:55:56.937500
1230,-37.36,2022-10-26 15:55:56.953125
1231,-30.63,2022-10-26 15:55:56.968750
1232,-23.4,2022-10-26 15:55:56.984375
1233,-16.29,2022-10-26 15:55:57.000000
1234,-9.78,2022-10-26 15:55:57.015625
1235,-4.1,2022-10-26 15:55:57.031250
1236,0.65,2022-10-26 15:55:57.046875
1237,4.45,2022-10-26 15:55:57.062500
1238,7.34,2022-10-26 15:55:57.078125
1239,9.4,2022-10-26 15:55:57.093750
1240,10.8,2022-10-26 15:55:57.109375
1241,11.77,2022-10-26 15:55:57.125000
1242,12.57,2022-10-26 15:55:57.140625
1243,13.42,2022-10-26 15:55:57.156250
1244,14.43,2022-10-26 15:55:57.171875
1245,15.59,2022-10-26 15:55:57.187500
1246,16.73,2022-10-26 15:55:57.203125
1247,17.62,2022-10-26 15:55:57.218750
1248,17.98,2022-10-26 15:55:57.234375
1249,17.68,2022-10-26 15:55:57.250000
1250,16.75,2022-10-26 15:55:57.265625
1251,15.48,2022-10-26 15:55:57.281250
1252,14.25,2022-10-26 15:55:57.296875
1253,13.45,2022-10-26 15:55:57.312500
1254,13.28,2022-10-26 15:55:57.328125
1255,13.71,2022-10-26 15:55:57.343750
1256,14.5,2022-10-26 15:55:57.359375
1257,15.31,2022-10-26 15:55:57.375000
1258,15.83,2022-10-26 15:55:57.390625
1259,15.83,2022-10-26 15:55:57.406250
1260,15.28,2022-10-26 15:55:57.421875
1261,14.24,2022-10-26 15:55:57.437500
1262,12.91,2022-10-26 15:55:57.453125
1263,11.49,2022-10-26 15:55:57.468750
1264,10.12,2022-10-26 15:55:57.484375
1265,8.83,2022-10-26 15:55:57.500000
1266,7.55,2022-10-26 15:55:57.515625
1267,6.16,2022-10-26 15:55:57.531250
1268,4.54,2022-10-26 15:55:57.546875
1269,2.71,2022-10-26 15:55:57.562500
1270,0.75,2022-10-26 15:55:57.578125
1271,-1.11,2022-10-26 15:55:57.593750
1272,-2.56,2022-10-26 15:55:57.609375
1273,-3.25,2022-10-26 15:55:57.625000
1274,-2.91,2022-10-26 15:55:57.640625
1275,-1.41,2022-10-26 15:55:57.656250
1276,1.19,2022-10-26 15:55:57.671875
1277,4.61,2022-10-26 15:55:57.687500
1278,8.46,2022-10-26 15:55:57.703125
1279,12.34,2022-10-26 15:55:57.718750
1280,15.96,2022-10-26 15:55:57.734375
1281,19.1,2022-10-26 15:55:57.750000
1282,21.64,2022-10-26 15:55:57.765625
1283,23.5,2022-10-26 15:55:57.781250
1284,24.61,2022-10-26 15:55:57.796875
1285,24.97,2022-10-26 15:55:57.812500
1286,24.73,2022-10-26 15:55:57.828125
1287,24.15,2022-10-26 15:55:57.843750
1288,23.46,2022-10-26 15:55:57.859375
1289,22.84,2022-10-26 15:55:57.875000
1290,22.3,2022-10-26 15:55:57.890625
1291,21.72,2022-10-26 15:55:57.906250
1292,21.01,2022-10-26 15:55:57.921875
1293,20.12,2022-10-26 15:55:57.937500
1294,19.16,2022-10-26 15:55:57.953125
1295,18.25,2022-10-26 15:55:57.968750
1296,17.46,2022-10-26 15:55:57.984375
1297,16.74,2022-10-26 15:55:58.000000
1298,15.92,2022-10-26 15:55:58.015625
1299,14.84,2022-10-26 15:55:58.031250
1300,13.44,2022-10-26 15:55:58.046875
1301,11.84,2022-10-26 15:55:58.062500
1302,10.23,2022-10-26 15:55:58.078125
1303,8.83,2022-10-26 15:55:58.093750
1304,7.71,2022-10-26 15:55:58.109375
1305,6.75,2022-10-26 15:55:58.125000
1306,5.64,2022-10-26 15:55:58.140625
1307,3.98,2022-10-26 15:55:58.156250
1308,1.47,2022-10-26 15:55:58.171875
1309,-1.98,2022-10-26 15:55:58.187500
1310,-6.19,2022-10-26 15:55:58.203125
1311,-10.74,2022-10-26 15:55:58.218750
1312,-15.06,2022-10-26 15:55:58.234375
1313,-18.65,2022-10-26 15:55:58.250000
1314,-21.1,2022-10-26 15:55:58.265625
1315,-22.22,2022-10-26 15:55:58.281250
1316,-22.01,2022-10-26 15:55:58.296875
1317,-20.58,2022-10-26 15:55:58.312500
1318,-18.17,2022-10-26 15:55:58.328125
1319,-15.02,2022-10-26 15:55:58.343750
1320,-11.41,2022-10-26 15:55:58.359375
1321,-7.49,2022-10-26 15:55:58.375000
1322,-3.37,2022-10-26 15:55:58.390625
1323,0.85,2022-10-26 15:55:58.406250
1324,5.03,2022-10-26 15:55:58.421875
1325,8.76,2022-10-26 15:55:58.437500
1326,11.29,2022-10-26 15:55:58.453125
1327,11.64,2022-10-26 15:55:58.468750
1328,8.9,2022-10-26 15:55:58.484375
1329,2.66,2022-10-26 15:55:58.500000
1330,-6.69,2022-10-26 15:55:58.515625
1331,-17.81,2022-10-26 15:55:58.531250
1332,-28.8,2022-10-26 15:55:58.546875
1333,-37.73,2022-10-26 15:55:58.562500
1334,-43.25,2022-10-26 15:55:58.578125
1335,-44.9,2022-10-26 15:55:58.593750
1336,-43.12,2022-10-26 15:55:58.609375
1337,-38.88,2022-10-26 15:55:58.625000
1338,-33.26,2022-10-26 15:55:58.640625
1339,-27.04,2022-10-26 15:55:58.656250
1340,-20.69,2022-10-26 15:55:58.671875
1341,-14.42,2022-10-26 15:55:58.687500
1342,-8.45,2022-10-26 15:55:58.703125
1343,-3.12,2022-10-26 15:55:58.718750
1344,1.09,2022-10-26 15:55:58.734375
1345,3.76,2022-10-26 15:55:58.750000
1346,4.73,2022-10-26 15:55:58.765625
1347,4.2,2022-10-26 15:55:58.781250
1348,2.75,2022-10-26 15:55:58.796875
1349,1.16,2022-10-26 15:55:58.812500
1350,0.14,2022-10-26 15:55:58.828125
1351,0.06,2022-10-26 15:55:58.843750
1352,0.78,2022-10-26 15:55:58.859375
1353,1.69,2022-10-26 15:55:58.875000
1354,1.98,2022-10-26 15:55:58.890625
1355,1.05,2022-10-26 15:55:58.906250
1356,-1.2,2022-10-26 15:55:58.921875
1357,-4.2,2022-10-26 15:55:58.937500
1358,-6.96,2022-10-26 15:55:58.953125
1359,-8.4,2022-10-26 15:55:58.968750
1360,-7.82,2022-10-26 15:55:58.984375
1361,-5.16,2022-10-26 15:55:59.000000
1362,-0.88,2022-10-26 15:55:59.015625
1363,4.18,2022-10-26 15:55:59.031250
1364,9.25,2022-10-26 15:55:59.046875
1365,13.84,2022-10-26 15:55:59.062500
1366,17.7,2022-10-26 15:55:59.078125
1367,20.81,2022-10-26 15:55:59.093750
1368,23.08,2022-10-26 15:55:59.109375
1369,24.38,2022-10-26 15:55:59.125000
1370,24.55,2022-10-26 15:55:59.140625
1371,23.59,2022-10-26 15:55:59.156250
1372,21.72,2022-10-26 15:55:59.171875
1373,19.36,2022-10-26 15:55:59.187500
1374,16.99,2022-10-26 15:55:59.203125
1375,14.94,2022-10-26 15:55:59.218750
1376,13.33,2022-10-26 15:55:59.234375
1377,12.05,2022-10-26 15:55:59.250000
1378,10.96,2022-10-26 15:55:59.265625
1379,10.01,2022-10-26 15:55:59.281250
1380,9.3,2022-10-26 15:55:59.296875
1381,9.0,2022-10-26 15:55:59.312500
1382,9.16,2022-10-26 15:55:59.328125
1383,9.71,2022-10-26 15:55:59.343750
1384,10.44,2022-10-26 15:55:59.359375
1385,11.24,2022-10-26 15:55:59.375000
1386,12.09,2022-10-26 15:55:59.390625
1387,13.13,2022-10-26 15:55:59.406250
1388,14.48,2022-10-26 15:55:59.421875
1389,16.03,2022-10-26 15:55:59.437500
1390,17.43,2022-10-26 15:55:59.453125
1391,18.17,2022-10-26 15:55:59.468750
1392,17.75,2022-10-26 15:55:59.484375
1393,15.87,2022-10-26 15:55:59.500000
1394,12.45,2022-10-26 15:55:59.515625
1395,7.62,2022-10-26 15:55:59.531250
1396,1.7,2022-10-26 15:55:59.546875
1397,-4.81,2022-10-26 15:55:59.562500
1398,-11.16,2022-10-26 15:55:59.578125
1399,-16.44,2022-10-26 15:55:59.593750
1400,-19.75,2022-10-26 15:55:59.609375
1401,-20.53,2022-10-26 15:55:59.625000
1402,-18.84,2022-10-26 15:55:59.640625
1403,-15.41,2022-10-26 15:55:59.656250
1404,-11.37,2022-10-26 15:55:59.671875
1405,-7.85,2022-10-26 15:55:59.687500
1406,-5.58,2022-10-26 15:55:59.703125
1407,-4.63,2022-10-26 15:55:59.718750
1408,-4.55,2022-10-26 15:55:59.734375
1409,-4.68,2022-10-26 15:55:59.750000
1410,-4.46,2022-10-26 15:55:59.765625
1411,-3.7,2022-10-26 15:55:59.781250
1412,-2.55,2022-10-26 15:55:59.796875
1413,-1.39,2022-10-26 15:55:59.812500
1414,-0.59,2022-10-26 15:55:59.828125
1415,-0.4,2022-10-26 15:55:59.843750
1416,-0.81,2022-10-26 15:55:59.859375
1417,-1.66,2022-10-26 15:55:59.875000
1418,-2.69,2022-10-26 15:55:59.890625
1419,-3.62,2022-10-26 15:55:59.906250
1420,-4.24,2022-10-26 15:55:59.921875
1421,-4.5,2022-10-26 15:55:59.937500
1422,-4.48,2022-10-26 15:55:59.953125
1423,-4.37,2022-10-26 15:55:59.968750
1424,-4.37,2022-10-26 15:55:59.984375
1425,-4.59,2022-10-26 15:56:00.000000
1426,-4.99,2022-10-26 15:56:00.015625
1427,-5.41,2022-10-26 15:56:00.031250
1428,-5.64,2022-10-26 15:56:00.046875
1429,-5.59,2022-10-26 15:56:00.062500
1430,-5.31,2022-10-26 15:56:00.078125
1431,-5.03,2022-10-26 15:56:00.093750
1432,-4.99,2022-10-26 15:56:00.109375
1433,-5.34,2022-10-26 15:56:00.125000
1434,-6.09,2022-10-26 15:56:00.140625
1435,-7.11,2022-10-26 15:56:00.156250
1436,-8.26,2022-10-26 15:56:00.171875
1437,-9.47,2022-10-26 15:56:00.187500
1438,-10.7,2022-10-26 15:56:00.203125
1439,-11.92,2022-10-26 15:56:00.218750
1440,-12.98,2022-10-26 15:56:00.234375
1441,-13.61,2022-10-26 15:56:00.250000
1442,-13.48,2022-10-26 15:56:00.265625
1443,-12.35,2022-10-26 15:56:00.281250
1444,-10.1,2022-10-26 15:56:00.296875
1445,-6.84,2022-10-26 15:56:00.312500
1446,-2.85,2022-10-26 15:56:00.328125
1447,1.51,2022-10-26 15:56:00.343750
1448,5.84,2022-10-26 15:56:00.359375
1449,9.76,2022-10-26 15:56:00.375000
1450,12.99,2022-10-26 15:56:00.390625
1451,15.35,2022-10-26 15:56:00.406250
1452,16.8,2022-10-26 15:56:00.421875
1453,17.49,2022-10-26 15:56:00.437500
1454,17.63,2022-10-26 15:56:00.453125
1455,17.48,2022-10-26 15:56:00.468750
1456,17.23,2022-10-26 15:56:00.484375
1457,16.98,2022-10-26 15:56:00.500000
1458,16.77,2022-10-26 15:56:00.515625
1459,16.61,2022-10-26 15:56:00.531250
1460,16.57,2022-10-26 15:56:00.546875
1461,16.73,2022-10-26 15:56:00.562500
1462,17.23,2022-10-26 15:56:00.578125
1463,18.13,2022-10-26 15:56:00.593750
1464,19.48,2022-10-26 15:56:00.609375
1465,21.25,2022-10-26 15:56:00.625000
1466,23.41,2022-10-26 15:56:00.640625
1467,25.9,2022-10-26 15:56:00.656250
1468,28.65,2022-10-26 15:56:00.671875
1469,31.51,2022-10-26 15:56:00.687500
1470,34.3,2022-10-26 15:56:00.703125
1471,36.75,2022-10-26 15:56:00.718750
1472,38.67,2022-10-26 15:56:00.734375
1473,39.92,2022-10-26 15:56:00.750000
1474,40.51,2022-10-26 15:56:00.765625
1475,40.48,2022-10-26 15:56:00.781250
1476,39.91,2022-10-26 15:56:00.796875
1477,38.76,2022-10-26 15:56:00.812500
1478,36.93,2022-10-26 15:56:00.828125
1479,34.25,2022-10-26 15:56:00.843750
1480,30.68,2022-10-26 15:56:00.859375
1481,26.34,2022-10-26 15:56:00.875000
1482,21.53,2022-10-26 15:56:00.890625
1483,16.72,2022-10-26 15:56:00.906250
1484,12.37,2022-10-26 15:56:00.921875
1485,8.86,2022-10-26 15:56:00.937500
1486,6.39,2022-10-26 15:56:00.953125
1487,4.91,2022-10-26 15:56:00.968750
1488,4.23,2022-10-26 15:56:00.984375
1489,3.99,2022-10-26 15:56:01.000000
1490,3.77,2022-10-26 15:56:01.015625
1491,3.17,2022-10-26 15:56:01.031250
1492,1.9,2022-10-26 15:56:01.046875
1493,-0.15,2022-10-26 15:56:01.062500
1494,-2.85,2022-10-26 15:56:01.078125
1495,-5.89,2022-10-26 15:56:01.093750
1496,-8.91,2022-10-26 15:56:01.109375
1497,-11.57,2022-10-26 15:56:01.125000
1498,-13.72,2022-10-26 15:56:01.140625
1499,-15.32,2022-10-26 15:56:01.156250
1500,-16.48,2022-10-26 15:56:01.171875
1501,-17.33,2022-10-26 15:56:01.187500
1502,-17.97,2022-10-26 15:56:01.203125
1503,-18.5,2022-10-26 15:56:01.218750
1504,-18.97,2022-10-26 15:56:01.234375
1505,-19.45,2022-10-26 15:56:01.250000
1506,-19.95,2022-10-26 15:56:01.265625
1507,-20.45,2022-10-26 15:56:01.281250
1508,-20.9,2022-10-26 15:56:01.296875
1509,-21.17,2022-10-26 15:56:01.312500
1510,-21.15,2022-10-26 15:56:01.328125
1511,-20.72,2022-10-26 15:56:01.343750
1512,-19.86,2022-10-26 15:56:01.359375
1513,-18.6,2022-10-26 15:56:01.375000
1514,-17.06,2022-10-26 15:56:01.390625
1515,-15.4,2022-10-26 15:56:01.406250
1516,-13.83,2022-10-26 15:56:01.421875
1517,-12.49,2022-10-26 15:56:01.437500
1518,-11.48,2022-10-26 15:56:01.453125
1519,-10.81,2022-10-26 15:56:01.468750
1520,-10.43,2022-10-26 15:56:01.484375
1521,-10.24,2022-10-26 15:56:01.500000
1522,-10.12,2022-10-26 15:56:01.515625
1523,-10.01,2022-10-26 15:56:01.531250
1524,-9.8,2022-10-26 15:56:01.546875
1525,-9.34,2022-10-26 15:56:01.562500
1526,-8.35,2022-10-26 15:56:01.578125
1527,-6.49,2022-10-26 15:56:01.593750
1528,-3.43,2022-10-26 15:56:01.609375
1529,1.09,2022-10-26 15:56:01.625000
1530,7.11,2022-10-26 15:56:01.640625
1531,14.39,2022-10-26 15:56:01.656250
1532,22.42,2022-10-26 15:56:01.671875
1533,30.47,2022-10-26 15:56:01.687500
1534,37.73,2022-10-26 15:56:01.703125
1535,43.56,2022-10-26 15:56:01.718750
1536,47.58,2022-10-26 15:56:01.734375
1537,49.79,2022-10-26 15:56:01.750000
1538,50.51,2022-10-26 15:56:01.765625
1539,50.2,2022-10-26 15:56:01.781250
1540,49.23,2022-10-26 15:56:01.796875
1541,47.79,2022-10-26 15:56:01.812500
1542,45.86,2022-10-26 15:56:01.828125
1543,43.31,2022-10-26 15:56:01.843750
1544,40.11,2022-10-26 15:56:01.859375
1545,36.37,2022-10-26 15:56:01.875000
1546,32.33,2022-10-26 15:56:01.890625
1547,28.33,2022-10-26 15:56:01.906250
1548,24.61,2022-10-26 15:56:01.921875
1549,21.28,2022-10-26 15:56:01.937500
1550,18.29,2022-10-26 15:56:01.953125
1551,15.5,2022-10-26 15:56:01.968750
1552,12.71,2022-10-26 15:56:01.984375
1553,9.71,2022-10-26 15:56:02.000000
1554,6.33,2022-10-26 15:56:02.015625
1555,2.43,2022-10-26 15:56:02.031250
1556,-2.06,2022-10-26 15:56:02.046875
1557,-7.15,2022-10-26 15:56:02.062500
1558,-12.76,2022-10-26 15:56:02.078125
1559,-18.73,2022-10-26 15:56:02.093750
1560,-24.78,2022-10-26 15:56:02.109375
1561,-30.61,2022-10-26 15:56:02.125000
1562,-35.84,2022-10-26 15:56:02.140625
1563,-40.19,2022-10-26 15:56:02.156250
1564,-43.62,2022-10-26 15:56:02.171875
1565,-46.3,2022-10-26 15:56:02.187500
1566,-48.65,2022-10-26 15:56:02.203125
1567,-51.12,2022-10-26 15:56:02.218750
1568,-53.98,2022-10-26 15:56:02.234375
1569,-57.13,2022-10-26 15:56:02.250000
1570,-60.11,2022-10-26 15:56:02.265625
1571,-62.22,2022-10-26 15:56:02.281250
1572,-62.81,2022-10-26 15:56:02.296875
1573,-61.47,2022-10-26 15:56:02.312500
1574,-58.19,2022-10-26 15:56:02.328125
1575,-53.3,2022-10-26 15:56:02.343750
1576,-47.3,2022-10-26 15:56:02.359375
1577,-40.77,2022-10-26 15:56:02.375000
1578,-34.19,2022-10-26 15:56:02.390625
1579,-27.97,2022-10-26 15:56:02.406250
1580,-22.38,2022-10-26 15:56:02.421875
1581,-17.62,2022-10-26 15:56:02.437500
1582,-13.74,2022-10-26 15:56:02.453125
1583,-10.7,2022-10-26 15:56:02.468750
1584,-8.38,2022-10-26 15:56:02.484375
1585,-6.6,2022-10-26 15:56:02.500000
1586,-5.18,2022-10-26 15:56:02.515625
1587,-3.99,2022-10-26 15:56:02.531250
1588,-2.95,2022-10-26 15:56:02.546875
1589,-1.97,2022-10-26 15:56:02.562500
1590,-0.99,2022-10-26 15:56:02.578125
1591,0.01,2022-10-26 15:56:02.593750
1592,1.09,2022-10-26 15:56:02.609375
1593,2.24,2022-10-26 15:56:02.625000
1594,3.41,2022-10-26 15:56:02.640625
1595,4.55,2022-10-26 15:56:02.656250
1596,5.55,2022-10-26 15:56:02.671875
1597,6.33,2022-10-26 15:56:02.687500
1598,6.82,2022-10-26 15:56:02.703125
1599,6.97,2022-10-26 15:56:02.718750
1600,6.79,2022-10-26 15:56:02.734375
1601,6.33,2022-10-26 15:56:02.750000
1602,5.68,2022-10-26 15:56:02.765625
1603,4.99,2022-10-26 15:56:02.781250
1604,4.39,2022-10-26 15:56:02.796875
1605,3.99,2022-10-26 15:56:02.812500
1606,3.76,2022-10-26 15:56:02.828125
1607,3.6,2022-10-26 15:56:02.843750
1608,3.27,2022-10-26 15:56:02.859375
1609,2.52,2022-10-26 15:56:02.875000
1610,1.2,2022-10-26 15:56:02.890625
1611,-0.67,2022-10-26 15:56:02.906250
1612,-2.81,2022-10-26 15:56:02.921875
1613,-4.74,2022-10-26 15:56:02.937500
1614,-5.94,2022-10-26 15:56:02.953125
1615,-5.97,2022-10-26 15:56:02.968750
1616,-4.67,2022-10-26 15:56:02.984375
1617,-2.22,2022-10-26 15:56:03.000000
1618,0.98,2022-10-26 15:56:03.015625
1619,4.43,2022-10-26 15:56:03.031250
1620,7.71,2022-10-26 15:56:03.046875
1621,10.62,2022-10-26 15:56:03.062500
1622,13.17,2022-10-26 15:56:03.078125
1623,15.46,2022-10-26 15:56:03.093750
1624,17.55,2022-10-26 15:56:03.109375
1625,19.35,2022-10-26 15:56:03.125000
1626,20.7,2022-10-26 15:56:03.140625
1627,21.41,2022-10-26 15:56:03.156250
1628,21.45,2022-10-26 15:56:03.171875
1629,20.97,2022-10-26 15:56:03.187500
1630,20.24,2022-10-26 15:56:03.203125
1631,19.55,2022-10-26 15:56:03.218750
1632,19.08,2022-10-26 15:56:03.234375
1633,18.84,2022-10-26 15:56:03.250000
1634,18.68,2022-10-26 15:56:03.265625
1635,18.44,2022-10-26 15:56:03.281250
1636,18.05,2022-10-26 15:56:03.296875
1637,17.54,2022-10-26 15:56:03.312500
1638,16.98,2022-10-26 15:56:03.328125
1639,16.42,2022-10-26 15:56:03.343750
1640,15.77,2022-10-26 15:56:03.359375
1641,14.81,2022-10-26 15:56:03.375000
1642,13.23,2022-10-26 15:56:03.390625
1643,10.8,2022-10-26 15:56:03.406250
1644,7.4,2022-10-26 15:56:03.421875
1645,3.06,2022-10-26 15:56:03.437500
1646,-2.14,2022-10-26 15:56:03.453125
1647,-8.12,2022-10-26 15:56:03.468750
1648,-14.73,2022-10-26 15:56:03.484375
1649,-21.65,2022-10-26 15:56:03.500000
1650,-28.34,2022-10-26 15:56:03.515625
1651,-34.12,2022-10-26 15:56:03.531250
1652,-38.42,2022-10-26 15:56:03.546875
1653,-41.07,2022-10-26 15:56:03.562500
1654,-42.39,2022-10-26 15:56:03.578125
1655,-43.01,2022-10-26 15:56:03.593750
1656,-43.59,2022-10-26 15:56:03.609375
1657,-44.49,2022-10-26 15:56:03.625000
1658,-45.61,2022-10-26 15:56:03.640625
1659,-46.67,2022-10-26 15:56:03.656250
1660,-47.37,2022-10-26 15:56:03.671875
1661,-47.6,2022-10-26 15:56:03.687500
1662,-47.45,2022-10-26 15:56:03.703125
1663,-47.01,2022-10-26 15:56:03.718750
1664,-46.21,2022-10-26 15:56:03.734375
1665,-44.93,2022-10-26 15:56:03.750000
1666,-43.08,2022-10-26 15:56:03.765625
1667,-40.79,2022-10-26 15:56:03.781250
1668,-38.28,2022-10-26 15:56:03.796875
1669,-35.67,2022-10-26 15:56:03.812500
1670,-32.68,2022-10-26 15:56:03.828125
1671,-28.55,2022-10-26 15:56:03.843750
1672,-22.24,2022-10-26 15:56:03.859375
1673,-12.91,2022-10-26 15:56:03.875000
1674,-0.4,2022-10-26 15:56:03.890625
1675,14.54,2022-10-26 15:56:03.906250
1676,30.29,2022-10-26 15:56:03.921875
1677,44.8,2022-10-26 15:56:03.937500
1678,56.22,2022-10-26 15:56:03.953125
1679,63.39,2022-10-26 15:56:03.968750
1680,66.26,2022-10-26 15:56:03.984375
1681,65.85,2022-10-26 15:56:04.000000
1682,63.99,2022-10-26 15:56:04.015625
1683,62.65,2022-10-26 15:56:04.031250
1684,63.29,2022-10-26 15:56:04.046875
1685,66.42,2022-10-26 15:56:04.062500
1686,71.41,2022-10-26 15:56:04.078125
1687,76.9,2022-10-26 15:56:04.093750
1688,81.34,2022-10-26 15:56:04.109375
1689,83.64,2022-10-26 15:56:04.125000
1690,83.51,2022-10-26 15:56:04.140625
1691,81.36,2022-10-26 15:56:04.156250
1692,77.97,2022-10-26 15:56:04.171875
1693,73.99,2022-10-26 15:56:04.187500
1694,69.69,2022-10-26 15:56:04.203125
1695,65.03,2022-10-26 15:56:04.218750
1696,59.95,2022-10-26 15:56:04.234375
1697,54.65,2022-10-26 15:56:04.250000
1698,49.67,2022-10-26 15:56:04.265625
1699,45.68,2022-10-26 15:56:04.281250
1700,43.16,2022-10-26 15:56:04.296875
1701,42.13,2022-10-26 15:56:04.312500
1702,42.06,2022-10-26 15:56:04.328125
1703,42.15,2022-10-26 15:56:04.343750
1704,41.5,2022-10-26 15:56:04.359375
1705,39.38,2022-10-26 15:56:04.375000
1706,35.25,2022-10-26 15:56:04.390625
1707,28.84,2022-10-26 15:56:04.406250
1708,20.17,2022-10-26 15:56:04.421875
1709,9.68,2022-10-26 15:56:04.437500
1710,-1.76,2022-10-26 15:56:04.453125
1711,-12.98,2022-10-26 15:56:04.468750
1712,-22.84,2022-10-26 15:56:04.484375
1713,-30.54,2022-10-26 15:56:04.500000
1714,-35.92,2022-10-26 15:56:04.515625
1715,-39.39,2022-10-26 15:56:04.531250
1716,-41.62,2022-10-26 15:56:04.546875
1717,-43.22,2022-10-26 15:56:04.562500
1718,-44.43,2022-10-26 15:56:04.578125
1719,-45.16,2022-10-26 15:56:04.593750
1720,-45.13,2022-10-26 15:56:04.609375
1721,-44.2,2022-10-26 15:56:04.625000
1722,-42.55,2022-10-26 15:56:04.640625
1723,-40.64,2022-10-26 15:56:04.656250
1724,-39.08,2022-10-26 15:56:04.671875
1725,-38.43,2022-10-26 15:56:04.687500
1726,-39.02,2022-10-26 15:56:04.703125
1727,-40.81,2022-10-26 15:56:04.718750
1728,-43.43,2022-10-26 15:56:04.734375
1729,-46.26,2022-10-26 15:56:04.750000
1730,-48.55,2022-10-26 15:56:04.765625
1731,-49.68,2022-10-26 15:56:04.781250
1732,-49.3,2022-10-26 15:56:04.796875
1733,-47.43,2022-10-26 15:56:04.812500
1734,-44.43,2022-10-26 15:56:04.828125
1735,-40.83,2022-10-26 15:56:04.843750
1736,-37.2,2022-10-26 15:56:04.859375
1737,-33.95,2022-10-26 15:56:04.875000
1738,-31.34,2022-10-26 15:56:04.890625
1739,-29.44,2022-10-26 15:56:04.906250
1740,-28.14,2022-10-26 15:56:04.921875
1741,-27.21,2022-10-26 15:56:04.937500
1742,-26.27,2022-10-26 15:56:04.953125
1743,-24.87,2022-10-26 15:56:04.968750
1744,-22.58,2022-10-26 15:56:04.984375
1745,-19.18,2022-10-26 15:56:05.000000
1746,-14.8,2022-10-26 15:56:05.015625
1747,-9.89,2022-10-26 15:56:05.031250
1748,-5.1,2022-10-26 15:56:05.046875
1749,-1.02,2022-10-26 15:56:05.062500
1750,2.01,2022-10-26 15:56:05.078125
1751,3.96,2022-10-26 15:56:05.093750
1752,5.01,2022-10-26 15:56:05.109375
1753,5.42,2022-10-26 15:56:05.125000
1754,5.37,2022-10-26 15:56:05.140625
1755,4.91,2022-10-26 15:56:05.156250
1756,4.0,2022-10-26 15:56:05.171875
1757,2.57,2022-10-26 15:56:05.187500
1758,0.66,2022-10-26 15:56:05.203125
1759,-1.57,2022-10-26 15:56:05.218750
1760,-3.86,2022-10-26 15:56:05.234375
1761,-5.9,2022-10-26 15:56:05.250000
1762,-7.45,2022-10-26 15:56:05.265625
1763,-8.36,2022-10-26 15:56:05.281250
1764,-8.65,2022-10-26 15:56:05.296875
1765,-8.45,2022-10-26 15:56:05.312500
1766,-7.92,2022-10-26 15:56:05.328125
1767,-7.25,2022-10-26 15:56:05.343750
1768,-6.6,2022-10-26 15:56:05.359375
1769,-6.09,2022-10-26 15:56:05.375000
1770,-5.83,2022-10-26 15:56:05.390625
1771,-5.86,2022-10-26 15:56:05.406250
1772,-6.19,2022-10-26 15:56:05.421875
1773,-6.76,2022-10-26 15:56:05.437500
1774,-7.46,2022-10-26 15:56:05.453125
1775,-8.17,2022-10-26 15:56:05.468750
1776,-8.79,2022-10-26 15:56:05.484375
1777,-9.32,2022-10-26 15:56:05.500000
1778,-9.82,2022-10-26 15:56:05.515625
1779,-10.38,2022-10-26 15:56:05.531250
1780,-11.1,2022-10-26 15:56:05.546875
1781,-11.96,2022-10-26 15:56:05.562500
1782,-12.83,2022-10-26 15:56:05.578125
1783,-13.53,2022-10-26 15:56:05.593750
1784,-13.83,2022-10-26 15:56:05.609375
1785,-13.54,2022-10-26 15:56:05.625000
1786,-12.57,2022-10-26 15:56:05.640625
1787,-10.92,2022-10-26 15:56:05.656250
1788,-8.72,2022-10-26 15:56:05.671875
1789,-6.14,2022-10-26 15:56:05.687500
1790,-3.37,2022-10-26 15:56:05.703125
1791,-0.66,2022-10-26 15:56:05.718750
1792,1.76,2022-10-26 15:56:05.734375
1793,3.62,2022-10-26 15:56:05.750000
1794,4.68,2022-10-26 15:56:05.765625
1795,4.74,2022-10-26 15:56:05.781250
1796,3.75,2022-10-26 15:56:05.796875
1797,1.87,2022-10-26 15:56:05.812500
1798,-0.57,2022-10-26 15:56:05.828125
1799,-3.15,2022-10-26 15:56:05.843750
1800,-5.51,2022-10-26 15:56:05.859375
1801,-7.45,2022-10-26 15:56:05.875000
1802,-8.93,2022-10-26 15:56:05.890625
1803,-10.0,2022-10-26 15:56:05.906250
1804,-10.72,2022-10-26 15:56:05.921875
1805,-11.1,2022-10-26 15:56:05.937500
1806,-11.1,2022-10-26 15:56:05.953125
1807,-10.62,2022-10-26 15:56:05.968750
1808,-9.62,2022-10-26 15:56:05.984375
1809,-8.11,2022-10-26 15:56:06.000000
1810,-6.19,2022-10-26 15:56:06.015625
1811,-3.98,2022-10-26 15:56:06.031250
1812,-1.65,2022-10-26 15:56:06.046875
1813,0.63,2022-10-26 15:56:06.062500
1814,2.7,2022-10-26 15:56:06.078125
1815,4.39,2022-10-26 15:56:06.093750
1816,5.49,2022-10-26 15:56:06.109375
1817,5.78,2022-10-26 15:56:06.125000
1818,5.12,2022-10-26 15:56:06.140625
1819,3.51,2022-10-26 15:56:06.156250
1820,1.19,2022-10-26 15:56:06.171875
1821,-1.4,2022-10-26 15:56:06.187500
1822,-3.68,2022-10-26 15:56:06.203125
1823,-5.11,2022-10-26 15:56:06.218750
1824,-5.35,2022-10-26 15:56:06.234375
1825,-4.35,2022-10-26 15:56:06.250000
1826,-2.36,2022-10-26 15:56:06.265625
1827,0.21,2022-10-26 15:56:06.281250
1828,2.95,2022-10-26 15:56:06.296875
1829,5.57,2022-10-26 15:56:06.312500
1830,7.93,2022-10-26 15:56:06.328125
1831,10.0,2022-10-26 15:56:06.343750
1832,11.81,2022-10-26 15:56:06.359375
1833,13.31,2022-10-26 15:56:06.375000
1834,14.39,2022-10-26 15:56:06.390625
1835,14.88,2022-10-26 15:56:06.406250
1836,14.63,2022-10-26 15:56:06.421875
1837,13.58,2022-10-26 15:56:06.437500
1838,11.88,2022-10-26 15:56:06.453125
1839,9.81,2022-10-26 15:56:06.468750
1840,7.73,2022-10-26 15:56:06.484375
1841,5.93,2022-10-26 15:56:06.500000
1842,4.55,2022-10-26 15:56:06.515625
1843,3.53,2022-10-26 15:56:06.531250
1844,2.67,2022-10-26 15:56:06.546875
1845,1.75,2022-10-26 15:56:06.562500
1846,0.58,2022-10-26 15:56:06.578125
1847,-0.9,2022-10-26 15:56:06.593750
1848,-2.67,2022-10-26 15:56:06.609375
1849,-4.62,2022-10-26 15:56:06.625000
1850,-6.6,2022-10-26 15:56:06.640625
1851,-8.52,2022-10-26 15:56:06.656250
1852,-10.32,2022-10-26 15:56:06.671875
1853,-11.96,2022-10-26 15:56:06.687500
1854,-13.51,2022-10-26 15:56:06.703125
1855,-15.01,2022-10-26 15:56:06.718750
1856,-16.53,2022-10-26 15:56:06.734375
1857,-18.11,2022-10-26 15:56:06.750000
1858,-19.73,2022-10-26 15:56:06.765625
1859,-21.35,2022-10-26 15:56:06.781250
1860,-22.84,2022-10-26 15:56:06.796875
1861,-24.0,2022-10-26 15:56:06.812500
1862,-24.6,2022-10-26 15:56:06.828125
1863,-24.4,2022-10-26 15:56:06.843750
1864,-23.22,2022-10-26 15:56:06.859375
1865,-21.05,2022-10-26 15:56:06.875000
1866,-18.04,2022-10-26 15:56:06.890625
1867,-14.52,2022-10-26 15:56:06.906250
1868,-10.92,2022-10-26 15:56:06.921875
1869,-7.66,2022-10-26 15:56:06.937500
1870,-5.05,2022-10-26 15:56:06.953125
1871,-3.15,2022-10-26 15:56:06.968750
1872,-1.8,2022-10-26 15:56:06.984375
1873,-0.62,2022-10-26 15:56:07.000000
1874,0.79,2022-10-26 15:56:07.015625
1875,2.71,2022-10-26 15:56:07.031250
1876,5.2,2022-10-26 15:56:07.046875
1877,8.01,2022-10-26 15:56:07.062500
1878,10.73,2022-10-26 15:56:07.078125
1879,12.99,2022-10-26 15:56:07.093750
1880,14.58,2022-10-26 15:56:07.109375
1881,15.63,2022-10-26 15:56:07.125000
1882,16.51,2022-10-26 15:56:07.140625
1883,17.67,2022-10-26 15:56:07.156250
1884,19.45,2022-10-26 15:56:07.171875
1885,21.96,2022-10-26 15:56:07.187500
1886,25.07,2022-10-26 15:56:07.203125
1887,28.45,2022-10-26 15:56:07.218750
1888,31.76,2022-10-26 15:56:07.234375
1889,34.74,2022-10-26 15:56:07.250000
1890,37.27,2022-10-26 15:56:07.265625
1891,39.29,2022-10-26 15:56:07.281250
1892,40.79,2022-10-26 15:56:07.296875
1893,41.73,2022-10-26 15:56:07.312500
1894,42.05,2022-10-26 15:56:07.328125
1895,41.69,2022-10-26 15:56:07.343750
1896,40.62,2022-10-26 15:56:07.359375
1897,38.92,2022-10-26 15:56:07.375000
1898,36.76,2022-10-26 15:56:07.390625
1899,34.44,2022-10-26 15:56:07.406250
1900,32.33,2022-10-26 15:56:07.421875
1901,30.82,2022-10-26 15:56:07.437500
1902,30.21,2022-10-26 15:56:07.453125
1903,30.64,2022-10-26 15:56:07.468750
1904,32.04,2022-10-26 15:56:07.484375
1905,34.15,2022-10-26 15:56:07.500000
1906,36.6,2022-10-26 15:56:07.515625
1907,39.03,2022-10-26 15:56:07.531250
1908,41.21,2022-10-26 15:56:07.546875
1909,43.08,2022-10-26 15:56:07.562500
1910,44.7,2022-10-26 15:56:07.578125
1911,46.15,2022-10-26 15:56:07.593750
1912,47.39,2022-10-26 15:56:07.609375
1913,48.28,2022-10-26 15:56:07.625000
1914,48.57,2022-10-26 15:56:07.640625
1915,48.09,2022-10-26 15:56:07.656250
1916,46.72,2022-10-26 15:56:07.671875
1917,44.43,2022-10-26 15:56:07.687500
1918,41.08,2022-10-26 15:56:07.703125
1919,36.38,2022-10-26 15:56:07.718750
1920,29.95,2022-10-26 15:56:07.734375
1921,21.45,2022-10-26 15:56:07.750000
1922,10.93,2022-10-26 15:56:07.765625
1923,-1.15,2022-10-26 15:56:07.781250
1924,-13.94,2022-10-26 15:56:07.796875
1925,-26.55,2022-10-26 15:56:07.812500
1926,-38.27,2022-10-26 15:56:07.828125
1927,-48.74,2022-10-26 15:56:07.843750
1928,-57.76,2022-10-26 15:56:07.859375
1929,-65.21,2022-10-26 15:56:07.875000
1930,-70.83,2022-10-26 15:56:07.890625
1931,-74.33,2022-10-26 15:56:07.906250
1932,-75.53,2022-10-26 15:56:07.921875
1933,-74.54,2022-10-26 15:56:07.937500
1934,-71.83,2022-10-26 15:56:07.953125
1935,-68.05,2022-10-26 15:56:07.968750
1936,-63.89,2022-10-26 15:56:07.984375
1937,-59.89,2022-10-26 15:56:08.000000
1938,-56.37,2022-10-26 15:56:08.015625
1939,-53.41,2022-10-26 15:56:08.031250
1940,-50.97,2022-10-26 15:56:08.046875
1941,-48.89,2022-10-26 15:56:08.062500
1942,-46.97,2022-10-26 15:56:08.078125
1943,-45.03,2022-10-26 15:56:08.093750
1944,-42.92,2022-10-26 15:56:08.109375
1945,-40.5,2022-10-26 15:56:08.125000
1946,-37.62,2022-10-26 15:56:08.140625
1947,-34.11,2022-10-26 15:56:08.156250
1948,-29.88,2022-10-26 15:56:08.171875
1949,-24.96,2022-10-26 15:56:08.187500
1950,-19.64,2022-10-26 15:56:08.203125
1951,-14.36,2022-10-26 15:56:08.218750
1952,-9.7,2022-10-26 15:56:08.234375
1953,-6.05,2022-10-26 15:56:08.250000
1954,-3.6,2022-10-26 15:56:08.265625
1955,-2.25,2022-10-26 15:56:08.281250
1956,-1.72,2022-10-26 15:56:08.296875
1957,-1.7,2022-10-26 15:56:08.312500
1958,-1.91,2022-10-26 15:56:08.328125
1959,-2.16,2022-10-26 15:56:08.343750
1960,-2.3,2022-10-26 15:56:08.359375
1961,-2.18,2022-10-26 15:56:08.375000
1962,-1.68,2022-10-26 15:56:08.390625
1963,-0.8,2022-10-26 15:56:08.406250
1964,0.33,2022-10-26 15:56:08.421875
1965,1.47,2022-10-26 15:56:08.437500
1966,2.35,2022-10-26 15:56:08.453125
1967,2.84,2022-10-26 15:56:08.468750
1968,2.98,2022-10-26 15:56:08.484375
1969,3.01,2022-10-26 15:56:08.500000
1970,3.16,2022-10-26 15:56:08.515625
1971,3.57,2022-10-26 15:56:08.531250
1972,4.15,2022-10-26 15:56:08.546875
1973,4.66,2022-10-26 15:56:08.562500
1974,4.84,2022-10-26 15:56:08.578125
1975,4.5,2022-10-26 15:56:08.593750
1976,3.59,2022-10-26 15:56:08.609375
1977,2.14,2022-10-26 15:56:08.625000
1978,0.21,2022-10-26 15:56:08.640625
1979,-2.1,2022-10-26 15:56:08.656250
1980,-4.63,2022-10-26 15:56:08.671875
1981,-7.06,2022-10-26 15:56:08.687500
1982,-9.0,2022-10-26 15:56:08.703125
1983,-10.06,2022-10-26 15:56:08.718750
1984,-10.09,2022-10-26 15:56:08.734375
1985,-9.16,2022-10-26 15:56:08.750000
1986,-7.67,2022-10-26 15:56:08.765625
1987,-6.0,2022-10-26 15:56:08.781250
1988,-4.41,2022-10-26 15:56:08.796875
1989,-2.96,2022-10-26 15:56:08.812500
1990,-1.52,2022-10-26 15:56:08.828125
1991,-0.03,2022-10-26 15:56:08.843750
1992,1.44,2022-10-26 15:56:08.859375
1993,2.74,2022-10-26 15:56:08.875000
1994,3.76,2022-10-26 15:56:08.890625
1995,4.66,2022-10-26 15:56:08.906250
1996,5.81,2022-10-26 15:56:08.921875
1997,7.6,2022-10-26 15:56:08.937500
1998,10.22,2022-10-26 15:56:08.953125
1999,13.42,2022-10-26 15:56:08.968750
2000,16.6,2022-10-26 15:56:08.984375
2001,19.07,2022-10-26 15:56:09.000000
2002,20.37,2022-10-26 15:56:09.015625
2003,20.45,2022-10-26 15:56:09.031250
2004,19.65,2022-10-26 15:56:09.046875
2005,18.48,2022-10-26 15:56:09.062500
2006,17.34,2022-10-26 15:56:09.078125
2007,16.39,2022-10-26 15:56:09.093750
2008,15.64,2022-10-26 15:56:09.109375
2009,14.96,2022-10-26 15:56:09.125000
2010,14.31,2022-10-26 15:56:09.140625
2011,13.74,2022-10-26 15:56:09.156250
2012,13.31,2022-10-26 15:56:09.171875
2013,13.08,2022-10-26 15:56:09.187500
2014,12.99,2022-10-26 15:56:09.203125
2015,12.95,2022-10-26 15:56:09.218750
2016,12.86,2022-10-26 15:56:09.234375
2017,12.66,2022-10-26 15:56:09.250000
2018,12.33,2022-10-26 15:56:09.265625
2019,11.89,2022-10-26 15:56:09.281250
2020,11.33,2022-10-26 15:56:09.296875
2021,10.65,2022-10-26 15:56:09.312500
2022,9.79,2022-10-26 15:56:09.328125
2023,8.67,2022-10-26 15:56:09.343750
2024,7.19,2022-10-26 15:56:09.359375
2025,5.3,2022-10-26 15:56:09.375000
2026,3.01,2022-10-26 15:56:09.390625
2027,0.42,2022-10-26 15:56:09.406250
2028,-2.25,2022-10-26 15:56:09.421875
2029,-4.74,2022-10-26 15:56:09.437500
2030,-6.76,2022-10-26 15:56:09.453125
2031,-8.12,2022-10-26 15:56:09.468750
2032,-8.69,2022-10-26 15:56:09.484375
2033,-8.5,2022-10-26 15:56:09.500000
2034,-7.63,2022-10-26 15:56:09.515625
2035,-6.22,2022-10-26 15:56:09.531250
2036,-4.43,2022-10-26 15:56:09.546875
2037,-2.34,2022-10-26 15:56:09.562500
2038,-0.09,2022-10-26 15:56:09.578125
2039,2.21,2022-10-26 15:56:09.593750
2040,4.38,2022-10-26 15:56:09.609375
2041,6.21,2022-10-26 15:56:09.625000
2042,7.48,2022-10-26 15:56:09.640625
2043,8.0,2022-10-26 15:56:09.656250
2044,7.7,2022-10-26 15:56:09.671875
2045,6.64,2022-10-26 15:56:09.687500
2046,5.07,2022-10-26 15:56:09.703125
2047,3.3,2022-10-26 15:56:09.718750
2048,1.69,2022-10-26 15:56:09.734375
2049,0.51,2022-10-26 15:56:09.750000
2050,-0.11,2022-10-26 15:56:09.765625
2051,-0.21,2022-10-26 15:56:09.781250
2052,0.07,2022-10-26 15:56:09.796875
2053,0.5,2022-10-26 15:56:09.812500
2054,0.88,2022-10-26 15:56:09.828125
2055,1.04,2022-10-26 15:56:09.843750
2056,0.95,2022-10-26 15:56:09.859375
2057,0.65,2022-10-26 15:56:09.875000
2058,0.26,2022-10-26 15:56:09.890625
2059,-0.08,2022-10-26 15:56:09.906250
2060,-0.27,2022-10-26 15:56:09.921875
2061,-0.31,2022-10-26 15:56:09.937500
2062,-0.28,2022-10-26 15:56:09.953125
2063,-0.31,2022-10-26 15:56:09.968750
2064,-0.5,2022-10-26 15:56:09.984375
2065,-0.86,2022-10-26 15:56:10.000000
2066,-1.31,2022-10-26 15:56:10.015625
2067,-1.74,2022-10-26 15:56:10.031250
2068,-2.07,2022-10-26 15:56:10.046875
2069,-2.34,2022-10-26 15:56:10.062500
2070,-2.67,2022-10-26 15:56:10.078125
2071,-3.17,2022-10-26 15:56:10.093750
2072,-3.83,2022-10-26 15:56:10.109375
2073,-4.45,2022-10-26 15:56:10.125000
2074,-4.74,2022-10-26 15:56:10.140625
2075,-4.42,2022-10-26 15:56:10.156250
2076,-3.34,2022-10-26 15:56:10.171875
2077,-1.56,2022-10-26 15:56:10.187500
2078,0.7,2022-10-26 15:56:10.203125
2079,3.09,2022-10-26 15:56:10.218750
2080,5.34,2022-10-26 15:56:10.234375
2081,7.21,2022-10-26 15:56:10.250000
2082,8.64,2022-10-26 15:56:10.265625
2083,9.66,2022-10-26 15:56:10.281250
2084,10.38,2022-10-26 15:56:10.296875
2085,10.9,2022-10-26 15:56:10.312500
2086,11.24,2022-10-26 15:56:10.328125
2087,11.36,2022-10-26 15:56:10.343750
2088,11.19,2022-10-26 15:56:10.359375
2089,10.71,2022-10-26 15:56:10.375000
2090,10.01,2022-10-26 15:56:10.390625
2091,9.27,2022-10-26 15:56:10.406250
2092,8.65,2022-10-26 15:56:10.421875
2093,8.28,2022-10-26 15:56:10.437500
2094,8.14,2022-10-26 15:56:10.453125
2095,8.15,2022-10-26 15:56:10.468750
2096,8.23,2022-10-26 15:56:10.484375
2097,8.32,2022-10-26 15:56:10.500000
2098,8.47,2022-10-26 15:56:10.515625
2099,8.67,2022-10-26 15:56:10.531250
2100,8.92,2022-10-26 15:56:10.546875
2101,9.12,2022-10-26 15:56:10.562500
2102,9.12,2022-10-26 15:56:10.578125
2103,8.79,2022-10-26 15:56:10.593750
2104,8.03,2022-10-26 15:56:10.609375
2105,6.8,2022-10-26 15:56:10.625000
2106,5.13,2022-10-26 15:56:10.640625
2107,3.14,2022-10-26 15:56:10.656250
2108,1.04,2022-10-26 15:56:10.671875
2109,-0.96,2022-10-26 15:56:10.687500
2110,-2.64,2022-10-26 15:56:10.703125
2111,-3.92,2022-10-26 15:56:10.718750
2112,-4.84,2022-10-26 15:56:10.734375
2113,-5.57,2022-10-26 15:56:10.750000
2114,-6.32,2022-10-26 15:56:10.765625
2115,-7.26,2022-10-26 15:56:10.781250
2116,-8.54,2022-10-26 15:56:10.796875
2117,-10.19,2022-10-26 15:56:10.812500
2118,-12.16,2022-10-26 15:56:10.828125
2119,-14.27,2022-10-26 15:56:10.843750
2120,-16.22,2022-10-26 15:56:10.859375
2121,-17.6,2022-10-26 15:56:10.875000
2122,-17.98,2022-10-26 15:56:10.890625
2123,-17.08,2022-10-26 15:56:10.906250
2124,-14.81,2022-10-26 15:56:10.921875
2125,-11.4,2022-10-26 15:56:10.937500
2126,-7.29,2022-10-26 15:56:10.953125
2127,-3.07,2022-10-26 15:56:10.968750
2128,0.68,2022-10-26 15:56:10.984375
2129,3.46,2022-10-26 15:56:11.000000
2130,5.01,2022-10-26 15:56:11.015625
2131,5.31,2022-10-26 15:56:11.031250
2132,4.61,2022-10-26 15:56:11.046875
2133,3.4,2022-10-26 15:56:11.062500
2134,2.17,2022-10-26 15:56:11.078125
2135,1.32,2022-10-26 15:56:11.093750
2136,1.01,2022-10-26 15:56:11.109375
2137,1.17,2022-10-26 15:56:11.125000
2138,1.6,2022-10-26 15:56:11.140625
2139,2.12,2022-10-26 15:56:11.156250
2140,2.65,2022-10-26 15:56:11.171875
2141,3.17,2022-10-26 15:56:11.187500
2142,3.62,2022-10-26 15:56:11.203125
2143,3.88,2022-10-26 15:56:11.218750
2144,3.77,2022-10-26 15:56:11.234375
2145,3.13,2022-10-26 15:56:11.250000
2146,1.93,2022-10-26 15:56:11.265625
2147,0.31,2022-10-26 15:56:11.281250
2148,-1.46,2022-10-26 15:56:11.296875
2149,-3.12,2022-10-26 15:56:11.312500
2150,-4.46,2022-10-26 15:56:11.328125
2151,-5.37,2022-10-26 15:56:11.343750
2152,-5.81,2022-10-26 15:56:11.359375
2153,-5.81,2022-10-26 15:56:11.375000
2154,-5.45,2022-10-26 15:56:11.390625
2155,-4.9,2022-10-26 15:56:11.406250
2156,-4.43,2022-10-26 15:56:11.421875
2157,-4.32,2022-10-26 15:56:11.437500
2158,-4.8,2022-10-26 15:56:11.453125
2159,-5.98,2022-10-26 15:56:11.468750
2160,-7.74,2022-10-26 15:56:11.484375
2161,-9.75,2022-10-26 15:56:11.500000
2162,-11.49,2022-10-26 15:56:11.515625
2163,-12.43,2022-10-26 15:56:11.531250
2164,-12.15,2022-10-26 15:56:11.546875
2165,-10.48,2022-10-26 15:56:11.562500
2166,-7.64,2022-10-26 15:56:11.578125
2167,-4.13,2022-10-26 15:56:11.593750
2168,-0.56,2022-10-26 15:56:11.609375
2169,2.54,2022-10-26 15:56:11.625000
2170,4.93,2022-10-26 15:56:11.640625
2171,6.68,2022-10-26 15:56:11.656250
2172,8.03,2022-10-26 15:56:11.671875
2173,9.24,2022-10-26 15:56:11.687500
2174,10.36,2022-10-26 15:56:11.703125
2175,11.28,2022-10-26 15:56:11.718750
2176,11.84,2022-10-26 15:56:11.734375
2177,11.96,2022-10-26 15:56:11.750000
2178,11.76,2022-10-26 15:56:11.765625
2179,11.49,2022-10-26 15:56:11.781250
2180,11.43,2022-10-26 15:56:11.796875
2181,11.76,2022-10-26 15:56:11.812500
2182,12.52,2022-10-26 15:56:11.828125
2183,13.68,2022-10-26 15:56:11.843750
2184,15.16,2022-10-26 15:56:11.859375
2185,16.88,2022-10-26 15:56:11.875000
2186,18.74,2022-10-26 15:56:11.890625
2187,20.65,2022-10-26 15:56:11.906250
2188,22.46,2022-10-26 15:56:11.921875
2189,24.17,2022-10-26 15:56:11.937500
2190,25.91,2022-10-26 15:56:11.953125
2191,28.02,2022-10-26 15:56:11.968750
2192,30.94,2022-10-26 15:56:11.984375
2193,34.94,2022-10-26 15:56:12.000000
2194,39.96,2022-10-26 15:56:12.015625
2195,45.49,2022-10-26 15:56:12.031250
2196,50.66,2022-10-26 15:56:12.046875
2197,54.49,2022-10-26 15:56:12.062500
2198,56.21,2022-10-26 15:56:12.078125
2199,55.51,2022-10-26 15:56:12.093750
2200,52.56,2022-10-26 15:56:12.109375
2201,47.86,2022-10-26 15:56:12.125000
2202,41.99,2022-10-26 15:56:12.140625
2203,35.37,2022-10-26 15:56:12.156250
2204,28.11,2022-10-26 15:56:12.171875
2205,20.15,2022-10-26 15:56:12.187500
2206,11.36,2022-10-26 15:56:12.203125
2207,1.75,2022-10-26 15:56:12.218750
2208,-8.46,2022-10-26 15:56:12.234375
2209,-18.86,2022-10-26 15:56:12.250000
2210,-28.89,2022-10-26 15:56:12.265625
2211,-37.96,2022-10-26 15:56:12.281250
2212,-45.41,2022-10-26 15:56:12.296875
2213,-50.69,2022-10-26 15:56:12.312500
2214,-53.39,2022-10-26 15:56:12.328125
2215,-53.41,2022-10-26 15:56:12.343750
2216,-51.06,2022-10-26 15:56:12.359375
2217,-47.01,2022-10-26 15:56:12.375000
2218,-42.18,2022-10-26 15:56:12.390625
2219,-37.42,2022-10-26 15:56:12.406250
2220,-33.37,2022-10-26 15:56:12.421875
2221,-30.33,2022-10-26 15:56:12.437500
2222,-28.3,2022-10-26 15:56:12.453125
2223,-27.09,2022-10-26 15:56:12.468750
2224,-26.39,2022-10-26 15:56:12.484375
2225,-25.9,2022-10-26 15:56:12.500000
2226,-25.32,2022-10-26 15:56:12.515625
2227,-24.4,2022-10-26 15:56:12.531250
2228,-23.03,2022-10-26 15:56:12.546875
2229,-21.25,2022-10-26 15:56:12.562500
2230,-19.23,2022-10-26 15:56:12.578125
2231,-17.2,2022-10-26 15:56:12.593750
2232,-15.36,2022-10-26 15:56:12.609375
2233,-13.77,2022-10-26 15:56:12.625000
2234,-12.44,2022-10-26 15:56:12.640625
2235,-11.29,2022-10-26 15:56:12.656250
2236,-10.34,2022-10-26 15:56:12.671875
2237,-9.61,2022-10-26 15:56:12.687500
2238,-9.15,2022-10-26 15:56:12.703125
2239,-8.92,2022-10-26 15:56:12.718750
2240,-8.86,2022-10-26 15:56:12.734375
2241,-8.84,2022-10-26 15:56:12.750000
2242,-8.81,2022-10-26 15:56:12.765625
2243,-8.84,2022-10-26 15:56:12.781250
2244,-9.08,2022-10-26 15:56:12.796875
2245,-9.59,2022-10-26 15:56:12.812500
2246,-10.31,2022-10-26 15:56:12.828125
2247,-10.97,2022-10-26 15:56:12.843750
2248,-11.17,2022-10-26 15:56:12.859375
2249,-10.61,2022-10-26 15:56:12.875000
2250,-9.2,2022-10-26 15:56:12.890625
2251,-7.11,2022-10-26 15:56:12.906250
2252,-4.69,2022-10-26 15:56:12.921875
2253,-2.29,2022-10-26 15:56:12.937500
2254,-0.17,2022-10-26 15:56:12.953125
2255,1.63,2022-10-26 15:56:12.968750
2256,3.16,2022-10-26 15:56:12.984375
2257,4.46,2022-10-26 15:56:13.000000
2258,5.45,2022-10-26 15:56:13.015625
2259,5.95,2022-10-26 15:56:13.031250
2260,5.75,2022-10-26 15:56:13.046875
2261,4.74,2022-10-26 15:56:13.062500
2262,3.03,2022-10-26 15:56:13.078125
2263,0.93,2022-10-26 15:56:13.093750
2264,-1.11,2022-10-26 15:56:13.109375
2265,-2.69,2022-10-26 15:56:13.125000
2266,-3.58,2022-10-26 15:56:13.140625
2267,-3.81,2022-10-26 15:56:13.156250
2268,-3.58,2022-10-26 15:56:13.171875
2269,-3.22,2022-10-26 15:56:13.187500
2270,-2.94,2022-10-26 15:56:13.203125
2271,-2.82,2022-10-26 15:56:13.218750
2272,-2.8,2022-10-26 15:56:13.234375
2273,-2.77,2022-10-26 15:56:13.250000
2274,-2.65,2022-10-26 15:56:13.265625
2275,-2.44,2022-10-26 15:56:13.281250
2276,-2.23,2022-10-26 15:56:13.296875
2277,-2.1,2022-10-26 15:56:13.312500
2278,-2.11,2022-10-26 15:56:13.328125
2279,-2.25,2022-10-26 15:56:13.343750
2280,-2.51,2022-10-26 15:56:13.359375
2281,-2.92,2022-10-26 15:56:13.375000
2282,-3.5,2022-10-26 15:56:13.390625
2283,-4.28,2022-10-26 15:56:13.406250
2284,-5.21,2022-10-26 15:56:13.421875
2285,-6.15,2022-10-26 15:56:13.437500
2286,-6.94,2022-10-26 15:56:13.453125
2287,-7.44,2022-10-26 15:56:13.468750
2288,-7.59,2022-10-26 15:56:13.484375
2289,-7.34,2022-10-26 15:56:13.500000
2290,-6.69,2022-10-26 15:56:13.515625
2291,-5.59,2022-10-26 15:56:13.531250
2292,-4.01,2022-10-26 15:56:13.546875
2293,-1.96,2022-10-26 15:56:13.562500
2294,0.38,2022-10-26 15:56:13.578125
2295,2.71,2022-10-26 15:56:13.593750
2296,4.7,2022-10-26 15:56:13.609375
2297,6.06,2022-10-26 15:56:13.625000
2298,6.71,2022-10-26 15:56:13.640625
2299,6.74,2022-10-26 15:56:13.656250
2300,6.36,2022-10-26 15:56:13.671875
2301,5.77,2022-10-26 15:56:13.687500
2302,5.09,2022-10-26 15:56:13.703125
2303,4.35,2022-10-26 15:56:13.718750
2304,3.5,2022-10-26 15:56:13.734375
2305,2.56,2022-10-26 15:56:13.750000
2306,1.58,2022-10-26 15:56:13.765625
2307,0.69,2022-10-26 15:56:13.781250
2308,0.06,2022-10-26 15:56:13.796875
2309,-0.19,2022-10-26 15:56:13.812500
2310,-0.03,2022-10-26 15:56:13.828125
2311,0.48,2022-10-26 15:56:13.843750
2312,1.2,2022-10-26 15:56:13.859375
2313,1.95,2022-10-26 15:56:13.875000
2314,2.55,2022-10-26 15:56:13.890625
2315,2.9,2022-10-26 15:56:13.906250
2316,2.95,2022-10-26 15:56:13.921875
2317,2.71,2022-10-26 15:56:13.937500
2318,2.24,2022-10-26 15:56:13.953125
2319,1.61,2022-10-26 15:56:13.968750
2320,0.88,2022-10-26 15:56:13.984375
2321,0.12,2022-10-26 15:56:14.000000
2322,-0.61,2022-10-26 15:56:14.015625
2323,-1.24,2022-10-26 15:56:14.031250
2324,-1.76,2022-10-26 15:56:14.046875
2325,-2.18,2022-10-26 15:56:14.062500
2326,-2.56,2022-10-26 15:56:14.078125
2327,-3.05,2022-10-26 15:56:14.093750
2328,-3.81,2022-10-26 15:56:14.109375
2329,-4.98,2022-10-26 15:56:14.125000
2330,-6.57,2022-10-26 15:56:14.140625
2331,-8.43,2022-10-26 15:56:14.156250
2332,-10.21,2022-10-26 15:56:14.171875
2333,-11.5,2022-10-26 15:56:14.187500
2334,-11.97,2022-10-26 15:56:14.203125
2335,-11.47,2022-10-26 15:56:14.218750
2336,-10.07,2022-10-26 15:56:14.234375
2337,-8.0,2022-10-26 15:56:14.250000
2338,-5.55,2022-10-26 15:56:14.265625
2339,-2.94,2022-10-26 15:56:14.281250
2340,-0.34,2022-10-26 15:56:14.296875
2341,2.13,2022-10-26 15:56:14.312500
2342,4.27,2022-10-26 15:56:14.328125
2343,5.81,2022-10-26 15:56:14.343750
2344,6.52,2022-10-26 15:56:14.359375
2345,6.32,2022-10-26 15:56:14.375000
2346,5.41,2022-10-26 15:56:14.390625
2347,4.21,2022-10-26 15:56:14.406250
2348,3.15,2022-10-26 15:56:14.421875
2349,2.53,2022-10-26 15:56:14.437500
2350,2.31,2022-10-26 15:56:14.453125
2351,2.19,2022-10-26 15:56:14.468750
2352,1.77,2022-10-26 15:56:14.484375
2353,0.78,2022-10-26 15:56:14.500000
2354,-0.74,2022-10-26 15:56:14.515625
2355,-2.43,2022-10-26 15:56:14.531250
2356,-3.83,2022-10-26 15:56:14.546875
2357,-4.56,2022-10-26 15:56:14.562500
2358,-4.57,2022-10-26 15:56:14.578125
2359,-4.05,2022-10-26 15:56:14.593750
2360,-3.34,2022-10-26 15:56:14.609375
2361,-2.76,2022-10-26 15:56:14.625000
2362,-2.41,2022-10-26 15:56:14.640625
2363,-2.25,2022-10-26 15:56:14.656250
2364,-2.15,2022-10-26 15:56:14.671875
2365,-2.02,2022-10-26 15:56:14.687500
2366,-1.92,2022-10-26 15:56:14.703125
2367,-2.01,2022-10-26 15:56:14.718750
2368,-2.49,2022-10-26 15:56:14.734375
2369,-3.56,2022-10-26 15:56:14.750000
2370,-5.3,2022-10-26 15:56:14.765625
2371,-7.66,2022-10-26 15:56:14.781250
2372,-10.45,2022-10-26 15:56:14.796875
2373,-13.3,2022-10-26 15:56:14.812500
2374,-15.8,2022-10-26 15:56:14.828125
2375,-17.54,2022-10-26 15:56:14.843750
2376,-18.27,2022-10-26 15:56:14.859375
2377,-17.99,2022-10-26 15:56:14.875000
2378,-16.92,2022-10-26 15:56:14.890625
2379,-15.41,2022-10-26 15:56:14.906250
2380,-13.65,2022-10-26 15:56:14.921875
2381,-11.65,2022-10-26 15:56:14.937500
2382,-9.13,2022-10-26 15:56:14.953125
2383,-5.72,2022-10-26 15:56:14.968750
2384,-1.14,2022-10-26 15:56:14.984375
2385,4.55,2022-10-26 15:56:15.000000
2386,10.91,2022-10-26 15:56:15.015625
2387,17.17,2022-10-26 15:56:15.031250
2388,22.43,2022-10-26 15:56:15.046875
2389,26.02,2022-10-26 15:56:15.062500
2390,27.55,2022-10-26 15:56:15.078125
2391,27.12,2022-10-26 15:56:15.093750
2392,25.17,2022-10-26 15:56:15.109375
2393,22.37,2022-10-26 15:56:15.125000
2394,19.49,2022-10-26 15:56:15.140625
2395,17.19,2022-10-26 15:56:15.156250
2396,16.01,2022-10-26 15:56:15.171875
2397,16.15,2022-10-26 15:56:15.187500
2398,17.55,2022-10-26 15:56:15.203125
2399,19.82,2022-10-26 15:56:15.218750
2400,22.46,2022-10-26 15:56:15.234375
2401,25.02,2022-10-26 15:56:15.250000
2402,27.17,2022-10-26 15:56:15.265625
2403,28.75,2022-10-26 15:56:15.281250
2404,29.64,2022-10-26 15:56:15.296875
2405,29.65,2022-10-26 15:56:15.312500
2406,28.47,2022-10-26 15:56:15.328125
2407,25.87,2022-10-26 15:56:15.343750
2408,21.85,2022-10-26 15:56:15.359375
2409,16.81,2022-10-26 15:56:15.375000
2410,11.46,2022-10-26 15:56:15.390625
2411,6.62,2022-10-26 15:56:15.406250
2412,2.88,2022-10-26 15:56:15.421875
2413,0.43,2022-10-26 15:56:15.437500
2414,-1.0,2022-10-26 15:56:15.453125
2415,-1.95,2022-10-26 15:56:15.468750
2416,-3.0,2022-10-26 15:56:15.484375
2417,-4.55,2022-10-26 15:56:15.500000
2418,-6.79,2022-10-26 15:56:15.515625
2419,-9.65,2022-10-26 15:56:15.531250
2420,-12.96,2022-10-26 15:56:15.546875
2421,-16.43,2022-10-26 15:56:15.562500
2422,-19.74,2022-10-26 15:56:15.578125
2423,-22.48,2022-10-26 15:56:15.593750
2424,-24.31,2022-10-26 15:56:15.609375
2425,-25.0,2022-10-26 15:56:15.625000
2426,-24.52,2022-10-26 15:56:15.640625
2427,-23.1,2022-10-26 15:56:15.656250
2428,-21.06,2022-10-26 15:56:15.671875
2429,-18.72,2022-10-26 15:56:15.687500
2430,-16.28,2022-10-26 15:56:15.703125
2431,-13.77,2022-10-26 15:56:15.718750
2432,-11.12,2022-10-26 15:56:15.734375
2433,-8.32,2022-10-26 15:56:15.750000
2434,-5.45,2022-10-26 15:56:15.765625
2435,-2.76,2022-10-26 15:56:15.781250
2436,-0.56,2022-10-26 15:56:15.796875
2437,0.93,2022-10-26 15:56:15.812500
2438,1.57,2022-10-26 15:56:15.828125
2439,1.42,2022-10-26 15:56:15.843750
2440,0.64,2022-10-26 15:56:15.859375
2441,-0.47,2022-10-26 15:56:15.875000
2442,-1.55,2022-10-26 15:56:15.890625
2443,-2.24,2022-10-26 15:56:15.906250
2444,-2.16,2022-10-26 15:56:15.921875
2445,-1.12,2022-10-26 15:56:15.937500
2446,0.9,2022-10-26 15:56:15.953125
2447,3.67,2022-10-26 15:56:15.968750
2448,6.8,2022-10-26 15:56:15.984375
2449,9.86,2022-10-26 15:56:16.000000
2450,12.54,2022-10-26 15:56:16.015625
2451,14.69,2022-10-26 15:56:16.031250
2452,16.32,2022-10-26 15:56:16.046875
2453,17.53,2022-10-26 15:56:16.062500
2454,18.37,2022-10-26 15:56:16.078125
2455,18.85,2022-10-26 15:56:16.093750
2456,18.91,2022-10-26 15:56:16.109375
2457,18.49,2022-10-26 15:56:16.125000
2458,17.64,2022-10-26 15:56:16.140625
2459,16.5,2022-10-26 15:56:16.156250
2460,15.26,2022-10-26 15:56:16.171875
2461,14.12,2022-10-26 15:56:16.187500
2462,13.21,2022-10-26 15:56:16.203125
2463,12.67,2022-10-26 15:56:16.218750
2464,12.61,2022-10-26 15:56:16.234375
2465,13.21,2022-10-26 15:56:16.250000
2466,14.61,2022-10-26 15:56:16.265625
2467,16.83,2022-10-26 15:56:16.281250
2468,19.71,2022-10-26 15:56:16.296875
2469,22.85,2022-10-26 15:56:16.312500
2470,25.69,2022-10-26 15:56:16.328125
2471,27.64,2022-10-26 15:56:16.343750
2472,28.26,2022-10-26 15:56:16.359375
2473,27.31,2022-10-26 15:56:16.375000
2474,24.73,2022-10-26 15:56:16.390625
2475,20.6,2022-10-26 15:56:16.406250
2476,15.08,2022-10-26 15:56:16.421875
2477,8.35,2022-10-26 15:56:16.437500
2478,0.7,2022-10-26 15:56:16.453125
2479,-7.5,2022-10-26 15:56:16.468750
2480,-15.78,2022-10-26 15:56:16.484375
2481,-23.61,2022-10-26 15:56:16.500000
2482,-30.48,2022-10-26 15:56:16.515625
2483,-35.91,2022-10-26 15:56:16.531250
2484,-39.48,2022-10-26 15:56:16.546875
2485,-40.94,2022-10-26 15:56:16.562500
2486,-40.24,2022-10-26 15:56:16.578125
2487,-37.64,2022-10-26 15:56:16.593750
2488,-33.66,2022-10-26 15:56:16.609375
2489,-29.0,2022-10-26 15:56:16.625000
2490,-24.41,2022-10-26 15:56:16.640625
2491,-20.42,2022-10-26 15:56:16.656250
2492,-17.37,2022-10-26 15:56:16.671875
2493,-15.34,2022-10-26 15:56:16.687500
2494,-14.26,2022-10-26 15:56:16.703125
2495,-14.01,2022-10-26 15:56:16.718750
2496,-14.39,2022-10-26 15:56:16.734375
2497,-15.17,2022-10-26 15:56:16.750000
2498,-16.05,2022-10-26 15:56:16.765625
2499,-16.74,2022-10-26 15:56:16.781250
2500,-17.01,2022-10-26 15:56:16.796875
2501,-16.8,2022-10-26 15:56:16.812500
2502,-16.17,2022-10-26 15:56:16.828125
2503,-15.31,2022-10-26 15:56:16.843750
2504,-14.51,2022-10-26 15:56:16.859375
2505,-14.09,2022-10-26 15:56:16.875000
2506,-14.4,2022-10-26 15:56:16.890625
2507,-15.66,2022-10-26 15:56:16.906250
2508,-17.81,2022-10-26 15:56:16.921875
2509,-20.4,2022-10-26 15:56:16.937500
2510,-22.61,2022-10-26 15:56:16.953125
2511,-23.51,2022-10-26 15:56:16.968750
2512,-22.38,2022-10-26 15:56:16.984375
2513,-19.05,2022-10-26 15:56:17.000000
2514,-13.88,2022-10-26 15:56:17.015625
2515,-7.68,2022-10-26 15:56:17.031250
2516,-1.35,2022-10-26 15:56:17.046875
2517,4.45,2022-10-26 15:56:17.062500
2518,9.42,2022-10-26 15:56:17.078125
2519,13.59,2022-10-26 15:56:17.093750
2520,17.12,2022-10-26 15:56:17.109375
2521,20.13,2022-10-26 15:56:17.125000
2522,22.58,2022-10-26 15:56:17.140625
2523,24.33,2022-10-26 15:56:17.156250
2524,25.22,2022-10-26 15:56:17.171875
2525,25.17,2022-10-26 15:56:17.187500
2526,24.3,2022-10-26 15:56:17.203125
2527,22.82,2022-10-26 15:56:17.218750
2528,21.07,2022-10-26 15:56:17.234375
2529,19.28,2022-10-26 15:56:17.250000
2530,17.6,2022-10-26 15:56:17.265625
2531,16.02,2022-10-26 15:56:17.281250
2532,14.47,2022-10-26 15:56:17.296875
2533,12.93,2022-10-26 15:56:17.312500
2534,11.47,2022-10-26 15:56:17.328125
2535,10.28,2022-10-26 15:56:17.343750
2536,9.52,2022-10-26 15:56:17.359375
2537,9.24,2022-10-26 15:56:17.375000
2538,9.27,2022-10-26 15:56:17.390625
2539,9.25,2022-10-26 15:56:17.406250
2540,8.84,2022-10-26 15:56:17.421875
2541,7.82,2022-10-26 15:56:17.437500
2542,6.22,2022-10-26 15:56:17.453125
2543,4.26,2022-10-26 15:56:17.468750
2544,2.28,2022-10-26 15:56:17.484375
2545,0.59,2022-10-26 15:56:17.500000
2546,-0.61,2022-10-26 15:56:17.515625
2547,-1.3,2022-10-26 15:56:17.531250
2548,-1.55,2022-10-26 15:56:17.546875
2549,-1.49,2022-10-26 15:56:17.562500
2550,-1.28,2022-10-26 15:56:17.578125
2551,-1.1,2022-10-26 15:56:17.593750
2552,-1.13,2022-10-26 15:56:17.609375
2553,-1.51,2022-10-26 15:56:17.625000
2554,-2.32,2022-10-26 15:56:17.640625
2555,-3.49,2022-10-26 15:56:17.656250
2556,-4.79,2022-10-26 15:56:17.671875
2557,-5.88,2022-10-26 15:56:17.687500
2558,-6.4,2022-10-26 15:56:17.703125
2559,-6.06,2022-10-26 15:56:17.718750
2560,-4.71,2022-10-26 15:56:17.734375
2561,-2.4,2022-10-26 15:56:17.750000
2562,0.64,2022-10-26 15:56:17.765625
2563,3.99,2022-10-26 15:56:17.781250
2564,7.24,2022-10-26 15:56:17.796875
2565,10.0,2022-10-26 15:56:17.812500
2566,12.06,2022-10-26 15:56:17.828125
2567,13.41,2022-10-26 15:56:17.843750
2568,14.21,2022-10-26 15:56:17.859375
2569,14.69,2022-10-26 15:56:17.875000
2570,15.09,2022-10-26 15:56:17.890625
2571,15.51,2022-10-26 15:56:17.906250
2572,15.94,2022-10-26 15:56:17.921875
2573,16.3,2022-10-26 15:56:17.937500
2574,16.51,2022-10-26 15:56:17.953125
2575,16.63,2022-10-26 15:56:17.968750
2576,16.8,2022-10-26 15:56:17.984375
2577,17.22,2022-10-26 15:56:18.000000
2578,18.05,2022-10-26 15:56:18.015625
2579,19.31,2022-10-26 15:56:18.031250
2580,20.89,2022-10-26 15:56:18.046875
2581,22.54,2022-10-26 15:56:18.062500
2582,23.96,2022-10-26 15:56:18.078125
2583,24.8,2022-10-26 15:56:18.093750
2584,24.74,2022-10-26 15:56:18.109375
2585,23.54,2022-10-26 15:56:18.125000
2586,21.17,2022-10-26 15:56:18.140625
2587,17.92,2022-10-26 15:56:18.156250
2588,14.37,2022-10-26 15:56:18.171875
2589,11.3,2022-10-26 15:56:18.187500
2590,9.38,2022-10-26 15:56:18.203125
2591,8.88,2022-10-26 15:56:18.218750
2592,9.45,2022-10-26 15:56:18.234375
2593,10.27,2022-10-26 15:56:18.250000
2594,10.28,2022-10-26 15:56:18.265625
2595,8.68,2022-10-26 15:56:18.281250
2596,5.17,2022-10-26 15:56:18.296875
2597,0.07,2022-10-26 15:56:18.312500
2598,-5.91,2022-10-26 15:56:18.328125
2599,-11.95,2022-10-26 15:56:18.343750
2600,-17.35,2022-10-26 15:56:18.359375
2601,-21.63,2022-10-26 15:56:18.375000
2602,-24.53,2022-10-26 15:56:18.390625
2603,-25.87,2022-10-26 15:56:18.406250
2604,-25.52,2022-10-26 15:56:18.421875
2605,-23.38,2022-10-26 15:56:18.437500
2606,-19.46,2022-10-26 15:56:18.453125
2607,-13.96,2022-10-26 15:56:18.468750
2608,-7.26,2022-10-26 15:56:18.484375
2609,0.06,2022-10-26 15:56:18.500000
2610,7.36,2022-10-26 15:56:18.515625
2611,14.0,2022-10-26 15:56:18.531250
2612,19.54,2022-10-26 15:56:18.546875
2613,23.76,2022-10-26 15:56:18.562500
2614,26.69,2022-10-26 15:56:18.578125
2615,28.54,2022-10-26 15:56:18.593750
2616,29.57,2022-10-26 15:56:18.609375
2617,29.93,2022-10-26 15:56:18.625000
2618,29.65,2022-10-26 15:56:18.640625
2619,28.59,2022-10-26 15:56:18.656250
2620,26.56,2022-10-26 15:56:18.671875
2621,23.45,2022-10-26 15:56:18.687500
2622,19.34,2022-10-26 15:56:18.703125
2623,14.49,2022-10-26 15:56:18.718750
2624,9.35,2022-10-26 15:56:18.734375
2625,4.45,2022-10-26 15:56:18.750000
2626,0.25,2022-10-26 15:56:18.765625
2627,-2.9,2022-10-26 15:56:18.781250
2628,-4.84,2022-10-26 15:56:18.796875
2629,-5.65,2022-10-26 15:56:18.812500
2630,-5.57,2022-10-26 15:56:18.828125
2631,-4.97,2022-10-26 15:56:18.843750
2632,-4.24,2022-10-26 15:56:18.859375
2633,-3.65,2022-10-26 15:56:18.875000
2634,-3.3,2022-10-26 15:56:18.890625
2635,-3.12,2022-10-26 15:56:18.906250
2636,-2.91,2022-10-26 15:56:18.921875
2637,-2.47,2022-10-26 15:56:18.937500
2638,-1.74,2022-10-26 15:56:18.953125
2639,-0.88,2022-10-26 15:56:18.968750
2640,-0.23,2022-10-26 15:56:18.984375
2641,-0.24,2022-10-26 15:56:19.000000
2642,-1.2,2022-10-26 15:56:19.015625
2643,-3.14,2022-10-26 15:56:19.031250
2644,-5.7,2022-10-26 15:56:19.046875
2645,-8.25,2022-10-26 15:56:19.062500
2646,-10.13,2022-10-26 15:56:19.078125
2647,-10.92,2022-10-26 15:56:19.093750
2648,-10.61,2022-10-26 15:56:19.109375
2649,-9.66,2022-10-26 15:56:19.125000
2650,-8.73,2022-10-26 15:56:19.140625
2651,-8.48,2022-10-26 15:56:19.156250
2652,-9.21,2022-10-26 15:56:19.171875
2653,-10.88,2022-10-26 15:56:19.187500
2654,-13.05,2022-10-26 15:56:19.203125
2655,-15.14,2022-10-26 15:56:19.218750
2656,-16.61,2022-10-26 15:56:19.234375
2657,-17.08,2022-10-26 15:56:19.250000
2658,-16.52,2022-10-26 15:56:19.265625
2659,-15.11,2022-10-26 15:56:19.281250
2660,-13.25,2022-10-26 15:56:19.296875
2661,-11.42,2022-10-26 15:56:19.312500
2662,-9.98,2022-10-26 15:56:19.328125
2663,-9.1,2022-10-26 15:56:19.343750
2664,-8.67,2022-10-26 15:56:19.359375
2665,-8.35,2022-10-26 15:56:19.375000
2666,-7.68,2022-10-26 15:56:19.390625
2667,-6.29,2022-10-26 15:56:19.406250
2668,-4.0,2022-10-26 15:56:19.421875
2669,-0.85,2022-10-26 15:56:19.437500
2670,2.92,2022-10-26 15:56:19.453125
2671,6.96,2022-10-26 15:56:19.468750
2672,10.9,2022-10-26 15:56:19.484375
2673,14.37,2022-10-26 15:56:19.500000
2674,17.0,2022-10-26 15:56:19.515625
2675,18.5,2022-10-26 15:56:19.531250
2676,18.68,2022-10-26 15:56:19.546875
2677,17.58,2022-10-26 15:56:19.562500
2678,15.4,2022-10-26 15:56:19.578125
2679,12.51,2022-10-26 15:56:19.593750
2680,9.29,2022-10-26 15:56:19.609375
2681,5.96,2022-10-26 15:56:19.625000
2682,2.55,2022-10-26 15:56:19.640625
2683,-1.08,2022-10-26 15:56:19.656250
2684,-5.11,2022-10-26 15:56:19.671875
2685,-9.53,2022-10-26 15:56:19.687500
2686,-14.12,2022-10-26 15:56:19.703125
2687,-18.5,2022-10-26 15:56:19.718750
2688,-22.28,2022-10-26 15:56:19.734375
2689,-25.29,2022-10-26 15:56:19.750000
2690,-27.65,2022-10-26 15:56:19.765625
2691,-29.67,2022-10-26 15:56:19.781250
2692,-31.62,2022-10-26 15:56:19.796875
2693,-33.5,2022-10-26 15:56:19.812500
2694,-34.99,2022-10-26 15:56:19.828125
2695,-35.58,2022-10-26 15:56:19.843750
2696,-34.87,2022-10-26 15:56:19.859375
2697,-32.81,2022-10-26 15:56:19.875000
2698,-29.74,2022-10-26 15:56:19.890625
2699,-26.25,2022-10-26 15:56:19.906250
2700,-22.94,2022-10-26 15:56:19.921875
2701,-20.16,2022-10-26 15:56:19.937500
2702,-17.99,2022-10-26 15:56:19.953125
2703,-16.33,2022-10-26 15:56:19.968750
2704,-15.0,2022-10-26 15:56:19.984375
2705,-13.88,2022-10-26 15:56:20.000000
2706,-12.83,2022-10-26 15:56:20.015625
2707,-11.7,2022-10-26 15:56:20.031250
2708,-10.26,2022-10-26 15:56:20.046875
2709,-8.34,2022-10-26 15:56:20.062500
2710,-5.88,2022-10-26 15:56:20.078125
2711,-3.02,2022-10-26 15:56:20.093750
2712,-0.04,2022-10-26 15:56:20.109375
2713,2.72,2022-10-26 15:56:20.125000
2714,5.07,2022-10-26 15:56:20.140625
2715,6.95,2022-10-26 15:56:20.156250
2716,8.54,2022-10-26 15:56:20.171875
2717,10.09,2022-10-26 15:56:20.187500
2718,11.87,2022-10-26 15:56:20.203125
2719,14.0,2022-10-26 15:56:20.218750
2720,16.39,2022-10-26 15:56:20.234375
2721,18.68,2022-10-26 15:56:20.250000
2722,20.31,2022-10-26 15:56:20.265625
2723,20.68,2022-10-26 15:56:20.281250
2724,19.39,2022-10-26 15:56:20.296875
2725,16.45,2022-10-26 15:56:20.312500
2726,12.33,2022-10-26 15:56:20.328125
2727,7.88,2022-10-26 15:56:20.343750
2728,4.07,2022-10-26 15:56:20.359375
2729,1.68,2022-10-26 15:56:20.375000
2730,1.12,2022-10-26 15:56:20.390625
2731,2.35,2022-10-26 15:56:20.406250
2732,5.05,2022-10-26 15:56:20.421875
2733,8.77,2022-10-26 15:56:20.437500
2734,13.09,2022-10-26 15:56:20.453125
2735,17.71,2022-10-26 15:56:20.468750
2736,22.34,2022-10-26 15:56:20.484375
2737,26.68,2022-10-26 15:56:20.500000
2738,30.35,2022-10-26 15:56:20.515625
2739,32.95,2022-10-26 15:56:20.531250
2740,34.14,2022-10-26 15:56:20.546875
2741,33.7,2022-10-26 15:56:20.562500
2742,31.6,2022-10-26 15:56:20.578125
2743,28.04,2022-10-26 15:56:20.593750
2744,23.36,2022-10-26 15:56:20.609375
2745,18.01,2022-10-26 15:56:20.625000
2746,12.46,2022-10-26 15:56:20.640625
2747,7.13,2022-10-26 15:56:20.656250
2748,2.29,2022-10-26 15:56:20.671875
2749,-1.86,2022-10-26 15:56:20.687500
2750,-5.26,2022-10-26 15:56:20.703125
2751,-7.93,2022-10-26 15:56:20.718750
2752,-9.93,2022-10-26 15:56:20.734375
2753,-11.4,2022-10-26 15:56:20.750000
2754,-12.52,2022-10-26 15:56:20.765625
2755,-13.58,2022-10-26 15:56:20.781250
2756,-14.92,2022-10-26 15:56:20.796875
2757,-16.88,2022-10-26 15:56:20.812500
2758,-19.76,2022-10-26 15:56:20.828125
2759,-23.62,2022-10-26 15:56:20.843750
2760,-28.21,2022-10-26 15:56:20.859375
2761,-32.94,2022-10-26 15:56:20.875000
2762,-37.03,2022-10-26 15:56:20.890625
2763,-39.7,2022-10-26 15:56:20.906250
2764,-40.48,2022-10-26 15:56:20.921875
2765,-39.37,2022-10-26 15:56:20.937500
2766,-36.87,2022-10-26 15:56:20.953125
2767,-33.74,2022-10-26 15:56:20.968750
2768,-30.83,2022-10-26 15:56:20.984375
2769,-28.76,2022-10-26 15:56:21.000000
2770,-27.92,2022-10-26 15:56:21.015625
2771,-28.42,2022-10-26 15:56:21.031250
2772,-30.15,2022-10-26 15:56:21.046875
2773,-32.73,2022-10-26 15:56:21.062500
2774,-35.58,2022-10-26 15:56:21.078125
2775,-37.91,2022-10-26 15:56:21.093750
2776,-38.89,2022-10-26 15:56:21.109375
2777,-37.92,2022-10-26 15:56:21.125000
2778,-34.8,2022-10-26 15:56:21.140625
2779,-29.78,2022-10-26 15:56:21.156250
2780,-23.5,2022-10-26 15:56:21.171875
2781,-16.75,2022-10-26 15:56:21.187500
2782,-10.22,2022-10-26 15:56:21.203125
2783,-4.47,2022-10-26 15:56:21.218750
2784,0.17,2022-10-26 15:56:21.234375
2785,3.62,2022-10-26 15:56:21.250000
2786,5.95,2022-10-26 15:56:21.265625
2787,7.5,2022-10-26 15:56:21.281250
2788,8.76,2022-10-26 15:56:21.296875
2789,10.25,2022-10-26 15:56:21.312500
2790,12.43,2022-10-26 15:56:21.328125
2791,15.57,2022-10-26 15:56:21.343750
2792,19.63,2022-10-26 15:56:21.359375
2793,24.41,2022-10-26 15:56:21.375000
2794,29.5,2022-10-26 15:56:21.390625
2795,34.39,2022-10-26 15:56:21.406250
2796,38.53,2022-10-26 15:56:21.421875
2797,41.48,2022-10-26 15:56:21.437500
2798,42.94,2022-10-26 15:56:21.453125
2799,42.9,2022-10-26 15:56:21.468750
2800,41.57,2022-10-26 15:56:21.484375
2801,39.25,2022-10-26 15:56:21.500000
2802,36.3,2022-10-26 15:56:21.515625
2803,32.94,2022-10-26 15:56:21.531250
2804,29.31,2022-10-26 15:56:21.546875
2805,25.55,2022-10-26 15:56:21.562500
2806,21.84,2022-10-26 15:56:21.578125
2807,18.47,2022-10-26 15:56:21.593750
2808,15.73,2022-10-26 15:56:21.609375
2809,13.82,2022-10-26 15:56:21.625000
2810,12.74,2022-10-26 15:56:21.640625
2811,12.37,2022-10-26 15:56:21.656250
2812,12.5,2022-10-26 15:56:21.671875
2813,12.99,2022-10-26 15:56:21.687500
2814,13.93,2022-10-26 15:56:21.703125
2815,15.62,2022-10-26 15:56:21.718750
2816,18.51,2022-10-26 15:56:21.734375
2817,22.94,2022-10-26 15:56:21.750000
2818,28.92,2022-10-26 15:56:21.765625
2819,35.97,2022-10-26 15:56:21.781250
2820,43.32,2022-10-26 15:56:21.796875
2821,50.07,2022-10-26 15:56:21.812500
2822,55.57,2022-10-26 15:56:21.828125
2823,59.59,2022-10-26 15:56:21.843750
2824,62.25,2022-10-26 15:56:21.859375
2825,63.83,2022-10-26 15:56:21.875000
2826,64.57,2022-10-26 15:56:21.890625
2827,64.54,2022-10-26 15:56:21.906250
2828,63.79,2022-10-26 15:56:21.921875
2829,62.37,2022-10-26 15:56:21.937500
2830,60.51,2022-10-26 15:56:21.953125
2831,58.46,2022-10-26 15:56:21.968750
2832,56.51,2022-10-26 15:56:21.984375
2833,54.79,2022-10-26 15:56:22.000000
2834,53.34,2022-10-26 15:56:22.015625
2835,52.16,2022-10-26 15:56:22.031250
2836,51.24,2022-10-26 15:56:22.046875
2837,50.55,2022-10-26 15:56:22.062500
2838,49.97,2022-10-26 15:56:22.078125
2839,49.18,2022-10-26 15:56:22.093750
2840,47.7,2022-10-26 15:56:22.109375
2841,44.94,2022-10-26 15:56:22.125000
2842,40.43,2022-10-26 15:56:22.140625
2843,33.99,2022-10-26 15:56:22.156250
2844,25.88,2022-10-26 15:56:22.171875
2845,16.82,2022-10-26 15:56:22.187500
2846,7.9,2022-10-26 15:56:22.203125
2847,0.25,2022-10-26 15:56:22.218750
2848,-5.15,2022-10-26 15:56:22.234375
2849,-7.82,2022-10-26 15:56:22.250000
2850,-7.93,2022-10-26 15:56:22.265625
2851,-6.29,2022-10-26 15:56:22.281250
2852,-4.24,2022-10-26 15:56:22.296875
2853,-3.32,2022-10-26 15:56:22.312500
2854,-4.96,2022-10-26 15:56:22.328125
2855,-10.09,2022-10-26 15:56:22.343750
2856,-19.05,2022-10-26 15:56:22.359375
2857,-31.48,2022-10-26 15:56:22.375000
2858,-46.52,2022-10-26 15:56:22.390625
2859,-62.95,2022-10-26 15:56:22.406250
2860,-79.28,2022-10-26 15:56:22.421875
2861,-93.81,2022-10-26 15:56:22.437500
2862,-104.8,2022-10-26 15:56:22.453125
2863,-110.82,2022-10-26 15:56:22.468750
2864,-111.15,2022-10-26 15:56:22.484375
2865,-106.2,2022-10-26 15:56:22.500000
2866,-97.45,2022-10-26 15:56:22.515625
2867,-87.07,2022-10-26 15:56:22.531250
2868,-77.23,2022-10-26 15:56:22.546875
2869,-69.31,2022-10-26 15:56:22.562500
2870,-63.65,2022-10-26 15:56:22.578125
2871,-59.62,2022-10-26 15:56:22.593750
2872,-56.26,2022-10-26 15:56:22.609375
2873,-52.75,2022-10-26 15:56:22.625000
2874,-48.76,2022-10-26 15:56:22.640625
2875,-44.4,2022-10-26 15:56:22.656250
2876,-40.01,2022-10-26 15:56:22.671875
2877,-35.88,2022-10-26 15:56:22.687500
2878,-32.12,2022-10-26 15:56:22.703125
2879,-28.72,2022-10-26 15:56:22.718750
2880,-25.65,2022-10-26 15:56:22.734375
2881,-22.97,2022-10-26 15:56:22.750000
2882,-20.83,2022-10-26 15:56:22.765625
2883,-19.42,2022-10-26 15:56:22.781250
2884,-18.85,2022-10-26 15:56:22.796875
2885,-19.04,2022-10-26 15:56:22.812500
2886,-19.68,2022-10-26 15:56:22.828125
2887,-20.33,2022-10-26 15:56:22.843750
2888,-20.58,2022-10-26 15:56:22.859375
2889,-20.23,2022-10-26 15:56:22.875000
2890,-19.4,2022-10-26 15:56:22.890625
2891,-18.5,2022-10-26 15:56:22.906250
2892,-18.03,2022-10-26 15:56:22.921875
2893,-18.23,2022-10-26 15:56:22.937500
2894,-19.04,2022-10-26 15:56:22.953125
2895,-19.94,2022-10-26 15:56:22.968750
2896,-20.28,2022-10-26 15:56:22.984375
2897,-19.53,2022-10-26 15:56:23.000000
2898,-17.54,2022-10-26 15:56:23.015625
2899,-14.64,2022-10-26 15:56:23.031250
2900,-11.51,2022-10-26 15:56:23.046875
2901,-8.84,2022-10-26 15:56:23.062500
2902,-7.15,2022-10-26 15:56:23.078125
2903,-6.62,2022-10-26 15:56:23.093750
2904,-7.17,2022-10-26 15:56:23.109375
2905,-8.63,2022-10-26 15:56:23.125000
2906,-10.82,2022-10-26 15:56:23.140625
2907,-13.58,2022-10-26 15:56:23.156250
2908,-16.73,2022-10-26 15:56:23.171875
2909,-19.97,2022-10-26 15:56:23.187500
2910,-22.92,2022-10-26 15:56:23.203125
2911,-25.14,2022-10-26 15:56:23.218750
2912,-26.27,2022-10-26 15:56:23.234375
2913,-26.11,2022-10-26 15:56:23.250000
2914,-24.68,2022-10-26 15:56:23.265625
2915,-22.21,2022-10-26 15:56:23.281250
2916,-19.03,2022-10-26 15:56:23.296875
2917,-15.52,2022-10-26 15:56:23.312500
2918,-11.98,2022-10-26 15:56:23.328125
2919,-8.57,2022-10-26 15:56:23.343750
2920,-5.29,2022-10-26 15:56:23.359375
2921,-2.07,2022-10-26 15:56:23.375000
2922,1.17,2022-10-26 15:56:23.390625
2923,4.35,2022-10-26 15:56:23.406250
2924,7.23,2022-10-26 15:56:23.421875
2925,9.49,2022-10-26 15:56:23.437500
2926,10.86,2022-10-26 15:56:23.453125
2927,11.31,2022-10-26 15:56:23.468750
2928,11.11,2022-10-26 15:56:23.484375
2929,10.74,2022-10-26 15:56:23.500000
2930,10.61,2022-10-26 15:56:23.515625
2931,10.94,2022-10-26 15:56:23.531250
2932,11.6,2022-10-26 15:56:23.546875
2933,12.19,2022-10-26 15:56:23.562500
2934,12.26,2022-10-26 15:56:23.578125
2935,11.46,2022-10-26 15:56:23.593750
2936,9.77,2022-10-26 15:56:23.609375
2937,7.46,2022-10-26 15:56:23.625000
2938,5.04,2022-10-26 15:56:23.640625
2939,3.06,2022-10-26 15:56:23.656250
2940,1.99,2022-10-26 15:56:23.671875
2941,2.1,2022-10-26 15:56:23.687500
2942,3.45,2022-10-26 15:56:23.703125
2943,5.88,2022-10-26 15:56:23.718750
2944,9.04,2022-10-26 15:56:23.734375
2945,12.49,2022-10-26 15:56:23.750000
2946,15.74,2022-10-26 15:56:23.765625
2947,18.36,2022-10-26 15:56:23.781250
2948,20.09,2022-10-26 15:56:23.796875
2949,20.9,2022-10-26 15:56:23.812500
2950,21.0,2022-10-26 15:56:23.828125
2951,20.72,2022-10-26 15:56:23.843750
2952,20.44,2022-10-26 15:56:23.859375
2953,20.41,2022-10-26 15:56:23.875000
2954,20.72,2022-10-26 15:56:23.890625
2955,21.29,2022-10-26 15:56:23.906250
2956,21.85,2022-10-26 15:56:23.921875
2957,22.15,2022-10-26 15:56:23.937500
2958,21.96,2022-10-26 15:56:23.953125
2959,21.23,2022-10-26 15:56:23.968750
2960,20.08,2022-10-26 15:56:23.984375
2961,18.82,2022-10-26 15:56:24.000000
2962,17.78,2022-10-26 15:56:24.015625
2963,17.22,2022-10-26 15:56:24.031250
2964,17.23,2022-10-26 15:56:24.046875
2965,17.72,2022-10-26 15:56:24.062500
2966,18.54,2022-10-26 15:56:24.078125
2967,19.52,2022-10-26 15:56:24.093750
2968,20.6,2022-10-26 15:56:24.109375
2969,21.77,2022-10-26 15:56:24.125000
2970,23.0,2022-10-26 15:56:24.140625
2971,24.22,2022-10-26 15:56:24.156250
2972,25.29,2022-10-26 15:56:24.171875
2973,26.13,2022-10-26 15:56:24.187500
2974,26.76,2022-10-26 15:56:24.203125
2975,27.32,2022-10-26 15:56:24.218750
2976,27.99,2022-10-26 15:56:24.234375
2977,28.91,2022-10-26 15:56:24.250000
2978,29.99,2022-10-26 15:56:24.265625
2979,31.0,2022-10-26 15:56:24.281250
2980,31.65,2022-10-26 15:56:24.296875
2981,31.67,2022-10-26 15:56:24.312500
2982,30.99,2022-10-26 15:56:24.328125
2983,29.74,2022-10-26 15:56:24.343750
2984,28.18,2022-10-26 15:56:24.359375
2985,26.71,2022-10-26 15:56:24.375000
2986,25.76,2022-10-26 15:56:24.390625
2987,25.71,2022-10-26 15:56:24.406250
2988,26.83,2022-10-26 15:56:24.421875
2989,29.09,2022-10-26 15:56:24.437500
2990,32.1,2022-10-26 15:56:24.453125
2991,35.13,2022-10-26 15:56:24.468750
2992,37.29,2022-10-26 15:56:24.484375
2993,37.88,2022-10-26 15:56:24.500000
2994,36.64,2022-10-26 15:56:24.515625
2995,33.8,2022-10-26 15:56:24.531250
2996,29.96,2022-10-26 15:56:24.546875
2997,25.69,2022-10-26 15:56:24.562500
2998,21.27,2022-10-26 15:56:24.578125
2999,16.61,2022-10-26 15:56:24.593750
3000,11.45,2022-10-26 15:56:24.609375
3001,5.6,2022-10-26 15:56:24.625000
3002,-0.84,2022-10-26 15:56:24.640625
3003,-7.4,2022-10-26 15:56:24.656250
3004,-13.42,2022-10-26 15:56:24.671875
3005,-18.2,2022-10-26 15:56:24.687500
3006,-21.18,2022-10-26 15:56:24.703125
3007,-22.04,2022-10-26 15:56:24.718750
3008,-20.73,2022-10-26 15:56:24.734375
3009,-17.49,2022-10-26 15:56:24.750000
3010,-12.9,2022-10-26 15:56:24.765625
3011,-7.77,2022-10-26 15:56:24.781250
3012,-3.01,2022-10-26 15:56:24.796875
3013,0.51,2022-10-26 15:56:24.812500
3014,2.17,2022-10-26 15:56:24.828125
3015,1.59,2022-10-26 15:56:24.843750
3016,-1.4,2022-10-26 15:56:24.859375
3017,-6.8,2022-10-26 15:56:24.875000
3018,-14.4,2022-10-26 15:56:24.890625
3019,-23.69,2022-10-26 15:56:24.906250
3020,-33.76,2022-10-26 15:56:24.921875
3021,-43.32,2022-10-26 15:56:24.937500
3022,-51.0,2022-10-26 15:56:24.953125
3023,-55.71,2022-10-26 15:56:24.968750
3024,-56.98,2022-10-26 15:56:24.984375
3025,-55.12,2022-10-26 15:56:25.000000
3026,-51.09,2022-10-26 15:56:25.015625
3027,-46.02,2022-10-26 15:56:25.031250
3028,-40.88,2022-10-26 15:56:25.046875
3029,-36.11,2022-10-26 15:56:25.062500
3030,-31.65,2022-10-26 15:56:25.078125
3031,-27.14,2022-10-26 15:56:25.093750
3032,-22.21,2022-10-26 15:56:25.109375
3033,-16.75,2022-10-26 15:56:25.125000
3034,-10.92,2022-10-26 15:56:25.140625
3035,-5.12,2022-10-26 15:56:25.156250
3036,0.21,2022-10-26 15:56:25.171875
3037,4.61,2022-10-26 15:56:25.187500
3038,7.7,2022-10-26 15:56:25.203125
3039,9.18,2022-10-26 15:56:25.218750
3040,8.81,2022-10-26 15:56:25.234375
3041,6.49,2022-10-26 15:56:25.250000
3042,2.33,2022-10-26 15:56:25.265625
3043,-3.26,2022-10-26 15:56:25.281250
3044,-9.55,2022-10-26 15:56:25.296875
3045,-15.57,2022-10-26 15:56:25.312500
3046,-20.36,2022-10-26 15:56:25.328125
3047,-23.16,2022-10-26 15:56:25.343750
3048,-23.66,2022-10-26 15:56:25.359375
3049,-22.05,2022-10-26 15:56:25.375000
3050,-18.97,2022-10-26 15:56:25.390625
3051,-15.31,2022-10-26 15:56:25.406250
3052,-11.9,2022-10-26 15:56:25.421875
3053,-9.26,2022-10-26 15:56:25.437500
3054,-7.48,2022-10-26 15:56:25.453125
3055,-6.27,2022-10-26 15:56:25.468750
3056,-5.16,2022-10-26 15:56:25.484375
3057,-3.67,2022-10-26 15:56:25.500000
3058,-1.57,2022-10-26 15:56:25.515625
3059,1.12,2022-10-26 15:56:25.531250
3060,4.06,2022-10-26 15:56:25.546875
3061,6.67,2022-10-26 15:56:25.562500
3062,8.22,2022-10-26 15:56:25.578125
3063,7.98,2022-10-26 15:56:25.593750
3064,5.44,2022-10-26 15:56:25.609375
3065,0.48,2022-10-26 15:56:25.625000
3066,-6.5,2022-10-26 15:56:25.640625
3067,-14.6,2022-10-26 15:56:25.656250
3068,-22.64,2022-10-26 15:56:25.671875
3069,-29.49,2022-10-26 15:56:25.687500
3070,-34.4,2022-10-26 15:56:25.703125
3071,-37.24,2022-10-26 15:56:25.718750
3072,-38.45,2022-10-26 15:56:25.734375
3073,-38.8,2022-10-26 15:56:25.750000
3074,-39.0,2022-10-26 15:56:25.765625
3075,-39.42,2022-10-26 15:56:25.781250
3076,-39.93,2022-10-26 15:56:25.796875
3077,-40.05,2022-10-26 15:56:25.812500
3078,-39.21,2022-10-26 15:56:25.828125
3079,-37.06,2022-10-26 15:56:25.843750
3080,-33.57,2022-10-26 15:56:25.859375
3081,-29.04,2022-10-26 15:56:25.875000
3082,-23.88,2022-10-26 15:56:25.890625
3083,-18.5,2022-10-26 15:56:25.906250
3084,-13.24,2022-10-26 15:56:25.921875
3085,-8.32,2022-10-26 15:56:25.937500
3086,-3.96,2022-10-26 15:56:25.953125
3087,-0.3,2022-10-26 15:56:25.968750
3088,2.67,2022-10-26 15:56:25.984375
3089,5.13,2022-10-26 15:56:26.000000
3090,7.38,2022-10-26 15:56:26.015625
3091,9.72,2022-10-26 15:56:26.031250
3092,12.26,2022-10-26 15:56:26.046875
3093,14.83,2022-10-26 15:56:26.062500
3094,17.05,2022-10-26 15:56:26.078125
3095,18.51,2022-10-26 15:56:26.093750
3096,19.08,2022-10-26 15:56:26.109375
3097,18.96,2022-10-26 15:56:26.125000
3098,18.7,2022-10-26 15:56:26.140625
3099,18.95,2022-10-26 15:56:26.156250
3100,20.18,2022-10-26 15:56:26.171875
3101,22.52,2022-10-26 15:56:26.187500
3102,25.64,2022-10-26 15:56:26.203125
3103,28.96,2022-10-26 15:56:26.218750
3104,31.9,2022-10-26 15:56:26.234375
3105,34.18,2022-10-26 15:56:26.250000
3106,35.95,2022-10-26 15:56:26.265625
3107,37.87,2022-10-26 15:56:26.281250
3108,40.83,2022-10-26 15:56:26.296875
3109,45.62,2022-10-26 15:56:26.312500
3110,52.56,2022-10-26 15:56:26.328125
3111,61.17,2022-10-26 15:56:26.343750
3112,70.12,2022-10-26 15:56:26.359375
3113,77.34,2022-10-26 15:56:26.375000
3114,80.53,2022-10-26 15:56:26.390625
3115,77.71,2022-10-26 15:56:26.406250
3116,67.89,2022-10-26 15:56:26.421875
3117,51.5,2022-10-26 15:56:26.437500
3118,30.45,2022-10-26 15:56:26.453125
3119,7.66,2022-10-26 15:56:26.468750
3120,-13.67,2022-10-26 15:56:26.484375
3121,-31.01,2022-10-26 15:56:26.500000
3122,-43.1,2022-10-26 15:56:26.515625
3123,-50.09,2022-10-26 15:56:26.531250
3124,-53.17,2022-10-26 15:56:26.546875
3125,-53.86,2022-10-26 15:56:26.562500
3126,-53.43,2022-10-26 15:56:26.578125
3127,-52.5,2022-10-26 15:56:26.593750
3128,-51.24,2022-10-26 15:56:26.609375
3129,-49.51,2022-10-26 15:56:26.625000
3130,-47.22,2022-10-26 15:56:26.640625
3131,-44.33,2022-10-26 15:56:26.656250
3132,-40.89,2022-10-26 15:56:26.671875
3133,-36.92,2022-10-26 15:56:26.687500
3134,-32.41,2022-10-26 15:56:26.703125
3135,-27.46,2022-10-26 15:56:26.718750
3136,-22.33,2022-10-26 15:56:26.734375
3137,-17.42,2022-10-26 15:56:26.750000
3138,-13.19,2022-10-26 15:56:26.765625
3139,-9.9,2022-10-26 15:56:26.781250
3140,-7.61,2022-10-26 15:56:26.796875
3141,-6.15,2022-10-26 15:56:26.812500
3142,-5.23,2022-10-26 15:56:26.828125
3143,-4.55,2022-10-26 15:56:26.843750
3144,-3.85,2022-10-26 15:56:26.859375
3145,-2.87,2022-10-26 15:56:26.875000
3146,-1.36,2022-10-26 15:56:26.890625
3147,0.81,2022-10-26 15:56:26.906250
3148,3.64,2022-10-26 15:56:26.921875
3149,6.89,2022-10-26 15:56:26.937500
3150,10.13,2022-10-26 15:56:26.953125
3151,12.86,2022-10-26 15:56:26.968750
3152,14.8,2022-10-26 15:56:26.984375
3153,15.95,2022-10-26 15:56:27.000000
3154,16.69,2022-10-26 15:56:27.015625
3155,17.51,2022-10-26 15:56:27.031250
3156,18.72,2022-10-26 15:56:27.046875
3157,20.21,2022-10-26 15:56:27.062500
3158,21.45,2022-10-26 15:56:27.078125
3159,21.64,2022-10-26 15:56:27.093750
3160,20.08,2022-10-26 15:56:27.109375
3161,16.52,2022-10-26 15:56:27.125000
3162,11.27,2022-10-26 15:56:27.140625
3163,5.07,2022-10-26 15:56:27.156250
3164,-1.13,2022-10-26 15:56:27.171875
3165,-6.5,2022-10-26 15:56:27.187500
3166,-10.53,2022-10-26 15:56:27.203125
3167,-13.16,2022-10-26 15:56:27.218750
3168,-14.72,2022-10-26 15:56:27.234375
3169,-15.84,2022-10-26 15:56:27.250000
3170,-17.34,2022-10-26 15:56:27.265625
3171,-19.98,2022-10-26 15:56:27.281250
3172,-24.12,2022-10-26 15:56:27.296875
3173,-29.53,2022-10-26 15:56:27.312500
3174,-35.3,2022-10-26 15:56:27.328125
3175,-40.01,2022-10-26 15:56:27.343750
3176,-42.24,2022-10-26 15:56:27.359375
3177,-41.02,2022-10-26 15:56:27.375000
3178,-36.22,2022-10-26 15:56:27.390625
3179,-28.6,2022-10-26 15:56:27.406250
3180,-19.56,2022-10-26 15:56:27.421875
3181,-10.66,2022-10-26 15:56:27.437500
3182,-3.13,2022-10-26 15:56:27.453125
3183,2.38,2022-10-26 15:56:27.468750
3184,5.83,2022-10-26 15:56:27.484375
3185,7.57,2022-10-26 15:56:27.500000
