,BVP,time
0,74.32,2022-10-26 11:04:18.500000
1,72.41,2022-10-26 11:04:18.515625
2,69.68,2022-10-26 11:04:18.531250
3,67.75,2022-10-26 11:04:18.546875
4,68.15,2022-10-26 11:04:18.562500
5,71.59,2022-10-26 11:04:18.578125
6,77.53,2022-10-26 11:04:18.593750
7,84.3,2022-10-26 11:04:18.609375
8,89.6,2022-10-26 11:04:18.625000
9,91.6,2022-10-26 11:04:18.640625
10,89.43,2022-10-26 11:04:18.656250
11,83.39,2022-10-26 11:04:18.671875
12,74.6,2022-10-26 11:04:18.687500
13,64.47,2022-10-26 11:04:18.703125
14,54.22,2022-10-26 11:04:18.718750
15,44.84,2022-10-26 11:04:18.734375
16,37.12,2022-10-26 11:04:18.750000
17,31.69,2022-10-26 11:04:18.765625
18,28.91,2022-10-26 11:04:18.781250
19,28.4,2022-10-26 11:04:18.796875
20,28.93,2022-10-26 11:04:18.812500
21,28.64,2022-10-26 11:04:18.828125
22,25.86,2022-10-26 11:04:18.843750
23,19.96,2022-10-26 11:04:18.859375
24,11.78,2022-10-26 11:04:18.875000
25,3.3,2022-10-26 11:04:18.890625
26,-3.21,2022-10-26 11:04:18.906250
27,-5.94,2022-10-26 11:04:18.921875
28,-4.62,2022-10-26 11:04:18.937500
29,-0.55,2022-10-26 11:04:18.953125
30,4.17,2022-10-26 11:04:18.968750
31,7.74,2022-10-26 11:04:18.984375
32,9.38,2022-10-26 11:04:19.000000
33,9.3,2022-10-26 11:04:19.015625
34,8.2,2022-10-26 11:04:19.031250
35,6.66,2022-10-26 11:04:19.046875
36,5.41,2022-10-26 11:04:19.062500
37,4.53,2022-10-26 11:04:19.078125
38,3.63,2022-10-26 11:04:19.093750
39,2.19,2022-10-26 11:04:19.109375
40,0.12,2022-10-26 11:04:19.125000
41,-2.26,2022-10-26 11:04:19.140625
42,-4.31,2022-10-26 11:04:19.156250
43,-5.4,2022-10-26 11:04:19.171875
44,-5.0,2022-10-26 11:04:19.187500
45,-1.97,2022-10-26 11:04:19.203125
46,4.03,2022-10-26 11:04:19.218750
47,12.24,2022-10-26 11:04:19.234375
48,21.35,2022-10-26 11:04:19.250000
49,30.36,2022-10-26 11:04:19.265625
50,39.1,2022-10-26 11:04:19.281250
51,48.11,2022-10-26 11:04:19.296875
52,58.15,2022-10-26 11:04:19.312500
53,69.7,2022-10-26 11:04:19.328125
54,83.73,2022-10-26 11:04:19.343750
55,99.88,2022-10-26 11:04:19.359375
56,116.26,2022-10-26 11:04:19.375000
57,130.08,2022-10-26 11:04:19.390625
58,138.77,2022-10-26 11:04:19.406250
59,140.48,2022-10-26 11:04:19.421875
60,134.43,2022-10-26 11:04:19.437500
61,120.68,2022-10-26 11:04:19.453125
62,93.41,2022-10-26 11:04:19.468750
63,52.75,2022-10-26 11:04:19.484375
64,5.44,2022-10-26 11:04:19.500000
65,-38.35,2022-10-26 11:04:19.515625
66,-71.31,2022-10-26 11:04:19.531250
67,-91.72,2022-10-26 11:04:19.546875
68,-102.11,2022-10-26 11:04:19.562500
69,-105.65,2022-10-26 11:04:19.578125
70,-104.47,2022-10-26 11:04:19.593750
71,-99.5,2022-10-26 11:04:19.609375
72,-90.42,2022-10-26 11:04:19.625000
73,-77.93,2022-10-26 11:04:19.640625
74,-64.19,2022-10-26 11:04:19.656250
75,-52.17,2022-10-26 11:04:19.671875
76,-44.14,2022-10-26 11:04:19.687500
77,-41.57,2022-10-26 11:04:19.703125
78,-43.63,2022-10-26 11:04:19.718750
79,-47.7,2022-10-26 11:04:19.734375
80,-51.66,2022-10-26 11:04:19.750000
81,-52.9,2022-10-26 11:04:19.765625
82,-51.1,2022-10-26 11:04:19.781250
83,-48.24,2022-10-26 11:04:19.796875
84,-47.31,2022-10-26 11:04:19.812500
85,-50.45,2022-10-26 11:04:19.828125
86,-59.38,2022-10-26 11:04:19.843750
87,-72.96,2022-10-26 11:04:19.859375
88,-87.77,2022-10-26 11:04:19.875000
89,-99.59,2022-10-26 11:04:19.890625
90,-105.99,2022-10-26 11:04:19.906250
91,-107.14,2022-10-26 11:04:19.921875
92,-105.5,2022-10-26 11:04:19.937500
93,-104.82,2022-10-26 11:04:19.953125
94,-108.8,2022-10-26 11:04:19.968750
95,-122.5,2022-10-26 11:04:19.984375
96,-148.91,2022-10-26 11:04:20.000000
97,-188.32,2022-10-26 11:04:20.015625
98,-232.85,2022-10-26 11:04:20.031250
99,-274.96,2022-10-26 11:04:20.046875
100,-306.78,2022-10-26 11:04:20.062500
101,-321.64,2022-10-26 11:04:20.078125
102,-316.05,2022-10-26 11:04:20.093750
103,-278.86,2022-10-26 11:04:20.109375
104,-214.02,2022-10-26 11:04:20.125000
105,-138.24,2022-10-26 11:04:20.140625
106,-71.11,2022-10-26 11:04:20.156250
107,-23.54,2022-10-26 11:04:20.171875
108,3.97,2022-10-26 11:04:20.187500
109,17.43,2022-10-26 11:04:20.203125
110,23.17,2022-10-26 11:04:20.218750
111,24.54,2022-10-26 11:04:20.234375
112,22.74,2022-10-26 11:04:20.250000
113,16.03,2022-10-26 11:04:20.265625
114,4.7,2022-10-26 11:04:20.281250
115,-8.01,2022-10-26 11:04:20.296875
116,-16.51,2022-10-26 11:04:20.312500
117,-18.93,2022-10-26 11:04:20.328125
118,-15.94,2022-10-26 11:04:20.343750
119,-10.15,2022-10-26 11:04:20.359375
120,-4.82,2022-10-26 11:04:20.375000
121,-1.63,2022-10-26 11:04:20.390625
122,-2.32,2022-10-26 11:04:20.406250
123,-6.12,2022-10-26 11:04:20.421875
124,-10.02,2022-10-26 11:04:20.437500
125,-10.19,2022-10-26 11:04:20.453125
126,-4.39,2022-10-26 11:04:20.468750
127,8.12,2022-10-26 11:04:20.484375
128,27.27,2022-10-26 11:04:20.500000
129,48.29,2022-10-26 11:04:20.515625
130,68.81,2022-10-26 11:04:20.531250
131,86.9,2022-10-26 11:04:20.546875
132,102.81,2022-10-26 11:04:20.562500
133,119.02,2022-10-26 11:04:20.578125
134,138.98,2022-10-26 11:04:20.593750
135,164.86,2022-10-26 11:04:20.609375
136,196.44,2022-10-26 11:04:20.625000
137,230.29,2022-10-26 11:04:20.640625
138,260.54,2022-10-26 11:04:20.656250
139,281.28,2022-10-26 11:04:20.671875
140,287.39,2022-10-26 11:04:20.687500
141,277.15,2022-10-26 11:04:20.703125
142,252.84,2022-10-26 11:04:20.718750
143,219.9,2022-10-26 11:04:20.734375
144,184.77,2022-10-26 11:04:20.750000
145,153.5,2022-10-26 11:04:20.765625
146,130.79,2022-10-26 11:04:20.781250
147,119.6,2022-10-26 11:04:20.796875
148,121.63,2022-10-26 11:04:20.812500
149,136.13,2022-10-26 11:04:20.828125
150,160.06,2022-10-26 11:04:20.843750
151,188.52,2022-10-26 11:04:20.859375
152,215.8,2022-10-26 11:04:20.875000
153,236.98,2022-10-26 11:04:20.890625
154,249.43,2022-10-26 11:04:20.906250
155,253.33,2022-10-26 11:04:20.921875
156,250.87,2022-10-26 11:04:20.937500
157,244.93,2022-10-26 11:04:20.953125
158,237.29,2022-10-26 11:04:20.968750
159,227.92,2022-10-26 11:04:20.984375
160,215.36,2022-10-26 11:04:21.000000
161,197.82,2022-10-26 11:04:21.015625
162,174.14,2022-10-26 11:04:21.031250
163,144.21,2022-10-26 11:04:21.046875
164,108.86,2022-10-26 11:04:21.062500
165,69.57,2022-10-26 11:04:21.078125
166,28.25,2022-10-26 11:04:21.093750
167,-13.04,2022-10-26 11:04:21.109375
168,-52.42,2022-10-26 11:04:21.125000
169,-88.45,2022-10-26 11:04:21.140625
170,-120.21,2022-10-26 11:04:21.156250
171,-147.18,2022-10-26 11:04:21.171875
172,-168.89,2022-10-26 11:04:21.187500
173,-184.74,2022-10-26 11:04:21.203125
174,-194.14,2022-10-26 11:04:21.218750
175,-196.98,2022-10-26 11:04:21.234375
176,-194.13,2022-10-26 11:04:21.250000
177,-187.46,2022-10-26 11:04:21.265625
178,-179.22,2022-10-26 11:04:21.281250
179,-171.04,2022-10-26 11:04:21.296875
180,-163.27,2022-10-26 11:04:21.312500
181,-154.98,2022-10-26 11:04:21.328125
182,-144.79,2022-10-26 11:04:21.343750
183,-132.09,2022-10-26 11:04:21.359375
184,-117.84,2022-10-26 11:04:21.375000
185,-104.44,2022-10-26 11:04:21.390625
186,-94.84,2022-10-26 11:04:21.406250
187,-91.27,2022-10-26 11:04:21.421875
188,-94.36,2022-10-26 11:04:21.437500
189,-102.81,2022-10-26 11:04:21.453125
190,-113.85,2022-10-26 11:04:21.468750
191,-124.04,2022-10-26 11:04:21.484375
192,-130.33,2022-10-26 11:04:21.500000
193,-130.91,2022-10-26 11:04:21.515625
194,-125.51,2022-10-26 11:04:21.531250
195,-115.4,2022-10-26 11:04:21.546875
196,-102.91,2022-10-26 11:04:21.562500
197,-90.69,2022-10-26 11:04:21.578125
198,-80.86,2022-10-26 11:04:21.593750
199,-74.3,2022-10-26 11:04:21.609375
200,-70.39,2022-10-26 11:04:21.625000
201,-67.41,2022-10-26 11:04:21.640625
202,-63.43,2022-10-26 11:04:21.656250
203,-57.37,2022-10-26 11:04:21.671875
204,-49.7,2022-10-26 11:04:21.687500
205,-42.32,2022-10-26 11:04:21.703125
206,-37.59,2022-10-26 11:04:21.718750
207,-37.03,2022-10-26 11:04:21.734375
208,-40.37,2022-10-26 11:04:21.750000
209,-45.66,2022-10-26 11:04:21.765625
210,-50.14,2022-10-26 11:04:21.781250
211,-51.64,2022-10-26 11:04:21.796875
212,-49.43,2022-10-26 11:04:21.812500
213,-44.33,2022-10-26 11:04:21.828125
214,-37.79,2022-10-26 11:04:21.843750
215,-31.0,2022-10-26 11:04:21.859375
216,-24.34,2022-10-26 11:04:21.875000
217,-17.52,2022-10-26 11:04:21.890625
218,-10.15,2022-10-26 11:04:21.906250
219,-2.35,2022-10-26 11:04:21.921875
220,5.05,2022-10-26 11:04:21.937500
221,10.79,2022-10-26 11:04:21.953125
222,13.71,2022-10-26 11:04:21.968750
223,13.29,2022-10-26 11:04:21.984375
224,9.93,2022-10-26 11:04:22.000000
225,4.8,2022-10-26 11:04:22.015625
226,-0.63,2022-10-26 11:04:22.031250
227,-5.07,2022-10-26 11:04:22.046875
228,-7.89,2022-10-26 11:04:22.062500
229,-9.21,2022-10-26 11:04:22.078125
230,-9.72,2022-10-26 11:04:22.093750
231,-10.12,2022-10-26 11:04:22.109375
232,-10.73,2022-10-26 11:04:22.125000
233,-11.27,2022-10-26 11:04:22.140625
234,-10.98,2022-10-26 11:04:22.156250
235,-9.06,2022-10-26 11:04:22.171875
236,-5.11,2022-10-26 11:04:22.187500
237,0.59,2022-10-26 11:04:22.203125
238,7.21,2022-10-26 11:04:22.218750
239,13.71,2022-10-26 11:04:22.234375
240,19.28,2022-10-26 11:04:22.250000
241,23.58,2022-10-26 11:04:22.265625
242,26.71,2022-10-26 11:04:22.281250
243,29.02,2022-10-26 11:04:22.296875
244,30.93,2022-10-26 11:04:22.312500
245,32.64,2022-10-26 11:04:22.328125
246,34.13,2022-10-26 11:04:22.343750
247,35.25,2022-10-26 11:04:22.359375
248,35.82,2022-10-26 11:04:22.375000
249,35.71,2022-10-26 11:04:22.390625
250,34.96,2022-10-26 11:04:22.406250
251,33.79,2022-10-26 11:04:22.421875
252,32.45,2022-10-26 11:04:22.437500
253,31.25,2022-10-26 11:04:22.453125
254,30.37,2022-10-26 11:04:22.468750
255,29.87,2022-10-26 11:04:22.484375
256,29.67,2022-10-26 11:04:22.500000
257,29.65,2022-10-26 11:04:22.515625
258,29.71,2022-10-26 11:04:22.531250
259,29.88,2022-10-26 11:04:22.546875
260,30.28,2022-10-26 11:04:22.562500
261,31.02,2022-10-26 11:04:22.578125
262,32.1,2022-10-26 11:04:22.593750
263,33.38,2022-10-26 11:04:22.609375
264,34.56,2022-10-26 11:04:22.625000
265,35.28,2022-10-26 11:04:22.640625
266,35.17,2022-10-26 11:04:22.656250
267,33.85,2022-10-26 11:04:22.671875
268,31.01,2022-10-26 11:04:22.687500
269,26.47,2022-10-26 11:04:22.703125
270,20.25,2022-10-26 11:04:22.718750
271,12.63,2022-10-26 11:04:22.734375
272,4.08,2022-10-26 11:04:22.750000
273,-4.91,2022-10-26 11:04:22.765625
274,-13.89,2022-10-26 11:04:22.781250
275,-22.57,2022-10-26 11:04:22.796875
276,-30.71,2022-10-26 11:04:22.812500
277,-37.94,2022-10-26 11:04:22.828125
278,-43.71,2022-10-26 11:04:22.843750
279,-47.39,2022-10-26 11:04:22.859375
280,-48.45,2022-10-26 11:04:22.875000
281,-46.83,2022-10-26 11:04:22.890625
282,-42.92,2022-10-26 11:04:22.906250
283,-37.53,2022-10-26 11:04:22.921875
284,-31.58,2022-10-26 11:04:22.937500
285,-25.75,2022-10-26 11:04:22.953125
286,-20.35,2022-10-26 11:04:22.968750
287,-15.35,2022-10-26 11:04:22.984375
288,-10.58,2022-10-26 11:04:23.000000
289,-5.97,2022-10-26 11:04:23.015625
290,-1.65,2022-10-26 11:04:23.031250
291,2.06,2022-10-26 11:04:23.046875
292,4.83,2022-10-26 11:04:23.062500
293,6.45,2022-10-26 11:04:23.078125
294,6.86,2022-10-26 11:04:23.093750
295,6.16,2022-10-26 11:04:23.109375
296,4.55,2022-10-26 11:04:23.125000
297,2.25,2022-10-26 11:04:23.140625
298,-0.42,2022-10-26 11:04:23.156250
299,-3.13,2022-10-26 11:04:23.171875
300,-5.43,2022-10-26 11:04:23.187500
301,-6.94,2022-10-26 11:04:23.203125
302,-7.48,2022-10-26 11:04:23.218750
303,-7.08,2022-10-26 11:04:23.234375
304,-6.07,2022-10-26 11:04:23.250000
305,-4.86,2022-10-26 11:04:23.265625
306,-3.84,2022-10-26 11:04:23.281250
307,-3.16,2022-10-26 11:04:23.296875
308,-2.79,2022-10-26 11:04:23.312500
309,-2.51,2022-10-26 11:04:23.328125
310,-2.08,2022-10-26 11:04:23.343750
311,-1.31,2022-10-26 11:04:23.359375
312,-0.15,2022-10-26 11:04:23.375000
313,1.28,2022-10-26 11:04:23.390625
314,2.74,2022-10-26 11:04:23.406250
315,3.9,2022-10-26 11:04:23.421875
316,4.47,2022-10-26 11:04:23.437500
317,4.29,2022-10-26 11:04:23.453125
318,3.39,2022-10-26 11:04:23.468750
319,1.95,2022-10-26 11:04:23.484375
320,0.25,2022-10-26 11:04:23.500000
321,-1.54,2022-10-26 11:04:23.515625
322,-3.38,2022-10-26 11:04:23.531250
323,-5.37,2022-10-26 11:04:23.546875
324,-7.66,2022-10-26 11:04:23.562500
325,-10.27,2022-10-26 11:04:23.578125
326,-12.99,2022-10-26 11:04:23.593750
327,-15.43,2022-10-26 11:04:23.609375
328,-17.13,2022-10-26 11:04:23.625000
329,-17.7,2022-10-26 11:04:23.640625
330,-17.01,2022-10-26 11:04:23.656250
331,-15.16,2022-10-26 11:04:23.671875
332,-12.38,2022-10-26 11:04:23.687500
333,-8.98,2022-10-26 11:04:23.703125
334,-5.2,2022-10-26 11:04:23.718750
335,-1.22,2022-10-26 11:04:23.734375
336,2.82,2022-10-26 11:04:23.750000
337,6.72,2022-10-26 11:04:23.765625
338,10.28,2022-10-26 11:04:23.781250
339,13.27,2022-10-26 11:04:23.796875
340,15.57,2022-10-26 11:04:23.812500
341,17.13,2022-10-26 11:04:23.828125
342,18.04,2022-10-26 11:04:23.843750
343,18.46,2022-10-26 11:04:23.859375
344,18.57,2022-10-26 11:04:23.875000
345,18.54,2022-10-26 11:04:23.890625
346,18.45,2022-10-26 11:04:23.906250
347,18.32,2022-10-26 11:04:23.921875
348,18.12,2022-10-26 11:04:23.937500
349,17.83,2022-10-26 11:04:23.953125
350,17.38,2022-10-26 11:04:23.968750
351,16.77,2022-10-26 11:04:23.984375
352,16.04,2022-10-26 11:04:24.000000
353,15.26,2022-10-26 11:04:24.015625
354,14.56,2022-10-26 11:04:24.031250
355,14.05,2022-10-26 11:04:24.046875
356,13.81,2022-10-26 11:04:24.062500
357,13.82,2022-10-26 11:04:24.078125
358,13.96,2022-10-26 11:04:24.093750
359,14.05,2022-10-26 11:04:24.109375
360,13.82,2022-10-26 11:04:24.125000
361,13.08,2022-10-26 11:04:24.140625
362,11.71,2022-10-26 11:04:24.156250
363,9.77,2022-10-26 11:04:24.171875
364,7.48,2022-10-26 11:04:24.187500
365,5.14,2022-10-26 11:04:24.203125
366,3.06,2022-10-26 11:04:24.218750
367,1.45,2022-10-26 11:04:24.234375
368,0.28,2022-10-26 11:04:24.250000
369,-0.67,2022-10-26 11:04:24.265625
370,-1.74,2022-10-26 11:04:24.281250
371,-3.21,2022-10-26 11:04:24.296875
372,-5.17,2022-10-26 11:04:24.312500
373,-7.42,2022-10-26 11:04:24.328125
374,-9.5,2022-10-26 11:04:24.343750
375,-10.81,2022-10-26 11:04:24.359375
376,-10.85,2022-10-26 11:04:24.375000
377,-9.36,2022-10-26 11:04:24.390625
378,-6.45,2022-10-26 11:04:24.406250
379,-2.54,2022-10-26 11:04:24.421875
380,1.8,2022-10-26 11:04:24.437500
381,6.04,2022-10-26 11:04:24.453125
382,9.86,2022-10-26 11:04:24.468750
383,13.17,2022-10-26 11:04:24.484375
384,16.01,2022-10-26 11:04:24.500000
385,18.49,2022-10-26 11:04:24.515625
386,20.62,2022-10-26 11:04:24.531250
387,22.28,2022-10-26 11:04:24.546875
388,23.29,2022-10-26 11:04:24.562500
389,23.44,2022-10-26 11:04:24.578125
390,22.58,2022-10-26 11:04:24.593750
391,20.68,2022-10-26 11:04:24.609375
392,17.87,2022-10-26 11:04:24.625000
393,14.43,2022-10-26 11:04:24.640625
394,10.79,2022-10-26 11:04:24.656250
395,7.42,2022-10-26 11:04:24.671875
396,4.79,2022-10-26 11:04:24.687500
397,3.23,2022-10-26 11:04:24.703125
398,2.89,2022-10-26 11:04:24.718750
399,3.71,2022-10-26 11:04:24.734375
400,5.45,2022-10-26 11:04:24.750000
401,7.69,2022-10-26 11:04:24.765625
402,9.98,2022-10-26 11:04:24.781250
403,11.91,2022-10-26 11:04:24.796875
404,13.18,2022-10-26 11:04:24.812500
405,13.59,2022-10-26 11:04:24.828125
406,12.99,2022-10-26 11:04:24.843750
407,11.22,2022-10-26 11:04:24.859375
408,8.03,2022-10-26 11:04:24.875000
409,3.21,2022-10-26 11:04:24.890625
410,-3.19,2022-10-26 11:04:24.906250
411,-10.53,2022-10-26 11:04:24.921875
412,-17.52,2022-10-26 11:04:24.937500
413,-22.69,2022-10-26 11:04:24.953125
414,-25.07,2022-10-26 11:04:24.968750
415,-24.94,2022-10-26 11:04:24.984375
416,-24.04,2022-10-26 11:04:25.000000
417,-24.84,2022-10-26 11:04:25.015625
418,-29.4,2022-10-26 11:04:25.031250
419,-38.2,2022-10-26 11:04:25.046875
420,-49.92,2022-10-26 11:04:25.062500
421,-62.0,2022-10-26 11:04:25.078125
422,-71.91,2022-10-26 11:04:25.093750
423,-78.1,2022-10-26 11:04:25.109375
424,-80.36,2022-10-26 11:04:25.125000
425,-79.4,2022-10-26 11:04:25.140625
426,-76.08,2022-10-26 11:04:25.156250
427,-70.91,2022-10-26 11:04:25.171875
428,-63.94,2022-10-26 11:04:25.187500
429,-55.18,2022-10-26 11:04:25.203125
430,-44.89,2022-10-26 11:04:25.218750
431,-33.59,2022-10-26 11:04:25.234375
432,-21.73,2022-10-26 11:04:25.250000
433,-9.35,2022-10-26 11:04:25.265625
434,3.91,2022-10-26 11:04:25.281250
435,18.57,2022-10-26 11:04:25.296875
436,34.74,2022-10-26 11:04:25.312500
437,51.81,2022-10-26 11:04:25.328125
438,68.36,2022-10-26 11:04:25.343750
439,82.54,2022-10-26 11:04:25.359375
440,92.62,2022-10-26 11:04:25.375000
441,97.58,2022-10-26 11:04:25.390625
442,97.32,2022-10-26 11:04:25.406250
443,92.74,2022-10-26 11:04:25.421875
444,85.35,2022-10-26 11:04:25.437500
445,76.73,2022-10-26 11:04:25.453125
446,68.17,2022-10-26 11:04:25.468750
447,60.39,2022-10-26 11:04:25.484375
448,53.61,2022-10-26 11:04:25.500000
449,47.76,2022-10-26 11:04:25.515625
450,42.61,2022-10-26 11:04:25.531250
451,37.98,2022-10-26 11:04:25.546875
452,33.68,2022-10-26 11:04:25.562500
453,29.59,2022-10-26 11:04:25.578125
454,25.61,2022-10-26 11:04:25.593750
455,21.71,2022-10-26 11:04:25.609375
456,17.93,2022-10-26 11:04:25.625000
457,14.38,2022-10-26 11:04:25.640625
458,11.15,2022-10-26 11:04:25.656250
459,8.3,2022-10-26 11:04:25.671875
460,5.76,2022-10-26 11:04:25.687500
461,3.35,2022-10-26 11:04:25.703125
462,0.82,2022-10-26 11:04:25.718750
463,-2.06,2022-10-26 11:04:25.734375
464,-5.35,2022-10-26 11:04:25.750000
465,-8.9,2022-10-26 11:04:25.765625
466,-12.32,2022-10-26 11:04:25.781250
467,-15.05,2022-10-26 11:04:25.796875
468,-16.59,2022-10-26 11:04:25.812500
469,-16.63,2022-10-26 11:04:25.828125
470,-15.21,2022-10-26 11:04:25.843750
471,-12.67,2022-10-26 11:04:25.859375
472,-9.54,2022-10-26 11:04:25.875000
473,-6.35,2022-10-26 11:04:25.890625
474,-3.51,2022-10-26 11:04:25.906250
475,-1.21,2022-10-26 11:04:25.921875
476,0.51,2022-10-26 11:04:25.937500
477,1.74,2022-10-26 11:04:25.953125
478,2.53,2022-10-26 11:04:25.968750
479,2.96,2022-10-26 11:04:25.984375
480,3.03,2022-10-26 11:04:26.000000
481,2.76,2022-10-26 11:04:26.015625
482,2.23,2022-10-26 11:04:26.031250
483,1.53,2022-10-26 11:04:26.046875
484,0.83,2022-10-26 11:04:26.062500
485,0.27,2022-10-26 11:04:26.078125
486,-0.0,2022-10-26 11:04:26.093750
487,0.06,2022-10-26 11:04:26.109375
488,0.43,2022-10-26 11:04:26.125000
489,1.01,2022-10-26 11:04:26.140625
490,1.66,2022-10-26 11:04:26.156250
491,2.25,2022-10-26 11:04:26.171875
492,2.71,2022-10-26 11:04:26.187500
493,3.04,2022-10-26 11:04:26.203125
494,3.24,2022-10-26 11:04:26.218750
495,3.33,2022-10-26 11:04:26.234375
496,3.22,2022-10-26 11:04:26.250000
497,2.83,2022-10-26 11:04:26.265625
498,2.05,2022-10-26 11:04:26.281250
499,0.9,2022-10-26 11:04:26.296875
500,-0.48,2022-10-26 11:04:26.312500
501,-1.88,2022-10-26 11:04:26.328125
502,-3.05,2022-10-26 11:04:26.343750
503,-3.85,2022-10-26 11:04:26.359375
504,-4.24,2022-10-26 11:04:26.375000
505,-4.34,2022-10-26 11:04:26.390625
506,-4.33,2022-10-26 11:04:26.406250
507,-4.41,2022-10-26 11:04:26.421875
508,-4.76,2022-10-26 11:04:26.437500
509,-5.43,2022-10-26 11:04:26.453125
510,-6.39,2022-10-26 11:04:26.468750
511,-7.49,2022-10-26 11:04:26.484375
512,-8.48,2022-10-26 11:04:26.500000
513,-9.05,2022-10-26 11:04:26.515625
514,-8.99,2022-10-26 11:04:26.531250
515,-8.18,2022-10-26 11:04:26.546875
516,-6.71,2022-10-26 11:04:26.562500
517,-4.8,2022-10-26 11:04:26.578125
518,-2.7,2022-10-26 11:04:26.593750
519,-0.63,2022-10-26 11:04:26.609375
520,1.29,2022-10-26 11:04:26.625000
521,3.04,2022-10-26 11:04:26.640625
522,4.57,2022-10-26 11:04:26.656250
523,5.8,2022-10-26 11:04:26.671875
524,6.61,2022-10-26 11:04:26.687500
525,6.87,2022-10-26 11:04:26.703125
526,6.55,2022-10-26 11:04:26.718750
527,5.73,2022-10-26 11:04:26.734375
528,4.59,2022-10-26 11:04:26.750000
529,3.37,2022-10-26 11:04:26.765625
530,2.3,2022-10-26 11:04:26.781250
531,1.52,2022-10-26 11:04:26.796875
532,1.03,2022-10-26 11:04:26.812500
533,0.8,2022-10-26 11:04:26.828125
534,0.71,2022-10-26 11:04:26.843750
535,0.71,2022-10-26 11:04:26.859375
536,0.8,2022-10-26 11:04:26.875000
537,1.01,2022-10-26 11:04:26.890625
538,1.38,2022-10-26 11:04:26.906250
539,1.86,2022-10-26 11:04:26.921875
540,2.3,2022-10-26 11:04:26.937500
541,2.44,2022-10-26 11:04:26.953125
542,2.06,2022-10-26 11:04:26.968750
543,1.08,2022-10-26 11:04:26.984375
544,-0.39,2022-10-26 11:04:27.000000
545,-2.05,2022-10-26 11:04:27.015625
546,-3.61,2022-10-26 11:04:27.031250
547,-4.85,2022-10-26 11:04:27.046875
548,-5.75,2022-10-26 11:04:27.062500
549,-6.43,2022-10-26 11:04:27.078125
550,-7.08,2022-10-26 11:04:27.093750
551,-7.85,2022-10-26 11:04:27.109375
552,-8.82,2022-10-26 11:04:27.125000
553,-9.95,2022-10-26 11:04:27.140625
554,-11.14,2022-10-26 11:04:27.156250
555,-12.21,2022-10-26 11:04:27.171875
556,-12.93,2022-10-26 11:04:27.187500
557,-13.05,2022-10-26 11:04:27.203125
558,-12.4,2022-10-26 11:04:27.218750
559,-11.0,2022-10-26 11:04:27.234375
560,-9.06,2022-10-26 11:04:27.250000
561,-6.91,2022-10-26 11:04:27.265625
562,-4.88,2022-10-26 11:04:27.281250
563,-3.17,2022-10-26 11:04:27.296875
564,-1.78,2022-10-26 11:04:27.312500
565,-0.59,2022-10-26 11:04:27.328125
566,0.51,2022-10-26 11:04:27.343750
567,1.5,2022-10-26 11:04:27.359375
568,2.22,2022-10-26 11:04:27.375000
569,2.5,2022-10-26 11:04:27.390625
570,2.3,2022-10-26 11:04:27.406250
571,1.76,2022-10-26 11:04:27.421875
572,1.11,2022-10-26 11:04:27.437500
573,0.59,2022-10-26 11:04:27.453125
574,0.28,2022-10-26 11:04:27.468750
575,0.12,2022-10-26 11:04:27.484375
576,0.0,2022-10-26 11:04:27.500000
577,-0.16,2022-10-26 11:04:27.515625
578,-0.35,2022-10-26 11:04:27.531250
579,-0.51,2022-10-26 11:04:27.546875
580,-0.62,2022-10-26 11:04:27.562500
581,-0.7,2022-10-26 11:04:27.578125
582,-0.85,2022-10-26 11:04:27.593750
583,-1.1,2022-10-26 11:04:27.609375
584,-1.48,2022-10-26 11:04:27.625000
585,-1.93,2022-10-26 11:04:27.640625
586,-2.39,2022-10-26 11:04:27.656250
587,-2.87,2022-10-26 11:04:27.671875
588,-3.39,2022-10-26 11:04:27.687500
589,-3.95,2022-10-26 11:04:27.703125
590,-4.51,2022-10-26 11:04:27.718750
591,-4.98,2022-10-26 11:04:27.734375
592,-5.3,2022-10-26 11:04:27.750000
593,-5.52,2022-10-26 11:04:27.765625
594,-5.78,2022-10-26 11:04:27.781250
595,-6.3,2022-10-26 11:04:27.796875
596,-7.16,2022-10-26 11:04:27.812500
597,-8.29,2022-10-26 11:04:27.828125
598,-9.4,2022-10-26 11:04:27.843750
599,-10.09,2022-10-26 11:04:27.859375
600,-9.99,2022-10-26 11:04:27.875000
601,-8.96,2022-10-26 11:04:27.890625
602,-7.08,2022-10-26 11:04:27.906250
603,-4.7,2022-10-26 11:04:27.921875
604,-2.22,2022-10-26 11:04:27.937500
605,-0.02,2022-10-26 11:04:27.953125
606,1.7,2022-10-26 11:04:27.968750
607,2.92,2022-10-26 11:04:27.984375
608,3.76,2022-10-26 11:04:28.000000
609,4.37,2022-10-26 11:04:28.015625
610,4.82,2022-10-26 11:04:28.031250
611,5.1,2022-10-26 11:04:28.046875
612,5.11,2022-10-26 11:04:28.062500
613,4.82,2022-10-26 11:04:28.078125
614,4.23,2022-10-26 11:04:28.093750
615,3.44,2022-10-26 11:04:28.109375
616,2.57,2022-10-26 11:04:28.125000
617,1.71,2022-10-26 11:04:28.140625
618,0.93,2022-10-26 11:04:28.156250
619,0.25,2022-10-26 11:04:28.171875
620,-0.31,2022-10-26 11:04:28.187500
621,-0.76,2022-10-26 11:04:28.203125
622,-1.12,2022-10-26 11:04:28.218750
623,-1.39,2022-10-26 11:04:28.234375
624,-1.62,2022-10-26 11:04:28.250000
625,-1.84,2022-10-26 11:04:28.265625
626,-2.07,2022-10-26 11:04:28.281250
627,-2.3,2022-10-26 11:04:28.296875
628,-2.5,2022-10-26 11:04:28.312500
629,-2.67,2022-10-26 11:04:28.328125
630,-2.79,2022-10-26 11:04:28.343750
631,-2.87,2022-10-26 11:04:28.359375
632,-2.93,2022-10-26 11:04:28.375000
633,-2.99,2022-10-26 11:04:28.390625
634,-3.04,2022-10-26 11:04:28.406250
635,-3.12,2022-10-26 11:04:28.421875
636,-3.29,2022-10-26 11:04:28.437500
637,-3.62,2022-10-26 11:04:28.453125
638,-4.17,2022-10-26 11:04:28.468750
639,-4.9,2022-10-26 11:04:28.484375
640,-5.71,2022-10-26 11:04:28.500000
641,-6.39,2022-10-26 11:04:28.515625
642,-6.68,2022-10-26 11:04:28.531250
643,-6.36,2022-10-26 11:04:28.546875
644,-5.32,2022-10-26 11:04:28.562500
645,-3.61,2022-10-26 11:04:28.578125
646,-1.46,2022-10-26 11:04:28.593750
647,0.82,2022-10-26 11:04:28.609375
648,2.96,2022-10-26 11:04:28.625000
649,4.75,2022-10-26 11:04:28.640625
650,6.1,2022-10-26 11:04:28.656250
651,6.98,2022-10-26 11:04:28.671875
652,7.42,2022-10-26 11:04:28.687500
653,7.41,2022-10-26 11:04:28.703125
654,7.0,2022-10-26 11:04:28.718750
655,6.3,2022-10-26 11:04:28.734375
656,5.47,2022-10-26 11:04:28.750000
657,4.68,2022-10-26 11:04:28.765625
658,4.03,2022-10-26 11:04:28.781250
659,3.5,2022-10-26 11:04:28.796875
660,3.0,2022-10-26 11:04:28.812500
661,2.41,2022-10-26 11:04:28.828125
662,1.7,2022-10-26 11:04:28.843750
663,0.95,2022-10-26 11:04:28.859375
664,0.34,2022-10-26 11:04:28.875000
665,-0.02,2022-10-26 11:04:28.890625
666,-0.08,2022-10-26 11:04:28.906250
667,0.04,2022-10-26 11:04:28.921875
668,0.21,2022-10-26 11:04:28.937500
669,0.28,2022-10-26 11:04:28.953125
670,0.21,2022-10-26 11:04:28.968750
671,0.02,2022-10-26 11:04:28.984375
672,-0.22,2022-10-26 11:04:29.000000
673,-0.5,2022-10-26 11:04:29.015625
674,-0.83,2022-10-26 11:04:29.031250
675,-1.31,2022-10-26 11:04:29.046875
676,-1.98,2022-10-26 11:04:29.062500
677,-2.84,2022-10-26 11:04:29.078125
678,-3.79,2022-10-26 11:04:29.093750
679,-4.66,2022-10-26 11:04:29.109375
680,-5.28,2022-10-26 11:04:29.125000
681,-5.52,2022-10-26 11:04:29.140625
682,-5.33,2022-10-26 11:04:29.156250
683,-4.75,2022-10-26 11:04:29.171875
684,-3.88,2022-10-26 11:04:29.187500
685,-2.82,2022-10-26 11:04:29.203125
686,-1.66,2022-10-26 11:04:29.218750
687,-0.45,2022-10-26 11:04:29.234375
688,0.79,2022-10-26 11:04:29.250000
689,2.01,2022-10-26 11:04:29.265625
690,3.17,2022-10-26 11:04:29.281250
691,4.16,2022-10-26 11:04:29.296875
692,4.91,2022-10-26 11:04:29.312500
693,5.34,2022-10-26 11:04:29.328125
694,5.39,2022-10-26 11:04:29.343750
695,5.08,2022-10-26 11:04:29.359375
696,4.47,2022-10-26 11:04:29.375000
697,3.67,2022-10-26 11:04:29.390625
698,2.81,2022-10-26 11:04:29.406250
699,1.99,2022-10-26 11:04:29.421875
700,1.27,2022-10-26 11:04:29.437500
701,0.72,2022-10-26 11:04:29.453125
702,0.34,2022-10-26 11:04:29.468750
703,0.12,2022-10-26 11:04:29.484375
704,0.01,2022-10-26 11:04:29.500000
705,-0.06,2022-10-26 11:04:29.515625
706,-0.21,2022-10-26 11:04:29.531250
707,-0.54,2022-10-26 11:04:29.546875
708,-1.11,2022-10-26 11:04:29.562500
709,-1.95,2022-10-26 11:04:29.578125
710,-3.03,2022-10-26 11:04:29.593750
711,-4.28,2022-10-26 11:04:29.609375
712,-5.56,2022-10-26 11:04:29.625000
713,-6.7,2022-10-26 11:04:29.640625
714,-7.54,2022-10-26 11:04:29.656250
715,-7.97,2022-10-26 11:04:29.671875
716,-8.03,2022-10-26 11:04:29.687500
717,-7.84,2022-10-26 11:04:29.703125
718,-7.61,2022-10-26 11:04:29.718750
719,-7.51,2022-10-26 11:04:29.734375
720,-7.56,2022-10-26 11:04:29.750000
721,-7.67,2022-10-26 11:04:29.765625
722,-7.65,2022-10-26 11:04:29.781250
723,-7.34,2022-10-26 11:04:29.796875
724,-6.64,2022-10-26 11:04:29.812500
725,-5.61,2022-10-26 11:04:29.828125
726,-4.34,2022-10-26 11:04:29.843750
727,-2.99,2022-10-26 11:04:29.859375
728,-1.71,2022-10-26 11:04:29.875000
729,-0.66,2022-10-26 11:04:29.890625
730,0.05,2022-10-26 11:04:29.906250
731,0.35,2022-10-26 11:04:29.921875
732,0.21,2022-10-26 11:04:29.937500
733,-0.31,2022-10-26 11:04:29.953125
734,-1.09,2022-10-26 11:04:29.968750
735,-2.01,2022-10-26 11:04:29.984375
736,-2.94,2022-10-26 11:04:30.000000
737,-3.8,2022-10-26 11:04:30.015625
738,-4.57,2022-10-26 11:04:30.031250
739,-5.22,2022-10-26 11:04:30.046875
740,-5.73,2022-10-26 11:04:30.062500
741,-6.08,2022-10-26 11:04:30.078125
742,-6.21,2022-10-26 11:04:30.093750
743,-6.03,2022-10-26 11:04:30.109375
744,-5.48,2022-10-26 11:04:30.125000
745,-4.54,2022-10-26 11:04:30.140625
746,-3.34,2022-10-26 11:04:30.156250
747,-2.08,2022-10-26 11:04:30.171875
748,-1.07,2022-10-26 11:04:30.187500
749,-0.55,2022-10-26 11:04:30.203125
750,-0.63,2022-10-26 11:04:30.218750
751,-1.27,2022-10-26 11:04:30.234375
752,-2.35,2022-10-26 11:04:30.250000
753,-3.76,2022-10-26 11:04:30.265625
754,-5.51,2022-10-26 11:04:30.281250
755,-7.64,2022-10-26 11:04:30.296875
756,-10.09,2022-10-26 11:04:30.312500
757,-12.57,2022-10-26 11:04:30.328125
758,-14.56,2022-10-26 11:04:30.343750
759,-15.46,2022-10-26 11:04:30.359375
760,-14.87,2022-10-26 11:04:30.375000
761,-12.77,2022-10-26 11:04:30.390625
762,-9.62,2022-10-26 11:04:30.406250
763,-6.15,2022-10-26 11:04:30.421875
764,-3.15,2022-10-26 11:04:30.437500
765,-1.18,2022-10-26 11:04:30.453125
766,-0.43,2022-10-26 11:04:30.468750
767,-0.76,2022-10-26 11:04:30.484375
768,-1.79,2022-10-26 11:04:30.500000
769,-3.04,2022-10-26 11:04:30.515625
770,-4.05,2022-10-26 11:04:30.531250
771,-4.51,2022-10-26 11:04:30.546875
772,-4.28,2022-10-26 11:04:30.562500
773,-3.47,2022-10-26 11:04:30.578125
774,-2.4,2022-10-26 11:04:30.593750
775,-1.57,2022-10-26 11:04:30.609375
776,-1.41,2022-10-26 11:04:30.625000
777,-2.14,2022-10-26 11:04:30.640625
778,-3.64,2022-10-26 11:04:30.656250
779,-5.5,2022-10-26 11:04:30.671875
780,-7.21,2022-10-26 11:04:30.687500
781,-8.33,2022-10-26 11:04:30.703125
782,-8.72,2022-10-26 11:04:30.718750
783,-8.51,2022-10-26 11:04:30.734375
784,-7.99,2022-10-26 11:04:30.750000
785,-7.42,2022-10-26 11:04:30.765625
786,-6.92,2022-10-26 11:04:30.781250
787,-6.48,2022-10-26 11:04:30.796875
788,-6.1,2022-10-26 11:04:30.812500
789,-5.79,2022-10-26 11:04:30.828125
790,-5.66,2022-10-26 11:04:30.843750
791,-5.79,2022-10-26 11:04:30.859375
792,-6.17,2022-10-26 11:04:30.875000
793,-6.68,2022-10-26 11:04:30.890625
794,-7.15,2022-10-26 11:04:30.906250
795,-7.51,2022-10-26 11:04:30.921875
796,-7.76,2022-10-26 11:04:30.937500
797,-8.01,2022-10-26 11:04:30.953125
798,-8.3,2022-10-26 11:04:30.968750
799,-8.55,2022-10-26 11:04:30.984375
800,-8.58,2022-10-26 11:04:31.000000
801,-8.17,2022-10-26 11:04:31.015625
802,-7.22,2022-10-26 11:04:31.031250
803,-5.72,2022-10-26 11:04:31.046875
804,-3.82,2022-10-26 11:04:31.062500
805,-1.67,2022-10-26 11:04:31.078125
806,0.55,2022-10-26 11:04:31.093750
807,2.65,2022-10-26 11:04:31.109375
808,4.41,2022-10-26 11:04:31.125000
809,5.64,2022-10-26 11:04:31.140625
810,6.21,2022-10-26 11:04:31.156250
811,6.13,2022-10-26 11:04:31.171875
812,5.57,2022-10-26 11:04:31.187500
813,4.88,2022-10-26 11:04:31.203125
814,4.42,2022-10-26 11:04:31.218750
815,4.5,2022-10-26 11:04:31.234375
816,5.28,2022-10-26 11:04:31.250000
817,6.76,2022-10-26 11:04:31.265625
818,8.82,2022-10-26 11:04:31.281250
819,11.2,2022-10-26 11:04:31.296875
820,13.6,2022-10-26 11:04:31.312500
821,15.72,2022-10-26 11:04:31.328125
822,17.38,2022-10-26 11:04:31.343750
823,18.51,2022-10-26 11:04:31.359375
824,19.16,2022-10-26 11:04:31.375000
825,19.38,2022-10-26 11:04:31.390625
826,19.14,2022-10-26 11:04:31.406250
827,18.35,2022-10-26 11:04:31.421875
828,16.97,2022-10-26 11:04:31.437500
829,15.06,2022-10-26 11:04:31.453125
830,12.83,2022-10-26 11:04:31.468750
831,10.58,2022-10-26 11:04:31.484375
832,8.57,2022-10-26 11:04:31.500000
833,6.93,2022-10-26 11:04:31.515625
834,5.66,2022-10-26 11:04:31.531250
835,4.63,2022-10-26 11:04:31.546875
836,3.76,2022-10-26 11:04:31.562500
837,3.06,2022-10-26 11:04:31.578125
838,2.65,2022-10-26 11:04:31.593750
839,2.69,2022-10-26 11:04:31.609375
840,3.29,2022-10-26 11:04:31.625000
841,4.42,2022-10-26 11:04:31.640625
842,5.86,2022-10-26 11:04:31.656250
843,7.28,2022-10-26 11:04:31.671875
844,8.27,2022-10-26 11:04:31.687500
845,8.5,2022-10-26 11:04:31.703125
846,7.81,2022-10-26 11:04:31.718750
847,6.22,2022-10-26 11:04:31.734375
848,3.94,2022-10-26 11:04:31.750000
849,1.3,2022-10-26 11:04:31.765625
850,-1.34,2022-10-26 11:04:31.781250
851,-3.63,2022-10-26 11:04:31.796875
852,-5.31,2022-10-26 11:04:31.812500
853,-6.3,2022-10-26 11:04:31.828125
854,-6.66,2022-10-26 11:04:31.843750
855,-6.65,2022-10-26 11:04:31.859375
856,-6.58,2022-10-26 11:04:31.875000
857,-6.65,2022-10-26 11:04:31.890625
858,-6.82,2022-10-26 11:04:31.906250
859,-6.91,2022-10-26 11:04:31.921875
860,-6.64,2022-10-26 11:04:31.937500
861,-5.9,2022-10-26 11:04:31.953125
862,-4.75,2022-10-26 11:04:31.968750
863,-3.41,2022-10-26 11:04:31.984375
864,-2.12,2022-10-26 11:04:32.000000
865,-0.96,2022-10-26 11:04:32.015625
866,0.1,2022-10-26 11:04:32.031250
867,1.12,2022-10-26 11:04:32.046875
868,2.08,2022-10-26 11:04:32.062500
869,2.84,2022-10-26 11:04:32.078125
870,3.33,2022-10-26 11:04:32.093750
871,3.6,2022-10-26 11:04:32.109375
872,3.9,2022-10-26 11:04:32.125000
873,4.53,2022-10-26 11:04:32.140625
874,5.71,2022-10-26 11:04:32.156250
875,7.46,2022-10-26 11:04:32.171875
876,9.5,2022-10-26 11:04:32.187500
877,11.52,2022-10-26 11:04:32.203125
878,13.24,2022-10-26 11:04:32.218750
879,14.59,2022-10-26 11:04:32.234375
880,15.61,2022-10-26 11:04:32.250000
881,16.4,2022-10-26 11:04:32.265625
882,16.92,2022-10-26 11:04:32.281250
883,17.08,2022-10-26 11:04:32.296875
884,16.73,2022-10-26 11:04:32.312500
885,15.87,2022-10-26 11:04:32.328125
886,14.68,2022-10-26 11:04:32.343750
887,13.47,2022-10-26 11:04:32.359375
888,12.56,2022-10-26 11:04:32.375000
889,12.18,2022-10-26 11:04:32.390625
890,12.38,2022-10-26 11:04:32.406250
891,13.01,2022-10-26 11:04:32.421875
892,13.81,2022-10-26 11:04:32.437500
893,14.48,2022-10-26 11:04:32.453125
894,14.82,2022-10-26 11:04:32.468750
895,14.81,2022-10-26 11:04:32.484375
896,14.62,2022-10-26 11:04:32.500000
897,14.63,2022-10-26 11:04:32.515625
898,15.24,2022-10-26 11:04:32.531250
899,16.77,2022-10-26 11:04:32.546875
900,19.21,2022-10-26 11:04:32.562500
901,22.29,2022-10-26 11:04:32.578125
902,25.52,2022-10-26 11:04:32.593750
903,28.45,2022-10-26 11:04:32.609375
904,30.84,2022-10-26 11:04:32.625000
905,32.64,2022-10-26 11:04:32.640625
906,33.92,2022-10-26 11:04:32.656250
907,34.7,2022-10-26 11:04:32.671875
908,34.91,2022-10-26 11:04:32.687500
909,34.41,2022-10-26 11:04:32.703125
910,33.17,2022-10-26 11:04:32.718750
911,31.39,2022-10-26 11:04:32.734375
912,29.48,2022-10-26 11:04:32.750000
913,27.87,2022-10-26 11:04:32.765625
914,26.85,2022-10-26 11:04:32.781250
915,26.33,2022-10-26 11:04:32.796875
916,25.91,2022-10-26 11:04:32.812500
917,25.1,2022-10-26 11:04:32.828125
918,23.5,2022-10-26 11:04:32.843750
919,21.04,2022-10-26 11:04:32.859375
920,17.92,2022-10-26 11:04:32.875000
921,14.46,2022-10-26 11:04:32.890625
922,10.93,2022-10-26 11:04:32.906250
923,7.36,2022-10-26 11:04:32.921875
924,3.69,2022-10-26 11:04:32.937500
925,-0.21,2022-10-26 11:04:32.953125
926,-4.33,2022-10-26 11:04:32.968750
927,-8.49,2022-10-26 11:04:32.984375
928,-12.45,2022-10-26 11:04:33.000000
929,-16.03,2022-10-26 11:04:33.015625
930,-19.27,2022-10-26 11:04:33.031250
931,-22.33,2022-10-26 11:04:33.046875
932,-25.39,2022-10-26 11:04:33.062500
933,-28.45,2022-10-26 11:04:33.078125
934,-31.22,2022-10-26 11:04:33.093750
935,-33.19,2022-10-26 11:04:33.109375
936,-33.92,2022-10-26 11:04:33.125000
937,-33.15,2022-10-26 11:04:33.140625
938,-31.02,2022-10-26 11:04:33.156250
939,-27.96,2022-10-26 11:04:33.171875
940,-24.52,2022-10-26 11:04:33.187500
941,-21.19,2022-10-26 11:04:33.203125
942,-18.2,2022-10-26 11:04:33.218750
943,-15.57,2022-10-26 11:04:33.234375
944,-13.23,2022-10-26 11:04:33.250000
945,-11.13,2022-10-26 11:04:33.265625
946,-9.31,2022-10-26 11:04:33.281250
947,-7.86,2022-10-26 11:04:33.296875
948,-6.85,2022-10-26 11:04:33.312500
949,-6.2,2022-10-26 11:04:33.328125
950,-5.71,2022-10-26 11:04:33.343750
951,-5.17,2022-10-26 11:04:33.359375
952,-4.44,2022-10-26 11:04:33.375000
953,-3.55,2022-10-26 11:04:33.390625
954,-2.66,2022-10-26 11:04:33.406250
955,-2.02,2022-10-26 11:04:33.421875
956,-1.8,2022-10-26 11:04:33.437500
957,-2.06,2022-10-26 11:04:33.453125
958,-2.71,2022-10-26 11:04:33.468750
959,-3.51,2022-10-26 11:04:33.484375
960,-4.17,2022-10-26 11:04:33.500000
961,-4.39,2022-10-26 11:04:33.515625
962,-3.94,2022-10-26 11:04:33.531250
963,-2.73,2022-10-26 11:04:33.546875
964,-0.83,2022-10-26 11:04:33.562500
965,1.51,2022-10-26 11:04:33.578125
966,3.94,2022-10-26 11:04:33.593750
967,6.13,2022-10-26 11:04:33.609375
968,7.9,2022-10-26 11:04:33.625000
969,9.24,2022-10-26 11:04:33.640625
970,10.29,2022-10-26 11:04:33.656250
971,11.23,2022-10-26 11:04:33.671875
972,12.13,2022-10-26 11:04:33.687500
973,12.9,2022-10-26 11:04:33.703125
974,13.36,2022-10-26 11:04:33.718750
975,13.39,2022-10-26 11:04:33.734375
976,13.08,2022-10-26 11:04:33.750000
977,12.74,2022-10-26 11:04:33.765625
978,12.82,2022-10-26 11:04:33.781250
979,13.71,2022-10-26 11:04:33.796875
980,15.48,2022-10-26 11:04:33.812500
981,17.84,2022-10-26 11:04:33.828125
982,20.2,2022-10-26 11:04:33.843750
983,21.85,2022-10-26 11:04:33.859375
984,22.3,2022-10-26 11:04:33.875000
985,21.43,2022-10-26 11:04:33.890625
986,19.52,2022-10-26 11:04:33.906250
987,17.11,2022-10-26 11:04:33.921875
988,14.83,2022-10-26 11:04:33.937500
989,13.18,2022-10-26 11:04:33.953125
990,12.38,2022-10-26 11:04:33.968750
991,12.37,2022-10-26 11:04:33.984375
992,12.76,2022-10-26 11:04:34.000000
993,12.99,2022-10-26 11:04:34.015625
994,12.46,2022-10-26 11:04:34.031250
995,10.76,2022-10-26 11:04:34.046875
996,7.83,2022-10-26 11:04:34.062500
997,3.99,2022-10-26 11:04:34.078125
998,-0.11,2022-10-26 11:04:34.093750
999,-3.79,2022-10-26 11:04:34.109375
1000,-6.51,2022-10-26 11:04:34.125000
1001,-8.07,2022-10-26 11:04:34.140625
1002,-8.64,2022-10-26 11:04:34.156250
1003,-8.68,2022-10-26 11:04:34.171875
1004,-8.73,2022-10-26 11:04:34.187500
1005,-9.3,2022-10-26 11:04:34.203125
1006,-10.73,2022-10-26 11:04:34.218750
1007,-13.15,2022-10-26 11:04:34.234375
1008,-16.52,2022-10-26 11:04:34.250000
1009,-20.66,2022-10-26 11:04:34.265625
1010,-25.33,2022-10-26 11:04:34.281250
1011,-30.3,2022-10-26 11:04:34.296875
1012,-35.46,2022-10-26 11:04:34.312500
1013,-40.74,2022-10-26 11:04:34.328125
1014,-46.15,2022-10-26 11:04:34.343750
1015,-51.63,2022-10-26 11:04:34.359375
1016,-56.96,2022-10-26 11:04:34.375000
1017,-61.75,2022-10-26 11:04:34.390625
1018,-65.52,2022-10-26 11:04:34.406250
1019,-67.76,2022-10-26 11:04:34.421875
1020,-68.16,2022-10-26 11:04:34.437500
1021,-66.71,2022-10-26 11:04:34.453125
1022,-63.75,2022-10-26 11:04:34.468750
1023,-59.93,2022-10-26 11:04:34.484375
1024,-55.95,2022-10-26 11:04:34.500000
1025,-52.38,2022-10-26 11:04:34.515625
1026,-49.5,2022-10-26 11:04:34.531250
1027,-47.31,2022-10-26 11:04:34.546875
1028,-45.63,2022-10-26 11:04:34.562500
1029,-44.27,2022-10-26 11:04:34.578125
1030,-43.17,2022-10-26 11:04:34.593750
1031,-42.36,2022-10-26 11:04:34.609375
1032,-41.86,2022-10-26 11:04:34.625000
1033,-41.56,2022-10-26 11:04:34.640625
1034,-41.19,2022-10-26 11:04:34.656250
1035,-40.41,2022-10-26 11:04:34.671875
1036,-39.03,2022-10-26 11:04:34.687500
1037,-37.01,2022-10-26 11:04:34.703125
1038,-34.46,2022-10-26 11:04:34.718750
1039,-31.56,2022-10-26 11:04:34.734375
1040,-28.35,2022-10-26 11:04:34.750000
1041,-24.74,2022-10-26 11:04:34.765625
1042,-20.53,2022-10-26 11:04:34.781250
1043,-15.59,2022-10-26 11:04:34.796875
1044,-9.94,2022-10-26 11:04:34.812500
1045,-3.83,2022-10-26 11:04:34.828125
1046,2.35,2022-10-26 11:04:34.843750
1047,8.13,2022-10-26 11:04:34.859375
1048,13.12,2022-10-26 11:04:34.875000
1049,17.1,2022-10-26 11:04:34.890625
1050,20.05,2022-10-26 11:04:34.906250
1051,22.11,2022-10-26 11:04:34.921875
1052,23.48,2022-10-26 11:04:34.937500
1053,24.34,2022-10-26 11:04:34.953125
1054,24.76,2022-10-26 11:04:34.968750
1055,24.71,2022-10-26 11:04:34.984375
1056,24.19,2022-10-26 11:04:35.000000
1057,23.28,2022-10-26 11:04:35.015625
1058,22.19,2022-10-26 11:04:35.031250
1059,21.14,2022-10-26 11:04:35.046875
1060,20.21,2022-10-26 11:04:35.062500
1061,19.31,2022-10-26 11:04:35.078125
1062,18.17,2022-10-26 11:04:35.093750
1063,16.58,2022-10-26 11:04:35.109375
1064,14.52,2022-10-26 11:04:35.125000
1065,12.22,2022-10-26 11:04:35.140625
1066,10.04,2022-10-26 11:04:35.156250
1067,8.29,2022-10-26 11:04:35.171875
1068,7.07,2022-10-26 11:04:35.187500
1069,6.25,2022-10-26 11:04:35.203125
1070,5.61,2022-10-26 11:04:35.218750
1071,4.97,2022-10-26 11:04:35.234375
1072,4.29,2022-10-26 11:04:35.250000
1073,3.63,2022-10-26 11:04:35.265625
1074,3.08,2022-10-26 11:04:35.281250
1075,2.66,2022-10-26 11:04:35.296875
1076,2.34,2022-10-26 11:04:35.312500
1077,2.03,2022-10-26 11:04:35.328125
1078,1.66,2022-10-26 11:04:35.343750
1079,1.2,2022-10-26 11:04:35.359375
1080,0.71,2022-10-26 11:04:35.375000
1081,0.25,2022-10-26 11:04:35.390625
1082,-0.02,2022-10-26 11:04:35.406250
1083,0.04,2022-10-26 11:04:35.421875
1084,0.51,2022-10-26 11:04:35.437500
1085,1.33,2022-10-26 11:04:35.453125
1086,2.28,2022-10-26 11:04:35.468750
1087,3.07,2022-10-26 11:04:35.484375
1088,3.5,2022-10-26 11:04:35.500000
1089,3.6,2022-10-26 11:04:35.515625
1090,3.65,2022-10-26 11:04:35.531250
1091,4.01,2022-10-26 11:04:35.546875
1092,4.88,2022-10-26 11:04:35.562500
1093,6.21,2022-10-26 11:04:35.578125
1094,7.68,2022-10-26 11:04:35.593750
1095,8.9,2022-10-26 11:04:35.609375
1096,9.64,2022-10-26 11:04:35.625000
1097,9.91,2022-10-26 11:04:35.640625
1098,9.92,2022-10-26 11:04:35.656250
1099,9.91,2022-10-26 11:04:35.671875
1100,9.98,2022-10-26 11:04:35.687500
1101,10.04,2022-10-26 11:04:35.703125
1102,9.92,2022-10-26 11:04:35.718750
1103,9.48,2022-10-26 11:04:35.734375
1104,8.77,2022-10-26 11:04:35.750000
1105,8.0,2022-10-26 11:04:35.765625
1106,7.41,2022-10-26 11:04:35.781250
1107,7.16,2022-10-26 11:04:35.796875
1108,7.21,2022-10-26 11:04:35.812500
1109,7.4,2022-10-26 11:04:35.828125
1110,7.46,2022-10-26 11:04:35.843750
1111,7.25,2022-10-26 11:04:35.859375
1112,6.74,2022-10-26 11:04:35.875000
1113,6.02,2022-10-26 11:04:35.890625
1114,5.26,2022-10-26 11:04:35.906250
1115,4.56,2022-10-26 11:04:35.921875
1116,3.94,2022-10-26 11:04:35.937500
1117,3.38,2022-10-26 11:04:35.953125
1118,2.8,2022-10-26 11:04:35.968750
1119,2.19,2022-10-26 11:04:35.984375
1120,1.57,2022-10-26 11:04:36.000000
1121,1.0,2022-10-26 11:04:36.015625
1122,0.54,2022-10-26 11:04:36.031250
1123,0.2,2022-10-26 11:04:36.046875
1124,-0.06,2022-10-26 11:04:36.062500
1125,-0.29,2022-10-26 11:04:36.078125
1126,-0.52,2022-10-26 11:04:36.093750
1127,-0.73,2022-10-26 11:04:36.109375
1128,-0.86,2022-10-26 11:04:36.125000
1129,-0.87,2022-10-26 11:04:36.140625
1130,-0.74,2022-10-26 11:04:36.156250
1131,-0.51,2022-10-26 11:04:36.171875
1132,-0.29,2022-10-26 11:04:36.187500
1133,-0.21,2022-10-26 11:04:36.203125
1134,-0.34,2022-10-26 11:04:36.218750
1135,-0.64,2022-10-26 11:04:36.234375
1136,-1.0,2022-10-26 11:04:36.250000
1137,-1.23,2022-10-26 11:04:36.265625
1138,-1.2,2022-10-26 11:04:36.281250
1139,-0.87,2022-10-26 11:04:36.296875
1140,-0.3,2022-10-26 11:04:36.312500
1141,0.41,2022-10-26 11:04:36.328125
1142,1.13,2022-10-26 11:04:36.343750
1143,1.8,2022-10-26 11:04:36.359375
1144,2.37,2022-10-26 11:04:36.375000
1145,2.82,2022-10-26 11:04:36.390625
1146,3.15,2022-10-26 11:04:36.406250
1147,3.34,2022-10-26 11:04:36.421875
1148,3.42,2022-10-26 11:04:36.437500
1149,3.38,2022-10-26 11:04:36.453125
1150,3.25,2022-10-26 11:04:36.468750
1151,3.06,2022-10-26 11:04:36.484375
1152,2.84,2022-10-26 11:04:36.500000
1153,2.63,2022-10-26 11:04:36.515625
1154,2.46,2022-10-26 11:04:36.531250
1155,2.36,2022-10-26 11:04:36.546875
1156,2.3,2022-10-26 11:04:36.562500
1157,2.24,2022-10-26 11:04:36.578125
1158,2.15,2022-10-26 11:04:36.593750
1159,2.05,2022-10-26 11:04:36.609375
1160,1.99,2022-10-26 11:04:36.625000
1161,2.03,2022-10-26 11:04:36.640625
1162,2.17,2022-10-26 11:04:36.656250
1163,2.38,2022-10-26 11:04:36.671875
1164,2.54,2022-10-26 11:04:36.687500
1165,2.52,2022-10-26 11:04:36.703125
1166,2.23,2022-10-26 11:04:36.718750
1167,1.67,2022-10-26 11:04:36.734375
1168,0.9,2022-10-26 11:04:36.750000
1169,0.01,2022-10-26 11:04:36.765625
1170,-0.88,2022-10-26 11:04:36.781250
1171,-1.65,2022-10-26 11:04:36.796875
1172,-2.19,2022-10-26 11:04:36.812500
1173,-2.41,2022-10-26 11:04:36.828125
1174,-2.3,2022-10-26 11:04:36.843750
1175,-1.93,2022-10-26 11:04:36.859375
1176,-1.42,2022-10-26 11:04:36.875000
1177,-0.93,2022-10-26 11:04:36.890625
1178,-0.58,2022-10-26 11:04:36.906250
1179,-0.41,2022-10-26 11:04:36.921875
1180,-0.37,2022-10-26 11:04:36.937500
1181,-0.39,2022-10-26 11:04:36.953125
1182,-0.39,2022-10-26 11:04:36.968750
1183,-0.37,2022-10-26 11:04:36.984375
1184,-0.4,2022-10-26 11:04:37.000000
1185,-0.55,2022-10-26 11:04:37.015625
1186,-0.87,2022-10-26 11:04:37.031250
1187,-1.34,2022-10-26 11:04:37.046875
1188,-1.88,2022-10-26 11:04:37.062500
1189,-2.35,2022-10-26 11:04:37.078125
1190,-2.69,2022-10-26 11:04:37.093750
1191,-2.87,2022-10-26 11:04:37.109375
1192,-2.94,2022-10-26 11:04:37.125000
1193,-2.99,2022-10-26 11:04:37.140625
1194,-3.09,2022-10-26 11:04:37.156250
1195,-3.25,2022-10-26 11:04:37.171875
1196,-3.43,2022-10-26 11:04:37.187500
1197,-3.55,2022-10-26 11:04:37.203125
1198,-3.6,2022-10-26 11:04:37.218750
1199,-3.61,2022-10-26 11:04:37.234375
1200,-3.65,2022-10-26 11:04:37.250000
1201,-3.78,2022-10-26 11:04:37.265625
1202,-4.04,2022-10-26 11:04:37.281250
1203,-4.42,2022-10-26 11:04:37.296875
1204,-4.86,2022-10-26 11:04:37.312500
1205,-5.32,2022-10-26 11:04:37.328125
1206,-5.76,2022-10-26 11:04:37.343750
1207,-6.13,2022-10-26 11:04:37.359375
1208,-6.37,2022-10-26 11:04:37.375000
1209,-6.42,2022-10-26 11:04:37.390625
1210,-6.2,2022-10-26 11:04:37.406250
1211,-5.72,2022-10-26 11:04:37.421875
1212,-4.99,2022-10-26 11:04:37.437500
1213,-4.05,2022-10-26 11:04:37.453125
1214,-2.96,2022-10-26 11:04:37.468750
1215,-1.78,2022-10-26 11:04:37.484375
1216,-0.57,2022-10-26 11:04:37.500000
1217,0.56,2022-10-26 11:04:37.515625
1218,1.52,2022-10-26 11:04:37.531250
1219,2.24,2022-10-26 11:04:37.546875
1220,2.7,2022-10-26 11:04:37.562500
1221,2.92,2022-10-26 11:04:37.578125
1222,2.95,2022-10-26 11:04:37.593750
1223,2.82,2022-10-26 11:04:37.609375
1224,2.56,2022-10-26 11:04:37.625000
1225,2.16,2022-10-26 11:04:37.640625
1226,1.63,2022-10-26 11:04:37.656250
1227,1.01,2022-10-26 11:04:37.671875
1228,0.36,2022-10-26 11:04:37.687500
1229,-0.28,2022-10-26 11:04:37.703125
1230,-0.86,2022-10-26 11:04:37.718750
1231,-1.34,2022-10-26 11:04:37.734375
1232,-1.68,2022-10-26 11:04:37.750000
1233,-1.82,2022-10-26 11:04:37.765625
1234,-1.73,2022-10-26 11:04:37.781250
1235,-1.45,2022-10-26 11:04:37.796875
1236,-1.07,2022-10-26 11:04:37.812500
1237,-0.79,2022-10-26 11:04:37.828125
1238,-0.8,2022-10-26 11:04:37.843750
1239,-1.24,2022-10-26 11:04:37.859375
1240,-2.16,2022-10-26 11:04:37.875000
1241,-3.46,2022-10-26 11:04:37.890625
1242,-4.93,2022-10-26 11:04:37.906250
1243,-6.23,2022-10-26 11:04:37.921875
1244,-7.02,2022-10-26 11:04:37.937500
1245,-7.03,2022-10-26 11:04:37.953125
1246,-6.18,2022-10-26 11:04:37.968750
1247,-4.59,2022-10-26 11:04:37.984375
1248,-2.57,2022-10-26 11:04:38.000000
1249,-0.51,2022-10-26 11:04:38.015625
1250,1.29,2022-10-26 11:04:38.031250
1251,2.71,2022-10-26 11:04:38.046875
1252,3.71,2022-10-26 11:04:38.062500
1253,4.37,2022-10-26 11:04:38.078125
1254,4.7,2022-10-26 11:04:38.093750
1255,4.69,2022-10-26 11:04:38.109375
1256,4.35,2022-10-26 11:04:38.125000
1257,3.74,2022-10-26 11:04:38.140625
1258,3.02,2022-10-26 11:04:38.156250
1259,2.37,2022-10-26 11:04:38.171875
1260,1.94,2022-10-26 11:04:38.187500
1261,1.75,2022-10-26 11:04:38.203125
1262,1.69,2022-10-26 11:04:38.218750
1263,1.6,2022-10-26 11:04:38.234375
1264,1.34,2022-10-26 11:04:38.250000
1265,0.88,2022-10-26 11:04:38.265625
1266,0.29,2022-10-26 11:04:38.281250
1267,-0.33,2022-10-26 11:04:38.296875
1268,-0.92,2022-10-26 11:04:38.312500
1269,-1.49,2022-10-26 11:04:38.328125
1270,-2.08,2022-10-26 11:04:38.343750
1271,-2.73,2022-10-26 11:04:38.359375
1272,-3.41,2022-10-26 11:04:38.375000
1273,-4.07,2022-10-26 11:04:38.390625
1274,-4.67,2022-10-26 11:04:38.406250
1275,-5.2,2022-10-26 11:04:38.421875
1276,-5.79,2022-10-26 11:04:38.437500
1277,-6.57,2022-10-26 11:04:38.453125
1278,-7.62,2022-10-26 11:04:38.468750
1279,-8.88,2022-10-26 11:04:38.484375
1280,-10.09,2022-10-26 11:04:38.500000
1281,-10.9,2022-10-26 11:04:38.515625
1282,-11.0,2022-10-26 11:04:38.531250
1283,-10.25,2022-10-26 11:04:38.546875
1284,-8.77,2022-10-26 11:04:38.562500
1285,-6.89,2022-10-26 11:04:38.578125
1286,-4.96,2022-10-26 11:04:38.593750
1287,-3.24,2022-10-26 11:04:38.609375
1288,-1.82,2022-10-26 11:04:38.625000
1289,-0.63,2022-10-26 11:04:38.640625
1290,0.44,2022-10-26 11:04:38.656250
1291,1.42,2022-10-26 11:04:38.671875
1292,2.17,2022-10-26 11:04:38.687500
1293,2.52,2022-10-26 11:04:38.703125
1294,2.31,2022-10-26 11:04:38.718750
1295,1.56,2022-10-26 11:04:38.734375
1296,0.48,2022-10-26 11:04:38.750000
1297,-0.62,2022-10-26 11:04:38.765625
1298,-1.47,2022-10-26 11:04:38.781250
1299,-1.98,2022-10-26 11:04:38.796875
1300,-2.22,2022-10-26 11:04:38.812500
1301,-2.43,2022-10-26 11:04:38.828125
1302,-2.78,2022-10-26 11:04:38.843750
1303,-3.34,2022-10-26 11:04:38.859375
1304,-4.02,2022-10-26 11:04:38.875000
1305,-4.64,2022-10-26 11:04:38.890625
1306,-5.01,2022-10-26 11:04:38.906250
1307,-5.06,2022-10-26 11:04:38.921875
1308,-4.86,2022-10-26 11:04:38.937500
1309,-4.59,2022-10-26 11:04:38.953125
1310,-4.47,2022-10-26 11:04:38.968750
1311,-4.69,2022-10-26 11:04:38.984375
1312,-5.39,2022-10-26 11:04:39.000000
1313,-6.59,2022-10-26 11:04:39.015625
1314,-8.23,2022-10-26 11:04:39.031250
1315,-10.18,2022-10-26 11:04:39.046875
1316,-12.19,2022-10-26 11:04:39.062500
1317,-13.98,2022-10-26 11:04:39.078125
1318,-15.21,2022-10-26 11:04:39.093750
1319,-15.58,2022-10-26 11:04:39.109375
1320,-14.86,2022-10-26 11:04:39.125000
1321,-13.05,2022-10-26 11:04:39.140625
1322,-10.36,2022-10-26 11:04:39.156250
1323,-7.18,2022-10-26 11:04:39.171875
1324,-3.97,2022-10-26 11:04:39.187500
1325,-1.12,2022-10-26 11:04:39.203125
1326,1.15,2022-10-26 11:04:39.218750
1327,2.79,2022-10-26 11:04:39.234375
1328,3.88,2022-10-26 11:04:39.250000
1329,4.53,2022-10-26 11:04:39.265625
1330,4.84,2022-10-26 11:04:39.281250
1331,4.83,2022-10-26 11:04:39.296875
1332,4.52,2022-10-26 11:04:39.312500
1333,3.93,2022-10-26 11:04:39.328125
1334,3.16,2022-10-26 11:04:39.343750
1335,2.33,2022-10-26 11:04:39.359375
1336,1.56,2022-10-26 11:04:39.375000
1337,0.95,2022-10-26 11:04:39.390625
1338,0.53,2022-10-26 11:04:39.406250
1339,0.28,2022-10-26 11:04:39.421875
1340,0.18,2022-10-26 11:04:39.437500
1341,0.17,2022-10-26 11:04:39.453125
1342,0.21,2022-10-26 11:04:39.468750
1343,0.24,2022-10-26 11:04:39.484375
1344,0.21,2022-10-26 11:04:39.500000
1345,-0.0,2022-10-26 11:04:39.515625
1346,-0.46,2022-10-26 11:04:39.531250
1347,-1.21,2022-10-26 11:04:39.546875
1348,-2.18,2022-10-26 11:04:39.562500
1349,-3.24,2022-10-26 11:04:39.578125
1350,-4.27,2022-10-26 11:04:39.593750
1351,-5.19,2022-10-26 11:04:39.609375
1352,-6.01,2022-10-26 11:04:39.625000
1353,-6.86,2022-10-26 11:04:39.640625
1354,-7.93,2022-10-26 11:04:39.656250
1355,-9.4,2022-10-26 11:04:39.671875
1356,-11.36,2022-10-26 11:04:39.687500
1357,-13.8,2022-10-26 11:04:39.703125
1358,-16.5,2022-10-26 11:04:39.718750
1359,-19.07,2022-10-26 11:04:39.734375
1360,-20.95,2022-10-26 11:04:39.750000
1361,-21.58,2022-10-26 11:04:39.765625
1362,-20.6,2022-10-26 11:04:39.781250
1363,-17.91,2022-10-26 11:04:39.796875
1364,-13.83,2022-10-26 11:04:39.812500
1365,-8.94,2022-10-26 11:04:39.828125
1366,-3.92,2022-10-26 11:04:39.843750
1367,0.61,2022-10-26 11:04:39.859375
1368,4.3,2022-10-26 11:04:39.875000
1369,7.04,2022-10-26 11:04:39.890625
1370,8.93,2022-10-26 11:04:39.906250
1371,10.15,2022-10-26 11:04:39.921875
1372,10.85,2022-10-26 11:04:39.937500
1373,11.1,2022-10-26 11:04:39.953125
1374,10.94,2022-10-26 11:04:39.968750
1375,10.39,2022-10-26 11:04:39.984375
1376,9.57,2022-10-26 11:04:40.000000
1377,8.62,2022-10-26 11:04:40.015625
1378,7.73,2022-10-26 11:04:40.031250
1379,7.05,2022-10-26 11:04:40.046875
1380,6.66,2022-10-26 11:04:40.062500
1381,6.55,2022-10-26 11:04:40.078125
1382,6.66,2022-10-26 11:04:40.093750
1383,6.91,2022-10-26 11:04:40.109375
1384,7.24,2022-10-26 11:04:40.125000
1385,7.61,2022-10-26 11:04:40.140625
1386,7.95,2022-10-26 11:04:40.156250
1387,8.21,2022-10-26 11:04:40.171875
1388,8.3,2022-10-26 11:04:40.187500
1389,8.15,2022-10-26 11:04:40.203125
1390,7.74,2022-10-26 11:04:40.218750
1391,7.1,2022-10-26 11:04:40.234375
1392,6.24,2022-10-26 11:04:40.250000
1393,5.21,2022-10-26 11:04:40.265625
1394,4.02,2022-10-26 11:04:40.281250
1395,2.66,2022-10-26 11:04:40.296875
1396,1.13,2022-10-26 11:04:40.312500
1397,-0.55,2022-10-26 11:04:40.328125
1398,-2.33,2022-10-26 11:04:40.343750
1399,-4.13,2022-10-26 11:04:40.359375
1400,-5.89,2022-10-26 11:04:40.375000
1401,-7.61,2022-10-26 11:04:40.390625
1402,-9.37,2022-10-26 11:04:40.406250
1403,-11.31,2022-10-26 11:04:40.421875
1404,-13.56,2022-10-26 11:04:40.437500
1405,-16.15,2022-10-26 11:04:40.453125
1406,-18.93,2022-10-26 11:04:40.468750
1407,-21.54,2022-10-26 11:04:40.484375
1408,-23.43,2022-10-26 11:04:40.500000
1409,-24.07,2022-10-26 11:04:40.515625
1410,-23.05,2022-10-26 11:04:40.531250
1411,-20.27,2022-10-26 11:04:40.546875
1412,-15.97,2022-10-26 11:04:40.562500
1413,-10.66,2022-10-26 11:04:40.578125
1414,-4.91,2022-10-26 11:04:40.593750
1415,0.71,2022-10-26 11:04:40.609375
1416,5.82,2022-10-26 11:04:40.625000
1417,10.17,2022-10-26 11:04:40.640625
1418,13.62,2022-10-26 11:04:40.656250
1419,16.09,2022-10-26 11:04:40.671875
1420,17.54,2022-10-26 11:04:40.687500
1421,18.0,2022-10-26 11:04:40.703125
1422,17.65,2022-10-26 11:04:40.718750
1423,16.76,2022-10-26 11:04:40.734375
1424,15.71,2022-10-26 11:04:40.750000
1425,14.82,2022-10-26 11:04:40.765625
1426,14.29,2022-10-26 11:04:40.781250
1427,14.15,2022-10-26 11:04:40.796875
1428,14.3,2022-10-26 11:04:40.812500
1429,14.54,2022-10-26 11:04:40.828125
1430,14.75,2022-10-26 11:04:40.843750
1431,14.9,2022-10-26 11:04:40.859375
1432,15.09,2022-10-26 11:04:40.875000
1433,15.46,2022-10-26 11:04:40.890625
1434,16.12,2022-10-26 11:04:40.906250
1435,17.0,2022-10-26 11:04:40.921875
1436,17.93,2022-10-26 11:04:40.937500
1437,18.63,2022-10-26 11:04:40.953125
1438,18.84,2022-10-26 11:04:40.968750
1439,18.42,2022-10-26 11:04:40.984375
1440,17.41,2022-10-26 11:04:41.000000
1441,15.95,2022-10-26 11:04:41.015625
1442,14.27,2022-10-26 11:04:41.031250
1443,12.55,2022-10-26 11:04:41.046875
1444,10.89,2022-10-26 11:04:41.062500
1445,9.26,2022-10-26 11:04:41.078125
1446,7.6,2022-10-26 11:04:41.093750
1447,5.87,2022-10-26 11:04:41.109375
1448,4.06,2022-10-26 11:04:41.125000
1449,2.23,2022-10-26 11:04:41.140625
1450,0.44,2022-10-26 11:04:41.156250
1451,-1.25,2022-10-26 11:04:41.171875
1452,-2.85,2022-10-26 11:04:41.187500
1453,-4.39,2022-10-26 11:04:41.203125
1454,-5.91,2022-10-26 11:04:41.218750
1455,-7.47,2022-10-26 11:04:41.234375
1456,-9.11,2022-10-26 11:04:41.250000
1457,-10.96,2022-10-26 11:04:41.265625
1458,-13.13,2022-10-26 11:04:41.281250
1459,-15.66,2022-10-26 11:04:41.296875
1460,-18.43,2022-10-26 11:04:41.312500
1461,-21.03,2022-10-26 11:04:41.328125
1462,-22.87,2022-10-26 11:04:41.343750
1463,-23.32,2022-10-26 11:04:41.359375
1464,-21.93,2022-10-26 11:04:41.375000
1465,-18.63,2022-10-26 11:04:41.390625
1466,-13.7,2022-10-26 11:04:41.406250
1467,-7.76,2022-10-26 11:04:41.421875
1468,-1.52,2022-10-26 11:04:41.437500
1469,4.37,2022-10-26 11:04:41.453125
1470,9.46,2022-10-26 11:04:41.468750
1471,13.52,2022-10-26 11:04:41.484375
1472,16.46,2022-10-26 11:04:41.500000
1473,18.33,2022-10-26 11:04:41.515625
1474,19.2,2022-10-26 11:04:41.531250
1475,19.24,2022-10-26 11:04:41.546875
1476,18.66,2022-10-26 11:04:41.562500
1477,17.7,2022-10-26 11:04:41.578125
1478,16.64,2022-10-26 11:04:41.593750
1479,15.73,2022-10-26 11:04:41.609375
1480,15.14,2022-10-26 11:04:41.625000
1481,14.96,2022-10-26 11:04:41.640625
1482,15.19,2022-10-26 11:04:41.656250
1483,15.73,2022-10-26 11:04:41.671875
1484,16.42,2022-10-26 11:04:41.687500
1485,17.08,2022-10-26 11:04:41.703125
1486,17.59,2022-10-26 11:04:41.718750
1487,17.93,2022-10-26 11:04:41.734375
1488,18.17,2022-10-26 11:04:41.750000
1489,18.42,2022-10-26 11:04:41.765625
1490,18.76,2022-10-26 11:04:41.781250
1491,19.17,2022-10-26 11:04:41.796875
1492,19.5,2022-10-26 11:04:41.812500
1493,19.56,2022-10-26 11:04:41.828125
1494,19.17,2022-10-26 11:04:41.843750
1495,18.29,2022-10-26 11:04:41.859375
1496,17.02,2022-10-26 11:04:41.875000
1497,15.55,2022-10-26 11:04:41.890625
1498,14.04,2022-10-26 11:04:41.906250
1499,12.59,2022-10-26 11:04:41.921875
1500,11.19,2022-10-26 11:04:41.937500
1501,9.8,2022-10-26 11:04:41.953125
1502,8.36,2022-10-26 11:04:41.968750
1503,6.86,2022-10-26 11:04:41.984375
1504,5.32,2022-10-26 11:04:42.000000
1505,3.78,2022-10-26 11:04:42.015625
1506,2.27,2022-10-26 11:04:42.031250
1507,0.81,2022-10-26 11:04:42.046875
1508,-0.59,2022-10-26 11:04:42.062500
1509,-1.96,2022-10-26 11:04:42.078125
1510,-3.37,2022-10-26 11:04:42.093750
1511,-4.95,2022-10-26 11:04:42.109375
1512,-6.84,2022-10-26 11:04:42.125000
1513,-9.18,2022-10-26 11:04:42.140625
1514,-12.03,2022-10-26 11:04:42.156250
1515,-15.32,2022-10-26 11:04:42.171875
1516,-18.75,2022-10-26 11:04:42.187500
1517,-21.85,2022-10-26 11:04:42.203125
1518,-24.06,2022-10-26 11:04:42.218750
1519,-24.82,2022-10-26 11:04:42.234375
1520,-23.77,2022-10-26 11:04:42.250000
1521,-20.84,2022-10-26 11:04:42.265625
1522,-16.3,2022-10-26 11:04:42.281250
1523,-10.71,2022-10-26 11:04:42.296875
1524,-4.8,2022-10-26 11:04:42.312500
1525,0.79,2022-10-26 11:04:42.328125
1526,5.56,2022-10-26 11:04:42.343750
1527,9.32,2022-10-26 11:04:42.359375
1528,12.05,2022-10-26 11:04:42.375000
1529,13.86,2022-10-26 11:04:42.390625
1530,14.89,2022-10-26 11:04:42.406250
1531,15.24,2022-10-26 11:04:42.421875
1532,15.0,2022-10-26 11:04:42.437500
1533,14.27,2022-10-26 11:04:42.453125
1534,13.2,2022-10-26 11:04:42.468750
1535,11.94,2022-10-26 11:04:42.484375
1536,10.68,2022-10-26 11:04:42.500000
1537,9.56,2022-10-26 11:04:42.515625
1538,8.67,2022-10-26 11:04:42.531250
1539,8.05,2022-10-26 11:04:42.546875
1540,7.72,2022-10-26 11:04:42.562500
1541,7.67,2022-10-26 11:04:42.578125
1542,7.85,2022-10-26 11:04:42.593750
1543,8.24,2022-10-26 11:04:42.609375
1544,8.74,2022-10-26 11:04:42.625000
1545,9.28,2022-10-26 11:04:42.640625
1546,9.73,2022-10-26 11:04:42.656250
1547,10.03,2022-10-26 11:04:42.671875
1548,10.13,2022-10-26 11:04:42.687500
1549,10.02,2022-10-26 11:04:42.703125
1550,9.69,2022-10-26 11:04:42.718750
1551,9.17,2022-10-26 11:04:42.734375
1552,8.5,2022-10-26 11:04:42.750000
1553,7.71,2022-10-26 11:04:42.765625
1554,6.87,2022-10-26 11:04:42.781250
1555,6.0,2022-10-26 11:04:42.796875
1556,5.07,2022-10-26 11:04:42.812500
1557,3.98,2022-10-26 11:04:42.828125
1558,2.63,2022-10-26 11:04:42.843750
1559,1.01,2022-10-26 11:04:42.859375
1560,-0.75,2022-10-26 11:04:42.875000
1561,-2.43,2022-10-26 11:04:42.890625
1562,-3.77,2022-10-26 11:04:42.906250
1563,-4.6,2022-10-26 11:04:42.921875
1564,-5.01,2022-10-26 11:04:42.937500
1565,-5.24,2022-10-26 11:04:42.953125
1566,-5.68,2022-10-26 11:04:42.968750
1567,-6.6,2022-10-26 11:04:42.984375
1568,-8.14,2022-10-26 11:04:43.000000
1569,-10.26,2022-10-26 11:04:43.015625
1570,-12.76,2022-10-26 11:04:43.031250
1571,-15.36,2022-10-26 11:04:43.046875
1572,-17.7,2022-10-26 11:04:43.062500
1573,-19.38,2022-10-26 11:04:43.078125
1574,-19.96,2022-10-26 11:04:43.093750
1575,-19.12,2022-10-26 11:04:43.109375
1576,-16.77,2022-10-26 11:04:43.125000
1577,-13.13,2022-10-26 11:04:43.140625
1578,-8.7,2022-10-26 11:04:43.156250
1579,-4.1,2022-10-26 11:04:43.171875
1580,0.1,2022-10-26 11:04:43.187500
1581,3.6,2022-10-26 11:04:43.203125
1582,6.34,2022-10-26 11:04:43.218750
1583,8.41,2022-10-26 11:04:43.234375
1584,9.91,2022-10-26 11:04:43.250000
1585,10.9,2022-10-26 11:04:43.265625
1586,11.32,2022-10-26 11:04:43.281250
1587,11.16,2022-10-26 11:04:43.296875
1588,10.51,2022-10-26 11:04:43.312500
1589,9.61,2022-10-26 11:04:43.328125
1590,8.76,2022-10-26 11:04:43.343750
1591,8.26,2022-10-26 11:04:43.359375
1592,8.27,2022-10-26 11:04:43.375000
1593,8.79,2022-10-26 11:04:43.390625
1594,9.66,2022-10-26 11:04:43.406250
1595,10.67,2022-10-26 11:04:43.421875
1596,11.67,2022-10-26 11:04:43.437500
1597,12.63,2022-10-26 11:04:43.453125
1598,13.57,2022-10-26 11:04:43.468750
1599,14.55,2022-10-26 11:04:43.484375
1600,15.51,2022-10-26 11:04:43.500000
1601,16.34,2022-10-26 11:04:43.515625
1602,16.86,2022-10-26 11:04:43.531250
1603,16.95,2022-10-26 11:04:43.546875
1604,16.59,2022-10-26 11:04:43.562500
1605,15.89,2022-10-26 11:04:43.578125
1606,15.04,2022-10-26 11:04:43.593750
1607,14.21,2022-10-26 11:04:43.609375
1608,13.43,2022-10-26 11:04:43.625000
1609,12.65,2022-10-26 11:04:43.640625
1610,11.73,2022-10-26 11:04:43.656250
1611,10.56,2022-10-26 11:04:43.671875
1612,9.09,2022-10-26 11:04:43.687500
1613,7.39,2022-10-26 11:04:43.703125
1614,5.58,2022-10-26 11:04:43.718750
1615,3.74,2022-10-26 11:04:43.734375
1616,1.91,2022-10-26 11:04:43.750000
1617,0.07,2022-10-26 11:04:43.765625
1618,-1.85,2022-10-26 11:04:43.781250
1619,-3.84,2022-10-26 11:04:43.796875
1620,-5.84,2022-10-26 11:04:43.812500
1621,-7.79,2022-10-26 11:04:43.828125
1622,-9.62,2022-10-26 11:04:43.843750
1623,-11.41,2022-10-26 11:04:43.859375
1624,-13.28,2022-10-26 11:04:43.875000
1625,-15.43,2022-10-26 11:04:43.890625
1626,-18.02,2022-10-26 11:04:43.906250
1627,-21.07,2022-10-26 11:04:43.921875
1628,-24.41,2022-10-26 11:04:43.937500
1629,-27.71,2022-10-26 11:04:43.953125
1630,-30.45,2022-10-26 11:04:43.968750
1631,-32.09,2022-10-26 11:04:43.984375
1632,-32.15,2022-10-26 11:04:44.000000
1633,-30.37,2022-10-26 11:04:44.015625
1634,-26.85,2022-10-26 11:04:44.031250
1635,-22.0,2022-10-26 11:04:44.046875
1636,-16.52,2022-10-26 11:04:44.062500
1637,-11.11,2022-10-26 11:04:44.078125
1638,-6.41,2022-10-26 11:04:44.093750
1639,-2.75,2022-10-26 11:04:44.109375
1640,-0.19,2022-10-26 11:04:44.125000
1641,1.39,2022-10-26 11:04:44.140625
1642,2.25,2022-10-26 11:04:44.156250
1643,2.64,2022-10-26 11:04:44.171875
1644,2.82,2022-10-26 11:04:44.187500
1645,3.01,2022-10-26 11:04:44.203125
1646,3.35,2022-10-26 11:04:44.218750
1647,3.91,2022-10-26 11:04:44.234375
1648,4.68,2022-10-26 11:04:44.250000
1649,5.55,2022-10-26 11:04:44.265625
1650,6.37,2022-10-26 11:04:44.281250
1651,7.05,2022-10-26 11:04:44.296875
1652,7.52,2022-10-26 11:04:44.312500
1653,7.82,2022-10-26 11:04:44.328125
1654,8.03,2022-10-26 11:04:44.343750
1655,8.22,2022-10-26 11:04:44.359375
1656,8.45,2022-10-26 11:04:44.375000
1657,8.75,2022-10-26 11:04:44.390625
1658,9.06,2022-10-26 11:04:44.406250
1659,9.31,2022-10-26 11:04:44.421875
1660,9.42,2022-10-26 11:04:44.437500
1661,9.28,2022-10-26 11:04:44.453125
1662,8.84,2022-10-26 11:04:44.468750
1663,8.11,2022-10-26 11:04:44.484375
1664,7.15,2022-10-26 11:04:44.500000
1665,6.05,2022-10-26 11:04:44.515625
1666,4.94,2022-10-26 11:04:44.531250
1667,3.92,2022-10-26 11:04:44.546875
1668,3.07,2022-10-26 11:04:44.562500
1669,2.42,2022-10-26 11:04:44.578125
1670,1.95,2022-10-26 11:04:44.593750
1671,1.6,2022-10-26 11:04:44.609375
1672,1.32,2022-10-26 11:04:44.625000
1673,1.02,2022-10-26 11:04:44.640625
1674,0.62,2022-10-26 11:04:44.656250
1675,0.07,2022-10-26 11:04:44.671875
1676,-0.69,2022-10-26 11:04:44.687500
1677,-1.68,2022-10-26 11:04:44.703125
1678,-2.89,2022-10-26 11:04:44.718750
1679,-4.24,2022-10-26 11:04:44.734375
1680,-5.62,2022-10-26 11:04:44.750000
1681,-6.87,2022-10-26 11:04:44.765625
1682,-7.92,2022-10-26 11:04:44.781250
1683,-8.78,2022-10-26 11:04:44.796875
1684,-9.6,2022-10-26 11:04:44.812500
1685,-10.64,2022-10-26 11:04:44.828125
1686,-12.16,2022-10-26 11:04:44.843750
1687,-14.33,2022-10-26 11:04:44.859375
1688,-17.17,2022-10-26 11:04:44.875000
1689,-20.41,2022-10-26 11:04:44.890625
1690,-23.62,2022-10-26 11:04:44.906250
1691,-26.2,2022-10-26 11:04:44.921875
1692,-27.6,2022-10-26 11:04:44.937500
1693,-27.41,2022-10-26 11:04:44.953125
1694,-25.47,2022-10-26 11:04:44.968750
1695,-21.92,2022-10-26 11:04:44.984375
1696,-17.2,2022-10-26 11:04:45.000000
1697,-11.87,2022-10-26 11:04:45.015625
1698,-6.55,2022-10-26 11:04:45.031250
1699,-1.72,2022-10-26 11:04:45.046875
1700,2.31,2022-10-26 11:04:45.062500
1701,5.43,2022-10-26 11:04:45.078125
1702,7.68,2022-10-26 11:04:45.093750
1703,9.12,2022-10-26 11:04:45.109375
1704,9.86,2022-10-26 11:04:45.125000
1705,10.01,2022-10-26 11:04:45.140625
1706,9.71,2022-10-26 11:04:45.156250
1707,9.22,2022-10-26 11:04:45.171875
1708,8.8,2022-10-26 11:04:45.187500
1709,8.69,2022-10-26 11:04:45.203125
1710,9.04,2022-10-26 11:04:45.218750
1711,9.82,2022-10-26 11:04:45.234375
1712,10.85,2022-10-26 11:04:45.250000
1713,11.93,2022-10-26 11:04:45.265625
1714,12.86,2022-10-26 11:04:45.281250
1715,13.57,2022-10-26 11:04:45.296875
1716,14.08,2022-10-26 11:04:45.312500
1717,14.49,2022-10-26 11:04:45.328125
1718,14.86,2022-10-26 11:04:45.343750
1719,15.2,2022-10-26 11:04:45.359375
1720,15.44,2022-10-26 11:04:45.375000
1721,15.46,2022-10-26 11:04:45.390625
1722,15.19,2022-10-26 11:04:45.406250
1723,14.64,2022-10-26 11:04:45.421875
1724,13.92,2022-10-26 11:04:45.437500
1725,13.16,2022-10-26 11:04:45.453125
1726,12.49,2022-10-26 11:04:45.468750
1727,11.91,2022-10-26 11:04:45.484375
1728,11.34,2022-10-26 11:04:45.500000
1729,10.59,2022-10-26 11:04:45.515625
1730,9.54,2022-10-26 11:04:45.531250
1731,8.11,2022-10-26 11:04:45.546875
1732,6.44,2022-10-26 11:04:45.562500
1733,4.71,2022-10-26 11:04:45.578125
1734,3.18,2022-10-26 11:04:45.593750
1735,2.02,2022-10-26 11:04:45.609375
1736,1.26,2022-10-26 11:04:45.625000
1737,0.8,2022-10-26 11:04:45.640625
1738,0.37,2022-10-26 11:04:45.656250
1739,-0.3,2022-10-26 11:04:45.671875
1740,-1.4,2022-10-26 11:04:45.687500
1741,-2.93,2022-10-26 11:04:45.703125
1742,-4.69,2022-10-26 11:04:45.718750
1743,-6.4,2022-10-26 11:04:45.734375
1744,-7.81,2022-10-26 11:04:45.750000
1745,-8.86,2022-10-26 11:04:45.765625
1746,-9.71,2022-10-26 11:04:45.781250
1747,-10.65,2022-10-26 11:04:45.796875
1748,-12.01,2022-10-26 11:04:45.812500
1749,-13.95,2022-10-26 11:04:45.828125
1750,-16.42,2022-10-26 11:04:45.843750
1751,-19.11,2022-10-26 11:04:45.859375
1752,-21.56,2022-10-26 11:04:45.875000
1753,-23.27,2022-10-26 11:04:45.890625
1754,-23.86,2022-10-26 11:04:45.906250
1755,-23.1,2022-10-26 11:04:45.921875
1756,-20.96,2022-10-26 11:04:45.937500
1757,-17.66,2022-10-26 11:04:45.953125
1758,-13.54,2022-10-26 11:04:45.968750
1759,-9.07,2022-10-26 11:04:45.984375
1760,-4.69,2022-10-26 11:04:46.000000
1761,-0.74,2022-10-26 11:04:46.015625
1762,2.59,2022-10-26 11:04:46.031250
1763,5.3,2022-10-26 11:04:46.046875
1764,7.48,2022-10-26 11:04:46.062500
1765,9.21,2022-10-26 11:04:46.078125
1766,10.48,2022-10-26 11:04:46.093750
1767,11.23,2022-10-26 11:04:46.109375
1768,11.43,2022-10-26 11:04:46.125000
1769,11.13,2022-10-26 11:04:46.140625
1770,10.55,2022-10-26 11:04:46.156250
1771,9.95,2022-10-26 11:04:46.171875
1772,9.6,2022-10-26 11:04:46.187500
1773,9.6,2022-10-26 11:04:46.203125
1774,9.91,2022-10-26 11:04:46.218750
1775,10.4,2022-10-26 11:04:46.234375
1776,10.96,2022-10-26 11:04:46.250000
1777,11.56,2022-10-26 11:04:46.265625
1778,12.22,2022-10-26 11:04:46.281250
1779,13.01,2022-10-26 11:04:46.296875
1780,13.92,2022-10-26 11:04:46.312500
1781,14.81,2022-10-26 11:04:46.328125
1782,15.49,2022-10-26 11:04:46.343750
1783,15.76,2022-10-26 11:04:46.359375
1784,15.47,2022-10-26 11:04:46.375000
1785,14.64,2022-10-26 11:04:46.390625
1786,13.37,2022-10-26 11:04:46.406250
1787,11.86,2022-10-26 11:04:46.421875
1788,10.32,2022-10-26 11:04:46.437500
1789,8.94,2022-10-26 11:04:46.453125
1790,7.8,2022-10-26 11:04:46.468750
1791,6.92,2022-10-26 11:04:46.484375
1792,6.2,2022-10-26 11:04:46.500000
1793,5.55,2022-10-26 11:04:46.515625
1794,4.9,2022-10-26 11:04:46.531250
1795,4.17,2022-10-26 11:04:46.546875
1796,3.34,2022-10-26 11:04:46.562500
1797,2.41,2022-10-26 11:04:46.578125
1798,1.4,2022-10-26 11:04:46.593750
1799,0.36,2022-10-26 11:04:46.609375
1800,-0.65,2022-10-26 11:04:46.625000
1801,-1.58,2022-10-26 11:04:46.640625
1802,-2.44,2022-10-26 11:04:46.656250
1803,-3.24,2022-10-26 11:04:46.671875
1804,-4.1,2022-10-26 11:04:46.687500
1805,-5.09,2022-10-26 11:04:46.703125
1806,-6.26,2022-10-26 11:04:46.718750
1807,-7.57,2022-10-26 11:04:46.734375
1808,-8.94,2022-10-26 11:04:46.750000
1809,-10.26,2022-10-26 11:04:46.765625
1810,-11.53,2022-10-26 11:04:46.781250
1811,-12.82,2022-10-26 11:04:46.796875
1812,-14.35,2022-10-26 11:04:46.812500
1813,-16.3,2022-10-26 11:04:46.828125
1814,-18.74,2022-10-26 11:04:46.843750
1815,-21.5,2022-10-26 11:04:46.859375
1816,-24.19,2022-10-26 11:04:46.875000
1817,-26.25,2022-10-26 11:04:46.890625
1818,-27.1,2022-10-26 11:04:46.906250
1819,-26.36,2022-10-26 11:04:46.921875
1820,-23.92,2022-10-26 11:04:46.937500
1821,-20.01,2022-10-26 11:04:46.953125
1822,-15.12,2022-10-26 11:04:46.968750
1823,-9.83,2022-10-26 11:04:46.984375
1824,-4.69,2022-10-26 11:04:47.000000
1825,-0.09,2022-10-26 11:04:47.015625
1826,3.77,2022-10-26 11:04:47.031250
1827,6.81,2022-10-26 11:04:47.046875
1828,9.01,2022-10-26 11:04:47.062500
1829,10.38,2022-10-26 11:04:47.078125
1830,10.99,2022-10-26 11:04:47.093750
1831,10.92,2022-10-26 11:04:47.109375
1832,10.39,2022-10-26 11:04:47.125000
1833,9.65,2022-10-26 11:04:47.140625
1834,9.01,2022-10-26 11:04:47.156250
1835,8.7,2022-10-26 11:04:47.171875
1836,8.86,2022-10-26 11:04:47.187500
1837,9.48,2022-10-26 11:04:47.203125
1838,10.44,2022-10-26 11:04:47.218750
1839,11.54,2022-10-26 11:04:47.234375
1840,12.6,2022-10-26 11:04:47.250000
1841,13.47,2022-10-26 11:04:47.265625
1842,14.05,2022-10-26 11:04:47.281250
1843,14.32,2022-10-26 11:04:47.296875
1844,14.32,2022-10-26 11:04:47.312500
1845,14.15,2022-10-26 11:04:47.328125
1846,13.92,2022-10-26 11:04:47.343750
1847,13.68,2022-10-26 11:04:47.359375
1848,13.46,2022-10-26 11:04:47.375000
1849,13.17,2022-10-26 11:04:47.390625
1850,12.66,2022-10-26 11:04:47.406250
1851,11.8,2022-10-26 11:04:47.421875
1852,10.53,2022-10-26 11:04:47.437500
1853,8.91,2022-10-26 11:04:47.453125
1854,7.11,2022-10-26 11:04:47.468750
1855,5.3,2022-10-26 11:04:47.484375
1856,3.66,2022-10-26 11:04:47.500000
1857,2.27,2022-10-26 11:04:47.515625
1858,1.1,2022-10-26 11:04:47.531250
1859,0.1,2022-10-26 11:04:47.546875
1860,-0.8,2022-10-26 11:04:47.562500
1861,-1.64,2022-10-26 11:04:47.578125
1862,-2.46,2022-10-26 11:04:47.593750
1863,-3.26,2022-10-26 11:04:47.609375
1864,-4.06,2022-10-26 11:04:47.625000
1865,-4.92,2022-10-26 11:04:47.640625
1866,-5.87,2022-10-26 11:04:47.656250
1867,-6.98,2022-10-26 11:04:47.671875
1868,-8.26,2022-10-26 11:04:47.687500
1869,-9.67,2022-10-26 11:04:47.703125
1870,-11.14,2022-10-26 11:04:47.718750
1871,-12.54,2022-10-26 11:04:47.734375
1872,-13.78,2022-10-26 11:04:47.750000
1873,-14.8,2022-10-26 11:04:47.765625
1874,-15.65,2022-10-26 11:04:47.781250
1875,-16.45,2022-10-26 11:04:47.796875
1876,-17.34,2022-10-26 11:04:47.812500
1877,-18.46,2022-10-26 11:04:47.828125
1878,-19.88,2022-10-26 11:04:47.843750
1879,-21.63,2022-10-26 11:04:47.859375
1880,-23.63,2022-10-26 11:04:47.875000
1881,-25.67,2022-10-26 11:04:47.890625
1882,-27.4,2022-10-26 11:04:47.906250
1883,-28.36,2022-10-26 11:04:47.921875
1884,-28.09,2022-10-26 11:04:47.937500
1885,-26.27,2022-10-26 11:04:47.953125
1886,-22.89,2022-10-26 11:04:47.968750
1887,-18.27,2022-10-26 11:04:47.984375
1888,-12.95,2022-10-26 11:04:48.000000
1889,-7.54,2022-10-26 11:04:48.015625
1890,-2.53,2022-10-26 11:04:48.031250
1891,1.85,2022-10-26 11:04:48.046875
1892,5.56,2022-10-26 11:04:48.062500
1893,8.68,2022-10-26 11:04:48.078125
1894,11.26,2022-10-26 11:04:48.093750
1895,13.29,2022-10-26 11:04:48.109375
1896,14.69,2022-10-26 11:04:48.125000
1897,15.44,2022-10-26 11:04:48.140625
1898,15.6,2022-10-26 11:04:48.156250
1899,15.37,2022-10-26 11:04:48.171875
1900,14.98,2022-10-26 11:04:48.187500
1901,14.66,2022-10-26 11:04:48.203125
1902,14.54,2022-10-26 11:04:48.218750
1903,14.65,2022-10-26 11:04:48.234375
1904,14.93,2022-10-26 11:04:48.250000
1905,15.34,2022-10-26 11:04:48.265625
1906,15.87,2022-10-26 11:04:48.281250
1907,16.54,2022-10-26 11:04:48.296875
1908,17.34,2022-10-26 11:04:48.312500
1909,18.19,2022-10-26 11:04:48.328125
1910,18.97,2022-10-26 11:04:48.343750
1911,19.53,2022-10-26 11:04:48.359375
1912,19.76,2022-10-26 11:04:48.375000
1913,19.68,2022-10-26 11:04:48.390625
1914,19.32,2022-10-26 11:04:48.406250
1915,18.76,2022-10-26 11:04:48.421875
1916,18.01,2022-10-26 11:04:48.437500
1917,17.08,2022-10-26 11:04:48.453125
1918,15.95,2022-10-26 11:04:48.468750
1919,14.7,2022-10-26 11:04:48.484375
1920,13.47,2022-10-26 11:04:48.500000
1921,12.41,2022-10-26 11:04:48.515625
1922,11.63,2022-10-26 11:04:48.531250
1923,11.08,2022-10-26 11:04:48.546875
1924,10.59,2022-10-26 11:04:48.562500
1925,9.95,2022-10-26 11:04:48.578125
1926,9.02,2022-10-26 11:04:48.593750
1927,7.81,2022-10-26 11:04:48.609375
1928,6.46,2022-10-26 11:04:48.625000
1929,5.16,2022-10-26 11:04:48.640625
1930,4.06,2022-10-26 11:04:48.656250
1931,3.17,2022-10-26 11:04:48.671875
1932,2.39,2022-10-26 11:04:48.687500
1933,1.58,2022-10-26 11:04:48.703125
1934,0.6,2022-10-26 11:04:48.718750
1935,-0.61,2022-10-26 11:04:48.734375
1936,-2.07,2022-10-26 11:04:48.750000
1937,-3.75,2022-10-26 11:04:48.765625
1938,-5.62,2022-10-26 11:04:48.781250
1939,-7.61,2022-10-26 11:04:48.796875
1940,-9.62,2022-10-26 11:04:48.812500
1941,-11.56,2022-10-26 11:04:48.828125
1942,-13.32,2022-10-26 11:04:48.843750
1943,-14.91,2022-10-26 11:04:48.859375
1944,-16.4,2022-10-26 11:04:48.875000
1945,-17.94,2022-10-26 11:04:48.890625
1946,-19.72,2022-10-26 11:04:48.906250
1947,-21.84,2022-10-26 11:04:48.921875
1948,-24.31,2022-10-26 11:04:48.937500
1949,-26.98,2022-10-26 11:04:48.953125
1950,-29.51,2022-10-26 11:04:48.968750
1951,-31.44,2022-10-26 11:04:48.984375
1952,-32.24,2022-10-26 11:04:49.000000
1953,-31.42,2022-10-26 11:04:49.015625
1954,-28.72,2022-10-26 11:04:49.031250
1955,-24.22,2022-10-26 11:04:49.046875
1956,-18.35,2022-10-26 11:04:49.062500
1957,-11.84,2022-10-26 11:04:49.078125
1958,-5.52,2022-10-26 11:04:49.093750
1959,-0.07,2022-10-26 11:04:49.109375
1960,4.09,2022-10-26 11:04:49.125000
1961,6.91,2022-10-26 11:04:49.140625
1962,8.6,2022-10-26 11:04:49.156250
1963,9.5,2022-10-26 11:04:49.171875
1964,9.89,2022-10-26 11:04:49.187500
1965,9.97,2022-10-26 11:04:49.203125
1966,9.8,2022-10-26 11:04:49.218750
1967,9.46,2022-10-26 11:04:49.234375
1968,9.06,2022-10-26 11:04:49.250000
1969,8.77,2022-10-26 11:04:49.265625
1970,8.73,2022-10-26 11:04:49.281250
1971,9.01,2022-10-26 11:04:49.296875
1972,9.55,2022-10-26 11:04:49.312500
1973,10.2,2022-10-26 11:04:49.328125
1974,10.82,2022-10-26 11:04:49.343750
1975,11.35,2022-10-26 11:04:49.359375
1976,11.8,2022-10-26 11:04:49.375000
1977,12.22,2022-10-26 11:04:49.390625
1978,12.64,2022-10-26 11:04:49.406250
1979,12.98,2022-10-26 11:04:49.421875
1980,13.14,2022-10-26 11:04:49.437500
1981,13.06,2022-10-26 11:04:49.453125
1982,12.73,2022-10-26 11:04:49.468750
1983,12.23,2022-10-26 11:04:49.484375
1984,11.64,2022-10-26 11:04:49.500000
1985,11.05,2022-10-26 11:04:49.515625
1986,10.45,2022-10-26 11:04:49.531250
1987,9.79,2022-10-26 11:04:49.546875
1988,9.02,2022-10-26 11:04:49.562500
1989,8.13,2022-10-26 11:04:49.578125
1990,7.14,2022-10-26 11:04:49.593750
1991,6.12,2022-10-26 11:04:49.609375
1992,5.15,2022-10-26 11:04:49.625000
1993,4.3,2022-10-26 11:04:49.640625
1994,3.62,2022-10-26 11:04:49.656250
1995,3.07,2022-10-26 11:04:49.671875
1996,2.6,2022-10-26 11:04:49.687500
1997,2.12,2022-10-26 11:04:49.703125
1998,1.56,2022-10-26 11:04:49.718750
1999,0.9,2022-10-26 11:04:49.734375
2000,0.17,2022-10-26 11:04:49.750000
2001,-0.56,2022-10-26 11:04:49.765625
2002,-1.25,2022-10-26 11:04:49.781250
2003,-1.94,2022-10-26 11:04:49.796875
2004,-2.76,2022-10-26 11:04:49.812500
2005,-3.85,2022-10-26 11:04:49.828125
2006,-5.31,2022-10-26 11:04:49.843750
2007,-7.13,2022-10-26 11:04:49.859375
2008,-9.17,2022-10-26 11:04:49.875000
2009,-11.22,2022-10-26 11:04:49.890625
2010,-13.1,2022-10-26 11:04:49.906250
2011,-14.72,2022-10-26 11:04:49.921875
2012,-16.09,2022-10-26 11:04:49.937500
2013,-17.33,2022-10-26 11:04:49.953125
2014,-18.6,2022-10-26 11:04:49.968750
2015,-20.06,2022-10-26 11:04:49.984375
2016,-21.83,2022-10-26 11:04:50.000000
2017,-23.95,2022-10-26 11:04:50.015625
2018,-26.35,2022-10-26 11:04:50.031250
2019,-28.8,2022-10-26 11:04:50.046875
2020,-30.89,2022-10-26 11:04:50.062500
2021,-32.1,2022-10-26 11:04:50.078125
2022,-31.89,2022-10-26 11:04:50.093750
2023,-29.91,2022-10-26 11:04:50.109375
2024,-26.14,2022-10-26 11:04:50.125000
2025,-20.89,2022-10-26 11:04:50.140625
2026,-14.77,2022-10-26 11:04:50.156250
2027,-8.53,2022-10-26 11:04:50.171875
2028,-2.88,2022-10-26 11:04:50.187500
2029,1.73,2022-10-26 11:04:50.203125
2030,5.12,2022-10-26 11:04:50.218750
2031,7.37,2022-10-26 11:04:50.234375
2032,8.72,2022-10-26 11:04:50.250000
2033,9.37,2022-10-26 11:04:50.265625
2034,9.49,2022-10-26 11:04:50.281250
2035,9.18,2022-10-26 11:04:50.296875
2036,8.55,2022-10-26 11:04:50.312500
2037,7.78,2022-10-26 11:04:50.328125
2038,7.13,2022-10-26 11:04:50.343750
2039,6.86,2022-10-26 11:04:50.359375
2040,7.1,2022-10-26 11:04:50.375000
2041,7.83,2022-10-26 11:04:50.390625
2042,8.87,2022-10-26 11:04:50.406250
2043,10.05,2022-10-26 11:04:50.421875
2044,11.2,2022-10-26 11:04:50.437500
2045,12.28,2022-10-26 11:04:50.453125
2046,13.27,2022-10-26 11:04:50.468750
2047,14.15,2022-10-26 11:04:50.484375
2048,14.84,2022-10-26 11:04:50.500000
2049,15.2,2022-10-26 11:04:50.515625
2050,15.11,2022-10-26 11:04:50.531250
2051,14.52,2022-10-26 11:04:50.546875
2052,13.48,2022-10-26 11:04:50.562500
2053,12.13,2022-10-26 11:04:50.578125
2054,10.61,2022-10-26 11:04:50.593750
2055,9.07,2022-10-26 11:04:50.609375
2056,7.6,2022-10-26 11:04:50.625000
2057,6.22,2022-10-26 11:04:50.640625
2058,4.89,2022-10-26 11:04:50.656250
2059,3.56,2022-10-26 11:04:50.671875
2060,2.15,2022-10-26 11:04:50.687500
2061,0.68,2022-10-26 11:04:50.703125
2062,-0.79,2022-10-26 11:04:50.718750
2063,-2.11,2022-10-26 11:04:50.734375
2064,-3.13,2022-10-26 11:04:50.750000
2065,-3.79,2022-10-26 11:04:50.765625
2066,-4.18,2022-10-26 11:04:50.781250
2067,-4.48,2022-10-26 11:04:50.796875
2068,-4.87,2022-10-26 11:04:50.812500
2069,-5.52,2022-10-26 11:04:50.828125
2070,-6.47,2022-10-26 11:04:50.843750
2071,-7.7,2022-10-26 11:04:50.859375
2072,-9.17,2022-10-26 11:04:50.875000
2073,-10.79,2022-10-26 11:04:50.890625
2074,-12.49,2022-10-26 11:04:50.906250
2075,-14.26,2022-10-26 11:04:50.921875
2076,-16.07,2022-10-26 11:04:50.937500
2077,-17.95,2022-10-26 11:04:50.953125
2078,-19.97,2022-10-26 11:04:50.968750
2079,-22.18,2022-10-26 11:04:50.984375
2080,-24.54,2022-10-26 11:04:51.000000
2081,-26.84,2022-10-26 11:04:51.015625
2082,-28.65,2022-10-26 11:04:51.031250
2083,-29.39,2022-10-26 11:04:51.046875
2084,-28.52,2022-10-26 11:04:51.062500
2085,-25.78,2022-10-26 11:04:51.078125
2086,-21.29,2022-10-26 11:04:51.093750
2087,-15.61,2022-10-26 11:04:51.109375
2088,-9.53,2022-10-26 11:04:51.125000
2089,-3.82,2022-10-26 11:04:51.140625
2090,0.99,2022-10-26 11:04:51.156250
2091,4.74,2022-10-26 11:04:51.171875
2092,7.55,2022-10-26 11:04:51.187500
2093,9.69,2022-10-26 11:04:51.203125
2094,11.37,2022-10-26 11:04:51.218750
2095,12.68,2022-10-26 11:04:51.234375
2096,13.58,2022-10-26 11:04:51.250000
2097,14.07,2022-10-26 11:04:51.265625
2098,14.19,2022-10-26 11:04:51.281250
2099,14.09,2022-10-26 11:04:51.296875
2100,13.96,2022-10-26 11:04:51.312500
2101,13.93,2022-10-26 11:04:51.328125
2102,14.06,2022-10-26 11:04:51.343750
2103,14.33,2022-10-26 11:04:51.359375
2104,14.67,2022-10-26 11:04:51.375000
2105,15.02,2022-10-26 11:04:51.390625
2106,15.34,2022-10-26 11:04:51.406250
2107,15.59,2022-10-26 11:04:51.421875
2108,15.78,2022-10-26 11:04:51.437500
2109,15.86,2022-10-26 11:04:51.453125
2110,15.77,2022-10-26 11:04:51.468750
2111,15.44,2022-10-26 11:04:51.484375
2112,14.83,2022-10-26 11:04:51.500000
2113,13.92,2022-10-26 11:04:51.515625
2114,12.79,2022-10-26 11:04:51.531250
2115,11.55,2022-10-26 11:04:51.546875
2116,10.34,2022-10-26 11:04:51.562500
2117,9.27,2022-10-26 11:04:51.578125
2118,8.35,2022-10-26 11:04:51.593750
2119,7.5,2022-10-26 11:04:51.609375
2120,6.61,2022-10-26 11:04:51.625000
2121,5.61,2022-10-26 11:04:51.640625
2122,4.53,2022-10-26 11:04:51.656250
2123,3.5,2022-10-26 11:04:51.671875
2124,2.64,2022-10-26 11:04:51.687500
2125,2.05,2022-10-26 11:04:51.703125
2126,1.69,2022-10-26 11:04:51.718750
2127,1.39,2022-10-26 11:04:51.734375
2128,1.0,2022-10-26 11:04:51.750000
2129,0.4,2022-10-26 11:04:51.765625
2130,-0.37,2022-10-26 11:04:51.781250
2131,-1.25,2022-10-26 11:04:51.796875
2132,-2.11,2022-10-26 11:04:51.812500
2133,-2.92,2022-10-26 11:04:51.828125
2134,-3.72,2022-10-26 11:04:51.843750
2135,-4.64,2022-10-26 11:04:51.859375
2136,-5.87,2022-10-26 11:04:51.875000
2137,-7.62,2022-10-26 11:04:51.890625
2138,-10.05,2022-10-26 11:04:51.906250
2139,-13.19,2022-10-26 11:04:51.921875
2140,-16.91,2022-10-26 11:04:51.937500
2141,-20.82,2022-10-26 11:04:51.953125
2142,-24.33,2022-10-26 11:04:51.968750
2143,-26.77,2022-10-26 11:04:51.984375
2144,-27.58,2022-10-26 11:04:52.000000
2145,-26.49,2022-10-26 11:04:52.015625
2146,-23.59,2022-10-26 11:04:52.031250
2147,-19.37,2022-10-26 11:04:52.046875
2148,-14.48,2022-10-26 11:04:52.062500
2149,-9.58,2022-10-26 11:04:52.078125
2150,-5.15,2022-10-26 11:04:52.093750
2151,-1.4,2022-10-26 11:04:52.109375
2152,1.61,2022-10-26 11:04:52.125000
2153,3.95,2022-10-26 11:04:52.140625
2154,5.64,2022-10-26 11:04:52.156250
2155,6.64,2022-10-26 11:04:52.171875
2156,6.93,2022-10-26 11:04:52.187500
2157,6.61,2022-10-26 11:04:52.203125
2158,5.92,2022-10-26 11:04:52.218750
2159,5.25,2022-10-26 11:04:52.234375
2160,4.99,2022-10-26 11:04:52.250000
2161,5.42,2022-10-26 11:04:52.265625
2162,6.54,2022-10-26 11:04:52.281250
2163,8.15,2022-10-26 11:04:52.296875
2164,9.94,2022-10-26 11:04:52.312500
2165,11.59,2022-10-26 11:04:52.328125
2166,12.93,2022-10-26 11:04:52.343750
2167,13.88,2022-10-26 11:04:52.359375
2168,14.46,2022-10-26 11:04:52.375000
2169,14.67,2022-10-26 11:04:52.390625
2170,14.5,2022-10-26 11:04:52.406250
2171,13.89,2022-10-26 11:04:52.421875
2172,12.8,2022-10-26 11:04:52.437500
2173,11.24,2022-10-26 11:04:52.453125
2174,9.27,2022-10-26 11:04:52.468750
2175,7.01,2022-10-26 11:04:52.484375
2176,4.63,2022-10-26 11:04:52.500000
2177,2.28,2022-10-26 11:04:52.515625
2178,0.09,2022-10-26 11:04:52.531250
2179,-1.87,2022-10-26 11:04:52.546875
2180,-3.61,2022-10-26 11:04:52.562500
2181,-5.2,2022-10-26 11:04:52.578125
2182,-6.72,2022-10-26 11:04:52.593750
2183,-8.26,2022-10-26 11:04:52.609375
2184,-9.85,2022-10-26 11:04:52.625000
2185,-11.5,2022-10-26 11:04:52.640625
2186,-13.22,2022-10-26 11:04:52.656250
2187,-14.97,2022-10-26 11:04:52.671875
2188,-16.74,2022-10-26 11:04:52.687500
2189,-18.4,2022-10-26 11:04:52.703125
2190,-19.89,2022-10-26 11:04:52.718750
2191,-21.09,2022-10-26 11:04:52.734375
2192,-22.03,2022-10-26 11:04:52.750000
2193,-22.82,2022-10-26 11:04:52.765625
2194,-23.7,2022-10-26 11:04:52.781250
2195,-24.91,2022-10-26 11:04:52.796875
2196,-26.6,2022-10-26 11:04:52.812500
2197,-28.71,2022-10-26 11:04:52.828125
2198,-30.88,2022-10-26 11:04:52.843750
2199,-32.6,2022-10-26 11:04:52.859375
2200,-33.21,2022-10-26 11:04:52.875000
2201,-32.21,2022-10-26 11:04:52.890625
2202,-29.36,2022-10-26 11:04:52.906250
2203,-24.75,2022-10-26 11:04:52.921875
2204,-18.82,2022-10-26 11:04:52.937500
2205,-12.18,2022-10-26 11:04:52.953125
2206,-5.51,2022-10-26 11:04:52.968750
2207,0.6,2022-10-26 11:04:52.984375
2208,5.78,2022-10-26 11:04:53.000000
2209,9.85,2022-10-26 11:04:53.015625
2210,12.84,2022-10-26 11:04:53.031250
2211,14.93,2022-10-26 11:04:53.046875
2212,16.34,2022-10-26 11:04:53.062500
2213,17.32,2022-10-26 11:04:53.078125
2214,18.07,2022-10-26 11:04:53.093750
2215,18.72,2022-10-26 11:04:53.109375
2216,19.31,2022-10-26 11:04:53.125000
2217,19.88,2022-10-26 11:04:53.140625
2218,20.43,2022-10-26 11:04:53.156250
2219,20.98,2022-10-26 11:04:53.171875
2220,21.57,2022-10-26 11:04:53.187500
2221,22.21,2022-10-26 11:04:53.203125
2222,22.88,2022-10-26 11:04:53.218750
2223,23.51,2022-10-26 11:04:53.234375
2224,24.04,2022-10-26 11:04:53.250000
2225,24.37,2022-10-26 11:04:53.265625
2226,24.43,2022-10-26 11:04:53.281250
2227,24.2,2022-10-26 11:04:53.296875
2228,23.63,2022-10-26 11:04:53.312500
2229,22.7,2022-10-26 11:04:53.328125
2230,21.42,2022-10-26 11:04:53.343750
2231,19.81,2022-10-26 11:04:53.359375
2232,17.96,2022-10-26 11:04:53.375000
2233,16.01,2022-10-26 11:04:53.390625
2234,14.15,2022-10-26 11:04:53.406250
2235,12.51,2022-10-26 11:04:53.421875
2236,11.16,2022-10-26 11:04:53.437500
2237,9.98,2022-10-26 11:04:53.453125
2238,8.81,2022-10-26 11:04:53.468750
2239,7.49,2022-10-26 11:04:53.484375
2240,5.95,2022-10-26 11:04:53.500000
2241,4.3,2022-10-26 11:04:53.515625
2242,2.77,2022-10-26 11:04:53.531250
2243,1.54,2022-10-26 11:04:53.546875
2244,0.7,2022-10-26 11:04:53.562500
2245,0.14,2022-10-26 11:04:53.578125
2246,-0.35,2022-10-26 11:04:53.593750
2247,-1.03,2022-10-26 11:04:53.609375
2248,-2.05,2022-10-26 11:04:53.625000
2249,-3.45,2022-10-26 11:04:53.640625
2250,-5.14,2022-10-26 11:04:53.656250
2251,-6.97,2022-10-26 11:04:53.671875
2252,-8.79,2022-10-26 11:04:53.687500
2253,-10.47,2022-10-26 11:04:53.703125
2254,-11.99,2022-10-26 11:04:53.718750
2255,-13.41,2022-10-26 11:04:53.734375
2256,-14.87,2022-10-26 11:04:53.750000
2257,-16.57,2022-10-26 11:04:53.765625
2258,-18.66,2022-10-26 11:04:53.781250
2259,-21.19,2022-10-26 11:04:53.796875
2260,-23.94,2022-10-26 11:04:53.812500
2261,-26.47,2022-10-26 11:04:53.828125
2262,-28.16,2022-10-26 11:04:53.843750
2263,-28.38,2022-10-26 11:04:53.859375
2264,-26.76,2022-10-26 11:04:53.875000
2265,-23.28,2022-10-26 11:04:53.890625
2266,-18.32,2022-10-26 11:04:53.906250
2267,-12.54,2022-10-26 11:04:53.921875
2268,-6.66,2022-10-26 11:04:53.937500
2269,-1.22,2022-10-26 11:04:53.953125
2270,3.45,2022-10-26 11:04:53.968750
2271,7.31,2022-10-26 11:04:53.984375
2272,10.39,2022-10-26 11:04:54.000000
2273,12.77,2022-10-26 11:04:54.015625
2274,14.5,2022-10-26 11:04:54.031250
2275,15.6,2022-10-26 11:04:54.046875
2276,16.15,2022-10-26 11:04:54.062500
2277,16.26,2022-10-26 11:04:54.078125
2278,16.12,2022-10-26 11:04:54.093750
2279,15.89,2022-10-26 11:04:54.109375
2280,15.7,2022-10-26 11:04:54.125000
2281,15.61,2022-10-26 11:04:54.140625
2282,15.65,2022-10-26 11:04:54.156250
2283,15.81,2022-10-26 11:04:54.171875
2284,16.06,2022-10-26 11:04:54.187500
2285,16.38,2022-10-26 11:04:54.203125
2286,16.78,2022-10-26 11:04:54.218750
2287,17.22,2022-10-26 11:04:54.234375
2288,17.69,2022-10-26 11:04:54.250000
2289,18.12,2022-10-26 11:04:54.265625
2290,18.43,2022-10-26 11:04:54.281250
2291,18.53,2022-10-26 11:04:54.296875
2292,18.34,2022-10-26 11:04:54.312500
2293,17.82,2022-10-26 11:04:54.328125
2294,16.98,2022-10-26 11:04:54.343750
2295,15.9,2022-10-26 11:04:54.359375
2296,14.68,2022-10-26 11:04:54.375000
2297,13.41,2022-10-26 11:04:54.390625
2298,12.18,2022-10-26 11:04:54.406250
2299,11.05,2022-10-26 11:04:54.421875
2300,10.03,2022-10-26 11:04:54.437500
2301,9.16,2022-10-26 11:04:54.453125
2302,8.46,2022-10-26 11:04:54.468750
2303,7.88,2022-10-26 11:04:54.484375
2304,7.36,2022-10-26 11:04:54.500000
2305,6.77,2022-10-26 11:04:54.515625
2306,5.99,2022-10-26 11:04:54.531250
2307,4.95,2022-10-26 11:04:54.546875
2308,3.67,2022-10-26 11:04:54.562500
2309,2.25,2022-10-26 11:04:54.578125
2310,0.86,2022-10-26 11:04:54.593750
2311,-0.34,2022-10-26 11:04:54.609375
2312,-1.32,2022-10-26 11:04:54.625000
2313,-2.13,2022-10-26 11:04:54.640625
2314,-2.93,2022-10-26 11:04:54.656250
2315,-3.87,2022-10-26 11:04:54.671875
2316,-5.05,2022-10-26 11:04:54.687500
2317,-6.48,2022-10-26 11:04:54.703125
2318,-8.1,2022-10-26 11:04:54.718750
2319,-9.81,2022-10-26 11:04:54.734375
2320,-11.51,2022-10-26 11:04:54.750000
2321,-13.13,2022-10-26 11:04:54.765625
2322,-14.66,2022-10-26 11:04:54.781250
2323,-16.12,2022-10-26 11:04:54.796875
2324,-17.61,2022-10-26 11:04:54.812500
2325,-19.27,2022-10-26 11:04:54.828125
2326,-21.2,2022-10-26 11:04:54.843750
2327,-23.46,2022-10-26 11:04:54.859375
2328,-25.87,2022-10-26 11:04:54.875000
2329,-28.07,2022-10-26 11:04:54.890625
2330,-29.49,2022-10-26 11:04:54.906250
2331,-29.56,2022-10-26 11:04:54.921875
2332,-27.87,2022-10-26 11:04:54.937500
2333,-24.37,2022-10-26 11:04:54.953125
2334,-19.4,2022-10-26 11:04:54.968750
2335,-13.6,2022-10-26 11:04:54.984375
2336,-7.71,2022-10-26 11:04:55.000000
2337,-2.36,2022-10-26 11:04:55.015625
2338,2.06,2022-10-26 11:04:55.031250
2339,5.43,2022-10-26 11:04:55.046875
2340,7.86,2022-10-26 11:04:55.062500
2341,9.51,2022-10-26 11:04:55.078125
2342,10.59,2022-10-26 11:04:55.093750
2343,11.28,2022-10-26 11:04:55.109375
2344,11.7,2022-10-26 11:04:55.125000
2345,11.99,2022-10-26 11:04:55.140625
2346,12.27,2022-10-26 11:04:55.156250
2347,12.59,2022-10-26 11:04:55.171875
2348,12.98,2022-10-26 11:04:55.187500
2349,13.39,2022-10-26 11:04:55.203125
2350,13.8,2022-10-26 11:04:55.218750
2351,14.19,2022-10-26 11:04:55.234375
2352,14.6,2022-10-26 11:04:55.250000
2353,15.1,2022-10-26 11:04:55.265625
2354,15.73,2022-10-26 11:04:55.281250
2355,16.47,2022-10-26 11:04:55.296875
2356,17.22,2022-10-26 11:04:55.312500
2357,17.82,2022-10-26 11:04:55.328125
2358,18.11,2022-10-26 11:04:55.343750
2359,18.03,2022-10-26 11:04:55.359375
2360,17.59,2022-10-26 11:04:55.375000
2361,16.86,2022-10-26 11:04:55.390625
2362,15.94,2022-10-26 11:04:55.406250
2363,14.93,2022-10-26 11:04:55.421875
2364,13.88,2022-10-26 11:04:55.437500
2365,12.8,2022-10-26 11:04:55.453125
2366,11.72,2022-10-26 11:04:55.468750
2367,10.62,2022-10-26 11:04:55.484375
2368,9.53,2022-10-26 11:04:55.500000
2369,8.45,2022-10-26 11:04:55.515625
2370,7.42,2022-10-26 11:04:55.531250
2371,6.49,2022-10-26 11:04:55.546875
2372,5.68,2022-10-26 11:04:55.562500
2373,5.04,2022-10-26 11:04:55.578125
2374,4.58,2022-10-26 11:04:55.593750
2375,4.27,2022-10-26 11:04:55.609375
2376,4.02,2022-10-26 11:04:55.625000
2377,3.73,2022-10-26 11:04:55.640625
2378,3.27,2022-10-26 11:04:55.656250
2379,2.63,2022-10-26 11:04:55.671875
2380,1.86,2022-10-26 11:04:55.687500
2381,1.06,2022-10-26 11:04:55.703125
2382,0.35,2022-10-26 11:04:55.718750
2383,-0.26,2022-10-26 11:04:55.734375
2384,-0.87,2022-10-26 11:04:55.750000
2385,-1.68,2022-10-26 11:04:55.765625
2386,-2.83,2022-10-26 11:04:55.781250
2387,-4.35,2022-10-26 11:04:55.796875
2388,-6.08,2022-10-26 11:04:55.812500
2389,-7.79,2022-10-26 11:04:55.828125
2390,-9.27,2022-10-26 11:04:55.843750
2391,-10.43,2022-10-26 11:04:55.859375
2392,-11.35,2022-10-26 11:04:55.875000
2393,-12.24,2022-10-26 11:04:55.890625
2394,-13.3,2022-10-26 11:04:55.906250
2395,-14.68,2022-10-26 11:04:55.921875
2396,-16.44,2022-10-26 11:04:55.937500
2397,-18.52,2022-10-26 11:04:55.953125
2398,-20.74,2022-10-26 11:04:55.968750
2399,-22.82,2022-10-26 11:04:55.984375
2400,-24.38,2022-10-26 11:04:56.000000
2401,-24.96,2022-10-26 11:04:56.015625
2402,-24.22,2022-10-26 11:04:56.031250
2403,-22.01,2022-10-26 11:04:56.046875
2404,-18.52,2022-10-26 11:04:56.062500
2405,-14.18,2022-10-26 11:04:56.078125
2406,-9.58,2022-10-26 11:04:56.093750
2407,-5.3,2022-10-26 11:04:56.109375
2408,-1.71,2022-10-26 11:04:56.125000
2409,0.99,2022-10-26 11:04:56.140625
2410,2.82,2022-10-26 11:04:56.156250
2411,3.86,2022-10-26 11:04:56.171875
2412,4.22,2022-10-26 11:04:56.187500
2413,4.02,2022-10-26 11:04:56.203125
2414,3.42,2022-10-26 11:04:56.218750
2415,2.65,2022-10-26 11:04:56.234375
2416,1.96,2022-10-26 11:04:56.250000
2417,1.61,2022-10-26 11:04:56.265625
2418,1.75,2022-10-26 11:04:56.281250
2419,2.37,2022-10-26 11:04:56.296875
2420,3.38,2022-10-26 11:04:56.312500
2421,4.6,2022-10-26 11:04:56.328125
2422,5.82,2022-10-26 11:04:56.343750
2423,6.89,2022-10-26 11:04:56.359375
2424,7.71,2022-10-26 11:04:56.375000
2425,8.29,2022-10-26 11:04:56.390625
2426,8.7,2022-10-26 11:04:56.406250
2427,9.06,2022-10-26 11:04:56.421875
2428,9.5,2022-10-26 11:04:56.437500
2429,10.08,2022-10-26 11:04:56.453125
2430,10.72,2022-10-26 11:04:56.468750
2431,11.28,2022-10-26 11:04:56.484375
2432,11.57,2022-10-26 11:04:56.500000
2433,11.48,2022-10-26 11:04:56.515625
2434,10.99,2022-10-26 11:04:56.531250
2435,10.22,2022-10-26 11:04:56.546875
2436,9.3,2022-10-26 11:04:56.562500
2437,8.34,2022-10-26 11:04:56.578125
2438,7.4,2022-10-26 11:04:56.593750
2439,6.52,2022-10-26 11:04:56.609375
2440,5.7,2022-10-26 11:04:56.625000
2441,4.96,2022-10-26 11:04:56.640625
2442,4.31,2022-10-26 11:04:56.656250
2443,3.68,2022-10-26 11:04:56.671875
2444,3.02,2022-10-26 11:04:56.687500
2445,2.23,2022-10-26 11:04:56.703125
2446,1.26,2022-10-26 11:04:56.718750
2447,0.14,2022-10-26 11:04:56.734375
2448,-1.04,2022-10-26 11:04:56.750000
2449,-2.15,2022-10-26 11:04:56.765625
2450,-3.11,2022-10-26 11:04:56.781250
2451,-3.89,2022-10-26 11:04:56.796875
2452,-4.55,2022-10-26 11:04:56.812500
2453,-5.16,2022-10-26 11:04:56.828125
2454,-5.85,2022-10-26 11:04:56.843750
2455,-6.65,2022-10-26 11:04:56.859375
2456,-7.57,2022-10-26 11:04:56.875000
2457,-8.56,2022-10-26 11:04:56.890625
2458,-9.58,2022-10-26 11:04:56.906250
2459,-10.57,2022-10-26 11:04:56.921875
2460,-11.5,2022-10-26 11:04:56.937500
2461,-12.35,2022-10-26 11:04:56.953125
2462,-13.13,2022-10-26 11:04:56.968750
2463,-13.91,2022-10-26 11:04:56.984375
2464,-14.83,2022-10-26 11:04:57.000000
2465,-16.07,2022-10-26 11:04:57.015625
2466,-17.75,2022-10-26 11:04:57.031250
2467,-19.73,2022-10-26 11:04:57.046875
2468,-21.63,2022-10-26 11:04:57.062500
2469,-22.84,2022-10-26 11:04:57.078125
2470,-22.73,2022-10-26 11:04:57.093750
2471,-20.96,2022-10-26 11:04:57.109375
2472,-17.58,2022-10-26 11:04:57.125000
2473,-13.07,2022-10-26 11:04:57.140625
2474,-8.12,2022-10-26 11:04:57.156250
2475,-3.42,2022-10-26 11:04:57.171875
2476,0.55,2022-10-26 11:04:57.187500
2477,3.58,2022-10-26 11:04:57.203125
2478,5.7,2022-10-26 11:04:57.218750
2479,7.05,2022-10-26 11:04:57.234375
2480,7.82,2022-10-26 11:04:57.250000
2481,8.19,2022-10-26 11:04:57.265625
2482,8.32,2022-10-26 11:04:57.281250
2483,8.34,2022-10-26 11:04:57.296875
2484,8.35,2022-10-26 11:04:57.312500
2485,8.39,2022-10-26 11:04:57.328125
2486,8.44,2022-10-26 11:04:57.343750
2487,8.48,2022-10-26 11:04:57.359375
2488,8.49,2022-10-26 11:04:57.375000
2489,8.45,2022-10-26 11:04:57.390625
2490,8.39,2022-10-26 11:04:57.406250
2491,8.35,2022-10-26 11:04:57.421875
2492,8.36,2022-10-26 11:04:57.437500
2493,8.44,2022-10-26 11:04:57.453125
2494,8.56,2022-10-26 11:04:57.468750
2495,8.64,2022-10-26 11:04:57.484375
2496,8.56,2022-10-26 11:04:57.500000
2497,8.18,2022-10-26 11:04:57.515625
2498,7.46,2022-10-26 11:04:57.531250
2499,6.43,2022-10-26 11:04:57.546875
2500,5.23,2022-10-26 11:04:57.562500
2501,4.04,2022-10-26 11:04:57.578125
2502,3.03,2022-10-26 11:04:57.593750
2503,2.28,2022-10-26 11:04:57.609375
2504,1.79,2022-10-26 11:04:57.625000
2505,1.47,2022-10-26 11:04:57.640625
2506,1.19,2022-10-26 11:04:57.656250
2507,0.88,2022-10-26 11:04:57.671875
2508,0.55,2022-10-26 11:04:57.687500
2509,0.28,2022-10-26 11:04:57.703125
2510,0.2,2022-10-26 11:04:57.718750
2511,0.42,2022-10-26 11:04:57.734375
2512,0.93,2022-10-26 11:04:57.750000
2513,1.57,2022-10-26 11:04:57.765625
2514,2.06,2022-10-26 11:04:57.781250
2515,2.08,2022-10-26 11:04:57.796875
2516,1.41,2022-10-26 11:04:57.812500
2517,0.01,2022-10-26 11:04:57.828125
2518,-1.96,2022-10-26 11:04:57.843750
2519,-4.23,2022-10-26 11:04:57.859375
2520,-6.54,2022-10-26 11:04:57.875000
2521,-8.7,2022-10-26 11:04:57.890625
2522,-10.65,2022-10-26 11:04:57.906250
2523,-12.41,2022-10-26 11:04:57.921875
2524,-14.0,2022-10-26 11:04:57.937500
2525,-15.45,2022-10-26 11:04:57.953125
2526,-16.82,2022-10-26 11:04:57.968750
2527,-18.1,2022-10-26 11:04:57.984375
2528,-19.27,2022-10-26 11:04:58.000000
2529,-20.18,2022-10-26 11:04:58.015625
2530,-20.57,2022-10-26 11:04:58.031250
2531,-20.17,2022-10-26 11:04:58.046875
2532,-18.76,2022-10-26 11:04:58.062500
2533,-16.36,2022-10-26 11:04:58.078125
2534,-13.16,2022-10-26 11:04:58.093750
2535,-9.54,2022-10-26 11:04:58.109375
2536,-5.88,2022-10-26 11:04:58.125000
2537,-2.49,2022-10-26 11:04:58.140625
2538,0.43,2022-10-26 11:04:58.156250
2539,2.75,2022-10-26 11:04:58.171875
2540,4.41,2022-10-26 11:04:58.187500
2541,5.35,2022-10-26 11:04:58.203125
2542,5.58,2022-10-26 11:04:58.218750
2543,5.21,2022-10-26 11:04:58.234375
2544,4.4,2022-10-26 11:04:58.250000
2545,3.38,2022-10-26 11:04:58.265625
2546,2.33,2022-10-26 11:04:58.281250
2547,1.38,2022-10-26 11:04:58.296875
2548,0.62,2022-10-26 11:04:58.312500
2549,0.08,2022-10-26 11:04:58.328125
2550,-0.25,2022-10-26 11:04:58.343750
2551,-0.4,2022-10-26 11:04:58.359375
2552,-0.41,2022-10-26 11:04:58.375000
2553,-0.38,2022-10-26 11:04:58.390625
2554,-0.33,2022-10-26 11:04:58.406250
2555,-0.25,2022-10-26 11:04:58.421875
2556,-0.09,2022-10-26 11:04:58.437500
2557,0.13,2022-10-26 11:04:58.453125
2558,0.38,2022-10-26 11:04:58.468750
2559,0.53,2022-10-26 11:04:58.484375
2560,0.46,2022-10-26 11:04:58.500000
2561,0.1,2022-10-26 11:04:58.515625
2562,-0.55,2022-10-26 11:04:58.531250
2563,-1.36,2022-10-26 11:04:58.546875
2564,-2.19,2022-10-26 11:04:58.562500
2565,-2.89,2022-10-26 11:04:58.578125
2566,-3.36,2022-10-26 11:04:58.593750
2567,-3.62,2022-10-26 11:04:58.609375
2568,-3.73,2022-10-26 11:04:58.625000
2569,-3.85,2022-10-26 11:04:58.640625
2570,-4.1,2022-10-26 11:04:58.656250
2571,-4.58,2022-10-26 11:04:58.671875
2572,-5.29,2022-10-26 11:04:58.687500
2573,-6.14,2022-10-26 11:04:58.703125
2574,-6.97,2022-10-26 11:04:58.718750
2575,-7.59,2022-10-26 11:04:58.734375
2576,-7.9,2022-10-26 11:04:58.750000
2577,-7.92,2022-10-26 11:04:58.765625
2578,-7.81,2022-10-26 11:04:58.781250
2579,-7.83,2022-10-26 11:04:58.796875
2580,-8.22,2022-10-26 11:04:58.812500
2581,-9.14,2022-10-26 11:04:58.828125
2582,-10.57,2022-10-26 11:04:58.843750
2583,-12.3,2022-10-26 11:04:58.859375
2584,-13.94,2022-10-26 11:04:58.875000
2585,-15.04,2022-10-26 11:04:58.890625
2586,-15.2,2022-10-26 11:04:58.906250
2587,-14.21,2022-10-26 11:04:58.921875
2588,-12.08,2022-10-26 11:04:58.937500
2589,-9.08,2022-10-26 11:04:58.953125
2590,-5.63,2022-10-26 11:04:58.968750
2591,-2.17,2022-10-26 11:04:58.984375
2592,0.92,2022-10-26 11:04:59.000000
2593,3.43,2022-10-26 11:04:59.015625
2594,5.33,2022-10-26 11:04:59.031250
2595,6.73,2022-10-26 11:04:59.046875
2596,7.76,2022-10-26 11:04:59.062500
2597,8.56,2022-10-26 11:04:59.078125
2598,9.15,2022-10-26 11:04:59.093750
2599,9.54,2022-10-26 11:04:59.109375
2600,9.71,2022-10-26 11:04:59.125000
2601,9.73,2022-10-26 11:04:59.140625
2602,9.73,2022-10-26 11:04:59.156250
2603,9.89,2022-10-26 11:04:59.171875
2604,10.29,2022-10-26 11:04:59.187500
2605,10.94,2022-10-26 11:04:59.203125
2606,11.69,2022-10-26 11:04:59.218750
2607,12.36,2022-10-26 11:04:59.234375
2608,12.8,2022-10-26 11:04:59.250000
2609,12.94,2022-10-26 11:04:59.265625
2610,12.83,2022-10-26 11:04:59.281250
2611,12.53,2022-10-26 11:04:59.296875
2612,12.08,2022-10-26 11:04:59.312500
2613,11.47,2022-10-26 11:04:59.328125
2614,10.65,2022-10-26 11:04:59.343750
2615,9.58,2022-10-26 11:04:59.359375
2616,8.24,2022-10-26 11:04:59.375000
2617,6.67,2022-10-26 11:04:59.390625
2618,4.93,2022-10-26 11:04:59.406250
2619,3.06,2022-10-26 11:04:59.421875
2620,1.13,2022-10-26 11:04:59.437500
2621,-0.87,2022-10-26 11:04:59.453125
2622,-2.89,2022-10-26 11:04:59.468750
2623,-4.93,2022-10-26 11:04:59.484375
2624,-6.94,2022-10-26 11:04:59.500000
2625,-8.89,2022-10-26 11:04:59.515625
2626,-10.75,2022-10-26 11:04:59.531250
2627,-12.51,2022-10-26 11:04:59.546875
2628,-14.21,2022-10-26 11:04:59.562500
2629,-15.88,2022-10-26 11:04:59.578125
2630,-17.55,2022-10-26 11:04:59.593750
2631,-19.17,2022-10-26 11:04:59.609375
2632,-20.53,2022-10-26 11:04:59.625000
2633,-21.35,2022-10-26 11:04:59.640625
2634,-21.28,2022-10-26 11:04:59.656250
2635,-20.15,2022-10-26 11:04:59.671875
2636,-18.02,2022-10-26 11:04:59.687500
2637,-15.17,2022-10-26 11:04:59.703125
2638,-12.03,2022-10-26 11:04:59.718750
2639,-8.98,2022-10-26 11:04:59.734375
2640,-6.25,2022-10-26 11:04:59.750000
2641,-3.85,2022-10-26 11:04:59.765625
2642,-1.75,2022-10-26 11:04:59.781250
2643,0.07,2022-10-26 11:04:59.796875
2644,1.49,2022-10-26 11:04:59.812500
2645,2.35,2022-10-26 11:04:59.828125
2646,2.57,2022-10-26 11:04:59.843750
2647,2.19,2022-10-26 11:04:59.859375
2648,1.47,2022-10-26 11:04:59.875000
2649,0.74,2022-10-26 11:04:59.890625
2650,0.28,2022-10-26 11:04:59.906250
2651,0.22,2022-10-26 11:04:59.921875
2652,0.52,2022-10-26 11:04:59.937500
2653,1.07,2022-10-26 11:04:59.953125
2654,1.75,2022-10-26 11:04:59.968750
2655,2.51,2022-10-26 11:04:59.984375
2656,3.32,2022-10-26 11:05:00.000000
2657,4.17,2022-10-26 11:05:00.015625
2658,5.0,2022-10-26 11:05:00.031250
2659,5.76,2022-10-26 11:05:00.046875
2660,6.4,2022-10-26 11:05:00.062500
2661,6.89,2022-10-26 11:05:00.078125
2662,7.24,2022-10-26 11:05:00.093750
2663,7.42,2022-10-26 11:05:00.109375
2664,7.38,2022-10-26 11:05:00.125000
2665,7.02,2022-10-26 11:05:00.140625
2666,6.26,2022-10-26 11:05:00.156250
2667,5.13,2022-10-26 11:05:00.171875
2668,3.73,2022-10-26 11:05:00.187500
2669,2.27,2022-10-26 11:05:00.203125
2670,0.9,2022-10-26 11:05:00.218750
2671,-0.33,2022-10-26 11:05:00.234375
2672,-1.49,2022-10-26 11:05:00.250000
2673,-2.77,2022-10-26 11:05:00.265625
2674,-4.3,2022-10-26 11:05:00.281250
2675,-6.1,2022-10-26 11:05:00.296875
2676,-8.02,2022-10-26 11:05:00.312500
2677,-9.76,2022-10-26 11:05:00.328125
2678,-11.02,2022-10-26 11:05:00.343750
2679,-11.54,2022-10-26 11:05:00.359375
2680,-11.19,2022-10-26 11:05:00.375000
2681,-10.02,2022-10-26 11:05:00.390625
2682,-8.17,2022-10-26 11:05:00.406250
2683,-5.88,2022-10-26 11:05:00.421875
2684,-3.42,2022-10-26 11:05:00.437500
2685,-1.03,2022-10-26 11:05:00.453125
2686,1.13,2022-10-26 11:05:00.468750
2687,2.96,2022-10-26 11:05:00.484375
2688,4.44,2022-10-26 11:05:00.500000
2689,5.61,2022-10-26 11:05:00.515625
2690,6.51,2022-10-26 11:05:00.531250
2691,7.16,2022-10-26 11:05:00.546875
2692,7.57,2022-10-26 11:05:00.562500
2693,7.76,2022-10-26 11:05:00.578125
2694,7.82,2022-10-26 11:05:00.593750
2695,7.87,2022-10-26 11:05:00.609375
2696,8.05,2022-10-26 11:05:00.625000
2697,8.44,2022-10-26 11:05:00.640625
2698,9.02,2022-10-26 11:05:00.656250
2699,9.64,2022-10-26 11:05:00.671875
2700,10.14,2022-10-26 11:05:00.687500
2701,10.36,2022-10-26 11:05:00.703125
2702,10.23,2022-10-26 11:05:00.718750
2703,9.78,2022-10-26 11:05:00.734375
2704,9.14,2022-10-26 11:05:00.750000
2705,8.42,2022-10-26 11:05:00.765625
2706,7.73,2022-10-26 11:05:00.781250
2707,7.11,2022-10-26 11:05:00.796875
2708,6.57,2022-10-26 11:05:00.812500
2709,6.05,2022-10-26 11:05:00.828125
2710,5.49,2022-10-26 11:05:00.843750
2711,4.82,2022-10-26 11:05:00.859375
2712,4.04,2022-10-26 11:05:00.875000
2713,3.17,2022-10-26 11:05:00.890625
2714,2.24,2022-10-26 11:05:00.906250
2715,1.31,2022-10-26 11:05:00.921875
2716,0.44,2022-10-26 11:05:00.937500
2717,-0.38,2022-10-26 11:05:00.953125
2718,-1.19,2022-10-26 11:05:00.968750
2719,-2.03,2022-10-26 11:05:00.984375
2720,-2.94,2022-10-26 11:05:01.000000
2721,-3.92,2022-10-26 11:05:01.015625
2722,-4.94,2022-10-26 11:05:01.031250
2723,-5.98,2022-10-26 11:05:01.046875
2724,-7.04,2022-10-26 11:05:01.062500
2725,-8.11,2022-10-26 11:05:01.078125
2726,-9.12,2022-10-26 11:05:01.093750
2727,-9.91,2022-10-26 11:05:01.109375
2728,-10.27,2022-10-26 11:05:01.125000
2729,-9.94,2022-10-26 11:05:01.140625
2730,-8.77,2022-10-26 11:05:01.156250
2731,-6.79,2022-10-26 11:05:01.171875
2732,-4.19,2022-10-26 11:05:01.187500
2733,-1.34,2022-10-26 11:05:01.203125
2734,1.39,2022-10-26 11:05:01.218750
2735,3.72,2022-10-26 11:05:01.234375
2736,5.56,2022-10-26 11:05:01.250000
2737,6.95,2022-10-26 11:05:01.265625
2738,8.01,2022-10-26 11:05:01.281250
2739,8.84,2022-10-26 11:05:01.296875
2740,9.47,2022-10-26 11:05:01.312500
2741,9.85,2022-10-26 11:05:01.328125
2742,9.96,2022-10-26 11:05:01.343750
2743,9.82,2022-10-26 11:05:01.359375
2744,9.54,2022-10-26 11:05:01.375000
2745,9.27,2022-10-26 11:05:01.390625
2746,9.12,2022-10-26 11:05:01.406250
2747,9.11,2022-10-26 11:05:01.421875
2748,9.19,2022-10-26 11:05:01.437500
2749,9.28,2022-10-26 11:05:01.453125
2750,9.38,2022-10-26 11:05:01.468750
2751,9.53,2022-10-26 11:05:01.484375
2752,9.8,2022-10-26 11:05:01.500000
2753,10.2,2022-10-26 11:05:01.515625
2754,10.64,2022-10-26 11:05:01.531250
2755,10.92,2022-10-26 11:05:01.546875
2756,10.86,2022-10-26 11:05:01.562500
2757,10.37,2022-10-26 11:05:01.578125
2758,9.52,2022-10-26 11:05:01.593750
2759,8.49,2022-10-26 11:05:01.609375
2760,7.5,2022-10-26 11:05:01.625000
2761,6.73,2022-10-26 11:05:01.640625
2762,6.26,2022-10-26 11:05:01.656250
2763,6.04,2022-10-26 11:05:01.671875
2764,5.98,2022-10-26 11:05:01.687500
2765,5.96,2022-10-26 11:05:01.703125
2766,5.88,2022-10-26 11:05:01.718750
2767,5.66,2022-10-26 11:05:01.734375
2768,5.26,2022-10-26 11:05:01.750000
2769,4.68,2022-10-26 11:05:01.765625
2770,3.94,2022-10-26 11:05:01.781250
2771,3.13,2022-10-26 11:05:01.796875
2772,2.35,2022-10-26 11:05:01.812500
2773,1.7,2022-10-26 11:05:01.828125
2774,1.24,2022-10-26 11:05:01.843750
2775,0.95,2022-10-26 11:05:01.859375
2776,0.75,2022-10-26 11:05:01.875000
2777,0.5,2022-10-26 11:05:01.890625
2778,0.08,2022-10-26 11:05:01.906250
2779,-0.56,2022-10-26 11:05:01.921875
2780,-1.31,2022-10-26 11:05:01.937500
2781,-2.02,2022-10-26 11:05:01.953125
2782,-2.52,2022-10-26 11:05:01.968750
2783,-2.75,2022-10-26 11:05:01.984375
2784,-2.78,2022-10-26 11:05:02.000000
2785,-2.82,2022-10-26 11:05:02.015625
2786,-3.08,2022-10-26 11:05:02.031250
2787,-3.69,2022-10-26 11:05:02.046875
2788,-4.6,2022-10-26 11:05:02.062500
2789,-5.6,2022-10-26 11:05:02.078125
2790,-6.45,2022-10-26 11:05:02.093750
2791,-7.0,2022-10-26 11:05:02.109375
2792,-7.24,2022-10-26 11:05:02.125000
2793,-7.3,2022-10-26 11:05:02.140625
2794,-7.36,2022-10-26 11:05:02.156250
2795,-7.56,2022-10-26 11:05:02.171875
2796,-8.01,2022-10-26 11:05:02.187500
2797,-8.73,2022-10-26 11:05:02.203125
2798,-9.73,2022-10-26 11:05:02.218750
2799,-10.98,2022-10-26 11:05:02.234375
2800,-12.34,2022-10-26 11:05:02.250000
2801,-13.57,2022-10-26 11:05:02.265625
2802,-14.35,2022-10-26 11:05:02.281250
2803,-14.38,2022-10-26 11:05:02.296875
2804,-13.51,2022-10-26 11:05:02.312500
2805,-11.83,2022-10-26 11:05:02.328125
2806,-9.64,2022-10-26 11:05:02.343750
2807,-7.31,2022-10-26 11:05:02.359375
2808,-5.15,2022-10-26 11:05:02.375000
2809,-3.34,2022-10-26 11:05:02.390625
2810,-1.88,2022-10-26 11:05:02.406250
2811,-0.76,2022-10-26 11:05:02.421875
2812,0.08,2022-10-26 11:05:02.437500
2813,0.66,2022-10-26 11:05:02.453125
2814,1.0,2022-10-26 11:05:02.468750
2815,1.14,2022-10-26 11:05:02.484375
2816,1.18,2022-10-26 11:05:02.500000
2817,1.22,2022-10-26 11:05:02.515625
2818,1.38,2022-10-26 11:05:02.531250
2819,1.68,2022-10-26 11:05:02.546875
2820,2.11,2022-10-26 11:05:02.562500
2821,2.62,2022-10-26 11:05:02.578125
2822,3.14,2022-10-26 11:05:02.593750
2823,3.59,2022-10-26 11:05:02.609375
2824,3.95,2022-10-26 11:05:02.625000
2825,4.21,2022-10-26 11:05:02.640625
2826,4.36,2022-10-26 11:05:02.656250
2827,4.45,2022-10-26 11:05:02.671875
2828,4.5,2022-10-26 11:05:02.687500
2829,4.51,2022-10-26 11:05:02.703125
2830,4.49,2022-10-26 11:05:02.718750
2831,4.38,2022-10-26 11:05:02.734375
2832,4.18,2022-10-26 11:05:02.750000
2833,3.87,2022-10-26 11:05:02.765625
2834,3.48,2022-10-26 11:05:02.781250
2835,3.05,2022-10-26 11:05:02.796875
2836,2.58,2022-10-26 11:05:02.812500
2837,2.05,2022-10-26 11:05:02.828125
2838,1.44,2022-10-26 11:05:02.843750
2839,0.78,2022-10-26 11:05:02.859375
2840,0.11,2022-10-26 11:05:02.875000
2841,-0.47,2022-10-26 11:05:02.890625
2842,-0.88,2022-10-26 11:05:02.906250
2843,-1.06,2022-10-26 11:05:02.921875
2844,-1.04,2022-10-26 11:05:02.937500
2845,-0.85,2022-10-26 11:05:02.953125
2846,-0.59,2022-10-26 11:05:02.968750
2847,-0.32,2022-10-26 11:05:02.984375
2848,-0.11,2022-10-26 11:05:03.000000
2849,-0.03,2022-10-26 11:05:03.015625
2850,-0.12,2022-10-26 11:05:03.031250
2851,-0.42,2022-10-26 11:05:03.046875
2852,-0.9,2022-10-26 11:05:03.062500
2853,-1.48,2022-10-26 11:05:03.078125
2854,-2.07,2022-10-26 11:05:03.093750
2855,-2.62,2022-10-26 11:05:03.109375
2856,-3.11,2022-10-26 11:05:03.125000
2857,-3.57,2022-10-26 11:05:03.140625
2858,-4.03,2022-10-26 11:05:03.156250
2859,-4.5,2022-10-26 11:05:03.171875
2860,-4.91,2022-10-26 11:05:03.187500
2861,-5.23,2022-10-26 11:05:03.203125
2862,-5.43,2022-10-26 11:05:03.218750
2863,-5.58,2022-10-26 11:05:03.234375
2864,-5.78,2022-10-26 11:05:03.250000
2865,-6.1,2022-10-26 11:05:03.265625
2866,-6.52,2022-10-26 11:05:03.281250
2867,-6.99,2022-10-26 11:05:03.296875
2868,-7.39,2022-10-26 11:05:03.312500
2869,-7.7,2022-10-26 11:05:03.328125
2870,-7.97,2022-10-26 11:05:03.343750
2871,-8.34,2022-10-26 11:05:03.359375
2872,-8.9,2022-10-26 11:05:03.375000
2873,-9.62,2022-10-26 11:05:03.390625
2874,-10.3,2022-10-26 11:05:03.406250
2875,-10.68,2022-10-26 11:05:03.421875
2876,-10.49,2022-10-26 11:05:03.437500
2877,-9.59,2022-10-26 11:05:03.453125
2878,-8.04,2022-10-26 11:05:03.468750
2879,-5.99,2022-10-26 11:05:03.484375
2880,-3.72,2022-10-26 11:05:03.500000
2881,-1.52,2022-10-26 11:05:03.515625
2882,0.35,2022-10-26 11:05:03.531250
2883,1.67,2022-10-26 11:05:03.546875
2884,2.33,2022-10-26 11:05:03.562500
2885,2.39,2022-10-26 11:05:03.578125
2886,2.04,2022-10-26 11:05:03.593750
2887,1.58,2022-10-26 11:05:03.609375
2888,1.27,2022-10-26 11:05:03.625000
2889,1.26,2022-10-26 11:05:03.640625
2890,1.52,2022-10-26 11:05:03.656250
2891,1.9,2022-10-26 11:05:03.671875
2892,2.22,2022-10-26 11:05:03.687500
2893,2.38,2022-10-26 11:05:03.703125
2894,2.41,2022-10-26 11:05:03.718750
2895,2.39,2022-10-26 11:05:03.734375
2896,2.38,2022-10-26 11:05:03.750000
2897,2.39,2022-10-26 11:05:03.765625
2898,2.36,2022-10-26 11:05:03.781250
2899,2.27,2022-10-26 11:05:03.796875
2900,2.12,2022-10-26 11:05:03.812500
2901,2.01,2022-10-26 11:05:03.828125
2902,2.03,2022-10-26 11:05:03.843750
2903,2.21,2022-10-26 11:05:03.859375
2904,2.47,2022-10-26 11:05:03.875000
2905,2.67,2022-10-26 11:05:03.890625
2906,2.68,2022-10-26 11:05:03.906250
2907,2.45,2022-10-26 11:05:03.921875
2908,2.01,2022-10-26 11:05:03.937500
2909,1.47,2022-10-26 11:05:03.953125
2910,0.9,2022-10-26 11:05:03.968750
2911,0.34,2022-10-26 11:05:03.984375
2912,-0.19,2022-10-26 11:05:04.000000
2913,-0.66,2022-10-26 11:05:04.015625
2914,-1.0,2022-10-26 11:05:04.031250
2915,-1.16,2022-10-26 11:05:04.046875
2916,-1.08,2022-10-26 11:05:04.062500
2917,-0.83,2022-10-26 11:05:04.078125
2918,-0.49,2022-10-26 11:05:04.093750
2919,-0.22,2022-10-26 11:05:04.109375
2920,-0.16,2022-10-26 11:05:04.125000
2921,-0.37,2022-10-26 11:05:04.140625
2922,-0.83,2022-10-26 11:05:04.156250
2923,-1.44,2022-10-26 11:05:04.171875
2924,-2.03,2022-10-26 11:05:04.187500
2925,-2.44,2022-10-26 11:05:04.203125
2926,-2.54,2022-10-26 11:05:04.218750
2927,-2.3,2022-10-26 11:05:04.234375
2928,-1.86,2022-10-26 11:05:04.250000
2929,-1.45,2022-10-26 11:05:04.265625
2930,-1.34,2022-10-26 11:05:04.281250
2931,-1.76,2022-10-26 11:05:04.296875
2932,-2.73,2022-10-26 11:05:04.312500
2933,-4.07,2022-10-26 11:05:04.328125
2934,-5.48,2022-10-26 11:05:04.343750
2935,-6.63,2022-10-26 11:05:04.359375
2936,-7.32,2022-10-26 11:05:04.375000
2937,-7.53,2022-10-26 11:05:04.390625
2938,-7.41,2022-10-26 11:05:04.406250
2939,-7.26,2022-10-26 11:05:04.421875
2940,-7.34,2022-10-26 11:05:04.437500
2941,-7.82,2022-10-26 11:05:04.453125
2942,-8.7,2022-10-26 11:05:04.468750
2943,-9.76,2022-10-26 11:05:04.484375
2944,-10.73,2022-10-26 11:05:04.500000
2945,-11.3,2022-10-26 11:05:04.515625
2946,-11.27,2022-10-26 11:05:04.531250
2947,-10.56,2022-10-26 11:05:04.546875
2948,-9.22,2022-10-26 11:05:04.562500
2949,-7.4,2022-10-26 11:05:04.578125
2950,-5.33,2022-10-26 11:05:04.593750
2951,-3.3,2022-10-26 11:05:04.609375
2952,-1.54,2022-10-26 11:05:04.625000
2953,-0.24,2022-10-26 11:05:04.640625
2954,0.5,2022-10-26 11:05:04.656250
2955,0.75,2022-10-26 11:05:04.671875
2956,0.61,2022-10-26 11:05:04.687500
2957,0.26,2022-10-26 11:05:04.703125
2958,-0.16,2022-10-26 11:05:04.718750
2959,-0.53,2022-10-26 11:05:04.734375
2960,-0.78,2022-10-26 11:05:04.750000
2961,-0.85,2022-10-26 11:05:04.765625
2962,-0.72,2022-10-26 11:05:04.781250
2963,-0.39,2022-10-26 11:05:04.796875
2964,0.06,2022-10-26 11:05:04.812500
2965,0.52,2022-10-26 11:05:04.828125
2966,0.87,2022-10-26 11:05:04.843750
2967,1.07,2022-10-26 11:05:04.859375
2968,1.14,2022-10-26 11:05:04.875000
2969,1.21,2022-10-26 11:05:04.890625
2970,1.39,2022-10-26 11:05:04.906250
2971,1.76,2022-10-26 11:05:04.921875
2972,2.31,2022-10-26 11:05:04.937500
2973,2.92,2022-10-26 11:05:04.953125
2974,3.43,2022-10-26 11:05:04.968750
2975,3.67,2022-10-26 11:05:04.984375
2976,3.52,2022-10-26 11:05:05.000000
2977,2.97,2022-10-26 11:05:05.015625
2978,2.12,2022-10-26 11:05:05.031250
2979,1.17,2022-10-26 11:05:05.046875
2980,0.34,2022-10-26 11:05:05.062500
2981,-0.21,2022-10-26 11:05:05.078125
2982,-0.47,2022-10-26 11:05:05.093750
2983,-0.54,2022-10-26 11:05:05.109375
2984,-0.61,2022-10-26 11:05:05.125000
2985,-0.8,2022-10-26 11:05:05.140625
2986,-1.1,2022-10-26 11:05:05.156250
2987,-1.41,2022-10-26 11:05:05.171875
2988,-1.63,2022-10-26 11:05:05.187500
2989,-1.7,2022-10-26 11:05:05.203125
2990,-1.72,2022-10-26 11:05:05.218750
2991,-1.8,2022-10-26 11:05:05.234375
2992,-2.09,2022-10-26 11:05:05.250000
2993,-2.61,2022-10-26 11:05:05.265625
2994,-3.33,2022-10-26 11:05:05.281250
2995,-4.14,2022-10-26 11:05:05.296875
2996,-4.92,2022-10-26 11:05:05.312500
2997,-5.6,2022-10-26 11:05:05.328125
2998,-6.13,2022-10-26 11:05:05.343750
2999,-6.5,2022-10-26 11:05:05.359375
3000,-6.74,2022-10-26 11:05:05.375000
3001,-6.94,2022-10-26 11:05:05.390625
3002,-7.21,2022-10-26 11:05:05.406250
3003,-7.69,2022-10-26 11:05:05.421875
3004,-8.43,2022-10-26 11:05:05.437500
3005,-9.41,2022-10-26 11:05:05.453125
3006,-10.51,2022-10-26 11:05:05.468750
3007,-11.51,2022-10-26 11:05:05.484375
3008,-12.2,2022-10-26 11:05:05.500000
3009,-12.35,2022-10-26 11:05:05.515625
3010,-11.83,2022-10-26 11:05:05.531250
3011,-10.61,2022-10-26 11:05:05.546875
3012,-8.83,2022-10-26 11:05:05.562500
3013,-6.72,2022-10-26 11:05:05.578125
3014,-4.6,2022-10-26 11:05:05.593750
3015,-2.74,2022-10-26 11:05:05.609375
3016,-1.24,2022-10-26 11:05:05.625000
3017,-0.09,2022-10-26 11:05:05.640625
3018,0.83,2022-10-26 11:05:05.656250
3019,1.61,2022-10-26 11:05:05.671875
3020,2.24,2022-10-26 11:05:05.687500
3021,2.62,2022-10-26 11:05:05.703125
3022,2.65,2022-10-26 11:05:05.718750
3023,2.33,2022-10-26 11:05:05.734375
3024,1.8,2022-10-26 11:05:05.750000
3025,1.29,2022-10-26 11:05:05.765625
3026,0.98,2022-10-26 11:05:05.781250
3027,0.96,2022-10-26 11:05:05.796875
3028,1.19,2022-10-26 11:05:05.812500
3029,1.56,2022-10-26 11:05:05.828125
3030,1.99,2022-10-26 11:05:05.843750
3031,2.43,2022-10-26 11:05:05.859375
3032,2.89,2022-10-26 11:05:05.875000
3033,3.35,2022-10-26 11:05:05.890625
3034,3.78,2022-10-26 11:05:05.906250
3035,4.11,2022-10-26 11:05:05.921875
3036,4.32,2022-10-26 11:05:05.937500
3037,4.42,2022-10-26 11:05:05.953125
3038,4.47,2022-10-26 11:05:05.968750
3039,4.51,2022-10-26 11:05:05.984375
3040,4.55,2022-10-26 11:05:06.000000
3041,4.59,2022-10-26 11:05:06.015625
3042,4.57,2022-10-26 11:05:06.031250
3043,4.48,2022-10-26 11:05:06.046875
3044,4.3,2022-10-26 11:05:06.062500
3045,4.04,2022-10-26 11:05:06.078125
3046,3.67,2022-10-26 11:05:06.093750
3047,3.13,2022-10-26 11:05:06.109375
3048,2.35,2022-10-26 11:05:06.125000
3049,1.3,2022-10-26 11:05:06.140625
3050,0.05,2022-10-26 11:05:06.156250
3051,-1.23,2022-10-26 11:05:06.171875
3052,-2.33,2022-10-26 11:05:06.187500
3053,-3.06,2022-10-26 11:05:06.203125
3054,-3.37,2022-10-26 11:05:06.218750
3055,-3.34,2022-10-26 11:05:06.234375
3056,-3.16,2022-10-26 11:05:06.250000
3057,-3.05,2022-10-26 11:05:06.265625
3058,-3.18,2022-10-26 11:05:06.281250
3059,-3.61,2022-10-26 11:05:06.296875
3060,-4.31,2022-10-26 11:05:06.312500
3061,-5.2,2022-10-26 11:05:06.328125
3062,-6.19,2022-10-26 11:05:06.343750
3063,-7.18,2022-10-26 11:05:06.359375
3064,-8.11,2022-10-26 11:05:06.375000
3065,-8.95,2022-10-26 11:05:06.390625
3066,-9.71,2022-10-26 11:05:06.406250
3067,-10.48,2022-10-26 11:05:06.421875
3068,-11.37,2022-10-26 11:05:06.437500
3069,-12.47,2022-10-26 11:05:06.453125
3070,-13.75,2022-10-26 11:05:06.468750
3071,-14.99,2022-10-26 11:05:06.484375
3072,-15.88,2022-10-26 11:05:06.500000
3073,-16.05,2022-10-26 11:05:06.515625
3074,-15.31,2022-10-26 11:05:06.531250
3075,-13.66,2022-10-26 11:05:06.546875
3076,-11.33,2022-10-26 11:05:06.562500
3077,-8.68,2022-10-26 11:05:06.578125
3078,-6.06,2022-10-26 11:05:06.593750
3079,-3.74,2022-10-26 11:05:06.609375
3080,-1.81,2022-10-26 11:05:06.625000
3081,-0.27,2022-10-26 11:05:06.640625
3082,0.97,2022-10-26 11:05:06.656250
3083,1.97,2022-10-26 11:05:06.671875
3084,2.76,2022-10-26 11:05:06.687500
3085,3.34,2022-10-26 11:05:06.703125
3086,3.72,2022-10-26 11:05:06.718750
3087,3.91,2022-10-26 11:05:06.734375
3088,3.95,2022-10-26 11:05:06.750000
3089,3.89,2022-10-26 11:05:06.765625
3090,3.82,2022-10-26 11:05:06.781250
3091,3.82,2022-10-26 11:05:06.796875
3092,3.98,2022-10-26 11:05:06.812500
3093,4.34,2022-10-26 11:05:06.828125
3094,4.89,2022-10-26 11:05:06.843750
3095,5.53,2022-10-26 11:05:06.859375
3096,6.15,2022-10-26 11:05:06.875000
3097,6.62,2022-10-26 11:05:06.890625
3098,6.9,2022-10-26 11:05:06.906250
3099,6.99,2022-10-26 11:05:06.921875
3100,6.96,2022-10-26 11:05:06.937500
3101,6.9,2022-10-26 11:05:06.953125
3102,6.86,2022-10-26 11:05:06.968750
3103,6.84,2022-10-26 11:05:06.984375
3104,6.83,2022-10-26 11:05:07.000000
3105,6.77,2022-10-26 11:05:07.015625
3106,6.64,2022-10-26 11:05:07.031250
3107,6.42,2022-10-26 11:05:07.046875
3108,6.09,2022-10-26 11:05:07.062500
3109,5.61,2022-10-26 11:05:07.078125
3110,4.95,2022-10-26 11:05:07.093750
3111,4.12,2022-10-26 11:05:07.109375
3112,3.19,2022-10-26 11:05:07.125000
3113,2.27,2022-10-26 11:05:07.140625
3114,1.49,2022-10-26 11:05:07.156250
3115,0.88,2022-10-26 11:05:07.171875
3116,0.41,2022-10-26 11:05:07.187500
3117,-0.06,2022-10-26 11:05:07.203125
3118,-0.68,2022-10-26 11:05:07.218750
3119,-1.54,2022-10-26 11:05:07.234375
3120,-2.67,2022-10-26 11:05:07.250000
3121,-3.94,2022-10-26 11:05:07.265625
3122,-5.22,2022-10-26 11:05:07.281250
3123,-6.39,2022-10-26 11:05:07.296875
3124,-7.45,2022-10-26 11:05:07.312500
3125,-8.45,2022-10-26 11:05:07.328125
3126,-9.51,2022-10-26 11:05:07.343750
3127,-10.7,2022-10-26 11:05:07.359375
3128,-12.06,2022-10-26 11:05:07.375000
3129,-13.55,2022-10-26 11:05:07.390625
3130,-15.13,2022-10-26 11:05:07.406250
3131,-16.79,2022-10-26 11:05:07.421875
3132,-18.52,2022-10-26 11:05:07.437500
3133,-20.26,2022-10-26 11:05:07.453125
3134,-21.81,2022-10-26 11:05:07.468750
3135,-22.83,2022-10-26 11:05:07.484375
3136,-22.91,2022-10-26 11:05:07.500000
3137,-21.72,2022-10-26 11:05:07.515625
3138,-19.19,2022-10-26 11:05:07.531250
3139,-15.53,2022-10-26 11:05:07.546875
3140,-11.24,2022-10-26 11:05:07.562500
3141,-6.88,2022-10-26 11:05:07.578125
3142,-2.93,2022-10-26 11:05:07.593750
3143,0.32,2022-10-26 11:05:07.609375
3144,2.8,2022-10-26 11:05:07.625000
3145,4.58,2022-10-26 11:05:07.640625
3146,5.77,2022-10-26 11:05:07.656250
3147,6.48,2022-10-26 11:05:07.671875
3148,6.8,2022-10-26 11:05:07.687500
3149,6.83,2022-10-26 11:05:07.703125
3150,6.69,2022-10-26 11:05:07.718750
3151,6.52,2022-10-26 11:05:07.734375
3152,6.42,2022-10-26 11:05:07.750000
3153,6.46,2022-10-26 11:05:07.765625
3154,6.69,2022-10-26 11:05:07.781250
3155,7.15,2022-10-26 11:05:07.796875
3156,7.86,2022-10-26 11:05:07.812500
3157,8.81,2022-10-26 11:05:07.828125
3158,9.91,2022-10-26 11:05:07.843750
3159,11.01,2022-10-26 11:05:07.859375
3160,12.0,2022-10-26 11:05:07.875000
3161,12.76,2022-10-26 11:05:07.890625
3162,13.25,2022-10-26 11:05:07.906250
3163,13.49,2022-10-26 11:05:07.921875
3164,13.48,2022-10-26 11:05:07.937500
3165,13.22,2022-10-26 11:05:07.953125
3166,12.68,2022-10-26 11:05:07.968750
3167,11.87,2022-10-26 11:05:07.984375
3168,10.86,2022-10-26 11:05:08.000000
3169,9.79,2022-10-26 11:05:08.015625
3170,8.8,2022-10-26 11:05:08.031250
3171,8.0,2022-10-26 11:05:08.046875
3172,7.37,2022-10-26 11:05:08.062500
3173,6.86,2022-10-26 11:05:08.078125
3174,6.39,2022-10-26 11:05:08.093750
3175,5.86,2022-10-26 11:05:08.109375
3176,5.22,2022-10-26 11:05:08.125000
3177,4.45,2022-10-26 11:05:08.140625
3178,3.49,2022-10-26 11:05:08.156250
3179,2.3,2022-10-26 11:05:08.171875
3180,0.89,2022-10-26 11:05:08.187500
3181,-0.67,2022-10-26 11:05:08.203125
3182,-2.25,2022-10-26 11:05:08.218750
3183,-3.73,2022-10-26 11:05:08.234375
3184,-5.03,2022-10-26 11:05:08.250000
3185,-6.21,2022-10-26 11:05:08.265625
3186,-7.42,2022-10-26 11:05:08.281250
3187,-8.87,2022-10-26 11:05:08.296875
3188,-10.71,2022-10-26 11:05:08.312500
3189,-13.0,2022-10-26 11:05:08.328125
3190,-15.58,2022-10-26 11:05:08.343750
3191,-18.18,2022-10-26 11:05:08.359375
3192,-20.41,2022-10-26 11:05:08.375000
3193,-21.83,2022-10-26 11:05:08.390625
3194,-22.09,2022-10-26 11:05:08.406250
3195,-20.95,2022-10-26 11:05:08.421875
3196,-18.43,2022-10-26 11:05:08.437500
3197,-14.78,2022-10-26 11:05:08.453125
3198,-10.45,2022-10-26 11:05:08.468750
3199,-5.97,2022-10-26 11:05:08.484375
3200,-1.79,2022-10-26 11:05:08.500000
3201,1.86,2022-10-26 11:05:08.515625
3202,4.91,2022-10-26 11:05:08.531250
3203,7.46,2022-10-26 11:05:08.546875
3204,9.59,2022-10-26 11:05:08.562500
