,BVP,time
0,86.28,2022-10-28 16:49:12.343750
1,81.02,2022-10-28 16:49:12.359375
2,73.7,2022-10-28 16:49:12.375000
3,65.48,2022-10-28 16:49:12.390625
4,57.21,2022-10-28 16:49:12.406250
5,49.44,2022-10-28 16:49:12.421875
6,42.4,2022-10-28 16:49:12.437500
7,36.22,2022-10-28 16:49:12.453125
8,31.11,2022-10-28 16:49:12.468750
9,27.34,2022-10-28 16:49:12.484375
10,25.2,2022-10-28 16:49:12.500000
11,24.83,2022-10-28 16:49:12.515625
12,26.01,2022-10-28 16:49:12.531250
13,28.12,2022-10-28 16:49:12.546875
14,30.15,2022-10-28 16:49:12.562500
15,30.98,2022-10-28 16:49:12.578125
16,29.62,2022-10-28 16:49:12.593750
17,25.56,2022-10-28 16:49:12.609375
18,18.91,2022-10-28 16:49:12.625000
19,10.38,2022-10-28 16:49:12.640625
20,1.0,2022-10-28 16:49:12.656250
21,-8.25,2022-10-28 16:49:12.671875
22,-16.79,2022-10-28 16:49:12.687500
23,-24.72,2022-10-28 16:49:12.703125
24,-32.76,2022-10-28 16:49:12.718750
25,-42.04,2022-10-28 16:49:12.734375
26,-53.58,2022-10-28 16:49:12.750000
27,-67.7,2022-10-28 16:49:12.765625
28,-83.58,2022-10-28 16:49:12.781250
29,-99.08,2022-10-28 16:49:12.796875
30,-111.1,2022-10-28 16:49:12.812500
31,-116.41,2022-10-28 16:49:12.828125
32,-112.62,2022-10-28 16:49:12.843750
33,-99.09,2022-10-28 16:49:12.859375
34,-77.1,2022-10-28 16:49:12.875000
35,-49.5,2022-10-28 16:49:12.890625
36,-19.9,2022-10-28 16:49:12.906250
37,8.37,2022-10-28 16:49:12.921875
38,32.82,2022-10-28 16:49:12.937500
39,52.08,2022-10-28 16:49:12.953125
40,65.69,2022-10-28 16:49:12.968750
41,73.77,2022-10-28 16:49:12.984375
42,76.78,2022-10-28 16:49:13.000000
43,75.34,2022-10-28 16:49:13.015625
44,70.24,2022-10-28 16:49:13.031250
45,62.47,2022-10-28 16:49:13.046875
46,53.09,2022-10-28 16:49:13.062500
47,43.17,2022-10-28 16:49:13.078125
48,33.58,2022-10-28 16:49:13.093750
49,24.94,2022-10-28 16:49:13.109375
50,17.63,2022-10-28 16:49:13.125000
51,11.87,2022-10-28 16:49:13.140625
52,7.8,2022-10-28 16:49:13.156250
53,5.53,2022-10-28 16:49:13.171875
54,5.17,2022-10-28 16:49:13.187500
55,6.57,2022-10-28 16:49:13.203125
56,9.28,2022-10-28 16:49:13.218750
57,12.5,2022-10-28 16:49:13.234375
58,15.22,2022-10-28 16:49:13.250000
59,16.54,2022-10-28 16:49:13.265625
60,15.92,2022-10-28 16:49:13.281250
61,13.34,2022-10-28 16:49:13.296875
62,9.24,2022-10-28 16:49:13.312500
63,4.28,2022-10-28 16:49:13.328125
64,-0.95,2022-10-28 16:49:13.343750
65,-6.21,2022-10-28 16:49:13.359375
66,-11.68,2022-10-28 16:49:13.375000
67,-17.93,2022-10-28 16:49:13.390625
68,-25.78,2022-10-28 16:49:13.406250
69,-35.99,2022-10-28 16:49:13.421875
70,-48.93,2022-10-28 16:49:13.437500
71,-64.15,2022-10-28 16:49:13.453125
72,-80.01,2022-10-28 16:49:13.468750
73,-93.8,2022-10-28 16:49:13.484375
74,-102.19,2022-10-28 16:49:13.500000
75,-102.18,2022-10-28 16:49:13.515625
76,-92.16,2022-10-28 16:49:13.531250
77,-72.43,2022-10-28 16:49:13.546875
78,-45.28,2022-10-28 16:49:13.562500
79,-14.27,2022-10-28 16:49:13.578125
80,16.78,2022-10-28 16:49:13.593750
81,44.7,2022-10-28 16:49:13.609375
82,67.52,2022-10-28 16:49:13.625000
83,84.5,2022-10-28 16:49:13.640625
84,95.88,2022-10-28 16:49:13.656250
85,102.41,2022-10-28 16:49:13.671875
86,105.04,2022-10-28 16:49:13.687500
87,104.77,2022-10-28 16:49:13.703125
88,102.49,2022-10-28 16:49:13.718750
89,98.95,2022-10-28 16:49:13.734375
90,94.78,2022-10-28 16:49:13.750000
91,90.44,2022-10-28 16:49:13.765625
92,86.31,2022-10-28 16:49:13.781250
93,82.6,2022-10-28 16:49:13.796875
94,79.41,2022-10-28 16:49:13.812500
95,76.77,2022-10-28 16:49:13.828125
96,74.64,2022-10-28 16:49:13.843750
97,72.96,2022-10-28 16:49:13.859375
98,71.6,2022-10-28 16:49:13.875000
99,70.27,2022-10-28 16:49:13.890625
100,68.41,2022-10-28 16:49:13.906250
101,65.33,2022-10-28 16:49:13.921875
102,60.46,2022-10-28 16:49:13.937500
103,53.67,2022-10-28 16:49:13.953125
104,45.52,2022-10-28 16:49:13.968750
105,37.26,2022-10-28 16:49:13.984375
106,30.41,2022-10-28 16:49:14.000000
107,26.31,2022-10-28 16:49:14.015625
108,25.57,2022-10-28 16:49:14.031250
109,27.85,2022-10-28 16:49:14.046875
110,31.92,2022-10-28 16:49:14.062500
111,35.96,2022-10-28 16:49:14.078125
112,38.04,2022-10-28 16:49:14.093750
113,36.69,2022-10-28 16:49:14.109375
114,31.48,2022-10-28 16:49:14.125000
115,23.4,2022-10-28 16:49:14.140625
116,14.7,2022-10-28 16:49:14.156250
117,8.39,2022-10-28 16:49:14.171875
118,7.12,2022-10-28 16:49:14.187500
119,11.95,2022-10-28 16:49:14.203125
120,21.55,2022-10-28 16:49:14.218750
121,32.17,2022-10-28 16:49:14.234375
122,38.68,2022-10-28 16:49:14.250000
123,36.38,2022-10-28 16:49:14.265625
124,22.86,2022-10-28 16:49:14.281250
125,-1.06,2022-10-28 16:49:14.296875
126,-31.69,2022-10-28 16:49:14.312500
127,-64.02,2022-10-28 16:49:14.328125
128,-93.69,2022-10-28 16:49:14.343750
129,-118.34,2022-10-28 16:49:14.359375
130,-137.74,2022-10-28 16:49:14.375000
131,-152.87,2022-10-28 16:49:14.390625
132,-164.56,2022-10-28 16:49:14.406250
133,-172.72,2022-10-28 16:49:14.421875
134,-176.39,2022-10-28 16:49:14.437500
135,-174.63,2022-10-28 16:49:14.453125
136,-167.44,2022-10-28 16:49:14.468750
137,-156.06,2022-10-28 16:49:14.484375
138,-142.39,2022-10-28 16:49:14.500000
139,-128.04,2022-10-28 16:49:14.515625
140,-113.57,2022-10-28 16:49:14.531250
141,-98.47,2022-10-28 16:49:14.546875
142,-81.86,2022-10-28 16:49:14.562500
143,-63.42,2022-10-28 16:49:14.578125
144,-43.96,2022-10-28 16:49:14.593750
145,-25.23,2022-10-28 16:49:14.609375
146,-9.19,2022-10-28 16:49:14.625000
147,2.97,2022-10-28 16:49:14.640625
148,11.42,2022-10-28 16:49:14.656250
149,17.63,2022-10-28 16:49:14.671875
150,23.62,2022-10-28 16:49:14.687500
151,30.96,2022-10-28 16:49:14.703125
152,39.93,2022-10-28 16:49:14.718750
153,49.38,2022-10-28 16:49:14.734375
154,57.24,2022-10-28 16:49:14.750000
155,61.6,2022-10-28 16:49:14.765625
156,61.94,2022-10-28 16:49:14.781250
157,59.85,2022-10-28 16:49:14.796875
158,59.0,2022-10-28 16:49:14.812500
159,64.33,2022-10-28 16:49:14.828125
160,80.67,2022-10-28 16:49:14.843750
161,111.1,2022-10-28 16:49:14.859375
162,155.55,2022-10-28 16:49:14.875000
163,210.18,2022-10-28 16:49:14.890625
164,267.67,2022-10-28 16:49:14.906250
165,318.73,2022-10-28 16:49:14.921875
166,354.42,2022-10-28 16:49:14.937500
167,368.51,2022-10-28 16:49:14.953125
168,359.23,2022-10-28 16:49:14.968750
169,329.66,2022-10-28 16:49:14.984375
170,286.59,2022-10-28 16:49:15.000000
171,238.41,2022-10-28 16:49:15.015625
172,192.68,2022-10-28 16:49:15.031250
173,154.37,2022-10-28 16:49:15.046875
174,125.2,2022-10-28 16:49:15.062500
175,104.04,2022-10-28 16:49:15.078125
176,87.97,2022-10-28 16:49:15.093750
177,73.47,2022-10-28 16:49:15.109375
178,57.4,2022-10-28 16:49:15.125000
179,37.61,2022-10-28 16:49:15.140625
180,13.34,2022-10-28 16:49:15.156250
181,-14.74,2022-10-28 16:49:15.171875
182,-44.85,2022-10-28 16:49:15.187500
183,-74.76,2022-10-28 16:49:15.203125
184,-102.51,2022-10-28 16:49:15.218750
185,-127.14,2022-10-28 16:49:15.234375
186,-148.75,2022-10-28 16:49:15.250000
187,-168.28,2022-10-28 16:49:15.265625
188,-186.93,2022-10-28 16:49:15.281250
189,-205.52,2022-10-28 16:49:15.296875
190,-224.26,2022-10-28 16:49:15.312500
191,-242.91,2022-10-28 16:49:15.328125
192,-261.03,2022-10-28 16:49:15.343750
193,-278.3,2022-10-28 16:49:15.359375
194,-294.73,2022-10-28 16:49:15.375000
195,-310.61,2022-10-28 16:49:15.390625
196,-326.53,2022-10-28 16:49:15.406250
197,-343.18,2022-10-28 16:49:15.421875
198,-360.86,2022-10-28 16:49:15.437500
199,-379.11,2022-10-28 16:49:15.453125
200,-396.35,2022-10-28 16:49:15.468750
201,-409.91,2022-10-28 16:49:15.484375
202,-416.83,2022-10-28 16:49:15.500000
203,-414.64,2022-10-28 16:49:15.515625
204,-402.3,2022-10-28 16:49:15.531250
205,-380.52,2022-10-28 16:49:15.546875
206,-351.33,2022-10-28 16:49:15.562500
207,-317.42,2022-10-28 16:49:15.578125
208,-281.36,2022-10-28 16:49:15.593750
209,-245.26,2022-10-28 16:49:15.609375
210,-210.73,2022-10-28 16:49:15.625000
211,-178.99,2022-10-28 16:49:15.640625
212,-151.01,2022-10-28 16:49:15.656250
213,-127.3,2022-10-28 16:49:15.671875
214,-107.87,2022-10-28 16:49:15.687500
215,-92.2,2022-10-28 16:49:15.703125
216,-79.46,2022-10-28 16:49:15.718750
217,-68.84,2022-10-28 16:49:15.734375
218,-59.7,2022-10-28 16:49:15.750000
219,-51.54,2022-10-28 16:49:15.765625
220,-43.85,2022-10-28 16:49:15.781250
221,-36.12,2022-10-28 16:49:15.796875
222,-27.77,2022-10-28 16:49:15.812500
223,-18.41,2022-10-28 16:49:15.828125
224,-7.97,2022-10-28 16:49:15.843750
225,3.17,2022-10-28 16:49:15.859375
226,14.25,2022-10-28 16:49:15.875000
227,24.35,2022-10-28 16:49:15.890625
228,32.56,2022-10-28 16:49:15.906250
229,38.25,2022-10-28 16:49:15.921875
230,41.11,2022-10-28 16:49:15.937500
231,41.2,2022-10-28 16:49:15.953125
232,38.85,2022-10-28 16:49:15.968750
233,34.59,2022-10-28 16:49:15.984375
234,28.96,2022-10-28 16:49:16.000000
235,22.36,2022-10-28 16:49:16.015625
236,14.86,2022-10-28 16:49:16.031250
237,6.05,2022-10-28 16:49:16.046875
238,-4.85,2022-10-28 16:49:16.062500
239,-18.74,2022-10-28 16:49:16.078125
240,-36.06,2022-10-28 16:49:16.093750
241,-56.18,2022-10-28 16:49:16.109375
242,-77.0,2022-10-28 16:49:16.125000
243,-95.11,2022-10-28 16:49:16.140625
244,-106.58,2022-10-28 16:49:16.156250
245,-108.1,2022-10-28 16:49:16.171875
246,-98.12,2022-10-28 16:49:16.187500
247,-77.42,2022-10-28 16:49:16.203125
248,-48.74,2022-10-28 16:49:16.218750
249,-15.74,2022-10-28 16:49:16.234375
250,18.11,2022-10-28 16:49:16.250000
251,50.29,2022-10-28 16:49:16.265625
252,79.29,2022-10-28 16:49:16.281250
253,104.15,2022-10-28 16:49:16.296875
254,124.06,2022-10-28 16:49:16.312500
255,138.2,2022-10-28 16:49:16.328125
256,146.03,2022-10-28 16:49:16.343750
257,147.67,2022-10-28 16:49:16.359375
258,144.06,2022-10-28 16:49:16.375000
259,136.71,2022-10-28 16:49:16.390625
260,127.26,2022-10-28 16:49:16.406250
261,117.04,2022-10-28 16:49:16.421875
262,106.94,2022-10-28 16:49:16.437500
263,97.57,2022-10-28 16:49:16.453125
264,89.51,2022-10-28 16:49:16.468750
265,83.31,2022-10-28 16:49:16.484375
266,79.38,2022-10-28 16:49:16.500000
267,77.83,2022-10-28 16:49:16.515625
268,78.22,2022-10-28 16:49:16.531250
269,79.65,2022-10-28 16:49:16.546875
270,80.98,2022-10-28 16:49:16.562500
271,81.03,2022-10-28 16:49:16.578125
272,78.92,2022-10-28 16:49:16.593750
273,74.16,2022-10-28 16:49:16.609375
274,66.75,2022-10-28 16:49:16.625000
275,57.1,2022-10-28 16:49:16.640625
276,45.86,2022-10-28 16:49:16.656250
277,33.74,2022-10-28 16:49:16.671875
278,21.19,2022-10-28 16:49:16.687500
279,8.27,2022-10-28 16:49:16.703125
280,-5.44,2022-10-28 16:49:16.718750
281,-20.7,2022-10-28 16:49:16.734375
282,-38.36,2022-10-28 16:49:16.750000
283,-58.69,2022-10-28 16:49:16.765625
284,-80.82,2022-10-28 16:49:16.781250
285,-102.45,2022-10-28 16:49:16.796875
286,-120.04,2022-10-28 16:49:16.812500
287,-129.65,2022-10-28 16:49:16.828125
288,-128.35,2022-10-28 16:49:16.843750
289,-115.2,2022-10-28 16:49:16.859375
290,-91.61,2022-10-28 16:49:16.875000
291,-60.8,2022-10-28 16:49:16.890625
292,-26.59,2022-10-28 16:49:16.906250
293,7.72,2022-10-28 16:49:16.921875
294,39.84,2022-10-28 16:49:16.937500
295,68.35,2022-10-28 16:49:16.953125
296,92.14,2022-10-28 16:49:16.968750
297,110.07,2022-10-28 16:49:16.984375
298,120.97,2022-10-28 16:49:17.000000
299,124.17,2022-10-28 16:49:17.015625
300,119.91,2022-10-28 16:49:17.031250
301,109.46,2022-10-28 16:49:17.046875
302,94.75,2022-10-28 16:49:17.062500
303,77.92,2022-10-28 16:49:17.078125
304,60.86,2022-10-28 16:49:17.093750
305,45.12,2022-10-28 16:49:17.109375
306,31.96,2022-10-28 16:49:17.125000
307,22.39,2022-10-28 16:49:17.140625
308,17.07,2022-10-28 16:49:17.156250
309,16.11,2022-10-28 16:49:17.171875
310,18.88,2022-10-28 16:49:17.187500
311,24.09,2022-10-28 16:49:17.203125
312,30.13,2022-10-28 16:49:17.218750
313,35.49,2022-10-28 16:49:17.234375
314,39.15,2022-10-28 16:49:17.250000
315,40.78,2022-10-28 16:49:17.265625
316,40.6,2022-10-28 16:49:17.281250
317,39.12,2022-10-28 16:49:17.296875
318,36.76,2022-10-28 16:49:17.312500
319,33.71,2022-10-28 16:49:17.328125
320,29.77,2022-10-28 16:49:17.343750
321,24.41,2022-10-28 16:49:17.359375
322,17.03,2022-10-28 16:49:17.375000
323,7.02,2022-10-28 16:49:17.390625
324,-5.78,2022-10-28 16:49:17.406250
325,-20.75,2022-10-28 16:49:17.421875
326,-36.22,2022-10-28 16:49:17.437500
327,-49.46,2022-10-28 16:49:17.453125
328,-57.14,2022-10-28 16:49:17.468750
329,-56.21,2022-10-28 16:49:17.484375
330,-44.84,2022-10-28 16:49:17.500000
331,-23.13,2022-10-28 16:49:17.515625
332,6.92,2022-10-28 16:49:17.531250
333,42.12,2022-10-28 16:49:17.546875
334,79.1,2022-10-28 16:49:17.562500
335,115.18,2022-10-28 16:49:17.578125
336,148.62,2022-10-28 16:49:17.593750
337,178.34,2022-10-28 16:49:17.609375
338,203.49,2022-10-28 16:49:17.625000
339,223.12,2022-10-28 16:49:17.640625
340,236.35,2022-10-28 16:49:17.656250
341,242.83,2022-10-28 16:49:17.671875
342,243.14,2022-10-28 16:49:17.687500
343,238.83,2022-10-28 16:49:17.703125
344,232.05,2022-10-28 16:49:17.718750
345,224.94,2022-10-28 16:49:17.734375
346,219.15,2022-10-28 16:49:17.750000
347,215.56,2022-10-28 16:49:17.765625
348,214.44,2022-10-28 16:49:17.781250
349,215.58,2022-10-28 16:49:17.796875
350,218.45,2022-10-28 16:49:17.812500
351,222.21,2022-10-28 16:49:17.828125
352,225.74,2022-10-28 16:49:17.843750
353,227.7,2022-10-28 16:49:17.859375
354,226.85,2022-10-28 16:49:17.875000
355,222.26,2022-10-28 16:49:17.890625
356,213.46,2022-10-28 16:49:17.906250
357,200.52,2022-10-28 16:49:17.921875
358,183.89,2022-10-28 16:49:17.937500
359,164.42,2022-10-28 16:49:17.953125
360,143.2,2022-10-28 16:49:17.968750
361,121.54,2022-10-28 16:49:17.984375
362,100.81,2022-10-28 16:49:18.000000
363,82.12,2022-10-28 16:49:18.015625
364,66.13,2022-10-28 16:49:18.031250
365,52.89,2022-10-28 16:49:18.046875
366,42.0,2022-10-28 16:49:18.062500
367,32.87,2022-10-28 16:49:18.078125
368,25.12,2022-10-28 16:49:18.093750
369,18.73,2022-10-28 16:49:18.109375
370,14.01,2022-10-28 16:49:18.125000
371,11.28,2022-10-28 16:49:18.140625
372,10.62,2022-10-28 16:49:18.156250
373,11.73,2022-10-28 16:49:18.171875
374,14.04,2022-10-28 16:49:18.187500
375,16.97,2022-10-28 16:49:18.203125
376,20.12,2022-10-28 16:49:18.218750
377,23.31,2022-10-28 16:49:18.234375
378,26.52,2022-10-28 16:49:18.250000
379,29.62,2022-10-28 16:49:18.265625
380,32.34,2022-10-28 16:49:18.281250
381,34.29,2022-10-28 16:49:18.296875
382,35.11,2022-10-28 16:49:18.312500
383,34.7,2022-10-28 16:49:18.328125
384,33.29,2022-10-28 16:49:18.343750
385,31.36,2022-10-28 16:49:18.359375
386,29.36,2022-10-28 16:49:18.375000
387,27.5,2022-10-28 16:49:18.390625
388,25.54,2022-10-28 16:49:18.406250
389,22.8,2022-10-28 16:49:18.421875
390,18.37,2022-10-28 16:49:18.437500
391,11.52,2022-10-28 16:49:18.453125
392,2.0,2022-10-28 16:49:18.468750
393,-9.79,2022-10-28 16:49:18.484375
394,-22.91,2022-10-28 16:49:18.500000
395,-36.15,2022-10-28 16:49:18.515625
396,-48.41,2022-10-28 16:49:18.531250
397,-58.92,2022-10-28 16:49:18.546875
398,-67.28,2022-10-28 16:49:18.562500
399,-73.38,2022-10-28 16:49:18.578125
400,-77.38,2022-10-28 16:49:18.593750
401,-79.64,2022-10-28 16:49:18.609375
402,-80.74,2022-10-28 16:49:18.625000
403,-81.41,2022-10-28 16:49:18.640625
404,-82.19,2022-10-28 16:49:18.656250
405,-83.16,2022-10-28 16:49:18.671875
406,-83.88,2022-10-28 16:49:18.687500
407,-83.65,2022-10-28 16:49:18.703125
408,-82.07,2022-10-28 16:49:18.718750
409,-79.41,2022-10-28 16:49:18.734375
410,-76.6,2022-10-28 16:49:18.750000
411,-74.78,2022-10-28 16:49:18.765625
412,-74.58,2022-10-28 16:49:18.781250
413,-75.85,2022-10-28 16:49:18.796875
414,-77.92,2022-10-28 16:49:18.812500
415,-80.09,2022-10-28 16:49:18.828125
416,-82.18,2022-10-28 16:49:18.843750
417,-84.52,2022-10-28 16:49:18.859375
418,-87.58,2022-10-28 16:49:18.875000
419,-91.35,2022-10-28 16:49:18.890625
420,-95.1,2022-10-28 16:49:18.906250
421,-97.69,2022-10-28 16:49:18.921875
422,-98.2,2022-10-28 16:49:18.937500
423,-96.46,2022-10-28 16:49:18.953125
424,-93.16,2022-10-28 16:49:18.968750
425,-89.45,2022-10-28 16:49:18.984375
426,-86.3,2022-10-28 16:49:19.000000
427,-84.01,2022-10-28 16:49:19.015625
428,-82.29,2022-10-28 16:49:19.031250
429,-80.42,2022-10-28 16:49:19.046875
430,-77.86,2022-10-28 16:49:19.062500
431,-74.44,2022-10-28 16:49:19.078125
432,-70.38,2022-10-28 16:49:19.093750
433,-66.05,2022-10-28 16:49:19.109375
434,-61.7,2022-10-28 16:49:19.125000
435,-57.26,2022-10-28 16:49:19.140625
436,-52.39,2022-10-28 16:49:19.156250
437,-46.81,2022-10-28 16:49:19.171875
438,-40.48,2022-10-28 16:49:19.187500
439,-33.94,2022-10-28 16:49:19.203125
440,-28.17,2022-10-28 16:49:19.218750
441,-24.38,2022-10-28 16:49:19.234375
442,-23.49,2022-10-28 16:49:19.250000
443,-25.68,2022-10-28 16:49:19.265625
444,-30.01,2022-10-28 16:49:19.281250
445,-34.56,2022-10-28 16:49:19.296875
446,-36.95,2022-10-28 16:49:19.312500
447,-35.06,2022-10-28 16:49:19.328125
448,-27.79,2022-10-28 16:49:19.343750
449,-15.53,2022-10-28 16:49:19.359375
450,-0.04,2022-10-28 16:49:19.375000
451,15.98,2022-10-28 16:49:19.390625
452,29.75,2022-10-28 16:49:19.406250
453,39.09,2022-10-28 16:49:19.421875
454,42.99,2022-10-28 16:49:19.437500
455,41.71,2022-10-28 16:49:19.453125
456,36.6,2022-10-28 16:49:19.468750
457,29.5,2022-10-28 16:49:19.484375
458,22.12,2022-10-28 16:49:19.500000
459,15.59,2022-10-28 16:49:19.515625
460,10.14,2022-10-28 16:49:19.531250
461,5.41,2022-10-28 16:49:19.546875
462,0.86,2022-10-28 16:49:19.562500
463,-3.8,2022-10-28 16:49:19.578125
464,-8.35,2022-10-28 16:49:19.593750
465,-12.34,2022-10-28 16:49:19.609375
466,-15.47,2022-10-28 16:49:19.625000
467,-17.93,2022-10-28 16:49:19.640625
468,-20.45,2022-10-28 16:49:19.656250
469,-23.89,2022-10-28 16:49:19.671875
470,-28.72,2022-10-28 16:49:19.687500
471,-34.76,2022-10-28 16:49:19.703125
472,-41.16,2022-10-28 16:49:19.718750
473,-46.86,2022-10-28 16:49:19.734375
474,-51.11,2022-10-28 16:49:19.750000
475,-53.81,2022-10-28 16:49:19.765625
476,-55.53,2022-10-28 16:49:19.781250
477,-57.3,2022-10-28 16:49:19.796875
478,-60.14,2022-10-28 16:49:19.812500
479,-64.85,2022-10-28 16:49:19.828125
480,-71.69,2022-10-28 16:49:19.843750
481,-80.25,2022-10-28 16:49:19.859375
482,-89.14,2022-10-28 16:49:19.875000
483,-96.13,2022-10-28 16:49:19.890625
484,-98.41,2022-10-28 16:49:19.906250
485,-93.42,2022-10-28 16:49:19.921875
486,-79.84,2022-10-28 16:49:19.937500
487,-58.32,2022-10-28 16:49:19.953125
488,-31.56,2022-10-28 16:49:19.968750
489,-3.61,2022-10-28 16:49:19.984375
490,21.4,2022-10-28 16:49:20.000000
491,40.54,2022-10-28 16:49:20.015625
492,52.8,2022-10-28 16:49:20.031250
493,58.9,2022-10-28 16:49:20.046875
494,60.5,2022-10-28 16:49:20.062500
495,59.27,2022-10-28 16:49:20.078125
496,56.28,2022-10-28 16:49:20.093750
497,51.99,2022-10-28 16:49:20.109375
498,46.68,2022-10-28 16:49:20.125000
499,40.76,2022-10-28 16:49:20.140625
500,35.02,2022-10-28 16:49:20.156250
501,30.27,2022-10-28 16:49:20.171875
502,27.02,2022-10-28 16:49:20.187500
503,25.17,2022-10-28 16:49:20.203125
504,24.13,2022-10-28 16:49:20.218750
505,23.17,2022-10-28 16:49:20.234375
506,21.84,2022-10-28 16:49:20.250000
507,20.17,2022-10-28 16:49:20.265625
508,18.54,2022-10-28 16:49:20.281250
509,17.42,2022-10-28 16:49:20.296875
510,16.96,2022-10-28 16:49:20.312500
511,16.91,2022-10-28 16:49:20.328125
512,16.78,2022-10-28 16:49:20.343750
513,15.96,2022-10-28 16:49:20.359375
514,14.02,2022-10-28 16:49:20.375000
515,10.78,2022-10-28 16:49:20.390625
516,6.23,2022-10-28 16:49:20.406250
517,0.48,2022-10-28 16:49:20.421875
518,-6.41,2022-10-28 16:49:20.437500
519,-14.42,2022-10-28 16:49:20.453125
520,-23.48,2022-10-28 16:49:20.468750
521,-33.34,2022-10-28 16:49:20.484375
522,-43.47,2022-10-28 16:49:20.500000
523,-52.87,2022-10-28 16:49:20.515625
524,-60.18,2022-10-28 16:49:20.531250
525,-64.06,2022-10-28 16:49:20.546875
526,-63.6,2022-10-28 16:49:20.562500
527,-58.77,2022-10-28 16:49:20.578125
528,-50.57,2022-10-28 16:49:20.593750
529,-40.65,2022-10-28 16:49:20.609375
530,-30.87,2022-10-28 16:49:20.625000
531,-22.68,2022-10-28 16:49:20.640625
532,-16.82,2022-10-28 16:49:20.656250
533,-13.32,2022-10-28 16:49:20.671875
534,-11.8,2022-10-28 16:49:20.687500
535,-11.74,2022-10-28 16:49:20.703125
536,-12.79,2022-10-28 16:49:20.718750
537,-14.67,2022-10-28 16:49:20.734375
538,-17.27,2022-10-28 16:49:20.750000
539,-20.4,2022-10-28 16:49:20.765625
540,-23.84,2022-10-28 16:49:20.781250
541,-27.41,2022-10-28 16:49:20.796875
542,-30.92,2022-10-28 16:49:20.812500
543,-34.3,2022-10-28 16:49:20.828125
544,-37.5,2022-10-28 16:49:20.843750
545,-40.54,2022-10-28 16:49:20.859375
546,-43.45,2022-10-28 16:49:20.875000
547,-46.29,2022-10-28 16:49:20.890625
548,-49.06,2022-10-28 16:49:20.906250
549,-51.6,2022-10-28 16:49:20.921875
550,-53.62,2022-10-28 16:49:20.937500
551,-54.78,2022-10-28 16:49:20.953125
552,-54.8,2022-10-28 16:49:20.968750
553,-53.72,2022-10-28 16:49:20.984375
554,-51.85,2022-10-28 16:49:21.000000
555,-49.8,2022-10-28 16:49:21.015625
556,-48.35,2022-10-28 16:49:21.031250
557,-48.2,2022-10-28 16:49:21.046875
558,-49.84,2022-10-28 16:49:21.062500
559,-53.23,2022-10-28 16:49:21.078125
560,-57.65,2022-10-28 16:49:21.093750
561,-61.63,2022-10-28 16:49:21.109375
562,-63.2,2022-10-28 16:49:21.125000
563,-60.3,2022-10-28 16:49:21.140625
564,-51.66,2022-10-28 16:49:21.156250
565,-37.34,2022-10-28 16:49:21.171875
566,-19.04,2022-10-28 16:49:21.187500
567,0.33,2022-10-28 16:49:21.203125
568,17.63,2022-10-28 16:49:21.218750
569,30.49,2022-10-28 16:49:21.234375
570,37.92,2022-10-28 16:49:21.250000
571,40.38,2022-10-28 16:49:21.265625
572,39.23,2022-10-28 16:49:21.281250
573,35.98,2022-10-28 16:49:21.296875
574,31.78,2022-10-28 16:49:21.312500
575,27.27,2022-10-28 16:49:21.328125
576,22.69,2022-10-28 16:49:21.343750
577,18.25,2022-10-28 16:49:21.359375
578,14.23,2022-10-28 16:49:21.375000
579,11.0,2022-10-28 16:49:21.390625
580,8.84,2022-10-28 16:49:21.406250
581,7.77,2022-10-28 16:49:21.421875
582,7.49,2022-10-28 16:49:21.437500
583,7.4,2022-10-28 16:49:21.453125
584,6.86,2022-10-28 16:49:21.468750
585,5.26,2022-10-28 16:49:21.484375
586,2.38,2022-10-28 16:49:21.500000
587,-1.63,2022-10-28 16:49:21.515625
588,-6.15,2022-10-28 16:49:21.531250
589,-10.4,2022-10-28 16:49:21.546875
590,-13.65,2022-10-28 16:49:21.562500
591,-15.57,2022-10-28 16:49:21.578125
592,-16.37,2022-10-28 16:49:21.593750
593,-16.91,2022-10-28 16:49:21.609375
594,-18.39,2022-10-28 16:49:21.625000
595,-21.95,2022-10-28 16:49:21.640625
596,-28.32,2022-10-28 16:49:21.656250
597,-37.59,2022-10-28 16:49:21.671875
598,-49.21,2022-10-28 16:49:21.687500
599,-62.02,2022-10-28 16:49:21.703125
600,-74.29,2022-10-28 16:49:21.718750
601,-83.82,2022-10-28 16:49:21.734375
602,-88.22,2022-10-28 16:49:21.750000
603,-85.38,2022-10-28 16:49:21.765625
604,-74.21,2022-10-28 16:49:21.781250
605,-55.21,2022-10-28 16:49:21.796875
606,-30.66,2022-10-28 16:49:21.812500
607,-4.12,2022-10-28 16:49:21.828125
608,20.59,2022-10-28 16:49:21.843750
609,40.54,2022-10-28 16:49:21.859375
610,54.28,2022-10-28 16:49:21.875000
611,61.99,2022-10-28 16:49:21.890625
612,64.85,2022-10-28 16:49:21.906250
613,64.33,2022-10-28 16:49:21.921875
614,61.61,2022-10-28 16:49:21.937500
615,57.47,2022-10-28 16:49:21.953125
616,52.59,2022-10-28 16:49:21.968750
617,47.54,2022-10-28 16:49:21.984375
618,42.89,2022-10-28 16:49:22.000000
619,38.93,2022-10-28 16:49:22.015625
620,35.55,2022-10-28 16:49:22.031250
621,32.2,2022-10-28 16:49:22.046875
622,28.22,2022-10-28 16:49:22.062500
623,23.19,2022-10-28 16:49:22.078125
624,17.26,2022-10-28 16:49:22.093750
625,11.13,2022-10-28 16:49:22.109375
626,5.69,2022-10-28 16:49:22.125000
627,1.57,2022-10-28 16:49:22.140625
628,-1.21,2022-10-28 16:49:22.156250
629,-3.24,2022-10-28 16:49:22.171875
630,-5.38,2022-10-28 16:49:22.187500
631,-8.2,2022-10-28 16:49:22.203125
632,-11.79,2022-10-28 16:49:22.218750
633,-15.72,2022-10-28 16:49:22.234375
634,-19.32,2022-10-28 16:49:22.250000
635,-22.15,2022-10-28 16:49:22.265625
636,-24.14,2022-10-28 16:49:22.281250
637,-25.57,2022-10-28 16:49:22.296875
638,-27.01,2022-10-28 16:49:22.312500
639,-29.03,2022-10-28 16:49:22.328125
640,-31.93,2022-10-28 16:49:22.343750
641,-35.47,2022-10-28 16:49:22.359375
642,-38.64,2022-10-28 16:49:22.375000
643,-39.55,2022-10-28 16:49:22.390625
644,-35.86,2022-10-28 16:49:22.406250
645,-25.32,2022-10-28 16:49:22.421875
646,-6.68,2022-10-28 16:49:22.437500
647,19.64,2022-10-28 16:49:22.453125
648,51.47,2022-10-28 16:49:22.468750
649,85.37,2022-10-28 16:49:22.484375
650,117.64,2022-10-28 16:49:22.500000
651,145.47,2022-10-28 16:49:22.515625
652,167.4,2022-10-28 16:49:22.531250
653,183.38,2022-10-28 16:49:22.546875
654,194.08,2022-10-28 16:49:22.562500
655,200.23,2022-10-28 16:49:22.578125
656,202.12,2022-10-28 16:49:22.593750
657,199.74,2022-10-28 16:49:22.609375
658,193.27,2022-10-28 16:49:22.625000
659,183.72,2022-10-28 16:49:22.640625
660,173.02,2022-10-28 16:49:22.656250
661,163.65,2022-10-28 16:49:22.671875
662,157.65,2022-10-28 16:49:22.687500
663,155.84,2022-10-28 16:49:22.703125
664,157.4,2022-10-28 16:49:22.718750
665,160.26,2022-10-28 16:49:22.734375
666,162.06,2022-10-28 16:49:22.750000
667,160.8,2022-10-28 16:49:22.765625
668,155.19,2022-10-28 16:49:22.781250
669,144.29,2022-10-28 16:49:22.796875
670,127.18,2022-10-28 16:49:22.812500
671,102.75,2022-10-28 16:49:22.828125
672,70.17,2022-10-28 16:49:22.843750
673,29.47,2022-10-28 16:49:22.859375
674,-18.19,2022-10-28 16:49:22.875000
675,-70.62,2022-10-28 16:49:22.890625
676,-125.52,2022-10-28 16:49:22.906250
677,-181.13,2022-10-28 16:49:22.921875
678,-236.59,2022-10-28 16:49:22.937500
679,-291.35,2022-10-28 16:49:22.953125
680,-344.07,2022-10-28 16:49:22.968750
681,-391.87,2022-10-28 16:49:22.984375
682,-430.52,2022-10-28 16:49:23.000000
683,-455.61,2022-10-28 16:49:23.015625
684,-464.41,2022-10-28 16:49:23.031250
685,-457.09,2022-10-28 16:49:23.046875
686,-437.08,2022-10-28 16:49:23.062500
687,-409.86,2022-10-28 16:49:23.078125
688,-381.15,2022-10-28 16:49:23.093750
689,-355.21,2022-10-28 16:49:23.109375
690,-334.04,2022-10-28 16:49:23.125000
691,-317.56,2022-10-28 16:49:23.140625
692,-304.7,2022-10-28 16:49:23.156250
693,-294.43,2022-10-28 16:49:23.171875
694,-286.15,2022-10-28 16:49:23.187500
695,-279.62,2022-10-28 16:49:23.203125
696,-274.36,2022-10-28 16:49:23.218750
697,-269.38,2022-10-28 16:49:23.234375
698,-263.24,2022-10-28 16:49:23.250000
699,-254.58,2022-10-28 16:49:23.265625
700,-242.69,2022-10-28 16:49:23.281250
701,-227.78,2022-10-28 16:49:23.296875
702,-210.85,2022-10-28 16:49:23.312500
703,-193.23,2022-10-28 16:49:23.328125
704,-176.1,2022-10-28 16:49:23.343750
705,-160.15,2022-10-28 16:49:23.359375
706,-145.57,2022-10-28 16:49:23.375000
707,-132.19,2022-10-28 16:49:23.390625
708,-119.76,2022-10-28 16:49:23.406250
709,-108.12,2022-10-28 16:49:23.421875
710,-97.31,2022-10-28 16:49:23.437500
711,-87.48,2022-10-28 16:49:23.453125
712,-78.67,2022-10-28 16:49:23.468750
713,-70.75,2022-10-28 16:49:23.484375
714,-63.4,2022-10-28 16:49:23.500000
715,-56.34,2022-10-28 16:49:23.515625
716,-49.51,2022-10-28 16:49:23.531250
717,-43.26,2022-10-28 16:49:23.546875
718,-38.1,2022-10-28 16:49:23.562500
719,-34.5,2022-10-28 16:49:23.578125
720,-32.53,2022-10-28 16:49:23.593750
721,-31.76,2022-10-28 16:49:23.609375
722,-31.37,2022-10-28 16:49:23.625000
723,-30.57,2022-10-28 16:49:23.640625
724,-28.85,2022-10-28 16:49:23.656250
725,-26.13,2022-10-28 16:49:23.671875
726,-22.68,2022-10-28 16:49:23.687500
727,-18.84,2022-10-28 16:49:23.703125
728,-15.04,2022-10-28 16:49:23.718750
729,-11.65,2022-10-28 16:49:23.734375
730,-9.03,2022-10-28 16:49:23.750000
731,-7.46,2022-10-28 16:49:23.765625
732,-6.86,2022-10-28 16:49:23.781250
733,-6.78,2022-10-28 16:49:23.796875
734,-6.25,2022-10-28 16:49:23.812500
735,-4.26,2022-10-28 16:49:23.828125
736,0.17,2022-10-28 16:49:23.843750
737,7.67,2022-10-28 16:49:23.859375
738,18.38,2022-10-28 16:49:23.875000
739,32.02,2022-10-28 16:49:23.890625
740,47.96,2022-10-28 16:49:23.906250
741,65.2,2022-10-28 16:49:23.921875
742,82.1,2022-10-28 16:49:23.937500
743,96.25,2022-10-28 16:49:23.953125
744,104.7,2022-10-28 16:49:23.968750
745,104.76,2022-10-28 16:49:23.984375
746,95.17,2022-10-28 16:49:24.000000
747,77.07,2022-10-28 16:49:24.015625
748,53.99,2022-10-28 16:49:24.031250
749,30.79,2022-10-28 16:49:24.046875
750,11.94,2022-10-28 16:49:24.062500
751,-0.08,2022-10-28 16:49:24.078125
752,-5.28,2022-10-28 16:49:24.093750
753,-5.56,2022-10-28 16:49:24.109375
754,-3.33,2022-10-28 16:49:24.125000
755,-0.14,2022-10-28 16:49:24.140625
756,3.62,2022-10-28 16:49:24.156250
757,8.18,2022-10-28 16:49:24.171875
758,13.24,2022-10-28 16:49:24.187500
759,17.35,2022-10-28 16:49:24.203125
760,18.21,2022-10-28 16:49:24.218750
761,13.66,2022-10-28 16:49:24.234375
762,2.98,2022-10-28 16:49:24.250000
763,-12.5,2022-10-28 16:49:24.265625
764,-29.83,2022-10-28 16:49:24.281250
765,-45.53,2022-10-28 16:49:24.296875
766,-56.77,2022-10-28 16:49:24.312500
767,-62.53,2022-10-28 16:49:24.328125
768,-63.46,2022-10-28 16:49:24.343750
769,-61.45,2022-10-28 16:49:24.359375
770,-58.47,2022-10-28 16:49:24.375000
771,-55.82,2022-10-28 16:49:24.390625
772,-53.81,2022-10-28 16:49:24.406250
773,-51.95,2022-10-28 16:49:24.421875
774,-49.6,2022-10-28 16:49:24.437500
775,-46.41,2022-10-28 16:49:24.453125
776,-42.51,2022-10-28 16:49:24.468750
777,-38.23,2022-10-28 16:49:24.484375
778,-33.71,2022-10-28 16:49:24.500000
779,-28.57,2022-10-28 16:49:24.515625
780,-21.9,2022-10-28 16:49:24.531250
781,-12.52,2022-10-28 16:49:24.546875
782,0.53,2022-10-28 16:49:24.562500
783,17.64,2022-10-28 16:49:24.578125
784,38.39,2022-10-28 16:49:24.593750
785,61.65,2022-10-28 16:49:24.609375
786,86.01,2022-10-28 16:49:24.625000
787,110.32,2022-10-28 16:49:24.640625
788,133.98,2022-10-28 16:49:24.656250
789,157.19,2022-10-28 16:49:24.671875
790,180.53,2022-10-28 16:49:24.687500
791,204.57,2022-10-28 16:49:24.703125
792,229.39,2022-10-28 16:49:24.718750
793,254.33,2022-10-28 16:49:24.734375
794,278.19,2022-10-28 16:49:24.750000
795,299.77,2022-10-28 16:49:24.765625
796,318.46,2022-10-28 16:49:24.781250
797,334.46,2022-10-28 16:49:24.796875
798,348.42,2022-10-28 16:49:24.812500
799,360.8,2022-10-28 16:49:24.828125
800,371.32,2022-10-28 16:49:24.843750
801,378.91,2022-10-28 16:49:24.859375
802,382.2,2022-10-28 16:49:24.875000
803,380.31,2022-10-28 16:49:24.890625
804,373.34,2022-10-28 16:49:24.906250
805,362.28,2022-10-28 16:49:24.921875
806,348.49,2022-10-28 16:49:24.937500
807,332.99,2022-10-28 16:49:24.953125
808,316.15,2022-10-28 16:49:24.968750
809,297.87,2022-10-28 16:49:24.984375
810,278.1,2022-10-28 16:49:25.000000
811,257.22,2022-10-28 16:49:25.015625
812,236.07,2022-10-28 16:49:25.031250
813,215.6,2022-10-28 16:49:25.046875
814,196.45,2022-10-28 16:49:25.062500
815,178.76,2022-10-28 16:49:25.078125
816,162.32,2022-10-28 16:49:25.093750
817,146.84,2022-10-28 16:49:25.109375
818,132.24,2022-10-28 16:49:25.125000
819,118.62,2022-10-28 16:49:25.140625
820,106.12,2022-10-28 16:49:25.156250
821,94.8,2022-10-28 16:49:25.171875
822,84.51,2022-10-28 16:49:25.187500
823,75.01,2022-10-28 16:49:25.203125
824,66.08,2022-10-28 16:49:25.218750
825,57.66,2022-10-28 16:49:25.234375
826,49.87,2022-10-28 16:49:25.250000
827,42.84,2022-10-28 16:49:25.265625
828,36.69,2022-10-28 16:49:25.281250
829,31.38,2022-10-28 16:49:25.296875
830,26.73,2022-10-28 16:49:25.312500
831,22.47,2022-10-28 16:49:25.328125
832,18.37,2022-10-28 16:49:25.343750
833,14.29,2022-10-28 16:49:25.359375
834,10.15,2022-10-28 16:49:25.375000
835,5.92,2022-10-28 16:49:25.390625
836,1.56,2022-10-28 16:49:25.406250
837,-2.89,2022-10-28 16:49:25.421875
838,-7.2,2022-10-28 16:49:25.437500
839,-10.93,2022-10-28 16:49:25.453125
840,-13.55,2022-10-28 16:49:25.468750
841,-14.59,2022-10-28 16:49:25.484375
842,-13.87,2022-10-28 16:49:25.500000
843,-11.57,2022-10-28 16:49:25.515625
844,-8.19,2022-10-28 16:49:25.531250
845,-4.38,2022-10-28 16:49:25.546875
846,-0.72,2022-10-28 16:49:25.562500
847,2.32,2022-10-28 16:49:25.578125
848,4.3,2022-10-28 16:49:25.593750
849,4.68,2022-10-28 16:49:25.609375
850,2.83,2022-10-28 16:49:25.625000
851,-1.88,2022-10-28 16:49:25.640625
852,-9.73,2022-10-28 16:49:25.656250
853,-20.34,2022-10-28 16:49:25.671875
854,-32.63,2022-10-28 16:49:25.687500
855,-45.0,2022-10-28 16:49:25.703125
856,-55.89,2022-10-28 16:49:25.718750
857,-64.32,2022-10-28 16:49:25.734375
858,-70.33,2022-10-28 16:49:25.750000
859,-74.82,2022-10-28 16:49:25.765625
860,-79.21,2022-10-28 16:49:25.781250
861,-84.77,2022-10-28 16:49:25.796875
862,-92.03,2022-10-28 16:49:25.812500
863,-100.66,2022-10-28 16:49:25.828125
864,-109.55,2022-10-28 16:49:25.843750
865,-117.25,2022-10-28 16:49:25.859375
866,-122.4,2022-10-28 16:49:25.875000
867,-124.11,2022-10-28 16:49:25.890625
868,-122.14,2022-10-28 16:49:25.906250
869,-116.97,2022-10-28 16:49:25.921875
870,-109.79,2022-10-28 16:49:25.937500
871,-102.2,2022-10-28 16:49:25.953125
872,-95.87,2022-10-28 16:49:25.968750
873,-91.84,2022-10-28 16:49:25.984375
874,-90.05,2022-10-28 16:49:26.000000
875,-89.1,2022-10-28 16:49:26.015625
876,-86.66,2022-10-28 16:49:26.031250
877,-80.2,2022-10-28 16:49:26.046875
878,-67.89,2022-10-28 16:49:26.062500
879,-49.17,2022-10-28 16:49:26.078125
880,-24.72,2022-10-28 16:49:26.093750
881,3.93,2022-10-28 16:49:26.109375
882,34.89,2022-10-28 16:49:26.125000
883,66.13,2022-10-28 16:49:26.140625
884,95.49,2022-10-28 16:49:26.156250
885,120.6,2022-10-28 16:49:26.171875
886,139.11,2022-10-28 16:49:26.187500
887,149.33,2022-10-28 16:49:26.203125
888,150.8,2022-10-28 16:49:26.218750
889,144.7,2022-10-28 16:49:26.234375
890,133.45,2022-10-28 16:49:26.250000
891,119.9,2022-10-28 16:49:26.265625
892,106.4,2022-10-28 16:49:26.281250
893,94.19,2022-10-28 16:49:26.296875
894,83.46,2022-10-28 16:49:26.312500
895,73.78,2022-10-28 16:49:26.328125
896,64.62,2022-10-28 16:49:26.343750
897,55.67,2022-10-28 16:49:26.359375
898,46.96,2022-10-28 16:49:26.375000
899,38.69,2022-10-28 16:49:26.390625
900,31.08,2022-10-28 16:49:26.406250
901,24.4,2022-10-28 16:49:26.421875
902,18.85,2022-10-28 16:49:26.437500
903,14.56,2022-10-28 16:49:26.453125
904,11.46,2022-10-28 16:49:26.468750
905,9.27,2022-10-28 16:49:26.484375
906,7.52,2022-10-28 16:49:26.500000
907,5.66,2022-10-28 16:49:26.515625
908,3.14,2022-10-28 16:49:26.531250
909,-0.42,2022-10-28 16:49:26.546875
910,-5.31,2022-10-28 16:49:26.562500
911,-11.56,2022-10-28 16:49:26.578125
912,-18.97,2022-10-28 16:49:26.593750
913,-26.97,2022-10-28 16:49:26.609375
914,-34.7,2022-10-28 16:49:26.625000
915,-41.13,2022-10-28 16:49:26.640625
916,-45.36,2022-10-28 16:49:26.656250
917,-46.83,2022-10-28 16:49:26.671875
918,-45.54,2022-10-28 16:49:26.687500
919,-41.94,2022-10-28 16:49:26.703125
920,-36.7,2022-10-28 16:49:26.718750
921,-30.4,2022-10-28 16:49:26.734375
922,-23.27,2022-10-28 16:49:26.750000
923,-15.23,2022-10-28 16:49:26.765625
924,-6.09,2022-10-28 16:49:26.781250
925,4.19,2022-10-28 16:49:26.796875
926,15.25,2022-10-28 16:49:26.812500
927,26.34,2022-10-28 16:49:26.828125
928,36.49,2022-10-28 16:49:26.843750
929,44.8,2022-10-28 16:49:26.859375
930,50.64,2022-10-28 16:49:26.875000
931,53.75,2022-10-28 16:49:26.890625
932,54.14,2022-10-28 16:49:26.906250
933,52.0,2022-10-28 16:49:26.921875
934,47.65,2022-10-28 16:49:26.937500
935,41.54,2022-10-28 16:49:26.953125
936,34.27,2022-10-28 16:49:26.968750
937,26.57,2022-10-28 16:49:26.984375
938,19.19,2022-10-28 16:49:27.000000
939,12.68,2022-10-28 16:49:27.015625
940,7.25,2022-10-28 16:49:27.031250
941,2.83,2022-10-28 16:49:27.046875
942,-0.85,2022-10-28 16:49:27.062500
943,-4.09,2022-10-28 16:49:27.078125
944,-7.08,2022-10-28 16:49:27.093750
945,-9.93,2022-10-28 16:49:27.109375
946,-12.64,2022-10-28 16:49:27.125000
947,-15.18,2022-10-28 16:49:27.140625
948,-17.48,2022-10-28 16:49:27.156250
949,-19.4,2022-10-28 16:49:27.171875
950,-20.71,2022-10-28 16:49:27.187500
951,-21.16,2022-10-28 16:49:27.203125
952,-20.57,2022-10-28 16:49:27.218750
953,-18.94,2022-10-28 16:49:27.234375
954,-16.51,2022-10-28 16:49:27.250000
955,-13.71,2022-10-28 16:49:27.265625
956,-11.01,2022-10-28 16:49:27.281250
957,-8.79,2022-10-28 16:49:27.296875
958,-7.15,2022-10-28 16:49:27.312500
959,-5.91,2022-10-28 16:49:27.328125
960,-4.7,2022-10-28 16:49:27.343750
961,-3.18,2022-10-28 16:49:27.359375
962,-1.26,2022-10-28 16:49:27.375000
963,0.78,2022-10-28 16:49:27.390625
964,2.36,2022-10-28 16:49:27.406250
965,2.79,2022-10-28 16:49:27.421875
966,1.56,2022-10-28 16:49:27.437500
967,-1.47,2022-10-28 16:49:27.453125
968,-6.07,2022-10-28 16:49:27.468750
969,-11.66,2022-10-28 16:49:27.484375
970,-17.55,2022-10-28 16:49:27.500000
971,-23.07,2022-10-28 16:49:27.515625
972,-27.7,2022-10-28 16:49:27.531250
973,-30.96,2022-10-28 16:49:27.546875
974,-32.44,2022-10-28 16:49:27.562500
975,-31.72,2022-10-28 16:49:27.578125
976,-28.56,2022-10-28 16:49:27.593750
977,-23.06,2022-10-28 16:49:27.609375
978,-15.91,2022-10-28 16:49:27.625000
979,-8.42,2022-10-28 16:49:27.640625
980,-2.28,2022-10-28 16:49:27.656250
981,0.91,2022-10-28 16:49:27.671875
982,0.15,2022-10-28 16:49:27.687500
983,-4.65,2022-10-28 16:49:27.703125
984,-12.59,2022-10-28 16:49:27.718750
985,-22.15,2022-10-28 16:49:27.734375
986,-31.63,2022-10-28 16:49:27.750000
987,-39.6,2022-10-28 16:49:27.765625
988,-45.12,2022-10-28 16:49:27.781250
989,-47.68,2022-10-28 16:49:27.796875
990,-47.17,2022-10-28 16:49:27.812500
991,-43.67,2022-10-28 16:49:27.828125
992,-37.54,2022-10-28 16:49:27.843750
993,-29.46,2022-10-28 16:49:27.859375
994,-20.49,2022-10-28 16:49:27.875000
995,-12.01,2022-10-28 16:49:27.890625
996,-5.38,2022-10-28 16:49:27.906250
997,-1.63,2022-10-28 16:49:27.921875
998,-1.06,2022-10-28 16:49:27.937500
999,-3.13,2022-10-28 16:49:27.953125
1000,-6.72,2022-10-28 16:49:27.968750
1001,-10.66,2022-10-28 16:49:27.984375
1002,-14.26,2022-10-28 16:49:28.000000
1003,-17.58,2022-10-28 16:49:28.015625
1004,-21.37,2022-10-28 16:49:28.031250
1005,-26.58,2022-10-28 16:49:28.046875
1006,-33.82,2022-10-28 16:49:28.062500
1007,-43.05,2022-10-28 16:49:28.078125
1008,-53.59,2022-10-28 16:49:28.093750
1009,-64.34,2022-10-28 16:49:28.109375
1010,-74.22,2022-10-28 16:49:28.125000
1011,-82.44,2022-10-28 16:49:28.140625
1012,-88.62,2022-10-28 16:49:28.156250
1013,-92.74,2022-10-28 16:49:28.171875
1014,-94.95,2022-10-28 16:49:28.187500
1015,-95.5,2022-10-28 16:49:28.203125
1016,-94.58,2022-10-28 16:49:28.218750
1017,-92.42,2022-10-28 16:49:28.234375
1018,-89.23,2022-10-28 16:49:28.250000
1019,-85.28,2022-10-28 16:49:28.265625
1020,-80.9,2022-10-28 16:49:28.281250
1021,-76.38,2022-10-28 16:49:28.296875
1022,-72.08,2022-10-28 16:49:28.312500
1023,-68.32,2022-10-28 16:49:28.328125
1024,-65.59,2022-10-28 16:49:28.343750
1025,-64.55,2022-10-28 16:49:28.359375
1026,-66.06,2022-10-28 16:49:28.375000
1027,-70.85,2022-10-28 16:49:28.390625
1028,-79.1,2022-10-28 16:49:28.406250
1029,-89.99,2022-10-28 16:49:28.421875
1030,-101.59,2022-10-28 16:49:28.437500
1031,-111.15,2022-10-28 16:49:28.453125
1032,-115.85,2022-10-28 16:49:28.468750
1033,-113.72,2022-10-28 16:49:28.484375
1034,-104.32,2022-10-28 16:49:28.500000
1035,-88.89,2022-10-28 16:49:28.515625
1036,-69.86,2022-10-28 16:49:28.531250
1037,-49.96,2022-10-28 16:49:28.546875
1038,-31.3,2022-10-28 16:49:28.562500
1039,-14.88,2022-10-28 16:49:28.578125
1040,-0.7,2022-10-28 16:49:28.593750
1041,11.73,2022-10-28 16:49:28.609375
1042,22.83,2022-10-28 16:49:28.625000
1043,32.76,2022-10-28 16:49:28.640625
1044,41.67,2022-10-28 16:49:28.656250
1045,50.13,2022-10-28 16:49:28.671875
1046,59.31,2022-10-28 16:49:28.687500
1047,70.6,2022-10-28 16:49:28.703125
1048,84.94,2022-10-28 16:49:28.718750
1049,101.82,2022-10-28 16:49:28.734375
1050,119.16,2022-10-28 16:49:28.750000
1051,133.62,2022-10-28 16:49:28.765625
1052,141.76,2022-10-28 16:49:28.781250
1053,141.25,2022-10-28 16:49:28.796875
1054,131.62,2022-10-28 16:49:28.812500
1055,114.22,2022-10-28 16:49:28.828125
1056,91.7,2022-10-28 16:49:28.843750
1057,67.13,2022-10-28 16:49:28.859375
1058,43.24,2022-10-28 16:49:28.875000
1059,22.04,2022-10-28 16:49:28.890625
1060,4.66,2022-10-28 16:49:28.906250
1061,-8.66,2022-10-28 16:49:28.921875
1062,-18.43,2022-10-28 16:49:28.937500
1063,-25.89,2022-10-28 16:49:28.953125
1064,-32.89,2022-10-28 16:49:28.968750
1065,-41.5,2022-10-28 16:49:28.984375
1066,-53.49,2022-10-28 16:49:29.000000
1067,-69.37,2022-10-28 16:49:29.015625
1068,-87.65,2022-10-28 16:49:29.031250
1069,-104.63,2022-10-28 16:49:29.046875
1070,-115.17,2022-10-28 16:49:29.062500
1071,-114.42,2022-10-28 16:49:29.078125
1072,-99.77,2022-10-28 16:49:29.093750
1073,-72.12,2022-10-28 16:49:29.109375
1074,-35.76,2022-10-28 16:49:29.125000
1075,3.22,2022-10-28 16:49:29.140625
1076,39.16,2022-10-28 16:49:29.156250
1077,68.69,2022-10-28 16:49:29.171875
1078,91.26,2022-10-28 16:49:29.187500
1079,108.27,2022-10-28 16:49:29.203125
1080,121.59,2022-10-28 16:49:29.218750
1081,132.16,2022-10-28 16:49:29.234375
1082,139.71,2022-10-28 16:49:29.250000
1083,143.22,2022-10-28 16:49:29.265625
1084,141.87,2022-10-28 16:49:29.281250
1085,135.68,2022-10-28 16:49:29.296875
1086,125.53,2022-10-28 16:49:29.312500
1087,112.8,2022-10-28 16:49:29.328125
1088,98.93,2022-10-28 16:49:29.343750
1089,85.22,2022-10-28 16:49:29.359375
1090,72.74,2022-10-28 16:49:29.375000
1091,62.31,2022-10-28 16:49:29.390625
1092,54.23,2022-10-28 16:49:29.406250
1093,47.96,2022-10-28 16:49:29.421875
1094,42.05,2022-10-28 16:49:29.437500
1095,34.56,2022-10-28 16:49:29.453125
1096,23.87,2022-10-28 16:49:29.468750
1097,9.49,2022-10-28 16:49:29.484375
1098,-7.64,2022-10-28 16:49:29.500000
1099,-25.45,2022-10-28 16:49:29.515625
1100,-41.85,2022-10-28 16:49:29.531250
1101,-55.66,2022-10-28 16:49:29.546875
1102,-67.08,2022-10-28 16:49:29.562500
1103,-77.54,2022-10-28 16:49:29.578125
1104,-88.91,2022-10-28 16:49:29.593750
1105,-102.75,2022-10-28 16:49:29.609375
1106,-119.72,2022-10-28 16:49:29.625000
1107,-139.22,2022-10-28 16:49:29.640625
1108,-159.34,2022-10-28 16:49:29.656250
1109,-176.98,2022-10-28 16:49:29.671875
1110,-188.37,2022-10-28 16:49:29.687500
1111,-189.98,2022-10-28 16:49:29.703125
1112,-179.65,2022-10-28 16:49:29.718750
1113,-157.39,2022-10-28 16:49:29.734375
1114,-125.6,2022-10-28 16:49:29.750000
1115,-88.33,2022-10-28 16:49:29.765625
1116,-50.01,2022-10-28 16:49:29.781250
1117,-14.28,2022-10-28 16:49:29.796875
1118,16.63,2022-10-28 16:49:29.812500
1119,41.87,2022-10-28 16:49:29.828125
1120,61.38,2022-10-28 16:49:29.843750
1121,75.4,2022-10-28 16:49:29.859375
1122,84.18,2022-10-28 16:49:29.875000
1123,88.07,2022-10-28 16:49:29.890625
1124,87.68,2022-10-28 16:49:29.906250
1125,83.95,2022-10-28 16:49:29.921875
1126,77.97,2022-10-28 16:49:29.937500
1127,70.89,2022-10-28 16:49:29.953125
1128,63.71,2022-10-28 16:49:29.968750
1129,57.28,2022-10-28 16:49:29.984375
1130,52.24,2022-10-28 16:49:30.000000
1131,49.14,2022-10-28 16:49:30.015625
1132,48.41,2022-10-28 16:49:30.031250
1133,50.35,2022-10-28 16:49:30.046875
1134,55.06,2022-10-28 16:49:30.062500
1135,62.37,2022-10-28 16:49:30.078125
1136,71.82,2022-10-28 16:49:30.093750
1137,82.62,2022-10-28 16:49:30.109375
1138,93.84,2022-10-28 16:49:30.125000
1139,104.48,2022-10-28 16:49:30.140625
1140,113.75,2022-10-28 16:49:30.156250
1141,121.08,2022-10-28 16:49:30.171875
1142,125.99,2022-10-28 16:49:30.187500
1143,127.81,2022-10-28 16:49:30.203125
1144,125.58,2022-10-28 16:49:30.218750
1145,118.3,2022-10-28 16:49:30.234375
1146,105.52,2022-10-28 16:49:30.250000
1147,88.14,2022-10-28 16:49:30.265625
1148,68.65,2022-10-28 16:49:30.281250
1149,50.7,2022-10-28 16:49:30.296875
1150,37.79,2022-10-28 16:49:30.312500
1151,31.93,2022-10-28 16:49:30.328125
1152,32.69,2022-10-28 16:49:30.343750
1153,37.31,2022-10-28 16:49:30.359375
1154,41.9,2022-10-28 16:49:30.375000
1155,42.85,2022-10-28 16:49:30.390625
1156,38.08,2022-10-28 16:49:30.406250
1157,27.47,2022-10-28 16:49:30.421875
1158,12.36,2022-10-28 16:49:30.437500
1159,-5.32,2022-10-28 16:49:30.453125
1160,-23.83,2022-10-28 16:49:30.468750
1161,-42.04,2022-10-28 16:49:30.484375
1162,-59.34,2022-10-28 16:49:30.500000
1163,-75.41,2022-10-28 16:49:30.515625
1164,-90.04,2022-10-28 16:49:30.531250
1165,-103.15,2022-10-28 16:49:30.546875
1166,-114.85,2022-10-28 16:49:30.562500
1167,-125.58,2022-10-28 16:49:30.578125
1168,-135.92,2022-10-28 16:49:30.593750
1169,-146.32,2022-10-28 16:49:30.609375
1170,-156.55,2022-10-28 16:49:30.625000
1171,-165.6,2022-10-28 16:49:30.640625
1172,-171.77,2022-10-28 16:49:30.656250
1173,-173.42,2022-10-28 16:49:30.671875
1174,-169.79,2022-10-28 16:49:30.687500
1175,-161.62,2022-10-28 16:49:30.703125
1176,-151.03,2022-10-28 16:49:30.718750
1177,-140.87,2022-10-28 16:49:30.734375
1178,-133.63,2022-10-28 16:49:30.750000
1179,-130.59,2022-10-28 16:49:30.765625
1180,-131.72,2022-10-28 16:49:30.781250
1181,-136.17,2022-10-28 16:49:30.796875
1182,-143.18,2022-10-28 16:49:30.812500
1183,-152.58,2022-10-28 16:49:30.828125
1184,-164.61,2022-10-28 16:49:30.843750
1185,-179.06,2022-10-28 16:49:30.859375
1186,-194.42,2022-10-28 16:49:30.875000
1187,-207.57,2022-10-28 16:49:30.890625
1188,-214.46,2022-10-28 16:49:30.906250
1189,-211.48,2022-10-28 16:49:30.921875
1190,-196.76,2022-10-28 16:49:30.937500
1191,-170.82,2022-10-28 16:49:30.953125
1192,-136.03,2022-10-28 16:49:30.968750
1193,-95.59,2022-10-28 16:49:30.984375
1194,-52.51,2022-10-28 16:49:31.000000
1195,-9.1,2022-10-28 16:49:31.015625
1196,32.82,2022-10-28 16:49:31.031250
1197,71.44,2022-10-28 16:49:31.046875
1198,104.74,2022-10-28 16:49:31.062500
1199,130.73,2022-10-28 16:49:31.078125
1200,148.06,2022-10-28 16:49:31.093750
1201,156.53,2022-10-28 16:49:31.109375
1202,157.18,2022-10-28 16:49:31.125000
1203,151.95,2022-10-28 16:49:31.140625
1204,143.04,2022-10-28 16:49:31.156250
1205,132.55,2022-10-28 16:49:31.171875
1206,122.24,2022-10-28 16:49:31.187500
1207,113.57,2022-10-28 16:49:31.203125
1208,107.63,2022-10-28 16:49:31.218750
1209,105.05,2022-10-28 16:49:31.234375
1210,105.77,2022-10-28 16:49:31.250000
1211,109.04,2022-10-28 16:49:31.265625
1212,113.62,2022-10-28 16:49:31.281250
1213,118.25,2022-10-28 16:49:31.296875
1214,122.05,2022-10-28 16:49:31.312500
1215,124.75,2022-10-28 16:49:31.328125
1216,126.65,2022-10-28 16:49:31.343750
1217,128.22,2022-10-28 16:49:31.359375
1218,129.75,2022-10-28 16:49:31.375000
1219,131.02,2022-10-28 16:49:31.390625
1220,131.2,2022-10-28 16:49:31.406250
1221,129.03,2022-10-28 16:49:31.421875
1222,123.18,2022-10-28 16:49:31.437500
1223,112.9,2022-10-28 16:49:31.453125
1224,98.77,2022-10-28 16:49:31.468750
1225,83.06,2022-10-28 16:49:31.484375
1226,69.7,2022-10-28 16:49:31.500000
1227,63.46,2022-10-28 16:49:31.515625
1228,68.5,2022-10-28 16:49:31.531250
1229,86.94,2022-10-28 16:49:31.546875
1230,117.81,2022-10-28 16:49:31.562500
1231,156.88,2022-10-28 16:49:31.578125
1232,197.57,2022-10-28 16:49:31.593750
1233,232.66,2022-10-28 16:49:31.609375
1234,256.17,2022-10-28 16:49:31.625000
1235,264.82,2022-10-28 16:49:31.640625
1236,258.61,2022-10-28 16:49:31.656250
1237,240.46,2022-10-28 16:49:31.671875
1238,215.01,2022-10-28 16:49:31.687500
1239,187.21,2022-10-28 16:49:31.703125
1240,161.04,2022-10-28 16:49:31.718750
1241,138.79,2022-10-28 16:49:31.734375
1242,121.04,2022-10-28 16:49:31.750000
1243,107.06,2022-10-28 16:49:31.765625
1244,95.55,2022-10-28 16:49:31.781250
1245,85.2,2022-10-28 16:49:31.796875
1246,74.95,2022-10-28 16:49:31.812500
1247,64.12,2022-10-28 16:49:31.828125
1248,52.3,2022-10-28 16:49:31.843750
1249,39.37,2022-10-28 16:49:31.859375
1250,25.56,2022-10-28 16:49:31.875000
1251,11.5,2022-10-28 16:49:31.890625
1252,-1.82,2022-10-28 16:49:31.906250
1253,-13.27,2022-10-28 16:49:31.921875
1254,-21.9,2022-10-28 16:49:31.937500
1255,-27.36,2022-10-28 16:49:31.953125
1256,-30.03,2022-10-28 16:49:31.968750
1257,-30.98,2022-10-28 16:49:31.984375
1258,-31.52,2022-10-28 16:49:32.000000
1259,-32.64,2022-10-28 16:49:32.015625
1260,-34.72,2022-10-28 16:49:32.031250
1261,-37.43,2022-10-28 16:49:32.046875
1262,-40.04,2022-10-28 16:49:32.062500
1263,-41.86,2022-10-28 16:49:32.078125
1264,-42.59,2022-10-28 16:49:32.093750
1265,-42.4,2022-10-28 16:49:32.109375
1266,-41.72,2022-10-28 16:49:32.125000
1267,-40.9,2022-10-28 16:49:32.140625
1268,-40.05,2022-10-28 16:49:32.156250
1269,-38.95,2022-10-28 16:49:32.171875
1270,-37.27,2022-10-28 16:49:32.187500
1271,-34.76,2022-10-28 16:49:32.203125
1272,-31.42,2022-10-28 16:49:32.218750
1273,-27.55,2022-10-28 16:49:32.234375
1274,-23.56,2022-10-28 16:49:32.250000
1275,-19.91,2022-10-28 16:49:32.265625
1276,-16.87,2022-10-28 16:49:32.281250
1277,-14.52,2022-10-28 16:49:32.296875
1278,-12.77,2022-10-28 16:49:32.312500
1279,-11.46,2022-10-28 16:49:32.328125
1280,-10.48,2022-10-28 16:49:32.343750
1281,-9.84,2022-10-28 16:49:32.359375
1282,-9.63,2022-10-28 16:49:32.375000
1283,-9.97,2022-10-28 16:49:32.390625
1284,-10.87,2022-10-28 16:49:32.406250
1285,-12.15,2022-10-28 16:49:32.421875
1286,-13.53,2022-10-28 16:49:32.437500
1287,-14.68,2022-10-28 16:49:32.453125
1288,-15.43,2022-10-28 16:49:32.468750
1289,-15.82,2022-10-28 16:49:32.484375
1290,-16.09,2022-10-28 16:49:32.500000
1291,-16.61,2022-10-28 16:49:32.515625
1292,-17.71,2022-10-28 16:49:32.531250
1293,-19.58,2022-10-28 16:49:32.546875
1294,-22.09,2022-10-28 16:49:32.562500
1295,-24.97,2022-10-28 16:49:32.578125
1296,-27.76,2022-10-28 16:49:32.593750
1297,-30.13,2022-10-28 16:49:32.609375
1298,-31.98,2022-10-28 16:49:32.625000
1299,-33.57,2022-10-28 16:49:32.640625
1300,-35.38,2022-10-28 16:49:32.656250
1301,-37.99,2022-10-28 16:49:32.671875
1302,-41.85,2022-10-28 16:49:32.687500
1303,-47.05,2022-10-28 16:49:32.703125
1304,-53.17,2022-10-28 16:49:32.718750
1305,-59.21,2022-10-28 16:49:32.734375
1306,-63.67,2022-10-28 16:49:32.750000
1307,-64.85,2022-10-28 16:49:32.765625
1308,-61.36,2022-10-28 16:49:32.781250
1309,-52.61,2022-10-28 16:49:32.796875
1310,-39.23,2022-10-28 16:49:32.812500
1311,-23.12,2022-10-28 16:49:32.828125
1312,-6.88,2022-10-28 16:49:32.843750
1313,6.85,2022-10-28 16:49:32.859375
1314,16.22,2022-10-28 16:49:32.875000
1315,20.59,2022-10-28 16:49:32.890625
1316,20.4,2022-10-28 16:49:32.906250
1317,16.66,2022-10-28 16:49:32.921875
1318,10.44,2022-10-28 16:49:32.937500
1319,2.44,2022-10-28 16:49:32.953125
1320,-6.94,2022-10-28 16:49:32.968750
1321,-17.33,2022-10-28 16:49:32.984375
1322,-28.04,2022-10-28 16:49:33.000000
1323,-37.92,2022-10-28 16:49:33.015625
1324,-45.57,2022-10-28 16:49:33.031250
1325,-49.84,2022-10-28 16:49:33.046875
1326,-50.25,2022-10-28 16:49:33.062500
1327,-47.29,2022-10-28 16:49:33.078125
1328,-42.39,2022-10-28 16:49:33.093750
1329,-37.32,2022-10-28 16:49:33.109375
1330,-33.64,2022-10-28 16:49:33.125000
1331,-32.04,2022-10-28 16:49:33.140625
1332,-32.22,2022-10-28 16:49:33.156250
1333,-33.14,2022-10-28 16:49:33.171875
1334,-33.65,2022-10-28 16:49:33.187500
1335,-33.07,2022-10-28 16:49:33.203125
1336,-31.55,2022-10-28 16:49:33.218750
1337,-30.08,2022-10-28 16:49:33.234375
1338,-30.09,2022-10-28 16:49:33.250000
1339,-32.91,2022-10-28 16:49:33.265625
1340,-39.43,2022-10-28 16:49:33.281250
1341,-49.94,2022-10-28 16:49:33.296875
1342,-64.05,2022-10-28 16:49:33.312500
1343,-80.67,2022-10-28 16:49:33.328125
1344,-97.78,2022-10-28 16:49:33.343750
1345,-112.5,2022-10-28 16:49:33.359375
1346,-121.44,2022-10-28 16:49:33.375000
1347,-121.59,2022-10-28 16:49:33.390625
1348,-111.37,2022-10-28 16:49:33.406250
1349,-91.38,2022-10-28 16:49:33.421875
1350,-64.31,2022-10-28 16:49:33.437500
1351,-34.03,2022-10-28 16:49:33.453125
1352,-4.24,2022-10-28 16:49:33.468750
1353,22.52,2022-10-28 16:49:33.484375
1354,45.21,2022-10-28 16:49:33.500000
1355,63.86,2022-10-28 16:49:33.515625
1356,78.72,2022-10-28 16:49:33.531250
1357,89.84,2022-10-28 16:49:33.546875
1358,96.97,2022-10-28 16:49:33.562500
1359,100.09,2022-10-28 16:49:33.578125
1360,99.71,2022-10-28 16:49:33.593750
1361,96.95,2022-10-28 16:49:33.609375
1362,93.15,2022-10-28 16:49:33.625000
1363,89.25,2022-10-28 16:49:33.640625
1364,85.63,2022-10-28 16:49:33.656250
1365,82.09,2022-10-28 16:49:33.671875
1366,78.22,2022-10-28 16:49:33.687500
1367,73.86,2022-10-28 16:49:33.703125
1368,69.21,2022-10-28 16:49:33.718750
1369,64.84,2022-10-28 16:49:33.734375
1370,61.28,2022-10-28 16:49:33.750000
1371,58.72,2022-10-28 16:49:33.765625
1372,56.75,2022-10-28 16:49:33.781250
1373,54.54,2022-10-28 16:49:33.796875
1374,51.11,2022-10-28 16:49:33.812500
1375,45.79,2022-10-28 16:49:33.828125
1376,38.54,2022-10-28 16:49:33.843750
1377,29.93,2022-10-28 16:49:33.859375
1378,20.9,2022-10-28 16:49:33.875000
1379,12.25,2022-10-28 16:49:33.890625
1380,4.29,2022-10-28 16:49:33.906250
1381,-3.24,2022-10-28 16:49:33.921875
1382,-10.96,2022-10-28 16:49:33.937500
1383,-19.42,2022-10-28 16:49:33.953125
1384,-28.76,2022-10-28 16:49:33.968750
1385,-38.46,2022-10-28 16:49:33.984375
1386,-47.4,2022-10-28 16:49:34.000000
1387,-54.13,2022-10-28 16:49:34.015625
1388,-57.34,2022-10-28 16:49:34.031250
1389,-56.24,2022-10-28 16:49:34.046875
1390,-50.95,2022-10-28 16:49:34.062500
1391,-42.53,2022-10-28 16:49:34.078125
1392,-32.7,2022-10-28 16:49:34.093750
1393,-23.45,2022-10-28 16:49:34.109375
1394,-16.35,2022-10-28 16:49:34.125000
1395,-12.23,2022-10-28 16:49:34.140625
1396,-11.04,2022-10-28 16:49:34.156250
1397,-12.09,2022-10-28 16:49:34.171875
1398,-14.44,2022-10-28 16:49:34.187500
1399,-17.21,2022-10-28 16:49:34.203125
1400,-19.71,2022-10-28 16:49:34.218750
1401,-21.48,2022-10-28 16:49:34.234375
1402,-22.2,2022-10-28 16:49:34.250000
1403,-21.74,2022-10-28 16:49:34.265625
1404,-20.21,2022-10-28 16:49:34.281250
1405,-18.07,2022-10-28 16:49:34.296875
1406,-16.02,2022-10-28 16:49:34.312500
1407,-14.76,2022-10-28 16:49:34.328125
1408,-14.69,2022-10-28 16:49:34.343750
1409,-15.7,2022-10-28 16:49:34.359375
1410,-17.21,2022-10-28 16:49:34.375000
1411,-18.43,2022-10-28 16:49:34.390625
1412,-18.81,2022-10-28 16:49:34.406250
1413,-18.26,2022-10-28 16:49:34.421875
1414,-17.35,2022-10-28 16:49:34.437500
1415,-16.97,2022-10-28 16:49:34.453125
1416,-17.98,2022-10-28 16:49:34.468750
1417,-20.71,2022-10-28 16:49:34.484375
1418,-24.87,2022-10-28 16:49:34.500000
1419,-29.65,2022-10-28 16:49:34.515625
1420,-34.19,2022-10-28 16:49:34.531250
1421,-37.95,2022-10-28 16:49:34.546875
1422,-40.93,2022-10-28 16:49:34.562500
1423,-43.64,2022-10-28 16:49:34.578125
1424,-46.77,2022-10-28 16:49:34.593750
1425,-51.04,2022-10-28 16:49:34.609375
1426,-56.9,2022-10-28 16:49:34.625000
1427,-64.42,2022-10-28 16:49:34.640625
1428,-73.04,2022-10-28 16:49:34.656250
1429,-81.42,2022-10-28 16:49:34.671875
1430,-87.39,2022-10-28 16:49:34.687500
1431,-88.35,2022-10-28 16:49:34.703125
1432,-82.09,2022-10-28 16:49:34.718750
1433,-67.7,2022-10-28 16:49:34.734375
1434,-46.3,2022-10-28 16:49:34.750000
1435,-20.94,2022-10-28 16:49:34.765625
1436,4.32,2022-10-28 16:49:34.781250
1437,25.67,2022-10-28 16:49:34.796875
1438,40.74,2022-10-28 16:49:34.812500
1439,49.04,2022-10-28 16:49:34.828125
1440,51.59,2022-10-28 16:49:34.843750
1441,50.08,2022-10-28 16:49:34.859375
1442,46.07,2022-10-28 16:49:34.875000
1443,40.53,2022-10-28 16:49:34.890625
1444,33.96,2022-10-28 16:49:34.906250
1445,26.7,2022-10-28 16:49:34.921875
1446,19.24,2022-10-28 16:49:34.937500
1447,12.24,2022-10-28 16:49:34.953125
1448,6.29,2022-10-28 16:49:34.968750
1449,1.72,2022-10-28 16:49:34.984375
1450,-1.58,2022-10-28 16:49:35.000000
1451,-4.01,2022-10-28 16:49:35.015625
1452,-6.04,2022-10-28 16:49:35.031250
1453,-7.92,2022-10-28 16:49:35.046875
1454,-9.58,2022-10-28 16:49:35.062500
1455,-10.76,2022-10-28 16:49:35.078125
1456,-11.25,2022-10-28 16:49:35.093750
1457,-11.17,2022-10-28 16:49:35.109375
1458,-11.05,2022-10-28 16:49:35.125000
1459,-11.65,2022-10-28 16:49:35.140625
1460,-13.64,2022-10-28 16:49:35.156250
1461,-17.32,2022-10-28 16:49:35.171875
1462,-22.42,2022-10-28 16:49:35.187500
1463,-28.24,2022-10-28 16:49:35.203125
1464,-33.98,2022-10-28 16:49:35.218750
1465,-39.06,2022-10-28 16:49:35.234375
1466,-43.39,2022-10-28 16:49:35.250000
1467,-47.4,2022-10-28 16:49:35.265625
1468,-51.87,2022-10-28 16:49:35.281250
1469,-57.72,2022-10-28 16:49:35.296875
1470,-65.63,2022-10-28 16:49:35.312500
1471,-75.6,2022-10-28 16:49:35.328125
1472,-86.58,2022-10-28 16:49:35.343750
1473,-96.37,2022-10-28 16:49:35.359375
1474,-102.11,2022-10-28 16:49:35.375000
1475,-101.15,2022-10-28 16:49:35.390625
1476,-92.08,2022-10-28 16:49:35.406250
1477,-75.35,2022-10-28 16:49:35.421875
1478,-53.12,2022-10-28 16:49:35.437500
1479,-28.48,2022-10-28 16:49:35.453125
1480,-4.3,2022-10-28 16:49:35.468750
1481,17.56,2022-10-28 16:49:35.484375
1482,36.42,2022-10-28 16:49:35.500000
1483,52.38,2022-10-28 16:49:35.515625
1484,65.69,2022-10-28 16:49:35.531250
1485,76.38,2022-10-28 16:49:35.546875
1486,84.26,2022-10-28 16:49:35.562500
1487,89.17,2022-10-28 16:49:35.578125
1488,91.14,2022-10-28 16:49:35.593750
1489,90.41,2022-10-28 16:49:35.609375
1490,87.24,2022-10-28 16:49:35.625000
1491,81.82,2022-10-28 16:49:35.640625
1492,74.4,2022-10-28 16:49:35.656250
1493,65.47,2022-10-28 16:49:35.671875
1494,55.94,2022-10-28 16:49:35.687500
1495,46.99,2022-10-28 16:49:35.703125
1496,39.73,2022-10-28 16:49:35.718750
1497,34.88,2022-10-28 16:49:35.734375
1498,32.47,2022-10-28 16:49:35.750000
1499,31.91,2022-10-28 16:49:35.765625
1500,32.21,2022-10-28 16:49:35.781250
1501,32.36,2022-10-28 16:49:35.796875
1502,31.59,2022-10-28 16:49:35.812500
1503,29.55,2022-10-28 16:49:35.828125
1504,26.31,2022-10-28 16:49:35.843750
1505,22.28,2022-10-28 16:49:35.859375
1506,18.01,2022-10-28 16:49:35.875000
1507,13.98,2022-10-28 16:49:35.890625
1508,10.47,2022-10-28 16:49:35.906250
1509,7.4,2022-10-28 16:49:35.921875
1510,4.32,2022-10-28 16:49:35.937500
1511,0.44,2022-10-28 16:49:35.953125
1512,-5.14,2022-10-28 16:49:35.968750
1513,-13.04,2022-10-28 16:49:35.984375
1514,-23.19,2022-10-28 16:49:36.000000
1515,-34.49,2022-10-28 16:49:36.015625
1516,-44.84,2022-10-28 16:49:36.031250
1517,-51.66,2022-10-28 16:49:36.046875
1518,-52.68,2022-10-28 16:49:36.062500
1519,-46.72,2022-10-28 16:49:36.078125
1520,-34.17,2022-10-28 16:49:36.093750
1521,-16.79,2022-10-28 16:49:36.109375
1522,2.9,2022-10-28 16:49:36.125000
1523,22.38,2022-10-28 16:49:36.140625
1524,39.74,2022-10-28 16:49:36.156250
1525,53.87,2022-10-28 16:49:36.171875
1526,64.25,2022-10-28 16:49:36.187500
1527,70.76,2022-10-28 16:49:36.203125
1528,73.43,2022-10-28 16:49:36.218750
1529,72.45,2022-10-28 16:49:36.234375
1530,68.31,2022-10-28 16:49:36.250000
1531,61.76,2022-10-28 16:49:36.265625
1532,53.76,2022-10-28 16:49:36.281250
1533,45.23,2022-10-28 16:49:36.296875
1534,36.87,2022-10-28 16:49:36.312500
1535,29.11,2022-10-28 16:49:36.328125
1536,22.15,2022-10-28 16:49:36.343750
1537,16.1,2022-10-28 16:49:36.359375
1538,11.07,2022-10-28 16:49:36.375000
1539,7.18,2022-10-28 16:49:36.390625
1540,4.43,2022-10-28 16:49:36.406250
1541,2.57,2022-10-28 16:49:36.421875
1542,1.02,2022-10-28 16:49:36.437500
1543,-1.01,2022-10-28 16:49:36.453125
1544,-4.31,2022-10-28 16:49:36.468750
1545,-9.3,2022-10-28 16:49:36.484375
1546,-15.93,2022-10-28 16:49:36.500000
1547,-23.6,2022-10-28 16:49:36.515625
1548,-31.49,2022-10-28 16:49:36.531250
1549,-38.86,2022-10-28 16:49:36.546875
1550,-45.42,2022-10-28 16:49:36.562500
1551,-51.34,2022-10-28 16:49:36.578125
1552,-57.12,2022-10-28 16:49:36.593750
1553,-63.43,2022-10-28 16:49:36.609375
1554,-70.83,2022-10-28 16:49:36.625000
1555,-79.67,2022-10-28 16:49:36.640625
1556,-89.8,2022-10-28 16:49:36.656250
1557,-100.42,2022-10-28 16:49:36.671875
1558,-109.86,2022-10-28 16:49:36.687500
1559,-115.83,2022-10-28 16:49:36.703125
1560,-115.97,2022-10-28 16:49:36.718750
1561,-108.75,2022-10-28 16:49:36.734375
1562,-94.17,2022-10-28 16:49:36.750000
1563,-73.95,2022-10-28 16:49:36.765625
1564,-51.03,2022-10-28 16:49:36.781250
1565,-28.52,2022-10-28 16:49:36.796875
1566,-8.74,2022-10-28 16:49:36.812500
1567,7.28,2022-10-28 16:49:36.828125
1568,19.59,2022-10-28 16:49:36.843750
1569,28.7,2022-10-28 16:49:36.859375
1570,35.02,2022-10-28 16:49:36.875000
1571,38.6,2022-10-28 16:49:36.890625
1572,39.39,2022-10-28 16:49:36.906250
1573,37.53,2022-10-28 16:49:36.921875
1574,33.63,2022-10-28 16:49:36.937500
1575,28.6,2022-10-28 16:49:36.953125
1576,23.31,2022-10-28 16:49:36.968750
1577,18.34,2022-10-28 16:49:36.984375
1578,13.9,2022-10-28 16:49:37.000000
1579,9.91,2022-10-28 16:49:37.015625
1580,6.29,2022-10-28 16:49:37.031250
1581,3.15,2022-10-28 16:49:37.046875
1582,0.71,2022-10-28 16:49:37.062500
1583,-0.79,2022-10-28 16:49:37.078125
1584,-1.37,2022-10-28 16:49:37.093750
1585,-1.42,2022-10-28 16:49:37.109375
1586,-1.62,2022-10-28 16:49:37.125000
1587,-2.76,2022-10-28 16:49:37.140625
1588,-5.46,2022-10-28 16:49:37.156250
1589,-9.95,2022-10-28 16:49:37.171875
1590,-16.03,2022-10-28 16:49:37.187500
1591,-23.18,2022-10-28 16:49:37.203125
1592,-30.73,2022-10-28 16:49:37.218750
1593,-38.14,2022-10-28 16:49:37.234375
1594,-45.07,2022-10-28 16:49:37.250000
1595,-51.54,2022-10-28 16:49:37.265625
1596,-57.87,2022-10-28 16:49:37.281250
1597,-64.6,2022-10-28 16:49:37.296875
1598,-72.19,2022-10-28 16:49:37.312500
1599,-80.58,2022-10-28 16:49:37.328125
1600,-88.98,2022-10-28 16:49:37.343750
1601,-95.75,2022-10-28 16:49:37.359375
1602,-98.89,2022-10-28 16:49:37.375000
1603,-96.63,2022-10-28 16:49:37.390625
1604,-88.05,2022-10-28 16:49:37.406250
1605,-73.38,2022-10-28 16:49:37.421875
1606,-53.9,2022-10-28 16:49:37.437500
1607,-31.48,2022-10-28 16:49:37.453125
1608,-8.08,2022-10-28 16:49:37.468750
1609,14.6,2022-10-28 16:49:37.484375
1610,35.27,2022-10-28 16:49:37.500000
1611,52.96,2022-10-28 16:49:37.515625
1612,66.99,2022-10-28 16:49:37.531250
1613,76.93,2022-10-28 16:49:37.546875
1614,82.62,2022-10-28 16:49:37.562500
1615,84.2,2022-10-28 16:49:37.578125
1616,82.09,2022-10-28 16:49:37.593750
1617,76.93,2022-10-28 16:49:37.609375
1618,69.62,2022-10-28 16:49:37.625000
1619,61.21,2022-10-28 16:49:37.640625
1620,52.84,2022-10-28 16:49:37.656250
1621,45.44,2022-10-28 16:49:37.671875
1622,39.53,2022-10-28 16:49:37.687500
1623,35.03,2022-10-28 16:49:37.703125
1624,31.37,2022-10-28 16:49:37.718750
1625,27.76,2022-10-28 16:49:37.734375
1626,23.56,2022-10-28 16:49:37.750000
1627,18.63,2022-10-28 16:49:37.765625
1628,13.25,2022-10-28 16:49:37.781250
1629,8.01,2022-10-28 16:49:37.796875
1630,3.44,2022-10-28 16:49:37.812500
1631,-0.29,2022-10-28 16:49:37.828125
1632,-3.43,2022-10-28 16:49:37.843750
1633,-6.57,2022-10-28 16:49:37.859375
1634,-10.37,2022-10-28 16:49:37.875000
1635,-15.36,2022-10-28 16:49:37.890625
1636,-21.77,2022-10-28 16:49:37.906250
1637,-29.73,2022-10-28 16:49:37.921875
1638,-39.38,2022-10-28 16:49:37.937500
1639,-50.78,2022-10-28 16:49:37.953125
1640,-63.62,2022-10-28 16:49:37.968750
1641,-76.69,2022-10-28 16:49:37.984375
1642,-87.66,2022-10-28 16:49:38.000000
1643,-93.54,2022-10-28 16:49:38.015625
1644,-91.64,2022-10-28 16:49:38.031250
1645,-80.66,2022-10-28 16:49:38.046875
1646,-61.32,2022-10-28 16:49:38.062500
1647,-36.14,2022-10-28 16:49:38.078125
1648,-8.45,2022-10-28 16:49:38.093750
1649,18.75,2022-10-28 16:49:38.109375
1650,43.47,2022-10-28 16:49:38.125000
1651,64.74,2022-10-28 16:49:38.140625
1652,82.12,2022-10-28 16:49:38.156250
1653,95.2,2022-10-28 16:49:38.171875
1654,103.47,2022-10-28 16:49:38.187500
1655,106.65,2022-10-28 16:49:38.203125
1656,105.09,2022-10-28 16:49:38.218750
1657,99.94,2022-10-28 16:49:38.234375
1658,92.83,2022-10-28 16:49:38.250000
1659,85.38,2022-10-28 16:49:38.265625
1660,78.63,2022-10-28 16:49:38.281250
1661,72.98,2022-10-28 16:49:38.296875
1662,68.3,2022-10-28 16:49:38.312500
1663,64.36,2022-10-28 16:49:38.328125
1664,61.01,2022-10-28 16:49:38.343750
1665,58.36,2022-10-28 16:49:38.359375
1666,56.58,2022-10-28 16:49:38.375000
1667,55.63,2022-10-28 16:49:38.390625
1668,55.12,2022-10-28 16:49:38.406250
1669,54.34,2022-10-28 16:49:38.421875
1670,52.51,2022-10-28 16:49:38.437500
1671,49.11,2022-10-28 16:49:38.453125
1672,44.1,2022-10-28 16:49:38.468750
1673,37.93,2022-10-28 16:49:38.484375
1674,31.28,2022-10-28 16:49:38.500000
1675,24.76,2022-10-28 16:49:38.515625
1676,18.66,2022-10-28 16:49:38.531250
1677,12.93,2022-10-28 16:49:38.546875
1678,7.26,2022-10-28 16:49:38.562500
1679,1.25,2022-10-28 16:49:38.578125
1680,-5.42,2022-10-28 16:49:38.593750
1681,-12.86,2022-10-28 16:49:38.609375
1682,-20.89,2022-10-28 16:49:38.625000
1683,-28.87,2022-10-28 16:49:38.640625
1684,-35.64,2022-10-28 16:49:38.656250
1685,-39.67,2022-10-28 16:49:38.671875
1686,-39.51,2022-10-28 16:49:38.687500
1687,-34.31,2022-10-28 16:49:38.703125
1688,-24.41,2022-10-28 16:49:38.718750
1689,-11.49,2022-10-28 16:49:38.734375
1690,1.88,2022-10-28 16:49:38.750000
1691,13.0,2022-10-28 16:49:38.765625
1692,19.94,2022-10-28 16:49:38.781250
1693,22.11,2022-10-28 16:49:38.796875
1694,20.23,2022-10-28 16:49:38.812500
1695,15.82,2022-10-28 16:49:38.828125
1696,10.55,2022-10-28 16:49:38.843750
1697,5.62,2022-10-28 16:49:38.859375
1698,1.58,2022-10-28 16:49:38.875000
1699,-1.57,2022-10-28 16:49:38.890625
1700,-4.03,2022-10-28 16:49:38.906250
1701,-6.06,2022-10-28 16:49:38.921875
1702,-7.74,2022-10-28 16:49:38.937500
1703,-9.12,2022-10-28 16:49:38.953125
1704,-10.2,2022-10-28 16:49:38.968750
1705,-11.03,2022-10-28 16:49:38.984375
1706,-11.66,2022-10-28 16:49:39.000000
1707,-12.18,2022-10-28 16:49:39.015625
1708,-12.65,2022-10-28 16:49:39.031250
1709,-13.18,2022-10-28 16:49:39.046875
1710,-13.93,2022-10-28 16:49:39.062500
1711,-15.05,2022-10-28 16:49:39.078125
1712,-16.63,2022-10-28 16:49:39.093750
1713,-18.65,2022-10-28 16:49:39.109375
1714,-20.89,2022-10-28 16:49:39.125000
1715,-23.09,2022-10-28 16:49:39.140625
1716,-24.97,2022-10-28 16:49:39.156250
1717,-26.47,2022-10-28 16:49:39.171875
1718,-27.69,2022-10-28 16:49:39.187500
1719,-28.92,2022-10-28 16:49:39.203125
1720,-30.48,2022-10-28 16:49:39.218750
1721,-32.64,2022-10-28 16:49:39.234375
1722,-35.53,2022-10-28 16:49:39.250000
1723,-39.03,2022-10-28 16:49:39.265625
1724,-42.55,2022-10-28 16:49:39.281250
1725,-44.89,2022-10-28 16:49:39.296875
1726,-44.36,2022-10-28 16:49:39.312500
1727,-39.23,2022-10-28 16:49:39.328125
1728,-28.6,2022-10-28 16:49:39.343750
1729,-13.06,2022-10-28 16:49:39.359375
1730,5.04,2022-10-28 16:49:39.375000
1731,22.18,2022-10-28 16:49:39.390625
1732,34.89,2022-10-28 16:49:39.406250
1733,40.97,2022-10-28 16:49:39.421875
1734,40.29,2022-10-28 16:49:39.437500
1735,34.53,2022-10-28 16:49:39.453125
1736,26.35,2022-10-28 16:49:39.468750
1737,18.17,2022-10-28 16:49:39.484375
1738,11.48,2022-10-28 16:49:39.500000
1739,6.65,2022-10-28 16:49:39.515625
1740,3.35,2022-10-28 16:49:39.531250
1741,1.0,2022-10-28 16:49:39.546875
1742,-0.83,2022-10-28 16:49:39.562500
1743,-2.43,2022-10-28 16:49:39.578125
1744,-4.01,2022-10-28 16:49:39.593750
1745,-5.78,2022-10-28 16:49:39.609375
1746,-7.87,2022-10-28 16:49:39.625000
1747,-10.25,2022-10-28 16:49:39.640625
1748,-12.62,2022-10-28 16:49:39.656250
1749,-14.58,2022-10-28 16:49:39.671875
1750,-15.76,2022-10-28 16:49:39.687500
1751,-16.1,2022-10-28 16:49:39.703125
1752,-15.91,2022-10-28 16:49:39.718750
1753,-15.72,2022-10-28 16:49:39.734375
1754,-16.09,2022-10-28 16:49:39.750000
1755,-17.23,2022-10-28 16:49:39.765625
1756,-19.0,2022-10-28 16:49:39.781250
1757,-20.97,2022-10-28 16:49:39.796875
1758,-22.64,2022-10-28 16:49:39.812500
1759,-23.79,2022-10-28 16:49:39.828125
1760,-24.55,2022-10-28 16:49:39.843750
1761,-25.42,2022-10-28 16:49:39.859375
1762,-27.06,2022-10-28 16:49:39.875000
1763,-30.13,2022-10-28 16:49:39.890625
1764,-35.04,2022-10-28 16:49:39.906250
1765,-41.54,2022-10-28 16:49:39.921875
1766,-48.37,2022-10-28 16:49:39.937500
1767,-53.18,2022-10-28 16:49:39.953125
1768,-52.91,2022-10-28 16:49:39.968750
1769,-44.95,2022-10-28 16:49:39.984375
1770,-28.35,2022-10-28 16:49:40.000000
1771,-4.75,2022-10-28 16:49:40.015625
1772,21.81,2022-10-28 16:49:40.031250
1773,46.11,2022-10-28 16:49:40.046875
1774,63.63,2022-10-28 16:49:40.062500
1775,72.15,2022-10-28 16:49:40.078125
1776,72.16,2022-10-28 16:49:40.093750
1777,66.24,2022-10-28 16:49:40.109375
1778,57.53,2022-10-28 16:49:40.125000
1779,48.47,2022-10-28 16:49:40.140625
1780,40.16,2022-10-28 16:49:40.156250
1781,32.62,2022-10-28 16:49:40.171875
1782,25.51,2022-10-28 16:49:40.187500
1783,18.7,2022-10-28 16:49:40.203125
1784,12.41,2022-10-28 16:49:40.218750
1785,7.02,2022-10-28 16:49:40.234375
1786,2.79,2022-10-28 16:49:40.250000
1787,-0.35,2022-10-28 16:49:40.265625
1788,-2.7,2022-10-28 16:49:40.281250
1789,-4.71,2022-10-28 16:49:40.296875
1790,-6.77,2022-10-28 16:49:40.312500
1791,-9.18,2022-10-28 16:49:40.328125
1792,-12.11,2022-10-28 16:49:40.343750
1793,-15.54,2022-10-28 16:49:40.359375
1794,-19.29,2022-10-28 16:49:40.375000
1795,-23.05,2022-10-28 16:49:40.390625
1796,-26.45,2022-10-28 16:49:40.406250
1797,-29.26,2022-10-28 16:49:40.421875
1798,-31.53,2022-10-28 16:49:40.437500
1799,-33.61,2022-10-28 16:49:40.453125
1800,-36.01,2022-10-28 16:49:40.468750
1801,-39.24,2022-10-28 16:49:40.484375
1802,-43.63,2022-10-28 16:49:40.500000
1803,-49.41,2022-10-28 16:49:40.515625
1804,-56.68,2022-10-28 16:49:40.531250
1805,-65.18,2022-10-28 16:49:40.546875
1806,-73.88,2022-10-28 16:49:40.562500
1807,-80.66,2022-10-28 16:49:40.578125
1808,-82.54,2022-10-28 16:49:40.593750
1809,-76.64,2022-10-28 16:49:40.609375
1810,-61.56,2022-10-28 16:49:40.625000
1811,-38.4,2022-10-28 16:49:40.640625
1812,-10.87,2022-10-28 16:49:40.656250
1813,15.89,2022-10-28 16:49:40.671875
1814,37.18,2022-10-28 16:49:40.687500
1815,50.34,2022-10-28 16:49:40.703125
1816,55.36,2022-10-28 16:49:40.718750
1817,54.27,2022-10-28 16:49:40.734375
1818,49.77,2022-10-28 16:49:40.750000
1819,43.98,2022-10-28 16:49:40.765625
1820,37.85,2022-10-28 16:49:40.781250
1821,31.46,2022-10-28 16:49:40.796875
1822,24.54,2022-10-28 16:49:40.812500
1823,17.04,2022-10-28 16:49:40.828125
1824,9.24,2022-10-28 16:49:40.843750
1825,1.56,2022-10-28 16:49:40.859375
1826,-5.53,2022-10-28 16:49:40.875000
1827,-11.71,2022-10-28 16:49:40.890625
1828,-16.71,2022-10-28 16:49:40.906250
1829,-20.32,2022-10-28 16:49:40.921875
1830,-22.41,2022-10-28 16:49:40.937500
1831,-23.09,2022-10-28 16:49:40.953125
1832,-22.73,2022-10-28 16:49:40.968750
1833,-21.99,2022-10-28 16:49:40.984375
1834,-21.65,2022-10-28 16:49:41.000000
1835,-22.32,2022-10-28 16:49:41.015625
1836,-24.29,2022-10-28 16:49:41.031250
1837,-27.47,2022-10-28 16:49:41.046875
1838,-31.53,2022-10-28 16:49:41.062500
1839,-36.06,2022-10-28 16:49:41.078125
1840,-40.81,2022-10-28 16:49:41.093750
1841,-45.75,2022-10-28 16:49:41.109375
1842,-51.06,2022-10-28 16:49:41.125000
1843,-57.14,2022-10-28 16:49:41.140625
1844,-64.53,2022-10-28 16:49:41.156250
1845,-73.85,2022-10-28 16:49:41.171875
1846,-85.25,2022-10-28 16:49:41.187500
1847,-97.77,2022-10-28 16:49:41.203125
1848,-108.98,2022-10-28 16:49:41.218750
1849,-115.2,2022-10-28 16:49:41.234375
1850,-112.71,2022-10-28 16:49:41.250000
1851,-99.27,2022-10-28 16:49:41.265625
1852,-75.33,2022-10-28 16:49:41.281250
1853,-44.18,2022-10-28 16:49:41.296875
1854,-10.78,2022-10-28 16:49:41.312500
1855,20.04,2022-10-28 16:49:41.328125
1856,45.1,2022-10-28 16:49:41.343750
1857,63.43,2022-10-28 16:49:41.359375
1858,75.79,2022-10-28 16:49:41.375000
1859,83.5,2022-10-28 16:49:41.390625
1860,87.55,2022-10-28 16:49:41.406250
1861,88.35,2022-10-28 16:49:41.421875
1862,86.05,2022-10-28 16:49:41.437500
1863,81.0,2022-10-28 16:49:41.453125
1864,73.96,2022-10-28 16:49:41.468750
1865,65.86,2022-10-28 16:49:41.484375
1866,57.47,2022-10-28 16:49:41.500000
1867,49.23,2022-10-28 16:49:41.515625
1868,41.28,2022-10-28 16:49:41.531250
1869,33.73,2022-10-28 16:49:41.546875
1870,26.82,2022-10-28 16:49:41.562500
1871,21.04,2022-10-28 16:49:41.578125
1872,16.87,2022-10-28 16:49:41.593750
1873,14.55,2022-10-28 16:49:41.609375
1874,13.82,2022-10-28 16:49:41.625000
1875,13.94,2022-10-28 16:49:41.640625
1876,13.84,2022-10-28 16:49:41.656250
1877,12.47,2022-10-28 16:49:41.671875
1878,9.19,2022-10-28 16:49:41.687500
1879,3.89,2022-10-28 16:49:41.703125
1880,-3.0,2022-10-28 16:49:41.718750
1881,-10.74,2022-10-28 16:49:41.734375
1882,-18.62,2022-10-28 16:49:41.750000
1883,-26.23,2022-10-28 16:49:41.765625
1884,-33.59,2022-10-28 16:49:41.781250
1885,-41.17,2022-10-28 16:49:41.796875
1886,-49.78,2022-10-28 16:49:41.812500
1887,-60.19,2022-10-28 16:49:41.828125
1888,-72.68,2022-10-28 16:49:41.843750
1889,-86.4,2022-10-28 16:49:41.859375
1890,-99.16,2022-10-28 16:49:41.875000
1891,-107.76,2022-10-28 16:49:41.890625
1892,-108.93,2022-10-28 16:49:41.906250
1893,-100.54,2022-10-28 16:49:41.921875
1894,-82.49,2022-10-28 16:49:41.937500
1895,-56.88,2022-10-28 16:49:41.953125
1896,-27.3,2022-10-28 16:49:41.968750
1897,2.42,2022-10-28 16:49:41.984375
1898,29.23,2022-10-28 16:49:42.000000
1899,51.48,2022-10-28 16:49:42.015625
1900,68.6,2022-10-28 16:49:42.031250
1901,80.72,2022-10-28 16:49:42.046875
1902,88.13,2022-10-28 16:49:42.062500
1903,91.13,2022-10-28 16:49:42.078125
1904,90.2,2022-10-28 16:49:42.093750
1905,86.05,2022-10-28 16:49:42.109375
1906,79.64,2022-10-28 16:49:42.125000
1907,71.96,2022-10-28 16:49:42.140625
1908,63.81,2022-10-28 16:49:42.156250
1909,55.65,2022-10-28 16:49:42.171875
1910,47.78,2022-10-28 16:49:42.187500
1911,40.44,2022-10-28 16:49:42.203125
1912,33.87,2022-10-28 16:49:42.218750
1913,28.39,2022-10-28 16:49:42.234375
1914,24.19,2022-10-28 16:49:42.250000
1915,21.23,2022-10-28 16:49:42.265625
1916,19.16,2022-10-28 16:49:42.281250
1917,17.4,2022-10-28 16:49:42.296875
1918,15.29,2022-10-28 16:49:42.312500
1919,12.24,2022-10-28 16:49:42.328125
1920,7.89,2022-10-28 16:49:42.343750
1921,2.13,2022-10-28 16:49:42.359375
1922,-4.88,2022-10-28 16:49:42.375000
1923,-12.77,2022-10-28 16:49:42.390625
1924,-21.11,2022-10-28 16:49:42.406250
1925,-29.51,2022-10-28 16:49:42.421875
1926,-37.79,2022-10-28 16:49:42.437500
1927,-46.08,2022-10-28 16:49:42.453125
1928,-54.96,2022-10-28 16:49:42.468750
1929,-65.19,2022-10-28 16:49:42.484375
1930,-77.29,2022-10-28 16:49:42.500000
1931,-90.9,2022-10-28 16:49:42.515625
1932,-104.31,2022-10-28 16:49:42.531250
1933,-114.62,2022-10-28 16:49:42.546875
1934,-118.49,2022-10-28 16:49:42.562500
1935,-113.42,2022-10-28 16:49:42.578125
1936,-98.69,2022-10-28 16:49:42.593750
1937,-75.77,2022-10-28 16:49:42.609375
1938,-47.74,2022-10-28 16:49:42.625000
1939,-18.27,2022-10-28 16:49:42.640625
1940,9.53,2022-10-28 16:49:42.656250
1941,33.69,2022-10-28 16:49:42.671875
1942,53.37,2022-10-28 16:49:42.687500
1943,68.38,2022-10-28 16:49:42.703125
1944,78.75,2022-10-28 16:49:42.718750
1945,84.48,2022-10-28 16:49:42.734375
1946,85.68,2022-10-28 16:49:42.750000
1947,82.75,2022-10-28 16:49:42.765625
1948,76.4,2022-10-28 16:49:42.781250
1949,67.68,2022-10-28 16:49:42.796875
1950,57.75,2022-10-28 16:49:42.812500
1951,47.66,2022-10-28 16:49:42.828125
1952,38.4,2022-10-28 16:49:42.843750
1953,30.65,2022-10-28 16:49:42.859375
1954,24.86,2022-10-28 16:49:42.875000
1955,21.16,2022-10-28 16:49:42.890625
1956,19.41,2022-10-28 16:49:42.906250
1957,19.19,2022-10-28 16:49:42.921875
1958,19.89,2022-10-28 16:49:42.937500
1959,20.75,2022-10-28 16:49:42.953125
1960,20.98,2022-10-28 16:49:42.968750
1961,19.92,2022-10-28 16:49:42.984375
1962,17.14,2022-10-28 16:49:43.000000
1963,12.56,2022-10-28 16:49:43.015625
1964,6.48,2022-10-28 16:49:43.031250
1965,-0.56,2022-10-28 16:49:43.046875
1966,-8.0,2022-10-28 16:49:43.062500
1967,-15.49,2022-10-28 16:49:43.078125
1968,-23.15,2022-10-28 16:49:43.093750
1969,-31.57,2022-10-28 16:49:43.109375
1970,-41.67,2022-10-28 16:49:43.125000
1971,-54.14,2022-10-28 16:49:43.140625
1972,-68.85,2022-10-28 16:49:43.156250
1973,-84.31,2022-10-28 16:49:43.171875
1974,-97.76,2022-10-28 16:49:43.187500
1975,-105.74,2022-10-28 16:49:43.203125
1976,-105.19,2022-10-28 16:49:43.218750
1977,-94.58,2022-10-28 16:49:43.234375
1978,-74.44,2022-10-28 16:49:43.250000
1979,-47.16,2022-10-28 16:49:43.265625
1980,-16.24,2022-10-28 16:49:43.281250
1981,14.79,2022-10-28 16:49:43.296875
1982,43.14,2022-10-28 16:49:43.312500
1983,67.07,2022-10-28 16:49:43.328125
1984,85.76,2022-10-28 16:49:43.343750
1985,98.99,2022-10-28 16:49:43.359375
1986,106.91,2022-10-28 16:49:43.375000
1987,109.94,2022-10-28 16:49:43.390625
1988,108.72,2022-10-28 16:49:43.406250
1989,104.1,2022-10-28 16:49:43.421875
1990,96.99,2022-10-28 16:49:43.437500
1991,88.27,2022-10-28 16:49:43.453125
1992,78.64,2022-10-28 16:49:43.468750
1993,68.72,2022-10-28 16:49:43.484375
1994,59.09,2022-10-28 16:49:43.500000
1995,50.25,2022-10-28 16:49:43.515625
1996,42.71,2022-10-28 16:49:43.531250
1997,36.84,2022-10-28 16:49:43.546875
1998,32.78,2022-10-28 16:49:43.562500
1999,30.31,2022-10-28 16:49:43.578125
2000,28.85,2022-10-28 16:49:43.593750
2001,27.51,2022-10-28 16:49:43.609375
2002,25.36,2022-10-28 16:49:43.625000
2003,21.68,2022-10-28 16:49:43.640625
2004,16.21,2022-10-28 16:49:43.656250
2005,9.18,2022-10-28 16:49:43.671875
2006,1.28,2022-10-28 16:49:43.687500
2007,-6.8,2022-10-28 16:49:43.703125
2008,-14.51,2022-10-28 16:49:43.718750
2009,-21.75,2022-10-28 16:49:43.734375
2010,-28.97,2022-10-28 16:49:43.750000
2011,-37.0,2022-10-28 16:49:43.765625
2012,-46.86,2022-10-28 16:49:43.781250
2013,-59.21,2022-10-28 16:49:43.796875
2014,-73.79,2022-10-28 16:49:43.812500
2015,-89.06,2022-10-28 16:49:43.828125
2016,-102.17,2022-10-28 16:49:43.843750
2017,-109.66,2022-10-28 16:49:43.859375
2018,-108.45,2022-10-28 16:49:43.875000
2019,-96.93,2022-10-28 16:49:43.890625
2020,-75.58,2022-10-28 16:49:43.906250
2021,-46.89,2022-10-28 16:49:43.921875
2022,-14.56,2022-10-28 16:49:43.937500
2023,17.55,2022-10-28 16:49:43.953125
2024,46.32,2022-10-28 16:49:43.968750
2025,69.79,2022-10-28 16:49:43.984375
2026,87.09,2022-10-28 16:49:44.000000
2027,98.17,2022-10-28 16:49:44.015625
2028,103.49,2022-10-28 16:49:44.031250
2029,103.89,2022-10-28 16:49:44.046875
2030,100.43,2022-10-28 16:49:44.062500
2031,94.3,2022-10-28 16:49:44.078125
2032,86.59,2022-10-28 16:49:44.093750
2033,78.14,2022-10-28 16:49:44.109375
2034,69.48,2022-10-28 16:49:44.125000
2035,60.93,2022-10-28 16:49:44.140625
2036,52.82,2022-10-28 16:49:44.156250
2037,45.51,2022-10-28 16:49:44.171875
2038,39.51,2022-10-28 16:49:44.187500
2039,35.18,2022-10-28 16:49:44.203125
2040,32.55,2022-10-28 16:49:44.218750
2041,31.21,2022-10-28 16:49:44.234375
2042,30.3,2022-10-28 16:49:44.250000
2043,28.78,2022-10-28 16:49:44.265625
2044,25.69,2022-10-28 16:49:44.281250
2045,20.48,2022-10-28 16:49:44.296875
2046,13.11,2022-10-28 16:49:44.312500
2047,3.98,2022-10-28 16:49:44.328125
2048,-6.22,2022-10-28 16:49:44.343750
2049,-16.74,2022-10-28 16:49:44.359375
2050,-26.97,2022-10-28 16:49:44.375000
2051,-36.53,2022-10-28 16:49:44.390625
2052,-45.46,2022-10-28 16:49:44.406250
2053,-54.21,2022-10-28 16:49:44.421875
2054,-63.69,2022-10-28 16:49:44.437500
2055,-74.9,2022-10-28 16:49:44.453125
2056,-88.31,2022-10-28 16:49:44.468750
2057,-103.24,2022-10-28 16:49:44.484375
2058,-117.49,2022-10-28 16:49:44.500000
2059,-127.69,2022-10-28 16:49:44.515625
2060,-130.24,2022-10-28 16:49:44.531250
2061,-122.68,2022-10-28 16:49:44.546875
2062,-104.63,2022-10-28 16:49:44.562500
2063,-77.99,2022-10-28 16:49:44.578125
2064,-46.27,2022-10-28 16:49:44.593750
2065,-13.41,2022-10-28 16:49:44.609375
2066,17.37,2022-10-28 16:49:44.625000
2067,44.07,2022-10-28 16:49:44.640625
2068,65.86,2022-10-28 16:49:44.656250
2069,82.53,2022-10-28 16:49:44.671875
2070,94.07,2022-10-28 16:49:44.687500
2071,100.46,2022-10-28 16:49:44.703125
2072,101.74,2022-10-28 16:49:44.718750
2073,98.25,2022-10-28 16:49:44.734375
2074,90.71,2022-10-28 16:49:44.750000
2075,80.22,2022-10-28 16:49:44.765625
2076,68.02,2022-10-28 16:49:44.781250
2077,55.38,2022-10-28 16:49:44.796875
2078,43.44,2022-10-28 16:49:44.812500
2079,33.05,2022-10-28 16:49:44.828125
2080,24.73,2022-10-28 16:49:44.843750
2081,18.67,2022-10-28 16:49:44.859375
2082,14.66,2022-10-28 16:49:44.875000
2083,12.2,2022-10-28 16:49:44.890625
2084,10.54,2022-10-28 16:49:44.906250
2085,8.83,2022-10-28 16:49:44.921875
2086,6.25,2022-10-28 16:49:44.937500
2087,2.16,2022-10-28 16:49:44.953125
2088,-3.8,2022-10-28 16:49:44.968750
2089,-11.61,2022-10-28 16:49:44.984375
2090,-20.91,2022-10-28 16:49:45.000000
2091,-31.08,2022-10-28 16:49:45.015625
2092,-41.46,2022-10-28 16:49:45.031250
2093,-51.65,2022-10-28 16:49:45.046875
2094,-61.75,2022-10-28 16:49:45.062500
2095,-72.39,2022-10-28 16:49:45.078125
2096,-84.41,2022-10-28 16:49:45.093750
2097,-98.28,2022-10-28 16:49:45.109375
2098,-113.38,2022-10-28 16:49:45.125000
2099,-127.76,2022-10-28 16:49:45.140625
2100,-138.31,2022-10-28 16:49:45.156250
2101,-141.79,2022-10-28 16:49:45.171875
2102,-135.89,2022-10-28 16:49:45.187500
2103,-120.06,2022-10-28 16:49:45.203125
2104,-95.68,2022-10-28 16:49:45.218750
2105,-65.63,2022-10-28 16:49:45.234375
2106,-33.36,2022-10-28 16:49:45.250000
2107,-2.01,2022-10-28 16:49:45.265625
2108,26.1,2022-10-28 16:49:45.281250
2109,49.57,2022-10-28 16:49:45.296875
2110,67.77,2022-10-28 16:49:45.312500
2111,80.58,2022-10-28 16:49:45.328125
2112,88.27,2022-10-28 16:49:45.343750
2113,91.32,2022-10-28 16:49:45.359375
2114,90.37,2022-10-28 16:49:45.375000
2115,86.13,2022-10-28 16:49:45.390625
2116,79.38,2022-10-28 16:49:45.406250
2117,70.97,2022-10-28 16:49:45.421875
2118,61.81,2022-10-28 16:49:45.437500
2119,52.93,2022-10-28 16:49:45.453125
2120,45.22,2022-10-28 16:49:45.468750
2121,39.33,2022-10-28 16:49:45.484375
2122,35.5,2022-10-28 16:49:45.500000
2123,33.53,2022-10-28 16:49:45.515625
2124,32.93,2022-10-28 16:49:45.531250
2125,33.07,2022-10-28 16:49:45.546875
2126,33.28,2022-10-28 16:49:45.562500
2127,32.97,2022-10-28 16:49:45.578125
2128,31.68,2022-10-28 16:49:45.593750
2129,29.06,2022-10-28 16:49:45.609375
2130,24.95,2022-10-28 16:49:45.625000
2131,19.43,2022-10-28 16:49:45.640625
2132,12.83,2022-10-28 16:49:45.656250
2133,5.55,2022-10-28 16:49:45.671875
2134,-2.18,2022-10-28 16:49:45.687500
2135,-10.53,2022-10-28 16:49:45.703125
2136,-20.16,2022-10-28 16:49:45.718750
2137,-31.9,2022-10-28 16:49:45.734375
2138,-46.23,2022-10-28 16:49:45.750000
2139,-62.6,2022-10-28 16:49:45.765625
2140,-79.14,2022-10-28 16:49:45.781250
2141,-92.88,2022-10-28 16:49:45.796875
2142,-100.41,2022-10-28 16:49:45.812500
2143,-98.96,2022-10-28 16:49:45.828125
2144,-87.2,2022-10-28 16:49:45.843750
2145,-65.55,2022-10-28 16:49:45.859375
2146,-36.07,2022-10-28 16:49:45.875000
2147,-1.83,2022-10-28 16:49:45.890625
2148,33.66,2022-10-28 16:49:45.906250
2149,67.08,2022-10-28 16:49:45.921875
2150,95.64,2022-10-28 16:49:45.937500
2151,117.38,2022-10-28 16:49:45.953125
2152,131.32,2022-10-28 16:49:45.968750
2153,137.46,2022-10-28 16:49:45.984375
2154,136.58,2022-10-28 16:49:46.000000
2155,129.94,2022-10-28 16:49:46.015625
2156,118.85,2022-10-28 16:49:46.031250
2157,104.51,2022-10-28 16:49:46.046875
2158,87.96,2022-10-28 16:49:46.062500
2159,70.19,2022-10-28 16:49:46.078125
2160,52.36,2022-10-28 16:49:46.093750
2161,35.64,2022-10-28 16:49:46.109375
2162,21.05,2022-10-28 16:49:46.125000
2163,9.12,2022-10-28 16:49:46.140625
2164,-0.24,2022-10-28 16:49:46.156250
2165,-7.71,2022-10-28 16:49:46.171875
2166,-14.25,2022-10-28 16:49:46.187500
2167,-20.79,2022-10-28 16:49:46.203125
2168,-27.98,2022-10-28 16:49:46.218750
2169,-36.13,2022-10-28 16:49:46.234375
2170,-45.24,2022-10-28 16:49:46.250000
2171,-55.16,2022-10-28 16:49:46.265625
2172,-65.58,2022-10-28 16:49:46.281250
2173,-76.06,2022-10-28 16:49:46.296875
2174,-86.09,2022-10-28 16:49:46.312500
2175,-95.22,2022-10-28 16:49:46.328125
2176,-103.34,2022-10-28 16:49:46.343750
2177,-110.97,2022-10-28 16:49:46.359375
2178,-119.31,2022-10-28 16:49:46.375000
2179,-129.87,2022-10-28 16:49:46.390625
2180,-143.73,2022-10-28 16:49:46.406250
2181,-160.74,2022-10-28 16:49:46.421875
2182,-178.94,2022-10-28 16:49:46.437500
2183,-194.76,2022-10-28 16:49:46.453125
2184,-203.86,2022-10-28 16:49:46.468750
2185,-202.37,2022-10-28 16:49:46.484375
2186,-188.04,2022-10-28 16:49:46.500000
2187,-160.94,2022-10-28 16:49:46.515625
2188,-123.33,2022-10-28 16:49:46.531250
2189,-79.01,2022-10-28 16:49:46.546875
2190,-32.45,2022-10-28 16:49:46.562500
2191,12.15,2022-10-28 16:49:46.578125
2192,51.44,2022-10-28 16:49:46.593750
2193,83.21,2022-10-28 16:49:46.609375
2194,106.4,2022-10-28 16:49:46.625000
2195,120.95,2022-10-28 16:49:46.640625
2196,127.56,2022-10-28 16:49:46.656250
2197,127.39,2022-10-28 16:49:46.671875
2198,121.84,2022-10-28 16:49:46.687500
2199,112.39,2022-10-28 16:49:46.703125
2200,100.49,2022-10-28 16:49:46.718750
2201,87.52,2022-10-28 16:49:46.734375
2202,74.69,2022-10-28 16:49:46.750000
2203,63.01,2022-10-28 16:49:46.765625
2204,53.17,2022-10-28 16:49:46.781250
2205,45.51,2022-10-28 16:49:46.796875
2206,40.04,2022-10-28 16:49:46.812500
2207,36.44,2022-10-28 16:49:46.828125
2208,34.16,2022-10-28 16:49:46.843750
2209,32.52,2022-10-28 16:49:46.859375
2210,30.75,2022-10-28 16:49:46.875000
2211,28.21,2022-10-28 16:49:46.890625
2212,24.47,2022-10-28 16:49:46.906250
2213,19.43,2022-10-28 16:49:46.921875
2214,13.24,2022-10-28 16:49:46.937500
2215,6.22,2022-10-28 16:49:46.953125
2216,-1.36,2022-10-28 16:49:46.968750
2217,-9.51,2022-10-28 16:49:46.984375
2218,-18.58,2022-10-28 16:49:47.000000
2219,-29.27,2022-10-28 16:49:47.015625
2220,-42.31,2022-10-28 16:49:47.031250
2221,-58.05,2022-10-28 16:49:47.046875
2222,-75.89,2022-10-28 16:49:47.062500
2223,-93.94,2022-10-28 16:49:47.078125
2224,-109.0,2022-10-28 16:49:47.093750
2225,-117.17,2022-10-28 16:49:47.109375
2226,-114.91,2022-10-28 16:49:47.125000
2227,-100.17,2022-10-28 16:49:47.140625
2228,-73.21,2022-10-28 16:49:47.156250
2229,-36.73,2022-10-28 16:49:47.171875
2230,4.87,2022-10-28 16:49:47.187500
2231,46.61,2022-10-28 16:49:47.203125
2232,84.24,2022-10-28 16:49:47.218750
2233,115.04,2022-10-28 16:49:47.234375
2234,138.01,2022-10-28 16:49:47.250000
2235,153.51,2022-10-28 16:49:47.265625
2236,162.61,2022-10-28 16:49:47.281250
2237,166.52,2022-10-28 16:49:47.296875
2238,166.31,2022-10-28 16:49:47.312500
2239,162.88,2022-10-28 16:49:47.328125
2240,157.07,2022-10-28 16:49:47.343750
2241,149.78,2022-10-28 16:49:47.359375
2242,141.96,2022-10-28 16:49:47.375000
2243,134.55,2022-10-28 16:49:47.390625
2244,128.3,2022-10-28 16:49:47.406250
2245,123.64,2022-10-28 16:49:47.421875
2246,120.59,2022-10-28 16:49:47.437500
2247,118.83,2022-10-28 16:49:47.453125
2248,117.81,2022-10-28 16:49:47.468750
2249,116.86,2022-10-28 16:49:47.484375
2250,115.34,2022-10-28 16:49:47.500000
2251,112.7,2022-10-28 16:49:47.515625
2252,108.57,2022-10-28 16:49:47.531250
2253,102.83,2022-10-28 16:49:47.546875
2254,95.66,2022-10-28 16:49:47.562500
2255,87.43,2022-10-28 16:49:47.578125
2256,78.65,2022-10-28 16:49:47.593750
2257,69.63,2022-10-28 16:49:47.609375
2258,60.22,2022-10-28 16:49:47.625000
2259,49.77,2022-10-28 16:49:47.640625
2260,37.27,2022-10-28 16:49:47.656250
2261,22.11,2022-10-28 16:49:47.671875
2262,4.67,2022-10-28 16:49:47.687500
2263,-13.2,2022-10-28 16:49:47.703125
2264,-28.45,2022-10-28 16:49:47.718750
2265,-37.57,2022-10-28 16:49:47.734375
2266,-37.74,2022-10-28 16:49:47.750000
2267,-27.71,2022-10-28 16:49:47.765625
2268,-8.2,2022-10-28 16:49:47.781250
2269,18.46,2022-10-28 16:49:47.796875
2270,48.99,2022-10-28 16:49:47.812500
2271,79.96,2022-10-28 16:49:47.828125
2272,108.37,2022-10-28 16:49:47.843750
2273,131.89,2022-10-28 16:49:47.859375
2274,148.9,2022-10-28 16:49:47.875000
2275,158.49,2022-10-28 16:49:47.890625
2276,160.36,2022-10-28 16:49:47.906250
2277,154.81,2022-10-28 16:49:47.921875
2278,142.73,2022-10-28 16:49:47.937500
2279,125.43,2022-10-28 16:49:47.953125
2280,104.54,2022-10-28 16:49:47.968750
2281,81.69,2022-10-28 16:49:47.984375
2282,58.36,2022-10-28 16:49:48.000000
2283,35.71,2022-10-28 16:49:48.015625
2284,14.56,2022-10-28 16:49:48.031250
2285,-4.62,2022-10-28 16:49:48.046875
2286,-21.59,2022-10-28 16:49:48.062500
2287,-36.22,2022-10-28 16:49:48.078125
2288,-48.43,2022-10-28 16:49:48.093750
2289,-58.2,2022-10-28 16:49:48.109375
2290,-65.51,2022-10-28 16:49:48.125000
2291,-70.41,2022-10-28 16:49:48.140625
2292,-73.05,2022-10-28 16:49:48.156250
2293,-73.75,2022-10-28 16:49:48.171875
2294,-73.03,2022-10-28 16:49:48.187500
2295,-71.61,2022-10-28 16:49:48.203125
2296,-70.3,2022-10-28 16:49:48.218750
2297,-69.77,2022-10-28 16:49:48.234375
2298,-70.39,2022-10-28 16:49:48.250000
2299,-72.01,2022-10-28 16:49:48.265625
2300,-73.94,2022-10-28 16:49:48.281250
2301,-75.01,2022-10-28 16:49:48.296875
2302,-73.75,2022-10-28 16:49:48.312500
2303,-68.81,2022-10-28 16:49:48.328125
2304,-59.33,2022-10-28 16:49:48.343750
2305,-45.4,2022-10-28 16:49:48.359375
2306,-28.25,2022-10-28 16:49:48.375000
2307,-10.11,2022-10-28 16:49:48.390625
2308,6.39,2022-10-28 16:49:48.406250
2309,18.94,2022-10-28 16:49:48.421875
2310,26.25,2022-10-28 16:49:48.437500
2311,28.33,2022-10-28 16:49:48.453125
2312,26.27,2022-10-28 16:49:48.468750
2313,21.73,2022-10-28 16:49:48.484375
2314,16.36,2022-10-28 16:49:48.500000
2315,11.45,2022-10-28 16:49:48.515625
2316,7.8,2022-10-28 16:49:48.531250
2317,5.96,2022-10-28 16:49:48.546875
2318,6.24,2022-10-28 16:49:48.562500
2319,8.82,2022-10-28 16:49:48.578125
2320,13.7,2022-10-28 16:49:48.593750
2321,20.6,2022-10-28 16:49:48.609375
2322,28.96,2022-10-28 16:49:48.625000
2323,37.97,2022-10-28 16:49:48.640625
2324,46.76,2022-10-28 16:49:48.656250
2325,54.51,2022-10-28 16:49:48.671875
2326,60.58,2022-10-28 16:49:48.687500
2327,64.62,2022-10-28 16:49:48.703125
2328,66.53,2022-10-28 16:49:48.718750
2329,66.29,2022-10-28 16:49:48.734375
2330,63.77,2022-10-28 16:49:48.750000
2331,58.54,2022-10-28 16:49:48.765625
2332,49.9,2022-10-28 16:49:48.781250
2333,37.11,2022-10-28 16:49:48.796875
2334,19.97,2022-10-28 16:49:48.812500
2335,-0.78,2022-10-28 16:49:48.828125
2336,-23.33,2022-10-28 16:49:48.843750
2337,-45.02,2022-10-28 16:49:48.859375
2338,-63.13,2022-10-28 16:49:48.875000
2339,-75.61,2022-10-28 16:49:48.890625
2340,-81.67,2022-10-28 16:49:48.906250
2341,-81.89,2022-10-28 16:49:48.921875
2342,-77.84,2022-10-28 16:49:48.937500
2343,-71.48,2022-10-28 16:49:48.953125
2344,-64.48,2022-10-28 16:49:48.968750
2345,-57.94,2022-10-28 16:49:48.984375
2346,-52.3,2022-10-28 16:49:49.000000
2347,-47.57,2022-10-28 16:49:49.015625
2348,-43.62,2022-10-28 16:49:49.031250
2349,-40.37,2022-10-28 16:49:49.046875
2350,-37.83,2022-10-28 16:49:49.062500
2351,-36.08,2022-10-28 16:49:49.078125
2352,-35.04,2022-10-28 16:49:49.093750
2353,-34.46,2022-10-28 16:49:49.109375
2354,-33.98,2022-10-28 16:49:49.125000
2355,-33.25,2022-10-28 16:49:49.140625
2356,-32.17,2022-10-28 16:49:49.156250
2357,-30.87,2022-10-28 16:49:49.171875
2358,-29.74,2022-10-28 16:49:49.187500
2359,-29.21,2022-10-28 16:49:49.203125
2360,-29.49,2022-10-28 16:49:49.218750
2361,-30.44,2022-10-28 16:49:49.234375
2362,-31.54,2022-10-28 16:49:49.250000
2363,-32.06,2022-10-28 16:49:49.265625
2364,-31.3,2022-10-28 16:49:49.281250
2365,-28.87,2022-10-28 16:49:49.296875
2366,-24.85,2022-10-28 16:49:49.312500
2367,-19.66,2022-10-28 16:49:49.328125
2368,-14.03,2022-10-28 16:49:49.343750
2369,-8.6,2022-10-28 16:49:49.359375
2370,-3.7,2022-10-28 16:49:49.375000
2371,0.68,2022-10-28 16:49:49.390625
2372,4.83,2022-10-28 16:49:49.406250
2373,9.07,2022-10-28 16:49:49.421875
2374,13.49,2022-10-28 16:49:49.437500
2375,17.89,2022-10-28 16:49:49.453125
2376,21.84,2022-10-28 16:49:49.468750
2377,24.83,2022-10-28 16:49:49.484375
2378,26.33,2022-10-28 16:49:49.500000
2379,25.81,2022-10-28 16:49:49.515625
2380,22.72,2022-10-28 16:49:49.531250
2381,16.56,2022-10-28 16:49:49.546875
2382,7.09,2022-10-28 16:49:49.562500
2383,-5.42,2022-10-28 16:49:49.578125
2384,-20.05,2022-10-28 16:49:49.593750
2385,-35.32,2022-10-28 16:49:49.609375
2386,-49.59,2022-10-28 16:49:49.625000
2387,-61.55,2022-10-28 16:49:49.640625
2388,-70.65,2022-10-28 16:49:49.656250
2389,-77.09,2022-10-28 16:49:49.671875
2390,-81.58,2022-10-28 16:49:49.687500
2391,-84.86,2022-10-28 16:49:49.703125
2392,-87.35,2022-10-28 16:49:49.718750
2393,-89.11,2022-10-28 16:49:49.734375
2394,-89.97,2022-10-28 16:49:49.750000
2395,-89.82,2022-10-28 16:49:49.765625
2396,-88.89,2022-10-28 16:49:49.781250
2397,-87.65,2022-10-28 16:49:49.796875
2398,-86.68,2022-10-28 16:49:49.812500
2399,-86.35,2022-10-28 16:49:49.828125
2400,-86.65,2022-10-28 16:49:49.843750
2401,-87.12,2022-10-28 16:49:49.859375
2402,-87.07,2022-10-28 16:49:49.875000
2403,-85.78,2022-10-28 16:49:49.890625
2404,-82.78,2022-10-28 16:49:49.906250
2405,-78.0,2022-10-28 16:49:49.921875
2406,-71.75,2022-10-28 16:49:49.937500
2407,-64.58,2022-10-28 16:49:49.953125
2408,-57.14,2022-10-28 16:49:49.968750
2409,-49.88,2022-10-28 16:49:49.984375
2410,-43.0,2022-10-28 16:49:50.000000
2411,-36.48,2022-10-28 16:49:50.015625
2412,-30.21,2022-10-28 16:49:50.031250
2413,-24.18,2022-10-28 16:49:50.046875
2414,-18.56,2022-10-28 16:49:50.062500
2415,-13.64,2022-10-28 16:49:50.078125
2416,-9.69,2022-10-28 16:49:50.093750
2417,-6.82,2022-10-28 16:49:50.109375
2418,-4.93,2022-10-28 16:49:50.125000
2419,-3.74,2022-10-28 16:49:50.140625
2420,-2.96,2022-10-28 16:49:50.156250
2421,-2.41,2022-10-28 16:49:50.171875
2422,-2.08,2022-10-28 16:49:50.187500
2423,-2.04,2022-10-28 16:49:50.203125
2424,-2.43,2022-10-28 16:49:50.218750
2425,-3.31,2022-10-28 16:49:50.234375
2426,-4.73,2022-10-28 16:49:50.250000
2427,-6.66,2022-10-28 16:49:50.265625
2428,-9.04,2022-10-28 16:49:50.281250
2429,-11.59,2022-10-28 16:49:50.296875
2430,-13.79,2022-10-28 16:49:50.312500
2431,-14.84,2022-10-28 16:49:50.328125
2432,-13.82,2022-10-28 16:49:50.343750
2433,-10.04,2022-10-28 16:49:50.359375
2434,-3.34,2022-10-28 16:49:50.375000
2435,5.7,2022-10-28 16:49:50.390625
2436,15.88,2022-10-28 16:49:50.406250
2437,25.8,2022-10-28 16:49:50.421875
2438,34.35,2022-10-28 16:49:50.437500
2439,40.99,2022-10-28 16:49:50.453125
2440,45.8,2022-10-28 16:49:50.468750
2441,49.13,2022-10-28 16:49:50.484375
2442,51.3,2022-10-28 16:49:50.500000
2443,52.34,2022-10-28 16:49:50.515625
2444,52.05,2022-10-28 16:49:50.531250
2445,50.28,2022-10-28 16:49:50.546875
2446,47.08,2022-10-28 16:49:50.562500
2447,42.86,2022-10-28 16:49:50.578125
2448,38.32,2022-10-28 16:49:50.593750
2449,34.21,2022-10-28 16:49:50.609375
2450,31.07,2022-10-28 16:49:50.625000
2451,29.12,2022-10-28 16:49:50.640625
2452,28.14,2022-10-28 16:49:50.656250
2453,27.6,2022-10-28 16:49:50.671875
2454,26.82,2022-10-28 16:49:50.687500
2455,25.25,2022-10-28 16:49:50.703125
2456,22.73,2022-10-28 16:49:50.718750
2457,19.63,2022-10-28 16:49:50.734375
2458,16.62,2022-10-28 16:49:50.750000
2459,14.41,2022-10-28 16:49:50.765625
2460,13.24,2022-10-28 16:49:50.781250
2461,12.74,2022-10-28 16:49:50.796875
2462,11.98,2022-10-28 16:49:50.812500
2463,9.97,2022-10-28 16:49:50.828125
2464,6.18,2022-10-28 16:49:50.843750
2465,0.87,2022-10-28 16:49:50.859375
2466,-4.99,2022-10-28 16:49:50.875000
2467,-10.19,2022-10-28 16:49:50.890625
2468,-13.82,2022-10-28 16:49:50.906250
2469,-15.69,2022-10-28 16:49:50.921875
2470,-16.35,2022-10-28 16:49:50.937500
2471,-16.78,2022-10-28 16:49:50.953125
2472,-17.94,2022-10-28 16:49:50.968750
2473,-20.4,2022-10-28 16:49:50.984375
2474,-24.29,2022-10-28 16:49:51.000000
2475,-29.28,2022-10-28 16:49:51.015625
2476,-34.76,2022-10-28 16:49:51.031250
2477,-39.82,2022-10-28 16:49:51.046875
2478,-43.21,2022-10-28 16:49:51.062500
2479,-43.48,2022-10-28 16:49:51.078125
2480,-39.34,2022-10-28 16:49:51.093750
2481,-30.2,2022-10-28 16:49:51.109375
2482,-16.7,2022-10-28 16:49:51.125000
2483,-0.81,2022-10-28 16:49:51.140625
2484,14.61,2022-10-28 16:49:51.156250
2485,26.75,2022-10-28 16:49:51.171875
2486,33.81,2022-10-28 16:49:51.187500
2487,35.51,2022-10-28 16:49:51.203125
2488,33.0,2022-10-28 16:49:51.218750
2489,28.13,2022-10-28 16:49:51.234375
2490,22.7,2022-10-28 16:49:51.250000
2491,17.86,2022-10-28 16:49:51.265625
2492,14.02,2022-10-28 16:49:51.281250
2493,11.18,2022-10-28 16:49:51.296875
2494,9.31,2022-10-28 16:49:51.312500
2495,8.51,2022-10-28 16:49:51.328125
2496,8.93,2022-10-28 16:49:51.343750
2497,10.43,2022-10-28 16:49:51.359375
2498,12.49,2022-10-28 16:49:51.375000
2499,14.24,2022-10-28 16:49:51.390625
2500,14.84,2022-10-28 16:49:51.406250
2501,13.89,2022-10-28 16:49:51.421875
2502,11.67,2022-10-28 16:49:51.437500
2503,9.01,2022-10-28 16:49:51.453125
2504,6.98,2022-10-28 16:49:51.468750
2505,6.35,2022-10-28 16:49:51.484375
2506,7.25,2022-10-28 16:49:51.500000
2507,9.12,2022-10-28 16:49:51.515625
2508,10.94,2022-10-28 16:49:51.531250
2509,11.62,2022-10-28 16:49:51.546875
2510,10.48,2022-10-28 16:49:51.562500
2511,7.5,2022-10-28 16:49:51.578125
2512,3.29,2022-10-28 16:49:51.593750
2513,-1.22,2022-10-28 16:49:51.609375
2514,-5.11,2022-10-28 16:49:51.625000
2515,-7.9,2022-10-28 16:49:51.640625
2516,-9.64,2022-10-28 16:49:51.656250
2517,-10.91,2022-10-28 16:49:51.671875
2518,-12.43,2022-10-28 16:49:51.687500
2519,-14.91,2022-10-28 16:49:51.703125
2520,-18.77,2022-10-28 16:49:51.718750
2521,-24.11,2022-10-28 16:49:51.734375
2522,-30.58,2022-10-28 16:49:51.750000
2523,-37.26,2022-10-28 16:49:51.765625
2524,-42.69,2022-10-28 16:49:51.781250
2525,-45.0,2022-10-28 16:49:51.796875
2526,-42.5,2022-10-28 16:49:51.812500
2527,-34.35,2022-10-28 16:49:51.828125
2528,-21.15,2022-10-28 16:49:51.843750
2529,-4.98,2022-10-28 16:49:51.859375
2530,11.13,2022-10-28 16:49:51.875000
2531,24.19,2022-10-28 16:49:51.890625
2532,32.22,2022-10-28 16:49:51.906250
2533,34.69,2022-10-28 16:49:51.921875
2534,32.48,2022-10-28 16:49:51.937500
2535,27.17,2022-10-28 16:49:51.953125
2536,20.4,2022-10-28 16:49:51.968750
2537,13.33,2022-10-28 16:49:51.984375
2538,6.57,2022-10-28 16:49:52.000000
2539,0.42,2022-10-28 16:49:52.015625
2540,-4.9,2022-10-28 16:49:52.031250
2541,-9.17,2022-10-28 16:49:52.046875
2542,-12.23,2022-10-28 16:49:52.062500
2543,-14.17,2022-10-28 16:49:52.078125
2544,-15.41,2022-10-28 16:49:52.093750
2545,-16.58,2022-10-28 16:49:52.109375
2546,-18.21,2022-10-28 16:49:52.125000
2547,-20.48,2022-10-28 16:49:52.140625
2548,-23.01,2022-10-28 16:49:52.156250
2549,-25.07,2022-10-28 16:49:52.171875
2550,-25.88,2022-10-28 16:49:52.187500
2551,-25.05,2022-10-28 16:49:52.203125
2552,-22.82,2022-10-28 16:49:52.218750
2553,-20.01,2022-10-28 16:49:52.234375
2554,-17.69,2022-10-28 16:49:52.250000
2555,-16.77,2022-10-28 16:49:52.265625
2556,-17.59,2022-10-28 16:49:52.281250
2557,-19.81,2022-10-28 16:49:52.296875
2558,-22.6,2022-10-28 16:49:52.312500
2559,-24.98,2022-10-28 16:49:52.328125
2560,-26.23,2022-10-28 16:49:52.343750
2561,-26.23,2022-10-28 16:49:52.359375
2562,-25.45,2022-10-28 16:49:52.375000
2563,-24.69,2022-10-28 16:49:52.390625
2564,-24.83,2022-10-28 16:49:52.406250
2565,-26.43,2022-10-28 16:49:52.421875
2566,-29.56,2022-10-28 16:49:52.437500
2567,-33.72,2022-10-28 16:49:52.453125
2568,-37.84,2022-10-28 16:49:52.468750
2569,-40.45,2022-10-28 16:49:52.484375
2570,-40.01,2022-10-28 16:49:52.500000
2571,-35.38,2022-10-28 16:49:52.515625
2572,-26.3,2022-10-28 16:49:52.531250
2573,-13.76,2022-10-28 16:49:52.546875
2574,0.17,2022-10-28 16:49:52.562500
2575,12.94,2022-10-28 16:49:52.578125
2576,22.32,2022-10-28 16:49:52.593750
2577,27.13,2022-10-28 16:49:52.609375
2578,27.52,2022-10-28 16:49:52.625000
2579,24.67,2022-10-28 16:49:52.640625
2580,20.16,2022-10-28 16:49:52.656250
2581,15.36,2022-10-28 16:49:52.671875
2582,11.06,2022-10-28 16:49:52.687500
2583,7.53,2022-10-28 16:49:52.703125
2584,4.75,2022-10-28 16:49:52.718750
2585,2.63,2022-10-28 16:49:52.734375
2586,1.14,2022-10-28 16:49:52.750000
2587,0.17,2022-10-28 16:49:52.765625
2588,-0.48,2022-10-28 16:49:52.781250
2589,-1.09,2022-10-28 16:49:52.796875
2590,-1.9,2022-10-28 16:49:52.812500
2591,-3.02,2022-10-28 16:49:52.828125
2592,-4.3,2022-10-28 16:49:52.843750
2593,-5.43,2022-10-28 16:49:52.859375
2594,-6.13,2022-10-28 16:49:52.875000
2595,-6.27,2022-10-28 16:49:52.890625
2596,-6.0,2022-10-28 16:49:52.906250
2597,-5.65,2022-10-28 16:49:52.921875
2598,-5.62,2022-10-28 16:49:52.937500
2599,-6.18,2022-10-28 16:49:52.953125
2600,-7.37,2022-10-28 16:49:52.968750
2601,-8.97,2022-10-28 16:49:52.984375
2602,-10.63,2022-10-28 16:49:53.000000
2603,-12.06,2022-10-28 16:49:53.015625
2604,-13.13,2022-10-28 16:49:53.031250
2605,-14.0,2022-10-28 16:49:53.046875
2606,-15.08,2022-10-28 16:49:53.062500
2607,-16.89,2022-10-28 16:49:53.078125
2608,-19.84,2022-10-28 16:49:53.093750
2609,-23.99,2022-10-28 16:49:53.109375
2610,-28.87,2022-10-28 16:49:53.125000
2611,-33.39,2022-10-28 16:49:53.140625
2612,-36.1,2022-10-28 16:49:53.156250
2613,-35.58,2022-10-28 16:49:53.171875
2614,-30.98,2022-10-28 16:49:53.187500
2615,-22.41,2022-10-28 16:49:53.203125
2616,-11.09,2022-10-28 16:49:53.218750
2617,0.98,2022-10-28 16:49:53.234375
2618,11.66,2022-10-28 16:49:53.250000
2619,19.33,2022-10-28 16:49:53.265625
2620,23.35,2022-10-28 16:49:53.281250
2621,24.08,2022-10-28 16:49:53.296875
2622,22.56,2022-10-28 16:49:53.312500
2623,20.03,2022-10-28 16:49:53.328125
2624,17.43,2022-10-28 16:49:53.343750
2625,15.29,2022-10-28 16:49:53.359375
2626,13.68,2022-10-28 16:49:53.375000
2627,12.45,2022-10-28 16:49:53.390625
2628,11.36,2022-10-28 16:49:53.406250
2629,10.24,2022-10-28 16:49:53.421875
2630,8.96,2022-10-28 16:49:53.437500
2631,7.52,2022-10-28 16:49:53.453125
2632,5.94,2022-10-28 16:49:53.468750
2633,4.34,2022-10-28 16:49:53.484375
2634,2.88,2022-10-28 16:49:53.500000
2635,1.77,2022-10-28 16:49:53.515625
2636,1.16,2022-10-28 16:49:53.531250
2637,1.02,2022-10-28 16:49:53.546875
2638,1.14,2022-10-28 16:49:53.562500
2639,1.11,2022-10-28 16:49:53.578125
2640,0.55,2022-10-28 16:49:53.593750
2641,-0.72,2022-10-28 16:49:53.609375
2642,-2.57,2022-10-28 16:49:53.625000
2643,-4.56,2022-10-28 16:49:53.640625
2644,-6.24,2022-10-28 16:49:53.656250
2645,-7.34,2022-10-28 16:49:53.671875
2646,-7.99,2022-10-28 16:49:53.687500
2647,-8.64,2022-10-28 16:49:53.703125
2648,-9.86,2022-10-28 16:49:53.718750
2649,-12.2,2022-10-28 16:49:53.734375
2650,-15.95,2022-10-28 16:49:53.750000
2651,-21.06,2022-10-28 16:49:53.765625
2652,-26.91,2022-10-28 16:49:53.781250
2653,-32.31,2022-10-28 16:49:53.796875
2654,-35.53,2022-10-28 16:49:53.812500
2655,-34.78,2022-10-28 16:49:53.828125
2656,-28.82,2022-10-28 16:49:53.843750
2657,-17.67,2022-10-28 16:49:53.859375
2658,-2.82,2022-10-28 16:49:53.875000
2659,13.1,2022-10-28 16:49:53.890625
2660,27.18,2022-10-28 16:49:53.906250
2661,37.24,2022-10-28 16:49:53.921875
2662,42.5,2022-10-28 16:49:53.937500
2663,43.49,2022-10-28 16:49:53.953125
2664,41.59,2022-10-28 16:49:53.968750
2665,38.22,2022-10-28 16:49:53.984375
2666,34.39,2022-10-28 16:49:54.000000
2667,30.57,2022-10-28 16:49:54.015625
2668,26.91,2022-10-28 16:49:54.031250
2669,23.47,2022-10-28 16:49:54.046875
2670,20.45,2022-10-28 16:49:54.062500
2671,17.96,2022-10-28 16:49:54.078125
2672,15.98,2022-10-28 16:49:54.093750
2673,14.3,2022-10-28 16:49:54.109375
2674,12.62,2022-10-28 16:49:54.125000
2675,10.78,2022-10-28 16:49:54.140625
2676,8.82,2022-10-28 16:49:54.156250
2677,6.99,2022-10-28 16:49:54.171875
2678,5.52,2022-10-28 16:49:54.187500
2679,4.45,2022-10-28 16:49:54.203125
2680,3.54,2022-10-28 16:49:54.218750
2681,2.35,2022-10-28 16:49:54.234375
2682,0.49,2022-10-28 16:49:54.250000
2683,-2.19,2022-10-28 16:49:54.265625
2684,-5.56,2022-10-28 16:49:54.281250
2685,-9.18,2022-10-28 16:49:54.296875
2686,-12.55,2022-10-28 16:49:54.312500
2687,-15.28,2022-10-28 16:49:54.328125
2688,-17.25,2022-10-28 16:49:54.343750
2689,-18.7,2022-10-28 16:49:54.359375
2690,-20.21,2022-10-28 16:49:54.375000
2691,-22.47,2022-10-28 16:49:54.390625
2692,-26.11,2022-10-28 16:49:54.406250
2693,-31.26,2022-10-28 16:49:54.421875
2694,-37.29,2022-10-28 16:49:54.437500
2695,-42.72,2022-10-28 16:49:54.453125
2696,-45.55,2022-10-28 16:49:54.468750
2697,-43.96,2022-10-28 16:49:54.484375
2698,-37.07,2022-10-28 16:49:54.500000
2699,-25.46,2022-10-28 16:49:54.515625
2700,-11.11,2022-10-28 16:49:54.531250
2701,3.18,2022-10-28 16:49:54.546875
2702,14.76,2022-10-28 16:49:54.562500
2703,21.98,2022-10-28 16:49:54.578125
2704,24.51,2022-10-28 16:49:54.593750
2705,23.24,2022-10-28 16:49:54.609375
2706,19.63,2022-10-28 16:49:54.625000
2707,15.12,2022-10-28 16:49:54.640625
2708,10.7,2022-10-28 16:49:54.656250
2709,6.86,2022-10-28 16:49:54.671875
2710,3.71,2022-10-28 16:49:54.687500
2711,1.19,2022-10-28 16:49:54.703125
2712,-0.8,2022-10-28 16:49:54.718750
2713,-2.33,2022-10-28 16:49:54.734375
2714,-3.47,2022-10-28 16:49:54.750000
2715,-4.28,2022-10-28 16:49:54.765625
2716,-4.8,2022-10-28 16:49:54.781250
2717,-5.1,2022-10-28 16:49:54.796875
2718,-5.23,2022-10-28 16:49:54.812500
2719,-5.3,2022-10-28 16:49:54.828125
2720,-5.51,2022-10-28 16:49:54.843750
2721,-6.06,2022-10-28 16:49:54.859375
2722,-7.09,2022-10-28 16:49:54.875000
2723,-8.61,2022-10-28 16:49:54.890625
2724,-10.47,2022-10-28 16:49:54.906250
2725,-12.39,2022-10-28 16:49:54.921875
2726,-14.14,2022-10-28 16:49:54.937500
2727,-15.6,2022-10-28 16:49:54.953125
2728,-16.82,2022-10-28 16:49:54.968750
2729,-18.01,2022-10-28 16:49:54.984375
2730,-19.43,2022-10-28 16:49:55.000000
2731,-21.32,2022-10-28 16:49:55.015625
2732,-23.91,2022-10-28 16:49:55.031250
2733,-27.31,2022-10-28 16:49:55.046875
2734,-31.36,2022-10-28 16:49:55.062500
2735,-35.34,2022-10-28 16:49:55.078125
2736,-37.92,2022-10-28 16:49:55.093750
2737,-37.31,2022-10-28 16:49:55.109375
2738,-31.86,2022-10-28 16:49:55.125000
2739,-20.84,2022-10-28 16:49:55.140625
2740,-5.09,2022-10-28 16:49:55.156250
2741,13.06,2022-10-28 16:49:55.171875
2742,30.37,2022-10-28 16:49:55.187500
2743,43.81,2022-10-28 16:49:55.203125
2744,51.55,2022-10-28 16:49:55.218750
2745,53.42,2022-10-28 16:49:55.234375
2746,50.61,2022-10-28 16:49:55.250000
2747,44.92,2022-10-28 16:49:55.265625
2748,38.0,2022-10-28 16:49:55.281250
2749,30.84,2022-10-28 16:49:55.296875
2750,23.87,2022-10-28 16:49:55.312500
2751,17.17,2022-10-28 16:49:55.328125
2752,10.86,2022-10-28 16:49:55.343750
2753,5.21,2022-10-28 16:49:55.359375
2754,0.53,2022-10-28 16:49:55.375000
2755,-2.94,2022-10-28 16:49:55.390625
2756,-5.17,2022-10-28 16:49:55.406250
2757,-6.39,2022-10-28 16:49:55.421875
2758,-6.98,2022-10-28 16:49:55.437500
2759,-7.32,2022-10-28 16:49:55.453125
2760,-7.72,2022-10-28 16:49:55.468750
2761,-8.35,2022-10-28 16:49:55.484375
2762,-9.27,2022-10-28 16:49:55.500000
2763,-10.5,2022-10-28 16:49:55.515625
2764,-11.98,2022-10-28 16:49:55.531250
2765,-13.66,2022-10-28 16:49:55.546875
2766,-15.46,2022-10-28 16:49:55.562500
2767,-17.25,2022-10-28 16:49:55.578125
2768,-18.92,2022-10-28 16:49:55.593750
2769,-20.38,2022-10-28 16:49:55.609375
2770,-21.59,2022-10-28 16:49:55.625000
2771,-22.71,2022-10-28 16:49:55.640625
2772,-24.17,2022-10-28 16:49:55.656250
2773,-26.57,2022-10-28 16:49:55.671875
2774,-30.45,2022-10-28 16:49:55.687500
2775,-35.82,2022-10-28 16:49:55.703125
2776,-41.67,2022-10-28 16:49:55.718750
2777,-46.01,2022-10-28 16:49:55.734375
2778,-46.27,2022-10-28 16:49:55.750000
2779,-40.26,2022-10-28 16:49:55.765625
2780,-27.18,2022-10-28 16:49:55.781250
2781,-8.19,2022-10-28 16:49:55.796875
2782,13.82,2022-10-28 16:49:55.812500
2783,35.09,2022-10-28 16:49:55.828125
2784,52.19,2022-10-28 16:49:55.843750
2785,63.01,2022-10-28 16:49:55.859375
2786,67.1,2022-10-28 16:49:55.875000
2787,65.38,2022-10-28 16:49:55.890625
2788,59.54,2022-10-28 16:49:55.906250
2789,51.41,2022-10-28 16:49:55.921875
2790,42.5,2022-10-28 16:49:55.937500
2791,33.91,2022-10-28 16:49:55.953125
2792,26.27,2022-10-28 16:49:55.968750
2793,19.83,2022-10-28 16:49:55.984375
2794,14.53,2022-10-28 16:49:56.000000
2795,10.24,2022-10-28 16:49:56.015625
2796,6.82,2022-10-28 16:49:56.031250
2797,4.27,2022-10-28 16:49:56.046875
2798,2.7,2022-10-28 16:49:56.062500
2799,2.14,2022-10-28 16:49:56.078125
2800,2.5,2022-10-28 16:49:56.093750
2801,3.36,2022-10-28 16:49:56.109375
2802,4.12,2022-10-28 16:49:56.125000
2803,4.21,2022-10-28 16:49:56.140625
2804,3.29,2022-10-28 16:49:56.156250
2805,1.4,2022-10-28 16:49:56.171875
2806,-1.06,2022-10-28 16:49:56.187500
2807,-3.56,2022-10-28 16:49:56.203125
2808,-5.68,2022-10-28 16:49:56.218750
2809,-7.3,2022-10-28 16:49:56.234375
2810,-8.6,2022-10-28 16:49:56.250000
2811,-9.97,2022-10-28 16:49:56.265625
2812,-11.88,2022-10-28 16:49:56.281250
2813,-14.72,2022-10-28 16:49:56.296875
2814,-18.76,2022-10-28 16:49:56.312500
2815,-23.97,2022-10-28 16:49:56.328125
2816,-29.79,2022-10-28 16:49:56.343750
2817,-35.0,2022-10-28 16:49:56.359375
2818,-37.82,2022-10-28 16:49:56.375000
2819,-36.33,2022-10-28 16:49:56.390625
2820,-29.32,2022-10-28 16:49:56.406250
2821,-16.94,2022-10-28 16:49:56.421875
2822,-1.02,2022-10-28 16:49:56.437500
2823,15.37,2022-10-28 16:49:56.453125
2824,28.86,2022-10-28 16:49:56.468750
2825,37.02,2022-10-28 16:49:56.484375
2826,38.94,2022-10-28 16:49:56.500000
2827,35.38,2022-10-28 16:49:56.515625
2828,28.16,2022-10-28 16:49:56.531250
2829,19.34,2022-10-28 16:49:56.546875
2830,10.56,2022-10-28 16:49:56.562500
2831,2.82,2022-10-28 16:49:56.578125
2832,-3.43,2022-10-28 16:49:56.593750
2833,-7.98,2022-10-28 16:49:56.609375
2834,-10.8,2022-10-28 16:49:56.625000
2835,-11.98,2022-10-28 16:49:56.640625
2836,-11.9,2022-10-28 16:49:56.656250
2837,-11.2,2022-10-28 16:49:56.671875
2838,-10.66,2022-10-28 16:49:56.687500
2839,-10.87,2022-10-28 16:49:56.703125
2840,-11.99,2022-10-28 16:49:56.718750
2841,-13.62,2022-10-28 16:49:56.734375
2842,-15.04,2022-10-28 16:49:56.750000
2843,-15.54,2022-10-28 16:49:56.765625
2844,-14.85,2022-10-28 16:49:56.781250
2845,-13.33,2022-10-28 16:49:56.796875
2846,-11.8,2022-10-28 16:49:56.812500
2847,-11.16,2022-10-28 16:49:56.828125
2848,-11.98,2022-10-28 16:49:56.843750
2849,-14.17,2022-10-28 16:49:56.859375
2850,-17.05,2022-10-28 16:49:56.875000
2851,-19.66,2022-10-28 16:49:56.890625
2852,-21.22,2022-10-28 16:49:56.906250
2853,-21.51,2022-10-28 16:49:56.921875
2854,-21.03,2022-10-28 16:49:56.937500
2855,-20.82,2022-10-28 16:49:56.953125
2856,-22.14,2022-10-28 16:49:56.968750
2857,-25.87,2022-10-28 16:49:56.984375
2858,-32.12,2022-10-28 16:49:57.000000
2859,-39.82,2022-10-28 16:49:57.015625
2860,-46.92,2022-10-28 16:49:57.031250
2861,-50.83,2022-10-28 16:49:57.046875
2862,-49.33,2022-10-28 16:49:57.062500
2863,-41.45,2022-10-28 16:49:57.078125
2864,-28.12,2022-10-28 16:49:57.093750
2865,-11.97,2022-10-28 16:49:57.109375
2866,3.4,2022-10-28 16:49:57.125000
2867,14.67,2022-10-28 16:49:57.140625
2868,19.93,2022-10-28 16:49:57.156250
2869,19.25,2022-10-28 16:49:57.171875
2870,14.54,2022-10-28 16:49:57.187500
2871,8.8,2022-10-28 16:49:57.203125
2872,5.13,2022-10-28 16:49:57.218750
2873,5.84,2022-10-28 16:49:57.234375
2874,11.82,2022-10-28 16:49:57.250000
2875,22.42,2022-10-28 16:49:57.265625
2876,35.71,2022-10-28 16:49:57.281250
2877,49.03,2022-10-28 16:49:57.296875
2878,59.74,2022-10-28 16:49:57.312500
2879,65.98,2022-10-28 16:49:57.328125
2880,67.05,2022-10-28 16:49:57.343750
2881,63.48,2022-10-28 16:49:57.359375
2882,56.66,2022-10-28 16:49:57.375000
2883,48.28,2022-10-28 16:49:57.390625
2884,39.81,2022-10-28 16:49:57.406250
2885,32.3,2022-10-28 16:49:57.421875
2886,26.3,2022-10-28 16:49:57.437500
2887,21.89,2022-10-28 16:49:57.453125
2888,18.84,2022-10-28 16:49:57.468750
2889,16.66,2022-10-28 16:49:57.484375
2890,14.68,2022-10-28 16:49:57.500000
2891,12.3,2022-10-28 16:49:57.515625
2892,9.24,2022-10-28 16:49:57.531250
2893,5.62,2022-10-28 16:49:57.546875
2894,1.96,2022-10-28 16:49:57.562500
2895,-1.14,2022-10-28 16:49:57.578125
2896,-3.27,2022-10-28 16:49:57.593750
2897,-4.44,2022-10-28 16:49:57.609375
2898,-5.17,2022-10-28 16:49:57.625000
2899,-6.24,2022-10-28 16:49:57.640625
2900,-8.37,2022-10-28 16:49:57.656250
2901,-11.98,2022-10-28 16:49:57.671875
2902,-16.93,2022-10-28 16:49:57.687500
2903,-22.59,2022-10-28 16:49:57.703125
2904,-28.07,2022-10-28 16:49:57.718750
2905,-32.56,2022-10-28 16:49:57.734375
2906,-35.64,2022-10-28 16:49:57.750000
2907,-37.46,2022-10-28 16:49:57.765625
2908,-38.78,2022-10-28 16:49:57.781250
2909,-40.71,2022-10-28 16:49:57.796875
2910,-44.34,2022-10-28 16:49:57.812500
2911,-50.21,2022-10-28 16:49:57.828125
2912,-57.77,2022-10-28 16:49:57.843750
2913,-65.19,2022-10-28 16:49:57.859375
2914,-69.49,2022-10-28 16:49:57.875000
2915,-67.33,2022-10-28 16:49:57.890625
2916,-56.08,2022-10-28 16:49:57.906250
2917,-35.08,2022-10-28 16:49:57.921875
2918,-6.16,2022-10-28 16:49:57.937500
2919,26.5,2022-10-28 16:49:57.953125
2920,57.57,2022-10-28 16:49:57.968750
2921,82.14,2022-10-28 16:49:57.984375
2922,97.11,2022-10-28 16:49:58.000000
2923,101.88,2022-10-28 16:49:58.015625
2924,98.03,2022-10-28 16:49:58.031250
2925,88.38,2022-10-28 16:49:58.046875
2926,75.81,2022-10-28 16:49:58.062500
2927,62.5,2022-10-28 16:49:58.078125
2928,49.63,2022-10-28 16:49:58.093750
2929,37.63,2022-10-28 16:49:58.109375
2930,26.58,2022-10-28 16:49:58.125000
2931,16.58,2022-10-28 16:49:58.140625
2932,7.83,2022-10-28 16:49:58.156250
2933,0.63,2022-10-28 16:49:58.171875
2934,-4.77,2022-10-28 16:49:58.187500
2935,-8.26,2022-10-28 16:49:58.203125
2936,-9.92,2022-10-28 16:49:58.218750
2937,-9.96,2022-10-28 16:49:58.234375
2938,-8.78,2022-10-28 16:49:58.250000
2939,-6.87,2022-10-28 16:49:58.265625
2940,-4.92,2022-10-28 16:49:58.281250
2941,-3.68,2022-10-28 16:49:58.296875
2942,-3.85,2022-10-28 16:49:58.312500
2943,-5.86,2022-10-28 16:49:58.328125
2944,-9.7,2022-10-28 16:49:58.343750
2945,-14.85,2022-10-28 16:49:58.359375
2946,-20.45,2022-10-28 16:49:58.375000
2947,-25.67,2022-10-28 16:49:58.390625
2948,-29.94,2022-10-28 16:49:58.406250
2949,-33.21,2022-10-28 16:49:58.421875
2950,-36.0,2022-10-28 16:49:58.437500
2951,-39.19,2022-10-28 16:49:58.453125
2952,-43.81,2022-10-28 16:49:58.468750
2953,-50.54,2022-10-28 16:49:58.484375
2954,-59.26,2022-10-28 16:49:58.500000
2955,-68.46,2022-10-28 16:49:58.515625
2956,-75.25,2022-10-28 16:49:58.531250
2957,-75.79,2022-10-28 16:49:58.546875
2958,-66.69,2022-10-28 16:49:58.562500
2959,-46.45,2022-10-28 16:49:58.578125
2960,-16.53,2022-10-28 16:49:58.593750
2961,18.75,2022-10-28 16:49:58.609375
2962,53.52,2022-10-28 16:49:58.625000
2963,82.34,2022-10-28 16:49:58.640625
2964,101.91,2022-10-28 16:49:58.656250
2965,111.66,2022-10-28 16:49:58.671875
2966,113.22,2022-10-28 16:49:58.687500
2967,109.14,2022-10-28 16:49:58.703125
2968,101.68,2022-10-28 16:49:58.718750
2969,92.28,2022-10-28 16:49:58.734375
2970,81.77,2022-10-28 16:49:58.750000
2971,70.82,2022-10-28 16:49:58.765625
2972,60.28,2022-10-28 16:49:58.781250
2973,51.06,2022-10-28 16:49:58.796875
2974,43.73,2022-10-28 16:49:58.812500
2975,38.2,2022-10-28 16:49:58.828125
2976,33.77,2022-10-28 16:49:58.843750
2977,29.48,2022-10-28 16:49:58.859375
2978,24.68,2022-10-28 16:49:58.875000
2979,19.35,2022-10-28 16:49:58.890625
2980,14.04,2022-10-28 16:49:58.906250
2981,9.55,2022-10-28 16:49:58.921875
2982,6.39,2022-10-28 16:49:58.937500
2983,4.45,2022-10-28 16:49:58.953125
2984,2.99,2022-10-28 16:49:58.968750
2985,1.02,2022-10-28 16:49:58.984375
2986,-2.19,2022-10-28 16:49:59.000000
2987,-6.72,2022-10-28 16:49:59.015625
2988,-11.94,2022-10-28 16:49:59.031250
2989,-16.82,2022-10-28 16:49:59.046875
2990,-20.44,2022-10-28 16:49:59.062500
2991,-22.33,2022-10-28 16:49:59.078125
2992,-22.73,2022-10-28 16:49:59.093750
2993,-22.41,2022-10-28 16:49:59.109375
2994,-22.43,2022-10-28 16:49:59.125000
2995,-23.76,2022-10-28 16:49:59.140625
2996,-27.03,2022-10-28 16:49:59.156250
2997,-32.14,2022-10-28 16:49:59.171875
2998,-38.12,2022-10-28 16:49:59.187500
2999,-43.23,2022-10-28 16:49:59.203125
3000,-45.3,2022-10-28 16:49:59.218750
3001,-42.5,2022-10-28 16:49:59.234375
3002,-34.01,2022-10-28 16:49:59.250000
3003,-20.61,2022-10-28 16:49:59.265625
3004,-4.49,2022-10-28 16:49:59.281250
3005,11.38,2022-10-28 16:49:59.296875
3006,24.21,2022-10-28 16:49:59.312500
3007,32.28,2022-10-28 16:49:59.328125
3008,35.31,2022-10-28 16:49:59.343750
3009,34.2,2022-10-28 16:49:59.359375
3010,30.46,2022-10-28 16:49:59.375000
3011,25.5,2022-10-28 16:49:59.390625
3012,20.34,2022-10-28 16:49:59.406250
3013,15.58,2022-10-28 16:49:59.421875
3014,11.58,2022-10-28 16:49:59.437500
3015,8.67,2022-10-28 16:49:59.453125
3016,7.12,2022-10-28 16:49:59.468750
3017,6.93,2022-10-28 16:49:59.484375
3018,7.78,2022-10-28 16:49:59.500000
3019,9.0,2022-10-28 16:49:59.515625
3020,9.8,2022-10-28 16:49:59.531250
3021,9.63,2022-10-28 16:49:59.546875
3022,8.41,2022-10-28 16:49:59.562500
3023,6.61,2022-10-28 16:49:59.578125
3024,5.0,2022-10-28 16:49:59.593750
3025,4.28,2022-10-28 16:49:59.609375
3026,4.68,2022-10-28 16:49:59.625000
3027,5.81,2022-10-28 16:49:59.640625
3028,6.8,2022-10-28 16:49:59.656250
3029,6.66,2022-10-28 16:49:59.671875
3030,4.81,2022-10-28 16:49:59.687500
3031,1.3,2022-10-28 16:49:59.703125
3032,-3.15,2022-10-28 16:49:59.718750
3033,-7.52,2022-10-28 16:49:59.734375
3034,-10.91,2022-10-28 16:49:59.750000
3035,-12.92,2022-10-28 16:49:59.765625
3036,-13.83,2022-10-28 16:49:59.781250
3037,-14.4,2022-10-28 16:49:59.796875
3038,-15.6,2022-10-28 16:49:59.812500
3039,-18.31,2022-10-28 16:49:59.828125
3040,-22.97,2022-10-28 16:49:59.843750
3041,-29.41,2022-10-28 16:49:59.859375
3042,-36.68,2022-10-28 16:49:59.875000
3043,-43.01,2022-10-28 16:49:59.890625
3044,-46.15,2022-10-28 16:49:59.906250
3045,-43.99,2022-10-28 16:49:59.921875
3046,-35.42,2022-10-28 16:49:59.937500
3047,-20.99,2022-10-28 16:49:59.953125
3048,-2.96,2022-10-28 16:49:59.968750
3049,15.28,2022-10-28 16:49:59.984375
3050,30.38,2022-10-28 16:50:00.000000
3051,40.12,2022-10-28 16:50:00.015625
3052,43.94,2022-10-28 16:50:00.031250
3053,42.78,2022-10-28 16:50:00.046875
3054,38.35,2022-10-28 16:50:00.062500
3055,32.28,2022-10-28 16:50:00.078125
3056,25.69,2022-10-28 16:50:00.093750
3057,19.17,2022-10-28 16:50:00.109375
3058,13.03,2022-10-28 16:50:00.125000
3059,7.58,2022-10-28 16:50:00.140625
3060,3.19,2022-10-28 16:50:00.156250
3061,0.12,2022-10-28 16:50:00.171875
3062,-1.65,2022-10-28 16:50:00.187500
3063,-2.42,2022-10-28 16:50:00.203125
3064,-2.64,2022-10-28 16:50:00.218750
3065,-2.71,2022-10-28 16:50:00.234375
3066,-2.76,2022-10-28 16:50:00.250000
3067,-2.65,2022-10-28 16:50:00.265625
3068,-2.03,2022-10-28 16:50:00.281250
3069,-0.72,2022-10-28 16:50:00.296875
3070,1.2,2022-10-28 16:50:00.312500
3071,3.3,2022-10-28 16:50:00.328125
3072,4.92,2022-10-28 16:50:00.343750
3073,5.49,2022-10-28 16:50:00.359375
3074,4.77,2022-10-28 16:50:00.375000
3075,3.07,2022-10-28 16:50:00.390625
3076,1.02,2022-10-28 16:50:00.406250
3077,-0.63,2022-10-28 16:50:00.421875
3078,-1.39,2022-10-28 16:50:00.437500
3079,-1.25,2022-10-28 16:50:00.453125
3080,-0.69,2022-10-28 16:50:00.468750
3081,-0.53,2022-10-28 16:50:00.484375
3082,-1.78,2022-10-28 16:50:00.500000
3083,-5.32,2022-10-28 16:50:00.515625
3084,-11.74,2022-10-28 16:50:00.531250
3085,-20.8,2022-10-28 16:50:00.546875
3086,-31.19,2022-10-28 16:50:00.562500
3087,-40.42,2022-10-28 16:50:00.578125
3088,-45.39,2022-10-28 16:50:00.593750
3089,-43.41,2022-10-28 16:50:00.609375
3090,-33.42,2022-10-28 16:50:00.625000
3091,-16.66,2022-10-28 16:50:00.640625
3092,3.64,2022-10-28 16:50:00.656250
3093,23.36,2022-10-28 16:50:00.671875
3094,39.01,2022-10-28 16:50:00.687500
3095,48.81,2022-10-28 16:50:00.703125
3096,52.84,2022-10-28 16:50:00.718750
3097,52.4,2022-10-28 16:50:00.734375
3098,48.99,2022-10-28 16:50:00.750000
3099,43.54,2022-10-28 16:50:00.765625
3100,36.34,2022-10-28 16:50:00.781250
3101,27.4,2022-10-28 16:50:00.796875
3102,17.05,2022-10-28 16:50:00.812500
3103,6.13,2022-10-28 16:50:00.828125
3104,-4.07,2022-10-28 16:50:00.843750
3105,-12.3,2022-10-28 16:50:00.859375
3106,-17.74,2022-10-28 16:50:00.875000
3107,-20.24,2022-10-28 16:50:00.890625
3108,-20.3,2022-10-28 16:50:00.906250
3109,-18.8,2022-10-28 16:50:00.921875
3110,-16.67,2022-10-28 16:50:00.937500
3111,-14.55,2022-10-28 16:50:00.953125
3112,-12.7,2022-10-28 16:50:00.968750
3113,-11.01,2022-10-28 16:50:00.984375
3114,-9.27,2022-10-28 16:50:01.000000
3115,-7.37,2022-10-28 16:50:01.015625
3116,-5.6,2022-10-28 16:50:01.031250
3117,-4.49,2022-10-28 16:50:01.046875
3118,-4.73,2022-10-28 16:50:01.062500
3119,-6.78,2022-10-28 16:50:01.078125
3120,-10.61,2022-10-28 16:50:01.093750
3121,-15.7,2022-10-28 16:50:01.109375
3122,-21.14,2022-10-28 16:50:01.125000
3123,-26.01,2022-10-28 16:50:01.140625
3124,-29.71,2022-10-28 16:50:01.156250
3125,-32.12,2022-10-28 16:50:01.171875
3126,-33.64,2022-10-28 16:50:01.187500
3127,-35.0,2022-10-28 16:50:01.203125
3128,-37.04,2022-10-28 16:50:01.218750
3129,-40.54,2022-10-28 16:50:01.234375
3130,-45.99,2022-10-28 16:50:01.250000
3131,-53.33,2022-10-28 16:50:01.265625
3132,-61.61,2022-10-28 16:50:01.281250
3133,-68.9,2022-10-28 16:50:01.296875
3134,-72.49,2022-10-28 16:50:01.312500
3135,-69.7,2022-10-28 16:50:01.328125
3136,-58.72,2022-10-28 16:50:01.343750
3137,-39.55,2022-10-28 16:50:01.359375
3138,-14.29,2022-10-28 16:50:01.375000
3139,13.4,2022-10-28 16:50:01.390625
3140,39.36,2022-10-28 16:50:01.406250
3141,60.1,2022-10-28 16:50:01.421875
3142,73.65,2022-10-28 16:50:01.437500
3143,79.76,2022-10-28 16:50:01.453125
3144,79.46,2022-10-28 16:50:01.468750
3145,74.41,2022-10-28 16:50:01.484375
3146,66.24,2022-10-28 16:50:01.500000
3147,56.31,2022-10-28 16:50:01.515625
3148,45.57,2022-10-28 16:50:01.531250
3149,34.78,2022-10-28 16:50:01.546875
3150,24.61,2022-10-28 16:50:01.562500
3151,15.67,2022-10-28 16:50:01.578125
