,BVP,time
0,-1022.16,2022-10-26 10:57:49.343750
1,-1060.92,2022-10-26 10:57:49.359375
2,-1079.66,2022-10-26 10:57:49.375000
3,-1082.3,2022-10-26 10:57:49.390625
4,-1071.61,2022-10-26 10:57:49.406250
5,-1045.87,2022-10-26 10:57:49.421875
6,-998.28,2022-10-26 10:57:49.437500
7,-920.1,2022-10-26 10:57:49.453125
8,-805.15,2022-10-26 10:57:49.468750
9,-653.92,2022-10-26 10:57:49.484375
10,-474.53,2022-10-26 10:57:49.500000
11,-279.19,2022-10-26 10:57:49.515625
12,-80.04,2022-10-26 10:57:49.531250
13,114.97,2022-10-26 10:57:49.546875
14,302.04,2022-10-26 10:57:49.562500
15,480.71,2022-10-26 10:57:49.578125
16,650.86,2022-10-26 10:57:49.593750
17,812.69,2022-10-26 10:57:49.609375
18,964.37,2022-10-26 10:57:49.625000
19,1102.85,2022-10-26 10:57:49.640625
20,1224.98,2022-10-26 10:57:49.656250
21,1327.01,2022-10-26 10:57:49.671875
22,1407.83,2022-10-26 10:57:49.687500
23,1467.85,2022-10-26 10:57:49.703125
24,1509.14,2022-10-26 10:57:49.718750
25,1534.75,2022-10-26 10:57:49.734375
26,1547.4,2022-10-26 10:57:49.750000
27,1548.58,2022-10-26 10:57:49.765625
28,1537.51,2022-10-26 10:57:49.781250
29,1511.01,2022-10-26 10:57:49.796875
30,1464.28,2022-10-26 10:57:49.812500
31,1393.31,2022-10-26 10:57:49.828125
32,1296.97,2022-10-26 10:57:49.843750
33,1178.26,2022-10-26 10:57:49.859375
34,1043.46,2022-10-26 10:57:49.875000
35,900.36,2022-10-26 10:57:49.890625
36,756.24,2022-10-26 10:57:49.906250
37,617.01,2022-10-26 10:57:49.921875
38,487.52,2022-10-26 10:57:49.937500
39,371.69,2022-10-26 10:57:49.953125
40,273.09,2022-10-26 10:57:49.968750
41,193.34,2022-10-26 10:57:49.984375
42,129.97,2022-10-26 10:57:50.000000
43,77.01,2022-10-26 10:57:50.015625
44,26.07,2022-10-26 10:57:50.031250
45,-29.01,2022-10-26 10:57:50.046875
46,-89.29,2022-10-26 10:57:50.062500
47,-149.8,2022-10-26 10:57:50.078125
48,-202.71,2022-10-26 10:57:50.093750
49,-241.94,2022-10-26 10:57:50.109375
50,-268.32,2022-10-26 10:57:50.125000
51,-290.03,2022-10-26 10:57:50.140625
52,-320.12,2022-10-26 10:57:50.156250
53,-370.78,2022-10-26 10:57:50.171875
54,-447.6,2022-10-26 10:57:50.187500
55,-547.59,2022-10-26 10:57:50.203125
56,-660.65,2022-10-26 10:57:50.218750
57,-774.33,2022-10-26 10:57:50.234375
58,-878.17,2022-10-26 10:57:50.250000
59,-965.9,2022-10-26 10:57:50.265625
60,-1035.14,2022-10-26 10:57:50.281250
61,-1085.64,2022-10-26 10:57:50.296875
62,-1117.95,2022-10-26 10:57:50.312500
63,-1132.76,2022-10-26 10:57:50.328125
64,-1131.6,2022-10-26 10:57:50.343750
65,-1116.51,2022-10-26 10:57:50.359375
66,-1089.13,2022-10-26 10:57:50.375000
67,-1049.8,2022-10-26 10:57:50.390625
68,-996.22,2022-10-26 10:57:50.406250
69,-922.97,2022-10-26 10:57:50.421875
70,-823.01,2022-10-26 10:57:50.437500
71,-689.99,2022-10-26 10:57:50.453125
72,-522.55,2022-10-26 10:57:50.468750
73,-326.42,2022-10-26 10:57:50.484375
74,-115.33,2022-10-26 10:57:50.500000
75,92.86,2022-10-26 10:57:50.515625
76,280.7,2022-10-26 10:57:50.531250
77,435.84,2022-10-26 10:57:50.546875
78,553.34,2022-10-26 10:57:50.562500
79,634.6,2022-10-26 10:57:50.578125
80,683.76,2022-10-26 10:57:50.593750
81,704.67,2022-10-26 10:57:50.609375
82,698.24,2022-10-26 10:57:50.625000
83,663.85,2022-10-26 10:57:50.640625
84,601.27,2022-10-26 10:57:50.656250
85,513.11,2022-10-26 10:57:50.671875
86,405.57,2022-10-26 10:57:50.687500
87,286.76,2022-10-26 10:57:50.703125
88,164.13,2022-10-26 10:57:50.718750
89,42.25,2022-10-26 10:57:50.734375
90,-77.69,2022-10-26 10:57:50.750000
91,-196.99,2022-10-26 10:57:50.765625
92,-316.65,2022-10-26 10:57:50.781250
93,-435.05,2022-10-26 10:57:50.796875
94,-547.01,2022-10-26 10:57:50.812500
95,-644.92,2022-10-26 10:57:50.828125
96,-721.2,2022-10-26 10:57:50.843750
97,-771.87,2022-10-26 10:57:50.859375
98,-795.72,2022-10-26 10:57:50.875000
99,-793.03,2022-10-26 10:57:50.890625
100,-762.62,2022-10-26 10:57:50.906250
101,-700.41,2022-10-26 10:57:50.921875
102,-602.38,2022-10-26 10:57:50.937500
103,-467.36,2022-10-26 10:57:50.953125
104,-300.32,2022-10-26 10:57:50.968750
105,-111.18,2022-10-26 10:57:50.984375
106,87.9,2022-10-26 10:57:51.000000
107,287.56,2022-10-26 10:57:51.015625
108,482.98,2022-10-26 10:57:51.031250
109,671.62,2022-10-26 10:57:51.046875
110,849.98,2022-10-26 10:57:51.062500
111,1009.54,2022-10-26 10:57:51.078125
112,1137.51,2022-10-26 10:57:51.093750
113,1221.39,2022-10-26 10:57:51.109375
114,1254.75,2022-10-26 10:57:51.125000
115,1239.04,2022-10-26 10:57:51.140625
116,1183.69,2022-10-26 10:57:51.156250
117,1101.05,2022-10-26 10:57:51.171875
118,1001.73,2022-10-26 10:57:51.187500
119,891.63,2022-10-26 10:57:51.203125
120,772.23,2022-10-26 10:57:51.218750
121,642.89,2022-10-26 10:57:51.234375
122,505.53,2022-10-26 10:57:51.250000
123,365.39,2022-10-26 10:57:51.265625
124,229.95,2022-10-26 10:57:51.281250
125,106.91,2022-10-26 10:57:51.296875
126,0.96,2022-10-26 10:57:51.312500
127,-87.8,2022-10-26 10:57:51.328125
128,-161.97,2022-10-26 10:57:51.343750
129,-225.75,2022-10-26 10:57:51.359375
130,-281.97,2022-10-26 10:57:51.375000
131,-331.28,2022-10-26 10:57:51.390625
132,-372.66,2022-10-26 10:57:51.406250
133,-404.93,2022-10-26 10:57:51.421875
134,-427.71,2022-10-26 10:57:51.437500
135,-441.89,2022-10-26 10:57:51.453125
136,-448.47,2022-10-26 10:57:51.468750
137,-446.77,2022-10-26 10:57:51.484375
138,-434.02,2022-10-26 10:57:51.500000
139,-406.68,2022-10-26 10:57:51.515625
140,-362.85,2022-10-26 10:57:51.531250
141,-305.4,2022-10-26 10:57:51.546875
142,-242.57,2022-10-26 10:57:51.562500
143,-186.37,2022-10-26 10:57:51.578125
144,-148.58,2022-10-26 10:57:51.593750
145,-135.93,2022-10-26 10:57:51.609375
146,-147.29,2022-10-26 10:57:51.625000
147,-173.28,2022-10-26 10:57:51.640625
148,-200.19,2022-10-26 10:57:51.656250
149,-215.11,2022-10-26 10:57:51.671875
150,-210.29,2022-10-26 10:57:51.687500
151,-185.36,2022-10-26 10:57:51.703125
152,-145.8,2022-10-26 10:57:51.718750
153,-99.95,2022-10-26 10:57:51.734375
154,-55.38,2022-10-26 10:57:51.750000
155,-16.52,2022-10-26 10:57:51.765625
156,15.82,2022-10-26 10:57:51.781250
157,43.23,2022-10-26 10:57:51.796875
158,68.15,2022-10-26 10:57:51.812500
159,92.12,2022-10-26 10:57:51.828125
160,115.65,2022-10-26 10:57:51.843750
161,137.52,2022-10-26 10:57:51.859375
162,156.12,2022-10-26 10:57:51.875000
163,170.37,2022-10-26 10:57:51.890625
164,180.07,2022-10-26 10:57:51.906250
165,186.71,2022-10-26 10:57:51.921875
166,192.19,2022-10-26 10:57:51.937500
167,198.47,2022-10-26 10:57:51.953125
168,206.96,2022-10-26 10:57:51.968750
169,217.45,2022-10-26 10:57:51.984375
170,227.87,2022-10-26 10:57:52.000000
171,233.91,2022-10-26 10:57:52.015625
172,229.72,2022-10-26 10:57:52.031250
173,208.86,2022-10-26 10:57:52.046875
174,165.92,2022-10-26 10:57:52.062500
175,98.87,2022-10-26 10:57:52.078125
176,10.9,2022-10-26 10:57:52.093750
177,-89.8,2022-10-26 10:57:52.109375
178,-192.37,2022-10-26 10:57:52.125000
179,-287.34,2022-10-26 10:57:52.140625
180,-369.92,2022-10-26 10:57:52.156250
181,-440.55,2022-10-26 10:57:52.171875
182,-503.12,2022-10-26 10:57:52.187500
183,-560.79,2022-10-26 10:57:52.203125
184,-613.38,2022-10-26 10:57:52.218750
185,-657.28,2022-10-26 10:57:52.234375
186,-688.09,2022-10-26 10:57:52.250000
187,-703.15,2022-10-26 10:57:52.265625
188,-702.61,2022-10-26 10:57:52.281250
189,-687.71,2022-10-26 10:57:52.296875
190,-658.64,2022-10-26 10:57:52.312500
191,-614.33,2022-10-26 10:57:52.328125
192,-553.63,2022-10-26 10:57:52.343750
193,-478.23,2022-10-26 10:57:52.359375
194,-394.44,2022-10-26 10:57:52.375000
195,-310.77,2022-10-26 10:57:52.390625
196,-235.19,2022-10-26 10:57:52.406250
197,-170.83,2022-10-26 10:57:52.421875
198,-116.44,2022-10-26 10:57:52.437500
199,-69.27,2022-10-26 10:57:52.453125
200,-28.09,2022-10-26 10:57:52.468750
201,4.47,2022-10-26 10:57:52.484375
202,24.03,2022-10-26 10:57:52.500000
203,27.81,2022-10-26 10:57:52.515625
204,17.11,2022-10-26 10:57:52.531250
205,-2.05,2022-10-26 10:57:52.546875
206,-21.4,2022-10-26 10:57:52.562500
207,-33.53,2022-10-26 10:57:52.578125
208,-33.75,2022-10-26 10:57:52.593750
209,-20.47,2022-10-26 10:57:52.609375
210,6.27,2022-10-26 10:57:52.625000
211,44.84,2022-10-26 10:57:52.640625
212,92.76,2022-10-26 10:57:52.656250
213,147.52,2022-10-26 10:57:52.671875
214,206.92,2022-10-26 10:57:52.687500
215,269.62,2022-10-26 10:57:52.703125
216,334.45,2022-10-26 10:57:52.718750
217,399.11,2022-10-26 10:57:52.734375
218,458.34,2022-10-26 10:57:52.750000
219,504.64,2022-10-26 10:57:52.765625
220,530.5,2022-10-26 10:57:52.781250
221,532.54,2022-10-26 10:57:52.796875
222,514.16,2022-10-26 10:57:52.812500
223,484.94,2022-10-26 10:57:52.828125
224,456.89,2022-10-26 10:57:52.843750
225,438.59,2022-10-26 10:57:52.859375
226,430.14,2022-10-26 10:57:52.875000
227,423.64,2022-10-26 10:57:52.890625
228,408.17,2022-10-26 10:57:52.906250
229,376.56,2022-10-26 10:57:52.921875
230,330.34,2022-10-26 10:57:52.937500
231,277.94,2022-10-26 10:57:52.953125
232,229.08,2022-10-26 10:57:52.968750
233,188.13,2022-10-26 10:57:52.984375
234,152.09,2022-10-26 10:57:53.000000
235,114.21,2022-10-26 10:57:53.015625
236,69.77,2022-10-26 10:57:53.031250
237,21.28,2022-10-26 10:57:53.046875
238,-21.96,2022-10-26 10:57:53.062500
239,-48.65,2022-10-26 10:57:53.078125
240,-51.61,2022-10-26 10:57:53.093750
241,-31.79,2022-10-26 10:57:53.109375
242,2.63,2022-10-26 10:57:53.125000
243,40.14,2022-10-26 10:57:53.140625
244,71.47,2022-10-26 10:57:53.156250
245,91.59,2022-10-26 10:57:53.171875
246,99.52,2022-10-26 10:57:53.187500
247,95.36,2022-10-26 10:57:53.203125
248,77.88,2022-10-26 10:57:53.218750
249,44.14,2022-10-26 10:57:53.234375
250,-9.47,2022-10-26 10:57:53.250000
251,-84.49,2022-10-26 10:57:53.265625
252,-178.21,2022-10-26 10:57:53.281250
253,-282.44,2022-10-26 10:57:53.296875
254,-384.2,2022-10-26 10:57:53.312500
255,-469.39,2022-10-26 10:57:53.328125
256,-527.88,2022-10-26 10:57:53.343750
257,-556.74,2022-10-26 10:57:53.359375
258,-560.84,2022-10-26 10:57:53.375000
259,-550.18,2022-10-26 10:57:53.390625
260,-534.06,2022-10-26 10:57:53.406250
261,-517.19,2022-10-26 10:57:53.421875
262,-497.67,2022-10-26 10:57:53.437500
263,-469.54,2022-10-26 10:57:53.453125
264,-427.72,2022-10-26 10:57:53.468750
265,-372.08,2022-10-26 10:57:53.484375
266,-310.33,2022-10-26 10:57:53.500000
267,-254.49,2022-10-26 10:57:53.515625
268,-215.5,2022-10-26 10:57:53.531250
269,-196.97,2022-10-26 10:57:53.546875
270,-192.89,2022-10-26 10:57:53.562500
271,-191.11,2022-10-26 10:57:53.578125
272,-179.7,2022-10-26 10:57:53.593750
273,-152.21,2022-10-26 10:57:53.609375
274,-109.21,2022-10-26 10:57:53.625000
275,-55.58,2022-10-26 10:57:53.640625
276,3.83,2022-10-26 10:57:53.656250
277,67.22,2022-10-26 10:57:53.671875
278,135.78,2022-10-26 10:57:53.687500
279,210.07,2022-10-26 10:57:53.703125
280,287.8,2022-10-26 10:57:53.718750
281,363.32,2022-10-26 10:57:53.734375
282,430.06,2022-10-26 10:57:53.750000
283,484.19,2022-10-26 10:57:53.765625
284,527.19,2022-10-26 10:57:53.781250
285,563.86,2022-10-26 10:57:53.796875
286,599.52,2022-10-26 10:57:53.812500
287,636.22,2022-10-26 10:57:53.828125
288,670.36,2022-10-26 10:57:53.843750
289,693.76,2022-10-26 10:57:53.859375
290,696.17,2022-10-26 10:57:53.875000
291,669.63,2022-10-26 10:57:53.890625
292,611.97,2022-10-26 10:57:53.906250
293,528.42,2022-10-26 10:57:53.921875
294,430.8,2022-10-26 10:57:53.937500
295,333.01,2022-10-26 10:57:53.953125
296,245.07,2022-10-26 10:57:53.968750
297,169.63,2022-10-26 10:57:53.984375
298,102.17,2022-10-26 10:57:54.000000
299,34.83,2022-10-26 10:57:54.015625
300,-37.45,2022-10-26 10:57:54.031250
301,-112.95,2022-10-26 10:57:54.046875
302,-183.37,2022-10-26 10:57:54.062500
303,-238.35,2022-10-26 10:57:54.078125
304,-272.19,2022-10-26 10:57:54.093750
305,-286.91,2022-10-26 10:57:54.109375
306,-291.6,2022-10-26 10:57:54.125000
307,-296.62,2022-10-26 10:57:54.140625
308,-307.81,2022-10-26 10:57:54.156250
309,-324.08,2022-10-26 10:57:54.171875
310,-338.18,2022-10-26 10:57:54.187500
311,-341.69,2022-10-26 10:57:54.203125
312,-329.44,2022-10-26 10:57:54.218750
313,-301.79,2022-10-26 10:57:54.234375
314,-263.99,2022-10-26 10:57:54.250000
315,-223.71,2022-10-26 10:57:54.265625
316,-188.79,2022-10-26 10:57:54.281250
317,-165.2,2022-10-26 10:57:54.296875
318,-155.69,2022-10-26 10:57:54.312500
319,-158.83,2022-10-26 10:57:54.328125
320,-169.35,2022-10-26 10:57:54.343750
321,-178.66,2022-10-26 10:57:54.359375
322,-177.96,2022-10-26 10:57:54.375000
323,-162.53,2022-10-26 10:57:54.390625
324,-134.62,2022-10-26 10:57:54.406250
325,-102.08,2022-10-26 10:57:54.421875
326,-74.06,2022-10-26 10:57:54.437500
327,-55.53,2022-10-26 10:57:54.453125
328,-43.74,2022-10-26 10:57:54.468750
329,-30.27,2022-10-26 10:57:54.484375
330,-5.44,2022-10-26 10:57:54.500000
331,35.06,2022-10-26 10:57:54.515625
332,88.49,2022-10-26 10:57:54.531250
333,146.73,2022-10-26 10:57:54.546875
334,201.4,2022-10-26 10:57:54.562500
335,249.28,2022-10-26 10:57:54.578125
336,292.84,2022-10-26 10:57:54.593750
337,338.17,2022-10-26 10:57:54.609375
338,389.6,2022-10-26 10:57:54.625000
339,446.08,2022-10-26 10:57:54.640625
340,501.19,2022-10-26 10:57:54.656250
341,546.05,2022-10-26 10:57:54.671875
342,573.62,2022-10-26 10:57:54.687500
343,580.59,2022-10-26 10:57:54.703125
344,567.29,2022-10-26 10:57:54.718750
345,535.4,2022-10-26 10:57:54.734375
346,485.79,2022-10-26 10:57:54.750000
347,418.5,2022-10-26 10:57:54.765625
348,335.1,2022-10-26 10:57:54.781250
349,240.44,2022-10-26 10:57:54.796875
350,142.23,2022-10-26 10:57:54.812500
351,48.96,2022-10-26 10:57:54.828125
352,-33.99,2022-10-26 10:57:54.843750
353,-106.18,2022-10-26 10:57:54.859375
354,-170.7,2022-10-26 10:57:54.875000
355,-230.74,2022-10-26 10:57:54.890625
356,-287.63,2022-10-26 10:57:54.906250
357,-338.84,2022-10-26 10:57:54.921875
358,-379.54,2022-10-26 10:57:54.937500
359,-405.79,2022-10-26 10:57:54.953125
360,-416.08,2022-10-26 10:57:54.968750
361,-412.29,2022-10-26 10:57:54.984375
362,-397.83,2022-10-26 10:57:55.000000
363,-376.52,2022-10-26 10:57:55.015625
364,-351.33,2022-10-26 10:57:55.031250
365,-324.76,2022-10-26 10:57:55.046875
366,-299.19,2022-10-26 10:57:55.062500
367,-277.19,2022-10-26 10:57:55.078125
368,-261.62,2022-10-26 10:57:55.093750
369,-254.04,2022-10-26 10:57:55.109375
370,-254.67,2022-10-26 10:57:55.125000
371,-261.29,2022-10-26 10:57:55.140625
372,-269.82,2022-10-26 10:57:55.156250
373,-275.08,2022-10-26 10:57:55.171875
374,-271.96,2022-10-26 10:57:55.187500
375,-257.36,2022-10-26 10:57:55.203125
376,-231.64,2022-10-26 10:57:55.218750
377,-198.45,2022-10-26 10:57:55.234375
378,-162.38,2022-10-26 10:57:55.250000
379,-127.68,2022-10-26 10:57:55.265625
380,-95.81,2022-10-26 10:57:55.281250
381,-64.93,2022-10-26 10:57:55.296875
382,-30.17,2022-10-26 10:57:55.312500
383,15.46,2022-10-26 10:57:55.328125
384,78.17,2022-10-26 10:57:55.343750
385,161.38,2022-10-26 10:57:55.359375
386,263.82,2022-10-26 10:57:55.375000
387,379.51,2022-10-26 10:57:55.390625
388,498.67,2022-10-26 10:57:55.406250
389,610.43,2022-10-26 10:57:55.421875
390,704.78,2022-10-26 10:57:55.437500
391,774.08,2022-10-26 10:57:55.453125
392,813.98,2022-10-26 10:57:55.468750
393,823.12,2022-10-26 10:57:55.484375
394,804.1,2022-10-26 10:57:55.500000
395,762.44,2022-10-26 10:57:55.515625
396,705.62,2022-10-26 10:57:55.531250
397,641.48,2022-10-26 10:57:55.546875
398,575.47,2022-10-26 10:57:55.562500
399,510.4,2022-10-26 10:57:55.578125
400,446.03,2022-10-26 10:57:55.593750
401,381.04,2022-10-26 10:57:55.609375
402,314.41,2022-10-26 10:57:55.625000
403,245.64,2022-10-26 10:57:55.640625
404,174.7,2022-10-26 10:57:55.656250
405,100.23,2022-10-26 10:57:55.671875
406,20.76,2022-10-26 10:57:55.687500
407,-63.77,2022-10-26 10:57:55.703125
408,-150.66,2022-10-26 10:57:55.718750
409,-234.32,2022-10-26 10:57:55.734375
410,-308.42,2022-10-26 10:57:55.750000
411,-368.72,2022-10-26 10:57:55.765625
412,-415.21,2022-10-26 10:57:55.781250
413,-451.87,2022-10-26 10:57:55.796875
414,-484.11,2022-10-26 10:57:55.812500
415,-515.96,2022-10-26 10:57:55.828125
416,-548.14,2022-10-26 10:57:55.843750
417,-577.24,2022-10-26 10:57:55.859375
418,-597.43,2022-10-26 10:57:55.875000
419,-603.22,2022-10-26 10:57:55.890625
420,-592.25,2022-10-26 10:57:55.906250
421,-566.69,2022-10-26 10:57:55.921875
422,-532.53,2022-10-26 10:57:55.937500
423,-497.31,2022-10-26 10:57:55.953125
424,-466.74,2022-10-26 10:57:55.968750
425,-442.86,2022-10-26 10:57:55.984375
426,-422.94,2022-10-26 10:57:56.000000
427,-401.75,2022-10-26 10:57:56.015625
428,-374.74,2022-10-26 10:57:56.031250
429,-338.9,2022-10-26 10:57:56.046875
430,-294.94,2022-10-26 10:57:56.062500
431,-245.89,2022-10-26 10:57:56.078125
432,-195.77,2022-10-26 10:57:56.093750
433,-149.18,2022-10-26 10:57:56.109375
434,-110.1,2022-10-26 10:57:56.125000
435,-81.8,2022-10-26 10:57:56.140625
436,-64.64,2022-10-26 10:57:56.156250
437,-55.56,2022-10-26 10:57:56.171875
438,-48.2,2022-10-26 10:57:56.187500
439,-35.52,2022-10-26 10:57:56.203125
440,-14.21,2022-10-26 10:57:56.218750
441,13.04,2022-10-26 10:57:56.234375
442,39.15,2022-10-26 10:57:56.250000
443,57.48,2022-10-26 10:57:56.265625
444,67.3,2022-10-26 10:57:56.281250
445,75.37,2022-10-26 10:57:56.296875
446,91.87,2022-10-26 10:57:56.312500
447,124.93,2022-10-26 10:57:56.328125
448,173.85,2022-10-26 10:57:56.343750
449,230.77,2022-10-26 10:57:56.359375
450,284.89,2022-10-26 10:57:56.375000
451,329.21,2022-10-26 10:57:56.390625
452,365.49,2022-10-26 10:57:56.406250
453,401.29,2022-10-26 10:57:56.421875
454,444.94,2022-10-26 10:57:56.437500
455,499.32,2022-10-26 10:57:56.453125
456,559.21,2022-10-26 10:57:56.468750
457,613.63,2022-10-26 10:57:56.484375
458,650.28,2022-10-26 10:57:56.500000
459,660.46,2022-10-26 10:57:56.515625
460,641.24,2022-10-26 10:57:56.531250
461,595.69,2022-10-26 10:57:56.546875
462,531.44,2022-10-26 10:57:56.562500
463,457.57,2022-10-26 10:57:56.578125
464,380.83,2022-10-26 10:57:56.593750
465,303.12,2022-10-26 10:57:56.609375
466,220.53,2022-10-26 10:57:56.625000
467,126.74,2022-10-26 10:57:56.640625
468,18.62,2022-10-26 10:57:56.656250
469,-99.69,2022-10-26 10:57:56.671875
470,-216.58,2022-10-26 10:57:56.687500
471,-317.96,2022-10-26 10:57:56.703125
472,-393.53,2022-10-26 10:57:56.718750
473,-442.27,2022-10-26 10:57:56.734375
474,-471.06,2022-10-26 10:57:56.750000
475,-490.83,2022-10-26 10:57:56.765625
476,-509.69,2022-10-26 10:57:56.781250
477,-528.99,2022-10-26 10:57:56.796875
478,-544.63,2022-10-26 10:57:56.812500
479,-549.35,2022-10-26 10:57:56.828125
480,-537.67,2022-10-26 10:57:56.843750
481,-507.68,2022-10-26 10:57:56.859375
482,-461.1,2022-10-26 10:57:56.875000
483,-402.54,2022-10-26 10:57:56.890625
484,-337.75,2022-10-26 10:57:56.906250
485,-272.35,2022-10-26 10:57:56.921875
486,-210.51,2022-10-26 10:57:56.937500
487,-154.15,2022-10-26 10:57:56.953125
488,-103.52,2022-10-26 10:57:56.968750
489,-58.46,2022-10-26 10:57:56.984375
490,-19.34,2022-10-26 10:57:57.000000
491,12.54,2022-10-26 10:57:57.015625
492,37.07,2022-10-26 10:57:57.031250
493,56.52,2022-10-26 10:57:57.046875
494,76.45,2022-10-26 10:57:57.062500
495,102.49,2022-10-26 10:57:57.078125
496,135.7,2022-10-26 10:57:57.093750
497,170.64,2022-10-26 10:57:57.109375
498,195.95,2022-10-26 10:57:57.125000
499,199.79,2022-10-26 10:57:57.140625
500,176.54,2022-10-26 10:57:57.156250
501,130.17,2022-10-26 10:57:57.171875
502,73.36,2022-10-26 10:57:57.187500
503,21.39,2022-10-26 10:57:57.203125
504,-14.35,2022-10-26 10:57:57.218750
505,-31.19,2022-10-26 10:57:57.234375
506,-34.39,2022-10-26 10:57:57.250000
507,-33.51,2022-10-26 10:57:57.265625
508,-35.89,2022-10-26 10:57:57.281250
509,-42.79,2022-10-26 10:57:57.296875
510,-49.02,2022-10-26 10:57:57.312500
511,-47.1,2022-10-26 10:57:57.328125
512,-33.05,2022-10-26 10:57:57.343750
513,-10.26,2022-10-26 10:57:57.359375
514,10.73,2022-10-26 10:57:57.375000
515,17.39,2022-10-26 10:57:57.390625
516,0.6,2022-10-26 10:57:57.406250
517,-40.81,2022-10-26 10:57:57.421875
518,-99.87,2022-10-26 10:57:57.437500
519,-164.73,2022-10-26 10:57:57.453125
520,-223.83,2022-10-26 10:57:57.468750
521,-270.26,2022-10-26 10:57:57.484375
522,-302.61,2022-10-26 10:57:57.500000
523,-322.49,2022-10-26 10:57:57.515625
524,-330.7,2022-10-26 10:57:57.531250
525,-325.93,2022-10-26 10:57:57.546875
526,-304.61,2022-10-26 10:57:57.562500
527,-263.05,2022-10-26 10:57:57.578125
528,-200.29,2022-10-26 10:57:57.593750
529,-119.33,2022-10-26 10:57:57.609375
530,-26.78,2022-10-26 10:57:57.625000
531,69.23,2022-10-26 10:57:57.640625
532,161.26,2022-10-26 10:57:57.656250
533,244.43,2022-10-26 10:57:57.671875
534,317.11,2022-10-26 10:57:57.687500
535,379.08,2022-10-26 10:57:57.703125
536,428.4,2022-10-26 10:57:57.718750
537,460.02,2022-10-26 10:57:57.734375
538,467.38,2022-10-26 10:57:57.750000
539,446.08,2022-10-26 10:57:57.765625
540,398.05,2022-10-26 10:57:57.781250
541,333.52,2022-10-26 10:57:57.796875
542,268.52,2022-10-26 10:57:57.812500
543,219.12,2022-10-26 10:57:57.828125
544,194.78,2022-10-26 10:57:57.843750
545,195.08,2022-10-26 10:57:57.859375
546,210.0,2022-10-26 10:57:57.875000
547,224.13,2022-10-26 10:57:57.890625
548,222.56,2022-10-26 10:57:57.906250
549,196.43,2022-10-26 10:57:57.921875
550,145.08,2022-10-26 10:57:57.937500
551,75.43,2022-10-26 10:57:57.953125
552,-1.18,2022-10-26 10:57:57.968750
553,-72.38,2022-10-26 10:57:57.984375
554,-129.56,2022-10-26 10:57:58.000000
555,-169.61,2022-10-26 10:57:58.015625
556,-195.06,2022-10-26 10:57:58.031250
557,-210.85,2022-10-26 10:57:58.046875
558,-222.07,2022-10-26 10:57:58.062500
559,-231.73,2022-10-26 10:57:58.078125
560,-239.92,2022-10-26 10:57:58.093750
561,-245.75,2022-10-26 10:57:58.109375
562,-248.05,2022-10-26 10:57:58.125000
563,-245.17,2022-10-26 10:57:58.140625
564,-234.1,2022-10-26 10:57:58.156250
565,-210.95,2022-10-26 10:57:58.171875
566,-172.77,2022-10-26 10:57:58.187500
567,-120.0,2022-10-26 10:57:58.203125
568,-58.64,2022-10-26 10:57:58.218750
569,0.78,2022-10-26 10:57:58.234375
570,48.07,2022-10-26 10:57:58.250000
571,78.81,2022-10-26 10:57:58.265625
572,96.07,2022-10-26 10:57:58.281250
573,108.88,2022-10-26 10:57:58.296875
574,126.79,2022-10-26 10:57:58.312500
575,155.21,2022-10-26 10:57:58.328125
576,192.78,2022-10-26 10:57:58.343750
577,232.13,2022-10-26 10:57:58.359375
578,263.47,2022-10-26 10:57:58.375000
579,277.91,2022-10-26 10:57:58.390625
580,270.19,2022-10-26 10:57:58.406250
581,240.61,2022-10-26 10:57:58.421875
582,194.44,2022-10-26 10:57:58.437500
583,140.76,2022-10-26 10:57:58.453125
584,89.23,2022-10-26 10:57:58.468750
585,47.57,2022-10-26 10:57:58.484375
586,18.53,2022-10-26 10:57:58.500000
587,0.35,2022-10-26 10:57:58.515625
588,-12.66,2022-10-26 10:57:58.531250
589,-27.18,2022-10-26 10:57:58.546875
590,-49.21,2022-10-26 10:57:58.562500
591,-83.09,2022-10-26 10:57:58.578125
592,-131.01,2022-10-26 10:57:58.593750
593,-193.02,2022-10-26 10:57:58.609375
594,-265.63,2022-10-26 10:57:58.625000
595,-340.08,2022-10-26 10:57:58.640625
596,-402.61,2022-10-26 10:57:58.656250
597,-436.3,2022-10-26 10:57:58.671875
598,-426.89,2022-10-26 10:57:58.687500
599,-368.5,2022-10-26 10:57:58.703125
600,-265.99,2022-10-26 10:57:58.718750
601,-133.72,2022-10-26 10:57:58.734375
602,9.2,2022-10-26 10:57:58.750000
603,146.18,2022-10-26 10:57:58.765625
604,266.74,2022-10-26 10:57:58.781250
605,367.52,2022-10-26 10:57:58.796875
606,449.37,2022-10-26 10:57:58.812500
607,512.42,2022-10-26 10:57:58.828125
608,554.49,2022-10-26 10:57:58.843750
609,571.5,2022-10-26 10:57:58.859375
610,561.18,2022-10-26 10:57:58.875000
611,526.4,2022-10-26 10:57:58.890625
612,475.2,2022-10-26 10:57:58.906250
613,418.64,2022-10-26 10:57:58.921875
614,365.88,2022-10-26 10:57:58.937500
615,321.24,2022-10-26 10:57:58.953125
616,284.18,2022-10-26 10:57:58.968750
617,253.04,2022-10-26 10:57:58.984375
618,228.2,2022-10-26 10:57:59.000000
619,212.38,2022-10-26 10:57:59.015625
620,207.57,2022-10-26 10:57:59.031250
621,211.46,2022-10-26 10:57:59.046875
622,215.2,2022-10-26 10:57:59.062500
623,206.51,2022-10-26 10:57:59.078125
624,175.91,2022-10-26 10:57:59.093750
625,122.4,2022-10-26 10:57:59.109375
626,54.42,2022-10-26 10:57:59.125000
627,-13.88,2022-10-26 10:57:59.140625
628,-70.82,2022-10-26 10:57:59.156250
629,-111.18,2022-10-26 10:57:59.171875
630,-137.27,2022-10-26 10:57:59.187500
631,-155.09,2022-10-26 10:57:59.203125
632,-169.47,2022-10-26 10:57:59.218750
633,-182.21,2022-10-26 10:57:59.234375
634,-192.6,2022-10-26 10:57:59.250000
635,-199.23,2022-10-26 10:57:59.265625
636,-201.04,2022-10-26 10:57:59.281250
637,-196.68,2022-10-26 10:57:59.296875
638,-183.33,2022-10-26 10:57:59.312500
639,-158.45,2022-10-26 10:57:59.328125
640,-122.07,2022-10-26 10:57:59.343750
641,-78.95,2022-10-26 10:57:59.359375
642,-37.51,2022-10-26 10:57:59.375000
643,-6.22,2022-10-26 10:57:59.390625
644,10.72,2022-10-26 10:57:59.406250
645,15.2,2022-10-26 10:57:59.421875
646,13.17,2022-10-26 10:57:59.437500
647,11.78,2022-10-26 10:57:59.453125
648,15.55,2022-10-26 10:57:59.468750
649,26.37,2022-10-26 10:57:59.484375
650,44.76,2022-10-26 10:57:59.500000
651,71.41,2022-10-26 10:57:59.515625
652,107.98,2022-10-26 10:57:59.531250
653,155.74,2022-10-26 10:57:59.546875
654,214.18,2022-10-26 10:57:59.562500
655,280.38,2022-10-26 10:57:59.578125
656,349.45,2022-10-26 10:57:59.593750
657,415.53,2022-10-26 10:57:59.609375
658,472.12,2022-10-26 10:57:59.625000
659,513.34,2022-10-26 10:57:59.640625
660,534.25,2022-10-26 10:57:59.656250
661,532.54,2022-10-26 10:57:59.671875
662,509.13,2022-10-26 10:57:59.687500
663,468.86,2022-10-26 10:57:59.703125
664,419.43,2022-10-26 10:57:59.718750
665,367.94,2022-10-26 10:57:59.734375
666,318.19,2022-10-26 10:57:59.750000
667,267.54,2022-10-26 10:57:59.765625
668,208.04,2022-10-26 10:57:59.781250
669,129.06,2022-10-26 10:57:59.796875
670,22.4,2022-10-26 10:57:59.812500
671,-112.53,2022-10-26 10:57:59.828125
672,-266.45,2022-10-26 10:57:59.843750
673,-422.93,2022-10-26 10:57:59.859375
674,-563.69,2022-10-26 10:57:59.875000
675,-676.37,2022-10-26 10:57:59.890625
676,-758.09,2022-10-26 10:57:59.906250
677,-814.8,2022-10-26 10:57:59.921875
678,-856.2,2022-10-26 10:57:59.937500
679,-890.31,2022-10-26 10:57:59.953125
680,-920.09,2022-10-26 10:57:59.968750
681,-943.09,2022-10-26 10:57:59.984375
682,-953.86,2022-10-26 10:58:00.000000
683,-947.56,2022-10-26 10:58:00.015625
684,-921.26,2022-10-26 10:58:00.031250
685,-874.65,2022-10-26 10:58:00.046875
686,-809.82,2022-10-26 10:58:00.062500
687,-731.65,2022-10-26 10:58:00.078125
688,-647.29,2022-10-26 10:58:00.093750
689,-565.43,2022-10-26 10:58:00.109375
690,-494.68,2022-10-26 10:58:00.125000
691,-441.29,2022-10-26 10:58:00.140625
692,-407.52,2022-10-26 10:58:00.156250
693,-391.33,2022-10-26 10:58:00.171875
694,-388.27,2022-10-26 10:58:00.187500
695,-393.89,2022-10-26 10:58:00.203125
696,-404.85,2022-10-26 10:58:00.218750
697,-418.74,2022-10-26 10:58:00.234375
698,-432.05,2022-10-26 10:58:00.250000
699,-439.55,2022-10-26 10:58:00.265625
700,-433.51,2022-10-26 10:58:00.281250
701,-406.67,2022-10-26 10:58:00.296875
702,-355.15,2022-10-26 10:58:00.312500
703,-280.5,2022-10-26 10:58:00.328125
704,-189.28,2022-10-26 10:58:00.343750
705,-90.8,2022-10-26 10:58:00.359375
706,6.16,2022-10-26 10:58:00.375000
707,95.61,2022-10-26 10:58:00.390625
708,174.54,2022-10-26 10:58:00.406250
709,241.17,2022-10-26 10:58:00.421875
710,294.59,2022-10-26 10:58:00.437500
711,334.07,2022-10-26 10:58:00.453125
712,360.03,2022-10-26 10:58:00.468750
713,374.3,2022-10-26 10:58:00.484375
714,379.89,2022-10-26 10:58:00.500000
715,380.36,2022-10-26 10:58:00.515625
716,378.5,2022-10-26 10:58:00.531250
717,375.87,2022-10-26 10:58:00.546875
718,373.98,2022-10-26 10:58:00.562500
719,374.19,2022-10-26 10:58:00.578125
720,378.19,2022-10-26 10:58:00.593750
721,386.23,2022-10-26 10:58:00.609375
722,395.98,2022-10-26 10:58:00.625000
723,401.55,2022-10-26 10:58:00.640625
724,395.8,2022-10-26 10:58:00.656250
725,373.05,2022-10-26 10:58:00.671875
726,332.57,2022-10-26 10:58:00.687500
727,279.07,2022-10-26 10:58:00.703125
728,221.17,2022-10-26 10:58:00.718750
729,168.43,2022-10-26 10:58:00.734375
730,127.46,2022-10-26 10:58:00.750000
731,99.98,2022-10-26 10:58:00.765625
732,83.44,2022-10-26 10:58:00.781250
733,72.85,2022-10-26 10:58:00.796875
734,63.88,2022-10-26 10:58:00.812500
735,55.14,2022-10-26 10:58:00.828125
736,48.6,2022-10-26 10:58:00.843750
737,48.15,2022-10-26 10:58:00.859375
738,57.5,2022-10-26 10:58:00.875000
739,78.37,2022-10-26 10:58:00.890625
740,109.33,2022-10-26 10:58:00.906250
741,145.79,2022-10-26 10:58:00.921875
742,181.35,2022-10-26 10:58:00.937500
743,208.79,2022-10-26 10:58:00.953125
744,221.45,2022-10-26 10:58:00.968750
745,214.87,2022-10-26 10:58:00.984375
746,187.22,2022-10-26 10:58:01.000000
747,140.41,2022-10-26 10:58:01.015625
748,79.08,2022-10-26 10:58:01.031250
749,10.23,2022-10-26 10:58:01.046875
750,-57.68,2022-10-26 10:58:01.062500
751,-116.7,2022-10-26 10:58:01.078125
752,-160.93,2022-10-26 10:58:01.093750
753,-187.54,2022-10-26 10:58:01.109375
754,-196.91,2022-10-26 10:58:01.125000
755,-192.42,2022-10-26 10:58:01.140625
756,-178.94,2022-10-26 10:58:01.156250
757,-161.28,2022-10-26 10:58:01.171875
758,-142.33,2022-10-26 10:58:01.187500
759,-122.53,2022-10-26 10:58:01.203125
760,-100.38,2022-10-26 10:58:01.218750
761,-73.13,2022-10-26 10:58:01.234375
762,-38.65,2022-10-26 10:58:01.250000
763,3.66,2022-10-26 10:58:01.265625
764,52.7,2022-10-26 10:58:01.281250
765,106.54,2022-10-26 10:58:01.296875
766,163.15,2022-10-26 10:58:01.312500
767,220.7,2022-10-26 10:58:01.328125
768,278.22,2022-10-26 10:58:01.343750
769,334.89,2022-10-26 10:58:01.359375
770,389.8,2022-10-26 10:58:01.375000
771,441.95,2022-10-26 10:58:01.390625
772,490.19,2022-10-26 10:58:01.406250
773,533.14,2022-10-26 10:58:01.421875
774,569.01,2022-10-26 10:58:01.437500
775,595.9,2022-10-26 10:58:01.453125
776,611.86,2022-10-26 10:58:01.468750
777,614.74,2022-10-26 10:58:01.484375
778,602.37,2022-10-26 10:58:01.500000
779,573.62,2022-10-26 10:58:01.515625
780,528.39,2022-10-26 10:58:01.531250
781,467.83,2022-10-26 10:58:01.546875
782,394.52,2022-10-26 10:58:01.562500
783,312.71,2022-10-26 10:58:01.578125
784,227.2,2022-10-26 10:58:01.593750
785,142.89,2022-10-26 10:58:01.609375
786,64.13,2022-10-26 10:58:01.625000
787,-6.32,2022-10-26 10:58:01.640625
788,-67.15,2022-10-26 10:58:01.656250
789,-119.01,2022-10-26 10:58:01.671875
790,-163.66,2022-10-26 10:58:01.687500
791,-204.3,2022-10-26 10:58:01.703125
792,-244.54,2022-10-26 10:58:01.718750
793,-287.65,2022-10-26 10:58:01.734375
794,-335.98,2022-10-26 10:58:01.750000
795,-389.77,2022-10-26 10:58:01.765625
796,-447.0,2022-10-26 10:58:01.781250
797,-503.17,2022-10-26 10:58:01.796875
798,-552.29,2022-10-26 10:58:01.812500
799,-588.5,2022-10-26 10:58:01.828125
800,-607.48,2022-10-26 10:58:01.843750
801,-607.91,2022-10-26 10:58:01.859375
802,-591.75,2022-10-26 10:58:01.875000
803,-563.3,2022-10-26 10:58:01.890625
804,-527.73,2022-10-26 10:58:01.906250
805,-489.49,2022-10-26 10:58:01.921875
806,-451.55,2022-10-26 10:58:01.937500
807,-415.28,2022-10-26 10:58:01.953125
808,-380.85,2022-10-26 10:58:01.968750
809,-347.81,2022-10-26 10:58:01.984375
810,-315.54,2022-10-26 10:58:02.000000
811,-283.56,2022-10-26 10:58:02.015625
812,-251.08,2022-10-26 10:58:02.031250
813,-217.1,2022-10-26 10:58:02.046875
814,-180.45,2022-10-26 10:58:02.062500
815,-140.44,2022-10-26 10:58:02.078125
816,-97.18,2022-10-26 10:58:02.093750
817,-51.85,2022-10-26 10:58:02.109375
818,-6.07,2022-10-26 10:58:02.125000
819,37.92,2022-10-26 10:58:02.140625
820,78.67,2022-10-26 10:58:02.156250
821,115.55,2022-10-26 10:58:02.171875
822,148.87,2022-10-26 10:58:02.187500
823,179.12,2022-10-26 10:58:02.203125
824,206.64,2022-10-26 10:58:02.218750
825,231.03,2022-10-26 10:58:02.234375
826,250.93,2022-10-26 10:58:02.250000
827,264.42,2022-10-26 10:58:02.265625
828,269.56,2022-10-26 10:58:02.281250
829,265.25,2022-10-26 10:58:02.296875
830,251.64,2022-10-26 10:58:02.312500
831,229.94,2022-10-26 10:58:02.328125
832,202.6,2022-10-26 10:58:02.343750
833,172.0,2022-10-26 10:58:02.359375
834,139.94,2022-10-26 10:58:02.375000
835,107.2,2022-10-26 10:58:02.390625
836,73.65,2022-10-26 10:58:02.406250
837,39.24,2022-10-26 10:58:02.421875
838,4.08,2022-10-26 10:58:02.437500
839,-30.69,2022-10-26 10:58:02.453125
840,-62.73,2022-10-26 10:58:02.468750
841,-89.28,2022-10-26 10:58:02.484375
842,-107.25,2022-10-26 10:58:02.500000
843,-114.23,2022-10-26 10:58:02.515625
844,-108.89,2022-10-26 10:58:02.531250
845,-91.61,2022-10-26 10:58:02.546875
846,-65.17,2022-10-26 10:58:02.562500
847,-34.49,2022-10-26 10:58:02.578125
848,-5.83,2022-10-26 10:58:02.593750
849,15.12,2022-10-26 10:58:02.609375
850,25.56,2022-10-26 10:58:02.625000
851,26.55,2022-10-26 10:58:02.640625
852,22.62,2022-10-26 10:58:02.656250
853,19.89,2022-10-26 10:58:02.671875
854,23.95,2022-10-26 10:58:02.687500
855,37.27,2022-10-26 10:58:02.703125
856,58.18,2022-10-26 10:58:02.718750
857,80.54,2022-10-26 10:58:02.734375
858,95.92,2022-10-26 10:58:02.750000
859,96.62,2022-10-26 10:58:02.765625
860,78.88,2022-10-26 10:58:02.781250
861,44.29,2022-10-26 10:58:02.796875
862,0.05,2022-10-26 10:58:02.812500
863,-44.15,2022-10-26 10:58:02.828125
864,-79.01,2022-10-26 10:58:02.843750
865,-98.32,2022-10-26 10:58:02.859375
866,-100.07,2022-10-26 10:58:02.875000
867,-85.68,2022-10-26 10:58:02.890625
868,-59.4,2022-10-26 10:58:02.906250
869,-26.49,2022-10-26 10:58:02.921875
870,7.04,2022-10-26 10:58:02.937500
871,34.11,2022-10-26 10:58:02.953125
872,47.93,2022-10-26 10:58:02.968750
873,43.07,2022-10-26 10:58:02.984375
874,17.41,2022-10-26 10:58:03.000000
875,-27.27,2022-10-26 10:58:03.015625
876,-86.4,2022-10-26 10:58:03.031250
877,-153.99,2022-10-26 10:58:03.046875
878,-224.42,2022-10-26 10:58:03.062500
879,-292.99,2022-10-26 10:58:03.078125
880,-354.7,2022-10-26 10:58:03.093750
881,-404.23,2022-10-26 10:58:03.109375
882,-436.1,2022-10-26 10:58:03.125000
883,-445.88,2022-10-26 10:58:03.140625
884,-430.83,2022-10-26 10:58:03.156250
885,-391.32,2022-10-26 10:58:03.171875
886,-330.33,2022-10-26 10:58:03.187500
887,-253.02,2022-10-26 10:58:03.203125
888,-165.22,2022-10-26 10:58:03.218750
889,-73.26,2022-10-26 10:58:03.234375
890,16.96,2022-10-26 10:58:03.250000
891,101.07,2022-10-26 10:58:03.265625
892,177.57,2022-10-26 10:58:03.281250
893,246.63,2022-10-26 10:58:03.296875
894,309.74,2022-10-26 10:58:03.312500
895,366.95,2022-10-26 10:58:03.328125
896,415.41,2022-10-26 10:58:03.343750
897,449.13,2022-10-26 10:58:03.359375
898,460.91,2022-10-26 10:58:03.375000
899,446.0,2022-10-26 10:58:03.390625
900,405.28,2022-10-26 10:58:03.406250
901,345.36,2022-10-26 10:58:03.421875
902,277.34,2022-10-26 10:58:03.437500
903,212.58,2022-10-26 10:58:03.453125
904,159.64,2022-10-26 10:58:03.468750
905,122.54,2022-10-26 10:58:03.484375
906,100.61,2022-10-26 10:58:03.500000
907,90.24,2022-10-26 10:58:03.515625
908,86.98,2022-10-26 10:58:03.531250
909,86.94,2022-10-26 10:58:03.546875
910,88.53,2022-10-26 10:58:03.562500
911,92.0,2022-10-26 10:58:03.578125
912,100.0,2022-10-26 10:58:03.593750
913,115.82,2022-10-26 10:58:03.609375
914,141.63,2022-10-26 10:58:03.625000
915,177.38,2022-10-26 10:58:03.640625
916,221.5,2022-10-26 10:58:03.656250
917,270.54,2022-10-26 10:58:03.671875
918,320.55,2022-10-26 10:58:03.687500
919,366.74,2022-10-26 10:58:03.703125
920,403.62,2022-10-26 10:58:03.718750
921,425.04,2022-10-26 10:58:03.734375
922,425.24,2022-10-26 10:58:03.750000
923,401.51,2022-10-26 10:58:03.765625
924,356.96,2022-10-26 10:58:03.781250
925,299.62,2022-10-26 10:58:03.796875
926,239.79,2022-10-26 10:58:03.812500
927,184.41,2022-10-26 10:58:03.828125
928,133.4,2022-10-26 10:58:03.843750
929,79.17,2022-10-26 10:58:03.859375
930,11.34,2022-10-26 10:58:03.875000
931,-77.28,2022-10-26 10:58:03.890625
932,-185.31,2022-10-26 10:58:03.906250
933,-303.68,2022-10-26 10:58:03.921875
934,-420.0,2022-10-26 10:58:03.937500
935,-525.49,2022-10-26 10:58:03.953125
936,-618.69,2022-10-26 10:58:03.968750
937,-703.72,2022-10-26 10:58:03.984375
938,-785.57,2022-10-26 10:58:04.000000
939,-864.54,2022-10-26 10:58:04.015625
940,-934.03,2022-10-26 10:58:04.031250
941,-982.28,2022-10-26 10:58:04.046875
942,-996.97,2022-10-26 10:58:04.062500
943,-970.02,2022-10-26 10:58:04.078125
944,-900.03,2022-10-26 10:58:04.093750
945,-792.21,2022-10-26 10:58:04.109375
946,-656.27,2022-10-26 10:58:04.125000
947,-504.81,2022-10-26 10:58:04.140625
948,-350.75,2022-10-26 10:58:04.156250
949,-205.97,2022-10-26 10:58:04.171875
950,-80.46,2022-10-26 10:58:04.187500
951,19.52,2022-10-26 10:58:04.203125
952,93.25,2022-10-26 10:58:04.218750
953,146.62,2022-10-26 10:58:04.234375
954,190.12,2022-10-26 10:58:04.250000
955,235.34,2022-10-26 10:58:04.265625
956,290.4,2022-10-26 10:58:04.281250
957,356.77,2022-10-26 10:58:04.296875
958,428.41,2022-10-26 10:58:04.312500
959,494.42,2022-10-26 10:58:04.328125
960,544.23,2022-10-26 10:58:04.343750
961,570.98,2022-10-26 10:58:04.359375
962,573.78,2022-10-26 10:58:04.375000
963,557.29,2022-10-26 10:58:04.390625
964,529.49,2022-10-26 10:58:04.406250
965,499.44,2022-10-26 10:58:04.421875
966,475.91,2022-10-26 10:58:04.437500
967,466.86,2022-10-26 10:58:04.453125
968,478.0,2022-10-26 10:58:04.468750
969,510.15,2022-10-26 10:58:04.484375
970,557.32,2022-10-26 10:58:04.500000
971,606.0,2022-10-26 10:58:04.515625
972,638.55,2022-10-26 10:58:04.531250
973,640.46,2022-10-26 10:58:04.546875
974,605.82,2022-10-26 10:58:04.562500
975,540.81,2022-10-26 10:58:04.578125
976,460.65,2022-10-26 10:58:04.593750
977,381.9,2022-10-26 10:58:04.609375
978,315.54,2022-10-26 10:58:04.625000
979,263.01,2022-10-26 10:58:04.640625
980,217.62,2022-10-26 10:58:04.656250
981,170.82,2022-10-26 10:58:04.671875
982,117.9,2022-10-26 10:58:04.687500
983,61.34,2022-10-26 10:58:04.703125
984,9.39,2022-10-26 10:58:04.718750
985,-28.57,2022-10-26 10:58:04.734375
986,-46.86,2022-10-26 10:58:04.750000
987,-45.35,2022-10-26 10:58:04.765625
988,-29.47,2022-10-26 10:58:04.781250
989,-6.4,2022-10-26 10:58:04.796875
990,17.57,2022-10-26 10:58:04.812500
991,38.69,2022-10-26 10:58:04.828125
992,56.1,2022-10-26 10:58:04.843750
993,70.38,2022-10-26 10:58:04.859375
994,81.91,2022-10-26 10:58:04.875000
995,89.98,2022-10-26 10:58:04.890625
996,93.1,2022-10-26 10:58:04.906250
997,90.38,2022-10-26 10:58:04.921875
998,82.72,2022-10-26 10:58:04.937500
999,73.69,2022-10-26 10:58:04.953125
1000,68.37,2022-10-26 10:58:04.968750
1001,70.94,2022-10-26 10:58:04.984375
1002,83.27,2022-10-26 10:58:05.000000
1003,103.52,2022-10-26 10:58:05.015625
1004,127.03,2022-10-26 10:58:05.031250
1005,148.73,2022-10-26 10:58:05.046875
1006,164.48,2022-10-26 10:58:05.062500
1007,172.58,2022-10-26 10:58:05.078125
1008,173.69,2022-10-26 10:58:05.093750
1009,169.74,2022-10-26 10:58:05.109375
1010,162.61,2022-10-26 10:58:05.125000
1011,153.09,2022-10-26 10:58:05.140625
1012,140.34,2022-10-26 10:58:05.156250
1013,122.61,2022-10-26 10:58:05.171875
1014,97.65,2022-10-26 10:58:05.187500
1015,63.78,2022-10-26 10:58:05.203125
1016,20.44,2022-10-26 10:58:05.218750
1017,-31.97,2022-10-26 10:58:05.234375
1018,-92.5,2022-10-26 10:58:05.250000
1019,-159.62,2022-10-26 10:58:05.265625
1020,-231.76,2022-10-26 10:58:05.281250
1021,-306.44,2022-10-26 10:58:05.296875
1022,-380.24,2022-10-26 10:58:05.312500
1023,-448.21,2022-10-26 10:58:05.328125
1024,-504.07,2022-10-26 10:58:05.343750
1025,-541.23,2022-10-26 10:58:05.359375
1026,-553.77,2022-10-26 10:58:05.375000
1027,-538.03,2022-10-26 10:58:05.390625
1028,-493.41,2022-10-26 10:58:05.406250
1029,-422.53,2022-10-26 10:58:05.421875
1030,-331.05,2022-10-26 10:58:05.437500
1031,-226.43,2022-10-26 10:58:05.453125
1032,-117.27,2022-10-26 10:58:05.468750
1033,-12.59,2022-10-26 10:58:05.484375
1034,79.22,2022-10-26 10:58:05.500000
1035,150.53,2022-10-26 10:58:05.515625
1036,194.96,2022-10-26 10:58:05.531250
1037,207.99,2022-10-26 10:58:05.546875
1038,187.51,2022-10-26 10:58:05.562500
1039,134.45,2022-10-26 10:58:05.578125
1040,53.37,2022-10-26 10:58:05.593750
1041,-47.95,2022-10-26 10:58:05.609375
1042,-159.57,2022-10-26 10:58:05.625000
1043,-270.95,2022-10-26 10:58:05.640625
1044,-372.79,2022-10-26 10:58:05.656250
1045,-458.1,2022-10-26 10:58:05.671875
1046,-522.98,2022-10-26 10:58:05.687500
1047,-566.67,2022-10-26 10:58:05.703125
1048,-591.26,2022-10-26 10:58:05.718750
1049,-601.86,2022-10-26 10:58:05.734375
1050,-605.29,2022-10-26 10:58:05.750000
1051,-608.23,2022-10-26 10:58:05.765625
1052,-615.31,2022-10-26 10:58:05.781250
1053,-626.99,2022-10-26 10:58:05.796875
1054,-639.84,2022-10-26 10:58:05.812500
1055,-647.84,2022-10-26 10:58:05.828125
1056,-645.25,2022-10-26 10:58:05.843750
1057,-629.35,2022-10-26 10:58:05.859375
1058,-600.72,2022-10-26 10:58:05.875000
1059,-562.56,2022-10-26 10:58:05.890625
1060,-517.84,2022-10-26 10:58:05.906250
1061,-467.24,2022-10-26 10:58:05.921875
1062,-409.31,2022-10-26 10:58:05.937500
1063,-341.42,2022-10-26 10:58:05.953125
1064,-261.99,2022-10-26 10:58:05.968750
1065,-172.29,2022-10-26 10:58:05.984375
1066,-76.09,2022-10-26 10:58:06.000000
1067,21.17,2022-10-26 10:58:06.015625
1068,114.26,2022-10-26 10:58:06.031250
1069,198.92,2022-10-26 10:58:06.046875
1070,272.27,2022-10-26 10:58:06.062500
1071,332.13,2022-10-26 10:58:06.078125
1072,376.81,2022-10-26 10:58:06.093750
1073,404.6,2022-10-26 10:58:06.109375
1074,414.48,2022-10-26 10:58:06.125000
1075,406.79,2022-10-26 10:58:06.140625
1076,383.5,2022-10-26 10:58:06.156250
1077,348.36,2022-10-26 10:58:06.171875
1078,306.35,2022-10-26 10:58:06.187500
1079,262.75,2022-10-26 10:58:06.203125
1080,222.46,2022-10-26 10:58:06.218750
1081,189.26,2022-10-26 10:58:06.234375
1082,165.72,2022-10-26 10:58:06.250000
1083,153.6,2022-10-26 10:58:06.265625
1084,153.74,2022-10-26 10:58:06.281250
1085,166.84,2022-10-26 10:58:06.296875
1086,193.24,2022-10-26 10:58:06.312500
1087,232.37,2022-10-26 10:58:06.328125
1088,282.92,2022-10-26 10:58:06.343750
1089,341.86,2022-10-26 10:58:06.359375
1090,404.87,2022-10-26 10:58:06.375000
1091,466.04,2022-10-26 10:58:06.390625
1092,518.66,2022-10-26 10:58:06.406250
1093,556.28,2022-10-26 10:58:06.421875
1094,573.3,2022-10-26 10:58:06.437500
1095,565.69,2022-10-26 10:58:06.453125
1096,531.63,2022-10-26 10:58:06.468750
1097,471.15,2022-10-26 10:58:06.484375
1098,386.2,2022-10-26 10:58:06.500000
1099,280.39,2022-10-26 10:58:06.515625
1100,158.64,2022-10-26 10:58:06.531250
1101,26.73,2022-10-26 10:58:06.546875
1102,-109.17,2022-10-26 10:58:06.562500
1103,-242.61,2022-10-26 10:58:06.578125
1104,-367.05,2022-10-26 10:58:06.593750
1105,-476.4,2022-10-26 10:58:06.609375
1106,-565.22,2022-10-26 10:58:06.625000
1107,-629.33,2022-10-26 10:58:06.640625
1108,-666.15,2022-10-26 10:58:06.656250
1109,-675.42,2022-10-26 10:58:06.671875
1110,-659.39,2022-10-26 10:58:06.687500
1111,-622.2,2022-10-26 10:58:06.703125
1112,-569.75,2022-10-26 10:58:06.718750
1113,-508.36,2022-10-26 10:58:06.734375
1114,-444.38,2022-10-26 10:58:06.750000
1115,-383.14,2022-10-26 10:58:06.765625
1116,-328.11,2022-10-26 10:58:06.781250
1117,-280.85,2022-10-26 10:58:06.796875
1118,-240.5,2022-10-26 10:58:06.812500
1119,-204.75,2022-10-26 10:58:06.828125
1120,-170.52,2022-10-26 10:58:06.843750
1121,-135.22,2022-10-26 10:58:06.859375
1122,-97.77,2022-10-26 10:58:06.875000
1123,-59.13,2022-10-26 10:58:06.890625
1124,-21.85,2022-10-26 10:58:06.906250
1125,10.84,2022-10-26 10:58:06.921875
1126,36.24,2022-10-26 10:58:06.937500
1127,53.68,2022-10-26 10:58:06.953125
1128,65.13,2022-10-26 10:58:06.968750
1129,74.49,2022-10-26 10:58:06.984375
1130,86.09,2022-10-26 10:58:07.000000
1131,103.37,2022-10-26 10:58:07.015625
1132,127.75,2022-10-26 10:58:07.031250
1133,158.49,2022-10-26 10:58:07.046875
1134,192.89,2022-10-26 10:58:07.062500
1135,227.73,2022-10-26 10:58:07.078125
1136,259.91,2022-10-26 10:58:07.093750
1137,287.12,2022-10-26 10:58:07.109375
1138,308.29,2022-10-26 10:58:07.125000
1139,323.18,2022-10-26 10:58:07.140625
1140,332.46,2022-10-26 10:58:07.156250
1141,336.96,2022-10-26 10:58:07.171875
1142,337.07,2022-10-26 10:58:07.187500
1143,333.16,2022-10-26 10:58:07.203125
1144,324.5,2022-10-26 10:58:07.218750
1145,310.95,2022-10-26 10:58:07.234375
1146,292.76,2022-10-26 10:58:07.250000
1147,271.22,2022-10-26 10:58:07.265625
1148,248.37,2022-10-26 10:58:07.281250
1149,226.46,2022-10-26 10:58:07.296875
1150,207.1,2022-10-26 10:58:07.312500
1151,190.56,2022-10-26 10:58:07.328125
1152,175.53,2022-10-26 10:58:07.343750
1153,160.05,2022-10-26 10:58:07.359375
1154,142.24,2022-10-26 10:58:07.375000
1155,120.99,2022-10-26 10:58:07.390625
1156,95.8,2022-10-26 10:58:07.406250
1157,66.73,2022-10-26 10:58:07.421875
1158,34.37,2022-10-26 10:58:07.437500
1159,0.41,2022-10-26 10:58:07.453125
1160,-31.6,2022-10-26 10:58:07.468750
1161,-55.51,2022-10-26 10:58:07.484375
1162,-65.07,2022-10-26 10:58:07.500000
1163,-56.87,2022-10-26 10:58:07.515625
1164,-32.93,2022-10-26 10:58:07.531250
1165,-0.54,2022-10-26 10:58:07.546875
1166,31.21,2022-10-26 10:58:07.562500
1167,56.23,2022-10-26 10:58:07.578125
1168,75.42,2022-10-26 10:58:07.593750
1169,95.97,2022-10-26 10:58:07.609375
1170,126.94,2022-10-26 10:58:07.625000
1171,173.43,2022-10-26 10:58:07.640625
1172,233.09,2022-10-26 10:58:07.656250
1173,297.49,2022-10-26 10:58:07.671875
1174,356.28,2022-10-26 10:58:07.687500
1175,402.79,2022-10-26 10:58:07.703125
1176,436.21,2022-10-26 10:58:07.718750
1177,461.4,2022-10-26 10:58:07.734375
1178,484.8,2022-10-26 10:58:07.750000
1179,510.53,2022-10-26 10:58:07.765625
1180,537.91,2022-10-26 10:58:07.781250
1181,561.38,2022-10-26 10:58:07.796875
1182,573.12,2022-10-26 10:58:07.812500
1183,566.25,2022-10-26 10:58:07.828125
1184,537.77,2022-10-26 10:58:07.843750
1185,489.75,2022-10-26 10:58:07.859375
1186,428.0,2022-10-26 10:58:07.875000
1187,360.01,2022-10-26 10:58:07.890625
1188,292.24,2022-10-26 10:58:07.906250
1189,228.33,2022-10-26 10:58:07.921875
1190,168.87,2022-10-26 10:58:07.937500
1191,113.11,2022-10-26 10:58:07.953125
1192,58.16,2022-10-26 10:58:07.968750
1193,-0.25,2022-10-26 10:58:07.984375
1194,-68.36,2022-10-26 10:58:08.000000
1195,-153.38,2022-10-26 10:58:08.015625
1196,-260.01,2022-10-26 10:58:08.031250
1197,-386.81,2022-10-26 10:58:08.046875
1198,-523.29,2022-10-26 10:58:08.062500
1199,-651.98,2022-10-26 10:58:08.078125
1200,-754.13,2022-10-26 10:58:08.093750
1201,-817.18,2022-10-26 10:58:08.109375
1202,-838.83,2022-10-26 10:58:08.125000
1203,-826.77,2022-10-26 10:58:08.140625
1204,-794.78,2022-10-26 10:58:08.156250
1205,-757.28,2022-10-26 10:58:08.171875
1206,-726.0,2022-10-26 10:58:08.187500
1207,-708.13,2022-10-26 10:58:08.203125
1208,-706.96,2022-10-26 10:58:08.218750
1209,-722.22,2022-10-26 10:58:08.234375
1210,-749.64,2022-10-26 10:58:08.250000
1211,-781.24,2022-10-26 10:58:08.265625
1212,-806.8,2022-10-26 10:58:08.281250
1213,-816.62,2022-10-26 10:58:08.296875
1214,-804.51,2022-10-26 10:58:08.312500
1215,-769.32,2022-10-26 10:58:08.328125
1216,-714.86,2022-10-26 10:58:08.343750
1217,-646.78,2022-10-26 10:58:08.359375
1218,-569.19,2022-10-26 10:58:08.375000
1219,-483.4,2022-10-26 10:58:08.390625
1220,-388.84,2022-10-26 10:58:08.406250
1221,-285.52,2022-10-26 10:58:08.421875
1222,-176.14,2022-10-26 10:58:08.437500
1223,-65.29,2022-10-26 10:58:08.453125
1224,42.16,2022-10-26 10:58:08.468750
1225,144.26,2022-10-26 10:58:08.484375
1226,242.12,2022-10-26 10:58:08.500000
1227,337.15,2022-10-26 10:58:08.515625
1228,427.51,2022-10-26 10:58:08.531250
1229,505.27,2022-10-26 10:58:08.546875
1230,557.88,2022-10-26 10:58:08.562500
1231,573.87,2022-10-26 10:58:08.578125
1232,549.65,2022-10-26 10:58:08.593750
1233,493.05,2022-10-26 10:58:08.609375
1234,420.77,2022-10-26 10:58:08.625000
1235,350.54,2022-10-26 10:58:08.640625
1236,293.51,2022-10-26 10:58:08.656250
1237,250.31,2022-10-26 10:58:08.671875
1238,213.42,2022-10-26 10:58:08.687500
1239,173.52,2022-10-26 10:58:08.703125
1240,125.81,2022-10-26 10:58:08.718750
1241,72.22,2022-10-26 10:58:08.734375
1242,20.51,2022-10-26 10:58:08.750000
1243,-19.54,2022-10-26 10:58:08.765625
1244,-40.1,2022-10-26 10:58:08.781250
1245,-37.86,2022-10-26 10:58:08.796875
1246,-16.04,2022-10-26 10:58:08.812500
1247,16.1,2022-10-26 10:58:08.828125
1248,45.33,2022-10-26 10:58:08.843750
1249,57.73,2022-10-26 10:58:08.859375
1250,43.71,2022-10-26 10:58:08.875000
1251,1.97,2022-10-26 10:58:08.890625
1252,-60.88,2022-10-26 10:58:08.906250
1253,-133.08,2022-10-26 10:58:08.921875
1254,-203.81,2022-10-26 10:58:08.937500
1255,-267.91,2022-10-26 10:58:08.953125
1256,-326.67,2022-10-26 10:58:08.968750
1257,-383.9,2022-10-26 10:58:08.984375
1258,-440.64,2022-10-26 10:58:09.000000
1259,-491.73,2022-10-26 10:58:09.015625
1260,-526.98,2022-10-26 10:58:09.031250
1261,-536.86,2022-10-26 10:58:09.046875
1262,-517.4,2022-10-26 10:58:09.062500
1263,-472.91,2022-10-26 10:58:09.078125
1264,-414.81,2022-10-26 10:58:09.093750
1265,-356.5,2022-10-26 10:58:09.109375
1266,-308.77,2022-10-26 10:58:09.125000
1267,-276.38,2022-10-26 10:58:09.140625
1268,-257.89,2022-10-26 10:58:09.156250
1269,-247.77,2022-10-26 10:58:09.171875
1270,-238.54,2022-10-26 10:58:09.187500
1271,-222.59,2022-10-26 10:58:09.203125
1272,-192.99,2022-10-26 10:58:09.218750
1273,-144.01,2022-10-26 10:58:09.234375
1274,-71.52,2022-10-26 10:58:09.250000
1275,24.99,2022-10-26 10:58:09.265625
1276,141.75,2022-10-26 10:58:09.281250
1277,271.43,2022-10-26 10:58:09.296875
1278,405.02,2022-10-26 10:58:09.312500
1279,533.61,2022-10-26 10:58:09.328125
1280,651.29,2022-10-26 10:58:09.343750
1281,756.11,2022-10-26 10:58:09.359375
1282,849.2,2022-10-26 10:58:09.375000
1283,934.28,2022-10-26 10:58:09.390625
1284,1014.47,2022-10-26 10:58:09.406250
1285,1089.4,2022-10-26 10:58:09.421875
1286,1152.98,2022-10-26 10:58:09.437500
1287,1194.11,2022-10-26 10:58:09.453125
1288,1199.88,2022-10-26 10:58:09.468750
1289,1161.07,2022-10-26 10:58:09.484375
1290,1076.01,2022-10-26 10:58:09.500000
1291,952.36,2022-10-26 10:58:09.515625
1292,805.22,2022-10-26 10:58:09.531250
1293,651.3,2022-10-26 10:58:09.546875
1294,504.17,2022-10-26 10:58:09.562500
1295,371.47,2022-10-26 10:58:09.578125
1296,254.58,2022-10-26 10:58:09.593750
1297,150.53,2022-10-26 10:58:09.609375
1298,53.66,2022-10-26 10:58:09.625000
1299,-41.68,2022-10-26 10:58:09.640625
1300,-140.69,2022-10-26 10:58:09.656250
1301,-246.65,2022-10-26 10:58:09.671875
1302,-359.02,2022-10-26 10:58:09.687500
1303,-472.23,2022-10-26 10:58:09.703125
1304,-576.96,2022-10-26 10:58:09.718750
1305,-663.98,2022-10-26 10:58:09.734375
1306,-727.13,2022-10-26 10:58:09.750000
1307,-766.21,2022-10-26 10:58:09.765625
1308,-785.84,2022-10-26 10:58:09.781250
1309,-791.8,2022-10-26 10:58:09.796875
1310,-787.33,2022-10-26 10:58:09.812500
1311,-772.47,2022-10-26 10:58:09.828125
1312,-745.44,2022-10-26 10:58:09.843750
1313,-705.7,2022-10-26 10:58:09.859375
1314,-655.83,2022-10-26 10:58:09.875000
1315,-600.82,2022-10-26 10:58:09.890625
1316,-545.03,2022-10-26 10:58:09.906250
1317,-488.69,2022-10-26 10:58:09.921875
1318,-427.23,2022-10-26 10:58:09.937500
1319,-352.88,2022-10-26 10:58:09.953125
1320,-258.98,2022-10-26 10:58:09.968750
1321,-144.19,2022-10-26 10:58:09.984375
1322,-15.04,2022-10-26 10:58:10.000000
1323,115.2,2022-10-26 10:58:10.015625
1324,231.08,2022-10-26 10:58:10.031250
1325,320.37,2022-10-26 10:58:10.046875
1326,377.68,2022-10-26 10:58:10.062500
1327,406.05,2022-10-26 10:58:10.078125
1328,415.46,2022-10-26 10:58:10.093750
1329,419.57,2022-10-26 10:58:10.109375
1330,431.17,2022-10-26 10:58:10.125000
1331,459.14,2022-10-26 10:58:10.140625
1332,506.21,2022-10-26 10:58:10.156250
1333,567.64,2022-10-26 10:58:10.171875
1334,633.29,2022-10-26 10:58:10.187500
1335,690.16,2022-10-26 10:58:10.203125
1336,727.6,2022-10-26 10:58:10.218750
1337,740.09,2022-10-26 10:58:10.234375
1338,729.45,2022-10-26 10:58:10.250000
1339,703.59,2022-10-26 10:58:10.265625
1340,672.39,2022-10-26 10:58:10.281250
1341,643.45,2022-10-26 10:58:10.296875
1342,618.21,2022-10-26 10:58:10.312500
1343,591.59,2022-10-26 10:58:10.328125
1344,554.68,2022-10-26 10:58:10.343750
1345,497.83,2022-10-26 10:58:10.359375
1346,415.03,2022-10-26 10:58:10.375000
1347,306.14,2022-10-26 10:58:10.390625
1348,176.92,2022-10-26 10:58:10.406250
1349,38.27,2022-10-26 10:58:10.421875
1350,-96.99,2022-10-26 10:58:10.437500
1351,-217.38,2022-10-26 10:58:10.453125
1352,-314.84,2022-10-26 10:58:10.468750
1353,-387.13,2022-10-26 10:58:10.484375
1354,-437.93,2022-10-26 10:58:10.500000
1355,-475.71,2022-10-26 10:58:10.515625
1356,-510.2,2022-10-26 10:58:10.531250
1357,-548.97,2022-10-26 10:58:10.546875
1358,-595.6,2022-10-26 10:58:10.562500
1359,-647.64,2022-10-26 10:58:10.578125
1360,-698.37,2022-10-26 10:58:10.593750
1361,-738.93,2022-10-26 10:58:10.609375
1362,-760.74,2022-10-26 10:58:10.625000
1363,-757.61,2022-10-26 10:58:10.640625
1364,-726.83,2022-10-26 10:58:10.656250
1365,-670.1,2022-10-26 10:58:10.671875
1366,-593.18,2022-10-26 10:58:10.687500
1367,-505.28,2022-10-26 10:58:10.703125
1368,-417.66,2022-10-26 10:58:10.718750
1369,-341.42,2022-10-26 10:58:10.734375
1370,-284.94,2022-10-26 10:58:10.750000
1371,-250.97,2022-10-26 10:58:10.765625
1372,-235.87,2022-10-26 10:58:10.781250
1373,-230.03,2022-10-26 10:58:10.796875
1374,-221.98,2022-10-26 10:58:10.812500
1375,-202.88,2022-10-26 10:58:10.828125
1376,-170.6,2022-10-26 10:58:10.843750
1377,-131.78,2022-10-26 10:58:10.859375
1378,-99.61,2022-10-26 10:58:10.875000
1379,-88.09,2022-10-26 10:58:10.890625
1380,-105.32,2022-10-26 10:58:10.906250
1381,-148.35,2022-10-26 10:58:10.921875
1382,-203.8,2022-10-26 10:58:10.937500
1383,-254.45,2022-10-26 10:58:10.953125
1384,-287.55,2022-10-26 10:58:10.968750
1385,-302.17,2022-10-26 10:58:10.984375
1386,-309.29,2022-10-26 10:58:11.000000
1387,-325.88,2022-10-26 10:58:11.015625
1388,-364.96,2022-10-26 10:58:11.031250
1389,-427.03,2022-10-26 10:58:11.046875
1390,-499.14,2022-10-26 10:58:11.062500
1391,-560.08,2022-10-26 10:58:11.078125
1392,-591.08,2022-10-26 10:58:11.093750
1393,-583.35,2022-10-26 10:58:11.109375
1394,-540.6,2022-10-26 10:58:11.125000
1395,-474.75,2022-10-26 10:58:11.140625
1396,-398.48,2022-10-26 10:58:11.156250
1397,-319.48,2022-10-26 10:58:11.171875
1398,-238.45,2022-10-26 10:58:11.187500
1399,-151.48,2022-10-26 10:58:11.203125
1400,-53.97,2022-10-26 10:58:11.218750
1401,56.11,2022-10-26 10:58:11.234375
1402,176.21,2022-10-26 10:58:11.250000
1403,300.3,2022-10-26 10:58:11.265625
1404,420.14,2022-10-26 10:58:11.281250
1405,527.22,2022-10-26 10:58:11.296875
1406,613.95,2022-10-26 10:58:11.312500
1407,675.02,2022-10-26 10:58:11.328125
1408,709.09,2022-10-26 10:58:11.343750
1409,719.55,2022-10-26 10:58:11.359375
1410,714.07,2022-10-26 10:58:11.375000
1411,703.5,2022-10-26 10:58:11.390625
1412,699.2,2022-10-26 10:58:11.406250
1413,709.95,2022-10-26 10:58:11.421875
1414,740.01,2022-10-26 10:58:11.437500
1415,786.87,2022-10-26 10:58:11.453125
1416,841.38,2022-10-26 10:58:11.468750
1417,889.83,2022-10-26 10:58:11.484375
1418,917.0,2022-10-26 10:58:11.500000
1419,912.24,2022-10-26 10:58:11.515625
1420,872.95,2022-10-26 10:58:11.531250
1421,805.71,2022-10-26 10:58:11.546875
1422,723.88,2022-10-26 10:58:11.562500
1423,641.32,2022-10-26 10:58:11.578125
1424,566.16,2022-10-26 10:58:11.593750
1425,497.65,2022-10-26 10:58:11.609375
1426,427.47,2022-10-26 10:58:11.625000
1427,345.17,2022-10-26 10:58:11.640625
1428,244.23,2022-10-26 10:58:11.656250
1429,126.35,2022-10-26 10:58:11.671875
1430,0.93,2022-10-26 10:58:11.687500
1431,-118.07,2022-10-26 10:58:11.703125
1432,-217.88,2022-10-26 10:58:11.718750
1433,-290.46,2022-10-26 10:58:11.734375
1434,-334.08,2022-10-26 10:58:11.750000
1435,-351.78,2022-10-26 10:58:11.765625
1436,-348.15,2022-10-26 10:58:11.781250
1437,-326.87,2022-10-26 10:58:11.796875
1438,-289.48,2022-10-26 10:58:11.812500
1439,-236.94,2022-10-26 10:58:11.828125
1440,-171.51,2022-10-26 10:58:11.843750
1441,-99.08,2022-10-26 10:58:11.859375
1442,-29.73,2022-10-26 10:58:11.875000
1443,24.46,2022-10-26 10:58:11.890625
1444,53.67,2022-10-26 10:58:11.906250
1445,54.13,2022-10-26 10:58:11.921875
1446,30.45,2022-10-26 10:58:11.937500
1447,-7.04,2022-10-26 10:58:11.953125
1448,-46.86,2022-10-26 10:58:11.968750
1449,-81.51,2022-10-26 10:58:11.984375
1450,-110.46,2022-10-26 10:58:12.000000
1451,-137.16,2022-10-26 10:58:12.015625
1452,-165.42,2022-10-26 10:58:12.031250
1453,-196.02,2022-10-26 10:58:12.046875
1454,-225.55,2022-10-26 10:58:12.062500
1455,-249.27,2022-10-26 10:58:12.078125
1456,-264.13,2022-10-26 10:58:12.093750
1457,-270.98,2022-10-26 10:58:12.109375
1458,-273.52,2022-10-26 10:58:12.125000
1459,-274.42,2022-10-26 10:58:12.140625
1460,-273.19,2022-10-26 10:58:12.156250
1461,-265.21,2022-10-26 10:58:12.171875
1462,-244.57,2022-10-26 10:58:12.187500
1463,-206.72,2022-10-26 10:58:12.203125
1464,-150.84,2022-10-26 10:58:12.218750
1465,-78.75,2022-10-26 10:58:12.234375
1466,6.39,2022-10-26 10:58:12.250000
1467,101.25,2022-10-26 10:58:12.265625
1468,202.25,2022-10-26 10:58:12.281250
1469,304.36,2022-10-26 10:58:12.296875
1470,401.28,2022-10-26 10:58:12.312500
1471,486.84,2022-10-26 10:58:12.328125
1472,557.75,2022-10-26 10:58:12.343750
1473,614.95,2022-10-26 10:58:12.359375
1474,661.75,2022-10-26 10:58:12.375000
1475,700.45,2022-10-26 10:58:12.390625
1476,728.51,2022-10-26 10:58:12.406250
1477,737.7,2022-10-26 10:58:12.421875
1478,717.71,2022-10-26 10:58:12.437500
1479,660.78,2022-10-26 10:58:12.453125
1480,566.83,2022-10-26 10:58:12.468750
1481,444.19,2022-10-26 10:58:12.484375
1482,305.9,2022-10-26 10:58:12.500000
1483,165.54,2022-10-26 10:58:12.515625
1484,32.75,2022-10-26 10:58:12.531250
1485,-87.91,2022-10-26 10:58:12.546875
1486,-195.88,2022-10-26 10:58:12.562500
1487,-292.3,2022-10-26 10:58:12.578125
1488,-378.0,2022-10-26 10:58:12.593750
1489,-452.45,2022-10-26 10:58:12.609375
1490,-514.23,2022-10-26 10:58:12.625000
1491,-561.27,2022-10-26 10:58:12.640625
1492,-591.71,2022-10-26 10:58:12.656250
1493,-605.18,2022-10-26 10:58:12.671875
1494,-602.61,2022-10-26 10:58:12.687500
1495,-586.51,2022-10-26 10:58:12.703125
1496,-560.39,2022-10-26 10:58:12.718750
1497,-528.31,2022-10-26 10:58:12.734375
1498,-494.67,2022-10-26 10:58:12.750000
1499,-463.93,2022-10-26 10:58:12.765625
1500,-440.44,2022-10-26 10:58:12.781250
1501,-427.55,2022-10-26 10:58:12.796875
1502,-426.36,2022-10-26 10:58:12.812500
1503,-434.34,2022-10-26 10:58:12.828125
1504,-445.72,2022-10-26 10:58:12.843750
1505,-452.26,2022-10-26 10:58:12.859375
1506,-446.01,2022-10-26 10:58:12.875000
1507,-421.82,2022-10-26 10:58:12.890625
1508,-379.6,2022-10-26 10:58:12.906250
1509,-323.66,2022-10-26 10:58:12.921875
1510,-260.01,2022-10-26 10:58:12.937500
1511,-193.84,2022-10-26 10:58:12.953125
1512,-127.64,2022-10-26 10:58:12.968750
1513,-61.94,2022-10-26 10:58:12.984375
1514,2.07,2022-10-26 10:58:13.000000
1515,60.77,2022-10-26 10:58:13.015625
1516,107.35,2022-10-26 10:58:13.031250
1517,134.73,2022-10-26 10:58:13.046875
1518,139.66,2022-10-26 10:58:13.062500
1519,126.65,2022-10-26 10:58:13.078125
1520,107.78,2022-10-26 10:58:13.093750
1521,98.64,2022-10-26 10:58:13.109375
1522,110.98,2022-10-26 10:58:13.125000
1523,146.11,2022-10-26 10:58:13.140625
1524,193.85,2022-10-26 10:58:13.156250
1525,237.14,2022-10-26 10:58:13.171875
1526,261.22,2022-10-26 10:58:13.187500
1527,260.35,2022-10-26 10:58:13.203125
1528,239.62,2022-10-26 10:58:13.218750
1529,210.27,2022-10-26 10:58:13.234375
1530,181.77,2022-10-26 10:58:13.250000
1531,155.94,2022-10-26 10:58:13.265625
1532,127.55,2022-10-26 10:58:13.281250
1533,89.6,2022-10-26 10:58:13.296875
1534,41.18,2022-10-26 10:58:13.312500
1535,-8.63,2022-10-26 10:58:13.328125
1536,-44.75,2022-10-26 10:58:13.343750
1537,-54.15,2022-10-26 10:58:13.359375
1538,-34.74,2022-10-26 10:58:13.375000
1539,2.45,2022-10-26 10:58:13.390625
1540,38.5,2022-10-26 10:58:13.406250
1541,56.32,2022-10-26 10:58:13.421875
1542,50.64,2022-10-26 10:58:13.437500
1543,29.91,2022-10-26 10:58:13.453125
1544,11.27,2022-10-26 10:58:13.468750
1545,10.37,2022-10-26 10:58:13.484375
1546,32.41,2022-10-26 10:58:13.500000
1547,70.2,2022-10-26 10:58:13.515625
1548,108.28,2022-10-26 10:58:13.531250
1549,132.62,2022-10-26 10:58:13.546875
1550,137.08,2022-10-26 10:58:13.562500
1551,125.33,2022-10-26 10:58:13.578125
1552,106.77,2022-10-26 10:58:13.593750
1553,90.46,2022-10-26 10:58:13.609375
1554,80.94,2022-10-26 10:58:13.625000
1555,77.4,2022-10-26 10:58:13.640625
1556,76.54,2022-10-26 10:58:13.656250
1557,75.33,2022-10-26 10:58:13.671875
1558,73.01,2022-10-26 10:58:13.687500
1559,70.01,2022-10-26 10:58:13.703125
1560,66.08,2022-10-26 10:58:13.718750
1561,59.35,2022-10-26 10:58:13.734375
1562,47.82,2022-10-26 10:58:13.750000
1563,31.2,2022-10-26 10:58:13.765625
1564,13.25,2022-10-26 10:58:13.781250
1565,0.83,2022-10-26 10:58:13.796875
1566,1.02,2022-10-26 10:58:13.812500
1567,17.61,2022-10-26 10:58:13.828125
1568,47.67,2022-10-26 10:58:13.843750
1569,82.0,2022-10-26 10:58:13.859375
1570,109.02,2022-10-26 10:58:13.875000
1571,120.27,2022-10-26 10:58:13.890625
1572,115.26,2022-10-26 10:58:13.906250
1573,101.7,2022-10-26 10:58:13.921875
1574,91.91,2022-10-26 10:58:13.937500
1575,95.82,2022-10-26 10:58:13.953125
1576,115.79,2022-10-26 10:58:13.968750
1577,144.99,2022-10-26 10:58:13.984375
1578,171.61,2022-10-26 10:58:14.000000
1579,185.45,2022-10-26 10:58:14.015625
1580,182.9,2022-10-26 10:58:14.031250
1581,169.32,2022-10-26 10:58:14.046875
1582,155.41,2022-10-26 10:58:14.062500
1583,151.82,2022-10-26 10:58:14.078125
1584,163.49,2022-10-26 10:58:14.093750
1585,187.79,2022-10-26 10:58:14.109375
1586,216.17,2022-10-26 10:58:14.125000
1587,238.14,2022-10-26 10:58:14.140625
1588,245.73,2022-10-26 10:58:14.156250
1589,235.26,2022-10-26 10:58:14.171875
1590,207.6,2022-10-26 10:58:14.187500
1591,166.8,2022-10-26 10:58:14.203125
1592,118.68,2022-10-26 10:58:14.218750
1593,69.06,2022-10-26 10:58:14.234375
1594,22.9,2022-10-26 10:58:14.250000
1595,-16.67,2022-10-26 10:58:14.265625
1596,-49.09,2022-10-26 10:58:14.281250
1597,-76.43,2022-10-26 10:58:14.296875
1598,-102.1,2022-10-26 10:58:14.312500
1599,-128.52,2022-10-26 10:58:14.328125
1600,-154.75,2022-10-26 10:58:14.343750
1601,-175.4,2022-10-26 10:58:14.359375
1602,-182.07,2022-10-26 10:58:14.375000
1603,-167.47,2022-10-26 10:58:14.390625
1604,-129.06,2022-10-26 10:58:14.406250
1605,-71.98,2022-10-26 10:58:14.421875
1606,-9.06,2022-10-26 10:58:14.437500
1607,43.06,2022-10-26 10:58:14.453125
1608,69.45,2022-10-26 10:58:14.468750
1609,61.57,2022-10-26 10:58:14.484375
1610,20.35,2022-10-26 10:58:14.500000
1611,-44.71,2022-10-26 10:58:14.515625
1612,-119.97,2022-10-26 10:58:14.531250
1613,-192.55,2022-10-26 10:58:14.546875
1614,-254.12,2022-10-26 10:58:14.562500
1615,-302.07,2022-10-26 10:58:14.578125
1616,-338.01,2022-10-26 10:58:14.593750
1617,-363.7,2022-10-26 10:58:14.609375
1618,-378.87,2022-10-26 10:58:14.625000
1619,-380.74,2022-10-26 10:58:14.640625
1620,-367.37,2022-10-26 10:58:14.656250
1621,-340.63,2022-10-26 10:58:14.671875
1622,-307.44,2022-10-26 10:58:14.687500
1623,-277.64,2022-10-26 10:58:14.703125
1624,-258.94,2022-10-26 10:58:14.718750
1625,-253.96,2022-10-26 10:58:14.734375
1626,-260.22,2022-10-26 10:58:14.750000
1627,-272.17,2022-10-26 10:58:14.765625
1628,-284.97,2022-10-26 10:58:14.781250
1629,-296.32,2022-10-26 10:58:14.796875
1630,-306.28,2022-10-26 10:58:14.812500
1631,-315.86,2022-10-26 10:58:14.828125
1632,-326.23,2022-10-26 10:58:14.843750
1633,-338.46,2022-10-26 10:58:14.859375
1634,-353.65,2022-10-26 10:58:14.875000
1635,-372.86,2022-10-26 10:58:14.890625
1636,-395.13,2022-10-26 10:58:14.906250
1637,-415.77,2022-10-26 10:58:14.921875
1638,-427.05,2022-10-26 10:58:14.937500
1639,-420.67,2022-10-26 10:58:14.953125
1640,-393.37,2022-10-26 10:58:14.968750
1641,-349.85,2022-10-26 10:58:14.984375
1642,-301.65,2022-10-26 10:58:15.000000
1643,-260.91,2022-10-26 10:58:15.015625
1644,-233.6,2022-10-26 10:58:15.031250
1645,-216.55,2022-10-26 10:58:15.046875
1646,-199.22,2022-10-26 10:58:15.062500
1647,-170.74,2022-10-26 10:58:15.078125
1648,-125.72,2022-10-26 10:58:15.093750
1649,-66.05,2022-10-26 10:58:15.109375
1650,1.79,2022-10-26 10:58:15.125000
1651,72.62,2022-10-26 10:58:15.140625
1652,145.62,2022-10-26 10:58:15.156250
1653,222.57,2022-10-26 10:58:15.171875
1654,303.06,2022-10-26 10:58:15.187500
1655,380.09,2022-10-26 10:58:15.203125
1656,441.5,2022-10-26 10:58:15.218750
1657,475.57,2022-10-26 10:58:15.234375
1658,477.4,2022-10-26 10:58:15.250000
1659,453.88,2022-10-26 10:58:15.265625
1660,420.95,2022-10-26 10:58:15.281250
1661,396.94,2022-10-26 10:58:15.296875
1662,393.88,2022-10-26 10:58:15.312500
1663,412.18,2022-10-26 10:58:15.328125
1664,440.78,2022-10-26 10:58:15.343750
1665,462.48,2022-10-26 10:58:15.359375
1666,461.76,2022-10-26 10:58:15.375000
1667,431.19,2022-10-26 10:58:15.390625
1668,373.97,2022-10-26 10:58:15.406250
1669,301.04,2022-10-26 10:58:15.421875
1670,225.03,2022-10-26 10:58:15.437500
1671,156.3,2022-10-26 10:58:15.453125
1672,100.31,2022-10-26 10:58:15.468750
1673,59.43,2022-10-26 10:58:15.484375
1674,35.41,2022-10-26 10:58:15.500000
1675,30.88,2022-10-26 10:58:15.515625
1676,48.2,2022-10-26 10:58:15.531250
1677,86.43,2022-10-26 10:58:15.546875
1678,139.79,2022-10-26 10:58:15.562500
1679,199.1,2022-10-26 10:58:15.578125
1680,256.72,2022-10-26 10:58:15.593750
1681,311.25,2022-10-26 10:58:15.609375
1682,367.72,2022-10-26 10:58:15.625000
1683,433.41,2022-10-26 10:58:15.640625
1684,511.26,2022-10-26 10:58:15.656250
1685,596.23,2022-10-26 10:58:15.671875
1686,677.01,2022-10-26 10:58:15.687500
1687,742.52,2022-10-26 10:58:15.703125
1688,787.76,2022-10-26 10:58:15.718750
1689,815.49,2022-10-26 10:58:15.734375
1690,831.27,2022-10-26 10:58:15.750000
1691,837.0,2022-10-26 10:58:15.765625
1692,827.0,2022-10-26 10:58:15.781250
1693,789.5,2022-10-26 10:58:15.796875
1694,713.21,2022-10-26 10:58:15.812500
1695,594.96,2022-10-26 10:58:15.828125
1696,443.12,2022-10-26 10:58:15.843750
1697,274.74,2022-10-26 10:58:15.859375
1698,109.35,2022-10-26 10:58:15.875000
1699,-38.99,2022-10-26 10:58:15.890625
1700,-165.14,2022-10-26 10:58:15.906250
1701,-271.77,2022-10-26 10:58:15.921875
1702,-365.38,2022-10-26 10:58:15.937500
1703,-450.45,2022-10-26 10:58:15.953125
1704,-526.03,2022-10-26 10:58:15.968750
1705,-585.06,2022-10-26 10:58:15.984375
1706,-616.65,2022-10-26 10:58:16.000000
1707,-610.68,2022-10-26 10:58:16.015625
1708,-562.18,2022-10-26 10:58:16.031250
1709,-472.98,2022-10-26 10:58:16.046875
1710,-351.79,2022-10-26 10:58:16.062500
1711,-212.02,2022-10-26 10:58:16.078125
1712,-68.43,2022-10-26 10:58:16.093750
1713,65.83,2022-10-26 10:58:16.109375
1714,180.57,2022-10-26 10:58:16.125000
1715,270.28,2022-10-26 10:58:16.140625
1716,334.08,2022-10-26 10:58:16.156250
1717,375.41,2022-10-26 10:58:16.171875
1718,399.7,2022-10-26 10:58:16.187500
1719,412.18,2022-10-26 10:58:16.203125
1720,415.69,2022-10-26 10:58:16.218750
1721,410.38,2022-10-26 10:58:16.234375
1722,393.91,2022-10-26 10:58:16.250000
1723,362.51,2022-10-26 10:58:16.265625
1724,312.02,2022-10-26 10:58:16.281250
1725,238.24,2022-10-26 10:58:16.296875
1726,137.86,2022-10-26 10:58:16.312500
1727,9.95,2022-10-26 10:58:16.328125
1728,-142.04,2022-10-26 10:58:16.343750
1729,-310.74,2022-10-26 10:58:16.359375
1730,-485.54,2022-10-26 10:58:16.375000
1731,-655.46,2022-10-26 10:58:16.390625
1732,-810.81,2022-10-26 10:58:16.406250
1733,-944.93,2022-10-26 10:58:16.421875
1734,-1053.97,2022-10-26 10:58:16.437500
1735,-1135.9,2022-10-26 10:58:16.453125
1736,-1189.66,2022-10-26 10:58:16.468750
1737,-1215.11,2022-10-26 10:58:16.484375
1738,-1213.6,2022-10-26 10:58:16.500000
1739,-1187.62,2022-10-26 10:58:16.515625
1740,-1141.02,2022-10-26 10:58:16.531250
1741,-1077.8,2022-10-26 10:58:16.546875
1742,-1001.62,2022-10-26 10:58:16.562500
1743,-917.38,2022-10-26 10:58:16.578125
1744,-831.93,2022-10-26 10:58:16.593750
1745,-754.29,2022-10-26 10:58:16.609375
1746,-693.65,2022-10-26 10:58:16.625000
1747,-655.91,2022-10-26 10:58:16.640625
1748,-640.47,2022-10-26 10:58:16.656250
1749,-639.27,2022-10-26 10:58:16.671875
1750,-638.57,2022-10-26 10:58:16.687500
1751,-623.18,2022-10-26 10:58:16.703125
1752,-581.64,2022-10-26 10:58:16.718750
1753,-508.59,2022-10-26 10:58:16.734375
1754,-406.4,2022-10-26 10:58:16.750000
1755,-283.33,2022-10-26 10:58:16.765625
1756,-151.0,2022-10-26 10:58:16.781250
1757,-21.84,2022-10-26 10:58:16.796875
1758,94.35,2022-10-26 10:58:16.812500
1759,192.37,2022-10-26 10:58:16.828125
1760,273.88,2022-10-26 10:58:16.843750
1761,346.43,2022-10-26 10:58:16.859375
1762,420.24,2022-10-26 10:58:16.875000
1763,502.04,2022-10-26 10:58:16.890625
1764,591.25,2022-10-26 10:58:16.906250
1765,679.13,2022-10-26 10:58:16.921875
1766,752.23,2022-10-26 10:58:16.937500
1767,798.13,2022-10-26 10:58:16.953125
1768,810.84,2022-10-26 10:58:16.968750
1769,792.64,2022-10-26 10:58:16.984375
1770,752.41,2022-10-26 10:58:17.000000
1771,701.41,2022-10-26 10:58:17.015625
1772,649.18,2022-10-26 10:58:17.031250
1773,601.44,2022-10-26 10:58:17.046875
1774,560.56,2022-10-26 10:58:17.062500
1775,525.55,2022-10-26 10:58:17.078125
1776,493.8,2022-10-26 10:58:17.093750
1777,461.08,2022-10-26 10:58:17.109375
1778,422.93,2022-10-26 10:58:17.125000
1779,375.87,2022-10-26 10:58:17.140625
1780,319.03,2022-10-26 10:58:17.156250
1781,255.34,2022-10-26 10:58:17.171875
1782,190.81,2022-10-26 10:58:17.187500
1783,132.45,2022-10-26 10:58:17.203125
1784,84.94,2022-10-26 10:58:17.218750
1785,49.07,2022-10-26 10:58:17.234375
1786,20.24,2022-10-26 10:58:17.250000
1787,-9.74,2022-10-26 10:58:17.265625
1788,-47.92,2022-10-26 10:58:17.281250
1789,-97.79,2022-10-26 10:58:17.296875
1790,-155.87,2022-10-26 10:58:17.312500
1791,-212.76,2022-10-26 10:58:17.328125
1792,-256.37,2022-10-26 10:58:17.343750
1793,-276.55,2022-10-26 10:58:17.359375
1794,-268.96,2022-10-26 10:58:17.375000
1795,-235.93,2022-10-26 10:58:17.390625
1796,-185.19,2022-10-26 10:58:17.406250
1797,-125.74,2022-10-26 10:58:17.421875
1798,-64.2,2022-10-26 10:58:17.437500
1799,-3.59,2022-10-26 10:58:17.453125
1800,55.83,2022-10-26 10:58:17.468750
1801,113.45,2022-10-26 10:58:17.484375
1802,166.78,2022-10-26 10:58:17.500000
1803,211.46,2022-10-26 10:58:17.515625
1804,243.69,2022-10-26 10:58:17.531250
1805,263.0,2022-10-26 10:58:17.546875
1806,274.37,2022-10-26 10:58:17.562500
1807,285.72,2022-10-26 10:58:17.578125
1808,303.21,2022-10-26 10:58:17.593750
1809,326.49,2022-10-26 10:58:17.609375
1810,346.72,2022-10-26 10:58:17.625000
1811,349.88,2022-10-26 10:58:17.640625
1812,323.74,2022-10-26 10:58:17.656250
1813,264.94,2022-10-26 10:58:17.671875
1814,182.35,2022-10-26 10:58:17.687500
1815,94.35,2022-10-26 10:58:17.703125
1816,20.81,2022-10-26 10:58:17.718750
1817,-24.02,2022-10-26 10:58:17.734375
1818,-35.97,2022-10-26 10:58:17.750000
1819,-19.53,2022-10-26 10:58:17.765625
1820,18.36,2022-10-26 10:58:17.781250
1821,72.66,2022-10-26 10:58:17.796875
1822,142.28,2022-10-26 10:58:17.812500
1823,226.7,2022-10-26 10:58:17.828125
1824,321.53,2022-10-26 10:58:17.843750
1825,417.11,2022-10-26 10:58:17.859375
1826,500.02,2022-10-26 10:58:17.875000
1827,558.94,2022-10-26 10:58:17.890625
1828,589.6,2022-10-26 10:58:17.906250
1829,594.46,2022-10-26 10:58:17.921875
1830,578.83,2022-10-26 10:58:17.937500
1831,545.87,2022-10-26 10:58:17.953125
1832,493.72,2022-10-26 10:58:17.968750
1833,417.42,2022-10-26 10:58:17.984375
1834,313.37,2022-10-26 10:58:18.000000
1835,182.09,2022-10-26 10:58:18.015625
1836,28.53,2022-10-26 10:58:18.031250
1837,-141.16,2022-10-26 10:58:18.046875
1838,-321.74,2022-10-26 10:58:18.062500
1839,-508.67,2022-10-26 10:58:18.078125
1840,-696.33,2022-10-26 10:58:18.093750
1841,-875.24,2022-10-26 10:58:18.109375
1842,-1033.3,2022-10-26 10:58:18.125000
1843,-1159.49,2022-10-26 10:58:18.140625
1844,-1248.16,2022-10-26 10:58:18.156250
1845,-1302.41,2022-10-26 10:58:18.171875
1846,-1331.92,2022-10-26 10:58:18.187500
1847,-1348.26,2022-10-26 10:58:18.203125
1848,-1359.35,2022-10-26 10:58:18.218750
1849,-1366.47,2022-10-26 10:58:18.234375
1850,-1365.2,2022-10-26 10:58:18.250000
1851,-1348.98,2022-10-26 10:58:18.265625
1852,-1312.57,2022-10-26 10:58:18.281250
1853,-1255.08,2022-10-26 10:58:18.296875
1854,-1179.89,2022-10-26 10:58:18.312500
1855,-1093.46,2022-10-26 10:58:18.328125
1856,-1003.25,2022-10-26 10:58:18.343750
1857,-914.64,2022-10-26 10:58:18.359375
1858,-829.31,2022-10-26 10:58:18.375000
1859,-745.3,2022-10-26 10:58:18.390625
1860,-658.26,2022-10-26 10:58:18.406250
1861,-564.25,2022-10-26 10:58:18.421875
1862,-461.72,2022-10-26 10:58:18.437500
1863,-351.7,2022-10-26 10:58:18.453125
1864,-237.78,2022-10-26 10:58:18.468750
1865,-124.73,2022-10-26 10:58:18.484375
1866,-16.79,2022-10-26 10:58:18.500000
1867,82.68,2022-10-26 10:58:18.515625
1868,170.58,2022-10-26 10:58:18.531250
1869,243.93,2022-10-26 10:58:18.546875
1870,299.74,2022-10-26 10:58:18.562500
1871,335.96,2022-10-26 10:58:18.578125
1872,351.76,2022-10-26 10:58:18.593750
1873,348.85,2022-10-26 10:58:18.609375
1874,331.06,2022-10-26 10:58:18.625000
1875,303.3,2022-10-26 10:58:18.640625
1876,270.37,2022-10-26 10:58:18.656250
1877,235.93,2022-10-26 10:58:18.671875
1878,202.63,2022-10-26 10:58:18.687500
1879,172.53,2022-10-26 10:58:18.703125
1880,148.09,2022-10-26 10:58:18.718750
1881,132.3,2022-10-26 10:58:18.734375
1882,129.19,2022-10-26 10:58:18.750000
1883,141.8,2022-10-26 10:58:18.765625
1884,172.14,2022-10-26 10:58:18.781250
1885,219.95,2022-10-26 10:58:18.796875
1886,282.32,2022-10-26 10:58:18.812500
1887,354.05,2022-10-26 10:58:18.828125
1888,428.08,2022-10-26 10:58:18.843750
1889,495.9,2022-10-26 10:58:18.859375
1890,549.59,2022-10-26 10:58:18.875000
1891,583.31,2022-10-26 10:58:18.890625
1892,595.21,2022-10-26 10:58:18.906250
1893,588.2,2022-10-26 10:58:18.921875
1894,568.85,2022-10-26 10:58:18.937500
1895,545.51,2022-10-26 10:58:18.953125
1896,525.15,2022-10-26 10:58:18.968750
1897,511.63,2022-10-26 10:58:18.984375
1898,505.38,2022-10-26 10:58:19.000000
1899,505.09,2022-10-26 10:58:19.015625
1900,509.98,2022-10-26 10:58:19.031250
1901,520.65,2022-10-26 10:58:19.046875
1902,538.63,2022-10-26 10:58:19.062500
1903,564.24,2022-10-26 10:58:19.078125
1904,594.55,2022-10-26 10:58:19.093750
1905,622.57,2022-10-26 10:58:19.109375
1906,639.07,2022-10-26 10:58:19.125000
1907,636.06,2022-10-26 10:58:19.140625
1908,610.53,2022-10-26 10:58:19.156250
1909,566.3,2022-10-26 10:58:19.171875
1910,512.09,2022-10-26 10:58:19.187500
1911,457.69,2022-10-26 10:58:19.203125
1912,409.35,2022-10-26 10:58:19.218750
1913,366.57,2022-10-26 10:58:19.234375
1914,323.97,2022-10-26 10:58:19.250000
1915,275.53,2022-10-26 10:58:19.265625
1916,219.6,2022-10-26 10:58:19.281250
1917,160.75,2022-10-26 10:58:19.296875
1918,107.18,2022-10-26 10:58:19.312500
1919,66.08,2022-10-26 10:58:19.328125
1920,39.86,2022-10-26 10:58:19.343750
1921,25.02,2022-10-26 10:58:19.359375
1922,15.6,2022-10-26 10:58:19.375000
1923,7.27,2022-10-26 10:58:19.390625
1924,-0.21,2022-10-26 10:58:19.406250
1925,-3.07,2022-10-26 10:58:19.421875
1926,3.06,2022-10-26 10:58:19.437500
1927,20.17,2022-10-26 10:58:19.453125
1928,46.35,2022-10-26 10:58:19.468750
1929,76.87,2022-10-26 10:58:19.484375
1930,107.51,2022-10-26 10:58:19.500000
1931,135.26,2022-10-26 10:58:19.515625
1932,158.42,2022-10-26 10:58:19.531250
1933,174.65,2022-10-26 10:58:19.546875
1934,180.1,2022-10-26 10:58:19.562500
1935,170.75,2022-10-26 10:58:19.578125
1936,144.73,2022-10-26 10:58:19.593750
1937,103.62,2022-10-26 10:58:19.609375
1938,52.47,2022-10-26 10:58:19.625000
1939,-2.74,2022-10-26 10:58:19.640625
1940,-57.05,2022-10-26 10:58:19.656250
1941,-106.52,2022-10-26 10:58:19.671875
1942,-147.08,2022-10-26 10:58:19.687500
1943,-174.22,2022-10-26 10:58:19.703125
1944,-183.3,2022-10-26 10:58:19.718750
1945,-171.69,2022-10-26 10:58:19.734375
1946,-141.39,2022-10-26 10:58:19.750000
1947,-99.11,2022-10-26 10:58:19.765625
1948,-54.46,2022-10-26 10:58:19.781250
1949,-15.74,2022-10-26 10:58:19.796875
1950,13.58,2022-10-26 10:58:19.812500
1951,36.32,2022-10-26 10:58:19.828125
1952,60.25,2022-10-26 10:58:19.843750
1953,94.06,2022-10-26 10:58:19.859375
1954,143.93,2022-10-26 10:58:19.875000
1955,211.01,2022-10-26 10:58:19.890625
1956,290.64,2022-10-26 10:58:19.906250
1957,374.05,2022-10-26 10:58:19.921875
1958,450.17,2022-10-26 10:58:19.937500
1959,509.49,2022-10-26 10:58:19.953125
1960,547.49,2022-10-26 10:58:19.968750
1961,566.01,2022-10-26 10:58:19.984375
1962,571.8,2022-10-26 10:58:20.000000
1963,571.78,2022-10-26 10:58:20.015625
1964,568.42,2022-10-26 10:58:20.031250
1965,556.89,2022-10-26 10:58:20.046875
1966,527.45,2022-10-26 10:58:20.062500
1967,470.77,2022-10-26 10:58:20.078125
1968,383.14,2022-10-26 10:58:20.093750
1969,268.63,2022-10-26 10:58:20.109375
1970,136.81,2022-10-26 10:58:20.125000
1971,-1.74,2022-10-26 10:58:20.140625
1972,-138.81,2022-10-26 10:58:20.156250
1973,-271.04,2022-10-26 10:58:20.171875
1974,-397.37,2022-10-26 10:58:20.187500
1975,-516.53,2022-10-26 10:58:20.203125
1976,-625.12,2022-10-26 10:58:20.218750
1977,-717.61,2022-10-26 10:58:20.234375
1978,-788.62,2022-10-26 10:58:20.250000
1979,-835.29,2022-10-26 10:58:20.265625
1980,-857.94,2022-10-26 10:58:20.281250
1981,-859.64,2022-10-26 10:58:20.296875
1982,-844.69,2022-10-26 10:58:20.312500
1983,-817.8,2022-10-26 10:58:20.328125
1984,-783.12,2022-10-26 10:58:20.343750
1985,-744.02,2022-10-26 10:58:20.359375
1986,-701.23,2022-10-26 10:58:20.375000
1987,-652.94,2022-10-26 10:58:20.390625
1988,-595.17,2022-10-26 10:58:20.406250
1989,-523.91,2022-10-26 10:58:20.421875
1990,-437.23,2022-10-26 10:58:20.437500
1991,-337.18,2022-10-26 10:58:20.453125
1992,-230.01,2022-10-26 10:58:20.468750
1993,-123.36,2022-10-26 10:58:20.484375
1994,-24.55,2022-10-26 10:58:20.500000
1995,61.73,2022-10-26 10:58:20.515625
1996,133.77,2022-10-26 10:58:20.531250
1997,191.83,2022-10-26 10:58:20.546875
1998,236.31,2022-10-26 10:58:20.562500
1999,266.18,2022-10-26 10:58:20.578125
2000,278.95,2022-10-26 10:58:20.593750
2001,272.42,2022-10-26 10:58:20.609375
2002,246.55,2022-10-26 10:58:20.625000
2003,203.72,2022-10-26 10:58:20.640625
2004,149.83,2022-10-26 10:58:20.656250
2005,92.05,2022-10-26 10:58:20.671875
2006,37.89,2022-10-26 10:58:20.687500
2007,-5.71,2022-10-26 10:58:20.703125
2008,-33.83,2022-10-26 10:58:20.718750
2009,-44.48,2022-10-26 10:58:20.734375
2010,-39.81,2022-10-26 10:58:20.750000
2011,-26.09,2022-10-26 10:58:20.765625
2012,-12.67,2022-10-26 10:58:20.781250
2013,-8.92,2022-10-26 10:58:20.796875
2014,-20.02,2022-10-26 10:58:20.812500
2015,-43.94,2022-10-26 10:58:20.828125
2016,-72.43,2022-10-26 10:58:20.843750
2017,-95.76,2022-10-26 10:58:20.859375
2018,-107.7,2022-10-26 10:58:20.875000
2019,-108.71,2022-10-26 10:58:20.890625
2020,-104.78,2022-10-26 10:58:20.906250
2021,-103.47,2022-10-26 10:58:20.921875
2022,-109.41,2022-10-26 10:58:20.937500
2023,-123.88,2022-10-26 10:58:20.953125
2024,-146.73,2022-10-26 10:58:20.968750
2025,-178.92,2022-10-26 10:58:20.984375
2026,-223.34,2022-10-26 10:58:21.000000
2027,-282.42,2022-10-26 10:58:21.015625
2028,-355.83,2022-10-26 10:58:21.031250
2029,-436.94,2022-10-26 10:58:21.046875
2030,-513.9,2022-10-26 10:58:21.062500
2031,-573.14,2022-10-26 10:58:21.078125
2032,-603.28,2022-10-26 10:58:21.093750
2033,-598.98,2022-10-26 10:58:21.109375
2034,-561.9,2022-10-26 10:58:21.125000
2035,-499.81,2022-10-26 10:58:21.140625
2036,-423.06,2022-10-26 10:58:21.156250
2037,-341.83,2022-10-26 10:58:21.171875
2038,-262.97,2022-10-26 10:58:21.187500
2039,-188.73,2022-10-26 10:58:21.203125
2040,-118.64,2022-10-26 10:58:21.218750
2041,-52.86,2022-10-26 10:58:21.234375
2042,4.98,2022-10-26 10:58:21.250000
2043,48.29,2022-10-26 10:58:21.265625
2044,70.24,2022-10-26 10:58:21.281250
2045,68.21,2022-10-26 10:58:21.296875
2046,46.34,2022-10-26 10:58:21.312500
2047,14.56,2022-10-26 10:58:21.328125
2048,-14.9,2022-10-26 10:58:21.343750
2049,-31.29,2022-10-26 10:58:21.359375
2050,-28.4,2022-10-26 10:58:21.375000
2051,-4.67,2022-10-26 10:58:21.390625
2052,37.68,2022-10-26 10:58:21.406250
2053,94.65,2022-10-26 10:58:21.421875
2054,162.04,2022-10-26 10:58:21.437500
2055,236.62,2022-10-26 10:58:21.453125
2056,317.06,2022-10-26 10:58:21.468750
2057,402.98,2022-10-26 10:58:21.484375
2058,495.04,2022-10-26 10:58:21.500000
2059,593.51,2022-10-26 10:58:21.515625
2060,695.61,2022-10-26 10:58:21.531250
2061,795.13,2022-10-26 10:58:21.546875
2062,883.23,2022-10-26 10:58:21.562500
2063,951.25,2022-10-26 10:58:21.578125
2064,994.25,2022-10-26 10:58:21.593750
2065,1012.23,2022-10-26 10:58:21.609375
2066,1008.97,2022-10-26 10:58:21.625000
2067,988.27,2022-10-26 10:58:21.640625
2068,951.35,2022-10-26 10:58:21.656250
2069,896.58,2022-10-26 10:58:21.671875
2070,821.12,2022-10-26 10:58:21.687500
2071,724.16,2022-10-26 10:58:21.703125
2072,609.36,2022-10-26 10:58:21.718750
2073,484.28,2022-10-26 10:58:21.734375
2074,357.22,2022-10-26 10:58:21.750000
2075,234.04,2022-10-26 10:58:21.765625
2076,116.87,2022-10-26 10:58:21.781250
2077,5.32,2022-10-26 10:58:21.796875
2078,-100.15,2022-10-26 10:58:21.812500
2079,-196.08,2022-10-26 10:58:21.828125
2080,-275.91,2022-10-26 10:58:21.843750
2081,-332.14,2022-10-26 10:58:21.859375
2082,-358.67,2022-10-26 10:58:21.875000
2083,-352.3,2022-10-26 10:58:21.890625
2084,-312.13,2022-10-26 10:58:21.906250
2085,-238.68,2022-10-26 10:58:21.921875
2086,-133.67,2022-10-26 10:58:21.937500
2087,-1.55,2022-10-26 10:58:21.953125
2088,148.88,2022-10-26 10:58:21.968750
2089,303.14,2022-10-26 10:58:21.984375
2090,443.29,2022-10-26 10:58:22.000000
2091,552.42,2022-10-26 10:58:22.015625
2092,619.29,2022-10-26 10:58:22.031250
2093,641.43,2022-10-26 10:58:22.046875
2094,625.35,2022-10-26 10:58:22.062500
2095,583.27,2022-10-26 10:58:22.078125
2096,527.96,2022-10-26 10:58:22.093750
2097,466.89,2022-10-26 10:58:22.109375
2098,400.0,2022-10-26 10:58:22.125000
2099,321.19,2022-10-26 10:58:22.140625
2100,222.0,2022-10-26 10:58:22.156250
2101,98.84,2022-10-26 10:58:22.171875
2102,-42.79,2022-10-26 10:58:22.187500
2103,-191.75,2022-10-26 10:58:22.203125
2104,-336.57,2022-10-26 10:58:22.218750
2105,-468.82,2022-10-26 10:58:22.234375
2106,-584.72,2022-10-26 10:58:22.250000
2107,-683.22,2022-10-26 10:58:22.265625
2108,-761.88,2022-10-26 10:58:22.281250
2109,-815.07,2022-10-26 10:58:22.296875
2110,-835.96,2022-10-26 10:58:22.312500
2111,-820.76,2022-10-26 10:58:22.328125
2112,-773.65,2022-10-26 10:58:22.343750
2113,-706.58,2022-10-26 10:58:22.359375
2114,-634.9,2022-10-26 10:58:22.375000
2115,-571.52,2022-10-26 10:58:22.390625
2116,-521.9,2022-10-26 10:58:22.406250
2117,-483.46,2022-10-26 10:58:22.421875
2118,-448.95,2022-10-26 10:58:22.437500
2119,-410.87,2022-10-26 10:58:22.453125
2120,-364.97,2022-10-26 10:58:22.468750
2121,-311.39,2022-10-26 10:58:22.484375
2122,-253.4,2022-10-26 10:58:22.500000
2123,-195.08,2022-10-26 10:58:22.515625
2124,-139.52,2022-10-26 10:58:22.531250
2125,-88.79,2022-10-26 10:58:22.546875
2126,-43.5,2022-10-26 10:58:22.562500
2127,-3.31,2022-10-26 10:58:22.578125
2128,32.64,2022-10-26 10:58:22.593750
2129,64.91,2022-10-26 10:58:22.609375
2130,93.3,2022-10-26 10:58:22.625000
2131,116.79,2022-10-26 10:58:22.640625
2132,133.87,2022-10-26 10:58:22.656250
2133,142.74,2022-10-26 10:58:22.671875
2134,141.16,2022-10-26 10:58:22.687500
2135,127.0,2022-10-26 10:58:22.703125
2136,98.09,2022-10-26 10:58:22.718750
2137,53.5,2022-10-26 10:58:22.734375
2138,-5.04,2022-10-26 10:58:22.750000
2139,-72.66,2022-10-26 10:58:22.765625
2140,-141.27,2022-10-26 10:58:22.781250
2141,-201.87,2022-10-26 10:58:22.796875
2142,-247.79,2022-10-26 10:58:22.812500
2143,-276.76,2022-10-26 10:58:22.828125
2144,-291.35,2022-10-26 10:58:22.843750
2145,-297.39,2022-10-26 10:58:22.859375
2146,-300.94,2022-10-26 10:58:22.875000
2147,-304.75,2022-10-26 10:58:22.890625
2148,-307.17,2022-10-26 10:58:22.906250
2149,-303.36,2022-10-26 10:58:22.921875
2150,-287.31,2022-10-26 10:58:22.937500
2151,-254.76,2022-10-26 10:58:22.953125
2152,-205.27,2022-10-26 10:58:22.968750
2153,-142.12,2022-10-26 10:58:22.984375
2154,-71.08,2022-10-26 10:58:23.000000
2155,1.15,2022-10-26 10:58:23.015625
2156,69.41,2022-10-26 10:58:23.031250
2157,130.84,2022-10-26 10:58:23.046875
2158,184.41,2022-10-26 10:58:23.062500
2159,229.96,2022-10-26 10:58:23.078125
2160,266.55,2022-10-26 10:58:23.093750
2161,291.9,2022-10-26 10:58:23.109375
2162,304.22,2022-10-26 10:58:23.125000
2163,302.99,2022-10-26 10:58:23.140625
2164,290.42,2022-10-26 10:58:23.156250
2165,270.39,2022-10-26 10:58:23.171875
2166,246.08,2022-10-26 10:58:23.187500
2167,217.7,2022-10-26 10:58:23.203125
2168,182.32,2022-10-26 10:58:23.218750
2169,135.31,2022-10-26 10:58:23.234375
2170,73.84,2022-10-26 10:58:23.250000
2171,-0.98,2022-10-26 10:58:23.265625
2172,-83.78,2022-10-26 10:58:23.281250
2173,-166.67,2022-10-26 10:58:23.296875
2174,-241.53,2022-10-26 10:58:23.312500
2175,-302.66,2022-10-26 10:58:23.328125
2176,-346.77,2022-10-26 10:58:23.343750
2177,-372.78,2022-10-26 10:58:23.359375
2178,-381.22,2022-10-26 10:58:23.375000
2179,-373.14,2022-10-26 10:58:23.390625
2180,-349.88,2022-10-26 10:58:23.406250
2181,-313.36,2022-10-26 10:58:23.421875
2182,-265.55,2022-10-26 10:58:23.437500
2183,-208.26,2022-10-26 10:58:23.453125
2184,-143.21,2022-10-26 10:58:23.468750
2185,-71.25,2022-10-26 10:58:23.484375
2186,7.19,2022-10-26 10:58:23.500000
2187,91.78,2022-10-26 10:58:23.515625
2188,181.21,2022-10-26 10:58:23.531250
2189,272.33,2022-10-26 10:58:23.546875
2190,358.94,2022-10-26 10:58:23.562500
2191,433.3,2022-10-26 10:58:23.578125
2192,488.5,2022-10-26 10:58:23.593750
2193,521.07,2022-10-26 10:58:23.609375
2194,533.71,2022-10-26 10:58:23.625000
2195,533.18,2022-10-26 10:58:23.640625
2196,527.49,2022-10-26 10:58:23.656250
2197,522.05,2022-10-26 10:58:23.671875
2198,517.68,2022-10-26 10:58:23.687500
2199,510.84,2022-10-26 10:58:23.703125
2200,495.64,2022-10-26 10:58:23.718750
2201,466.43,2022-10-26 10:58:23.734375
2202,418.44,2022-10-26 10:58:23.750000
2203,349.0,2022-10-26 10:58:23.765625
2204,257.73,2022-10-26 10:58:23.781250
2205,147.54,2022-10-26 10:58:23.796875
2206,25.86,2022-10-26 10:58:23.812500
2207,-96.74,2022-10-26 10:58:23.828125
2208,-208.85,2022-10-26 10:58:23.843750
2209,-301.39,2022-10-26 10:58:23.859375
2210,-370.72,2022-10-26 10:58:23.875000
2211,-418.62,2022-10-26 10:58:23.890625
2212,-449.87,2022-10-26 10:58:23.906250
2213,-469.61,2022-10-26 10:58:23.921875
2214,-481.97,2022-10-26 10:58:23.937500
2215,-490.23,2022-10-26 10:58:23.953125
2216,-497.77,2022-10-26 10:58:23.968750
2217,-508.37,2022-10-26 10:58:23.984375
2218,-525.51,2022-10-26 10:58:24.000000
2219,-549.62,2022-10-26 10:58:24.015625
2220,-576.83,2022-10-26 10:58:24.031250
2221,-598.47,2022-10-26 10:58:24.046875
2222,-602.89,2022-10-26 10:58:24.062500
2223,-578.85,2022-10-26 10:58:24.078125
2224,-519.45,2022-10-26 10:58:24.093750
2225,-424.95,2022-10-26 10:58:24.109375
2226,-302.43,2022-10-26 10:58:24.125000
2227,-164.03,2022-10-26 10:58:24.140625
2228,-22.7,2022-10-26 10:58:24.156250
2229,111.54,2022-10-26 10:58:24.171875
2230,233.04,2022-10-26 10:58:24.187500
2231,340.42,2022-10-26 10:58:24.203125
2232,433.36,2022-10-26 10:58:24.218750
2233,511.22,2022-10-26 10:58:24.234375
2234,572.5,2022-10-26 10:58:24.250000
2235,616.82,2022-10-26 10:58:24.265625
2236,646.31,2022-10-26 10:58:24.281250
2237,665.13,2022-10-26 10:58:24.296875
2238,677.31,2022-10-26 10:58:24.312500
2239,683.6,2022-10-26 10:58:24.328125
2240,680.06,2022-10-26 10:58:24.343750
2241,660.28,2022-10-26 10:58:24.359375
2242,619.09,2022-10-26 10:58:24.375000
2243,556.44,2022-10-26 10:58:24.390625
2244,477.75,2022-10-26 10:58:24.406250
2245,392.44,2022-10-26 10:58:24.421875
2246,310.31,2022-10-26 10:58:24.437500
2247,237.59,2022-10-26 10:58:24.453125
2248,175.56,2022-10-26 10:58:24.468750
2249,120.78,2022-10-26 10:58:24.484375
2250,68.22,2022-10-26 10:58:24.500000
2251,15.0,2022-10-26 10:58:24.515625
2252,-37.4,2022-10-26 10:58:24.531250
2253,-82.44,2022-10-26 10:58:24.546875
2254,-112.07,2022-10-26 10:58:24.562500
2255,-120.88,2022-10-26 10:58:24.578125
2256,-109.39,2022-10-26 10:58:24.593750
2257,-85.2,2022-10-26 10:58:24.609375
2258,-59.76,2022-10-26 10:58:24.625000
2259,-43.91,2022-10-26 10:58:24.640625
2260,-43.24,2022-10-26 10:58:24.656250
2261,-55.65,2022-10-26 10:58:24.671875
2262,-74.15,2022-10-26 10:58:24.687500
2263,-90.01,2022-10-26 10:58:24.703125
2264,-98.07,2022-10-26 10:58:24.718750
2265,-97.92,2022-10-26 10:58:24.734375
2266,-92.54,2022-10-26 10:58:24.750000
2267,-85.23,2022-10-26 10:58:24.765625
2268,-77.24,2022-10-26 10:58:24.781250
2269,-67.96,2022-10-26 10:58:24.796875
2270,-57.29,2022-10-26 10:58:24.812500
2271,-47.09,2022-10-26 10:58:24.828125
2272,-41.92,2022-10-26 10:58:24.843750
2273,-46.43,2022-10-26 10:58:24.859375
2274,-62.47,2022-10-26 10:58:24.875000
2275,-87.0,2022-10-26 10:58:24.890625
2276,-112.75,2022-10-26 10:58:24.906250
2277,-130.9,2022-10-26 10:58:24.921875
2278,-134.88,2022-10-26 10:58:24.937500
2279,-122.54,2022-10-26 10:58:24.953125
2280,-96.48,2022-10-26 10:58:24.968750
2281,-62.62,2022-10-26 10:58:24.984375
2282,-27.94,2022-10-26 10:58:25.000000
2283,0.98,2022-10-26 10:58:25.015625
2284,18.48,2022-10-26 10:58:25.031250
2285,21.34,2022-10-26 10:58:25.046875
2286,9.17,2022-10-26 10:58:25.062500
2287,-14.86,2022-10-26 10:58:25.078125
2288,-44.57,2022-10-26 10:58:25.093750
2289,-73.21,2022-10-26 10:58:25.109375
2290,-96.09,2022-10-26 10:58:25.125000
2291,-111.82,2022-10-26 10:58:25.140625
2292,-122.38,2022-10-26 10:58:25.156250
2293,-131.13,2022-10-26 10:58:25.171875
2294,-141.78,2022-10-26 10:58:25.187500
2295,-156.89,2022-10-26 10:58:25.203125
2296,-178.33,2022-10-26 10:58:25.218750
2297,-206.38,2022-10-26 10:58:25.234375
2298,-238.51,2022-10-26 10:58:25.250000
2299,-269.0,2022-10-26 10:58:25.265625
2300,-289.17,2022-10-26 10:58:25.281250
2301,-290.01,2022-10-26 10:58:25.296875
2302,-265.7,2022-10-26 10:58:25.312500
2303,-214.8,2022-10-26 10:58:25.328125
2304,-141.48,2022-10-26 10:58:25.343750
2305,-53.55,2022-10-26 10:58:25.359375
2306,39.74,2022-10-26 10:58:25.375000
2307,129.36,2022-10-26 10:58:25.390625
2308,208.48,2022-10-26 10:58:25.406250
2309,273.03,2022-10-26 10:58:25.421875
2310,322.39,2022-10-26 10:58:25.437500
2311,360.27,2022-10-26 10:58:25.453125
2312,393.13,2022-10-26 10:58:25.468750
2313,428.22,2022-10-26 10:58:25.484375
2314,469.8,2022-10-26 10:58:25.500000
2315,516.17,2022-10-26 10:58:25.515625
2316,559.2,2022-10-26 10:58:25.531250
2317,587.46,2022-10-26 10:58:25.546875
2318,591.0,2022-10-26 10:58:25.562500
2319,565.5,2022-10-26 10:58:25.578125
2320,513.92,2022-10-26 10:58:25.593750
2321,444.96,2022-10-26 10:58:25.609375
2322,369.11,2022-10-26 10:58:25.625000
2323,294.52,2022-10-26 10:58:25.640625
2324,223.44,2022-10-26 10:58:25.656250
2325,152.19,2022-10-26 10:58:25.671875
2326,73.28,2022-10-26 10:58:25.687500
2327,-20.75,2022-10-26 10:58:25.703125
2328,-133.26,2022-10-26 10:58:25.718750
2329,-262.45,2022-10-26 10:58:25.734375
2330,-401.92,2022-10-26 10:58:25.750000
2331,-543.3,2022-10-26 10:58:25.765625
2332,-677.85,2022-10-26 10:58:25.781250
2333,-796.72,2022-10-26 10:58:25.796875
2334,-891.63,2022-10-26 10:58:25.812500
2335,-954.79,2022-10-26 10:58:25.828125
2336,-981.06,2022-10-26 10:58:25.843750
2337,-970.16,2022-10-26 10:58:25.859375
2338,-928.18,2022-10-26 10:58:25.875000
2339,-867.62,2022-10-26 10:58:25.890625
2340,-803.0,2022-10-26 10:58:25.906250
2341,-746.2,2022-10-26 10:58:25.921875
2342,-701.62,2022-10-26 10:58:25.937500
2343,-664.23,2022-10-26 10:58:25.953125
2344,-622.21,2022-10-26 10:58:25.968750
2345,-560.9,2022-10-26 10:58:25.984375
2346,-468.85,2022-10-26 10:58:26.000000
2347,-342.02,2022-10-26 10:58:26.015625
2348,-184.88,2022-10-26 10:58:26.031250
2349,-8.84,2022-10-26 10:58:26.046875
2350,170.98,2022-10-26 10:58:26.062500
2351,340.46,2022-10-26 10:58:26.078125
2352,489.47,2022-10-26 10:58:26.093750
2353,613.59,2022-10-26 10:58:26.109375
2354,712.6,2022-10-26 10:58:26.125000
2355,788.97,2022-10-26 10:58:26.140625
2356,845.09,2022-10-26 10:58:26.156250
2357,882.02,2022-10-26 10:58:26.171875
2358,900.04,2022-10-26 10:58:26.187500
2359,899.19,2022-10-26 10:58:26.203125
2360,881.06,2022-10-26 10:58:26.218750
2361,848.86,2022-10-26 10:58:26.234375
2362,806.63,2022-10-26 10:58:26.250000
2363,758.2,2022-10-26 10:58:26.265625
2364,705.86,2022-10-26 10:58:26.281250
2365,650.32,2022-10-26 10:58:26.296875
2366,591.73,2022-10-26 10:58:26.312500
2367,530.16,2022-10-26 10:58:26.328125
2368,466.42,2022-10-26 10:58:26.343750
2369,401.93,2022-10-26 10:58:26.359375
2370,337.89,2022-10-26 10:58:26.375000
2371,274.23,2022-10-26 10:58:26.390625
2372,208.75,2022-10-26 10:58:26.406250
2373,137.54,2022-10-26 10:58:26.421875
2374,56.67,2022-10-26 10:58:26.437500
2375,-35.49,2022-10-26 10:58:26.453125
2376,-137.38,2022-10-26 10:58:26.468750
2377,-243.93,2022-10-26 10:58:26.484375
2378,-347.81,2022-10-26 10:58:26.500000
2379,-441.91,2022-10-26 10:58:26.515625
2380,-520.82,2022-10-26 10:58:26.531250
2381,-580.38,2022-10-26 10:58:26.546875
2382,-617.02,2022-10-26 10:58:26.562500
2383,-626.77,2022-10-26 10:58:26.578125
2384,-606.81,2022-10-26 10:58:26.593750
2385,-556.88,2022-10-26 10:58:26.609375
2386,-481.47,2022-10-26 10:58:26.625000
2387,-389.95,2022-10-26 10:58:26.640625
2388,-294.09,2022-10-26 10:58:26.656250
2389,-204.24,2022-10-26 10:58:26.671875
2390,-125.89,2022-10-26 10:58:26.687500
2391,-59.25,2022-10-26 10:58:26.703125
2392,-1.49,2022-10-26 10:58:26.718750
2393,50.17,2022-10-26 10:58:26.734375
2394,95.57,2022-10-26 10:58:26.750000
2395,131.64,2022-10-26 10:58:26.765625
2396,154.07,2022-10-26 10:58:26.781250
2397,160.02,2022-10-26 10:58:26.796875
2398,149.39,2022-10-26 10:58:26.812500
2399,124.44,2022-10-26 10:58:26.828125
2400,88.11,2022-10-26 10:58:26.843750
2401,43.54,2022-10-26 10:58:26.859375
2402,-6.04,2022-10-26 10:58:26.875000
2403,-56.8,2022-10-26 10:58:26.890625
2404,-103.23,2022-10-26 10:58:26.906250
2405,-139.47,2022-10-26 10:58:26.921875
2406,-161.33,2022-10-26 10:58:26.937500
2407,-167.61,2022-10-26 10:58:26.953125
2408,-160.95,2022-10-26 10:58:26.968750
2409,-147.1,2022-10-26 10:58:26.984375
2410,-132.59,2022-10-26 10:58:27.000000
2411,-123.03,2022-10-26 10:58:27.015625
2412,-122.4,2022-10-26 10:58:27.031250
2413,-133.01,2022-10-26 10:58:27.046875
2414,-156.15,2022-10-26 10:58:27.062500
2415,-190.56,2022-10-26 10:58:27.078125
2416,-232.17,2022-10-26 10:58:27.093750
2417,-273.77,2022-10-26 10:58:27.109375
2418,-306.11,2022-10-26 10:58:27.125000
2419,-320.34,2022-10-26 10:58:27.140625
2420,-311.41,2022-10-26 10:58:27.156250
2421,-280.36,2022-10-26 10:58:27.171875
2422,-234.56,2022-10-26 10:58:27.187500
2423,-185.95,2022-10-26 10:58:27.203125
2424,-148.23,2022-10-26 10:58:27.218750
2425,-133.31,2022-10-26 10:58:27.234375
2426,-147.67,2022-10-26 10:58:27.250000
2427,-190.25,2022-10-26 10:58:27.265625
2428,-253.79,2022-10-26 10:58:27.281250
2429,-326.52,2022-10-26 10:58:27.296875
2430,-396.18,2022-10-26 10:58:27.312500
2431,-453.12,2022-10-26 10:58:27.328125
2432,-492.4,2022-10-26 10:58:27.343750
2433,-512.97,2022-10-26 10:58:27.359375
2434,-516.17,2022-10-26 10:58:27.375000
2435,-504.59,2022-10-26 10:58:27.390625
2436,-481.32,2022-10-26 10:58:27.406250
2437,-449.81,2022-10-26 10:58:27.421875
2438,-413.91,2022-10-26 10:58:27.437500
2439,-377.09,2022-10-26 10:58:27.453125
2440,-340.9,2022-10-26 10:58:27.468750
2441,-304.48,2022-10-26 10:58:27.484375
2442,-264.73,2022-10-26 10:58:27.500000
2443,-218.11,2022-10-26 10:58:27.515625
2444,-162.69,2022-10-26 10:58:27.531250
2445,-99.15,2022-10-26 10:58:27.546875
2446,-31.21,2022-10-26 10:58:27.562500
2447,36.14,2022-10-26 10:58:27.578125
2448,97.97,2022-10-26 10:58:27.593750
2449,150.56,2022-10-26 10:58:27.609375
2450,191.73,2022-10-26 10:58:27.625000
2451,221.15,2022-10-26 10:58:27.640625
2452,240.53,2022-10-26 10:58:27.656250
2453,252.84,2022-10-26 10:58:27.671875
2454,262.03,2022-10-26 10:58:27.687500
2455,271.62,2022-10-26 10:58:27.703125
2456,283.79,2022-10-26 10:58:27.718750
2457,299.41,2022-10-26 10:58:27.734375
2458,318.83,2022-10-26 10:58:27.750000
2459,342.53,2022-10-26 10:58:27.765625
2460,371.82,2022-10-26 10:58:27.781250
2461,407.13,2022-10-26 10:58:27.796875
2462,447.13,2022-10-26 10:58:27.812500
2463,488.19,2022-10-26 10:58:27.828125
2464,525.46,2022-10-26 10:58:27.843750
2465,555.37,2022-10-26 10:58:27.859375
2466,576.59,2022-10-26 10:58:27.875000
2467,589.94,2022-10-26 10:58:27.890625
2468,596.74,2022-10-26 10:58:27.906250
2469,596.51,2022-10-26 10:58:27.921875
2470,586.55,2022-10-26 10:58:27.937500
2471,564.4,2022-10-26 10:58:27.953125
2472,530.77,2022-10-26 10:58:27.968750
2473,490.86,2022-10-26 10:58:27.984375
2474,452.99,2022-10-26 10:58:28.000000
2475,423.77,2022-10-26 10:58:28.015625
2476,404.08,2022-10-26 10:58:28.031250
2477,387.48,2022-10-26 10:58:28.046875
2478,363.75,2022-10-26 10:58:28.062500
2479,325.56,2022-10-26 10:58:28.078125
2480,273.56,2022-10-26 10:58:28.093750
2481,216.81,2022-10-26 10:58:28.109375
2482,168.06,2022-10-26 10:58:28.125000
2483,136.4,2022-10-26 10:58:28.140625
2484,122.73,2022-10-26 10:58:28.156250
2485,118.94,2022-10-26 10:58:28.171875
2486,112.02,2022-10-26 10:58:28.187500
2487,90.84,2022-10-26 10:58:28.203125
2488,49.42,2022-10-26 10:58:28.218750
2489,-10.98,2022-10-26 10:58:28.234375
2490,-84.05,2022-10-26 10:58:28.250000
2491,-162.08,2022-10-26 10:58:28.265625
2492,-237.83,2022-10-26 10:58:28.281250
2493,-307.24,2022-10-26 10:58:28.296875
2494,-369.36,2022-10-26 10:58:28.312500
2495,-425.84,2022-10-26 10:58:28.328125
2496,-480.15,2022-10-26 10:58:28.343750
2497,-535.71,2022-10-26 10:58:28.359375
2498,-594.5,2022-10-26 10:58:28.375000
2499,-657.38,2022-10-26 10:58:28.390625
2500,-723.65,2022-10-26 10:58:28.406250
2501,-790.85,2022-10-26 10:58:28.421875
2502,-855.16,2022-10-26 10:58:28.437500
2503,-910.06,2022-10-26 10:58:28.453125
2504,-945.76,2022-10-26 10:58:28.468750
2505,-949.81,2022-10-26 10:58:28.484375
2506,-910.2,2022-10-26 10:58:28.500000
2507,-820.29,2022-10-26 10:58:28.515625
2508,-682.88,2022-10-26 10:58:28.531250
2509,-511.51,2022-10-26 10:58:28.546875
2510,-327.5,2022-10-26 10:58:28.562500
2511,-153.63,2022-10-26 10:58:28.578125
2512,-6.69,2022-10-26 10:58:28.593750
2513,105.9,2022-10-26 10:58:28.609375
2514,185.93,2022-10-26 10:58:28.625000
2515,239.92,2022-10-26 10:58:28.640625
2516,273.91,2022-10-26 10:58:28.656250
2517,291.22,2022-10-26 10:58:28.671875
2518,292.84,2022-10-26 10:58:28.687500
2519,281.38,2022-10-26 10:58:28.703125
2520,262.71,2022-10-26 10:58:28.718750
2521,246.18,2022-10-26 10:58:28.734375
2522,239.93,2022-10-26 10:58:28.750000
2523,246.19,2022-10-26 10:58:28.765625
2524,259.52,2022-10-26 10:58:28.781250
2525,269.44,2022-10-26 10:58:28.796875
2526,266.39,2022-10-26 10:58:28.812500
2527,247.53,2022-10-26 10:58:28.828125
2528,218.16,2022-10-26 10:58:28.843750
2529,187.4,2022-10-26 10:58:28.859375
2530,161.45,2022-10-26 10:58:28.875000
2531,139.44,2022-10-26 10:58:28.890625
2532,113.62,2022-10-26 10:58:28.906250
2533,74.94,2022-10-26 10:58:28.921875
2534,20.13,2022-10-26 10:58:28.937500
2535,-44.91,2022-10-26 10:58:28.953125
2536,-107.71,2022-10-26 10:58:28.968750
2537,-155.54,2022-10-26 10:58:28.984375
2538,-182.08,2022-10-26 10:58:29.000000
2539,-189.9,2022-10-26 10:58:29.015625
2540,-188.35,2022-10-26 10:58:29.031250
2541,-187.43,2022-10-26 10:58:29.046875
2542,-191.73,2022-10-26 10:58:29.062500
2543,-198.55,2022-10-26 10:58:29.078125
2544,-199.32,2022-10-26 10:58:29.093750
2545,-184.81,2022-10-26 10:58:29.109375
2546,-149.83,2022-10-26 10:58:29.125000
2547,-96.48,2022-10-26 10:58:29.140625
2548,-34.03,2022-10-26 10:58:29.156250
2549,24.43,2022-10-26 10:58:29.171875
2550,67.17,2022-10-26 10:58:29.187500
2551,89.18,2022-10-26 10:58:29.203125
2552,95.51,2022-10-26 10:58:29.218750
2553,99.74,2022-10-26 10:58:29.234375
2554,118.04,2022-10-26 10:58:29.250000
2555,161.2,2022-10-26 10:58:29.265625
2556,227.61,2022-10-26 10:58:29.281250
2557,303.71,2022-10-26 10:58:29.296875
2558,369.86,2022-10-26 10:58:29.312500
2559,408.68,2022-10-26 10:58:29.328125
2560,412.64,2022-10-26 10:58:29.343750
2561,385.58,2022-10-26 10:58:29.359375
2562,338.59,2022-10-26 10:58:29.375000
2563,283.53,2022-10-26 10:58:29.390625
2564,228.0,2022-10-26 10:58:29.406250
2565,173.18,2022-10-26 10:58:29.421875
2566,116.93,2022-10-26 10:58:29.437500
2567,56.84,2022-10-26 10:58:29.453125
2568,-6.76,2022-10-26 10:58:29.468750
2569,-70.47,2022-10-26 10:58:29.484375
2570,-130.12,2022-10-26 10:58:29.500000
2571,-182.48,2022-10-26 10:58:29.515625
2572,-225.83,2022-10-26 10:58:29.531250
2573,-259.7,2022-10-26 10:58:29.546875
2574,-283.63,2022-10-26 10:58:29.562500
2575,-297.22,2022-10-26 10:58:29.578125
2576,-300.91,2022-10-26 10:58:29.593750
2577,-297.04,2022-10-26 10:58:29.609375
2578,-289.09,2022-10-26 10:58:29.625000
2579,-279.75,2022-10-26 10:58:29.640625
2580,-268.61,2022-10-26 10:58:29.656250
2581,-250.65,2022-10-26 10:58:29.671875
2582,-217.57,2022-10-26 10:58:29.687500
2583,-161.45,2022-10-26 10:58:29.703125
2584,-78.88,2022-10-26 10:58:29.718750
2585,26.08,2022-10-26 10:58:29.734375
2586,142.58,2022-10-26 10:58:29.750000
2587,257.27,2022-10-26 10:58:29.765625
2588,358.28,2022-10-26 10:58:29.781250
2589,438.84,2022-10-26 10:58:29.796875
2590,497.83,2022-10-26 10:58:29.812500
2591,537.17,2022-10-26 10:58:29.828125
2592,559.41,2022-10-26 10:58:29.843750
2593,565.36,2022-10-26 10:58:29.859375
2594,555.36,2022-10-26 10:58:29.875000
2595,530.61,2022-10-26 10:58:29.890625
2596,495.26,2022-10-26 10:58:29.906250
2597,455.8,2022-10-26 10:58:29.921875
2598,419.89,2022-10-26 10:58:29.937500
2599,392.59,2022-10-26 10:58:29.953125
2600,374.24,2022-10-26 10:58:29.968750
2601,360.35,2022-10-26 10:58:29.984375
2602,343.84,2022-10-26 10:58:30.000000
2603,318.07,2022-10-26 10:58:30.015625
2604,280.49,2022-10-26 10:58:30.031250
2605,233.74,2022-10-26 10:58:30.046875
2606,184.16,2022-10-26 10:58:30.062500
2607,138.69,2022-10-26 10:58:30.078125
2608,101.3,2022-10-26 10:58:30.093750
2609,71.59,2022-10-26 10:58:30.109375
2610,44.83,2022-10-26 10:58:30.125000
2611,15.53,2022-10-26 10:58:30.140625
2612,-19.71,2022-10-26 10:58:30.156250
2613,-60.67,2022-10-26 10:58:30.171875
2614,-104.96,2022-10-26 10:58:30.187500
2615,-151.32,2022-10-26 10:58:30.203125
2616,-201.17,2022-10-26 10:58:30.218750
2617,-257.93,2022-10-26 10:58:30.234375
2618,-323.66,2022-10-26 10:58:30.250000
2619,-395.25,2022-10-26 10:58:30.265625
2620,-464.21,2022-10-26 10:58:30.281250
2621,-520.46,2022-10-26 10:58:30.296875
2622,-557.57,2022-10-26 10:58:30.312500
2623,-576.88,2022-10-26 10:58:30.328125
2624,-586.01,2022-10-26 10:58:30.343750
2625,-594.06,2022-10-26 10:58:30.359375
2626,-604.45,2022-10-26 10:58:30.375000
2627,-611.79,2022-10-26 10:58:30.390625
2628,-603.84,2022-10-26 10:58:30.406250
2629,-568.67,2022-10-26 10:58:30.421875
2630,-501.61,2022-10-26 10:58:30.437500
2631,-408.8,2022-10-26 10:58:30.453125
2632,-304.22,2022-10-26 10:58:30.468750
2633,-203.72,2022-10-26 10:58:30.484375
2634,-118.08,2022-10-26 10:58:30.500000
2635,-50.9,2022-10-26 10:58:30.515625
2636,1.11,2022-10-26 10:58:30.531250
2637,43.74,2022-10-26 10:58:30.546875
2638,80.7,2022-10-26 10:58:30.562500
2639,111.95,2022-10-26 10:58:30.578125
2640,134.19,2022-10-26 10:58:30.593750
2641,145.27,2022-10-26 10:58:30.609375
2642,146.95,2022-10-26 10:58:30.625000
2643,145.81,2022-10-26 10:58:30.640625
2644,150.54,2022-10-26 10:58:30.656250
2645,166.8,2022-10-26 10:58:30.671875
2646,193.82,2022-10-26 10:58:30.687500
2647,223.75,2022-10-26 10:58:30.703125
2648,246.57,2022-10-26 10:58:30.718750
2649,255.76,2022-10-26 10:58:30.734375
2650,251.81,2022-10-26 10:58:30.750000
2651,241.35,2022-10-26 10:58:30.765625
2652,232.86,2022-10-26 10:58:30.781250
2653,231.71,2022-10-26 10:58:30.796875
2654,238.27,2022-10-26 10:58:30.812500
2655,249.66,2022-10-26 10:58:30.828125
2656,263.5,2022-10-26 10:58:30.843750
2657,279.74,2022-10-26 10:58:30.859375
2658,299.19,2022-10-26 10:58:30.875000
2659,320.82,2022-10-26 10:58:30.890625
2660,340.36,2022-10-26 10:58:30.906250
2661,352.09,2022-10-26 10:58:30.921875
2662,353.56,2022-10-26 10:58:30.937500
2663,347.48,2022-10-26 10:58:30.953125
2664,341.09,2022-10-26 10:58:30.968750
2665,341.21,2022-10-26 10:58:30.984375
2666,350.31,2022-10-26 10:58:31.000000
2667,364.31,2022-10-26 10:58:31.015625
2668,376.54,2022-10-26 10:58:31.031250
2669,382.24,2022-10-26 10:58:31.046875
2670,380.68,2022-10-26 10:58:31.062500
2671,374.73,2022-10-26 10:58:31.078125
2672,367.34,2022-10-26 10:58:31.093750
2673,358.69,2022-10-26 10:58:31.109375
2674,346.29,2022-10-26 10:58:31.125000
2675,327.0,2022-10-26 10:58:31.140625
2676,299.35,2022-10-26 10:58:31.156250
2677,264.39,2022-10-26 10:58:31.171875
2678,223.99,2022-10-26 10:58:31.187500
2679,178.55,2022-10-26 10:58:31.203125
2680,125.75,2022-10-26 10:58:31.218750
2681,62.05,2022-10-26 10:58:31.234375
2682,-14.4,2022-10-26 10:58:31.250000
2683,-101.08,2022-10-26 10:58:31.265625
2684,-190.99,2022-10-26 10:58:31.281250
2685,-275.06,2022-10-26 10:58:31.296875
2686,-345.09,2022-10-26 10:58:31.312500
2687,-396.67,2022-10-26 10:58:31.328125
2688,-428.98,2022-10-26 10:58:31.343750
2689,-443.2,2022-10-26 10:58:31.359375
2690,-441.1,2022-10-26 10:58:31.375000
2691,-424.32,2022-10-26 10:58:31.390625
2692,-395.39,2022-10-26 10:58:31.406250
2693,-359.1,2022-10-26 10:58:31.421875
2694,-322.13,2022-10-26 10:58:31.437500
2695,-291.02,2022-10-26 10:58:31.453125
2696,-269.48,2022-10-26 10:58:31.468750
2697,-256.62,2022-10-26 10:58:31.484375
2698,-247.7,2022-10-26 10:58:31.500000
2699,-237.88,2022-10-26 10:58:31.515625
2700,-225.15,2022-10-26 10:58:31.531250
2701,-210.98,2022-10-26 10:58:31.546875
2702,-198.67,2022-10-26 10:58:31.562500
2703,-190.62,2022-10-26 10:58:31.578125
2704,-185.29,2022-10-26 10:58:31.593750
2705,-178.95,2022-10-26 10:58:31.609375
2706,-166.95,2022-10-26 10:58:31.625000
2707,-146.35,2022-10-26 10:58:31.640625
2708,-116.35,2022-10-26 10:58:31.656250
2709,-76.83,2022-10-26 10:58:31.671875
2710,-27.44,2022-10-26 10:58:31.687500
2711,31.97,2022-10-26 10:58:31.703125
2712,99.28,2022-10-26 10:58:31.718750
2713,169.01,2022-10-26 10:58:31.734375
2714,232.73,2022-10-26 10:58:31.750000
2715,282.46,2022-10-26 10:58:31.765625
2716,314.92,2022-10-26 10:58:31.781250
2717,331.82,2022-10-26 10:58:31.796875
2718,337.98,2022-10-26 10:58:31.812500
2719,335.71,2022-10-26 10:58:31.828125
2720,322.42,2022-10-26 10:58:31.843750
2721,291.86,2022-10-26 10:58:31.859375
2722,238.94,2022-10-26 10:58:31.875000
2723,164.31,2022-10-26 10:58:31.890625
2724,75.44,2022-10-26 10:58:31.906250
2725,-17.7,2022-10-26 10:58:31.921875
2726,-108.41,2022-10-26 10:58:31.937500
2727,-195.97,2022-10-26 10:58:31.953125
2728,-283.74,2022-10-26 10:58:31.968750
2729,-373.51,2022-10-26 10:58:31.984375
2730,-461.72,2022-10-26 10:58:32.000000
2731,-539.94,2022-10-26 10:58:32.015625
2732,-599.24,2022-10-26 10:58:32.031250
2733,-635.37,2022-10-26 10:58:32.046875
2734,-650.13,2022-10-26 10:58:32.062500
2735,-649.67,2022-10-26 10:58:32.078125
2736,-639.0,2022-10-26 10:58:32.093750
2737,-620.87,2022-10-26 10:58:32.109375
2738,-596.69,2022-10-26 10:58:32.125000
2739,-569.25,2022-10-26 10:58:32.140625
2740,-544.85,2022-10-26 10:58:32.156250
2741,-531.34,2022-10-26 10:58:32.171875
2742,-533.63,2022-10-26 10:58:32.187500
2743,-549.81,2022-10-26 10:58:32.203125
2744,-571.5,2022-10-26 10:58:32.218750
2745,-587.44,2022-10-26 10:58:32.234375
2746,-588.11,2022-10-26 10:58:32.250000
2747,-569.8,2022-10-26 10:58:32.265625
2748,-534.09,2022-10-26 10:58:32.281250
2749,-485.21,2022-10-26 10:58:32.296875
2750,-425.83,2022-10-26 10:58:32.312500
2751,-355.7,2022-10-26 10:58:32.328125
2752,-272.31,2022-10-26 10:58:32.343750
2753,-174.0,2022-10-26 10:58:32.359375
2754,-62.66,2022-10-26 10:58:32.375000
2755,54.58,2022-10-26 10:58:32.390625
2756,167.94,2022-10-26 10:58:32.406250
2757,268.83,2022-10-26 10:58:32.421875
2758,353.16,2022-10-26 10:58:32.437500
2759,422.26,2022-10-26 10:58:32.453125
2760,480.63,2022-10-26 10:58:32.468750
2761,532.69,2022-10-26 10:58:32.484375
2762,580.21,2022-10-26 10:58:32.500000
2763,620.95,2022-10-26 10:58:32.515625
2764,650.15,2022-10-26 10:58:32.531250
2765,662.93,2022-10-26 10:58:32.546875
2766,657.16,2022-10-26 10:58:32.562500
2767,634.15,2022-10-26 10:58:32.578125
2768,598.92,2022-10-26 10:58:32.593750
2769,558.81,2022-10-26 10:58:32.609375
2770,519.97,2022-10-26 10:58:32.625000
2771,485.41,2022-10-26 10:58:32.640625
2772,453.32,2022-10-26 10:58:32.656250
2773,418.67,2022-10-26 10:58:32.671875
2774,376.53,2022-10-26 10:58:32.687500
2775,326.96,2022-10-26 10:58:32.703125
2776,277.03,2022-10-26 10:58:32.718750
2777,238.28,2022-10-26 10:58:32.734375
2778,220.91,2022-10-26 10:58:32.750000
2779,227.14,2022-10-26 10:58:32.765625
2780,248.71,2022-10-26 10:58:32.781250
2781,269.47,2022-10-26 10:58:32.796875
2782,272.7,2022-10-26 10:58:32.812500
2783,248.8,2022-10-26 10:58:32.828125
2784,199.1,2022-10-26 10:58:32.843750
2785,133.89,2022-10-26 10:58:32.859375
2786,67.47,2022-10-26 10:58:32.875000
2787,11.39,2022-10-26 10:58:32.890625
2788,-29.48,2022-10-26 10:58:32.906250
2789,-56.62,2022-10-26 10:58:32.921875
2790,-74.82,2022-10-26 10:58:32.937500
2791,-87.79,2022-10-26 10:58:32.953125
2792,-95.95,2022-10-26 10:58:32.968750
2793,-96.78,2022-10-26 10:58:32.984375
2794,-86.43,2022-10-26 10:58:33.000000
2795,-62.13,2022-10-26 10:58:33.015625
2796,-24.2,2022-10-26 10:58:33.031250
2797,23.22,2022-10-26 10:58:33.046875
2798,73.94,2022-10-26 10:58:33.062500
2799,121.89,2022-10-26 10:58:33.078125
2800,163.61,2022-10-26 10:58:33.093750
2801,200.03,2022-10-26 10:58:33.109375
2802,236.69,2022-10-26 10:58:33.125000
2803,281.62,2022-10-26 10:58:33.140625
2804,341.86,2022-10-26 10:58:33.156250
2805,419.89,2022-10-26 10:58:33.171875
2806,510.7,2022-10-26 10:58:33.187500
2807,602.18,2022-10-26 10:58:33.203125
2808,678.32,2022-10-26 10:58:33.218750
2809,724.23,2022-10-26 10:58:33.234375
2810,731.16,2022-10-26 10:58:33.250000
2811,698.92,2022-10-26 10:58:33.265625
2812,635.64,2022-10-26 10:58:33.281250
2813,554.03,2022-10-26 10:58:33.296875
2814,466.68,2022-10-26 10:58:33.312500
2815,382.61,2022-10-26 10:58:33.328125
2816,305.47,2022-10-26 10:58:33.343750
2817,234.77,2022-10-26 10:58:33.359375
2818,169.29,2022-10-26 10:58:33.375000
2819,109.63,2022-10-26 10:58:33.390625
2820,58.74,2022-10-26 10:58:33.406250
2821,19.0,2022-10-26 10:58:33.421875
2822,-11.4,2022-10-26 10:58:33.437500
2823,-40.26,2022-10-26 10:58:33.453125
2824,-78.19,2022-10-26 10:58:33.468750
2825,-133.22,2022-10-26 10:58:33.484375
2826,-205.74,2022-10-26 10:58:33.500000
2827,-286.67,2022-10-26 10:58:33.515625
2828,-361.56,2022-10-26 10:58:33.531250
2829,-418.52,2022-10-26 10:58:33.546875
2830,-453.23,2022-10-26 10:58:33.562500
2831,-470.41,2022-10-26 10:58:33.578125
2832,-480.21,2022-10-26 10:58:33.593750
2833,-491.82,2022-10-26 10:58:33.609375
2834,-507.57,2022-10-26 10:58:33.625000
2835,-522.08,2022-10-26 10:58:33.640625
2836,-524.61,2022-10-26 10:58:33.656250
2837,-504.4,2022-10-26 10:58:33.671875
2838,-455.91,2022-10-26 10:58:33.687500
2839,-380.82,2022-10-26 10:58:33.703125
2840,-288.17,2022-10-26 10:58:33.718750
2841,-190.66,2022-10-26 10:58:33.734375
2842,-101.0,2022-10-26 10:58:33.750000
2843,-28.32,2022-10-26 10:58:33.765625
2844,23.08,2022-10-26 10:58:33.781250
2845,52.65,2022-10-26 10:58:33.796875
2846,61.12,2022-10-26 10:58:33.812500
2847,49.43,2022-10-26 10:58:33.828125
2848,18.85,2022-10-26 10:58:33.843750
2849,-27.28,2022-10-26 10:58:33.859375
2850,-82.66,2022-10-26 10:58:33.875000
2851,-139.69,2022-10-26 10:58:33.890625
2852,-192.12,2022-10-26 10:58:33.906250
2853,-237.2,2022-10-26 10:58:33.921875
2854,-275.44,2022-10-26 10:58:33.937500
2855,-308.3,2022-10-26 10:58:33.953125
2856,-336.16,2022-10-26 10:58:33.968750
2857,-356.69,2022-10-26 10:58:33.984375
2858,-367.28,2022-10-26 10:58:34.000000
2859,-366.9,2022-10-26 10:58:34.015625
2860,-357.66,2022-10-26 10:58:34.031250
2861,-344.32,2022-10-26 10:58:34.046875
2862,-331.39,2022-10-26 10:58:34.062500
2863,-321.56,2022-10-26 10:58:34.078125
2864,-314.62,2022-10-26 10:58:34.093750
2865,-308.1,2022-10-26 10:58:34.109375
2866,-298.06,2022-10-26 10:58:34.125000
2867,-280.69,2022-10-26 10:58:34.140625
2868,-252.85,2022-10-26 10:58:34.156250
2869,-213.07,2022-10-26 10:58:34.171875
2870,-163.73,2022-10-26 10:58:34.187500
2871,-110.66,2022-10-26 10:58:34.203125
2872,-62.57,2022-10-26 10:58:34.218750
2873,-27.53,2022-10-26 10:58:34.234375
2874,-10.24,2022-10-26 10:58:34.250000
2875,-9.95,2022-10-26 10:58:34.265625
2876,-21.78,2022-10-26 10:58:34.281250
2877,-39.43,2022-10-26 10:58:34.296875
2878,-58.34,2022-10-26 10:58:34.312500
2879,-76.31,2022-10-26 10:58:34.328125
2880,-92.93,2022-10-26 10:58:34.343750
2881,-107.66,2022-10-26 10:58:34.359375
2882,-118.44,2022-10-26 10:58:34.375000
2883,-122.69,2022-10-26 10:58:34.390625
2884,-119.39,2022-10-26 10:58:34.406250
2885,-110.05,2022-10-26 10:58:34.421875
2886,-97.95,2022-10-26 10:58:34.437500
2887,-86.11,2022-10-26 10:58:34.453125
2888,-75.63,2022-10-26 10:58:34.468750
2889,-64.95,2022-10-26 10:58:34.484375
2890,-51.92,2022-10-26 10:58:34.500000
2891,-35.16,2022-10-26 10:58:34.515625
2892,-16.18,2022-10-26 10:58:34.531250
2893,2.61,2022-10-26 10:58:34.546875
2894,21.04,2022-10-26 10:58:34.562500
2895,42.48,2022-10-26 10:58:34.578125
2896,74.48,2022-10-26 10:58:34.593750
2897,124.39,2022-10-26 10:58:34.609375
2898,195.74,2022-10-26 10:58:34.625000
2899,284.24,2022-10-26 10:58:34.640625
2900,379.08,2022-10-26 10:58:34.656250
2901,466.9,2022-10-26 10:58:34.671875
2902,536.76,2022-10-26 10:58:34.687500
2903,583.94,2022-10-26 10:58:34.703125
2904,611.05,2022-10-26 10:58:34.718750
2905,625.26,2022-10-26 10:58:34.734375
2906,634.31,2022-10-26 10:58:34.750000
2907,643.36,2022-10-26 10:58:34.765625
2908,652.62,2022-10-26 10:58:34.781250
2909,658.66,2022-10-26 10:58:34.796875
2910,655.39,2022-10-26 10:58:34.812500
2911,637.59,2022-10-26 10:58:34.828125
2912,603.11,2022-10-26 10:58:34.843750
2913,553.87,2022-10-26 10:58:34.859375
2914,495.68,2022-10-26 10:58:34.875000
2915,436.07,2022-10-26 10:58:34.890625
2916,380.83,2022-10-26 10:58:34.906250
2917,331.64,2022-10-26 10:58:34.921875
2918,286.51,2022-10-26 10:58:34.937500
2919,240.24,2022-10-26 10:58:34.953125
2920,187.69,2022-10-26 10:58:34.968750
2921,125.85,2022-10-26 10:58:34.984375
2922,54.34,2022-10-26 10:58:35.000000
2923,-24.22,2022-10-26 10:58:35.015625
2924,-106.03,2022-10-26 10:58:35.031250
2925,-186.56,2022-10-26 10:58:35.046875
2926,-261.73,2022-10-26 10:58:35.062500
2927,-328.69,2022-10-26 10:58:35.078125
2928,-385.45,2022-10-26 10:58:35.093750
2929,-431.61,2022-10-26 10:58:35.109375
2930,-467.53,2022-10-26 10:58:35.125000
2931,-494.18,2022-10-26 10:58:35.140625
2932,-511.54,2022-10-26 10:58:35.156250
2933,-518.35,2022-10-26 10:58:35.171875
2934,-512.13,2022-10-26 10:58:35.187500
2935,-490.7,2022-10-26 10:58:35.203125
2936,-453.81,2022-10-26 10:58:35.218750
2937,-404.4,2022-10-26 10:58:35.234375
2938,-348.71,2022-10-26 10:58:35.250000
2939,-293.81,2022-10-26 10:58:35.265625
2940,-246.27,2022-10-26 10:58:35.281250
2941,-210.14,2022-10-26 10:58:35.296875
2942,-186.7,2022-10-26 10:58:35.312500
2943,-174.32,2022-10-26 10:58:35.328125
2944,-170.04,2022-10-26 10:58:35.343750
2945,-170.33,2022-10-26 10:58:35.359375
2946,-172.13,2022-10-26 10:58:35.375000
2947,-172.66,2022-10-26 10:58:35.390625
2948,-170.37,2022-10-26 10:58:35.406250
2949,-165.73,2022-10-26 10:58:35.421875
2950,-160.59,2022-10-26 10:58:35.437500
2951,-157.9,2022-10-26 10:58:35.453125
2952,-159.02,2022-10-26 10:58:35.468750
2953,-161.57,2022-10-26 10:58:35.484375
2954,-159.48,2022-10-26 10:58:35.500000
2955,-145.28,2022-10-26 10:58:35.515625
2956,-114.29,2022-10-26 10:58:35.531250
2957,-66.55,2022-10-26 10:58:35.546875
2958,-7.49,2022-10-26 10:58:35.562500
2959,55.42,2022-10-26 10:58:35.578125
2960,115.88,2022-10-26 10:58:35.593750
2961,170.75,2022-10-26 10:58:35.609375
2962,220.12,2022-10-26 10:58:35.625000
2963,266.12,2022-10-26 10:58:35.640625
2964,311.47,2022-10-26 10:58:35.656250
2965,357.96,2022-10-26 10:58:35.671875
2966,405.39,2022-10-26 10:58:35.687500
2967,450.33,2022-10-26 10:58:35.703125
2968,485.19,2022-10-26 10:58:35.718750
2969,500.18,2022-10-26 10:58:35.734375
2970,485.87,2022-10-26 10:58:35.750000
2971,437.94,2022-10-26 10:58:35.765625
2972,360.05,2022-10-26 10:58:35.781250
2973,263.16,2022-10-26 10:58:35.796875
2974,161.29,2022-10-26 10:58:35.812500
2975,67.06,2022-10-26 10:58:35.828125
2976,-12.92,2022-10-26 10:58:35.843750
2977,-77.84,2022-10-26 10:58:35.859375
2978,-129.99,2022-10-26 10:58:35.875000
2979,-171.45,2022-10-26 10:58:35.890625
2980,-201.53,2022-10-26 10:58:35.906250
2981,-218.82,2022-10-26 10:58:35.921875
2982,-222.97,2022-10-26 10:58:35.937500
2983,-216.9,2022-10-26 10:58:35.953125
2984,-206.43,2022-10-26 10:58:35.968750
2985,-197.08,2022-10-26 10:58:35.984375
2986,-191.82,2022-10-26 10:58:36.000000
2987,-189.48,2022-10-26 10:58:36.015625
2988,-186.38,2022-10-26 10:58:36.031250
2989,-178.47,2022-10-26 10:58:36.046875
2990,-163.94,2022-10-26 10:58:36.062500
2991,-143.78,2022-10-26 10:58:36.078125
2992,-120.76,2022-10-26 10:58:36.093750
2993,-97.68,2022-10-26 10:58:36.109375
2994,-76.4,2022-10-26 10:58:36.125000
2995,-56.51,2022-10-26 10:58:36.140625
2996,-36.66,2022-10-26 10:58:36.156250
2997,-16.55,2022-10-26 10:58:36.171875
2998,2.95,2022-10-26 10:58:36.187500
2999,20.11,2022-10-26 10:58:36.203125
3000,34.28,2022-10-26 10:58:36.218750
3001,47.39,2022-10-26 10:58:36.234375
3002,63.17,2022-10-26 10:58:36.250000
3003,85.76,2022-10-26 10:58:36.265625
3004,116.3,2022-10-26 10:58:36.281250
3005,152.05,2022-10-26 10:58:36.296875
3006,186.21,2022-10-26 10:58:36.312500
3007,211.51,2022-10-26 10:58:36.328125
3008,222.94,2022-10-26 10:58:36.343750
3009,220.24,2022-10-26 10:58:36.359375
3010,207.54,2022-10-26 10:58:36.375000
3011,189.45,2022-10-26 10:58:36.390625
3012,168.75,2022-10-26 10:58:36.406250
3013,143.51,2022-10-26 10:58:36.421875
3014,108.27,2022-10-26 10:58:36.437500
3015,57.67,2022-10-26 10:58:36.453125
3016,-10.14,2022-10-26 10:58:36.468750
3017,-90.7,2022-10-26 10:58:36.484375
3018,-173.62,2022-10-26 10:58:36.500000
3019,-245.07,2022-10-26 10:58:36.515625
3020,-292.22,2022-10-26 10:58:36.531250
3021,-308.41,2022-10-26 10:58:36.546875
3022,-295.93,2022-10-26 10:58:36.562500
3023,-265.67,2022-10-26 10:58:36.578125
3024,-232.09,2022-10-26 10:58:36.593750
3025,-207.69,2022-10-26 10:58:36.609375
3026,-199.13,2022-10-26 10:58:36.625000
3027,-206.33,2022-10-26 10:58:36.640625
3028,-225.09,2022-10-26 10:58:36.656250
3029,-250.38,2022-10-26 10:58:36.671875
3030,-278.87,2022-10-26 10:58:36.687500
3031,-308.71,2022-10-26 10:58:36.703125
3032,-337.31,2022-10-26 10:58:36.718750
3033,-359.43,2022-10-26 10:58:36.734375
3034,-367.61,2022-10-26 10:58:36.750000
3035,-354.72,2022-10-26 10:58:36.765625
3036,-317.49,2022-10-26 10:58:36.781250
3037,-259.22,2022-10-26 10:58:36.796875
3038,-189.11,2022-10-26 10:58:36.812500
3039,-118.66,2022-10-26 10:58:36.828125
3040,-57.73,2022-10-26 10:58:36.843750
3041,-11.94,2022-10-26 10:58:36.859375
3042,18.42,2022-10-26 10:58:36.875000
3043,36.41,2022-10-26 10:58:36.890625
3044,45.85,2022-10-26 10:58:36.906250
3045,49.96,2022-10-26 10:58:36.921875
3046,50.66,2022-10-26 10:58:36.937500
3047,49.26,2022-10-26 10:58:36.953125
3048,47.38,2022-10-26 10:58:36.968750
3049,47.96,2022-10-26 10:58:36.984375
3050,53.73,2022-10-26 10:58:37.000000
3051,66.2,2022-10-26 10:58:37.015625
3052,84.62,2022-10-26 10:58:37.031250
3053,106.18,2022-10-26 10:58:37.046875
3054,127.39,2022-10-26 10:58:37.062500
3055,144.6,2022-10-26 10:58:37.078125
3056,156.02,2022-10-26 10:58:37.093750
3057,161.71,2022-10-26 10:58:37.109375
3058,163.32,2022-10-26 10:58:37.125000
3059,163.28,2022-10-26 10:58:37.140625
3060,163.76,2022-10-26 10:58:37.156250
3061,166.38,2022-10-26 10:58:37.171875
3062,171.32,2022-10-26 10:58:37.187500
3063,178.0,2022-10-26 10:58:37.203125
3064,185.84,2022-10-26 10:58:37.218750
3065,194.9,2022-10-26 10:58:37.234375
3066,206.16,2022-10-26 10:58:37.250000
3067,220.24,2022-10-26 10:58:37.265625
3068,236.52,2022-10-26 10:58:37.281250
3069,252.53,2022-10-26 10:58:37.296875
3070,265.04,2022-10-26 10:58:37.312500
3071,271.78,2022-10-26 10:58:37.328125
3072,273.13,2022-10-26 10:58:37.343750
3073,271.23,2022-10-26 10:58:37.359375
3074,267.24,2022-10-26 10:58:37.375000
3075,259.12,2022-10-26 10:58:37.390625
3076,240.21,2022-10-26 10:58:37.406250
3077,202.44,2022-10-26 10:58:37.421875
3078,140.61,2022-10-26 10:58:37.437500
3079,56.17,2022-10-26 10:58:37.453125
3080,-42.42,2022-10-26 10:58:37.468750
3081,-142.28,2022-10-26 10:58:37.484375
3082,-231.78,2022-10-26 10:58:37.500000
3083,-303.33,2022-10-26 10:58:37.515625
3084,-354.88,2022-10-26 10:58:37.531250
3085,-387.23,2022-10-26 10:58:37.546875
3086,-400.78,2022-10-26 10:58:37.562500
3087,-395.71,2022-10-26 10:58:37.578125
3088,-372.9,2022-10-26 10:58:37.593750
3089,-335.61,2022-10-26 10:58:37.609375
3090,-289.51,2022-10-26 10:58:37.625000
