,BVP,time
0,-26.12,2022-10-26 10:26:14.703125
1,-43.61,2022-10-26 10:26:14.718750
2,-63.52,2022-10-26 10:26:14.734375
3,-83.1,2022-10-26 10:26:14.750000
4,-99.32,2022-10-26 10:26:14.765625
5,-109.82,2022-10-26 10:26:14.781250
6,-113.46,2022-10-26 10:26:14.796875
7,-110.48,2022-10-26 10:26:14.812500
8,-102.17,2022-10-26 10:26:14.828125
9,-90.54,2022-10-26 10:26:14.843750
10,-77.91,2022-10-26 10:26:14.859375
11,-66.82,2022-10-26 10:26:14.875000
12,-59.7,2022-10-26 10:26:14.890625
13,-58.49,2022-10-26 10:26:14.906250
14,-64.05,2022-10-26 10:26:14.921875
15,-75.67,2022-10-26 10:26:14.937500
16,-91.01,2022-10-26 10:26:14.953125
17,-106.65,2022-10-26 10:26:14.968750
18,-119.13,2022-10-26 10:26:14.984375
19,-126.0,2022-10-26 10:26:15.000000
20,-126.49,2022-10-26 10:26:15.015625
21,-121.4,2022-10-26 10:26:15.031250
22,-112.53,2022-10-26 10:26:15.046875
23,-101.82,2022-10-26 10:26:15.062500
24,-90.8,2022-10-26 10:26:15.078125
25,-80.45,2022-10-26 10:26:15.093750
26,-71.37,2022-10-26 10:26:15.109375
27,-64.03,2022-10-26 10:26:15.125000
28,-58.78,2022-10-26 10:26:15.140625
29,-55.68,2022-10-26 10:26:15.156250
30,-54.31,2022-10-26 10:26:15.171875
31,-53.77,2022-10-26 10:26:15.187500
32,-52.94,2022-10-26 10:26:15.203125
33,-50.9,2022-10-26 10:26:15.218750
34,-47.38,2022-10-26 10:26:15.234375
35,-42.79,2022-10-26 10:26:15.250000
36,-37.96,2022-10-26 10:26:15.265625
37,-33.72,2022-10-26 10:26:15.281250
38,-30.55,2022-10-26 10:26:15.296875
39,-28.51,2022-10-26 10:26:15.312500
40,-27.29,2022-10-26 10:26:15.328125
41,-26.51,2022-10-26 10:26:15.343750
42,-25.92,2022-10-26 10:26:15.359375
43,-25.48,2022-10-26 10:26:15.375000
44,-25.33,2022-10-26 10:26:15.390625
45,-25.69,2022-10-26 10:26:15.406250
46,-26.6,2022-10-26 10:26:15.421875
47,-27.92,2022-10-26 10:26:15.437500
48,-29.25,2022-10-26 10:26:15.453125
49,-30.1,2022-10-26 10:26:15.468750
50,-30.12,2022-10-26 10:26:15.484375
51,-29.3,2022-10-26 10:26:15.500000
52,-28.04,2022-10-26 10:26:15.515625
53,-27.02,2022-10-26 10:26:15.531250
54,-27.03,2022-10-26 10:26:15.546875
55,-28.68,2022-10-26 10:26:15.562500
56,-32.22,2022-10-26 10:26:15.578125
57,-37.4,2022-10-26 10:26:15.593750
58,-43.42,2022-10-26 10:26:15.609375
59,-48.94,2022-10-26 10:26:15.625000
60,-52.28,2022-10-26 10:26:15.640625
61,-51.9,2022-10-26 10:26:15.656250
62,-46.86,2022-10-26 10:26:15.671875
63,-37.31,2022-10-26 10:26:15.687500
64,-24.52,2022-10-26 10:26:15.703125
65,-10.44,2022-10-26 10:26:15.718750
66,2.99,2022-10-26 10:26:15.734375
67,14.36,2022-10-26 10:26:15.750000
68,23.11,2022-10-26 10:26:15.765625
69,29.26,2022-10-26 10:26:15.781250
70,32.98,2022-10-26 10:26:15.796875
71,34.25,2022-10-26 10:26:15.812500
72,32.89,2022-10-26 10:26:15.828125
73,28.87,2022-10-26 10:26:15.843750
74,22.71,2022-10-26 10:26:15.859375
75,15.67,2022-10-26 10:26:15.875000
76,9.36,2022-10-26 10:26:15.890625
77,5.27,2022-10-26 10:26:15.906250
78,4.15,2022-10-26 10:26:15.921875
79,5.8,2022-10-26 10:26:15.937500
80,9.32,2022-10-26 10:26:15.953125
81,13.54,2022-10-26 10:26:15.968750
82,17.56,2022-10-26 10:26:15.984375
83,20.98,2022-10-26 10:26:16.000000
84,23.86,2022-10-26 10:26:16.015625
85,26.45,2022-10-26 10:26:16.031250
86,29.0,2022-10-26 10:26:16.046875
87,31.73,2022-10-26 10:26:16.062500
88,34.74,2022-10-26 10:26:16.078125
89,38.11,2022-10-26 10:26:16.093750
90,41.37,2022-10-26 10:26:16.109375
91,43.42,2022-10-26 10:26:16.125000
92,42.61,2022-10-26 10:26:16.140625
93,37.41,2022-10-26 10:26:16.156250
94,27.5,2022-10-26 10:26:16.171875
95,14.36,2022-10-26 10:26:16.187500
96,1.03,2022-10-26 10:26:16.203125
97,-9.15,2022-10-26 10:26:16.218750
98,-13.99,2022-10-26 10:26:16.234375
99,-13.43,2022-10-26 10:26:16.250000
100,-9.32,2022-10-26 10:26:16.265625
101,-4.25,2022-10-26 10:26:16.281250
102,-0.13,2022-10-26 10:26:16.296875
103,2.47,2022-10-26 10:26:16.312500
104,3.99,2022-10-26 10:26:16.328125
105,4.93,2022-10-26 10:26:16.343750
106,4.95,2022-10-26 10:26:16.359375
107,3.11,2022-10-26 10:26:16.375000
108,-1.23,2022-10-26 10:26:16.390625
109,-7.22,2022-10-26 10:26:16.406250
110,-12.15,2022-10-26 10:26:16.421875
111,-12.41,2022-10-26 10:26:16.437500
112,-5.15,2022-10-26 10:26:16.453125
113,10.2,2022-10-26 10:26:16.468750
114,31.57,2022-10-26 10:26:16.484375
115,54.9,2022-10-26 10:26:16.500000
116,75.99,2022-10-26 10:26:16.515625
117,92.02,2022-10-26 10:26:16.531250
118,102.28,2022-10-26 10:26:16.546875
119,107.88,2022-10-26 10:26:16.562500
120,110.66,2022-10-26 10:26:16.578125
121,112.09,2022-10-26 10:26:16.593750
122,112.7,2022-10-26 10:26:16.609375
123,112.11,2022-10-26 10:26:16.625000
124,109.65,2022-10-26 10:26:16.640625
125,104.89,2022-10-26 10:26:16.656250
126,98.11,2022-10-26 10:26:16.671875
127,90.28,2022-10-26 10:26:16.687500
128,82.9,2022-10-26 10:26:16.703125
129,77.57,2022-10-26 10:26:16.718750
130,75.46,2022-10-26 10:26:16.734375
131,76.96,2022-10-26 10:26:16.750000
132,81.54,2022-10-26 10:26:16.765625
133,88.04,2022-10-26 10:26:16.781250
134,95.07,2022-10-26 10:26:16.796875
135,101.61,2022-10-26 10:26:16.812500
136,107.27,2022-10-26 10:26:16.828125
137,112.22,2022-10-26 10:26:16.843750
138,116.89,2022-10-26 10:26:16.859375
139,121.55,2022-10-26 10:26:16.875000
140,126.08,2022-10-26 10:26:16.890625
141,129.92,2022-10-26 10:26:16.906250
142,132.32,2022-10-26 10:26:16.921875
143,132.68,2022-10-26 10:26:16.937500
144,130.61,2022-10-26 10:26:16.953125
145,125.95,2022-10-26 10:26:16.968750
146,118.79,2022-10-26 10:26:16.984375
147,109.16,2022-10-26 10:26:17.000000
148,97.19,2022-10-26 10:26:17.015625
149,83.12,2022-10-26 10:26:17.031250
150,67.45,2022-10-26 10:26:17.046875
151,51.13,2022-10-26 10:26:17.062500
152,35.55,2022-10-26 10:26:17.078125
153,22.5,2022-10-26 10:26:17.093750
154,13.84,2022-10-26 10:26:17.109375
155,11.16,2022-10-26 10:26:17.125000
156,15.37,2022-10-26 10:26:17.140625
157,26.29,2022-10-26 10:26:17.156250
158,42.53,2022-10-26 10:26:17.171875
159,61.65,2022-10-26 10:26:17.187500
160,80.62,2022-10-26 10:26:17.203125
161,96.6,2022-10-26 10:26:17.218750
162,107.55,2022-10-26 10:26:17.234375
163,112.65,2022-10-26 10:26:17.250000
164,111.95,2022-10-26 10:26:17.265625
165,106.06,2022-10-26 10:26:17.281250
166,95.37,2022-10-26 10:26:17.296875
167,79.67,2022-10-26 10:26:17.312500
168,58.02,2022-10-26 10:26:17.328125
169,28.93,2022-10-26 10:26:17.343750
170,-9.5,2022-10-26 10:26:17.359375
171,-59.44,2022-10-26 10:26:17.375000
172,-122.68,2022-10-26 10:26:17.390625
173,-199.47,2022-10-26 10:26:17.406250
174,-287.01,2022-10-26 10:26:17.421875
175,-378.58,2022-10-26 10:26:17.437500
176,-464.16,2022-10-26 10:26:17.453125
177,-532.98,2022-10-26 10:26:17.468750
178,-576.9,2022-10-26 10:26:17.484375
179,-593.22,2022-10-26 10:26:17.500000
180,-585.38,2022-10-26 10:26:17.515625
181,-560.95,2022-10-26 10:26:17.531250
182,-528.25,2022-10-26 10:26:17.546875
183,-493.24,2022-10-26 10:26:17.562500
184,-458.27,2022-10-26 10:26:17.578125
185,-422.95,2022-10-26 10:26:17.593750
186,-386.14,2022-10-26 10:26:17.609375
187,-347.54,2022-10-26 10:26:17.625000
188,-307.87,2022-10-26 10:26:17.640625
189,-268.12,2022-10-26 10:26:17.656250
190,-228.56,2022-10-26 10:26:17.671875
191,-188.65,2022-10-26 10:26:17.687500
192,-147.91,2022-10-26 10:26:17.703125
193,-106.99,2022-10-26 10:26:17.718750
194,-68.11,2022-10-26 10:26:17.734375
195,-34.34,2022-10-26 10:26:17.750000
196,-8.41,2022-10-26 10:26:17.765625
197,8.61,2022-10-26 10:26:17.781250
198,17.74,2022-10-26 10:26:17.796875
199,21.64,2022-10-26 10:26:17.812500
200,23.46,2022-10-26 10:26:17.828125
201,25.74,2022-10-26 10:26:17.843750
202,29.79,2022-10-26 10:26:17.859375
203,35.8,2022-10-26 10:26:17.875000
204,43.36,2022-10-26 10:26:17.890625
205,51.9,2022-10-26 10:26:17.906250
206,61.02,2022-10-26 10:26:17.921875
207,70.38,2022-10-26 10:26:17.937500
208,79.54,2022-10-26 10:26:17.953125
209,87.86,2022-10-26 10:26:17.968750
210,94.6,2022-10-26 10:26:17.984375
211,99.1,2022-10-26 10:26:18.000000
212,100.99,2022-10-26 10:26:18.015625
213,100.1,2022-10-26 10:26:18.031250
214,96.36,2022-10-26 10:26:18.046875
215,89.62,2022-10-26 10:26:18.062500
216,79.87,2022-10-26 10:26:18.078125
217,67.59,2022-10-26 10:26:18.093750
218,54.24,2022-10-26 10:26:18.109375
219,42.45,2022-10-26 10:26:18.125000
220,35.6,2022-10-26 10:26:18.140625
221,36.73,2022-10-26 10:26:18.156250
222,47.31,2022-10-26 10:26:18.171875
223,66.46,2022-10-26 10:26:18.187500
224,91.1,2022-10-26 10:26:18.203125
225,116.89,2022-10-26 10:26:18.218750
226,139.94,2022-10-26 10:26:18.234375
227,158.19,2022-10-26 10:26:18.250000
228,172.06,2022-10-26 10:26:18.265625
229,184.31,2022-10-26 10:26:18.281250
230,198.88,2022-10-26 10:26:18.296875
231,219.63,2022-10-26 10:26:18.312500
232,248.97,2022-10-26 10:26:18.328125
233,286.94,2022-10-26 10:26:18.343750
234,330.79,2022-10-26 10:26:18.359375
235,375.2,2022-10-26 10:26:18.375000
236,413.36,2022-10-26 10:26:18.390625
237,438.41,2022-10-26 10:26:18.406250
238,445.27,2022-10-26 10:26:18.421875
239,432.09,2022-10-26 10:26:18.437500
240,400.83,2022-10-26 10:26:18.453125
241,356.62,2022-10-26 10:26:18.468750
242,306.07,2022-10-26 10:26:18.484375
243,255.12,2022-10-26 10:26:18.500000
244,207.33,2022-10-26 10:26:18.515625
245,163.23,2022-10-26 10:26:18.531250
246,121.12,2022-10-26 10:26:18.546875
247,78.54,2022-10-26 10:26:18.562500
248,33.96,2022-10-26 10:26:18.578125
249,-12.36,2022-10-26 10:26:18.593750
250,-58.35,2022-10-26 10:26:18.609375
251,-101.04,2022-10-26 10:26:18.625000
252,-137.66,2022-10-26 10:26:18.640625
253,-166.35,2022-10-26 10:26:18.656250
254,-186.59,2022-10-26 10:26:18.671875
255,-198.91,2022-10-26 10:26:18.687500
256,-204.58,2022-10-26 10:26:18.703125
257,-205.35,2022-10-26 10:26:18.718750
258,-203.29,2022-10-26 10:26:18.734375
259,-200.53,2022-10-26 10:26:18.750000
260,-198.95,2022-10-26 10:26:18.765625
261,-199.73,2022-10-26 10:26:18.781250
262,-202.91,2022-10-26 10:26:18.796875
263,-207.22,2022-10-26 10:26:18.812500
264,-210.27,2022-10-26 10:26:18.828125
265,-209.17,2022-10-26 10:26:18.843750
266,-201.6,2022-10-26 10:26:18.859375
267,-186.85,2022-10-26 10:26:18.875000
268,-166.42,2022-10-26 10:26:18.890625
269,-143.83,2022-10-26 10:26:18.906250
270,-123.61,2022-10-26 10:26:18.921875
271,-109.61,2022-10-26 10:26:18.937500
272,-103.68,2022-10-26 10:26:18.953125
273,-105.05,2022-10-26 10:26:18.968750
274,-110.8,2022-10-26 10:26:18.984375
275,-117.32,2022-10-26 10:26:19.000000
276,-121.73,2022-10-26 10:26:19.015625
277,-122.74,2022-10-26 10:26:19.031250
278,-120.73,2022-10-26 10:26:19.046875
279,-116.84,2022-10-26 10:26:19.062500
280,-112.12,2022-10-26 10:26:19.078125
281,-106.99,2022-10-26 10:26:19.093750
282,-101.18,2022-10-26 10:26:19.109375
283,-94.18,2022-10-26 10:26:19.125000
284,-85.75,2022-10-26 10:26:19.140625
285,-76.1,2022-10-26 10:26:19.156250
286,-65.75,2022-10-26 10:26:19.171875
287,-55.32,2022-10-26 10:26:19.187500
288,-45.22,2022-10-26 10:26:19.203125
289,-35.62,2022-10-26 10:26:19.218750
290,-26.64,2022-10-26 10:26:19.234375
291,-18.51,2022-10-26 10:26:19.250000
292,-11.74,2022-10-26 10:26:19.265625
293,-7.08,2022-10-26 10:26:19.281250
294,-5.13,2022-10-26 10:26:19.296875
295,-5.97,2022-10-26 10:26:19.312500
296,-8.94,2022-10-26 10:26:19.328125
297,-12.76,2022-10-26 10:26:19.343750
298,-15.97,2022-10-26 10:26:19.359375
299,-17.69,2022-10-26 10:26:19.375000
300,-18.07,2022-10-26 10:26:19.390625
301,-18.22,2022-10-26 10:26:19.406250
302,-19.66,2022-10-26 10:26:19.421875
303,-23.26,2022-10-26 10:26:19.437500
304,-28.62,2022-10-26 10:26:19.453125
305,-34.18,2022-10-26 10:26:19.468750
306,-37.91,2022-10-26 10:26:19.484375
307,-38.36,2022-10-26 10:26:19.500000
308,-35.3,2022-10-26 10:26:19.515625
309,-29.39,2022-10-26 10:26:19.531250
310,-21.13,2022-10-26 10:26:19.546875
311,-10.12,2022-10-26 10:26:19.562500
312,5.03,2022-10-26 10:26:19.578125
313,25.81,2022-10-26 10:26:19.593750
314,52.59,2022-10-26 10:26:19.609375
315,83.88,2022-10-26 10:26:19.625000
316,116.73,2022-10-26 10:26:19.640625
317,147.79,2022-10-26 10:26:19.656250
318,174.39,2022-10-26 10:26:19.671875
319,194.74,2022-10-26 10:26:19.687500
320,207.23,2022-10-26 10:26:19.703125
321,209.9,2022-10-26 10:26:19.718750
322,200.73,2022-10-26 10:26:19.734375
323,179.0,2022-10-26 10:26:19.750000
324,146.96,2022-10-26 10:26:19.765625
325,110.32,2022-10-26 10:26:19.781250
326,76.64,2022-10-26 10:26:19.796875
327,52.43,2022-10-26 10:26:19.812500
328,40.2,2022-10-26 10:26:19.828125
329,37.28,2022-10-26 10:26:19.843750
330,37.59,2022-10-26 10:26:19.859375
331,35.13,2022-10-26 10:26:19.875000
332,27.5,2022-10-26 10:26:19.890625
333,17.39,2022-10-26 10:26:19.906250
334,11.05,2022-10-26 10:26:19.921875
335,14.79,2022-10-26 10:26:19.937500
336,31.48,2022-10-26 10:26:19.953125
337,58.78,2022-10-26 10:26:19.968750
338,89.89,2022-10-26 10:26:19.984375
339,116.46,2022-10-26 10:26:20.000000
340,131.59,2022-10-26 10:26:20.015625
341,131.87,2022-10-26 10:26:20.031250
342,117.95,2022-10-26 10:26:20.046875
343,93.53,2022-10-26 10:26:20.062500
344,63.59,2022-10-26 10:26:20.078125
345,32.84,2022-10-26 10:26:20.093750
346,4.68,2022-10-26 10:26:20.109375
347,-19.26,2022-10-26 10:26:20.125000
348,-38.9,2022-10-26 10:26:20.140625
349,-55.15,2022-10-26 10:26:20.156250
350,-69.25,2022-10-26 10:26:20.171875
351,-82.2,2022-10-26 10:26:20.187500
352,-94.52,2022-10-26 10:26:20.203125
353,-106.52,2022-10-26 10:26:20.218750
354,-118.6,2022-10-26 10:26:20.234375
355,-131.47,2022-10-26 10:26:20.250000
356,-145.92,2022-10-26 10:26:20.265625
357,-162.28,2022-10-26 10:26:20.281250
358,-180.1,2022-10-26 10:26:20.296875
359,-198.15,2022-10-26 10:26:20.312500
360,-214.89,2022-10-26 10:26:20.328125
361,-229.21,2022-10-26 10:26:20.343750
362,-240.78,2022-10-26 10:26:20.359375
363,-249.99,2022-10-26 10:26:20.375000
364,-257.37,2022-10-26 10:26:20.390625
365,-262.91,2022-10-26 10:26:20.406250
366,-265.76,2022-10-26 10:26:20.421875
367,-264.5,2022-10-26 10:26:20.437500
368,-257.77,2022-10-26 10:26:20.453125
369,-244.89,2022-10-26 10:26:20.468750
370,-226.2,2022-10-26 10:26:20.484375
371,-202.85,2022-10-26 10:26:20.500000
372,-176.15,2022-10-26 10:26:20.515625
373,-147.17,2022-10-26 10:26:20.531250
374,-116.56,2022-10-26 10:26:20.546875
375,-84.84,2022-10-26 10:26:20.562500
376,-52.94,2022-10-26 10:26:20.578125
377,-22.4,2022-10-26 10:26:20.593750
378,4.78,2022-10-26 10:26:20.609375
379,26.79,2022-10-26 10:26:20.625000
380,42.64,2022-10-26 10:26:20.640625
381,52.52,2022-10-26 10:26:20.656250
382,57.66,2022-10-26 10:26:20.671875
383,59.72,2022-10-26 10:26:20.687500
384,60.15,2022-10-26 10:26:20.703125
385,59.85,2022-10-26 10:26:20.718750
386,59.19,2022-10-26 10:26:20.734375
387,58.17,2022-10-26 10:26:20.750000
388,56.84,2022-10-26 10:26:20.765625
389,55.33,2022-10-26 10:26:20.781250
390,53.8,2022-10-26 10:26:20.796875
391,52.31,2022-10-26 10:26:20.812500
392,50.68,2022-10-26 10:26:20.828125
393,48.57,2022-10-26 10:26:20.843750
394,45.69,2022-10-26 10:26:20.859375
395,41.85,2022-10-26 10:26:20.875000
396,37.08,2022-10-26 10:26:20.890625
397,31.51,2022-10-26 10:26:20.906250
398,25.39,2022-10-26 10:26:20.921875
399,18.96,2022-10-26 10:26:20.937500
400,12.61,2022-10-26 10:26:20.953125
401,6.91,2022-10-26 10:26:20.968750
402,2.67,2022-10-26 10:26:20.984375
403,0.73,2022-10-26 10:26:21.000000
404,1.69,2022-10-26 10:26:21.015625
405,5.67,2022-10-26 10:26:21.031250
406,11.95,2022-10-26 10:26:21.046875
407,19.14,2022-10-26 10:26:21.062500
408,25.31,2022-10-26 10:26:21.078125
409,28.66,2022-10-26 10:26:21.093750
410,28.12,2022-10-26 10:26:21.109375
411,23.87,2022-10-26 10:26:21.125000
412,17.45,2022-10-26 10:26:21.140625
413,11.37,2022-10-26 10:26:21.156250
414,8.38,2022-10-26 10:26:21.171875
415,10.55,2022-10-26 10:26:21.187500
416,18.71,2022-10-26 10:26:21.203125
417,32.22,2022-10-26 10:26:21.218750
418,49.42,2022-10-26 10:26:21.234375
419,68.21,2022-10-26 10:26:21.250000
420,86.69,2022-10-26 10:26:21.265625
421,103.52,2022-10-26 10:26:21.281250
422,117.94,2022-10-26 10:26:21.296875
423,129.61,2022-10-26 10:26:21.312500
424,138.31,2022-10-26 10:26:21.328125
425,143.88,2022-10-26 10:26:21.343750
426,146.22,2022-10-26 10:26:21.359375
427,145.37,2022-10-26 10:26:21.375000
428,141.57,2022-10-26 10:26:21.390625
429,135.28,2022-10-26 10:26:21.406250
430,127.11,2022-10-26 10:26:21.421875
431,117.82,2022-10-26 10:26:21.437500
432,108.21,2022-10-26 10:26:21.453125
433,99.11,2022-10-26 10:26:21.468750
434,91.26,2022-10-26 10:26:21.484375
435,85.17,2022-10-26 10:26:21.500000
436,80.96,2022-10-26 10:26:21.515625
437,78.38,2022-10-26 10:26:21.531250
438,76.8,2022-10-26 10:26:21.546875
439,75.54,2022-10-26 10:26:21.562500
440,74.06,2022-10-26 10:26:21.578125
441,72.13,2022-10-26 10:26:21.593750
442,69.78,2022-10-26 10:26:21.609375
443,67.1,2022-10-26 10:26:21.625000
444,63.96,2022-10-26 10:26:21.640625
445,59.87,2022-10-26 10:26:21.656250
446,53.97,2022-10-26 10:26:21.671875
447,45.34,2022-10-26 10:26:21.687500
448,33.32,2022-10-26 10:26:21.703125
449,17.94,2022-10-26 10:26:21.718750
450,0.16,2022-10-26 10:26:21.734375
451,-18.18,2022-10-26 10:26:21.750000
452,-34.73,2022-10-26 10:26:21.765625
453,-47.36,2022-10-26 10:26:21.781250
454,-54.93,2022-10-26 10:26:21.796875
455,-57.83,2022-10-26 10:26:21.812500
456,-57.97,2022-10-26 10:26:21.828125
457,-58.25,2022-10-26 10:26:21.843750
458,-61.46,2022-10-26 10:26:21.859375
459,-69.32,2022-10-26 10:26:21.875000
460,-81.75,2022-10-26 10:26:21.890625
461,-96.93,2022-10-26 10:26:21.906250
462,-111.88,2022-10-26 10:26:21.921875
463,-123.41,2022-10-26 10:26:21.937500
464,-129.02,2022-10-26 10:26:21.953125
465,-127.48,2022-10-26 10:26:21.968750
466,-118.94,2022-10-26 10:26:21.984375
467,-104.69,2022-10-26 10:26:22.000000
468,-86.64,2022-10-26 10:26:22.015625
469,-66.94,2022-10-26 10:26:22.031250
470,-47.51,2022-10-26 10:26:22.046875
471,-29.81,2022-10-26 10:26:22.062500
472,-14.76,2022-10-26 10:26:22.078125
473,-2.79,2022-10-26 10:26:22.093750
474,6.06,2022-10-26 10:26:22.109375
475,12.04,2022-10-26 10:26:22.125000
476,15.68,2022-10-26 10:26:22.140625
477,17.69,2022-10-26 10:26:22.156250
478,18.94,2022-10-26 10:26:22.171875
479,20.24,2022-10-26 10:26:22.187500
480,22.18,2022-10-26 10:26:22.203125
481,24.97,2022-10-26 10:26:22.218750
482,28.36,2022-10-26 10:26:22.234375
483,31.77,2022-10-26 10:26:22.250000
484,34.53,2022-10-26 10:26:22.265625
485,36.16,2022-10-26 10:26:22.281250
486,36.6,2022-10-26 10:26:22.296875
487,36.11,2022-10-26 10:26:22.312500
488,35.16,2022-10-26 10:26:22.328125
489,34.18,2022-10-26 10:26:22.343750
490,33.34,2022-10-26 10:26:22.359375
491,32.56,2022-10-26 10:26:22.375000
492,31.63,2022-10-26 10:26:22.390625
493,30.46,2022-10-26 10:26:22.406250
494,29.18,2022-10-26 10:26:22.421875
495,28.21,2022-10-26 10:26:22.437500
496,28.06,2022-10-26 10:26:22.453125
497,29.06,2022-10-26 10:26:22.468750
498,31.17,2022-10-26 10:26:22.484375
499,33.93,2022-10-26 10:26:22.500000
500,36.55,2022-10-26 10:26:22.515625
501,38.22,2022-10-26 10:26:22.531250
502,38.42,2022-10-26 10:26:22.546875
503,37.17,2022-10-26 10:26:22.562500
504,35.13,2022-10-26 10:26:22.578125
505,33.58,2022-10-26 10:26:22.593750
506,33.87,2022-10-26 10:26:22.609375
507,37.01,2022-10-26 10:26:22.625000
508,43.11,2022-10-26 10:26:22.640625
509,51.3,2022-10-26 10:26:22.656250
510,59.95,2022-10-26 10:26:22.671875
511,67.28,2022-10-26 10:26:22.687500
512,71.9,2022-10-26 10:26:22.703125
513,73.27,2022-10-26 10:26:22.718750
514,71.62,2022-10-26 10:26:22.734375
515,67.63,2022-10-26 10:26:22.750000
516,62.07,2022-10-26 10:26:22.765625
517,55.47,2022-10-26 10:26:22.781250
518,48.07,2022-10-26 10:26:22.796875
519,39.98,2022-10-26 10:26:22.812500
520,31.36,2022-10-26 10:26:22.828125
521,22.49,2022-10-26 10:26:22.843750
522,13.82,2022-10-26 10:26:22.859375
523,5.94,2022-10-26 10:26:22.875000
524,-0.49,2022-10-26 10:26:22.890625
525,-4.93,2022-10-26 10:26:22.906250
526,-7.09,2022-10-26 10:26:22.921875
527,-7.09,2022-10-26 10:26:22.937500
528,-5.46,2022-10-26 10:26:22.953125
529,-3.04,2022-10-26 10:26:22.968750
530,-0.75,2022-10-26 10:26:22.984375
531,0.74,2022-10-26 10:26:23.000000
532,1.05,2022-10-26 10:26:23.015625
533,0.1,2022-10-26 10:26:23.031250
534,-2.0,2022-10-26 10:26:23.046875
535,-5.11,2022-10-26 10:26:23.062500
536,-9.09,2022-10-26 10:26:23.078125
537,-13.8,2022-10-26 10:26:23.093750
538,-19.04,2022-10-26 10:26:23.109375
539,-24.64,2022-10-26 10:26:23.125000
540,-30.54,2022-10-26 10:26:23.140625
541,-36.89,2022-10-26 10:26:23.156250
542,-43.97,2022-10-26 10:26:23.171875
543,-51.99,2022-10-26 10:26:23.187500
544,-60.64,2022-10-26 10:26:23.203125
545,-68.9,2022-10-26 10:26:23.218750
546,-75.0,2022-10-26 10:26:23.234375
547,-76.94,2022-10-26 10:26:23.250000
548,-73.19,2022-10-26 10:26:23.265625
549,-63.3,2022-10-26 10:26:23.281250
550,-48.2,2022-10-26 10:26:23.296875
551,-29.96,2022-10-26 10:26:23.312500
552,-11.08,2022-10-26 10:26:23.328125
553,6.17,2022-10-26 10:26:23.343750
554,20.35,2022-10-26 10:26:23.359375
555,30.92,2022-10-26 10:26:23.375000
556,38.13,2022-10-26 10:26:23.390625
557,42.54,2022-10-26 10:26:23.406250
558,44.78,2022-10-26 10:26:23.421875
559,45.38,2022-10-26 10:26:23.437500
560,44.77,2022-10-26 10:26:23.453125
561,43.39,2022-10-26 10:26:23.468750
562,41.66,2022-10-26 10:26:23.484375
563,40.01,2022-10-26 10:26:23.500000
564,38.78,2022-10-26 10:26:23.515625
565,38.15,2022-10-26 10:26:23.531250
566,38.09,2022-10-26 10:26:23.546875
567,38.42,2022-10-26 10:26:23.562500
568,38.9,2022-10-26 10:26:23.578125
569,39.31,2022-10-26 10:26:23.593750
570,39.55,2022-10-26 10:26:23.609375
571,39.57,2022-10-26 10:26:23.625000
572,39.25,2022-10-26 10:26:23.640625
573,38.33,2022-10-26 10:26:23.656250
574,36.55,2022-10-26 10:26:23.671875
575,33.62,2022-10-26 10:26:23.687500
576,29.55,2022-10-26 10:26:23.703125
577,24.68,2022-10-26 10:26:23.718750
578,19.55,2022-10-26 10:26:23.734375
579,14.78,2022-10-26 10:26:23.750000
580,10.72,2022-10-26 10:26:23.765625
581,7.31,2022-10-26 10:26:23.781250
582,4.06,2022-10-26 10:26:23.796875
583,0.27,2022-10-26 10:26:23.812500
584,-4.8,2022-10-26 10:26:23.828125
585,-11.47,2022-10-26 10:26:23.843750
586,-19.55,2022-10-26 10:26:23.859375
587,-28.07,2022-10-26 10:26:23.875000
588,-35.47,2022-10-26 10:26:23.890625
589,-39.88,2022-10-26 10:26:23.906250
590,-39.65,2022-10-26 10:26:23.921875
591,-33.98,2022-10-26 10:26:23.937500
592,-23.23,2022-10-26 10:26:23.953125
593,-8.91,2022-10-26 10:26:23.968750
594,6.77,2022-10-26 10:26:23.984375
595,21.62,2022-10-26 10:26:24.000000
596,34.04,2022-10-26 10:26:24.015625
597,43.41,2022-10-26 10:26:24.031250
598,49.88,2022-10-26 10:26:24.046875
599,54.03,2022-10-26 10:26:24.062500
600,56.4,2022-10-26 10:26:24.078125
601,57.2,2022-10-26 10:26:24.093750
602,56.37,2022-10-26 10:26:24.109375
603,53.87,2022-10-26 10:26:24.125000
604,49.92,2022-10-26 10:26:24.140625
605,45.11,2022-10-26 10:26:24.156250
606,40.35,2022-10-26 10:26:24.171875
607,36.49,2022-10-26 10:26:24.187500
608,34.03,2022-10-26 10:26:24.203125
609,32.96,2022-10-26 10:26:24.218750
610,32.77,2022-10-26 10:26:24.234375
611,32.77,2022-10-26 10:26:24.250000
612,32.35,2022-10-26 10:26:24.265625
613,31.21,2022-10-26 10:26:24.281250
614,29.4,2022-10-26 10:26:24.296875
615,27.18,2022-10-26 10:26:24.312500
616,24.82,2022-10-26 10:26:24.328125
617,22.41,2022-10-26 10:26:24.343750
618,19.85,2022-10-26 10:26:24.359375
619,16.76,2022-10-26 10:26:24.375000
620,12.74,2022-10-26 10:26:24.390625
621,7.44,2022-10-26 10:26:24.406250
622,0.84,2022-10-26 10:26:24.421875
623,-6.72,2022-10-26 10:26:24.437500
624,-14.52,2022-10-26 10:26:24.453125
625,-21.67,2022-10-26 10:26:24.468750
626,-27.5,2022-10-26 10:26:24.484375
627,-31.81,2022-10-26 10:26:24.500000
628,-34.95,2022-10-26 10:26:24.515625
629,-37.73,2022-10-26 10:26:24.531250
630,-41.07,2022-10-26 10:26:24.546875
631,-45.78,2022-10-26 10:26:24.562500
632,-52.26,2022-10-26 10:26:24.578125
633,-60.31,2022-10-26 10:26:24.593750
634,-69.08,2022-10-26 10:26:24.609375
635,-77.1,2022-10-26 10:26:24.625000
636,-82.52,2022-10-26 10:26:24.640625
637,-83.51,2022-10-26 10:26:24.656250
638,-78.95,2022-10-26 10:26:24.671875
639,-68.79,2022-10-26 10:26:24.687500
640,-54.29,2022-10-26 10:26:24.703125
641,-37.56,2022-10-26 10:26:24.718750
642,-20.95,2022-10-26 10:26:24.734375
643,-6.33,2022-10-26 10:26:24.750000
644,5.36,2022-10-26 10:26:24.765625
645,14.04,2022-10-26 10:26:24.781250
646,20.14,2022-10-26 10:26:24.796875
647,24.09,2022-10-26 10:26:24.812500
648,26.11,2022-10-26 10:26:24.828125
649,26.15,2022-10-26 10:26:24.843750
650,24.26,2022-10-26 10:26:24.859375
651,20.79,2022-10-26 10:26:24.875000
652,16.49,2022-10-26 10:26:24.890625
653,12.39,2022-10-26 10:26:24.906250
654,9.41,2022-10-26 10:26:24.921875
655,8.03,2022-10-26 10:26:24.937500
656,8.09,2022-10-26 10:26:24.953125
657,8.91,2022-10-26 10:26:24.968750
658,9.66,2022-10-26 10:26:24.984375
659,9.77,2022-10-26 10:26:25.000000
660,9.14,2022-10-26 10:26:25.015625
661,8.08,2022-10-26 10:26:25.031250
662,7.05,2022-10-26 10:26:25.046875
663,6.27,2022-10-26 10:26:25.062500
664,5.55,2022-10-26 10:26:25.078125
665,4.32,2022-10-26 10:26:25.093750
666,2.05,2022-10-26 10:26:25.109375
667,-1.52,2022-10-26 10:26:25.125000
668,-6.07,2022-10-26 10:26:25.140625
669,-10.89,2022-10-26 10:26:25.156250
670,-15.19,2022-10-26 10:26:25.171875
671,-18.42,2022-10-26 10:26:25.187500
672,-20.58,2022-10-26 10:26:25.203125
673,-22.19,2022-10-26 10:26:25.218750
674,-24.1,2022-10-26 10:26:25.234375
675,-27.09,2022-10-26 10:26:25.250000
676,-31.7,2022-10-26 10:26:25.265625
677,-38.09,2022-10-26 10:26:25.281250
678,-45.89,2022-10-26 10:26:25.296875
679,-54.3,2022-10-26 10:26:25.312500
680,-61.97,2022-10-26 10:26:25.328125
681,-67.3,2022-10-26 10:26:25.343750
682,-68.67,2022-10-26 10:26:25.359375
683,-64.97,2022-10-26 10:26:25.375000
684,-56.0,2022-10-26 10:26:25.390625
685,-42.73,2022-10-26 10:26:25.406250
686,-27.0,2022-10-26 10:26:25.421875
687,-11.01,2022-10-26 10:26:25.437500
688,3.4,2022-10-26 10:26:25.453125
689,15.16,2022-10-26 10:26:25.468750
690,24.06,2022-10-26 10:26:25.484375
691,30.39,2022-10-26 10:26:25.500000
692,34.6,2022-10-26 10:26:25.515625
693,36.97,2022-10-26 10:26:25.531250
694,37.6,2022-10-26 10:26:25.546875
695,36.6,2022-10-26 10:26:25.562500
696,34.3,2022-10-26 10:26:25.578125
697,31.3,2022-10-26 10:26:25.593750
698,28.41,2022-10-26 10:26:25.609375
699,26.34,2022-10-26 10:26:25.625000
700,25.54,2022-10-26 10:26:25.640625
701,26.06,2022-10-26 10:26:25.656250
702,27.51,2022-10-26 10:26:25.671875
703,29.33,2022-10-26 10:26:25.687500
704,30.89,2022-10-26 10:26:25.703125
705,31.79,2022-10-26 10:26:25.718750
706,31.83,2022-10-26 10:26:25.734375
707,31.0,2022-10-26 10:26:25.750000
708,29.36,2022-10-26 10:26:25.765625
709,26.94,2022-10-26 10:26:25.781250
710,23.72,2022-10-26 10:26:25.796875
711,19.74,2022-10-26 10:26:25.812500
712,15.19,2022-10-26 10:26:25.828125
713,10.5,2022-10-26 10:26:25.843750
714,6.21,2022-10-26 10:26:25.859375
715,2.71,2022-10-26 10:26:25.875000
716,0.1,2022-10-26 10:26:25.890625
717,-1.98,2022-10-26 10:26:25.906250
718,-4.14,2022-10-26 10:26:25.921875
719,-6.99,2022-10-26 10:26:25.937500
720,-10.82,2022-10-26 10:26:25.953125
721,-15.5,2022-10-26 10:26:25.968750
722,-20.49,2022-10-26 10:26:25.984375
723,-25.14,2022-10-26 10:26:26.000000
724,-28.95,2022-10-26 10:26:26.015625
725,-31.87,2022-10-26 10:26:26.031250
726,-34.24,2022-10-26 10:26:26.046875
727,-36.86,2022-10-26 10:26:26.062500
728,-40.61,2022-10-26 10:26:26.078125
729,-46.31,2022-10-26 10:26:26.093750
730,-54.31,2022-10-26 10:26:26.109375
731,-64.22,2022-10-26 10:26:26.125000
732,-74.78,2022-10-26 10:26:26.140625
733,-83.85,2022-10-26 10:26:26.156250
734,-89.02,2022-10-26 10:26:26.171875
735,-88.22,2022-10-26 10:26:26.187500
736,-80.58,2022-10-26 10:26:26.203125
737,-66.73,2022-10-26 10:26:26.218750
738,-48.77,2022-10-26 10:26:26.234375
739,-29.5,2022-10-26 10:26:26.250000
740,-11.56,2022-10-26 10:26:26.265625
741,3.37,2022-10-26 10:26:26.281250
742,14.88,2022-10-26 10:26:26.296875
743,23.49,2022-10-26 10:26:26.312500
744,30.11,2022-10-26 10:26:26.328125
745,35.42,2022-10-26 10:26:26.343750
746,39.57,2022-10-26 10:26:26.359375
747,42.36,2022-10-26 10:26:26.375000
748,43.57,2022-10-26 10:26:26.390625
749,43.25,2022-10-26 10:26:26.406250
750,41.83,2022-10-26 10:26:26.421875
751,40.02,2022-10-26 10:26:26.437500
752,38.43,2022-10-26 10:26:26.453125
753,37.4,2022-10-26 10:26:26.468750
754,36.84,2022-10-26 10:26:26.484375
755,36.46,2022-10-26 10:26:26.500000
756,35.93,2022-10-26 10:26:26.515625
757,35.12,2022-10-26 10:26:26.531250
758,34.12,2022-10-26 10:26:26.546875
759,33.18,2022-10-26 10:26:26.562500
760,32.5,2022-10-26 10:26:26.578125
761,32.08,2022-10-26 10:26:26.593750
762,31.7,2022-10-26 10:26:26.609375
763,30.95,2022-10-26 10:26:26.625000
764,29.48,2022-10-26 10:26:26.640625
765,27.16,2022-10-26 10:26:26.656250
766,24.12,2022-10-26 10:26:26.671875
767,20.78,2022-10-26 10:26:26.687500
768,17.53,2022-10-26 10:26:26.703125
769,14.63,2022-10-26 10:26:26.718750
770,12.0,2022-10-26 10:26:26.734375
771,9.33,2022-10-26 10:26:26.750000
772,6.22,2022-10-26 10:26:26.765625
773,2.49,2022-10-26 10:26:26.781250
774,-1.69,2022-10-26 10:26:26.796875
775,-5.86,2022-10-26 10:26:26.812500
776,-9.51,2022-10-26 10:26:26.828125
777,-12.33,2022-10-26 10:26:26.843750
778,-14.47,2022-10-26 10:26:26.859375
779,-16.42,2022-10-26 10:26:26.875000
780,-18.79,2022-10-26 10:26:26.890625
781,-21.97,2022-10-26 10:26:26.906250
782,-25.89,2022-10-26 10:26:26.921875
783,-30.1,2022-10-26 10:26:26.937500
784,-33.94,2022-10-26 10:26:26.953125
785,-37.02,2022-10-26 10:26:26.968750
786,-39.37,2022-10-26 10:26:26.984375
787,-41.54,2022-10-26 10:26:27.000000
788,-44.36,2022-10-26 10:26:27.015625
789,-48.65,2022-10-26 10:26:27.031250
790,-54.95,2022-10-26 10:26:27.046875
791,-63.23,2022-10-26 10:26:27.062500
792,-72.8,2022-10-26 10:26:27.078125
793,-82.26,2022-10-26 10:26:27.093750
794,-89.6,2022-10-26 10:26:27.109375
795,-92.74,2022-10-26 10:26:27.125000
796,-90.01,2022-10-26 10:26:27.140625
797,-80.79,2022-10-26 10:26:27.156250
798,-65.84,2022-10-26 10:26:27.171875
799,-47.14,2022-10-26 10:26:27.187500
800,-27.37,2022-10-26 10:26:27.203125
801,-9.1,2022-10-26 10:26:27.218750
802,5.91,2022-10-26 10:26:27.234375
803,17.05,2022-10-26 10:26:27.250000
804,24.69,2022-10-26 10:26:27.265625
805,29.71,2022-10-26 10:26:27.281250
806,33.07,2022-10-26 10:26:27.296875
807,35.4,2022-10-26 10:26:27.312500
808,36.98,2022-10-26 10:26:27.328125
809,37.85,2022-10-26 10:26:27.343750
810,38.02,2022-10-26 10:26:27.359375
811,37.63,2022-10-26 10:26:27.375000
812,37.06,2022-10-26 10:26:27.390625
813,36.73,2022-10-26 10:26:27.406250
814,36.98,2022-10-26 10:26:27.421875
815,37.89,2022-10-26 10:26:27.437500
816,39.32,2022-10-26 10:26:27.453125
817,40.89,2022-10-26 10:26:27.468750
818,42.25,2022-10-26 10:26:27.484375
819,43.12,2022-10-26 10:26:27.500000
820,43.44,2022-10-26 10:26:27.515625
821,43.17,2022-10-26 10:26:27.531250
822,42.29,2022-10-26 10:26:27.546875
823,40.73,2022-10-26 10:26:27.562500
824,38.36,2022-10-26 10:26:27.578125
825,35.17,2022-10-26 10:26:27.593750
826,31.31,2022-10-26 10:26:27.609375
827,27.08,2022-10-26 10:26:27.625000
828,22.77,2022-10-26 10:26:27.640625
829,18.6,2022-10-26 10:26:27.656250
830,14.61,2022-10-26 10:26:27.671875
831,10.75,2022-10-26 10:26:27.687500
832,7.0,2022-10-26 10:26:27.703125
833,3.42,2022-10-26 10:26:27.718750
834,0.2,2022-10-26 10:26:27.734375
835,-2.58,2022-10-26 10:26:27.750000
836,-4.95,2022-10-26 10:26:27.765625
837,-7.22,2022-10-26 10:26:27.781250
838,-9.77,2022-10-26 10:26:27.796875
839,-12.99,2022-10-26 10:26:27.812500
840,-17.04,2022-10-26 10:26:27.828125
841,-21.72,2022-10-26 10:26:27.843750
842,-26.64,2022-10-26 10:26:27.859375
843,-31.29,2022-10-26 10:26:27.875000
844,-35.33,2022-10-26 10:26:27.890625
845,-38.67,2022-10-26 10:26:27.906250
846,-41.56,2022-10-26 10:26:27.921875
847,-44.49,2022-10-26 10:26:27.937500
848,-48.12,2022-10-26 10:26:27.953125
849,-53.05,2022-10-26 10:26:27.968750
850,-59.66,2022-10-26 10:26:27.984375
851,-67.83,2022-10-26 10:26:28.000000
852,-76.68,2022-10-26 10:26:28.015625
853,-84.58,2022-10-26 10:26:28.031250
854,-89.35,2022-10-26 10:26:28.046875
855,-88.87,2022-10-26 10:26:28.062500
856,-81.88,2022-10-26 10:26:28.078125
857,-68.52,2022-10-26 10:26:28.093750
858,-50.48,2022-10-26 10:26:28.109375
859,-30.47,2022-10-26 10:26:28.125000
860,-11.36,2022-10-26 10:26:28.140625
861,4.75,2022-10-26 10:26:28.156250
862,16.98,2022-10-26 10:26:28.171875
863,25.6,2022-10-26 10:26:28.187500
864,31.52,2022-10-26 10:26:28.203125
865,35.61,2022-10-26 10:26:28.218750
866,38.4,2022-10-26 10:26:28.234375
867,40.03,2022-10-26 10:26:28.250000
868,40.46,2022-10-26 10:26:28.265625
869,39.78,2022-10-26 10:26:28.281250
870,38.35,2022-10-26 10:26:28.296875
871,36.72,2022-10-26 10:26:28.312500
872,35.44,2022-10-26 10:26:28.328125
873,34.9,2022-10-26 10:26:28.343750
874,35.16,2022-10-26 10:26:28.359375
875,36.08,2022-10-26 10:26:28.375000
876,37.29,2022-10-26 10:26:28.390625
877,38.41,2022-10-26 10:26:28.406250
878,39.18,2022-10-26 10:26:28.421875
879,39.52,2022-10-26 10:26:28.437500
880,39.45,2022-10-26 10:26:28.453125
881,39.08,2022-10-26 10:26:28.468750
882,38.43,2022-10-26 10:26:28.484375
883,37.4,2022-10-26 10:26:28.500000
884,35.78,2022-10-26 10:26:28.515625
885,33.38,2022-10-26 10:26:28.531250
886,30.15,2022-10-26 10:26:28.546875
887,26.28,2022-10-26 10:26:28.562500
888,22.24,2022-10-26 10:26:28.578125
889,18.58,2022-10-26 10:26:28.593750
890,15.75,2022-10-26 10:26:28.609375
891,13.9,2022-10-26 10:26:28.625000
892,12.7,2022-10-26 10:26:28.640625
893,11.54,2022-10-26 10:26:28.656250
894,9.74,2022-10-26 10:26:28.671875
895,6.87,2022-10-26 10:26:28.687500
896,2.99,2022-10-26 10:26:28.703125
897,-1.41,2022-10-26 10:26:28.718750
898,-5.62,2022-10-26 10:26:28.734375
899,-9.0,2022-10-26 10:26:28.750000
900,-11.37,2022-10-26 10:26:28.765625
901,-13.05,2022-10-26 10:26:28.781250
902,-14.7,2022-10-26 10:26:28.796875
903,-17.05,2022-10-26 10:26:28.812500
904,-20.56,2022-10-26 10:26:28.828125
905,-25.23,2022-10-26 10:26:28.843750
906,-30.6,2022-10-26 10:26:28.859375
907,-35.95,2022-10-26 10:26:28.875000
908,-40.56,2022-10-26 10:26:28.890625
909,-44.02,2022-10-26 10:26:28.906250
910,-46.4,2022-10-26 10:26:28.921875
911,-48.21,2022-10-26 10:26:28.937500
912,-50.26,2022-10-26 10:26:28.953125
913,-53.42,2022-10-26 10:26:28.968750
914,-58.39,2022-10-26 10:26:28.984375
915,-65.44,2022-10-26 10:26:29.000000
916,-74.18,2022-10-26 10:26:29.015625
917,-83.52,2022-10-26 10:26:29.031250
918,-91.6,2022-10-26 10:26:29.046875
919,-96.18,2022-10-26 10:26:29.062500
920,-95.2,2022-10-26 10:26:29.078125
921,-87.47,2022-10-26 10:26:29.093750
922,-73.19,2022-10-26 10:26:29.109375
923,-54.0,2022-10-26 10:26:29.125000
924,-32.54,2022-10-26 10:26:29.140625
925,-11.63,2022-10-26 10:26:29.156250
926,6.5,2022-10-26 10:26:29.171875
927,20.72,2022-10-26 10:26:29.187500
928,31.0,2022-10-26 10:26:29.203125
929,38.02,2022-10-26 10:26:29.218750
930,42.62,2022-10-26 10:26:29.234375
931,45.43,2022-10-26 10:26:29.250000
932,46.78,2022-10-26 10:26:29.265625
933,46.86,2022-10-26 10:26:29.281250
934,45.84,2022-10-26 10:26:29.296875
935,44.1,2022-10-26 10:26:29.312500
936,42.15,2022-10-26 10:26:29.328125
937,40.5,2022-10-26 10:26:29.343750
938,39.56,2022-10-26 10:26:29.359375
939,39.44,2022-10-26 10:26:29.375000
940,40.0,2022-10-26 10:26:29.390625
941,40.9,2022-10-26 10:26:29.406250
942,41.74,2022-10-26 10:26:29.421875
943,42.18,2022-10-26 10:26:29.437500
944,42.1,2022-10-26 10:26:29.453125
945,41.54,2022-10-26 10:26:29.468750
946,40.63,2022-10-26 10:26:29.484375
947,39.38,2022-10-26 10:26:29.500000
948,37.69,2022-10-26 10:26:29.515625
949,35.34,2022-10-26 10:26:29.531250
950,32.12,2022-10-26 10:26:29.546875
951,28.07,2022-10-26 10:26:29.562500
952,23.54,2022-10-26 10:26:29.578125
953,19.09,2022-10-26 10:26:29.593750
954,15.29,2022-10-26 10:26:29.609375
955,12.46,2022-10-26 10:26:29.625000
956,10.44,2022-10-26 10:26:29.640625
957,8.74,2022-10-26 10:26:29.656250
958,6.74,2022-10-26 10:26:29.671875
959,3.98,2022-10-26 10:26:29.687500
960,0.4,2022-10-26 10:26:29.703125
961,-3.65,2022-10-26 10:26:29.718750
962,-7.6,2022-10-26 10:26:29.734375
963,-10.88,2022-10-26 10:26:29.750000
964,-13.22,2022-10-26 10:26:29.765625
965,-14.73,2022-10-26 10:26:29.781250
966,-15.84,2022-10-26 10:26:29.796875
967,-17.13,2022-10-26 10:26:29.812500
968,-19.1,2022-10-26 10:26:29.828125
969,-22.03,2022-10-26 10:26:29.843750
970,-25.76,2022-10-26 10:26:29.859375
971,-29.89,2022-10-26 10:26:29.875000
972,-33.95,2022-10-26 10:26:29.890625
973,-37.6,2022-10-26 10:26:29.906250
974,-40.84,2022-10-26 10:26:29.921875
975,-43.98,2022-10-26 10:26:29.937500
976,-47.61,2022-10-26 10:26:29.953125
977,-52.39,2022-10-26 10:26:29.968750
978,-58.85,2022-10-26 10:26:29.984375
979,-67.2,2022-10-26 10:26:30.000000
980,-77.02,2022-10-26 10:26:30.015625
981,-87.17,2022-10-26 10:26:30.031250
982,-95.71,2022-10-26 10:26:30.046875
983,-100.35,2022-10-26 10:26:30.062500
984,-98.96,2022-10-26 10:26:30.078125
985,-90.39,2022-10-26 10:26:30.093750
986,-74.98,2022-10-26 10:26:30.109375
987,-54.59,2022-10-26 10:26:30.125000
988,-32.11,2022-10-26 10:26:30.140625
989,-10.51,2022-10-26 10:26:30.156250
990,7.94,2022-10-26 10:26:30.171875
991,22.19,2022-10-26 10:26:30.187500
992,32.29,2022-10-26 10:26:30.203125
993,38.96,2022-10-26 10:26:30.218750
994,43.04,2022-10-26 10:26:30.234375
995,45.13,2022-10-26 10:26:30.250000
996,45.5,2022-10-26 10:26:30.265625
997,44.33,2022-10-26 10:26:30.281250
998,41.93,2022-10-26 10:26:30.296875
999,38.85,2022-10-26 10:26:30.312500
1000,35.88,2022-10-26 10:26:30.328125
1001,33.75,2022-10-26 10:26:30.343750
1002,32.9,2022-10-26 10:26:30.359375
1003,33.32,2022-10-26 10:26:30.375000
1004,34.59,2022-10-26 10:26:30.390625
1005,36.06,2022-10-26 10:26:30.406250
1006,37.25,2022-10-26 10:26:30.421875
1007,37.97,2022-10-26 10:26:30.437500
1008,38.3,2022-10-26 10:26:30.453125
1009,38.39,2022-10-26 10:26:30.468750
1010,38.18,2022-10-26 10:26:30.484375
1011,37.4,2022-10-26 10:26:30.500000
1012,35.56,2022-10-26 10:26:30.515625
1013,32.3,2022-10-26 10:26:30.531250
1014,27.67,2022-10-26 10:26:30.546875
1015,22.11,2022-10-26 10:26:30.562500
1016,16.4,2022-10-26 10:26:30.578125
1017,11.3,2022-10-26 10:26:30.593750
1018,7.24,2022-10-26 10:26:30.609375
1019,4.18,2022-10-26 10:26:30.625000
1020,1.6,2022-10-26 10:26:30.640625
1021,-1.28,2022-10-26 10:26:30.656250
1022,-5.16,2022-10-26 10:26:30.671875
1023,-10.34,2022-10-26 10:26:30.687500
1024,-16.58,2022-10-26 10:26:30.703125
1025,-23.26,2022-10-26 10:26:30.718750
1026,-29.56,2022-10-26 10:26:30.734375
1027,-34.85,2022-10-26 10:26:30.750000
1028,-39.0,2022-10-26 10:26:30.765625
1029,-42.31,2022-10-26 10:26:30.781250
1030,-45.46,2022-10-26 10:26:30.796875
1031,-49.2,2022-10-26 10:26:30.812500
1032,-54.17,2022-10-26 10:26:30.828125
1033,-60.75,2022-10-26 10:26:30.843750
1034,-68.77,2022-10-26 10:26:30.859375
1035,-77.43,2022-10-26 10:26:30.875000
1036,-85.21,2022-10-26 10:26:30.890625
1037,-90.0,2022-10-26 10:26:30.906250
1038,-89.69,2022-10-26 10:26:30.921875
1039,-82.86,2022-10-26 10:26:30.937500
1040,-69.37,2022-10-26 10:26:30.953125
1041,-50.67,2022-10-26 10:26:30.968750
1042,-29.35,2022-10-26 10:26:30.984375
1043,-8.34,2022-10-26 10:26:31.000000
1044,9.97,2022-10-26 10:26:31.015625
1045,24.31,2022-10-26 10:26:31.031250
1046,34.59,2022-10-26 10:26:31.046875
1047,41.44,2022-10-26 10:26:31.062500
1048,45.67,2022-10-26 10:26:31.078125
1049,47.83,2022-10-26 10:26:31.093750
1050,48.16,2022-10-26 10:26:31.109375
1051,46.81,2022-10-26 10:26:31.125000
1052,44.11,2022-10-26 10:26:31.140625
1053,40.66,2022-10-26 10:26:31.156250
1054,37.3,2022-10-26 10:26:31.171875
1055,34.84,2022-10-26 10:26:31.187500
1056,33.74,2022-10-26 10:26:31.203125
1057,34.08,2022-10-26 10:26:31.218750
1058,35.56,2022-10-26 10:26:31.234375
1059,37.7,2022-10-26 10:26:31.250000
1060,40.02,2022-10-26 10:26:31.265625
1061,42.17,2022-10-26 10:26:31.281250
1062,43.9,2022-10-26 10:26:31.296875
1063,45.04,2022-10-26 10:26:31.312500
1064,45.35,2022-10-26 10:26:31.328125
1065,44.52,2022-10-26 10:26:31.343750
1066,42.33,2022-10-26 10:26:31.359375
1067,38.69,2022-10-26 10:26:31.375000
1068,33.74,2022-10-26 10:26:31.390625
1069,27.9,2022-10-26 10:26:31.406250
1070,21.73,2022-10-26 10:26:31.421875
1071,15.75,2022-10-26 10:26:31.437500
1072,10.27,2022-10-26 10:26:31.453125
1073,5.24,2022-10-26 10:26:31.468750
1074,0.28,2022-10-26 10:26:31.484375
1075,-5.07,2022-10-26 10:26:31.500000
1076,-11.08,2022-10-26 10:26:31.515625
1077,-17.68,2022-10-26 10:26:31.531250
1078,-24.33,2022-10-26 10:26:31.546875
1079,-30.34,2022-10-26 10:26:31.562500
1080,-35.14,2022-10-26 10:26:31.578125
1081,-38.55,2022-10-26 10:26:31.593750
1082,-40.93,2022-10-26 10:26:31.609375
1083,-43.05,2022-10-26 10:26:31.625000
1084,-45.93,2022-10-26 10:26:31.640625
1085,-50.48,2022-10-26 10:26:31.656250
1086,-57.21,2022-10-26 10:26:31.671875
1087,-65.87,2022-10-26 10:26:31.687500
1088,-75.29,2022-10-26 10:26:31.703125
1089,-83.49,2022-10-26 10:26:31.718750
1090,-88.01,2022-10-26 10:26:31.734375
1091,-86.69,2022-10-26 10:26:31.750000
1092,-78.48,2022-10-26 10:26:31.765625
1093,-63.82,2022-10-26 10:26:31.781250
1094,-44.68,2022-10-26 10:26:31.796875
1095,-23.88,2022-10-26 10:26:31.812500
1096,-4.18,2022-10-26 10:26:31.828125
1097,12.46,2022-10-26 10:26:31.843750
1098,25.25,2022-10-26 10:26:31.859375
1099,34.41,2022-10-26 10:26:31.875000
1100,40.61,2022-10-26 10:26:31.890625
1101,44.57,2022-10-26 10:26:31.906250
1102,46.67,2022-10-26 10:26:31.921875
1103,47.11,2022-10-26 10:26:31.937500
1104,46.03,2022-10-26 10:26:31.953125
1105,43.83,2022-10-26 10:26:31.968750
1106,41.13,2022-10-26 10:26:31.984375
1107,38.7,2022-10-26 10:26:32.000000
1108,37.22,2022-10-26 10:26:32.015625
1109,36.99,2022-10-26 10:26:32.031250
1110,37.91,2022-10-26 10:26:32.046875
1111,39.51,2022-10-26 10:26:32.062500
1112,41.17,2022-10-26 10:26:32.078125
1113,42.4,2022-10-26 10:26:32.093750
1114,43.0,2022-10-26 10:26:32.109375
1115,43.1,2022-10-26 10:26:32.125000
1116,42.86,2022-10-26 10:26:32.140625
1117,42.33,2022-10-26 10:26:32.156250
1118,41.24,2022-10-26 10:26:32.171875
1119,39.08,2022-10-26 10:26:32.187500
1120,35.37,2022-10-26 10:26:32.203125
1121,29.94,2022-10-26 10:26:32.218750
1122,23.08,2022-10-26 10:26:32.234375
1123,15.51,2022-10-26 10:26:32.250000
1124,8.05,2022-10-26 10:26:32.265625
1125,1.36,2022-10-26 10:26:32.281250
1126,-4.29,2022-10-26 10:26:32.296875
1127,-9.09,2022-10-26 10:26:32.312500
1128,-13.48,2022-10-26 10:26:32.328125
1129,-17.98,2022-10-26 10:26:32.343750
1130,-22.93,2022-10-26 10:26:32.359375
1131,-28.34,2022-10-26 10:26:32.375000
1132,-33.92,2022-10-26 10:26:32.390625
1133,-39.13,2022-10-26 10:26:32.406250
1134,-43.49,2022-10-26 10:26:32.421875
1135,-46.76,2022-10-26 10:26:32.437500
1136,-49.12,2022-10-26 10:26:32.453125
1137,-51.14,2022-10-26 10:26:32.468750
1138,-53.67,2022-10-26 10:26:32.484375
1139,-57.58,2022-10-26 10:26:32.500000
1140,-63.53,2022-10-26 10:26:32.515625
1141,-71.71,2022-10-26 10:26:32.531250
1142,-81.63,2022-10-26 10:26:32.546875
1143,-92.0,2022-10-26 10:26:32.562500
1144,-100.78,2022-10-26 10:26:32.578125
1145,-105.5,2022-10-26 10:26:32.593750
1146,-103.97,2022-10-26 10:26:32.609375
1147,-95.0,2022-10-26 10:26:32.625000
1148,-78.98,2022-10-26 10:26:32.640625
1149,-57.93,2022-10-26 10:26:32.656250
1150,-34.94,2022-10-26 10:26:32.671875
1151,-13.18,2022-10-26 10:26:32.687500
1152,5.01,2022-10-26 10:26:32.703125
1153,18.61,2022-10-26 10:26:32.718750
1154,27.96,2022-10-26 10:26:32.734375
1155,34.07,2022-10-26 10:26:32.750000
1156,38.09,2022-10-26 10:26:32.765625
1157,40.79,2022-10-26 10:26:32.781250
1158,42.44,2022-10-26 10:26:32.796875
1159,42.98,2022-10-26 10:26:32.812500
1160,42.45,2022-10-26 10:26:32.828125
1161,41.08,2022-10-26 10:26:32.843750
1162,39.46,2022-10-26 10:26:32.859375
1163,38.37,2022-10-26 10:26:32.875000
1164,38.4,2022-10-26 10:26:32.890625
1165,39.78,2022-10-26 10:26:32.906250
1166,42.28,2022-10-26 10:26:32.921875
1167,45.24,2022-10-26 10:26:32.937500
1168,47.88,2022-10-26 10:26:32.953125
1169,49.56,2022-10-26 10:26:32.968750
1170,49.95,2022-10-26 10:26:32.984375
1171,49.07,2022-10-26 10:26:33.000000
1172,47.25,2022-10-26 10:26:33.015625
1173,44.75,2022-10-26 10:26:33.031250
1174,41.78,2022-10-26 10:26:33.046875
1175,38.36,2022-10-26 10:26:33.062500
1176,34.37,2022-10-26 10:26:33.078125
1177,29.7,2022-10-26 10:26:33.093750
1178,24.37,2022-10-26 10:26:33.109375
1179,18.56,2022-10-26 10:26:33.125000
1180,12.56,2022-10-26 10:26:33.140625
1181,6.69,2022-10-26 10:26:33.156250
1182,1.09,2022-10-26 10:26:33.171875
1183,-4.12,2022-10-26 10:26:33.187500
1184,-8.97,2022-10-26 10:26:33.203125
1185,-13.48,2022-10-26 10:26:33.218750
1186,-17.69,2022-10-26 10:26:33.234375
1187,-21.73,2022-10-26 10:26:33.250000
1188,-25.9,2022-10-26 10:26:33.265625
1189,-30.68,2022-10-26 10:26:33.281250
1190,-36.58,2022-10-26 10:26:33.296875
1191,-43.9,2022-10-26 10:26:33.312500
1192,-52.27,2022-10-26 10:26:33.328125
1193,-60.51,2022-10-26 10:26:33.343750
1194,-66.71,2022-10-26 10:26:33.359375
1195,-68.75,2022-10-26 10:26:33.375000
1196,-65.01,2022-10-26 10:26:33.390625
1197,-55.05,2022-10-26 10:26:33.406250
1198,-39.9,2022-10-26 10:26:33.421875
1199,-21.75,2022-10-26 10:26:33.437500
1200,-3.26,2022-10-26 10:26:33.453125
1201,13.29,2022-10-26 10:26:33.468750
1202,26.52,2022-10-26 10:26:33.484375
1203,36.06,2022-10-26 10:26:33.500000
1204,42.2,2022-10-26 10:26:33.515625
1205,45.41,2022-10-26 10:26:33.531250
1206,45.99,2022-10-26 10:26:33.546875
1207,44.11,2022-10-26 10:26:33.562500
1208,40.07,2022-10-26 10:26:33.578125
1209,34.56,2022-10-26 10:26:33.593750
1210,28.68,2022-10-26 10:26:33.609375
1211,23.67,2022-10-26 10:26:33.625000
1212,20.48,2022-10-26 10:26:33.640625
1213,19.44,2022-10-26 10:26:33.656250
1214,20.15,2022-10-26 10:26:33.671875
1215,21.75,2022-10-26 10:26:33.687500
1216,23.4,2022-10-26 10:26:33.703125
1217,24.55,2022-10-26 10:26:33.718750
1218,25.1,2022-10-26 10:26:33.734375
1219,25.2,2022-10-26 10:26:33.750000
1220,25.01,2022-10-26 10:26:33.765625
1221,24.35,2022-10-26 10:26:33.781250
1222,22.82,2022-10-26 10:26:33.796875
1223,19.98,2022-10-26 10:26:33.812500
1224,15.58,2022-10-26 10:26:33.828125
1225,9.78,2022-10-26 10:26:33.843750
1226,3.14,2022-10-26 10:26:33.859375
1227,-3.63,2022-10-26 10:26:33.875000
1228,-9.91,2022-10-26 10:26:33.890625
1229,-15.3,2022-10-26 10:26:33.906250
1230,-19.8,2022-10-26 10:26:33.921875
1231,-23.7,2022-10-26 10:26:33.937500
1232,-27.45,2022-10-26 10:26:33.953125
1233,-31.62,2022-10-26 10:26:33.968750
1234,-36.76,2022-10-26 10:26:33.984375
1235,-43.21,2022-10-26 10:26:34.000000
1236,-50.94,2022-10-26 10:26:34.015625
1237,-59.36,2022-10-26 10:26:34.031250
1238,-67.06,2022-10-26 10:26:34.046875
1239,-72.12,2022-10-26 10:26:34.062500
1240,-72.52,2022-10-26 10:26:34.078125
1241,-66.89,2022-10-26 10:26:34.093750
1242,-55.2,2022-10-26 10:26:34.109375
1243,-38.8,2022-10-26 10:26:34.125000
1244,-20.13,2022-10-26 10:26:34.140625
1245,-1.84,2022-10-26 10:26:34.156250
1246,13.94,2022-10-26 10:26:34.171875
1247,26.19,2022-10-26 10:26:34.187500
1248,34.86,2022-10-26 10:26:34.203125
1249,40.46,2022-10-26 10:26:34.218750
1250,43.51,2022-10-26 10:26:34.234375
1251,44.28,2022-10-26 10:26:34.250000
1252,42.86,2022-10-26 10:26:34.265625
1253,39.48,2022-10-26 10:26:34.281250
1254,34.77,2022-10-26 10:26:34.296875
1255,29.76,2022-10-26 10:26:34.312500
1256,25.64,2022-10-26 10:26:34.328125
1257,23.22,2022-10-26 10:26:34.343750
1258,22.74,2022-10-26 10:26:34.359375
1259,23.79,2022-10-26 10:26:34.375000
1260,25.49,2022-10-26 10:26:34.390625
1261,27.02,2022-10-26 10:26:34.406250
1262,27.92,2022-10-26 10:26:34.421875
1263,28.12,2022-10-26 10:26:34.437500
1264,27.88,2022-10-26 10:26:34.453125
1265,27.43,2022-10-26 10:26:34.468750
1266,26.67,2022-10-26 10:26:34.484375
1267,25.16,2022-10-26 10:26:34.500000
1268,22.25,2022-10-26 10:26:34.515625
1269,17.44,2022-10-26 10:26:34.531250
1270,10.72,2022-10-26 10:26:34.546875
1271,2.65,2022-10-26 10:26:34.562500
1272,-5.8,2022-10-26 10:26:34.578125
1273,-13.6,2022-10-26 10:26:34.593750
1274,-20.02,2022-10-26 10:26:34.609375
1275,-24.92,2022-10-26 10:26:34.625000
1276,-28.8,2022-10-26 10:26:34.640625
1277,-32.61,2022-10-26 10:26:34.656250
1278,-37.4,2022-10-26 10:26:34.671875
1279,-43.96,2022-10-26 10:26:34.687500
1280,-52.5,2022-10-26 10:26:34.703125
1281,-62.31,2022-10-26 10:26:34.718750
1282,-71.8,2022-10-26 10:26:34.734375
1283,-78.77,2022-10-26 10:26:34.750000
1284,-80.98,2022-10-26 10:26:34.765625
1285,-76.81,2022-10-26 10:26:34.781250
1286,-65.94,2022-10-26 10:26:34.796875
1287,-49.48,2022-10-26 10:26:34.812500
1288,-29.78,2022-10-26 10:26:34.828125
1289,-9.68,2022-10-26 10:26:34.843750
1290,8.27,2022-10-26 10:26:34.859375
1291,22.47,2022-10-26 10:26:34.875000
1292,32.48,2022-10-26 10:26:34.890625
1293,38.77,2022-10-26 10:26:34.906250
1294,42.25,2022-10-26 10:26:34.921875
1295,43.78,2022-10-26 10:26:34.937500
1296,43.92,2022-10-26 10:26:34.953125
1297,42.96,2022-10-26 10:26:34.968750
1298,41.05,2022-10-26 10:26:34.984375
1299,38.5,2022-10-26 10:26:35.000000
1300,35.79,2022-10-26 10:26:35.015625
1301,33.41,2022-10-26 10:26:35.031250
1302,31.74,2022-10-26 10:26:35.046875
1303,30.88,2022-10-26 10:26:35.062500
1304,30.63,2022-10-26 10:26:35.078125
1305,30.71,2022-10-26 10:26:35.093750
1306,30.86,2022-10-26 10:26:35.109375
1307,30.97,2022-10-26 10:26:35.125000
1308,30.98,2022-10-26 10:26:35.140625
1309,30.75,2022-10-26 10:26:35.156250
1310,29.95,2022-10-26 10:26:35.171875
1311,28.06,2022-10-26 10:26:35.187500
1312,24.62,2022-10-26 10:26:35.203125
1313,19.45,2022-10-26 10:26:35.218750
1314,12.85,2022-10-26 10:26:35.234375
1315,5.55,2022-10-26 10:26:35.250000
1316,-1.52,2022-10-26 10:26:35.265625
1317,-7.64,2022-10-26 10:26:35.281250
1318,-12.56,2022-10-26 10:26:35.296875
1319,-16.57,2022-10-26 10:26:35.312500
1320,-20.44,2022-10-26 10:26:35.328125
1321,-25.12,2022-10-26 10:26:35.343750
1322,-31.38,2022-10-26 10:26:35.359375
1323,-39.5,2022-10-26 10:26:35.375000
1324,-48.97,2022-10-26 10:26:35.390625
1325,-58.35,2022-10-26 10:26:35.406250
1326,-65.52,2022-10-26 10:26:35.421875
1327,-68.23,2022-10-26 10:26:35.437500
1328,-64.82,2022-10-26 10:26:35.453125
1329,-54.93,2022-10-26 10:26:35.468750
1330,-39.72,2022-10-26 10:26:35.484375
1331,-21.64,2022-10-26 10:26:35.500000
1332,-3.54,2022-10-26 10:26:35.515625
1333,12.15,2022-10-26 10:26:35.531250
1334,24.17,2022-10-26 10:26:35.546875
1335,32.53,2022-10-26 10:26:35.562500
1336,38.01,2022-10-26 10:26:35.578125
1337,41.57,2022-10-26 10:26:35.593750
1338,43.76,2022-10-26 10:26:35.609375
1339,44.62,2022-10-26 10:26:35.625000
1340,43.9,2022-10-26 10:26:35.640625
1341,41.6,2022-10-26 10:26:35.656250
1342,38.2,2022-10-26 10:26:35.671875
1343,34.67,2022-10-26 10:26:35.687500
1344,32.08,2022-10-26 10:26:35.703125
1345,31.1,2022-10-26 10:26:35.718750
1346,31.7,2022-10-26 10:26:35.734375
1347,33.17,2022-10-26 10:26:35.750000
1348,34.47,2022-10-26 10:26:35.765625
1349,34.77,2022-10-26 10:26:35.781250
1350,33.75,2022-10-26 10:26:35.796875
1351,31.71,2022-10-26 10:26:35.812500
1352,29.26,2022-10-26 10:26:35.828125
1353,26.84,2022-10-26 10:26:35.843750
1354,24.5,2022-10-26 10:26:35.859375
1355,21.8,2022-10-26 10:26:35.875000
1356,18.08,2022-10-26 10:26:35.890625
1357,12.82,2022-10-26 10:26:35.906250
1358,6.07,2022-10-26 10:26:35.921875
1359,-1.55,2022-10-26 10:26:35.937500
1360,-9.05,2022-10-26 10:26:35.953125
1361,-15.43,2022-10-26 10:26:35.968750
1362,-20.19,2022-10-26 10:26:35.984375
1363,-23.52,2022-10-26 10:26:36.000000
1364,-26.21,2022-10-26 10:26:36.015625
1365,-29.37,2022-10-26 10:26:36.031250
1366,-33.95,2022-10-26 10:26:36.046875
1367,-40.42,2022-10-26 10:26:36.062500
1368,-48.63,2022-10-26 10:26:36.078125
1369,-57.75,2022-10-26 10:26:36.093750
1370,-66.33,2022-10-26 10:26:36.109375
1371,-72.52,2022-10-26 10:26:36.125000
1372,-74.42,2022-10-26 10:26:36.140625
1373,-70.58,2022-10-26 10:26:36.156250
1374,-60.56,2022-10-26 10:26:36.171875
1375,-45.22,2022-10-26 10:26:36.187500
1376,-26.59,2022-10-26 10:26:36.203125
1377,-7.3,2022-10-26 10:26:36.218750
1378,10.22,2022-10-26 10:26:36.234375
1379,24.44,2022-10-26 10:26:36.250000
1380,34.91,2022-10-26 10:26:36.265625
1381,42.09,2022-10-26 10:26:36.281250
1382,46.73,2022-10-26 10:26:36.296875
1383,49.45,2022-10-26 10:26:36.312500
1384,50.6,2022-10-26 10:26:36.328125
1385,50.29,2022-10-26 10:26:36.343750
1386,48.74,2022-10-26 10:26:36.359375
1387,46.29,2022-10-26 10:26:36.375000
1388,43.54,2022-10-26 10:26:36.390625
1389,41.16,2022-10-26 10:26:36.406250
1390,39.65,2022-10-26 10:26:36.421875
1391,39.28,2022-10-26 10:26:36.437500
1392,39.88,2022-10-26 10:26:36.453125
1393,41.12,2022-10-26 10:26:36.468750
1394,42.51,2022-10-26 10:26:36.484375
1395,43.64,2022-10-26 10:26:36.500000
1396,44.27,2022-10-26 10:26:36.515625
1397,44.28,2022-10-26 10:26:36.531250
1398,43.62,2022-10-26 10:26:36.546875
1399,42.15,2022-10-26 10:26:36.562500
1400,39.63,2022-10-26 10:26:36.578125
1401,35.81,2022-10-26 10:26:36.593750
1402,30.66,2022-10-26 10:26:36.609375
1403,24.43,2022-10-26 10:26:36.625000
1404,17.69,2022-10-26 10:26:36.640625
1405,11.16,2022-10-26 10:26:36.656250
1406,5.4,2022-10-26 10:26:36.671875
1407,0.67,2022-10-26 10:26:36.687500
1408,-3.24,2022-10-26 10:26:36.703125
1409,-6.83,2022-10-26 10:26:36.718750
1410,-10.7,2022-10-26 10:26:36.734375
1411,-15.24,2022-10-26 10:26:36.750000
1412,-20.48,2022-10-26 10:26:36.765625
1413,-26.06,2022-10-26 10:26:36.781250
1414,-31.34,2022-10-26 10:26:36.796875
1415,-35.78,2022-10-26 10:26:36.812500
1416,-39.12,2022-10-26 10:26:36.828125
1417,-41.62,2022-10-26 10:26:36.843750
1418,-44.0,2022-10-26 10:26:36.859375
1419,-47.28,2022-10-26 10:26:36.875000
1420,-52.44,2022-10-26 10:26:36.890625
1421,-60.03,2022-10-26 10:26:36.906250
1422,-69.77,2022-10-26 10:26:36.921875
1423,-80.39,2022-10-26 10:26:36.937500
1424,-89.65,2022-10-26 10:26:36.953125
1425,-94.88,2022-10-26 10:26:36.968750
1426,-93.73,2022-10-26 10:26:36.984375
1427,-85.07,2022-10-26 10:26:37.000000
1428,-69.53,2022-10-26 10:26:37.015625
1429,-49.32,2022-10-26 10:26:37.031250
1430,-27.6,2022-10-26 10:26:37.046875
1431,-7.39,2022-10-26 10:26:37.062500
1432,9.29,2022-10-26 10:26:37.078125
1433,21.77,2022-10-26 10:26:37.093750
1434,30.49,2022-10-26 10:26:37.109375
1435,36.4,2022-10-26 10:26:37.125000
1436,40.35,2022-10-26 10:26:37.140625
1437,42.75,2022-10-26 10:26:37.156250
1438,43.69,2022-10-26 10:26:37.171875
1439,43.16,2022-10-26 10:26:37.187500
1440,41.46,2022-10-26 10:26:37.203125
1441,39.14,2022-10-26 10:26:37.218750
1442,36.96,2022-10-26 10:26:37.234375
1443,35.6,2022-10-26 10:26:37.250000
1444,35.44,2022-10-26 10:26:37.265625
1445,36.43,2022-10-26 10:26:37.281250
1446,38.17,2022-10-26 10:26:37.296875
1447,40.16,2022-10-26 10:26:37.312500
1448,41.95,2022-10-26 10:26:37.328125
1449,43.31,2022-10-26 10:26:37.343750
1450,44.14,2022-10-26 10:26:37.359375
1451,44.38,2022-10-26 10:26:37.375000
1452,43.87,2022-10-26 10:26:37.390625
1453,42.4,2022-10-26 10:26:37.406250
1454,39.84,2022-10-26 10:26:37.421875
1455,36.27,2022-10-26 10:26:37.437500
1456,32.01,2022-10-26 10:26:37.453125
1457,27.55,2022-10-26 10:26:37.468750
1458,23.33,2022-10-26 10:26:37.484375
1459,19.6,2022-10-26 10:26:37.500000
1460,16.29,2022-10-26 10:26:37.515625
1461,13.16,2022-10-26 10:26:37.531250
1462,9.88,2022-10-26 10:26:37.546875
1463,6.24,2022-10-26 10:26:37.562500
1464,2.23,2022-10-26 10:26:37.578125
1465,-1.96,2022-10-26 10:26:37.593750
1466,-6.01,2022-10-26 10:26:37.609375
1467,-9.6,2022-10-26 10:26:37.625000
1468,-12.61,2022-10-26 10:26:37.640625
1469,-15.07,2022-10-26 10:26:37.656250
1470,-17.24,2022-10-26 10:26:37.671875
1471,-19.44,2022-10-26 10:26:37.687500
1472,-21.89,2022-10-26 10:26:37.703125
1473,-24.63,2022-10-26 10:26:37.718750
1474,-27.5,2022-10-26 10:26:37.734375
1475,-30.33,2022-10-26 10:26:37.750000
1476,-33.02,2022-10-26 10:26:37.765625
1477,-35.75,2022-10-26 10:26:37.781250
1478,-38.93,2022-10-26 10:26:37.796875
1479,-43.19,2022-10-26 10:26:37.812500
1480,-49.18,2022-10-26 10:26:37.828125
1481,-57.31,2022-10-26 10:26:37.843750
1482,-67.49,2022-10-26 10:26:37.859375
1483,-78.77,2022-10-26 10:26:37.875000
1484,-89.4,2022-10-26 10:26:37.890625
1485,-96.92,2022-10-26 10:26:37.906250
1486,-98.85,2022-10-26 10:26:37.921875
1487,-93.48,2022-10-26 10:26:37.937500
1488,-80.59,2022-10-26 10:26:37.953125
1489,-61.55,2022-10-26 10:26:37.968750
1490,-39.12,2022-10-26 10:26:37.984375
1491,-16.44,2022-10-26 10:26:38.000000
1492,3.81,2022-10-26 10:26:38.015625
1493,20.05,2022-10-26 10:26:38.031250
1494,31.97,2022-10-26 10:26:38.046875
1495,40.14,2022-10-26 10:26:38.062500
1496,45.48,2022-10-26 10:26:38.078125
1497,48.74,2022-10-26 10:26:38.093750
1498,50.42,2022-10-26 10:26:38.109375
1499,50.73,2022-10-26 10:26:38.125000
1500,49.9,2022-10-26 10:26:38.140625
1501,48.28,2022-10-26 10:26:38.156250
1502,46.45,2022-10-26 10:26:38.171875
1503,45.04,2022-10-26 10:26:38.187500
1504,44.53,2022-10-26 10:26:38.203125
1505,45.08,2022-10-26 10:26:38.218750
1506,46.51,2022-10-26 10:26:38.234375
1507,48.36,2022-10-26 10:26:38.250000
1508,50.17,2022-10-26 10:26:38.265625
1509,51.62,2022-10-26 10:26:38.281250
1510,52.57,2022-10-26 10:26:38.296875
1511,53.01,2022-10-26 10:26:38.312500
1512,52.93,2022-10-26 10:26:38.328125
1513,52.14,2022-10-26 10:26:38.343750
1514,50.35,2022-10-26 10:26:38.359375
1515,47.36,2022-10-26 10:26:38.375000
1516,43.18,2022-10-26 10:26:38.390625
1517,38.21,2022-10-26 10:26:38.406250
1518,33.07,2022-10-26 10:26:38.421875
1519,28.44,2022-10-26 10:26:38.437500
1520,24.61,2022-10-26 10:26:38.453125
1521,21.49,2022-10-26 10:26:38.468750
1522,18.56,2022-10-26 10:26:38.484375
1523,15.25,2022-10-26 10:26:38.500000
1524,11.21,2022-10-26 10:26:38.515625
1525,6.5,2022-10-26 10:26:38.531250
1526,1.56,2022-10-26 10:26:38.546875
1527,-3.02,2022-10-26 10:26:38.562500
1528,-6.83,2022-10-26 10:26:38.578125
1529,-9.85,2022-10-26 10:26:38.593750
1530,-12.45,2022-10-26 10:26:38.609375
1531,-15.15,2022-10-26 10:26:38.625000
1532,-18.47,2022-10-26 10:26:38.640625
1533,-22.65,2022-10-26 10:26:38.656250
1534,-27.58,2022-10-26 10:26:38.671875
1535,-32.86,2022-10-26 10:26:38.687500
1536,-38.05,2022-10-26 10:26:38.703125
1537,-42.67,2022-10-26 10:26:38.718750
1538,-46.53,2022-10-26 10:26:38.734375
1539,-49.74,2022-10-26 10:26:38.750000
1540,-52.77,2022-10-26 10:26:38.765625
1541,-56.36,2022-10-26 10:26:38.781250
1542,-61.32,2022-10-26 10:26:38.796875
1543,-68.2,2022-10-26 10:26:38.812500
1544,-76.76,2022-10-26 10:26:38.828125
1545,-85.81,2022-10-26 10:26:38.843750
1546,-93.22,2022-10-26 10:26:38.859375
1547,-96.41,2022-10-26 10:26:38.875000
1548,-93.21,2022-10-26 10:26:38.890625
1549,-82.77,2022-10-26 10:26:38.906250
1550,-65.96,2022-10-26 10:26:38.921875
1551,-45.17,2022-10-26 10:26:38.937500
1552,-23.56,2022-10-26 10:26:38.953125
1553,-3.97,2022-10-26 10:26:38.968750
1554,11.89,2022-10-26 10:26:38.984375
1555,23.64,2022-10-26 10:26:39.000000
1556,31.89,2022-10-26 10:26:39.015625
1557,37.6,2022-10-26 10:26:39.031250
1558,41.41,2022-10-26 10:26:39.046875
1559,43.55,2022-10-26 10:26:39.062500
1560,43.95,2022-10-26 10:26:39.078125
1561,42.64,2022-10-26 10:26:39.093750
1562,40.02,2022-10-26 10:26:39.109375
1563,36.86,2022-10-26 10:26:39.125000
1564,34.12,2022-10-26 10:26:39.140625
1565,32.51,2022-10-26 10:26:39.156250
1566,32.27,2022-10-26 10:26:39.171875
1567,33.13,2022-10-26 10:26:39.187500
1568,34.54,2022-10-26 10:26:39.203125
1569,35.94,2022-10-26 10:26:39.218750
1570,36.97,2022-10-26 10:26:39.234375
1571,37.62,2022-10-26 10:26:39.250000
1572,37.98,2022-10-26 10:26:39.265625
1573,38.11,2022-10-26 10:26:39.281250
1574,37.88,2022-10-26 10:26:39.296875
1575,36.96,2022-10-26 10:26:39.312500
1576,34.96,2022-10-26 10:26:39.328125
1577,31.67,2022-10-26 10:26:39.343750
1578,27.16,2022-10-26 10:26:39.359375
1579,21.81,2022-10-26 10:26:39.375000
1580,16.2,2022-10-26 10:26:39.390625
1581,10.94,2022-10-26 10:26:39.406250
1582,6.46,2022-10-26 10:26:39.421875
1583,2.95,2022-10-26 10:26:39.437500
1584,0.22,2022-10-26 10:26:39.453125
1585,-2.18,2022-10-26 10:26:39.468750
1586,-4.82,2022-10-26 10:26:39.484375
1587,-8.18,2022-10-26 10:26:39.500000
1588,-12.45,2022-10-26 10:26:39.515625
1589,-17.41,2022-10-26 10:26:39.531250
1590,-22.54,2022-10-26 10:26:39.546875
1591,-27.29,2022-10-26 10:26:39.562500
1592,-31.29,2022-10-26 10:26:39.578125
1593,-34.51,2022-10-26 10:26:39.593750
1594,-37.37,2022-10-26 10:26:39.609375
1595,-40.49,2022-10-26 10:26:39.625000
1596,-44.62,2022-10-26 10:26:39.640625
1597,-50.33,2022-10-26 10:26:39.656250
1598,-57.93,2022-10-26 10:26:39.671875
1599,-67.27,2022-10-26 10:26:39.687500
1600,-77.52,2022-10-26 10:26:39.703125
1601,-87.09,2022-10-26 10:26:39.718750
1602,-93.8,2022-10-26 10:26:39.734375
1603,-95.3,2022-10-26 10:26:39.750000
1604,-89.91,2022-10-26 10:26:39.765625
1605,-77.27,2022-10-26 10:26:39.781250
1606,-58.66,2022-10-26 10:26:39.796875
1607,-36.71,2022-10-26 10:26:39.812500
1608,-14.57,2022-10-26 10:26:39.828125
1609,5.14,2022-10-26 10:26:39.843750
1610,20.98,2022-10-26 10:26:39.859375
1611,32.79,2022-10-26 10:26:39.875000
1612,41.23,2022-10-26 10:26:39.890625
1613,47.11,2022-10-26 10:26:39.906250
1614,50.89,2022-10-26 10:26:39.921875
1615,52.62,2022-10-26 10:26:39.937500
1616,52.29,2022-10-26 10:26:39.953125
1617,50.11,2022-10-26 10:26:39.968750
1618,46.79,2022-10-26 10:26:39.984375
1619,43.3,2022-10-26 10:26:40.000000
1620,40.55,2022-10-26 10:26:40.015625
1621,39.13,2022-10-26 10:26:40.031250
1622,39.13,2022-10-26 10:26:40.046875
1623,40.24,2022-10-26 10:26:40.062500
1624,42.0,2022-10-26 10:26:40.078125
1625,43.98,2022-10-26 10:26:40.093750
1626,45.9,2022-10-26 10:26:40.109375
1627,47.6,2022-10-26 10:26:40.125000
1628,48.9,2022-10-26 10:26:40.140625
1629,49.53,2022-10-26 10:26:40.156250
1630,49.21,2022-10-26 10:26:40.171875
1631,47.66,2022-10-26 10:26:40.187500
1632,44.79,2022-10-26 10:26:40.203125
1633,40.79,2022-10-26 10:26:40.218750
1634,36.07,2022-10-26 10:26:40.234375
1635,31.11,2022-10-26 10:26:40.250000
1636,26.34,2022-10-26 10:26:40.265625
1637,21.95,2022-10-26 10:26:40.281250
1638,17.93,2022-10-26 10:26:40.296875
1639,14.17,2022-10-26 10:26:40.312500
1640,10.54,2022-10-26 10:26:40.328125
1641,6.98,2022-10-26 10:26:40.343750
1642,3.49,2022-10-26 10:26:40.359375
1643,0.04,2022-10-26 10:26:40.375000
1644,-3.44,2022-10-26 10:26:40.390625
1645,-7.1,2022-10-26 10:26:40.406250
1646,-11.15,2022-10-26 10:26:40.421875
1647,-15.74,2022-10-26 10:26:40.437500
1648,-20.89,2022-10-26 10:26:40.453125
1649,-26.55,2022-10-26 10:26:40.468750
1650,-32.43,2022-10-26 10:26:40.484375
1651,-38.19,2022-10-26 10:26:40.500000
1652,-43.47,2022-10-26 10:26:40.515625
1653,-48.04,2022-10-26 10:26:40.531250
1654,-51.86,2022-10-26 10:26:40.546875
1655,-55.24,2022-10-26 10:26:40.562500
1656,-58.73,2022-10-26 10:26:40.578125
1657,-63.06,2022-10-26 10:26:40.593750
1658,-68.96,2022-10-26 10:26:40.609375
1659,-76.82,2022-10-26 10:26:40.625000
1660,-86.31,2022-10-26 10:26:40.640625
1661,-96.2,2022-10-26 10:26:40.656250
1662,-104.29,2022-10-26 10:26:40.671875
1663,-107.87,2022-10-26 10:26:40.687500
1664,-104.62,2022-10-26 10:26:40.703125
1665,-93.46,2022-10-26 10:26:40.718750
1666,-75.12,2022-10-26 10:26:40.734375
1667,-52.04,2022-10-26 10:26:40.750000
1668,-27.56,2022-10-26 10:26:40.765625
1669,-4.9,2022-10-26 10:26:40.781250
1670,13.8,2022-10-26 10:26:40.796875
1671,27.83,2022-10-26 10:26:40.812500
1672,37.71,2022-10-26 10:26:40.828125
1673,44.45,2022-10-26 10:26:40.843750
1674,49.02,2022-10-26 10:26:40.859375
1675,51.96,2022-10-26 10:26:40.875000
1676,53.4,2022-10-26 10:26:40.890625
1677,53.37,2022-10-26 10:26:40.906250
1678,52.05,2022-10-26 10:26:40.921875
1679,49.91,2022-10-26 10:26:40.937500
1680,47.64,2022-10-26 10:26:40.953125
1681,45.91,2022-10-26 10:26:40.968750
1682,45.13,2022-10-26 10:26:40.984375
1683,45.33,2022-10-26 10:26:41.000000
1684,46.16,2022-10-26 10:26:41.015625
1685,47.06,2022-10-26 10:26:41.031250
1686,47.58,2022-10-26 10:26:41.046875
1687,47.56,2022-10-26 10:26:41.062500
1688,47.09,2022-10-26 10:26:41.078125
1689,46.46,2022-10-26 10:26:41.093750
1690,45.79,2022-10-26 10:26:41.109375
1691,44.95,2022-10-26 10:26:41.125000
1692,43.58,2022-10-26 10:26:41.140625
1693,41.22,2022-10-26 10:26:41.156250
1694,37.6,2022-10-26 10:26:41.171875
1695,32.79,2022-10-26 10:26:41.187500
1696,27.19,2022-10-26 10:26:41.203125
1697,21.36,2022-10-26 10:26:41.218750
1698,15.89,2022-10-26 10:26:41.234375
1699,11.14,2022-10-26 10:26:41.250000
1700,7.18,2022-10-26 10:26:41.265625
1701,3.84,2022-10-26 10:26:41.281250
1702,0.72,2022-10-26 10:26:41.296875
1703,-2.61,2022-10-26 10:26:41.312500
1704,-6.53,2022-10-26 10:26:41.328125
1705,-11.19,2022-10-26 10:26:41.343750
1706,-16.52,2022-10-26 10:26:41.359375
1707,-22.23,2022-10-26 10:26:41.375000
1708,-27.97,2022-10-26 10:26:41.390625
1709,-33.4,2022-10-26 10:26:41.406250
1710,-38.37,2022-10-26 10:26:41.421875
1711,-42.94,2022-10-26 10:26:41.437500
1712,-47.36,2022-10-26 10:26:41.453125
1713,-52.04,2022-10-26 10:26:41.468750
1714,-57.48,2022-10-26 10:26:41.484375
1715,-64.14,2022-10-26 10:26:41.500000
1716,-72.29,2022-10-26 10:26:41.515625
1717,-81.72,2022-10-26 10:26:41.531250
1718,-91.4,2022-10-26 10:26:41.546875
1719,-99.46,2022-10-26 10:26:41.562500
1720,-103.56,2022-10-26 10:26:41.578125
1721,-101.47,2022-10-26 10:26:41.593750
1722,-92.06,2022-10-26 10:26:41.609375
1723,-75.74,2022-10-26 10:26:41.625000
1724,-54.58,2022-10-26 10:26:41.640625
1725,-31.62,2022-10-26 10:26:41.656250
1726,-9.93,2022-10-26 10:26:41.671875
1727,8.29,2022-10-26 10:26:41.687500
1728,22.25,2022-10-26 10:26:41.703125
1729,32.3,2022-10-26 10:26:41.718750
1730,39.33,2022-10-26 10:26:41.734375
1731,44.23,2022-10-26 10:26:41.750000
1732,47.37,2022-10-26 10:26:41.765625
1733,48.73,2022-10-26 10:26:41.781250
1734,48.13,2022-10-26 10:26:41.796875
1735,45.74,2022-10-26 10:26:41.812500
1736,42.15,2022-10-26 10:26:41.828125
1737,38.34,2022-10-26 10:26:41.843750
1738,35.32,2022-10-26 10:26:41.859375
1739,33.79,2022-10-26 10:26:41.875000
1740,33.86,2022-10-26 10:26:41.890625
1741,35.14,2022-10-26 10:26:41.906250
1742,36.94,2022-10-26 10:26:41.921875
1743,38.54,2022-10-26 10:26:41.937500
1744,39.43,2022-10-26 10:26:41.953125
1745,39.36,2022-10-26 10:26:41.968750
1746,38.31,2022-10-26 10:26:41.984375
1747,36.32,2022-10-26 10:26:42.000000
1748,33.49,2022-10-26 10:26:42.015625
1749,29.84,2022-10-26 10:26:42.031250
1750,25.43,2022-10-26 10:26:42.046875
1751,20.39,2022-10-26 10:26:42.062500
1752,14.87,2022-10-26 10:26:42.078125
1753,9.07,2022-10-26 10:26:42.093750
1754,3.19,2022-10-26 10:26:42.109375
1755,-2.57,2022-10-26 10:26:42.125000
1756,-8.01,2022-10-26 10:26:42.140625
1757,-12.91,2022-10-26 10:26:42.156250
1758,-17.09,2022-10-26 10:26:42.171875
1759,-20.59,2022-10-26 10:26:42.187500
1760,-23.6,2022-10-26 10:26:42.203125
1761,-26.55,2022-10-26 10:26:42.218750
1762,-29.99,2022-10-26 10:26:42.234375
1763,-34.43,2022-10-26 10:26:42.250000
1764,-40.27,2022-10-26 10:26:42.265625
1765,-47.66,2022-10-26 10:26:42.281250
1766,-56.32,2022-10-26 10:26:42.296875
1767,-65.39,2022-10-26 10:26:42.312500
1768,-73.39,2022-10-26 10:26:42.328125
1769,-78.36,2022-10-26 10:26:42.343750
1770,-78.41,2022-10-26 10:26:42.359375
1771,-72.24,2022-10-26 10:26:42.375000
1772,-59.88,2022-10-26 10:26:42.390625
1773,-42.69,2022-10-26 10:26:42.406250
1774,-23.11,2022-10-26 10:26:42.421875
1775,-3.79,2022-10-26 10:26:42.437500
1776,13.1,2022-10-26 10:26:42.453125
1777,26.41,2022-10-26 10:26:42.468750
1778,35.94,2022-10-26 10:26:42.484375
1779,42.09,2022-10-26 10:26:42.500000
1780,45.45,2022-10-26 10:26:42.515625
1781,46.46,2022-10-26 10:26:42.531250
1782,45.41,2022-10-26 10:26:42.546875
1783,42.65,2022-10-26 10:26:42.562500
1784,38.73,2022-10-26 10:26:42.578125
1785,34.48,2022-10-26 10:26:42.593750
1786,30.86,2022-10-26 10:26:42.609375
1787,28.62,2022-10-26 10:26:42.625000
1788,28.1,2022-10-26 10:26:42.640625
1789,29.16,2022-10-26 10:26:42.656250
1790,31.24,2022-10-26 10:26:42.671875
1791,33.65,2022-10-26 10:26:42.687500
1792,35.85,2022-10-26 10:26:42.703125
1793,37.48,2022-10-26 10:26:42.718750
1794,38.45,2022-10-26 10:26:42.734375
1795,38.69,2022-10-26 10:26:42.750000
1796,38.14,2022-10-26 10:26:42.765625
1797,36.63,2022-10-26 10:26:42.781250
1798,34.09,2022-10-26 10:26:42.796875
1799,30.61,2022-10-26 10:26:42.812500
1800,26.54,2022-10-26 10:26:42.828125
1801,22.42,2022-10-26 10:26:42.843750
1802,18.69,2022-10-26 10:26:42.859375
1803,15.62,2022-10-26 10:26:42.875000
1804,13.14,2022-10-26 10:26:42.890625
1805,10.96,2022-10-26 10:26:42.906250
1806,8.7,2022-10-26 10:26:42.921875
1807,6.09,2022-10-26 10:26:42.937500
1808,3.12,2022-10-26 10:26:42.953125
1809,-0.07,2022-10-26 10:26:42.968750
1810,-3.26,2022-10-26 10:26:42.984375
1811,-6.4,2022-10-26 10:26:43.000000
1812,-9.67,2022-10-26 10:26:43.015625
1813,-13.42,2022-10-26 10:26:43.031250
1814,-17.95,2022-10-26 10:26:43.046875
1815,-23.33,2022-10-26 10:26:43.062500
1816,-29.31,2022-10-26 10:26:43.078125
1817,-35.37,2022-10-26 10:26:43.093750
1818,-40.98,2022-10-26 10:26:43.109375
1819,-45.83,2022-10-26 10:26:43.125000
1820,-49.92,2022-10-26 10:26:43.140625
1821,-53.65,2022-10-26 10:26:43.156250
1822,-57.65,2022-10-26 10:26:43.171875
1823,-62.55,2022-10-26 10:26:43.187500
1824,-68.87,2022-10-26 10:26:43.203125
1825,-76.69,2022-10-26 10:26:43.218750
1826,-85.48,2022-10-26 10:26:43.234375
1827,-93.91,2022-10-26 10:26:43.250000
1828,-99.95,2022-10-26 10:26:43.265625
1829,-101.29,2022-10-26 10:26:43.281250
1830,-96.11,2022-10-26 10:26:43.296875
1831,-83.84,2022-10-26 10:26:43.312500
1832,-65.51,2022-10-26 10:26:43.328125
1833,-43.56,2022-10-26 10:26:43.343750
1834,-21.13,2022-10-26 10:26:43.359375
1835,-0.98,2022-10-26 10:26:43.375000
1836,15.19,2022-10-26 10:26:43.390625
1837,26.99,2022-10-26 10:26:43.406250
1838,35.03,2022-10-26 10:26:43.421875
1839,40.27,2022-10-26 10:26:43.437500
1840,43.44,2022-10-26 10:26:43.453125
1841,44.88,2022-10-26 10:26:43.468750
1842,44.63,2022-10-26 10:26:43.484375
1843,42.79,2022-10-26 10:26:43.500000
1844,39.77,2022-10-26 10:26:43.515625
1845,36.33,2022-10-26 10:26:43.531250
1846,33.43,2022-10-26 10:26:43.546875
1847,31.92,2022-10-26 10:26:43.562500
1848,32.18,2022-10-26 10:26:43.578125
1849,33.99,2022-10-26 10:26:43.593750
1850,36.68,2022-10-26 10:26:43.609375
1851,39.26,2022-10-26 10:26:43.625000
1852,40.9,2022-10-26 10:26:43.640625
1853,41.17,2022-10-26 10:26:43.656250
1854,40.14,2022-10-26 10:26:43.671875
1855,38.25,2022-10-26 10:26:43.687500
1856,35.97,2022-10-26 10:26:43.703125
1857,33.58,2022-10-26 10:26:43.718750
1858,30.95,2022-10-26 10:26:43.734375
1859,27.67,2022-10-26 10:26:43.750000
1860,23.28,2022-10-26 10:26:43.765625
1861,17.57,2022-10-26 10:26:43.781250
1862,10.77,2022-10-26 10:26:43.796875
1863,3.52,2022-10-26 10:26:43.812500
1864,-3.4,2022-10-26 10:26:43.828125
1865,-9.33,2022-10-26 10:26:43.843750
1866,-14.09,2022-10-26 10:26:43.859375
1867,-17.98,2022-10-26 10:26:43.875000
1868,-21.55,2022-10-26 10:26:43.890625
1869,-25.48,2022-10-26 10:26:43.906250
1870,-30.27,2022-10-26 10:26:43.921875
1871,-36.18,2022-10-26 10:26:43.937500
1872,-43.23,2022-10-26 10:26:43.953125
1873,-51.15,2022-10-26 10:26:43.968750
1874,-59.25,2022-10-26 10:26:43.984375
1875,-66.29,2022-10-26 10:26:44.000000
1876,-70.54,2022-10-26 10:26:44.015625
1877,-70.14,2022-10-26 10:26:44.031250
1878,-63.76,2022-10-26 10:26:44.046875
1879,-51.23,2022-10-26 10:26:44.062500
1880,-33.8,2022-10-26 10:26:44.078125
1881,-13.91,2022-10-26 10:26:44.093750
1882,5.6,2022-10-26 10:26:44.109375
1883,22.41,2022-10-26 10:26:44.125000
1884,35.26,2022-10-26 10:26:44.140625
1885,44.02,2022-10-26 10:26:44.156250
1886,49.34,2022-10-26 10:26:44.171875
1887,51.98,2022-10-26 10:26:44.187500
1888,52.49,2022-10-26 10:26:44.203125
1889,51.15,2022-10-26 10:26:44.218750
1890,48.18,2022-10-26 10:26:44.234375
1891,44.06,2022-10-26 10:26:44.250000
1892,39.61,2022-10-26 10:26:44.265625
1893,35.81,2022-10-26 10:26:44.281250
1894,33.45,2022-10-26 10:26:44.296875
1895,32.93,2022-10-26 10:26:44.312500
1896,34.02,2022-10-26 10:26:44.328125
1897,36.15,2022-10-26 10:26:44.343750
1898,38.58,2022-10-26 10:26:44.359375
1899,40.7,2022-10-26 10:26:44.375000
1900,42.11,2022-10-26 10:26:44.390625
1901,42.62,2022-10-26 10:26:44.406250
1902,42.07,2022-10-26 10:26:44.421875
1903,40.33,2022-10-26 10:26:44.437500
1904,37.24,2022-10-26 10:26:44.453125
1905,32.76,2022-10-26 10:26:44.468750
1906,27.11,2022-10-26 10:26:44.484375
1907,20.72,2022-10-26 10:26:44.500000
1908,14.15,2022-10-26 10:26:44.515625
1909,7.91,2022-10-26 10:26:44.531250
1910,2.22,2022-10-26 10:26:44.546875
1911,-3.06,2022-10-26 10:26:44.562500
1912,-8.28,2022-10-26 10:26:44.578125
1913,-13.81,2022-10-26 10:26:44.593750
1914,-19.87,2022-10-26 10:26:44.609375
1915,-26.35,2022-10-26 10:26:44.625000
1916,-32.92,2022-10-26 10:26:44.640625
1917,-39.19,2022-10-26 10:26:44.656250
1918,-44.85,2022-10-26 10:26:44.671875
1919,-49.9,2022-10-26 10:26:44.687500
1920,-54.7,2022-10-26 10:26:44.703125
1921,-59.94,2022-10-26 10:26:44.718750
1922,-66.43,2022-10-26 10:26:44.734375
1923,-74.95,2022-10-26 10:26:44.750000
1924,-85.71,2022-10-26 10:26:44.765625
1925,-98.06,2022-10-26 10:26:44.781250
1926,-110.24,2022-10-26 10:26:44.796875
1927,-119.64,2022-10-26 10:26:44.812500
1928,-123.42,2022-10-26 10:26:44.828125
1929,-119.49,2022-10-26 10:26:44.843750
1930,-107.22,2022-10-26 10:26:44.859375
1931,-87.83,2022-10-26 10:26:44.875000
1932,-64.04,2022-10-26 10:26:44.890625
1933,-39.24,2022-10-26 10:26:44.906250
1934,-16.45,2022-10-26 10:26:44.921875
1935,2.38,2022-10-26 10:26:44.937500
1936,16.66,2022-10-26 10:26:44.953125
1937,26.78,2022-10-26 10:26:44.968750
1938,33.59,2022-10-26 10:26:44.984375
1939,37.83,2022-10-26 10:26:45.000000
1940,39.88,2022-10-26 10:26:45.015625
1941,39.88,2022-10-26 10:26:45.031250
1942,38.06,2022-10-26 10:26:45.046875
1943,35.0,2022-10-26 10:26:45.062500
1944,31.7,2022-10-26 10:26:45.078125
1945,29.37,2022-10-26 10:26:45.093750
1946,28.96,2022-10-26 10:26:45.109375
1947,30.75,2022-10-26 10:26:45.125000
1948,34.18,2022-10-26 10:26:45.140625
1949,38.1,2022-10-26 10:26:45.156250
1950,41.26,2022-10-26 10:26:45.171875
1951,42.9,2022-10-26 10:26:45.187500
1952,43.03,2022-10-26 10:26:45.203125
1953,42.26,2022-10-26 10:26:45.218750
1954,41.42,2022-10-26 10:26:45.234375
1955,40.98,2022-10-26 10:26:45.250000
1956,40.75,2022-10-26 10:26:45.265625
1957,40.03,2022-10-26 10:26:45.281250
1958,37.92,2022-10-26 10:26:45.296875
1959,33.87,2022-10-26 10:26:45.312500
1960,28.02,2022-10-26 10:26:45.328125
1961,21.14,2022-10-26 10:26:45.343750
1962,14.28,2022-10-26 10:26:45.359375
1963,8.36,2022-10-26 10:26:45.375000
1964,3.71,2022-10-26 10:26:45.390625
1965,0.01,2022-10-26 10:26:45.406250
1966,-3.56,2022-10-26 10:26:45.421875
1967,-7.99,2022-10-26 10:26:45.437500
1968,-14.06,2022-10-26 10:26:45.453125
1969,-22.19,2022-10-26 10:26:45.468750
1970,-32.29,2022-10-26 10:26:45.484375
1971,-43.7,2022-10-26 10:26:45.500000
1972,-55.19,2022-10-26 10:26:45.515625
1973,-65.03,2022-10-26 10:26:45.531250
1974,-71.17,2022-10-26 10:26:45.546875
1975,-71.72,2022-10-26 10:26:45.562500
1976,-65.59,2022-10-26 10:26:45.578125
1977,-52.99,2022-10-26 10:26:45.593750
1978,-35.59,2022-10-26 10:26:45.609375
1979,-16.02,2022-10-26 10:26:45.625000
1980,2.86,2022-10-26 10:26:45.640625
1981,18.94,2022-10-26 10:26:45.656250
1982,31.3,2022-10-26 10:26:45.671875
1983,40.17,2022-10-26 10:26:45.687500
1984,46.32,2022-10-26 10:26:45.703125
1985,50.44,2022-10-26 10:26:45.718750
1986,52.71,2022-10-26 10:26:45.734375
1987,53.0,2022-10-26 10:26:45.750000
1988,51.22,2022-10-26 10:26:45.765625
1989,47.75,2022-10-26 10:26:45.781250
1990,43.63,2022-10-26 10:26:45.796875
1991,40.13,2022-10-26 10:26:45.812500
1992,38.29,2022-10-26 10:26:45.828125
1993,38.49,2022-10-26 10:26:45.843750
1994,40.3,2022-10-26 10:26:45.859375
1995,42.8,2022-10-26 10:26:45.875000
1996,44.96,2022-10-26 10:26:45.890625
1997,46.05,2022-10-26 10:26:45.906250
1998,45.86,2022-10-26 10:26:45.921875
1999,44.53,2022-10-26 10:26:45.937500
2000,42.4,2022-10-26 10:26:45.953125
2001,39.72,2022-10-26 10:26:45.968750
2002,36.59,2022-10-26 10:26:45.984375
2003,32.94,2022-10-26 10:26:46.000000
2004,28.58,2022-10-26 10:26:46.015625
2005,23.33,2022-10-26 10:26:46.031250
2006,17.17,2022-10-26 10:26:46.046875
2007,10.27,2022-10-26 10:26:46.062500
2008,3.03,2022-10-26 10:26:46.078125
2009,-3.98,2022-10-26 10:26:46.093750
2010,-10.24,2022-10-26 10:26:46.109375
2011,-15.44,2022-10-26 10:26:46.125000
2012,-19.68,2022-10-26 10:26:46.140625
2013,-23.42,2022-10-26 10:26:46.156250
2014,-27.37,2022-10-26 10:26:46.171875
2015,-32.22,2022-10-26 10:26:46.187500
2016,-38.49,2022-10-26 10:26:46.203125
2017,-46.32,2022-10-26 10:26:46.218750
2018,-55.45,2022-10-26 10:26:46.234375
2019,-65.08,2022-10-26 10:26:46.250000
2020,-73.8,2022-10-26 10:26:46.265625
2021,-79.84,2022-10-26 10:26:46.281250
2022,-81.31,2022-10-26 10:26:46.296875
2023,-76.81,2022-10-26 10:26:46.312500
2024,-65.98,2022-10-26 10:26:46.328125
2025,-49.82,2022-10-26 10:26:46.343750
2026,-30.47,2022-10-26 10:26:46.359375
2027,-10.62,2022-10-26 10:26:46.375000
2028,7.34,2022-10-26 10:26:46.390625
2029,21.88,2022-10-26 10:26:46.406250
2030,32.61,2022-10-26 10:26:46.421875
2031,39.94,2022-10-26 10:26:46.437500
2032,44.64,2022-10-26 10:26:46.453125
2033,47.36,2022-10-26 10:26:46.468750
2034,48.48,2022-10-26 10:26:46.484375
2035,48.26,2022-10-26 10:26:46.500000
2036,47.02,2022-10-26 10:26:46.515625
2037,45.3,2022-10-26 10:26:46.531250
2038,43.82,2022-10-26 10:26:46.546875
2039,43.28,2022-10-26 10:26:46.562500
2040,44.02,2022-10-26 10:26:46.578125
2041,45.93,2022-10-26 10:26:46.593750
2042,48.48,2022-10-26 10:26:46.609375
2043,50.95,2022-10-26 10:26:46.625000
2044,52.77,2022-10-26 10:26:46.640625
2045,53.69,2022-10-26 10:26:46.656250
2046,53.74,2022-10-26 10:26:46.671875
2047,53.1,2022-10-26 10:26:46.687500
2048,51.82,2022-10-26 10:26:46.703125
2049,49.73,2022-10-26 10:26:46.718750
2050,46.51,2022-10-26 10:26:46.734375
2051,41.87,2022-10-26 10:26:46.750000
2052,35.86,2022-10-26 10:26:46.765625
2053,28.89,2022-10-26 10:26:46.781250
2054,21.68,2022-10-26 10:26:46.796875
2055,14.98,2022-10-26 10:26:46.812500
2056,9.27,2022-10-26 10:26:46.828125
2057,4.54,2022-10-26 10:26:46.843750
2058,0.43,2022-10-26 10:26:46.859375
2059,-3.67,2022-10-26 10:26:46.875000
2060,-8.21,2022-10-26 10:26:46.890625
2061,-13.29,2022-10-26 10:26:46.906250
2062,-18.62,2022-10-26 10:26:46.921875
2063,-23.68,2022-10-26 10:26:46.937500
2064,-28.03,2022-10-26 10:26:46.953125
2065,-31.54,2022-10-26 10:26:46.968750
2066,-34.56,2022-10-26 10:26:46.984375
2067,-37.8,2022-10-26 10:26:47.000000
2068,-42.14,2022-10-26 10:26:47.015625
2069,-48.37,2022-10-26 10:26:47.031250
2070,-56.82,2022-10-26 10:26:47.046875
2071,-67.04,2022-10-26 10:26:47.062500
2072,-77.65,2022-10-26 10:26:47.078125
2073,-86.42,2022-10-26 10:26:47.093750
2074,-90.82,2022-10-26 10:26:47.109375
2075,-88.71,2022-10-26 10:26:47.125000
2076,-79.23,2022-10-26 10:26:47.140625
2077,-63.14,2022-10-26 10:26:47.156250
2078,-42.79,2022-10-26 10:26:47.171875
2079,-21.26,2022-10-26 10:26:47.187500
2080,-1.45,2022-10-26 10:26:47.203125
2081,14.82,2022-10-26 10:26:47.218750
2082,27.04,2022-10-26 10:26:47.234375
2083,35.73,2022-10-26 10:26:47.250000
2084,41.82,2022-10-26 10:26:47.265625
2085,46.06,2022-10-26 10:26:47.281250
2086,48.85,2022-10-26 10:26:47.296875
2087,50.18,2022-10-26 10:26:47.312500
2088,50.08,2022-10-26 10:26:47.328125
2089,48.75,2022-10-26 10:26:47.343750
2090,46.75,2022-10-26 10:26:47.359375
2091,44.72,2022-10-26 10:26:47.375000
2092,43.26,2022-10-26 10:26:47.390625
2093,42.69,2022-10-26 10:26:47.406250
2094,42.99,2022-10-26 10:26:47.421875
2095,43.88,2022-10-26 10:26:47.437500
2096,44.9,2022-10-26 10:26:47.453125
2097,45.69,2022-10-26 10:26:47.468750
2098,45.93,2022-10-26 10:26:47.484375
2099,45.43,2022-10-26 10:26:47.500000
2100,44.05,2022-10-26 10:26:47.515625
2101,41.64,2022-10-26 10:26:47.531250
2102,38.07,2022-10-26 10:26:47.546875
2103,33.28,2022-10-26 10:26:47.562500
2104,27.44,2022-10-26 10:26:47.578125
2105,20.96,2022-10-26 10:26:47.593750
2106,14.42,2022-10-26 10:26:47.609375
2107,8.38,2022-10-26 10:26:47.625000
2108,3.2,2022-10-26 10:26:47.640625
2109,-1.17,2022-10-26 10:26:47.656250
2110,-5.03,2022-10-26 10:26:47.671875
2111,-8.89,2022-10-26 10:26:47.687500
2112,-13.08,2022-10-26 10:26:47.703125
2113,-17.7,2022-10-26 10:26:47.718750
2114,-22.51,2022-10-26 10:26:47.734375
2115,-27.14,2022-10-26 10:26:47.750000
2116,-31.33,2022-10-26 10:26:47.765625
2117,-35.11,2022-10-26 10:26:47.781250
2118,-38.86,2022-10-26 10:26:47.796875
2119,-43.28,2022-10-26 10:26:47.812500
2120,-49.14,2022-10-26 10:26:47.828125
2121,-56.9,2022-10-26 10:26:47.843750
2122,-66.4,2022-10-26 10:26:47.859375
2123,-76.62,2022-10-26 10:26:47.875000
2124,-85.64,2022-10-26 10:26:47.890625
2125,-91.02,2022-10-26 10:26:47.906250
2126,-90.53,2022-10-26 10:26:47.921875
2127,-82.91,2022-10-26 10:26:47.937500
2128,-68.54,2022-10-26 10:26:47.953125
2129,-49.39,2022-10-26 10:26:47.968750
2130,-28.5,2022-10-26 10:26:47.984375
2131,-8.95,2022-10-26 10:26:48.000000
2132,7.09,2022-10-26 10:26:48.015625
2133,18.84,2022-10-26 10:26:48.031250
2134,26.76,2022-10-26 10:26:48.046875
2135,32.02,2022-10-26 10:26:48.062500
2136,35.68,2022-10-26 10:26:48.078125
2137,38.28,2022-10-26 10:26:48.093750
2138,39.83,2022-10-26 10:26:48.109375
2139,40.13,2022-10-26 10:26:48.125000
2140,39.15,2022-10-26 10:26:48.140625
2141,37.32,2022-10-26 10:26:48.156250
2142,35.44,2022-10-26 10:26:48.171875
2143,34.3,2022-10-26 10:26:48.187500
2144,34.38,2022-10-26 10:26:48.203125
2145,35.64,2022-10-26 10:26:48.218750
2146,37.57,2022-10-26 10:26:48.234375
2147,39.53,2022-10-26 10:26:48.250000
2148,40.97,2022-10-26 10:26:48.265625
2149,41.66,2022-10-26 10:26:48.281250
2150,41.58,2022-10-26 10:26:48.296875
2151,40.85,2022-10-26 10:26:48.312500
2152,39.43,2022-10-26 10:26:48.328125
2153,37.16,2022-10-26 10:26:48.343750
2154,33.86,2022-10-26 10:26:48.359375
2155,29.43,2022-10-26 10:26:48.375000
2156,23.96,2022-10-26 10:26:48.390625
2157,17.68,2022-10-26 10:26:48.406250
2158,10.9,2022-10-26 10:26:48.421875
2159,3.89,2022-10-26 10:26:48.437500
2160,-3.02,2022-10-26 10:26:48.453125
2161,-9.52,2022-10-26 10:26:48.468750
2162,-15.26,2022-10-26 10:26:48.484375
2163,-20.04,2022-10-26 10:26:48.500000
2164,-23.88,2022-10-26 10:26:48.515625
2165,-27.08,2022-10-26 10:26:48.531250
2166,-30.26,2022-10-26 10:26:48.546875
2167,-34.06,2022-10-26 10:26:48.562500
2168,-39.07,2022-10-26 10:26:48.578125
2169,-45.64,2022-10-26 10:26:48.593750
2170,-53.86,2022-10-26 10:26:48.609375
2171,-63.46,2022-10-26 10:26:48.625000
2172,-73.69,2022-10-26 10:26:48.640625
2173,-83.21,2022-10-26 10:26:48.656250
2174,-90.08,2022-10-26 10:26:48.671875
2175,-92.2,2022-10-26 10:26:48.687500
2176,-87.94,2022-10-26 10:26:48.703125
2177,-76.9,2022-10-26 10:26:48.718750
2178,-60.2,2022-10-26 10:26:48.734375
2179,-40.26,2022-10-26 10:26:48.750000
2180,-20.03,2022-10-26 10:26:48.765625
2181,-1.98,2022-10-26 10:26:48.781250
2182,12.57,2022-10-26 10:26:48.796875
2183,23.49,2022-10-26 10:26:48.812500
2184,31.46,2022-10-26 10:26:48.828125
2185,37.31,2022-10-26 10:26:48.843750
2186,41.53,2022-10-26 10:26:48.859375
2187,44.25,2022-10-26 10:26:48.875000
2188,45.43,2022-10-26 10:26:48.890625
2189,45.21,2022-10-26 10:26:48.906250
2190,44.08,2022-10-26 10:26:48.921875
2191,42.8,2022-10-26 10:26:48.937500
2192,42.1,2022-10-26 10:26:48.953125
2193,42.41,2022-10-26 10:26:48.968750
2194,43.73,2022-10-26 10:26:48.984375
2195,45.62,2022-10-26 10:26:49.000000
2196,47.51,2022-10-26 10:26:49.015625
2197,48.88,2022-10-26 10:26:49.031250
2198,49.44,2022-10-26 10:26:49.046875
2199,49.2,2022-10-26 10:26:49.062500
2200,48.36,2022-10-26 10:26:49.078125
2201,47.13,2022-10-26 10:26:49.093750
2202,45.63,2022-10-26 10:26:49.109375
2203,43.85,2022-10-26 10:26:49.125000
2204,41.64,2022-10-26 10:26:49.140625
2205,38.84,2022-10-26 10:26:49.156250
2206,35.37,2022-10-26 10:26:49.171875
2207,31.22,2022-10-26 10:26:49.187500
2208,26.49,2022-10-26 10:26:49.203125
2209,21.39,2022-10-26 10:26:49.218750
2210,16.19,2022-10-26 10:26:49.234375
2211,11.2,2022-10-26 10:26:49.250000
2212,6.64,2022-10-26 10:26:49.265625
2213,2.56,2022-10-26 10:26:49.281250
2214,-1.21,2022-10-26 10:26:49.296875
2215,-5.03,2022-10-26 10:26:49.312500
2216,-9.27,2022-10-26 10:26:49.328125
2217,-14.2,2022-10-26 10:26:49.343750
2218,-19.78,2022-10-26 10:26:49.359375
2219,-25.68,2022-10-26 10:26:49.375000
2220,-31.39,2022-10-26 10:26:49.390625
2221,-36.42,2022-10-26 10:26:49.406250
2222,-40.63,2022-10-26 10:26:49.421875
2223,-44.17,2022-10-26 10:26:49.437500
2224,-47.51,2022-10-26 10:26:49.453125
2225,-51.23,2022-10-26 10:26:49.468750
2226,-55.88,2022-10-26 10:26:49.484375
2227,-61.91,2022-10-26 10:26:49.500000
2228,-69.62,2022-10-26 10:26:49.515625
2229,-78.93,2022-10-26 10:26:49.531250
2230,-89.2,2022-10-26 10:26:49.546875
2231,-98.92,2022-10-26 10:26:49.562500
2232,-105.87,2022-10-26 10:26:49.578125
2233,-107.5,2022-10-26 10:26:49.593750
2234,-101.92,2022-10-26 10:26:49.609375
2235,-88.64,2022-10-26 10:26:49.625000
2236,-68.97,2022-10-26 10:26:49.640625
2237,-45.73,2022-10-26 10:26:49.656250
2238,-22.33,2022-10-26 10:26:49.671875
2239,-1.62,2022-10-26 10:26:49.687500
2240,14.85,2022-10-26 10:26:49.703125
2241,26.95,2022-10-26 10:26:49.718750
2242,35.57,2022-10-26 10:26:49.734375
2243,41.82,2022-10-26 10:26:49.750000
2244,46.47,2022-10-26 10:26:49.765625
2245,49.85,2022-10-26 10:26:49.781250
2246,51.91,2022-10-26 10:26:49.796875
2247,52.66,2022-10-26 10:26:49.812500
2248,52.37,2022-10-26 10:26:49.828125
2249,51.58,2022-10-26 10:26:49.843750
2250,50.9,2022-10-26 10:26:49.859375
2251,50.8,2022-10-26 10:26:49.875000
2252,51.29,2022-10-26 10:26:49.890625
2253,52.11,2022-10-26 10:26:49.906250
2254,52.76,2022-10-26 10:26:49.921875
2255,52.9,2022-10-26 10:26:49.937500
2256,52.4,2022-10-26 10:26:49.953125
2257,51.4,2022-10-26 10:26:49.968750
2258,50.14,2022-10-26 10:26:49.984375
2259,48.76,2022-10-26 10:26:50.000000
2260,47.22,2022-10-26 10:26:50.015625
2261,45.26,2022-10-26 10:26:50.031250
2262,42.64,2022-10-26 10:26:50.046875
2263,39.21,2022-10-26 10:26:50.062500
2264,35.12,2022-10-26 10:26:50.078125
2265,30.74,2022-10-26 10:26:50.093750
2266,26.55,2022-10-26 10:26:50.109375
2267,23.0,2022-10-26 10:26:50.125000
2268,20.32,2022-10-26 10:26:50.140625
2269,18.59,2022-10-26 10:26:50.156250
2270,17.51,2022-10-26 10:26:50.171875
2271,16.72,2022-10-26 10:26:50.187500
2272,15.74,2022-10-26 10:26:50.203125
2273,14.16,2022-10-26 10:26:50.218750
2274,11.83,2022-10-26 10:26:50.234375
2275,8.81,2022-10-26 10:26:50.250000
2276,5.37,2022-10-26 10:26:50.265625
2277,1.86,2022-10-26 10:26:50.281250
2278,-1.42,2022-10-26 10:26:50.296875
2279,-4.37,2022-10-26 10:26:50.312500
2280,-7.12,2022-10-26 10:26:50.328125
2281,-9.94,2022-10-26 10:26:50.343750
2282,-13.22,2022-10-26 10:26:50.359375
2283,-17.23,2022-10-26 10:26:50.375000
2284,-22.05,2022-10-26 10:26:50.390625
2285,-27.47,2022-10-26 10:26:50.406250
2286,-33.09,2022-10-26 10:26:50.421875
2287,-38.44,2022-10-26 10:26:50.437500
2288,-43.13,2022-10-26 10:26:50.453125
2289,-46.98,2022-10-26 10:26:50.468750
2290,-50.13,2022-10-26 10:26:50.484375
2291,-52.94,2022-10-26 10:26:50.500000
2292,-55.99,2022-10-26 10:26:50.515625
2293,-60.05,2022-10-26 10:26:50.531250
2294,-65.79,2022-10-26 10:26:50.546875
2295,-73.55,2022-10-26 10:26:50.562500
2296,-82.91,2022-10-26 10:26:50.578125
2297,-92.47,2022-10-26 10:26:50.593750
2298,-99.89,2022-10-26 10:26:50.609375
2299,-102.5,2022-10-26 10:26:50.625000
2300,-98.22,2022-10-26 10:26:50.640625
2301,-86.41,2022-10-26 10:26:50.656250
2302,-68.21,2022-10-26 10:26:50.671875
2303,-46.21,2022-10-26 10:26:50.687500
2304,-23.6,2022-10-26 10:26:50.703125
2305,-3.11,2022-10-26 10:26:50.718750
2306,13.64,2022-10-26 10:26:50.734375
2307,26.27,2022-10-26 10:26:50.750000
2308,35.3,2022-10-26 10:26:50.765625
2309,41.57,2022-10-26 10:26:50.781250
2310,45.82,2022-10-26 10:26:50.796875
2311,48.51,2022-10-26 10:26:50.812500
2312,49.95,2022-10-26 10:26:50.828125
2313,50.45,2022-10-26 10:26:50.843750
2314,50.37,2022-10-26 10:26:50.859375
2315,50.17,2022-10-26 10:26:50.875000
2316,50.25,2022-10-26 10:26:50.890625
2317,50.81,2022-10-26 10:26:50.906250
2318,51.84,2022-10-26 10:26:50.921875
2319,53.01,2022-10-26 10:26:50.937500
2320,53.92,2022-10-26 10:26:50.953125
2321,54.24,2022-10-26 10:26:50.968750
2322,53.83,2022-10-26 10:26:50.984375
2323,52.79,2022-10-26 10:26:51.000000
2324,51.37,2022-10-26 10:26:51.015625
2325,49.78,2022-10-26 10:26:51.031250
2326,48.01,2022-10-26 10:26:51.046875
2327,45.86,2022-10-26 10:26:51.062500
2328,42.95,2022-10-26 10:26:51.078125
2329,38.99,2022-10-26 10:26:51.093750
2330,33.96,2022-10-26 10:26:51.109375
2331,28.16,2022-10-26 10:26:51.125000
2332,22.18,2022-10-26 10:26:51.140625
2333,16.73,2022-10-26 10:26:51.156250
2334,12.37,2022-10-26 10:26:51.171875
2335,9.37,2022-10-26 10:26:51.187500
2336,7.59,2022-10-26 10:26:51.203125
2337,6.51,2022-10-26 10:26:51.218750
2338,5.44,2022-10-26 10:26:51.234375
2339,3.8,2022-10-26 10:26:51.250000
2340,1.35,2022-10-26 10:26:51.265625
2341,-1.73,2022-10-26 10:26:51.281250
2342,-4.9,2022-10-26 10:26:51.296875
2343,-7.6,2022-10-26 10:26:51.312500
2344,-9.56,2022-10-26 10:26:51.328125
2345,-10.91,2022-10-26 10:26:51.343750
2346,-12.23,2022-10-26 10:26:51.359375
2347,-14.25,2022-10-26 10:26:51.375000
2348,-17.51,2022-10-26 10:26:51.390625
2349,-22.12,2022-10-26 10:26:51.406250
2350,-27.71,2022-10-26 10:26:51.421875
2351,-33.56,2022-10-26 10:26:51.437500
2352,-38.91,2022-10-26 10:26:51.453125
2353,-43.26,2022-10-26 10:26:51.468750
2354,-46.46,2022-10-26 10:26:51.484375
2355,-48.86,2022-10-26 10:26:51.500000
2356,-51.1,2022-10-26 10:26:51.515625
2357,-53.98,2022-10-26 10:26:51.531250
2358,-58.31,2022-10-26 10:26:51.546875
2359,-64.54,2022-10-26 10:26:51.562500
2360,-72.58,2022-10-26 10:26:51.578125
2361,-81.58,2022-10-26 10:26:51.593750
2362,-89.9,2022-10-26 10:26:51.609375
2363,-95.29,2022-10-26 10:26:51.625000
2364,-95.52,2022-10-26 10:26:51.640625
2365,-89.04,2022-10-26 10:26:51.656250
2366,-75.67,2022-10-26 10:26:51.671875
2367,-56.8,2022-10-26 10:26:51.687500
2368,-35.06,2022-10-26 10:26:51.703125
2369,-13.43,2022-10-26 10:26:51.718750
2370,5.59,2022-10-26 10:26:51.734375
2371,20.63,2022-10-26 10:26:51.750000
2372,31.53,2022-10-26 10:26:51.765625
2373,38.92,2022-10-26 10:26:51.781250
2374,43.64,2022-10-26 10:26:51.796875
2375,46.28,2022-10-26 10:26:51.812500
2376,47.11,2022-10-26 10:26:51.828125
2377,46.21,2022-10-26 10:26:51.843750
2378,43.84,2022-10-26 10:26:51.859375
2379,40.57,2022-10-26 10:26:51.875000
2380,37.25,2022-10-26 10:26:51.890625
2381,34.79,2022-10-26 10:26:51.906250
2382,33.87,2022-10-26 10:26:51.921875
2383,34.71,2022-10-26 10:26:51.937500
2384,37.1,2022-10-26 10:26:51.953125
2385,40.54,2022-10-26 10:26:51.968750
2386,44.42,2022-10-26 10:26:51.984375
2387,48.23,2022-10-26 10:26:52.000000
2388,51.63,2022-10-26 10:26:52.015625
2389,54.36,2022-10-26 10:26:52.031250
2390,56.19,2022-10-26 10:26:52.046875
2391,56.8,2022-10-26 10:26:52.062500
2392,55.88,2022-10-26 10:26:52.078125
2393,53.25,2022-10-26 10:26:52.093750
2394,49.08,2022-10-26 10:26:52.109375
2395,43.86,2022-10-26 10:26:52.125000
2396,38.31,2022-10-26 10:26:52.140625
2397,33.09,2022-10-26 10:26:52.156250
2398,28.54,2022-10-26 10:26:52.171875
2399,24.64,2022-10-26 10:26:52.187500
2400,21.09,2022-10-26 10:26:52.203125
2401,17.51,2022-10-26 10:26:52.218750
2402,13.71,2022-10-26 10:26:52.234375
2403,9.72,2022-10-26 10:26:52.250000
2404,5.7,2022-10-26 10:26:52.265625
2405,1.87,2022-10-26 10:26:52.281250
2406,-1.59,2022-10-26 10:26:52.296875
2407,-4.7,2022-10-26 10:26:52.312500
2408,-7.63,2022-10-26 10:26:52.328125
2409,-10.72,2022-10-26 10:26:52.343750
2410,-14.36,2022-10-26 10:26:52.359375
2411,-18.78,2022-10-26 10:26:52.375000
2412,-24.01,2022-10-26 10:26:52.390625
2413,-29.77,2022-10-26 10:26:52.406250
2414,-35.56,2022-10-26 10:26:52.421875
2415,-40.94,2022-10-26 10:26:52.437500
2416,-45.74,2022-10-26 10:26:52.453125
2417,-50.12,2022-10-26 10:26:52.468750
2418,-54.61,2022-10-26 10:26:52.484375
2419,-59.96,2022-10-26 10:26:52.500000
2420,-66.76,2022-10-26 10:26:52.515625
2421,-75.31,2022-10-26 10:26:52.531250
2422,-85.34,2022-10-26 10:26:52.546875
2423,-95.79,2022-10-26 10:26:52.562500
2424,-104.88,2022-10-26 10:26:52.578125
2425,-110.32,2022-10-26 10:26:52.593750
2426,-109.79,2022-10-26 10:26:52.609375
2427,-101.79,2022-10-26 10:26:52.625000
2428,-86.19,2022-10-26 10:26:52.640625
2429,-64.56,2022-10-26 10:26:52.656250
2430,-39.84,2022-10-26 10:26:52.671875
2431,-15.47,2022-10-26 10:26:52.687500
2432,5.63,2022-10-26 10:26:52.703125
2433,21.83,2022-10-26 10:26:52.718750
2434,32.92,2022-10-26 10:26:52.734375
2435,39.83,2022-10-26 10:26:52.750000
2436,43.85,2022-10-26 10:26:52.765625
2437,46.02,2022-10-26 10:26:52.781250
2438,46.86,2022-10-26 10:26:52.796875
2439,46.48,2022-10-26 10:26:52.812500
2440,44.94,2022-10-26 10:26:52.828125
2441,42.56,2022-10-26 10:26:52.843750
2442,39.98,2022-10-26 10:26:52.859375
2443,38.0,2022-10-26 10:26:52.875000
2444,37.17,2022-10-26 10:26:52.890625
2445,37.69,2022-10-26 10:26:52.906250
2446,39.32,2022-10-26 10:26:52.921875
2447,41.61,2022-10-26 10:26:52.937500
2448,44.05,2022-10-26 10:26:52.953125
2449,46.31,2022-10-26 10:26:52.968750
2450,48.18,2022-10-26 10:26:52.984375
2451,49.47,2022-10-26 10:26:53.000000
2452,50.02,2022-10-26 10:26:53.015625
2453,49.62,2022-10-26 10:26:53.031250
2454,48.13,2022-10-26 10:26:53.046875
2455,45.5,2022-10-26 10:26:53.062500
2456,41.92,2022-10-26 10:26:53.078125
2457,37.66,2022-10-26 10:26:53.093750
2458,33.04,2022-10-26 10:26:53.109375
2459,28.35,2022-10-26 10:26:53.125000
2460,23.75,2022-10-26 10:26:53.140625
2461,19.25,2022-10-26 10:26:53.156250
2462,14.73,2022-10-26 10:26:53.171875
2463,10.09,2022-10-26 10:26:53.187500
2464,5.27,2022-10-26 10:26:53.203125
2465,0.36,2022-10-26 10:26:53.218750
2466,-4.42,2022-10-26 10:26:53.234375
2467,-8.86,2022-10-26 10:26:53.250000
2468,-12.86,2022-10-26 10:26:53.265625
2469,-16.63,2022-10-26 10:26:53.281250
2470,-20.56,2022-10-26 10:26:53.296875
2471,-25.08,2022-10-26 10:26:53.312500
2472,-30.38,2022-10-26 10:26:53.328125
2473,-36.3,2022-10-26 10:26:53.343750
2474,-42.33,2022-10-26 10:26:53.359375
2475,-47.85,2022-10-26 10:26:53.375000
2476,-52.47,2022-10-26 10:26:53.390625
2477,-56.2,2022-10-26 10:26:53.406250
2478,-59.58,2022-10-26 10:26:53.421875
2479,-63.41,2022-10-26 10:26:53.437500
2480,-68.56,2022-10-26 10:26:53.453125
2481,-75.66,2022-10-26 10:26:53.468750
2482,-84.8,2022-10-26 10:26:53.484375
2483,-95.29,2022-10-26 10:26:53.500000
2484,-105.51,2022-10-26 10:26:53.515625
2485,-113.13,2022-10-26 10:26:53.531250
2486,-115.56,2022-10-26 10:26:53.546875
2487,-110.79,2022-10-26 10:26:53.562500
2488,-98.12,2022-10-26 10:26:53.578125
2489,-78.61,2022-10-26 10:26:53.593750
2490,-54.9,2022-10-26 10:26:53.609375
2491,-30.31,2022-10-26 10:26:53.625000
2492,-7.9,2022-10-26 10:26:53.640625
2493,10.41,2022-10-26 10:26:53.656250
2494,24.06,2022-10-26 10:26:53.671875
2495,33.56,2022-10-26 10:26:53.687500
2496,39.84,2022-10-26 10:26:53.703125
2497,43.71,2022-10-26 10:26:53.718750
2498,45.68,2022-10-26 10:26:53.734375
2499,45.92,2022-10-26 10:26:53.750000
2500,44.67,2022-10-26 10:26:53.765625
2501,42.43,2022-10-26 10:26:53.781250
2502,39.89,2022-10-26 10:26:53.796875
2503,37.85,2022-10-26 10:26:53.812500
2504,36.91,2022-10-26 10:26:53.828125
2505,37.29,2022-10-26 10:26:53.843750
2506,38.82,2022-10-26 10:26:53.859375
2507,41.08,2022-10-26 10:26:53.875000
2508,43.62,2022-10-26 10:26:53.890625
2509,46.13,2022-10-26 10:26:53.906250
2510,48.45,2022-10-26 10:26:53.921875
2511,50.52,2022-10-26 10:26:53.937500
2512,52.17,2022-10-26 10:26:53.953125
2513,53.11,2022-10-26 10:26:53.968750
2514,52.96,2022-10-26 10:26:53.984375
2515,51.41,2022-10-26 10:26:54.000000
2516,48.45,2022-10-26 10:26:54.015625
2517,44.36,2022-10-26 10:26:54.031250
2518,39.62,2022-10-26 10:26:54.046875
2519,34.73,2022-10-26 10:26:54.062500
2520,29.94,2022-10-26 10:26:54.078125
2521,25.24,2022-10-26 10:26:54.093750
2522,20.47,2022-10-26 10:26:54.109375
2523,15.49,2022-10-26 10:26:54.125000
2524,10.29,2022-10-26 10:26:54.140625
2525,5.12,2022-10-26 10:26:54.156250
2526,0.22,2022-10-26 10:26:54.171875
2527,-4.24,2022-10-26 10:26:54.187500
2528,-8.35,2022-10-26 10:26:54.203125
2529,-12.4,2022-10-26 10:26:54.218750
2530,-16.72,2022-10-26 10:26:54.234375
2531,-21.55,2022-10-26 10:26:54.250000
2532,-26.9,2022-10-26 10:26:54.265625
2533,-32.54,2022-10-26 10:26:54.281250
2534,-38.13,2022-10-26 10:26:54.296875
2535,-43.34,2022-10-26 10:26:54.312500
2536,-48.03,2022-10-26 10:26:54.328125
2537,-52.23,2022-10-26 10:26:54.343750
2538,-56.29,2022-10-26 10:26:54.359375
2539,-60.74,2022-10-26 10:26:54.375000
2540,-66.23,2022-10-26 10:26:54.390625
2541,-73.32,2022-10-26 10:26:54.406250
2542,-82.13,2022-10-26 10:26:54.421875
2543,-91.91,2022-10-26 10:26:54.437500
2544,-100.9,2022-10-26 10:26:54.453125
2545,-106.57,2022-10-26 10:26:54.468750
2546,-106.32,2022-10-26 10:26:54.484375
2547,-98.45,2022-10-26 10:26:54.500000
2548,-82.89,2022-10-26 10:26:54.515625
2549,-61.4,2022-10-26 10:26:54.531250
2550,-37.03,2022-10-26 10:26:54.546875
2551,-13.1,2022-10-26 10:26:54.562500
2552,7.77,2022-10-26 10:26:54.578125
2553,24.27,2022-10-26 10:26:54.593750
2554,36.3,2022-10-26 10:26:54.609375
2555,44.6,2022-10-26 10:26:54.625000
2556,50.0,2022-10-26 10:26:54.640625
2557,53.1,2022-10-26 10:26:54.656250
2558,54.23,2022-10-26 10:26:54.671875
2559,53.57,2022-10-26 10:26:54.687500
2560,51.44,2022-10-26 10:26:54.703125
2561,48.41,2022-10-26 10:26:54.718750
2562,45.26,2022-10-26 10:26:54.734375
2563,42.84,2022-10-26 10:26:54.750000
2564,41.82,2022-10-26 10:26:54.765625
2565,42.45,2022-10-26 10:26:54.781250
2566,44.51,2022-10-26 10:26:54.796875
2567,47.43,2022-10-26 10:26:54.812500
2568,50.49,2022-10-26 10:26:54.828125
2569,53.04,2022-10-26 10:26:54.843750
2570,54.71,2022-10-26 10:26:54.859375
2571,55.3,2022-10-26 10:26:54.875000
2572,54.75,2022-10-26 10:26:54.890625
2573,52.99,2022-10-26 10:26:54.906250
2574,50.02,2022-10-26 10:26:54.921875
2575,45.91,2022-10-26 10:26:54.937500
2576,40.94,2022-10-26 10:26:54.953125
2577,35.5,2022-10-26 10:26:54.968750
2578,30.04,2022-10-26 10:26:54.984375
2579,24.87,2022-10-26 10:26:55.000000
2580,20.12,2022-10-26 10:26:55.015625
2581,15.69,2022-10-26 10:26:55.031250
2582,11.45,2022-10-26 10:26:55.046875
2583,7.27,2022-10-26 10:26:55.062500
2584,3.17,2022-10-26 10:26:55.078125
2585,-0.74,2022-10-26 10:26:55.093750
2586,-4.35,2022-10-26 10:26:55.109375
2587,-7.56,2022-10-26 10:26:55.125000
2588,-10.46,2022-10-26 10:26:55.140625
2589,-13.29,2022-10-26 10:26:55.156250
2590,-16.39,2022-10-26 10:26:55.171875
2591,-20.05,2022-10-26 10:26:55.187500
2592,-24.35,2022-10-26 10:26:55.203125
2593,-29.04,2022-10-26 10:26:55.218750
2594,-33.7,2022-10-26 10:26:55.234375
2595,-37.93,2022-10-26 10:26:55.250000
2596,-41.52,2022-10-26 10:26:55.265625
2597,-44.67,2022-10-26 10:26:55.281250
2598,-47.93,2022-10-26 10:26:55.296875
2599,-52.09,2022-10-26 10:26:55.312500
2600,-57.92,2022-10-26 10:26:55.328125
2601,-65.89,2022-10-26 10:26:55.343750
2602,-75.88,2022-10-26 10:26:55.359375
2603,-86.86,2022-10-26 10:26:55.375000
2604,-96.92,2022-10-26 10:26:55.390625
2605,-103.46,2022-10-26 10:26:55.406250
2606,-103.94,2022-10-26 10:26:55.421875
2607,-96.69,2022-10-26 10:26:55.437500
2608,-81.72,2022-10-26 10:26:55.453125
2609,-60.8,2022-10-26 10:26:55.468750
2610,-37.08,2022-10-26 10:26:55.484375
2611,-14.01,2022-10-26 10:26:55.500000
2612,5.69,2022-10-26 10:26:55.515625
2613,20.75,2022-10-26 10:26:55.531250
2614,31.32,2022-10-26 10:26:55.546875
2615,38.42,2022-10-26 10:26:55.562500
2616,43.28,2022-10-26 10:26:55.578125
2617,46.67,2022-10-26 10:26:55.593750
2618,48.9,2022-10-26 10:26:55.609375
2619,49.9,2022-10-26 10:26:55.625000
2620,49.68,2022-10-26 10:26:55.640625
2621,48.58,2022-10-26 10:26:55.656250
2622,47.26,2022-10-26 10:26:55.671875
2623,46.53,2022-10-26 10:26:55.687500
2624,46.89,2022-10-26 10:26:55.703125
2625,48.45,2022-10-26 10:26:55.718750
2626,50.86,2022-10-26 10:26:55.734375
2627,53.47,2022-10-26 10:26:55.750000
2628,55.66,2022-10-26 10:26:55.765625
2629,57.03,2022-10-26 10:26:55.781250
2630,57.52,2022-10-26 10:26:55.796875
2631,57.19,2022-10-26 10:26:55.812500
2632,56.13,2022-10-26 10:26:55.828125
2633,54.29,2022-10-26 10:26:55.843750
2634,51.48,2022-10-26 10:26:55.859375
2635,47.59,2022-10-26 10:26:55.875000
2636,42.67,2022-10-26 10:26:55.890625
2637,36.99,2022-10-26 10:26:55.906250
2638,30.92,2022-10-26 10:26:55.921875
2639,24.9,2022-10-26 10:26:55.937500
2640,19.2,2022-10-26 10:26:55.953125
2641,13.95,2022-10-26 10:26:55.968750
2642,9.2,2022-10-26 10:26:55.984375
2643,4.94,2022-10-26 10:26:56.000000
2644,1.15,2022-10-26 10:26:56.015625
2645,-2.21,2022-10-26 10:26:56.031250
2646,-5.26,2022-10-26 10:26:56.046875
2647,-8.24,2022-10-26 10:26:56.062500
2648,-11.4,2022-10-26 10:26:56.078125
2649,-14.99,2022-10-26 10:26:56.093750
2650,-19.11,2022-10-26 10:26:56.109375
2651,-23.68,2022-10-26 10:26:56.125000
2652,-28.5,2022-10-26 10:26:56.140625
2653,-33.31,2022-10-26 10:26:56.156250
2654,-37.96,2022-10-26 10:26:56.171875
2655,-42.44,2022-10-26 10:26:56.187500
2656,-46.94,2022-10-26 10:26:56.203125
2657,-51.85,2022-10-26 10:26:56.218750
2658,-57.72,2022-10-26 10:26:56.234375
2659,-65.1,2022-10-26 10:26:56.250000
2660,-74.41,2022-10-26 10:26:56.265625
2661,-85.54,2022-10-26 10:26:56.281250
2662,-97.59,2022-10-26 10:26:56.296875
2663,-108.64,2022-10-26 10:26:56.312500
2664,-116.04,2022-10-26 10:26:56.328125
2665,-117.06,2022-10-26 10:26:56.343750
2666,-109.88,2022-10-26 10:26:56.359375
2667,-94.4,2022-10-26 10:26:56.375000
2668,-72.48,2022-10-26 10:26:56.390625
2669,-47.38,2022-10-26 10:26:56.406250
2670,-22.74,2022-10-26 10:26:56.421875
2671,-1.37,2022-10-26 10:26:56.437500
2672,15.4,2022-10-26 10:26:56.453125
2673,27.66,2022-10-26 10:26:56.468750
2674,36.33,2022-10-26 10:26:56.484375
2675,42.4,2022-10-26 10:26:56.500000
2676,46.44,2022-10-26 10:26:56.515625
2677,48.58,2022-10-26 10:26:56.531250
2678,48.81,2022-10-26 10:26:56.546875
2679,47.38,2022-10-26 10:26:56.562500
2680,44.99,2022-10-26 10:26:56.578125
2681,42.65,2022-10-26 10:26:56.593750
2682,41.34,2022-10-26 10:26:56.609375
2683,41.62,2022-10-26 10:26:56.625000
2684,43.48,2022-10-26 10:26:56.640625
2685,46.35,2022-10-26 10:26:56.656250
2686,49.47,2022-10-26 10:26:56.671875
2687,52.14,2022-10-26 10:26:56.687500
2688,53.96,2022-10-26 10:26:56.703125
2689,54.87,2022-10-26 10:26:56.718750
2690,55.05,2022-10-26 10:26:56.734375
2691,54.65,2022-10-26 10:26:56.750000
2692,53.62,2022-10-26 10:26:56.765625
2693,51.72,2022-10-26 10:26:56.781250
2694,48.64,2022-10-26 10:26:56.796875
2695,44.2,2022-10-26 10:26:56.812500
2696,38.51,2022-10-26 10:26:56.828125
2697,32.04,2022-10-26 10:26:56.843750
2698,25.5,2022-10-26 10:26:56.859375
2699,19.62,2022-10-26 10:26:56.875000
2700,14.84,2022-10-26 10:26:56.890625
2701,11.17,2022-10-26 10:26:56.906250
2702,8.11,2022-10-26 10:26:56.921875
2703,4.87,2022-10-26 10:26:56.937500
2704,0.69,2022-10-26 10:26:56.953125
2705,-4.86,2022-10-26 10:26:56.968750
2706,-11.6,2022-10-26 10:26:56.984375
2707,-18.84,2022-10-26 10:26:57.000000
2708,-25.67,2022-10-26 10:26:57.015625
2709,-31.4,2022-10-26 10:26:57.031250
2710,-35.85,2022-10-26 10:26:57.046875
2711,-39.51,2022-10-26 10:26:57.062500
2712,-43.31,2022-10-26 10:26:57.078125
2713,-48.22,2022-10-26 10:26:57.093750
2714,-54.94,2022-10-26 10:26:57.109375
2715,-63.73,2022-10-26 10:26:57.125000
2716,-74.26,2022-10-26 10:26:57.140625
2717,-85.63,2022-10-26 10:26:57.156250
2718,-96.32,2022-10-26 10:26:57.171875
2719,-104.3,2022-10-26 10:26:57.187500
2720,-107.42,2022-10-26 10:26:57.203125
2721,-103.9,2022-10-26 10:26:57.218750
2722,-93.06,2022-10-26 10:26:57.234375
2723,-75.74,2022-10-26 10:26:57.250000
2724,-54.21,2022-10-26 10:26:57.265625
2725,-31.59,2022-10-26 10:26:57.281250
2726,-10.87,2022-10-26 10:26:57.296875
2727,5.96,2022-10-26 10:26:57.312500
2728,18.28,2022-10-26 10:26:57.328125
2729,26.62,2022-10-26 10:26:57.343750
2730,32.05,2022-10-26 10:26:57.359375
2731,35.58,2022-10-26 10:26:57.375000
2732,37.71,2022-10-26 10:26:57.390625
2733,38.58,2022-10-26 10:26:57.406250
2734,38.23,2022-10-26 10:26:57.421875
2735,36.95,2022-10-26 10:26:57.437500
2736,35.4,2022-10-26 10:26:57.453125
2737,34.48,2022-10-26 10:26:57.468750
2738,34.99,2022-10-26 10:26:57.484375
2739,37.3,2022-10-26 10:26:57.500000
2740,41.14,2022-10-26 10:26:57.515625
2741,45.75,2022-10-26 10:26:57.531250
2742,50.16,2022-10-26 10:26:57.546875
2743,53.51,2022-10-26 10:26:57.562500
2744,55.22,2022-10-26 10:26:57.578125
2745,55.17,2022-10-26 10:26:57.593750
2746,53.52,2022-10-26 10:26:57.609375
2747,50.61,2022-10-26 10:26:57.625000
2748,46.74,2022-10-26 10:26:57.640625
2749,42.14,2022-10-26 10:26:57.656250
2750,36.94,2022-10-26 10:26:57.671875
2751,31.2,2022-10-26 10:26:57.687500
2752,24.96,2022-10-26 10:26:57.703125
2753,18.35,2022-10-26 10:26:57.718750
2754,11.48,2022-10-26 10:26:57.734375
2755,4.56,2022-10-26 10:26:57.750000
2756,-2.18,2022-10-26 10:26:57.765625
2757,-8.52,2022-10-26 10:26:57.781250
2758,-14.27,2022-10-26 10:26:57.796875
2759,-19.35,2022-10-26 10:26:57.812500
2760,-23.84,2022-10-26 10:26:57.828125
2761,-27.94,2022-10-26 10:26:57.843750
2762,-32.06,2022-10-26 10:26:57.859375
2763,-36.69,2022-10-26 10:26:57.875000
2764,-42.36,2022-10-26 10:26:57.890625
2765,-49.45,2022-10-26 10:26:57.906250
2766,-58.0,2022-10-26 10:26:57.921875
2767,-67.41,2022-10-26 10:26:57.937500
2768,-76.34,2022-10-26 10:26:57.953125
2769,-82.75,2022-10-26 10:26:57.968750
2770,-84.41,2022-10-26 10:26:57.984375
2771,-79.64,2022-10-26 10:26:58.000000
2772,-67.98,2022-10-26 10:26:58.015625
2773,-50.54,2022-10-26 10:26:58.031250
2774,-29.72,2022-10-26 10:26:58.046875
2775,-8.49,2022-10-26 10:26:58.062500
2776,10.58,2022-10-26 10:26:58.078125
2777,26.0,2022-10-26 10:26:58.093750
2778,37.47,2022-10-26 10:26:58.109375
2779,45.55,2022-10-26 10:26:58.125000
2780,51.04,2022-10-26 10:26:58.140625
2781,54.45,2022-10-26 10:26:58.156250
2782,55.88,2022-10-26 10:26:58.171875
2783,55.3,2022-10-26 10:26:58.187500
2784,52.88,2022-10-26 10:26:58.203125
2785,49.29,2022-10-26 10:26:58.218750
2786,45.61,2022-10-26 10:26:58.234375
2787,43.01,2022-10-26 10:26:58.250000
2788,42.31,2022-10-26 10:26:58.265625
2789,43.64,2022-10-26 10:26:58.281250
2790,46.42,2022-10-26 10:26:58.296875
2791,49.62,2022-10-26 10:26:58.312500
2792,52.22,2022-10-26 10:26:58.328125
2793,53.62,2022-10-26 10:26:58.343750
2794,53.77,2022-10-26 10:26:58.359375
2795,53.02,2022-10-26 10:26:58.375000
2796,51.83,2022-10-26 10:26:58.390625
2797,50.44,2022-10-26 10:26:58.406250
2798,48.72,2022-10-26 10:26:58.421875
2799,46.26,2022-10-26 10:26:58.437500
2800,42.63,2022-10-26 10:26:58.453125
2801,37.63,2022-10-26 10:26:58.468750
2802,31.53,2022-10-26 10:26:58.484375
2803,24.94,2022-10-26 10:26:58.500000
2804,18.64,2022-10-26 10:26:58.515625
2805,13.31,2022-10-26 10:26:58.531250
2806,9.25,2022-10-26 10:26:58.546875
2807,6.24,2022-10-26 10:26:58.562500
2808,3.63,2022-10-26 10:26:58.578125
2809,0.6,2022-10-26 10:26:58.593750
2810,-3.49,2022-10-26 10:26:58.609375
2811,-8.85,2022-10-26 10:26:58.625000
2812,-15.14,2022-10-26 10:26:58.640625
2813,-21.63,2022-10-26 10:26:58.656250
2814,-27.62,2022-10-26 10:26:58.671875
2815,-32.73,2022-10-26 10:26:58.687500
2816,-37.08,2022-10-26 10:26:58.703125
2817,-41.2,2022-10-26 10:26:58.718750
2818,-45.9,2022-10-26 10:26:58.734375
2819,-51.92,2022-10-26 10:26:58.750000
2820,-59.84,2022-10-26 10:26:58.765625
2821,-69.89,2022-10-26 10:26:58.781250
2822,-81.83,2022-10-26 10:26:58.796875
2823,-94.77,2022-10-26 10:26:58.812500
2824,-107.0,2022-10-26 10:26:58.828125
2825,-116.13,2022-10-26 10:26:58.843750
2826,-119.56,2022-10-26 10:26:58.859375
2827,-115.37,2022-10-26 10:26:58.875000
2828,-103.04,2022-10-26 10:26:58.890625
2829,-83.86,2022-10-26 10:26:58.906250
2830,-60.57,2022-10-26 10:26:58.921875
2831,-36.51,2022-10-26 10:26:58.937500
2832,-14.57,2022-10-26 10:26:58.953125
2833,3.57,2022-10-26 10:26:58.968750
2834,17.56,2022-10-26 10:26:58.984375
2835,28.01,2022-10-26 10:26:59.000000
2836,35.84,2022-10-26 10:26:59.015625
2837,41.74,2022-10-26 10:26:59.031250
2838,46.02,2022-10-26 10:26:59.046875
2839,48.76,2022-10-26 10:26:59.062500
2840,50.02,2022-10-26 10:26:59.078125
2841,50.09,2022-10-26 10:26:59.093750
2842,49.55,2022-10-26 10:26:59.109375
2843,49.08,2022-10-26 10:26:59.125000
2844,49.27,2022-10-26 10:26:59.140625
2845,50.36,2022-10-26 10:26:59.156250
2846,52.22,2022-10-26 10:26:59.171875
2847,54.43,2022-10-26 10:26:59.187500
2848,56.44,2022-10-26 10:26:59.203125
2849,57.88,2022-10-26 10:26:59.218750
2850,58.66,2022-10-26 10:26:59.234375
2851,58.93,2022-10-26 10:26:59.250000
2852,58.85,2022-10-26 10:26:59.265625
2853,58.38,2022-10-26 10:26:59.281250
2854,57.29,2022-10-26 10:26:59.296875
2855,55.22,2022-10-26 10:26:59.312500
2856,51.95,2022-10-26 10:26:59.328125
2857,47.58,2022-10-26 10:26:59.343750
2858,42.62,2022-10-26 10:26:59.359375
2859,37.74,2022-10-26 10:26:59.375000
2860,33.48,2022-10-26 10:26:59.390625
2861,30.03,2022-10-26 10:26:59.406250
2862,27.07,2022-10-26 10:26:59.421875
2863,23.99,2022-10-26 10:26:59.437500
2864,20.17,2022-10-26 10:26:59.453125
2865,15.35,2022-10-26 10:26:59.468750
2866,9.79,2022-10-26 10:26:59.484375
2867,4.14,2022-10-26 10:26:59.500000
2868,-0.89,2022-10-26 10:26:59.515625
2869,-4.81,2022-10-26 10:26:59.531250
2870,-7.68,2022-10-26 10:26:59.546875
2871,-10.0,2022-10-26 10:26:59.562500
2872,-12.47,2022-10-26 10:26:59.578125
2873,-15.74,2022-10-26 10:26:59.593750
2874,-20.1,2022-10-26 10:26:59.609375
2875,-25.38,2022-10-26 10:26:59.625000
2876,-31.13,2022-10-26 10:26:59.640625
2877,-36.81,2022-10-26 10:26:59.656250
2878,-42.07,2022-10-26 10:26:59.671875
2879,-46.87,2022-10-26 10:26:59.687500
2880,-51.51,2022-10-26 10:26:59.703125
2881,-56.59,2022-10-26 10:26:59.718750
2882,-62.78,2022-10-26 10:26:59.734375
2883,-70.71,2022-10-26 10:26:59.750000
2884,-80.62,2022-10-26 10:26:59.765625
2885,-92.04,2022-10-26 10:26:59.781250
2886,-103.56,2022-10-26 10:26:59.796875
2887,-112.94,2022-10-26 10:26:59.812500
2888,-117.58,2022-10-26 10:26:59.828125
2889,-115.3,2022-10-26 10:26:59.843750
2890,-105.13,2022-10-26 10:26:59.859375
2891,-87.77,2022-10-26 10:26:59.875000
2892,-65.46,2022-10-26 10:26:59.890625
2893,-41.31,2022-10-26 10:26:59.906250
2894,-18.35,2022-10-26 10:26:59.921875
2895,1.23,2022-10-26 10:26:59.937500
2896,16.49,2022-10-26 10:26:59.953125
2897,27.59,2022-10-26 10:26:59.968750
2898,35.36,2022-10-26 10:26:59.984375
2899,40.7,2022-10-26 10:27:00.000000
2900,44.31,2022-10-26 10:27:00.015625
2901,46.58,2022-10-26 10:27:00.031250
2902,47.67,2022-10-26 10:27:00.046875
2903,47.8,2022-10-26 10:27:00.062500
2904,47.41,2022-10-26 10:27:00.078125
2905,47.13,2022-10-26 10:27:00.093750
2906,47.62,2022-10-26 10:27:00.109375
2907,49.27,2022-10-26 10:27:00.125000
2908,51.99,2022-10-26 10:27:00.140625
2909,55.23,2022-10-26 10:27:00.156250
2910,58.22,2022-10-26 10:27:00.171875
2911,60.3,2022-10-26 10:27:00.187500
2912,61.29,2022-10-26 10:27:00.203125
2913,61.39,2022-10-26 10:27:00.218750
2914,61.02,2022-10-26 10:27:00.234375
2915,60.45,2022-10-26 10:27:00.250000
2916,59.62,2022-10-26 10:27:00.265625
2917,58.16,2022-10-26 10:27:00.281250
2918,55.69,2022-10-26 10:27:00.296875
2919,52.02,2022-10-26 10:27:00.312500
2920,47.38,2022-10-26 10:27:00.328125
2921,42.26,2022-10-26 10:27:00.343750
2922,37.2,2022-10-26 10:27:00.359375
2923,32.51,2022-10-26 10:27:00.375000
2924,28.27,2022-10-26 10:27:00.390625
2925,24.33,2022-10-26 10:27:00.406250
2926,20.46,2022-10-26 10:27:00.421875
2927,16.47,2022-10-26 10:27:00.437500
2928,12.22,2022-10-26 10:27:00.453125
2929,7.58,2022-10-26 10:27:00.468750
2930,2.43,2022-10-26 10:27:00.484375
2931,-3.24,2022-10-26 10:27:00.500000
2932,-9.38,2022-10-26 10:27:00.515625
2933,-15.71,2022-10-26 10:27:00.531250
2934,-21.88,2022-10-26 10:27:00.546875
2935,-27.58,2022-10-26 10:27:00.562500
2936,-32.67,2022-10-26 10:27:00.578125
2937,-37.25,2022-10-26 10:27:00.593750
2938,-41.67,2022-10-26 10:27:00.609375
2939,-46.38,2022-10-26 10:27:00.625000
2940,-51.92,2022-10-26 10:27:00.640625
2941,-58.76,2022-10-26 10:27:00.656250
2942,-67.22,2022-10-26 10:27:00.671875
2943,-77.2,2022-10-26 10:27:00.687500
2944,-87.87,2022-10-26 10:27:00.703125
2945,-97.55,2022-10-26 10:27:00.718750
2946,-103.93,2022-10-26 10:27:00.734375
2947,-104.65,2022-10-26 10:27:00.750000
2948,-98.16,2022-10-26 10:27:00.765625
2949,-84.39,2022-10-26 10:27:00.781250
2950,-64.98,2022-10-26 10:27:00.796875
2951,-42.78,2022-10-26 10:27:00.812500
2952,-20.91,2022-10-26 10:27:00.828125
2953,-1.83,2022-10-26 10:27:00.843750
2954,13.29,2022-10-26 10:27:00.859375
2955,24.47,2022-10-26 10:27:00.875000
2956,32.42,2022-10-26 10:27:00.890625
2957,37.92,2022-10-26 10:27:00.906250
2958,41.36,2022-10-26 10:27:00.921875
2959,42.79,2022-10-26 10:27:00.937500
2960,42.18,2022-10-26 10:27:00.953125
2961,39.84,2022-10-26 10:27:00.968750
2962,36.55,2022-10-26 10:27:00.984375
2963,33.39,2022-10-26 10:27:01.000000
2964,31.5,2022-10-26 10:27:01.015625
2965,31.48,2022-10-26 10:27:01.031250
2966,33.28,2022-10-26 10:27:01.046875
2967,36.24,2022-10-26 10:27:01.062500
2968,39.38,2022-10-26 10:27:01.078125
2969,41.81,2022-10-26 10:27:01.093750
2970,43.01,2022-10-26 10:27:01.109375
2971,42.91,2022-10-26 10:27:01.125000
2972,41.72,2022-10-26 10:27:01.140625
2973,39.68,2022-10-26 10:27:01.156250
2974,36.84,2022-10-26 10:27:01.171875
2975,33.12,2022-10-26 10:27:01.187500
2976,28.36,2022-10-26 10:27:01.203125
2977,22.56,2022-10-26 10:27:01.218750
2978,15.88,2022-10-26 10:27:01.234375
2979,8.63,2022-10-26 10:27:01.250000
2980,1.23,2022-10-26 10:27:01.265625
2981,-5.85,2022-10-26 10:27:01.281250
2982,-12.25,2022-10-26 10:27:01.296875
2983,-17.76,2022-10-26 10:27:01.312500
2984,-22.39,2022-10-26 10:27:01.328125
2985,-26.44,2022-10-26 10:27:01.343750
2986,-30.43,2022-10-26 10:27:01.359375
2987,-35.02,2022-10-26 10:27:01.375000
2988,-40.78,2022-10-26 10:27:01.390625
2989,-48.03,2022-10-26 10:27:01.406250
2990,-56.74,2022-10-26 10:27:01.421875
2991,-66.25,2022-10-26 10:27:01.437500
2992,-75.27,2022-10-26 10:27:01.453125
2993,-82.05,2022-10-26 10:27:01.468750
2994,-84.67,2022-10-26 10:27:01.484375
2995,-81.61,2022-10-26 10:27:01.500000
2996,-72.29,2022-10-26 10:27:01.515625
2997,-57.41,2022-10-26 10:27:01.531250
2998,-38.82,2022-10-26 10:27:01.546875
2999,-19.05,2022-10-26 10:27:01.562500
3000,-0.55,2022-10-26 10:27:01.578125
3001,15.06,2022-10-26 10:27:01.593750
3002,27.09,2022-10-26 10:27:01.609375
3003,35.79,2022-10-26 10:27:01.625000
3004,41.76,2022-10-26 10:27:01.640625
3005,45.53,2022-10-26 10:27:01.656250
3006,47.38,2022-10-26 10:27:01.671875
3007,47.48,2022-10-26 10:27:01.687500
3008,46.12,2022-10-26 10:27:01.703125
3009,43.98,2022-10-26 10:27:01.718750
3010,41.99,2022-10-26 10:27:01.734375
3011,41.07,2022-10-26 10:27:01.750000
3012,41.78,2022-10-26 10:27:01.765625
3013,44.01,2022-10-26 10:27:01.781250
3014,47.03,2022-10-26 10:27:01.796875
3015,49.87,2022-10-26 10:27:01.812500
3016,51.71,2022-10-26 10:27:01.828125
3017,52.21,2022-10-26 10:27:01.843750
3018,51.52,2022-10-26 10:27:01.859375
3019,50.09,2022-10-26 10:27:01.875000
3020,48.28,2022-10-26 10:27:01.890625
3021,46.18,2022-10-26 10:27:01.906250
3022,43.53,2022-10-26 10:27:01.921875
3023,39.93,2022-10-26 10:27:01.937500
3024,35.18,2022-10-26 10:27:01.953125
3025,29.42,2022-10-26 10:27:01.968750
3026,23.15,2022-10-26 10:27:01.984375
3027,17.06,2022-10-26 10:27:02.000000
3028,11.75,2022-10-26 10:27:02.015625
3029,7.51,2022-10-26 10:27:02.031250
3030,4.16,2022-10-26 10:27:02.046875
3031,1.2,2022-10-26 10:27:02.062500
3032,-2.06,2022-10-26 10:27:02.078125
3033,-6.14,2022-10-26 10:27:02.093750
3034,-11.29,2022-10-26 10:27:02.109375
3035,-17.24,2022-10-26 10:27:02.125000
3036,-23.37,2022-10-26 10:27:02.140625
3037,-28.93,2022-10-26 10:27:02.156250
3038,-33.48,2022-10-26 10:27:02.171875
3039,-37.03,2022-10-26 10:27:02.187500
3040,-40.22,2022-10-26 10:27:02.203125
3041,-44.05,2022-10-26 10:27:02.218750
3042,-49.55,2022-10-26 10:27:02.234375
3043,-57.46,2022-10-26 10:27:02.250000
3044,-67.88,2022-10-26 10:27:02.265625
3045,-80.04,2022-10-26 10:27:02.281250
3046,-92.36,2022-10-26 10:27:02.296875
3047,-102.54,2022-10-26 10:27:02.312500
3048,-108.07,2022-10-26 10:27:02.328125
3049,-106.85,2022-10-26 10:27:02.343750
3050,-97.93,2022-10-26 10:27:02.359375
3051,-81.94,2022-10-26 10:27:02.375000
3052,-61.07,2022-10-26 10:27:02.390625
3053,-38.39,2022-10-26 10:27:02.406250
3054,-16.92,2022-10-26 10:27:02.421875
3055,1.26,2022-10-26 10:27:02.437500
3056,15.48,2022-10-26 10:27:02.453125
3057,26.17,2022-10-26 10:27:02.468750
3058,34.27,2022-10-26 10:27:02.484375
3059,40.63,2022-10-26 10:27:02.500000
3060,45.58,2022-10-26 10:27:02.515625
3061,49.11,2022-10-26 10:27:02.531250
3062,51.17,2022-10-26 10:27:02.546875
3063,51.94,2022-10-26 10:27:02.562500
3064,51.93,2022-10-26 10:27:02.578125
3065,51.83,2022-10-26 10:27:02.593750
3066,52.24,2022-10-26 10:27:02.609375
3067,53.37,2022-10-26 10:27:02.625000
3068,55.12,2022-10-26 10:27:02.640625
3069,57.17,2022-10-26 10:27:02.656250
3070,59.25,2022-10-26 10:27:02.671875
3071,61.19,2022-10-26 10:27:02.687500
3072,62.94,2022-10-26 10:27:02.703125
3073,64.51,2022-10-26 10:27:02.718750
3074,65.76,2022-10-26 10:27:02.734375
3075,66.45,2022-10-26 10:27:02.750000
3076,66.23,2022-10-26 10:27:02.765625
3077,64.77,2022-10-26 10:27:02.781250
3078,61.91,2022-10-26 10:27:02.796875
3079,57.78,2022-10-26 10:27:02.812500
3080,52.74,2022-10-26 10:27:02.828125
3081,47.36,2022-10-26 10:27:02.843750
3082,42.23,2022-10-26 10:27:02.859375
3083,37.79,2022-10-26 10:27:02.875000
3084,34.19,2022-10-26 10:27:02.890625
3085,31.29,2022-10-26 10:27:02.906250
3086,28.69,2022-10-26 10:27:02.921875
3087,25.9,2022-10-26 10:27:02.937500
3088,22.55,2022-10-26 10:27:02.953125
3089,18.49,2022-10-26 10:27:02.968750
3090,13.85,2022-10-26 10:27:02.984375
3091,8.99,2022-10-26 10:27:03.000000
3092,4.37,2022-10-26 10:27:03.015625
3093,0.33,2022-10-26 10:27:03.031250
3094,-3.01,2022-10-26 10:27:03.046875
3095,-5.86,2022-10-26 10:27:03.062500
3096,-8.74,2022-10-26 10:27:03.078125
3097,-12.22,2022-10-26 10:27:03.093750
3098,-16.7,2022-10-26 10:27:03.109375
3099,-22.15,2022-10-26 10:27:03.125000
3100,-28.18,2022-10-26 10:27:03.140625
3101,-34.17,2022-10-26 10:27:03.156250
3102,-39.58,2022-10-26 10:27:03.171875
3103,-44.15,2022-10-26 10:27:03.187500
3104,-48.05,2022-10-26 10:27:03.203125
3105,-51.81,2022-10-26 10:27:03.218750
3106,-56.15,2022-10-26 10:27:03.234375
3107,-61.84,2022-10-26 10:27:03.250000
3108,-69.45,2022-10-26 10:27:03.265625
3109,-79.1,2022-10-26 10:27:03.281250
3110,-90.19,2022-10-26 10:27:03.296875
3111,-101.18,2022-10-26 10:27:03.312500
3112,-109.65,2022-10-26 10:27:03.328125
3113,-112.93,2022-10-26 10:27:03.343750
3114,-108.91,2022-10-26 10:27:03.359375
3115,-96.92,2022-10-26 10:27:03.375000
3116,-78.15,2022-10-26 10:27:03.390625
3117,-55.32,2022-10-26 10:27:03.406250
3118,-31.78,2022-10-26 10:27:03.421875
3119,-10.44,2022-10-26 10:27:03.437500
3120,7.05,2022-10-26 10:27:03.453125
3121,20.42,2022-10-26 10:27:03.468750
3122,30.41,2022-10-26 10:27:03.484375
3123,38.03,2022-10-26 10:27:03.500000
3124,44.03,2022-10-26 10:27:03.515625
3125,48.68,2022-10-26 10:27:03.531250
3126,51.89,2022-10-26 10:27:03.546875
3127,53.6,2022-10-26 10:27:03.562500
3128,53.98,2022-10-26 10:27:03.578125
3129,53.5,2022-10-26 10:27:03.593750
3130,52.77,2022-10-26 10:27:03.609375
3131,52.31,2022-10-26 10:27:03.625000
3132,52.34,2022-10-26 10:27:03.640625
3133,52.76,2022-10-26 10:27:03.656250
3134,53.29,2022-10-26 10:27:03.671875
3135,53.61,2022-10-26 10:27:03.687500
3136,53.56,2022-10-26 10:27:03.703125
3137,53.14,2022-10-26 10:27:03.718750
3138,52.49,2022-10-26 10:27:03.734375
3139,51.68,2022-10-26 10:27:03.750000
3140,50.64,2022-10-26 10:27:03.765625
3141,49.12,2022-10-26 10:27:03.781250
3142,46.78,2022-10-26 10:27:03.796875
3143,43.43,2022-10-26 10:27:03.812500
3144,39.03,2022-10-26 10:27:03.828125
3145,33.91,2022-10-26 10:27:03.843750
3146,28.53,2022-10-26 10:27:03.859375
3147,23.45,2022-10-26 10:27:03.875000
3148,19.09,2022-10-26 10:27:03.890625
3149,15.63,2022-10-26 10:27:03.906250
3150,12.95,2022-10-26 10:27:03.921875
3151,10.68,2022-10-26 10:27:03.937500
3152,8.34,2022-10-26 10:27:03.953125
3153,5.39,2022-10-26 10:27:03.968750
3154,1.55,2022-10-26 10:27:03.984375
3155,-3.2,2022-10-26 10:27:04.000000
3156,-8.52,2022-10-26 10:27:04.015625
3157,-13.86,2022-10-26 10:27:04.031250
3158,-18.71,2022-10-26 10:27:04.046875
3159,-22.76,2022-10-26 10:27:04.062500
3160,-26.07,2022-10-26 10:27:04.078125
3161,-28.97,2022-10-26 10:27:04.093750
3162,-32.06,2022-10-26 10:27:04.109375
