,BVP,time
0,17.18,2022-10-26 16:54:45.484375
1,17.49,2022-10-26 16:54:45.500000
2,17.14,2022-10-26 16:54:45.515625
3,16.15,2022-10-26 16:54:45.531250
4,14.64,2022-10-26 16:54:45.546875
5,12.81,2022-10-26 16:54:45.562500
6,10.86,2022-10-26 16:54:45.578125
7,8.95,2022-10-26 16:54:45.593750
8,7.11,2022-10-26 16:54:45.609375
9,5.23,2022-10-26 16:54:45.625000
10,3.22,2022-10-26 16:54:45.640625
11,1.01,2022-10-26 16:54:45.656250
12,-1.36,2022-10-26 16:54:45.671875
13,-3.79,2022-10-26 16:54:45.687500
14,-6.14,2022-10-26 16:54:45.703125
15,-8.37,2022-10-26 16:54:45.718750
16,-10.53,2022-10-26 16:54:45.734375
17,-12.72,2022-10-26 16:54:45.750000
18,-15.04,2022-10-26 16:54:45.765625
19,-17.52,2022-10-26 16:54:45.781250
20,-20.13,2022-10-26 16:54:45.796875
21,-22.81,2022-10-26 16:54:45.812500
22,-25.49,2022-10-26 16:54:45.828125
23,-28.06,2022-10-26 16:54:45.843750
24,-30.34,2022-10-26 16:54:45.859375
25,-32.03,2022-10-26 16:54:45.875000
26,-32.7,2022-10-26 16:54:45.890625
27,-31.98,2022-10-26 16:54:45.906250
28,-29.67,2022-10-26 16:54:45.921875
29,-25.83,2022-10-26 16:54:45.937500
30,-20.82,2022-10-26 16:54:45.953125
31,-15.19,2022-10-26 16:54:45.968750
32,-9.55,2022-10-26 16:54:45.984375
33,-4.37,2022-10-26 16:54:46.000000
34,0.04,2022-10-26 16:54:46.015625
35,3.61,2022-10-26 16:54:46.031250
36,6.38,2022-10-26 16:54:46.046875
37,8.45,2022-10-26 16:54:46.062500
38,9.95,2022-10-26 16:54:46.078125
39,10.95,2022-10-26 16:54:46.093750
40,11.5,2022-10-26 16:54:46.109375
41,11.64,2022-10-26 16:54:46.125000
42,11.45,2022-10-26 16:54:46.140625
43,10.98,2022-10-26 16:54:46.156250
44,10.37,2022-10-26 16:54:46.171875
45,9.8,2022-10-26 16:54:46.187500
46,9.5,2022-10-26 16:54:46.203125
47,9.76,2022-10-26 16:54:46.218750
48,10.8,2022-10-26 16:54:46.234375
49,12.69,2022-10-26 16:54:46.250000
50,15.27,2022-10-26 16:54:46.265625
51,18.13,2022-10-26 16:54:46.281250
52,20.76,2022-10-26 16:54:46.296875
53,22.75,2022-10-26 16:54:46.312500
54,23.98,2022-10-26 16:54:46.328125
55,24.72,2022-10-26 16:54:46.343750
56,25.47,2022-10-26 16:54:46.359375
57,26.75,2022-10-26 16:54:46.375000
58,28.75,2022-10-26 16:54:46.390625
59,31.25,2022-10-26 16:54:46.406250
60,33.66,2022-10-26 16:54:46.421875
61,35.24,2022-10-26 16:54:46.437500
62,35.5,2022-10-26 16:54:46.453125
63,34.44,2022-10-26 16:54:46.468750
64,32.64,2022-10-26 16:54:46.484375
65,31.08,2022-10-26 16:54:46.500000
66,30.79,2022-10-26 16:54:46.515625
67,32.54,2022-10-26 16:54:46.531250
68,36.58,2022-10-26 16:54:46.546875
69,42.55,2022-10-26 16:54:46.562500
70,49.54,2022-10-26 16:54:46.578125
71,56.38,2022-10-26 16:54:46.593750
72,61.78,2022-10-26 16:54:46.609375
73,64.78,2022-10-26 16:54:46.625000
74,65.04,2022-10-26 16:54:46.640625
75,63.12,2022-10-26 16:54:46.656250
76,60.49,2022-10-26 16:54:46.671875
77,59.28,2022-10-26 16:54:46.687500
78,61.68,2022-10-26 16:54:46.703125
79,69.28,2022-10-26 16:54:46.718750
80,82.58,2022-10-26 16:54:46.734375
81,100.95,2022-10-26 16:54:46.750000
82,123.04,2022-10-26 16:54:46.765625
83,147.38,2022-10-26 16:54:46.781250
84,172.75,2022-10-26 16:54:46.796875
85,198.21,2022-10-26 16:54:46.812500
86,222.89,2022-10-26 16:54:46.828125
87,245.72,2022-10-26 16:54:46.843750
88,265.35,2022-10-26 16:54:46.859375
89,280.45,2022-10-26 16:54:46.875000
90,290.17,2022-10-26 16:54:46.890625
91,294.43,2022-10-26 16:54:46.906250
92,294.03,2022-10-26 16:54:46.921875
93,290.36,2022-10-26 16:54:46.937500
94,284.98,2022-10-26 16:54:46.953125
95,279.16,2022-10-26 16:54:46.968750
96,273.56,2022-10-26 16:54:46.984375
97,268.1,2022-10-26 16:54:47.000000
98,262.06,2022-10-26 16:54:47.015625
99,254.43,2022-10-26 16:54:47.031250
100,244.34,2022-10-26 16:54:47.046875
101,231.47,2022-10-26 16:54:47.062500
102,216.22,2022-10-26 16:54:47.078125
103,199.62,2022-10-26 16:54:47.093750
104,182.9,2022-10-26 16:54:47.109375
105,167.1,2022-10-26 16:54:47.125000
106,152.8,2022-10-26 16:54:47.140625
107,140.07,2022-10-26 16:54:47.156250
108,128.66,2022-10-26 16:54:47.171875
109,118.19,2022-10-26 16:54:47.187500
110,108.31,2022-10-26 16:54:47.203125
111,98.73,2022-10-26 16:54:47.218750
112,89.26,2022-10-26 16:54:47.234375
113,79.77,2022-10-26 16:54:47.250000
114,70.25,2022-10-26 16:54:47.265625
115,60.81,2022-10-26 16:54:47.281250
116,51.55,2022-10-26 16:54:47.296875
117,42.38,2022-10-26 16:54:47.312500
118,32.94,2022-10-26 16:54:47.328125
119,22.64,2022-10-26 16:54:47.343750
120,10.92,2022-10-26 16:54:47.359375
121,-2.48,2022-10-26 16:54:47.375000
122,-17.24,2022-10-26 16:54:47.390625
123,-32.57,2022-10-26 16:54:47.406250
124,-47.5,2022-10-26 16:54:47.421875
125,-61.42,2022-10-26 16:54:47.437500
126,-74.49,2022-10-26 16:54:47.453125
127,-87.77,2022-10-26 16:54:47.468750
128,-102.84,2022-10-26 16:54:47.484375
129,-121.14,2022-10-26 16:54:47.500000
130,-143.33,2022-10-26 16:54:47.515625
131,-168.9,2022-10-26 16:54:47.531250
132,-196.52,2022-10-26 16:54:47.546875
133,-224.55,2022-10-26 16:54:47.562500
134,-251.9,2022-10-26 16:54:47.578125
135,-278.49,2022-10-26 16:54:47.593750
136,-305.24,2022-10-26 16:54:47.609375
137,-333.79,2022-10-26 16:54:47.625000
138,-366.09,2022-10-26 16:54:47.640625
139,-404.14,2022-10-26 16:54:47.656250
140,-449.52,2022-10-26 16:54:47.671875
141,-502.47,2022-10-26 16:54:47.687500
142,-560.62,2022-10-26 16:54:47.703125
143,-618.18,2022-10-26 16:54:47.718750
144,-666.42,2022-10-26 16:54:47.734375
145,-695.92,2022-10-26 16:54:47.750000
146,-699.92,2022-10-26 16:54:47.765625
147,-677.16,2022-10-26 16:54:47.781250
148,-632.58,2022-10-26 16:54:47.796875
149,-575.45,2022-10-26 16:54:47.812500
150,-515.57,2022-10-26 16:54:47.828125
151,-459.89,2022-10-26 16:54:47.843750
152,-410.87,2022-10-26 16:54:47.859375
153,-367.39,2022-10-26 16:54:47.875000
154,-327.02,2022-10-26 16:54:47.890625
155,-288.3,2022-10-26 16:54:47.906250
156,-251.37,2022-10-26 16:54:47.921875
157,-217.26,2022-10-26 16:54:47.937500
158,-186.54,2022-10-26 16:54:47.953125
159,-158.56,2022-10-26 16:54:47.968750
160,-131.82,2022-10-26 16:54:47.984375
161,-105.02,2022-10-26 16:54:48.000000
162,-78.05,2022-10-26 16:54:48.015625
163,-52.1,2022-10-26 16:54:48.031250
164,-29.25,2022-10-26 16:54:48.046875
165,-11.22,2022-10-26 16:54:48.062500
166,1.43,2022-10-26 16:54:48.078125
167,9.53,2022-10-26 16:54:48.093750
168,14.89,2022-10-26 16:54:48.109375
169,19.47,2022-10-26 16:54:48.125000
170,24.55,2022-10-26 16:54:48.140625
171,30.31,2022-10-26 16:54:48.156250
172,35.98,2022-10-26 16:54:48.171875
173,40.34,2022-10-26 16:54:48.187500
174,42.43,2022-10-26 16:54:48.203125
175,42.08,2022-10-26 16:54:48.218750
176,39.94,2022-10-26 16:54:48.234375
177,37.22,2022-10-26 16:54:48.250000
178,35.12,2022-10-26 16:54:48.265625
179,34.29,2022-10-26 16:54:48.281250
180,34.63,2022-10-26 16:54:48.296875
181,35.37,2022-10-26 16:54:48.312500
182,35.45,2022-10-26 16:54:48.328125
183,33.99,2022-10-26 16:54:48.343750
184,30.65,2022-10-26 16:54:48.359375
185,25.69,2022-10-26 16:54:48.375000
186,19.92,2022-10-26 16:54:48.390625
187,14.43,2022-10-26 16:54:48.406250
188,10.37,2022-10-26 16:54:48.421875
189,8.66,2022-10-26 16:54:48.437500
190,9.85,2022-10-26 16:54:48.453125
191,13.95,2022-10-26 16:54:48.468750
192,20.48,2022-10-26 16:54:48.484375
193,28.59,2022-10-26 16:54:48.500000
194,37.34,2022-10-26 16:54:48.515625
195,45.97,2022-10-26 16:54:48.531250
196,53.99,2022-10-26 16:54:48.546875
197,61.18,2022-10-26 16:54:48.562500
198,67.39,2022-10-26 16:54:48.578125
199,72.39,2022-10-26 16:54:48.593750
200,75.79,2022-10-26 16:54:48.609375
201,77.29,2022-10-26 16:54:48.625000
202,76.82,2022-10-26 16:54:48.640625
203,74.69,2022-10-26 16:54:48.656250
204,71.54,2022-10-26 16:54:48.671875
205,68.15,2022-10-26 16:54:48.687500
206,65.17,2022-10-26 16:54:48.703125
207,62.99,2022-10-26 16:54:48.718750
208,61.72,2022-10-26 16:54:48.734375
209,61.32,2022-10-26 16:54:48.750000
210,61.71,2022-10-26 16:54:48.765625
211,62.85,2022-10-26 16:54:48.781250
212,64.66,2022-10-26 16:54:48.796875
213,67.02,2022-10-26 16:54:48.812500
214,69.64,2022-10-26 16:54:48.828125
215,72.08,2022-10-26 16:54:48.843750
216,73.92,2022-10-26 16:54:48.859375
217,74.83,2022-10-26 16:54:48.875000
218,74.67,2022-10-26 16:54:48.890625
219,73.52,2022-10-26 16:54:48.906250
220,71.62,2022-10-26 16:54:48.921875
221,69.24,2022-10-26 16:54:48.937500
222,66.61,2022-10-26 16:54:48.953125
223,63.84,2022-10-26 16:54:48.968750
224,60.92,2022-10-26 16:54:48.984375
225,57.81,2022-10-26 16:54:49.000000
226,54.45,2022-10-26 16:54:49.015625
227,50.88,2022-10-26 16:54:49.031250
228,47.23,2022-10-26 16:54:49.046875
229,43.62,2022-10-26 16:54:49.062500
230,40.11,2022-10-26 16:54:49.078125
231,36.69,2022-10-26 16:54:49.093750
232,33.25,2022-10-26 16:54:49.109375
233,29.71,2022-10-26 16:54:49.125000
234,26.05,2022-10-26 16:54:49.140625
235,22.33,2022-10-26 16:54:49.156250
236,18.69,2022-10-26 16:54:49.171875
237,15.27,2022-10-26 16:54:49.187500
238,12.06,2022-10-26 16:54:49.203125
239,8.97,2022-10-26 16:54:49.218750
240,5.77,2022-10-26 16:54:49.234375
241,2.21,2022-10-26 16:54:49.250000
242,-1.91,2022-10-26 16:54:49.265625
243,-6.67,2022-10-26 16:54:49.281250
244,-11.89,2022-10-26 16:54:49.296875
245,-17.17,2022-10-26 16:54:49.312500
246,-21.8,2022-10-26 16:54:49.328125
247,-25.03,2022-10-26 16:54:49.343750
248,-26.15,2022-10-26 16:54:49.359375
249,-24.73,2022-10-26 16:54:49.375000
250,-20.68,2022-10-26 16:54:49.390625
251,-14.27,2022-10-26 16:54:49.406250
252,-6.04,2022-10-26 16:54:49.421875
253,3.35,2022-10-26 16:54:49.437500
254,13.18,2022-10-26 16:54:49.453125
255,22.7,2022-10-26 16:54:49.468750
256,31.21,2022-10-26 16:54:49.484375
257,38.12,2022-10-26 16:54:49.500000
258,43.08,2022-10-26 16:54:49.515625
259,46.07,2022-10-26 16:54:49.531250
260,47.31,2022-10-26 16:54:49.546875
261,47.22,2022-10-26 16:54:49.562500
262,46.2,2022-10-26 16:54:49.578125
263,44.59,2022-10-26 16:54:49.593750
264,42.6,2022-10-26 16:54:49.609375
265,40.46,2022-10-26 16:54:49.625000
266,38.46,2022-10-26 16:54:49.640625
267,36.98,2022-10-26 16:54:49.656250
268,36.35,2022-10-26 16:54:49.671875
269,36.8,2022-10-26 16:54:49.687500
270,38.28,2022-10-26 16:54:49.703125
271,40.5,2022-10-26 16:54:49.718750
272,43.01,2022-10-26 16:54:49.734375
273,45.35,2022-10-26 16:54:49.750000
274,47.19,2022-10-26 16:54:49.765625
275,48.37,2022-10-26 16:54:49.781250
276,48.87,2022-10-26 16:54:49.796875
277,48.74,2022-10-26 16:54:49.812500
278,48.07,2022-10-26 16:54:49.828125
279,46.88,2022-10-26 16:54:49.843750
280,45.19,2022-10-26 16:54:49.859375
281,43.01,2022-10-26 16:54:49.875000
282,40.38,2022-10-26 16:54:49.890625
283,37.44,2022-10-26 16:54:49.906250
284,34.32,2022-10-26 16:54:49.921875
285,31.17,2022-10-26 16:54:49.937500
286,28.07,2022-10-26 16:54:49.953125
287,25.01,2022-10-26 16:54:49.968750
288,21.94,2022-10-26 16:54:49.984375
289,18.76,2022-10-26 16:54:50.000000
290,15.44,2022-10-26 16:54:50.015625
291,12.04,2022-10-26 16:54:50.031250
292,8.75,2022-10-26 16:54:50.046875
293,5.78,2022-10-26 16:54:50.062500
294,3.29,2022-10-26 16:54:50.078125
295,1.29,2022-10-26 16:54:50.093750
296,-0.4,2022-10-26 16:54:50.109375
297,-2.11,2022-10-26 16:54:50.125000
298,-4.19,2022-10-26 16:54:50.140625
299,-6.96,2022-10-26 16:54:50.156250
300,-10.6,2022-10-26 16:54:50.171875
301,-15.11,2022-10-26 16:54:50.187500
302,-20.25,2022-10-26 16:54:50.203125
303,-25.47,2022-10-26 16:54:50.218750
304,-29.99,2022-10-26 16:54:50.234375
305,-32.83,2022-10-26 16:54:50.250000
306,-33.06,2022-10-26 16:54:50.265625
307,-30.06,2022-10-26 16:54:50.281250
308,-23.78,2022-10-26 16:54:50.296875
309,-14.75,2022-10-26 16:54:50.312500
310,-4.01,2022-10-26 16:54:50.328125
311,7.23,2022-10-26 16:54:50.343750
312,17.92,2022-10-26 16:54:50.359375
313,27.38,2022-10-26 16:54:50.375000
314,35.37,2022-10-26 16:54:50.390625
315,41.95,2022-10-26 16:54:50.406250
316,47.3,2022-10-26 16:54:50.421875
317,51.59,2022-10-26 16:54:50.437500
318,54.9,2022-10-26 16:54:50.453125
319,57.42,2022-10-26 16:54:50.468750
320,59.46,2022-10-26 16:54:50.484375
321,61.52,2022-10-26 16:54:50.500000
322,64.15,2022-10-26 16:54:50.515625
323,67.74,2022-10-26 16:54:50.531250
324,72.31,2022-10-26 16:54:50.546875
325,77.5,2022-10-26 16:54:50.562500
326,82.67,2022-10-26 16:54:50.578125
327,87.14,2022-10-26 16:54:50.593750
328,90.46,2022-10-26 16:54:50.609375
329,92.51,2022-10-26 16:54:50.625000
330,93.5,2022-10-26 16:54:50.640625
331,93.9,2022-10-26 16:54:50.656250
332,94.26,2022-10-26 16:54:50.671875
333,95.11,2022-10-26 16:54:50.687500
334,96.78,2022-10-26 16:54:50.703125
335,99.31,2022-10-26 16:54:50.718750
336,102.29,2022-10-26 16:54:50.734375
337,104.95,2022-10-26 16:54:50.750000
338,106.28,2022-10-26 16:54:50.765625
339,105.38,2022-10-26 16:54:50.781250
340,101.74,2022-10-26 16:54:50.796875
341,95.37,2022-10-26 16:54:50.812500
342,86.77,2022-10-26 16:54:50.828125
343,76.69,2022-10-26 16:54:50.843750
344,65.85,2022-10-26 16:54:50.859375
345,54.63,2022-10-26 16:54:50.875000
346,43.14,2022-10-26 16:54:50.890625
347,31.35,2022-10-26 16:54:50.906250
348,19.35,2022-10-26 16:54:50.921875
349,7.56,2022-10-26 16:54:50.937500
350,-3.4,2022-10-26 16:54:50.953125
351,-12.99,2022-10-26 16:54:50.968750
352,-21.05,2022-10-26 16:54:50.984375
353,-27.81,2022-10-26 16:54:51.000000
354,-33.94,2022-10-26 16:54:51.015625
355,-40.16,2022-10-26 16:54:51.031250
356,-46.88,2022-10-26 16:54:51.046875
357,-54.01,2022-10-26 16:54:51.062500
358,-60.99,2022-10-26 16:54:51.078125
359,-67.12,2022-10-26 16:54:51.093750
360,-71.81,2022-10-26 16:54:51.109375
361,-74.7,2022-10-26 16:54:51.125000
362,-75.43,2022-10-26 16:54:51.140625
363,-73.88,2022-10-26 16:54:51.156250
364,-70.06,2022-10-26 16:54:51.171875
365,-64.0,2022-10-26 16:54:51.187500
366,-55.76,2022-10-26 16:54:51.203125
367,-45.62,2022-10-26 16:54:51.218750
368,-34.26,2022-10-26 16:54:51.234375
369,-22.85,2022-10-26 16:54:51.250000
370,-12.55,2022-10-26 16:54:51.265625
371,-3.78,2022-10-26 16:54:51.281250
372,3.5,2022-10-26 16:54:51.296875
373,9.77,2022-10-26 16:54:51.312500
374,15.85,2022-10-26 16:54:51.328125
375,22.48,2022-10-26 16:54:51.343750
376,29.91,2022-10-26 16:54:51.359375
377,37.74,2022-10-26 16:54:51.375000
378,44.92,2022-10-26 16:54:51.390625
379,50.63,2022-10-26 16:54:51.406250
380,55.16,2022-10-26 16:54:51.421875
381,58.76,2022-10-26 16:54:51.437500
382,61.34,2022-10-26 16:54:51.453125
383,62.68,2022-10-26 16:54:51.468750
384,62.81,2022-10-26 16:54:51.484375
385,62.54,2022-10-26 16:54:51.500000
386,63.71,2022-10-26 16:54:51.515625
387,68.3,2022-10-26 16:54:51.531250
388,78.32,2022-10-26 16:54:51.546875
389,94.97,2022-10-26 16:54:51.562500
390,116.18,2022-10-26 16:54:51.578125
391,136.66,2022-10-26 16:54:51.593750
392,149.77,2022-10-26 16:54:51.609375
393,150.34,2022-10-26 16:54:51.625000
394,136.86,2022-10-26 16:54:51.640625
395,112.23,2022-10-26 16:54:51.656250
396,81.54,2022-10-26 16:54:51.671875
397,46.81,2022-10-26 16:54:51.687500
398,14.01,2022-10-26 16:54:51.703125
399,-10.73,2022-10-26 16:54:51.718750
400,-24.81,2022-10-26 16:54:51.734375
401,-30.51,2022-10-26 16:54:51.750000
402,-32.22,2022-10-26 16:54:51.765625
403,-32.98,2022-10-26 16:54:51.781250
404,-33.16,2022-10-26 16:54:51.796875
405,-33.82,2022-10-26 16:54:51.812500
406,-35.18,2022-10-26 16:54:51.828125
407,-37.59,2022-10-26 16:54:51.843750
408,-43.23,2022-10-26 16:54:51.859375
409,-55.21,2022-10-26 16:54:51.875000
410,-76.15,2022-10-26 16:54:51.890625
411,-107.47,2022-10-26 16:54:51.906250
412,-150.03,2022-10-26 16:54:51.921875
413,-195.55,2022-10-26 16:54:51.937500
414,-237.47,2022-10-26 16:54:51.953125
415,-270.09,2022-10-26 16:54:51.968750
416,-288.28,2022-10-26 16:54:51.984375
417,-288.53,2022-10-26 16:54:52.000000
418,-268.72,2022-10-26 16:54:52.015625
419,-229.25,2022-10-26 16:54:52.031250
420,-174.44,2022-10-26 16:54:52.046875
421,-112.69,2022-10-26 16:54:52.062500
422,-54.23,2022-10-26 16:54:52.078125
423,-8.83,2022-10-26 16:54:52.093750
424,18.82,2022-10-26 16:54:52.109375
425,30.46,2022-10-26 16:54:52.125000
426,31.23,2022-10-26 16:54:52.140625
427,26.74,2022-10-26 16:54:52.156250
428,20.94,2022-10-26 16:54:52.171875
429,15.73,2022-10-26 16:54:52.187500
430,12.28,2022-10-26 16:54:52.203125
431,12.17,2022-10-26 16:54:52.218750
432,16.56,2022-10-26 16:54:52.234375
433,24.85,2022-10-26 16:54:52.250000
434,38.04,2022-10-26 16:54:52.265625
435,55.11,2022-10-26 16:54:52.281250
436,73.73,2022-10-26 16:54:52.296875
437,91.7,2022-10-26 16:54:52.312500
438,107.78,2022-10-26 16:54:52.328125
439,122.1,2022-10-26 16:54:52.343750
440,135.63,2022-10-26 16:54:52.359375
441,148.87,2022-10-26 16:54:52.375000
442,162.19,2022-10-26 16:54:52.390625
443,176.25,2022-10-26 16:54:52.406250
444,191.22,2022-10-26 16:54:52.421875
445,206.64,2022-10-26 16:54:52.437500
446,221.06,2022-10-26 16:54:52.453125
447,231.98,2022-10-26 16:54:52.468750
448,236.5,2022-10-26 16:54:52.484375
449,232.37,2022-10-26 16:54:52.500000
450,218.69,2022-10-26 16:54:52.515625
451,196.58,2022-10-26 16:54:52.531250
452,168.67,2022-10-26 16:54:52.546875
453,138.66,2022-10-26 16:54:52.562500
454,109.68,2022-10-26 16:54:52.578125
455,83.28,2022-10-26 16:54:52.593750
456,59.3,2022-10-26 16:54:52.609375
457,36.55,2022-10-26 16:54:52.625000
458,13.82,2022-10-26 16:54:52.640625
459,-9.6,2022-10-26 16:54:52.656250
460,-33.67,2022-10-26 16:54:52.671875
461,-57.52,2022-10-26 16:54:52.687500
462,-79.99,2022-10-26 16:54:52.703125
463,-99.91,2022-10-26 16:54:52.718750
464,-116.31,2022-10-26 16:54:52.734375
465,-128.92,2022-10-26 16:54:52.750000
466,-138.45,2022-10-26 16:54:52.765625
467,-146.57,2022-10-26 16:54:52.781250
468,-155.54,2022-10-26 16:54:52.796875
469,-167.51,2022-10-26 16:54:52.812500
470,-183.75,2022-10-26 16:54:52.828125
471,-204.57,2022-10-26 16:54:52.843750
472,-229.38,2022-10-26 16:54:52.859375
473,-256.67,2022-10-26 16:54:52.875000
474,-283.88,2022-10-26 16:54:52.890625
475,-307.17,2022-10-26 16:54:52.906250
476,-321.51,2022-10-26 16:54:52.921875
477,-321.57,2022-10-26 16:54:52.937500
478,-303.3,2022-10-26 16:54:52.953125
479,-265.44,2022-10-26 16:54:52.968750
480,-210.01,2022-10-26 16:54:52.984375
481,-141.59,2022-10-26 16:54:53.000000
482,-65.54,2022-10-26 16:54:53.015625
483,13.46,2022-10-26 16:54:53.031250
484,91.82,2022-10-26 16:54:53.046875
485,166.45,2022-10-26 16:54:53.062500
486,233.87,2022-10-26 16:54:53.078125
487,290.05,2022-10-26 16:54:53.093750
488,331.52,2022-10-26 16:54:53.109375
489,357.02,2022-10-26 16:54:53.125000
490,368.37,2022-10-26 16:54:53.140625
491,369.98,2022-10-26 16:54:53.156250
492,366.83,2022-10-26 16:54:53.171875
493,362.29,2022-10-26 16:54:53.187500
494,356.8,2022-10-26 16:54:53.203125
495,348.45,2022-10-26 16:54:53.218750
496,334.72,2022-10-26 16:54:53.234375
497,314.42,2022-10-26 16:54:53.250000
498,288.43,2022-10-26 16:54:53.265625
499,259.14,2022-10-26 16:54:53.281250
500,229.1,2022-10-26 16:54:53.296875
501,199.69,2022-10-26 16:54:53.312500
502,170.81,2022-10-26 16:54:53.328125
503,141.49,2022-10-26 16:54:53.343750
504,110.91,2022-10-26 16:54:53.359375
505,79.22,2022-10-26 16:54:53.375000
506,47.67,2022-10-26 16:54:53.390625
507,17.77,2022-10-26 16:54:53.406250
508,-9.56,2022-10-26 16:54:53.421875
509,-34.63,2022-10-26 16:54:53.437500
510,-58.86,2022-10-26 16:54:53.453125
511,-84.12,2022-10-26 16:54:53.468750
512,-111.7,2022-10-26 16:54:53.484375
513,-141.73,2022-10-26 16:54:53.500000
514,-173.18,2022-10-26 16:54:53.515625
515,-204.3,2022-10-26 16:54:53.531250
516,-233.6,2022-10-26 16:54:53.546875
517,-260.51,2022-10-26 16:54:53.562500
518,-285.57,2022-10-26 16:54:53.578125
519,-310.28,2022-10-26 16:54:53.593750
520,-336.67,2022-10-26 16:54:53.609375
521,-366.76,2022-10-26 16:54:53.625000
522,-401.98,2022-10-26 16:54:53.640625
523,-442.41,2022-10-26 16:54:53.656250
524,-486.17,2022-10-26 16:54:53.671875
525,-529.06,2022-10-26 16:54:53.687500
526,-565.14,2022-10-26 16:54:53.703125
527,-588.11,2022-10-26 16:54:53.718750
528,-593.23,2022-10-26 16:54:53.734375
529,-578.86,2022-10-26 16:54:53.750000
530,-546.82,2022-10-26 16:54:53.765625
531,-501.41,2022-10-26 16:54:53.781250
532,-447.71,2022-10-26 16:54:53.796875
533,-389.84,2022-10-26 16:54:53.812500
534,-330.35,2022-10-26 16:54:53.828125
535,-270.56,2022-10-26 16:54:53.843750
536,-211.49,2022-10-26 16:54:53.859375
537,-154.55,2022-10-26 16:54:53.875000
538,-101.58,2022-10-26 16:54:53.890625
539,-54.22,2022-10-26 16:54:53.906250
540,-13.22,2022-10-26 16:54:53.921875
541,21.84,2022-10-26 16:54:53.937500
542,52.31,2022-10-26 16:54:53.953125
543,79.74,2022-10-26 16:54:53.968750
544,105.51,2022-10-26 16:54:53.984375
545,130.47,2022-10-26 16:54:54.000000
546,155.01,2022-10-26 16:54:54.015625
547,179.17,2022-10-26 16:54:54.031250
548,202.81,2022-10-26 16:54:54.046875
549,225.62,2022-10-26 16:54:54.062500
550,247.18,2022-10-26 16:54:54.078125
551,267.14,2022-10-26 16:54:54.093750
552,285.23,2022-10-26 16:54:54.109375
553,301.11,2022-10-26 16:54:54.125000
554,313.96,2022-10-26 16:54:54.140625
555,322.1,2022-10-26 16:54:54.156250
556,322.98,2022-10-26 16:54:54.171875
557,313.79,2022-10-26 16:54:54.187500
558,292.5,2022-10-26 16:54:54.203125
559,258.85,2022-10-26 16:54:54.218750
560,214.61,2022-10-26 16:54:54.234375
561,162.72,2022-10-26 16:54:54.250000
562,106.06,2022-10-26 16:54:54.265625
563,46.55,2022-10-26 16:54:54.281250
564,-14.51,2022-10-26 16:54:54.296875
565,-75.17,2022-10-26 16:54:54.312500
566,-131.67,2022-10-26 16:54:54.328125
567,-178.6,2022-10-26 16:54:54.343750
568,-210.47,2022-10-26 16:54:54.359375
569,-224.04,2022-10-26 16:54:54.375000
570,-219.96,2022-10-26 16:54:54.390625
571,-202.5,2022-10-26 16:54:54.406250
572,-177.55,2022-10-26 16:54:54.421875
573,-150.29,2022-10-26 16:54:54.437500
574,-123.8,2022-10-26 16:54:54.453125
575,-99.38,2022-10-26 16:54:54.468750
576,-77.99,2022-10-26 16:54:54.484375
577,-61.24,2022-10-26 16:54:54.500000
578,-51.2,2022-10-26 16:54:54.515625
579,-49.0,2022-10-26 16:54:54.531250
580,-53.43,2022-10-26 16:54:54.546875
581,-60.65,2022-10-26 16:54:54.562500
582,-65.54,2022-10-26 16:54:54.578125
583,-63.93,2022-10-26 16:54:54.593750
584,-54.29,2022-10-26 16:54:54.609375
585,-38.18,2022-10-26 16:54:54.625000
586,-19.23,2022-10-26 16:54:54.640625
587,-1.52,2022-10-26 16:54:54.656250
588,12.04,2022-10-26 16:54:54.671875
589,20.28,2022-10-26 16:54:54.687500
590,23.59,2022-10-26 16:54:54.703125
591,23.23,2022-10-26 16:54:54.718750
592,20.64,2022-10-26 16:54:54.734375
593,17.13,2022-10-26 16:54:54.750000
594,13.82,2022-10-26 16:54:54.765625
595,11.7,2022-10-26 16:54:54.781250
596,11.65,2022-10-26 16:54:54.796875
597,14.28,2022-10-26 16:54:54.812500
598,19.77,2022-10-26 16:54:54.828125
599,27.66,2022-10-26 16:54:54.843750
600,37.0,2022-10-26 16:54:54.859375
601,46.62,2022-10-26 16:54:54.875000
602,55.53,2022-10-26 16:54:54.890625
603,63.33,2022-10-26 16:54:54.906250
604,70.27,2022-10-26 16:54:54.921875
605,77.06,2022-10-26 16:54:54.937500
606,84.41,2022-10-26 16:54:54.953125
607,92.46,2022-10-26 16:54:54.968750
608,100.44,2022-10-26 16:54:54.984375
609,106.81,2022-10-26 16:54:55.000000
610,109.72,2022-10-26 16:54:55.015625
611,107.85,2022-10-26 16:54:55.031250
612,100.89,2022-10-26 16:54:55.046875
613,89.83,2022-10-26 16:54:55.062500
614,76.49,2022-10-26 16:54:55.078125
615,62.74,2022-10-26 16:54:55.093750
616,49.87,2022-10-26 16:54:55.109375
617,38.37,2022-10-26 16:54:55.125000
618,28.31,2022-10-26 16:54:55.140625
619,19.97,2022-10-26 16:54:55.156250
620,14.41,2022-10-26 16:54:55.171875
621,13.36,2022-10-26 16:54:55.187500
622,18.75,2022-10-26 16:54:55.203125
623,32.03,2022-10-26 16:54:55.218750
624,53.72,2022-10-26 16:54:55.234375
625,83.31,2022-10-26 16:54:55.250000
626,119.32,2022-10-26 16:54:55.265625
627,159.41,2022-10-26 16:54:55.281250
628,200.41,2022-10-26 16:54:55.296875
629,238.37,2022-10-26 16:54:55.312500
630,268.84,2022-10-26 16:54:55.328125
631,287.66,2022-10-26 16:54:55.343750
632,292.0,2022-10-26 16:54:55.359375
633,281.35,2022-10-26 16:54:55.375000
634,257.92,2022-10-26 16:54:55.390625
635,226.1,2022-10-26 16:54:55.406250
636,191.17,2022-10-26 16:54:55.421875
637,157.62,2022-10-26 16:54:55.437500
638,128.09,2022-10-26 16:54:55.453125
639,102.94,2022-10-26 16:54:55.468750
640,80.86,2022-10-26 16:54:55.484375
641,59.95,2022-10-26 16:54:55.500000
642,38.68,2022-10-26 16:54:55.515625
643,16.46,2022-10-26 16:54:55.531250
644,-6.5,2022-10-26 16:54:55.546875
645,-29.62,2022-10-26 16:54:55.562500
646,-52.36,2022-10-26 16:54:55.578125
647,-74.36,2022-10-26 16:54:55.593750
648,-95.36,2022-10-26 16:54:55.609375
649,-114.99,2022-10-26 16:54:55.625000
650,-132.75,2022-10-26 16:54:55.640625
651,-148.23,2022-10-26 16:54:55.656250
652,-161.28,2022-10-26 16:54:55.671875
653,-172.07,2022-10-26 16:54:55.687500
654,-180.97,2022-10-26 16:54:55.703125
655,-188.38,2022-10-26 16:54:55.718750
656,-194.68,2022-10-26 16:54:55.734375
657,-200.22,2022-10-26 16:54:55.750000
658,-205.39,2022-10-26 16:54:55.765625
659,-210.65,2022-10-26 16:54:55.781250
660,-216.45,2022-10-26 16:54:55.796875
661,-222.95,2022-10-26 16:54:55.812500
662,-229.95,2022-10-26 16:54:55.828125
663,-236.69,2022-10-26 16:54:55.843750
664,-242.04,2022-10-26 16:54:55.859375
665,-244.62,2022-10-26 16:54:55.875000
666,-243.25,2022-10-26 16:54:55.890625
667,-237.26,2022-10-26 16:54:55.906250
668,-226.8,2022-10-26 16:54:55.921875
669,-212.72,2022-10-26 16:54:55.937500
670,-196.27,2022-10-26 16:54:55.953125
671,-178.54,2022-10-26 16:54:55.968750
672,-160.06,2022-10-26 16:54:55.984375
673,-140.84,2022-10-26 16:54:56.000000
674,-120.62,2022-10-26 16:54:56.015625
675,-99.49,2022-10-26 16:54:56.031250
676,-78.11,2022-10-26 16:54:56.046875
677,-57.65,2022-10-26 16:54:56.062500
678,-39.32,2022-10-26 16:54:56.078125
679,-23.86,2022-10-26 16:54:56.093750
680,-11.23,2022-10-26 16:54:56.109375
681,-0.89,2022-10-26 16:54:56.125000
682,7.74,2022-10-26 16:54:56.140625
683,14.87,2022-10-26 16:54:56.156250
684,20.11,2022-10-26 16:54:56.171875
685,22.78,2022-10-26 16:54:56.187500
686,22.3,2022-10-26 16:54:56.203125
687,18.75,2022-10-26 16:54:56.218750
688,13.0,2022-10-26 16:54:56.234375
689,6.73,2022-10-26 16:54:56.250000
690,2.06,2022-10-26 16:54:56.265625
691,0.98,2022-10-26 16:54:56.281250
692,4.87,2022-10-26 16:54:56.296875
693,14.06,2022-10-26 16:54:56.312500
694,27.83,2022-10-26 16:54:56.328125
695,44.74,2022-10-26 16:54:56.343750
696,63.14,2022-10-26 16:54:56.359375
697,81.68,2022-10-26 16:54:56.375000
698,99.53,2022-10-26 16:54:56.390625
699,116.33,2022-10-26 16:54:56.406250
700,131.92,2022-10-26 16:54:56.421875
701,146.19,2022-10-26 16:54:56.437500
702,159.08,2022-10-26 16:54:56.453125
703,170.64,2022-10-26 16:54:56.468750
704,180.88,2022-10-26 16:54:56.484375
705,189.51,2022-10-26 16:54:56.500000
706,195.61,2022-10-26 16:54:56.515625
707,197.58,2022-10-26 16:54:56.531250
708,193.66,2022-10-26 16:54:56.546875
709,182.77,2022-10-26 16:54:56.562500
710,165.28,2022-10-26 16:54:56.578125
711,143.18,2022-10-26 16:54:56.593750
712,119.43,2022-10-26 16:54:56.609375
713,96.78,2022-10-26 16:54:56.625000
714,76.75,2022-10-26 16:54:56.640625
715,59.25,2022-10-26 16:54:56.656250
716,43.24,2022-10-26 16:54:56.671875
717,27.72,2022-10-26 16:54:56.687500
718,12.78,2022-10-26 16:54:56.703125
719,-0.26,2022-10-26 16:54:56.718750
720,-9.55,2022-10-26 16:54:56.734375
721,-13.76,2022-10-26 16:54:56.750000
722,-12.94,2022-10-26 16:54:56.765625
723,-8.54,2022-10-26 16:54:56.781250
724,-2.7,2022-10-26 16:54:56.796875
725,2.82,2022-10-26 16:54:56.812500
726,7.35,2022-10-26 16:54:56.828125
727,11.36,2022-10-26 16:54:56.843750
728,15.79,2022-10-26 16:54:56.859375
729,21.28,2022-10-26 16:54:56.875000
730,27.57,2022-10-26 16:54:56.890625
731,33.71,2022-10-26 16:54:56.906250
732,38.54,2022-10-26 16:54:56.921875
733,41.39,2022-10-26 16:54:56.937500
734,42.37,2022-10-26 16:54:56.953125
735,42.28,2022-10-26 16:54:56.968750
736,42.11,2022-10-26 16:54:56.984375
737,42.59,2022-10-26 16:54:57.000000
738,43.97,2022-10-26 16:54:57.015625
739,46.11,2022-10-26 16:54:57.031250
740,48.71,2022-10-26 16:54:57.046875
741,51.58,2022-10-26 16:54:57.062500
742,54.78,2022-10-26 16:54:57.078125
743,58.53,2022-10-26 16:54:57.093750
744,63.05,2022-10-26 16:54:57.109375
745,68.39,2022-10-26 16:54:57.125000
746,74.27,2022-10-26 16:54:57.140625
747,80.04,2022-10-26 16:54:57.156250
748,84.75,2022-10-26 16:54:57.171875
749,87.38,2022-10-26 16:54:57.187500
750,87.18,2022-10-26 16:54:57.203125
751,84.01,2022-10-26 16:54:57.218750
752,78.41,2022-10-26 16:54:57.234375
753,71.6,2022-10-26 16:54:57.250000
754,65.02,2022-10-26 16:54:57.265625
755,59.88,2022-10-26 16:54:57.281250
756,56.84,2022-10-26 16:54:57.296875
757,55.97,2022-10-26 16:54:57.312500
758,56.92,2022-10-26 16:54:57.328125
759,59.23,2022-10-26 16:54:57.343750
760,62.38,2022-10-26 16:54:57.359375
761,65.79,2022-10-26 16:54:57.375000
762,68.72,2022-10-26 16:54:57.390625
763,70.3,2022-10-26 16:54:57.406250
764,69.73,2022-10-26 16:54:57.421875
765,66.51,2022-10-26 16:54:57.437500
766,60.73,2022-10-26 16:54:57.453125
767,53.03,2022-10-26 16:54:57.468750
768,44.46,2022-10-26 16:54:57.484375
769,36.17,2022-10-26 16:54:57.500000
770,29.14,2022-10-26 16:54:57.515625
771,24.11,2022-10-26 16:54:57.531250
772,21.45,2022-10-26 16:54:57.546875
773,21.23,2022-10-26 16:54:57.562500
774,23.14,2022-10-26 16:54:57.578125
775,26.57,2022-10-26 16:54:57.593750
776,30.57,2022-10-26 16:54:57.609375
777,34.16,2022-10-26 16:54:57.625000
778,36.52,2022-10-26 16:54:57.640625
779,37.13,2022-10-26 16:54:57.656250
780,35.86,2022-10-26 16:54:57.671875
781,32.84,2022-10-26 16:54:57.687500
782,28.27,2022-10-26 16:54:57.703125
783,22.4,2022-10-26 16:54:57.718750
784,15.39,2022-10-26 16:54:57.734375
785,7.45,2022-10-26 16:54:57.750000
786,-1.14,2022-10-26 16:54:57.765625
787,-9.99,2022-10-26 16:54:57.781250
788,-18.64,2022-10-26 16:54:57.796875
789,-26.78,2022-10-26 16:54:57.812500
790,-34.35,2022-10-26 16:54:57.828125
791,-41.62,2022-10-26 16:54:57.843750
792,-49.04,2022-10-26 16:54:57.859375
793,-56.98,2022-10-26 16:54:57.875000
794,-65.46,2022-10-26 16:54:57.890625
795,-74.0,2022-10-26 16:54:57.906250
796,-81.78,2022-10-26 16:54:57.921875
797,-87.91,2022-10-26 16:54:57.937500
798,-91.83,2022-10-26 16:54:57.953125
799,-93.53,2022-10-26 16:54:57.968750
800,-93.69,2022-10-26 16:54:57.984375
801,-93.34,2022-10-26 16:54:58.000000
802,-93.42,2022-10-26 16:54:58.015625
803,-94.38,2022-10-26 16:54:58.031250
804,-96.03,2022-10-26 16:54:58.046875
805,-97.79,2022-10-26 16:54:58.062500
806,-99.19,2022-10-26 16:54:58.078125
807,-100.4,2022-10-26 16:54:58.093750
808,-102.35,2022-10-26 16:54:58.109375
809,-106.3,2022-10-26 16:54:58.125000
810,-113.0,2022-10-26 16:54:58.140625
811,-122.04,2022-10-26 16:54:58.156250
812,-131.67,2022-10-26 16:54:58.171875
813,-139.36,2022-10-26 16:54:58.187500
814,-142.77,2022-10-26 16:54:58.203125
815,-140.59,2022-10-26 16:54:58.218750
816,-132.93,2022-10-26 16:54:58.234375
817,-121.05,2022-10-26 16:54:58.250000
818,-106.76,2022-10-26 16:54:58.265625
819,-91.83,2022-10-26 16:54:58.281250
820,-77.74,2022-10-26 16:54:58.296875
821,-65.63,2022-10-26 16:54:58.312500
822,-56.19,2022-10-26 16:54:58.328125
823,-49.58,2022-10-26 16:54:58.343750
824,-45.23,2022-10-26 16:54:58.359375
825,-41.77,2022-10-26 16:54:58.375000
826,-37.51,2022-10-26 16:54:58.390625
827,-31.01,2022-10-26 16:54:58.406250
828,-21.75,2022-10-26 16:54:58.421875
829,-10.38,2022-10-26 16:54:58.437500
830,1.61,2022-10-26 16:54:58.453125
831,12.58,2022-10-26 16:54:58.468750
832,21.44,2022-10-26 16:54:58.484375
833,28.08,2022-10-26 16:54:58.500000
834,33.27,2022-10-26 16:54:58.515625
835,38.18,2022-10-26 16:54:58.531250
836,43.74,2022-10-26 16:54:58.546875
837,50.09,2022-10-26 16:54:58.562500
838,56.51,2022-10-26 16:54:58.578125
839,61.72,2022-10-26 16:54:58.593750
840,64.44,2022-10-26 16:54:58.609375
841,64.0,2022-10-26 16:54:58.625000
842,60.73,2022-10-26 16:54:58.640625
843,55.75,2022-10-26 16:54:58.656250
844,50.41,2022-10-26 16:54:58.671875
845,45.65,2022-10-26 16:54:58.687500
846,41.55,2022-10-26 16:54:58.703125
847,37.38,2022-10-26 16:54:58.718750
848,32.16,2022-10-26 16:54:58.734375
849,25.31,2022-10-26 16:54:58.750000
850,16.99,2022-10-26 16:54:58.765625
851,7.99,2022-10-26 16:54:58.781250
852,-0.71,2022-10-26 16:54:58.796875
853,-8.59,2022-10-26 16:54:58.812500
854,-15.74,2022-10-26 16:54:58.828125
855,-22.76,2022-10-26 16:54:58.843750
856,-30.25,2022-10-26 16:54:58.859375
857,-38.35,2022-10-26 16:54:58.875000
858,-46.6,2022-10-26 16:54:58.890625
859,-54.12,2022-10-26 16:54:58.906250
860,-60.06,2022-10-26 16:54:58.921875
861,-64.02,2022-10-26 16:54:58.937500
862,-66.33,2022-10-26 16:54:58.953125
863,-67.9,2022-10-26 16:54:58.968750
864,-69.94,2022-10-26 16:54:58.984375
865,-73.4,2022-10-26 16:54:59.000000
866,-78.55,2022-10-26 16:54:59.015625
867,-84.82,2022-10-26 16:54:59.031250
868,-90.87,2022-10-26 16:54:59.046875
869,-95.12,2022-10-26 16:54:59.062500
870,-96.25,2022-10-26 16:54:59.078125
871,-93.55,2022-10-26 16:54:59.093750
872,-87.01,2022-10-26 16:54:59.109375
873,-77.08,2022-10-26 16:54:59.125000
874,-64.47,2022-10-26 16:54:59.140625
875,-49.97,2022-10-26 16:54:59.156250
876,-34.46,2022-10-26 16:54:59.171875
877,-18.95,2022-10-26 16:54:59.187500
878,-4.52,2022-10-26 16:54:59.203125
879,7.82,2022-10-26 16:54:59.218750
880,17.38,2022-10-26 16:54:59.234375
881,23.92,2022-10-26 16:54:59.250000
882,27.63,2022-10-26 16:54:59.265625
883,28.99,2022-10-26 16:54:59.281250
884,28.69,2022-10-26 16:54:59.296875
885,27.56,2022-10-26 16:54:59.312500
886,26.59,2022-10-26 16:54:59.328125
887,26.82,2022-10-26 16:54:59.343750
888,29.2,2022-10-26 16:54:59.359375
889,34.27,2022-10-26 16:54:59.375000
890,41.94,2022-10-26 16:54:59.390625
891,51.47,2022-10-26 16:54:59.406250
892,61.7,2022-10-26 16:54:59.421875
893,71.45,2022-10-26 16:54:59.437500
894,79.74,2022-10-26 16:54:59.453125
895,86.04,2022-10-26 16:54:59.468750
896,90.22,2022-10-26 16:54:59.484375
897,92.44,2022-10-26 16:54:59.500000
898,93.04,2022-10-26 16:54:59.515625
899,92.41,2022-10-26 16:54:59.531250
900,90.91,2022-10-26 16:54:59.546875
901,88.71,2022-10-26 16:54:59.562500
902,85.78,2022-10-26 16:54:59.578125
903,82.0,2022-10-26 16:54:59.593750
904,77.39,2022-10-26 16:54:59.609375
905,72.37,2022-10-26 16:54:59.625000
906,67.76,2022-10-26 16:54:59.640625
907,64.57,2022-10-26 16:54:59.656250
908,63.54,2022-10-26 16:54:59.671875
909,64.7,2022-10-26 16:54:59.687500
910,67.27,2022-10-26 16:54:59.703125
911,70.03,2022-10-26 16:54:59.718750
912,71.83,2022-10-26 16:54:59.734375
913,72.21,2022-10-26 16:54:59.750000
914,71.54,2022-10-26 16:54:59.765625
915,70.74,2022-10-26 16:54:59.781250
916,70.68,2022-10-26 16:54:59.796875
917,71.69,2022-10-26 16:54:59.812500
918,73.3,2022-10-26 16:54:59.828125
919,74.48,2022-10-26 16:54:59.843750
920,74.02,2022-10-26 16:54:59.859375
921,71.0,2022-10-26 16:54:59.875000
922,64.99,2022-10-26 16:54:59.890625
923,55.98,2022-10-26 16:54:59.906250
924,44.28,2022-10-26 16:54:59.921875
925,30.4,2022-10-26 16:54:59.937500
926,15.05,2022-10-26 16:54:59.953125
927,-0.79,2022-10-26 16:54:59.968750
928,-15.96,2022-10-26 16:54:59.984375
929,-29.26,2022-10-26 16:55:00.000000
930,-39.69,2022-10-26 16:55:00.015625
931,-46.79,2022-10-26 16:55:00.031250
932,-50.75,2022-10-26 16:55:00.046875
933,-52.32,2022-10-26 16:55:00.062500
934,-52.56,2022-10-26 16:55:00.078125
935,-52.48,2022-10-26 16:55:00.093750
936,-52.76,2022-10-26 16:55:00.109375
937,-53.61,2022-10-26 16:55:00.125000
938,-54.81,2022-10-26 16:55:00.140625
939,-55.79,2022-10-26 16:55:00.156250
940,-55.86,2022-10-26 16:55:00.171875
941,-54.25,2022-10-26 16:55:00.187500
942,-50.41,2022-10-26 16:55:00.203125
943,-44.19,2022-10-26 16:55:00.218750
944,-35.95,2022-10-26 16:55:00.234375
945,-26.5,2022-10-26 16:55:00.250000
946,-16.79,2022-10-26 16:55:00.265625
947,-7.52,2022-10-26 16:55:00.281250
948,1.14,2022-10-26 16:55:00.296875
949,9.59,2022-10-26 16:55:00.312500
950,18.55,2022-10-26 16:55:00.328125
951,28.6,2022-10-26 16:55:00.343750
952,39.78,2022-10-26 16:55:00.359375
953,51.51,2022-10-26 16:55:00.375000
954,62.74,2022-10-26 16:55:00.390625
955,72.41,2022-10-26 16:55:00.406250
956,79.95,2022-10-26 16:55:00.421875
957,85.67,2022-10-26 16:55:00.437500
958,90.75,2022-10-26 16:55:00.453125
959,96.82,2022-10-26 16:55:00.468750
960,105.09,2022-10-26 16:55:00.484375
961,115.49,2022-10-26 16:55:00.500000
962,126.35,2022-10-26 16:55:00.515625
963,134.82,2022-10-26 16:55:00.531250
964,138.1,2022-10-26 16:55:00.546875
965,134.8,2022-10-26 16:55:00.562500
966,125.68,2022-10-26 16:55:00.578125
967,113.23,2022-10-26 16:55:00.593750
968,100.38,2022-10-26 16:55:00.609375
969,89.02,2022-10-26 16:55:00.625000
970,79.28,2022-10-26 16:55:00.640625
971,69.96,2022-10-26 16:55:00.656250
972,59.72,2022-10-26 16:55:00.671875
973,48.23,2022-10-26 16:55:00.687500
974,36.49,2022-10-26 16:55:00.703125
975,26.29,2022-10-26 16:55:00.718750
976,18.99,2022-10-26 16:55:00.734375
977,14.72,2022-10-26 16:55:00.750000
978,12.22,2022-10-26 16:55:00.765625
979,9.55,2022-10-26 16:55:00.781250
980,5.11,2022-10-26 16:55:00.796875
981,-1.5,2022-10-26 16:55:00.812500
982,-9.35,2022-10-26 16:55:00.828125
983,-16.67,2022-10-26 16:55:00.843750
984,-21.76,2022-10-26 16:55:00.859375
985,-23.79,2022-10-26 16:55:00.875000
986,-23.18,2022-10-26 16:55:00.890625
987,-21.23,2022-10-26 16:55:00.906250
988,-19.56,2022-10-26 16:55:00.921875
989,-19.18,2022-10-26 16:55:00.937500
990,-20.23,2022-10-26 16:55:00.953125
991,-22.16,2022-10-26 16:55:00.968750
992,-24.29,2022-10-26 16:55:00.984375
993,-26.5,2022-10-26 16:55:01.000000
994,-29.42,2022-10-26 16:55:01.015625
995,-34.14,2022-10-26 16:55:01.031250
996,-41.6,2022-10-26 16:55:01.046875
997,-52.09,2022-10-26 16:55:01.062500
998,-65.06,2022-10-26 16:55:01.078125
999,-79.58,2022-10-26 16:55:01.093750
1000,-94.71,2022-10-26 16:55:01.109375
1001,-109.89,2022-10-26 16:55:01.125000
1002,-124.89,2022-10-26 16:55:01.140625
1003,-139.47,2022-10-26 16:55:01.156250
1004,-153.21,2022-10-26 16:55:01.171875
1005,-165.42,2022-10-26 16:55:01.187500
1006,-175.49,2022-10-26 16:55:01.203125
1007,-183.25,2022-10-26 16:55:01.218750
1008,-189.12,2022-10-26 16:55:01.234375
1009,-193.89,2022-10-26 16:55:01.250000
1010,-198.19,2022-10-26 16:55:01.265625
1011,-202.04,2022-10-26 16:55:01.281250
1012,-204.79,2022-10-26 16:55:01.296875
1013,-205.36,2022-10-26 16:55:01.312500
1014,-202.82,2022-10-26 16:55:01.328125
1015,-196.91,2022-10-26 16:55:01.343750
1016,-188.01,2022-10-26 16:55:01.359375
1017,-177.02,2022-10-26 16:55:01.375000
1018,-164.86,2022-10-26 16:55:01.390625
1019,-151.99,2022-10-26 16:55:01.406250
1020,-138.33,2022-10-26 16:55:01.421875
1021,-123.28,2022-10-26 16:55:01.437500
1022,-105.88,2022-10-26 16:55:01.453125
1023,-85.04,2022-10-26 16:55:01.468750
1024,-59.95,2022-10-26 16:55:01.484375
1025,-30.52,2022-10-26 16:55:01.500000
1026,1.96,2022-10-26 16:55:01.515625
1027,34.65,2022-10-26 16:55:01.531250
1028,63.61,2022-10-26 16:55:01.546875
1029,84.9,2022-10-26 16:55:01.562500
1030,95.96,2022-10-26 16:55:01.578125
1031,96.41,2022-10-26 16:55:01.593750
1032,88.15,2022-10-26 16:55:01.609375
1033,74.35,2022-10-26 16:55:01.625000
1034,58.23,2022-10-26 16:55:01.640625
1035,42.08,2022-10-26 16:55:01.656250
1036,27.06,2022-10-26 16:55:01.671875
1037,13.67,2022-10-26 16:55:01.687500
1038,2.3,2022-10-26 16:55:01.703125
1039,-6.38,2022-10-26 16:55:01.718750
1040,-11.82,2022-10-26 16:55:01.734375
1041,-13.93,2022-10-26 16:55:01.750000
1042,-13.54,2022-10-26 16:55:01.765625
1043,-12.2,2022-10-26 16:55:01.781250
1044,-11.66,2022-10-26 16:55:01.796875
1045,-13.24,2022-10-26 16:55:01.812500
1046,-17.36,2022-10-26 16:55:01.828125
1047,-23.72,2022-10-26 16:55:01.843750
1048,-31.33,2022-10-26 16:55:01.859375
1049,-39.21,2022-10-26 16:55:01.875000
1050,-46.65,2022-10-26 16:55:01.890625
1051,-53.55,2022-10-26 16:55:01.906250
1052,-60.18,2022-10-26 16:55:01.921875
1053,-66.98,2022-10-26 16:55:01.937500
1054,-74.08,2022-10-26 16:55:01.953125
1055,-81.0,2022-10-26 16:55:01.968750
1056,-86.74,2022-10-26 16:55:01.984375
1057,-89.94,2022-10-26 16:55:02.000000
1058,-89.51,2022-10-26 16:55:02.015625
1059,-85.0,2022-10-26 16:55:02.031250
1060,-76.81,2022-10-26 16:55:02.046875
1061,-66.06,2022-10-26 16:55:02.062500
1062,-54.19,2022-10-26 16:55:02.078125
1063,-42.53,2022-10-26 16:55:02.093750
1064,-31.9,2022-10-26 16:55:02.109375
1065,-22.56,2022-10-26 16:55:02.125000
1066,-14.23,2022-10-26 16:55:02.140625
1067,-6.43,2022-10-26 16:55:02.156250
1068,1.34,2022-10-26 16:55:02.171875
1069,9.31,2022-10-26 16:55:02.187500
1070,17.32,2022-10-26 16:55:02.203125
1071,24.89,2022-10-26 16:55:02.218750
1072,31.32,2022-10-26 16:55:02.234375
1073,36.02,2022-10-26 16:55:02.250000
1074,38.68,2022-10-26 16:55:02.265625
1075,39.4,2022-10-26 16:55:02.281250
1076,38.59,2022-10-26 16:55:02.296875
1077,36.86,2022-10-26 16:55:02.312500
1078,34.77,2022-10-26 16:55:02.328125
1079,32.72,2022-10-26 16:55:02.343750
1080,30.98,2022-10-26 16:55:02.359375
1081,29.68,2022-10-26 16:55:02.375000
1082,28.89,2022-10-26 16:55:02.390625
1083,28.61,2022-10-26 16:55:02.406250
1084,28.74,2022-10-26 16:55:02.421875
1085,28.99,2022-10-26 16:55:02.437500
1086,28.87,2022-10-26 16:55:02.453125
1087,27.84,2022-10-26 16:55:02.468750
1088,25.47,2022-10-26 16:55:02.484375
1089,21.61,2022-10-26 16:55:02.500000
1090,16.52,2022-10-26 16:55:02.515625
1091,10.81,2022-10-26 16:55:02.531250
1092,5.2,2022-10-26 16:55:02.546875
1093,0.3,2022-10-26 16:55:02.562500
1094,-3.66,2022-10-26 16:55:02.578125
1095,-6.88,2022-10-26 16:55:02.593750
1096,-9.91,2022-10-26 16:55:02.609375
1097,-13.42,2022-10-26 16:55:02.625000
1098,-17.83,2022-10-26 16:55:02.640625
1099,-23.07,2022-10-26 16:55:02.656250
1100,-28.38,2022-10-26 16:55:02.671875
1101,-32.5,2022-10-26 16:55:02.687500
1102,-34.01,2022-10-26 16:55:02.703125
1103,-31.77,2022-10-26 16:55:02.718750
1104,-25.3,2022-10-26 16:55:02.734375
1105,-14.89,2022-10-26 16:55:02.750000
1106,-1.38,2022-10-26 16:55:02.765625
1107,14.18,2022-10-26 16:55:02.781250
1108,30.88,2022-10-26 16:55:02.796875
1109,48.15,2022-10-26 16:55:02.812500
1110,65.64,2022-10-26 16:55:02.828125
1111,83.06,2022-10-26 16:55:02.843750
1112,100.05,2022-10-26 16:55:02.859375
1113,116.27,2022-10-26 16:55:02.875000
1114,131.6,2022-10-26 16:55:02.890625
1115,146.23,2022-10-26 16:55:02.906250
1116,160.65,2022-10-26 16:55:02.921875
1117,175.22,2022-10-26 16:55:02.937500
1118,189.94,2022-10-26 16:55:02.953125
1119,204.24,2022-10-26 16:55:02.968750
1120,217.24,2022-10-26 16:55:02.984375
1121,228.14,2022-10-26 16:55:03.000000
1122,236.59,2022-10-26 16:55:03.015625
1123,242.77,2022-10-26 16:55:03.031250
1124,247.03,2022-10-26 16:55:03.046875
1125,249.32,2022-10-26 16:55:03.062500
1126,248.81,2022-10-26 16:55:03.078125
1127,244.03,2022-10-26 16:55:03.093750
1128,233.48,2022-10-26 16:55:03.109375
1129,216.52,2022-10-26 16:55:03.125000
1130,194.03,2022-10-26 16:55:03.140625
1131,168.21,2022-10-26 16:55:03.156250
1132,141.87,2022-10-26 16:55:03.171875
1133,117.3,2022-10-26 16:55:03.187500
1134,95.54,2022-10-26 16:55:03.203125
1135,76.34,2022-10-26 16:55:03.218750
1136,58.72,2022-10-26 16:55:03.234375
1137,41.86,2022-10-26 16:55:03.250000
1138,25.64,2022-10-26 16:55:03.265625
1139,10.67,2022-10-26 16:55:03.281250
1140,-2.33,2022-10-26 16:55:03.296875
1141,-13.04,2022-10-26 16:55:03.312500
1142,-21.86,2022-10-26 16:55:03.328125
1143,-29.72,2022-10-26 16:55:03.343750
1144,-37.49,2022-10-26 16:55:03.359375
1145,-45.49,2022-10-26 16:55:03.375000
1146,-53.37,2022-10-26 16:55:03.390625
1147,-60.34,2022-10-26 16:55:03.406250
1148,-65.64,2022-10-26 16:55:03.421875
1149,-69.02,2022-10-26 16:55:03.437500
1150,-70.87,2022-10-26 16:55:03.453125
1151,-72.02,2022-10-26 16:55:03.468750
1152,-73.44,2022-10-26 16:55:03.484375
1153,-75.87,2022-10-26 16:55:03.500000
1154,-79.57,2022-10-26 16:55:03.515625
1155,-84.23,2022-10-26 16:55:03.531250
1156,-89.08,2022-10-26 16:55:03.546875
1157,-93.07,2022-10-26 16:55:03.562500
1158,-95.19,2022-10-26 16:55:03.578125
1159,-94.79,2022-10-26 16:55:03.593750
1160,-91.82,2022-10-26 16:55:03.609375
1161,-86.94,2022-10-26 16:55:03.625000
1162,-81.33,2022-10-26 16:55:03.640625
1163,-76.36,2022-10-26 16:55:03.656250
1164,-73.17,2022-10-26 16:55:03.671875
1165,-72.37,2022-10-26 16:55:03.687500
1166,-73.93,2022-10-26 16:55:03.703125
1167,-77.33,2022-10-26 16:55:03.718750
1168,-81.79,2022-10-26 16:55:03.734375
1169,-86.53,2022-10-26 16:55:03.750000
1170,-90.9,2022-10-26 16:55:03.765625
1171,-94.47,2022-10-26 16:55:03.781250
1172,-97.01,2022-10-26 16:55:03.796875
1173,-98.44,2022-10-26 16:55:03.812500
1174,-98.87,2022-10-26 16:55:03.828125
1175,-98.54,2022-10-26 16:55:03.843750
1176,-97.75,2022-10-26 16:55:03.859375
1177,-96.81,2022-10-26 16:55:03.875000
1178,-95.92,2022-10-26 16:55:03.890625
1179,-95.13,2022-10-26 16:55:03.906250
1180,-94.27,2022-10-26 16:55:03.921875
1181,-93.08,2022-10-26 16:55:03.937500
1182,-91.25,2022-10-26 16:55:03.953125
1183,-88.59,2022-10-26 16:55:03.968750
1184,-85.12,2022-10-26 16:55:03.984375
1185,-81.03,2022-10-26 16:55:04.000000
1186,-76.6,2022-10-26 16:55:04.015625
1187,-72.06,2022-10-26 16:55:04.031250
1188,-67.52,2022-10-26 16:55:04.046875
1189,-62.9,2022-10-26 16:55:04.062500
1190,-58.11,2022-10-26 16:55:04.078125
1191,-53.08,2022-10-26 16:55:04.093750
1192,-47.88,2022-10-26 16:55:04.109375
1193,-42.6,2022-10-26 16:55:04.125000
1194,-37.19,2022-10-26 16:55:04.140625
1195,-31.35,2022-10-26 16:55:04.156250
1196,-24.42,2022-10-26 16:55:04.171875
1197,-15.58,2022-10-26 16:55:04.187500
1198,-4.06,2022-10-26 16:55:04.203125
1199,10.54,2022-10-26 16:55:04.218750
1200,28.23,2022-10-26 16:55:04.234375
1201,48.84,2022-10-26 16:55:04.250000
1202,72.27,2022-10-26 16:55:04.265625
1203,98.64,2022-10-26 16:55:04.281250
1204,128.03,2022-10-26 16:55:04.296875
1205,160.02,2022-10-26 16:55:04.312500
1206,193.16,2022-10-26 16:55:04.328125
1207,225.04,2022-10-26 16:55:04.343750
1208,252.97,2022-10-26 16:55:04.359375
1209,274.92,2022-10-26 16:55:04.375000
1210,290.33,2022-10-26 16:55:04.390625
1211,300.01,2022-10-26 16:55:04.406250
1212,305.27,2022-10-26 16:55:04.421875
1213,306.67,2022-10-26 16:55:04.437500
1214,303.51,2022-10-26 16:55:04.453125
1215,294.05,2022-10-26 16:55:04.468750
1216,276.67,2022-10-26 16:55:04.484375
1217,250.99,2022-10-26 16:55:04.500000
1218,218.25,2022-10-26 16:55:04.515625
1219,180.72,2022-10-26 16:55:04.531250
1220,140.58,2022-10-26 16:55:04.546875
1221,98.96,2022-10-26 16:55:04.562500
1222,55.95,2022-10-26 16:55:04.578125
1223,11.39,2022-10-26 16:55:04.593750
1224,-34.32,2022-10-26 16:55:04.609375
1225,-79.84,2022-10-26 16:55:04.625000
1226,-123.27,2022-10-26 16:55:04.640625
1227,-162.86,2022-10-26 16:55:04.656250
1228,-197.4,2022-10-26 16:55:04.671875
1229,-226.07,2022-10-26 16:55:04.687500
1230,-248.02,2022-10-26 16:55:04.703125
1231,-262.1,2022-10-26 16:55:04.718750
1232,-267.25,2022-10-26 16:55:04.734375
1233,-263.25,2022-10-26 16:55:04.750000
1234,-251.35,2022-10-26 16:55:04.765625
1235,-234.38,2022-10-26 16:55:04.781250
1236,-215.94,2022-10-26 16:55:04.796875
1237,-199.31,2022-10-26 16:55:04.812500
1238,-186.4,2022-10-26 16:55:04.828125
1239,-177.43,2022-10-26 16:55:04.843750
1240,-171.37,2022-10-26 16:55:04.859375
1241,-166.81,2022-10-26 16:55:04.875000
1242,-162.68,2022-10-26 16:55:04.890625
1243,-158.62,2022-10-26 16:55:04.906250
1244,-154.79,2022-10-26 16:55:04.921875
1245,-151.55,2022-10-26 16:55:04.937500
1246,-149.03,2022-10-26 16:55:04.953125
1247,-147.06,2022-10-26 16:55:04.968750
1248,-145.11,2022-10-26 16:55:04.984375
1249,-142.59,2022-10-26 16:55:05.000000
1250,-138.96,2022-10-26 16:55:05.015625
1251,-133.81,2022-10-26 16:55:05.031250
1252,-126.78,2022-10-26 16:55:05.046875
1253,-117.59,2022-10-26 16:55:05.062500
1254,-106.02,2022-10-26 16:55:05.078125
1255,-92.06,2022-10-26 16:55:05.093750
1256,-76.05,2022-10-26 16:55:05.109375
1257,-58.66,2022-10-26 16:55:05.125000
1258,-40.83,2022-10-26 16:55:05.140625
1259,-23.55,2022-10-26 16:55:05.156250
1260,-7.72,2022-10-26 16:55:05.171875
1261,6.05,2022-10-26 16:55:05.187500
1262,17.35,2022-10-26 16:55:05.203125
1263,26.05,2022-10-26 16:55:05.218750
1264,32.23,2022-10-26 16:55:05.234375
1265,36.17,2022-10-26 16:55:05.250000
1266,38.28,2022-10-26 16:55:05.265625
1267,39.0,2022-10-26 16:55:05.281250
1268,38.8,2022-10-26 16:55:05.296875
1269,38.05,2022-10-26 16:55:05.312500
1270,37.04,2022-10-26 16:55:05.328125
1271,36.05,2022-10-26 16:55:05.343750
1272,35.44,2022-10-26 16:55:05.359375
1273,35.61,2022-10-26 16:55:05.375000
1274,36.95,2022-10-26 16:55:05.390625
1275,39.62,2022-10-26 16:55:05.406250
1276,43.51,2022-10-26 16:55:05.421875
1277,48.17,2022-10-26 16:55:05.437500
1278,52.98,2022-10-26 16:55:05.453125
1279,57.28,2022-10-26 16:55:05.468750
1280,60.6,2022-10-26 16:55:05.484375
1281,62.79,2022-10-26 16:55:05.500000
1282,64.01,2022-10-26 16:55:05.515625
1283,64.64,2022-10-26 16:55:05.531250
1284,65.08,2022-10-26 16:55:05.546875
1285,65.63,2022-10-26 16:55:05.562500
1286,66.37,2022-10-26 16:55:05.578125
1287,67.15,2022-10-26 16:55:05.593750
1288,67.76,2022-10-26 16:55:05.609375
1289,68.03,2022-10-26 16:55:05.625000
1290,67.94,2022-10-26 16:55:05.640625
1291,67.65,2022-10-26 16:55:05.656250
1292,67.51,2022-10-26 16:55:05.671875
1293,67.84,2022-10-26 16:55:05.687500
1294,68.87,2022-10-26 16:55:05.703125
1295,70.69,2022-10-26 16:55:05.718750
1296,73.26,2022-10-26 16:55:05.734375
1297,76.53,2022-10-26 16:55:05.750000
1298,80.45,2022-10-26 16:55:05.765625
1299,84.97,2022-10-26 16:55:05.781250
1300,89.98,2022-10-26 16:55:05.796875
1301,95.33,2022-10-26 16:55:05.812500
1302,100.83,2022-10-26 16:55:05.828125
1303,106.36,2022-10-26 16:55:05.843750
1304,111.87,2022-10-26 16:55:05.859375
1305,117.41,2022-10-26 16:55:05.875000
1306,123.02,2022-10-26 16:55:05.890625
1307,128.72,2022-10-26 16:55:05.906250
1308,134.52,2022-10-26 16:55:05.921875
1309,140.47,2022-10-26 16:55:05.937500
1310,146.8,2022-10-26 16:55:05.953125
1311,153.78,2022-10-26 16:55:05.968750
1312,161.64,2022-10-26 16:55:05.984375
1313,170.35,2022-10-26 16:55:06.000000
1314,179.5,2022-10-26 16:55:06.015625
1315,188.23,2022-10-26 16:55:06.031250
1316,195.41,2022-10-26 16:55:06.046875
1317,199.77,2022-10-26 16:55:06.062500
1318,200.24,2022-10-26 16:55:06.078125
1319,196.11,2022-10-26 16:55:06.093750
1320,187.18,2022-10-26 16:55:06.109375
1321,173.74,2022-10-26 16:55:06.125000
1322,156.47,2022-10-26 16:55:06.140625
1323,136.19,2022-10-26 16:55:06.156250
1324,113.65,2022-10-26 16:55:06.171875
1325,89.33,2022-10-26 16:55:06.187500
1326,63.39,2022-10-26 16:55:06.203125
1327,35.81,2022-10-26 16:55:06.218750
1328,6.8,2022-10-26 16:55:06.234375
1329,-22.98,2022-10-26 16:55:06.250000
1330,-52.31,2022-10-26 16:55:06.265625
1331,-79.63,2022-10-26 16:55:06.281250
1332,-103.59,2022-10-26 16:55:06.296875
1333,-123.43,2022-10-26 16:55:06.312500
1334,-139.27,2022-10-26 16:55:06.328125
1335,-151.98,2022-10-26 16:55:06.343750
1336,-162.76,2022-10-26 16:55:06.359375
1337,-172.73,2022-10-26 16:55:06.375000
1338,-182.67,2022-10-26 16:55:06.390625
1339,-192.94,2022-10-26 16:55:06.406250
1340,-203.39,2022-10-26 16:55:06.421875
1341,-213.29,2022-10-26 16:55:06.437500
1342,-221.19,2022-10-26 16:55:06.453125
1343,-225.01,2022-10-26 16:55:06.468750
1344,-222.57,2022-10-26 16:55:06.484375
1345,-212.31,2022-10-26 16:55:06.500000
1346,-194.05,2022-10-26 16:55:06.515625
1347,-169.2,2022-10-26 16:55:06.531250
1348,-140.42,2022-10-26 16:55:06.546875
1349,-110.81,2022-10-26 16:55:06.562500
1350,-83.12,2022-10-26 16:55:06.578125
1351,-59.26,2022-10-26 16:55:06.593750
1352,-40.29,2022-10-26 16:55:06.609375
1353,-26.61,2022-10-26 16:55:06.625000
1354,-18.23,2022-10-26 16:55:06.640625
1355,-14.83,2022-10-26 16:55:06.656250
1356,-15.71,2022-10-26 16:55:06.671875
1357,-19.82,2022-10-26 16:55:06.687500
1358,-25.81,2022-10-26 16:55:06.703125
1359,-32.36,2022-10-26 16:55:06.718750
1360,-38.44,2022-10-26 16:55:06.734375
1361,-43.4,2022-10-26 16:55:06.750000
1362,-47.04,2022-10-26 16:55:06.765625
1363,-49.5,2022-10-26 16:55:06.781250
1364,-51.15,2022-10-26 16:55:06.796875
1365,-52.39,2022-10-26 16:55:06.812500
1366,-53.54,2022-10-26 16:55:06.828125
1367,-54.59,2022-10-26 16:55:06.843750
1368,-55.2,2022-10-26 16:55:06.859375
1369,-54.78,2022-10-26 16:55:06.875000
1370,-52.73,2022-10-26 16:55:06.890625
1371,-48.77,2022-10-26 16:55:06.906250
1372,-42.98,2022-10-26 16:55:06.921875
1373,-35.83,2022-10-26 16:55:06.937500
1374,-27.97,2022-10-26 16:55:06.953125
1375,-19.97,2022-10-26 16:55:06.968750
1376,-12.24,2022-10-26 16:55:06.984375
1377,-4.95,2022-10-26 16:55:07.000000
1378,1.74,2022-10-26 16:55:07.015625
1379,7.68,2022-10-26 16:55:07.031250
1380,12.6,2022-10-26 16:55:07.046875
1381,16.27,2022-10-26 16:55:07.062500
1382,18.65,2022-10-26 16:55:07.078125
1383,20.06,2022-10-26 16:55:07.093750
1384,21.06,2022-10-26 16:55:07.109375
1385,22.33,2022-10-26 16:55:07.125000
1386,24.45,2022-10-26 16:55:07.140625
1387,27.58,2022-10-26 16:55:07.156250
1388,31.46,2022-10-26 16:55:07.171875
1389,35.48,2022-10-26 16:55:07.187500
1390,38.89,2022-10-26 16:55:07.203125
1391,41.19,2022-10-26 16:55:07.218750
1392,42.27,2022-10-26 16:55:07.234375
1393,42.48,2022-10-26 16:55:07.250000
1394,42.47,2022-10-26 16:55:07.265625
1395,42.97,2022-10-26 16:55:07.281250
1396,44.44,2022-10-26 16:55:07.296875
1397,47.05,2022-10-26 16:55:07.312500
1398,50.61,2022-10-26 16:55:07.328125
1399,54.74,2022-10-26 16:55:07.343750
1400,59.09,2022-10-26 16:55:07.359375
1401,63.45,2022-10-26 16:55:07.375000
1402,67.93,2022-10-26 16:55:07.390625
1403,72.89,2022-10-26 16:55:07.406250
1404,78.93,2022-10-26 16:55:07.421875
1405,86.62,2022-10-26 16:55:07.437500
1406,96.25,2022-10-26 16:55:07.453125
1407,107.58,2022-10-26 16:55:07.468750
1408,119.77,2022-10-26 16:55:07.484375
1409,131.47,2022-10-26 16:55:07.500000
1410,141.25,2022-10-26 16:55:07.515625
1411,148.04,2022-10-26 16:55:07.531250
1412,151.38,2022-10-26 16:55:07.546875
1413,151.46,2022-10-26 16:55:07.562500
1414,148.79,2022-10-26 16:55:07.578125
1415,143.87,2022-10-26 16:55:07.593750
1416,136.91,2022-10-26 16:55:07.609375
1417,127.95,2022-10-26 16:55:07.625000
1418,117.14,2022-10-26 16:55:07.640625
1419,104.91,2022-10-26 16:55:07.656250
1420,91.99,2022-10-26 16:55:07.671875
1421,79.08,2022-10-26 16:55:07.687500
1422,66.62,2022-10-26 16:55:07.703125
1423,54.7,2022-10-26 16:55:07.718750
1424,43.29,2022-10-26 16:55:07.734375
1425,32.62,2022-10-26 16:55:07.750000
1426,23.46,2022-10-26 16:55:07.765625
1427,16.94,2022-10-26 16:55:07.781250
1428,14.04,2022-10-26 16:55:07.796875
1429,15.03,2022-10-26 16:55:07.812500
1430,19.14,2022-10-26 16:55:07.828125
1431,24.77,2022-10-26 16:55:07.843750
1432,30.05,2022-10-26 16:55:07.859375
1433,33.42,2022-10-26 16:55:07.875000
1434,33.99,2022-10-26 16:55:07.890625
1435,31.47,2022-10-26 16:55:07.906250
1436,25.78,2022-10-26 16:55:07.921875
1437,16.68,2022-10-26 16:55:07.937500
1438,3.78,2022-10-26 16:55:07.953125
1439,-13.18,2022-10-26 16:55:07.968750
1440,-33.8,2022-10-26 16:55:07.984375
1441,-56.64,2022-10-26 16:55:08.000000
1442,-79.42,2022-10-26 16:55:08.015625
1443,-99.5,2022-10-26 16:55:08.031250
1444,-114.72,2022-10-26 16:55:08.046875
1445,-123.99,2022-10-26 16:55:08.062500
1446,-127.41,2022-10-26 16:55:08.078125
1447,-126.0,2022-10-26 16:55:08.093750
1448,-121.18,2022-10-26 16:55:08.109375
1449,-114.32,2022-10-26 16:55:08.125000
1450,-106.57,2022-10-26 16:55:08.140625
1451,-98.84,2022-10-26 16:55:08.156250
1452,-91.82,2022-10-26 16:55:08.171875
1453,-85.91,2022-10-26 16:55:08.187500
1454,-81.03,2022-10-26 16:55:08.203125
1455,-76.62,2022-10-26 16:55:08.218750
1456,-71.83,2022-10-26 16:55:08.234375
1457,-65.95,2022-10-26 16:55:08.250000
1458,-58.74,2022-10-26 16:55:08.265625
1459,-50.62,2022-10-26 16:55:08.281250
1460,-42.41,2022-10-26 16:55:08.296875
1461,-34.99,2022-10-26 16:55:08.312500
1462,-28.91,2022-10-26 16:55:08.328125
1463,-24.33,2022-10-26 16:55:08.343750
1464,-21.15,2022-10-26 16:55:08.359375
1465,-19.27,2022-10-26 16:55:08.375000
1466,-18.74,2022-10-26 16:55:08.390625
1467,-19.72,2022-10-26 16:55:08.406250
1468,-22.28,2022-10-26 16:55:08.421875
1469,-26.21,2022-10-26 16:55:08.437500
1470,-31.05,2022-10-26 16:55:08.453125
1471,-36.26,2022-10-26 16:55:08.468750
1472,-41.52,2022-10-26 16:55:08.484375
1473,-46.9,2022-10-26 16:55:08.500000
1474,-52.8,2022-10-26 16:55:08.515625
1475,-59.73,2022-10-26 16:55:08.531250
1476,-68.04,2022-10-26 16:55:08.546875
1477,-77.72,2022-10-26 16:55:08.562500
1478,-88.34,2022-10-26 16:55:08.578125
1479,-99.36,2022-10-26 16:55:08.593750
1480,-110.34,2022-10-26 16:55:08.609375
1481,-121.19,2022-10-26 16:55:08.625000
1482,-132.01,2022-10-26 16:55:08.640625
1483,-142.85,2022-10-26 16:55:08.656250
1484,-153.39,2022-10-26 16:55:08.671875
1485,-162.86,2022-10-26 16:55:08.687500
1486,-170.17,2022-10-26 16:55:08.703125
1487,-174.4,2022-10-26 16:55:08.718750
1488,-175.1,2022-10-26 16:55:08.734375
1489,-172.32,2022-10-26 16:55:08.750000
1490,-166.37,2022-10-26 16:55:08.765625
1491,-157.32,2022-10-26 16:55:08.781250
1492,-144.8,2022-10-26 16:55:08.796875
1493,-128.16,2022-10-26 16:55:08.812500
1494,-107.18,2022-10-26 16:55:08.828125
1495,-82.55,2022-10-26 16:55:08.843750
1496,-55.97,2022-10-26 16:55:08.859375
1497,-29.74,2022-10-26 16:55:08.875000
1498,-5.77,2022-10-26 16:55:08.890625
1499,15.02,2022-10-26 16:55:08.906250
1500,33.02,2022-10-26 16:55:08.921875
1501,49.46,2022-10-26 16:55:08.937500
1502,65.61,2022-10-26 16:55:08.953125
1503,82.08,2022-10-26 16:55:08.968750
1504,98.54,2022-10-26 16:55:08.984375
1505,113.88,2022-10-26 16:55:09.000000
1506,126.77,2022-10-26 16:55:09.015625
1507,136.16,2022-10-26 16:55:09.031250
1508,141.73,2022-10-26 16:55:09.046875
1509,143.95,2022-10-26 16:55:09.062500
1510,143.95,2022-10-26 16:55:09.078125
1511,142.92,2022-10-26 16:55:09.093750
1512,141.55,2022-10-26 16:55:09.109375
1513,139.56,2022-10-26 16:55:09.125000
1514,135.81,2022-10-26 16:55:09.140625
1515,128.91,2022-10-26 16:55:09.156250
1516,118.12,2022-10-26 16:55:09.171875
1517,104.18,2022-10-26 16:55:09.187500
1518,89.44,2022-10-26 16:55:09.203125
1519,77.18,2022-10-26 16:55:09.218750
1520,70.36,2022-10-26 16:55:09.234375
1521,70.48,2022-10-26 16:55:09.250000
1522,76.99,2022-10-26 16:55:09.265625
1523,87.67,2022-10-26 16:55:09.281250
1524,99.59,2022-10-26 16:55:09.296875
1525,110.38,2022-10-26 16:55:09.312500
1526,118.89,2022-10-26 16:55:09.328125
1527,125.3,2022-10-26 16:55:09.343750
1528,130.55,2022-10-26 16:55:09.359375
1529,135.55,2022-10-26 16:55:09.375000
1530,140.63,2022-10-26 16:55:09.390625
1531,145.26,2022-10-26 16:55:09.406250
1532,148.02,2022-10-26 16:55:09.421875
1533,146.8,2022-10-26 16:55:09.437500
1534,139.2,2022-10-26 16:55:09.453125
1535,123.0,2022-10-26 16:55:09.468750
1536,97.07,2022-10-26 16:55:09.484375
1537,62.07,2022-10-26 16:55:09.500000
1538,20.98,2022-10-26 16:55:09.515625
1539,-21.21,2022-10-26 16:55:09.531250
1540,-58.78,2022-10-26 16:55:09.546875
1541,-87.1,2022-10-26 16:55:09.562500
1542,-104.23,2022-10-26 16:55:09.578125
1543,-111.31,2022-10-26 16:55:09.593750
1544,-111.63,2022-10-26 16:55:09.609375
1545,-108.74,2022-10-26 16:55:09.625000
1546,-104.66,2022-10-26 16:55:09.640625
1547,-99.19,2022-10-26 16:55:09.656250
1548,-90.56,2022-10-26 16:55:09.671875
1549,-76.86,2022-10-26 16:55:09.687500
1550,-57.42,2022-10-26 16:55:09.703125
1551,-33.35,2022-10-26 16:55:09.718750
1552,-7.01,2022-10-26 16:55:09.734375
1553,18.94,2022-10-26 16:55:09.750000
1554,42.68,2022-10-26 16:55:09.765625
1555,63.7,2022-10-26 16:55:09.781250
1556,82.77,2022-10-26 16:55:09.796875
1557,101.36,2022-10-26 16:55:09.812500
1558,121.07,2022-10-26 16:55:09.828125
1559,143.07,2022-10-26 16:55:09.843750
1560,167.78,2022-10-26 16:55:09.859375
1561,194.84,2022-10-26 16:55:09.875000
1562,223.06,2022-10-26 16:55:09.890625
1563,250.68,2022-10-26 16:55:09.906250
1564,275.49,2022-10-26 16:55:09.921875
1565,295.03,2022-10-26 16:55:09.937500
1566,306.85,2022-10-26 16:55:09.953125
1567,308.87,2022-10-26 16:55:09.968750
1568,299.95,2022-10-26 16:55:09.984375
1569,280.36,2022-10-26 16:55:10.000000
1570,252.05,2022-10-26 16:55:10.015625
1571,218.2,2022-10-26 16:55:10.031250
1572,182.46,2022-10-26 16:55:10.046875
1573,147.83,2022-10-26 16:55:10.062500
1574,115.91,2022-10-26 16:55:10.078125
1575,86.78,2022-10-26 16:55:10.093750
1576,59.38,2022-10-26 16:55:10.109375
1577,32.31,2022-10-26 16:55:10.125000
1578,4.36,2022-10-26 16:55:10.140625
1579,-25.07,2022-10-26 16:55:10.156250
1580,-56.09,2022-10-26 16:55:10.171875
1581,-88.43,2022-10-26 16:55:10.187500
1582,-121.67,2022-10-26 16:55:10.203125
1583,-155.31,2022-10-26 16:55:10.218750
1584,-188.86,2022-10-26 16:55:10.234375
1585,-221.84,2022-10-26 16:55:10.250000
1586,-253.93,2022-10-26 16:55:10.265625
1587,-285.18,2022-10-26 16:55:10.281250
1588,-316.04,2022-10-26 16:55:10.296875
1589,-347.12,2022-10-26 16:55:10.312500
1590,-378.45,2022-10-26 16:55:10.328125
1591,-408.86,2022-10-26 16:55:10.343750
1592,-435.56,2022-10-26 16:55:10.359375
1593,-454.61,2022-10-26 16:55:10.375000
1594,-462.08,2022-10-26 16:55:10.390625
1595,-455.31,2022-10-26 16:55:10.406250
1596,-433.83,2022-10-26 16:55:10.421875
1597,-399.35,2022-10-26 16:55:10.437500
1598,-355.15,2022-10-26 16:55:10.453125
1599,-305.18,2022-10-26 16:55:10.468750
1600,-253.41,2022-10-26 16:55:10.484375
1601,-203.51,2022-10-26 16:55:10.500000
1602,-158.77,2022-10-26 16:55:10.515625
1603,-121.77,2022-10-26 16:55:10.531250
1604,-93.94,2022-10-26 16:55:10.546875
1605,-75.29,2022-10-26 16:55:10.562500
1606,-64.58,2022-10-26 16:55:10.578125
1607,-59.95,2022-10-26 16:55:10.593750
1608,-59.72,2022-10-26 16:55:10.609375
1609,-62.67,2022-10-26 16:55:10.625000
1610,-67.67,2022-10-26 16:55:10.640625
1611,-72.93,2022-10-26 16:55:10.656250
1612,-75.65,2022-10-26 16:55:10.671875
1613,-72.35,2022-10-26 16:55:10.687500
1614,-60.09,2022-10-26 16:55:10.703125
1615,-37.8,2022-10-26 16:55:10.718750
1616,-7.21,2022-10-26 16:55:10.734375
1617,27.38,2022-10-26 16:55:10.750000
1618,60.34,2022-10-26 16:55:10.765625
1619,86.43,2022-10-26 16:55:10.781250
1620,102.27,2022-10-26 16:55:10.796875
1621,107.11,2022-10-26 16:55:10.812500
1622,102.61,2022-10-26 16:55:10.828125
1623,91.7,2022-10-26 16:55:10.843750
1624,77.4,2022-10-26 16:55:10.859375
1625,61.69,2022-10-26 16:55:10.875000
1626,45.14,2022-10-26 16:55:10.890625
1627,27.23,2022-10-26 16:55:10.906250
1628,7.27,2022-10-26 16:55:10.921875
1629,-14.79,2022-10-26 16:55:10.937500
1630,-37.96,2022-10-26 16:55:10.953125
1631,-60.5,2022-10-26 16:55:10.968750
1632,-80.66,2022-10-26 16:55:10.984375
1633,-97.37,2022-10-26 16:55:11.000000
1634,-110.55,2022-10-26 16:55:11.015625
1635,-120.8,2022-10-26 16:55:11.031250
1636,-128.86,2022-10-26 16:55:11.046875
1637,-135.02,2022-10-26 16:55:11.062500
1638,-139.02,2022-10-26 16:55:11.078125
1639,-140.29,2022-10-26 16:55:11.093750
1640,-138.61,2022-10-26 16:55:11.109375
1641,-134.53,2022-10-26 16:55:11.125000
1642,-129.42,2022-10-26 16:55:11.140625
1643,-124.99,2022-10-26 16:55:11.156250
1644,-122.51,2022-10-26 16:55:11.171875
1645,-122.23,2022-10-26 16:55:11.187500
1646,-123.19,2022-10-26 16:55:11.203125
1647,-123.59,2022-10-26 16:55:11.218750
1648,-121.51,2022-10-26 16:55:11.234375
1649,-115.79,2022-10-26 16:55:11.250000
1650,-106.43,2022-10-26 16:55:11.265625
1651,-94.53,2022-10-26 16:55:11.281250
1652,-81.8,2022-10-26 16:55:11.296875
1653,-69.82,2022-10-26 16:55:11.312500
1654,-59.6,2022-10-26 16:55:11.328125
1655,-51.39,2022-10-26 16:55:11.343750
1656,-45.01,2022-10-26 16:55:11.359375
1657,-40.11,2022-10-26 16:55:11.375000
1658,-36.6,2022-10-26 16:55:11.390625
1659,-34.61,2022-10-26 16:55:11.406250
1660,-34.41,2022-10-26 16:55:11.421875
1661,-36.18,2022-10-26 16:55:11.437500
1662,-39.83,2022-10-26 16:55:11.453125
1663,-45.05,2022-10-26 16:55:11.468750
1664,-51.24,2022-10-26 16:55:11.484375
1665,-57.73,2022-10-26 16:55:11.500000
1666,-63.81,2022-10-26 16:55:11.515625
1667,-68.84,2022-10-26 16:55:11.531250
1668,-72.31,2022-10-26 16:55:11.546875
1669,-73.92,2022-10-26 16:55:11.562500
1670,-73.66,2022-10-26 16:55:11.578125
1671,-71.8,2022-10-26 16:55:11.593750
1672,-68.91,2022-10-26 16:55:11.609375
1673,-65.65,2022-10-26 16:55:11.625000
1674,-62.67,2022-10-26 16:55:11.640625
1675,-60.38,2022-10-26 16:55:11.656250
1676,-58.98,2022-10-26 16:55:11.671875
1677,-58.37,2022-10-26 16:55:11.687500
1678,-58.49,2022-10-26 16:55:11.703125
1679,-59.49,2022-10-26 16:55:11.718750
1680,-61.75,2022-10-26 16:55:11.734375
1681,-65.8,2022-10-26 16:55:11.750000
1682,-71.97,2022-10-26 16:55:11.765625
1683,-80.09,2022-10-26 16:55:11.781250
1684,-89.29,2022-10-26 16:55:11.796875
1685,-98.23,2022-10-26 16:55:11.812500
1686,-105.26,2022-10-26 16:55:11.828125
1687,-108.77,2022-10-26 16:55:11.843750
1688,-107.43,2022-10-26 16:55:11.859375
1689,-100.38,2022-10-26 16:55:11.875000
1690,-87.48,2022-10-26 16:55:11.890625
1691,-69.46,2022-10-26 16:55:11.906250
1692,-48.1,2022-10-26 16:55:11.921875
1693,-25.79,2022-10-26 16:55:11.937500
1694,-5.0,2022-10-26 16:55:11.953125
1695,12.53,2022-10-26 16:55:11.968750
1696,26.26,2022-10-26 16:55:11.984375
1697,36.78,2022-10-26 16:55:12.000000
1698,45.18,2022-10-26 16:55:12.015625
1699,52.33,2022-10-26 16:55:12.031250
1700,58.42,2022-10-26 16:55:12.046875
1701,63.13,2022-10-26 16:55:12.062500
1702,66.28,2022-10-26 16:55:12.078125
1703,68.33,2022-10-26 16:55:12.093750
1704,70.45,2022-10-26 16:55:12.109375
1705,74.1,2022-10-26 16:55:12.125000
1706,80.24,2022-10-26 16:55:12.140625
1707,88.88,2022-10-26 16:55:12.156250
1708,99.12,2022-10-26 16:55:12.171875
1709,109.58,2022-10-26 16:55:12.187500
1710,119.02,2022-10-26 16:55:12.203125
1711,126.68,2022-10-26 16:55:12.218750
1712,132.28,2022-10-26 16:55:12.234375
1713,135.76,2022-10-26 16:55:12.250000
1714,137.01,2022-10-26 16:55:12.265625
1715,135.87,2022-10-26 16:55:12.281250
1716,132.26,2022-10-26 16:55:12.296875
1717,126.39,2022-10-26 16:55:12.312500
1718,118.87,2022-10-26 16:55:12.328125
1719,110.66,2022-10-26 16:55:12.343750
1720,102.85,2022-10-26 16:55:12.359375
1721,96.48,2022-10-26 16:55:12.375000
1722,92.27,2022-10-26 16:55:12.390625
1723,90.52,2022-10-26 16:55:12.406250
1724,91.04,2022-10-26 16:55:12.421875
1725,93.21,2022-10-26 16:55:12.437500
1726,96.12,2022-10-26 16:55:12.453125
1727,98.84,2022-10-26 16:55:12.468750
1728,100.66,2022-10-26 16:55:12.484375
1729,101.25,2022-10-26 16:55:12.500000
1730,100.63,2022-10-26 16:55:12.515625
1731,99.09,2022-10-26 16:55:12.531250
1732,96.94,2022-10-26 16:55:12.546875
1733,94.4,2022-10-26 16:55:12.562500
1734,91.58,2022-10-26 16:55:12.578125
1735,88.5,2022-10-26 16:55:12.593750
1736,85.15,2022-10-26 16:55:12.609375
1737,81.52,2022-10-26 16:55:12.625000
1738,77.59,2022-10-26 16:55:12.640625
1739,73.27,2022-10-26 16:55:12.656250
1740,68.49,2022-10-26 16:55:12.671875
1741,63.18,2022-10-26 16:55:12.687500
1742,57.45,2022-10-26 16:55:12.703125
1743,51.47,2022-10-26 16:55:12.718750
1744,45.5,2022-10-26 16:55:12.734375
1745,39.73,2022-10-26 16:55:12.750000
1746,34.2,2022-10-26 16:55:12.765625
1747,28.84,2022-10-26 16:55:12.781250
1748,23.43,2022-10-26 16:55:12.796875
1749,17.77,2022-10-26 16:55:12.812500
1750,11.77,2022-10-26 16:55:12.828125
1751,5.5,2022-10-26 16:55:12.843750
1752,-0.66,2022-10-26 16:55:12.859375
1753,-6.05,2022-10-26 16:55:12.875000
1754,-9.84,2022-10-26 16:55:12.890625
1755,-11.24,2022-10-26 16:55:12.906250
1756,-9.69,2022-10-26 16:55:12.921875
1757,-5.06,2022-10-26 16:55:12.937500
1758,2.39,2022-10-26 16:55:12.953125
1759,12.06,2022-10-26 16:55:12.968750
1760,23.25,2022-10-26 16:55:12.984375
1761,35.15,2022-10-26 16:55:13.000000
1762,46.97,2022-10-26 16:55:13.015625
1763,57.94,2022-10-26 16:55:13.031250
1764,67.36,2022-10-26 16:55:13.046875
1765,74.7,2022-10-26 16:55:13.062500
1766,79.76,2022-10-26 16:55:13.078125
1767,82.7,2022-10-26 16:55:13.093750
1768,83.96,2022-10-26 16:55:13.109375
1769,84.19,2022-10-26 16:55:13.125000
1770,84.0,2022-10-26 16:55:13.140625
1771,83.85,2022-10-26 16:55:13.156250
1772,83.97,2022-10-26 16:55:13.171875
1773,84.43,2022-10-26 16:55:13.187500
1774,85.22,2022-10-26 16:55:13.203125
1775,86.43,2022-10-26 16:55:13.218750
1776,88.23,2022-10-26 16:55:13.234375
1777,90.96,2022-10-26 16:55:13.250000
1778,95.04,2022-10-26 16:55:13.265625
1779,100.81,2022-10-26 16:55:13.281250
1780,108.39,2022-10-26 16:55:13.296875
1781,117.62,2022-10-26 16:55:13.312500
1782,128.06,2022-10-26 16:55:13.328125
1783,139.14,2022-10-26 16:55:13.343750
1784,150.26,2022-10-26 16:55:13.359375
1785,161.09,2022-10-26 16:55:13.375000
1786,171.68,2022-10-26 16:55:13.390625
1787,182.6,2022-10-26 16:55:13.406250
1788,194.86,2022-10-26 16:55:13.421875
1789,209.57,2022-10-26 16:55:13.437500
1790,227.48,2022-10-26 16:55:13.453125
1791,248.46,2022-10-26 16:55:13.468750
1792,271.21,2022-10-26 16:55:13.484375
1793,293.36,2022-10-26 16:55:13.500000
1794,311.98,2022-10-26 16:55:13.515625
1795,324.32,2022-10-26 16:55:13.531250
1796,328.54,2022-10-26 16:55:13.546875
1797,324.02,2022-10-26 16:55:13.562500
1798,311.39,2022-10-26 16:55:13.578125
1799,292.1,2022-10-26 16:55:13.593750
1800,267.94,2022-10-26 16:55:13.609375
1801,240.61,2022-10-26 16:55:13.625000
1802,211.46,2022-10-26 16:55:13.640625
1803,181.41,2022-10-26 16:55:13.656250
1804,151.04,2022-10-26 16:55:13.671875
1805,120.78,2022-10-26 16:55:13.687500
1806,91.04,2022-10-26 16:55:13.703125
1807,62.35,2022-10-26 16:55:13.718750
1808,35.31,2022-10-26 16:55:13.734375
1809,10.55,2022-10-26 16:55:13.750000
1810,-11.45,2022-10-26 16:55:13.765625
1811,-30.35,2022-10-26 16:55:13.781250
1812,-46.04,2022-10-26 16:55:13.796875
1813,-58.58,2022-10-26 16:55:13.812500
1814,-68.17,2022-10-26 16:55:13.828125
1815,-75.24,2022-10-26 16:55:13.843750
1816,-80.37,2022-10-26 16:55:13.859375
1817,-84.3,2022-10-26 16:55:13.875000
1818,-87.79,2022-10-26 16:55:13.890625
1819,-91.42,2022-10-26 16:55:13.906250
1820,-95.52,2022-10-26 16:55:13.921875
1821,-100.13,2022-10-26 16:55:13.937500
1822,-105.18,2022-10-26 16:55:13.953125
1823,-110.57,2022-10-26 16:55:13.968750
1824,-116.28,2022-10-26 16:55:13.984375
1825,-122.23,2022-10-26 16:55:14.000000
1826,-128.09,2022-10-26 16:55:14.015625
1827,-133.14,2022-10-26 16:55:14.031250
1828,-136.37,2022-10-26 16:55:14.046875
1829,-136.75,2022-10-26 16:55:14.062500
1830,-133.67,2022-10-26 16:55:14.078125
1831,-127.26,2022-10-26 16:55:14.093750
1832,-118.45,2022-10-26 16:55:14.109375
1833,-108.73,2022-10-26 16:55:14.125000
1834,-99.64,2022-10-26 16:55:14.140625
1835,-92.27,2022-10-26 16:55:14.156250
1836,-86.95,2022-10-26 16:55:14.171875
1837,-83.25,2022-10-26 16:55:14.187500
1838,-80.3,2022-10-26 16:55:14.203125
1839,-77.14,2022-10-26 16:55:14.218750
1840,-73.13,2022-10-26 16:55:14.234375
1841,-68.04,2022-10-26 16:55:14.250000
1842,-62.04,2022-10-26 16:55:14.265625
1843,-55.51,2022-10-26 16:55:14.281250
1844,-48.89,2022-10-26 16:55:14.296875
1845,-42.58,2022-10-26 16:55:14.312500
1846,-36.98,2022-10-26 16:55:14.328125
1847,-32.52,2022-10-26 16:55:14.343750
1848,-29.63,2022-10-26 16:55:14.359375
1849,-28.63,2022-10-26 16:55:14.375000
1850,-29.54,2022-10-26 16:55:14.390625
1851,-32.0,2022-10-26 16:55:14.406250
1852,-35.29,2022-10-26 16:55:14.421875
1853,-38.57,2022-10-26 16:55:14.437500
1854,-41.16,2022-10-26 16:55:14.453125
1855,-42.69,2022-10-26 16:55:14.468750
1856,-43.08,2022-10-26 16:55:14.484375
1857,-42.41,2022-10-26 16:55:14.500000
1858,-40.6,2022-10-26 16:55:14.515625
1859,-37.35,2022-10-26 16:55:14.531250
1860,-32.22,2022-10-26 16:55:14.546875
1861,-24.98,2022-10-26 16:55:14.562500
1862,-15.85,2022-10-26 16:55:14.578125
1863,-5.61,2022-10-26 16:55:14.593750
1864,4.53,2022-10-26 16:55:14.609375
1865,13.3,2022-10-26 16:55:14.625000
1866,19.66,2022-10-26 16:55:14.640625
1867,23.0,2022-10-26 16:55:14.656250
1868,23.18,2022-10-26 16:55:14.671875
1869,20.37,2022-10-26 16:55:14.687500
1870,15.04,2022-10-26 16:55:14.703125
1871,7.78,2022-10-26 16:55:14.718750
1872,-0.68,2022-10-26 16:55:14.734375
1873,-9.57,2022-10-26 16:55:14.750000
1874,-18.1,2022-10-26 16:55:14.765625
1875,-25.61,2022-10-26 16:55:14.781250
1876,-31.6,2022-10-26 16:55:14.796875
1877,-35.75,2022-10-26 16:55:14.812500
1878,-38.04,2022-10-26 16:55:14.828125
1879,-38.68,2022-10-26 16:55:14.843750
1880,-38.09,2022-10-26 16:55:14.859375
1881,-36.79,2022-10-26 16:55:14.875000
1882,-35.24,2022-10-26 16:55:14.890625
1883,-33.71,2022-10-26 16:55:14.906250
1884,-32.21,2022-10-26 16:55:14.921875
1885,-30.61,2022-10-26 16:55:14.937500
1886,-28.8,2022-10-26 16:55:14.953125
1887,-26.79,2022-10-26 16:55:14.968750
1888,-24.79,2022-10-26 16:55:14.984375
1889,-23.11,2022-10-26 16:55:15.000000
1890,-22.01,2022-10-26 16:55:15.015625
1891,-21.6,2022-10-26 16:55:15.031250
1892,-21.83,2022-10-26 16:55:15.046875
1893,-22.6,2022-10-26 16:55:15.062500
1894,-23.77,2022-10-26 16:55:15.078125
1895,-25.28,2022-10-26 16:55:15.093750
1896,-27.02,2022-10-26 16:55:15.109375
1897,-28.85,2022-10-26 16:55:15.125000
1898,-30.54,2022-10-26 16:55:15.140625
1899,-31.88,2022-10-26 16:55:15.156250
1900,-32.73,2022-10-26 16:55:15.171875
1901,-33.16,2022-10-26 16:55:15.187500
1902,-33.33,2022-10-26 16:55:15.203125
1903,-33.56,2022-10-26 16:55:15.218750
1904,-34.21,2022-10-26 16:55:15.234375
1905,-35.65,2022-10-26 16:55:15.250000
1906,-38.25,2022-10-26 16:55:15.265625
1907,-42.26,2022-10-26 16:55:15.281250
1908,-47.65,2022-10-26 16:55:15.296875
1909,-53.91,2022-10-26 16:55:15.312500
1910,-60.02,2022-10-26 16:55:15.328125
1911,-64.65,2022-10-26 16:55:15.343750
1912,-66.49,2022-10-26 16:55:15.359375
1913,-64.76,2022-10-26 16:55:15.375000
1914,-59.39,2022-10-26 16:55:15.390625
1915,-51.04,2022-10-26 16:55:15.406250
1916,-40.77,2022-10-26 16:55:15.421875
1917,-29.65,2022-10-26 16:55:15.437500
1918,-18.5,2022-10-26 16:55:15.453125
1919,-7.8,2022-10-26 16:55:15.468750
1920,2.15,2022-10-26 16:55:15.484375
1921,11.07,2022-10-26 16:55:15.500000
1922,18.64,2022-10-26 16:55:15.515625
1923,24.52,2022-10-26 16:55:15.531250
1924,28.49,2022-10-26 16:55:15.546875
1925,30.59,2022-10-26 16:55:15.562500
1926,31.11,2022-10-26 16:55:15.578125
1927,30.55,2022-10-26 16:55:15.593750
1928,29.5,2022-10-26 16:55:15.609375
1929,28.49,2022-10-26 16:55:15.625000
1930,27.96,2022-10-26 16:55:15.640625
1931,28.17,2022-10-26 16:55:15.656250
1932,29.2,2022-10-26 16:55:15.671875
1933,31.06,2022-10-26 16:55:15.687500
1934,33.68,2022-10-26 16:55:15.703125
1935,37.03,2022-10-26 16:55:15.718750
1936,41.18,2022-10-26 16:55:15.734375
1937,46.24,2022-10-26 16:55:15.750000
1938,52.27,2022-10-26 16:55:15.765625
1939,59.08,2022-10-26 16:55:15.781250
1940,66.08,2022-10-26 16:55:15.796875
1941,72.25,2022-10-26 16:55:15.812500
1942,76.39,2022-10-26 16:55:15.828125
1943,77.48,2022-10-26 16:55:15.843750
1944,75.19,2022-10-26 16:55:15.859375
1945,70.02,2022-10-26 16:55:15.875000
1946,63.3,2022-10-26 16:55:15.890625
1947,56.69,2022-10-26 16:55:15.906250
1948,51.59,2022-10-26 16:55:15.921875
1949,48.63,2022-10-26 16:55:15.937500
1950,47.44,2022-10-26 16:55:15.953125
1951,46.97,2022-10-26 16:55:15.968750
1952,46.0,2022-10-26 16:55:15.984375
1953,43.73,2022-10-26 16:55:16.000000
1954,40.2,2022-10-26 16:55:16.015625
1955,36.29,2022-10-26 16:55:16.031250
1956,33.29,2022-10-26 16:55:16.046875
1957,32.32,2022-10-26 16:55:16.062500
1958,33.74,2022-10-26 16:55:16.078125
1959,36.79,2022-10-26 16:55:16.093750
1960,39.78,2022-10-26 16:55:16.109375
1961,40.78,2022-10-26 16:55:16.125000
1962,38.51,2022-10-26 16:55:16.140625
1963,33.19,2022-10-26 16:55:16.156250
1964,26.97,2022-10-26 16:55:16.171875
1965,23.63,2022-10-26 16:55:16.187500
1966,27.72,2022-10-26 16:55:16.203125
1967,43.1,2022-10-26 16:55:16.218750
1968,71.34,2022-10-26 16:55:16.234375
1969,110.59,2022-10-26 16:55:16.250000
1970,155.35,2022-10-26 16:55:16.265625
1971,197.68,2022-10-26 16:55:16.281250
1972,229.37,2022-10-26 16:55:16.296875
1973,244.49,2022-10-26 16:55:16.312500
1974,241.03,2022-10-26 16:55:16.328125
1975,221.07,2022-10-26 16:55:16.343750
1976,189.42,2022-10-26 16:55:16.359375
1977,151.3,2022-10-26 16:55:16.375000
1978,110.42,2022-10-26 16:55:16.390625
1979,68.12,2022-10-26 16:55:16.406250
1980,23.73,2022-10-26 16:55:16.421875
1981,-24.53,2022-10-26 16:55:16.437500
1982,-78.48,2022-10-26 16:55:16.453125
1983,-139.04,2022-10-26 16:55:16.468750
1984,-205.32,2022-10-26 16:55:16.484375
1985,-273.83,2022-10-26 16:55:16.500000
1986,-338.45,2022-10-26 16:55:16.515625
1987,-391.36,2022-10-26 16:55:16.531250
1988,-425.31,2022-10-26 16:55:16.546875
1989,-436.19,2022-10-26 16:55:16.562500
1990,-424.7,2022-10-26 16:55:16.578125
1991,-396.06,2022-10-26 16:55:16.593750
1992,-357.91,2022-10-26 16:55:16.609375
1993,-317.4,2022-10-26 16:55:16.625000
1994,-279.08,2022-10-26 16:55:16.640625
1995,-244.6,2022-10-26 16:55:16.656250
1996,-213.77,2022-10-26 16:55:16.671875
1997,-186.11,2022-10-26 16:55:16.687500
1998,-161.75,2022-10-26 16:55:16.703125
1999,-141.11,2022-10-26 16:55:16.718750
2000,-124.1,2022-10-26 16:55:16.734375
2001,-109.6,2022-10-26 16:55:16.750000
2002,-95.71,2022-10-26 16:55:16.765625
2003,-80.8,2022-10-26 16:55:16.781250
2004,-64.41,2022-10-26 16:55:16.796875
2005,-47.57,2022-10-26 16:55:16.812500
2006,-32.26,2022-10-26 16:55:16.828125
2007,-20.48,2022-10-26 16:55:16.843750
2008,-13.17,2022-10-26 16:55:16.859375
2009,-9.81,2022-10-26 16:55:16.875000
2010,-8.6,2022-10-26 16:55:16.890625
2011,-7.28,2022-10-26 16:55:16.906250
2012,-4.08,2022-10-26 16:55:16.921875
2013,1.6,2022-10-26 16:55:16.937500
2014,9.05,2022-10-26 16:55:16.953125
2015,16.72,2022-10-26 16:55:16.968750
2016,22.97,2022-10-26 16:55:16.984375
2017,26.78,2022-10-26 16:55:17.000000
2018,28.09,2022-10-26 16:55:17.015625
2019,27.66,2022-10-26 16:55:17.031250
2020,26.72,2022-10-26 16:55:17.046875
2021,26.44,2022-10-26 16:55:17.062500
2022,27.72,2022-10-26 16:55:17.078125
2023,31.08,2022-10-26 16:55:17.093750
2024,36.75,2022-10-26 16:55:17.109375
2025,44.78,2022-10-26 16:55:17.125000
2026,55.05,2022-10-26 16:55:17.140625
2027,67.19,2022-10-26 16:55:17.156250
2028,80.62,2022-10-26 16:55:17.171875
2029,94.59,2022-10-26 16:55:17.187500
2030,108.29,2022-10-26 16:55:17.203125
2031,121.07,2022-10-26 16:55:17.218750
2032,132.54,2022-10-26 16:55:17.234375
2033,142.61,2022-10-26 16:55:17.250000
2034,151.54,2022-10-26 16:55:17.265625
2035,159.72,2022-10-26 16:55:17.281250
2036,167.64,2022-10-26 16:55:17.296875
2037,175.72,2022-10-26 16:55:17.312500
2038,184.34,2022-10-26 16:55:17.328125
2039,193.91,2022-10-26 16:55:17.343750
2040,204.92,2022-10-26 16:55:17.359375
2041,217.82,2022-10-26 16:55:17.375000
2042,232.69,2022-10-26 16:55:17.390625
2043,249.02,2022-10-26 16:55:17.406250
2044,265.65,2022-10-26 16:55:17.421875
2045,281.11,2022-10-26 16:55:17.437500
2046,294.17,2022-10-26 16:55:17.453125
2047,304.26,2022-10-26 16:55:17.468750
2048,311.49,2022-10-26 16:55:17.484375
2049,316.09,2022-10-26 16:55:17.500000
2050,317.96,2022-10-26 16:55:17.515625
2051,316.37,2022-10-26 16:55:17.531250
2052,310.41,2022-10-26 16:55:17.546875
2053,299.77,2022-10-26 16:55:17.562500
2054,285.36,2022-10-26 16:55:17.578125
2055,269.22,2022-10-26 16:55:17.593750
2056,253.76,2022-10-26 16:55:17.609375
2057,240.67,2022-10-26 16:55:17.625000
2058,230.18,2022-10-26 16:55:17.640625
2059,221.04,2022-10-26 16:55:17.656250
2060,211.27,2022-10-26 16:55:17.671875
2061,198.95,2022-10-26 16:55:17.687500
2062,183.05,2022-10-26 16:55:17.703125
2063,163.51,2022-10-26 16:55:17.718750
2064,140.96,2022-10-26 16:55:17.734375
2065,116.3,2022-10-26 16:55:17.750000
2066,90.4,2022-10-26 16:55:17.765625
2067,64.0,2022-10-26 16:55:17.781250
2068,37.83,2022-10-26 16:55:17.796875
2069,12.74,2022-10-26 16:55:17.812500
2070,-10.37,2022-10-26 16:55:17.828125
2071,-30.77,2022-10-26 16:55:17.843750
2072,-48.14,2022-10-26 16:55:17.859375
2073,-62.76,2022-10-26 16:55:17.875000
2074,-75.49,2022-10-26 16:55:17.890625
2075,-87.54,2022-10-26 16:55:17.906250
2076,-99.97,2022-10-26 16:55:17.921875
2077,-113.2,2022-10-26 16:55:17.937500
2078,-126.54,2022-10-26 16:55:17.953125
2079,-138.24,2022-10-26 16:55:17.968750
2080,-145.81,2022-10-26 16:55:17.984375
2081,-146.75,2022-10-26 16:55:18.000000
2082,-139.39,2022-10-26 16:55:18.015625
2083,-123.49,2022-10-26 16:55:18.031250
2084,-100.31,2022-10-26 16:55:18.046875
2085,-72.37,2022-10-26 16:55:18.062500
2086,-42.72,2022-10-26 16:55:18.078125
2087,-14.2,2022-10-26 16:55:18.093750
2088,11.19,2022-10-26 16:55:18.109375
2089,32.55,2022-10-26 16:55:18.125000
2090,50.09,2022-10-26 16:55:18.140625
2091,64.74,2022-10-26 16:55:18.156250
2092,77.52,2022-10-26 16:55:18.171875
2093,88.87,2022-10-26 16:55:18.187500
2094,98.38,2022-10-26 16:55:18.203125
2095,104.78,2022-10-26 16:55:18.218750
2096,106.57,2022-10-26 16:55:18.234375
2097,102.74,2022-10-26 16:55:18.250000
2098,93.34,2022-10-26 16:55:18.265625
2099,79.39,2022-10-26 16:55:18.281250
2100,62.53,2022-10-26 16:55:18.296875
2101,44.2,2022-10-26 16:55:18.312500
2102,25.39,2022-10-26 16:55:18.328125
2103,6.71,2022-10-26 16:55:18.343750
2104,-11.18,2022-10-26 16:55:18.359375
2105,-27.12,2022-10-26 16:55:18.375000
2106,-39.65,2022-10-26 16:55:18.390625
2107,-47.55,2022-10-26 16:55:18.406250
2108,-50.43,2022-10-26 16:55:18.421875
2109,-49.05,2022-10-26 16:55:18.437500
2110,-44.87,2022-10-26 16:55:18.453125
2111,-39.37,2022-10-26 16:55:18.468750
2112,-33.3,2022-10-26 16:55:18.484375
2113,-26.55,2022-10-26 16:55:18.500000
2114,-18.56,2022-10-26 16:55:18.515625
2115,-9.13,2022-10-26 16:55:18.531250
2116,1.04,2022-10-26 16:55:18.546875
2117,10.29,2022-10-26 16:55:18.562500
2118,16.55,2022-10-26 16:55:18.578125
2119,18.22,2022-10-26 16:55:18.593750
2120,14.72,2022-10-26 16:55:18.609375
2121,6.68,2022-10-26 16:55:18.625000
2122,-4.51,2022-10-26 16:55:18.640625
2123,-17.23,2022-10-26 16:55:18.656250
2124,-30.33,2022-10-26 16:55:18.671875
2125,-43.24,2022-10-26 16:55:18.687500
2126,-55.94,2022-10-26 16:55:18.703125
2127,-68.64,2022-10-26 16:55:18.718750
2128,-81.44,2022-10-26 16:55:18.734375
2129,-94.22,2022-10-26 16:55:18.750000
2130,-106.69,2022-10-26 16:55:18.765625
2131,-118.53,2022-10-26 16:55:18.781250
2132,-129.33,2022-10-26 16:55:18.796875
2133,-138.35,2022-10-26 16:55:18.812500
2134,-144.34,2022-10-26 16:55:18.828125
2135,-145.5,2022-10-26 16:55:18.843750
2136,-139.98,2022-10-26 16:55:18.859375
2137,-126.54,2022-10-26 16:55:18.875000
2138,-105.45,2022-10-26 16:55:18.890625
2139,-78.89,2022-10-26 16:55:18.906250
2140,-50.57,2022-10-26 16:55:18.921875
2141,-24.68,2022-10-26 16:55:18.937500
2142,-4.6,2022-10-26 16:55:18.953125
2143,8.06,2022-10-26 16:55:18.968750
2144,13.49,2022-10-26 16:55:18.984375
2145,13.02,2022-10-26 16:55:19.000000
2146,7.96,2022-10-26 16:55:19.015625
2147,-1.15,2022-10-26 16:55:19.031250
2148,-14.59,2022-10-26 16:55:19.046875
2149,-32.97,2022-10-26 16:55:19.062500
2150,-56.38,2022-10-26 16:55:19.078125
2151,-84.02,2022-10-26 16:55:19.093750
2152,-114.21,2022-10-26 16:55:19.109375
2153,-144.79,2022-10-26 16:55:19.125000
2154,-173.75,2022-10-26 16:55:19.140625
2155,-199.73,2022-10-26 16:55:19.156250
2156,-222.14,2022-10-26 16:55:19.171875
2157,-241.12,2022-10-26 16:55:19.187500
2158,-257.02,2022-10-26 16:55:19.203125
2159,-269.88,2022-10-26 16:55:19.218750
2160,-278.97,2022-10-26 16:55:19.234375
2161,-282.65,2022-10-26 16:55:19.250000
2162,-278.85,2022-10-26 16:55:19.265625
2163,-265.91,2022-10-26 16:55:19.281250
2164,-243.6,2022-10-26 16:55:19.296875
2165,-213.56,2022-10-26 16:55:19.312500
2166,-179.26,2022-10-26 16:55:19.328125
2167,-145.07,2022-10-26 16:55:19.343750
2168,-115.08,2022-10-26 16:55:19.359375
2169,-92.08,2022-10-26 16:55:19.375000
2170,-77.08,2022-10-26 16:55:19.390625
2171,-69.55,2022-10-26 16:55:19.406250
2172,-68.2,2022-10-26 16:55:19.421875
2173,-71.76,2022-10-26 16:55:19.437500
2174,-79.48,2022-10-26 16:55:19.453125
2175,-91.25,2022-10-26 16:55:19.468750
2176,-107.31,2022-10-26 16:55:19.484375
2177,-127.86,2022-10-26 16:55:19.500000
2178,-152.75,2022-10-26 16:55:19.515625
2179,-181.53,2022-10-26 16:55:19.531250
2180,-213.66,2022-10-26 16:55:19.546875
2181,-248.79,2022-10-26 16:55:19.562500
2182,-286.93,2022-10-26 16:55:19.578125
2183,-327.98,2022-10-26 16:55:19.593750
2184,-370.97,2022-10-26 16:55:19.609375
2185,-413.24,2022-10-26 16:55:19.625000
2186,-450.23,2022-10-26 16:55:19.640625
2187,-476.22,2022-10-26 16:55:19.656250
2188,-485.93,2022-10-26 16:55:19.671875
2189,-476.38,2022-10-26 16:55:19.687500
2190,-448.06,2022-10-26 16:55:19.703125
2191,-404.92,2022-10-26 16:55:19.718750
2192,-352.93,2022-10-26 16:55:19.734375
2193,-298.16,2022-10-26 16:55:19.750000
2194,-244.86,2022-10-26 16:55:19.765625
2195,-194.77,2022-10-26 16:55:19.781250
2196,-147.58,2022-10-26 16:55:19.796875
2197,-102.22,2022-10-26 16:55:19.812500
2198,-58.25,2022-10-26 16:55:19.828125
2199,-16.41,2022-10-26 16:55:19.843750
2200,21.62,2022-10-26 16:55:19.859375
2201,54.05,2022-10-26 16:55:19.875000
2202,79.79,2022-10-26 16:55:19.890625
2203,98.64,2022-10-26 16:55:19.906250
2204,111.04,2022-10-26 16:55:19.921875
2205,117.41,2022-10-26 16:55:19.937500
2206,117.94,2022-10-26 16:55:19.953125
2207,112.6,2022-10-26 16:55:19.968750
2208,101.8,2022-10-26 16:55:19.984375
2209,86.83,2022-10-26 16:55:20.000000
2210,69.93,2022-10-26 16:55:20.015625
2211,53.7,2022-10-26 16:55:20.031250
2212,40.19,2022-10-26 16:55:20.046875
2213,30.24,2022-10-26 16:55:20.062500
2214,23.36,2022-10-26 16:55:20.078125
2215,18.24,2022-10-26 16:55:20.093750
2216,13.61,2022-10-26 16:55:20.109375
2217,8.82,2022-10-26 16:55:20.125000
2218,3.89,2022-10-26 16:55:20.140625
2219,-0.77,2022-10-26 16:55:20.156250
2220,-4.88,2022-10-26 16:55:20.171875
2221,-8.54,2022-10-26 16:55:20.187500
2222,-12.21,2022-10-26 16:55:20.203125
2223,-16.41,2022-10-26 16:55:20.218750
2224,-21.47,2022-10-26 16:55:20.234375
2225,-27.42,2022-10-26 16:55:20.250000
2226,-33.9,2022-10-26 16:55:20.265625
2227,-40.27,2022-10-26 16:55:20.281250
2228,-45.67,2022-10-26 16:55:20.296875
2229,-49.11,2022-10-26 16:55:20.312500
2230,-49.65,2022-10-26 16:55:20.328125
2231,-46.6,2022-10-26 16:55:20.343750
2232,-39.68,2022-10-26 16:55:20.359375
2233,-29.17,2022-10-26 16:55:20.375000
2234,-15.78,2022-10-26 16:55:20.390625
2235,-0.38,2022-10-26 16:55:20.406250
2236,16.31,2022-10-26 16:55:20.421875
2237,33.91,2022-10-26 16:55:20.437500
2238,52.36,2022-10-26 16:55:20.453125
2239,71.76,2022-10-26 16:55:20.468750
2240,92.01,2022-10-26 16:55:20.484375
2241,112.55,2022-10-26 16:55:20.500000
2242,132.04,2022-10-26 16:55:20.515625
2243,148.39,2022-10-26 16:55:20.531250
2244,159.18,2022-10-26 16:55:20.546875
2245,162.32,2022-10-26 16:55:20.562500
2246,156.92,2022-10-26 16:55:20.578125
2247,143.85,2022-10-26 16:55:20.593750
2248,125.56,2022-10-26 16:55:20.609375
2249,105.49,2022-10-26 16:55:20.625000
2250,87.01,2022-10-26 16:55:20.640625
2251,72.7,2022-10-26 16:55:20.656250
2252,63.99,2022-10-26 16:55:20.671875
2253,61.33,2022-10-26 16:55:20.687500
2254,64.39,2022-10-26 16:55:20.703125
2255,72.37,2022-10-26 16:55:20.718750
2256,83.9,2022-10-26 16:55:20.734375
2257,97.05,2022-10-26 16:55:20.750000
2258,109.37,2022-10-26 16:55:20.765625
2259,118.43,2022-10-26 16:55:20.781250
2260,122.38,2022-10-26 16:55:20.796875
2261,120.55,2022-10-26 16:55:20.812500
2262,113.56,2022-10-26 16:55:20.828125
2263,103.0,2022-10-26 16:55:20.843750
2264,90.85,2022-10-26 16:55:20.859375
2265,78.88,2022-10-26 16:55:20.875000
2266,68.22,2022-10-26 16:55:20.890625
2267,59.28,2022-10-26 16:55:20.906250
2268,51.96,2022-10-26 16:55:20.921875
2269,45.91,2022-10-26 16:55:20.937500
2270,40.79,2022-10-26 16:55:20.953125
2271,36.47,2022-10-26 16:55:20.968750
2272,32.98,2022-10-26 16:55:20.984375
2273,30.34,2022-10-26 16:55:21.000000
2274,28.38,2022-10-26 16:55:21.015625
2275,26.74,2022-10-26 16:55:21.031250
2276,24.96,2022-10-26 16:55:21.046875
2277,22.74,2022-10-26 16:55:21.062500
2278,19.99,2022-10-26 16:55:21.078125
2279,16.89,2022-10-26 16:55:21.093750
2280,13.66,2022-10-26 16:55:21.109375
2281,10.49,2022-10-26 16:55:21.125000
2282,7.39,2022-10-26 16:55:21.140625
2283,4.28,2022-10-26 16:55:21.156250
2284,1.01,2022-10-26 16:55:21.171875
2285,-2.5,2022-10-26 16:55:21.187500
2286,-6.21,2022-10-26 16:55:21.203125
2287,-9.99,2022-10-26 16:55:21.218750
2288,-13.6,2022-10-26 16:55:21.234375
2289,-16.81,2022-10-26 16:55:21.250000
2290,-19.4,2022-10-26 16:55:21.265625
2291,-21.31,2022-10-26 16:55:21.281250
2292,-22.63,2022-10-26 16:55:21.296875
2293,-23.56,2022-10-26 16:55:21.312500
2294,-24.36,2022-10-26 16:55:21.328125
2295,-25.15,2022-10-26 16:55:21.343750
2296,-25.97,2022-10-26 16:55:21.359375
2297,-26.77,2022-10-26 16:55:21.375000
2298,-27.56,2022-10-26 16:55:21.390625
2299,-28.4,2022-10-26 16:55:21.406250
2300,-29.39,2022-10-26 16:55:21.421875
2301,-30.38,2022-10-26 16:55:21.437500
2302,-30.86,2022-10-26 16:55:21.453125
2303,-29.94,2022-10-26 16:55:21.468750
2304,-26.58,2022-10-26 16:55:21.484375
2305,-20.0,2022-10-26 16:55:21.500000
2306,-9.94,2022-10-26 16:55:21.515625
2307,3.11,2022-10-26 16:55:21.531250
2308,18.07,2022-10-26 16:55:21.546875
2309,33.53,2022-10-26 16:55:21.562500
2310,48.08,2022-10-26 16:55:21.578125
2311,60.59,2022-10-26 16:55:21.593750
2312,70.31,2022-10-26 16:55:21.609375
2313,76.98,2022-10-26 16:55:21.625000
2314,80.74,2022-10-26 16:55:21.640625
2315,82.06,2022-10-26 16:55:21.656250
2316,81.61,2022-10-26 16:55:21.671875
2317,80.15,2022-10-26 16:55:21.687500
2318,78.45,2022-10-26 16:55:21.703125
2319,77.18,2022-10-26 16:55:21.718750
2320,76.88,2022-10-26 16:55:21.734375
2321,77.95,2022-10-26 16:55:21.750000
2322,80.58,2022-10-26 16:55:21.765625
2323,84.75,2022-10-26 16:55:21.781250
2324,90.12,2022-10-26 16:55:21.796875
2325,96.09,2022-10-26 16:55:21.812500
2326,101.83,2022-10-26 16:55:21.828125
2327,106.48,2022-10-26 16:55:21.843750
2328,109.35,2022-10-26 16:55:21.859375
2329,110.15,2022-10-26 16:55:21.875000
2330,109.05,2022-10-26 16:55:21.890625
2331,106.68,2022-10-26 16:55:21.906250
2332,103.8,2022-10-26 16:55:21.921875
2333,101.09,2022-10-26 16:55:21.937500
2334,98.74,2022-10-26 16:55:21.953125
2335,96.42,2022-10-26 16:55:21.968750
2336,93.4,2022-10-26 16:55:21.984375
2337,88.9,2022-10-26 16:55:22.000000
2338,82.42,2022-10-26 16:55:22.015625
2339,73.99,2022-10-26 16:55:22.031250
2340,64.11,2022-10-26 16:55:22.046875
2341,53.63,2022-10-26 16:55:22.062500
2342,43.41,2022-10-26 16:55:22.078125
2343,34.17,2022-10-26 16:55:22.093750
2344,26.31,2022-10-26 16:55:22.109375
2345,19.87,2022-10-26 16:55:22.125000
2346,14.56,2022-10-26 16:55:22.140625
2347,9.93,2022-10-26 16:55:22.156250
2348,5.35,2022-10-26 16:55:22.171875
2349,0.28,2022-10-26 16:55:22.187500
2350,-5.71,2022-10-26 16:55:22.203125
2351,-12.79,2022-10-26 16:55:22.218750
2352,-20.86,2022-10-26 16:55:22.234375
2353,-29.49,2022-10-26 16:55:22.250000
2354,-38.1,2022-10-26 16:55:22.265625
2355,-45.98,2022-10-26 16:55:22.281250
2356,-52.44,2022-10-26 16:55:22.296875
2357,-56.98,2022-10-26 16:55:22.312500
2358,-59.35,2022-10-26 16:55:22.328125
2359,-59.66,2022-10-26 16:55:22.343750
2360,-58.33,2022-10-26 16:55:22.359375
2361,-56.06,2022-10-26 16:55:22.375000
2362,-53.7,2022-10-26 16:55:22.390625
2363,-52.03,2022-10-26 16:55:22.406250
2364,-51.56,2022-10-26 16:55:22.421875
2365,-52.34,2022-10-26 16:55:22.437500
2366,-53.85,2022-10-26 16:55:22.453125
2367,-55.11,2022-10-26 16:55:22.468750
2368,-54.95,2022-10-26 16:55:22.484375
2369,-52.32,2022-10-26 16:55:22.500000
2370,-46.67,2022-10-26 16:55:22.515625
2371,-38.04,2022-10-26 16:55:22.531250
2372,-27.05,2022-10-26 16:55:22.546875
2373,-14.6,2022-10-26 16:55:22.562500
2374,-1.68,2022-10-26 16:55:22.578125
2375,10.92,2022-10-26 16:55:22.593750
2376,22.6,2022-10-26 16:55:22.609375
2377,32.97,2022-10-26 16:55:22.625000
2378,41.76,2022-10-26 16:55:22.640625
2379,48.75,2022-10-26 16:55:22.656250
2380,53.83,2022-10-26 16:55:22.671875
2381,56.99,2022-10-26 16:55:22.687500
2382,58.41,2022-10-26 16:55:22.703125
2383,58.33,2022-10-26 16:55:22.718750
2384,57.08,2022-10-26 16:55:22.734375
2385,55.07,2022-10-26 16:55:22.750000
2386,52.75,2022-10-26 16:55:22.765625
2387,50.62,2022-10-26 16:55:22.781250
2388,49.13,2022-10-26 16:55:22.796875
2389,48.63,2022-10-26 16:55:22.812500
2390,49.24,2022-10-26 16:55:22.828125
2391,50.87,2022-10-26 16:55:22.843750
2392,53.26,2022-10-26 16:55:22.859375
2393,56.14,2022-10-26 16:55:22.875000
2394,59.27,2022-10-26 16:55:22.890625
2395,62.5,2022-10-26 16:55:22.906250
2396,65.66,2022-10-26 16:55:22.921875
2397,68.58,2022-10-26 16:55:22.937500
2398,71.01,2022-10-26 16:55:22.953125
2399,72.74,2022-10-26 16:55:22.968750
2400,73.69,2022-10-26 16:55:22.984375
2401,73.91,2022-10-26 16:55:23.000000
2402,73.59,2022-10-26 16:55:23.015625
2403,72.87,2022-10-26 16:55:23.031250
2404,71.78,2022-10-26 16:55:23.046875
2405,70.24,2022-10-26 16:55:23.062500
2406,68.11,2022-10-26 16:55:23.078125
2407,65.38,2022-10-26 16:55:23.093750
2408,62.2,2022-10-26 16:55:23.109375
2409,58.9,2022-10-26 16:55:23.125000
2410,55.93,2022-10-26 16:55:23.140625
2411,53.67,2022-10-26 16:55:23.156250
2412,52.35,2022-10-26 16:55:23.171875
2413,51.94,2022-10-26 16:55:23.187500
2414,52.09,2022-10-26 16:55:23.203125
2415,52.08,2022-10-26 16:55:23.218750
2416,50.87,2022-10-26 16:55:23.234375
2417,47.23,2022-10-26 16:55:23.250000
2418,40.07,2022-10-26 16:55:23.265625
2419,28.75,2022-10-26 16:55:23.281250
2420,13.57,2022-10-26 16:55:23.296875
2421,-4.23,2022-10-26 16:55:23.312500
2422,-22.63,2022-10-26 16:55:23.328125
2423,-39.43,2022-10-26 16:55:23.343750
2424,-52.83,2022-10-26 16:55:23.359375
2425,-61.89,2022-10-26 16:55:23.375000
2426,-66.63,2022-10-26 16:55:23.390625
2427,-67.66,2022-10-26 16:55:23.406250
2428,-65.83,2022-10-26 16:55:23.421875
2429,-61.88,2022-10-26 16:55:23.437500
2430,-56.45,2022-10-26 16:55:23.453125
2431,-50.15,2022-10-26 16:55:23.468750
2432,-43.86,2022-10-26 16:55:23.484375
2433,-38.62,2022-10-26 16:55:23.500000
2434,-35.35,2022-10-26 16:55:23.515625
2435,-34.61,2022-10-26 16:55:23.531250
2436,-36.23,2022-10-26 16:55:23.546875
2437,-39.47,2022-10-26 16:55:23.562500
2438,-43.26,2022-10-26 16:55:23.578125
2439,-46.59,2022-10-26 16:55:23.593750
2440,-48.78,2022-10-26 16:55:23.609375
2441,-49.53,2022-10-26 16:55:23.625000
2442,-48.82,2022-10-26 16:55:23.640625
2443,-46.74,2022-10-26 16:55:23.656250
2444,-43.46,2022-10-26 16:55:23.671875
2445,-39.12,2022-10-26 16:55:23.687500
2446,-34.01,2022-10-26 16:55:23.703125
2447,-28.46,2022-10-26 16:55:23.718750
2448,-22.89,2022-10-26 16:55:23.734375
2449,-17.65,2022-10-26 16:55:23.750000
2450,-12.96,2022-10-26 16:55:23.765625
2451,-8.89,2022-10-26 16:55:23.781250
2452,-5.42,2022-10-26 16:55:23.796875
2453,-2.53,2022-10-26 16:55:23.812500
2454,-0.21,2022-10-26 16:55:23.828125
2455,1.52,2022-10-26 16:55:23.843750
2456,2.67,2022-10-26 16:55:23.859375
2457,3.31,2022-10-26 16:55:23.875000
2458,3.53,2022-10-26 16:55:23.890625
2459,3.42,2022-10-26 16:55:23.906250
2460,2.97,2022-10-26 16:55:23.921875
2461,2.12,2022-10-26 16:55:23.937500
2462,0.76,2022-10-26 16:55:23.953125
2463,-1.09,2022-10-26 16:55:23.968750
2464,-3.26,2022-10-26 16:55:23.984375
2465,-5.49,2022-10-26 16:55:24.000000
2466,-7.44,2022-10-26 16:55:24.015625
2467,-8.89,2022-10-26 16:55:24.031250
2468,-9.82,2022-10-26 16:55:24.046875
2469,-10.34,2022-10-26 16:55:24.062500
2470,-10.8,2022-10-26 16:55:24.078125
2471,-11.59,2022-10-26 16:55:24.093750
2472,-13.16,2022-10-26 16:55:24.109375
2473,-15.84,2022-10-26 16:55:24.125000
2474,-19.71,2022-10-26 16:55:24.140625
2475,-24.42,2022-10-26 16:55:24.156250
2476,-29.14,2022-10-26 16:55:24.171875
2477,-32.7,2022-10-26 16:55:24.187500
2478,-33.9,2022-10-26 16:55:24.203125
2479,-31.83,2022-10-26 16:55:24.218750
2480,-26.24,2022-10-26 16:55:24.234375
2481,-17.46,2022-10-26 16:55:24.250000
2482,-6.31,2022-10-26 16:55:24.265625
2483,6.19,2022-10-26 16:55:24.281250
2484,19.14,2022-10-26 16:55:24.296875
2485,31.81,2022-10-26 16:55:24.312500
2486,43.65,2022-10-26 16:55:24.328125
2487,54.17,2022-10-26 16:55:24.343750
2488,62.98,2022-10-26 16:55:24.359375
2489,69.8,2022-10-26 16:55:24.375000
2490,74.55,2022-10-26 16:55:24.390625
2491,77.39,2022-10-26 16:55:24.406250
2492,78.67,2022-10-26 16:55:24.421875
2493,78.85,2022-10-26 16:55:24.437500
2494,78.36,2022-10-26 16:55:24.453125
2495,77.62,2022-10-26 16:55:24.468750
2496,76.98,2022-10-26 16:55:24.484375
2497,76.75,2022-10-26 16:55:24.500000
2498,77.21,2022-10-26 16:55:24.515625
2499,78.53,2022-10-26 16:55:24.531250
2500,80.73,2022-10-26 16:55:24.546875
2501,83.51,2022-10-26 16:55:24.562500
2502,86.3,2022-10-26 16:55:24.578125
2503,88.39,2022-10-26 16:55:24.593750
2504,89.09,2022-10-26 16:55:24.609375
2505,88.05,2022-10-26 16:55:24.625000
2506,85.33,2022-10-26 16:55:24.640625
2507,81.39,2022-10-26 16:55:24.656250
2508,76.83,2022-10-26 16:55:24.671875
2509,72.13,2022-10-26 16:55:24.687500
2510,67.41,2022-10-26 16:55:24.703125
2511,62.47,2022-10-26 16:55:24.718750
2512,56.96,2022-10-26 16:55:24.734375
2513,50.69,2022-10-26 16:55:24.750000
2514,43.8,2022-10-26 16:55:24.765625
2515,36.78,2022-10-26 16:55:24.781250
2516,30.26,2022-10-26 16:55:24.796875
2517,24.67,2022-10-26 16:55:24.812500
2518,20.09,2022-10-26 16:55:24.828125
2519,16.16,2022-10-26 16:55:24.843750
2520,12.27,2022-10-26 16:55:24.859375
2521,7.85,2022-10-26 16:55:24.875000
2522,2.5,2022-10-26 16:55:24.890625
2523,-3.89,2022-10-26 16:55:24.906250
2524,-11.33,2022-10-26 16:55:24.921875
2525,-19.79,2022-10-26 16:55:24.937500
2526,-29.11,2022-10-26 16:55:24.953125
2527,-38.86,2022-10-26 16:55:24.968750
2528,-48.05,2022-10-26 16:55:24.984375
2529,-55.3,2022-10-26 16:55:25.000000
2530,-59.22,2022-10-26 16:55:25.015625
2531,-59.08,2022-10-26 16:55:25.031250
2532,-55.26,2022-10-26 16:55:25.046875
2533,-49.23,2022-10-26 16:55:25.062500
2534,-42.92,2022-10-26 16:55:25.078125
2535,-37.88,2022-10-26 16:55:25.093750
2536,-34.64,2022-10-26 16:55:25.109375
2537,-32.57,2022-10-26 16:55:25.125000
2538,-30.44,2022-10-26 16:55:25.140625
2539,-27.16,2022-10-26 16:55:25.156250
2540,-22.42,2022-10-26 16:55:25.171875
2541,-16.73,2022-10-26 16:55:25.187500
2542,-11.13,2022-10-26 16:55:25.203125
2543,-6.58,2022-10-26 16:55:25.218750
2544,-3.6,2022-10-26 16:55:25.234375
2545,-2.24,2022-10-26 16:55:25.250000
2546,-2.28,2022-10-26 16:55:25.265625
2547,-3.54,2022-10-26 16:55:25.281250
2548,-5.97,2022-10-26 16:55:25.296875
2549,-9.69,2022-10-26 16:55:25.312500
2550,-14.64,2022-10-26 16:55:25.328125
2551,-20.45,2022-10-26 16:55:25.343750
2552,-26.4,2022-10-26 16:55:25.359375
2553,-31.52,2022-10-26 16:55:25.375000
2554,-34.91,2022-10-26 16:55:25.390625
2555,-36.04,2022-10-26 16:55:25.406250
2556,-34.93,2022-10-26 16:55:25.421875
2557,-32.04,2022-10-26 16:55:25.437500
2558,-28.14,2022-10-26 16:55:25.453125
2559,-23.96,2022-10-26 16:55:25.468750
2560,-19.93,2022-10-26 16:55:25.484375
2561,-16.24,2022-10-26 16:55:25.500000
2562,-12.83,2022-10-26 16:55:25.515625
2563,-9.64,2022-10-26 16:55:25.531250
2564,-6.71,2022-10-26 16:55:25.546875
2565,-4.23,2022-10-26 16:55:25.562500
2566,-2.48,2022-10-26 16:55:25.578125
2567,-1.66,2022-10-26 16:55:25.593750
2568,-1.84,2022-10-26 16:55:25.609375
2569,-2.89,2022-10-26 16:55:25.625000
2570,-4.55,2022-10-26 16:55:25.640625
2571,-6.53,2022-10-26 16:55:25.656250
2572,-8.57,2022-10-26 16:55:25.671875
2573,-10.48,2022-10-26 16:55:25.687500
2574,-12.18,2022-10-26 16:55:25.703125
2575,-13.65,2022-10-26 16:55:25.718750
2576,-14.95,2022-10-26 16:55:25.734375
2577,-16.18,2022-10-26 16:55:25.750000
2578,-17.45,2022-10-26 16:55:25.765625
2579,-18.84,2022-10-26 16:55:25.781250
2580,-20.34,2022-10-26 16:55:25.796875
2581,-21.88,2022-10-26 16:55:25.812500
2582,-23.35,2022-10-26 16:55:25.828125
2583,-24.71,2022-10-26 16:55:25.843750
2584,-26.04,2022-10-26 16:55:25.859375
2585,-27.59,2022-10-26 16:55:25.875000
2586,-29.73,2022-10-26 16:55:25.890625
2587,-32.85,2022-10-26 16:55:25.906250
2588,-37.19,2022-10-26 16:55:25.921875
2589,-42.72,2022-10-26 16:55:25.937500
2590,-49.08,2022-10-26 16:55:25.953125
2591,-55.54,2022-10-26 16:55:25.968750
2592,-61.14,2022-10-26 16:55:25.984375
2593,-64.85,2022-10-26 16:55:26.000000
2594,-65.81,2022-10-26 16:55:26.015625
2595,-63.53,2022-10-26 16:55:26.031250
2596,-58.01,2022-10-26 16:55:26.046875
2597,-49.77,2022-10-26 16:55:26.062500
2598,-39.73,2022-10-26 16:55:26.078125
2599,-29.02,2022-10-26 16:55:26.093750
2600,-18.67,2022-10-26 16:55:26.109375
2601,-9.48,2022-10-26 16:55:26.125000
2602,-1.91,2022-10-26 16:55:26.140625
2603,3.84,2022-10-26 16:55:26.156250
2604,7.77,2022-10-26 16:55:26.171875
2605,9.99,2022-10-26 16:55:26.187500
2606,10.69,2022-10-26 16:55:26.203125
2607,10.12,2022-10-26 16:55:26.218750
2608,8.61,2022-10-26 16:55:26.234375
2609,6.53,2022-10-26 16:55:26.250000
2610,4.26,2022-10-26 16:55:26.265625
2611,2.16,2022-10-26 16:55:26.281250
2612,0.54,2022-10-26 16:55:26.296875
2613,-0.36,2022-10-26 16:55:26.312500
2614,-0.37,2022-10-26 16:55:26.328125
2615,0.57,2022-10-26 16:55:26.343750
2616,2.45,2022-10-26 16:55:26.359375
2617,5.11,2022-10-26 16:55:26.375000
2618,8.34,2022-10-26 16:55:26.390625
2619,11.83,2022-10-26 16:55:26.406250
2620,15.26,2022-10-26 16:55:26.421875
2621,18.34,2022-10-26 16:55:26.437500
2622,20.8,2022-10-26 16:55:26.453125
2623,22.43,2022-10-26 16:55:26.468750
2624,23.12,2022-10-26 16:55:26.484375
2625,22.83,2022-10-26 16:55:26.500000
2626,21.65,2022-10-26 16:55:26.515625
2627,19.75,2022-10-26 16:55:26.531250
2628,17.36,2022-10-26 16:55:26.546875
2629,14.7,2022-10-26 16:55:26.562500
2630,11.96,2022-10-26 16:55:26.578125
2631,9.25,2022-10-26 16:55:26.593750
2632,6.6,2022-10-26 16:55:26.609375
2633,3.97,2022-10-26 16:55:26.625000
2634,1.27,2022-10-26 16:55:26.640625
2635,-1.56,2022-10-26 16:55:26.656250
2636,-4.54,2022-10-26 16:55:26.671875
2637,-7.61,2022-10-26 16:55:26.687500
2638,-10.66,2022-10-26 16:55:26.703125
2639,-13.58,2022-10-26 16:55:26.718750
2640,-16.22,2022-10-26 16:55:26.734375
2641,-18.5,2022-10-26 16:55:26.750000
2642,-20.38,2022-10-26 16:55:26.765625
2643,-21.91,2022-10-26 16:55:26.781250
2644,-23.28,2022-10-26 16:55:26.796875
2645,-24.75,2022-10-26 16:55:26.812500
2646,-26.64,2022-10-26 16:55:26.828125
2647,-29.21,2022-10-26 16:55:26.843750
2648,-32.55,2022-10-26 16:55:26.859375
2649,-36.48,2022-10-26 16:55:26.875000
2650,-40.44,2022-10-26 16:55:26.890625
2651,-43.59,2022-10-26 16:55:26.906250
2652,-44.96,2022-10-26 16:55:26.921875
2653,-43.74,2022-10-26 16:55:26.937500
2654,-39.51,2022-10-26 16:55:26.953125
2655,-32.43,2022-10-26 16:55:26.968750
2656,-23.21,2022-10-26 16:55:26.984375
2657,-12.92,2022-10-26 16:55:27.000000
2658,-2.63,2022-10-26 16:55:27.015625
2659,6.79,2022-10-26 16:55:27.031250
2660,14.8,2022-10-26 16:55:27.046875
2661,21.19,2022-10-26 16:55:27.062500
2662,25.87,2022-10-26 16:55:27.078125
2663,28.83,2022-10-26 16:55:27.093750
2664,30.05,2022-10-26 16:55:27.109375
2665,29.58,2022-10-26 16:55:27.125000
2666,27.57,2022-10-26 16:55:27.140625
2667,24.31,2022-10-26 16:55:27.156250
2668,20.22,2022-10-26 16:55:27.171875
2669,15.77,2022-10-26 16:55:27.187500
2670,11.4,2022-10-26 16:55:27.203125
2671,7.51,2022-10-26 16:55:27.218750
2672,4.4,2022-10-26 16:55:27.234375
2673,2.33,2022-10-26 16:55:27.250000
2674,1.45,2022-10-26 16:55:27.265625
2675,1.79,2022-10-26 16:55:27.281250
2676,3.29,2022-10-26 16:55:27.296875
2677,5.73,2022-10-26 16:55:27.312500
2678,8.76,2022-10-26 16:55:27.328125
2679,11.98,2022-10-26 16:55:27.343750
2680,14.99,2022-10-26 16:55:27.359375
2681,17.46,2022-10-26 16:55:27.375000
2682,19.15,2022-10-26 16:55:27.390625
2683,19.93,2022-10-26 16:55:27.406250
2684,19.72,2022-10-26 16:55:27.421875
2685,18.56,2022-10-26 16:55:27.437500
2686,16.55,2022-10-26 16:55:27.453125
2687,13.91,2022-10-26 16:55:27.468750
2688,10.93,2022-10-26 16:55:27.484375
2689,7.9,2022-10-26 16:55:27.500000
2690,5.0,2022-10-26 16:55:27.515625
2691,2.27,2022-10-26 16:55:27.531250
2692,-0.39,2022-10-26 16:55:27.546875
2693,-3.13,2022-10-26 16:55:27.562500
2694,-6.02,2022-10-26 16:55:27.578125
2695,-9.02,2022-10-26 16:55:27.593750
2696,-11.93,2022-10-26 16:55:27.609375
2697,-14.56,2022-10-26 16:55:27.625000
2698,-16.77,2022-10-26 16:55:27.640625
2699,-18.59,2022-10-26 16:55:27.656250
2700,-20.2,2022-10-26 16:55:27.671875
2701,-21.89,2022-10-26 16:55:27.687500
2702,-23.93,2022-10-26 16:55:27.703125
2703,-26.52,2022-10-26 16:55:27.718750
2704,-29.75,2022-10-26 16:55:27.734375
2705,-33.52,2022-10-26 16:55:27.750000
2706,-37.57,2022-10-26 16:55:27.765625
2707,-41.34,2022-10-26 16:55:27.781250
2708,-44.08,2022-10-26 16:55:27.796875
2709,-44.97,2022-10-26 16:55:27.812500
2710,-43.29,2022-10-26 16:55:27.828125
2711,-38.73,2022-10-26 16:55:27.843750
2712,-31.45,2022-10-26 16:55:27.859375
2713,-22.11,2022-10-26 16:55:27.875000
2714,-11.66,2022-10-26 16:55:27.890625
2715,-1.08,2022-10-26 16:55:27.906250
2716,8.88,2022-10-26 16:55:27.921875
2717,17.74,2022-10-26 16:55:27.937500
2718,25.29,2022-10-26 16:55:27.953125
2719,31.4,2022-10-26 16:55:27.968750
2720,36.02,2022-10-26 16:55:27.984375
2721,39.06,2022-10-26 16:55:28.000000
2722,40.53,2022-10-26 16:55:28.015625
2723,40.54,2022-10-26 16:55:28.031250
2724,39.35,2022-10-26 16:55:28.046875
2725,37.34,2022-10-26 16:55:28.062500
2726,34.86,2022-10-26 16:55:28.078125
2727,32.21,2022-10-26 16:55:28.093750
2728,29.55,2022-10-26 16:55:28.109375
2729,27.0,2022-10-26 16:55:28.125000
2730,24.62,2022-10-26 16:55:28.140625
2731,22.49,2022-10-26 16:55:28.156250
2732,20.73,2022-10-26 16:55:28.171875
2733,19.41,2022-10-26 16:55:28.187500
2734,18.56,2022-10-26 16:55:28.203125
2735,18.1,2022-10-26 16:55:28.218750
2736,17.91,2022-10-26 16:55:28.234375
2737,17.85,2022-10-26 16:55:28.250000
2738,17.72,2022-10-26 16:55:28.265625
2739,17.41,2022-10-26 16:55:28.281250
2740,16.79,2022-10-26 16:55:28.296875
2741,15.85,2022-10-26 16:55:28.312500
2742,14.64,2022-10-26 16:55:28.328125
2743,13.3,2022-10-26 16:55:28.343750
2744,11.98,2022-10-26 16:55:28.359375
2745,10.73,2022-10-26 16:55:28.375000
2746,9.49,2022-10-26 16:55:28.390625
2747,8.04,2022-10-26 16:55:28.406250
2748,6.12,2022-10-26 16:55:28.421875
2749,3.46,2022-10-26 16:55:28.437500
2750,-0.04,2022-10-26 16:55:28.453125
2751,-4.38,2022-10-26 16:55:28.468750
2752,-9.4,2022-10-26 16:55:28.484375
2753,-14.85,2022-10-26 16:55:28.500000
2754,-20.46,2022-10-26 16:55:28.515625
2755,-26.0,2022-10-26 16:55:28.531250
2756,-31.26,2022-10-26 16:55:28.546875
2757,-36.11,2022-10-26 16:55:28.562500
2758,-40.55,2022-10-26 16:55:28.578125
2759,-44.72,2022-10-26 16:55:28.593750
2760,-48.83,2022-10-26 16:55:28.609375
2761,-53.1,2022-10-26 16:55:28.625000
2762,-57.61,2022-10-26 16:55:28.640625
2763,-62.17,2022-10-26 16:55:28.656250
2764,-66.25,2022-10-26 16:55:28.671875
2765,-69.04,2022-10-26 16:55:28.687500
2766,-69.63,2022-10-26 16:55:28.703125
2767,-67.34,2022-10-26 16:55:28.718750
2768,-61.9,2022-10-26 16:55:28.734375
2769,-53.6,2022-10-26 16:55:28.750000
2770,-43.23,2022-10-26 16:55:28.765625
2771,-31.82,2022-10-26 16:55:28.781250
2772,-20.39,2022-10-26 16:55:28.796875
2773,-9.7,2022-10-26 16:55:28.812500
2774,-0.21,2022-10-26 16:55:28.828125
2775,7.9,2022-10-26 16:55:28.843750
2776,14.56,2022-10-26 16:55:28.859375
2777,19.67,2022-10-26 16:55:28.875000
2778,23.1,2022-10-26 16:55:28.890625
2779,24.72,2022-10-26 16:55:28.906250
2780,24.57,2022-10-26 16:55:28.921875
2781,22.85,2022-10-26 16:55:28.937500
2782,20.02,2022-10-26 16:55:28.953125
2783,16.67,2022-10-26 16:55:28.968750
2784,13.44,2022-10-26 16:55:28.984375
2785,10.92,2022-10-26 16:55:29.000000
2786,9.53,2022-10-26 16:55:29.015625
2787,9.46,2022-10-26 16:55:29.031250
2788,10.69,2022-10-26 16:55:29.046875
2789,12.96,2022-10-26 16:55:29.062500
2790,15.84,2022-10-26 16:55:29.078125
2791,18.84,2022-10-26 16:55:29.093750
2792,21.53,2022-10-26 16:55:29.109375
2793,23.65,2022-10-26 16:55:29.125000
2794,25.09,2022-10-26 16:55:29.140625
2795,25.93,2022-10-26 16:55:29.156250
2796,26.24,2022-10-26 16:55:29.171875
2797,26.02,2022-10-26 16:55:29.187500
2798,25.14,2022-10-26 16:55:29.203125
2799,23.39,2022-10-26 16:55:29.218750
2800,20.67,2022-10-26 16:55:29.234375
2801,17.12,2022-10-26 16:55:29.250000
2802,13.13,2022-10-26 16:55:29.265625
2803,9.22,2022-10-26 16:55:29.281250
2804,5.84,2022-10-26 16:55:29.296875
2805,3.16,2022-10-26 16:55:29.312500
2806,1.08,2022-10-26 16:55:29.328125
2807,-0.74,2022-10-26 16:55:29.343750
2808,-2.65,2022-10-26 16:55:29.359375
2809,-4.9,2022-10-26 16:55:29.375000
2810,-7.47,2022-10-26 16:55:29.390625
2811,-10.21,2022-10-26 16:55:29.406250
2812,-12.85,2022-10-26 16:55:29.421875
2813,-15.19,2022-10-26 16:55:29.437500
2814,-17.18,2022-10-26 16:55:29.453125
2815,-18.92,2022-10-26 16:55:29.468750
2816,-20.68,2022-10-26 16:55:29.484375
2817,-22.81,2022-10-26 16:55:29.500000
2818,-25.54,2022-10-26 16:55:29.515625
2819,-28.92,2022-10-26 16:55:29.531250
2820,-32.64,2022-10-26 16:55:29.546875
2821,-36.11,2022-10-26 16:55:29.562500
2822,-38.53,2022-10-26 16:55:29.578125
2823,-39.17,2022-10-26 16:55:29.593750
2824,-37.54,2022-10-26 16:55:29.609375
2825,-33.5,2022-10-26 16:55:29.625000
2826,-27.28,2022-10-26 16:55:29.640625
2827,-19.37,2022-10-26 16:55:29.656250
2828,-10.44,2022-10-26 16:55:29.671875
2829,-1.24,2022-10-26 16:55:29.687500
2830,7.49,2022-10-26 16:55:29.703125
2831,15.15,2022-10-26 16:55:29.718750
2832,21.28,2022-10-26 16:55:29.734375
2833,25.7,2022-10-26 16:55:29.750000
2834,28.38,2022-10-26 16:55:29.765625
2835,29.44,2022-10-26 16:55:29.781250
2836,29.04,2022-10-26 16:55:29.796875
2837,27.36,2022-10-26 16:55:29.812500
2838,24.64,2022-10-26 16:55:29.828125
2839,21.27,2022-10-26 16:55:29.843750
2840,17.71,2022-10-26 16:55:29.859375
2841,14.44,2022-10-26 16:55:29.875000
2842,11.89,2022-10-26 16:55:29.890625
2843,10.28,2022-10-26 16:55:29.906250
2844,9.72,2022-10-26 16:55:29.921875
2845,10.19,2022-10-26 16:55:29.937500
2846,11.61,2022-10-26 16:55:29.953125
2847,13.87,2022-10-26 16:55:29.968750
2848,16.7,2022-10-26 16:55:29.984375
2849,19.72,2022-10-26 16:55:30.000000
2850,22.45,2022-10-26 16:55:30.015625
2851,24.45,2022-10-26 16:55:30.031250
2852,25.46,2022-10-26 16:55:30.046875
2853,25.48,2022-10-26 16:55:30.062500
2854,24.69,2022-10-26 16:55:30.078125
2855,23.32,2022-10-26 16:55:30.093750
2856,21.53,2022-10-26 16:55:30.109375
2857,19.39,2022-10-26 16:55:30.125000
2858,16.87,2022-10-26 16:55:30.140625
2859,13.91,2022-10-26 16:55:30.156250
2860,10.47,2022-10-26 16:55:30.171875
2861,6.53,2022-10-26 16:55:30.187500
2862,2.15,2022-10-26 16:55:30.203125
2863,-2.6,2022-10-26 16:55:30.218750
2864,-7.5,2022-10-26 16:55:30.234375
2865,-12.27,2022-10-26 16:55:30.250000
2866,-16.57,2022-10-26 16:55:30.265625
2867,-20.05,2022-10-26 16:55:30.281250
2868,-22.48,2022-10-26 16:55:30.296875
2869,-23.75,2022-10-26 16:55:30.312500
2870,-23.98,2022-10-26 16:55:30.328125
2871,-23.38,2022-10-26 16:55:30.343750
2872,-22.36,2022-10-26 16:55:30.359375
2873,-21.37,2022-10-26 16:55:30.375000
2874,-20.87,2022-10-26 16:55:30.390625
2875,-21.14,2022-10-26 16:55:30.406250
2876,-22.19,2022-10-26 16:55:30.421875
2877,-23.63,2022-10-26 16:55:30.437500
2878,-24.8,2022-10-26 16:55:30.453125
2879,-24.89,2022-10-26 16:55:30.468750
2880,-23.22,2022-10-26 16:55:30.484375
2881,-19.5,2022-10-26 16:55:30.500000
2882,-13.85,2022-10-26 16:55:30.515625
2883,-6.77,2022-10-26 16:55:30.531250
2884,1.08,2022-10-26 16:55:30.546875
2885,9.03,2022-10-26 16:55:30.562500
2886,16.56,2022-10-26 16:55:30.578125
2887,23.34,2022-10-26 16:55:30.593750
2888,29.12,2022-10-26 16:55:30.609375
2889,33.76,2022-10-26 16:55:30.625000
2890,37.1,2022-10-26 16:55:30.640625
2891,38.97,2022-10-26 16:55:30.656250
2892,39.25,2022-10-26 16:55:30.671875
2893,37.88,2022-10-26 16:55:30.687500
2894,34.93,2022-10-26 16:55:30.703125
2895,30.68,2022-10-26 16:55:30.718750
2896,25.64,2022-10-26 16:55:30.734375
2897,20.41,2022-10-26 16:55:30.750000
2898,15.67,2022-10-26 16:55:30.765625
2899,11.97,2022-10-26 16:55:30.781250
2900,9.67,2022-10-26 16:55:30.796875
2901,8.88,2022-10-26 16:55:30.812500
2902,9.47,2022-10-26 16:55:30.828125
2903,11.16,2022-10-26 16:55:30.843750
2904,13.53,2022-10-26 16:55:30.859375
2905,16.12,2022-10-26 16:55:30.875000
2906,18.43,2022-10-26 16:55:30.890625
2907,20.0,2022-10-26 16:55:30.906250
2908,20.44,2022-10-26 16:55:30.921875
2909,19.57,2022-10-26 16:55:30.937500
2910,17.45,2022-10-26 16:55:30.953125
2911,14.42,2022-10-26 16:55:30.968750
2912,11.03,2022-10-26 16:55:30.984375
2913,7.86,2022-10-26 16:55:31.000000
2914,5.31,2022-10-26 16:55:31.015625
2915,3.46,2022-10-26 16:55:31.031250
2916,2.03,2022-10-26 16:55:31.046875
2917,0.55,2022-10-26 16:55:31.062500
2918,-1.41,2022-10-26 16:55:31.078125
2919,-4.04,2022-10-26 16:55:31.093750
2920,-7.23,2022-10-26 16:55:31.109375
2921,-10.63,2022-10-26 16:55:31.125000
2922,-13.87,2022-10-26 16:55:31.140625
2923,-16.75,2022-10-26 16:55:31.156250
2924,-19.32,2022-10-26 16:55:31.171875
2925,-21.81,2022-10-26 16:55:31.187500
2926,-24.49,2022-10-26 16:55:31.203125
2927,-27.51,2022-10-26 16:55:31.218750
2928,-30.83,2022-10-26 16:55:31.234375
2929,-34.2,2022-10-26 16:55:31.250000
2930,-37.15,2022-10-26 16:55:31.265625
2931,-39.17,2022-10-26 16:55:31.281250
2932,-39.67,2022-10-26 16:55:31.296875
2933,-38.17,2022-10-26 16:55:31.312500
2934,-34.39,2022-10-26 16:55:31.328125
2935,-28.33,2022-10-26 16:55:31.343750
2936,-20.3,2022-10-26 16:55:31.359375
2937,-10.86,2022-10-26 16:55:31.375000
2938,-0.7,2022-10-26 16:55:31.390625
2939,9.47,2022-10-26 16:55:31.406250
2940,19.04,2022-10-26 16:55:31.421875
2941,27.58,2022-10-26 16:55:31.437500
2942,34.77,2022-10-26 16:55:31.453125
2943,40.48,2022-10-26 16:55:31.468750
2944,44.65,2022-10-26 16:55:31.484375
2945,47.43,2022-10-26 16:55:31.500000
2946,49.11,2022-10-26 16:55:31.515625
2947,50.1,2022-10-26 16:55:31.531250
2948,50.84,2022-10-26 16:55:31.546875
2949,51.67,2022-10-26 16:55:31.562500
2950,52.76,2022-10-26 16:55:31.578125
2951,54.04,2022-10-26 16:55:31.593750
2952,55.35,2022-10-26 16:55:31.609375
2953,56.57,2022-10-26 16:55:31.625000
2954,57.81,2022-10-26 16:55:31.640625
2955,59.46,2022-10-26 16:55:31.656250
2956,62.0,2022-10-26 16:55:31.671875
2957,65.82,2022-10-26 16:55:31.687500
2958,70.97,2022-10-26 16:55:31.703125
2959,77.06,2022-10-26 16:55:31.718750
2960,83.34,2022-10-26 16:55:31.734375
2961,89.08,2022-10-26 16:55:31.750000
2962,93.84,2022-10-26 16:55:31.765625
2963,97.76,2022-10-26 16:55:31.781250
2964,101.6,2022-10-26 16:55:31.796875
2965,106.5,2022-10-26 16:55:31.812500
2966,113.63,2022-10-26 16:55:31.828125
2967,123.8,2022-10-26 16:55:31.843750
2968,137.12,2022-10-26 16:55:31.859375
2969,152.99,2022-10-26 16:55:31.875000
2970,170.22,2022-10-26 16:55:31.890625
2971,187.48,2022-10-26 16:55:31.906250
2972,203.69,2022-10-26 16:55:31.921875
2973,218.36,2022-10-26 16:55:31.937500
2974,231.69,2022-10-26 16:55:31.953125
2975,244.47,2022-10-26 16:55:31.968750
2976,257.77,2022-10-26 16:55:31.984375
2977,272.47,2022-10-26 16:55:32.000000
2978,288.62,2022-10-26 16:55:32.015625
2979,304.94,2022-10-26 16:55:32.031250
2980,318.76,2022-10-26 16:55:32.046875
2981,326.5,2022-10-26 16:55:32.062500
2982,324.79,2022-10-26 16:55:32.078125
2983,311.67,2022-10-26 16:55:32.093750
2984,287.51,2022-10-26 16:55:32.109375
2985,254.9,2022-10-26 16:55:32.125000
2986,217.79,2022-10-26 16:55:32.140625
2987,180.07,2022-10-26 16:55:32.156250
2988,144.41,2022-10-26 16:55:32.171875
2989,111.86,2022-10-26 16:55:32.187500
2990,82.2,2022-10-26 16:55:32.203125
2991,54.83,2022-10-26 16:55:32.218750
2992,29.38,2022-10-26 16:55:32.234375
2993,5.89,2022-10-26 16:55:32.250000
2994,-15.65,2022-10-26 16:55:32.265625
2995,-35.79,2022-10-26 16:55:32.281250
2996,-55.69,2022-10-26 16:55:32.296875
2997,-76.71,2022-10-26 16:55:32.312500
2998,-99.5,2022-10-26 16:55:32.328125
2999,-123.44,2022-10-26 16:55:32.343750
3000,-146.51,2022-10-26 16:55:32.359375
3001,-166.02,2022-10-26 16:55:32.375000
3002,-179.62,2022-10-26 16:55:32.390625
3003,-186.29,2022-10-26 16:55:32.406250
3004,-186.59,2022-10-26 16:55:32.421875
3005,-182.25,2022-10-26 16:55:32.437500
3006,-175.36,2022-10-26 16:55:32.453125
3007,-167.59,2022-10-26 16:55:32.468750
3008,-160.06,2022-10-26 16:55:32.484375
3009,-153.47,2022-10-26 16:55:32.500000
3010,-148.61,2022-10-26 16:55:32.515625
3011,-146.45,2022-10-26 16:55:32.531250
3012,-147.78,2022-10-26 16:55:32.546875
3013,-152.63,2022-10-26 16:55:32.562500
3014,-159.8,2022-10-26 16:55:32.578125
3015,-166.89,2022-10-26 16:55:32.593750
3016,-171.06,2022-10-26 16:55:32.609375
3017,-170.04,2022-10-26 16:55:32.625000
3018,-162.98,2022-10-26 16:55:32.640625
3019,-150.71,2022-10-26 16:55:32.656250
3020,-135.42,2022-10-26 16:55:32.671875
3021,-119.67,2022-10-26 16:55:32.687500
3022,-105.56,2022-10-26 16:55:32.703125
3023,-94.25,2022-10-26 16:55:32.718750
3024,-85.9,2022-10-26 16:55:32.734375
3025,-80.05,2022-10-26 16:55:32.750000
3026,-76.06,2022-10-26 16:55:32.765625
3027,-73.36,2022-10-26 16:55:32.781250
3028,-71.48,2022-10-26 16:55:32.796875
3029,-70.01,2022-10-26 16:55:32.812500
3030,-68.61,2022-10-26 16:55:32.828125
3031,-67.28,2022-10-26 16:55:32.843750
3032,-66.59,2022-10-26 16:55:32.859375
3033,-67.86,2022-10-26 16:55:32.875000
3034,-72.85,2022-10-26 16:55:32.890625
3035,-83.1,2022-10-26 16:55:32.906250
3036,-99.16,2022-10-26 16:55:32.921875
3037,-119.73,2022-10-26 16:55:32.937500
3038,-141.34,2022-10-26 16:55:32.953125
3039,-158.52,2022-10-26 16:55:32.968750
3040,-165.1,2022-10-26 16:55:32.984375
3041,-156.04,2022-10-26 16:55:33.000000
3042,-129.49,2022-10-26 16:55:33.015625
3043,-88.2,2022-10-26 16:55:33.031250
3044,-39.42,2022-10-26 16:55:33.046875
3045,6.81,2022-10-26 16:55:33.062500
3046,40.59,2022-10-26 16:55:33.078125
3047,54.95,2022-10-26 16:55:33.093750
3048,47.4,2022-10-26 16:55:33.109375
3049,19.65,2022-10-26 16:55:33.125000
3050,-24.05,2022-10-26 16:55:33.140625
3051,-78.74,2022-10-26 16:55:33.156250
3052,-139.98,2022-10-26 16:55:33.171875
3053,-203.49,2022-10-26 16:55:33.187500
3054,-264.42,2022-10-26 16:55:33.203125
3055,-316.77,2022-10-26 16:55:33.218750
3056,-354.15,2022-10-26 16:55:33.234375
3057,-371.52,2022-10-26 16:55:33.250000
3058,-367.07,2022-10-26 16:55:33.265625
3059,-343.12,2022-10-26 16:55:33.281250
3060,-305.3,2022-10-26 16:55:33.296875
3061,-260.26,2022-10-26 16:55:33.312500
3062,-213.32,2022-10-26 16:55:33.328125
3063,-166.99,2022-10-26 16:55:33.343750
3064,-121.31,2022-10-26 16:55:33.359375
3065,-75.54,2022-10-26 16:55:33.375000
3066,-30.08,2022-10-26 16:55:33.390625
3067,12.53,2022-10-26 16:55:33.406250
3068,48.1,2022-10-26 16:55:33.421875
3069,72.42,2022-10-26 16:55:33.437500
3070,83.08,2022-10-26 16:55:33.453125
3071,80.56,2022-10-26 16:55:33.468750
3072,67.91,2022-10-26 16:55:33.484375
3073,49.56,2022-10-26 16:55:33.500000
3074,29.67,2022-10-26 16:55:33.515625
3075,11.16,2022-10-26 16:55:33.531250
3076,-4.56,2022-10-26 16:55:33.546875
3077,-17.2,2022-10-26 16:55:33.562500
3078,-26.91,2022-10-26 16:55:33.578125
3079,-33.72,2022-10-26 16:55:33.593750
3080,-37.41,2022-10-26 16:55:33.609375
3081,-37.69,2022-10-26 16:55:33.625000
3082,-34.57,2022-10-26 16:55:33.640625
3083,-28.7,2022-10-26 16:55:33.656250
3084,-21.33,2022-10-26 16:55:33.671875
3085,-14.08,2022-10-26 16:55:33.687500
3086,-8.32,2022-10-26 16:55:33.703125
3087,-4.76,2022-10-26 16:55:33.718750
3088,-3.2,2022-10-26 16:55:33.734375
3089,-2.83,2022-10-26 16:55:33.750000
3090,-2.79,2022-10-26 16:55:33.765625
3091,-2.67,2022-10-26 16:55:33.781250
3092,-2.71,2022-10-26 16:55:33.796875
3093,-3.54,2022-10-26 16:55:33.812500
3094,-5.73,2022-10-26 16:55:33.828125
3095,-9.17,2022-10-26 16:55:33.843750
3096,-12.96,2022-10-26 16:55:33.859375
3097,-15.61,2022-10-26 16:55:33.875000
3098,-15.51,2022-10-26 16:55:33.890625
3099,-11.61,2022-10-26 16:55:33.906250
3100,-3.67,2022-10-26 16:55:33.921875
3101,7.58,2022-10-26 16:55:33.937500
3102,20.71,2022-10-26 16:55:33.953125
3103,33.95,2022-10-26 16:55:33.968750
3104,45.66,2022-10-26 16:55:33.984375
3105,54.67,2022-10-26 16:55:34.000000
3106,60.57,2022-10-26 16:55:34.015625
3107,63.66,2022-10-26 16:55:34.031250
3108,64.73,2022-10-26 16:55:34.046875
3109,64.73,2022-10-26 16:55:34.062500
3110,64.37,2022-10-26 16:55:34.078125
3111,63.95,2022-10-26 16:55:34.093750
3112,63.28,2022-10-26 16:55:34.109375
3113,61.95,2022-10-26 16:55:34.125000
3114,59.47,2022-10-26 16:55:34.140625
3115,55.56,2022-10-26 16:55:34.156250
3116,50.23,2022-10-26 16:55:34.171875
3117,43.76,2022-10-26 16:55:34.187500
3118,36.7,2022-10-26 16:55:34.203125
3119,29.84,2022-10-26 16:55:34.218750
3120,24.05,2022-10-26 16:55:34.234375
3121,20.1,2022-10-26 16:55:34.250000
3122,18.47,2022-10-26 16:55:34.265625
3123,19.19,2022-10-26 16:55:34.281250
3124,21.82,2022-10-26 16:55:34.296875
3125,25.65,2022-10-26 16:55:34.312500
3126,29.9,2022-10-26 16:55:34.328125
3127,33.95,2022-10-26 16:55:34.343750
3128,37.34,2022-10-26 16:55:34.359375
3129,39.75,2022-10-26 16:55:34.375000
3130,40.89,2022-10-26 16:55:34.390625
3131,40.51,2022-10-26 16:55:34.406250
3132,38.52,2022-10-26 16:55:34.421875
3133,35.23,2022-10-26 16:55:34.437500
3134,31.41,2022-10-26 16:55:34.453125
3135,28.2,2022-10-26 16:55:34.468750
3136,26.75,2022-10-26 16:55:34.484375
3137,27.78,2022-10-26 16:55:34.500000
3138,31.13,2022-10-26 16:55:34.515625
3139,35.63,2022-10-26 16:55:34.531250
3140,39.46,2022-10-26 16:55:34.546875
3141,40.71,2022-10-26 16:55:34.562500
