,BVP,time
0,-5.81,2021-12-17 16:32:13.125000
1,0.42,2021-12-17 16:32:13.140625
2,8.83,2021-12-17 16:32:13.156250
3,18.97,2021-12-17 16:32:13.171875
4,30.55,2021-12-17 16:32:13.187500
5,43.84,2021-12-17 16:32:13.203125
6,59.73,2021-12-17 16:32:13.218750
7,79.02,2021-12-17 16:32:13.234375
8,101.74,2021-12-17 16:32:13.250000
9,126.5,2021-12-17 16:32:13.265625
10,150.46,2021-12-17 16:32:13.281250
11,170.13,2021-12-17 16:32:13.296875
12,182.59,2021-12-17 16:32:13.312500
13,186.29,2021-12-17 16:32:13.328125
14,181.13,2021-12-17 16:32:13.343750
15,167.93,2021-12-17 16:32:13.359375
16,147.48,2021-12-17 16:32:13.375000
17,120.53,2021-12-17 16:32:13.390625
18,88.03,2021-12-17 16:32:13.406250
19,51.77,2021-12-17 16:32:13.421875
20,14.43,2021-12-17 16:32:13.437500
21,-21.09,2021-12-17 16:32:13.453125
22,-53.05,2021-12-17 16:32:13.468750
23,-81.56,2021-12-17 16:32:13.484375
24,-107.92,2021-12-17 16:32:13.500000
25,-133.0,2021-12-17 16:32:13.515625
26,-155.21,2021-12-17 16:32:13.531250
27,-170.2,2021-12-17 16:32:13.546875
28,-172.43,2021-12-17 16:32:13.562500
29,-158.17,2021-12-17 16:32:13.578125
30,-128.19,2021-12-17 16:32:13.593750
31,-88.32,2021-12-17 16:32:13.609375
32,-47.49,2021-12-17 16:32:13.625000
33,-14.01,2021-12-17 16:32:13.640625
34,7.37,2021-12-17 16:32:13.656250
35,16.73,2021-12-17 16:32:13.671875
36,17.44,2021-12-17 16:32:13.687500
37,13.54,2021-12-17 16:32:13.703125
38,7.7,2021-12-17 16:32:13.718750
39,0.57,2021-12-17 16:32:13.734375
40,-8.29,2021-12-17 16:32:13.750000
41,-18.94,2021-12-17 16:32:13.765625
42,-30.26,2021-12-17 16:32:13.781250
43,-40.26,2021-12-17 16:32:13.796875
44,-46.91,2021-12-17 16:32:13.812500
45,-49.11,2021-12-17 16:32:13.828125
46,-46.98,2021-12-17 16:32:13.843750
47,-41.45,2021-12-17 16:32:13.859375
48,-33.85,2021-12-17 16:32:13.875000
49,-25.46,2021-12-17 16:32:13.890625
50,-17.44,2021-12-17 16:32:13.906250
51,-10.62,2021-12-17 16:32:13.921875
52,-5.38,2021-12-17 16:32:13.937500
53,-1.44,2021-12-17 16:32:13.953125
54,1.98,2021-12-17 16:32:13.968750
55,5.65,2021-12-17 16:32:13.984375
56,9.9,2021-12-17 16:32:14.000000
57,14.19,2021-12-17 16:32:14.015625
58,17.55,2021-12-17 16:32:14.031250
59,18.95,2021-12-17 16:32:14.046875
60,17.85,2021-12-17 16:32:14.062500
61,14.2,2021-12-17 16:32:14.078125
62,8.31,2021-12-17 16:32:14.093750
63,0.5,2021-12-17 16:32:14.109375
64,-8.9,2021-12-17 16:32:14.125000
65,-19.34,2021-12-17 16:32:14.140625
66,-29.82,2021-12-17 16:32:14.156250
67,-38.62,2021-12-17 16:32:14.171875
68,-43.8,2021-12-17 16:32:14.187500
69,-43.81,2021-12-17 16:32:14.203125
70,-38.36,2021-12-17 16:32:14.218750
71,-28.68,2021-12-17 16:32:14.234375
72,-17.27,2021-12-17 16:32:14.250000
73,-7.06,2021-12-17 16:32:14.265625
74,-0.41,2021-12-17 16:32:14.281250
75,1.59,2021-12-17 16:32:14.296875
76,-0.66,2021-12-17 16:32:14.312500
77,-5.64,2021-12-17 16:32:14.328125
78,-11.57,2021-12-17 16:32:14.343750
79,-17.13,2021-12-17 16:32:14.359375
80,-21.8,2021-12-17 16:32:14.375000
81,-25.94,2021-12-17 16:32:14.390625
82,-30.32,2021-12-17 16:32:14.406250
83,-35.65,2021-12-17 16:32:14.421875
84,-42.36,2021-12-17 16:32:14.437500
85,-50.43,2021-12-17 16:32:14.453125
86,-59.48,2021-12-17 16:32:14.468750
87,-68.97,2021-12-17 16:32:14.484375
88,-78.19,2021-12-17 16:32:14.500000
89,-86.06,2021-12-17 16:32:14.515625
90,-91.11,2021-12-17 16:32:14.531250
91,-91.48,2021-12-17 16:32:14.546875
92,-85.03,2021-12-17 16:32:14.562500
93,-70.05,2021-12-17 16:32:14.578125
94,-45.86,2021-12-17 16:32:14.593750
95,-13.49,2021-12-17 16:32:14.609375
96,23.74,2021-12-17 16:32:14.625000
97,60.72,2021-12-17 16:32:14.640625
98,92.08,2021-12-17 16:32:14.656250
99,113.43,2021-12-17 16:32:14.671875
100,122.79,2021-12-17 16:32:14.687500
101,121.12,2021-12-17 16:32:14.703125
102,111.57,2021-12-17 16:32:14.718750
103,98.45,2021-12-17 16:32:14.734375
104,86.1,2021-12-17 16:32:14.750000
105,76.79,2021-12-17 16:32:14.765625
106,70.71,2021-12-17 16:32:14.781250
107,66.81,2021-12-17 16:32:14.796875
108,63.29,2021-12-17 16:32:14.812500
109,58.48,2021-12-17 16:32:14.828125
110,51.31,2021-12-17 16:32:14.843750
111,41.06,2021-12-17 16:32:14.859375
112,27.36,2021-12-17 16:32:14.875000
113,11.07,2021-12-17 16:32:14.890625
114,-7.46,2021-12-17 16:32:14.906250
115,-27.64,2021-12-17 16:32:14.921875
116,-48.24,2021-12-17 16:32:14.937500
117,-68.64,2021-12-17 16:32:14.953125
118,-89.54,2021-12-17 16:32:14.968750
119,-113.27,2021-12-17 16:32:14.984375
120,-143.62,2021-12-17 16:32:15.000000
121,-184.04,2021-12-17 16:32:15.015625
122,-234.6,2021-12-17 16:32:15.031250
123,-293.04,2021-12-17 16:32:15.046875
124,-354.04,2021-12-17 16:32:15.062500
125,-405.05,2021-12-17 16:32:15.078125
126,-432.44,2021-12-17 16:32:15.093750
127,-425.42,2021-12-17 16:32:15.109375
128,-380.45,2021-12-17 16:32:15.125000
129,-303.46,2021-12-17 16:32:15.140625
130,-213.84,2021-12-17 16:32:15.156250
131,-124.08,2021-12-17 16:32:15.171875
132,-42.4,2021-12-17 16:32:15.187500
133,26.22,2021-12-17 16:32:15.203125
134,79.74,2021-12-17 16:32:15.218750
135,118.04,2021-12-17 16:32:15.234375
136,143.23,2021-12-17 16:32:15.250000
137,160.14,2021-12-17 16:32:15.265625
138,174.63,2021-12-17 16:32:15.281250
139,191.21,2021-12-17 16:32:15.296875
140,212.02,2021-12-17 16:32:15.312500
141,234.35,2021-12-17 16:32:15.328125
142,253.27,2021-12-17 16:32:15.343750
143,265.07,2021-12-17 16:32:15.359375
144,268.62,2021-12-17 16:32:15.375000
145,265.69,2021-12-17 16:32:15.390625
146,259.46,2021-12-17 16:32:15.406250
147,252.5,2021-12-17 16:32:15.421875
148,246.37,2021-12-17 16:32:15.437500
149,242.63,2021-12-17 16:32:15.453125
150,241.56,2021-12-17 16:32:15.468750
151,242.48,2021-12-17 16:32:15.484375
152,243.28,2021-12-17 16:32:15.500000
153,239.56,2021-12-17 16:32:15.515625
154,225.56,2021-12-17 16:32:15.531250
155,196.55,2021-12-17 16:32:15.546875
156,151.37,2021-12-17 16:32:15.562500
157,93.7,2021-12-17 16:32:15.578125
158,31.92,2021-12-17 16:32:15.593750
159,-24.79,2021-12-17 16:32:15.609375
160,-69.34,2021-12-17 16:32:15.625000
161,-98.45,2021-12-17 16:32:15.640625
162,-112.92,2021-12-17 16:32:15.656250
163,-116.03,2021-12-17 16:32:15.671875
164,-111.73,2021-12-17 16:32:15.687500
165,-103.43,2021-12-17 16:32:15.703125
166,-93.66,2021-12-17 16:32:15.718750
167,-83.88,2021-12-17 16:32:15.734375
168,-75.33,2021-12-17 16:32:15.750000
169,-68.87,2021-12-17 16:32:15.765625
170,-64.66,2021-12-17 16:32:15.781250
171,-62.12,2021-12-17 16:32:15.796875
172,-60.3,2021-12-17 16:32:15.812500
173,-58.27,2021-12-17 16:32:15.828125
174,-55.58,2021-12-17 16:32:15.843750
175,-52.14,2021-12-17 16:32:15.859375
176,-48.1,2021-12-17 16:32:15.875000
177,-43.91,2021-12-17 16:32:15.890625
178,-40.13,2021-12-17 16:32:15.906250
179,-37.29,2021-12-17 16:32:15.921875
180,-35.67,2021-12-17 16:32:15.937500
181,-35.12,2021-12-17 16:32:15.953125
182,-35.12,2021-12-17 16:32:15.968750
183,-34.93,2021-12-17 16:32:15.984375
184,-34.0,2021-12-17 16:32:16.000000
185,-32.17,2021-12-17 16:32:16.015625
186,-29.73,2021-12-17 16:32:16.031250
187,-27.24,2021-12-17 16:32:16.046875
188,-25.16,2021-12-17 16:32:16.062500
189,-23.65,2021-12-17 16:32:16.078125
190,-22.54,2021-12-17 16:32:16.093750
191,-21.42,2021-12-17 16:32:16.109375
192,-19.88,2021-12-17 16:32:16.125000
193,-17.69,2021-12-17 16:32:16.140625
194,-14.87,2021-12-17 16:32:16.156250
195,-11.7,2021-12-17 16:32:16.171875
196,-8.6,2021-12-17 16:32:16.187500
197,-5.92,2021-12-17 16:32:16.203125
198,-3.89,2021-12-17 16:32:16.218750
199,-2.53,2021-12-17 16:32:16.234375
200,-1.63,2021-12-17 16:32:16.250000
201,-0.99,2021-12-17 16:32:16.265625
202,-0.5,2021-12-17 16:32:16.281250
203,-0.15,2021-12-17 16:32:16.296875
204,-0.08,2021-12-17 16:32:16.312500
205,-0.41,2021-12-17 16:32:16.328125
206,-1.01,2021-12-17 16:32:16.343750
207,-1.62,2021-12-17 16:32:16.359375
208,-2.02,2021-12-17 16:32:16.375000
209,-2.02,2021-12-17 16:32:16.390625
210,-1.72,2021-12-17 16:32:16.406250
211,-1.28,2021-12-17 16:32:16.421875
212,-0.9,2021-12-17 16:32:16.437500
213,-0.67,2021-12-17 16:32:16.453125
214,-0.62,2021-12-17 16:32:16.468750
215,-0.62,2021-12-17 16:32:16.484375
216,-0.6,2021-12-17 16:32:16.500000
217,-0.51,2021-12-17 16:32:16.515625
218,-0.3,2021-12-17 16:32:16.531250
219,-0.04,2021-12-17 16:32:16.546875
220,0.23,2021-12-17 16:32:16.562500
221,0.43,2021-12-17 16:32:16.578125
222,0.54,2021-12-17 16:32:16.593750
223,0.56,2021-12-17 16:32:16.609375
224,0.51,2021-12-17 16:32:16.625000
225,0.32,2021-12-17 16:32:16.640625
226,-0.11,2021-12-17 16:32:16.656250
227,-0.82,2021-12-17 16:32:16.671875
228,-1.69,2021-12-17 16:32:16.687500
229,-2.51,2021-12-17 16:32:16.703125
230,-2.98,2021-12-17 16:32:16.718750
231,-2.98,2021-12-17 16:32:16.734375
232,-2.59,2021-12-17 16:32:16.750000
233,-2.19,2021-12-17 16:32:16.765625
234,-2.25,2021-12-17 16:32:16.781250
235,-2.99,2021-12-17 16:32:16.796875
236,-4.23,2021-12-17 16:32:16.812500
237,-5.45,2021-12-17 16:32:16.828125
238,-6.13,2021-12-17 16:32:16.843750
239,-6.03,2021-12-17 16:32:16.859375
240,-5.37,2021-12-17 16:32:16.875000
241,-4.6,2021-12-17 16:32:16.890625
242,-4.18,2021-12-17 16:32:16.906250
243,-4.16,2021-12-17 16:32:16.921875
244,-4.18,2021-12-17 16:32:16.937500
245,-3.72,2021-12-17 16:32:16.953125
246,-2.53,2021-12-17 16:32:16.968750
247,-0.82,2021-12-17 16:32:16.984375
248,0.77,2021-12-17 16:32:17.000000
249,1.58,2021-12-17 16:32:17.015625
250,1.34,2021-12-17 16:32:17.031250
251,0.29,2021-12-17 16:32:17.046875
252,-0.97,2021-12-17 16:32:17.062500
253,-1.8,2021-12-17 16:32:17.078125
254,-1.97,2021-12-17 16:32:17.093750
255,-1.67,2021-12-17 16:32:17.109375
256,-1.3,2021-12-17 16:32:17.125000
257,-1.15,2021-12-17 16:32:17.140625
258,-1.27,2021-12-17 16:32:17.156250
259,-1.46,2021-12-17 16:32:17.171875
260,-1.45,2021-12-17 16:32:17.187500
261,-0.98,2021-12-17 16:32:17.203125
262,-0.02,2021-12-17 16:32:17.218750
263,1.3,2021-12-17 16:32:17.234375
264,2.76,2021-12-17 16:32:17.250000
265,4.13,2021-12-17 16:32:17.265625
266,5.29,2021-12-17 16:32:17.281250
267,6.35,2021-12-17 16:32:17.296875
268,7.62,2021-12-17 16:32:17.312500
269,9.4,2021-12-17 16:32:17.328125
270,11.84,2021-12-17 16:32:17.343750
271,14.59,2021-12-17 16:32:17.359375
272,16.94,2021-12-17 16:32:17.375000
273,18.07,2021-12-17 16:32:17.390625
274,17.57,2021-12-17 16:32:17.406250
275,15.67,2021-12-17 16:32:17.421875
276,13.22,2021-12-17 16:32:17.437500
277,11.01,2021-12-17 16:32:17.453125
278,9.28,2021-12-17 16:32:17.468750
279,7.57,2021-12-17 16:32:17.484375
280,5.1,2021-12-17 16:32:17.500000
281,1.34,2021-12-17 16:32:17.515625
282,-3.53,2021-12-17 16:32:17.531250
283,-8.67,2021-12-17 16:32:17.546875
284,-13.12,2021-12-17 16:32:17.562500
285,-16.35,2021-12-17 16:32:17.578125
286,-18.82,2021-12-17 16:32:17.593750
287,-21.85,2021-12-17 16:32:17.609375
288,-26.92,2021-12-17 16:32:17.625000
289,-34.87,2021-12-17 16:32:17.640625
290,-45.36,2021-12-17 16:32:17.656250
291,-56.91,2021-12-17 16:32:17.671875
292,-67.52,2021-12-17 16:32:17.687500
293,-75.52,2021-12-17 16:32:17.703125
294,-80.36,2021-12-17 16:32:17.718750
295,-82.4,2021-12-17 16:32:17.734375
296,-82.1,2021-12-17 16:32:17.750000
297,-78.98,2021-12-17 16:32:17.765625
298,-71.34,2021-12-17 16:32:17.781250
299,-57.32,2021-12-17 16:32:17.796875
300,-36.41,2021-12-17 16:32:17.812500
301,-10.48,2021-12-17 16:32:17.828125
302,16.8,2021-12-17 16:32:17.843750
303,41.6,2021-12-17 16:32:17.859375
304,61.87,2021-12-17 16:32:17.875000
305,77.94,2021-12-17 16:32:17.890625
306,91.4,2021-12-17 16:32:17.906250
307,103.23,2021-12-17 16:32:17.921875
308,112.52,2021-12-17 16:32:17.937500
309,117.02,2021-12-17 16:32:17.953125
310,114.77,2021-12-17 16:32:17.968750
311,105.94,2021-12-17 16:32:17.984375
312,93.07,2021-12-17 16:32:18.000000
313,79.95,2021-12-17 16:32:18.015625
314,69.47,2021-12-17 16:32:18.031250
315,62.18,2021-12-17 16:32:18.046875
316,56.45,2021-12-17 16:32:18.062500
317,49.96,2021-12-17 16:32:18.078125
318,41.36,2021-12-17 16:32:18.093750
319,30.98,2021-12-17 16:32:18.109375
320,20.49,2021-12-17 16:32:18.125000
321,11.86,2021-12-17 16:32:18.140625
322,6.45,2021-12-17 16:32:18.156250
323,4.46,2021-12-17 16:32:18.171875
324,4.84,2021-12-17 16:32:18.187500
325,5.85,2021-12-17 16:32:18.203125
326,5.71,2021-12-17 16:32:18.218750
327,3.34,2021-12-17 16:32:18.234375
328,-1.38,2021-12-17 16:32:18.250000
329,-7.69,2021-12-17 16:32:18.265625
330,-14.63,2021-12-17 16:32:18.281250
331,-21.57,2021-12-17 16:32:18.296875
332,-28.47,2021-12-17 16:32:18.312500
333,-35.68,2021-12-17 16:32:18.328125
334,-43.31,2021-12-17 16:32:18.343750
335,-50.72,2021-12-17 16:32:18.359375
336,-56.68,2021-12-17 16:32:18.375000
337,-59.94,2021-12-17 16:32:18.390625
338,-60.12,2021-12-17 16:32:18.406250
339,-58.31,2021-12-17 16:32:18.421875
340,-56.67,2021-12-17 16:32:18.437500
341,-57.41,2021-12-17 16:32:18.453125
342,-61.64,2021-12-17 16:32:18.468750
343,-68.62,2021-12-17 16:32:18.484375
344,-76.13,2021-12-17 16:32:18.500000
345,-81.69,2021-12-17 16:32:18.515625
346,-83.67,2021-12-17 16:32:18.531250
347,-81.86,2021-12-17 16:32:18.546875
348,-77.19,2021-12-17 16:32:18.562500
349,-70.85,2021-12-17 16:32:18.578125
350,-63.48,2021-12-17 16:32:18.593750
351,-54.99,2021-12-17 16:32:18.609375
352,-44.86,2021-12-17 16:32:18.625000
353,-32.72,2021-12-17 16:32:18.640625
354,-18.82,2021-12-17 16:32:18.656250
355,-3.8,2021-12-17 16:32:18.671875
356,11.66,2021-12-17 16:32:18.687500
357,27.28,2021-12-17 16:32:18.703125
358,43.16,2021-12-17 16:32:18.718750
359,59.56,2021-12-17 16:32:18.734375
360,76.44,2021-12-17 16:32:18.750000
361,93.07,2021-12-17 16:32:18.765625
362,108.08,2021-12-17 16:32:18.781250
363,119.58,2021-12-17 16:32:18.796875
364,125.75,2021-12-17 16:32:18.812500
365,125.24,2021-12-17 16:32:18.828125
366,117.55,2021-12-17 16:32:18.843750
367,103.2,2021-12-17 16:32:18.859375
368,83.7,2021-12-17 16:32:18.875000
369,61.15,2021-12-17 16:32:18.890625
370,37.94,2021-12-17 16:32:18.906250
371,16.37,2021-12-17 16:32:18.921875
372,-1.84,2021-12-17 16:32:18.937500
373,-15.51,2021-12-17 16:32:18.953125
374,-24.3,2021-12-17 16:32:18.968750
375,-28.64,2021-12-17 16:32:18.984375
376,-29.6,2021-12-17 16:32:19.000000
377,-28.5,2021-12-17 16:32:19.015625
378,-26.71,2021-12-17 16:32:19.031250
379,-25.15,2021-12-17 16:32:19.046875
380,-24.22,2021-12-17 16:32:19.062500
381,-23.99,2021-12-17 16:32:19.078125
382,-24.35,2021-12-17 16:32:19.093750
383,-25.34,2021-12-17 16:32:19.109375
384,-27.13,2021-12-17 16:32:19.125000
385,-29.8,2021-12-17 16:32:19.140625
386,-33.23,2021-12-17 16:32:19.156250
387,-37.14,2021-12-17 16:32:19.171875
388,-41.18,2021-12-17 16:32:19.187500
389,-45.07,2021-12-17 16:32:19.203125
390,-48.85,2021-12-17 16:32:19.218750
391,-52.64,2021-12-17 16:32:19.234375
392,-56.48,2021-12-17 16:32:19.250000
393,-60.04,2021-12-17 16:32:19.265625
394,-62.64,2021-12-17 16:32:19.281250
395,-63.53,2021-12-17 16:32:19.296875
396,-62.37,2021-12-17 16:32:19.312500
397,-59.46,2021-12-17 16:32:19.328125
398,-55.59,2021-12-17 16:32:19.343750
399,-51.71,2021-12-17 16:32:19.359375
400,-48.53,2021-12-17 16:32:19.375000
401,-46.21,2021-12-17 16:32:19.390625
402,-44.43,2021-12-17 16:32:19.406250
403,-42.65,2021-12-17 16:32:19.421875
404,-40.51,2021-12-17 16:32:19.437500
405,-37.91,2021-12-17 16:32:19.453125
406,-35.08,2021-12-17 16:32:19.468750
407,-32.47,2021-12-17 16:32:19.484375
408,-30.56,2021-12-17 16:32:19.500000
409,-29.65,2021-12-17 16:32:19.515625
410,-29.72,2021-12-17 16:32:19.531250
411,-30.27,2021-12-17 16:32:19.546875
412,-30.34,2021-12-17 16:32:19.562500
413,-28.77,2021-12-17 16:32:19.578125
414,-24.57,2021-12-17 16:32:19.593750
415,-17.41,2021-12-17 16:32:19.609375
416,-7.88,2021-12-17 16:32:19.625000
417,2.56,2021-12-17 16:32:19.640625
418,12.23,2021-12-17 16:32:19.656250
419,19.83,2021-12-17 16:32:19.671875
420,24.78,2021-12-17 16:32:19.687500
421,27.32,2021-12-17 16:32:19.703125
422,28.08,2021-12-17 16:32:19.718750
423,27.63,2021-12-17 16:32:19.734375
424,26.18,2021-12-17 16:32:19.750000
425,23.63,2021-12-17 16:32:19.765625
426,19.76,2021-12-17 16:32:19.781250
427,14.6,2021-12-17 16:32:19.796875
428,8.42,2021-12-17 16:32:19.812500
429,1.66,2021-12-17 16:32:19.828125
430,-5.21,2021-12-17 16:32:19.843750
431,-11.65,2021-12-17 16:32:19.859375
432,-17.11,2021-12-17 16:32:19.875000
433,-20.94,2021-12-17 16:32:19.890625
434,-22.47,2021-12-17 16:32:19.906250
435,-21.31,2021-12-17 16:32:19.921875
436,-17.51,2021-12-17 16:32:19.937500
437,-11.69,2021-12-17 16:32:19.953125
438,-4.72,2021-12-17 16:32:19.968750
439,2.49,2021-12-17 16:32:19.984375
440,9.28,2021-12-17 16:32:20.000000
441,15.28,2021-12-17 16:32:20.015625
442,20.3,2021-12-17 16:32:20.031250
443,24.26,2021-12-17 16:32:20.046875
444,27.07,2021-12-17 16:32:20.062500
445,28.72,2021-12-17 16:32:20.078125
446,29.21,2021-12-17 16:32:20.093750
447,28.62,2021-12-17 16:32:20.109375
448,27.08,2021-12-17 16:32:20.125000
449,24.65,2021-12-17 16:32:20.140625
450,21.41,2021-12-17 16:32:20.156250
451,17.5,2021-12-17 16:32:20.171875
452,13.18,2021-12-17 16:32:20.187500
453,8.9,2021-12-17 16:32:20.203125
454,5.22,2021-12-17 16:32:20.218750
455,2.54,2021-12-17 16:32:20.234375
456,0.95,2021-12-17 16:32:20.250000
457,0.23,2021-12-17 16:32:20.265625
458,-0.13,2021-12-17 16:32:20.281250
459,-0.74,2021-12-17 16:32:20.296875
460,-1.98,2021-12-17 16:32:20.312500
461,-3.93,2021-12-17 16:32:20.328125
462,-6.33,2021-12-17 16:32:20.343750
463,-8.67,2021-12-17 16:32:20.359375
464,-10.49,2021-12-17 16:32:20.375000
465,-11.51,2021-12-17 16:32:20.390625
466,-11.69,2021-12-17 16:32:20.406250
467,-11.13,2021-12-17 16:32:20.421875
468,-9.97,2021-12-17 16:32:20.437500
469,-8.24,2021-12-17 16:32:20.453125
470,-6.02,2021-12-17 16:32:20.468750
471,-3.53,2021-12-17 16:32:20.484375
472,-1.19,2021-12-17 16:32:20.500000
473,0.45,2021-12-17 16:32:20.515625
474,0.87,2021-12-17 16:32:20.531250
475,-0.11,2021-12-17 16:32:20.546875
476,-2.26,2021-12-17 16:32:20.562500
477,-4.86,2021-12-17 16:32:20.578125
478,-6.98,2021-12-17 16:32:20.593750
479,-7.63,2021-12-17 16:32:20.609375
480,-6.03,2021-12-17 16:32:20.625000
481,-1.69,2021-12-17 16:32:20.640625
482,5.36,2021-12-17 16:32:20.656250
483,14.71,2021-12-17 16:32:20.671875
484,25.55,2021-12-17 16:32:20.687500
485,36.87,2021-12-17 16:32:20.703125
486,47.72,2021-12-17 16:32:20.718750
487,57.51,2021-12-17 16:32:20.734375
488,66.37,2021-12-17 16:32:20.750000
489,75.24,2021-12-17 16:32:20.765625
490,85.46,2021-12-17 16:32:20.781250
491,98.06,2021-12-17 16:32:20.796875
492,113.11,2021-12-17 16:32:20.812500
493,129.16,2021-12-17 16:32:20.828125
494,143.41,2021-12-17 16:32:20.843750
495,152.43,2021-12-17 16:32:20.859375
496,153.32,2021-12-17 16:32:20.875000
497,144.69,2021-12-17 16:32:20.890625
498,127.14,2021-12-17 16:32:20.906250
499,103.0,2021-12-17 16:32:20.921875
500,75.62,2021-12-17 16:32:20.937500
501,48.55,2021-12-17 16:32:20.953125
502,24.58,2021-12-17 16:32:20.968750
503,5.42,2021-12-17 16:32:20.984375
504,-8.46,2021-12-17 16:32:21.000000
505,-17.5,2021-12-17 16:32:21.015625
506,-22.77,2021-12-17 16:32:21.031250
507,-25.52,2021-12-17 16:32:21.046875
508,-26.8,2021-12-17 16:32:21.062500
509,-27.07,2021-12-17 16:32:21.078125
510,-26.21,2021-12-17 16:32:21.093750
511,-23.91,2021-12-17 16:32:21.109375
512,-20.0,2021-12-17 16:32:21.125000
513,-14.67,2021-12-17 16:32:21.140625
514,-8.39,2021-12-17 16:32:21.156250
515,-1.71,2021-12-17 16:32:21.171875
516,5.08,2021-12-17 16:32:21.187500
517,12.06,2021-12-17 16:32:21.203125
518,19.64,2021-12-17 16:32:21.218750
519,27.99,2021-12-17 16:32:21.234375
520,36.59,2021-12-17 16:32:21.250000
521,44.2,2021-12-17 16:32:21.265625
522,49.49,2021-12-17 16:32:21.281250
523,51.93,2021-12-17 16:32:21.296875
524,52.43,2021-12-17 16:32:21.312500
525,53.0,2021-12-17 16:32:21.328125
526,55.85,2021-12-17 16:32:21.343750
527,62.25,2021-12-17 16:32:21.359375
528,71.96,2021-12-17 16:32:21.375000
529,83.39,2021-12-17 16:32:21.390625
530,94.61,2021-12-17 16:32:21.406250
531,104.45,2021-12-17 16:32:21.421875
532,112.95,2021-12-17 16:32:21.437500
533,120.73,2021-12-17 16:32:21.453125
534,127.86,2021-12-17 16:32:21.468750
535,133.14,2021-12-17 16:32:21.484375
536,134.33,2021-12-17 16:32:21.500000
537,129.29,2021-12-17 16:32:21.515625
538,116.79,2021-12-17 16:32:21.531250
539,96.37,2021-12-17 16:32:21.546875
540,67.58,2021-12-17 16:32:21.562500
541,29.21,2021-12-17 16:32:21.578125
542,-20.53,2021-12-17 16:32:21.593750
543,-82.68,2021-12-17 16:32:21.609375
544,-155.69,2021-12-17 16:32:21.625000
545,-234.32,2021-12-17 16:32:21.640625
546,-307.79,2021-12-17 16:32:21.656250
547,-362.77,2021-12-17 16:32:21.671875
548,-388.67,2021-12-17 16:32:21.687500
549,-382.12,2021-12-17 16:32:21.703125
550,-348.14,2021-12-17 16:32:21.718750
551,-296.95,2021-12-17 16:32:21.734375
552,-238.82,2021-12-17 16:32:21.750000
553,-180.38,2021-12-17 16:32:21.765625
554,-124.58,2021-12-17 16:32:21.781250
555,-72.0,2021-12-17 16:32:21.796875
556,-22.55,2021-12-17 16:32:21.812500
557,23.1,2021-12-17 16:32:21.828125
558,63.84,2021-12-17 16:32:21.843750
559,98.57,2021-12-17 16:32:21.859375
560,126.92,2021-12-17 16:32:21.875000
561,149.47,2021-12-17 16:32:21.890625
562,170.07,2021-12-17 16:32:21.906250
563,190.33,2021-12-17 16:32:21.921875
564,209.58,2021-12-17 16:32:21.937500
565,225.14,2021-12-17 16:32:21.953125
566,232.79,2021-12-17 16:32:21.968750
567,227.88,2021-12-17 16:32:21.984375
568,206.7,2021-12-17 16:32:22.000000
569,167.67,2021-12-17 16:32:22.015625
570,111.55,2021-12-17 16:32:22.031250
571,39.04,2021-12-17 16:32:22.046875
572,-44.35,2021-12-17 16:32:22.062500
573,-131.48,2021-12-17 16:32:22.078125
574,-214.45,2021-12-17 16:32:22.093750
575,-284.81,2021-12-17 16:32:22.109375
576,-334.52,2021-12-17 16:32:22.125000
577,-357.73,2021-12-17 16:32:22.140625
578,-353.13,2021-12-17 16:32:22.156250
579,-328.42,2021-12-17 16:32:22.171875
580,-291.33,2021-12-17 16:32:22.187500
581,-250.71,2021-12-17 16:32:22.203125
582,-214.69,2021-12-17 16:32:22.218750
583,-188.16,2021-12-17 16:32:22.234375
584,-172.18,2021-12-17 16:32:22.250000
585,-164.94,2021-12-17 16:32:22.265625
586,-163.8,2021-12-17 16:32:22.281250
587,-166.56,2021-12-17 16:32:22.296875
588,-171.76,2021-12-17 16:32:22.312500
589,-177.75,2021-12-17 16:32:22.328125
590,-183.02,2021-12-17 16:32:22.343750
591,-186.26,2021-12-17 16:32:22.359375
592,-186.22,2021-12-17 16:32:22.375000
593,-182.46,2021-12-17 16:32:22.390625
594,-175.49,2021-12-17 16:32:22.406250
595,-166.71,2021-12-17 16:32:22.421875
596,-157.87,2021-12-17 16:32:22.437500
597,-150.41,2021-12-17 16:32:22.453125
598,-144.44,2021-12-17 16:32:22.468750
599,-139.4,2021-12-17 16:32:22.484375
600,-134.4,2021-12-17 16:32:22.500000
601,-128.27,2021-12-17 16:32:22.515625
602,-119.96,2021-12-17 16:32:22.531250
603,-108.85,2021-12-17 16:32:22.546875
604,-94.71,2021-12-17 16:32:22.562500
605,-77.41,2021-12-17 16:32:22.578125
606,-56.87,2021-12-17 16:32:22.593750
607,-32.52,2021-12-17 16:32:22.609375
608,-3.87,2021-12-17 16:32:22.625000
609,29.28,2021-12-17 16:32:22.640625
610,66.93,2021-12-17 16:32:22.656250
611,108.6,2021-12-17 16:32:22.671875
612,153.26,2021-12-17 16:32:22.687500
613,199.43,2021-12-17 16:32:22.703125
614,245.41,2021-12-17 16:32:22.718750
615,289.74,2021-12-17 16:32:22.734375
616,331.44,2021-12-17 16:32:22.750000
617,369.57,2021-12-17 16:32:22.765625
618,402.5,2021-12-17 16:32:22.781250
619,427.79,2021-12-17 16:32:22.796875
620,442.23,2021-12-17 16:32:22.812500
621,442.71,2021-12-17 16:32:22.828125
622,427.58,2021-12-17 16:32:22.843750
623,397.62,2021-12-17 16:32:22.859375
624,356.3,2021-12-17 16:32:22.875000
625,308.69,2021-12-17 16:32:22.890625
626,260.02,2021-12-17 16:32:22.906250
627,214.14,2021-12-17 16:32:22.921875
628,173.23,2021-12-17 16:32:22.937500
629,138.13,2021-12-17 16:32:22.953125
630,108.97,2021-12-17 16:32:22.968750
631,85.84,2021-12-17 16:32:22.984375
632,68.72,2021-12-17 16:32:23.000000
633,57.31,2021-12-17 16:32:23.015625
634,50.52,2021-12-17 16:32:23.031250
635,46.63,2021-12-17 16:32:23.046875
636,43.71,2021-12-17 16:32:23.062500
637,40.29,2021-12-17 16:32:23.078125
638,35.8,2021-12-17 16:32:23.093750
639,30.42,2021-12-17 16:32:23.109375
640,24.79,2021-12-17 16:32:23.125000
641,19.48,2021-12-17 16:32:23.140625
642,14.72,2021-12-17 16:32:23.156250
643,10.22,2021-12-17 16:32:23.171875
644,5.51,2021-12-17 16:32:23.187500
645,0.2,2021-12-17 16:32:23.203125
646,-5.77,2021-12-17 16:32:23.218750
647,-12.01,2021-12-17 16:32:23.234375
648,-17.93,2021-12-17 16:32:23.250000
649,-22.91,2021-12-17 16:32:23.265625
650,-26.54,2021-12-17 16:32:23.281250
651,-28.67,2021-12-17 16:32:23.296875
652,-29.48,2021-12-17 16:32:23.312500
653,-29.31,2021-12-17 16:32:23.328125
654,-28.61,2021-12-17 16:32:23.343750
655,-27.81,2021-12-17 16:32:23.359375
656,-27.13,2021-12-17 16:32:23.375000
657,-26.59,2021-12-17 16:32:23.390625
658,-26.03,2021-12-17 16:32:23.406250
659,-25.14,2021-12-17 16:32:23.421875
660,-23.68,2021-12-17 16:32:23.437500
661,-21.56,2021-12-17 16:32:23.453125
662,-18.92,2021-12-17 16:32:23.468750
663,-16.08,2021-12-17 16:32:23.484375
664,-13.45,2021-12-17 16:32:23.500000
665,-11.27,2021-12-17 16:32:23.515625
666,-9.68,2021-12-17 16:32:23.531250
667,-8.66,2021-12-17 16:32:23.546875
668,-8.1,2021-12-17 16:32:23.562500
669,-7.93,2021-12-17 16:32:23.578125
670,-8.12,2021-12-17 16:32:23.593750
671,-8.6,2021-12-17 16:32:23.609375
672,-9.19,2021-12-17 16:32:23.625000
673,-9.63,2021-12-17 16:32:23.640625
674,-9.57,2021-12-17 16:32:23.656250
675,-8.87,2021-12-17 16:32:23.671875
676,-7.58,2021-12-17 16:32:23.687500
677,-6.0,2021-12-17 16:32:23.703125
678,-4.6,2021-12-17 16:32:23.718750
679,-3.84,2021-12-17 16:32:23.734375
680,-3.95,2021-12-17 16:32:23.750000
681,-4.91,2021-12-17 16:32:23.765625
682,-6.47,2021-12-17 16:32:23.781250
683,-8.22,2021-12-17 16:32:23.796875
684,-9.88,2021-12-17 16:32:23.812500
685,-11.2,2021-12-17 16:32:23.828125
686,-12.18,2021-12-17 16:32:23.843750
687,-12.96,2021-12-17 16:32:23.859375
688,-13.8,2021-12-17 16:32:23.875000
689,-14.84,2021-12-17 16:32:23.890625
690,-16.1,2021-12-17 16:32:23.906250
691,-17.47,2021-12-17 16:32:23.921875
692,-18.8,2021-12-17 16:32:23.937500
693,-20.02,2021-12-17 16:32:23.953125
694,-21.07,2021-12-17 16:32:23.968750
695,-22.02,2021-12-17 16:32:23.984375
696,-22.93,2021-12-17 16:32:24.000000
697,-23.79,2021-12-17 16:32:24.015625
698,-24.45,2021-12-17 16:32:24.031250
699,-24.67,2021-12-17 16:32:24.046875
700,-24.11,2021-12-17 16:32:24.062500
701,-22.39,2021-12-17 16:32:24.078125
702,-19.12,2021-12-17 16:32:24.093750
703,-13.92,2021-12-17 16:32:24.109375
704,-6.6,2021-12-17 16:32:24.125000
705,2.8,2021-12-17 16:32:24.140625
706,13.98,2021-12-17 16:32:24.156250
707,26.35,2021-12-17 16:32:24.171875
708,39.23,2021-12-17 16:32:24.187500
709,51.91,2021-12-17 16:32:24.203125
710,63.85,2021-12-17 16:32:24.218750
711,74.65,2021-12-17 16:32:24.234375
712,84.04,2021-12-17 16:32:24.250000
713,91.68,2021-12-17 16:32:24.265625
714,97.11,2021-12-17 16:32:24.281250
715,99.82,2021-12-17 16:32:24.296875
716,99.35,2021-12-17 16:32:24.312500
717,95.6,2021-12-17 16:32:24.328125
718,88.87,2021-12-17 16:32:24.343750
719,79.86,2021-12-17 16:32:24.359375
720,69.33,2021-12-17 16:32:24.375000
721,57.94,2021-12-17 16:32:24.390625
722,45.92,2021-12-17 16:32:24.406250
723,33.13,2021-12-17 16:32:24.421875
724,19.1,2021-12-17 16:32:24.437500
725,3.24,2021-12-17 16:32:24.453125
726,-14.86,2021-12-17 16:32:24.468750
727,-35.36,2021-12-17 16:32:24.484375
728,-58.0,2021-12-17 16:32:24.500000
729,-82.14,2021-12-17 16:32:24.515625
730,-106.79,2021-12-17 16:32:24.531250
731,-130.78,2021-12-17 16:32:24.546875
732,-152.93,2021-12-17 16:32:24.562500
733,-172.7,2021-12-17 16:32:24.578125
734,-190.51,2021-12-17 16:32:24.593750
735,-207.55,2021-12-17 16:32:24.609375
736,-225.12,2021-12-17 16:32:24.625000
737,-243.97,2021-12-17 16:32:24.640625
738,-263.52,2021-12-17 16:32:24.656250
739,-281.6,2021-12-17 16:32:24.671875
740,-295.03,2021-12-17 16:32:24.687500
741,-300.38,2021-12-17 16:32:24.703125
742,-295.11,2021-12-17 16:32:24.718750
743,-278.06,2021-12-17 16:32:24.734375
744,-249.38,2021-12-17 16:32:24.750000
745,-210.03,2021-12-17 16:32:24.765625
746,-161.58,2021-12-17 16:32:24.781250
747,-106.32,2021-12-17 16:32:24.796875
748,-47.69,2021-12-17 16:32:24.812500
749,9.62,2021-12-17 16:32:24.828125
750,60.45,2021-12-17 16:32:24.843750
751,100.37,2021-12-17 16:32:24.859375
752,127.21,2021-12-17 16:32:24.875000
753,141.39,2021-12-17 16:32:24.890625
754,145.34,2021-12-17 16:32:24.906250
755,141.94,2021-12-17 16:32:24.921875
756,133.03,2021-12-17 16:32:24.937500
757,118.67,2021-12-17 16:32:24.953125
758,97.83,2021-12-17 16:32:24.968750
759,69.96,2021-12-17 16:32:24.984375
760,36.26,2021-12-17 16:32:25.000000
761,0.24,2021-12-17 16:32:25.015625
762,-33.2,2021-12-17 16:32:25.031250
763,-59.37,2021-12-17 16:32:25.046875
764,-74.71,2021-12-17 16:32:25.062500
765,-77.12,2021-12-17 16:32:25.078125
766,-65.97,2021-12-17 16:32:25.093750
767,-41.86,2021-12-17 16:32:25.109375
768,-6.38,2021-12-17 16:32:25.125000
769,37.52,2021-12-17 16:32:25.140625
770,85.57,2021-12-17 16:32:25.156250
771,132.56,2021-12-17 16:32:25.171875
772,173.09,2021-12-17 16:32:25.187500
773,202.83,2021-12-17 16:32:25.203125
774,219.82,2021-12-17 16:32:25.218750
775,224.87,2021-12-17 16:32:25.234375
776,221.1,2021-12-17 16:32:25.250000
777,212.43,2021-12-17 16:32:25.265625
778,201.94,2021-12-17 16:32:25.281250
779,191.19,2021-12-17 16:32:25.296875
780,180.22,2021-12-17 16:32:25.312500
781,168.53,2021-12-17 16:32:25.328125
782,155.8,2021-12-17 16:32:25.343750
783,142.1,2021-12-17 16:32:25.359375
784,127.65,2021-12-17 16:32:25.375000
785,112.22,2021-12-17 16:32:25.390625
786,94.92,2021-12-17 16:32:25.406250
787,74.51,2021-12-17 16:32:25.421875
788,50.41,2021-12-17 16:32:25.437500
789,23.22,2021-12-17 16:32:25.453125
790,-5.09,2021-12-17 16:32:25.468750
791,-31.81,2021-12-17 16:32:25.484375
792,-54.49,2021-12-17 16:32:25.500000
793,-71.6,2021-12-17 16:32:25.515625
794,-82.68,2021-12-17 16:32:25.531250
795,-87.99,2021-12-17 16:32:25.546875
796,-88.28,2021-12-17 16:32:25.562500
797,-84.47,2021-12-17 16:32:25.578125
798,-77.69,2021-12-17 16:32:25.593750
799,-69.16,2021-12-17 16:32:25.609375
800,-60.0,2021-12-17 16:32:25.625000
801,-51.21,2021-12-17 16:32:25.640625
802,-43.61,2021-12-17 16:32:25.656250
803,-37.7,2021-12-17 16:32:25.671875
804,-33.6,2021-12-17 16:32:25.687500
805,-31.03,2021-12-17 16:32:25.703125
806,-29.3,2021-12-17 16:32:25.718750
807,-27.59,2021-12-17 16:32:25.734375
808,-25.21,2021-12-17 16:32:25.750000
809,-21.74,2021-12-17 16:32:25.765625
810,-17.29,2021-12-17 16:32:25.781250
811,-12.34,2021-12-17 16:32:25.796875
812,-7.67,2021-12-17 16:32:25.812500
813,-4.03,2021-12-17 16:32:25.828125
814,-1.95,2021-12-17 16:32:25.843750
815,-1.61,2021-12-17 16:32:25.859375
816,-2.91,2021-12-17 16:32:25.875000
817,-5.51,2021-12-17 16:32:25.890625
818,-8.93,2021-12-17 16:32:25.906250
819,-12.78,2021-12-17 16:32:25.921875
820,-16.62,2021-12-17 16:32:25.937500
821,-20.23,2021-12-17 16:32:25.953125
822,-23.4,2021-12-17 16:32:25.968750
823,-26.19,2021-12-17 16:32:25.984375
824,-28.73,2021-12-17 16:32:26.000000
825,-31.41,2021-12-17 16:32:26.015625
826,-34.78,2021-12-17 16:32:26.031250
827,-39.44,2021-12-17 16:32:26.046875
828,-45.8,2021-12-17 16:32:26.062500
829,-53.82,2021-12-17 16:32:26.078125
830,-62.99,2021-12-17 16:32:26.093750
831,-72.39,2021-12-17 16:32:26.109375
832,-81.26,2021-12-17 16:32:26.125000
833,-89.12,2021-12-17 16:32:26.140625
834,-96.06,2021-12-17 16:32:26.156250
835,-102.47,2021-12-17 16:32:26.171875
836,-108.39,2021-12-17 16:32:26.187500
837,-113.25,2021-12-17 16:32:26.203125
838,-115.69,2021-12-17 16:32:26.218750
839,-114.01,2021-12-17 16:32:26.234375
840,-106.74,2021-12-17 16:32:26.250000
841,-93.06,2021-12-17 16:32:26.265625
842,-72.84,2021-12-17 16:32:26.281250
843,-46.64,2021-12-17 16:32:26.296875
844,-15.62,2021-12-17 16:32:26.312500
845,18.49,2021-12-17 16:32:26.328125
846,53.21,2021-12-17 16:32:26.343750
847,85.54,2021-12-17 16:32:26.359375
848,112.42,2021-12-17 16:32:26.375000
849,131.66,2021-12-17 16:32:26.390625
850,142.54,2021-12-17 16:32:26.406250
851,146.16,2021-12-17 16:32:26.421875
852,144.94,2021-12-17 16:32:26.437500
853,141.6,2021-12-17 16:32:26.453125
854,138.07,2021-12-17 16:32:26.468750
855,134.95,2021-12-17 16:32:26.484375
856,131.62,2021-12-17 16:32:26.500000
857,126.9,2021-12-17 16:32:26.515625
858,119.9,2021-12-17 16:32:26.531250
859,110.58,2021-12-17 16:32:26.546875
860,99.67,2021-12-17 16:32:26.562500
861,88.22,2021-12-17 16:32:26.578125
862,77.01,2021-12-17 16:32:26.593750
863,66.22,2021-12-17 16:32:26.609375
864,55.23,2021-12-17 16:32:26.625000
865,43.12,2021-12-17 16:32:26.640625
866,29.28,2021-12-17 16:32:26.656250
867,13.92,2021-12-17 16:32:26.671875
868,-1.5,2021-12-17 16:32:26.687500
869,-14.47,2021-12-17 16:32:26.703125
870,-22.12,2021-12-17 16:32:26.718750
871,-21.96,2021-12-17 16:32:26.734375
872,-12.76,2021-12-17 16:32:26.750000
873,4.92,2021-12-17 16:32:26.765625
874,28.82,2021-12-17 16:32:26.781250
875,55.53,2021-12-17 16:32:26.796875
876,81.42,2021-12-17 16:32:26.812500
877,103.41,2021-12-17 16:32:26.828125
878,119.44,2021-12-17 16:32:26.843750
879,128.55,2021-12-17 16:32:26.859375
880,130.67,2021-12-17 16:32:26.875000
881,126.45,2021-12-17 16:32:26.890625
882,117.05,2021-12-17 16:32:26.906250
883,103.98,2021-12-17 16:32:26.921875
884,88.78,2021-12-17 16:32:26.937500
885,72.83,2021-12-17 16:32:26.953125
886,57.02,2021-12-17 16:32:26.968750
887,41.75,2021-12-17 16:32:26.984375
888,27.06,2021-12-17 16:32:27.000000
889,12.79,2021-12-17 16:32:27.015625
890,-1.2,2021-12-17 16:32:27.031250
891,-14.94,2021-12-17 16:32:27.046875
892,-28.32,2021-12-17 16:32:27.062500
893,-41.35,2021-12-17 16:32:27.078125
894,-54.3,2021-12-17 16:32:27.093750
895,-67.89,2021-12-17 16:32:27.109375
896,-83.26,2021-12-17 16:32:27.125000
897,-101.7,2021-12-17 16:32:27.140625
898,-123.84,2021-12-17 16:32:27.156250
899,-148.98,2021-12-17 16:32:27.171875
900,-174.49,2021-12-17 16:32:27.187500
901,-195.93,2021-12-17 16:32:27.203125
902,-208.1,2021-12-17 16:32:27.218750
903,-206.65,2021-12-17 16:32:27.234375
904,-189.8,2021-12-17 16:32:27.250000
905,-159.07,2021-12-17 16:32:27.265625
906,-119.0,2021-12-17 16:32:27.281250
907,-75.63,2021-12-17 16:32:27.296875
908,-34.63,2021-12-17 16:32:27.312500
909,0.1,2021-12-17 16:32:27.328125
910,27.09,2021-12-17 16:32:27.343750
911,46.71,2021-12-17 16:32:27.359375
912,60.33,2021-12-17 16:32:27.375000
913,69.23,2021-12-17 16:32:27.390625
914,74.23,2021-12-17 16:32:27.406250
915,75.72,2021-12-17 16:32:27.421875
916,74.02,2021-12-17 16:32:27.437500
917,69.64,2021-12-17 16:32:27.453125
918,63.29,2021-12-17 16:32:27.468750
919,55.69,2021-12-17 16:32:27.484375
920,47.35,2021-12-17 16:32:27.500000
921,38.57,2021-12-17 16:32:27.515625
922,29.7,2021-12-17 16:32:27.531250
923,21.49,2021-12-17 16:32:27.546875
924,15.03,2021-12-17 16:32:27.562500
925,11.49,2021-12-17 16:32:27.578125
926,11.49,2021-12-17 16:32:27.593750
927,14.68,2021-12-17 16:32:27.609375
928,19.58,2021-12-17 16:32:27.625000
929,24.07,2021-12-17 16:32:27.640625
930,26.1,2021-12-17 16:32:27.656250
931,24.45,2021-12-17 16:32:27.671875
932,19.11,2021-12-17 16:32:27.687500
933,11.07,2021-12-17 16:32:27.703125
934,1.9,2021-12-17 16:32:27.718750
935,-6.91,2021-12-17 16:32:27.734375
936,-14.36,2021-12-17 16:32:27.750000
937,-19.96,2021-12-17 16:32:27.765625
938,-23.76,2021-12-17 16:32:27.781250
939,-26.09,2021-12-17 16:32:27.796875
940,-27.43,2021-12-17 16:32:27.812500
941,-28.39,2021-12-17 16:32:27.828125
942,-29.57,2021-12-17 16:32:27.843750
943,-31.55,2021-12-17 16:32:27.859375
944,-34.67,2021-12-17 16:32:27.875000
945,-39.1,2021-12-17 16:32:27.890625
946,-44.72,2021-12-17 16:32:27.906250
947,-51.27,2021-12-17 16:32:27.921875
948,-58.39,2021-12-17 16:32:27.937500
949,-65.78,2021-12-17 16:32:27.953125
950,-73.18,2021-12-17 16:32:27.968750
951,-80.46,2021-12-17 16:32:27.984375
952,-87.55,2021-12-17 16:32:28.000000
953,-94.47,2021-12-17 16:32:28.015625
954,-101.43,2021-12-17 16:32:28.031250
955,-108.72,2021-12-17 16:32:28.046875
956,-116.69,2021-12-17 16:32:28.062500
957,-125.34,2021-12-17 16:32:28.078125
958,-134.19,2021-12-17 16:32:28.093750
959,-141.98,2021-12-17 16:32:28.109375
960,-146.89,2021-12-17 16:32:28.125000
961,-147.02,2021-12-17 16:32:28.140625
962,-141.13,2021-12-17 16:32:28.156250
963,-129.07,2021-12-17 16:32:28.171875
964,-111.95,2021-12-17 16:32:28.187500
965,-91.76,2021-12-17 16:32:28.203125
966,-70.68,2021-12-17 16:32:28.218750
967,-50.37,2021-12-17 16:32:28.234375
968,-31.82,2021-12-17 16:32:28.250000
969,-15.26,2021-12-17 16:32:28.265625
970,-0.65,2021-12-17 16:32:28.281250
971,12.0,2021-12-17 16:32:28.296875
972,22.58,2021-12-17 16:32:28.312500
973,30.87,2021-12-17 16:32:28.328125
974,36.9,2021-12-17 16:32:28.343750
975,40.89,2021-12-17 16:32:28.359375
976,43.29,2021-12-17 16:32:28.375000
977,44.48,2021-12-17 16:32:28.390625
978,44.74,2021-12-17 16:32:28.406250
979,44.17,2021-12-17 16:32:28.421875
980,42.92,2021-12-17 16:32:28.437500
981,41.32,2021-12-17 16:32:28.453125
982,39.65,2021-12-17 16:32:28.468750
983,38.09,2021-12-17 16:32:28.484375
984,36.39,2021-12-17 16:32:28.500000
985,34.11,2021-12-17 16:32:28.515625
986,30.83,2021-12-17 16:32:28.531250
987,26.66,2021-12-17 16:32:28.546875
988,22.38,2021-12-17 16:32:28.562500
989,19.18,2021-12-17 16:32:28.578125
990,18.3,2021-12-17 16:32:28.593750
991,20.26,2021-12-17 16:32:28.609375
992,24.81,2021-12-17 16:32:28.625000
993,31.07,2021-12-17 16:32:28.640625
994,37.94,2021-12-17 16:32:28.656250
995,44.51,2021-12-17 16:32:28.671875
996,50.17,2021-12-17 16:32:28.687500
997,54.51,2021-12-17 16:32:28.703125
998,57.12,2021-12-17 16:32:28.718750
999,57.6,2021-12-17 16:32:28.734375
1000,55.67,2021-12-17 16:32:28.750000
1001,51.43,2021-12-17 16:32:28.765625
1002,45.53,2021-12-17 16:32:28.781250
1003,39.06,2021-12-17 16:32:28.796875
1004,33.25,2021-12-17 16:32:28.812500
1005,29.03,2021-12-17 16:32:28.828125
1006,26.79,2021-12-17 16:32:28.843750
1007,26.21,2021-12-17 16:32:28.859375
1008,26.63,2021-12-17 16:32:28.875000
1009,27.36,2021-12-17 16:32:28.890625
1010,28.07,2021-12-17 16:32:28.906250
1011,28.99,2021-12-17 16:32:28.921875
1012,30.6,2021-12-17 16:32:28.937500
1013,33.48,2021-12-17 16:32:28.953125
1014,37.86,2021-12-17 16:32:28.968750
1015,43.52,2021-12-17 16:32:28.984375
1016,49.79,2021-12-17 16:32:29.000000
1017,55.92,2021-12-17 16:32:29.015625
1018,61.32,2021-12-17 16:32:29.031250
1019,65.71,2021-12-17 16:32:29.046875
1020,69.02,2021-12-17 16:32:29.062500
1021,71.17,2021-12-17 16:32:29.078125
1022,72.02,2021-12-17 16:32:29.093750
1023,71.26,2021-12-17 16:32:29.109375
1024,68.52,2021-12-17 16:32:29.125000
1025,63.28,2021-12-17 16:32:29.140625
1026,55.15,2021-12-17 16:32:29.156250
1027,43.63,2021-12-17 16:32:29.171875
1028,28.12,2021-12-17 16:32:29.187500
1029,7.98,2021-12-17 16:32:29.203125
1030,-17.03,2021-12-17 16:32:29.218750
1031,-46.25,2021-12-17 16:32:29.234375
1032,-77.96,2021-12-17 16:32:29.250000
1033,-109.57,2021-12-17 16:32:29.265625
1034,-138.69,2021-12-17 16:32:29.281250
1035,-163.85,2021-12-17 16:32:29.296875
1036,-185.11,2021-12-17 16:32:29.312500
1037,-203.55,2021-12-17 16:32:29.328125
1038,-220.43,2021-12-17 16:32:29.343750
1039,-236.12,2021-12-17 16:32:29.359375
1040,-249.74,2021-12-17 16:32:29.375000
1041,-259.71,2021-12-17 16:32:29.390625
1042,-264.54,2021-12-17 16:32:29.406250
1043,-263.52,2021-12-17 16:32:29.421875
1044,-256.59,2021-12-17 16:32:29.437500
1045,-243.64,2021-12-17 16:32:29.453125
1046,-223.82,2021-12-17 16:32:29.468750
1047,-195.72,2021-12-17 16:32:29.484375
1048,-158.17,2021-12-17 16:32:29.500000
1049,-111.48,2021-12-17 16:32:29.515625
1050,-58.01,2021-12-17 16:32:29.531250
1051,-1.86,2021-12-17 16:32:29.546875
1052,52.4,2021-12-17 16:32:29.562500
1053,100.97,2021-12-17 16:32:29.578125
1054,141.56,2021-12-17 16:32:29.593750
1055,173.44,2021-12-17 16:32:29.609375
1056,196.69,2021-12-17 16:32:29.625000
1057,211.51,2021-12-17 16:32:29.640625
1058,218.08,2021-12-17 16:32:29.656250
1059,216.87,2021-12-17 16:32:29.671875
1060,209.06,2021-12-17 16:32:29.687500
1061,196.57,2021-12-17 16:32:29.703125
1062,181.59,2021-12-17 16:32:29.718750
1063,166.05,2021-12-17 16:32:29.734375
1064,151.24,2021-12-17 16:32:29.750000
1065,138.05,2021-12-17 16:32:29.765625
1066,127.47,2021-12-17 16:32:29.781250
1067,120.92,2021-12-17 16:32:29.796875
1068,119.96,2021-12-17 16:32:29.812500
1069,125.43,2021-12-17 16:32:29.828125
1070,136.58,2021-12-17 16:32:29.843750
1071,150.74,2021-12-17 16:32:29.859375
1072,164.16,2021-12-17 16:32:29.875000
1073,173.31,2021-12-17 16:32:29.890625
1074,176.06,2021-12-17 16:32:29.906250
1075,172.12,2021-12-17 16:32:29.921875
1076,162.39,2021-12-17 16:32:29.937500
1077,147.95,2021-12-17 16:32:29.953125
1078,129.43,2021-12-17 16:32:29.968750
1079,107.11,2021-12-17 16:32:29.984375
1080,81.61,2021-12-17 16:32:30.000000
1081,54.39,2021-12-17 16:32:30.015625
1082,27.83,2021-12-17 16:32:30.031250
1083,4.27,2021-12-17 16:32:30.046875
1084,-14.93,2021-12-17 16:32:30.062500
1085,-29.97,2021-12-17 16:32:30.078125
1086,-42.34,2021-12-17 16:32:30.093750
1087,-53.72,2021-12-17 16:32:30.109375
1088,-64.97,2021-12-17 16:32:30.125000
1089,-75.6,2021-12-17 16:32:30.140625
1090,-84.18,2021-12-17 16:32:30.156250
1091,-89.14,2021-12-17 16:32:30.171875
1092,-89.79,2021-12-17 16:32:30.187500
1093,-86.72,2021-12-17 16:32:30.203125
1094,-81.71,2021-12-17 16:32:30.218750
1095,-76.92,2021-12-17 16:32:30.234375
1096,-73.94,2021-12-17 16:32:30.250000
1097,-73.33,2021-12-17 16:32:30.265625
1098,-74.56,2021-12-17 16:32:30.281250
1099,-76.41,2021-12-17 16:32:30.296875
1100,-77.57,2021-12-17 16:32:30.312500
1101,-77.02,2021-12-17 16:32:30.328125
1102,-74.19,2021-12-17 16:32:30.343750
1103,-68.96,2021-12-17 16:32:30.359375
1104,-61.7,2021-12-17 16:32:30.375000
1105,-53.17,2021-12-17 16:32:30.390625
1106,-44.62,2021-12-17 16:32:30.406250
1107,-37.55,2021-12-17 16:32:30.421875
1108,-33.28,2021-12-17 16:32:30.437500
1109,-32.51,2021-12-17 16:32:30.453125
1110,-35.17,2021-12-17 16:32:30.468750
1111,-40.55,2021-12-17 16:32:30.484375
1112,-47.63,2021-12-17 16:32:30.500000
1113,-55.61,2021-12-17 16:32:30.515625
1114,-64.02,2021-12-17 16:32:30.531250
1115,-72.64,2021-12-17 16:32:30.546875
1116,-81.18,2021-12-17 16:32:30.562500
1117,-89.13,2021-12-17 16:32:30.578125
1118,-95.85,2021-12-17 16:32:30.593750
1119,-100.83,2021-12-17 16:32:30.609375
1120,-103.93,2021-12-17 16:32:30.625000
1121,-105.32,2021-12-17 16:32:30.640625
1122,-105.23,2021-12-17 16:32:30.656250
1123,-103.58,2021-12-17 16:32:30.671875
1124,-99.98,2021-12-17 16:32:30.687500
1125,-93.97,2021-12-17 16:32:30.703125
1126,-85.5,2021-12-17 16:32:30.718750
1127,-75.26,2021-12-17 16:32:30.734375
1128,-64.45,2021-12-17 16:32:30.750000
1129,-54.33,2021-12-17 16:32:30.765625
1130,-45.58,2021-12-17 16:32:30.781250
1131,-38.0,2021-12-17 16:32:30.796875
1132,-30.72,2021-12-17 16:32:30.812500
1133,-22.84,2021-12-17 16:32:30.828125
1134,-14.08,2021-12-17 16:32:30.843750
1135,-4.95,2021-12-17 16:32:30.859375
1136,3.43,2021-12-17 16:32:30.875000
1137,10.1,2021-12-17 16:32:30.890625
1138,14.68,2021-12-17 16:32:30.906250
1139,17.6,2021-12-17 16:32:30.921875
1140,19.72,2021-12-17 16:32:30.937500
1141,22.0,2021-12-17 16:32:30.953125
1142,25.19,2021-12-17 16:32:30.968750
1143,29.75,2021-12-17 16:32:30.984375
1144,36.0,2021-12-17 16:32:31.000000
1145,44.2,2021-12-17 16:32:31.015625
1146,54.54,2021-12-17 16:32:31.031250
1147,66.87,2021-12-17 16:32:31.046875
1148,80.69,2021-12-17 16:32:31.062500
1149,95.18,2021-12-17 16:32:31.078125
1150,109.63,2021-12-17 16:32:31.093750
1151,123.58,2021-12-17 16:32:31.109375
1152,136.97,2021-12-17 16:32:31.125000
1153,149.77,2021-12-17 16:32:31.140625
1154,161.59,2021-12-17 16:32:31.156250
1155,171.56,2021-12-17 16:32:31.171875
1156,178.36,2021-12-17 16:32:31.187500
1157,180.7,2021-12-17 16:32:31.203125
1158,177.89,2021-12-17 16:32:31.218750
1159,169.91,2021-12-17 16:32:31.234375
1160,157.27,2021-12-17 16:32:31.250000
1161,140.51,2021-12-17 16:32:31.265625
1162,119.95,2021-12-17 16:32:31.281250
1163,95.82,2021-12-17 16:32:31.296875
1164,68.55,2021-12-17 16:32:31.312500
1165,39.2,2021-12-17 16:32:31.328125
1166,9.59,2021-12-17 16:32:31.343750
1167,-17.96,2021-12-17 16:32:31.359375
1168,-41.19,2021-12-17 16:32:31.375000
1169,-58.32,2021-12-17 16:32:31.390625
1170,-68.42,2021-12-17 16:32:31.406250
1171,-71.41,2021-12-17 16:32:31.421875
1172,-67.98,2021-12-17 16:32:31.437500
1173,-59.4,2021-12-17 16:32:31.453125
1174,-47.4,2021-12-17 16:32:31.468750
1175,-33.84,2021-12-17 16:32:31.484375
1176,-20.34,2021-12-17 16:32:31.500000
1177,-7.8,2021-12-17 16:32:31.515625
1178,3.68,2021-12-17 16:32:31.531250
1179,14.37,2021-12-17 16:32:31.546875
1180,23.96,2021-12-17 16:32:31.562500
1181,31.2,2021-12-17 16:32:31.578125
1182,33.87,2021-12-17 16:32:31.593750
1183,29.74,2021-12-17 16:32:31.609375
1184,17.77,2021-12-17 16:32:31.625000
1185,-1.28,2021-12-17 16:32:31.640625
1186,-25.08,2021-12-17 16:32:31.656250
1187,-50.81,2021-12-17 16:32:31.671875
1188,-76.32,2021-12-17 16:32:31.687500
1189,-100.89,2021-12-17 16:32:31.703125
1190,-124.86,2021-12-17 16:32:31.718750
1191,-149.01,2021-12-17 16:32:31.734375
1192,-173.6,2021-12-17 16:32:31.750000
1193,-198.33,2021-12-17 16:32:31.765625
1194,-222.53,2021-12-17 16:32:31.781250
1195,-245.47,2021-12-17 16:32:31.796875
1196,-266.44,2021-12-17 16:32:31.812500
1197,-284.06,2021-12-17 16:32:31.828125
1198,-296.12,2021-12-17 16:32:31.843750
1199,-299.85,2021-12-17 16:32:31.859375
1200,-293.17,2021-12-17 16:32:31.875000
1201,-275.69,2021-12-17 16:32:31.890625
1202,-249.02,2021-12-17 16:32:31.906250
1203,-215.81,2021-12-17 16:32:31.921875
1204,-178.19,2021-12-17 16:32:31.937500
1205,-136.67,2021-12-17 16:32:31.953125
1206,-90.12,2021-12-17 16:32:31.968750
1207,-37.21,2021-12-17 16:32:31.984375
1208,22.19,2021-12-17 16:32:32.000000
1209,85.61,2021-12-17 16:32:32.015625
1210,148.48,2021-12-17 16:32:32.031250
1211,205.7,2021-12-17 16:32:32.046875
1212,254.06,2021-12-17 16:32:32.062500
1213,293.24,2021-12-17 16:32:32.078125
1214,324.84,2021-12-17 16:32:32.093750
1215,350.64,2021-12-17 16:32:32.109375
1216,370.39,2021-12-17 16:32:32.125000
1217,381.22,2021-12-17 16:32:32.140625
1218,378.61,2021-12-17 16:32:32.156250
1219,358.93,2021-12-17 16:32:32.171875
1220,321.86,2021-12-17 16:32:32.187500
1221,271.04,2021-12-17 16:32:32.203125
1222,212.78,2021-12-17 16:32:32.218750
1223,153.09,2021-12-17 16:32:32.234375
1224,95.71,2021-12-17 16:32:32.250000
1225,41.59,2021-12-17 16:32:32.265625
1226,-9.83,2021-12-17 16:32:32.281250
1227,-59.1,2021-12-17 16:32:32.296875
1228,-105.89,2021-12-17 16:32:32.312500
1229,-149.2,2021-12-17 16:32:32.328125
1230,-188.4,2021-12-17 16:32:32.343750
1231,-224.0,2021-12-17 16:32:32.359375
1232,-257.64,2021-12-17 16:32:32.375000
1233,-291.21,2021-12-17 16:32:32.390625
1234,-325.48,2021-12-17 16:32:32.406250
1235,-358.96,2021-12-17 16:32:32.421875
1236,-387.93,2021-12-17 16:32:32.437500
1237,-407.3,2021-12-17 16:32:32.453125
1238,-412.22,2021-12-17 16:32:32.468750
1239,-400.0,2021-12-17 16:32:32.484375
1240,-370.92,2021-12-17 16:32:32.500000
1241,-328.25,2021-12-17 16:32:32.515625
1242,-276.92,2021-12-17 16:32:32.531250
1243,-222.26,2021-12-17 16:32:32.546875
1244,-168.25,2021-12-17 16:32:32.562500
1245,-116.57,2021-12-17 16:32:32.578125
1246,-67.18,2021-12-17 16:32:32.593750
1247,-19.43,2021-12-17 16:32:32.609375
1248,26.93,2021-12-17 16:32:32.625000
1249,71.6,2021-12-17 16:32:32.640625
1250,113.8,2021-12-17 16:32:32.656250
1251,152.83,2021-12-17 16:32:32.671875
1252,188.13,2021-12-17 16:32:32.687500
1253,219.14,2021-12-17 16:32:32.703125
1254,245.53,2021-12-17 16:32:32.718750
1255,267.37,2021-12-17 16:32:32.734375
1256,284.89,2021-12-17 16:32:32.750000
1257,298.08,2021-12-17 16:32:32.765625
1258,306.32,2021-12-17 16:32:32.781250
1259,308.17,2021-12-17 16:32:32.796875
1260,301.83,2021-12-17 16:32:32.812500
1261,286.07,2021-12-17 16:32:32.828125
1262,261.0,2021-12-17 16:32:32.843750
1263,228.29,2021-12-17 16:32:32.859375
1264,190.83,2021-12-17 16:32:32.875000
1265,151.71,2021-12-17 16:32:32.890625
1266,113.51,2021-12-17 16:32:32.906250
1267,78.17,2021-12-17 16:32:32.921875
1268,47.13,2021-12-17 16:32:32.937500
1269,21.73,2021-12-17 16:32:32.953125
1270,3.35,2021-12-17 16:32:32.968750
1271,-6.91,2021-12-17 16:32:32.984375
1272,-8.82,2021-12-17 16:32:33.000000
1273,-3.44,2021-12-17 16:32:33.015625
1274,6.85,2021-12-17 16:32:33.031250
1275,18.96,2021-12-17 16:32:33.046875
1276,30.13,2021-12-17 16:32:33.062500
1277,38.67,2021-12-17 16:32:33.078125
1278,44.23,2021-12-17 16:32:33.093750
1279,47.5,2021-12-17 16:32:33.109375
1280,49.44,2021-12-17 16:32:33.125000
1281,50.68,2021-12-17 16:32:33.140625
1282,51.12,2021-12-17 16:32:33.156250
1283,50.12,2021-12-17 16:32:33.171875
1284,46.79,2021-12-17 16:32:33.187500
1285,40.64,2021-12-17 16:32:33.203125
1286,31.59,2021-12-17 16:32:33.218750
1287,20.12,2021-12-17 16:32:33.234375
1288,7.06,2021-12-17 16:32:33.250000
1289,-6.58,2021-12-17 16:32:33.265625
1290,-19.83,2021-12-17 16:32:33.281250
1291,-31.86,2021-12-17 16:32:33.296875
1292,-42.16,2021-12-17 16:32:33.312500
1293,-50.57,2021-12-17 16:32:33.328125
1294,-57.13,2021-12-17 16:32:33.343750
1295,-61.99,2021-12-17 16:32:33.359375
1296,-65.14,2021-12-17 16:32:33.375000
1297,-66.42,2021-12-17 16:32:33.390625
1298,-65.64,2021-12-17 16:32:33.406250
1299,-62.66,2021-12-17 16:32:33.421875
1300,-57.49,2021-12-17 16:32:33.437500
1301,-50.48,2021-12-17 16:32:33.453125
1302,-42.25,2021-12-17 16:32:33.468750
1303,-33.67,2021-12-17 16:32:33.484375
1304,-25.84,2021-12-17 16:32:33.500000
1305,-19.86,2021-12-17 16:32:33.515625
1306,-16.55,2021-12-17 16:32:33.531250
1307,-16.38,2021-12-17 16:32:33.546875
1308,-19.22,2021-12-17 16:32:33.562500
1309,-24.45,2021-12-17 16:32:33.578125
1310,-31.16,2021-12-17 16:32:33.593750
1311,-38.36,2021-12-17 16:32:33.609375
1312,-45.28,2021-12-17 16:32:33.625000
1313,-51.55,2021-12-17 16:32:33.640625
1314,-57.35,2021-12-17 16:32:33.656250
1315,-63.11,2021-12-17 16:32:33.671875
1316,-69.25,2021-12-17 16:32:33.687500
1317,-75.5,2021-12-17 16:32:33.703125
1318,-80.74,2021-12-17 16:32:33.718750
1319,-83.2,2021-12-17 16:32:33.734375
1320,-81.12,2021-12-17 16:32:33.750000
1321,-73.45,2021-12-17 16:32:33.765625
1322,-60.38,2021-12-17 16:32:33.781250
1323,-43.15,2021-12-17 16:32:33.796875
1324,-23.34,2021-12-17 16:32:33.812500
1325,-2.18,2021-12-17 16:32:33.828125
1326,20.0,2021-12-17 16:32:33.843750
1327,43.17,2021-12-17 16:32:33.859375
1328,66.97,2021-12-17 16:32:33.875000
1329,90.05,2021-12-17 16:32:33.890625
1330,110.12,2021-12-17 16:32:33.906250
1331,124.57,2021-12-17 16:32:33.921875
1332,131.57,2021-12-17 16:32:33.937500
1333,130.82,2021-12-17 16:32:33.953125
1334,123.51,2021-12-17 16:32:33.968750
1335,112.03,2021-12-17 16:32:33.984375
1336,98.92,2021-12-17 16:32:34.000000
1337,86.02,2021-12-17 16:32:34.015625
1338,74.51,2021-12-17 16:32:34.031250
1339,65.08,2021-12-17 16:32:34.046875
1340,58.25,2021-12-17 16:32:34.062500
1341,54.47,2021-12-17 16:32:34.078125
1342,54.29,2021-12-17 16:32:34.093750
1343,57.92,2021-12-17 16:32:34.109375
1344,65.13,2021-12-17 16:32:34.125000
1345,75.11,2021-12-17 16:32:34.140625
1346,86.67,2021-12-17 16:32:34.156250
1347,98.87,2021-12-17 16:32:34.171875
1348,110.88,2021-12-17 16:32:34.187500
1349,121.99,2021-12-17 16:32:34.203125
1350,131.22,2021-12-17 16:32:34.218750
1351,137.53,2021-12-17 16:32:34.234375
1352,140.06,2021-12-17 16:32:34.250000
1353,138.77,2021-12-17 16:32:34.265625
1354,134.54,2021-12-17 16:32:34.281250
1355,129.16,2021-12-17 16:32:34.296875
1356,124.86,2021-12-17 16:32:34.312500
1357,123.13,2021-12-17 16:32:34.328125
1358,124.41,2021-12-17 16:32:34.343750
1359,127.62,2021-12-17 16:32:34.359375
1360,130.78,2021-12-17 16:32:34.375000
1361,131.4,2021-12-17 16:32:34.390625
1362,127.23,2021-12-17 16:32:34.406250
1363,116.56,2021-12-17 16:32:34.421875
1364,98.7,2021-12-17 16:32:34.437500
1365,74.64,2021-12-17 16:32:34.453125
1366,46.41,2021-12-17 16:32:34.468750
1367,16.88,2021-12-17 16:32:34.484375
1368,-11.6,2021-12-17 16:32:34.500000
1369,-38.14,2021-12-17 16:32:34.515625
1370,-63.96,2021-12-17 16:32:34.531250
1371,-92.04,2021-12-17 16:32:34.546875
1372,-126.1,2021-12-17 16:32:34.562500
1373,-168.92,2021-12-17 16:32:34.578125
1374,-220.5,2021-12-17 16:32:34.593750
1375,-278.15,2021-12-17 16:32:34.609375
1376,-336.89,2021-12-17 16:32:34.625000
1377,-390.27,2021-12-17 16:32:34.640625
1378,-430.1,2021-12-17 16:32:34.656250
1379,-448.36,2021-12-17 16:32:34.671875
1380,-439.99,2021-12-17 16:32:34.687500
1381,-405.38,2021-12-17 16:32:34.703125
1382,-350.2,2021-12-17 16:32:34.718750
1383,-282.37,2021-12-17 16:32:34.734375
1384,-210.36,2021-12-17 16:32:34.750000
1385,-136.34,2021-12-17 16:32:34.765625
1386,-59.54,2021-12-17 16:32:34.781250
1387,21.48,2021-12-17 16:32:34.796875
1388,106.78,2021-12-17 16:32:34.812500
1389,194.18,2021-12-17 16:32:34.828125
1390,279.41,2021-12-17 16:32:34.843750
1391,352.79,2021-12-17 16:32:34.859375
1392,405.47,2021-12-17 16:32:34.875000
1393,430.55,2021-12-17 16:32:34.890625
1394,425.02,2021-12-17 16:32:34.906250
1395,389.81,2021-12-17 16:32:34.921875
1396,329.94,2021-12-17 16:32:34.937500
1397,253.24,2021-12-17 16:32:34.953125
1398,168.6,2021-12-17 16:32:34.968750
1399,84.29,2021-12-17 16:32:34.984375
1400,7.02,2021-12-17 16:32:35.000000
1401,-57.9,2021-12-17 16:32:35.015625
1402,-107.02,2021-12-17 16:32:35.031250
1403,-138.53,2021-12-17 16:32:35.046875
1404,-152.86,2021-12-17 16:32:35.062500
1405,-152.25,2021-12-17 16:32:35.078125
1406,-140.46,2021-12-17 16:32:35.093750
1407,-121.94,2021-12-17 16:32:35.109375
1408,-101.04,2021-12-17 16:32:35.125000
1409,-80.9,2021-12-17 16:32:35.140625
1410,-62.61,2021-12-17 16:32:35.156250
1411,-45.75,2021-12-17 16:32:35.171875
1412,-28.93,2021-12-17 16:32:35.187500
1413,-11.4,2021-12-17 16:32:35.203125
1414,6.65,2021-12-17 16:32:35.218750
1415,24.02,2021-12-17 16:32:35.234375
1416,38.89,2021-12-17 16:32:35.250000
1417,49.45,2021-12-17 16:32:35.265625
1418,54.46,2021-12-17 16:32:35.281250
1419,54.0,2021-12-17 16:32:35.296875
1420,49.04,2021-12-17 16:32:35.312500
1421,41.1,2021-12-17 16:32:35.328125
1422,31.29,2021-12-17 16:32:35.343750
1423,19.88,2021-12-17 16:32:35.359375
1424,6.24,2021-12-17 16:32:35.375000
1425,-10.99,2021-12-17 16:32:35.390625
1426,-32.98,2021-12-17 16:32:35.406250
1427,-59.81,2021-12-17 16:32:35.421875
1428,-89.46,2021-12-17 16:32:35.437500
1429,-117.84,2021-12-17 16:32:35.453125
1430,-139.65,2021-12-17 16:32:35.468750
1431,-149.92,2021-12-17 16:32:35.484375
1432,-145.58,2021-12-17 16:32:35.500000
1433,-126.39,2021-12-17 16:32:35.515625
1434,-95.16,2021-12-17 16:32:35.531250
1435,-56.83,2021-12-17 16:32:35.546875
1436,-17.18,2021-12-17 16:32:35.562500
1437,18.67,2021-12-17 16:32:35.578125
1438,47.17,2021-12-17 16:32:35.593750
1439,66.41,2021-12-17 16:32:35.609375
1440,76.04,2021-12-17 16:32:35.625000
1441,76.64,2021-12-17 16:32:35.640625
1442,69.48,2021-12-17 16:32:35.656250
1443,56.14,2021-12-17 16:32:35.671875
1444,38.49,2021-12-17 16:32:35.687500
1445,18.36,2021-12-17 16:32:35.703125
1446,-2.65,2021-12-17 16:32:35.718750
1447,-23.55,2021-12-17 16:32:35.734375
1448,-44.18,2021-12-17 16:32:35.750000
1449,-64.93,2021-12-17 16:32:35.765625
1450,-86.19,2021-12-17 16:32:35.781250
1451,-107.47,2021-12-17 16:32:35.796875
1452,-126.84,2021-12-17 16:32:35.812500
1453,-141.17,2021-12-17 16:32:35.828125
1454,-147.28,2021-12-17 16:32:35.843750
1455,-143.28,2021-12-17 16:32:35.859375
1456,-129.54,2021-12-17 16:32:35.875000
1457,-108.66,2021-12-17 16:32:35.890625
1458,-84.21,2021-12-17 16:32:35.906250
1459,-59.16,2021-12-17 16:32:35.921875
1460,-34.75,2021-12-17 16:32:35.937500
1461,-10.31,2021-12-17 16:32:35.953125
1462,15.86,2021-12-17 16:32:35.968750
1463,45.01,2021-12-17 16:32:35.984375
1464,76.99,2021-12-17 16:32:36.000000
1465,109.82,2021-12-17 16:32:36.015625
1466,140.45,2021-12-17 16:32:36.031250
1467,165.78,2021-12-17 16:32:36.046875
1468,183.55,2021-12-17 16:32:36.062500
1469,192.82,2021-12-17 16:32:36.078125
1470,194.07,2021-12-17 16:32:36.093750
1471,188.8,2021-12-17 16:32:36.109375
1472,179.01,2021-12-17 16:32:36.125000
1473,166.82,2021-12-17 16:32:36.140625
1474,154.05,2021-12-17 16:32:36.156250
1475,142.13,2021-12-17 16:32:36.171875
1476,132.06,2021-12-17 16:32:36.187500
1477,124.06,2021-12-17 16:32:36.203125
1478,117.38,2021-12-17 16:32:36.218750
1479,110.52,2021-12-17 16:32:36.234375
1480,101.64,2021-12-17 16:32:36.250000
1481,89.29,2021-12-17 16:32:36.265625
1482,73.06,2021-12-17 16:32:36.281250
1483,53.73,2021-12-17 16:32:36.296875
1484,32.92,2021-12-17 16:32:36.312500
1485,12.38,2021-12-17 16:32:36.328125
1486,-6.78,2021-12-17 16:32:36.343750
1487,-24.33,2021-12-17 16:32:36.359375
1488,-40.67,2021-12-17 16:32:36.375000
1489,-56.23,2021-12-17 16:32:36.390625
1490,-71.09,2021-12-17 16:32:36.406250
1491,-84.77,2021-12-17 16:32:36.421875
1492,-96.51,2021-12-17 16:32:36.437500
1493,-105.68,2021-12-17 16:32:36.453125
1494,-111.95,2021-12-17 16:32:36.468750
1495,-115.38,2021-12-17 16:32:36.484375
1496,-116.14,2021-12-17 16:32:36.500000
1497,-114.48,2021-12-17 16:32:36.515625
1498,-110.64,2021-12-17 16:32:36.531250
1499,-104.95,2021-12-17 16:32:36.546875
1500,-97.87,2021-12-17 16:32:36.562500
1501,-90.05,2021-12-17 16:32:36.578125
1502,-82.26,2021-12-17 16:32:36.593750
1503,-75.19,2021-12-17 16:32:36.609375
1504,-69.31,2021-12-17 16:32:36.625000
1505,-64.63,2021-12-17 16:32:36.640625
1506,-60.78,2021-12-17 16:32:36.656250
1507,-57.25,2021-12-17 16:32:36.671875
1508,-53.49,2021-12-17 16:32:36.687500
1509,-49.2,2021-12-17 16:32:36.703125
1510,-44.37,2021-12-17 16:32:36.718750
1511,-39.31,2021-12-17 16:32:36.734375
1512,-34.4,2021-12-17 16:32:36.750000
1513,-29.97,2021-12-17 16:32:36.765625
1514,-26.11,2021-12-17 16:32:36.781250
1515,-22.72,2021-12-17 16:32:36.796875
1516,-19.6,2021-12-17 16:32:36.812500
1517,-16.56,2021-12-17 16:32:36.828125
1518,-13.51,2021-12-17 16:32:36.843750
1519,-10.51,2021-12-17 16:32:36.859375
1520,-7.68,2021-12-17 16:32:36.875000
1521,-5.15,2021-12-17 16:32:36.890625
1522,-3.06,2021-12-17 16:32:36.906250
1523,-1.57,2021-12-17 16:32:36.921875
1524,-0.89,2021-12-17 16:32:36.937500
1525,-1.17,2021-12-17 16:32:36.953125
1526,-2.46,2021-12-17 16:32:36.968750
1527,-4.55,2021-12-17 16:32:36.984375
1528,-7.15,2021-12-17 16:32:37.000000
1529,-9.88,2021-12-17 16:32:37.015625
1530,-12.47,2021-12-17 16:32:37.031250
1531,-14.78,2021-12-17 16:32:37.046875
1532,-16.73,2021-12-17 16:32:37.062500
1533,-18.23,2021-12-17 16:32:37.078125
1534,-19.13,2021-12-17 16:32:37.093750
1535,-19.23,2021-12-17 16:32:37.109375
1536,-18.42,2021-12-17 16:32:37.125000
1537,-16.73,2021-12-17 16:32:37.140625
1538,-14.39,2021-12-17 16:32:37.156250
1539,-11.79,2021-12-17 16:32:37.171875
1540,-9.15,2021-12-17 16:32:37.187500
1541,-6.63,2021-12-17 16:32:37.203125
1542,-4.19,2021-12-17 16:32:37.218750
1543,-1.74,2021-12-17 16:32:37.234375
1544,0.75,2021-12-17 16:32:37.250000
1545,3.21,2021-12-17 16:32:37.265625
1546,5.47,2021-12-17 16:32:37.281250
1547,7.38,2021-12-17 16:32:37.296875
1548,8.76,2021-12-17 16:32:37.312500
1549,9.64,2021-12-17 16:32:37.328125
1550,10.09,2021-12-17 16:32:37.343750
1551,10.21,2021-12-17 16:32:37.359375
1552,10.06,2021-12-17 16:32:37.375000
1553,9.64,2021-12-17 16:32:37.390625
1554,8.84,2021-12-17 16:32:37.406250
1555,7.59,2021-12-17 16:32:37.421875
1556,5.92,2021-12-17 16:32:37.437500
1557,3.93,2021-12-17 16:32:37.453125
1558,1.82,2021-12-17 16:32:37.468750
1559,-0.18,2021-12-17 16:32:37.484375
1560,-1.93,2021-12-17 16:32:37.500000
1561,-3.32,2021-12-17 16:32:37.515625
1562,-4.41,2021-12-17 16:32:37.531250
1563,-5.3,2021-12-17 16:32:37.546875
1564,-6.07,2021-12-17 16:32:37.562500
1565,-6.78,2021-12-17 16:32:37.578125
1566,-7.33,2021-12-17 16:32:37.593750
1567,-7.65,2021-12-17 16:32:37.609375
1568,-7.66,2021-12-17 16:32:37.625000
1569,-7.38,2021-12-17 16:32:37.640625
1570,-6.79,2021-12-17 16:32:37.656250
1571,-6.01,2021-12-17 16:32:37.671875
1572,-5.17,2021-12-17 16:32:37.687500
1573,-4.35,2021-12-17 16:32:37.703125
1574,-3.62,2021-12-17 16:32:37.718750
1575,-3.01,2021-12-17 16:32:37.734375
1576,-2.5,2021-12-17 16:32:37.750000
1577,-2.07,2021-12-17 16:32:37.765625
1578,-1.71,2021-12-17 16:32:37.781250
1579,-1.37,2021-12-17 16:32:37.796875
1580,-1.05,2021-12-17 16:32:37.812500
1581,-0.73,2021-12-17 16:32:37.828125
1582,-0.4,2021-12-17 16:32:37.843750
1583,-0.07,2021-12-17 16:32:37.859375
1584,0.19,2021-12-17 16:32:37.875000
1585,0.33,2021-12-17 16:32:37.890625
1586,0.34,2021-12-17 16:32:37.906250
1587,0.28,2021-12-17 16:32:37.921875
1588,0.35,2021-12-17 16:32:37.937500
1589,0.7,2021-12-17 16:32:37.953125
1590,1.45,2021-12-17 16:32:37.968750
1591,2.6,2021-12-17 16:32:37.984375
1592,3.97,2021-12-17 16:32:38.000000
1593,5.29,2021-12-17 16:32:38.015625
1594,6.32,2021-12-17 16:32:38.031250
1595,6.95,2021-12-17 16:32:38.046875
1596,7.22,2021-12-17 16:32:38.062500
1597,7.22,2021-12-17 16:32:38.078125
1598,6.96,2021-12-17 16:32:38.093750
1599,6.44,2021-12-17 16:32:38.109375
1600,5.63,2021-12-17 16:32:38.125000
1601,4.5,2021-12-17 16:32:38.140625
1602,3.12,2021-12-17 16:32:38.156250
1603,1.63,2021-12-17 16:32:38.171875
1604,0.15,2021-12-17 16:32:38.187500
1605,-1.19,2021-12-17 16:32:38.203125
1606,-2.37,2021-12-17 16:32:38.218750
1607,-3.42,2021-12-17 16:32:38.234375
1608,-4.35,2021-12-17 16:32:38.250000
1609,-5.1,2021-12-17 16:32:38.265625
1610,-5.55,2021-12-17 16:32:38.281250
1611,-5.63,2021-12-17 16:32:38.296875
1612,-5.3,2021-12-17 16:32:38.312500
1613,-4.74,2021-12-17 16:32:38.328125
1614,-4.14,2021-12-17 16:32:38.343750
1615,-3.66,2021-12-17 16:32:38.359375
1616,-3.39,2021-12-17 16:32:38.375000
1617,-3.3,2021-12-17 16:32:38.390625
1618,-3.3,2021-12-17 16:32:38.406250
1619,-3.27,2021-12-17 16:32:38.421875
1620,-3.2,2021-12-17 16:32:38.437500
1621,-3.05,2021-12-17 16:32:38.453125
1622,-2.96,2021-12-17 16:32:38.468750
1623,-2.95,2021-12-17 16:32:38.484375
1624,-3.0,2021-12-17 16:32:38.500000
1625,-3.1,2021-12-17 16:32:38.515625
1626,-3.23,2021-12-17 16:32:38.531250
1627,-3.41,2021-12-17 16:32:38.546875
1628,-3.7,2021-12-17 16:32:38.562500
1629,-4.11,2021-12-17 16:32:38.578125
1630,-4.58,2021-12-17 16:32:38.593750
1631,-5.0,2021-12-17 16:32:38.609375
1632,-5.19,2021-12-17 16:32:38.625000
1633,-5.04,2021-12-17 16:32:38.640625
1634,-4.5,2021-12-17 16:32:38.656250
1635,-3.66,2021-12-17 16:32:38.671875
1636,-2.68,2021-12-17 16:32:38.687500
1637,-1.74,2021-12-17 16:32:38.703125
1638,-0.96,2021-12-17 16:32:38.718750
1639,-0.4,2021-12-17 16:32:38.734375
1640,-0.06,2021-12-17 16:32:38.750000
1641,0.14,2021-12-17 16:32:38.765625
1642,0.26,2021-12-17 16:32:38.781250
1643,0.31,2021-12-17 16:32:38.796875
1644,0.32,2021-12-17 16:32:38.812500
1645,0.27,2021-12-17 16:32:38.828125
1646,0.15,2021-12-17 16:32:38.843750
1647,0.0,2021-12-17 16:32:38.859375
1648,-0.09,2021-12-17 16:32:38.875000
1649,-0.12,2021-12-17 16:32:38.890625
1650,-0.03,2021-12-17 16:32:38.906250
1651,0.18,2021-12-17 16:32:38.921875
1652,0.41,2021-12-17 16:32:38.937500
1653,0.56,2021-12-17 16:32:38.953125
1654,0.53,2021-12-17 16:32:38.968750
1655,0.24,2021-12-17 16:32:38.984375
1656,-0.28,2021-12-17 16:32:39.000000
1657,-0.89,2021-12-17 16:32:39.015625
1658,-1.51,2021-12-17 16:32:39.031250
1659,-2.01,2021-12-17 16:32:39.046875
1660,-2.29,2021-12-17 16:32:39.062500
1661,-2.37,2021-12-17 16:32:39.078125
1662,-2.3,2021-12-17 16:32:39.093750
1663,-2.2,2021-12-17 16:32:39.109375
1664,-2.19,2021-12-17 16:32:39.125000
1665,-2.28,2021-12-17 16:32:39.140625
1666,-2.38,2021-12-17 16:32:39.156250
1667,-2.43,2021-12-17 16:32:39.171875
1668,-2.29,2021-12-17 16:32:39.187500
1669,-1.93,2021-12-17 16:32:39.203125
1670,-1.37,2021-12-17 16:32:39.218750
1671,-0.67,2021-12-17 16:32:39.234375
1672,0.07,2021-12-17 16:32:39.250000
1673,0.8,2021-12-17 16:32:39.265625
1674,1.5,2021-12-17 16:32:39.281250
1675,2.24,2021-12-17 16:32:39.296875
1676,2.99,2021-12-17 16:32:39.312500
1677,3.65,2021-12-17 16:32:39.328125
1678,4.05,2021-12-17 16:32:39.343750
1679,3.98,2021-12-17 16:32:39.359375
1680,3.41,2021-12-17 16:32:39.375000
1681,2.43,2021-12-17 16:32:39.390625
1682,1.28,2021-12-17 16:32:39.406250
1683,0.27,2021-12-17 16:32:39.421875
1684,-0.4,2021-12-17 16:32:39.437500
1685,-0.67,2021-12-17 16:32:39.453125
1686,-0.64,2021-12-17 16:32:39.468750
1687,-0.5,2021-12-17 16:32:39.484375
1688,-0.41,2021-12-17 16:32:39.500000
1689,-0.34,2021-12-17 16:32:39.515625
1690,-0.16,2021-12-17 16:32:39.531250
1691,0.21,2021-12-17 16:32:39.546875
1692,0.83,2021-12-17 16:32:39.562500
1693,1.58,2021-12-17 16:32:39.578125
1694,2.23,2021-12-17 16:32:39.593750
1695,2.61,2021-12-17 16:32:39.609375
1696,2.62,2021-12-17 16:32:39.625000
1697,2.32,2021-12-17 16:32:39.640625
1698,1.89,2021-12-17 16:32:39.656250
1699,1.46,2021-12-17 16:32:39.671875
1700,1.07,2021-12-17 16:32:39.687500
1701,0.7,2021-12-17 16:32:39.703125
1702,0.25,2021-12-17 16:32:39.718750
1703,-0.36,2021-12-17 16:32:39.734375
1704,-1.08,2021-12-17 16:32:39.750000
1705,-1.84,2021-12-17 16:32:39.765625
1706,-2.49,2021-12-17 16:32:39.781250
1707,-2.93,2021-12-17 16:32:39.796875
1708,-3.12,2021-12-17 16:32:39.812500
1709,-3.14,2021-12-17 16:32:39.828125
1710,-3.08,2021-12-17 16:32:39.843750
1711,-3.08,2021-12-17 16:32:39.859375
1712,-3.19,2021-12-17 16:32:39.875000
1713,-3.45,2021-12-17 16:32:39.890625
1714,-3.84,2021-12-17 16:32:39.906250
1715,-4.34,2021-12-17 16:32:39.921875
1716,-4.92,2021-12-17 16:32:39.937500
1717,-5.62,2021-12-17 16:32:39.953125
1718,-6.43,2021-12-17 16:32:39.968750
1719,-7.3,2021-12-17 16:32:39.984375
1720,-8.11,2021-12-17 16:32:40.000000
1721,-8.7,2021-12-17 16:32:40.015625
1722,-8.91,2021-12-17 16:32:40.031250
1723,-8.65,2021-12-17 16:32:40.046875
1724,-7.94,2021-12-17 16:32:40.062500
1725,-6.84,2021-12-17 16:32:40.078125
1726,-5.48,2021-12-17 16:32:40.093750
1727,-4.04,2021-12-17 16:32:40.109375
1728,-2.65,2021-12-17 16:32:40.125000
1729,-1.47,2021-12-17 16:32:40.140625
1730,-0.63,2021-12-17 16:32:40.156250
1731,-0.14,2021-12-17 16:32:40.171875
1732,-0.01,2021-12-17 16:32:40.187500
1733,-0.14,2021-12-17 16:32:40.203125
1734,-0.41,2021-12-17 16:32:40.218750
1735,-0.68,2021-12-17 16:32:40.234375
1736,-0.85,2021-12-17 16:32:40.250000
1737,-0.88,2021-12-17 16:32:40.265625
1738,-0.76,2021-12-17 16:32:40.281250
1739,-0.53,2021-12-17 16:32:40.296875
1740,-0.19,2021-12-17 16:32:40.312500
1741,0.2,2021-12-17 16:32:40.328125
1742,0.6,2021-12-17 16:32:40.343750
1743,0.97,2021-12-17 16:32:40.359375
1744,1.22,2021-12-17 16:32:40.375000
1745,1.23,2021-12-17 16:32:40.390625
1746,0.9,2021-12-17 16:32:40.406250
1747,0.23,2021-12-17 16:32:40.421875
1748,-0.76,2021-12-17 16:32:40.437500
1749,-1.93,2021-12-17 16:32:40.453125
1750,-3.13,2021-12-17 16:32:40.468750
1751,-4.28,2021-12-17 16:32:40.484375
1752,-5.29,2021-12-17 16:32:40.500000
1753,-6.15,2021-12-17 16:32:40.515625
1754,-6.89,2021-12-17 16:32:40.531250
1755,-7.5,2021-12-17 16:32:40.546875
1756,-7.96,2021-12-17 16:32:40.562500
1757,-8.24,2021-12-17 16:32:40.578125
1758,-8.36,2021-12-17 16:32:40.593750
1759,-8.37,2021-12-17 16:32:40.609375
1760,-8.36,2021-12-17 16:32:40.625000
1761,-8.36,2021-12-17 16:32:40.640625
1762,-8.45,2021-12-17 16:32:40.656250
1763,-8.57,2021-12-17 16:32:40.671875
1764,-8.69,2021-12-17 16:32:40.687500
1765,-8.75,2021-12-17 16:32:40.703125
1766,-8.68,2021-12-17 16:32:40.718750
1767,-8.45,2021-12-17 16:32:40.734375
1768,-7.99,2021-12-17 16:32:40.750000
1769,-7.32,2021-12-17 16:32:40.765625
1770,-6.4,2021-12-17 16:32:40.781250
1771,-5.28,2021-12-17 16:32:40.796875
1772,-3.96,2021-12-17 16:32:40.812500
1773,-2.54,2021-12-17 16:32:40.828125
1774,-1.09,2021-12-17 16:32:40.843750
1775,0.27,2021-12-17 16:32:40.859375
1776,1.46,2021-12-17 16:32:40.875000
1777,2.39,2021-12-17 16:32:40.890625
1778,3.02,2021-12-17 16:32:40.906250
1779,3.38,2021-12-17 16:32:40.921875
1780,3.51,2021-12-17 16:32:40.937500
1781,3.49,2021-12-17 16:32:40.953125
1782,3.34,2021-12-17 16:32:40.968750
1783,3.05,2021-12-17 16:32:40.984375
1784,2.61,2021-12-17 16:32:41.000000
1785,2.03,2021-12-17 16:32:41.015625
1786,1.41,2021-12-17 16:32:41.031250
1787,0.88,2021-12-17 16:32:41.046875
1788,0.59,2021-12-17 16:32:41.062500
1789,0.6,2021-12-17 16:32:41.078125
1790,0.85,2021-12-17 16:32:41.093750
1791,1.16,2021-12-17 16:32:41.109375
1792,1.35,2021-12-17 16:32:41.125000
1793,1.26,2021-12-17 16:32:41.140625
1794,0.78,2021-12-17 16:32:41.156250
1795,-0.07,2021-12-17 16:32:41.171875
1796,-1.23,2021-12-17 16:32:41.187500
1797,-2.58,2021-12-17 16:32:41.203125
1798,-4.07,2021-12-17 16:32:41.218750
1799,-5.68,2021-12-17 16:32:41.234375
1800,-7.47,2021-12-17 16:32:41.250000
1801,-9.53,2021-12-17 16:32:41.265625
1802,-11.89,2021-12-17 16:32:41.281250
1803,-14.55,2021-12-17 16:32:41.296875
1804,-17.36,2021-12-17 16:32:41.312500
1805,-20.1,2021-12-17 16:32:41.328125
1806,-22.48,2021-12-17 16:32:41.343750
1807,-24.26,2021-12-17 16:32:41.359375
1808,-25.24,2021-12-17 16:32:41.375000
1809,-25.31,2021-12-17 16:32:41.390625
1810,-24.47,2021-12-17 16:32:41.406250
1811,-22.74,2021-12-17 16:32:41.421875
1812,-20.25,2021-12-17 16:32:41.437500
1813,-17.19,2021-12-17 16:32:41.453125
1814,-13.79,2021-12-17 16:32:41.468750
1815,-10.32,2021-12-17 16:32:41.484375
1816,-6.99,2021-12-17 16:32:41.500000
1817,-3.92,2021-12-17 16:32:41.515625
1818,-1.15,2021-12-17 16:32:41.531250
1819,1.34,2021-12-17 16:32:41.546875
1820,3.59,2021-12-17 16:32:41.562500
1821,5.56,2021-12-17 16:32:41.578125
1822,7.19,2021-12-17 16:32:41.593750
1823,8.42,2021-12-17 16:32:41.609375
1824,9.2,2021-12-17 16:32:41.625000
1825,9.6,2021-12-17 16:32:41.640625
1826,9.73,2021-12-17 16:32:41.656250
1827,9.71,2021-12-17 16:32:41.671875
1828,9.63,2021-12-17 16:32:41.687500
1829,9.61,2021-12-17 16:32:41.703125
1830,9.65,2021-12-17 16:32:41.718750
1831,9.78,2021-12-17 16:32:41.734375
1832,10.04,2021-12-17 16:32:41.750000
1833,10.41,2021-12-17 16:32:41.765625
1834,10.9,2021-12-17 16:32:41.781250
1835,11.47,2021-12-17 16:32:41.796875
1836,12.11,2021-12-17 16:32:41.812500
1837,12.71,2021-12-17 16:32:41.828125
1838,13.24,2021-12-17 16:32:41.843750
1839,13.66,2021-12-17 16:32:41.859375
1840,13.94,2021-12-17 16:32:41.875000
1841,14.1,2021-12-17 16:32:41.890625
1842,14.13,2021-12-17 16:32:41.906250
1843,14.06,2021-12-17 16:32:41.921875
1844,13.88,2021-12-17 16:32:41.937500
1845,13.62,2021-12-17 16:32:41.953125
1846,13.3,2021-12-17 16:32:41.968750
1847,13.05,2021-12-17 16:32:41.984375
1848,12.98,2021-12-17 16:32:42.000000
1849,13.23,2021-12-17 16:32:42.015625
1850,13.87,2021-12-17 16:32:42.031250
1851,14.88,2021-12-17 16:32:42.046875
1852,16.32,2021-12-17 16:32:42.062500
1853,18.31,2021-12-17 16:32:42.078125
1854,21.03,2021-12-17 16:32:42.093750
1855,24.65,2021-12-17 16:32:42.109375
1856,29.17,2021-12-17 16:32:42.125000
1857,34.25,2021-12-17 16:32:42.140625
1858,39.29,2021-12-17 16:32:42.156250
1859,43.57,2021-12-17 16:32:42.171875
1860,46.18,2021-12-17 16:32:42.187500
1861,46.4,2021-12-17 16:32:42.203125
1862,43.84,2021-12-17 16:32:42.218750
1863,38.31,2021-12-17 16:32:42.234375
1864,29.72,2021-12-17 16:32:42.250000
1865,17.88,2021-12-17 16:32:42.265625
1866,2.36,2021-12-17 16:32:42.281250
1867,-17.48,2021-12-17 16:32:42.296875
1868,-42.19,2021-12-17 16:32:42.312500
1869,-71.97,2021-12-17 16:32:42.328125
1870,-105.65,2021-12-17 16:32:42.343750
1871,-140.25,2021-12-17 16:32:42.359375
1872,-171.36,2021-12-17 16:32:42.375000
1873,-194.11,2021-12-17 16:32:42.390625
1874,-204.57,2021-12-17 16:32:42.406250
1875,-200.82,2021-12-17 16:32:42.421875
1876,-183.14,2021-12-17 16:32:42.437500
1877,-153.42,2021-12-17 16:32:42.453125
1878,-114.66,2021-12-17 16:32:42.468750
1879,-70.25,2021-12-17 16:32:42.484375
1880,-24.03,2021-12-17 16:32:42.500000
1881,19.46,2021-12-17 16:32:42.515625
1882,55.5,2021-12-17 16:32:42.531250
1883,80.21,2021-12-17 16:32:42.546875
1884,92.02,2021-12-17 16:32:42.562500
1885,92.66,2021-12-17 16:32:42.578125
1886,86.2,2021-12-17 16:32:42.593750
1887,76.7,2021-12-17 16:32:42.609375
1888,66.0,2021-12-17 16:32:42.625000
1889,52.98,2021-12-17 16:32:42.640625
1890,35.01,2021-12-17 16:32:42.656250
1891,10.85,2021-12-17 16:32:42.671875
1892,-17.61,2021-12-17 16:32:42.687500
1893,-45.67,2021-12-17 16:32:42.703125
1894,-67.89,2021-12-17 16:32:42.718750
1895,-81.2,2021-12-17 16:32:42.734375
1896,-86.49,2021-12-17 16:32:42.750000
1897,-87.57,2021-12-17 16:32:42.765625
1898,-88.68,2021-12-17 16:32:42.781250
1899,-91.88,2021-12-17 16:32:42.796875
1900,-95.97,2021-12-17 16:32:42.812500
1901,-98.0,2021-12-17 16:32:42.828125
1902,-95.6,2021-12-17 16:32:42.843750
1903,-88.46,2021-12-17 16:32:42.859375
1904,-78.43,2021-12-17 16:32:42.875000
1905,-67.98,2021-12-17 16:32:42.890625
1906,-58.3,2021-12-17 16:32:42.906250
1907,-48.62,2021-12-17 16:32:42.921875
1908,-36.97,2021-12-17 16:32:42.937500
1909,-21.31,2021-12-17 16:32:42.953125
1910,-1.07,2021-12-17 16:32:42.968750
1911,22.2,2021-12-17 16:32:42.984375
1912,45.44,2021-12-17 16:32:43.000000
1913,65.07,2021-12-17 16:32:43.015625
1914,78.33,2021-12-17 16:32:43.031250
1915,84.26,2021-12-17 16:32:43.046875
1916,83.4,2021-12-17 16:32:43.062500
1917,77.43,2021-12-17 16:32:43.078125
1918,68.62,2021-12-17 16:32:43.093750
1919,59.06,2021-12-17 16:32:43.109375
1920,50.45,2021-12-17 16:32:43.125000
1921,44.1,2021-12-17 16:32:43.140625
1922,40.93,2021-12-17 16:32:43.156250
1923,41.37,2021-12-17 16:32:43.171875
1924,45.35,2021-12-17 16:32:43.187500
1925,51.99,2021-12-17 16:32:43.203125
1926,59.93,2021-12-17 16:32:43.218750
1927,67.68,2021-12-17 16:32:43.234375
1928,74.21,2021-12-17 16:32:43.250000
1929,79.75,2021-12-17 16:32:43.265625
1930,85.87,2021-12-17 16:32:43.281250
1931,94.67,2021-12-17 16:32:43.296875
1932,107.33,2021-12-17 16:32:43.312500
1933,122.99,2021-12-17 16:32:43.328125
1934,138.59,2021-12-17 16:32:43.343750
1935,149.94,2021-12-17 16:32:43.359375
1936,153.24,2021-12-17 16:32:43.375000
1937,146.35,2021-12-17 16:32:43.390625
1938,129.57,2021-12-17 16:32:43.406250
1939,104.9,2021-12-17 16:32:43.421875
1940,75.07,2021-12-17 16:32:43.437500
1941,42.76,2021-12-17 16:32:43.453125
1942,10.77,2021-12-17 16:32:43.468750
1943,-17.75,2021-12-17 16:32:43.484375
1944,-39.75,2021-12-17 16:32:43.500000
1945,-53.29,2021-12-17 16:32:43.515625
1946,-58.56,2021-12-17 16:32:43.531250
1947,-57.34,2021-12-17 16:32:43.546875
1948,-51.8,2021-12-17 16:32:43.562500
1949,-42.46,2021-12-17 16:32:43.578125
1950,-27.53,2021-12-17 16:32:43.593750
1951,-4.08,2021-12-17 16:32:43.609375
1952,29.13,2021-12-17 16:32:43.625000
1953,69.1,2021-12-17 16:32:43.640625
1954,108.38,2021-12-17 16:32:43.656250
1955,137.4,2021-12-17 16:32:43.671875
1956,148.85,2021-12-17 16:32:43.687500
1957,140.95,2021-12-17 16:32:43.703125
1958,118.29,2021-12-17 16:32:43.718750
1959,89.32,2021-12-17 16:32:43.734375
1960,62.32,2021-12-17 16:32:43.750000
1961,42.23,2021-12-17 16:32:43.765625
1962,29.64,2021-12-17 16:32:43.781250
1963,22.46,2021-12-17 16:32:43.796875
1964,18.06,2021-12-17 16:32:43.812500
1965,14.69,2021-12-17 16:32:43.828125
1966,11.72,2021-12-17 16:32:43.843750
1967,8.83,2021-12-17 16:32:43.859375
1968,5.06,2021-12-17 16:32:43.875000
1969,-1.53,2021-12-17 16:32:43.890625
1970,-13.05,2021-12-17 16:32:43.906250
1971,-30.63,2021-12-17 16:32:43.921875
1972,-53.48,2021-12-17 16:32:43.937500
1973,-78.95,2021-12-17 16:32:43.953125
1974,-103.59,2021-12-17 16:32:43.968750
1975,-124.36,2021-12-17 16:32:43.984375
1976,-139.38,2021-12-17 16:32:44.000000
1977,-148.09,2021-12-17 16:32:44.015625
1978,-151.0,2021-12-17 16:32:44.031250
1979,-148.94,2021-12-17 16:32:44.046875
1980,-142.61,2021-12-17 16:32:44.062500
1981,-132.2,2021-12-17 16:32:44.078125
1982,-117.52,2021-12-17 16:32:44.093750
1983,-98.39,2021-12-17 16:32:44.109375
1984,-74.99,2021-12-17 16:32:44.125000
1985,-48.27,2021-12-17 16:32:44.140625
1986,-19.93,2021-12-17 16:32:44.156250
1987,7.73,2021-12-17 16:32:44.171875
1988,32.35,2021-12-17 16:32:44.187500
1989,52.07,2021-12-17 16:32:44.203125
1990,66.08,2021-12-17 16:32:44.218750
1991,74.61,2021-12-17 16:32:44.234375
1992,78.65,2021-12-17 16:32:44.250000
1993,79.52,2021-12-17 16:32:44.265625
1994,78.29,2021-12-17 16:32:44.281250
1995,75.62,2021-12-17 16:32:44.296875
1996,71.7,2021-12-17 16:32:44.312500
1997,66.64,2021-12-17 16:32:44.328125
1998,60.64,2021-12-17 16:32:44.343750
1999,54.17,2021-12-17 16:32:44.359375
2000,47.93,2021-12-17 16:32:44.375000
2001,42.61,2021-12-17 16:32:44.390625
2002,38.77,2021-12-17 16:32:44.406250
2003,36.72,2021-12-17 16:32:44.421875
2004,36.48,2021-12-17 16:32:44.437500
2005,37.89,2021-12-17 16:32:44.453125
2006,40.78,2021-12-17 16:32:44.468750
2007,45.13,2021-12-17 16:32:44.484375
2008,50.96,2021-12-17 16:32:44.500000
2009,58.31,2021-12-17 16:32:44.515625
2010,66.95,2021-12-17 16:32:44.531250
2011,76.39,2021-12-17 16:32:44.546875
2012,85.78,2021-12-17 16:32:44.562500
2013,94.12,2021-12-17 16:32:44.578125
2014,100.44,2021-12-17 16:32:44.593750
2015,103.94,2021-12-17 16:32:44.609375
2016,104.12,2021-12-17 16:32:44.625000
2017,100.63,2021-12-17 16:32:44.640625
2018,93.11,2021-12-17 16:32:44.656250
2019,81.29,2021-12-17 16:32:44.671875
2020,65.09,2021-12-17 16:32:44.687500
2021,45.03,2021-12-17 16:32:44.703125
2022,22.31,2021-12-17 16:32:44.718750
2023,-1.33,2021-12-17 16:32:44.734375
2024,-23.95,2021-12-17 16:32:44.750000
2025,-43.96,2021-12-17 16:32:44.765625
2026,-60.53,2021-12-17 16:32:44.781250
2027,-73.58,2021-12-17 16:32:44.796875
2028,-83.54,2021-12-17 16:32:44.812500
2029,-90.98,2021-12-17 16:32:44.828125
2030,-96.19,2021-12-17 16:32:44.843750
2031,-99.19,2021-12-17 16:32:44.859375
2032,-99.94,2021-12-17 16:32:44.875000
2033,-98.43,2021-12-17 16:32:44.890625
2034,-94.93,2021-12-17 16:32:44.906250
2035,-89.84,2021-12-17 16:32:44.921875
2036,-83.65,2021-12-17 16:32:44.937500
2037,-76.8,2021-12-17 16:32:44.953125
2038,-69.65,2021-12-17 16:32:44.968750
2039,-62.43,2021-12-17 16:32:44.984375
2040,-55.36,2021-12-17 16:32:45.000000
2041,-48.7,2021-12-17 16:32:45.015625
2042,-42.8,2021-12-17 16:32:45.031250
2043,-37.93,2021-12-17 16:32:45.046875
2044,-34.24,2021-12-17 16:32:45.062500
2045,-31.63,2021-12-17 16:32:45.078125
2046,-29.76,2021-12-17 16:32:45.093750
2047,-28.22,2021-12-17 16:32:45.109375
2048,-26.58,2021-12-17 16:32:45.125000
2049,-24.53,2021-12-17 16:32:45.140625
2050,-21.97,2021-12-17 16:32:45.156250
2051,-18.91,2021-12-17 16:32:45.171875
2052,-15.52,2021-12-17 16:32:45.187500
2053,-12.09,2021-12-17 16:32:45.203125
2054,-8.92,2021-12-17 16:32:45.218750
2055,-6.27,2021-12-17 16:32:45.234375
2056,-4.25,2021-12-17 16:32:45.250000
2057,-2.8,2021-12-17 16:32:45.265625
2058,-1.69,2021-12-17 16:32:45.281250
2059,-0.64,2021-12-17 16:32:45.296875
2060,0.48,2021-12-17 16:32:45.312500
2061,1.61,2021-12-17 16:32:45.328125
2062,2.51,2021-12-17 16:32:45.343750
2063,2.93,2021-12-17 16:32:45.359375
2064,2.74,2021-12-17 16:32:45.375000
2065,1.94,2021-12-17 16:32:45.390625
2066,0.68,2021-12-17 16:32:45.406250
2067,-0.83,2021-12-17 16:32:45.421875
2068,-2.41,2021-12-17 16:32:45.437500
2069,-3.88,2021-12-17 16:32:45.453125
2070,-5.08,2021-12-17 16:32:45.468750
2071,-5.79,2021-12-17 16:32:45.484375
2072,-5.87,2021-12-17 16:32:45.500000
2073,-5.25,2021-12-17 16:32:45.515625
2074,-4.11,2021-12-17 16:32:45.531250
2075,-2.69,2021-12-17 16:32:45.546875
2076,-1.3,2021-12-17 16:32:45.562500
2077,-0.24,2021-12-17 16:32:45.578125
2078,0.39,2021-12-17 16:32:45.593750
2079,0.58,2021-12-17 16:32:45.609375
2080,0.5,2021-12-17 16:32:45.625000
2081,0.29,2021-12-17 16:32:45.640625
2082,0.16,2021-12-17 16:32:45.656250
2083,0.24,2021-12-17 16:32:45.671875
2084,0.66,2021-12-17 16:32:45.687500
2085,1.45,2021-12-17 16:32:45.703125
2086,2.62,2021-12-17 16:32:45.718750
2087,4.14,2021-12-17 16:32:45.734375
2088,6.0,2021-12-17 16:32:45.750000
2089,8.21,2021-12-17 16:32:45.765625
2090,10.68,2021-12-17 16:32:45.781250
2091,13.29,2021-12-17 16:32:45.796875
2092,15.73,2021-12-17 16:32:45.812500
2093,17.61,2021-12-17 16:32:45.828125
2094,18.59,2021-12-17 16:32:45.843750
2095,18.48,2021-12-17 16:32:45.859375
2096,17.38,2021-12-17 16:32:45.875000
2097,15.53,2021-12-17 16:32:45.890625
2098,13.24,2021-12-17 16:32:45.906250
2099,10.69,2021-12-17 16:32:45.921875
2100,7.98,2021-12-17 16:32:45.937500
2101,5.07,2021-12-17 16:32:45.953125
2102,1.97,2021-12-17 16:32:45.968750
2103,-1.26,2021-12-17 16:32:45.984375
2104,-4.48,2021-12-17 16:32:46.000000
2105,-7.57,2021-12-17 16:32:46.015625
2106,-10.46,2021-12-17 16:32:46.031250
2107,-13.19,2021-12-17 16:32:46.046875
2108,-15.72,2021-12-17 16:32:46.062500
2109,-17.84,2021-12-17 16:32:46.078125
2110,-19.23,2021-12-17 16:32:46.093750
2111,-19.49,2021-12-17 16:32:46.109375
2112,-18.37,2021-12-17 16:32:46.125000
2113,-15.93,2021-12-17 16:32:46.140625
2114,-12.54,2021-12-17 16:32:46.156250
2115,-8.72,2021-12-17 16:32:46.171875
2116,-5.04,2021-12-17 16:32:46.187500
2117,-1.83,2021-12-17 16:32:46.203125
2118,0.86,2021-12-17 16:32:46.218750
2119,3.17,2021-12-17 16:32:46.234375
2120,5.37,2021-12-17 16:32:46.250000
2121,7.71,2021-12-17 16:32:46.265625
2122,10.24,2021-12-17 16:32:46.281250
2123,12.89,2021-12-17 16:32:46.296875
2124,15.51,2021-12-17 16:32:46.312500
2125,17.89,2021-12-17 16:32:46.328125
2126,19.88,2021-12-17 16:32:46.343750
2127,21.46,2021-12-17 16:32:46.359375
2128,22.67,2021-12-17 16:32:46.375000
2129,23.65,2021-12-17 16:32:46.390625
2130,24.54,2021-12-17 16:32:46.406250
2131,25.38,2021-12-17 16:32:46.421875
2132,26.17,2021-12-17 16:32:46.437500
2133,26.8,2021-12-17 16:32:46.453125
2134,27.08,2021-12-17 16:32:46.468750
2135,26.81,2021-12-17 16:32:46.484375
2136,25.93,2021-12-17 16:32:46.500000
2137,24.39,2021-12-17 16:32:46.515625
2138,22.22,2021-12-17 16:32:46.531250
2139,19.51,2021-12-17 16:32:46.546875
2140,16.31,2021-12-17 16:32:46.562500
2141,12.73,2021-12-17 16:32:46.578125
2142,8.89,2021-12-17 16:32:46.593750
2143,4.9,2021-12-17 16:32:46.609375
2144,0.94,2021-12-17 16:32:46.625000
2145,-2.73,2021-12-17 16:32:46.640625
2146,-5.95,2021-12-17 16:32:46.656250
2147,-8.53,2021-12-17 16:32:46.671875
2148,-10.37,2021-12-17 16:32:46.687500
2149,-11.49,2021-12-17 16:32:46.703125
2150,-12.02,2021-12-17 16:32:46.718750
2151,-12.13,2021-12-17 16:32:46.734375
2152,-11.96,2021-12-17 16:32:46.750000
2153,-11.56,2021-12-17 16:32:46.765625
2154,-10.86,2021-12-17 16:32:46.781250
2155,-9.82,2021-12-17 16:32:46.796875
2156,-8.4,2021-12-17 16:32:46.812500
2157,-6.73,2021-12-17 16:32:46.828125
2158,-5.02,2021-12-17 16:32:46.843750
2159,-3.46,2021-12-17 16:32:46.859375
2160,-2.23,2021-12-17 16:32:46.875000
2161,-1.33,2021-12-17 16:32:46.890625
2162,-0.75,2021-12-17 16:32:46.906250
2163,-0.38,2021-12-17 16:32:46.921875
2164,-0.24,2021-12-17 16:32:46.937500
2165,-0.28,2021-12-17 16:32:46.953125
2166,-0.48,2021-12-17 16:32:46.968750
2167,-0.77,2021-12-17 16:32:46.984375
2168,-1.02,2021-12-17 16:32:47.000000
2169,-1.2,2021-12-17 16:32:47.015625
2170,-1.25,2021-12-17 16:32:47.031250
2171,-1.2,2021-12-17 16:32:47.046875
2172,-1.08,2021-12-17 16:32:47.062500
2173,-0.98,2021-12-17 16:32:47.078125
2174,-0.97,2021-12-17 16:32:47.093750
2175,-1.11,2021-12-17 16:32:47.109375
2176,-1.4,2021-12-17 16:32:47.125000
2177,-1.78,2021-12-17 16:32:47.140625
2178,-2.18,2021-12-17 16:32:47.156250
2179,-2.53,2021-12-17 16:32:47.171875
2180,-2.81,2021-12-17 16:32:47.187500
2181,-3.0,2021-12-17 16:32:47.203125
2182,-3.18,2021-12-17 16:32:47.218750
2183,-3.4,2021-12-17 16:32:47.234375
2184,-3.61,2021-12-17 16:32:47.250000
2185,-3.77,2021-12-17 16:32:47.265625
2186,-3.72,2021-12-17 16:32:47.281250
2187,-3.46,2021-12-17 16:32:47.296875
2188,-2.99,2021-12-17 16:32:47.312500
2189,-2.47,2021-12-17 16:32:47.328125
2190,-2.02,2021-12-17 16:32:47.343750
2191,-1.75,2021-12-17 16:32:47.359375
2192,-1.63,2021-12-17 16:32:47.375000
2193,-1.57,2021-12-17 16:32:47.390625
2194,-1.48,2021-12-17 16:32:47.406250
2195,-1.24,2021-12-17 16:32:47.421875
2196,-0.86,2021-12-17 16:32:47.437500
2197,-0.35,2021-12-17 16:32:47.453125
2198,0.29,2021-12-17 16:32:47.468750
2199,1.07,2021-12-17 16:32:47.484375
2200,2.03,2021-12-17 16:32:47.500000
2201,3.18,2021-12-17 16:32:47.515625
2202,4.47,2021-12-17 16:32:47.531250
2203,5.69,2021-12-17 16:32:47.546875
2204,6.69,2021-12-17 16:32:47.562500
2205,7.31,2021-12-17 16:32:47.578125
2206,7.52,2021-12-17 16:32:47.593750
2207,7.37,2021-12-17 16:32:47.609375
2208,6.96,2021-12-17 16:32:47.625000
2209,6.42,2021-12-17 16:32:47.640625
2210,5.84,2021-12-17 16:32:47.656250
2211,5.29,2021-12-17 16:32:47.671875
2212,4.81,2021-12-17 16:32:47.687500
2213,4.51,2021-12-17 16:32:47.703125
2214,4.5,2021-12-17 16:32:47.718750
2215,4.81,2021-12-17 16:32:47.734375
2216,5.38,2021-12-17 16:32:47.750000
2217,6.02,2021-12-17 16:32:47.765625
2218,6.56,2021-12-17 16:32:47.781250
2219,6.84,2021-12-17 16:32:47.796875
2220,6.84,2021-12-17 16:32:47.812500
2221,6.6,2021-12-17 16:32:47.828125
2222,6.23,2021-12-17 16:32:47.843750
2223,5.96,2021-12-17 16:32:47.859375
2224,6.03,2021-12-17 16:32:47.875000
2225,6.76,2021-12-17 16:32:47.890625
2226,8.34,2021-12-17 16:32:47.906250
2227,10.82,2021-12-17 16:32:47.921875
2228,13.86,2021-12-17 16:32:47.937500
2229,16.88,2021-12-17 16:32:47.953125
2230,19.22,2021-12-17 16:32:47.968750
2231,20.46,2021-12-17 16:32:47.984375
2232,20.65,2021-12-17 16:32:48.000000
2233,20.29,2021-12-17 16:32:48.015625
2234,20.16,2021-12-17 16:32:48.031250
2235,20.85,2021-12-17 16:32:48.046875
2236,22.66,2021-12-17 16:32:48.062500
2237,25.42,2021-12-17 16:32:48.078125
2238,28.61,2021-12-17 16:32:48.093750
2239,31.57,2021-12-17 16:32:48.109375
2240,33.49,2021-12-17 16:32:48.125000
2241,33.62,2021-12-17 16:32:48.140625
2242,31.42,2021-12-17 16:32:48.156250
2243,26.64,2021-12-17 16:32:48.171875
2244,19.47,2021-12-17 16:32:48.187500
2245,10.53,2021-12-17 16:32:48.203125
2246,0.76,2021-12-17 16:32:48.218750
2247,-8.94,2021-12-17 16:32:48.234375
2248,-17.83,2021-12-17 16:32:48.250000
2249,-25.49,2021-12-17 16:32:48.265625
2250,-31.8,2021-12-17 16:32:48.281250
2251,-36.76,2021-12-17 16:32:48.296875
2252,-40.39,2021-12-17 16:32:48.312500
2253,-42.78,2021-12-17 16:32:48.328125
2254,-44.11,2021-12-17 16:32:48.343750
2255,-44.68,2021-12-17 16:32:48.359375
2256,-44.88,2021-12-17 16:32:48.375000
2257,-44.97,2021-12-17 16:32:48.390625
2258,-45.01,2021-12-17 16:32:48.406250
2259,-44.74,2021-12-17 16:32:48.421875
2260,-43.64,2021-12-17 16:32:48.437500
2261,-41.08,2021-12-17 16:32:48.453125
2262,-36.73,2021-12-17 16:32:48.468750
2263,-30.57,2021-12-17 16:32:48.484375
2264,-23.01,2021-12-17 16:32:48.500000
2265,-14.8,2021-12-17 16:32:48.515625
2266,-6.65,2021-12-17 16:32:48.531250
2267,0.78,2021-12-17 16:32:48.546875
2268,7.04,2021-12-17 16:32:48.562500
2269,11.88,2021-12-17 16:32:48.578125
2270,15.14,2021-12-17 16:32:48.593750
2271,16.72,2021-12-17 16:32:48.609375
2272,16.68,2021-12-17 16:32:48.625000
2273,15.29,2021-12-17 16:32:48.640625
2274,13.02,2021-12-17 16:32:48.656250
2275,10.56,2021-12-17 16:32:48.671875
2276,8.48,2021-12-17 16:32:48.687500
2277,7.23,2021-12-17 16:32:48.703125
2278,7.0,2021-12-17 16:32:48.718750
2279,7.69,2021-12-17 16:32:48.734375
2280,9.08,2021-12-17 16:32:48.750000
2281,10.99,2021-12-17 16:32:48.765625
2282,13.2,2021-12-17 16:32:48.781250
2283,15.57,2021-12-17 16:32:48.796875
2284,17.98,2021-12-17 16:32:48.812500
2285,20.28,2021-12-17 16:32:48.828125
2286,22.35,2021-12-17 16:32:48.843750
2287,24.14,2021-12-17 16:32:48.859375
2288,25.62,2021-12-17 16:32:48.875000
2289,26.78,2021-12-17 16:32:48.890625
2290,27.78,2021-12-17 16:32:48.906250
2291,28.73,2021-12-17 16:32:48.921875
2292,29.78,2021-12-17 16:32:48.937500
2293,31.04,2021-12-17 16:32:48.953125
2294,32.45,2021-12-17 16:32:48.968750
2295,33.79,2021-12-17 16:32:48.984375
2296,34.67,2021-12-17 16:32:49.000000
2297,34.72,2021-12-17 16:32:49.015625
2298,33.69,2021-12-17 16:32:49.031250
2299,31.68,2021-12-17 16:32:49.046875
2300,29.07,2021-12-17 16:32:49.062500
2301,26.43,2021-12-17 16:32:49.078125
2302,24.26,2021-12-17 16:32:49.093750
2303,22.66,2021-12-17 16:32:49.109375
2304,21.16,2021-12-17 16:32:49.125000
2305,18.74,2021-12-17 16:32:49.140625
2306,14.13,2021-12-17 16:32:49.156250
2307,6.2,2021-12-17 16:32:49.171875
2308,-5.52,2021-12-17 16:32:49.187500
2309,-20.69,2021-12-17 16:32:49.203125
2310,-38.12,2021-12-17 16:32:49.218750
2311,-56.2,2021-12-17 16:32:49.234375
2312,-73.46,2021-12-17 16:32:49.250000
2313,-88.99,2021-12-17 16:32:49.265625
2314,-102.65,2021-12-17 16:32:49.281250
2315,-114.98,2021-12-17 16:32:49.296875
2316,-126.88,2021-12-17 16:32:49.312500
2317,-139.37,2021-12-17 16:32:49.328125
2318,-153.25,2021-12-17 16:32:49.343750
2319,-168.77,2021-12-17 16:32:49.359375
2320,-185.37,2021-12-17 16:32:49.375000
2321,-201.57,2021-12-17 16:32:49.390625
2322,-215.04,2021-12-17 16:32:49.406250
2323,-223.2,2021-12-17 16:32:49.421875
2324,-224.1,2021-12-17 16:32:49.437500
2325,-217.22,2021-12-17 16:32:49.453125
2326,-203.8,2021-12-17 16:32:49.468750
2327,-186.3,2021-12-17 16:32:49.484375
2328,-167.22,2021-12-17 16:32:49.500000
2329,-147.87,2021-12-17 16:32:49.515625
2330,-127.77,2021-12-17 16:32:49.531250
2331,-104.92,2021-12-17 16:32:49.546875
2332,-77.1,2021-12-17 16:32:49.562500
2333,-43.15,2021-12-17 16:32:49.578125
2334,-3.69,2021-12-17 16:32:49.593750
2335,38.89,2021-12-17 16:32:49.609375
2336,81.28,2021-12-17 16:32:49.625000
2337,120.27,2021-12-17 16:32:49.640625
2338,153.4,2021-12-17 16:32:49.656250
2339,179.23,2021-12-17 16:32:49.671875
2340,197.17,2021-12-17 16:32:49.687500
2341,207.11,2021-12-17 16:32:49.703125
2342,209.29,2021-12-17 16:32:49.718750
2343,204.44,2021-12-17 16:32:49.734375
2344,193.82,2021-12-17 16:32:49.750000
2345,179.33,2021-12-17 16:32:49.765625
2346,163.24,2021-12-17 16:32:49.781250
2347,147.69,2021-12-17 16:32:49.796875
2348,134.24,2021-12-17 16:32:49.812500
2349,123.48,2021-12-17 16:32:49.828125
2350,115.01,2021-12-17 16:32:49.843750
2351,107.79,2021-12-17 16:32:49.859375
2352,100.65,2021-12-17 16:32:49.875000
2353,92.87,2021-12-17 16:32:49.890625
2354,84.34,2021-12-17 16:32:49.906250
2355,75.48,2021-12-17 16:32:49.921875
2356,66.88,2021-12-17 16:32:49.937500
2357,58.91,2021-12-17 16:32:49.953125
2358,51.63,2021-12-17 16:32:49.968750
2359,44.81,2021-12-17 16:32:49.984375
2360,38.11,2021-12-17 16:32:50.000000
2361,31.23,2021-12-17 16:32:50.015625
2362,23.99,2021-12-17 16:32:50.031250
2363,16.38,2021-12-17 16:32:50.046875
2364,8.57,2021-12-17 16:32:50.062500
2365,0.82,2021-12-17 16:32:50.078125
2366,-6.48,2021-12-17 16:32:50.093750
2367,-13.01,2021-12-17 16:32:50.109375
2368,-18.54,2021-12-17 16:32:50.125000
2369,-22.99,2021-12-17 16:32:50.140625
2370,-26.52,2021-12-17 16:32:50.156250
2371,-29.42,2021-12-17 16:32:50.171875
2372,-31.98,2021-12-17 16:32:50.187500
2373,-34.33,2021-12-17 16:32:50.203125
2374,-36.44,2021-12-17 16:32:50.218750
2375,-38.2,2021-12-17 16:32:50.234375
2376,-39.45,2021-12-17 16:32:50.250000
2377,-40.12,2021-12-17 16:32:50.265625
2378,-40.11,2021-12-17 16:32:50.281250
2379,-39.4,2021-12-17 16:32:50.296875
2380,-37.98,2021-12-17 16:32:50.312500
2381,-35.93,2021-12-17 16:32:50.328125
2382,-33.36,2021-12-17 16:32:50.343750
2383,-30.45,2021-12-17 16:32:50.359375
2384,-27.43,2021-12-17 16:32:50.375000
2385,-24.5,2021-12-17 16:32:50.390625
2386,-21.87,2021-12-17 16:32:50.406250
2387,-19.64,2021-12-17 16:32:50.421875
2388,-17.86,2021-12-17 16:32:50.437500
2389,-16.48,2021-12-17 16:32:50.453125
2390,-15.35,2021-12-17 16:32:50.468750
2391,-14.24,2021-12-17 16:32:50.484375
2392,-12.96,2021-12-17 16:32:50.500000
2393,-11.44,2021-12-17 16:32:50.515625
2394,-9.73,2021-12-17 16:32:50.531250
2395,-8.09,2021-12-17 16:32:50.546875
2396,-6.68,2021-12-17 16:32:50.562500
2397,-5.65,2021-12-17 16:32:50.578125
2398,-4.99,2021-12-17 16:32:50.593750
2399,-4.59,2021-12-17 16:32:50.609375
2400,-4.38,2021-12-17 16:32:50.625000
2401,-4.3,2021-12-17 16:32:50.640625
2402,-4.34,2021-12-17 16:32:50.656250
2403,-4.48,2021-12-17 16:32:50.671875
2404,-4.68,2021-12-17 16:32:50.687500
2405,-4.82,2021-12-17 16:32:50.703125
2406,-4.78,2021-12-17 16:32:50.718750
2407,-4.53,2021-12-17 16:32:50.734375
2408,-4.04,2021-12-17 16:32:50.750000
2409,-3.34,2021-12-17 16:32:50.765625
2410,-2.46,2021-12-17 16:32:50.781250
2411,-1.43,2021-12-17 16:32:50.796875
2412,-0.37,2021-12-17 16:32:50.812500
2413,0.6,2021-12-17 16:32:50.828125
2414,1.38,2021-12-17 16:32:50.843750
2415,1.85,2021-12-17 16:32:50.859375
2416,2.03,2021-12-17 16:32:50.875000
2417,1.92,2021-12-17 16:32:50.890625
2418,1.54,2021-12-17 16:32:50.906250
2419,0.93,2021-12-17 16:32:50.921875
2420,0.09,2021-12-17 16:32:50.937500
2421,-0.94,2021-12-17 16:32:50.953125
2422,-2.08,2021-12-17 16:32:50.968750
2423,-3.27,2021-12-17 16:32:50.984375
2424,-4.45,2021-12-17 16:32:51.000000
2425,-5.61,2021-12-17 16:32:51.015625
2426,-6.72,2021-12-17 16:32:51.031250
2427,-7.92,2021-12-17 16:32:51.046875
2428,-9.2,2021-12-17 16:32:51.062500
2429,-10.6,2021-12-17 16:32:51.078125
2430,-12.09,2021-12-17 16:32:51.093750
2431,-13.66,2021-12-17 16:32:51.109375
2432,-15.28,2021-12-17 16:32:51.125000
2433,-16.97,2021-12-17 16:32:51.140625
2434,-18.68,2021-12-17 16:32:51.156250
2435,-20.4,2021-12-17 16:32:51.171875
2436,-22.19,2021-12-17 16:32:51.187500
2437,-24.04,2021-12-17 16:32:51.203125
2438,-25.95,2021-12-17 16:32:51.218750
2439,-27.82,2021-12-17 16:32:51.234375
2440,-29.47,2021-12-17 16:32:51.250000
2441,-30.58,2021-12-17 16:32:51.265625
2442,-30.88,2021-12-17 16:32:51.281250
2443,-30.14,2021-12-17 16:32:51.296875
2444,-28.42,2021-12-17 16:32:51.312500
2445,-26.0,2021-12-17 16:32:51.328125
2446,-23.25,2021-12-17 16:32:51.343750
2447,-20.58,2021-12-17 16:32:51.359375
2448,-18.19,2021-12-17 16:32:51.375000
2449,-16.07,2021-12-17 16:32:51.390625
2450,-13.99,2021-12-17 16:32:51.406250
2451,-11.74,2021-12-17 16:32:51.421875
2452,-9.02,2021-12-17 16:32:51.437500
2453,-5.64,2021-12-17 16:32:51.453125
2454,-1.46,2021-12-17 16:32:51.468750
2455,3.62,2021-12-17 16:32:51.484375
2456,9.67,2021-12-17 16:32:51.500000
2457,16.74,2021-12-17 16:32:51.515625
2458,24.92,2021-12-17 16:32:51.531250
2459,34.27,2021-12-17 16:32:51.546875
2460,44.81,2021-12-17 16:32:51.562500
2461,56.53,2021-12-17 16:32:51.578125
2462,69.33,2021-12-17 16:32:51.593750
2463,82.94,2021-12-17 16:32:51.609375
2464,96.98,2021-12-17 16:32:51.625000
2465,110.98,2021-12-17 16:32:51.640625
2466,124.4,2021-12-17 16:32:51.656250
2467,136.68,2021-12-17 16:32:51.671875
2468,147.12,2021-12-17 16:32:51.687500
2469,154.83,2021-12-17 16:32:51.703125
2470,158.85,2021-12-17 16:32:51.718750
2471,158.37,2021-12-17 16:32:51.734375
2472,153.01,2021-12-17 16:32:51.750000
2473,143.28,2021-12-17 16:32:51.765625
2474,130.47,2021-12-17 16:32:51.781250
2475,116.62,2021-12-17 16:32:51.796875
2476,104.0,2021-12-17 16:32:51.812500
2477,94.56,2021-12-17 16:32:51.828125
2478,89.53,2021-12-17 16:32:51.843750
2479,89.29,2021-12-17 16:32:51.859375
2480,93.14,2021-12-17 16:32:51.875000
2481,99.52,2021-12-17 16:32:51.890625
2482,106.26,2021-12-17 16:32:51.906250
2483,110.93,2021-12-17 16:32:51.921875
2484,111.58,2021-12-17 16:32:51.937500
2485,107.26,2021-12-17 16:32:51.953125
2486,98.41,2021-12-17 16:32:51.968750
2487,86.71,2021-12-17 16:32:51.984375
2488,74.59,2021-12-17 16:32:52.000000
2489,64.32,2021-12-17 16:32:52.015625
2490,57.41,2021-12-17 16:32:52.031250
2491,54.2,2021-12-17 16:32:52.046875
2492,53.84,2021-12-17 16:32:52.062500
2493,54.6,2021-12-17 16:32:52.078125
2494,54.45,2021-12-17 16:32:52.093750
2495,51.62,2021-12-17 16:32:52.109375
2496,45.02,2021-12-17 16:32:52.125000
2497,34.66,2021-12-17 16:32:52.140625
2498,21.35,2021-12-17 16:32:52.156250
2499,6.34,2021-12-17 16:32:52.171875
2500,-9.31,2021-12-17 16:32:52.187500
2501,-25.18,2021-12-17 16:32:52.203125
2502,-41.5,2021-12-17 16:32:52.218750
2503,-58.69,2021-12-17 16:32:52.234375
2504,-76.84,2021-12-17 16:32:52.250000
2505,-95.41,2021-12-17 16:32:52.265625
2506,-113.35,2021-12-17 16:32:52.281250
2507,-129.62,2021-12-17 16:32:52.296875
2508,-143.62,2021-12-17 16:32:52.312500
2509,-155.48,2021-12-17 16:32:52.328125
2510,-165.76,2021-12-17 16:32:52.343750
2511,-174.85,2021-12-17 16:32:52.359375
2512,-182.7,2021-12-17 16:32:52.375000
2513,-188.75,2021-12-17 16:32:52.390625
2514,-192.1,2021-12-17 16:32:52.406250
2515,-191.95,2021-12-17 16:32:52.421875
2516,-187.89,2021-12-17 16:32:52.437500
2517,-179.98,2021-12-17 16:32:52.453125
2518,-168.66,2021-12-17 16:32:52.468750
2519,-154.57,2021-12-17 16:32:52.484375
2520,-138.16,2021-12-17 16:32:52.500000
2521,-119.86,2021-12-17 16:32:52.515625
2522,-100.1,2021-12-17 16:32:52.531250
2523,-79.66,2021-12-17 16:32:52.546875
2524,-59.64,2021-12-17 16:32:52.562500
2525,-41.32,2021-12-17 16:32:52.578125
2526,-25.8,2021-12-17 16:32:52.593750
2527,-13.56,2021-12-17 16:32:52.609375
2528,-4.45,2021-12-17 16:32:52.625000
2529,2.2,2021-12-17 16:32:52.640625
2530,7.11,2021-12-17 16:32:52.656250
2531,10.7,2021-12-17 16:32:52.671875
2532,12.83,2021-12-17 16:32:52.687500
2533,12.95,2021-12-17 16:32:52.703125
2534,10.45,2021-12-17 16:32:52.718750
2535,5.0,2021-12-17 16:32:52.734375
2536,-3.25,2021-12-17 16:32:52.750000
2537,-13.68,2021-12-17 16:32:52.765625
2538,-25.27,2021-12-17 16:32:52.781250
2539,-36.8,2021-12-17 16:32:52.796875
2540,-46.88,2021-12-17 16:32:52.812500
2541,-54.19,2021-12-17 16:32:52.828125
2542,-57.67,2021-12-17 16:32:52.843750
2543,-56.67,2021-12-17 16:32:52.859375
2544,-51.08,2021-12-17 16:32:52.875000
2545,-41.31,2021-12-17 16:32:52.890625
2546,-28.06,2021-12-17 16:32:52.906250
2547,-12.26,2021-12-17 16:32:52.921875
2548,5.04,2021-12-17 16:32:52.937500
2549,22.62,2021-12-17 16:32:52.953125
2550,39.14,2021-12-17 16:32:52.968750
2551,53.12,2021-12-17 16:32:52.984375
2552,63.31,2021-12-17 16:32:53.000000
2553,68.92,2021-12-17 16:32:53.015625
2554,69.77,2021-12-17 16:32:53.031250
2555,66.28,2021-12-17 16:32:53.046875
2556,59.2,2021-12-17 16:32:53.062500
2557,49.46,2021-12-17 16:32:53.078125
2558,37.99,2021-12-17 16:32:53.093750
2559,25.7,2021-12-17 16:32:53.109375
2560,13.4,2021-12-17 16:32:53.125000
2561,1.8,2021-12-17 16:32:53.140625
2562,-8.5,2021-12-17 16:32:53.156250
2563,-17.02,2021-12-17 16:32:53.171875
2564,-23.41,2021-12-17 16:32:53.187500
2565,-27.52,2021-12-17 16:32:53.203125
2566,-29.38,2021-12-17 16:32:53.218750
2567,-29.24,2021-12-17 16:32:53.234375
2568,-27.53,2021-12-17 16:32:53.250000
2569,-24.84,2021-12-17 16:32:53.265625
2570,-21.86,2021-12-17 16:32:53.281250
2571,-19.24,2021-12-17 16:32:53.296875
2572,-17.46,2021-12-17 16:32:53.312500
2573,-16.75,2021-12-17 16:32:53.328125
2574,-17.06,2021-12-17 16:32:53.343750
2575,-18.12,2021-12-17 16:32:53.359375
2576,-19.57,2021-12-17 16:32:53.375000
2577,-21.11,2021-12-17 16:32:53.390625
2578,-22.5,2021-12-17 16:32:53.406250
2579,-23.59,2021-12-17 16:32:53.421875
2580,-24.29,2021-12-17 16:32:53.437500
2581,-24.54,2021-12-17 16:32:53.453125
2582,-24.23,2021-12-17 16:32:53.468750
2583,-23.32,2021-12-17 16:32:53.484375
2584,-21.86,2021-12-17 16:32:53.500000
2585,-19.94,2021-12-17 16:32:53.515625
2586,-17.76,2021-12-17 16:32:53.531250
2587,-15.47,2021-12-17 16:32:53.546875
2588,-13.18,2021-12-17 16:32:53.562500
2589,-10.9,2021-12-17 16:32:53.578125
2590,-8.72,2021-12-17 16:32:53.593750
2591,-6.68,2021-12-17 16:32:53.609375
2592,-4.91,2021-12-17 16:32:53.625000
2593,-3.56,2021-12-17 16:32:53.640625
2594,-2.63,2021-12-17 16:32:53.656250
2595,-2.06,2021-12-17 16:32:53.671875
2596,-1.69,2021-12-17 16:32:53.687500
2597,-1.28,2021-12-17 16:32:53.703125
2598,-0.67,2021-12-17 16:32:53.718750
2599,0.16,2021-12-17 16:32:53.734375
2600,1.12,2021-12-17 16:32:53.750000
2601,2.05,2021-12-17 16:32:53.765625
2602,2.79,2021-12-17 16:32:53.781250
2603,3.23,2021-12-17 16:32:53.796875
2604,3.31,2021-12-17 16:32:53.812500
2605,3.0,2021-12-17 16:32:53.828125
2606,2.28,2021-12-17 16:32:53.843750
2607,1.12,2021-12-17 16:32:53.859375
2608,-0.45,2021-12-17 16:32:53.875000
2609,-2.44,2021-12-17 16:32:53.890625
2610,-4.7,2021-12-17 16:32:53.906250
2611,-7.03,2021-12-17 16:32:53.921875
2612,-9.1,2021-12-17 16:32:53.937500
2613,-10.62,2021-12-17 16:32:53.953125
2614,-11.33,2021-12-17 16:32:53.968750
2615,-11.11,2021-12-17 16:32:53.984375
2616,-10.02,2021-12-17 16:32:54.000000
2617,-8.25,2021-12-17 16:32:54.015625
2618,-6.11,2021-12-17 16:32:54.031250
2619,-3.87,2021-12-17 16:32:54.046875
2620,-1.84,2021-12-17 16:32:54.062500
2621,-0.15,2021-12-17 16:32:54.078125
2622,1.14,2021-12-17 16:32:54.093750
2623,2.06,2021-12-17 16:32:54.109375
2624,2.74,2021-12-17 16:32:54.125000
2625,3.28,2021-12-17 16:32:54.140625
2626,3.77,2021-12-17 16:32:54.156250
2627,4.3,2021-12-17 16:32:54.171875
2628,4.9,2021-12-17 16:32:54.187500
2629,5.61,2021-12-17 16:32:54.203125
2630,6.43,2021-12-17 16:32:54.218750
2631,7.36,2021-12-17 16:32:54.234375
2632,8.26,2021-12-17 16:32:54.250000
2633,9.03,2021-12-17 16:32:54.265625
2634,9.53,2021-12-17 16:32:54.281250
2635,9.67,2021-12-17 16:32:54.296875
2636,9.48,2021-12-17 16:32:54.312500
2637,9.03,2021-12-17 16:32:54.328125
2638,8.42,2021-12-17 16:32:54.343750
2639,7.69,2021-12-17 16:32:54.359375
2640,6.81,2021-12-17 16:32:54.375000
2641,5.71,2021-12-17 16:32:54.390625
2642,4.34,2021-12-17 16:32:54.406250
2643,2.69,2021-12-17 16:32:54.421875
2644,0.85,2021-12-17 16:32:54.437500
2645,-1.09,2021-12-17 16:32:54.453125
2646,-2.99,2021-12-17 16:32:54.468750
2647,-4.73,2021-12-17 16:32:54.484375
2648,-6.23,2021-12-17 16:32:54.500000
2649,-7.37,2021-12-17 16:32:54.515625
2650,-8.06,2021-12-17 16:32:54.531250
2651,-8.3,2021-12-17 16:32:54.546875
2652,-8.2,2021-12-17 16:32:54.562500
2653,-7.91,2021-12-17 16:32:54.578125
2654,-7.56,2021-12-17 16:32:54.593750
2655,-7.16,2021-12-17 16:32:54.609375
2656,-6.61,2021-12-17 16:32:54.625000
2657,-5.75,2021-12-17 16:32:54.640625
2658,-4.46,2021-12-17 16:32:54.656250
2659,-2.62,2021-12-17 16:32:54.671875
2660,-0.27,2021-12-17 16:32:54.687500
2661,2.57,2021-12-17 16:32:54.703125
2662,5.86,2021-12-17 16:32:54.718750
2663,9.64,2021-12-17 16:32:54.734375
2664,13.82,2021-12-17 16:32:54.750000
2665,18.22,2021-12-17 16:32:54.765625
2666,22.56,2021-12-17 16:32:54.781250
2667,26.5,2021-12-17 16:32:54.796875
2668,29.78,2021-12-17 16:32:54.812500
2669,32.22,2021-12-17 16:32:54.828125
2670,33.77,2021-12-17 16:32:54.843750
2671,34.36,2021-12-17 16:32:54.859375
2672,33.92,2021-12-17 16:32:54.875000
2673,32.31,2021-12-17 16:32:54.890625
2674,29.48,2021-12-17 16:32:54.906250
2675,25.49,2021-12-17 16:32:54.921875
2676,20.67,2021-12-17 16:32:54.937500
2677,15.36,2021-12-17 16:32:54.953125
2678,10.0,2021-12-17 16:32:54.968750
2679,4.84,2021-12-17 16:32:54.984375
2680,0.04,2021-12-17 16:32:55.000000
2681,-4.39,2021-12-17 16:32:55.015625
2682,-8.39,2021-12-17 16:32:55.031250
2683,-11.8,2021-12-17 16:32:55.046875
2684,-14.41,2021-12-17 16:32:55.062500
2685,-15.93,2021-12-17 16:32:55.078125
2686,-16.23,2021-12-17 16:32:55.093750
2687,-15.24,2021-12-17 16:32:55.109375
2688,-13.12,2021-12-17 16:32:55.125000
2689,-10.19,2021-12-17 16:32:55.140625
2690,-6.9,2021-12-17 16:32:55.156250
2691,-3.63,2021-12-17 16:32:55.171875
2692,-0.67,2021-12-17 16:32:55.187500
2693,1.93,2021-12-17 16:32:55.203125
2694,4.31,2021-12-17 16:32:55.218750
2695,6.83,2021-12-17 16:32:55.234375
2696,9.96,2021-12-17 16:32:55.250000
2697,13.91,2021-12-17 16:32:55.265625
2698,18.61,2021-12-17 16:32:55.281250
2699,23.52,2021-12-17 16:32:55.296875
2700,27.75,2021-12-17 16:32:55.312500
2701,30.34,2021-12-17 16:32:55.328125
2702,30.52,2021-12-17 16:32:55.343750
2703,28.18,2021-12-17 16:32:55.359375
2704,24.09,2021-12-17 16:32:55.375000
2705,19.94,2021-12-17 16:32:55.390625
2706,17.76,2021-12-17 16:32:55.406250
2707,19.16,2021-12-17 16:32:55.421875
2708,24.51,2021-12-17 16:32:55.437500
2709,32.54,2021-12-17 16:32:55.453125
2710,40.51,2021-12-17 16:32:55.468750
2711,45.04,2021-12-17 16:32:55.484375
2712,43.14,2021-12-17 16:32:55.500000
2713,33.19,2021-12-17 16:32:55.515625
2714,15.47,2021-12-17 16:32:55.531250
2715,-8.04,2021-12-17 16:32:55.546875
2716,-34.25,2021-12-17 16:32:55.562500
2717,-59.83,2021-12-17 16:32:55.578125
2718,-81.96,2021-12-17 16:32:55.593750
2719,-98.79,2021-12-17 16:32:55.609375
2720,-109.78,2021-12-17 16:32:55.625000
2721,-115.62,2021-12-17 16:32:55.640625
2722,-118.04,2021-12-17 16:32:55.656250
2723,-119.19,2021-12-17 16:32:55.671875
2724,-121.05,2021-12-17 16:32:55.687500
2725,-124.85,2021-12-17 16:32:55.703125
2726,-130.73,2021-12-17 16:32:55.718750
2727,-137.79,2021-12-17 16:32:55.734375
2728,-144.42,2021-12-17 16:32:55.750000
2729,-148.87,2021-12-17 16:32:55.765625
2730,-149.74,2021-12-17 16:32:55.781250
2731,-146.34,2021-12-17 16:32:55.796875
2732,-138.55,2021-12-17 16:32:55.812500
2733,-126.63,2021-12-17 16:32:55.828125
2734,-110.83,2021-12-17 16:32:55.843750
2735,-91.35,2021-12-17 16:32:55.859375
2736,-68.41,2021-12-17 16:32:55.875000
2737,-42.4,2021-12-17 16:32:55.890625
2738,-14.19,2021-12-17 16:32:55.906250
2739,14.87,2021-12-17 16:32:55.921875
2740,43.07,2021-12-17 16:32:55.937500
2741,68.62,2021-12-17 16:32:55.953125
2742,89.88,2021-12-17 16:32:55.968750
2743,105.49,2021-12-17 16:32:55.984375
2744,114.51,2021-12-17 16:32:56.000000
2745,116.5,2021-12-17 16:32:56.015625
2746,111.91,2021-12-17 16:32:56.031250
2747,102.17,2021-12-17 16:32:56.046875
2748,89.54,2021-12-17 16:32:56.062500
2749,76.53,2021-12-17 16:32:56.078125
2750,65.16,2021-12-17 16:32:56.093750
2751,56.19,2021-12-17 16:32:56.109375
2752,48.98,2021-12-17 16:32:56.125000
2753,42.09,2021-12-17 16:32:56.140625
2754,34.17,2021-12-17 16:32:56.156250
2755,24.88,2021-12-17 16:32:56.171875
2756,15.09,2021-12-17 16:32:56.187500
2757,6.35,2021-12-17 16:32:56.203125
2758,-0.0,2021-12-17 16:32:56.218750
2759,-3.53,2021-12-17 16:32:56.234375
2760,-4.94,2021-12-17 16:32:56.250000
2761,-5.57,2021-12-17 16:32:56.265625
2762,-6.46,2021-12-17 16:32:56.281250
2763,-7.89,2021-12-17 16:32:56.296875
2764,-9.36,2021-12-17 16:32:56.312500
2765,-10.01,2021-12-17 16:32:56.328125
2766,-9.46,2021-12-17 16:32:56.343750
2767,-8.12,2021-12-17 16:32:56.359375
2768,-7.27,2021-12-17 16:32:56.375000
2769,-8.42,2021-12-17 16:32:56.390625
2770,-12.76,2021-12-17 16:32:56.406250
2771,-20.47,2021-12-17 16:32:56.421875
2772,-30.78,2021-12-17 16:32:56.437500
2773,-42.28,2021-12-17 16:32:56.453125
2774,-53.23,2021-12-17 16:32:56.468750
2775,-62.03,2021-12-17 16:32:56.484375
2776,-67.34,2021-12-17 16:32:56.500000
2777,-68.24,2021-12-17 16:32:56.515625
2778,-64.42,2021-12-17 16:32:56.531250
2779,-56.52,2021-12-17 16:32:56.546875
2780,-46.42,2021-12-17 16:32:56.562500
2781,-36.98,2021-12-17 16:32:56.578125
2782,-31.08,2021-12-17 16:32:56.593750
2783,-30.26,2021-12-17 16:32:56.609375
2784,-33.85,2021-12-17 16:32:56.625000
2785,-38.86,2021-12-17 16:32:56.640625
2786,-41.2,2021-12-17 16:32:56.656250
2787,-37.41,2021-12-17 16:32:56.671875
2788,-25.88,2021-12-17 16:32:56.687500
2789,-7.2,2021-12-17 16:32:56.703125
2790,16.66,2021-12-17 16:32:56.718750
2791,43.52,2021-12-17 16:32:56.734375
2792,71.61,2021-12-17 16:32:56.750000
2793,99.25,2021-12-17 16:32:56.765625
2794,124.13,2021-12-17 16:32:56.781250
2795,143.24,2021-12-17 16:32:56.796875
2796,153.48,2021-12-17 16:32:56.812500
2797,153.15,2021-12-17 16:32:56.828125
2798,142.97,2021-12-17 16:32:56.843750
2799,125.96,2021-12-17 16:32:56.859375
2800,106.41,2021-12-17 16:32:56.875000
2801,88.48,2021-12-17 16:32:56.890625
2802,75.01,2021-12-17 16:32:56.906250
2803,67.43,2021-12-17 16:32:56.921875
2804,66.55,2021-12-17 16:32:56.937500
2805,73.14,2021-12-17 16:32:56.953125
2806,87.96,2021-12-17 16:32:56.968750
2807,110.98,2021-12-17 16:32:56.984375
2808,140.62,2021-12-17 16:32:57.000000
2809,173.5,2021-12-17 16:32:57.015625
2810,205.1,2021-12-17 16:32:57.031250
2811,230.72,2021-12-17 16:32:57.046875
2812,246.11,2021-12-17 16:32:57.062500
2813,247.97,2021-12-17 16:32:57.078125
2814,234.25,2021-12-17 16:32:57.093750
2815,204.55,2021-12-17 16:32:57.109375
2816,160.44,2021-12-17 16:32:57.125000
2817,105.43,2021-12-17 16:32:57.140625
2818,44.3,2021-12-17 16:32:57.156250
2819,-18.01,2021-12-17 16:32:57.171875
2820,-77.14,2021-12-17 16:32:57.187500
2821,-129.83,2021-12-17 16:32:57.203125
2822,-173.33,2021-12-17 16:32:57.218750
2823,-204.99,2021-12-17 16:32:57.234375
2824,-221.87,2021-12-17 16:32:57.250000
2825,-221.43,2021-12-17 16:32:57.265625
2826,-202.93,2021-12-17 16:32:57.281250
2827,-168.66,2021-12-17 16:32:57.296875
2828,-124.17,2021-12-17 16:32:57.312500
2829,-76.75,2021-12-17 16:32:57.328125
2830,-33.51,2021-12-17 16:32:57.343750
2831,0.76,2021-12-17 16:32:57.359375
2832,24.2,2021-12-17 16:32:57.375000
2833,37.51,2021-12-17 16:32:57.390625
2834,42.91,2021-12-17 16:32:57.406250
2835,42.91,2021-12-17 16:32:57.421875
2836,39.45,2021-12-17 16:32:57.437500
2837,33.73,2021-12-17 16:32:57.453125
2838,26.6,2021-12-17 16:32:57.468750
2839,18.69,2021-12-17 16:32:57.484375
2840,10.91,2021-12-17 16:32:57.500000
2841,4.17,2021-12-17 16:32:57.515625
2842,-0.96,2021-12-17 16:32:57.531250
2843,-4.47,2021-12-17 16:32:57.546875
2844,-6.98,2021-12-17 16:32:57.562500
2845,-9.41,2021-12-17 16:32:57.578125
2846,-12.54,2021-12-17 16:32:57.593750
2847,-16.46,2021-12-17 16:32:57.609375
2848,-20.69,2021-12-17 16:32:57.625000
2849,-24.17,2021-12-17 16:32:57.640625
2850,-25.83,2021-12-17 16:32:57.656250
2851,-25.11,2021-12-17 16:32:57.671875
2852,-22.15,2021-12-17 16:32:57.687500
2853,-17.75,2021-12-17 16:32:57.703125
2854,-13.03,2021-12-17 16:32:57.718750
2855,-8.93,2021-12-17 16:32:57.734375
2856,-5.97,2021-12-17 16:32:57.750000
2857,-4.31,2021-12-17 16:32:57.765625
2858,-3.92,2021-12-17 16:32:57.781250
2859,-4.76,2021-12-17 16:32:57.796875
2860,-6.95,2021-12-17 16:32:57.812500
2861,-10.39,2021-12-17 16:32:57.828125
2862,-14.85,2021-12-17 16:32:57.843750
2863,-19.79,2021-12-17 16:32:57.859375
2864,-24.58,2021-12-17 16:32:57.875000
2865,-28.56,2021-12-17 16:32:57.890625
2866,-31.31,2021-12-17 16:32:57.906250
2867,-32.52,2021-12-17 16:32:57.921875
2868,-31.94,2021-12-17 16:32:57.937500
2869,-29.39,2021-12-17 16:32:57.953125
2870,-24.75,2021-12-17 16:32:57.968750
2871,-18.14,2021-12-17 16:32:57.984375
2872,-10.02,2021-12-17 16:32:58.000000
2873,-1.2,2021-12-17 16:32:58.015625
2874,7.44,2021-12-17 16:32:58.031250
2875,15.14,2021-12-17 16:32:58.046875
2876,21.4,2021-12-17 16:32:58.062500
2877,26.01,2021-12-17 16:32:58.078125
2878,28.96,2021-12-17 16:32:58.093750
2879,30.35,2021-12-17 16:32:58.109375
2880,30.43,2021-12-17 16:32:58.125000
2881,29.46,2021-12-17 16:32:58.140625
2882,27.76,2021-12-17 16:32:58.156250
2883,25.49,2021-12-17 16:32:58.171875
2884,22.65,2021-12-17 16:32:58.187500
2885,19.08,2021-12-17 16:32:58.203125
2886,14.71,2021-12-17 16:32:58.218750
2887,9.72,2021-12-17 16:32:58.234375
2888,4.66,2021-12-17 16:32:58.250000
2889,0.24,2021-12-17 16:32:58.265625
2890,-3.03,2021-12-17 16:32:58.281250
2891,-5.06,2021-12-17 16:32:58.296875
2892,-6.31,2021-12-17 16:32:58.312500
2893,-7.47,2021-12-17 16:32:58.328125
2894,-9.23,2021-12-17 16:32:58.343750
2895,-11.9,2021-12-17 16:32:58.359375
2896,-15.43,2021-12-17 16:32:58.375000
2897,-19.39,2021-12-17 16:32:58.390625
2898,-23.3,2021-12-17 16:32:58.406250
2899,-26.76,2021-12-17 16:32:58.421875
2900,-29.56,2021-12-17 16:32:58.437500
2901,-31.73,2021-12-17 16:32:58.453125
2902,-33.3,2021-12-17 16:32:58.468750
2903,-34.33,2021-12-17 16:32:58.484375
2904,-34.73,2021-12-17 16:32:58.500000
2905,-34.29,2021-12-17 16:32:58.515625
2906,-32.67,2021-12-17 16:32:58.531250
2907,-29.56,2021-12-17 16:32:58.546875
2908,-24.86,2021-12-17 16:32:58.562500
2909,-18.69,2021-12-17 16:32:58.578125
2910,-11.51,2021-12-17 16:32:58.593750
2911,-3.91,2021-12-17 16:32:58.609375
2912,3.46,2021-12-17 16:32:58.625000
2913,10.01,2021-12-17 16:32:58.640625
2914,15.36,2021-12-17 16:32:58.656250
2915,19.3,2021-12-17 16:32:58.671875
2916,21.79,2021-12-17 16:32:58.687500
2917,22.97,2021-12-17 16:32:58.703125
2918,23.09,2021-12-17 16:32:58.718750
2919,22.52,2021-12-17 16:32:58.734375
2920,21.73,2021-12-17 16:32:58.750000
2921,21.18,2021-12-17 16:32:58.765625
2922,21.18,2021-12-17 16:32:58.781250
2923,21.79,2021-12-17 16:32:58.796875
2924,22.75,2021-12-17 16:32:58.812500
2925,23.62,2021-12-17 16:32:58.828125
2926,23.97,2021-12-17 16:32:58.843750
2927,23.53,2021-12-17 16:32:58.859375
2928,22.32,2021-12-17 16:32:58.875000
2929,20.56,2021-12-17 16:32:58.890625
2930,18.6,2021-12-17 16:32:58.906250
2931,16.75,2021-12-17 16:32:58.921875
2932,15.19,2021-12-17 16:32:58.937500
2933,13.93,2021-12-17 16:32:58.953125
2934,12.95,2021-12-17 16:32:58.968750
2935,12.21,2021-12-17 16:32:58.984375
2936,11.65,2021-12-17 16:32:59.000000
2937,11.15,2021-12-17 16:32:59.015625
2938,10.58,2021-12-17 16:32:59.031250
2939,9.72,2021-12-17 16:32:59.046875
2940,8.41,2021-12-17 16:32:59.062500
2941,6.56,2021-12-17 16:32:59.078125
2942,4.21,2021-12-17 16:32:59.093750
2943,1.51,2021-12-17 16:32:59.109375
2944,-1.27,2021-12-17 16:32:59.125000
2945,-3.9,2021-12-17 16:32:59.140625
2946,-6.22,2021-12-17 16:32:59.156250
2947,-8.03,2021-12-17 16:32:59.171875
2948,-9.25,2021-12-17 16:32:59.187500
2949,-9.79,2021-12-17 16:32:59.203125
2950,-9.61,2021-12-17 16:32:59.218750
2951,-8.76,2021-12-17 16:32:59.234375
2952,-7.38,2021-12-17 16:32:59.250000
2953,-5.74,2021-12-17 16:32:59.265625
2954,-4.2,2021-12-17 16:32:59.281250
2955,-3.08,2021-12-17 16:32:59.296875
2956,-2.57,2021-12-17 16:32:59.312500
2957,-2.7,2021-12-17 16:32:59.328125
2958,-3.35,2021-12-17 16:32:59.343750
2959,-4.36,2021-12-17 16:32:59.359375
2960,-5.53,2021-12-17 16:32:59.375000
2961,-6.75,2021-12-17 16:32:59.390625
2962,-8.01,2021-12-17 16:32:59.406250
2963,-9.34,2021-12-17 16:32:59.421875
2964,-10.71,2021-12-17 16:32:59.437500
2965,-12.11,2021-12-17 16:32:59.453125
2966,-13.45,2021-12-17 16:32:59.468750
2967,-14.67,2021-12-17 16:32:59.484375
2968,-15.71,2021-12-17 16:32:59.500000
2969,-16.55,2021-12-17 16:32:59.515625
2970,-17.16,2021-12-17 16:32:59.531250
2971,-17.56,2021-12-17 16:32:59.546875
2972,-17.72,2021-12-17 16:32:59.562500
2973,-17.63,2021-12-17 16:32:59.578125
2974,-17.35,2021-12-17 16:32:59.593750
2975,-16.96,2021-12-17 16:32:59.609375
2976,-16.6,2021-12-17 16:32:59.625000
2977,-16.37,2021-12-17 16:32:59.640625
2978,-16.38,2021-12-17 16:32:59.656250
2979,-16.58,2021-12-17 16:32:59.671875
2980,-16.84,2021-12-17 16:32:59.687500
2981,-16.93,2021-12-17 16:32:59.703125
2982,-16.64,2021-12-17 16:32:59.718750
2983,-15.84,2021-12-17 16:32:59.734375
2984,-14.49,2021-12-17 16:32:59.750000
2985,-12.65,2021-12-17 16:32:59.765625
2986,-10.43,2021-12-17 16:32:59.781250
2987,-8.06,2021-12-17 16:32:59.796875
2988,-5.77,2021-12-17 16:32:59.812500
2989,-3.82,2021-12-17 16:32:59.828125
2990,-2.37,2021-12-17 16:32:59.843750
2991,-1.5,2021-12-17 16:32:59.859375
2992,-1.17,2021-12-17 16:32:59.875000
2993,-1.23,2021-12-17 16:32:59.890625
2994,-1.49,2021-12-17 16:32:59.906250
2995,-1.77,2021-12-17 16:32:59.921875
2996,-1.95,2021-12-17 16:32:59.937500
2997,-1.99,2021-12-17 16:32:59.953125
2998,-1.93,2021-12-17 16:32:59.968750
2999,-1.7,2021-12-17 16:32:59.984375
3000,-1.33,2021-12-17 16:33:00.000000
3001,-0.78,2021-12-17 16:33:00.015625
3002,-0.11,2021-12-17 16:33:00.031250
3003,0.59,2021-12-17 16:33:00.046875
3004,1.19,2021-12-17 16:33:00.062500
3005,1.55,2021-12-17 16:33:00.078125
3006,1.6,2021-12-17 16:33:00.093750
3007,1.4,2021-12-17 16:33:00.109375
3008,1.15,2021-12-17 16:33:00.125000
3009,1.04,2021-12-17 16:33:00.140625
3010,1.15,2021-12-17 16:33:00.156250
3011,1.43,2021-12-17 16:33:00.171875
3012,1.75,2021-12-17 16:33:00.187500
3013,1.98,2021-12-17 16:33:00.203125
3014,2.08,2021-12-17 16:33:00.218750
3015,2.14,2021-12-17 16:33:00.234375
3016,2.32,2021-12-17 16:33:00.250000
3017,2.72,2021-12-17 16:33:00.265625
3018,3.31,2021-12-17 16:33:00.281250
3019,3.98,2021-12-17 16:33:00.296875
3020,4.49,2021-12-17 16:33:00.312500
3021,4.72,2021-12-17 16:33:00.328125
3022,4.67,2021-12-17 16:33:00.343750
3023,4.5,2021-12-17 16:33:00.359375
3024,4.4,2021-12-17 16:33:00.375000
3025,4.56,2021-12-17 16:33:00.390625
3026,5.04,2021-12-17 16:33:00.406250
3027,5.81,2021-12-17 16:33:00.421875
3028,6.82,2021-12-17 16:33:00.437500
3029,7.97,2021-12-17 16:33:00.453125
3030,9.23,2021-12-17 16:33:00.468750
3031,10.63,2021-12-17 16:33:00.484375
3032,12.24,2021-12-17 16:33:00.500000
3033,14.12,2021-12-17 16:33:00.515625
3034,16.31,2021-12-17 16:33:00.531250
3035,18.77,2021-12-17 16:33:00.546875
3036,21.4,2021-12-17 16:33:00.562500
3037,24.08,2021-12-17 16:33:00.578125
3038,26.73,2021-12-17 16:33:00.593750
3039,29.35,2021-12-17 16:33:00.609375
3040,32.08,2021-12-17 16:33:00.625000
3041,35.21,2021-12-17 16:33:00.640625
3042,39.0,2021-12-17 16:33:00.656250
3043,43.56,2021-12-17 16:33:00.671875
3044,48.76,2021-12-17 16:33:00.687500
3045,54.14,2021-12-17 16:33:00.703125
3046,59.02,2021-12-17 16:33:00.718750
3047,62.73,2021-12-17 16:33:00.734375
3048,64.78,2021-12-17 16:33:00.750000
3049,64.95,2021-12-17 16:33:00.765625
3050,63.36,2021-12-17 16:33:00.781250
3051,60.32,2021-12-17 16:33:00.796875
3052,56.1,2021-12-17 16:33:00.812500
3053,50.87,2021-12-17 16:33:00.828125
3054,44.61,2021-12-17 16:33:00.843750
3055,37.27,2021-12-17 16:33:00.859375
3056,28.85,2021-12-17 16:33:00.875000
3057,19.63,2021-12-17 16:33:00.890625
3058,10.05,2021-12-17 16:33:00.906250
3059,0.72,2021-12-17 16:33:00.921875
3060,-7.75,2021-12-17 16:33:00.937500
3061,-14.99,2021-12-17 16:33:00.953125
3062,-20.86,2021-12-17 16:33:00.968750
3063,-25.59,2021-12-17 16:33:00.984375
3064,-29.5,2021-12-17 16:33:01.000000
3065,-32.91,2021-12-17 16:33:01.015625
3066,-35.91,2021-12-17 16:33:01.031250
3067,-38.39,2021-12-17 16:33:01.046875
3068,-40.15,2021-12-17 16:33:01.062500
3069,-41.13,2021-12-17 16:33:01.078125
3070,-41.76,2021-12-17 16:33:01.093750
3071,-42.85,2021-12-17 16:33:01.109375
3072,-45.62,2021-12-17 16:33:01.125000
3073,-51.03,2021-12-17 16:33:01.140625
3074,-59.5,2021-12-17 16:33:01.156250
3075,-70.6,2021-12-17 16:33:01.171875
3076,-83.26,2021-12-17 16:33:01.187500
3077,-96.35,2021-12-17 16:33:01.203125
3078,-109.04,2021-12-17 16:33:01.218750
3079,-121.03,2021-12-17 16:33:01.234375
3080,-132.31,2021-12-17 16:33:01.250000
3081,-142.68,2021-12-17 16:33:01.265625
3082,-151.27,2021-12-17 16:33:01.281250
3083,-156.52,2021-12-17 16:33:01.296875
3084,-156.57,2021-12-17 16:33:01.312500
3085,-149.74,2021-12-17 16:33:01.328125
3086,-134.94,2021-12-17 16:33:01.343750
3087,-111.61,2021-12-17 16:33:01.359375
3088,-79.64,2021-12-17 16:33:01.375000
3089,-39.52,2021-12-17 16:33:01.390625
3090,7.08,2021-12-17 16:33:01.406250
3091,56.7,2021-12-17 16:33:01.421875
3092,104.09,2021-12-17 16:33:01.437500
3093,142.91,2021-12-17 16:33:01.453125
3094,167.58,2021-12-17 16:33:01.468750
3095,174.95,2021-12-17 16:33:01.484375
3096,165.47,2021-12-17 16:33:01.500000
3097,142.8,2021-12-17 16:33:01.515625
3098,112.47,2021-12-17 16:33:01.531250
3099,80.06,2021-12-17 16:33:01.546875
3100,49.74,2021-12-17 16:33:01.562500
3101,23.96,2021-12-17 16:33:01.578125
3102,3.65,2021-12-17 16:33:01.593750
3103,-10.93,2021-12-17 16:33:01.609375
3104,-19.95,2021-12-17 16:33:01.625000
3105,-23.82,2021-12-17 16:33:01.640625
3106,-23.45,2021-12-17 16:33:01.656250
3107,-20.26,2021-12-17 16:33:01.671875
3108,-15.89,2021-12-17 16:33:01.687500
3109,-11.86,2021-12-17 16:33:01.703125
3110,-9.07,2021-12-17 16:33:01.718750
3111,-7.68,2021-12-17 16:33:01.734375
3112,-7.15,2021-12-17 16:33:01.750000
3113,-6.74,2021-12-17 16:33:01.765625
3114,-5.94,2021-12-17 16:33:01.781250
3115,-4.66,2021-12-17 16:33:01.796875
3116,-3.38,2021-12-17 16:33:01.812500
3117,-2.75,2021-12-17 16:33:01.828125
3118,-3.34,2021-12-17 16:33:01.843750
3119,-5.3,2021-12-17 16:33:01.859375
3120,-8.28,2021-12-17 16:33:01.875000
3121,-11.51,2021-12-17 16:33:01.890625
3122,-14.05,2021-12-17 16:33:01.906250
3123,-15.16,2021-12-17 16:33:01.921875
3124,-14.44,2021-12-17 16:33:01.937500
3125,-12.03,2021-12-17 16:33:01.953125
3126,-8.53,2021-12-17 16:33:01.968750
3127,-4.8,2021-12-17 16:33:01.984375
3128,-1.6,2021-12-17 16:33:02.000000
3129,0.67,2021-12-17 16:33:02.015625
3130,2.08,2021-12-17 16:33:02.031250
3131,3.11,2021-12-17 16:33:02.046875
3132,4.17,2021-12-17 16:33:02.062500
3133,5.43,2021-12-17 16:33:02.078125
3134,6.6,2021-12-17 16:33:02.093750
3135,7.14,2021-12-17 16:33:02.109375
3136,6.57,2021-12-17 16:33:02.125000
3137,4.85,2021-12-17 16:33:02.140625
3138,2.28,2021-12-17 16:33:02.156250
3139,-0.49,2021-12-17 16:33:02.171875
3140,-2.86,2021-12-17 16:33:02.187500
3141,-4.47,2021-12-17 16:33:02.203125
3142,-5.35,2021-12-17 16:33:02.218750
3143,-5.77,2021-12-17 16:33:02.234375
3144,-5.99,2021-12-17 16:33:02.250000
3145,-6.16,2021-12-17 16:33:02.265625
3146,-6.27,2021-12-17 16:33:02.281250
3147,-6.2,2021-12-17 16:33:02.296875
3148,-5.79,2021-12-17 16:33:02.312500
3149,-4.91,2021-12-17 16:33:02.328125
3150,-3.59,2021-12-17 16:33:02.343750
3151,-1.95,2021-12-17 16:33:02.359375
3152,-0.25,2021-12-17 16:33:02.375000
3153,1.3,2021-12-17 16:33:02.390625
3154,2.54,2021-12-17 16:33:02.406250
3155,3.47,2021-12-17 16:33:02.421875
3156,4.12,2021-12-17 16:33:02.437500
3157,4.53,2021-12-17 16:33:02.453125
