,BVP,time
0,-7.16,2021-12-17 17:09:22.281250
1,-9.09,2021-12-17 17:09:22.296875
2,-11.05,2021-12-17 17:09:22.312500
3,-13.18,2021-12-17 17:09:22.328125
4,-15.58,2021-12-17 17:09:22.343750
5,-18.25,2021-12-17 17:09:22.359375
6,-21.11,2021-12-17 17:09:22.375000
7,-23.96,2021-12-17 17:09:22.390625
8,-26.61,2021-12-17 17:09:22.406250
9,-28.92,2021-12-17 17:09:22.421875
10,-30.9,2021-12-17 17:09:22.437500
11,-32.7,2021-12-17 17:09:22.453125
12,-34.59,2021-12-17 17:09:22.468750
13,-36.9,2021-12-17 17:09:22.484375
14,-39.8,2021-12-17 17:09:22.500000
15,-43.24,2021-12-17 17:09:22.515625
16,-46.81,2021-12-17 17:09:22.531250
17,-49.78,2021-12-17 17:09:22.546875
18,-51.19,2021-12-17 17:09:22.562500
19,-50.0,2021-12-17 17:09:22.578125
20,-45.31,2021-12-17 17:09:22.593750
21,-36.59,2021-12-17 17:09:22.609375
22,-23.9,2021-12-17 17:09:22.625000
23,-8.05,2021-12-17 17:09:22.640625
24,9.6,2021-12-17 17:09:22.656250
25,27.43,2021-12-17 17:09:22.671875
26,43.99,2021-12-17 17:09:22.687500
27,58.3,2021-12-17 17:09:22.703125
28,70.02,2021-12-17 17:09:22.718750
29,79.23,2021-12-17 17:09:22.734375
30,86.12,2021-12-17 17:09:22.750000
31,90.8,2021-12-17 17:09:22.765625
32,93.24,2021-12-17 17:09:22.781250
33,93.34,2021-12-17 17:09:22.796875
34,91.11,2021-12-17 17:09:22.812500
35,86.68,2021-12-17 17:09:22.828125
36,80.29,2021-12-17 17:09:22.843750
37,72.15,2021-12-17 17:09:22.859375
38,62.43,2021-12-17 17:09:22.875000
39,51.33,2021-12-17 17:09:22.890625
40,39.18,2021-12-17 17:09:22.906250
41,26.46,2021-12-17 17:09:22.921875
42,13.81,2021-12-17 17:09:22.937500
43,1.87,2021-12-17 17:09:22.953125
44,-8.84,2021-12-17 17:09:22.968750
45,-18.13,2021-12-17 17:09:22.984375
46,-26.33,2021-12-17 17:09:23.000000
47,-34.18,2021-12-17 17:09:23.015625
48,-42.68,2021-12-17 17:09:23.031250
49,-52.55,2021-12-17 17:09:23.046875
50,-63.87,2021-12-17 17:09:23.062500
51,-75.8,2021-12-17 17:09:23.078125
52,-86.72,2021-12-17 17:09:23.093750
53,-94.73,2021-12-17 17:09:23.109375
54,-98.22,2021-12-17 17:09:23.125000
55,-96.51,2021-12-17 17:09:23.140625
56,-90.11,2021-12-17 17:09:23.156250
57,-80.39,2021-12-17 17:09:23.171875
58,-68.82,2021-12-17 17:09:23.187500
59,-56.28,2021-12-17 17:09:23.203125
60,-42.49,2021-12-17 17:09:23.218750
61,-26.02,2021-12-17 17:09:23.234375
62,-4.84,2021-12-17 17:09:23.250000
63,22.91,2021-12-17 17:09:23.265625
64,57.97,2021-12-17 17:09:23.281250
65,99.28,2021-12-17 17:09:23.296875
66,144.12,2021-12-17 17:09:23.312500
67,188.79,2021-12-17 17:09:23.328125
68,229.91,2021-12-17 17:09:23.343750
69,265.45,2021-12-17 17:09:23.359375
70,295.27,2021-12-17 17:09:23.375000
71,320.75,2021-12-17 17:09:23.390625
72,343.78,2021-12-17 17:09:23.406250
73,365.52,2021-12-17 17:09:23.421875
74,385.75,2021-12-17 17:09:23.437500
75,402.88,2021-12-17 17:09:23.453125
76,414.75,2021-12-17 17:09:23.468750
77,419.57,2021-12-17 17:09:23.484375
78,416.66,2021-12-17 17:09:23.500000
79,406.54,2021-12-17 17:09:23.515625
80,390.21,2021-12-17 17:09:23.531250
81,368.52,2021-12-17 17:09:23.546875
82,341.72,2021-12-17 17:09:23.562500
83,309.62,2021-12-17 17:09:23.578125
84,272.06,2021-12-17 17:09:23.593750
85,229.32,2021-12-17 17:09:23.609375
86,181.96,2021-12-17 17:09:23.625000
87,130.22,2021-12-17 17:09:23.640625
88,73.51,2021-12-17 17:09:23.656250
89,10.52,2021-12-17 17:09:23.671875
90,-59.27,2021-12-17 17:09:23.687500
91,-133.95,2021-12-17 17:09:23.703125
92,-208.0,2021-12-17 17:09:23.718750
93,-272.95,2021-12-17 17:09:23.734375
94,-319.83,2021-12-17 17:09:23.750000
95,-342.3,2021-12-17 17:09:23.765625
96,-338.82,2021-12-17 17:09:23.781250
97,-312.68,2021-12-17 17:09:23.796875
98,-270.1,2021-12-17 17:09:23.812500
99,-217.92,2021-12-17 17:09:23.828125
100,-162.11,2021-12-17 17:09:23.843750
101,-107.89,2021-12-17 17:09:23.859375
102,-60.51,2021-12-17 17:09:23.875000
103,-25.51,2021-12-17 17:09:23.890625
104,-7.43,2021-12-17 17:09:23.906250
105,-7.82,2021-12-17 17:09:23.921875
106,-23.74,2021-12-17 17:09:23.937500
107,-48.32,2021-12-17 17:09:23.953125
108,-73.33,2021-12-17 17:09:23.968750
109,-92.5,2021-12-17 17:09:23.984375
110,-103.83,2021-12-17 17:09:24.000000
111,-109.55,2021-12-17 17:09:24.015625
112,-114.11,2021-12-17 17:09:24.031250
113,-121.38,2021-12-17 17:09:24.046875
114,-132.74,2021-12-17 17:09:24.062500
115,-146.77,2021-12-17 17:09:24.078125
116,-160.56,2021-12-17 17:09:24.093750
117,-171.49,2021-12-17 17:09:24.109375
118,-178.47,2021-12-17 17:09:24.125000
119,-182.02,2021-12-17 17:09:24.140625
120,-183.41,2021-12-17 17:09:24.156250
121,-183.54,2021-12-17 17:09:24.171875
122,-182.17,2021-12-17 17:09:24.187500
123,-178.12,2021-12-17 17:09:24.203125
124,-170.14,2021-12-17 17:09:24.218750
125,-157.84,2021-12-17 17:09:24.234375
126,-141.96,2021-12-17 17:09:24.250000
127,-123.92,2021-12-17 17:09:24.265625
128,-105.11,2021-12-17 17:09:24.281250
129,-86.44,2021-12-17 17:09:24.296875
130,-68.49,2021-12-17 17:09:24.312500
131,-51.97,2021-12-17 17:09:24.328125
132,-38.3,2021-12-17 17:09:24.343750
133,-29.44,2021-12-17 17:09:24.359375
134,-27.28,2021-12-17 17:09:24.375000
135,-32.76,2021-12-17 17:09:24.390625
136,-45.39,2021-12-17 17:09:24.406250
137,-63.51,2021-12-17 17:09:24.421875
138,-84.9,2021-12-17 17:09:24.437500
139,-107.68,2021-12-17 17:09:24.453125
140,-130.69,2021-12-17 17:09:24.468750
141,-153.48,2021-12-17 17:09:24.484375
142,-176.09,2021-12-17 17:09:24.500000
143,-198.8,2021-12-17 17:09:24.515625
144,-222.01,2021-12-17 17:09:24.531250
145,-246.04,2021-12-17 17:09:24.546875
146,-270.68,2021-12-17 17:09:24.562500
147,-294.79,2021-12-17 17:09:24.578125
148,-315.95,2021-12-17 17:09:24.593750
149,-330.8,2021-12-17 17:09:24.609375
150,-335.94,2021-12-17 17:09:24.625000
151,-329.0,2021-12-17 17:09:24.640625
152,-309.65,2021-12-17 17:09:24.656250
153,-279.83,2021-12-17 17:09:24.671875
154,-243.31,2021-12-17 17:09:24.687500
155,-204.45,2021-12-17 17:09:24.703125
156,-166.94,2021-12-17 17:09:24.718750
157,-132.82,2021-12-17 17:09:24.734375
158,-102.31,2021-12-17 17:09:24.750000
159,-74.31,2021-12-17 17:09:24.765625
160,-47.21,2021-12-17 17:09:24.781250
161,-19.71,2021-12-17 17:09:24.796875
162,8.81,2021-12-17 17:09:24.812500
163,38.28,2021-12-17 17:09:24.828125
164,68.11,2021-12-17 17:09:24.843750
165,97.42,2021-12-17 17:09:24.859375
166,125.14,2021-12-17 17:09:24.875000
167,150.07,2021-12-17 17:09:24.890625
168,171.05,2021-12-17 17:09:24.906250
169,187.07,2021-12-17 17:09:24.921875
170,197.59,2021-12-17 17:09:24.937500
171,202.59,2021-12-17 17:09:24.953125
172,202.58,2021-12-17 17:09:24.968750
173,198.54,2021-12-17 17:09:24.984375
174,191.68,2021-12-17 17:09:25.000000
175,183.16,2021-12-17 17:09:25.015625
176,173.94,2021-12-17 17:09:25.031250
177,164.58,2021-12-17 17:09:25.046875
178,155.24,2021-12-17 17:09:25.062500
179,145.75,2021-12-17 17:09:25.078125
180,135.86,2021-12-17 17:09:25.093750
181,125.56,2021-12-17 17:09:25.109375
182,115.23,2021-12-17 17:09:25.125000
183,105.52,2021-12-17 17:09:25.140625
184,97.07,2021-12-17 17:09:25.156250
185,90.16,2021-12-17 17:09:25.171875
186,84.61,2021-12-17 17:09:25.187500
187,79.8,2021-12-17 17:09:25.203125
188,75.07,2021-12-17 17:09:25.218750
189,69.96,2021-12-17 17:09:25.234375
190,64.38,2021-12-17 17:09:25.250000
191,58.55,2021-12-17 17:09:25.265625
192,52.8,2021-12-17 17:09:25.281250
193,47.42,2021-12-17 17:09:25.296875
194,42.58,2021-12-17 17:09:25.312500
195,38.31,2021-12-17 17:09:25.328125
196,34.56,2021-12-17 17:09:25.343750
197,31.25,2021-12-17 17:09:25.359375
198,28.29,2021-12-17 17:09:25.375000
199,25.58,2021-12-17 17:09:25.390625
200,23.04,2021-12-17 17:09:25.406250
201,20.63,2021-12-17 17:09:25.421875
202,18.34,2021-12-17 17:09:25.437500
203,16.21,2021-12-17 17:09:25.453125
204,14.25,2021-12-17 17:09:25.468750
205,12.46,2021-12-17 17:09:25.484375
206,10.79,2021-12-17 17:09:25.500000
207,9.2,2021-12-17 17:09:25.515625
208,7.64,2021-12-17 17:09:25.531250
209,6.11,2021-12-17 17:09:25.546875
210,4.6,2021-12-17 17:09:25.562500
211,3.12,2021-12-17 17:09:25.578125
212,1.69,2021-12-17 17:09:25.593750
213,0.33,2021-12-17 17:09:25.609375
214,-0.95,2021-12-17 17:09:25.625000
215,-2.1,2021-12-17 17:09:25.640625
216,-3.17,2021-12-17 17:09:25.656250
217,-4.26,2021-12-17 17:09:25.671875
218,-5.49,2021-12-17 17:09:25.687500
219,-7.02,2021-12-17 17:09:25.703125
220,-8.93,2021-12-17 17:09:25.718750
221,-11.24,2021-12-17 17:09:25.734375
222,-13.84,2021-12-17 17:09:25.750000
223,-16.58,2021-12-17 17:09:25.765625
224,-19.25,2021-12-17 17:09:25.781250
225,-21.62,2021-12-17 17:09:25.796875
226,-23.47,2021-12-17 17:09:25.812500
227,-24.57,2021-12-17 17:09:25.828125
228,-24.71,2021-12-17 17:09:25.843750
229,-23.81,2021-12-17 17:09:25.859375
230,-21.94,2021-12-17 17:09:25.875000
231,-19.33,2021-12-17 17:09:25.890625
232,-16.34,2021-12-17 17:09:25.906250
233,-13.32,2021-12-17 17:09:25.921875
234,-10.54,2021-12-17 17:09:25.937500
235,-8.09,2021-12-17 17:09:25.953125
236,-5.89,2021-12-17 17:09:25.968750
237,-3.8,2021-12-17 17:09:25.984375
238,-1.66,2021-12-17 17:09:26.000000
239,0.5,2021-12-17 17:09:26.015625
240,2.53,2021-12-17 17:09:26.031250
241,4.15,2021-12-17 17:09:26.046875
242,5.09,2021-12-17 17:09:26.062500
243,5.25,2021-12-17 17:09:26.078125
244,4.77,2021-12-17 17:09:26.093750
245,3.96,2021-12-17 17:09:26.109375
246,3.18,2021-12-17 17:09:26.125000
247,2.69,2021-12-17 17:09:26.140625
248,2.5,2021-12-17 17:09:26.156250
249,2.5,2021-12-17 17:09:26.171875
250,2.49,2021-12-17 17:09:26.187500
251,2.32,2021-12-17 17:09:26.203125
252,1.98,2021-12-17 17:09:26.218750
253,1.53,2021-12-17 17:09:26.234375
254,1.05,2021-12-17 17:09:26.250000
255,0.59,2021-12-17 17:09:26.265625
256,0.15,2021-12-17 17:09:26.281250
257,-0.32,2021-12-17 17:09:26.296875
258,-0.87,2021-12-17 17:09:26.312500
259,-1.59,2021-12-17 17:09:26.328125
260,-2.49,2021-12-17 17:09:26.343750
261,-3.56,2021-12-17 17:09:26.359375
262,-4.7,2021-12-17 17:09:26.375000
263,-5.77,2021-12-17 17:09:26.390625
264,-6.65,2021-12-17 17:09:26.406250
265,-7.26,2021-12-17 17:09:26.421875
266,-7.68,2021-12-17 17:09:26.437500
267,-8.02,2021-12-17 17:09:26.453125
268,-8.43,2021-12-17 17:09:26.468750
269,-9.0,2021-12-17 17:09:26.484375
270,-9.74,2021-12-17 17:09:26.500000
271,-10.55,2021-12-17 17:09:26.515625
272,-11.34,2021-12-17 17:09:26.531250
273,-12.02,2021-12-17 17:09:26.546875
274,-12.52,2021-12-17 17:09:26.562500
275,-12.76,2021-12-17 17:09:26.578125
276,-12.63,2021-12-17 17:09:26.593750
277,-12.03,2021-12-17 17:09:26.609375
278,-10.88,2021-12-17 17:09:26.625000
279,-9.17,2021-12-17 17:09:26.640625
280,-7.01,2021-12-17 17:09:26.656250
281,-4.57,2021-12-17 17:09:26.671875
282,-2.07,2021-12-17 17:09:26.687500
283,0.35,2021-12-17 17:09:26.703125
284,2.58,2021-12-17 17:09:26.718750
285,4.7,2021-12-17 17:09:26.734375
286,6.82,2021-12-17 17:09:26.750000
287,9.1,2021-12-17 17:09:26.765625
288,11.64,2021-12-17 17:09:26.781250
289,14.4,2021-12-17 17:09:26.796875
290,17.18,2021-12-17 17:09:26.812500
291,19.71,2021-12-17 17:09:26.828125
292,21.72,2021-12-17 17:09:26.843750
293,23.07,2021-12-17 17:09:26.859375
294,23.81,2021-12-17 17:09:26.875000
295,24.17,2021-12-17 17:09:26.890625
296,24.47,2021-12-17 17:09:26.906250
297,24.99,2021-12-17 17:09:26.921875
298,25.85,2021-12-17 17:09:26.937500
299,27.0,2021-12-17 17:09:26.953125
300,28.22,2021-12-17 17:09:26.968750
301,29.2,2021-12-17 17:09:26.984375
302,29.65,2021-12-17 17:09:27.000000
303,29.37,2021-12-17 17:09:27.015625
304,28.32,2021-12-17 17:09:27.031250
305,26.59,2021-12-17 17:09:27.046875
306,24.36,2021-12-17 17:09:27.062500
307,21.83,2021-12-17 17:09:27.078125
308,19.16,2021-12-17 17:09:27.093750
309,16.47,2021-12-17 17:09:27.109375
310,13.78,2021-12-17 17:09:27.125000
311,11.09,2021-12-17 17:09:27.140625
312,8.36,2021-12-17 17:09:27.156250
313,5.57,2021-12-17 17:09:27.171875
314,2.73,2021-12-17 17:09:27.187500
315,-0.08,2021-12-17 17:09:27.203125
316,-2.72,2021-12-17 17:09:27.218750
317,-5.07,2021-12-17 17:09:27.234375
318,-7.06,2021-12-17 17:09:27.250000
319,-8.69,2021-12-17 17:09:27.265625
320,-10.08,2021-12-17 17:09:27.281250
321,-11.4,2021-12-17 17:09:27.296875
322,-12.78,2021-12-17 17:09:27.312500
323,-14.34,2021-12-17 17:09:27.328125
324,-16.08,2021-12-17 17:09:27.343750
325,-17.95,2021-12-17 17:09:27.359375
326,-19.83,2021-12-17 17:09:27.375000
327,-21.47,2021-12-17 17:09:27.390625
328,-22.57,2021-12-17 17:09:27.406250
329,-22.81,2021-12-17 17:09:27.421875
330,-21.98,2021-12-17 17:09:27.437500
331,-20.14,2021-12-17 17:09:27.453125
332,-17.59,2021-12-17 17:09:27.468750
333,-14.76,2021-12-17 17:09:27.484375
334,-12.03,2021-12-17 17:09:27.500000
335,-9.53,2021-12-17 17:09:27.515625
336,-7.16,2021-12-17 17:09:27.531250
337,-4.64,2021-12-17 17:09:27.546875
338,-1.76,2021-12-17 17:09:27.562500
339,1.49,2021-12-17 17:09:27.578125
340,4.86,2021-12-17 17:09:27.593750
341,8.0,2021-12-17 17:09:27.609375
342,10.6,2021-12-17 17:09:27.625000
343,12.49,2021-12-17 17:09:27.640625
344,13.68,2021-12-17 17:09:27.656250
345,14.32,2021-12-17 17:09:27.671875
346,14.59,2021-12-17 17:09:27.687500
347,14.66,2021-12-17 17:09:27.703125
348,14.66,2021-12-17 17:09:27.718750
349,14.68,2021-12-17 17:09:27.734375
350,14.81,2021-12-17 17:09:27.750000
351,15.11,2021-12-17 17:09:27.765625
352,15.64,2021-12-17 17:09:27.781250
353,16.36,2021-12-17 17:09:27.796875
354,17.13,2021-12-17 17:09:27.812500
355,17.72,2021-12-17 17:09:27.828125
356,17.84,2021-12-17 17:09:27.843750
357,17.27,2021-12-17 17:09:27.859375
358,15.96,2021-12-17 17:09:27.875000
359,14.14,2021-12-17 17:09:27.890625
360,12.19,2021-12-17 17:09:27.906250
361,10.54,2021-12-17 17:09:27.921875
362,9.49,2021-12-17 17:09:27.937500
363,9.01,2021-12-17 17:09:27.953125
364,8.9,2021-12-17 17:09:27.968750
365,8.84,2021-12-17 17:09:27.984375
366,8.57,2021-12-17 17:09:28.000000
367,7.98,2021-12-17 17:09:28.015625
368,7.06,2021-12-17 17:09:28.031250
369,5.87,2021-12-17 17:09:28.046875
370,4.42,2021-12-17 17:09:28.062500
371,2.74,2021-12-17 17:09:28.078125
372,0.82,2021-12-17 17:09:28.093750
373,-1.27,2021-12-17 17:09:28.109375
374,-3.5,2021-12-17 17:09:28.125000
375,-5.87,2021-12-17 17:09:28.140625
376,-8.39,2021-12-17 17:09:28.156250
377,-11.1,2021-12-17 17:09:28.171875
378,-13.87,2021-12-17 17:09:28.187500
379,-16.45,2021-12-17 17:09:28.203125
380,-18.44,2021-12-17 17:09:28.218750
381,-19.46,2021-12-17 17:09:28.234375
382,-19.25,2021-12-17 17:09:28.250000
383,-17.86,2021-12-17 17:09:28.265625
384,-15.55,2021-12-17 17:09:28.281250
385,-12.77,2021-12-17 17:09:28.296875
386,-9.91,2021-12-17 17:09:28.312500
387,-7.18,2021-12-17 17:09:28.328125
388,-4.58,2021-12-17 17:09:28.343750
389,-1.95,2021-12-17 17:09:28.359375
390,0.88,2021-12-17 17:09:28.375000
391,3.93,2021-12-17 17:09:28.390625
392,7.07,2021-12-17 17:09:28.406250
393,10.02,2021-12-17 17:09:28.421875
394,12.55,2021-12-17 17:09:28.437500
395,14.49,2021-12-17 17:09:28.453125
396,15.83,2021-12-17 17:09:28.468750
397,16.63,2021-12-17 17:09:28.484375
398,17.02,2021-12-17 17:09:28.500000
399,17.11,2021-12-17 17:09:28.515625
400,16.94,2021-12-17 17:09:28.531250
401,16.57,2021-12-17 17:09:28.546875
402,16.05,2021-12-17 17:09:28.562500
403,15.43,2021-12-17 17:09:28.578125
404,14.79,2021-12-17 17:09:28.593750
405,14.18,2021-12-17 17:09:28.609375
406,13.61,2021-12-17 17:09:28.625000
407,13.0,2021-12-17 17:09:28.640625
408,12.31,2021-12-17 17:09:28.656250
409,11.45,2021-12-17 17:09:28.671875
410,10.44,2021-12-17 17:09:28.687500
411,9.33,2021-12-17 17:09:28.703125
412,8.22,2021-12-17 17:09:28.718750
413,7.18,2021-12-17 17:09:28.734375
414,6.25,2021-12-17 17:09:28.750000
415,5.37,2021-12-17 17:09:28.765625
416,4.47,2021-12-17 17:09:28.781250
417,3.54,2021-12-17 17:09:28.796875
418,2.57,2021-12-17 17:09:28.812500
419,1.61,2021-12-17 17:09:28.828125
420,0.69,2021-12-17 17:09:28.843750
421,-0.24,2021-12-17 17:09:28.859375
422,-1.2,2021-12-17 17:09:28.875000
423,-2.16,2021-12-17 17:09:28.890625
424,-3.06,2021-12-17 17:09:28.906250
425,-3.82,2021-12-17 17:09:28.921875
426,-4.43,2021-12-17 17:09:28.937500
427,-5.05,2021-12-17 17:09:28.953125
428,-5.9,2021-12-17 17:09:28.968750
429,-7.18,2021-12-17 17:09:28.984375
430,-8.9,2021-12-17 17:09:29.000000
431,-10.81,2021-12-17 17:09:29.015625
432,-12.45,2021-12-17 17:09:29.031250
433,-13.32,2021-12-17 17:09:29.046875
434,-13.02,2021-12-17 17:09:29.062500
435,-11.46,2021-12-17 17:09:29.078125
436,-8.84,2021-12-17 17:09:29.093750
437,-5.59,2021-12-17 17:09:29.109375
438,-2.17,2021-12-17 17:09:29.125000
439,1.04,2021-12-17 17:09:29.140625
440,3.81,2021-12-17 17:09:29.156250
441,6.13,2021-12-17 17:09:29.171875
442,8.11,2021-12-17 17:09:29.187500
443,9.93,2021-12-17 17:09:29.203125
444,11.8,2021-12-17 17:09:29.218750
445,13.82,2021-12-17 17:09:29.234375
446,16.05,2021-12-17 17:09:29.250000
447,18.38,2021-12-17 17:09:29.265625
448,20.66,2021-12-17 17:09:29.281250
449,22.66,2021-12-17 17:09:29.296875
450,24.11,2021-12-17 17:09:29.312500
451,24.85,2021-12-17 17:09:29.328125
452,24.79,2021-12-17 17:09:29.343750
453,24.01,2021-12-17 17:09:29.359375
454,22.76,2021-12-17 17:09:29.375000
455,21.39,2021-12-17 17:09:29.390625
456,20.26,2021-12-17 17:09:29.406250
457,19.6,2021-12-17 17:09:29.421875
458,19.43,2021-12-17 17:09:29.437500
459,19.57,2021-12-17 17:09:29.453125
460,19.69,2021-12-17 17:09:29.468750
461,19.47,2021-12-17 17:09:29.484375
462,18.68,2021-12-17 17:09:29.500000
463,17.2,2021-12-17 17:09:29.515625
464,15.08,2021-12-17 17:09:29.531250
465,12.45,2021-12-17 17:09:29.546875
466,9.5,2021-12-17 17:09:29.562500
467,6.49,2021-12-17 17:09:29.578125
468,3.66,2021-12-17 17:09:29.593750
469,1.27,2021-12-17 17:09:29.609375
470,-0.5,2021-12-17 17:09:29.625000
471,-1.63,2021-12-17 17:09:29.640625
472,-2.28,2021-12-17 17:09:29.656250
473,-2.72,2021-12-17 17:09:29.671875
474,-3.21,2021-12-17 17:09:29.687500
475,-3.93,2021-12-17 17:09:29.703125
476,-4.89,2021-12-17 17:09:29.718750
477,-6.01,2021-12-17 17:09:29.734375
478,-7.12,2021-12-17 17:09:29.750000
479,-8.16,2021-12-17 17:09:29.765625
480,-9.09,2021-12-17 17:09:29.781250
481,-9.97,2021-12-17 17:09:29.796875
482,-10.88,2021-12-17 17:09:29.812500
483,-11.91,2021-12-17 17:09:29.828125
484,-13.1,2021-12-17 17:09:29.843750
485,-14.4,2021-12-17 17:09:29.859375
486,-15.74,2021-12-17 17:09:29.875000
487,-16.99,2021-12-17 17:09:29.890625
488,-18.03,2021-12-17 17:09:29.906250
489,-18.71,2021-12-17 17:09:29.921875
490,-18.96,2021-12-17 17:09:29.937500
491,-18.7,2021-12-17 17:09:29.953125
492,-17.96,2021-12-17 17:09:29.968750
493,-16.83,2021-12-17 17:09:29.984375
494,-15.43,2021-12-17 17:09:30.000000
495,-13.91,2021-12-17 17:09:30.015625
496,-12.29,2021-12-17 17:09:30.031250
497,-10.55,2021-12-17 17:09:30.046875
498,-8.61,2021-12-17 17:09:30.062500
499,-6.43,2021-12-17 17:09:30.078125
500,-4.05,2021-12-17 17:09:30.093750
501,-1.67,2021-12-17 17:09:30.109375
502,0.41,2021-12-17 17:09:30.125000
503,1.95,2021-12-17 17:09:30.140625
504,2.77,2021-12-17 17:09:30.156250
505,2.92,2021-12-17 17:09:30.171875
506,2.61,2021-12-17 17:09:30.187500
507,2.11,2021-12-17 17:09:30.203125
508,1.72,2021-12-17 17:09:30.218750
509,1.72,2021-12-17 17:09:30.234375
510,2.26,2021-12-17 17:09:30.250000
511,3.38,2021-12-17 17:09:30.265625
512,4.99,2021-12-17 17:09:30.281250
513,6.87,2021-12-17 17:09:30.296875
514,8.7,2021-12-17 17:09:30.312500
515,10.12,2021-12-17 17:09:30.328125
516,10.88,2021-12-17 17:09:30.343750
517,10.9,2021-12-17 17:09:30.359375
518,10.35,2021-12-17 17:09:30.375000
519,9.57,2021-12-17 17:09:30.390625
520,8.97,2021-12-17 17:09:30.406250
521,8.84,2021-12-17 17:09:30.421875
522,9.28,2021-12-17 17:09:30.437500
523,10.1,2021-12-17 17:09:30.453125
524,10.89,2021-12-17 17:09:30.468750
525,11.23,2021-12-17 17:09:30.484375
526,10.77,2021-12-17 17:09:30.500000
527,9.44,2021-12-17 17:09:30.515625
528,7.46,2021-12-17 17:09:30.531250
529,5.18,2021-12-17 17:09:30.546875
530,2.99,2021-12-17 17:09:30.562500
531,1.11,2021-12-17 17:09:30.578125
532,-0.45,2021-12-17 17:09:30.593750
533,-1.85,2021-12-17 17:09:30.609375
534,-3.34,2021-12-17 17:09:30.625000
535,-5.07,2021-12-17 17:09:30.640625
536,-7.09,2021-12-17 17:09:30.656250
537,-9.33,2021-12-17 17:09:30.671875
538,-11.62,2021-12-17 17:09:30.687500
539,-13.75,2021-12-17 17:09:30.703125
540,-15.5,2021-12-17 17:09:30.718750
541,-16.69,2021-12-17 17:09:30.734375
542,-17.16,2021-12-17 17:09:30.750000
543,-16.88,2021-12-17 17:09:30.765625
544,-15.92,2021-12-17 17:09:30.781250
545,-14.45,2021-12-17 17:09:30.796875
546,-12.7,2021-12-17 17:09:30.812500
547,-10.84,2021-12-17 17:09:30.828125
548,-8.99,2021-12-17 17:09:30.843750
549,-7.14,2021-12-17 17:09:30.859375
550,-5.3,2021-12-17 17:09:30.875000
551,-3.5,2021-12-17 17:09:30.890625
552,-1.77,2021-12-17 17:09:30.906250
553,-0.2,2021-12-17 17:09:30.921875
554,1.16,2021-12-17 17:09:30.937500
555,2.32,2021-12-17 17:09:30.953125
556,3.29,2021-12-17 17:09:30.968750
557,4.09,2021-12-17 17:09:30.984375
558,4.71,2021-12-17 17:09:31.000000
559,5.15,2021-12-17 17:09:31.015625
560,5.43,2021-12-17 17:09:31.031250
561,5.63,2021-12-17 17:09:31.046875
562,5.83,2021-12-17 17:09:31.062500
563,6.14,2021-12-17 17:09:31.078125
564,6.58,2021-12-17 17:09:31.093750
565,7.12,2021-12-17 17:09:31.109375
566,7.67,2021-12-17 17:09:31.125000
567,8.19,2021-12-17 17:09:31.140625
568,8.64,2021-12-17 17:09:31.156250
569,9.04,2021-12-17 17:09:31.171875
570,9.43,2021-12-17 17:09:31.187500
571,9.86,2021-12-17 17:09:31.203125
572,10.32,2021-12-17 17:09:31.218750
573,10.81,2021-12-17 17:09:31.234375
574,11.32,2021-12-17 17:09:31.250000
575,11.88,2021-12-17 17:09:31.265625
576,12.52,2021-12-17 17:09:31.281250
577,13.24,2021-12-17 17:09:31.296875
578,13.97,2021-12-17 17:09:31.312500
579,14.56,2021-12-17 17:09:31.328125
580,14.77,2021-12-17 17:09:31.343750
581,14.41,2021-12-17 17:09:31.359375
582,13.36,2021-12-17 17:09:31.375000
583,11.59,2021-12-17 17:09:31.390625
584,9.22,2021-12-17 17:09:31.406250
585,6.43,2021-12-17 17:09:31.421875
586,3.42,2021-12-17 17:09:31.437500
587,0.47,2021-12-17 17:09:31.453125
588,-2.15,2021-12-17 17:09:31.468750
589,-4.17,2021-12-17 17:09:31.484375
590,-5.41,2021-12-17 17:09:31.500000
591,-5.8,2021-12-17 17:09:31.515625
592,-5.47,2021-12-17 17:09:31.531250
593,-4.63,2021-12-17 17:09:31.546875
594,-3.57,2021-12-17 17:09:31.562500
595,-2.54,2021-12-17 17:09:31.578125
596,-1.71,2021-12-17 17:09:31.593750
597,-1.12,2021-12-17 17:09:31.609375
598,-0.74,2021-12-17 17:09:31.625000
599,-0.46,2021-12-17 17:09:31.640625
600,-0.16,2021-12-17 17:09:31.656250
601,0.22,2021-12-17 17:09:31.671875
602,0.71,2021-12-17 17:09:31.687500
603,1.29,2021-12-17 17:09:31.703125
604,1.91,2021-12-17 17:09:31.718750
605,2.48,2021-12-17 17:09:31.734375
606,2.95,2021-12-17 17:09:31.750000
607,3.31,2021-12-17 17:09:31.765625
608,3.56,2021-12-17 17:09:31.781250
609,3.76,2021-12-17 17:09:31.796875
610,4.0,2021-12-17 17:09:31.812500
611,4.29,2021-12-17 17:09:31.828125
612,4.63,2021-12-17 17:09:31.843750
613,4.96,2021-12-17 17:09:31.859375
614,5.23,2021-12-17 17:09:31.875000
615,5.4,2021-12-17 17:09:31.890625
616,5.42,2021-12-17 17:09:31.906250
617,5.29,2021-12-17 17:09:31.921875
618,4.95,2021-12-17 17:09:31.937500
619,4.34,2021-12-17 17:09:31.953125
620,3.45,2021-12-17 17:09:31.968750
621,2.29,2021-12-17 17:09:31.984375
622,0.98,2021-12-17 17:09:32.000000
623,-0.35,2021-12-17 17:09:32.015625
624,-1.59,2021-12-17 17:09:32.031250
625,-2.75,2021-12-17 17:09:32.046875
626,-3.86,2021-12-17 17:09:32.062500
627,-5.02,2021-12-17 17:09:32.078125
628,-6.24,2021-12-17 17:09:32.093750
629,-7.48,2021-12-17 17:09:32.109375
630,-8.66,2021-12-17 17:09:32.125000
631,-9.71,2021-12-17 17:09:32.140625
632,-10.64,2021-12-17 17:09:32.156250
633,-11.49,2021-12-17 17:09:32.171875
634,-12.37,2021-12-17 17:09:32.187500
635,-13.36,2021-12-17 17:09:32.203125
636,-14.52,2021-12-17 17:09:32.218750
637,-15.82,2021-12-17 17:09:32.234375
638,-17.16,2021-12-17 17:09:32.250000
639,-18.37,2021-12-17 17:09:32.265625
640,-19.21,2021-12-17 17:09:32.281250
641,-19.43,2021-12-17 17:09:32.296875
642,-18.88,2021-12-17 17:09:32.312500
643,-17.56,2021-12-17 17:09:32.328125
644,-15.68,2021-12-17 17:09:32.343750
645,-13.57,2021-12-17 17:09:32.359375
646,-11.54,2021-12-17 17:09:32.375000
647,-9.78,2021-12-17 17:09:32.390625
648,-8.27,2021-12-17 17:09:32.406250
649,-6.81,2021-12-17 17:09:32.421875
650,-5.21,2021-12-17 17:09:32.437500
651,-3.29,2021-12-17 17:09:32.453125
652,-1.05,2021-12-17 17:09:32.468750
653,1.32,2021-12-17 17:09:32.484375
654,3.52,2021-12-17 17:09:32.500000
655,5.23,2021-12-17 17:09:32.515625
656,6.24,2021-12-17 17:09:32.531250
657,6.52,2021-12-17 17:09:32.546875
658,6.26,2021-12-17 17:09:32.562500
659,5.81,2021-12-17 17:09:32.578125
660,5.52,2021-12-17 17:09:32.593750
661,5.65,2021-12-17 17:09:32.609375
662,6.24,2021-12-17 17:09:32.625000
663,7.17,2021-12-17 17:09:32.640625
664,8.24,2021-12-17 17:09:32.656250
665,9.25,2021-12-17 17:09:32.671875
666,10.09,2021-12-17 17:09:32.687500
667,10.67,2021-12-17 17:09:32.703125
668,10.95,2021-12-17 17:09:32.718750
669,10.86,2021-12-17 17:09:32.734375
670,10.31,2021-12-17 17:09:32.750000
671,9.33,2021-12-17 17:09:32.765625
672,8.0,2021-12-17 17:09:32.781250
673,6.49,2021-12-17 17:09:32.796875
674,5.01,2021-12-17 17:09:32.812500
675,3.66,2021-12-17 17:09:32.828125
676,2.46,2021-12-17 17:09:32.843750
677,1.34,2021-12-17 17:09:32.859375
678,0.19,2021-12-17 17:09:32.875000
679,-1.08,2021-12-17 17:09:32.890625
680,-2.56,2021-12-17 17:09:32.906250
681,-4.27,2021-12-17 17:09:32.921875
682,-6.14,2021-12-17 17:09:32.937500
683,-8.13,2021-12-17 17:09:32.953125
684,-10.14,2021-12-17 17:09:32.968750
685,-12.09,2021-12-17 17:09:32.984375
686,-13.9,2021-12-17 17:09:33.000000
687,-15.59,2021-12-17 17:09:33.015625
688,-17.13,2021-12-17 17:09:33.031250
689,-18.53,2021-12-17 17:09:33.046875
690,-19.74,2021-12-17 17:09:33.062500
691,-20.63,2021-12-17 17:09:33.078125
692,-21.07,2021-12-17 17:09:33.093750
693,-20.89,2021-12-17 17:09:33.109375
694,-19.99,2021-12-17 17:09:33.125000
695,-18.42,2021-12-17 17:09:33.140625
696,-16.3,2021-12-17 17:09:33.156250
697,-13.87,2021-12-17 17:09:33.171875
698,-11.37,2021-12-17 17:09:33.187500
699,-8.98,2021-12-17 17:09:33.203125
700,-6.72,2021-12-17 17:09:33.218750
701,-4.51,2021-12-17 17:09:33.234375
702,-2.17,2021-12-17 17:09:33.250000
703,0.43,2021-12-17 17:09:33.265625
704,3.26,2021-12-17 17:09:33.281250
705,6.17,2021-12-17 17:09:33.296875
706,8.91,2021-12-17 17:09:33.312500
707,11.29,2021-12-17 17:09:33.328125
708,13.13,2021-12-17 17:09:33.343750
709,14.45,2021-12-17 17:09:33.359375
710,15.3,2021-12-17 17:09:33.375000
711,15.83,2021-12-17 17:09:33.390625
712,16.11,2021-12-17 17:09:33.406250
713,16.21,2021-12-17 17:09:33.421875
714,16.17,2021-12-17 17:09:33.437500
715,16.01,2021-12-17 17:09:33.453125
716,15.77,2021-12-17 17:09:33.468750
717,15.49,2021-12-17 17:09:33.484375
718,15.24,2021-12-17 17:09:33.500000
719,15.01,2021-12-17 17:09:33.515625
720,14.75,2021-12-17 17:09:33.531250
721,14.4,2021-12-17 17:09:33.546875
722,13.85,2021-12-17 17:09:33.562500
723,13.02,2021-12-17 17:09:33.578125
724,11.9,2021-12-17 17:09:33.593750
725,10.56,2021-12-17 17:09:33.609375
726,9.12,2021-12-17 17:09:33.625000
727,7.74,2021-12-17 17:09:33.640625
728,6.49,2021-12-17 17:09:33.656250
729,5.39,2021-12-17 17:09:33.671875
730,4.35,2021-12-17 17:09:33.687500
731,3.29,2021-12-17 17:09:33.703125
732,2.14,2021-12-17 17:09:33.718750
733,0.89,2021-12-17 17:09:33.734375
734,-0.37,2021-12-17 17:09:33.750000
735,-1.6,2021-12-17 17:09:33.765625
736,-2.74,2021-12-17 17:09:33.781250
737,-3.8,2021-12-17 17:09:33.796875
738,-4.82,2021-12-17 17:09:33.812500
739,-5.82,2021-12-17 17:09:33.828125
740,-6.87,2021-12-17 17:09:33.843750
741,-7.94,2021-12-17 17:09:33.859375
742,-9.01,2021-12-17 17:09:33.875000
743,-10.04,2021-12-17 17:09:33.890625
744,-10.96,2021-12-17 17:09:33.906250
745,-11.69,2021-12-17 17:09:33.921875
746,-12.13,2021-12-17 17:09:33.937500
747,-12.17,2021-12-17 17:09:33.953125
748,-11.76,2021-12-17 17:09:33.968750
749,-10.89,2021-12-17 17:09:33.984375
750,-9.67,2021-12-17 17:09:34.000000
751,-8.27,2021-12-17 17:09:34.015625
752,-6.83,2021-12-17 17:09:34.031250
753,-5.44,2021-12-17 17:09:34.046875
754,-4.03,2021-12-17 17:09:34.062500
755,-2.47,2021-12-17 17:09:34.078125
756,-0.62,2021-12-17 17:09:34.093750
757,1.56,2021-12-17 17:09:34.109375
758,3.98,2021-12-17 17:09:34.125000
759,6.42,2021-12-17 17:09:34.140625
760,8.63,2021-12-17 17:09:34.156250
761,10.43,2021-12-17 17:09:34.171875
762,11.73,2021-12-17 17:09:34.187500
763,12.61,2021-12-17 17:09:34.203125
764,13.2,2021-12-17 17:09:34.218750
765,13.65,2021-12-17 17:09:34.234375
766,14.06,2021-12-17 17:09:34.250000
767,14.44,2021-12-17 17:09:34.265625
768,14.78,2021-12-17 17:09:34.281250
769,15.02,2021-12-17 17:09:34.296875
770,15.1,2021-12-17 17:09:34.312500
771,15.01,2021-12-17 17:09:34.328125
772,14.76,2021-12-17 17:09:34.343750
773,14.34,2021-12-17 17:09:34.359375
774,13.74,2021-12-17 17:09:34.375000
775,12.92,2021-12-17 17:09:34.390625
776,11.87,2021-12-17 17:09:34.406250
777,10.63,2021-12-17 17:09:34.421875
778,9.33,2021-12-17 17:09:34.437500
779,8.15,2021-12-17 17:09:34.453125
780,7.26,2021-12-17 17:09:34.468750
781,6.74,2021-12-17 17:09:34.484375
782,6.51,2021-12-17 17:09:34.500000
783,6.38,2021-12-17 17:09:34.515625
784,6.06,2021-12-17 17:09:34.531250
785,5.26,2021-12-17 17:09:34.546875
786,3.86,2021-12-17 17:09:34.562500
787,1.94,2021-12-17 17:09:34.578125
788,-0.23,2021-12-17 17:09:34.593750
789,-2.32,2021-12-17 17:09:34.609375
790,-4.05,2021-12-17 17:09:34.625000
791,-5.32,2021-12-17 17:09:34.640625
792,-6.21,2021-12-17 17:09:34.656250
793,-6.96,2021-12-17 17:09:34.671875
794,-7.79,2021-12-17 17:09:34.687500
795,-8.87,2021-12-17 17:09:34.703125
796,-10.2,2021-12-17 17:09:34.718750
797,-11.69,2021-12-17 17:09:34.734375
798,-13.14,2021-12-17 17:09:34.750000
799,-14.3,2021-12-17 17:09:34.765625
800,-14.94,2021-12-17 17:09:34.781250
801,-14.84,2021-12-17 17:09:34.796875
802,-13.96,2021-12-17 17:09:34.812500
803,-12.38,2021-12-17 17:09:34.828125
804,-10.33,2021-12-17 17:09:34.843750
805,-8.08,2021-12-17 17:09:34.859375
806,-5.89,2021-12-17 17:09:34.875000
807,-3.83,2021-12-17 17:09:34.890625
808,-1.88,2021-12-17 17:09:34.906250
809,0.01,2021-12-17 17:09:34.921875
810,1.84,2021-12-17 17:09:34.937500
811,3.56,2021-12-17 17:09:34.953125
812,5.08,2021-12-17 17:09:34.968750
813,6.34,2021-12-17 17:09:34.984375
814,7.36,2021-12-17 17:09:35.000000
815,8.18,2021-12-17 17:09:35.015625
816,8.85,2021-12-17 17:09:35.031250
817,9.36,2021-12-17 17:09:35.046875
818,9.64,2021-12-17 17:09:35.062500
819,9.7,2021-12-17 17:09:35.078125
820,9.59,2021-12-17 17:09:35.093750
821,9.47,2021-12-17 17:09:35.109375
822,9.52,2021-12-17 17:09:35.125000
823,9.84,2021-12-17 17:09:35.140625
824,10.4,2021-12-17 17:09:35.156250
825,11.07,2021-12-17 17:09:35.171875
826,11.61,2021-12-17 17:09:35.187500
827,11.84,2021-12-17 17:09:35.203125
828,11.68,2021-12-17 17:09:35.218750
829,11.15,2021-12-17 17:09:35.234375
830,10.38,2021-12-17 17:09:35.250000
831,9.54,2021-12-17 17:09:35.265625
832,8.8,2021-12-17 17:09:35.281250
833,8.29,2021-12-17 17:09:35.296875
834,8.08,2021-12-17 17:09:35.312500
835,8.17,2021-12-17 17:09:35.328125
836,8.47,2021-12-17 17:09:35.343750
837,8.81,2021-12-17 17:09:35.359375
838,8.96,2021-12-17 17:09:35.375000
839,8.69,2021-12-17 17:09:35.390625
840,7.82,2021-12-17 17:09:35.406250
841,6.39,2021-12-17 17:09:35.421875
842,4.57,2021-12-17 17:09:35.437500
843,2.69,2021-12-17 17:09:35.453125
844,1.05,2021-12-17 17:09:35.468750
845,-0.24,2021-12-17 17:09:35.484375
846,-1.28,2021-12-17 17:09:35.500000
847,-2.3,2021-12-17 17:09:35.515625
848,-3.59,2021-12-17 17:09:35.531250
849,-5.28,2021-12-17 17:09:35.546875
850,-7.35,2021-12-17 17:09:35.562500
851,-9.61,2021-12-17 17:09:35.578125
852,-11.76,2021-12-17 17:09:35.593750
853,-13.51,2021-12-17 17:09:35.609375
854,-14.55,2021-12-17 17:09:35.625000
855,-14.69,2021-12-17 17:09:35.640625
856,-13.85,2021-12-17 17:09:35.656250
857,-12.18,2021-12-17 17:09:35.671875
858,-10.01,2021-12-17 17:09:35.687500
859,-7.7,2021-12-17 17:09:35.703125
860,-5.58,2021-12-17 17:09:35.718750
861,-3.77,2021-12-17 17:09:35.734375
862,-2.21,2021-12-17 17:09:35.750000
863,-0.78,2021-12-17 17:09:35.765625
864,0.57,2021-12-17 17:09:35.781250
865,1.77,2021-12-17 17:09:35.796875
866,2.64,2021-12-17 17:09:35.812500
867,3.07,2021-12-17 17:09:35.828125
868,3.04,2021-12-17 17:09:35.843750
869,2.7,2021-12-17 17:09:35.859375
870,2.27,2021-12-17 17:09:35.875000
871,1.96,2021-12-17 17:09:35.890625
872,1.9,2021-12-17 17:09:35.906250
873,2.13,2021-12-17 17:09:35.921875
874,2.61,2021-12-17 17:09:35.937500
875,3.26,2021-12-17 17:09:35.953125
876,4.0,2021-12-17 17:09:35.968750
877,4.75,2021-12-17 17:09:35.984375
878,5.42,2021-12-17 17:09:36.000000
879,5.94,2021-12-17 17:09:36.015625
880,6.3,2021-12-17 17:09:36.031250
881,6.47,2021-12-17 17:09:36.046875
882,6.44,2021-12-17 17:09:36.062500
883,6.15,2021-12-17 17:09:36.078125
884,5.58,2021-12-17 17:09:36.093750
885,4.76,2021-12-17 17:09:36.109375
886,3.8,2021-12-17 17:09:36.125000
887,2.88,2021-12-17 17:09:36.140625
888,2.19,2021-12-17 17:09:36.156250
889,1.81,2021-12-17 17:09:36.171875
890,1.72,2021-12-17 17:09:36.187500
891,1.81,2021-12-17 17:09:36.203125
892,1.92,2021-12-17 17:09:36.218750
893,1.88,2021-12-17 17:09:36.234375
894,1.62,2021-12-17 17:09:36.250000
895,1.09,2021-12-17 17:09:36.265625
896,0.3,2021-12-17 17:09:36.281250
897,-0.71,2021-12-17 17:09:36.296875
898,-1.9,2021-12-17 17:09:36.312500
899,-3.19,2021-12-17 17:09:36.328125
900,-4.49,2021-12-17 17:09:36.343750
901,-5.72,2021-12-17 17:09:36.359375
902,-6.82,2021-12-17 17:09:36.375000
903,-7.75,2021-12-17 17:09:36.390625
904,-8.45,2021-12-17 17:09:36.406250
905,-8.84,2021-12-17 17:09:36.421875
906,-8.8,2021-12-17 17:09:36.437500
907,-8.23,2021-12-17 17:09:36.453125
908,-7.17,2021-12-17 17:09:36.468750
909,-5.76,2021-12-17 17:09:36.484375
910,-4.28,2021-12-17 17:09:36.500000
911,-3.03,2021-12-17 17:09:36.515625
912,-2.15,2021-12-17 17:09:36.531250
913,-1.61,2021-12-17 17:09:36.546875
914,-1.18,2021-12-17 17:09:36.562500
915,-0.58,2021-12-17 17:09:36.578125
916,0.35,2021-12-17 17:09:36.593750
917,1.62,2021-12-17 17:09:36.609375
918,3.02,2021-12-17 17:09:36.625000
919,4.35,2021-12-17 17:09:36.640625
920,5.4,2021-12-17 17:09:36.656250
921,6.07,2021-12-17 17:09:36.671875
922,6.4,2021-12-17 17:09:36.687500
923,6.46,2021-12-17 17:09:36.703125
924,6.39,2021-12-17 17:09:36.718750
925,6.33,2021-12-17 17:09:36.734375
926,6.4,2021-12-17 17:09:36.750000
927,6.72,2021-12-17 17:09:36.765625
928,7.29,2021-12-17 17:09:36.781250
929,8.05,2021-12-17 17:09:36.796875
930,8.83,2021-12-17 17:09:36.812500
931,9.43,2021-12-17 17:09:36.828125
932,9.68,2021-12-17 17:09:36.843750
933,9.52,2021-12-17 17:09:36.859375
934,8.97,2021-12-17 17:09:36.875000
935,8.09,2021-12-17 17:09:36.890625
936,7.01,2021-12-17 17:09:36.906250
937,5.85,2021-12-17 17:09:36.921875
938,4.76,2021-12-17 17:09:36.937500
939,3.84,2021-12-17 17:09:36.953125
940,3.15,2021-12-17 17:09:36.968750
941,2.62,2021-12-17 17:09:36.984375
942,2.13,2021-12-17 17:09:37.000000
943,1.49,2021-12-17 17:09:37.015625
944,0.58,2021-12-17 17:09:37.031250
945,-0.61,2021-12-17 17:09:37.046875
946,-1.96,2021-12-17 17:09:37.062500
947,-3.24,2021-12-17 17:09:37.078125
948,-4.3,2021-12-17 17:09:37.093750
949,-5.08,2021-12-17 17:09:37.109375
950,-5.61,2021-12-17 17:09:37.125000
951,-6.0,2021-12-17 17:09:37.140625
952,-6.39,2021-12-17 17:09:37.156250
953,-6.87,2021-12-17 17:09:37.171875
954,-7.5,2021-12-17 17:09:37.187500
955,-8.33,2021-12-17 17:09:37.203125
956,-9.31,2021-12-17 17:09:37.218750
957,-10.32,2021-12-17 17:09:37.234375
958,-11.16,2021-12-17 17:09:37.250000
959,-11.61,2021-12-17 17:09:37.265625
960,-11.46,2021-12-17 17:09:37.281250
961,-10.72,2021-12-17 17:09:37.296875
962,-9.57,2021-12-17 17:09:37.312500
963,-8.31,2021-12-17 17:09:37.328125
964,-7.24,2021-12-17 17:09:37.343750
965,-6.48,2021-12-17 17:09:37.359375
966,-5.93,2021-12-17 17:09:37.375000
967,-5.32,2021-12-17 17:09:37.390625
968,-4.4,2021-12-17 17:09:37.406250
969,-3.02,2021-12-17 17:09:37.421875
970,-1.31,2021-12-17 17:09:37.437500
971,0.52,2021-12-17 17:09:37.453125
972,2.18,2021-12-17 17:09:37.468750
973,3.53,2021-12-17 17:09:37.484375
974,4.58,2021-12-17 17:09:37.500000
975,5.46,2021-12-17 17:09:37.515625
976,6.32,2021-12-17 17:09:37.531250
977,7.22,2021-12-17 17:09:37.546875
978,8.08,2021-12-17 17:09:37.562500
979,8.72,2021-12-17 17:09:37.578125
980,8.98,2021-12-17 17:09:37.593750
981,8.76,2021-12-17 17:09:37.609375
982,8.12,2021-12-17 17:09:37.625000
983,7.22,2021-12-17 17:09:37.640625
984,6.24,2021-12-17 17:09:37.656250
985,5.33,2021-12-17 17:09:37.671875
986,4.53,2021-12-17 17:09:37.687500
987,3.83,2021-12-17 17:09:37.703125
988,3.23,2021-12-17 17:09:37.718750
989,2.74,2021-12-17 17:09:37.734375
990,2.39,2021-12-17 17:09:37.750000
991,2.16,2021-12-17 17:09:37.765625
992,2.04,2021-12-17 17:09:37.781250
993,1.91,2021-12-17 17:09:37.796875
994,1.69,2021-12-17 17:09:37.812500
995,1.31,2021-12-17 17:09:37.828125
996,0.77,2021-12-17 17:09:37.843750
997,0.1,2021-12-17 17:09:37.859375
998,-0.65,2021-12-17 17:09:37.875000
999,-1.48,2021-12-17 17:09:37.890625
1000,-2.33,2021-12-17 17:09:37.906250
1001,-3.16,2021-12-17 17:09:37.921875
1002,-3.91,2021-12-17 17:09:37.937500
1003,-4.53,2021-12-17 17:09:37.953125
1004,-5.07,2021-12-17 17:09:37.968750
1005,-5.65,2021-12-17 17:09:37.984375
1006,-6.46,2021-12-17 17:09:38.000000
1007,-7.58,2021-12-17 17:09:38.015625
1008,-8.98,2021-12-17 17:09:38.031250
1009,-10.45,2021-12-17 17:09:38.046875
1010,-11.7,2021-12-17 17:09:38.062500
1011,-12.48,2021-12-17 17:09:38.078125
1012,-12.67,2021-12-17 17:09:38.093750
1013,-12.29,2021-12-17 17:09:38.109375
1014,-11.48,2021-12-17 17:09:38.125000
1015,-10.44,2021-12-17 17:09:38.140625
1016,-9.33,2021-12-17 17:09:38.156250
1017,-8.24,2021-12-17 17:09:38.171875
1018,-7.2,2021-12-17 17:09:38.187500
1019,-6.18,2021-12-17 17:09:38.203125
1020,-5.09,2021-12-17 17:09:38.218750
1021,-3.86,2021-12-17 17:09:38.234375
1022,-2.43,2021-12-17 17:09:38.250000
1023,-0.83,2021-12-17 17:09:38.265625
1024,0.87,2021-12-17 17:09:38.281250
1025,2.5,2021-12-17 17:09:38.296875
1026,3.93,2021-12-17 17:09:38.312500
1027,5.1,2021-12-17 17:09:38.328125
1028,6.05,2021-12-17 17:09:38.343750
1029,6.87,2021-12-17 17:09:38.359375
1030,7.69,2021-12-17 17:09:38.375000
1031,8.56,2021-12-17 17:09:38.390625
1032,9.49,2021-12-17 17:09:38.406250
1033,10.39,2021-12-17 17:09:38.421875
1034,11.16,2021-12-17 17:09:38.437500
1035,11.73,2021-12-17 17:09:38.453125
1036,12.05,2021-12-17 17:09:38.468750
1037,12.11,2021-12-17 17:09:38.484375
1038,11.94,2021-12-17 17:09:38.500000
1039,11.52,2021-12-17 17:09:38.515625
1040,10.87,2021-12-17 17:09:38.531250
1041,9.99,2021-12-17 17:09:38.546875
1042,8.97,2021-12-17 17:09:38.562500
1043,7.89,2021-12-17 17:09:38.578125
1044,6.89,2021-12-17 17:09:38.593750
1045,6.07,2021-12-17 17:09:38.609375
1046,5.48,2021-12-17 17:09:38.625000
1047,5.04,2021-12-17 17:09:38.640625
1048,4.66,2021-12-17 17:09:38.656250
1049,4.21,2021-12-17 17:09:38.671875
1050,3.58,2021-12-17 17:09:38.687500
1051,2.75,2021-12-17 17:09:38.703125
1052,1.72,2021-12-17 17:09:38.718750
1053,0.58,2021-12-17 17:09:38.734375
1054,-0.61,2021-12-17 17:09:38.750000
1055,-1.79,2021-12-17 17:09:38.765625
1056,-2.95,2021-12-17 17:09:38.781250
1057,-4.09,2021-12-17 17:09:38.796875
1058,-5.19,2021-12-17 17:09:38.812500
1059,-6.24,2021-12-17 17:09:38.828125
1060,-7.22,2021-12-17 17:09:38.843750
1061,-8.19,2021-12-17 17:09:38.859375
1062,-9.22,2021-12-17 17:09:38.875000
1063,-10.4,2021-12-17 17:09:38.890625
1064,-11.67,2021-12-17 17:09:38.906250
1065,-12.88,2021-12-17 17:09:38.921875
1066,-13.74,2021-12-17 17:09:38.937500
1067,-13.96,2021-12-17 17:09:38.953125
1068,-13.39,2021-12-17 17:09:38.968750
1069,-12.12,2021-12-17 17:09:38.984375
1070,-10.46,2021-12-17 17:09:39.000000
1071,-8.82,2021-12-17 17:09:39.015625
1072,-7.49,2021-12-17 17:09:39.031250
1073,-6.5,2021-12-17 17:09:39.046875
1074,-5.58,2021-12-17 17:09:39.062500
1075,-4.31,2021-12-17 17:09:39.078125
1076,-2.36,2021-12-17 17:09:39.093750
1077,0.31,2021-12-17 17:09:39.109375
1078,3.43,2021-12-17 17:09:39.125000
1079,6.49,2021-12-17 17:09:39.140625
1080,8.99,2021-12-17 17:09:39.156250
1081,10.63,2021-12-17 17:09:39.171875
1082,11.39,2021-12-17 17:09:39.187500
1083,11.52,2021-12-17 17:09:39.203125
1084,11.32,2021-12-17 17:09:39.218750
1085,11.05,2021-12-17 17:09:39.234375
1086,10.78,2021-12-17 17:09:39.250000
1087,10.46,2021-12-17 17:09:39.265625
1088,9.98,2021-12-17 17:09:39.281250
1089,9.35,2021-12-17 17:09:39.296875
1090,8.67,2021-12-17 17:09:39.312500
1091,8.11,2021-12-17 17:09:39.328125
1092,7.84,2021-12-17 17:09:39.343750
1093,7.9,2021-12-17 17:09:39.359375
1094,8.17,2021-12-17 17:09:39.375000
1095,8.38,2021-12-17 17:09:39.390625
1096,8.3,2021-12-17 17:09:39.406250
1097,7.78,2021-12-17 17:09:39.421875
1098,6.91,2021-12-17 17:09:39.437500
1099,5.9,2021-12-17 17:09:39.453125
1100,5.01,2021-12-17 17:09:39.468750
1101,4.41,2021-12-17 17:09:39.484375
1102,4.06,2021-12-17 17:09:39.500000
1103,3.75,2021-12-17 17:09:39.515625
1104,3.22,2021-12-17 17:09:39.531250
1105,2.35,2021-12-17 17:09:39.546875
1106,1.15,2021-12-17 17:09:39.562500
1107,-0.14,2021-12-17 17:09:39.578125
1108,-1.31,2021-12-17 17:09:39.593750
1109,-2.24,2021-12-17 17:09:39.609375
1110,-3.0,2021-12-17 17:09:39.625000
1111,-3.81,2021-12-17 17:09:39.640625
1112,-4.88,2021-12-17 17:09:39.656250
1113,-6.3,2021-12-17 17:09:39.671875
1114,-7.97,2021-12-17 17:09:39.687500
1115,-9.62,2021-12-17 17:09:39.703125
1116,-11.02,2021-12-17 17:09:39.718750
1117,-12.01,2021-12-17 17:09:39.734375
1118,-12.58,2021-12-17 17:09:39.750000
1119,-12.8,2021-12-17 17:09:39.765625
1120,-12.72,2021-12-17 17:09:39.781250
1121,-12.35,2021-12-17 17:09:39.796875
1122,-11.66,2021-12-17 17:09:39.812500
1123,-10.65,2021-12-17 17:09:39.828125
1124,-9.44,2021-12-17 17:09:39.843750
1125,-8.16,2021-12-17 17:09:39.859375
1126,-6.91,2021-12-17 17:09:39.875000
1127,-5.66,2021-12-17 17:09:39.890625
1128,-4.24,2021-12-17 17:09:39.906250
1129,-2.47,2021-12-17 17:09:39.921875
1130,-0.24,2021-12-17 17:09:39.937500
1131,2.33,2021-12-17 17:09:39.953125
1132,4.96,2021-12-17 17:09:39.968750
1133,7.28,2021-12-17 17:09:39.984375
1134,8.99,2021-12-17 17:09:40.000000
1135,9.93,2021-12-17 17:09:40.015625
1136,10.19,2021-12-17 17:09:40.031250
1137,10.01,2021-12-17 17:09:40.046875
1138,9.72,2021-12-17 17:09:40.062500
1139,9.58,2021-12-17 17:09:40.078125
1140,9.72,2021-12-17 17:09:40.093750
1141,10.09,2021-12-17 17:09:40.109375
1142,10.55,2021-12-17 17:09:40.125000
1143,10.92,2021-12-17 17:09:40.140625
1144,11.07,2021-12-17 17:09:40.156250
1145,10.98,2021-12-17 17:09:40.171875
1146,10.72,2021-12-17 17:09:40.187500
1147,10.35,2021-12-17 17:09:40.203125
1148,9.93,2021-12-17 17:09:40.218750
1149,9.45,2021-12-17 17:09:40.234375
1150,8.89,2021-12-17 17:09:40.250000
1151,8.28,2021-12-17 17:09:40.265625
1152,7.67,2021-12-17 17:09:40.281250
1153,7.1,2021-12-17 17:09:40.296875
1154,6.57,2021-12-17 17:09:40.312500
1155,6.0,2021-12-17 17:09:40.328125
1156,5.22,2021-12-17 17:09:40.343750
1157,4.1,2021-12-17 17:09:40.359375
1158,2.58,2021-12-17 17:09:40.375000
1159,0.77,2021-12-17 17:09:40.390625
1160,-1.12,2021-12-17 17:09:40.406250
1161,-2.89,2021-12-17 17:09:40.421875
1162,-4.41,2021-12-17 17:09:40.437500
1163,-5.63,2021-12-17 17:09:40.453125
1164,-6.6,2021-12-17 17:09:40.468750
1165,-7.39,2021-12-17 17:09:40.484375
1166,-8.01,2021-12-17 17:09:40.500000
1167,-8.54,2021-12-17 17:09:40.515625
1168,-9.05,2021-12-17 17:09:40.531250
1169,-9.67,2021-12-17 17:09:40.546875
1170,-10.51,2021-12-17 17:09:40.562500
1171,-11.58,2021-12-17 17:09:40.578125
1172,-12.74,2021-12-17 17:09:40.593750
1173,-13.73,2021-12-17 17:09:40.609375
1174,-14.27,2021-12-17 17:09:40.625000
1175,-14.15,2021-12-17 17:09:40.640625
1176,-13.36,2021-12-17 17:09:40.656250
1177,-12.03,2021-12-17 17:09:40.671875
1178,-10.38,2021-12-17 17:09:40.687500
1179,-8.67,2021-12-17 17:09:40.703125
1180,-7.04,2021-12-17 17:09:40.718750
1181,-5.55,2021-12-17 17:09:40.734375
1182,-4.15,2021-12-17 17:09:40.750000
1183,-2.74,2021-12-17 17:09:40.765625
1184,-1.19,2021-12-17 17:09:40.781250
1185,0.54,2021-12-17 17:09:40.796875
1186,2.4,2021-12-17 17:09:40.812500
1187,4.2,2021-12-17 17:09:40.828125
1188,5.73,2021-12-17 17:09:40.843750
1189,6.79,2021-12-17 17:09:40.859375
1190,7.33,2021-12-17 17:09:40.875000
1191,7.47,2021-12-17 17:09:40.890625
1192,7.4,2021-12-17 17:09:40.906250
1193,7.34,2021-12-17 17:09:40.921875
1194,7.41,2021-12-17 17:09:40.937500
1195,7.61,2021-12-17 17:09:40.953125
1196,7.86,2021-12-17 17:09:40.968750
1197,8.09,2021-12-17 17:09:40.984375
1198,8.24,2021-12-17 17:09:41.000000
1199,8.31,2021-12-17 17:09:41.015625
1200,8.31,2021-12-17 17:09:41.031250
1201,8.21,2021-12-17 17:09:41.046875
1202,8.0,2021-12-17 17:09:41.062500
1203,7.62,2021-12-17 17:09:41.078125
1204,7.08,2021-12-17 17:09:41.093750
1205,6.38,2021-12-17 17:09:41.109375
1206,5.58,2021-12-17 17:09:41.125000
1207,4.76,2021-12-17 17:09:41.140625
1208,4.03,2021-12-17 17:09:41.156250
1209,3.49,2021-12-17 17:09:41.171875
1210,3.22,2021-12-17 17:09:41.187500
1211,3.24,2021-12-17 17:09:41.203125
1212,3.43,2021-12-17 17:09:41.218750
1213,3.64,2021-12-17 17:09:41.234375
1214,3.64,2021-12-17 17:09:41.250000
1215,3.28,2021-12-17 17:09:41.265625
1216,2.5,2021-12-17 17:09:41.281250
1217,1.33,2021-12-17 17:09:41.296875
1218,-0.07,2021-12-17 17:09:41.312500
1219,-1.57,2021-12-17 17:09:41.328125
1220,-3.07,2021-12-17 17:09:41.343750
1221,-4.51,2021-12-17 17:09:41.359375
1222,-5.92,2021-12-17 17:09:41.375000
1223,-7.29,2021-12-17 17:09:41.390625
1224,-8.63,2021-12-17 17:09:41.406250
1225,-9.91,2021-12-17 17:09:41.421875
1226,-11.08,2021-12-17 17:09:41.437500
1227,-12.02,2021-12-17 17:09:41.453125
1228,-12.61,2021-12-17 17:09:41.468750
1229,-12.68,2021-12-17 17:09:41.484375
1230,-12.13,2021-12-17 17:09:41.500000
1231,-10.93,2021-12-17 17:09:41.515625
1232,-9.24,2021-12-17 17:09:41.531250
1233,-7.34,2021-12-17 17:09:41.546875
1234,-5.56,2021-12-17 17:09:41.562500
1235,-4.16,2021-12-17 17:09:41.578125
1236,-3.17,2021-12-17 17:09:41.593750
1237,-2.47,2021-12-17 17:09:41.609375
1238,-1.82,2021-12-17 17:09:41.625000
1239,-1.03,2021-12-17 17:09:41.640625
1240,0.02,2021-12-17 17:09:41.656250
1241,1.28,2021-12-17 17:09:41.671875
1242,2.63,2021-12-17 17:09:41.687500
1243,3.98,2021-12-17 17:09:41.703125
1244,5.22,2021-12-17 17:09:41.718750
1245,6.3,2021-12-17 17:09:41.734375
1246,7.17,2021-12-17 17:09:41.750000
1247,7.81,2021-12-17 17:09:41.765625
1248,8.26,2021-12-17 17:09:41.781250
1249,8.63,2021-12-17 17:09:41.796875
1250,9.02,2021-12-17 17:09:41.812500
1251,9.52,2021-12-17 17:09:41.828125
1252,10.06,2021-12-17 17:09:41.843750
1253,10.48,2021-12-17 17:09:41.859375
1254,10.6,2021-12-17 17:09:41.875000
1255,10.31,2021-12-17 17:09:41.890625
1256,9.7,2021-12-17 17:09:41.906250
1257,8.95,2021-12-17 17:09:41.921875
1258,8.24,2021-12-17 17:09:41.937500
1259,7.71,2021-12-17 17:09:41.953125
1260,7.33,2021-12-17 17:09:41.968750
1261,6.96,2021-12-17 17:09:41.984375
1262,6.46,2021-12-17 17:09:42.000000
1263,5.78,2021-12-17 17:09:42.015625
1264,4.96,2021-12-17 17:09:42.031250
1265,4.11,2021-12-17 17:09:42.046875
1266,3.31,2021-12-17 17:09:42.062500
1267,2.54,2021-12-17 17:09:42.078125
1268,1.68,2021-12-17 17:09:42.093750
1269,0.56,2021-12-17 17:09:42.109375
1270,-0.86,2021-12-17 17:09:42.125000
1271,-2.47,2021-12-17 17:09:42.140625
1272,-4.01,2021-12-17 17:09:42.156250
1273,-5.2,2021-12-17 17:09:42.171875
1274,-5.86,2021-12-17 17:09:42.187500
1275,-6.04,2021-12-17 17:09:42.203125
1276,-6.0,2021-12-17 17:09:42.218750
1277,-6.08,2021-12-17 17:09:42.234375
1278,-6.53,2021-12-17 17:09:42.250000
1279,-7.42,2021-12-17 17:09:42.265625
1280,-8.58,2021-12-17 17:09:42.281250
1281,-9.77,2021-12-17 17:09:42.296875
1282,-10.71,2021-12-17 17:09:42.312500
1283,-11.24,2021-12-17 17:09:42.328125
1284,-11.29,2021-12-17 17:09:42.343750
1285,-10.79,2021-12-17 17:09:42.359375
1286,-9.75,2021-12-17 17:09:42.375000
1287,-8.19,2021-12-17 17:09:42.390625
1288,-6.22,2021-12-17 17:09:42.406250
1289,-4.02,2021-12-17 17:09:42.421875
1290,-1.83,2021-12-17 17:09:42.437500
1291,0.15,2021-12-17 17:09:42.453125
1292,1.84,2021-12-17 17:09:42.468750
1293,3.25,2021-12-17 17:09:42.484375
1294,4.45,2021-12-17 17:09:42.500000
1295,5.5,2021-12-17 17:09:42.515625
1296,6.41,2021-12-17 17:09:42.531250
1297,7.14,2021-12-17 17:09:42.546875
1298,7.66,2021-12-17 17:09:42.562500
1299,7.97,2021-12-17 17:09:42.578125
1300,8.07,2021-12-17 17:09:42.593750
1301,7.98,2021-12-17 17:09:42.609375
1302,7.72,2021-12-17 17:09:42.625000
1303,7.39,2021-12-17 17:09:42.640625
1304,7.07,2021-12-17 17:09:42.656250
1305,6.92,2021-12-17 17:09:42.671875
1306,7.02,2021-12-17 17:09:42.687500
1307,7.36,2021-12-17 17:09:42.703125
1308,7.8,2021-12-17 17:09:42.718750
1309,8.17,2021-12-17 17:09:42.734375
1310,8.33,2021-12-17 17:09:42.750000
1311,8.27,2021-12-17 17:09:42.765625
1312,8.09,2021-12-17 17:09:42.781250
1313,7.86,2021-12-17 17:09:42.796875
1314,7.62,2021-12-17 17:09:42.812500
1315,7.31,2021-12-17 17:09:42.828125
1316,6.85,2021-12-17 17:09:42.843750
1317,6.2,2021-12-17 17:09:42.859375
1318,5.45,2021-12-17 17:09:42.875000
1319,4.7,2021-12-17 17:09:42.890625
1320,4.04,2021-12-17 17:09:42.906250
1321,3.46,2021-12-17 17:09:42.921875
1322,2.89,2021-12-17 17:09:42.937500
1323,2.22,2021-12-17 17:09:42.953125
1324,1.43,2021-12-17 17:09:42.968750
1325,0.54,2021-12-17 17:09:42.984375
1326,-0.37,2021-12-17 17:09:43.000000
1327,-1.25,2021-12-17 17:09:43.015625
1328,-2.12,2021-12-17 17:09:43.031250
1329,-3.07,2021-12-17 17:09:43.046875
1330,-4.17,2021-12-17 17:09:43.062500
1331,-5.41,2021-12-17 17:09:43.078125
1332,-6.76,2021-12-17 17:09:43.093750
1333,-8.15,2021-12-17 17:09:43.109375
1334,-9.54,2021-12-17 17:09:43.125000
1335,-10.88,2021-12-17 17:09:43.140625
1336,-12.13,2021-12-17 17:09:43.156250
1337,-13.2,2021-12-17 17:09:43.171875
1338,-13.96,2021-12-17 17:09:43.187500
1339,-14.22,2021-12-17 17:09:43.203125
1340,-13.89,2021-12-17 17:09:43.218750
1341,-13.01,2021-12-17 17:09:43.234375
1342,-11.74,2021-12-17 17:09:43.250000
1343,-10.3,2021-12-17 17:09:43.265625
1344,-8.88,2021-12-17 17:09:43.281250
1345,-7.55,2021-12-17 17:09:43.296875
1346,-6.22,2021-12-17 17:09:43.312500
1347,-4.75,2021-12-17 17:09:43.328125
1348,-3.02,2021-12-17 17:09:43.343750
1349,-0.99,2021-12-17 17:09:43.359375
1350,1.29,2021-12-17 17:09:43.375000
1351,3.62,2021-12-17 17:09:43.390625
1352,5.83,2021-12-17 17:09:43.406250
1353,7.72,2021-12-17 17:09:43.421875
1354,9.16,2021-12-17 17:09:43.437500
1355,10.11,2021-12-17 17:09:43.453125
1356,10.63,2021-12-17 17:09:43.468750
1357,10.84,2021-12-17 17:09:43.484375
1358,10.91,2021-12-17 17:09:43.500000
1359,11.0,2021-12-17 17:09:43.515625
1360,11.17,2021-12-17 17:09:43.531250
1361,11.36,2021-12-17 17:09:43.546875
1362,11.42,2021-12-17 17:09:43.562500
1363,11.19,2021-12-17 17:09:43.578125
1364,10.55,2021-12-17 17:09:43.593750
1365,9.56,2021-12-17 17:09:43.609375
1366,8.35,2021-12-17 17:09:43.625000
1367,7.13,2021-12-17 17:09:43.640625
1368,6.05,2021-12-17 17:09:43.656250
1369,5.17,2021-12-17 17:09:43.671875
1370,4.45,2021-12-17 17:09:43.687500
1371,3.8,2021-12-17 17:09:43.703125
1372,3.21,2021-12-17 17:09:43.718750
1373,2.7,2021-12-17 17:09:43.734375
1374,2.28,2021-12-17 17:09:43.750000
1375,1.94,2021-12-17 17:09:43.765625
1376,1.64,2021-12-17 17:09:43.781250
1377,1.34,2021-12-17 17:09:43.796875
1378,1.06,2021-12-17 17:09:43.812500
1379,0.86,2021-12-17 17:09:43.828125
1380,0.84,2021-12-17 17:09:43.843750
1381,0.98,2021-12-17 17:09:43.859375
1382,1.17,2021-12-17 17:09:43.875000
1383,1.17,2021-12-17 17:09:43.890625
1384,0.78,2021-12-17 17:09:43.906250
1385,-0.16,2021-12-17 17:09:43.921875
1386,-1.6,2021-12-17 17:09:43.937500
1387,-3.38,2021-12-17 17:09:43.953125
1388,-5.24,2021-12-17 17:09:43.968750
1389,-6.89,2021-12-17 17:09:43.984375
1390,-8.12,2021-12-17 17:09:44.000000
1391,-8.72,2021-12-17 17:09:44.015625
1392,-8.66,2021-12-17 17:09:44.031250
1393,-8.01,2021-12-17 17:09:44.046875
1394,-7.03,2021-12-17 17:09:44.062500
1395,-6.11,2021-12-17 17:09:44.078125
1396,-5.6,2021-12-17 17:09:44.093750
1397,-5.74,2021-12-17 17:09:44.109375
1398,-6.49,2021-12-17 17:09:44.125000
1399,-7.56,2021-12-17 17:09:44.140625
1400,-8.48,2021-12-17 17:09:44.156250
1401,-8.77,2021-12-17 17:09:44.171875
1402,-8.16,2021-12-17 17:09:44.187500
1403,-6.64,2021-12-17 17:09:44.203125
1404,-4.46,2021-12-17 17:09:44.218750
1405,-2.04,2021-12-17 17:09:44.234375
1406,0.24,2021-12-17 17:09:44.250000
1407,2.09,2021-12-17 17:09:44.265625
1408,3.44,2021-12-17 17:09:44.281250
1409,4.33,2021-12-17 17:09:44.296875
1410,4.89,2021-12-17 17:09:44.312500
1411,5.2,2021-12-17 17:09:44.328125
1412,5.31,2021-12-17 17:09:44.343750
1413,5.23,2021-12-17 17:09:44.359375
1414,5.01,2021-12-17 17:09:44.375000
1415,4.71,2021-12-17 17:09:44.390625
1416,4.44,2021-12-17 17:09:44.406250
1417,4.28,2021-12-17 17:09:44.421875
1418,4.3,2021-12-17 17:09:44.437500
1419,4.51,2021-12-17 17:09:44.453125
1420,4.83,2021-12-17 17:09:44.468750
1421,5.22,2021-12-17 17:09:44.484375
1422,5.62,2021-12-17 17:09:44.500000
1423,5.97,2021-12-17 17:09:44.515625
1424,6.22,2021-12-17 17:09:44.531250
1425,6.28,2021-12-17 17:09:44.546875
1426,6.12,2021-12-17 17:09:44.562500
1427,5.69,2021-12-17 17:09:44.578125
1428,5.03,2021-12-17 17:09:44.593750
1429,4.22,2021-12-17 17:09:44.609375
1430,3.35,2021-12-17 17:09:44.625000
1431,2.49,2021-12-17 17:09:44.640625
1432,1.65,2021-12-17 17:09:44.656250
1433,0.79,2021-12-17 17:09:44.671875
1434,-0.16,2021-12-17 17:09:44.687500
1435,-1.25,2021-12-17 17:09:44.703125
1436,-2.45,2021-12-17 17:09:44.718750
1437,-3.65,2021-12-17 17:09:44.734375
1438,-4.73,2021-12-17 17:09:44.750000
1439,-5.59,2021-12-17 17:09:44.765625
1440,-6.24,2021-12-17 17:09:44.781250
1441,-6.72,2021-12-17 17:09:44.796875
1442,-7.16,2021-12-17 17:09:44.812500
1443,-7.64,2021-12-17 17:09:44.828125
1444,-8.19,2021-12-17 17:09:44.843750
1445,-8.75,2021-12-17 17:09:44.859375
1446,-9.21,2021-12-17 17:09:44.875000
1447,-9.49,2021-12-17 17:09:44.890625
1448,-9.5,2021-12-17 17:09:44.906250
1449,-9.21,2021-12-17 17:09:44.921875
1450,-8.63,2021-12-17 17:09:44.937500
1451,-7.78,2021-12-17 17:09:44.953125
1452,-6.75,2021-12-17 17:09:44.968750
1453,-5.65,2021-12-17 17:09:44.984375
1454,-4.57,2021-12-17 17:09:45.000000
1455,-3.58,2021-12-17 17:09:45.015625
1456,-2.61,2021-12-17 17:09:45.031250
1457,-1.53,2021-12-17 17:09:45.046875
1458,-0.17,2021-12-17 17:09:45.062500
1459,1.55,2021-12-17 17:09:45.078125
1460,3.53,2021-12-17 17:09:45.093750
1461,5.55,2021-12-17 17:09:45.109375
1462,7.3,2021-12-17 17:09:45.125000
1463,8.57,2021-12-17 17:09:45.140625
1464,9.29,2021-12-17 17:09:45.156250
1465,9.52,2021-12-17 17:09:45.171875
1466,9.44,2021-12-17 17:09:45.187500
1467,9.22,2021-12-17 17:09:45.203125
1468,8.93,2021-12-17 17:09:45.218750
1469,8.61,2021-12-17 17:09:45.234375
1470,8.23,2021-12-17 17:09:45.250000
1471,7.74,2021-12-17 17:09:45.265625
1472,7.11,2021-12-17 17:09:45.281250
1473,6.37,2021-12-17 17:09:45.296875
1474,5.57,2021-12-17 17:09:45.312500
1475,4.78,2021-12-17 17:09:45.328125
1476,4.09,2021-12-17 17:09:45.343750
1477,3.57,2021-12-17 17:09:45.359375
1478,3.22,2021-12-17 17:09:45.375000
1479,3.03,2021-12-17 17:09:45.390625
1480,2.9,2021-12-17 17:09:45.406250
1481,2.77,2021-12-17 17:09:45.421875
1482,2.57,2021-12-17 17:09:45.437500
1483,2.35,2021-12-17 17:09:45.453125
1484,2.18,2021-12-17 17:09:45.468750
1485,2.15,2021-12-17 17:09:45.484375
1486,2.29,2021-12-17 17:09:45.500000
1487,2.52,2021-12-17 17:09:45.515625
1488,2.66,2021-12-17 17:09:45.531250
1489,2.54,2021-12-17 17:09:45.546875
1490,2.08,2021-12-17 17:09:45.562500
1491,1.32,2021-12-17 17:09:45.578125
1492,0.42,2021-12-17 17:09:45.593750
1493,-0.45,2021-12-17 17:09:45.609375
1494,-1.2,2021-12-17 17:09:45.625000
1495,-1.85,2021-12-17 17:09:45.640625
1496,-2.46,2021-12-17 17:09:45.656250
1497,-3.08,2021-12-17 17:09:45.671875
1498,-3.72,2021-12-17 17:09:45.687500
1499,-4.34,2021-12-17 17:09:45.703125
1500,-4.86,2021-12-17 17:09:45.718750
1501,-5.24,2021-12-17 17:09:45.734375
1502,-5.46,2021-12-17 17:09:45.750000
1503,-5.56,2021-12-17 17:09:45.765625
1504,-5.56,2021-12-17 17:09:45.781250
1505,-5.49,2021-12-17 17:09:45.796875
1506,-5.4,2021-12-17 17:09:45.812500
1507,-5.41,2021-12-17 17:09:45.828125
1508,-5.63,2021-12-17 17:09:45.843750
1509,-6.12,2021-12-17 17:09:45.859375
1510,-6.83,2021-12-17 17:09:45.875000
1511,-7.51,2021-12-17 17:09:45.890625
1512,-7.89,2021-12-17 17:09:45.906250
1513,-7.71,2021-12-17 17:09:45.921875
1514,-6.89,2021-12-17 17:09:45.937500
1515,-5.55,2021-12-17 17:09:45.953125
1516,-3.95,2021-12-17 17:09:45.968750
1517,-2.43,2021-12-17 17:09:45.984375
1518,-1.24,2021-12-17 17:09:46.000000
1519,-0.51,2021-12-17 17:09:46.015625
1520,-0.24,2021-12-17 17:09:46.031250
1521,-0.38,2021-12-17 17:09:46.046875
1522,-0.85,2021-12-17 17:09:46.062500
1523,-1.51,2021-12-17 17:09:46.078125
1524,-2.25,2021-12-17 17:09:46.093750
1525,-2.9,2021-12-17 17:09:46.109375
1526,-3.34,2021-12-17 17:09:46.125000
1527,-3.46,2021-12-17 17:09:46.140625
1528,-3.28,2021-12-17 17:09:46.156250
1529,-2.86,2021-12-17 17:09:46.171875
1530,-2.36,2021-12-17 17:09:46.187500
1531,-1.92,2021-12-17 17:09:46.203125
1532,-1.59,2021-12-17 17:09:46.218750
1533,-1.36,2021-12-17 17:09:46.234375
1534,-1.11,2021-12-17 17:09:46.250000
1535,-0.76,2021-12-17 17:09:46.265625
1536,-0.27,2021-12-17 17:09:46.281250
1537,0.31,2021-12-17 17:09:46.296875
1538,0.87,2021-12-17 17:09:46.312500
1539,1.29,2021-12-17 17:09:46.328125
1540,1.5,2021-12-17 17:09:46.343750
1541,1.49,2021-12-17 17:09:46.359375
1542,1.27,2021-12-17 17:09:46.375000
1543,0.89,2021-12-17 17:09:46.390625
1544,0.38,2021-12-17 17:09:46.406250
1545,-0.23,2021-12-17 17:09:46.421875
1546,-0.9,2021-12-17 17:09:46.437500
1547,-1.57,2021-12-17 17:09:46.453125
1548,-2.15,2021-12-17 17:09:46.468750
1549,-2.6,2021-12-17 17:09:46.484375
1550,-2.93,2021-12-17 17:09:46.500000
1551,-3.17,2021-12-17 17:09:46.515625
1552,-3.43,2021-12-17 17:09:46.531250
1553,-3.83,2021-12-17 17:09:46.546875
1554,-4.48,2021-12-17 17:09:46.562500
1555,-5.42,2021-12-17 17:09:46.578125
1556,-6.61,2021-12-17 17:09:46.593750
1557,-7.89,2021-12-17 17:09:46.609375
1558,-9.02,2021-12-17 17:09:46.625000
1559,-9.73,2021-12-17 17:09:46.640625
1560,-9.8,2021-12-17 17:09:46.656250
1561,-9.17,2021-12-17 17:09:46.671875
1562,-7.92,2021-12-17 17:09:46.687500
1563,-6.28,2021-12-17 17:09:46.703125
1564,-4.52,2021-12-17 17:09:46.718750
1565,-2.88,2021-12-17 17:09:46.734375
1566,-1.49,2021-12-17 17:09:46.750000
1567,-0.37,2021-12-17 17:09:46.765625
1568,0.59,2021-12-17 17:09:46.781250
1569,1.51,2021-12-17 17:09:46.796875
1570,2.45,2021-12-17 17:09:46.812500
1571,3.4,2021-12-17 17:09:46.828125
1572,4.29,2021-12-17 17:09:46.843750
1573,5.03,2021-12-17 17:09:46.859375
1574,5.56,2021-12-17 17:09:46.875000
1575,5.84,2021-12-17 17:09:46.890625
1576,5.89,2021-12-17 17:09:46.906250
1577,5.74,2021-12-17 17:09:46.921875
1578,5.45,2021-12-17 17:09:46.937500
1579,5.13,2021-12-17 17:09:46.953125
1580,4.88,2021-12-17 17:09:46.968750
1581,4.83,2021-12-17 17:09:46.984375
1582,5.04,2021-12-17 17:09:47.000000
1583,5.46,2021-12-17 17:09:47.015625
1584,5.94,2021-12-17 17:09:47.031250
1585,6.3,2021-12-17 17:09:47.046875
1586,6.38,2021-12-17 17:09:47.062500
1587,6.13,2021-12-17 17:09:47.078125
1588,5.69,2021-12-17 17:09:47.093750
1589,5.2,2021-12-17 17:09:47.109375
1590,4.8,2021-12-17 17:09:47.125000
1591,4.5,2021-12-17 17:09:47.140625
1592,4.2,2021-12-17 17:09:47.156250
1593,3.78,2021-12-17 17:09:47.171875
1594,3.22,2021-12-17 17:09:47.187500
1595,2.57,2021-12-17 17:09:47.203125
1596,1.98,2021-12-17 17:09:47.218750
1597,1.57,2021-12-17 17:09:47.234375
1598,1.34,2021-12-17 17:09:47.250000
1599,1.17,2021-12-17 17:09:47.265625
1600,0.92,2021-12-17 17:09:47.281250
1601,0.45,2021-12-17 17:09:47.296875
1602,-0.27,2021-12-17 17:09:47.312500
1603,-1.18,2021-12-17 17:09:47.328125
1604,-2.2,2021-12-17 17:09:47.343750
1605,-3.27,2021-12-17 17:09:47.359375
1606,-4.34,2021-12-17 17:09:47.375000
1607,-5.43,2021-12-17 17:09:47.390625
1608,-6.54,2021-12-17 17:09:47.406250
1609,-7.72,2021-12-17 17:09:47.421875
1610,-9.02,2021-12-17 17:09:47.437500
1611,-10.45,2021-12-17 17:09:47.453125
1612,-11.93,2021-12-17 17:09:47.468750
1613,-13.24,2021-12-17 17:09:47.484375
1614,-14.06,2021-12-17 17:09:47.500000
1615,-14.06,2021-12-17 17:09:47.515625
1616,-13.14,2021-12-17 17:09:47.531250
1617,-11.46,2021-12-17 17:09:47.546875
1618,-9.41,2021-12-17 17:09:47.562500
1619,-7.49,2021-12-17 17:09:47.578125
1620,-6.07,2021-12-17 17:09:47.593750
1621,-5.18,2021-12-17 17:09:47.609375
1622,-4.6,2021-12-17 17:09:47.625000
1623,-3.96,2021-12-17 17:09:47.640625
1624,-2.98,2021-12-17 17:09:47.656250
1625,-1.58,2021-12-17 17:09:47.671875
1626,0.08,2021-12-17 17:09:47.687500
1627,1.73,2021-12-17 17:09:47.703125
1628,3.13,2021-12-17 17:09:47.718750
1629,4.15,2021-12-17 17:09:47.734375
1630,4.8,2021-12-17 17:09:47.750000
1631,5.15,2021-12-17 17:09:47.765625
1632,5.31,2021-12-17 17:09:47.781250
1633,5.36,2021-12-17 17:09:47.796875
1634,5.33,2021-12-17 17:09:47.812500
1635,5.28,2021-12-17 17:09:47.828125
1636,5.29,2021-12-17 17:09:47.843750
1637,5.37,2021-12-17 17:09:47.859375
1638,5.55,2021-12-17 17:09:47.875000
1639,5.77,2021-12-17 17:09:47.890625
1640,5.91,2021-12-17 17:09:47.906250
1641,5.87,2021-12-17 17:09:47.921875
1642,5.61,2021-12-17 17:09:47.937500
1643,5.18,2021-12-17 17:09:47.953125
1644,4.69,2021-12-17 17:09:47.968750
1645,4.24,2021-12-17 17:09:47.984375
1646,3.88,2021-12-17 17:09:48.000000
1647,3.57,2021-12-17 17:09:48.015625
1648,3.21,2021-12-17 17:09:48.031250
1649,2.74,2021-12-17 17:09:48.046875
1650,2.13,2021-12-17 17:09:48.062500
1651,1.41,2021-12-17 17:09:48.078125
1652,0.65,2021-12-17 17:09:48.093750
1653,-0.09,2021-12-17 17:09:48.109375
1654,-0.84,2021-12-17 17:09:48.125000
1655,-1.62,2021-12-17 17:09:48.140625
1656,-2.45,2021-12-17 17:09:48.156250
1657,-3.32,2021-12-17 17:09:48.171875
1658,-4.17,2021-12-17 17:09:48.187500
1659,-4.99,2021-12-17 17:09:48.203125
1660,-5.74,2021-12-17 17:09:48.218750
1661,-6.47,2021-12-17 17:09:48.234375
1662,-7.22,2021-12-17 17:09:48.250000
1663,-8.06,2021-12-17 17:09:48.265625
1664,-9.01,2021-12-17 17:09:48.281250
1665,-10.05,2021-12-17 17:09:48.296875
1666,-11.06,2021-12-17 17:09:48.312500
1667,-11.89,2021-12-17 17:09:48.328125
1668,-12.34,2021-12-17 17:09:48.343750
1669,-12.28,2021-12-17 17:09:48.359375
1670,-11.68,2021-12-17 17:09:48.375000
1671,-10.65,2021-12-17 17:09:48.390625
1672,-9.39,2021-12-17 17:09:48.406250
1673,-8.13,2021-12-17 17:09:48.421875
1674,-7.0,2021-12-17 17:09:48.437500
1675,-6.03,2021-12-17 17:09:48.453125
1676,-5.1,2021-12-17 17:09:48.468750
1677,-4.06,2021-12-17 17:09:48.484375
1678,-2.75,2021-12-17 17:09:48.500000
1679,-1.11,2021-12-17 17:09:48.515625
1680,0.79,2021-12-17 17:09:48.531250
1681,2.79,2021-12-17 17:09:48.546875
1682,4.68,2021-12-17 17:09:48.562500
1683,6.27,2021-12-17 17:09:48.578125
1684,7.47,2021-12-17 17:09:48.593750
1685,8.28,2021-12-17 17:09:48.609375
1686,8.77,2021-12-17 17:09:48.625000
1687,9.01,2021-12-17 17:09:48.640625
1688,9.08,2021-12-17 17:09:48.656250
1689,8.96,2021-12-17 17:09:48.671875
1690,8.67,2021-12-17 17:09:48.687500
1691,8.21,2021-12-17 17:09:48.703125
1692,7.65,2021-12-17 17:09:48.718750
1693,7.07,2021-12-17 17:09:48.734375
1694,6.55,2021-12-17 17:09:48.750000
1695,6.1,2021-12-17 17:09:48.765625
1696,5.68,2021-12-17 17:09:48.781250
1697,5.21,2021-12-17 17:09:48.796875
1698,4.67,2021-12-17 17:09:48.812500
1699,4.03,2021-12-17 17:09:48.828125
1700,3.33,2021-12-17 17:09:48.843750
1701,2.6,2021-12-17 17:09:48.859375
1702,1.89,2021-12-17 17:09:48.875000
1703,1.19,2021-12-17 17:09:48.890625
1704,0.53,2021-12-17 17:09:48.906250
1705,-0.09,2021-12-17 17:09:48.921875
1706,-0.61,2021-12-17 17:09:48.937500
1707,-1.03,2021-12-17 17:09:48.953125
1708,-1.3,2021-12-17 17:09:48.968750
1709,-1.46,2021-12-17 17:09:48.984375
1710,-1.52,2021-12-17 17:09:49.000000
1711,-1.56,2021-12-17 17:09:49.015625
1712,-1.65,2021-12-17 17:09:49.031250
1713,-1.85,2021-12-17 17:09:49.046875
1714,-2.24,2021-12-17 17:09:49.062500
1715,-2.85,2021-12-17 17:09:49.078125
1716,-3.71,2021-12-17 17:09:49.093750
1717,-4.81,2021-12-17 17:09:49.109375
1718,-6.07,2021-12-17 17:09:49.125000
1719,-7.35,2021-12-17 17:09:49.140625
1720,-8.49,2021-12-17 17:09:49.156250
1721,-9.34,2021-12-17 17:09:49.171875
1722,-9.79,2021-12-17 17:09:49.187500
1723,-9.88,2021-12-17 17:09:49.203125
1724,-9.64,2021-12-17 17:09:49.218750
1725,-9.18,2021-12-17 17:09:49.234375
1726,-8.57,2021-12-17 17:09:49.250000
1727,-7.82,2021-12-17 17:09:49.265625
1728,-6.92,2021-12-17 17:09:49.281250
1729,-5.86,2021-12-17 17:09:49.296875
1730,-4.69,2021-12-17 17:09:49.312500
1731,-3.47,2021-12-17 17:09:49.328125
1732,-2.27,2021-12-17 17:09:49.343750
1733,-1.12,2021-12-17 17:09:49.359375
1734,0.03,2021-12-17 17:09:49.375000
1735,1.27,2021-12-17 17:09:49.390625
1736,2.68,2021-12-17 17:09:49.406250
1737,4.29,2021-12-17 17:09:49.421875
1738,6.04,2021-12-17 17:09:49.437500
1739,7.75,2021-12-17 17:09:49.453125
1740,9.2,2021-12-17 17:09:49.468750
1741,10.2,2021-12-17 17:09:49.484375
1742,10.72,2021-12-17 17:09:49.500000
1743,10.88,2021-12-17 17:09:49.515625
1744,10.92,2021-12-17 17:09:49.531250
1745,11.07,2021-12-17 17:09:49.546875
1746,11.4,2021-12-17 17:09:49.562500
1747,11.8,2021-12-17 17:09:49.578125
1748,12.03,2021-12-17 17:09:49.593750
1749,11.82,2021-12-17 17:09:49.609375
1750,11.02,2021-12-17 17:09:49.625000
1751,9.71,2021-12-17 17:09:49.640625
1752,8.11,2021-12-17 17:09:49.656250
1753,6.52,2021-12-17 17:09:49.671875
1754,5.14,2021-12-17 17:09:49.687500
1755,4.06,2021-12-17 17:09:49.703125
1756,3.19,2021-12-17 17:09:49.718750
1757,2.39,2021-12-17 17:09:49.734375
1758,1.59,2021-12-17 17:09:49.750000
1759,0.8,2021-12-17 17:09:49.765625
1760,0.12,2021-12-17 17:09:49.781250
1761,-0.38,2021-12-17 17:09:49.796875
1762,-0.69,2021-12-17 17:09:49.812500
1763,-0.97,2021-12-17 17:09:49.828125
1764,-1.4,2021-12-17 17:09:49.843750
1765,-2.16,2021-12-17 17:09:49.859375
1766,-3.29,2021-12-17 17:09:49.875000
1767,-4.66,2021-12-17 17:09:49.890625
1768,-6.07,2021-12-17 17:09:49.906250
1769,-7.33,2021-12-17 17:09:49.921875
1770,-8.36,2021-12-17 17:09:49.937500
1771,-9.23,2021-12-17 17:09:49.953125
1772,-10.09,2021-12-17 17:09:49.968750
1773,-11.11,2021-12-17 17:09:49.984375
1774,-12.35,2021-12-17 17:09:50.000000
1775,-13.72,2021-12-17 17:09:50.015625
1776,-15.04,2021-12-17 17:09:50.031250
1777,-16.08,2021-12-17 17:09:50.046875
1778,-16.66,2021-12-17 17:09:50.062500
1779,-16.7,2021-12-17 17:09:50.078125
1780,-16.24,2021-12-17 17:09:50.093750
1781,-15.41,2021-12-17 17:09:50.109375
1782,-14.36,2021-12-17 17:09:50.125000
1783,-13.17,2021-12-17 17:09:50.140625
1784,-11.86,2021-12-17 17:09:50.156250
1785,-10.4,2021-12-17 17:09:50.171875
1786,-8.7,2021-12-17 17:09:50.187500
1787,-6.79,2021-12-17 17:09:50.203125
1788,-4.75,2021-12-17 17:09:50.218750
1789,-2.74,2021-12-17 17:09:50.234375
1790,-0.94,2021-12-17 17:09:50.250000
1791,0.55,2021-12-17 17:09:50.265625
1792,1.71,2021-12-17 17:09:50.281250
1793,2.59,2021-12-17 17:09:50.296875
1794,3.27,2021-12-17 17:09:50.312500
1795,3.79,2021-12-17 17:09:50.328125
1796,4.16,2021-12-17 17:09:50.343750
1797,4.37,2021-12-17 17:09:50.359375
1798,4.46,2021-12-17 17:09:50.375000
1799,4.54,2021-12-17 17:09:50.390625
1800,4.7,2021-12-17 17:09:50.406250
1801,5.03,2021-12-17 17:09:50.421875
1802,5.49,2021-12-17 17:09:50.437500
1803,5.96,2021-12-17 17:09:50.453125
1804,6.27,2021-12-17 17:09:50.468750
1805,6.31,2021-12-17 17:09:50.484375
1806,6.01,2021-12-17 17:09:50.500000
1807,5.48,2021-12-17 17:09:50.515625
1808,4.86,2021-12-17 17:09:50.531250
1809,4.31,2021-12-17 17:09:50.546875
1810,3.95,2021-12-17 17:09:50.562500
1811,3.78,2021-12-17 17:09:50.578125
1812,3.77,2021-12-17 17:09:50.593750
1813,3.85,2021-12-17 17:09:50.609375
1814,3.95,2021-12-17 17:09:50.625000
1815,4.04,2021-12-17 17:09:50.640625
1816,4.06,2021-12-17 17:09:50.656250
1817,3.99,2021-12-17 17:09:50.671875
1818,3.79,2021-12-17 17:09:50.687500
1819,3.48,2021-12-17 17:09:50.703125
1820,3.1,2021-12-17 17:09:50.718750
1821,2.71,2021-12-17 17:09:50.734375
1822,2.35,2021-12-17 17:09:50.750000
1823,2.0,2021-12-17 17:09:50.765625
1824,1.58,2021-12-17 17:09:50.781250
1825,0.96,2021-12-17 17:09:50.796875
1826,0.03,2021-12-17 17:09:50.812500
1827,-1.24,2021-12-17 17:09:50.828125
1828,-2.73,2021-12-17 17:09:50.843750
1829,-4.25,2021-12-17 17:09:50.859375
1830,-5.55,2021-12-17 17:09:50.875000
1831,-6.43,2021-12-17 17:09:50.890625
1832,-6.75,2021-12-17 17:09:50.906250
1833,-6.54,2021-12-17 17:09:50.921875
1834,-5.96,2021-12-17 17:09:50.937500
1835,-5.2,2021-12-17 17:09:50.953125
1836,-4.5,2021-12-17 17:09:50.968750
1837,-3.96,2021-12-17 17:09:50.984375
1838,-3.61,2021-12-17 17:09:51.000000
1839,-3.29,2021-12-17 17:09:51.015625
1840,-2.82,2021-12-17 17:09:51.031250
1841,-2.03,2021-12-17 17:09:51.046875
1842,-0.86,2021-12-17 17:09:51.062500
1843,0.6,2021-12-17 17:09:51.078125
1844,2.2,2021-12-17 17:09:51.093750
1845,3.73,2021-12-17 17:09:51.109375
1846,5.03,2021-12-17 17:09:51.125000
1847,6.03,2021-12-17 17:09:51.140625
1848,6.7,2021-12-17 17:09:51.156250
1849,7.08,2021-12-17 17:09:51.171875
1850,7.2,2021-12-17 17:09:51.187500
1851,7.15,2021-12-17 17:09:51.203125
1852,7.04,2021-12-17 17:09:51.218750
1853,7.0,2021-12-17 17:09:51.234375
1854,7.1,2021-12-17 17:09:51.250000
1855,7.38,2021-12-17 17:09:51.265625
1856,7.75,2021-12-17 17:09:51.281250
1857,8.1,2021-12-17 17:09:51.296875
1858,8.28,2021-12-17 17:09:51.312500
1859,8.23,2021-12-17 17:09:51.328125
1860,7.94,2021-12-17 17:09:51.343750
1861,7.46,2021-12-17 17:09:51.359375
1862,6.82,2021-12-17 17:09:51.375000
1863,6.01,2021-12-17 17:09:51.390625
1864,4.98,2021-12-17 17:09:51.406250
1865,3.69,2021-12-17 17:09:51.421875
1866,2.13,2021-12-17 17:09:51.437500
1867,0.46,2021-12-17 17:09:51.453125
1868,-1.19,2021-12-17 17:09:51.468750
1869,-2.63,2021-12-17 17:09:51.484375
1870,-3.74,2021-12-17 17:09:51.500000
1871,-4.52,2021-12-17 17:09:51.515625
1872,-5.02,2021-12-17 17:09:51.531250
1873,-5.31,2021-12-17 17:09:51.546875
1874,-5.45,2021-12-17 17:09:51.562500
1875,-5.48,2021-12-17 17:09:51.578125
1876,-5.39,2021-12-17 17:09:51.593750
1877,-5.24,2021-12-17 17:09:51.609375
1878,-5.11,2021-12-17 17:09:51.625000
1879,-5.16,2021-12-17 17:09:51.640625
1880,-5.55,2021-12-17 17:09:51.656250
1881,-6.36,2021-12-17 17:09:51.671875
1882,-7.55,2021-12-17 17:09:51.687500
1883,-8.9,2021-12-17 17:09:51.703125
1884,-10.14,2021-12-17 17:09:51.718750
1885,-10.94,2021-12-17 17:09:51.734375
1886,-11.1,2021-12-17 17:09:51.750000
1887,-10.58,2021-12-17 17:09:51.765625
1888,-9.52,2021-12-17 17:09:51.781250
1889,-8.23,2021-12-17 17:09:51.796875
1890,-6.99,2021-12-17 17:09:51.812500
1891,-6.01,2021-12-17 17:09:51.828125
1892,-5.32,2021-12-17 17:09:51.843750
1893,-4.75,2021-12-17 17:09:51.859375
1894,-4.07,2021-12-17 17:09:51.875000
1895,-3.05,2021-12-17 17:09:51.890625
1896,-1.64,2021-12-17 17:09:51.906250
1897,0.07,2021-12-17 17:09:51.921875
1898,1.8,2021-12-17 17:09:51.937500
1899,3.29,2021-12-17 17:09:51.953125
1900,4.34,2021-12-17 17:09:51.968750
1901,4.91,2021-12-17 17:09:51.984375
1902,5.09,2021-12-17 17:09:52.000000
1903,5.04,2021-12-17 17:09:52.015625
1904,4.91,2021-12-17 17:09:52.031250
1905,4.78,2021-12-17 17:09:52.046875
1906,4.73,2021-12-17 17:09:52.062500
1907,4.75,2021-12-17 17:09:52.078125
1908,4.85,2021-12-17 17:09:52.093750
1909,4.96,2021-12-17 17:09:52.109375
1910,5.0,2021-12-17 17:09:52.125000
1911,4.89,2021-12-17 17:09:52.140625
1912,4.58,2021-12-17 17:09:52.156250
1913,4.13,2021-12-17 17:09:52.171875
1914,3.64,2021-12-17 17:09:52.187500
1915,3.22,2021-12-17 17:09:52.203125
1916,2.89,2021-12-17 17:09:52.218750
1917,2.62,2021-12-17 17:09:52.234375
1918,2.29,2021-12-17 17:09:52.250000
1919,1.83,2021-12-17 17:09:52.265625
1920,1.29,2021-12-17 17:09:52.281250
1921,0.76,2021-12-17 17:09:52.296875
1922,0.34,2021-12-17 17:09:52.312500
1923,0.03,2021-12-17 17:09:52.328125
1924,-0.28,2021-12-17 17:09:52.343750
1925,-0.76,2021-12-17 17:09:52.359375
1926,-1.52,2021-12-17 17:09:52.375000
1927,-2.54,2021-12-17 17:09:52.390625
1928,-3.62,2021-12-17 17:09:52.406250
1929,-4.52,2021-12-17 17:09:52.421875
1930,-5.05,2021-12-17 17:09:52.437500
1931,-5.26,2021-12-17 17:09:52.453125
1932,-5.36,2021-12-17 17:09:52.468750
1933,-5.64,2021-12-17 17:09:52.484375
1934,-6.34,2021-12-17 17:09:52.500000
1935,-7.47,2021-12-17 17:09:52.515625
1936,-8.84,2021-12-17 17:09:52.531250
1937,-10.14,2021-12-17 17:09:52.546875
1938,-11.11,2021-12-17 17:09:52.562500
1939,-11.58,2021-12-17 17:09:52.578125
1940,-11.54,2021-12-17 17:09:52.593750
1941,-11.04,2021-12-17 17:09:52.609375
1942,-10.18,2021-12-17 17:09:52.625000
1943,-9.09,2021-12-17 17:09:52.640625
1944,-7.87,2021-12-17 17:09:52.656250
1945,-6.68,2021-12-17 17:09:52.671875
1946,-5.68,2021-12-17 17:09:52.687500
1947,-4.94,2021-12-17 17:09:52.703125
1948,-4.42,2021-12-17 17:09:52.718750
1949,-3.97,2021-12-17 17:09:52.734375
1950,-3.33,2021-12-17 17:09:52.750000
1951,-2.32,2021-12-17 17:09:52.765625
1952,-0.86,2021-12-17 17:09:52.781250
1953,0.89,2021-12-17 17:09:52.796875
1954,2.66,2021-12-17 17:09:52.812500
1955,4.11,2021-12-17 17:09:52.828125
1956,5.0,2021-12-17 17:09:52.843750
1957,5.22,2021-12-17 17:09:52.859375
1958,4.87,2021-12-17 17:09:52.875000
1959,4.23,2021-12-17 17:09:52.890625
1960,3.58,2021-12-17 17:09:52.906250
1961,3.15,2021-12-17 17:09:52.921875
1962,3.02,2021-12-17 17:09:52.937500
1963,3.11,2021-12-17 17:09:52.953125
1964,3.2,2021-12-17 17:09:52.968750
1965,3.09,2021-12-17 17:09:52.984375
1966,2.66,2021-12-17 17:09:53.000000
1967,1.9,2021-12-17 17:09:53.015625
1968,0.92,2021-12-17 17:09:53.031250
1969,-0.07,2021-12-17 17:09:53.046875
1970,-0.87,2021-12-17 17:09:53.062500
1971,-1.22,2021-12-17 17:09:53.078125
1972,-0.91,2021-12-17 17:09:53.093750
1973,0.22,2021-12-17 17:09:53.109375
1974,2.19,2021-12-17 17:09:53.125000
1975,4.86,2021-12-17 17:09:53.140625
1976,7.9,2021-12-17 17:09:53.156250
1977,10.88,2021-12-17 17:09:53.171875
1978,13.36,2021-12-17 17:09:53.187500
1979,15.07,2021-12-17 17:09:53.203125
1980,16.01,2021-12-17 17:09:53.218750
1981,16.35,2021-12-17 17:09:53.234375
1982,16.4,2021-12-17 17:09:53.250000
1983,16.37,2021-12-17 17:09:53.265625
1984,16.27,2021-12-17 17:09:53.281250
1985,15.89,2021-12-17 17:09:53.296875
1986,14.93,2021-12-17 17:09:53.312500
1987,13.13,2021-12-17 17:09:53.328125
1988,10.44,2021-12-17 17:09:53.343750
1989,7.09,2021-12-17 17:09:53.359375
1990,3.44,2021-12-17 17:09:53.375000
1991,-0.1,2021-12-17 17:09:53.390625
1992,-3.27,2021-12-17 17:09:53.406250
1993,-5.93,2021-12-17 17:09:53.421875
1994,-8.04,2021-12-17 17:09:53.437500
1995,-9.55,2021-12-17 17:09:53.453125
1996,-10.44,2021-12-17 17:09:53.468750
1997,-10.74,2021-12-17 17:09:53.484375
1998,-10.54,2021-12-17 17:09:53.500000
1999,-10.06,2021-12-17 17:09:53.515625
2000,-9.55,2021-12-17 17:09:53.531250
2001,-9.13,2021-12-17 17:09:53.546875
2002,-8.76,2021-12-17 17:09:53.562500
2003,-8.23,2021-12-17 17:09:53.578125
2004,-7.28,2021-12-17 17:09:53.593750
2005,-5.72,2021-12-17 17:09:53.609375
2006,-3.63,2021-12-17 17:09:53.625000
2007,-1.26,2021-12-17 17:09:53.640625
2008,0.98,2021-12-17 17:09:53.656250
2009,2.72,2021-12-17 17:09:53.671875
2010,3.74,2021-12-17 17:09:53.687500
2011,4.04,2021-12-17 17:09:53.703125
2012,3.82,2021-12-17 17:09:53.718750
2013,3.41,2021-12-17 17:09:53.734375
2014,3.18,2021-12-17 17:09:53.750000
2015,3.35,2021-12-17 17:09:53.765625
2016,3.94,2021-12-17 17:09:53.781250
2017,4.75,2021-12-17 17:09:53.796875
2018,5.48,2021-12-17 17:09:53.812500
2019,5.82,2021-12-17 17:09:53.828125
2020,5.63,2021-12-17 17:09:53.843750
2021,4.96,2021-12-17 17:09:53.859375
2022,4.04,2021-12-17 17:09:53.875000
2023,3.12,2021-12-17 17:09:53.890625
2024,2.37,2021-12-17 17:09:53.906250
2025,1.79,2021-12-17 17:09:53.921875
2026,1.27,2021-12-17 17:09:53.937500
2027,0.73,2021-12-17 17:09:53.953125
2028,0.12,2021-12-17 17:09:53.968750
2029,-0.48,2021-12-17 17:09:53.984375
2030,-1.0,2021-12-17 17:09:54.000000
2031,-1.4,2021-12-17 17:09:54.015625
2032,-1.72,2021-12-17 17:09:54.031250
2033,-2.07,2021-12-17 17:09:54.046875
2034,-2.48,2021-12-17 17:09:54.062500
2035,-2.97,2021-12-17 17:09:54.078125
2036,-3.42,2021-12-17 17:09:54.093750
2037,-3.78,2021-12-17 17:09:54.109375
2038,-4.02,2021-12-17 17:09:54.125000
2039,-4.24,2021-12-17 17:09:54.140625
2040,-4.61,2021-12-17 17:09:54.156250
2041,-5.28,2021-12-17 17:09:54.171875
2042,-6.27,2021-12-17 17:09:54.187500
2043,-7.49,2021-12-17 17:09:54.203125
2044,-8.72,2021-12-17 17:09:54.218750
2045,-9.73,2021-12-17 17:09:54.234375
2046,-10.34,2021-12-17 17:09:54.250000
2047,-10.48,2021-12-17 17:09:54.265625
2048,-10.13,2021-12-17 17:09:54.281250
2049,-9.42,2021-12-17 17:09:54.296875
2050,-8.46,2021-12-17 17:09:54.312500
2051,-7.42,2021-12-17 17:09:54.328125
2052,-6.46,2021-12-17 17:09:54.343750
2053,-5.67,2021-12-17 17:09:54.359375
2054,-5.0,2021-12-17 17:09:54.375000
2055,-4.32,2021-12-17 17:09:54.390625
2056,-3.46,2021-12-17 17:09:54.406250
2057,-2.26,2021-12-17 17:09:54.421875
2058,-0.71,2021-12-17 17:09:54.437500
2059,1.08,2021-12-17 17:09:54.453125
2060,2.88,2021-12-17 17:09:54.468750
2061,4.52,2021-12-17 17:09:54.484375
2062,5.86,2021-12-17 17:09:54.500000
2063,6.86,2021-12-17 17:09:54.515625
2064,7.53,2021-12-17 17:09:54.531250
2065,7.93,2021-12-17 17:09:54.546875
2066,8.13,2021-12-17 17:09:54.562500
2067,8.21,2021-12-17 17:09:54.578125
2068,8.29,2021-12-17 17:09:54.593750
2069,8.45,2021-12-17 17:09:54.609375
2070,8.7,2021-12-17 17:09:54.625000
2071,8.94,2021-12-17 17:09:54.640625
2072,9.02,2021-12-17 17:09:54.656250
2073,8.8,2021-12-17 17:09:54.671875
2074,8.26,2021-12-17 17:09:54.687500
2075,7.46,2021-12-17 17:09:54.703125
2076,6.56,2021-12-17 17:09:54.718750
2077,5.67,2021-12-17 17:09:54.734375
2078,4.81,2021-12-17 17:09:54.750000
2079,3.9,2021-12-17 17:09:54.765625
2080,2.88,2021-12-17 17:09:54.781250
2081,1.7,2021-12-17 17:09:54.796875
2082,0.41,2021-12-17 17:09:54.812500
2083,-0.88,2021-12-17 17:09:54.828125
2084,-2.09,2021-12-17 17:09:54.843750
2085,-3.18,2021-12-17 17:09:54.859375
2086,-4.2,2021-12-17 17:09:54.875000
2087,-5.25,2021-12-17 17:09:54.890625
2088,-6.39,2021-12-17 17:09:54.906250
2089,-7.6,2021-12-17 17:09:54.921875
2090,-8.85,2021-12-17 17:09:54.937500
2091,-10.03,2021-12-17 17:09:54.953125
2092,-11.09,2021-12-17 17:09:54.968750
2093,-11.99,2021-12-17 17:09:54.984375
2094,-12.76,2021-12-17 17:09:55.000000
2095,-13.43,2021-12-17 17:09:55.015625
2096,-14.06,2021-12-17 17:09:55.031250
2097,-14.69,2021-12-17 17:09:55.046875
2098,-15.26,2021-12-17 17:09:55.062500
2099,-15.72,2021-12-17 17:09:55.078125
2100,-15.96,2021-12-17 17:09:55.093750
2101,-15.92,2021-12-17 17:09:55.109375
2102,-15.6,2021-12-17 17:09:55.125000
2103,-15.09,2021-12-17 17:09:55.140625
2104,-14.51,2021-12-17 17:09:55.156250
2105,-13.86,2021-12-17 17:09:55.171875
2106,-13.11,2021-12-17 17:09:55.187500
2107,-12.14,2021-12-17 17:09:55.203125
2108,-10.91,2021-12-17 17:09:55.218750
2109,-9.5,2021-12-17 17:09:55.234375
2110,-8.16,2021-12-17 17:09:55.250000
2111,-7.15,2021-12-17 17:09:55.265625
2112,-6.7,2021-12-17 17:09:55.281250
2113,-6.8,2021-12-17 17:09:55.296875
2114,-7.19,2021-12-17 17:09:55.312500
2115,-7.56,2021-12-17 17:09:55.328125
2116,-7.63,2021-12-17 17:09:55.343750
2117,-7.35,2021-12-17 17:09:55.359375
2118,-6.91,2021-12-17 17:09:55.375000
2119,-6.69,2021-12-17 17:09:55.390625
2120,-6.96,2021-12-17 17:09:55.406250
2121,-7.81,2021-12-17 17:09:55.421875
2122,-8.95,2021-12-17 17:09:55.437500
2123,-9.89,2021-12-17 17:09:55.453125
2124,-10.14,2021-12-17 17:09:55.468750
2125,-9.43,2021-12-17 17:09:55.484375
2126,-7.84,2021-12-17 17:09:55.500000
2127,-5.68,2021-12-17 17:09:55.515625
2128,-3.32,2021-12-17 17:09:55.531250
2129,-0.99,2021-12-17 17:09:55.546875
2130,1.33,2021-12-17 17:09:55.562500
2131,3.92,2021-12-17 17:09:55.578125
2132,7.19,2021-12-17 17:09:55.593750
2133,11.62,2021-12-17 17:09:55.609375
2134,17.76,2021-12-17 17:09:55.625000
2135,26.05,2021-12-17 17:09:55.640625
2136,36.57,2021-12-17 17:09:55.656250
2137,48.81,2021-12-17 17:09:55.671875
2138,61.35,2021-12-17 17:09:55.687500
2139,72.11,2021-12-17 17:09:55.703125
2140,78.79,2021-12-17 17:09:55.718750
2141,79.75,2021-12-17 17:09:55.734375
2142,74.53,2021-12-17 17:09:55.750000
2143,64.13,2021-12-17 17:09:55.765625
2144,50.5,2021-12-17 17:09:55.781250
2145,35.83,2021-12-17 17:09:55.796875
2146,21.8,2021-12-17 17:09:55.812500
2147,9.29,2021-12-17 17:09:55.828125
2148,-1.5,2021-12-17 17:09:55.843750
2149,-10.57,2021-12-17 17:09:55.859375
2150,-17.8,2021-12-17 17:09:55.875000
2151,-22.86,2021-12-17 17:09:55.890625
2152,-25.49,2021-12-17 17:09:55.906250
2153,-25.79,2021-12-17 17:09:55.921875
2154,-24.4,2021-12-17 17:09:55.937500
2155,-22.29,2021-12-17 17:09:55.953125
2156,-20.47,2021-12-17 17:09:55.968750
2157,-19.55,2021-12-17 17:09:55.984375
2158,-19.57,2021-12-17 17:09:56.000000
2159,-20.08,2021-12-17 17:09:56.015625
2160,-20.4,2021-12-17 17:09:56.031250
2161,-20.0,2021-12-17 17:09:56.046875
2162,-18.72,2021-12-17 17:09:56.062500
2163,-16.8,2021-12-17 17:09:56.078125
2164,-14.67,2021-12-17 17:09:56.093750
2165,-12.8,2021-12-17 17:09:56.109375
2166,-11.39,2021-12-17 17:09:56.125000
2167,-10.36,2021-12-17 17:09:56.140625
2168,-9.39,2021-12-17 17:09:56.156250
2169,-8.14,2021-12-17 17:09:56.171875
2170,-6.42,2021-12-17 17:09:56.187500
2171,-4.32,2021-12-17 17:09:56.203125
2172,-2.18,2021-12-17 17:09:56.218750
2173,-0.39,2021-12-17 17:09:56.234375
2174,0.73,2021-12-17 17:09:56.250000
2175,1.13,2021-12-17 17:09:56.265625
2176,1.03,2021-12-17 17:09:56.281250
2177,0.78,2021-12-17 17:09:56.296875
2178,0.81,2021-12-17 17:09:56.312500
2179,1.35,2021-12-17 17:09:56.328125
2180,2.47,2021-12-17 17:09:56.343750
2181,4.0,2021-12-17 17:09:56.359375
2182,5.64,2021-12-17 17:09:56.375000
2183,7.05,2021-12-17 17:09:56.390625
2184,7.97,2021-12-17 17:09:56.406250
2185,8.29,2021-12-17 17:09:56.421875
2186,8.06,2021-12-17 17:09:56.437500
2187,7.42,2021-12-17 17:09:56.453125
2188,6.57,2021-12-17 17:09:56.468750
2189,5.63,2021-12-17 17:09:56.484375
2190,4.62,2021-12-17 17:09:56.500000
2191,3.47,2021-12-17 17:09:56.515625
2192,2.08,2021-12-17 17:09:56.531250
2193,0.38,2021-12-17 17:09:56.546875
2194,-1.6,2021-12-17 17:09:56.562500
2195,-3.73,2021-12-17 17:09:56.578125
2196,-5.75,2021-12-17 17:09:56.593750
2197,-7.46,2021-12-17 17:09:56.609375
2198,-8.65,2021-12-17 17:09:56.625000
2199,-9.3,2021-12-17 17:09:56.640625
2200,-9.45,2021-12-17 17:09:56.656250
2201,-9.22,2021-12-17 17:09:56.671875
2202,-8.71,2021-12-17 17:09:56.687500
2203,-7.94,2021-12-17 17:09:56.703125
2204,-6.87,2021-12-17 17:09:56.718750
2205,-5.44,2021-12-17 17:09:56.734375
2206,-3.68,2021-12-17 17:09:56.750000
2207,-1.67,2021-12-17 17:09:56.765625
2208,0.42,2021-12-17 17:09:56.781250
2209,2.47,2021-12-17 17:09:56.796875
2210,4.43,2021-12-17 17:09:56.812500
2211,6.28,2021-12-17 17:09:56.828125
2212,7.99,2021-12-17 17:09:56.843750
2213,9.45,2021-12-17 17:09:56.859375
2214,10.42,2021-12-17 17:09:56.875000
2215,10.71,2021-12-17 17:09:56.890625
2216,10.22,2021-12-17 17:09:56.906250
2217,9.03,2021-12-17 17:09:56.921875
2218,7.42,2021-12-17 17:09:56.937500
2219,5.73,2021-12-17 17:09:56.953125
2220,4.29,2021-12-17 17:09:56.968750
2221,3.32,2021-12-17 17:09:56.984375
2222,2.92,2021-12-17 17:09:57.000000
2223,3.07,2021-12-17 17:09:57.015625
2224,3.61,2021-12-17 17:09:57.031250
2225,4.34,2021-12-17 17:09:57.046875
2226,4.98,2021-12-17 17:09:57.062500
2227,5.31,2021-12-17 17:09:57.078125
2228,5.15,2021-12-17 17:09:57.093750
2229,4.48,2021-12-17 17:09:57.109375
2230,3.41,2021-12-17 17:09:57.125000
2231,2.14,2021-12-17 17:09:57.140625
2232,0.86,2021-12-17 17:09:57.156250
2233,-0.31,2021-12-17 17:09:57.171875
2234,-1.37,2021-12-17 17:09:57.187500
2235,-2.38,2021-12-17 17:09:57.203125
2236,-3.44,2021-12-17 17:09:57.218750
2237,-4.57,2021-12-17 17:09:57.234375
2238,-5.77,2021-12-17 17:09:57.250000
2239,-6.94,2021-12-17 17:09:57.265625
2240,-7.98,2021-12-17 17:09:57.281250
2241,-8.81,2021-12-17 17:09:57.296875
2242,-9.4,2021-12-17 17:09:57.312500
2243,-9.77,2021-12-17 17:09:57.328125
2244,-9.94,2021-12-17 17:09:57.343750
2245,-9.94,2021-12-17 17:09:57.359375
2246,-9.75,2021-12-17 17:09:57.375000
2247,-9.35,2021-12-17 17:09:57.390625
2248,-8.74,2021-12-17 17:09:57.406250
2249,-7.97,2021-12-17 17:09:57.421875
2250,-7.17,2021-12-17 17:09:57.437500
2251,-6.5,2021-12-17 17:09:57.453125
2252,-6.06,2021-12-17 17:09:57.468750
2253,-5.94,2021-12-17 17:09:57.484375
2254,-6.14,2021-12-17 17:09:57.500000
2255,-6.6,2021-12-17 17:09:57.515625
2256,-7.25,2021-12-17 17:09:57.531250
2257,-7.93,2021-12-17 17:09:57.546875
2258,-8.47,2021-12-17 17:09:57.562500
2259,-8.66,2021-12-17 17:09:57.578125
2260,-8.39,2021-12-17 17:09:57.593750
2261,-7.65,2021-12-17 17:09:57.609375
2262,-6.59,2021-12-17 17:09:57.625000
2263,-5.46,2021-12-17 17:09:57.640625
2264,-4.47,2021-12-17 17:09:57.656250
2265,-3.69,2021-12-17 17:09:57.671875
2266,-3.03,2021-12-17 17:09:57.687500
2267,-2.33,2021-12-17 17:09:57.703125
2268,-1.46,2021-12-17 17:09:57.718750
2269,-0.45,2021-12-17 17:09:57.734375
2270,0.52,2021-12-17 17:09:57.750000
2271,1.23,2021-12-17 17:09:57.765625
2272,1.51,2021-12-17 17:09:57.781250
2273,1.38,2021-12-17 17:09:57.796875
2274,1.0,2021-12-17 17:09:57.812500
2275,0.55,2021-12-17 17:09:57.828125
2276,0.24,2021-12-17 17:09:57.843750
2277,0.2,2021-12-17 17:09:57.859375
2278,0.45,2021-12-17 17:09:57.875000
2279,0.97,2021-12-17 17:09:57.890625
2280,1.72,2021-12-17 17:09:57.906250
2281,2.64,2021-12-17 17:09:57.921875
2282,3.65,2021-12-17 17:09:57.937500
2283,4.63,2021-12-17 17:09:57.953125
2284,5.43,2021-12-17 17:09:57.968750
2285,5.92,2021-12-17 17:09:57.984375
2286,6.0,2021-12-17 17:09:58.000000
2287,5.68,2021-12-17 17:09:58.015625
2288,5.05,2021-12-17 17:09:58.031250
2289,4.29,2021-12-17 17:09:58.046875
2290,3.53,2021-12-17 17:09:58.062500
2291,2.87,2021-12-17 17:09:58.078125
2292,2.31,2021-12-17 17:09:58.093750
2293,1.71,2021-12-17 17:09:58.109375
2294,0.9,2021-12-17 17:09:58.125000
2295,-0.36,2021-12-17 17:09:58.140625
2296,-2.2,2021-12-17 17:09:58.156250
2297,-4.65,2021-12-17 17:09:58.171875
2298,-7.58,2021-12-17 17:09:58.187500
2299,-10.74,2021-12-17 17:09:58.203125
2300,-13.77,2021-12-17 17:09:58.218750
2301,-16.31,2021-12-17 17:09:58.234375
2302,-18.06,2021-12-17 17:09:58.250000
2303,-18.82,2021-12-17 17:09:58.265625
2304,-18.57,2021-12-17 17:09:58.281250
2305,-17.42,2021-12-17 17:09:58.296875
2306,-15.59,2021-12-17 17:09:58.312500
2307,-13.37,2021-12-17 17:09:58.328125
2308,-11.03,2021-12-17 17:09:58.343750
2309,-8.72,2021-12-17 17:09:58.359375
2310,-6.47,2021-12-17 17:09:58.375000
2311,-4.23,2021-12-17 17:09:58.390625
2312,-1.93,2021-12-17 17:09:58.406250
2313,0.37,2021-12-17 17:09:58.421875
2314,2.54,2021-12-17 17:09:58.437500
2315,4.33,2021-12-17 17:09:58.453125
2316,5.52,2021-12-17 17:09:58.468750
2317,6.0,2021-12-17 17:09:58.484375
2318,5.86,2021-12-17 17:09:58.500000
2319,5.32,2021-12-17 17:09:58.515625
2320,4.67,2021-12-17 17:09:58.531250
2321,4.17,2021-12-17 17:09:58.546875
2322,3.93,2021-12-17 17:09:58.562500
2323,3.97,2021-12-17 17:09:58.578125
2324,4.18,2021-12-17 17:09:58.593750
2325,4.4,2021-12-17 17:09:58.609375
2326,4.53,2021-12-17 17:09:58.625000
2327,4.49,2021-12-17 17:09:58.640625
2328,4.33,2021-12-17 17:09:58.656250
2329,4.12,2021-12-17 17:09:58.671875
2330,3.95,2021-12-17 17:09:58.687500
2331,3.88,2021-12-17 17:09:58.703125
2332,3.92,2021-12-17 17:09:58.718750
2333,4.06,2021-12-17 17:09:58.734375
2334,4.27,2021-12-17 17:09:58.750000
2335,4.51,2021-12-17 17:09:58.765625
2336,4.74,2021-12-17 17:09:58.781250
2337,4.96,2021-12-17 17:09:58.796875
2338,5.13,2021-12-17 17:09:58.812500
2339,5.23,2021-12-17 17:09:58.828125
2340,5.21,2021-12-17 17:09:58.843750
2341,5.02,2021-12-17 17:09:58.859375
2342,4.63,2021-12-17 17:09:58.875000
2343,4.03,2021-12-17 17:09:58.890625
2344,3.23,2021-12-17 17:09:58.906250
2345,2.26,2021-12-17 17:09:58.921875
2346,1.17,2021-12-17 17:09:58.937500
2347,-0.04,2021-12-17 17:09:58.953125
2348,-1.34,2021-12-17 17:09:58.968750
2349,-2.72,2021-12-17 17:09:58.984375
2350,-4.09,2021-12-17 17:09:59.000000
2351,-5.35,2021-12-17 17:09:59.015625
2352,-6.35,2021-12-17 17:09:59.031250
2353,-6.94,2021-12-17 17:09:59.046875
2354,-7.05,2021-12-17 17:09:59.062500
2355,-6.72,2021-12-17 17:09:59.078125
2356,-6.03,2021-12-17 17:09:59.093750
2357,-5.17,2021-12-17 17:09:59.109375
2358,-4.3,2021-12-17 17:09:59.125000
2359,-3.49,2021-12-17 17:09:59.140625
2360,-2.74,2021-12-17 17:09:59.156250
2361,-1.95,2021-12-17 17:09:59.171875
2362,-0.97,2021-12-17 17:09:59.187500
2363,0.31,2021-12-17 17:09:59.203125
2364,1.92,2021-12-17 17:09:59.218750
2365,3.81,2021-12-17 17:09:59.234375
2366,5.82,2021-12-17 17:09:59.250000
2367,7.77,2021-12-17 17:09:59.265625
2368,9.43,2021-12-17 17:09:59.281250
2369,10.67,2021-12-17 17:09:59.296875
2370,11.37,2021-12-17 17:09:59.312500
2371,11.57,2021-12-17 17:09:59.328125
2372,11.37,2021-12-17 17:09:59.343750
2373,10.9,2021-12-17 17:09:59.359375
2374,10.31,2021-12-17 17:09:59.375000
2375,9.64,2021-12-17 17:09:59.390625
2376,8.9,2021-12-17 17:09:59.406250
2377,8.06,2021-12-17 17:09:59.421875
2378,7.12,2021-12-17 17:09:59.437500
2379,6.13,2021-12-17 17:09:59.453125
2380,5.23,2021-12-17 17:09:59.468750
2381,4.54,2021-12-17 17:09:59.484375
2382,4.12,2021-12-17 17:09:59.500000
2383,3.94,2021-12-17 17:09:59.515625
2384,3.85,2021-12-17 17:09:59.531250
2385,3.69,2021-12-17 17:09:59.546875
2386,3.34,2021-12-17 17:09:59.562500
2387,2.74,2021-12-17 17:09:59.578125
2388,1.85,2021-12-17 17:09:59.593750
2389,0.7,2021-12-17 17:09:59.609375
2390,-0.69,2021-12-17 17:09:59.625000
2391,-2.29,2021-12-17 17:09:59.640625
2392,-3.99,2021-12-17 17:09:59.656250
2393,-5.61,2021-12-17 17:09:59.671875
2394,-6.95,2021-12-17 17:09:59.687500
2395,-7.86,2021-12-17 17:09:59.703125
2396,-8.3,2021-12-17 17:09:59.718750
2397,-8.38,2021-12-17 17:09:59.734375
2398,-8.26,2021-12-17 17:09:59.750000
2399,-8.13,2021-12-17 17:09:59.765625
2400,-8.13,2021-12-17 17:09:59.781250
2401,-8.36,2021-12-17 17:09:59.796875
2402,-8.82,2021-12-17 17:09:59.812500
2403,-9.48,2021-12-17 17:09:59.828125
2404,-10.24,2021-12-17 17:09:59.843750
2405,-10.96,2021-12-17 17:09:59.859375
2406,-11.42,2021-12-17 17:09:59.875000
2407,-11.45,2021-12-17 17:09:59.890625
2408,-10.93,2021-12-17 17:09:59.906250
2409,-9.79,2021-12-17 17:09:59.921875
2410,-8.04,2021-12-17 17:09:59.937500
2411,-5.72,2021-12-17 17:09:59.953125
2412,-2.9,2021-12-17 17:09:59.968750
2413,0.22,2021-12-17 17:09:59.984375
2414,3.34,2021-12-17 17:10:00.000000
2415,6.06,2021-12-17 17:10:00.015625
2416,7.95,2021-12-17 17:10:00.031250
2417,8.79,2021-12-17 17:10:00.046875
2418,8.61,2021-12-17 17:10:00.062500
2419,7.76,2021-12-17 17:10:00.078125
2420,6.77,2021-12-17 17:10:00.093750
2421,6.11,2021-12-17 17:10:00.109375
2422,6.09,2021-12-17 17:10:00.125000
2423,6.76,2021-12-17 17:10:00.140625
2424,7.95,2021-12-17 17:10:00.156250
2425,9.43,2021-12-17 17:10:00.171875
2426,10.94,2021-12-17 17:10:00.187500
2427,12.33,2021-12-17 17:10:00.203125
2428,13.51,2021-12-17 17:10:00.218750
2429,14.4,2021-12-17 17:10:00.234375
2430,15.02,2021-12-17 17:10:00.250000
2431,15.42,2021-12-17 17:10:00.265625
2432,15.68,2021-12-17 17:10:00.281250
2433,15.88,2021-12-17 17:10:00.296875
2434,16.07,2021-12-17 17:10:00.312500
2435,16.23,2021-12-17 17:10:00.328125
2436,16.31,2021-12-17 17:10:00.343750
2437,16.22,2021-12-17 17:10:00.359375
2438,15.88,2021-12-17 17:10:00.375000
2439,15.17,2021-12-17 17:10:00.390625
2440,13.96,2021-12-17 17:10:00.406250
2441,12.08,2021-12-17 17:10:00.421875
2442,9.44,2021-12-17 17:10:00.437500
2443,6.11,2021-12-17 17:10:00.453125
2444,2.35,2021-12-17 17:10:00.468750
2445,-1.44,2021-12-17 17:10:00.484375
2446,-4.94,2021-12-17 17:10:00.500000
2447,-7.97,2021-12-17 17:10:00.515625
2448,-10.64,2021-12-17 17:10:00.531250
2449,-13.23,2021-12-17 17:10:00.546875
2450,-15.98,2021-12-17 17:10:00.562500
2451,-19.02,2021-12-17 17:10:00.578125
2452,-22.19,2021-12-17 17:10:00.593750
2453,-25.18,2021-12-17 17:10:00.609375
2454,-27.59,2021-12-17 17:10:00.625000
2455,-29.13,2021-12-17 17:10:00.640625
2456,-29.64,2021-12-17 17:10:00.656250
2457,-29.18,2021-12-17 17:10:00.671875
2458,-27.91,2021-12-17 17:10:00.687500
2459,-26.15,2021-12-17 17:10:00.703125
2460,-24.22,2021-12-17 17:10:00.718750
2461,-22.37,2021-12-17 17:10:00.734375
2462,-20.72,2021-12-17 17:10:00.750000
2463,-19.22,2021-12-17 17:10:00.765625
2464,-17.68,2021-12-17 17:10:00.781250
2465,-15.92,2021-12-17 17:10:00.796875
2466,-13.83,2021-12-17 17:10:00.812500
2467,-11.41,2021-12-17 17:10:00.828125
2468,-8.82,2021-12-17 17:10:00.843750
2469,-6.31,2021-12-17 17:10:00.859375
2470,-4.08,2021-12-17 17:10:00.875000
2471,-2.26,2021-12-17 17:10:00.890625
2472,-0.88,2021-12-17 17:10:00.906250
2473,0.09,2021-12-17 17:10:00.921875
2474,0.71,2021-12-17 17:10:00.937500
2475,1.05,2021-12-17 17:10:00.953125
2476,1.21,2021-12-17 17:10:00.968750
2477,1.33,2021-12-17 17:10:00.984375
2478,1.61,2021-12-17 17:10:01.000000
2479,2.28,2021-12-17 17:10:01.015625
2480,3.45,2021-12-17 17:10:01.031250
2481,5.14,2021-12-17 17:10:01.046875
2482,7.14,2021-12-17 17:10:01.062500
2483,9.17,2021-12-17 17:10:01.078125
2484,10.92,2021-12-17 17:10:01.093750
2485,12.25,2021-12-17 17:10:01.109375
2486,13.22,2021-12-17 17:10:01.125000
2487,14.0,2021-12-17 17:10:01.140625
2488,14.79,2021-12-17 17:10:01.156250
2489,15.65,2021-12-17 17:10:01.171875
2490,16.51,2021-12-17 17:10:01.187500
2491,17.21,2021-12-17 17:10:01.203125
2492,17.65,2021-12-17 17:10:01.218750
2493,17.87,2021-12-17 17:10:01.234375
2494,18.11,2021-12-17 17:10:01.250000
2495,18.65,2021-12-17 17:10:01.265625
2496,19.68,2021-12-17 17:10:01.281250
2497,21.14,2021-12-17 17:10:01.296875
2498,22.7,2021-12-17 17:10:01.312500
2499,23.82,2021-12-17 17:10:01.328125
2500,23.93,2021-12-17 17:10:01.343750
2501,22.6,2021-12-17 17:10:01.359375
2502,19.58,2021-12-17 17:10:01.375000
2503,14.94,2021-12-17 17:10:01.390625
2504,8.97,2021-12-17 17:10:01.406250
2505,2.21,2021-12-17 17:10:01.421875
2506,-4.57,2021-12-17 17:10:01.437500
2507,-10.44,2021-12-17 17:10:01.453125
2508,-14.53,2021-12-17 17:10:01.468750
2509,-16.28,2021-12-17 17:10:01.484375
2510,-15.67,2021-12-17 17:10:01.500000
2511,-13.32,2021-12-17 17:10:01.515625
2512,-10.25,2021-12-17 17:10:01.531250
2513,-7.49,2021-12-17 17:10:01.546875
2514,-5.64,2021-12-17 17:10:01.562500
2515,-4.68,2021-12-17 17:10:01.578125
2516,-4.12,2021-12-17 17:10:01.593750
2517,-3.34,2021-12-17 17:10:01.609375
2518,-2.02,2021-12-17 17:10:01.625000
2519,-0.29,2021-12-17 17:10:01.640625
2520,1.38,2021-12-17 17:10:01.656250
2521,2.44,2021-12-17 17:10:01.671875
2522,2.58,2021-12-17 17:10:01.687500
2523,1.87,2021-12-17 17:10:01.703125
2524,0.73,2021-12-17 17:10:01.718750
2525,-0.27,2021-12-17 17:10:01.734375
2526,-0.67,2021-12-17 17:10:01.750000
2527,-0.31,2021-12-17 17:10:01.765625
2528,0.53,2021-12-17 17:10:01.781250
2529,1.28,2021-12-17 17:10:01.796875
2530,1.24,2021-12-17 17:10:01.812500
2531,0.02,2021-12-17 17:10:01.828125
2532,-2.3,2021-12-17 17:10:01.843750
2533,-5.15,2021-12-17 17:10:01.859375
2534,-7.75,2021-12-17 17:10:01.875000
2535,-9.52,2021-12-17 17:10:01.890625
2536,-10.36,2021-12-17 17:10:01.906250
2537,-10.72,2021-12-17 17:10:01.921875
2538,-11.22,2021-12-17 17:10:01.937500
2539,-12.29,2021-12-17 17:10:01.953125
2540,-13.86,2021-12-17 17:10:01.968750
2541,-15.41,2021-12-17 17:10:01.984375
2542,-16.26,2021-12-17 17:10:02.000000
2543,-15.95,2021-12-17 17:10:02.015625
2544,-14.5,2021-12-17 17:10:02.031250
2545,-12.31,2021-12-17 17:10:02.046875
2546,-10.03,2021-12-17 17:10:02.062500
2547,-8.2,2021-12-17 17:10:02.078125
2548,-7.05,2021-12-17 17:10:02.093750
2549,-6.47,2021-12-17 17:10:02.109375
2550,-6.18,2021-12-17 17:10:02.125000
2551,-5.89,2021-12-17 17:10:02.140625
2552,-5.51,2021-12-17 17:10:02.156250
2553,-5.18,2021-12-17 17:10:02.171875
2554,-5.21,2021-12-17 17:10:02.187500
2555,-5.86,2021-12-17 17:10:02.203125
2556,-7.24,2021-12-17 17:10:02.218750
2557,-9.19,2021-12-17 17:10:02.234375
2558,-11.31,2021-12-17 17:10:02.250000
2559,-13.16,2021-12-17 17:10:02.265625
2560,-14.38,2021-12-17 17:10:02.281250
2561,-14.81,2021-12-17 17:10:02.296875
2562,-14.47,2021-12-17 17:10:02.312500
2563,-13.57,2021-12-17 17:10:02.328125
2564,-12.31,2021-12-17 17:10:02.343750
2565,-10.88,2021-12-17 17:10:02.359375
2566,-9.35,2021-12-17 17:10:02.375000
2567,-7.76,2021-12-17 17:10:02.390625
2568,-6.09,2021-12-17 17:10:02.406250
2569,-4.36,2021-12-17 17:10:02.421875
2570,-2.57,2021-12-17 17:10:02.437500
2571,-0.79,2021-12-17 17:10:02.453125
2572,0.94,2021-12-17 17:10:02.468750
2573,2.56,2021-12-17 17:10:02.484375
2574,4.04,2021-12-17 17:10:02.500000
2575,5.36,2021-12-17 17:10:02.515625
2576,6.47,2021-12-17 17:10:02.531250
2577,7.33,2021-12-17 17:10:02.546875
2578,7.9,2021-12-17 17:10:02.562500
2579,8.17,2021-12-17 17:10:02.578125
2580,8.18,2021-12-17 17:10:02.593750
2581,8.03,2021-12-17 17:10:02.609375
2582,7.81,2021-12-17 17:10:02.625000
2583,7.63,2021-12-17 17:10:02.640625
2584,7.51,2021-12-17 17:10:02.656250
2585,7.45,2021-12-17 17:10:02.671875
2586,7.38,2021-12-17 17:10:02.687500
2587,7.24,2021-12-17 17:10:02.703125
2588,6.97,2021-12-17 17:10:02.718750
2589,6.53,2021-12-17 17:10:02.734375
2590,5.9,2021-12-17 17:10:02.750000
2591,5.09,2021-12-17 17:10:02.765625
2592,4.14,2021-12-17 17:10:02.781250
2593,3.12,2021-12-17 17:10:02.796875
2594,2.17,2021-12-17 17:10:02.812500
2595,1.41,2021-12-17 17:10:02.828125
2596,0.9,2021-12-17 17:10:02.843750
2597,0.62,2021-12-17 17:10:02.859375
2598,0.43,2021-12-17 17:10:02.875000
2599,0.16,2021-12-17 17:10:02.890625
2600,-0.27,2021-12-17 17:10:02.906250
2601,-0.83,2021-12-17 17:10:02.921875
2602,-1.39,2021-12-17 17:10:02.937500
2603,-1.82,2021-12-17 17:10:02.953125
2604,-2.1,2021-12-17 17:10:02.968750
2605,-2.38,2021-12-17 17:10:02.984375
2606,-2.92,2021-12-17 17:10:03.000000
2607,-3.95,2021-12-17 17:10:03.015625
2608,-5.52,2021-12-17 17:10:03.031250
2609,-7.46,2021-12-17 17:10:03.046875
2610,-9.44,2021-12-17 17:10:03.062500
2611,-11.11,2021-12-17 17:10:03.078125
2612,-12.19,2021-12-17 17:10:03.093750
2613,-12.57,2021-12-17 17:10:03.109375
2614,-12.28,2021-12-17 17:10:03.125000
2615,-11.47,2021-12-17 17:10:03.140625
2616,-10.34,2021-12-17 17:10:03.156250
2617,-9.12,2021-12-17 17:10:03.171875
2618,-8.03,2021-12-17 17:10:03.187500
2619,-7.17,2021-12-17 17:10:03.203125
2620,-6.56,2021-12-17 17:10:03.218750
2621,-6.04,2021-12-17 17:10:03.234375
2622,-5.39,2021-12-17 17:10:03.250000
2623,-4.42,2021-12-17 17:10:03.265625
2624,-3.05,2021-12-17 17:10:03.281250
2625,-1.37,2021-12-17 17:10:03.296875
2626,0.42,2021-12-17 17:10:03.312500
2627,2.09,2021-12-17 17:10:03.328125
2628,3.48,2021-12-17 17:10:03.343750
2629,4.65,2021-12-17 17:10:03.359375
2630,5.8,2021-12-17 17:10:03.375000
2631,7.18,2021-12-17 17:10:03.390625
2632,9.02,2021-12-17 17:10:03.406250
2633,11.29,2021-12-17 17:10:03.421875
2634,13.78,2021-12-17 17:10:03.437500
2635,16.09,2021-12-17 17:10:03.453125
2636,17.85,2021-12-17 17:10:03.468750
2637,18.83,2021-12-17 17:10:03.484375
2638,19.01,2021-12-17 17:10:03.500000
2639,18.58,2021-12-17 17:10:03.515625
2640,17.71,2021-12-17 17:10:03.531250
2641,16.56,2021-12-17 17:10:03.546875
2642,15.15,2021-12-17 17:10:03.562500
2643,13.47,2021-12-17 17:10:03.578125
2644,11.54,2021-12-17 17:10:03.593750
2645,9.46,2021-12-17 17:10:03.609375
2646,7.44,2021-12-17 17:10:03.625000
2647,5.66,2021-12-17 17:10:03.640625
2648,4.2,2021-12-17 17:10:03.656250
2649,3.07,2021-12-17 17:10:03.671875
2650,2.17,2021-12-17 17:10:03.687500
2651,1.36,2021-12-17 17:10:03.703125
2652,0.5,2021-12-17 17:10:03.718750
2653,-0.5,2021-12-17 17:10:03.734375
2654,-1.76,2021-12-17 17:10:03.750000
2655,-3.29,2021-12-17 17:10:03.765625
2656,-5.08,2021-12-17 17:10:03.781250
2657,-7.02,2021-12-17 17:10:03.796875
2658,-8.96,2021-12-17 17:10:03.812500
2659,-10.76,2021-12-17 17:10:03.828125
2660,-12.27,2021-12-17 17:10:03.843750
2661,-13.4,2021-12-17 17:10:03.859375
2662,-14.05,2021-12-17 17:10:03.875000
2663,-14.12,2021-12-17 17:10:03.890625
2664,-13.49,2021-12-17 17:10:03.906250
2665,-12.14,2021-12-17 17:10:03.921875
2666,-10.18,2021-12-17 17:10:03.937500
2667,-7.9,2021-12-17 17:10:03.953125
2668,-5.7,2021-12-17 17:10:03.968750
2669,-3.94,2021-12-17 17:10:03.984375
2670,-2.81,2021-12-17 17:10:04.000000
2671,-2.23,2021-12-17 17:10:04.015625
2672,-1.96,2021-12-17 17:10:04.031250
2673,-1.72,2021-12-17 17:10:04.046875
2674,-1.37,2021-12-17 17:10:04.062500
2675,-0.95,2021-12-17 17:10:04.078125
2676,-0.66,2021-12-17 17:10:04.093750
2677,-0.68,2021-12-17 17:10:04.109375
2678,-1.03,2021-12-17 17:10:04.125000
2679,-1.53,2021-12-17 17:10:04.140625
2680,-1.87,2021-12-17 17:10:04.156250
2681,-1.77,2021-12-17 17:10:04.171875
2682,-1.17,2021-12-17 17:10:04.187500
2683,-0.24,2021-12-17 17:10:04.203125
2684,0.63,2021-12-17 17:10:04.218750
2685,1.1,2021-12-17 17:10:04.234375
2686,1.03,2021-12-17 17:10:04.250000
2687,0.64,2021-12-17 17:10:04.265625
2688,0.4,2021-12-17 17:10:04.281250
2689,0.88,2021-12-17 17:10:04.296875
2690,2.5,2021-12-17 17:10:04.312500
2691,5.31,2021-12-17 17:10:04.328125
2692,9.01,2021-12-17 17:10:04.343750
2693,13.05,2021-12-17 17:10:04.359375
2694,16.76,2021-12-17 17:10:04.375000
2695,19.56,2021-12-17 17:10:04.390625
2696,21.09,2021-12-17 17:10:04.406250
2697,21.23,2021-12-17 17:10:04.421875
2698,20.09,2021-12-17 17:10:04.437500
2699,18.02,2021-12-17 17:10:04.453125
2700,15.45,2021-12-17 17:10:04.468750
2701,12.82,2021-12-17 17:10:04.484375
2702,10.49,2021-12-17 17:10:04.500000
2703,8.62,2021-12-17 17:10:04.515625
2704,7.21,2021-12-17 17:10:04.531250
2705,6.09,2021-12-17 17:10:04.546875
2706,5.02,2021-12-17 17:10:04.562500
2707,3.78,2021-12-17 17:10:04.578125
2708,2.26,2021-12-17 17:10:04.593750
2709,0.37,2021-12-17 17:10:04.609375
2710,-1.88,2021-12-17 17:10:04.625000
2711,-4.51,2021-12-17 17:10:04.640625
2712,-7.58,2021-12-17 17:10:04.656250
2713,-11.18,2021-12-17 17:10:04.671875
2714,-15.34,2021-12-17 17:10:04.687500
2715,-19.97,2021-12-17 17:10:04.703125
2716,-24.86,2021-12-17 17:10:04.718750
2717,-29.58,2021-12-17 17:10:04.734375
2718,-33.72,2021-12-17 17:10:04.750000
2719,-36.85,2021-12-17 17:10:04.765625
2720,-38.72,2021-12-17 17:10:04.781250
2721,-39.18,2021-12-17 17:10:04.796875
2722,-38.12,2021-12-17 17:10:04.812500
2723,-35.5,2021-12-17 17:10:04.828125
2724,-31.35,2021-12-17 17:10:04.843750
2725,-25.83,2021-12-17 17:10:04.859375
2726,-19.34,2021-12-17 17:10:04.875000
2727,-12.45,2021-12-17 17:10:04.890625
2728,-5.87,2021-12-17 17:10:04.906250
2729,-0.25,2021-12-17 17:10:04.921875
2730,3.96,2021-12-17 17:10:04.937500
2731,6.64,2021-12-17 17:10:04.953125
2732,7.98,2021-12-17 17:10:04.968750
2733,8.4,2021-12-17 17:10:04.984375
2734,8.3,2021-12-17 17:10:05.000000
2735,7.94,2021-12-17 17:10:05.015625
2736,7.34,2021-12-17 17:10:05.031250
2737,6.37,2021-12-17 17:10:05.046875
2738,4.96,2021-12-17 17:10:05.062500
2739,3.24,2021-12-17 17:10:05.078125
2740,1.61,2021-12-17 17:10:05.093750
2741,0.63,2021-12-17 17:10:05.109375
2742,0.73,2021-12-17 17:10:05.125000
2743,1.95,2021-12-17 17:10:05.140625
2744,3.87,2021-12-17 17:10:05.156250
2745,5.71,2021-12-17 17:10:05.171875
2746,6.74,2021-12-17 17:10:05.187500
2747,6.66,2021-12-17 17:10:05.203125
2748,5.76,2021-12-17 17:10:05.218750
2749,4.83,2021-12-17 17:10:05.234375
2750,4.8,2021-12-17 17:10:05.250000
2751,6.22,2021-12-17 17:10:05.265625
2752,9.0,2021-12-17 17:10:05.281250
2753,12.47,2021-12-17 17:10:05.296875
2754,15.65,2021-12-17 17:10:05.312500
2755,17.72,2021-12-17 17:10:05.328125
2756,18.34,2021-12-17 17:10:05.343750
2757,17.65,2021-12-17 17:10:05.359375
2758,16.09,2021-12-17 17:10:05.375000
2759,14.2,2021-12-17 17:10:05.390625
2760,12.34,2021-12-17 17:10:05.406250
2761,10.77,2021-12-17 17:10:05.421875
2762,9.55,2021-12-17 17:10:05.437500
2763,8.75,2021-12-17 17:10:05.453125
2764,8.29,2021-12-17 17:10:05.468750
2765,7.99,2021-12-17 17:10:05.484375
2766,7.58,2021-12-17 17:10:05.500000
2767,6.75,2021-12-17 17:10:05.515625
2768,5.37,2021-12-17 17:10:05.531250
2769,3.55,2021-12-17 17:10:05.546875
2770,1.65,2021-12-17 17:10:05.562500
2771,0.08,2021-12-17 17:10:05.578125
2772,-0.85,2021-12-17 17:10:05.593750
2773,-1.1,2021-12-17 17:10:05.609375
2774,-0.9,2021-12-17 17:10:05.625000
2775,-0.55,2021-12-17 17:10:05.640625
2776,-0.25,2021-12-17 17:10:05.656250
2777,-0.05,2021-12-17 17:10:05.671875
2778,0.17,2021-12-17 17:10:05.687500
2779,0.53,2021-12-17 17:10:05.703125
2780,0.99,2021-12-17 17:10:05.718750
2781,1.4,2021-12-17 17:10:05.734375
2782,1.52,2021-12-17 17:10:05.750000
2783,1.19,2021-12-17 17:10:05.765625
2784,0.46,2021-12-17 17:10:05.781250
2785,-0.52,2021-12-17 17:10:05.796875
2786,-1.56,2021-12-17 17:10:05.812500
2787,-2.52,2021-12-17 17:10:05.828125
2788,-3.41,2021-12-17 17:10:05.843750
2789,-4.27,2021-12-17 17:10:05.859375
2790,-5.15,2021-12-17 17:10:05.875000
2791,-5.96,2021-12-17 17:10:05.890625
2792,-6.53,2021-12-17 17:10:05.906250
2793,-6.59,2021-12-17 17:10:05.921875
2794,-5.85,2021-12-17 17:10:05.937500
2795,-4.09,2021-12-17 17:10:05.953125
2796,-1.25,2021-12-17 17:10:05.968750
2797,2.5,2021-12-17 17:10:05.984375
2798,6.73,2021-12-17 17:10:06.000000
2799,10.86,2021-12-17 17:10:06.015625
2800,14.36,2021-12-17 17:10:06.031250
2801,16.92,2021-12-17 17:10:06.046875
2802,18.5,2021-12-17 17:10:06.062500
2803,19.33,2021-12-17 17:10:06.078125
2804,19.67,2021-12-17 17:10:06.093750
2805,19.66,2021-12-17 17:10:06.109375
2806,19.23,2021-12-17 17:10:06.125000
2807,18.22,2021-12-17 17:10:06.140625
2808,16.45,2021-12-17 17:10:06.156250
2809,13.87,2021-12-17 17:10:06.171875
2810,10.44,2021-12-17 17:10:06.187500
2811,6.08,2021-12-17 17:10:06.203125
2812,0.67,2021-12-17 17:10:06.218750
2813,-5.84,2021-12-17 17:10:06.234375
2814,-13.22,2021-12-17 17:10:06.250000
2815,-20.89,2021-12-17 17:10:06.265625
2816,-27.98,2021-12-17 17:10:06.281250
2817,-33.61,2021-12-17 17:10:06.296875
2818,-37.2,2021-12-17 17:10:06.312500
2819,-38.66,2021-12-17 17:10:06.328125
2820,-38.31,2021-12-17 17:10:06.343750
2821,-36.67,2021-12-17 17:10:06.359375
2822,-34.26,2021-12-17 17:10:06.375000
2823,-31.43,2021-12-17 17:10:06.390625
2824,-28.38,2021-12-17 17:10:06.406250
2825,-25.24,2021-12-17 17:10:06.421875
2826,-22.15,2021-12-17 17:10:06.437500
2827,-19.22,2021-12-17 17:10:06.453125
2828,-16.52,2021-12-17 17:10:06.468750
2829,-13.97,2021-12-17 17:10:06.484375
2830,-11.39,2021-12-17 17:10:06.500000
2831,-8.54,2021-12-17 17:10:06.515625
2832,-5.22,2021-12-17 17:10:06.531250
2833,-1.39,2021-12-17 17:10:06.546875
2834,2.8,2021-12-17 17:10:06.562500
2835,7.0,2021-12-17 17:10:06.578125
2836,10.75,2021-12-17 17:10:06.593750
2837,13.6,2021-12-17 17:10:06.609375
2838,15.3,2021-12-17 17:10:06.625000
2839,15.81,2021-12-17 17:10:06.640625
2840,15.35,2021-12-17 17:10:06.656250
2841,14.28,2021-12-17 17:10:06.671875
2842,12.98,2021-12-17 17:10:06.687500
2843,11.71,2021-12-17 17:10:06.703125
2844,10.55,2021-12-17 17:10:06.718750
2845,9.45,2021-12-17 17:10:06.734375
2846,8.29,2021-12-17 17:10:06.750000
2847,7.0,2021-12-17 17:10:06.765625
2848,5.58,2021-12-17 17:10:06.781250
2849,4.13,2021-12-17 17:10:06.796875
2850,2.79,2021-12-17 17:10:06.812500
2851,1.71,2021-12-17 17:10:06.828125
2852,0.96,2021-12-17 17:10:06.843750
2853,0.47,2021-12-17 17:10:06.859375
2854,0.16,2021-12-17 17:10:06.875000
2855,-0.13,2021-12-17 17:10:06.890625
2856,-0.47,2021-12-17 17:10:06.906250
2857,-0.88,2021-12-17 17:10:06.921875
2858,-1.31,2021-12-17 17:10:06.937500
2859,-1.67,2021-12-17 17:10:06.953125
2860,-1.87,2021-12-17 17:10:06.968750
2861,-1.92,2021-12-17 17:10:06.984375
2862,-1.89,2021-12-17 17:10:07.000000
2863,-1.91,2021-12-17 17:10:07.015625
2864,-2.13,2021-12-17 17:10:07.031250
2865,-2.65,2021-12-17 17:10:07.046875
2866,-3.47,2021-12-17 17:10:07.062500
2867,-4.51,2021-12-17 17:10:07.078125
2868,-5.6,2021-12-17 17:10:07.093750
2869,-6.56,2021-12-17 17:10:07.109375
2870,-7.22,2021-12-17 17:10:07.125000
2871,-7.51,2021-12-17 17:10:07.140625
2872,-7.4,2021-12-17 17:10:07.156250
2873,-6.94,2021-12-17 17:10:07.171875
2874,-6.22,2021-12-17 17:10:07.187500
2875,-5.28,2021-12-17 17:10:07.203125
2876,-4.23,2021-12-17 17:10:07.218750
2877,-3.18,2021-12-17 17:10:07.234375
2878,-2.27,2021-12-17 17:10:07.250000
2879,-1.61,2021-12-17 17:10:07.265625
2880,-1.22,2021-12-17 17:10:07.281250
2881,-1.02,2021-12-17 17:10:07.296875
2882,-0.81,2021-12-17 17:10:07.312500
2883,-0.37,2021-12-17 17:10:07.328125
2884,0.45,2021-12-17 17:10:07.343750
2885,1.65,2021-12-17 17:10:07.359375
2886,3.07,2021-12-17 17:10:07.375000
2887,4.41,2021-12-17 17:10:07.390625
2888,5.43,2021-12-17 17:10:07.406250
2889,6.01,2021-12-17 17:10:07.421875
2890,6.26,2021-12-17 17:10:07.437500
2891,6.43,2021-12-17 17:10:07.453125
2892,6.86,2021-12-17 17:10:07.468750
2893,7.73,2021-12-17 17:10:07.484375
2894,8.98,2021-12-17 17:10:07.500000
2895,10.37,2021-12-17 17:10:07.515625
2896,11.54,2021-12-17 17:10:07.531250
2897,12.28,2021-12-17 17:10:07.546875
2898,12.55,2021-12-17 17:10:07.562500
2899,12.5,2021-12-17 17:10:07.578125
2900,12.31,2021-12-17 17:10:07.593750
2901,12.05,2021-12-17 17:10:07.609375
2902,11.67,2021-12-17 17:10:07.625000
2903,11.01,2021-12-17 17:10:07.640625
2904,9.97,2021-12-17 17:10:07.656250
2905,8.61,2021-12-17 17:10:07.671875
2906,7.18,2021-12-17 17:10:07.687500
2907,5.97,2021-12-17 17:10:07.703125
2908,5.2,2021-12-17 17:10:07.718750
2909,4.92,2021-12-17 17:10:07.734375
2910,4.95,2021-12-17 17:10:07.750000
2911,5.01,2021-12-17 17:10:07.765625
2912,4.86,2021-12-17 17:10:07.781250
2913,4.34,2021-12-17 17:10:07.796875
2914,3.49,2021-12-17 17:10:07.812500
2915,2.45,2021-12-17 17:10:07.828125
2916,1.49,2021-12-17 17:10:07.843750
2917,0.8,2021-12-17 17:10:07.859375
2918,0.55,2021-12-17 17:10:07.875000
2919,0.7,2021-12-17 17:10:07.890625
2920,1.13,2021-12-17 17:10:07.906250
2921,1.69,2021-12-17 17:10:07.921875
2922,2.23,2021-12-17 17:10:07.937500
2923,2.71,2021-12-17 17:10:07.953125
2924,3.15,2021-12-17 17:10:07.968750
2925,3.61,2021-12-17 17:10:07.984375
2926,4.09,2021-12-17 17:10:08.000000
2927,4.53,2021-12-17 17:10:08.015625
2928,4.81,2021-12-17 17:10:08.031250
2929,4.82,2021-12-17 17:10:08.046875
2930,4.57,2021-12-17 17:10:08.062500
2931,4.14,2021-12-17 17:10:08.078125
2932,3.64,2021-12-17 17:10:08.093750
2933,3.17,2021-12-17 17:10:08.109375
2934,2.78,2021-12-17 17:10:08.125000
2935,2.43,2021-12-17 17:10:08.140625
2936,2.13,2021-12-17 17:10:08.156250
2937,1.88,2021-12-17 17:10:08.171875
2938,1.76,2021-12-17 17:10:08.187500
2939,1.86,2021-12-17 17:10:08.203125
2940,2.22,2021-12-17 17:10:08.218750
2941,2.74,2021-12-17 17:10:08.234375
2942,3.25,2021-12-17 17:10:08.250000
2943,3.57,2021-12-17 17:10:08.265625
2944,3.59,2021-12-17 17:10:08.281250
2945,3.33,2021-12-17 17:10:08.296875
2946,2.9,2021-12-17 17:10:08.312500
2947,2.42,2021-12-17 17:10:08.328125
2948,1.97,2021-12-17 17:10:08.343750
2949,1.58,2021-12-17 17:10:08.359375
2950,1.24,2021-12-17 17:10:08.375000
2951,0.88,2021-12-17 17:10:08.390625
2952,0.48,2021-12-17 17:10:08.406250
2953,0.0,2021-12-17 17:10:08.421875
2954,-0.58,2021-12-17 17:10:08.437500
2955,-1.25,2021-12-17 17:10:08.453125
2956,-1.92,2021-12-17 17:10:08.468750
2957,-2.53,2021-12-17 17:10:08.484375
2958,-2.97,2021-12-17 17:10:08.500000
2959,-3.23,2021-12-17 17:10:08.515625
2960,-3.39,2021-12-17 17:10:08.531250
2961,-3.59,2021-12-17 17:10:08.546875
2962,-3.99,2021-12-17 17:10:08.562500
2963,-4.63,2021-12-17 17:10:08.578125
2964,-5.47,2021-12-17 17:10:08.593750
2965,-6.35,2021-12-17 17:10:08.609375
2966,-7.11,2021-12-17 17:10:08.625000
2967,-7.67,2021-12-17 17:10:08.640625
2968,-8.03,2021-12-17 17:10:08.656250
2969,-8.24,2021-12-17 17:10:08.671875
2970,-8.33,2021-12-17 17:10:08.687500
2971,-8.27,2021-12-17 17:10:08.703125
2972,-7.98,2021-12-17 17:10:08.718750
2973,-7.42,2021-12-17 17:10:08.734375
2974,-6.64,2021-12-17 17:10:08.750000
2975,-5.76,2021-12-17 17:10:08.765625
2976,-4.93,2021-12-17 17:10:08.781250
2977,-4.2,2021-12-17 17:10:08.796875
2978,-3.55,2021-12-17 17:10:08.812500
2979,-2.86,2021-12-17 17:10:08.828125
2980,-2.03,2021-12-17 17:10:08.843750
2981,-1.01,2021-12-17 17:10:08.859375
2982,0.12,2021-12-17 17:10:08.875000
2983,1.24,2021-12-17 17:10:08.890625
2984,2.22,2021-12-17 17:10:08.906250
2985,2.98,2021-12-17 17:10:08.921875
2986,3.47,2021-12-17 17:10:08.937500
2987,3.64,2021-12-17 17:10:08.953125
2988,3.55,2021-12-17 17:10:08.968750
2989,3.3,2021-12-17 17:10:08.984375
2990,3.06,2021-12-17 17:10:09.000000
2991,3.0,2021-12-17 17:10:09.015625
2992,3.21,2021-12-17 17:10:09.031250
2993,3.61,2021-12-17 17:10:09.046875
2994,4.02,2021-12-17 17:10:09.062500
2995,4.24,2021-12-17 17:10:09.078125
2996,4.17,2021-12-17 17:10:09.093750
2997,3.85,2021-12-17 17:10:09.109375
2998,3.4,2021-12-17 17:10:09.125000
2999,2.92,2021-12-17 17:10:09.140625
3000,2.46,2021-12-17 17:10:09.156250
3001,1.97,2021-12-17 17:10:09.171875
3002,1.44,2021-12-17 17:10:09.187500
3003,0.91,2021-12-17 17:10:09.203125
3004,0.46,2021-12-17 17:10:09.218750
3005,0.13,2021-12-17 17:10:09.234375
3006,-0.08,2021-12-17 17:10:09.250000
3007,-0.26,2021-12-17 17:10:09.265625
3008,-0.46,2021-12-17 17:10:09.281250
3009,-0.64,2021-12-17 17:10:09.296875
3010,-0.67,2021-12-17 17:10:09.312500
3011,-0.37,2021-12-17 17:10:09.328125
3012,0.3,2021-12-17 17:10:09.343750
3013,1.22,2021-12-17 17:10:09.359375
3014,2.1,2021-12-17 17:10:09.375000
3015,2.6,2021-12-17 17:10:09.390625
3016,2.49,2021-12-17 17:10:09.406250
3017,1.7,2021-12-17 17:10:09.421875
3018,0.34,2021-12-17 17:10:09.437500
3019,-1.38,2021-12-17 17:10:09.453125
3020,-3.19,2021-12-17 17:10:09.468750
3021,-4.86,2021-12-17 17:10:09.484375
3022,-6.19,2021-12-17 17:10:09.500000
3023,-7.04,2021-12-17 17:10:09.515625
3024,-7.36,2021-12-17 17:10:09.531250
3025,-7.2,2021-12-17 17:10:09.546875
3026,-6.67,2021-12-17 17:10:09.562500
3027,-5.89,2021-12-17 17:10:09.578125
3028,-4.97,2021-12-17 17:10:09.593750
3029,-3.99,2021-12-17 17:10:09.609375
3030,-3.02,2021-12-17 17:10:09.625000
3031,-2.1,2021-12-17 17:10:09.640625
3032,-1.32,2021-12-17 17:10:09.656250
3033,-0.68,2021-12-17 17:10:09.671875
3034,-0.16,2021-12-17 17:10:09.687500
3035,0.34,2021-12-17 17:10:09.703125
3036,0.92,2021-12-17 17:10:09.718750
3037,1.67,2021-12-17 17:10:09.734375
3038,2.58,2021-12-17 17:10:09.750000
3039,3.53,2021-12-17 17:10:09.765625
3040,4.4,2021-12-17 17:10:09.781250
3041,5.07,2021-12-17 17:10:09.796875
3042,5.46,2021-12-17 17:10:09.812500
3043,5.61,2021-12-17 17:10:09.828125
3044,5.64,2021-12-17 17:10:09.843750
3045,5.67,2021-12-17 17:10:09.859375
3046,5.81,2021-12-17 17:10:09.875000
3047,6.07,2021-12-17 17:10:09.890625
3048,6.38,2021-12-17 17:10:09.906250
3049,6.61,2021-12-17 17:10:09.921875
3050,6.68,2021-12-17 17:10:09.937500
3051,6.54,2021-12-17 17:10:09.953125
3052,6.21,2021-12-17 17:10:09.968750
3053,5.71,2021-12-17 17:10:09.984375
3054,5.07,2021-12-17 17:10:10.000000
3055,4.23,2021-12-17 17:10:10.015625
3056,3.23,2021-12-17 17:10:10.031250
3057,2.12,2021-12-17 17:10:10.046875
3058,1.06,2021-12-17 17:10:10.062500
3059,0.19,2021-12-17 17:10:10.078125
3060,-0.36,2021-12-17 17:10:10.093750
3061,-0.62,2021-12-17 17:10:10.109375
3062,-0.69,2021-12-17 17:10:10.125000
3063,-0.72,2021-12-17 17:10:10.140625
3064,-0.82,2021-12-17 17:10:10.156250
3065,-1.0,2021-12-17 17:10:10.171875
3066,-1.23,2021-12-17 17:10:10.187500
3067,-1.45,2021-12-17 17:10:10.203125
3068,-1.66,2021-12-17 17:10:10.218750
3069,-1.89,2021-12-17 17:10:10.234375
3070,-2.17,2021-12-17 17:10:10.250000
3071,-2.56,2021-12-17 17:10:10.265625
3072,-3.11,2021-12-17 17:10:10.281250
3073,-3.84,2021-12-17 17:10:10.296875
3074,-4.78,2021-12-17 17:10:10.312500
3075,-5.94,2021-12-17 17:10:10.328125
3076,-7.21,2021-12-17 17:10:10.343750
3077,-8.41,2021-12-17 17:10:10.359375
3078,-9.32,2021-12-17 17:10:10.375000
3079,-9.72,2021-12-17 17:10:10.390625
3080,-9.51,2021-12-17 17:10:10.406250
3081,-8.73,2021-12-17 17:10:10.421875
3082,-7.56,2021-12-17 17:10:10.437500
3083,-6.25,2021-12-17 17:10:10.453125
3084,-5.02,2021-12-17 17:10:10.468750
3085,-3.95,2021-12-17 17:10:10.484375
3086,-3.01,2021-12-17 17:10:10.500000
3087,-2.07,2021-12-17 17:10:10.515625
3088,-1.03,2021-12-17 17:10:10.531250
3089,0.16,2021-12-17 17:10:10.546875
3090,1.48,2021-12-17 17:10:10.562500
3091,2.83,2021-12-17 17:10:10.578125
3092,4.16,2021-12-17 17:10:10.593750
3093,5.41,2021-12-17 17:10:10.609375
3094,6.53,2021-12-17 17:10:10.625000
3095,7.48,2021-12-17 17:10:10.640625
3096,8.16,2021-12-17 17:10:10.656250
3097,8.51,2021-12-17 17:10:10.671875
3098,8.51,2021-12-17 17:10:10.687500
3099,8.25,2021-12-17 17:10:10.703125
3100,7.91,2021-12-17 17:10:10.718750
3101,7.66,2021-12-17 17:10:10.734375
3102,7.62,2021-12-17 17:10:10.750000
3103,7.76,2021-12-17 17:10:10.765625
3104,8.02,2021-12-17 17:10:10.781250
3105,8.28,2021-12-17 17:10:10.796875
3106,8.46,2021-12-17 17:10:10.812500
3107,8.54,2021-12-17 17:10:10.828125
3108,8.51,2021-12-17 17:10:10.843750
3109,8.35,2021-12-17 17:10:10.859375
3110,8.02,2021-12-17 17:10:10.875000
3111,7.49,2021-12-17 17:10:10.890625
3112,6.75,2021-12-17 17:10:10.906250
3113,5.81,2021-12-17 17:10:10.921875
3114,4.77,2021-12-17 17:10:10.937500
3115,3.72,2021-12-17 17:10:10.953125
3116,2.76,2021-12-17 17:10:10.968750
3117,1.93,2021-12-17 17:10:10.984375
3118,1.24,2021-12-17 17:10:11.000000
3119,0.63,2021-12-17 17:10:11.015625
3120,0.03,2021-12-17 17:10:11.031250
3121,-0.63,2021-12-17 17:10:11.046875
3122,-1.39,2021-12-17 17:10:11.062500
3123,-2.23,2021-12-17 17:10:11.078125
3124,-3.06,2021-12-17 17:10:11.093750
3125,-3.76,2021-12-17 17:10:11.109375
3126,-4.21,2021-12-17 17:10:11.125000
3127,-4.34,2021-12-17 17:10:11.140625
3128,-4.2,2021-12-17 17:10:11.156250
3129,-3.9,2021-12-17 17:10:11.171875
3130,-3.59,2021-12-17 17:10:11.187500
3131,-3.39,2021-12-17 17:10:11.203125
3132,-3.4,2021-12-17 17:10:11.218750
3133,-3.65,2021-12-17 17:10:11.234375
3134,-4.12,2021-12-17 17:10:11.250000
3135,-4.73,2021-12-17 17:10:11.265625
3136,-5.38,2021-12-17 17:10:11.281250
3137,-5.91,2021-12-17 17:10:11.296875
3138,-6.2,2021-12-17 17:10:11.312500
3139,-6.13,2021-12-17 17:10:11.328125
3140,-5.69,2021-12-17 17:10:11.343750
3141,-4.94,2021-12-17 17:10:11.359375
3142,-4.0,2021-12-17 17:10:11.375000
3143,-2.97,2021-12-17 17:10:11.390625
3144,-1.91,2021-12-17 17:10:11.406250
3145,-0.76,2021-12-17 17:10:11.421875
3146,0.57,2021-12-17 17:10:11.437500
3147,2.17,2021-12-17 17:10:11.453125
3148,4.01,2021-12-17 17:10:11.468750
3149,5.99,2021-12-17 17:10:11.484375
3150,7.96,2021-12-17 17:10:11.500000
3151,9.77,2021-12-17 17:10:11.515625
3152,11.32,2021-12-17 17:10:11.531250
3153,12.57,2021-12-17 17:10:11.546875
3154,13.5,2021-12-17 17:10:11.562500
3155,14.09,2021-12-17 17:10:11.578125
3156,14.29,2021-12-17 17:10:11.593750
3157,14.07,2021-12-17 17:10:11.609375
3158,13.4,2021-12-17 17:10:11.625000
3159,12.33,2021-12-17 17:10:11.640625
3160,11.01,2021-12-17 17:10:11.656250
3161,9.6,2021-12-17 17:10:11.671875
3162,8.27,2021-12-17 17:10:11.687500
3163,7.11,2021-12-17 17:10:11.703125
3164,6.14,2021-12-17 17:10:11.718750
3165,5.28,2021-12-17 17:10:11.734375
3166,4.43,2021-12-17 17:10:11.750000
3167,3.5,2021-12-17 17:10:11.765625
3168,2.51,2021-12-17 17:10:11.781250
3169,1.52,2021-12-17 17:10:11.796875
3170,0.63,2021-12-17 17:10:11.812500
3171,-0.09,2021-12-17 17:10:11.828125
3172,-0.6,2021-12-17 17:10:11.843750
3173,-0.93,2021-12-17 17:10:11.859375
3174,-1.17,2021-12-17 17:10:11.875000
3175,-1.38,2021-12-17 17:10:11.890625
3176,-1.59,2021-12-17 17:10:11.906250
3177,-1.83,2021-12-17 17:10:11.921875
3178,-2.08,2021-12-17 17:10:11.937500
3179,-2.31,2021-12-17 17:10:11.953125
3180,-2.54,2021-12-17 17:10:11.968750
3181,-2.81,2021-12-17 17:10:11.984375
3182,-3.2,2021-12-17 17:10:12.000000
3183,-3.76,2021-12-17 17:10:12.015625
3184,-4.53,2021-12-17 17:10:12.031250
3185,-5.52,2021-12-17 17:10:12.046875
3186,-6.68,2021-12-17 17:10:12.062500
3187,-7.93,2021-12-17 17:10:12.078125
3188,-9.16,2021-12-17 17:10:12.093750
3189,-10.26,2021-12-17 17:10:12.109375
3190,-11.12,2021-12-17 17:10:12.125000
3191,-11.68,2021-12-17 17:10:12.140625
3192,-11.96,2021-12-17 17:10:12.156250
3193,-11.96,2021-12-17 17:10:12.171875
3194,-11.69,2021-12-17 17:10:12.187500
3195,-11.16,2021-12-17 17:10:12.203125
3196,-10.38,2021-12-17 17:10:12.218750
3197,-9.41,2021-12-17 17:10:12.234375
3198,-8.36,2021-12-17 17:10:12.250000
3199,-7.38,2021-12-17 17:10:12.265625
3200,-6.56,2021-12-17 17:10:12.281250
3201,-5.91,2021-12-17 17:10:12.296875
3202,-5.28,2021-12-17 17:10:12.312500
3203,-4.5,2021-12-17 17:10:12.328125
3204,-3.43,2021-12-17 17:10:12.343750
3205,-2.1,2021-12-17 17:10:12.359375
3206,-0.7,2021-12-17 17:10:12.375000
3207,0.5,2021-12-17 17:10:12.390625
3208,1.3,2021-12-17 17:10:12.406250
3209,1.67,2021-12-17 17:10:12.421875
3210,1.74,2021-12-17 17:10:12.437500
3211,1.75,2021-12-17 17:10:12.453125
