,BVP,time
0,-42.62,2021-12-17 16:32:22.281250
1,-59.94,2021-12-17 16:32:22.296875
2,-76.43,2021-12-17 16:32:22.312500
3,-90.63,2021-12-17 16:32:22.328125
4,-101.51,2021-12-17 16:32:22.343750
5,-108.31,2021-12-17 16:32:22.359375
6,-110.26,2021-12-17 16:32:22.375000
7,-106.65,2021-12-17 16:32:22.390625
8,-97.17,2021-12-17 16:32:22.406250
9,-82.43,2021-12-17 16:32:22.421875
10,-64.27,2021-12-17 16:32:22.437500
11,-45.24,2021-12-17 16:32:22.453125
12,-27.56,2021-12-17 16:32:22.468750
13,-12.1,2021-12-17 16:32:22.484375
14,1.85,2021-12-17 16:32:22.500000
15,15.6,2021-12-17 16:32:22.515625
16,29.83,2021-12-17 16:32:22.531250
17,43.76,2021-12-17 16:32:22.546875
18,55.75,2021-12-17 16:32:22.562500
19,64.48,2021-12-17 16:32:22.578125
20,70.16,2021-12-17 16:32:22.593750
21,74.42,2021-12-17 16:32:22.609375
22,78.92,2021-12-17 16:32:22.625000
23,83.66,2021-12-17 16:32:22.640625
24,86.5,2021-12-17 16:32:22.656250
25,84.47,2021-12-17 16:32:22.671875
26,76.11,2021-12-17 16:32:22.687500
27,63.24,2021-12-17 16:32:22.703125
28,50.69,2021-12-17 16:32:22.718750
29,44.08,2021-12-17 16:32:22.734375
30,46.8,2021-12-17 16:32:22.750000
31,58.2,2021-12-17 16:32:22.765625
32,73.81,2021-12-17 16:32:22.781250
33,87.43,2021-12-17 16:32:22.796875
34,93.75,2021-12-17 16:32:22.812500
35,90.13,2021-12-17 16:32:22.828125
36,76.84,2021-12-17 16:32:22.843750
37,56.27,2021-12-17 16:32:22.859375
38,31.69,2021-12-17 16:32:22.875000
39,6.39,2021-12-17 16:32:22.890625
40,-16.74,2021-12-17 16:32:22.906250
41,-35.35,2021-12-17 16:32:22.921875
42,-47.77,2021-12-17 16:32:22.937500
43,-53.39,2021-12-17 16:32:22.953125
44,-53.02,2021-12-17 16:32:22.968750
45,-48.94,2021-12-17 16:32:22.984375
46,-44.44,2021-12-17 16:32:23.000000
47,-42.78,2021-12-17 16:32:23.015625
48,-46.0,2021-12-17 16:32:23.031250
49,-53.84,2021-12-17 16:32:23.046875
50,-63.46,2021-12-17 16:32:23.062500
51,-70.31,2021-12-17 16:32:23.078125
52,-69.97,2021-12-17 16:32:23.093750
53,-60.29,2021-12-17 16:32:23.109375
54,-42.78,2021-12-17 16:32:23.125000
55,-22.41,2021-12-17 16:32:23.140625
56,-5.62,2021-12-17 16:32:23.156250
57,2.58,2021-12-17 16:32:23.171875
58,1.18,2021-12-17 16:32:23.187500
59,-6.14,2021-12-17 16:32:23.203125
60,-12.43,2021-12-17 16:32:23.218750
61,-10.68,2021-12-17 16:32:23.234375
62,2.96,2021-12-17 16:32:23.250000
63,27.3,2021-12-17 16:32:23.265625
64,56.59,2021-12-17 16:32:23.281250
65,83.0,2021-12-17 16:32:23.296875
66,99.76,2021-12-17 16:32:23.312500
67,103.69,2021-12-17 16:32:23.328125
68,95.88,2021-12-17 16:32:23.343750
69,80.61,2021-12-17 16:32:23.359375
70,63.09,2021-12-17 16:32:23.375000
71,47.53,2021-12-17 16:32:23.390625
72,36.2,2021-12-17 16:32:23.406250
73,29.8,2021-12-17 16:32:23.421875
74,28.38,2021-12-17 16:32:23.437500
75,31.99,2021-12-17 16:32:23.453125
76,40.58,2021-12-17 16:32:23.468750
77,53.2,2021-12-17 16:32:23.484375
78,67.42,2021-12-17 16:32:23.500000
79,79.5,2021-12-17 16:32:23.515625
80,85.53,2021-12-17 16:32:23.531250
81,83.05,2021-12-17 16:32:23.546875
82,72.21,2021-12-17 16:32:23.562500
83,55.74,2021-12-17 16:32:23.578125
84,37.69,2021-12-17 16:32:23.593750
85,21.69,2021-12-17 16:32:23.609375
86,9.41,2021-12-17 16:32:23.625000
87,0.15,2021-12-17 16:32:23.640625
88,-8.75,2021-12-17 16:32:23.656250
89,-20.67,2021-12-17 16:32:23.671875
90,-38.32,2021-12-17 16:32:23.687500
91,-62.58,2021-12-17 16:32:23.703125
92,-91.84,2021-12-17 16:32:23.718750
93,-122.25,2021-12-17 16:32:23.734375
94,-148.73,2021-12-17 16:32:23.750000
95,-166.63,2021-12-17 16:32:23.765625
96,-173.29,2021-12-17 16:32:23.781250
97,-168.91,2021-12-17 16:32:23.796875
98,-156.18,2021-12-17 16:32:23.812500
99,-138.96,2021-12-17 16:32:23.828125
100,-120.88,2021-12-17 16:32:23.843750
101,-104.34,2021-12-17 16:32:23.859375
102,-90.58,2021-12-17 16:32:23.875000
103,-80.23,2021-12-17 16:32:23.890625
104,-73.97,2021-12-17 16:32:23.906250
105,-72.56,2021-12-17 16:32:23.921875
106,-76.33,2021-12-17 16:32:23.937500
107,-84.66,2021-12-17 16:32:23.953125
108,-95.79,2021-12-17 16:32:23.968750
109,-107.41,2021-12-17 16:32:23.984375
110,-117.59,2021-12-17 16:32:24.000000
111,-125.32,2021-12-17 16:32:24.015625
112,-130.66,2021-12-17 16:32:24.031250
113,-134.18,2021-12-17 16:32:24.046875
114,-136.3,2021-12-17 16:32:24.062500
115,-136.86,2021-12-17 16:32:24.078125
116,-135.12,2021-12-17 16:32:24.093750
117,-130.15,2021-12-17 16:32:24.109375
118,-121.42,2021-12-17 16:32:24.125000
119,-109.14,2021-12-17 16:32:24.140625
120,-94.41,2021-12-17 16:32:24.156250
121,-78.98,2021-12-17 16:32:24.171875
122,-64.75,2021-12-17 16:32:24.187500
123,-53.24,2021-12-17 16:32:24.203125
124,-45.15,2021-12-17 16:32:24.218750
125,-40.21,2021-12-17 16:32:24.234375
126,-37.43,2021-12-17 16:32:24.250000
127,-35.55,2021-12-17 16:32:24.265625
128,-33.6,2021-12-17 16:32:24.281250
129,-31.16,2021-12-17 16:32:24.296875
130,-28.3,2021-12-17 16:32:24.312500
131,-25.25,2021-12-17 16:32:24.328125
132,-21.99,2021-12-17 16:32:24.343750
133,-18.09,2021-12-17 16:32:24.359375
134,-12.91,2021-12-17 16:32:24.375000
135,-5.98,2021-12-17 16:32:24.390625
136,2.74,2021-12-17 16:32:24.406250
137,12.83,2021-12-17 16:32:24.421875
138,23.48,2021-12-17 16:32:24.437500
139,33.71,2021-12-17 16:32:24.453125
140,42.52,2021-12-17 16:32:24.468750
141,48.97,2021-12-17 16:32:24.484375
142,52.38,2021-12-17 16:32:24.500000
143,52.48,2021-12-17 16:32:24.515625
144,49.69,2021-12-17 16:32:24.531250
145,45.13,2021-12-17 16:32:24.546875
146,40.23,2021-12-17 16:32:24.562500
147,36.23,2021-12-17 16:32:24.578125
148,33.5,2021-12-17 16:32:24.593750
149,31.5,2021-12-17 16:32:24.609375
150,29.1,2021-12-17 16:32:24.625000
151,25.45,2021-12-17 16:32:24.640625
152,20.52,2021-12-17 16:32:24.656250
153,15.31,2021-12-17 16:32:24.671875
154,11.27,2021-12-17 16:32:24.687500
155,9.42,2021-12-17 16:32:24.703125
156,9.91,2021-12-17 16:32:24.718750
157,11.87,2021-12-17 16:32:24.734375
158,14.1,2021-12-17 16:32:24.750000
159,15.6,2021-12-17 16:32:24.765625
160,16.06,2021-12-17 16:32:24.781250
161,15.64,2021-12-17 16:32:24.796875
162,14.68,2021-12-17 16:32:24.812500
163,13.25,2021-12-17 16:32:24.828125
164,11.19,2021-12-17 16:32:24.843750
165,8.46,2021-12-17 16:32:24.859375
166,5.47,2021-12-17 16:32:24.875000
167,3.2,2021-12-17 16:32:24.890625
168,2.86,2021-12-17 16:32:24.906250
169,5.24,2021-12-17 16:32:24.921875
170,10.14,2021-12-17 16:32:24.937500
171,15.94,2021-12-17 16:32:24.953125
172,20.03,2021-12-17 16:32:24.968750
173,19.59,2021-12-17 16:32:24.984375
174,12.72,2021-12-17 16:32:25.000000
175,-0.58,2021-12-17 16:32:25.015625
176,-18.04,2021-12-17 16:32:25.031250
177,-35.59,2021-12-17 16:32:25.046875
178,-48.57,2021-12-17 16:32:25.062500
179,-53.25,2021-12-17 16:32:25.078125
180,-48.13,2021-12-17 16:32:25.093750
181,-34.34,2021-12-17 16:32:25.109375
182,-15.44,2021-12-17 16:32:25.125000
183,3.63,2021-12-17 16:32:25.140625
184,17.8,2021-12-17 16:32:25.156250
185,23.17,2021-12-17 16:32:25.171875
186,18.14,2021-12-17 16:32:25.187500
187,3.94,2021-12-17 16:32:25.203125
188,-15.55,2021-12-17 16:32:25.218750
189,-35.01,2021-12-17 16:32:25.234375
190,-49.38,2021-12-17 16:32:25.250000
191,-55.79,2021-12-17 16:32:25.265625
192,-54.49,2021-12-17 16:32:25.281250
193,-48.62,2021-12-17 16:32:25.296875
194,-42.58,2021-12-17 16:32:25.312500
195,-39.97,2021-12-17 16:32:25.328125
196,-42.08,2021-12-17 16:32:25.343750
197,-47.75,2021-12-17 16:32:25.359375
198,-54.29,2021-12-17 16:32:25.375000
199,-59.2,2021-12-17 16:32:25.390625
200,-61.41,2021-12-17 16:32:25.406250
201,-61.7,2021-12-17 16:32:25.421875
202,-62.05,2021-12-17 16:32:25.437500
203,-64.9,2021-12-17 16:32:25.453125
204,-72.19,2021-12-17 16:32:25.468750
205,-84.81,2021-12-17 16:32:25.484375
206,-102.3,2021-12-17 16:32:25.500000
207,-122.74,2021-12-17 16:32:25.515625
208,-143.07,2021-12-17 16:32:25.531250
209,-159.72,2021-12-17 16:32:25.546875
210,-169.56,2021-12-17 16:32:25.562500
211,-170.98,2021-12-17 16:32:25.578125
212,-164.36,2021-12-17 16:32:25.593750
213,-151.85,2021-12-17 16:32:25.609375
214,-136.49,2021-12-17 16:32:25.625000
215,-120.99,2021-12-17 16:32:25.640625
216,-106.94,2021-12-17 16:32:25.656250
217,-94.63,2021-12-17 16:32:25.671875
218,-83.41,2021-12-17 16:32:25.687500
219,-72.19,2021-12-17 16:32:25.703125
220,-59.67,2021-12-17 16:32:25.718750
221,-44.46,2021-12-17 16:32:25.734375
222,-25.2,2021-12-17 16:32:25.750000
223,-1.14,2021-12-17 16:32:25.765625
224,27.11,2021-12-17 16:32:25.781250
225,57.02,2021-12-17 16:32:25.796875
226,84.46,2021-12-17 16:32:25.812500
227,104.92,2021-12-17 16:32:25.828125
228,115.11,2021-12-17 16:32:25.843750
229,114.23,2021-12-17 16:32:25.859375
230,104.18,2021-12-17 16:32:25.875000
231,88.71,2021-12-17 16:32:25.890625
232,71.92,2021-12-17 16:32:25.906250
233,56.99,2021-12-17 16:32:25.921875
234,45.6,2021-12-17 16:32:25.937500
235,38.07,2021-12-17 16:32:25.953125
236,34.03,2021-12-17 16:32:25.968750
237,32.86,2021-12-17 16:32:25.984375
238,33.93,2021-12-17 16:32:26.000000
239,36.56,2021-12-17 16:32:26.015625
240,39.89,2021-12-17 16:32:26.031250
241,42.95,2021-12-17 16:32:26.046875
242,44.89,2021-12-17 16:32:26.062500
243,45.2,2021-12-17 16:32:26.078125
244,43.84,2021-12-17 16:32:26.093750
245,41.23,2021-12-17 16:32:26.109375
246,38.09,2021-12-17 16:32:26.125000
247,35.14,2021-12-17 16:32:26.140625
248,32.81,2021-12-17 16:32:26.156250
249,31.02,2021-12-17 16:32:26.171875
250,29.25,2021-12-17 16:32:26.187500
251,26.76,2021-12-17 16:32:26.203125
252,23.15,2021-12-17 16:32:26.218750
253,18.72,2021-12-17 16:32:26.234375
254,14.51,2021-12-17 16:32:26.250000
255,11.87,2021-12-17 16:32:26.265625
256,11.75,2021-12-17 16:32:26.281250
257,14.19,2021-12-17 16:32:26.296875
258,18.19,2021-12-17 16:32:26.312500
259,22.29,2021-12-17 16:32:26.328125
260,25.22,2021-12-17 16:32:26.343750
261,26.39,2021-12-17 16:32:26.359375
262,25.95,2021-12-17 16:32:26.375000
263,24.2,2021-12-17 16:32:26.390625
264,21.17,2021-12-17 16:32:26.406250
265,16.48,2021-12-17 16:32:26.421875
266,9.77,2021-12-17 16:32:26.437500
267,1.32,2021-12-17 16:32:26.453125
268,-7.57,2021-12-17 16:32:26.468750
269,-14.89,2021-12-17 16:32:26.484375
270,-18.71,2021-12-17 16:32:26.500000
271,-18.14,2021-12-17 16:32:26.515625
272,-13.93,2021-12-17 16:32:26.531250
273,-8.2,2021-12-17 16:32:26.546875
274,-3.53,2021-12-17 16:32:26.562500
275,-1.71,2021-12-17 16:32:26.578125
276,-2.99,2021-12-17 16:32:26.593750
277,-6.09,2021-12-17 16:32:26.609375
278,-8.91,2021-12-17 16:32:26.625000
279,-9.93,2021-12-17 16:32:26.640625
280,-8.81,2021-12-17 16:32:26.656250
281,-6.91,2021-12-17 16:32:26.671875
282,-6.67,2021-12-17 16:32:26.687500
283,-10.41,2021-12-17 16:32:26.703125
284,-19.38,2021-12-17 16:32:26.718750
285,-32.93,2021-12-17 16:32:26.734375
286,-48.59,2021-12-17 16:32:26.750000
287,-62.62,2021-12-17 16:32:26.765625
288,-71.33,2021-12-17 16:32:26.781250
289,-72.16,2021-12-17 16:32:26.796875
290,-64.96,2021-12-17 16:32:26.812500
291,-52.33,2021-12-17 16:32:26.828125
292,-38.98,2021-12-17 16:32:26.843750
293,-30.28,2021-12-17 16:32:26.859375
294,-30.47,2021-12-17 16:32:26.875000
295,-41.53,2021-12-17 16:32:26.890625
296,-62.88,2021-12-17 16:32:26.906250
297,-91.79,2021-12-17 16:32:26.921875
298,-124.11,2021-12-17 16:32:26.937500
299,-154.97,2021-12-17 16:32:26.953125
300,-179.3,2021-12-17 16:32:26.968750
301,-192.62,2021-12-17 16:32:26.984375
302,-191.82,2021-12-17 16:32:27.000000
303,-176.04,2021-12-17 16:32:27.015625
304,-147.07,2021-12-17 16:32:27.031250
305,-108.85,2021-12-17 16:32:27.046875
306,-66.33,2021-12-17 16:32:27.062500
307,-24.14,2021-12-17 16:32:27.078125
308,14.06,2021-12-17 16:32:27.093750
309,45.47,2021-12-17 16:32:27.109375
310,67.78,2021-12-17 16:32:27.125000
311,78.58,2021-12-17 16:32:27.140625
312,76.43,2021-12-17 16:32:27.156250
313,61.86,2021-12-17 16:32:27.171875
314,38.31,2021-12-17 16:32:27.187500
315,11.98,2021-12-17 16:32:27.203125
316,-9.85,2021-12-17 16:32:27.218750
317,-21.48,2021-12-17 16:32:27.234375
318,-21.33,2021-12-17 16:32:27.250000
319,-13.12,2021-12-17 16:32:27.265625
320,-5.05,2021-12-17 16:32:27.281250
321,-6.19,2021-12-17 16:32:27.296875
322,-22.08,2021-12-17 16:32:27.312500
323,-51.42,2021-12-17 16:32:27.328125
324,-85.72,2021-12-17 16:32:27.343750
325,-111.95,2021-12-17 16:32:27.359375
326,-117.66,2021-12-17 16:32:27.375000
327,-95.95,2021-12-17 16:32:27.390625
328,-48.24,2021-12-17 16:32:27.406250
329,15.96,2021-12-17 16:32:27.421875
330,82.3,2021-12-17 16:32:27.437500
331,135.92,2021-12-17 16:32:27.453125
332,166.15,2021-12-17 16:32:27.468750
333,169.6,2021-12-17 16:32:27.484375
334,150.69,2021-12-17 16:32:27.500000
335,119.24,2021-12-17 16:32:27.515625
336,86.05,2021-12-17 16:32:27.531250
337,58.33,2021-12-17 16:32:27.546875
338,37.48,2021-12-17 16:32:27.562500
339,20.2,2021-12-17 16:32:27.578125
340,2.19,2021-12-17 16:32:27.593750
341,-17.91,2021-12-17 16:32:27.609375
342,-37.29,2021-12-17 16:32:27.625000
343,-51.08,2021-12-17 16:32:27.640625
344,-56.19,2021-12-17 16:32:27.656250
345,-53.59,2021-12-17 16:32:27.671875
346,-47.59,2021-12-17 16:32:27.687500
347,-42.52,2021-12-17 16:32:27.703125
348,-39.35,2021-12-17 16:32:27.718750
349,-35.07,2021-12-17 16:32:27.734375
350,-25.04,2021-12-17 16:32:27.750000
351,-6.55,2021-12-17 16:32:27.765625
352,18.55,2021-12-17 16:32:27.781250
353,44.48,2021-12-17 16:32:27.796875
354,64.4,2021-12-17 16:32:27.812500
355,73.78,2021-12-17 16:32:27.828125
356,72.05,2021-12-17 16:32:27.843750
357,62.31,2021-12-17 16:32:27.859375
358,49.51,2021-12-17 16:32:27.875000
359,38.38,2021-12-17 16:32:27.890625
360,31.98,2021-12-17 16:32:27.906250
361,31.21,2021-12-17 16:32:27.921875
362,35.17,2021-12-17 16:32:27.937500
363,41.95,2021-12-17 16:32:27.953125
364,49.38,2021-12-17 16:32:27.968750
365,55.95,2021-12-17 16:32:27.984375
366,61.17,2021-12-17 16:32:28.000000
367,65.4,2021-12-17 16:32:28.015625
368,69.44,2021-12-17 16:32:28.031250
369,73.87,2021-12-17 16:32:28.046875
370,78.86,2021-12-17 16:32:28.062500
371,84.19,2021-12-17 16:32:28.078125
372,89.54,2021-12-17 16:32:28.093750
373,94.63,2021-12-17 16:32:28.109375
374,99.31,2021-12-17 16:32:28.125000
375,103.4,2021-12-17 16:32:28.140625
376,106.64,2021-12-17 16:32:28.156250
377,108.75,2021-12-17 16:32:28.171875
378,109.5,2021-12-17 16:32:28.187500
379,108.96,2021-12-17 16:32:28.203125
380,107.4,2021-12-17 16:32:28.218750
381,105.16,2021-12-17 16:32:28.234375
382,102.45,2021-12-17 16:32:28.250000
383,99.25,2021-12-17 16:32:28.265625
384,95.47,2021-12-17 16:32:28.281250
385,91.19,2021-12-17 16:32:28.296875
386,86.85,2021-12-17 16:32:28.312500
387,83.13,2021-12-17 16:32:28.328125
388,80.63,2021-12-17 16:32:28.343750
389,79.43,2021-12-17 16:32:28.359375
390,78.82,2021-12-17 16:32:28.375000
391,77.42,2021-12-17 16:32:28.390625
392,73.65,2021-12-17 16:32:28.406250
393,66.44,2021-12-17 16:32:28.421875
394,55.56,2021-12-17 16:32:28.437500
395,41.55,2021-12-17 16:32:28.453125
396,25.29,2021-12-17 16:32:28.468750
397,7.46,2021-12-17 16:32:28.484375
398,-11.7,2021-12-17 16:32:28.500000
399,-32.23,2021-12-17 16:32:28.515625
400,-53.97,2021-12-17 16:32:28.531250
401,-76.21,2021-12-17 16:32:28.546875
402,-97.49,2021-12-17 16:32:28.562500
403,-115.9,2021-12-17 16:32:28.578125
404,-129.55,2021-12-17 16:32:28.593750
405,-137.1,2021-12-17 16:32:28.609375
406,-138.01,2021-12-17 16:32:28.625000
407,-132.6,2021-12-17 16:32:28.640625
408,-121.85,2021-12-17 16:32:28.656250
409,-107.13,2021-12-17 16:32:28.671875
410,-89.95,2021-12-17 16:32:28.687500
411,-71.85,2021-12-17 16:32:28.703125
412,-54.22,2021-12-17 16:32:28.718750
413,-38.24,2021-12-17 16:32:28.734375
414,-24.76,2021-12-17 16:32:28.750000
415,-14.12,2021-12-17 16:32:28.765625
416,-6.24,2021-12-17 16:32:28.781250
417,-0.59,2021-12-17 16:32:28.796875
418,3.7,2021-12-17 16:32:28.812500
419,7.61,2021-12-17 16:32:28.828125
420,11.91,2021-12-17 16:32:28.843750
421,16.99,2021-12-17 16:32:28.859375
422,22.68,2021-12-17 16:32:28.875000
423,28.43,2021-12-17 16:32:28.890625
424,33.41,2021-12-17 16:32:28.906250
425,36.97,2021-12-17 16:32:28.921875
426,38.79,2021-12-17 16:32:28.937500
427,39.03,2021-12-17 16:32:28.953125
428,38.24,2021-12-17 16:32:28.968750
429,37.14,2021-12-17 16:32:28.984375
430,36.37,2021-12-17 16:32:29.000000
431,36.26,2021-12-17 16:32:29.015625
432,36.85,2021-12-17 16:32:29.031250
433,37.87,2021-12-17 16:32:29.046875
434,38.96,2021-12-17 16:32:29.062500
435,39.73,2021-12-17 16:32:29.078125
436,39.83,2021-12-17 16:32:29.093750
437,39.02,2021-12-17 16:32:29.109375
438,37.15,2021-12-17 16:32:29.125000
439,34.29,2021-12-17 16:32:29.140625
440,30.73,2021-12-17 16:32:29.156250
441,27.0,2021-12-17 16:32:29.171875
442,23.71,2021-12-17 16:32:29.187500
443,21.3,2021-12-17 16:32:29.203125
444,19.86,2021-12-17 16:32:29.218750
445,19.09,2021-12-17 16:32:29.234375
446,18.43,2021-12-17 16:32:29.250000
447,17.31,2021-12-17 16:32:29.265625
448,15.4,2021-12-17 16:32:29.281250
449,12.68,2021-12-17 16:32:29.296875
450,9.38,2021-12-17 16:32:29.312500
451,5.82,2021-12-17 16:32:29.328125
452,2.25,2021-12-17 16:32:29.343750
453,-1.27,2021-12-17 16:32:29.359375
454,-4.83,2021-12-17 16:32:29.375000
455,-8.63,2021-12-17 16:32:29.390625
456,-12.85,2021-12-17 16:32:29.406250
457,-17.64,2021-12-17 16:32:29.421875
458,-23.01,2021-12-17 16:32:29.437500
459,-28.7,2021-12-17 16:32:29.453125
460,-34.27,2021-12-17 16:32:29.468750
461,-39.0,2021-12-17 16:32:29.484375
462,-42.07,2021-12-17 16:32:29.500000
463,-42.79,2021-12-17 16:32:29.515625
464,-40.75,2021-12-17 16:32:29.531250
465,-35.99,2021-12-17 16:32:29.546875
466,-29.02,2021-12-17 16:32:29.562500
467,-20.61,2021-12-17 16:32:29.578125
468,-11.69,2021-12-17 16:32:29.593750
469,-3.03,2021-12-17 16:32:29.609375
470,4.85,2021-12-17 16:32:29.625000
471,11.77,2021-12-17 16:32:29.640625
472,17.75,2021-12-17 16:32:29.656250
473,22.96,2021-12-17 16:32:29.671875
474,27.52,2021-12-17 16:32:29.687500
475,31.47,2021-12-17 16:32:29.703125
476,34.76,2021-12-17 16:32:29.718750
477,37.35,2021-12-17 16:32:29.734375
478,39.22,2021-12-17 16:32:29.750000
479,40.45,2021-12-17 16:32:29.765625
480,41.16,2021-12-17 16:32:29.781250
481,41.45,2021-12-17 16:32:29.796875
482,41.43,2021-12-17 16:32:29.812500
483,41.25,2021-12-17 16:32:29.828125
484,41.09,2021-12-17 16:32:29.843750
485,41.16,2021-12-17 16:32:29.859375
486,41.57,2021-12-17 16:32:29.875000
487,42.29,2021-12-17 16:32:29.890625
488,43.13,2021-12-17 16:32:29.906250
489,43.84,2021-12-17 16:32:29.921875
490,44.25,2021-12-17 16:32:29.937500
491,44.29,2021-12-17 16:32:29.953125
492,44.03,2021-12-17 16:32:29.968750
493,43.61,2021-12-17 16:32:29.984375
494,43.02,2021-12-17 16:32:30.000000
495,42.17,2021-12-17 16:32:30.015625
496,40.87,2021-12-17 16:32:30.031250
497,39.04,2021-12-17 16:32:30.046875
498,36.69,2021-12-17 16:32:30.062500
499,34.03,2021-12-17 16:32:30.078125
500,31.27,2021-12-17 16:32:30.093750
501,28.57,2021-12-17 16:32:30.109375
502,25.89,2021-12-17 16:32:30.125000
503,23.06,2021-12-17 16:32:30.140625
504,19.9,2021-12-17 16:32:30.156250
505,16.29,2021-12-17 16:32:30.171875
506,12.34,2021-12-17 16:32:30.187500
507,8.28,2021-12-17 16:32:30.203125
508,4.44,2021-12-17 16:32:30.218750
509,0.99,2021-12-17 16:32:30.234375
510,-2.11,2021-12-17 16:32:30.250000
511,-5.1,2021-12-17 16:32:30.265625
512,-8.35,2021-12-17 16:32:30.281250
513,-12.13,2021-12-17 16:32:30.296875
514,-16.54,2021-12-17 16:32:30.312500
515,-21.46,2021-12-17 16:32:30.328125
516,-26.6,2021-12-17 16:32:30.343750
517,-31.59,2021-12-17 16:32:30.359375
518,-35.98,2021-12-17 16:32:30.375000
519,-39.28,2021-12-17 16:32:30.390625
520,-41.05,2021-12-17 16:32:30.406250
521,-40.91,2021-12-17 16:32:30.421875
522,-38.67,2021-12-17 16:32:30.437500
523,-34.42,2021-12-17 16:32:30.453125
524,-28.54,2021-12-17 16:32:30.468750
525,-21.64,2021-12-17 16:32:30.484375
526,-14.36,2021-12-17 16:32:30.500000
527,-7.32,2021-12-17 16:32:30.515625
528,-0.92,2021-12-17 16:32:30.531250
529,4.63,2021-12-17 16:32:30.546875
530,9.32,2021-12-17 16:32:30.562500
531,13.24,2021-12-17 16:32:30.578125
532,16.53,2021-12-17 16:32:30.593750
533,19.3,2021-12-17 16:32:30.609375
534,21.56,2021-12-17 16:32:30.625000
535,23.37,2021-12-17 16:32:30.640625
536,24.76,2021-12-17 16:32:30.656250
537,25.83,2021-12-17 16:32:30.671875
538,26.68,2021-12-17 16:32:30.687500
539,27.39,2021-12-17 16:32:30.703125
540,28.02,2021-12-17 16:32:30.718750
541,28.57,2021-12-17 16:32:30.734375
542,29.01,2021-12-17 16:32:30.750000
543,29.38,2021-12-17 16:32:30.765625
544,29.81,2021-12-17 16:32:30.781250
545,30.43,2021-12-17 16:32:30.796875
546,31.3,2021-12-17 16:32:30.812500
547,32.34,2021-12-17 16:32:30.828125
548,33.31,2021-12-17 16:32:30.843750
549,33.87,2021-12-17 16:32:30.859375
550,33.77,2021-12-17 16:32:30.875000
551,32.91,2021-12-17 16:32:30.890625
552,31.41,2021-12-17 16:32:30.906250
553,29.57,2021-12-17 16:32:30.921875
554,27.68,2021-12-17 16:32:30.937500
555,25.94,2021-12-17 16:32:30.953125
556,24.35,2021-12-17 16:32:30.968750
557,22.76,2021-12-17 16:32:30.984375
558,21.01,2021-12-17 16:32:31.000000
559,19.04,2021-12-17 16:32:31.015625
560,16.94,2021-12-17 16:32:31.031250
561,14.83,2021-12-17 16:32:31.046875
562,12.83,2021-12-17 16:32:31.062500
563,10.84,2021-12-17 16:32:31.078125
564,8.66,2021-12-17 16:32:31.093750
565,6.06,2021-12-17 16:32:31.109375
566,2.92,2021-12-17 16:32:31.125000
567,-0.6,2021-12-17 16:32:31.140625
568,-4.14,2021-12-17 16:32:31.156250
569,-7.27,2021-12-17 16:32:31.171875
570,-9.69,2021-12-17 16:32:31.187500
571,-11.34,2021-12-17 16:32:31.203125
572,-12.48,2021-12-17 16:32:31.218750
573,-13.51,2021-12-17 16:32:31.234375
574,-14.85,2021-12-17 16:32:31.250000
575,-16.77,2021-12-17 16:32:31.265625
576,-19.36,2021-12-17 16:32:31.281250
577,-22.51,2021-12-17 16:32:31.296875
578,-25.99,2021-12-17 16:32:31.312500
579,-29.4,2021-12-17 16:32:31.328125
580,-32.27,2021-12-17 16:32:31.343750
581,-34.07,2021-12-17 16:32:31.359375
582,-34.33,2021-12-17 16:32:31.375000
583,-32.78,2021-12-17 16:32:31.390625
584,-29.43,2021-12-17 16:32:31.406250
585,-24.62,2021-12-17 16:32:31.421875
586,-18.92,2021-12-17 16:32:31.437500
587,-13.02,2021-12-17 16:32:31.453125
588,-7.52,2021-12-17 16:32:31.468750
589,-2.76,2021-12-17 16:32:31.484375
590,1.15,2021-12-17 16:32:31.500000
591,4.31,2021-12-17 16:32:31.515625
592,6.95,2021-12-17 16:32:31.531250
593,9.27,2021-12-17 16:32:31.546875
594,11.37,2021-12-17 16:32:31.562500
595,13.27,2021-12-17 16:32:31.578125
596,14.9,2021-12-17 16:32:31.593750
597,16.22,2021-12-17 16:32:31.609375
598,17.19,2021-12-17 16:32:31.625000
599,17.82,2021-12-17 16:32:31.640625
600,18.16,2021-12-17 16:32:31.656250
601,18.31,2021-12-17 16:32:31.671875
602,18.39,2021-12-17 16:32:31.687500
603,18.52,2021-12-17 16:32:31.703125
604,18.82,2021-12-17 16:32:31.718750
605,19.35,2021-12-17 16:32:31.734375
606,20.08,2021-12-17 16:32:31.750000
607,20.92,2021-12-17 16:32:31.765625
608,21.72,2021-12-17 16:32:31.781250
609,22.33,2021-12-17 16:32:31.796875
610,22.65,2021-12-17 16:32:31.812500
611,22.57,2021-12-17 16:32:31.828125
612,22.04,2021-12-17 16:32:31.843750
613,21.01,2021-12-17 16:32:31.859375
614,19.52,2021-12-17 16:32:31.875000
615,17.66,2021-12-17 16:32:31.890625
616,15.63,2021-12-17 16:32:31.906250
617,13.66,2021-12-17 16:32:31.921875
618,11.93,2021-12-17 16:32:31.937500
619,10.57,2021-12-17 16:32:31.953125
620,9.56,2021-12-17 16:32:31.968750
621,8.78,2021-12-17 16:32:31.984375
622,8.03,2021-12-17 16:32:32.000000
623,7.07,2021-12-17 16:32:32.015625
624,5.72,2021-12-17 16:32:32.031250
625,3.91,2021-12-17 16:32:32.046875
626,1.7,2021-12-17 16:32:32.062500
627,-0.73,2021-12-17 16:32:32.078125
628,-3.17,2021-12-17 16:32:32.093750
629,-5.5,2021-12-17 16:32:32.109375
630,-7.68,2021-12-17 16:32:32.125000
631,-9.76,2021-12-17 16:32:32.140625
632,-11.84,2021-12-17 16:32:32.156250
633,-14.03,2021-12-17 16:32:32.171875
634,-16.43,2021-12-17 16:32:32.187500
635,-19.12,2021-12-17 16:32:32.203125
636,-22.17,2021-12-17 16:32:32.218750
637,-25.47,2021-12-17 16:32:32.234375
638,-28.78,2021-12-17 16:32:32.250000
639,-31.55,2021-12-17 16:32:32.265625
640,-33.2,2021-12-17 16:32:32.281250
641,-33.13,2021-12-17 16:32:32.296875
642,-31.05,2021-12-17 16:32:32.312500
643,-27.1,2021-12-17 16:32:32.328125
644,-21.79,2021-12-17 16:32:32.343750
645,-15.87,2021-12-17 16:32:32.359375
646,-10.12,2021-12-17 16:32:32.375000
647,-5.12,2021-12-17 16:32:32.390625
648,-1.16,2021-12-17 16:32:32.406250
649,1.73,2021-12-17 16:32:32.421875
650,3.77,2021-12-17 16:32:32.437500
651,5.31,2021-12-17 16:32:32.453125
652,6.68,2021-12-17 16:32:32.468750
653,8.16,2021-12-17 16:32:32.484375
654,9.86,2021-12-17 16:32:32.500000
655,11.7,2021-12-17 16:32:32.515625
656,13.46,2021-12-17 16:32:32.531250
657,14.89,2021-12-17 16:32:32.546875
658,15.78,2021-12-17 16:32:32.562500
659,16.13,2021-12-17 16:32:32.578125
660,16.13,2021-12-17 16:32:32.593750
661,16.04,2021-12-17 16:32:32.609375
662,16.13,2021-12-17 16:32:32.625000
663,16.51,2021-12-17 16:32:32.640625
664,17.12,2021-12-17 16:32:32.656250
665,17.76,2021-12-17 16:32:32.671875
666,18.21,2021-12-17 16:32:32.687500
667,18.3,2021-12-17 16:32:32.703125
668,17.99,2021-12-17 16:32:32.718750
669,17.34,2021-12-17 16:32:32.734375
670,16.46,2021-12-17 16:32:32.750000
671,15.48,2021-12-17 16:32:32.765625
672,14.48,2021-12-17 16:32:32.781250
673,13.5,2021-12-17 16:32:32.796875
674,12.53,2021-12-17 16:32:32.812500
675,11.54,2021-12-17 16:32:32.828125
676,10.43,2021-12-17 16:32:32.843750
677,9.18,2021-12-17 16:32:32.859375
678,7.76,2021-12-17 16:32:32.875000
679,6.2,2021-12-17 16:32:32.890625
680,4.54,2021-12-17 16:32:32.906250
681,2.76,2021-12-17 16:32:32.921875
682,0.87,2021-12-17 16:32:32.937500
683,-1.12,2021-12-17 16:32:32.953125
684,-3.15,2021-12-17 16:32:32.968750
685,-5.12,2021-12-17 16:32:32.984375
686,-6.9,2021-12-17 16:32:33.000000
687,-8.42,2021-12-17 16:32:33.015625
688,-9.75,2021-12-17 16:32:33.031250
689,-11.02,2021-12-17 16:32:33.046875
690,-12.4,2021-12-17 16:32:33.062500
691,-14.04,2021-12-17 16:32:33.078125
692,-16.02,2021-12-17 16:32:33.093750
693,-18.35,2021-12-17 16:32:33.109375
694,-20.93,2021-12-17 16:32:33.125000
695,-23.59,2021-12-17 16:32:33.140625
696,-26.07,2021-12-17 16:32:33.156250
697,-27.95,2021-12-17 16:32:33.171875
698,-28.81,2021-12-17 16:32:33.187500
699,-28.25,2021-12-17 16:32:33.203125
700,-26.12,2021-12-17 16:32:33.218750
701,-22.58,2021-12-17 16:32:33.234375
702,-18.09,2021-12-17 16:32:33.250000
703,-13.24,2021-12-17 16:32:33.265625
704,-8.58,2021-12-17 16:32:33.281250
705,-4.49,2021-12-17 16:32:33.296875
706,-1.05,2021-12-17 16:32:33.312500
707,1.75,2021-12-17 16:32:33.328125
708,4.03,2021-12-17 16:32:33.343750
709,5.84,2021-12-17 16:32:33.359375
710,7.2,2021-12-17 16:32:33.375000
711,8.11,2021-12-17 16:32:33.390625
712,8.66,2021-12-17 16:32:33.406250
713,8.97,2021-12-17 16:32:33.421875
714,9.24,2021-12-17 16:32:33.437500
715,9.57,2021-12-17 16:32:33.453125
716,10.0,2021-12-17 16:32:33.468750
717,10.4,2021-12-17 16:32:33.484375
718,10.61,2021-12-17 16:32:33.500000
719,10.54,2021-12-17 16:32:33.515625
720,10.22,2021-12-17 16:32:33.531250
721,9.8,2021-12-17 16:32:33.546875
722,9.51,2021-12-17 16:32:33.562500
723,9.55,2021-12-17 16:32:33.578125
724,9.95,2021-12-17 16:32:33.593750
725,10.59,2021-12-17 16:32:33.609375
726,11.19,2021-12-17 16:32:33.625000
727,11.51,2021-12-17 16:32:33.640625
728,11.41,2021-12-17 16:32:33.656250
729,10.91,2021-12-17 16:32:33.671875
730,10.15,2021-12-17 16:32:33.687500
731,9.29,2021-12-17 16:32:33.703125
732,8.43,2021-12-17 16:32:33.718750
733,7.55,2021-12-17 16:32:33.734375
734,6.56,2021-12-17 16:32:33.750000
735,5.36,2021-12-17 16:32:33.765625
736,3.93,2021-12-17 16:32:33.781250
737,2.31,2021-12-17 16:32:33.796875
738,0.62,2021-12-17 16:32:33.812500
739,-1.02,2021-12-17 16:32:33.828125
740,-2.52,2021-12-17 16:32:33.843750
741,-3.84,2021-12-17 16:32:33.859375
742,-5.0,2021-12-17 16:32:33.875000
743,-6.07,2021-12-17 16:32:33.890625
744,-7.1,2021-12-17 16:32:33.906250
745,-8.18,2021-12-17 16:32:33.921875
746,-9.4,2021-12-17 16:32:33.937500
747,-10.89,2021-12-17 16:32:33.953125
748,-12.69,2021-12-17 16:32:33.968750
749,-14.82,2021-12-17 16:32:33.984375
750,-17.11,2021-12-17 16:32:34.000000
751,-19.21,2021-12-17 16:32:34.015625
752,-20.63,2021-12-17 16:32:34.031250
753,-20.86,2021-12-17 16:32:34.046875
754,-19.58,2021-12-17 16:32:34.062500
755,-16.8,2021-12-17 16:32:34.078125
756,-12.94,2021-12-17 16:32:34.093750
757,-8.64,2021-12-17 16:32:34.109375
758,-4.6,2021-12-17 16:32:34.125000
759,-1.28,2021-12-17 16:32:34.140625
760,1.16,2021-12-17 16:32:34.156250
761,2.84,2021-12-17 16:32:34.171875
762,4.01,2021-12-17 16:32:34.187500
763,4.91,2021-12-17 16:32:34.203125
764,5.65,2021-12-17 16:32:34.218750
765,6.31,2021-12-17 16:32:34.234375
766,6.91,2021-12-17 16:32:34.250000
767,7.46,2021-12-17 16:32:34.265625
768,7.98,2021-12-17 16:32:34.281250
769,8.43,2021-12-17 16:32:34.296875
770,8.73,2021-12-17 16:32:34.312500
771,8.79,2021-12-17 16:32:34.328125
772,8.63,2021-12-17 16:32:34.343750
773,8.38,2021-12-17 16:32:34.359375
774,8.28,2021-12-17 16:32:34.375000
775,8.55,2021-12-17 16:32:34.390625
776,9.27,2021-12-17 16:32:34.406250
777,10.34,2021-12-17 16:32:34.421875
778,11.52,2021-12-17 16:32:34.437500
779,12.52,2021-12-17 16:32:34.453125
780,13.08,2021-12-17 16:32:34.468750
781,13.09,2021-12-17 16:32:34.484375
782,12.48,2021-12-17 16:32:34.500000
783,11.31,2021-12-17 16:32:34.515625
784,9.73,2021-12-17 16:32:34.531250
785,7.94,2021-12-17 16:32:34.546875
786,6.22,2021-12-17 16:32:34.562500
787,4.79,2021-12-17 16:32:34.578125
788,3.72,2021-12-17 16:32:34.593750
789,2.92,2021-12-17 16:32:34.609375
790,2.14,2021-12-17 16:32:34.625000
791,1.06,2021-12-17 16:32:34.640625
792,-0.49,2021-12-17 16:32:34.656250
793,-2.49,2021-12-17 16:32:34.671875
794,-4.69,2021-12-17 16:32:34.687500
795,-6.76,2021-12-17 16:32:34.703125
796,-8.38,2021-12-17 16:32:34.718750
797,-9.43,2021-12-17 16:32:34.734375
798,-9.95,2021-12-17 16:32:34.750000
799,-10.07,2021-12-17 16:32:34.765625
800,-9.95,2021-12-17 16:32:34.781250
801,-9.72,2021-12-17 16:32:34.796875
802,-9.43,2021-12-17 16:32:34.812500
803,-9.07,2021-12-17 16:32:34.828125
804,-8.58,2021-12-17 16:32:34.843750
805,-7.8,2021-12-17 16:32:34.859375
806,-6.55,2021-12-17 16:32:34.875000
807,-4.7,2021-12-17 16:32:34.890625
808,-2.25,2021-12-17 16:32:34.906250
809,0.55,2021-12-17 16:32:34.921875
810,3.31,2021-12-17 16:32:34.937500
811,5.63,2021-12-17 16:32:34.953125
812,7.2,2021-12-17 16:32:34.968750
813,7.98,2021-12-17 16:32:34.984375
814,8.09,2021-12-17 16:32:35.000000
815,7.74,2021-12-17 16:32:35.015625
816,7.09,2021-12-17 16:32:35.031250
817,6.28,2021-12-17 16:32:35.046875
818,5.44,2021-12-17 16:32:35.062500
819,4.81,2021-12-17 16:32:35.078125
820,4.65,2021-12-17 16:32:35.093750
821,5.14,2021-12-17 16:32:35.109375
822,6.18,2021-12-17 16:32:35.125000
823,7.44,2021-12-17 16:32:35.140625
824,8.41,2021-12-17 16:32:35.156250
825,8.72,2021-12-17 16:32:35.171875
826,8.3,2021-12-17 16:32:35.187500
827,7.43,2021-12-17 16:32:35.203125
828,6.58,2021-12-17 16:32:35.218750
829,6.16,2021-12-17 16:32:35.234375
830,6.37,2021-12-17 16:32:35.250000
831,7.16,2021-12-17 16:32:35.265625
832,8.27,2021-12-17 16:32:35.281250
833,9.45,2021-12-17 16:32:35.296875
834,10.51,2021-12-17 16:32:35.312500
835,11.34,2021-12-17 16:32:35.328125
836,11.9,2021-12-17 16:32:35.343750
837,12.19,2021-12-17 16:32:35.359375
838,12.25,2021-12-17 16:32:35.375000
839,12.11,2021-12-17 16:32:35.390625
840,11.85,2021-12-17 16:32:35.406250
841,11.48,2021-12-17 16:32:35.421875
842,10.99,2021-12-17 16:32:35.437500
843,10.33,2021-12-17 16:32:35.453125
844,9.45,2021-12-17 16:32:35.468750
845,8.3,2021-12-17 16:32:35.484375
846,6.88,2021-12-17 16:32:35.500000
847,5.25,2021-12-17 16:32:35.515625
848,3.51,2021-12-17 16:32:35.531250
849,1.74,2021-12-17 16:32:35.546875
850,-0.01,2021-12-17 16:32:35.562500
851,-1.73,2021-12-17 16:32:35.578125
852,-3.49,2021-12-17 16:32:35.593750
853,-5.38,2021-12-17 16:32:35.609375
854,-7.47,2021-12-17 16:32:35.625000
855,-9.85,2021-12-17 16:32:35.640625
856,-12.5,2021-12-17 16:32:35.656250
857,-15.37,2021-12-17 16:32:35.671875
858,-18.32,2021-12-17 16:32:35.687500
859,-21.13,2021-12-17 16:32:35.703125
860,-23.51,2021-12-17 16:32:35.718750
861,-25.15,2021-12-17 16:32:35.734375
862,-25.77,2021-12-17 16:32:35.750000
863,-25.25,2021-12-17 16:32:35.765625
864,-23.63,2021-12-17 16:32:35.781250
865,-21.16,2021-12-17 16:32:35.796875
866,-18.23,2021-12-17 16:32:35.812500
867,-15.29,2021-12-17 16:32:35.828125
868,-12.68,2021-12-17 16:32:35.843750
869,-10.57,2021-12-17 16:32:35.859375
870,-9.01,2021-12-17 16:32:35.875000
871,-7.9,2021-12-17 16:32:35.890625
872,-7.15,2021-12-17 16:32:35.906250
873,-6.69,2021-12-17 16:32:35.921875
874,-6.48,2021-12-17 16:32:35.937500
875,-6.49,2021-12-17 16:32:35.953125
876,-6.65,2021-12-17 16:32:35.968750
877,-6.84,2021-12-17 16:32:35.984375
878,-6.93,2021-12-17 16:32:36.000000
879,-6.8,2021-12-17 16:32:36.015625
880,-6.39,2021-12-17 16:32:36.031250
881,-5.72,2021-12-17 16:32:36.046875
882,-4.82,2021-12-17 16:32:36.062500
883,-3.7,2021-12-17 16:32:36.078125
884,-2.43,2021-12-17 16:32:36.093750
885,-1.01,2021-12-17 16:32:36.109375
886,0.52,2021-12-17 16:32:36.125000
887,2.13,2021-12-17 16:32:36.140625
888,3.8,2021-12-17 16:32:36.156250
889,5.47,2021-12-17 16:32:36.171875
890,7.09,2021-12-17 16:32:36.187500
891,8.52,2021-12-17 16:32:36.203125
892,9.61,2021-12-17 16:32:36.218750
893,10.22,2021-12-17 16:32:36.234375
894,10.26,2021-12-17 16:32:36.250000
895,9.82,2021-12-17 16:32:36.265625
896,9.08,2021-12-17 16:32:36.281250
897,8.27,2021-12-17 16:32:36.296875
898,7.52,2021-12-17 16:32:36.312500
899,6.8,2021-12-17 16:32:36.328125
900,5.98,2021-12-17 16:32:36.343750
901,4.89,2021-12-17 16:32:36.359375
902,3.41,2021-12-17 16:32:36.375000
903,1.57,2021-12-17 16:32:36.390625
904,-0.51,2021-12-17 16:32:36.406250
905,-2.74,2021-12-17 16:32:36.421875
906,-5.04,2021-12-17 16:32:36.437500
907,-7.41,2021-12-17 16:32:36.453125
908,-9.84,2021-12-17 16:32:36.468750
909,-12.28,2021-12-17 16:32:36.484375
910,-14.67,2021-12-17 16:32:36.500000
911,-16.88,2021-12-17 16:32:36.515625
912,-18.92,2021-12-17 16:32:36.531250
913,-20.83,2021-12-17 16:32:36.546875
914,-22.77,2021-12-17 16:32:36.562500
915,-24.85,2021-12-17 16:32:36.578125
916,-27.17,2021-12-17 16:32:36.593750
917,-29.69,2021-12-17 16:32:36.609375
918,-32.29,2021-12-17 16:32:36.625000
919,-34.73,2021-12-17 16:32:36.640625
920,-36.67,2021-12-17 16:32:36.656250
921,-37.71,2021-12-17 16:32:36.671875
922,-37.51,2021-12-17 16:32:36.687500
923,-35.83,2021-12-17 16:32:36.703125
924,-32.63,2021-12-17 16:32:36.718750
925,-28.14,2021-12-17 16:32:36.734375
926,-22.79,2021-12-17 16:32:36.750000
927,-17.16,2021-12-17 16:32:36.765625
928,-11.77,2021-12-17 16:32:36.781250
929,-7.0,2021-12-17 16:32:36.796875
930,-3.04,2021-12-17 16:32:36.812500
931,0.09,2021-12-17 16:32:36.828125
932,2.5,2021-12-17 16:32:36.843750
933,4.34,2021-12-17 16:32:36.859375
934,5.77,2021-12-17 16:32:36.875000
935,6.88,2021-12-17 16:32:36.890625
936,7.73,2021-12-17 16:32:36.906250
937,8.33,2021-12-17 16:32:36.921875
938,8.64,2021-12-17 16:32:36.937500
939,8.58,2021-12-17 16:32:36.953125
940,8.08,2021-12-17 16:32:36.968750
941,7.13,2021-12-17 16:32:36.984375
942,5.77,2021-12-17 16:32:37.000000
943,4.12,2021-12-17 16:32:37.015625
944,2.4,2021-12-17 16:32:37.031250
945,0.8,2021-12-17 16:32:37.046875
946,-0.53,2021-12-17 16:32:37.062500
947,-1.57,2021-12-17 16:32:37.078125
948,-2.5,2021-12-17 16:32:37.093750
949,-3.57,2021-12-17 16:32:37.109375
950,-5.1,2021-12-17 16:32:37.125000
951,-7.19,2021-12-17 16:32:37.140625
952,-9.82,2021-12-17 16:32:37.156250
953,-12.76,2021-12-17 16:32:37.171875
954,-15.7,2021-12-17 16:32:37.187500
955,-18.5,2021-12-17 16:32:37.203125
956,-21.14,2021-12-17 16:32:37.218750
957,-23.8,2021-12-17 16:32:37.234375
958,-26.65,2021-12-17 16:32:37.250000
959,-29.68,2021-12-17 16:32:37.265625
960,-32.74,2021-12-17 16:32:37.281250
961,-35.51,2021-12-17 16:32:37.296875
962,-37.62,2021-12-17 16:32:37.312500
963,-38.79,2021-12-17 16:32:37.328125
964,-38.89,2021-12-17 16:32:37.343750
965,-37.98,2021-12-17 16:32:37.359375
966,-36.31,2021-12-17 16:32:37.375000
967,-34.25,2021-12-17 16:32:37.390625
968,-32.2,2021-12-17 16:32:37.406250
969,-30.49,2021-12-17 16:32:37.421875
970,-29.31,2021-12-17 16:32:37.437500
971,-28.67,2021-12-17 16:32:37.453125
972,-28.47,2021-12-17 16:32:37.468750
973,-28.49,2021-12-17 16:32:37.484375
974,-28.57,2021-12-17 16:32:37.500000
975,-28.54,2021-12-17 16:32:37.515625
976,-28.27,2021-12-17 16:32:37.531250
977,-27.7,2021-12-17 16:32:37.546875
978,-26.8,2021-12-17 16:32:37.562500
979,-25.63,2021-12-17 16:32:37.578125
980,-24.34,2021-12-17 16:32:37.593750
981,-23.06,2021-12-17 16:32:37.609375
982,-21.97,2021-12-17 16:32:37.625000
983,-21.07,2021-12-17 16:32:37.640625
984,-20.35,2021-12-17 16:32:37.656250
985,-19.77,2021-12-17 16:32:37.671875
986,-19.16,2021-12-17 16:32:37.687500
987,-18.23,2021-12-17 16:32:37.703125
988,-16.43,2021-12-17 16:32:37.718750
989,-13.1,2021-12-17 16:32:37.734375
990,-7.79,2021-12-17 16:32:37.750000
991,-0.42,2021-12-17 16:32:37.765625
992,8.46,2021-12-17 16:32:37.781250
993,17.81,2021-12-17 16:32:37.796875
994,26.47,2021-12-17 16:32:37.812500
995,33.54,2021-12-17 16:32:37.828125
996,38.71,2021-12-17 16:32:37.843750
997,42.22,2021-12-17 16:32:37.859375
998,44.66,2021-12-17 16:32:37.875000
999,46.56,2021-12-17 16:32:37.890625
1000,48.17,2021-12-17 16:32:37.906250
1001,49.43,2021-12-17 16:32:37.921875
1002,50.1,2021-12-17 16:32:37.937500
1003,50.05,2021-12-17 16:32:37.953125
1004,49.33,2021-12-17 16:32:37.968750
1005,48.13,2021-12-17 16:32:37.984375
1006,46.66,2021-12-17 16:32:38.000000
1007,44.98,2021-12-17 16:32:38.015625
1008,43.05,2021-12-17 16:32:38.031250
1009,40.73,2021-12-17 16:32:38.046875
1010,37.98,2021-12-17 16:32:38.062500
1011,34.96,2021-12-17 16:32:38.078125
1012,32.03,2021-12-17 16:32:38.093750
1013,29.64,2021-12-17 16:32:38.109375
1014,28.03,2021-12-17 16:32:38.125000
1015,27.16,2021-12-17 16:32:38.140625
1016,26.66,2021-12-17 16:32:38.156250
1017,26.04,2021-12-17 16:32:38.171875
1018,24.86,2021-12-17 16:32:38.187500
1019,23.01,2021-12-17 16:32:38.203125
1020,20.57,2021-12-17 16:32:38.218750
1021,17.87,2021-12-17 16:32:38.234375
1022,15.15,2021-12-17 16:32:38.250000
1023,12.48,2021-12-17 16:32:38.265625
1024,9.75,2021-12-17 16:32:38.281250
1025,6.76,2021-12-17 16:32:38.296875
1026,3.35,2021-12-17 16:32:38.312500
1027,-0.46,2021-12-17 16:32:38.328125
1028,-4.5,2021-12-17 16:32:38.343750
1029,-8.43,2021-12-17 16:32:38.359375
1030,-11.92,2021-12-17 16:32:38.375000
1031,-14.69,2021-12-17 16:32:38.390625
1032,-16.63,2021-12-17 16:32:38.406250
1033,-17.82,2021-12-17 16:32:38.421875
1034,-18.52,2021-12-17 16:32:38.437500
1035,-19.04,2021-12-17 16:32:38.453125
1036,-19.7,2021-12-17 16:32:38.468750
1037,-20.63,2021-12-17 16:32:38.484375
1038,-21.81,2021-12-17 16:32:38.500000
1039,-23.05,2021-12-17 16:32:38.515625
1040,-24.17,2021-12-17 16:32:38.531250
1041,-25.07,2021-12-17 16:32:38.546875
1042,-25.74,2021-12-17 16:32:38.562500
1043,-26.3,2021-12-17 16:32:38.578125
1044,-26.79,2021-12-17 16:32:38.593750
1045,-27.2,2021-12-17 16:32:38.609375
1046,-27.37,2021-12-17 16:32:38.625000
1047,-27.09,2021-12-17 16:32:38.640625
1048,-26.1,2021-12-17 16:32:38.656250
1049,-24.24,2021-12-17 16:32:38.671875
1050,-21.52,2021-12-17 16:32:38.687500
1051,-18.11,2021-12-17 16:32:38.703125
1052,-14.34,2021-12-17 16:32:38.718750
1053,-10.6,2021-12-17 16:32:38.734375
1054,-7.22,2021-12-17 16:32:38.750000
1055,-4.36,2021-12-17 16:32:38.765625
1056,-2.0,2021-12-17 16:32:38.781250
1057,0.08,2021-12-17 16:32:38.796875
1058,2.17,2021-12-17 16:32:38.812500
1059,4.45,2021-12-17 16:32:38.828125
1060,7.02,2021-12-17 16:32:38.843750
1061,9.84,2021-12-17 16:32:38.859375
1062,12.82,2021-12-17 16:32:38.875000
1063,15.84,2021-12-17 16:32:38.890625
1064,18.82,2021-12-17 16:32:38.906250
1065,21.63,2021-12-17 16:32:38.921875
1066,24.1,2021-12-17 16:32:38.937500
1067,26.07,2021-12-17 16:32:38.953125
1068,27.46,2021-12-17 16:32:38.968750
1069,28.29,2021-12-17 16:32:38.984375
1070,28.75,2021-12-17 16:32:39.000000
1071,29.13,2021-12-17 16:32:39.015625
1072,29.71,2021-12-17 16:32:39.031250
1073,30.67,2021-12-17 16:32:39.046875
1074,32.03,2021-12-17 16:32:39.062500
1075,33.68,2021-12-17 16:32:39.078125
1076,35.38,2021-12-17 16:32:39.093750
1077,36.86,2021-12-17 16:32:39.109375
1078,37.83,2021-12-17 16:32:39.125000
1079,38.05,2021-12-17 16:32:39.140625
1080,37.38,2021-12-17 16:32:39.156250
1081,35.81,2021-12-17 16:32:39.171875
1082,33.48,2021-12-17 16:32:39.187500
1083,30.65,2021-12-17 16:32:39.203125
1084,27.62,2021-12-17 16:32:39.218750
1085,24.56,2021-12-17 16:32:39.234375
1086,21.57,2021-12-17 16:32:39.250000
1087,18.62,2021-12-17 16:32:39.265625
1088,15.72,2021-12-17 16:32:39.281250
1089,12.88,2021-12-17 16:32:39.296875
1090,10.17,2021-12-17 16:32:39.312500
1091,7.61,2021-12-17 16:32:39.328125
1092,5.2,2021-12-17 16:32:39.343750
1093,2.87,2021-12-17 16:32:39.359375
1094,0.55,2021-12-17 16:32:39.375000
1095,-1.75,2021-12-17 16:32:39.390625
1096,-4.0,2021-12-17 16:32:39.406250
1097,-6.15,2021-12-17 16:32:39.421875
1098,-8.22,2021-12-17 16:32:39.437500
1099,-10.36,2021-12-17 16:32:39.453125
1100,-12.79,2021-12-17 16:32:39.468750
1101,-15.66,2021-12-17 16:32:39.484375
1102,-18.98,2021-12-17 16:32:39.500000
1103,-22.49,2021-12-17 16:32:39.515625
1104,-25.8,2021-12-17 16:32:39.531250
1105,-28.45,2021-12-17 16:32:39.546875
1106,-30.07,2021-12-17 16:32:39.562500
1107,-30.45,2021-12-17 16:32:39.578125
1108,-29.59,2021-12-17 16:32:39.593750
1109,-27.67,2021-12-17 16:32:39.609375
1110,-25.0,2021-12-17 16:32:39.625000
1111,-21.99,2021-12-17 16:32:39.640625
1112,-18.99,2021-12-17 16:32:39.656250
1113,-16.25,2021-12-17 16:32:39.671875
1114,-13.91,2021-12-17 16:32:39.687500
1115,-11.94,2021-12-17 16:32:39.703125
1116,-10.31,2021-12-17 16:32:39.718750
1117,-8.93,2021-12-17 16:32:39.734375
1118,-7.76,2021-12-17 16:32:39.750000
1119,-6.8,2021-12-17 16:32:39.765625
1120,-6.1,2021-12-17 16:32:39.781250
1121,-5.72,2021-12-17 16:32:39.796875
1122,-5.71,2021-12-17 16:32:39.812500
1123,-6.06,2021-12-17 16:32:39.828125
1124,-6.71,2021-12-17 16:32:39.843750
1125,-7.57,2021-12-17 16:32:39.859375
1126,-8.5,2021-12-17 16:32:39.875000
1127,-9.35,2021-12-17 16:32:39.890625
1128,-10.0,2021-12-17 16:32:39.906250
1129,-10.38,2021-12-17 16:32:39.921875
1130,-10.43,2021-12-17 16:32:39.937500
1131,-10.14,2021-12-17 16:32:39.953125
1132,-9.58,2021-12-17 16:32:39.968750
1133,-8.85,2021-12-17 16:32:39.984375
1134,-8.16,2021-12-17 16:32:40.000000
1135,-7.71,2021-12-17 16:32:40.015625
1136,-7.66,2021-12-17 16:32:40.031250
1137,-8.1,2021-12-17 16:32:40.046875
1138,-9.04,2021-12-17 16:32:40.062500
1139,-10.36,2021-12-17 16:32:40.078125
1140,-11.94,2021-12-17 16:32:40.093750
1141,-13.63,2021-12-17 16:32:40.109375
1142,-15.22,2021-12-17 16:32:40.125000
1143,-16.62,2021-12-17 16:32:40.140625
1144,-17.86,2021-12-17 16:32:40.156250
1145,-19.04,2021-12-17 16:32:40.171875
1146,-20.36,2021-12-17 16:32:40.187500
1147,-21.98,2021-12-17 16:32:40.203125
1148,-23.9,2021-12-17 16:32:40.218750
1149,-25.87,2021-12-17 16:32:40.234375
1150,-27.59,2021-12-17 16:32:40.250000
1151,-28.82,2021-12-17 16:32:40.265625
1152,-29.54,2021-12-17 16:32:40.281250
1153,-29.76,2021-12-17 16:32:40.296875
1154,-29.32,2021-12-17 16:32:40.312500
1155,-27.77,2021-12-17 16:32:40.328125
1156,-24.56,2021-12-17 16:32:40.343750
1157,-19.46,2021-12-17 16:32:40.359375
1158,-12.84,2021-12-17 16:32:40.375000
1159,-5.65,2021-12-17 16:32:40.390625
1160,0.88,2021-12-17 16:32:40.406250
1161,5.85,2021-12-17 16:32:40.421875
1162,9.02,2021-12-17 16:32:40.437500
1163,10.82,2021-12-17 16:32:40.453125
1164,11.96,2021-12-17 16:32:40.468750
1165,12.98,2021-12-17 16:32:40.484375
1166,14.04,2021-12-17 16:32:40.500000
1167,14.93,2021-12-17 16:32:40.515625
1168,15.43,2021-12-17 16:32:40.531250
1169,15.5,2021-12-17 16:32:40.546875
1170,15.31,2021-12-17 16:32:40.562500
1171,15.15,2021-12-17 16:32:40.578125
1172,15.15,2021-12-17 16:32:40.593750
1173,15.21,2021-12-17 16:32:40.609375
1174,15.17,2021-12-17 16:32:40.625000
1175,14.91,2021-12-17 16:32:40.640625
1176,14.37,2021-12-17 16:32:40.656250
1177,13.6,2021-12-17 16:32:40.671875
1178,12.76,2021-12-17 16:32:40.687500
1179,12.07,2021-12-17 16:32:40.703125
1180,11.74,2021-12-17 16:32:40.718750
1181,11.9,2021-12-17 16:32:40.734375
1182,12.56,2021-12-17 16:32:40.750000
1183,13.53,2021-12-17 16:32:40.765625
1184,14.46,2021-12-17 16:32:40.781250
1185,14.99,2021-12-17 16:32:40.796875
1186,14.87,2021-12-17 16:32:40.812500
1187,14.14,2021-12-17 16:32:40.828125
1188,13.11,2021-12-17 16:32:40.843750
1189,12.21,2021-12-17 16:32:40.859375
1190,11.79,2021-12-17 16:32:40.875000
1191,11.96,2021-12-17 16:32:40.890625
1192,12.53,2021-12-17 16:32:40.906250
1193,13.16,2021-12-17 16:32:40.921875
1194,13.52,2021-12-17 16:32:40.937500
1195,13.48,2021-12-17 16:32:40.953125
1196,13.17,2021-12-17 16:32:40.968750
1197,12.86,2021-12-17 16:32:40.984375
1198,12.8,2021-12-17 16:32:41.000000
1199,13.11,2021-12-17 16:32:41.015625
1200,13.74,2021-12-17 16:32:41.031250
1201,14.57,2021-12-17 16:32:41.046875
1202,15.43,2021-12-17 16:32:41.062500
1203,16.2,2021-12-17 16:32:41.078125
1204,16.8,2021-12-17 16:32:41.093750
1205,17.21,2021-12-17 16:32:41.109375
1206,17.53,2021-12-17 16:32:41.125000
1207,17.97,2021-12-17 16:32:41.140625
1208,18.85,2021-12-17 16:32:41.156250
1209,20.52,2021-12-17 16:32:41.171875
1210,23.32,2021-12-17 16:32:41.187500
1211,27.42,2021-12-17 16:32:41.203125
1212,32.8,2021-12-17 16:32:41.218750
1213,39.23,2021-12-17 16:32:41.234375
1214,46.33,2021-12-17 16:32:41.250000
1215,53.7,2021-12-17 16:32:41.265625
1216,60.96,2021-12-17 16:32:41.281250
1217,67.92,2021-12-17 16:32:41.296875
1218,74.57,2021-12-17 16:32:41.312500
1219,81.02,2021-12-17 16:32:41.328125
1220,87.36,2021-12-17 16:32:41.343750
1221,93.5,2021-12-17 16:32:41.359375
1222,98.99,2021-12-17 16:32:41.375000
1223,103.14,2021-12-17 16:32:41.390625
1224,105.21,2021-12-17 16:32:41.406250
1225,104.86,2021-12-17 16:32:41.421875
1226,102.41,2021-12-17 16:32:41.437500
1227,98.89,2021-12-17 16:32:41.453125
1228,95.75,2021-12-17 16:32:41.468750
1229,94.42,2021-12-17 16:32:41.484375
1230,95.53,2021-12-17 16:32:41.500000
1231,98.79,2021-12-17 16:32:41.515625
1232,103.04,2021-12-17 16:32:41.531250
1233,106.72,2021-12-17 16:32:41.546875
1234,108.6,2021-12-17 16:32:41.562500
1235,108.12,2021-12-17 16:32:41.578125
1236,105.47,2021-12-17 16:32:41.593750
1237,101.08,2021-12-17 16:32:41.609375
1238,95.19,2021-12-17 16:32:41.625000
1239,87.65,2021-12-17 16:32:41.640625
1240,78.18,2021-12-17 16:32:41.656250
1241,66.69,2021-12-17 16:32:41.671875
1242,53.51,2021-12-17 16:32:41.687500
1243,39.42,2021-12-17 16:32:41.703125
1244,25.3,2021-12-17 16:32:41.718750
1245,11.9,2021-12-17 16:32:41.734375
1246,-0.24,2021-12-17 16:32:41.750000
1247,-10.6,2021-12-17 16:32:41.765625
1248,-18.59,2021-12-17 16:32:41.781250
1249,-23.61,2021-12-17 16:32:41.796875
1250,-25.29,2021-12-17 16:32:41.812500
1251,-23.62,2021-12-17 16:32:41.828125
1252,-19.06,2021-12-17 16:32:41.843750
1253,-12.4,2021-12-17 16:32:41.859375
1254,-4.76,2021-12-17 16:32:41.875000
1255,2.35,2021-12-17 16:32:41.890625
1256,7.03,2021-12-17 16:32:41.906250
1257,7.2,2021-12-17 16:32:41.921875
1258,1.28,2021-12-17 16:32:41.937500
1259,-11.01,2021-12-17 16:32:41.953125
1260,-28.28,2021-12-17 16:32:41.968750
1261,-47.78,2021-12-17 16:32:41.984375
1262,-66.73,2021-12-17 16:32:42.000000
1263,-83.36,2021-12-17 16:32:42.015625
1264,-97.23,2021-12-17 16:32:42.031250
1265,-108.69,2021-12-17 16:32:42.046875
1266,-117.77,2021-12-17 16:32:42.062500
1267,-123.55,2021-12-17 16:32:42.078125
1268,-124.39,2021-12-17 16:32:42.093750
1269,-119.1,2021-12-17 16:32:42.109375
1270,-108.02,2021-12-17 16:32:42.125000
1271,-93.27,2021-12-17 16:32:42.140625
1272,-77.82,2021-12-17 16:32:42.156250
1273,-64.1,2021-12-17 16:32:42.171875
1274,-52.98,2021-12-17 16:32:42.187500
1275,-43.76,2021-12-17 16:32:42.203125
1276,-34.99,2021-12-17 16:32:42.218750
1277,-25.77,2021-12-17 16:32:42.234375
1278,-16.32,2021-12-17 16:32:42.250000
1279,-7.81,2021-12-17 16:32:42.265625
1280,-1.59,2021-12-17 16:32:42.281250
1281,1.62,2021-12-17 16:32:42.296875
1282,1.99,2021-12-17 16:32:42.312500
1283,0.34,2021-12-17 16:32:42.328125
1284,-2.43,2021-12-17 16:32:42.343750
1285,-5.74,2021-12-17 16:32:42.359375
1286,-9.5,2021-12-17 16:32:42.375000
1287,-13.96,2021-12-17 16:32:42.390625
1288,-19.28,2021-12-17 16:32:42.406250
1289,-25.37,2021-12-17 16:32:42.421875
1290,-31.75,2021-12-17 16:32:42.437500
1291,-37.75,2021-12-17 16:32:42.453125
1292,-42.78,2021-12-17 16:32:42.468750
1293,-46.58,2021-12-17 16:32:42.484375
1294,-49.35,2021-12-17 16:32:42.500000
1295,-51.66,2021-12-17 16:32:42.515625
1296,-54.14,2021-12-17 16:32:42.531250
1297,-57.21,2021-12-17 16:32:42.546875
1298,-60.89,2021-12-17 16:32:42.562500
1299,-64.86,2021-12-17 16:32:42.578125
1300,-68.75,2021-12-17 16:32:42.593750
1301,-72.46,2021-12-17 16:32:42.609375
1302,-76.11,2021-12-17 16:32:42.625000
1303,-79.87,2021-12-17 16:32:42.640625
1304,-83.58,2021-12-17 16:32:42.656250
1305,-86.72,2021-12-17 16:32:42.671875
1306,-88.56,2021-12-17 16:32:42.687500
1307,-88.57,2021-12-17 16:32:42.703125
1308,-86.65,2021-12-17 16:32:42.718750
1309,-82.97,2021-12-17 16:32:42.734375
1310,-77.61,2021-12-17 16:32:42.750000
1311,-70.28,2021-12-17 16:32:42.765625
1312,-60.39,2021-12-17 16:32:42.781250
1313,-47.53,2021-12-17 16:32:42.796875
1314,-31.99,2021-12-17 16:32:42.812500
1315,-15.06,2021-12-17 16:32:42.828125
1316,1.36,2021-12-17 16:32:42.843750
1317,15.36,2021-12-17 16:32:42.859375
1318,25.69,2021-12-17 16:32:42.875000
1319,31.95,2021-12-17 16:32:42.890625
1320,34.22,2021-12-17 16:32:42.906250
1321,32.59,2021-12-17 16:32:42.921875
1322,26.82,2021-12-17 16:32:42.937500
1323,16.61,2021-12-17 16:32:42.953125
1324,2.05,2021-12-17 16:32:42.968750
1325,-16.02,2021-12-17 16:32:42.984375
1326,-36.02,2021-12-17 16:32:43.000000
1327,-56.08,2021-12-17 16:32:43.015625
1328,-74.62,2021-12-17 16:32:43.031250
1329,-90.75,2021-12-17 16:32:43.046875
1330,-104.3,2021-12-17 16:32:43.062500
1331,-115.49,2021-12-17 16:32:43.078125
1332,-124.58,2021-12-17 16:32:43.093750
1333,-131.71,2021-12-17 16:32:43.109375
1334,-136.93,2021-12-17 16:32:43.125000
1335,-140.37,2021-12-17 16:32:43.140625
1336,-142.54,2021-12-17 16:32:43.156250
1337,-144.16,2021-12-17 16:32:43.171875
1338,-146.11,2021-12-17 16:32:43.187500
1339,-149.07,2021-12-17 16:32:43.203125
1340,-153.27,2021-12-17 16:32:43.218750
1341,-158.26,2021-12-17 16:32:43.234375
1342,-162.71,2021-12-17 16:32:43.250000
1343,-164.28,2021-12-17 16:32:43.265625
1344,-159.9,2021-12-17 16:32:43.281250
1345,-146.41,2021-12-17 16:32:43.296875
1346,-121.63,2021-12-17 16:32:43.312500
1347,-85.38,2021-12-17 16:32:43.328125
1348,-40.01,2021-12-17 16:32:43.343750
1349,10.04,2021-12-17 16:32:43.359375
1350,59.55,2021-12-17 16:32:43.375000
1351,103.93,2021-12-17 16:32:43.390625
1352,140.33,2021-12-17 16:32:43.406250
1353,167.7,2021-12-17 16:32:43.421875
1354,186.12,2021-12-17 16:32:43.437500
1355,196.01,2021-12-17 16:32:43.453125
1356,197.57,2021-12-17 16:32:43.468750
1357,191.1,2021-12-17 16:32:43.484375
1358,177.46,2021-12-17 16:32:43.500000
1359,158.51,2021-12-17 16:32:43.515625
1360,136.91,2021-12-17 16:32:43.531250
1361,115.48,2021-12-17 16:32:43.546875
1362,96.4,2021-12-17 16:32:43.562500
1363,80.77,2021-12-17 16:32:43.578125
1364,68.58,2021-12-17 16:32:43.593750
1365,59.02,2021-12-17 16:32:43.609375
1366,50.92,2021-12-17 16:32:43.625000
1367,43.18,2021-12-17 16:32:43.640625
1368,34.97,2021-12-17 16:32:43.656250
1369,26.0,2021-12-17 16:32:43.671875
1370,16.51,2021-12-17 16:32:43.687500
1371,7.19,2021-12-17 16:32:43.703125
1372,-1.08,2021-12-17 16:32:43.718750
1373,-7.6,2021-12-17 16:32:43.734375
1374,-12.2,2021-12-17 16:32:43.750000
1375,-15.27,2021-12-17 16:32:43.765625
1376,-17.6,2021-12-17 16:32:43.781250
1377,-19.96,2021-12-17 16:32:43.796875
1378,-22.75,2021-12-17 16:32:43.812500
1379,-25.78,2021-12-17 16:32:43.828125
1380,-28.44,2021-12-17 16:32:43.843750
1381,-30.06,2021-12-17 16:32:43.859375
1382,-30.33,2021-12-17 16:32:43.875000
1383,-29.61,2021-12-17 16:32:43.890625
1384,-28.87,2021-12-17 16:32:43.906250
1385,-29.28,2021-12-17 16:32:43.921875
1386,-31.56,2021-12-17 16:32:43.937500
1387,-35.53,2021-12-17 16:32:43.953125
1388,-40.05,2021-12-17 16:32:43.968750
1389,-43.46,2021-12-17 16:32:43.984375
1390,-44.4,2021-12-17 16:32:44.000000
1391,-42.49,2021-12-17 16:32:44.015625
1392,-38.43,2021-12-17 16:32:44.031250
1393,-33.42,2021-12-17 16:32:44.046875
1394,-28.4,2021-12-17 16:32:44.062500
1395,-23.55,2021-12-17 16:32:44.078125
1396,-18.68,2021-12-17 16:32:44.093750
1397,-14.05,2021-12-17 16:32:44.109375
1398,-10.93,2021-12-17 16:32:44.125000
1399,-11.38,2021-12-17 16:32:44.140625
1400,-16.99,2021-12-17 16:32:44.156250
1401,-27.49,2021-12-17 16:32:44.171875
1402,-40.12,2021-12-17 16:32:44.187500
1403,-50.68,2021-12-17 16:32:44.203125
1404,-55.78,2021-12-17 16:32:44.218750
1405,-54.74,2021-12-17 16:32:44.234375
1406,-49.84,2021-12-17 16:32:44.250000
1407,-44.63,2021-12-17 16:32:44.265625
1408,-41.36,2021-12-17 16:32:44.281250
1409,-39.46,2021-12-17 16:32:44.296875
1410,-36.27,2021-12-17 16:32:44.312500
1411,-29.5,2021-12-17 16:32:44.328125
1412,-19.63,2021-12-17 16:32:44.343750
1413,-10.37,2021-12-17 16:32:44.359375
1414,-6.62,2021-12-17 16:32:44.375000
1415,-11.22,2021-12-17 16:32:44.390625
1416,-22.73,2021-12-17 16:32:44.406250
1417,-35.73,2021-12-17 16:32:44.421875
1418,-43.56,2021-12-17 16:32:44.437500
1419,-41.8,2021-12-17 16:32:44.453125
1420,-30.4,2021-12-17 16:32:44.468750
1421,-13.31,2021-12-17 16:32:44.484375
1422,3.94,2021-12-17 16:32:44.500000
1423,17.12,2021-12-17 16:32:44.515625
1424,25.03,2021-12-17 16:32:44.531250
1425,29.3,2021-12-17 16:32:44.546875
1426,33.05,2021-12-17 16:32:44.562500
1427,39.02,2021-12-17 16:32:44.578125
1428,48.48,2021-12-17 16:32:44.593750
1429,60.98,2021-12-17 16:32:44.609375
1430,75.16,2021-12-17 16:32:44.625000
1431,89.76,2021-12-17 16:32:44.640625
1432,104.34,2021-12-17 16:32:44.656250
1433,119.43,2021-12-17 16:32:44.671875
1434,135.93,2021-12-17 16:32:44.687500
1435,154.18,2021-12-17 16:32:44.703125
1436,173.16,2021-12-17 16:32:44.718750
1437,190.56,2021-12-17 16:32:44.734375
1438,203.64,2021-12-17 16:32:44.750000
1439,210.63,2021-12-17 16:32:44.765625
1440,211.71,2021-12-17 16:32:44.781250
1441,209.14,2021-12-17 16:32:44.796875
1442,206.23,2021-12-17 16:32:44.812500
1443,205.75,2021-12-17 16:32:44.828125
1444,208.7,2021-12-17 16:32:44.843750
1445,213.88,2021-12-17 16:32:44.859375
1446,218.49,2021-12-17 16:32:44.875000
1447,219.41,2021-12-17 16:32:44.890625
1448,214.38,2021-12-17 16:32:44.906250
1449,202.86,2021-12-17 16:32:44.921875
1450,185.8,2021-12-17 16:32:44.937500
1451,164.96,2021-12-17 16:32:44.953125
1452,141.79,2021-12-17 16:32:44.968750
1453,116.75,2021-12-17 16:32:44.984375
1454,89.29,2021-12-17 16:32:45.000000
1455,58.68,2021-12-17 16:32:45.015625
1456,25.33,2021-12-17 16:32:45.031250
1457,-8.39,2021-12-17 16:32:45.046875
1458,-38.7,2021-12-17 16:32:45.062500
1459,-62.18,2021-12-17 16:32:45.078125
1460,-77.97,2021-12-17 16:32:45.093750
1461,-88.65,2021-12-17 16:32:45.109375
1462,-98.68,2021-12-17 16:32:45.125000
1463,-111.32,2021-12-17 16:32:45.140625
1464,-125.76,2021-12-17 16:32:45.156250
1465,-136.99,2021-12-17 16:32:45.171875
1466,-138.64,2021-12-17 16:32:45.187500
1467,-126.88,2021-12-17 16:32:45.203125
1468,-102.88,2021-12-17 16:32:45.218750
1469,-72.31,2021-12-17 16:32:45.234375
1470,-42.16,2021-12-17 16:32:45.250000
1471,-17.42,2021-12-17 16:32:45.265625
1472,0.55,2021-12-17 16:32:45.281250
1473,12.9,2021-12-17 16:32:45.296875
1474,20.8,2021-12-17 16:32:45.312500
1475,23.63,2021-12-17 16:32:45.328125
1476,20.02,2021-12-17 16:32:45.343750
1477,10.37,2021-12-17 16:32:45.359375
1478,-1.16,2021-12-17 16:32:45.375000
1479,-7.21,2021-12-17 16:32:45.390625
1480,-0.68,2021-12-17 16:32:45.406250
1481,21.18,2021-12-17 16:32:45.421875
1482,54.33,2021-12-17 16:32:45.437500
1483,88.7,2021-12-17 16:32:45.453125
1484,111.6,2021-12-17 16:32:45.468750
1485,112.91,2021-12-17 16:32:45.484375
1486,89.02,2021-12-17 16:32:45.500000
1487,44.07,2021-12-17 16:32:45.515625
1488,-12.05,2021-12-17 16:32:45.531250
1489,-67.71,2021-12-17 16:32:45.546875
1490,-114.05,2021-12-17 16:32:45.562500
1491,-147.49,2021-12-17 16:32:45.578125
1492,-169.81,2021-12-17 16:32:45.593750
1493,-186.6,2021-12-17 16:32:45.609375
1494,-202.36,2021-12-17 16:32:45.625000
1495,-217.75,2021-12-17 16:32:45.640625
1496,-229.74,2021-12-17 16:32:45.656250
1497,-234.57,2021-12-17 16:32:45.671875
1498,-230.88,2021-12-17 16:32:45.687500
1499,-220.54,2021-12-17 16:32:45.703125
1500,-206.85,2021-12-17 16:32:45.718750
1501,-191.76,2021-12-17 16:32:45.734375
1502,-176.65,2021-12-17 16:32:45.750000
1503,-160.76,2021-12-17 16:32:45.765625
1504,-143.06,2021-12-17 16:32:45.781250
1505,-124.52,2021-12-17 16:32:45.796875
1506,-109.29,2021-12-17 16:32:45.812500
1507,-102.92,2021-12-17 16:32:45.828125
1508,-108.54,2021-12-17 16:32:45.843750
1509,-124.19,2021-12-17 16:32:45.859375
1510,-143.56,2021-12-17 16:32:45.875000
1511,-162.97,2021-12-17 16:32:45.890625
1512,-180.82,2021-12-17 16:32:45.906250
1513,-197.22,2021-12-17 16:32:45.921875
1514,-212.51,2021-12-17 16:32:45.937500
1515,-226.68,2021-12-17 16:32:45.953125
1516,-239.09,2021-12-17 16:32:45.968750
1517,-248.34,2021-12-17 16:32:45.984375
1518,-252.91,2021-12-17 16:32:46.000000
1519,-252.09,2021-12-17 16:32:46.015625
1520,-251.57,2021-12-17 16:32:46.031250
1521,-257.78,2021-12-17 16:32:46.046875
1522,-274.42,2021-12-17 16:32:46.062500
1523,-300.75,2021-12-17 16:32:46.078125
1524,-333.26,2021-12-17 16:32:46.093750
1525,-367.88,2021-12-17 16:32:46.109375
1526,-400.75,2021-12-17 16:32:46.125000
1527,-428.39,2021-12-17 16:32:46.140625
1528,-417.18,2021-12-17 16:32:46.156250
1529,-348.47,2021-12-17 16:32:46.171875
1530,-227.87,2021-12-17 16:32:46.187500
1531,-83.79,2021-12-17 16:32:46.203125
1532,51.68,2021-12-17 16:32:46.218750
1533,159.5,2021-12-17 16:32:46.234375
1534,236.14,2021-12-17 16:32:46.250000
1535,287.56,2021-12-17 16:32:46.265625
1536,322.77,2021-12-17 16:32:46.281250
1537,348.26,2021-12-17 16:32:46.296875
1538,366.25,2021-12-17 16:32:46.312500
1539,375.88,2021-12-17 16:32:46.328125
1540,377.1,2021-12-17 16:32:46.343750
1541,372.29,2021-12-17 16:32:46.359375
1542,364.56,2021-12-17 16:32:46.375000
1543,355.59,2021-12-17 16:32:46.390625
1544,345.35,2021-12-17 16:32:46.406250
1545,333.37,2021-12-17 16:32:46.421875
1546,317.83,2021-12-17 16:32:46.437500
1547,295.3,2021-12-17 16:32:46.453125
1548,264.02,2021-12-17 16:32:46.468750
1549,225.73,2021-12-17 16:32:46.484375
1550,185.65,2021-12-17 16:32:46.500000
1551,150.08,2021-12-17 16:32:46.515625
1552,123.87,2021-12-17 16:32:46.531250
1553,108.88,2021-12-17 16:32:46.546875
1554,104.06,2021-12-17 16:32:46.562500
1555,105.96,2021-12-17 16:32:46.578125
1556,107.9,2021-12-17 16:32:46.593750
1557,103.63,2021-12-17 16:32:46.609375
1558,90.71,2021-12-17 16:32:46.625000
1559,71.86,2021-12-17 16:32:46.640625
1560,52.99,2021-12-17 16:32:46.656250
1561,39.87,2021-12-17 16:32:46.671875
1562,34.93,2021-12-17 16:32:46.687500
1563,36.73,2021-12-17 16:32:46.703125
1564,41.1,2021-12-17 16:32:46.718750
1565,42.78,2021-12-17 16:32:46.734375
1566,38.45,2021-12-17 16:32:46.750000
1567,28.51,2021-12-17 16:32:46.765625
1568,16.52,2021-12-17 16:32:46.781250
1569,6.65,2021-12-17 16:32:46.796875
1570,2.52,2021-12-17 16:32:46.812500
1571,4.49,2021-12-17 16:32:46.828125
1572,10.17,2021-12-17 16:32:46.843750
1573,16.61,2021-12-17 16:32:46.859375
1574,22.28,2021-12-17 16:32:46.875000
1575,27.26,2021-12-17 16:32:46.890625
1576,31.82,2021-12-17 16:32:46.906250
1577,35.16,2021-12-17 16:32:46.921875
1578,35.33,2021-12-17 16:32:46.937500
1579,30.71,2021-12-17 16:32:46.953125
1580,21.46,2021-12-17 16:32:46.968750
1581,9.9,2021-12-17 16:32:46.984375
1582,-0.31,2021-12-17 16:32:47.000000
1583,-6.09,2021-12-17 16:32:47.015625
1584,-6.96,2021-12-17 16:32:47.031250
1585,-5.49,2021-12-17 16:32:47.046875
1586,-6.29,2021-12-17 16:32:47.062500
1587,-14.02,2021-12-17 16:32:47.078125
1588,-30.75,2021-12-17 16:32:47.093750
1589,-56.08,2021-12-17 16:32:47.109375
1590,-86.68,2021-12-17 16:32:47.125000
1591,-117.37,2021-12-17 16:32:47.140625
1592,-143.03,2021-12-17 16:32:47.156250
1593,-160.28,2021-12-17 16:32:47.171875
1594,-167.96,2021-12-17 16:32:47.187500
1595,-166.6,2021-12-17 16:32:47.203125
1596,-157.6,2021-12-17 16:32:47.218750
1597,-142.51,2021-12-17 16:32:47.234375
1598,-123.2,2021-12-17 16:32:47.250000
1599,-101.64,2021-12-17 16:32:47.265625
1600,-79.9,2021-12-17 16:32:47.281250
1601,-59.83,2021-12-17 16:32:47.296875
1602,-42.78,2021-12-17 16:32:47.312500
1603,-29.17,2021-12-17 16:32:47.328125
1604,-18.28,2021-12-17 16:32:47.343750
1605,-8.73,2021-12-17 16:32:47.359375
1606,0.85,2021-12-17 16:32:47.375000
1607,10.9,2021-12-17 16:32:47.390625
1608,20.72,2021-12-17 16:32:47.406250
1609,28.98,2021-12-17 16:32:47.421875
1610,34.5,2021-12-17 16:32:47.437500
1611,37.09,2021-12-17 16:32:47.453125
1612,37.9,2021-12-17 16:32:47.468750
1613,38.89,2021-12-17 16:32:47.484375
1614,41.89,2021-12-17 16:32:47.500000
1615,47.62,2021-12-17 16:32:47.515625
1616,55.27,2021-12-17 16:32:47.531250
1617,63.09,2021-12-17 16:32:47.546875
1618,69.41,2021-12-17 16:32:47.562500
1619,73.58,2021-12-17 16:32:47.578125
1620,76.24,2021-12-17 16:32:47.593750
1621,78.81,2021-12-17 16:32:47.609375
1622,82.53,2021-12-17 16:32:47.625000
1623,87.49,2021-12-17 16:32:47.640625
1624,92.39,2021-12-17 16:32:47.656250
1625,95.06,2021-12-17 16:32:47.671875
1626,93.58,2021-12-17 16:32:47.687500
1627,87.42,2021-12-17 16:32:47.703125
1628,78.01,2021-12-17 16:32:47.718750
1629,68.37,2021-12-17 16:32:47.734375
1630,62.0,2021-12-17 16:32:47.750000
1631,61.5,2021-12-17 16:32:47.765625
1632,67.4,2021-12-17 16:32:47.781250
1633,77.79,2021-12-17 16:32:47.796875
1634,88.74,2021-12-17 16:32:47.812500
1635,95.44,2021-12-17 16:32:47.828125
1636,93.49,2021-12-17 16:32:47.843750
1637,80.27,2021-12-17 16:32:47.859375
1638,55.94,2021-12-17 16:32:47.875000
1639,24.09,2021-12-17 16:32:47.890625
1640,-8.66,2021-12-17 16:32:47.906250
1641,-33.9,2021-12-17 16:32:47.921875
1642,-44.0,2021-12-17 16:32:47.937500
1643,-35.14,2021-12-17 16:32:47.953125
1644,-9.22,2021-12-17 16:32:47.968750
1645,25.78,2021-12-17 16:32:47.984375
1646,57.96,2021-12-17 16:32:48.000000
1647,75.15,2021-12-17 16:32:48.015625
1648,68.9,2021-12-17 16:32:48.031250
1649,37.32,2021-12-17 16:32:48.046875
1650,-14.11,2021-12-17 16:32:48.062500
1651,-74.16,2021-12-17 16:32:48.078125
1652,-129.45,2021-12-17 16:32:48.093750
1653,-168.52,2021-12-17 16:32:48.109375
1654,-185.05,2021-12-17 16:32:48.125000
1655,-179.03,2021-12-17 16:32:48.140625
1656,-155.5,2021-12-17 16:32:48.156250
1657,-121.53,2021-12-17 16:32:48.171875
1658,-82.83,2021-12-17 16:32:48.187500
1659,-42.06,2021-12-17 16:32:48.203125
1660,0.84,2021-12-17 16:32:48.218750
1661,46.16,2021-12-17 16:32:48.234375
1662,91.66,2021-12-17 16:32:48.250000
1663,131.44,2021-12-17 16:32:48.265625
1664,157.38,2021-12-17 16:32:48.281250
1665,162.18,2021-12-17 16:32:48.296875
1666,142.62,2021-12-17 16:32:48.312500
1667,101.48,2021-12-17 16:32:48.328125
1668,47.19,2021-12-17 16:32:48.343750
1669,-8.5,2021-12-17 16:32:48.359375
1670,-54.36,2021-12-17 16:32:48.375000
1671,-83.09,2021-12-17 16:32:48.390625
1672,-93.11,2021-12-17 16:32:48.406250
1673,-87.59,2021-12-17 16:32:48.421875
1674,-71.52,2021-12-17 16:32:48.437500
1675,-48.87,2021-12-17 16:32:48.453125
1676,-21.34,2021-12-17 16:32:48.468750
1677,10.23,2021-12-17 16:32:48.484375
1678,43.33,2021-12-17 16:32:48.500000
1679,72.14,2021-12-17 16:32:48.515625
1680,88.79,2021-12-17 16:32:48.531250
1681,87.16,2021-12-17 16:32:48.546875
1682,66.94,2021-12-17 16:32:48.562500
1683,35.18,2021-12-17 16:32:48.578125
1684,3.5,2021-12-17 16:32:48.593750
1685,-17.41,2021-12-17 16:32:48.609375
1686,-22.89,2021-12-17 16:32:48.625000
1687,-15.8,2021-12-17 16:32:48.640625
1688,-3.99,2021-12-17 16:32:48.656250
1689,4.72,2021-12-17 16:32:48.671875
1690,6.34,2021-12-17 16:32:48.687500
1691,1.44,2021-12-17 16:32:48.703125
1692,-6.8,2021-12-17 16:32:48.718750
1693,-15.25,2021-12-17 16:32:48.734375
1694,-22.61,2021-12-17 16:32:48.750000
1695,-29.39,2021-12-17 16:32:48.765625
1696,-36.48,2021-12-17 16:32:48.781250
1697,-43.82,2021-12-17 16:32:48.796875
1698,-49.94,2021-12-17 16:32:48.812500
1699,-52.85,2021-12-17 16:32:48.828125
1700,-51.18,2021-12-17 16:32:48.843750
1701,-45.18,2021-12-17 16:32:48.859375
1702,-36.83,2021-12-17 16:32:48.875000
1703,-28.96,2021-12-17 16:32:48.890625
1704,-23.89,2021-12-17 16:32:48.906250
1705,-22.34,2021-12-17 16:32:48.921875
1706,-23.22,2021-12-17 16:32:48.937500
1707,-24.38,2021-12-17 16:32:48.953125
1708,-24.16,2021-12-17 16:32:48.968750
1709,-22.56,2021-12-17 16:32:48.984375
1710,-21.44,2021-12-17 16:32:49.000000
1711,-23.45,2021-12-17 16:32:49.015625
1712,-30.46,2021-12-17 16:32:49.031250
1713,-42.38,2021-12-17 16:32:49.046875
1714,-57.1,2021-12-17 16:32:49.062500
1715,-71.32,2021-12-17 16:32:49.078125
1716,-81.78,2021-12-17 16:32:49.093750
1717,-86.18,2021-12-17 16:32:49.109375
1718,-83.53,2021-12-17 16:32:49.125000
1719,-74.05,2021-12-17 16:32:49.140625
1720,-59.35,2021-12-17 16:32:49.156250
1721,-42.33,2021-12-17 16:32:49.171875
1722,-26.61,2021-12-17 16:32:49.187500
1723,-15.11,2021-12-17 16:32:49.203125
1724,-8.63,2021-12-17 16:32:49.218750
1725,-5.2,2021-12-17 16:32:49.234375
1726,-1.19,2021-12-17 16:32:49.250000
1727,6.43,2021-12-17 16:32:49.265625
1728,18.1,2021-12-17 16:32:49.281250
1729,31.42,2021-12-17 16:32:49.296875
1730,42.87,2021-12-17 16:32:49.312500
1731,50.3,2021-12-17 16:32:49.328125
1732,54.36,2021-12-17 16:32:49.343750
1733,57.74,2021-12-17 16:32:49.359375
1734,62.88,2021-12-17 16:32:49.375000
1735,69.89,2021-12-17 16:32:49.390625
1736,76.28,2021-12-17 16:32:49.406250
1737,78.78,2021-12-17 16:32:49.421875
1738,75.65,2021-12-17 16:32:49.437500
1739,67.87,2021-12-17 16:32:49.453125
1740,58.32,2021-12-17 16:32:49.468750
1741,49.65,2021-12-17 16:32:49.484375
1742,42.36,2021-12-17 16:32:49.500000
1743,34.68,2021-12-17 16:32:49.515625
1744,24.1,2021-12-17 16:32:49.531250
1745,9.31,2021-12-17 16:32:49.546875
1746,-8.75,2021-12-17 16:32:49.562500
1747,-27.28,2021-12-17 16:32:49.578125
1748,-43.2,2021-12-17 16:32:49.593750
1749,-54.62,2021-12-17 16:32:49.609375
1750,-61.43,2021-12-17 16:32:49.625000
1751,-64.56,2021-12-17 16:32:49.640625
1752,-64.95,2021-12-17 16:32:49.656250
1753,-62.83,2021-12-17 16:32:49.671875
1754,-58.04,2021-12-17 16:32:49.687500
1755,-50.69,2021-12-17 16:32:49.703125
1756,-41.5,2021-12-17 16:32:49.718750
1757,-31.46,2021-12-17 16:32:49.734375
1758,-20.85,2021-12-17 16:32:49.750000
1759,-8.8,2021-12-17 16:32:49.765625
1760,6.47,2021-12-17 16:32:49.781250
1761,26.3,2021-12-17 16:32:49.796875
1762,50.31,2021-12-17 16:32:49.812500
1763,75.77,2021-12-17 16:32:49.828125
1764,98.37,2021-12-17 16:32:49.843750
1765,113.83,2021-12-17 16:32:49.859375
1766,119.57,2021-12-17 16:32:49.875000
1767,115.6,2021-12-17 16:32:49.890625
1768,104.07,2021-12-17 16:32:49.906250
1769,88.22,2021-12-17 16:32:49.921875
1770,70.96,2021-12-17 16:32:49.937500
1771,54.03,2021-12-17 16:32:49.953125
1772,37.74,2021-12-17 16:32:49.968750
1773,21.37,2021-12-17 16:32:49.984375
1774,3.84,2021-12-17 16:32:50.000000
1775,-15.59,2021-12-17 16:32:50.015625
1776,-36.75,2021-12-17 16:32:50.031250
1777,-58.33,2021-12-17 16:32:50.046875
1778,-78.33,2021-12-17 16:32:50.062500
1779,-94.7,2021-12-17 16:32:50.078125
1780,-106.05,2021-12-17 16:32:50.093750
1781,-111.86,2021-12-17 16:32:50.109375
1782,-112.26,2021-12-17 16:32:50.125000
1783,-107.59,2021-12-17 16:32:50.140625
1784,-98.24,2021-12-17 16:32:50.156250
1785,-84.84,2021-12-17 16:32:50.171875
1786,-68.57,2021-12-17 16:32:50.187500
1787,-51.21,2021-12-17 16:32:50.203125
1788,-34.48,2021-12-17 16:32:50.218750
1789,-19.26,2021-12-17 16:32:50.234375
1790,-4.95,2021-12-17 16:32:50.250000
1791,10.28,2021-12-17 16:32:50.265625
1792,28.39,2021-12-17 16:32:50.281250
1793,50.03,2021-12-17 16:32:50.296875
1794,73.63,2021-12-17 16:32:50.312500
1795,95.68,2021-12-17 16:32:50.328125
1796,112.03,2021-12-17 16:32:50.343750
1797,119.66,2021-12-17 16:32:50.359375
1798,117.89,2021-12-17 16:32:50.375000
1799,108.41,2021-12-17 16:32:50.390625
1800,94.13,2021-12-17 16:32:50.406250
1801,77.74,2021-12-17 16:32:50.421875
1802,60.7,2021-12-17 16:32:50.437500
1803,43.18,2021-12-17 16:32:50.453125
1804,24.73,2021-12-17 16:32:50.468750
1805,5.24,2021-12-17 16:32:50.484375
1806,-14.65,2021-12-17 16:32:50.500000
1807,-33.61,2021-12-17 16:32:50.515625
1808,-50.22,2021-12-17 16:32:50.531250
1809,-63.53,2021-12-17 16:32:50.546875
1810,-73.36,2021-12-17 16:32:50.562500
1811,-80.04,2021-12-17 16:32:50.578125
1812,-84.01,2021-12-17 16:32:50.593750
1813,-85.36,2021-12-17 16:32:50.609375
1814,-83.72,2021-12-17 16:32:50.625000
1815,-78.44,2021-12-17 16:32:50.640625
1816,-69.13,2021-12-17 16:32:50.656250
1817,-56.03,2021-12-17 16:32:50.671875
1818,-40.33,2021-12-17 16:32:50.687500
1819,-23.84,2021-12-17 16:32:50.703125
1820,-8.3,2021-12-17 16:32:50.718750
1821,5.39,2021-12-17 16:32:50.734375
1822,17.62,2021-12-17 16:32:50.750000
1823,29.8,2021-12-17 16:32:50.765625
1824,43.53,2021-12-17 16:32:50.781250
1825,59.59,2021-12-17 16:32:50.796875
1826,77.35,2021-12-17 16:32:50.812500
1827,94.94,2021-12-17 16:32:50.828125
1828,110.01,2021-12-17 16:32:50.843750
1829,120.81,2021-12-17 16:32:50.859375
1830,126.85,2021-12-17 16:32:50.875000
1831,128.86,2021-12-17 16:32:50.890625
1832,128.18,2021-12-17 16:32:50.906250
1833,125.91,2021-12-17 16:32:50.921875
1834,122.36,2021-12-17 16:32:50.937500
1835,117.03,2021-12-17 16:32:50.953125
1836,108.97,2021-12-17 16:32:50.968750
1837,97.55,2021-12-17 16:32:50.984375
1838,82.88,2021-12-17 16:32:51.000000
1839,66.14,2021-12-17 16:32:51.015625
1840,49.35,2021-12-17 16:32:51.031250
1841,34.8,2021-12-17 16:32:51.046875
1842,24.42,2021-12-17 16:32:51.062500
1843,19.28,2021-12-17 16:32:51.078125
1844,19.41,2021-12-17 16:32:51.093750
1845,23.9,2021-12-17 16:32:51.109375
1846,31.07,2021-12-17 16:32:51.125000
1847,38.71,2021-12-17 16:32:51.140625
1848,44.31,2021-12-17 16:32:51.156250
1849,45.64,2021-12-17 16:32:51.171875
1850,41.38,2021-12-17 16:32:51.187500
1851,31.73,2021-12-17 16:32:51.203125
1852,18.52,2021-12-17 16:32:51.218750
1853,4.63,2021-12-17 16:32:51.234375
1854,-7.1,2021-12-17 16:32:51.250000
1855,-15.0,2021-12-17 16:32:51.265625
1856,-19.12,2021-12-17 16:32:51.281250
1857,-20.8,2021-12-17 16:32:51.296875
1858,-21.69,2021-12-17 16:32:51.312500
1859,-22.78,2021-12-17 16:32:51.328125
1860,-24.04,2021-12-17 16:32:51.343750
1861,-24.83,2021-12-17 16:32:51.359375
1862,-24.72,2021-12-17 16:32:51.375000
1863,-24.07,2021-12-17 16:32:51.390625
1864,-23.95,2021-12-17 16:32:51.406250
1865,-25.52,2021-12-17 16:32:51.421875
1866,-29.16,2021-12-17 16:32:51.437500
1867,-34.28,2021-12-17 16:32:51.453125
1868,-39.55,2021-12-17 16:32:51.468750
1869,-43.67,2021-12-17 16:32:51.484375
1870,-46.08,2021-12-17 16:32:51.500000
1871,-47.04,2021-12-17 16:32:51.515625
1872,-47.32,2021-12-17 16:32:51.531250
1873,-47.46,2021-12-17 16:32:51.546875
1874,-47.27,2021-12-17 16:32:51.562500
1875,-45.68,2021-12-17 16:32:51.578125
1876,-41.23,2021-12-17 16:32:51.593750
1877,-32.72,2021-12-17 16:32:51.609375
1878,-19.9,2021-12-17 16:32:51.625000
1879,-3.95,2021-12-17 16:32:51.640625
1880,12.66,2021-12-17 16:32:51.656250
1881,26.63,2021-12-17 16:32:51.671875
1882,34.83,2021-12-17 16:32:51.687500
1883,35.23,2021-12-17 16:32:51.703125
1884,27.78,2021-12-17 16:32:51.718750
1885,14.52,2021-12-17 16:32:51.734375
1886,-0.94,2021-12-17 16:32:51.750000
1887,-14.56,2021-12-17 16:32:51.765625
1888,-23.21,2021-12-17 16:32:51.781250
1889,-25.64,2021-12-17 16:32:51.796875
1890,-22.57,2021-12-17 16:32:51.812500
1891,-16.08,2021-12-17 16:32:51.828125
1892,-8.52,2021-12-17 16:32:51.843750
1893,-1.56,2021-12-17 16:32:51.859375
1894,4.16,2021-12-17 16:32:51.875000
1895,8.8,2021-12-17 16:32:51.890625
1896,12.73,2021-12-17 16:32:51.906250
1897,16.16,2021-12-17 16:32:51.921875
1898,18.98,2021-12-17 16:32:51.937500
1899,20.95,2021-12-17 16:32:51.953125
1900,21.99,2021-12-17 16:32:51.968750
1901,22.3,2021-12-17 16:32:51.984375
1902,22.2,2021-12-17 16:32:52.000000
1903,21.94,2021-12-17 16:32:52.015625
1904,21.62,2021-12-17 16:32:52.031250
1905,21.15,2021-12-17 16:32:52.046875
1906,20.48,2021-12-17 16:32:52.062500
1907,19.63,2021-12-17 16:32:52.078125
1908,18.7,2021-12-17 16:32:52.093750
1909,17.75,2021-12-17 16:32:52.109375
1910,16.74,2021-12-17 16:32:52.125000
1911,15.57,2021-12-17 16:32:52.140625
1912,14.14,2021-12-17 16:32:52.156250
1913,12.51,2021-12-17 16:32:52.171875
1914,10.74,2021-12-17 16:32:52.187500
1915,8.89,2021-12-17 16:32:52.203125
1916,6.86,2021-12-17 16:32:52.218750
1917,4.44,2021-12-17 16:32:52.234375
1918,1.38,2021-12-17 16:32:52.250000
1919,-2.48,2021-12-17 16:32:52.265625
1920,-7.21,2021-12-17 16:32:52.281250
1921,-12.8,2021-12-17 16:32:52.296875
1922,-19.19,2021-12-17 16:32:52.312500
1923,-26.24,2021-12-17 16:32:52.328125
1924,-33.68,2021-12-17 16:32:52.343750
1925,-41.12,2021-12-17 16:32:52.359375
1926,-48.22,2021-12-17 16:32:52.375000
1927,-54.9,2021-12-17 16:32:52.390625
1928,-61.37,2021-12-17 16:32:52.406250
1929,-68.04,2021-12-17 16:32:52.421875
1930,-75.23,2021-12-17 16:32:52.437500
1931,-82.79,2021-12-17 16:32:52.453125
1932,-90.15,2021-12-17 16:32:52.468750
1933,-96.52,2021-12-17 16:32:52.484375
1934,-101.3,2021-12-17 16:32:52.500000
1935,-104.39,2021-12-17 16:32:52.515625
1936,-106.21,2021-12-17 16:32:52.531250
1937,-107.41,2021-12-17 16:32:52.546875
1938,-108.41,2021-12-17 16:32:52.562500
1939,-109.35,2021-12-17 16:32:52.578125
1940,-110.11,2021-12-17 16:32:52.593750
1941,-110.62,2021-12-17 16:32:52.609375
1942,-110.9,2021-12-17 16:32:52.625000
1943,-110.92,2021-12-17 16:32:52.640625
1944,-110.35,2021-12-17 16:32:52.656250
1945,-108.53,2021-12-17 16:32:52.671875
1946,-104.71,2021-12-17 16:32:52.687500
1947,-98.65,2021-12-17 16:32:52.703125
1948,-91.01,2021-12-17 16:32:52.718750
1949,-83.2,2021-12-17 16:32:52.734375
1950,-76.75,2021-12-17 16:32:52.750000
1951,-72.31,2021-12-17 16:32:52.765625
1952,-69.16,2021-12-17 16:32:52.781250
1953,-65.47,2021-12-17 16:32:52.796875
1954,-59.41,2021-12-17 16:32:52.812500
1955,-50.19,2021-12-17 16:32:52.828125
1956,-38.37,2021-12-17 16:32:52.843750
1957,-25.16,2021-12-17 16:32:52.859375
1958,-11.06,2021-12-17 16:32:52.875000
1959,5.0,2021-12-17 16:32:52.890625
1960,25.29,2021-12-17 16:32:52.906250
1961,51.77,2021-12-17 16:32:52.921875
1962,84.27,2021-12-17 16:32:52.937500
1963,119.72,2021-12-17 16:32:52.953125
1964,152.79,2021-12-17 16:32:52.968750
1965,177.92,2021-12-17 16:32:52.984375
1966,191.43,2021-12-17 16:32:53.000000
1967,192.69,2021-12-17 16:32:53.015625
1968,183.82,2021-12-17 16:32:53.031250
1969,168.38,2021-12-17 16:32:53.046875
1970,149.98,2021-12-17 16:32:53.062500
1971,131.34,2021-12-17 16:32:53.078125
1972,114.25,2021-12-17 16:32:53.093750
1973,99.83,2021-12-17 16:32:53.109375
1974,88.59,2021-12-17 16:32:53.125000
1975,80.44,2021-12-17 16:32:53.140625
1976,74.48,2021-12-17 16:32:53.156250
1977,69.04,2021-12-17 16:32:53.171875
1978,62.12,2021-12-17 16:32:53.187500
1979,52.21,2021-12-17 16:32:53.203125
1980,39.12,2021-12-17 16:32:53.218750
1981,24.49,2021-12-17 16:32:53.234375
1982,11.37,2021-12-17 16:32:53.250000
1983,2.87,2021-12-17 16:32:53.265625
1984,0.86,2021-12-17 16:32:53.281250
1985,4.75,2021-12-17 16:32:53.296875
1986,11.59,2021-12-17 16:32:53.312500
1987,17.28,2021-12-17 16:32:53.328125
1988,18.24,2021-12-17 16:32:53.343750
1989,12.37,2021-12-17 16:32:53.359375
1990,-0.85,2021-12-17 16:32:53.375000
1991,-21.07,2021-12-17 16:32:53.390625
1992,-47.51,2021-12-17 16:32:53.406250
1993,-78.75,2021-12-17 16:32:53.421875
1994,-111.97,2021-12-17 16:32:53.437500
1995,-142.48,2021-12-17 16:32:53.453125
1996,-164.36,2021-12-17 16:32:53.468750
1997,-172.21,2021-12-17 16:32:53.484375
1998,-163.31,2021-12-17 16:32:53.500000
1999,-138.86,2021-12-17 16:32:53.515625
2000,-103.67,2021-12-17 16:32:53.531250
2001,-64.33,2021-12-17 16:32:53.546875
2002,-27.0,2021-12-17 16:32:53.562500
2003,4.01,2021-12-17 16:32:53.578125
2004,26.65,2021-12-17 16:32:53.593750
2005,40.8,2021-12-17 16:32:53.609375
2006,47.28,2021-12-17 16:32:53.625000
2007,47.42,2021-12-17 16:32:53.640625
2008,42.62,2021-12-17 16:32:53.656250
2009,34.26,2021-12-17 16:32:53.671875
2010,23.65,2021-12-17 16:32:53.687500
2011,11.96,2021-12-17 16:32:53.703125
2012,0.23,2021-12-17 16:32:53.718750
2013,-10.53,2021-12-17 16:32:53.734375
2014,-19.41,2021-12-17 16:32:53.750000
2015,-25.87,2021-12-17 16:32:53.765625
2016,-29.83,2021-12-17 16:32:53.781250
2017,-31.68,2021-12-17 16:32:53.796875
2018,-32.09,2021-12-17 16:32:53.812500
2019,-31.73,2021-12-17 16:32:53.828125
2020,-30.99,2021-12-17 16:32:53.843750
2021,-29.88,2021-12-17 16:32:53.859375
2022,-28.22,2021-12-17 16:32:53.875000
2023,-25.9,2021-12-17 16:32:53.890625
2024,-23.21,2021-12-17 16:32:53.906250
2025,-20.77,2021-12-17 16:32:53.921875
2026,-19.39,2021-12-17 16:32:53.937500
2027,-19.59,2021-12-17 16:32:53.953125
2028,-21.31,2021-12-17 16:32:53.968750
2029,-23.77,2021-12-17 16:32:53.984375
2030,-25.77,2021-12-17 16:32:54.000000
2031,-26.16,2021-12-17 16:32:54.015625
2032,-24.37,2021-12-17 16:32:54.031250
2033,-20.63,2021-12-17 16:32:54.046875
2034,-15.77,2021-12-17 16:32:54.062500
2035,-10.81,2021-12-17 16:32:54.078125
2036,-6.55,2021-12-17 16:32:54.093750
2037,-3.28,2021-12-17 16:32:54.109375
2038,-0.88,2021-12-17 16:32:54.125000
2039,1.01,2021-12-17 16:32:54.140625
2040,2.71,2021-12-17 16:32:54.156250
2041,4.44,2021-12-17 16:32:54.171875
2042,6.27,2021-12-17 16:32:54.187500
2043,8.22,2021-12-17 16:32:54.203125
2044,10.33,2021-12-17 16:32:54.218750
2045,12.58,2021-12-17 16:32:54.234375
2046,14.9,2021-12-17 16:32:54.250000
2047,17.15,2021-12-17 16:32:54.265625
2048,19.25,2021-12-17 16:32:54.281250
2049,21.21,2021-12-17 16:32:54.296875
2050,23.1,2021-12-17 16:32:54.312500
2051,25.06,2021-12-17 16:32:54.328125
2052,27.07,2021-12-17 16:32:54.343750
2053,28.99,2021-12-17 16:32:54.359375
2054,30.59,2021-12-17 16:32:54.375000
2055,31.64,2021-12-17 16:32:54.390625
2056,32.08,2021-12-17 16:32:54.406250
2057,32.02,2021-12-17 16:32:54.421875
2058,31.69,2021-12-17 16:32:54.437500
2059,31.29,2021-12-17 16:32:54.453125
2060,30.95,2021-12-17 16:32:54.468750
2061,30.62,2021-12-17 16:32:54.484375
2062,30.13,2021-12-17 16:32:54.500000
2063,29.31,2021-12-17 16:32:54.515625
2064,28.0,2021-12-17 16:32:54.531250
2065,26.11,2021-12-17 16:32:54.546875
2066,23.61,2021-12-17 16:32:54.562500
2067,20.6,2021-12-17 16:32:54.578125
2068,17.26,2021-12-17 16:32:54.593750
2069,13.83,2021-12-17 16:32:54.609375
2070,10.59,2021-12-17 16:32:54.625000
2071,7.74,2021-12-17 16:32:54.640625
2072,5.33,2021-12-17 16:32:54.656250
2073,3.27,2021-12-17 16:32:54.671875
2074,1.37,2021-12-17 16:32:54.687500
2075,-0.6,2021-12-17 16:32:54.703125
2076,-2.78,2021-12-17 16:32:54.718750
2077,-5.29,2021-12-17 16:32:54.734375
2078,-8.14,2021-12-17 16:32:54.750000
2079,-11.28,2021-12-17 16:32:54.765625
2080,-14.48,2021-12-17 16:32:54.781250
2081,-17.37,2021-12-17 16:32:54.796875
2082,-19.43,2021-12-17 16:32:54.812500
2083,-20.16,2021-12-17 16:32:54.828125
2084,-19.27,2021-12-17 16:32:54.843750
2085,-16.8,2021-12-17 16:32:54.859375
2086,-13.19,2021-12-17 16:32:54.875000
2087,-9.1,2021-12-17 16:32:54.890625
2088,-5.21,2021-12-17 16:32:54.906250
2089,-1.98,2021-12-17 16:32:54.921875
2090,0.46,2021-12-17 16:32:54.937500
2091,2.18,2021-12-17 16:32:54.953125
2092,3.4,2021-12-17 16:32:54.968750
2093,4.31,2021-12-17 16:32:54.984375
2094,5.02,2021-12-17 16:32:55.000000
2095,5.59,2021-12-17 16:32:55.015625
2096,6.04,2021-12-17 16:32:55.031250
2097,6.42,2021-12-17 16:32:55.046875
2098,6.77,2021-12-17 16:32:55.062500
2099,7.09,2021-12-17 16:32:55.078125
2100,7.33,2021-12-17 16:32:55.093750
2101,7.49,2021-12-17 16:32:55.109375
2102,7.58,2021-12-17 16:32:55.125000
2103,7.69,2021-12-17 16:32:55.140625
2104,7.97,2021-12-17 16:32:55.156250
2105,8.48,2021-12-17 16:32:55.171875
2106,9.17,2021-12-17 16:32:55.187500
2107,9.85,2021-12-17 16:32:55.203125
2108,10.2,2021-12-17 16:32:55.218750
2109,10.0,2021-12-17 16:32:55.234375
2110,9.2,2021-12-17 16:32:55.250000
2111,7.96,2021-12-17 16:32:55.265625
2112,6.56,2021-12-17 16:32:55.281250
2113,5.28,2021-12-17 16:32:55.296875
2114,4.27,2021-12-17 16:32:55.312500
2115,3.54,2021-12-17 16:32:55.328125
2116,2.98,2021-12-17 16:32:55.343750
2117,2.42,2021-12-17 16:32:55.359375
2118,1.77,2021-12-17 16:32:55.375000
2119,0.98,2021-12-17 16:32:55.390625
2120,0.0,2021-12-17 16:32:55.406250
2121,-1.15,2021-12-17 16:32:55.421875
2122,-2.48,2021-12-17 16:32:55.437500
2123,-3.97,2021-12-17 16:32:55.453125
2124,-5.54,2021-12-17 16:32:55.468750
2125,-7.13,2021-12-17 16:32:55.484375
2126,-8.69,2021-12-17 16:32:55.500000
2127,-10.19,2021-12-17 16:32:55.515625
2128,-11.63,2021-12-17 16:32:55.531250
2129,-13.01,2021-12-17 16:32:55.546875
2130,-14.32,2021-12-17 16:32:55.562500
2131,-15.5,2021-12-17 16:32:55.578125
2132,-16.47,2021-12-17 16:32:55.593750
2133,-17.18,2021-12-17 16:32:55.609375
2134,-17.69,2021-12-17 16:32:55.625000
2135,-18.22,2021-12-17 16:32:55.640625
2136,-19.08,2021-12-17 16:32:55.656250
2137,-20.52,2021-12-17 16:32:55.671875
2138,-22.55,2021-12-17 16:32:55.687500
2139,-24.83,2021-12-17 16:32:55.703125
2140,-26.69,2021-12-17 16:32:55.718750
2141,-27.39,2021-12-17 16:32:55.734375
2142,-26.4,2021-12-17 16:32:55.750000
2143,-23.63,2021-12-17 16:32:55.765625
2144,-19.47,2021-12-17 16:32:55.781250
2145,-14.61,2021-12-17 16:32:55.796875
2146,-9.77,2021-12-17 16:32:55.812500
2147,-5.51,2021-12-17 16:32:55.828125
2148,-2.09,2021-12-17 16:32:55.843750
2149,0.43,2021-12-17 16:32:55.859375
2150,2.09,2021-12-17 16:32:55.875000
2151,2.98,2021-12-17 16:32:55.890625
2152,3.26,2021-12-17 16:32:55.906250
2153,3.2,2021-12-17 16:32:55.921875
2154,3.12,2021-12-17 16:32:55.937500
2155,3.31,2021-12-17 16:32:55.953125
2156,3.89,2021-12-17 16:32:55.968750
2157,4.82,2021-12-17 16:32:55.984375
2158,5.89,2021-12-17 16:32:56.000000
2159,6.9,2021-12-17 16:32:56.015625
2160,7.75,2021-12-17 16:32:56.031250
2161,8.52,2021-12-17 16:32:56.046875
2162,9.38,2021-12-17 16:32:56.062500
2163,10.52,2021-12-17 16:32:56.078125
2164,11.95,2021-12-17 16:32:56.093750
2165,13.58,2021-12-17 16:32:56.109375
2166,15.18,2021-12-17 16:32:56.125000
2167,16.54,2021-12-17 16:32:56.140625
2168,17.46,2021-12-17 16:32:56.156250
2169,17.84,2021-12-17 16:32:56.171875
2170,17.65,2021-12-17 16:32:56.187500
2171,16.89,2021-12-17 16:32:56.203125
2172,15.64,2021-12-17 16:32:56.218750
2173,14.04,2021-12-17 16:32:56.234375
2174,12.31,2021-12-17 16:32:56.250000
2175,10.65,2021-12-17 16:32:56.265625
2176,9.26,2021-12-17 16:32:56.281250
2177,8.17,2021-12-17 16:32:56.296875
2178,7.27,2021-12-17 16:32:56.312500
2179,6.35,2021-12-17 16:32:56.328125
2180,5.15,2021-12-17 16:32:56.343750
2181,3.55,2021-12-17 16:32:56.359375
2182,1.61,2021-12-17 16:32:56.375000
2183,-0.43,2021-12-17 16:32:56.390625
2184,-2.28,2021-12-17 16:32:56.406250
2185,-3.71,2021-12-17 16:32:56.421875
2186,-4.73,2021-12-17 16:32:56.437500
2187,-5.51,2021-12-17 16:32:56.453125
2188,-6.36,2021-12-17 16:32:56.468750
2189,-7.54,2021-12-17 16:32:56.484375
2190,-9.19,2021-12-17 16:32:56.500000
2191,-11.23,2021-12-17 16:32:56.515625
2192,-13.46,2021-12-17 16:32:56.531250
2193,-15.55,2021-12-17 16:32:56.546875
2194,-17.13,2021-12-17 16:32:56.562500
2195,-17.84,2021-12-17 16:32:56.578125
2196,-17.39,2021-12-17 16:32:56.593750
2197,-15.65,2021-12-17 16:32:56.609375
2198,-12.67,2021-12-17 16:32:56.625000
2199,-8.77,2021-12-17 16:32:56.640625
2200,-4.46,2021-12-17 16:32:56.656250
2201,-0.33,2021-12-17 16:32:56.671875
2202,3.13,2021-12-17 16:32:56.687500
2203,5.66,2021-12-17 16:32:56.703125
2204,7.3,2021-12-17 16:32:56.718750
2205,8.25,2021-12-17 16:32:56.734375
2206,8.81,2021-12-17 16:32:56.750000
2207,9.22,2021-12-17 16:32:56.765625
2208,9.58,2021-12-17 16:32:56.781250
2209,9.86,2021-12-17 16:32:56.796875
2210,10.0,2021-12-17 16:32:56.812500
2211,9.93,2021-12-17 16:32:56.828125
2212,9.67,2021-12-17 16:32:56.843750
2213,9.25,2021-12-17 16:32:56.859375
2214,8.75,2021-12-17 16:32:56.875000
2215,8.2,2021-12-17 16:32:56.890625
2216,7.67,2021-12-17 16:32:56.906250
2217,7.19,2021-12-17 16:32:56.921875
2218,6.91,2021-12-17 16:32:56.937500
2219,6.92,2021-12-17 16:32:56.953125
2220,7.27,2021-12-17 16:32:56.968750
2221,7.85,2021-12-17 16:32:56.984375
2222,8.45,2021-12-17 16:32:57.000000
2223,8.81,2021-12-17 16:32:57.015625
2224,8.76,2021-12-17 16:32:57.031250
2225,8.24,2021-12-17 16:32:57.046875
2226,7.34,2021-12-17 16:32:57.062500
2227,6.21,2021-12-17 16:32:57.078125
2228,4.98,2021-12-17 16:32:57.093750
2229,3.74,2021-12-17 16:32:57.109375
2230,2.48,2021-12-17 16:32:57.125000
2231,1.19,2021-12-17 16:32:57.140625
2232,-0.17,2021-12-17 16:32:57.156250
2233,-1.59,2021-12-17 16:32:57.171875
2234,-3.04,2021-12-17 16:32:57.187500
2235,-4.48,2021-12-17 16:32:57.203125
2236,-5.88,2021-12-17 16:32:57.218750
2237,-7.22,2021-12-17 16:32:57.234375
2238,-8.5,2021-12-17 16:32:57.250000
2239,-9.79,2021-12-17 16:32:57.265625
2240,-11.19,2021-12-17 16:32:57.281250
2241,-12.84,2021-12-17 16:32:57.296875
2242,-14.78,2021-12-17 16:32:57.312500
2243,-16.91,2021-12-17 16:32:57.328125
2244,-18.96,2021-12-17 16:32:57.343750
2245,-20.53,2021-12-17 16:32:57.359375
2246,-21.08,2021-12-17 16:32:57.375000
2247,-20.26,2021-12-17 16:32:57.390625
2248,-17.96,2021-12-17 16:32:57.406250
2249,-14.41,2021-12-17 16:32:57.421875
2250,-10.15,2021-12-17 16:32:57.437500
2251,-5.84,2021-12-17 16:32:57.453125
2252,-1.99,2021-12-17 16:32:57.468750
2253,1.12,2021-12-17 16:32:57.484375
2254,3.51,2021-12-17 16:32:57.500000
2255,5.38,2021-12-17 16:32:57.515625
2256,6.93,2021-12-17 16:32:57.531250
2257,8.26,2021-12-17 16:32:57.546875
2258,9.31,2021-12-17 16:32:57.562500
2259,9.99,2021-12-17 16:32:57.578125
2260,10.25,2021-12-17 16:32:57.593750
2261,10.09,2021-12-17 16:32:57.609375
2262,9.65,2021-12-17 16:32:57.625000
2263,9.06,2021-12-17 16:32:57.640625
2264,8.5,2021-12-17 16:32:57.656250
2265,8.06,2021-12-17 16:32:57.671875
2266,7.79,2021-12-17 16:32:57.687500
2267,7.69,2021-12-17 16:32:57.703125
2268,7.74,2021-12-17 16:32:57.718750
2269,7.88,2021-12-17 16:32:57.734375
2270,8.04,2021-12-17 16:32:57.750000
2271,8.17,2021-12-17 16:32:57.765625
2272,8.24,2021-12-17 16:32:57.781250
2273,8.21,2021-12-17 16:32:57.796875
2274,8.04,2021-12-17 16:32:57.812500
2275,7.72,2021-12-17 16:32:57.828125
2276,7.24,2021-12-17 16:32:57.843750
2277,6.63,2021-12-17 16:32:57.859375
2278,5.93,2021-12-17 16:32:57.875000
2279,5.19,2021-12-17 16:32:57.890625
2280,4.43,2021-12-17 16:32:57.906250
2281,3.61,2021-12-17 16:32:57.921875
2282,2.67,2021-12-17 16:32:57.937500
2283,1.53,2021-12-17 16:32:57.953125
2284,0.19,2021-12-17 16:32:57.968750
2285,-1.26,2021-12-17 16:32:57.984375
2286,-2.72,2021-12-17 16:32:58.000000
2287,-4.06,2021-12-17 16:32:58.015625
2288,-5.25,2021-12-17 16:32:58.031250
2289,-6.35,2021-12-17 16:32:58.046875
2290,-7.53,2021-12-17 16:32:58.062500
2291,-8.97,2021-12-17 16:32:58.078125
2292,-10.85,2021-12-17 16:32:58.093750
2293,-13.2,2021-12-17 16:32:58.109375
2294,-15.88,2021-12-17 16:32:58.125000
2295,-18.51,2021-12-17 16:32:58.140625
2296,-20.52,2021-12-17 16:32:58.156250
2297,-21.27,2021-12-17 16:32:58.171875
2298,-20.27,2021-12-17 16:32:58.187500
2299,-17.41,2021-12-17 16:32:58.203125
2300,-13.01,2021-12-17 16:32:58.218750
2301,-7.77,2021-12-17 16:32:58.234375
2302,-2.5,2021-12-17 16:32:58.250000
2303,2.18,2021-12-17 16:32:58.265625
2304,5.98,2021-12-17 16:32:58.281250
2305,8.92,2021-12-17 16:32:58.296875
2306,11.25,2021-12-17 16:32:58.312500
2307,13.17,2021-12-17 16:32:58.328125
2308,14.85,2021-12-17 16:32:58.343750
2309,16.33,2021-12-17 16:32:58.359375
2310,17.64,2021-12-17 16:32:58.375000
2311,18.82,2021-12-17 16:32:58.390625
2312,19.84,2021-12-17 16:32:58.406250
2313,20.66,2021-12-17 16:32:58.421875
2314,21.23,2021-12-17 16:32:58.437500
2315,21.55,2021-12-17 16:32:58.453125
2316,21.81,2021-12-17 16:32:58.468750
2317,22.34,2021-12-17 16:32:58.484375
2318,23.46,2021-12-17 16:32:58.500000
2319,25.31,2021-12-17 16:32:58.515625
2320,27.73,2021-12-17 16:32:58.531250
2321,30.29,2021-12-17 16:32:58.546875
2322,32.48,2021-12-17 16:32:58.562500
2323,34.05,2021-12-17 16:32:58.578125
2324,35.05,2021-12-17 16:32:58.593750
2325,35.89,2021-12-17 16:32:58.609375
2326,37.03,2021-12-17 16:32:58.625000
2327,38.78,2021-12-17 16:32:58.640625
2328,41.09,2021-12-17 16:32:58.656250
2329,43.59,2021-12-17 16:32:58.671875
2330,45.72,2021-12-17 16:32:58.687500
2331,46.95,2021-12-17 16:32:58.703125
2332,46.79,2021-12-17 16:32:58.718750
2333,44.86,2021-12-17 16:32:58.734375
2334,40.99,2021-12-17 16:32:58.750000
2335,35.47,2021-12-17 16:32:58.765625
2336,29.27,2021-12-17 16:32:58.781250
2337,24.01,2021-12-17 16:32:58.796875
2338,21.54,2021-12-17 16:32:58.812500
2339,23.07,2021-12-17 16:32:58.828125
2340,28.43,2021-12-17 16:32:58.843750
2341,35.77,2021-12-17 16:32:58.859375
2342,42.04,2021-12-17 16:32:58.875000
2343,44.14,2021-12-17 16:32:58.890625
2344,40.14,2021-12-17 16:32:58.906250
2345,29.97,2021-12-17 16:32:58.921875
2346,15.24,2021-12-17 16:32:58.937500
2347,-1.59,2021-12-17 16:32:58.953125
2348,-18.21,2021-12-17 16:32:58.968750
2349,-32.99,2021-12-17 16:32:58.984375
2350,-45.05,2021-12-17 16:32:59.000000
2351,-53.69,2021-12-17 16:32:59.015625
2352,-58.02,2021-12-17 16:32:59.031250
2353,-56.87,2021-12-17 16:32:59.046875
2354,-49.21,2021-12-17 16:32:59.062500
2355,-34.87,2021-12-17 16:32:59.078125
2356,-14.9,2021-12-17 16:32:59.093750
2357,8.7,2021-12-17 16:32:59.109375
2358,33.78,2021-12-17 16:32:59.125000
2359,58.89,2021-12-17 16:32:59.140625
2360,83.39,2021-12-17 16:32:59.156250
2361,106.7,2021-12-17 16:32:59.171875
2362,127.38,2021-12-17 16:32:59.187500
2363,142.54,2021-12-17 16:32:59.203125
2364,148.42,2021-12-17 16:32:59.218750
2365,141.91,2021-12-17 16:32:59.234375
2366,122.29,2021-12-17 16:32:59.250000
2367,92.08,2021-12-17 16:32:59.265625
2368,56.52,2021-12-17 16:32:59.281250
2369,21.88,2021-12-17 16:32:59.296875
2370,-6.59,2021-12-17 16:32:59.312500
2371,-25.92,2021-12-17 16:32:59.328125
2372,-35.6,2021-12-17 16:32:59.343750
2373,-36.83,2021-12-17 16:32:59.359375
2374,-31.55,2021-12-17 16:32:59.375000
2375,-21.81,2021-12-17 16:32:59.390625
2376,-9.53,2021-12-17 16:32:59.406250
2377,3.46,2021-12-17 16:32:59.421875
2378,15.48,2021-12-17 16:32:59.437500
2379,25.18,2021-12-17 16:32:59.453125
2380,31.62,2021-12-17 16:32:59.468750
2381,34.43,2021-12-17 16:32:59.484375
2382,33.71,2021-12-17 16:32:59.500000
2383,30.06,2021-12-17 16:32:59.515625
2384,24.36,2021-12-17 16:32:59.531250
2385,17.66,2021-12-17 16:32:59.546875
2386,10.93,2021-12-17 16:32:59.562500
2387,4.92,2021-12-17 16:32:59.578125
2388,0.08,2021-12-17 16:32:59.593750
2389,-3.41,2021-12-17 16:32:59.609375
2390,-5.67,2021-12-17 16:32:59.625000
2391,-7.03,2021-12-17 16:32:59.640625
2392,-8.05,2021-12-17 16:32:59.656250
2393,-9.5,2021-12-17 16:32:59.671875
2394,-12.18,2021-12-17 16:32:59.687500
2395,-16.75,2021-12-17 16:32:59.703125
2396,-23.46,2021-12-17 16:32:59.718750
2397,-32.03,2021-12-17 16:32:59.734375
2398,-41.71,2021-12-17 16:32:59.750000
2399,-51.4,2021-12-17 16:32:59.765625
2400,-60.01,2021-12-17 16:32:59.781250
2401,-66.66,2021-12-17 16:32:59.796875
2402,-70.98,2021-12-17 16:32:59.812500
2403,-73.07,2021-12-17 16:32:59.828125
2404,-73.34,2021-12-17 16:32:59.843750
2405,-72.25,2021-12-17 16:32:59.859375
2406,-70.07,2021-12-17 16:32:59.875000
2407,-66.89,2021-12-17 16:32:59.890625
2408,-62.7,2021-12-17 16:32:59.906250
2409,-57.56,2021-12-17 16:32:59.921875
2410,-51.75,2021-12-17 16:32:59.937500
2411,-45.66,2021-12-17 16:32:59.953125
2412,-39.61,2021-12-17 16:32:59.968750
2413,-33.72,2021-12-17 16:32:59.984375
2414,-27.84,2021-12-17 16:33:00.000000
2415,-21.8,2021-12-17 16:33:00.015625
2416,-15.63,2021-12-17 16:33:00.031250
2417,-9.72,2021-12-17 16:33:00.046875
2418,-4.64,2021-12-17 16:33:00.062500
2419,-0.88,2021-12-17 16:33:00.078125
2420,1.42,2021-12-17 16:33:00.093750
2421,2.51,2021-12-17 16:33:00.109375
2422,2.93,2021-12-17 16:33:00.125000
2423,3.19,2021-12-17 16:33:00.140625
2424,3.69,2021-12-17 16:33:00.156250
2425,4.62,2021-12-17 16:33:00.171875
2426,5.96,2021-12-17 16:33:00.187500
2427,7.5,2021-12-17 16:33:00.203125
2428,8.93,2021-12-17 16:33:00.218750
2429,9.88,2021-12-17 16:33:00.234375
2430,10.09,2021-12-17 16:33:00.250000
2431,9.51,2021-12-17 16:33:00.265625
2432,8.32,2021-12-17 16:33:00.281250
2433,6.84,2021-12-17 16:33:00.296875
2434,5.35,2021-12-17 16:33:00.312500
2435,3.97,2021-12-17 16:33:00.328125
2436,2.66,2021-12-17 16:33:00.343750
2437,1.36,2021-12-17 16:33:00.359375
2438,0.16,2021-12-17 16:33:00.375000
2439,-0.7,2021-12-17 16:33:00.390625
2440,-0.89,2021-12-17 16:33:00.406250
2441,-0.3,2021-12-17 16:33:00.421875
2442,0.85,2021-12-17 16:33:00.437500
2443,2.02,2021-12-17 16:33:00.453125
2444,2.63,2021-12-17 16:33:00.468750
2445,2.4,2021-12-17 16:33:00.484375
2446,1.48,2021-12-17 16:33:00.500000
2447,0.5,2021-12-17 16:33:00.515625
2448,0.17,2021-12-17 16:33:00.531250
2449,0.89,2021-12-17 16:33:00.546875
2450,2.56,2021-12-17 16:33:00.562500
2451,4.69,2021-12-17 16:33:00.578125
2452,6.67,2021-12-17 16:33:00.593750
2453,8.19,2021-12-17 16:33:00.609375
2454,9.4,2021-12-17 16:33:00.625000
2455,10.76,2021-12-17 16:33:00.640625
2456,12.78,2021-12-17 16:33:00.656250
2457,15.69,2021-12-17 16:33:00.671875
2458,19.36,2021-12-17 16:33:00.687500
2459,23.41,2021-12-17 16:33:00.703125
2460,27.43,2021-12-17 16:33:00.718750
2461,31.03,2021-12-17 16:33:00.734375
2462,33.89,2021-12-17 16:33:00.750000
2463,35.65,2021-12-17 16:33:00.765625
2464,35.89,2021-12-17 16:33:00.781250
2465,34.22,2021-12-17 16:33:00.796875
2466,30.52,2021-12-17 16:33:00.812500
2467,25.06,2021-12-17 16:33:00.828125
2468,18.4,2021-12-17 16:33:00.843750
2469,11.18,2021-12-17 16:33:00.859375
2470,3.8,2021-12-17 16:33:00.875000
2471,-3.62,2021-12-17 16:33:00.890625
2472,-11.07,2021-12-17 16:33:00.906250
2473,-18.32,2021-12-17 16:33:00.921875
2474,-24.81,2021-12-17 16:33:00.937500
2475,-29.72,2021-12-17 16:33:00.953125
2476,-32.46,2021-12-17 16:33:00.968750
2477,-32.99,2021-12-17 16:33:00.984375
2478,-32.06,2021-12-17 16:33:01.000000
2479,-30.9,2021-12-17 16:33:01.015625
2480,-30.72,2021-12-17 16:33:01.031250
2481,-32.19,2021-12-17 16:33:01.046875
2482,-35.23,2021-12-17 16:33:01.062500
2483,-39.12,2021-12-17 16:33:01.078125
2484,-42.9,2021-12-17 16:33:01.093750
2485,-45.74,2021-12-17 16:33:01.109375
2486,-47.28,2021-12-17 16:33:01.125000
2487,-47.55,2021-12-17 16:33:01.140625
2488,-46.89,2021-12-17 16:33:01.156250
2489,-45.64,2021-12-17 16:33:01.171875
2490,-43.99,2021-12-17 16:33:01.187500
2491,-41.85,2021-12-17 16:33:01.203125
2492,-38.9,2021-12-17 16:33:01.218750
2493,-34.9,2021-12-17 16:33:01.234375
2494,-29.87,2021-12-17 16:33:01.250000
2495,-24.36,2021-12-17 16:33:01.265625
2496,-19.25,2021-12-17 16:33:01.281250
2497,-15.5,2021-12-17 16:33:01.296875
2498,-13.67,2021-12-17 16:33:01.312500
2499,-13.66,2021-12-17 16:33:01.328125
2500,-14.75,2021-12-17 16:33:01.343750
2501,-15.86,2021-12-17 16:33:01.359375
2502,-15.91,2021-12-17 16:33:01.375000
2503,-14.14,2021-12-17 16:33:01.390625
2504,-10.23,2021-12-17 16:33:01.406250
2505,-4.52,2021-12-17 16:33:01.421875
2506,1.81,2021-12-17 16:33:01.437500
2507,6.65,2021-12-17 16:33:01.453125
2508,7.13,2021-12-17 16:33:01.468750
2509,0.55,2021-12-17 16:33:01.484375
2510,-14.57,2021-12-17 16:33:01.500000
2511,-37.53,2021-12-17 16:33:01.515625
2512,-65.53,2021-12-17 16:33:01.531250
2513,-94.47,2021-12-17 16:33:01.546875
2514,-120.48,2021-12-17 16:33:01.562500
2515,-141.28,2021-12-17 16:33:01.578125
2516,-156.72,2021-12-17 16:33:01.593750
2517,-168.36,2021-12-17 16:33:01.609375
2518,-178.35,2021-12-17 16:33:01.625000
2519,-188.31,2021-12-17 16:33:01.640625
2520,-198.68,2021-12-17 16:33:01.656250
2521,-208.87,2021-12-17 16:33:01.671875
2522,-217.55,2021-12-17 16:33:01.687500
2523,-223.13,2021-12-17 16:33:01.703125
2524,-224.17,2021-12-17 16:33:01.718750
2525,-219.59,2021-12-17 16:33:01.734375
2526,-208.87,2021-12-17 16:33:01.750000
2527,-192.01,2021-12-17 16:33:01.765625
2528,-169.65,2021-12-17 16:33:01.781250
2529,-143.0,2021-12-17 16:33:01.796875
2530,-114.08,2021-12-17 16:33:01.812500
2531,-84.91,2021-12-17 16:33:01.828125
2532,-57.06,2021-12-17 16:33:01.843750
2533,-31.02,2021-12-17 16:33:01.859375
2534,-5.87,2021-12-17 16:33:01.875000
2535,20.43,2021-12-17 16:33:01.890625
2536,50.0,2021-12-17 16:33:01.906250
2537,83.75,2021-12-17 16:33:01.921875
2538,120.1,2021-12-17 16:33:01.937500
2539,154.24,2021-12-17 16:33:01.953125
2540,180.29,2021-12-17 16:33:01.968750
2541,193.54,2021-12-17 16:33:01.984375
2542,192.57,2021-12-17 16:33:02.000000
2543,179.82,2021-12-17 16:33:02.015625
2544,160.42,2021-12-17 16:33:02.031250
2545,139.98,2021-12-17 16:33:02.046875
2546,122.66,2021-12-17 16:33:02.062500
2547,109.57,2021-12-17 16:33:02.078125
2548,98.1,2021-12-17 16:33:02.093750
2549,84.68,2021-12-17 16:33:02.109375
2550,66.41,2021-12-17 16:33:02.125000
2551,42.25,2021-12-17 16:33:02.140625
2552,13.04,2021-12-17 16:33:02.156250
2553,-19.34,2021-12-17 16:33:02.171875
2554,-52.52,2021-12-17 16:33:02.187500
2555,-83.56,2021-12-17 16:33:02.203125
2556,-109.66,2021-12-17 16:33:02.218750
2557,-129.21,2021-12-17 16:33:02.234375
2558,-140.57,2021-12-17 16:33:02.250000
2559,-142.73,2021-12-17 16:33:02.265625
2560,-136.29,2021-12-17 16:33:02.281250
2561,-123.98,2021-12-17 16:33:02.296875
2562,-110.68,2021-12-17 16:33:02.312500
2563,-101.84,2021-12-17 16:33:02.328125
2564,-100.94,2021-12-17 16:33:02.343750
2565,-98.64,2021-12-17 16:33:02.359375
2566,-86.42,2021-12-17 16:33:02.375000
2567,-58.64,2021-12-17 16:33:02.390625
2568,-16.94,2021-12-17 16:33:02.406250
2569,30.57,2021-12-17 16:33:02.421875
2570,74.04,2021-12-17 16:33:02.437500
2571,106.12,2021-12-17 16:33:02.453125
2572,122.04,2021-12-17 16:33:02.468750
2573,126.48,2021-12-17 16:33:02.484375
2574,125.43,2021-12-17 16:33:02.500000
2575,122.96,2021-12-17 16:33:02.515625
2576,121.73,2021-12-17 16:33:02.531250
2577,122.6,2021-12-17 16:33:02.546875
2578,125.13,2021-12-17 16:33:02.562500
2579,129.05,2021-12-17 16:33:02.578125
2580,132.98,2021-12-17 16:33:02.593750
2581,135.52,2021-12-17 16:33:02.609375
2582,136.37,2021-12-17 16:33:02.625000
2583,135.42,2021-12-17 16:33:02.640625
2584,131.9,2021-12-17 16:33:02.656250
2585,125.34,2021-12-17 16:33:02.671875
2586,115.44,2021-12-17 16:33:02.687500
2587,102.49,2021-12-17 16:33:02.703125
2588,87.64,2021-12-17 16:33:02.718750
2589,72.53,2021-12-17 16:33:02.734375
2590,59.09,2021-12-17 16:33:02.750000
2591,49.16,2021-12-17 16:33:02.765625
2592,43.18,2021-12-17 16:33:02.781250
2593,39.8,2021-12-17 16:33:02.796875
2594,37.06,2021-12-17 16:33:02.812500
2595,32.89,2021-12-17 16:33:02.828125
2596,26.03,2021-12-17 16:33:02.843750
2597,16.43,2021-12-17 16:33:02.859375
2598,5.04,2021-12-17 16:33:02.875000
2599,-6.28,2021-12-17 16:33:02.890625
2600,-15.13,2021-12-17 16:33:02.906250
2601,-19.71,2021-12-17 16:33:02.921875
2602,-19.43,2021-12-17 16:33:02.937500
2603,-14.75,2021-12-17 16:33:02.953125
2604,-6.93,2021-12-17 16:33:02.968750
2605,2.4,2021-12-17 16:33:02.984375
2606,11.87,2021-12-17 16:33:03.000000
2607,20.44,2021-12-17 16:33:03.015625
2608,27.51,2021-12-17 16:33:03.031250
2609,32.62,2021-12-17 16:33:03.046875
2610,34.97,2021-12-17 16:33:03.062500
2611,33.48,2021-12-17 16:33:03.078125
2612,27.35,2021-12-17 16:33:03.093750
2613,16.63,2021-12-17 16:33:03.109375
2614,2.59,2021-12-17 16:33:03.125000
2615,-12.54,2021-12-17 16:33:03.140625
2616,-26.28,2021-12-17 16:33:03.156250
2617,-36.75,2021-12-17 16:33:03.171875
2618,-43.3,2021-12-17 16:33:03.187500
2619,-46.54,2021-12-17 16:33:03.203125
2620,-47.9,2021-12-17 16:33:03.218750
2621,-48.76,2021-12-17 16:33:03.234375
2622,-50.04,2021-12-17 16:33:03.250000
2623,-51.96,2021-12-17 16:33:03.265625
2624,-54.38,2021-12-17 16:33:03.281250
2625,-57.07,2021-12-17 16:33:03.296875
2626,-59.93,2021-12-17 16:33:03.312500
2627,-62.92,2021-12-17 16:33:03.328125
2628,-65.96,2021-12-17 16:33:03.343750
2629,-68.88,2021-12-17 16:33:03.359375
2630,-71.36,2021-12-17 16:33:03.375000
2631,-73.0,2021-12-17 16:33:03.390625
2632,-73.32,2021-12-17 16:33:03.406250
2633,-71.72,2021-12-17 16:33:03.421875
2634,-67.59,2021-12-17 16:33:03.437500
2635,-60.52,2021-12-17 16:33:03.453125
2636,-50.63,2021-12-17 16:33:03.468750
2637,-38.73,2021-12-17 16:33:03.484375
2638,-26.22,2021-12-17 16:33:03.500000
2639,-14.58,2021-12-17 16:33:03.515625
2640,-4.75,2021-12-17 16:33:03.531250
2641,3.15,2021-12-17 16:33:03.546875
2642,9.77,2021-12-17 16:33:03.562500
2643,15.88,2021-12-17 16:33:03.578125
2644,21.85,2021-12-17 16:33:03.593750
2645,27.34,2021-12-17 16:33:03.609375
2646,31.66,2021-12-17 16:33:03.625000
2647,34.26,2021-12-17 16:33:03.640625
2648,35.23,2021-12-17 16:33:03.656250
2649,35.32,2021-12-17 16:33:03.671875
2650,35.52,2021-12-17 16:33:03.687500
2651,36.52,2021-12-17 16:33:03.703125
2652,38.32,2021-12-17 16:33:03.718750
2653,40.4,2021-12-17 16:33:03.734375
2654,42.09,2021-12-17 16:33:03.750000
2655,43.05,2021-12-17 16:33:03.765625
2656,43.45,2021-12-17 16:33:03.781250
2657,43.75,2021-12-17 16:33:03.796875
2658,44.39,2021-12-17 16:33:03.812500
2659,45.44,2021-12-17 16:33:03.828125
2660,46.55,2021-12-17 16:33:03.843750
2661,47.2,2021-12-17 16:33:03.859375
2662,46.97,2021-12-17 16:33:03.875000
2663,45.77,2021-12-17 16:33:03.890625
2664,43.85,2021-12-17 16:33:03.906250
2665,41.54,2021-12-17 16:33:03.921875
2666,39.16,2021-12-17 16:33:03.937500
2667,36.81,2021-12-17 16:33:03.953125
2668,34.42,2021-12-17 16:33:03.968750
2669,31.84,2021-12-17 16:33:03.984375
2670,28.98,2021-12-17 16:33:04.000000
2671,25.8,2021-12-17 16:33:04.015625
2672,22.34,2021-12-17 16:33:04.031250
2673,18.66,2021-12-17 16:33:04.046875
2674,14.83,2021-12-17 16:33:04.062500
2675,10.93,2021-12-17 16:33:04.078125
2676,7.08,2021-12-17 16:33:04.093750
2677,3.45,2021-12-17 16:33:04.109375
2678,0.21,2021-12-17 16:33:04.125000
2679,-2.51,2021-12-17 16:33:04.140625
2680,-4.71,2021-12-17 16:33:04.156250
2681,-6.54,2021-12-17 16:33:04.171875
2682,-8.23,2021-12-17 16:33:04.187500
2683,-10.04,2021-12-17 16:33:04.203125
2684,-12.12,2021-12-17 16:33:04.218750
2685,-14.35,2021-12-17 16:33:04.234375
2686,-16.4,2021-12-17 16:33:04.250000
2687,-17.81,2021-12-17 16:33:04.265625
2688,-18.15,2021-12-17 16:33:04.281250
2689,-17.22,2021-12-17 16:33:04.296875
2690,-15.14,2021-12-17 16:33:04.312500
2691,-12.26,2021-12-17 16:33:04.328125
2692,-9.05,2021-12-17 16:33:04.343750
2693,-5.91,2021-12-17 16:33:04.359375
2694,-3.09,2021-12-17 16:33:04.375000
2695,-0.68,2021-12-17 16:33:04.390625
2696,1.37,2021-12-17 16:33:04.406250
2697,3.11,2021-12-17 16:33:04.421875
2698,4.62,2021-12-17 16:33:04.437500
2699,5.88,2021-12-17 16:33:04.453125
2700,6.88,2021-12-17 16:33:04.468750
2701,7.58,2021-12-17 16:33:04.484375
2702,7.96,2021-12-17 16:33:04.500000
2703,8.03,2021-12-17 16:33:04.515625
2704,7.83,2021-12-17 16:33:04.531250
2705,7.43,2021-12-17 16:33:04.546875
2706,6.91,2021-12-17 16:33:04.562500
2707,6.35,2021-12-17 16:33:04.578125
2708,5.82,2021-12-17 16:33:04.593750
2709,5.35,2021-12-17 16:33:04.609375
2710,4.97,2021-12-17 16:33:04.625000
2711,4.67,2021-12-17 16:33:04.640625
2712,4.48,2021-12-17 16:33:04.656250
2713,4.38,2021-12-17 16:33:04.671875
2714,4.34,2021-12-17 16:33:04.687500
2715,4.29,2021-12-17 16:33:04.703125
2716,4.15,2021-12-17 16:33:04.718750
2717,3.85,2021-12-17 16:33:04.734375
2718,3.38,2021-12-17 16:33:04.750000
2719,2.8,2021-12-17 16:33:04.765625
2720,2.25,2021-12-17 16:33:04.781250
2721,1.91,2021-12-17 16:33:04.796875
2722,1.96,2021-12-17 16:33:04.812500
2723,2.49,2021-12-17 16:33:04.828125
2724,3.49,2021-12-17 16:33:04.843750
2725,4.75,2021-12-17 16:33:04.859375
2726,6.02,2021-12-17 16:33:04.875000
2727,6.98,2021-12-17 16:33:04.890625
2728,7.43,2021-12-17 16:33:04.906250
2729,7.28,2021-12-17 16:33:04.921875
2730,6.61,2021-12-17 16:33:04.937500
2731,5.59,2021-12-17 16:33:04.953125
2732,4.42,2021-12-17 16:33:04.968750
2733,3.24,2021-12-17 16:33:04.984375
2734,2.15,2021-12-17 16:33:05.000000
2735,1.21,2021-12-17 16:33:05.015625
2736,0.43,2021-12-17 16:33:05.031250
2737,-0.24,2021-12-17 16:33:05.046875
2738,-0.94,2021-12-17 16:33:05.062500
2739,-1.88,2021-12-17 16:33:05.078125
2740,-3.29,2021-12-17 16:33:05.093750
2741,-5.2,2021-12-17 16:33:05.109375
2742,-7.36,2021-12-17 16:33:05.125000
2743,-9.21,2021-12-17 16:33:05.140625
2744,-10.01,2021-12-17 16:33:05.156250
2745,-9.12,2021-12-17 16:33:05.171875
2746,-6.25,2021-12-17 16:33:05.187500
2747,-1.52,2021-12-17 16:33:05.203125
2748,4.55,2021-12-17 16:33:05.218750
2749,11.23,2021-12-17 16:33:05.234375
2750,17.77,2021-12-17 16:33:05.250000
2751,23.5,2021-12-17 16:33:05.265625
2752,27.82,2021-12-17 16:33:05.281250
2753,30.23,2021-12-17 16:33:05.296875
2754,30.45,2021-12-17 16:33:05.312500
2755,28.57,2021-12-17 16:33:05.328125
2756,25.15,2021-12-17 16:33:05.343750
2757,21.21,2021-12-17 16:33:05.359375
2758,18.01,2021-12-17 16:33:05.375000
2759,16.59,2021-12-17 16:33:05.390625
2760,17.36,2021-12-17 16:33:05.406250
2761,19.84,2021-12-17 16:33:05.421875
2762,22.8,2021-12-17 16:33:05.437500
2763,24.65,2021-12-17 16:33:05.453125
2764,24.07,2021-12-17 16:33:05.468750
2765,20.65,2021-12-17 16:33:05.484375
2766,15.15,2021-12-17 16:33:05.500000
2767,9.37,2021-12-17 16:33:05.515625
2768,5.56,2021-12-17 16:33:05.531250
2769,5.7,2021-12-17 16:33:05.546875
2770,10.74,2021-12-17 16:33:05.562500
2771,20.3,2021-12-17 16:33:05.578125
2772,32.67,2021-12-17 16:33:05.593750
2773,45.39,2021-12-17 16:33:05.609375
2774,56.01,2021-12-17 16:33:05.625000
2775,62.89,2021-12-17 16:33:05.640625
2776,65.79,2021-12-17 16:33:05.656250
2777,65.79,2021-12-17 16:33:05.671875
2778,64.89,2021-12-17 16:33:05.687500
2779,65.14,2021-12-17 16:33:05.703125
2780,67.72,2021-12-17 16:33:05.718750
2781,72.46,2021-12-17 16:33:05.734375
2782,77.83,2021-12-17 16:33:05.750000
2783,81.53,2021-12-17 16:33:05.765625
2784,81.36,2021-12-17 16:33:05.781250
2785,76.14,2021-12-17 16:33:05.796875
2786,66.19,2021-12-17 16:33:05.812500
2787,53.66,2021-12-17 16:33:05.828125
2788,42.38,2021-12-17 16:33:05.843750
2789,37.34,2021-12-17 16:33:05.859375
2790,43.28,2021-12-17 16:33:05.875000
2791,62.8,2021-12-17 16:33:05.890625
2792,94.35,2021-12-17 16:33:05.906250
2793,131.41,2021-12-17 16:33:05.921875
2794,163.91,2021-12-17 16:33:05.937500
2795,181.49,2021-12-17 16:33:05.953125
2796,177.58,2021-12-17 16:33:05.968750
2797,152.03,2021-12-17 16:33:05.984375
2798,110.94,2021-12-17 16:33:06.000000
2799,63.7,2021-12-17 16:33:06.015625
2800,18.83,2021-12-17 16:33:06.031250
2801,-19.1,2021-12-17 16:33:06.046875
2802,-50.04,2021-12-17 16:33:06.062500
2803,-76.69,2021-12-17 16:33:06.078125
2804,-101.88,2021-12-17 16:33:06.093750
2805,-126.76,2021-12-17 16:33:06.109375
2806,-150.71,2021-12-17 16:33:06.125000
2807,-172.5,2021-12-17 16:33:06.140625
2808,-191.36,2021-12-17 16:33:06.156250
2809,-207.33,2021-12-17 16:33:06.171875
2810,-220.54,2021-12-17 16:33:06.187500
2811,-230.35,2021-12-17 16:33:06.203125
2812,-235.12,2021-12-17 16:33:06.218750
2813,-232.98,2021-12-17 16:33:06.234375
2814,-222.75,2021-12-17 16:33:06.250000
2815,-204.82,2021-12-17 16:33:06.265625
2816,-181.18,2021-12-17 16:33:06.281250
2817,-154.67,2021-12-17 16:33:06.296875
2818,-128.06,2021-12-17 16:33:06.312500
2819,-103.25,2021-12-17 16:33:06.328125
2820,-81.14,2021-12-17 16:33:06.343750
2821,-61.82,2021-12-17 16:33:06.359375
2822,-45.0,2021-12-17 16:33:06.375000
2823,-30.39,2021-12-17 16:33:06.390625
2824,-17.87,2021-12-17 16:33:06.406250
2825,-7.53,2021-12-17 16:33:06.421875
2826,0.34,2021-12-17 16:33:06.437500
2827,5.34,2021-12-17 16:33:06.453125
2828,7.07,2021-12-17 16:33:06.468750
2829,5.27,2021-12-17 16:33:06.484375
2830,0.24,2021-12-17 16:33:06.500000
2831,-7.06,2021-12-17 16:33:06.515625
2832,-15.0,2021-12-17 16:33:06.531250
2833,-21.76,2021-12-17 16:33:06.546875
2834,-25.86,2021-12-17 16:33:06.562500
2835,-26.69,2021-12-17 16:33:06.578125
2836,-24.62,2021-12-17 16:33:06.593750
2837,-20.67,2021-12-17 16:33:06.609375
2838,-15.99,2021-12-17 16:33:06.625000
2839,-11.2,2021-12-17 16:33:06.640625
2840,-6.3,2021-12-17 16:33:06.656250
2841,-0.92,2021-12-17 16:33:06.671875
2842,5.1,2021-12-17 16:33:06.687500
2843,11.3,2021-12-17 16:33:06.703125
2844,16.55,2021-12-17 16:33:06.718750
2845,19.63,2021-12-17 16:33:06.734375
2846,19.83,2021-12-17 16:33:06.750000
2847,17.4,2021-12-17 16:33:06.765625
2848,13.53,2021-12-17 16:33:06.781250
2849,9.76,2021-12-17 16:33:06.796875
2850,7.31,2021-12-17 16:33:06.812500
2851,6.77,2021-12-17 16:33:06.828125
2852,8.12,2021-12-17 16:33:06.843750
2853,11.04,2021-12-17 16:33:06.859375
2854,15.24,2021-12-17 16:33:06.875000
2855,20.49,2021-12-17 16:33:06.890625
2856,26.43,2021-12-17 16:33:06.906250
2857,32.49,2021-12-17 16:33:06.921875
2858,37.98,2021-12-17 16:33:06.937500
2859,42.49,2021-12-17 16:33:06.953125
2860,46.17,2021-12-17 16:33:06.968750
2861,49.76,2021-12-17 16:33:06.984375
2862,54.11,2021-12-17 16:33:07.000000
2863,59.63,2021-12-17 16:33:07.015625
2864,65.88,2021-12-17 16:33:07.031250
2865,71.73,2021-12-17 16:33:07.046875
2866,75.93,2021-12-17 16:33:07.062500
2867,77.77,2021-12-17 16:33:07.078125
2868,77.4,2021-12-17 16:33:07.093750
2869,75.75,2021-12-17 16:33:07.109375
2870,73.88,2021-12-17 16:33:07.125000
2871,72.53,2021-12-17 16:33:07.140625
2872,71.78,2021-12-17 16:33:07.156250
2873,71.19,2021-12-17 16:33:07.171875
2874,70.08,2021-12-17 16:33:07.187500
2875,67.86,2021-12-17 16:33:07.203125
2876,64.18,2021-12-17 16:33:07.218750
2877,58.87,2021-12-17 16:33:07.234375
2878,51.97,2021-12-17 16:33:07.250000
2879,43.79,2021-12-17 16:33:07.265625
2880,35.0,2021-12-17 16:33:07.281250
2881,26.52,2021-12-17 16:33:07.296875
2882,19.31,2021-12-17 16:33:07.312500
2883,13.86,2021-12-17 16:33:07.328125
2884,10.01,2021-12-17 16:33:07.343750
2885,6.93,2021-12-17 16:33:07.359375
2886,3.64,2021-12-17 16:33:07.375000
2887,-0.4,2021-12-17 16:33:07.390625
2888,-5.0,2021-12-17 16:33:07.406250
2889,-9.33,2021-12-17 16:33:07.421875
2890,-12.56,2021-12-17 16:33:07.437500
2891,-14.44,2021-12-17 16:33:07.453125
2892,-15.48,2021-12-17 16:33:07.468750
2893,-16.48,2021-12-17 16:33:07.484375
2894,-17.76,2021-12-17 16:33:07.500000
2895,-18.51,2021-12-17 16:33:07.515625
2896,-16.89,2021-12-17 16:33:07.531250
2897,-10.99,2021-12-17 16:33:07.546875
2898,0.03,2021-12-17 16:33:07.562500
2899,15.16,2021-12-17 16:33:07.578125
2900,32.11,2021-12-17 16:33:07.593750
2901,48.75,2021-12-17 16:33:07.609375
2902,64.4,2021-12-17 16:33:07.625000
2903,79.87,2021-12-17 16:33:07.640625
2904,96.33,2021-12-17 16:33:07.656250
2905,113.93,2021-12-17 16:33:07.671875
2906,131.38,2021-12-17 16:33:07.687500
2907,146.91,2021-12-17 16:33:07.703125
2908,159.9,2021-12-17 16:33:07.718750
2909,171.6,2021-12-17 16:33:07.734375
2910,184.24,2021-12-17 16:33:07.750000
2911,198.86,2021-12-17 16:33:07.765625
2912,213.51,2021-12-17 16:33:07.781250
2913,223.41,2021-12-17 16:33:07.796875
2914,223.15,2021-12-17 16:33:07.812500
2915,209.7,2021-12-17 16:33:07.828125
2916,184.22,2021-12-17 16:33:07.843750
2917,151.53,2021-12-17 16:33:07.859375
2918,117.63,2021-12-17 16:33:07.875000
2919,87.04,2021-12-17 16:33:07.890625
2920,61.51,2021-12-17 16:33:07.906250
2921,40.62,2021-12-17 16:33:07.921875
2922,23.41,2021-12-17 16:33:07.937500
2923,9.53,2021-12-17 16:33:07.953125
2924,-0.49,2021-12-17 16:33:07.968750
2925,-6.04,2021-12-17 16:33:07.984375
2926,-7.28,2021-12-17 16:33:08.000000
2927,-5.39,2021-12-17 16:33:08.015625
2928,-2.31,2021-12-17 16:33:08.031250
2929,-0.1,2021-12-17 16:33:08.046875
2930,-0.25,2021-12-17 16:33:08.062500
2931,-3.3,2021-12-17 16:33:08.078125
2932,-8.83,2021-12-17 16:33:08.093750
2933,-15.81,2021-12-17 16:33:08.109375
2934,-23.08,2021-12-17 16:33:08.125000
2935,-29.73,2021-12-17 16:33:08.140625
2936,-35.34,2021-12-17 16:33:08.156250
2937,-39.84,2021-12-17 16:33:08.171875
2938,-43.33,2021-12-17 16:33:08.187500
2939,-45.86,2021-12-17 16:33:08.203125
2940,-47.51,2021-12-17 16:33:08.218750
2941,-48.61,2021-12-17 16:33:08.234375
2942,-49.89,2021-12-17 16:33:08.250000
2943,-52.33,2021-12-17 16:33:08.265625
2944,-56.94,2021-12-17 16:33:08.281250
2945,-64.39,2021-12-17 16:33:08.296875
2946,-74.81,2021-12-17 16:33:08.312500
2947,-87.77,2021-12-17 16:33:08.328125
2948,-102.49,2021-12-17 16:33:08.343750
2949,-118.16,2021-12-17 16:33:08.359375
2950,-134.32,2021-12-17 16:33:08.375000
2951,-151.19,2021-12-17 16:33:08.390625
2952,-169.66,2021-12-17 16:33:08.406250
2953,-191.12,2021-12-17 16:33:08.421875
2954,-216.84,2021-12-17 16:33:08.437500
2955,-247.38,2021-12-17 16:33:08.453125
2956,-282.01,2021-12-17 16:33:08.468750
2957,-318.8,2021-12-17 16:33:08.484375
2958,-354.85,2021-12-17 16:33:08.500000
2959,-386.95,2021-12-17 16:33:08.515625
2960,-412.05,2021-12-17 16:33:08.531250
2961,-427.65,2021-12-17 16:33:08.546875
2962,-431.94,2021-12-17 16:33:08.562500
2963,-424.15,2021-12-17 16:33:08.578125
2964,-404.83,2021-12-17 16:33:08.593750
2965,-376.04,2021-12-17 16:33:08.609375
2966,-341.15,2021-12-17 16:33:08.625000
2967,-304.09,2021-12-17 16:33:08.640625
2968,-268.3,2021-12-17 16:33:08.656250
2969,-235.92,2021-12-17 16:33:08.671875
2970,-207.37,2021-12-17 16:33:08.687500
2971,-181.67,2021-12-17 16:33:08.703125
2972,-157.12,2021-12-17 16:33:08.718750
2973,-131.88,2021-12-17 16:33:08.734375
2974,-104.31,2021-12-17 16:33:08.750000
2975,-73.05,2021-12-17 16:33:08.765625
2976,-37.17,2021-12-17 16:33:08.781250
2977,3.36,2021-12-17 16:33:08.796875
2978,47.12,2021-12-17 16:33:08.812500
2979,90.89,2021-12-17 16:33:08.828125
2980,130.14,2021-12-17 16:33:08.843750
2981,160.22,2021-12-17 16:33:08.859375
2982,178.02,2021-12-17 16:33:08.875000
2983,183.13,2021-12-17 16:33:08.890625
2984,178.01,2021-12-17 16:33:08.906250
2985,166.83,2021-12-17 16:33:08.921875
2986,153.75,2021-12-17 16:33:08.937500
2987,141.34,2021-12-17 16:33:08.953125
2988,130.15,2021-12-17 16:33:08.968750
2989,119.29,2021-12-17 16:33:08.984375
2990,107.66,2021-12-17 16:33:09.000000
2991,94.98,2021-12-17 16:33:09.015625
2992,82.05,2021-12-17 16:33:09.031250
2993,70.22,2021-12-17 16:33:09.046875
2994,60.58,2021-12-17 16:33:09.062500
2995,53.52,2021-12-17 16:33:09.078125
2996,48.67,2021-12-17 16:33:09.093750
2997,45.36,2021-12-17 16:33:09.109375
2998,43.0,2021-12-17 16:33:09.125000
2999,41.17,2021-12-17 16:33:09.140625
3000,39.67,2021-12-17 16:33:09.156250
3001,38.2,2021-12-17 16:33:09.171875
3002,36.4,2021-12-17 16:33:09.187500
3003,33.89,2021-12-17 16:33:09.203125
3004,30.43,2021-12-17 16:33:09.218750
3005,25.96,2021-12-17 16:33:09.234375
3006,20.65,2021-12-17 16:33:09.250000
3007,14.75,2021-12-17 16:33:09.265625
3008,8.48,2021-12-17 16:33:09.281250
3009,1.94,2021-12-17 16:33:09.296875
3010,-4.87,2021-12-17 16:33:09.312500
3011,-11.99,2021-12-17 16:33:09.328125
3012,-19.35,2021-12-17 16:33:09.343750
3013,-26.72,2021-12-17 16:33:09.359375
3014,-33.64,2021-12-17 16:33:09.375000
3015,-39.6,2021-12-17 16:33:09.390625
3016,-44.21,2021-12-17 16:33:09.406250
3017,-47.59,2021-12-17 16:33:09.421875
3018,-50.43,2021-12-17 16:33:09.437500
3019,-53.86,2021-12-17 16:33:09.453125
3020,-58.92,2021-12-17 16:33:09.468750
3021,-65.9,2021-12-17 16:33:09.484375
3022,-74.0,2021-12-17 16:33:09.500000
3023,-81.5,2021-12-17 16:33:09.515625
3024,-86.37,2021-12-17 16:33:09.531250
3025,-87.03,2021-12-17 16:33:09.546875
3026,-83.01,2021-12-17 16:33:09.562500
3027,-75.11,2021-12-17 16:33:09.578125
3028,-65.26,2021-12-17 16:33:09.593750
3029,-56.05,2021-12-17 16:33:09.609375
3030,-50.02,2021-12-17 16:33:09.625000
3031,-48.82,2021-12-17 16:33:09.640625
3032,-52.36,2021-12-17 16:33:09.656250
3033,-58.46,2021-12-17 16:33:09.671875
3034,-62.99,2021-12-17 16:33:09.687500
3035,-61.05,2021-12-17 16:33:09.703125
3036,-48.55,2021-12-17 16:33:09.718750
3037,-23.97,2021-12-17 16:33:09.734375
3038,10.8,2021-12-17 16:33:09.750000
3039,50.93,2021-12-17 16:33:09.765625
3040,90.2,2021-12-17 16:33:09.781250
3041,123.02,2021-12-17 16:33:09.796875
3042,145.98,2021-12-17 16:33:09.812500
3043,158.32,2021-12-17 16:33:09.828125
3044,161.42,2021-12-17 16:33:09.843750
3045,157.65,2021-12-17 16:33:09.859375
3046,149.47,2021-12-17 16:33:09.875000
3047,138.85,2021-12-17 16:33:09.890625
3048,127.29,2021-12-17 16:33:09.906250
3049,115.98,2021-12-17 16:33:09.921875
3050,106.0,2021-12-17 16:33:09.937500
3051,98.13,2021-12-17 16:33:09.953125
3052,92.61,2021-12-17 16:33:09.968750
3053,88.98,2021-12-17 16:33:09.984375
3054,86.15,2021-12-17 16:33:10.000000
3055,82.73,2021-12-17 16:33:10.015625
3056,77.61,2021-12-17 16:33:10.031250
3057,70.4,2021-12-17 16:33:10.046875
3058,61.57,2021-12-17 16:33:10.062500
3059,52.22,2021-12-17 16:33:10.078125
3060,43.59,2021-12-17 16:33:10.093750
3061,36.55,2021-12-17 16:33:10.109375
3062,31.27,2021-12-17 16:33:10.125000
3063,27.23,2021-12-17 16:33:10.140625
3064,23.56,2021-12-17 16:33:10.156250
3065,19.44,2021-12-17 16:33:10.171875
3066,14.44,2021-12-17 16:33:10.187500
3067,8.68,2021-12-17 16:33:10.203125
3068,2.64,2021-12-17 16:33:10.218750
3069,-3.1,2021-12-17 16:33:10.234375
3070,-8.17,2021-12-17 16:33:10.250000
3071,-12.46,2021-12-17 16:33:10.265625
3072,-16.04,2021-12-17 16:33:10.281250
3073,-18.99,2021-12-17 16:33:10.296875
3074,-21.24,2021-12-17 16:33:10.312500
3075,-22.55,2021-12-17 16:33:10.328125
3076,-22.61,2021-12-17 16:33:10.343750
3077,-21.24,2021-12-17 16:33:10.359375
3078,-18.5,2021-12-17 16:33:10.375000
3079,-14.71,2021-12-17 16:33:10.390625
3080,-10.36,2021-12-17 16:33:10.406250
3081,-5.95,2021-12-17 16:33:10.421875
3082,-1.9,2021-12-17 16:33:10.437500
3083,1.56,2021-12-17 16:33:10.453125
3084,4.35,2021-12-17 16:33:10.468750
3085,6.52,2021-12-17 16:33:10.484375
3086,8.16,2021-12-17 16:33:10.500000
3087,9.39,2021-12-17 16:33:10.515625
3088,10.3,2021-12-17 16:33:10.531250
3089,10.95,2021-12-17 16:33:10.546875
3090,11.35,2021-12-17 16:33:10.562500
3091,11.58,2021-12-17 16:33:10.578125
3092,11.73,2021-12-17 16:33:10.593750
3093,11.94,2021-12-17 16:33:10.609375
3094,12.32,2021-12-17 16:33:10.625000
3095,12.86,2021-12-17 16:33:10.640625
3096,13.49,2021-12-17 16:33:10.656250
3097,14.1,2021-12-17 16:33:10.671875
3098,14.63,2021-12-17 16:33:10.687500
3099,15.13,2021-12-17 16:33:10.703125
3100,15.73,2021-12-17 16:33:10.718750
3101,16.48,2021-12-17 16:33:10.734375
3102,17.3,2021-12-17 16:33:10.750000
3103,17.94,2021-12-17 16:33:10.765625
3104,18.15,2021-12-17 16:33:10.781250
3105,17.75,2021-12-17 16:33:10.796875
3106,16.77,2021-12-17 16:33:10.812500
3107,15.41,2021-12-17 16:33:10.828125
3108,13.94,2021-12-17 16:33:10.843750
3109,12.51,2021-12-17 16:33:10.859375
3110,11.13,2021-12-17 16:33:10.875000
3111,9.66,2021-12-17 16:33:10.890625
3112,8.0,2021-12-17 16:33:10.906250
3113,6.1,2021-12-17 16:33:10.921875
3114,4.07,2021-12-17 16:33:10.937500
3115,2.05,2021-12-17 16:33:10.953125
3116,0.15,2021-12-17 16:33:10.968750
3117,-1.65,2021-12-17 16:33:10.984375
3118,-3.47,2021-12-17 16:33:11.000000
3119,-5.41,2021-12-17 16:33:11.015625
3120,-7.55,2021-12-17 16:33:11.031250
3121,-9.87,2021-12-17 16:33:11.046875
3122,-12.29,2021-12-17 16:33:11.062500
3123,-14.8,2021-12-17 16:33:11.078125
3124,-17.48,2021-12-17 16:33:11.093750
3125,-20.48,2021-12-17 16:33:11.109375
3126,-23.89,2021-12-17 16:33:11.125000
3127,-27.57,2021-12-17 16:33:11.140625
3128,-31.11,2021-12-17 16:33:11.156250
3129,-33.81,2021-12-17 16:33:11.171875
3130,-34.95,2021-12-17 16:33:11.187500
3131,-33.98,2021-12-17 16:33:11.203125
3132,-30.83,2021-12-17 16:33:11.218750
3133,-25.89,2021-12-17 16:33:11.234375
3134,-19.91,2021-12-17 16:33:11.250000
3135,-13.77,2021-12-17 16:33:11.265625
3136,-8.11,2021-12-17 16:33:11.281250
3137,-3.29,2021-12-17 16:33:11.296875
3138,0.65,2021-12-17 16:33:11.312500
3139,3.86,2021-12-17 16:33:11.328125
3140,6.51,2021-12-17 16:33:11.343750
3141,8.76,2021-12-17 16:33:11.359375
3142,10.69,2021-12-17 16:33:11.375000
3143,12.37,2021-12-17 16:33:11.390625
3144,13.88,2021-12-17 16:33:11.406250
3145,15.25,2021-12-17 16:33:11.421875
3146,16.49,2021-12-17 16:33:11.437500
3147,17.55,2021-12-17 16:33:11.453125
3148,18.37,2021-12-17 16:33:11.468750
3149,18.92,2021-12-17 16:33:11.484375
3150,19.25,2021-12-17 16:33:11.500000
3151,19.48,2021-12-17 16:33:11.515625
3152,19.7,2021-12-17 16:33:11.531250
3153,20.0,2021-12-17 16:33:11.546875
3154,20.36,2021-12-17 16:33:11.562500
3155,20.74,2021-12-17 16:33:11.578125
3156,21.03,2021-12-17 16:33:11.593750
3157,21.16,2021-12-17 16:33:11.609375
3158,21.09,2021-12-17 16:33:11.625000
3159,20.85,2021-12-17 16:33:11.640625
3160,20.51,2021-12-17 16:33:11.656250
3161,20.14,2021-12-17 16:33:11.671875
3162,19.83,2021-12-17 16:33:11.687500
3163,19.57,2021-12-17 16:33:11.703125
3164,19.27,2021-12-17 16:33:11.718750
3165,18.8,2021-12-17 16:33:11.734375
