,BVP,time
0,-7.22,2021-12-17 16:42:21.421875
1,-15.27,2021-12-17 16:42:21.437500
2,-20.43,2021-12-17 16:42:21.453125
3,-24.1,2021-12-17 16:42:21.468750
4,-27.56,2021-12-17 16:42:21.484375
5,-30.9,2021-12-17 16:42:21.500000
6,-33.85,2021-12-17 16:42:21.515625
7,-36.6,2021-12-17 16:42:21.531250
8,-39.79,2021-12-17 16:42:21.546875
9,-43.96,2021-12-17 16:42:21.562500
10,-49.24,2021-12-17 16:42:21.578125
11,-54.99,2021-12-17 16:42:21.593750
12,-59.87,2021-12-17 16:42:21.609375
13,-62.71,2021-12-17 16:42:21.625000
14,-62.69,2021-12-17 16:42:21.640625
15,-60.03,2021-12-17 16:42:21.656250
16,-56.12,2021-12-17 16:42:21.671875
17,-52.97,2021-12-17 16:42:21.687500
18,-52.28,2021-12-17 16:42:21.703125
19,-54.85,2021-12-17 16:42:21.718750
20,-60.17,2021-12-17 16:42:21.734375
21,-66.72,2021-12-17 16:42:21.750000
22,-72.75,2021-12-17 16:42:21.765625
23,-76.76,2021-12-17 16:42:21.781250
24,-78.1,2021-12-17 16:42:21.796875
25,-77.09,2021-12-17 16:42:21.812500
26,-74.71,2021-12-17 16:42:21.828125
27,-71.93,2021-12-17 16:42:21.843750
28,-69.37,2021-12-17 16:42:21.859375
29,-66.93,2021-12-17 16:42:21.875000
30,-63.94,2021-12-17 16:42:21.890625
31,-59.51,2021-12-17 16:42:21.906250
32,-52.89,2021-12-17 16:42:21.921875
33,-43.79,2021-12-17 16:42:21.937500
34,-32.42,2021-12-17 16:42:21.953125
35,-19.38,2021-12-17 16:42:21.968750
36,-5.46,2021-12-17 16:42:21.984375
37,8.58,2021-12-17 16:42:22.000000
38,22.05,2021-12-17 16:42:22.015625
39,34.41,2021-12-17 16:42:22.031250
40,45.28,2021-12-17 16:42:22.046875
41,54.44,2021-12-17 16:42:22.062500
42,61.95,2021-12-17 16:42:22.078125
43,68.0,2021-12-17 16:42:22.093750
44,72.7,2021-12-17 16:42:22.109375
45,75.9,2021-12-17 16:42:22.125000
46,77.13,2021-12-17 16:42:22.140625
47,75.98,2021-12-17 16:42:22.156250
48,72.41,2021-12-17 16:42:22.171875
49,67.1,2021-12-17 16:42:22.187500
50,61.31,2021-12-17 16:42:22.203125
51,56.33,2021-12-17 16:42:22.218750
52,52.89,2021-12-17 16:42:22.234375
53,50.74,2021-12-17 16:42:22.250000
54,48.84,2021-12-17 16:42:22.265625
55,45.87,2021-12-17 16:42:22.281250
56,40.82,2021-12-17 16:42:22.296875
57,33.59,2021-12-17 16:42:22.312500
58,25.0,2021-12-17 16:42:22.328125
59,16.63,2021-12-17 16:42:22.343750
60,10.43,2021-12-17 16:42:22.359375
61,8.24,2021-12-17 16:42:22.375000
62,11.28,2021-12-17 16:42:22.390625
63,19.73,2021-12-17 16:42:22.406250
64,32.46,2021-12-17 16:42:22.421875
65,47.17,2021-12-17 16:42:22.437500
66,60.92,2021-12-17 16:42:22.453125
67,71.17,2021-12-17 16:42:22.468750
68,76.63,2021-12-17 16:42:22.484375
69,77.51,2021-12-17 16:42:22.500000
70,75.23,2021-12-17 16:42:22.515625
71,71.45,2021-12-17 16:42:22.531250
72,67.07,2021-12-17 16:42:22.546875
73,61.69,2021-12-17 16:42:22.562500
74,53.74,2021-12-17 16:42:22.578125
75,40.8,2021-12-17 16:42:22.593750
76,20.16,2021-12-17 16:42:22.609375
77,-10.49,2021-12-17 16:42:22.625000
78,-52.06,2021-12-17 16:42:22.640625
79,-102.9,2021-12-17 16:42:22.656250
80,-158.18,2021-12-17 16:42:22.671875
81,-210.33,2021-12-17 16:42:22.687500
82,-251.0,2021-12-17 16:42:22.703125
83,-273.86,2021-12-17 16:42:22.718750
84,-276.87,2021-12-17 16:42:22.734375
85,-262.75,2021-12-17 16:42:22.750000
86,-237.16,2021-12-17 16:42:22.765625
87,-205.8,2021-12-17 16:42:22.781250
88,-172.01,2021-12-17 16:42:22.796875
89,-136.57,2021-12-17 16:42:22.812500
90,-99.34,2021-12-17 16:42:22.828125
91,-61.59,2021-12-17 16:42:22.843750
92,-27.21,2021-12-17 16:42:22.859375
93,-1.53,2021-12-17 16:42:22.875000
94,11.15,2021-12-17 16:42:22.890625
95,10.14,2021-12-17 16:42:22.906250
96,-0.8,2021-12-17 16:42:22.921875
97,-14.91,2021-12-17 16:42:22.937500
98,-25.29,2021-12-17 16:42:22.953125
99,-27.59,2021-12-17 16:42:22.968750
100,-21.29,2021-12-17 16:42:22.984375
101,-9.26,2021-12-17 16:42:23.000000
102,4.25,2021-12-17 16:42:23.015625
103,15.68,2021-12-17 16:42:23.031250
104,23.53,2021-12-17 16:42:23.046875
105,28.28,2021-12-17 16:42:23.062500
106,31.56,2021-12-17 16:42:23.078125
107,34.66,2021-12-17 16:42:23.093750
108,37.72,2021-12-17 16:42:23.109375
109,39.74,2021-12-17 16:42:23.125000
110,39.21,2021-12-17 16:42:23.140625
111,35.31,2021-12-17 16:42:23.156250
112,28.48,2021-12-17 16:42:23.171875
113,20.47,2021-12-17 16:42:23.187500
114,13.53,2021-12-17 16:42:23.203125
115,9.43,2021-12-17 16:42:23.218750
116,8.71,2021-12-17 16:42:23.234375
117,10.52,2021-12-17 16:42:23.250000
118,13.23,2021-12-17 16:42:23.265625
119,15.18,2021-12-17 16:42:23.281250
120,15.51,2021-12-17 16:42:23.296875
121,14.32,2021-12-17 16:42:23.312500
122,12.43,2021-12-17 16:42:23.328125
123,10.72,2021-12-17 16:42:23.343750
124,9.59,2021-12-17 16:42:23.359375
125,8.73,2021-12-17 16:42:23.375000
126,7.39,2021-12-17 16:42:23.390625
127,4.96,2021-12-17 16:42:23.406250
128,1.45,2021-12-17 16:42:23.421875
129,-2.33,2021-12-17 16:42:23.437500
130,-5.11,2021-12-17 16:42:23.453125
131,-5.77,2021-12-17 16:42:23.468750
132,-3.97,2021-12-17 16:42:23.484375
133,-0.38,2021-12-17 16:42:23.500000
134,3.58,2021-12-17 16:42:23.515625
135,6.38,2021-12-17 16:42:23.531250
136,7.02,2021-12-17 16:42:23.546875
137,5.34,2021-12-17 16:42:23.562500
138,1.97,2021-12-17 16:42:23.578125
139,-2.07,2021-12-17 16:42:23.593750
140,-5.84,2021-12-17 16:42:23.609375
141,-8.78,2021-12-17 16:42:23.625000
142,-10.71,2021-12-17 16:42:23.640625
143,-11.6,2021-12-17 16:42:23.656250
144,-11.46,2021-12-17 16:42:23.671875
145,-10.24,2021-12-17 16:42:23.687500
146,-7.96,2021-12-17 16:42:23.703125
147,-4.85,2021-12-17 16:42:23.718750
148,-1.46,2021-12-17 16:42:23.734375
149,1.55,2021-12-17 16:42:23.750000
150,3.62,2021-12-17 16:42:23.765625
151,4.52,2021-12-17 16:42:23.781250
152,4.51,2021-12-17 16:42:23.796875
153,4.05,2021-12-17 16:42:23.812500
154,3.64,2021-12-17 16:42:23.828125
155,3.51,2021-12-17 16:42:23.843750
156,3.55,2021-12-17 16:42:23.859375
157,3.47,2021-12-17 16:42:23.875000
158,3.04,2021-12-17 16:42:23.890625
159,2.35,2021-12-17 16:42:23.906250
160,1.75,2021-12-17 16:42:23.921875
161,1.7,2021-12-17 16:42:23.937500
162,2.49,2021-12-17 16:42:23.953125
163,4.01,2021-12-17 16:42:23.968750
164,5.82,2021-12-17 16:42:23.984375
165,7.31,2021-12-17 16:42:24.000000
166,8.04,2021-12-17 16:42:24.015625
167,7.89,2021-12-17 16:42:24.031250
168,7.14,2021-12-17 16:42:24.046875
169,6.31,2021-12-17 16:42:24.062500
170,5.88,2021-12-17 16:42:24.078125
171,6.03,2021-12-17 16:42:24.093750
172,6.55,2021-12-17 16:42:24.109375
173,6.9,2021-12-17 16:42:24.125000
174,6.44,2021-12-17 16:42:24.140625
175,4.74,2021-12-17 16:42:24.156250
176,1.78,2021-12-17 16:42:24.171875
177,-1.96,2021-12-17 16:42:24.187500
178,-5.66,2021-12-17 16:42:24.203125
179,-8.37,2021-12-17 16:42:24.218750
180,-9.29,2021-12-17 16:42:24.234375
181,-7.96,2021-12-17 16:42:24.250000
182,-4.53,2021-12-17 16:42:24.265625
183,0.36,2021-12-17 16:42:24.281250
184,5.62,2021-12-17 16:42:24.296875
185,10.04,2021-12-17 16:42:24.312500
186,12.59,2021-12-17 16:42:24.328125
187,12.72,2021-12-17 16:42:24.343750
188,10.49,2021-12-17 16:42:24.359375
189,6.48,2021-12-17 16:42:24.375000
190,1.67,2021-12-17 16:42:24.390625
191,-2.99,2021-12-17 16:42:24.406250
192,-6.79,2021-12-17 16:42:24.421875
193,-9.43,2021-12-17 16:42:24.437500
194,-10.95,2021-12-17 16:42:24.453125
195,-11.55,2021-12-17 16:42:24.468750
196,-11.42,2021-12-17 16:42:24.484375
197,-10.55,2021-12-17 16:42:24.500000
198,-8.76,2021-12-17 16:42:24.515625
199,-5.8,2021-12-17 16:42:24.531250
200,-1.56,2021-12-17 16:42:24.546875
201,3.7,2021-12-17 16:42:24.562500
202,9.25,2021-12-17 16:42:24.578125
203,13.99,2021-12-17 16:42:24.593750
204,16.77,2021-12-17 16:42:24.609375
205,16.84,2021-12-17 16:42:24.625000
206,14.19,2021-12-17 16:42:24.640625
207,9.73,2021-12-17 16:42:24.656250
208,4.97,2021-12-17 16:42:24.671875
209,1.51,2021-12-17 16:42:24.687500
210,0.39,2021-12-17 16:42:24.703125
211,1.68,2021-12-17 16:42:24.718750
212,4.4,2021-12-17 16:42:24.734375
213,6.94,2021-12-17 16:42:24.750000
214,7.61,2021-12-17 16:42:24.765625
215,5.28,2021-12-17 16:42:24.781250
216,-0.27,2021-12-17 16:42:24.796875
217,-8.37,2021-12-17 16:42:24.812500
218,-17.65,2021-12-17 16:42:24.828125
219,-26.48,2021-12-17 16:42:24.843750
220,-33.36,2021-12-17 16:42:24.859375
221,-37.22,2021-12-17 16:42:24.875000
222,-37.54,2021-12-17 16:42:24.890625
223,-34.43,2021-12-17 16:42:24.906250
224,-28.43,2021-12-17 16:42:24.921875
225,-20.44,2021-12-17 16:42:24.937500
226,-11.44,2021-12-17 16:42:24.953125
227,-2.36,2021-12-17 16:42:24.968750
228,6.06,2021-12-17 16:42:24.984375
229,13.29,2021-12-17 16:42:25.000000
230,19.1,2021-12-17 16:42:25.015625
231,23.47,2021-12-17 16:42:25.031250
232,26.5,2021-12-17 16:42:25.046875
233,28.35,2021-12-17 16:42:25.062500
234,29.05,2021-12-17 16:42:25.078125
235,28.55,2021-12-17 16:42:25.093750
236,26.77,2021-12-17 16:42:25.109375
237,23.68,2021-12-17 16:42:25.125000
238,19.39,2021-12-17 16:42:25.140625
239,14.21,2021-12-17 16:42:25.156250
240,8.58,2021-12-17 16:42:25.171875
241,2.99,2021-12-17 16:42:25.187500
242,-2.18,2021-12-17 16:42:25.203125
243,-6.66,2021-12-17 16:42:25.218750
244,-10.39,2021-12-17 16:42:25.234375
245,-13.53,2021-12-17 16:42:25.250000
246,-16.39,2021-12-17 16:42:25.265625
247,-19.28,2021-12-17 16:42:25.281250
248,-22.4,2021-12-17 16:42:25.296875
249,-25.74,2021-12-17 16:42:25.312500
250,-29.17,2021-12-17 16:42:25.328125
251,-32.54,2021-12-17 16:42:25.343750
252,-35.78,2021-12-17 16:42:25.359375
253,-38.9,2021-12-17 16:42:25.375000
254,-41.93,2021-12-17 16:42:25.390625
255,-44.79,2021-12-17 16:42:25.406250
256,-47.2,2021-12-17 16:42:25.421875
257,-48.83,2021-12-17 16:42:25.437500
258,-49.41,2021-12-17 16:42:25.453125
259,-49.04,2021-12-17 16:42:25.468750
260,-48.1,2021-12-17 16:42:25.484375
261,-47.04,2021-12-17 16:42:25.500000
262,-46.0,2021-12-17 16:42:25.515625
263,-44.46,2021-12-17 16:42:25.531250
264,-41.32,2021-12-17 16:42:25.546875
265,-35.39,2021-12-17 16:42:25.562500
266,-26.01,2021-12-17 16:42:25.578125
267,-13.6,2021-12-17 16:42:25.593750
268,0.3,2021-12-17 16:42:25.609375
269,13.68,2021-12-17 16:42:25.625000
270,24.92,2021-12-17 16:42:25.640625
271,33.58,2021-12-17 16:42:25.656250
272,40.59,2021-12-17 16:42:25.671875
273,47.58,2021-12-17 16:42:25.687500
274,55.82,2021-12-17 16:42:25.703125
275,65.28,2021-12-17 16:42:25.718750
276,74.36,2021-12-17 16:42:25.734375
277,80.51,2021-12-17 16:42:25.750000
278,81.18,2021-12-17 16:42:25.765625
279,74.7,2021-12-17 16:42:25.781250
280,60.68,2021-12-17 16:42:25.796875
281,39.88,2021-12-17 16:42:25.812500
282,13.93,2021-12-17 16:42:25.828125
283,-15.0,2021-12-17 16:42:25.843750
284,-44.18,2021-12-17 16:42:25.859375
285,-70.54,2021-12-17 16:42:25.875000
286,-90.92,2021-12-17 16:42:25.890625
287,-102.89,2021-12-17 16:42:25.906250
288,-105.49,2021-12-17 16:42:25.921875
289,-99.51,2021-12-17 16:42:25.937500
290,-87.23,2021-12-17 16:42:25.953125
291,-71.41,2021-12-17 16:42:25.968750
292,-54.39,2021-12-17 16:42:25.984375
293,-37.65,2021-12-17 16:42:26.000000
294,-21.87,2021-12-17 16:42:26.015625
295,-7.5,2021-12-17 16:42:26.031250
296,4.87,2021-12-17 16:42:26.046875
297,14.4,2021-12-17 16:42:26.062500
298,20.4,2021-12-17 16:42:26.078125
299,22.55,2021-12-17 16:42:26.093750
300,21.2,2021-12-17 16:42:26.109375
301,17.26,2021-12-17 16:42:26.125000
302,11.84,2021-12-17 16:42:26.140625
303,5.94,2021-12-17 16:42:26.156250
304,0.4,2021-12-17 16:42:26.171875
305,-4.04,2021-12-17 16:42:26.187500
306,-6.74,2021-12-17 16:42:26.203125
307,-7.23,2021-12-17 16:42:26.218750
308,-5.58,2021-12-17 16:42:26.234375
309,-2.48,2021-12-17 16:42:26.250000
310,0.87,2021-12-17 16:42:26.265625
311,3.11,2021-12-17 16:42:26.281250
312,3.27,2021-12-17 16:42:26.296875
313,1.1,2021-12-17 16:42:26.312500
314,-2.97,2021-12-17 16:42:26.328125
315,-8.05,2021-12-17 16:42:26.343750
316,-13.17,2021-12-17 16:42:26.359375
317,-17.53,2021-12-17 16:42:26.375000
318,-20.49,2021-12-17 16:42:26.390625
319,-21.55,2021-12-17 16:42:26.406250
320,-20.29,2021-12-17 16:42:26.421875
321,-16.5,2021-12-17 16:42:26.437500
322,-10.47,2021-12-17 16:42:26.453125
323,-3.09,2021-12-17 16:42:26.468750
324,4.26,2021-12-17 16:42:26.484375
325,10.01,2021-12-17 16:42:26.500000
326,12.92,2021-12-17 16:42:26.515625
327,12.45,2021-12-17 16:42:26.531250
328,8.89,2021-12-17 16:42:26.546875
329,3.17,2021-12-17 16:42:26.562500
330,-3.09,2021-12-17 16:42:26.578125
331,-8.02,2021-12-17 16:42:26.593750
332,-9.89,2021-12-17 16:42:26.609375
333,-7.41,2021-12-17 16:42:26.625000
334,-0.26,2021-12-17 16:42:26.640625
335,10.72,2021-12-17 16:42:26.656250
336,23.65,2021-12-17 16:42:26.671875
337,36.18,2021-12-17 16:42:26.687500
338,46.1,2021-12-17 16:42:26.703125
339,52.15,2021-12-17 16:42:26.718750
340,54.24,2021-12-17 16:42:26.734375
341,53.35,2021-12-17 16:42:26.750000
342,51.04,2021-12-17 16:42:26.765625
343,48.71,2021-12-17 16:42:26.781250
344,47.17,2021-12-17 16:42:26.796875
345,46.4,2021-12-17 16:42:26.812500
346,45.78,2021-12-17 16:42:26.828125
347,44.5,2021-12-17 16:42:26.843750
348,41.96,2021-12-17 16:42:26.859375
349,38.01,2021-12-17 16:42:26.875000
350,32.97,2021-12-17 16:42:26.890625
351,27.4,2021-12-17 16:42:26.906250
352,21.85,2021-12-17 16:42:26.921875
353,16.6,2021-12-17 16:42:26.937500
354,11.6,2021-12-17 16:42:26.953125
355,6.59,2021-12-17 16:42:26.968750
356,1.32,2021-12-17 16:42:26.984375
357,-4.13,2021-12-17 16:42:27.000000
358,-9.43,2021-12-17 16:42:27.015625
359,-13.94,2021-12-17 16:42:27.031250
360,-17.02,2021-12-17 16:42:27.046875
361,-18.19,2021-12-17 16:42:27.062500
362,-17.29,2021-12-17 16:42:27.078125
363,-14.48,2021-12-17 16:42:27.093750
364,-10.3,2021-12-17 16:42:27.109375
365,-5.62,2021-12-17 16:42:27.125000
366,-1.53,2021-12-17 16:42:27.140625
367,0.94,2021-12-17 16:42:27.156250
368,1.15,2021-12-17 16:42:27.171875
369,-0.86,2021-12-17 16:42:27.187500
370,-4.45,2021-12-17 16:42:27.203125
371,-8.62,2021-12-17 16:42:27.218750
372,-12.64,2021-12-17 16:42:27.234375
373,-16.47,2021-12-17 16:42:27.250000
374,-20.77,2021-12-17 16:42:27.265625
375,-26.38,2021-12-17 16:42:27.281250
376,-33.42,2021-12-17 16:42:27.296875
377,-40.85,2021-12-17 16:42:27.312500
378,-46.55,2021-12-17 16:42:27.328125
379,-48.32,2021-12-17 16:42:27.343750
380,-44.93,2021-12-17 16:42:27.359375
381,-36.97,2021-12-17 16:42:27.375000
382,-26.58,2021-12-17 16:42:27.390625
383,-16.53,2021-12-17 16:42:27.406250
384,-8.96,2021-12-17 16:42:27.421875
385,-4.53,2021-12-17 16:42:27.437500
386,-2.47,2021-12-17 16:42:27.453125
387,-1.29,2021-12-17 16:42:27.468750
388,0.33,2021-12-17 16:42:27.484375
389,3.02,2021-12-17 16:42:27.500000
390,6.77,2021-12-17 16:42:27.515625
391,11.54,2021-12-17 16:42:27.531250
392,17.63,2021-12-17 16:42:27.546875
393,25.59,2021-12-17 16:42:27.562500
394,35.65,2021-12-17 16:42:27.578125
395,47.1,2021-12-17 16:42:27.593750
396,58.13,2021-12-17 16:42:27.609375
397,66.38,2021-12-17 16:42:27.625000
398,69.94,2021-12-17 16:42:27.640625
399,68.29,2021-12-17 16:42:27.656250
400,62.59,2021-12-17 16:42:27.671875
401,55.23,2021-12-17 16:42:27.687500
402,48.77,2021-12-17 16:42:27.703125
403,44.91,2021-12-17 16:42:27.718750
404,43.94,2021-12-17 16:42:27.734375
405,44.81,2021-12-17 16:42:27.750000
406,45.72,2021-12-17 16:42:27.765625
407,44.89,2021-12-17 16:42:27.781250
408,41.01,2021-12-17 16:42:27.796875
409,33.42,2021-12-17 16:42:27.812500
410,22.12,2021-12-17 16:42:27.828125
411,7.77,2021-12-17 16:42:27.843750
412,-8.29,2021-12-17 16:42:27.859375
413,-24.13,2021-12-17 16:42:27.875000
414,-37.53,2021-12-17 16:42:27.890625
415,-46.61,2021-12-17 16:42:27.906250
416,-50.43,2021-12-17 16:42:27.921875
417,-49.34,2021-12-17 16:42:27.937500
418,-44.82,2021-12-17 16:42:27.953125
419,-38.85,2021-12-17 16:42:27.968750
420,-33.24,2021-12-17 16:42:27.984375
421,-29.04,2021-12-17 16:42:28.000000
422,-26.48,2021-12-17 16:42:28.015625
423,-25.34,2021-12-17 16:42:28.031250
424,-25.29,2021-12-17 16:42:28.046875
425,-26.11,2021-12-17 16:42:28.062500
426,-27.68,2021-12-17 16:42:28.078125
427,-29.74,2021-12-17 16:42:28.093750
428,-31.72,2021-12-17 16:42:28.109375
429,-32.86,2021-12-17 16:42:28.125000
430,-32.55,2021-12-17 16:42:28.140625
431,-30.54,2021-12-17 16:42:28.156250
432,-27.11,2021-12-17 16:42:28.171875
433,-22.95,2021-12-17 16:42:28.187500
434,-18.83,2021-12-17 16:42:28.203125
435,-15.32,2021-12-17 16:42:28.218750
436,-12.67,2021-12-17 16:42:28.234375
437,-10.77,2021-12-17 16:42:28.250000
438,-9.4,2021-12-17 16:42:28.265625
439,-8.38,2021-12-17 16:42:28.281250
440,-7.67,2021-12-17 16:42:28.296875
441,-7.39,2021-12-17 16:42:28.312500
442,-7.66,2021-12-17 16:42:28.328125
443,-8.47,2021-12-17 16:42:28.343750
444,-9.65,2021-12-17 16:42:28.359375
445,-10.9,2021-12-17 16:42:28.375000
446,-11.93,2021-12-17 16:42:28.390625
447,-12.53,2021-12-17 16:42:28.406250
448,-12.7,2021-12-17 16:42:28.421875
449,-12.53,2021-12-17 16:42:28.437500
450,-12.09,2021-12-17 16:42:28.453125
451,-11.43,2021-12-17 16:42:28.468750
452,-10.49,2021-12-17 16:42:28.484375
453,-9.23,2021-12-17 16:42:28.500000
454,-7.65,2021-12-17 16:42:28.515625
455,-5.82,2021-12-17 16:42:28.531250
456,-3.89,2021-12-17 16:42:28.546875
457,-2.02,2021-12-17 16:42:28.562500
458,-0.35,2021-12-17 16:42:28.578125
459,1.04,2021-12-17 16:42:28.593750
460,2.08,2021-12-17 16:42:28.609375
461,2.77,2021-12-17 16:42:28.625000
462,3.13,2021-12-17 16:42:28.640625
463,3.29,2021-12-17 16:42:28.656250
464,3.4,2021-12-17 16:42:28.671875
465,3.69,2021-12-17 16:42:28.687500
466,4.31,2021-12-17 16:42:28.703125
467,5.3,2021-12-17 16:42:28.718750
468,6.59,2021-12-17 16:42:28.734375
469,7.96,2021-12-17 16:42:28.750000
470,9.19,2021-12-17 16:42:28.765625
471,10.07,2021-12-17 16:42:28.781250
472,10.48,2021-12-17 16:42:28.796875
473,10.42,2021-12-17 16:42:28.812500
474,9.97,2021-12-17 16:42:28.828125
475,9.31,2021-12-17 16:42:28.843750
476,8.64,2021-12-17 16:42:28.859375
477,8.09,2021-12-17 16:42:28.875000
478,7.73,2021-12-17 16:42:28.890625
479,7.51,2021-12-17 16:42:28.906250
480,7.33,2021-12-17 16:42:28.921875
481,7.11,2021-12-17 16:42:28.937500
482,6.81,2021-12-17 16:42:28.953125
483,6.42,2021-12-17 16:42:28.968750
484,5.95,2021-12-17 16:42:28.984375
485,5.38,2021-12-17 16:42:29.000000
486,4.65,2021-12-17 16:42:29.015625
487,3.72,2021-12-17 16:42:29.031250
488,2.53,2021-12-17 16:42:29.046875
489,1.09,2021-12-17 16:42:29.062500
490,-0.52,2021-12-17 16:42:29.078125
491,-2.19,2021-12-17 16:42:29.093750
492,-3.83,2021-12-17 16:42:29.109375
493,-5.35,2021-12-17 16:42:29.125000
494,-6.73,2021-12-17 16:42:29.140625
495,-8.0,2021-12-17 16:42:29.156250
496,-9.19,2021-12-17 16:42:29.171875
497,-10.26,2021-12-17 16:42:29.187500
498,-11.12,2021-12-17 16:42:29.203125
499,-11.62,2021-12-17 16:42:29.218750
500,-11.58,2021-12-17 16:42:29.234375
501,-10.9,2021-12-17 16:42:29.250000
502,-9.65,2021-12-17 16:42:29.265625
503,-7.99,2021-12-17 16:42:29.281250
504,-6.14,2021-12-17 16:42:29.296875
505,-4.31,2021-12-17 16:42:29.312500
506,-2.63,2021-12-17 16:42:29.328125
507,-1.1,2021-12-17 16:42:29.343750
508,0.29,2021-12-17 16:42:29.359375
509,1.56,2021-12-17 16:42:29.375000
510,2.69,2021-12-17 16:42:29.390625
511,3.66,2021-12-17 16:42:29.406250
512,4.47,2021-12-17 16:42:29.421875
513,5.12,2021-12-17 16:42:29.437500
514,5.67,2021-12-17 16:42:29.453125
515,6.13,2021-12-17 16:42:29.468750
516,6.57,2021-12-17 16:42:29.484375
517,7.0,2021-12-17 16:42:29.500000
518,7.42,2021-12-17 16:42:29.515625
519,7.86,2021-12-17 16:42:29.531250
520,8.33,2021-12-17 16:42:29.546875
521,8.85,2021-12-17 16:42:29.562500
522,9.44,2021-12-17 16:42:29.578125
523,10.12,2021-12-17 16:42:29.593750
524,10.82,2021-12-17 16:42:29.609375
525,11.45,2021-12-17 16:42:29.625000
526,11.87,2021-12-17 16:42:29.640625
527,11.94,2021-12-17 16:42:29.656250
528,11.63,2021-12-17 16:42:29.671875
529,11.01,2021-12-17 16:42:29.687500
530,10.25,2021-12-17 16:42:29.703125
531,9.5,2021-12-17 16:42:29.718750
532,8.8,2021-12-17 16:42:29.734375
533,8.11,2021-12-17 16:42:29.750000
534,7.31,2021-12-17 16:42:29.765625
535,6.34,2021-12-17 16:42:29.781250
536,5.23,2021-12-17 16:42:29.796875
537,4.08,2021-12-17 16:42:29.812500
538,3.01,2021-12-17 16:42:29.828125
539,2.06,2021-12-17 16:42:29.843750
540,1.16,2021-12-17 16:42:29.859375
541,0.16,2021-12-17 16:42:29.875000
542,-1.08,2021-12-17 16:42:29.890625
543,-2.58,2021-12-17 16:42:29.906250
544,-4.24,2021-12-17 16:42:29.921875
545,-5.83,2021-12-17 16:42:29.937500
546,-7.08,2021-12-17 16:42:29.953125
547,-7.8,2021-12-17 16:42:29.968750
548,-7.91,2021-12-17 16:42:29.984375
549,-7.46,2021-12-17 16:42:30.000000
550,-6.65,2021-12-17 16:42:30.015625
551,-5.65,2021-12-17 16:42:30.031250
552,-4.63,2021-12-17 16:42:30.046875
553,-3.64,2021-12-17 16:42:30.062500
554,-2.59,2021-12-17 16:42:30.078125
555,-1.41,2021-12-17 16:42:30.093750
556,-0.11,2021-12-17 16:42:30.109375
557,1.24,2021-12-17 16:42:30.125000
558,2.46,2021-12-17 16:42:30.140625
559,3.4,2021-12-17 16:42:30.156250
560,4.02,2021-12-17 16:42:30.171875
561,4.42,2021-12-17 16:42:30.187500
562,4.74,2021-12-17 16:42:30.203125
563,5.13,2021-12-17 16:42:30.218750
564,5.62,2021-12-17 16:42:30.234375
565,6.14,2021-12-17 16:42:30.250000
566,6.55,2021-12-17 16:42:30.265625
567,6.79,2021-12-17 16:42:30.281250
568,6.84,2021-12-17 16:42:30.296875
569,6.75,2021-12-17 16:42:30.312500
570,6.58,2021-12-17 16:42:30.328125
571,6.36,2021-12-17 16:42:30.343750
572,6.08,2021-12-17 16:42:30.359375
573,5.74,2021-12-17 16:42:30.375000
574,5.4,2021-12-17 16:42:30.390625
575,5.12,2021-12-17 16:42:30.406250
576,4.95,2021-12-17 16:42:30.421875
577,4.89,2021-12-17 16:42:30.437500
578,4.86,2021-12-17 16:42:30.453125
579,4.77,2021-12-17 16:42:30.468750
580,4.54,2021-12-17 16:42:30.484375
581,4.16,2021-12-17 16:42:30.500000
582,3.67,2021-12-17 16:42:30.515625
583,3.16,2021-12-17 16:42:30.531250
584,2.71,2021-12-17 16:42:30.546875
585,2.37,2021-12-17 16:42:30.562500
586,2.14,2021-12-17 16:42:30.578125
587,1.95,2021-12-17 16:42:30.593750
588,1.76,2021-12-17 16:42:30.609375
589,1.53,2021-12-17 16:42:30.625000
590,1.22,2021-12-17 16:42:30.640625
591,0.83,2021-12-17 16:42:30.656250
592,0.33,2021-12-17 16:42:30.671875
593,-0.3,2021-12-17 16:42:30.687500
594,-1.08,2021-12-17 16:42:30.703125
595,-2.01,2021-12-17 16:42:30.718750
596,-3.03,2021-12-17 16:42:30.734375
597,-4.04,2021-12-17 16:42:30.750000
598,-4.92,2021-12-17 16:42:30.765625
599,-5.59,2021-12-17 16:42:30.781250
600,-5.99,2021-12-17 16:42:30.796875
601,-6.12,2021-12-17 16:42:30.812500
602,-5.99,2021-12-17 16:42:30.828125
603,-5.64,2021-12-17 16:42:30.843750
604,-5.08,2021-12-17 16:42:30.859375
605,-4.34,2021-12-17 16:42:30.875000
606,-3.42,2021-12-17 16:42:30.890625
607,-2.33,2021-12-17 16:42:30.906250
608,-1.11,2021-12-17 16:42:30.921875
609,0.2,2021-12-17 16:42:30.937500
610,1.54,2021-12-17 16:42:30.953125
611,2.8,2021-12-17 16:42:30.968750
612,3.89,2021-12-17 16:42:30.984375
613,4.74,2021-12-17 16:42:31.000000
614,5.34,2021-12-17 16:42:31.015625
615,5.7,2021-12-17 16:42:31.031250
616,5.88,2021-12-17 16:42:31.046875
617,5.93,2021-12-17 16:42:31.062500
618,5.88,2021-12-17 16:42:31.078125
619,5.75,2021-12-17 16:42:31.093750
620,5.54,2021-12-17 16:42:31.109375
621,5.32,2021-12-17 16:42:31.125000
622,5.13,2021-12-17 16:42:31.140625
623,5.02,2021-12-17 16:42:31.156250
624,5.02,2021-12-17 16:42:31.171875
625,5.11,2021-12-17 16:42:31.187500
626,5.28,2021-12-17 16:42:31.203125
627,5.49,2021-12-17 16:42:31.218750
628,5.7,2021-12-17 16:42:31.234375
629,5.89,2021-12-17 16:42:31.250000
630,5.99,2021-12-17 16:42:31.265625
631,5.92,2021-12-17 16:42:31.281250
632,5.64,2021-12-17 16:42:31.296875
633,5.12,2021-12-17 16:42:31.312500
634,4.41,2021-12-17 16:42:31.328125
635,3.61,2021-12-17 16:42:31.343750
636,2.85,2021-12-17 16:42:31.359375
637,2.18,2021-12-17 16:42:31.375000
638,1.61,2021-12-17 16:42:31.390625
639,1.02,2021-12-17 16:42:31.406250
640,0.32,2021-12-17 16:42:31.421875
641,-0.52,2021-12-17 16:42:31.437500
642,-1.42,2021-12-17 16:42:31.453125
643,-2.22,2021-12-17 16:42:31.468750
644,-2.75,2021-12-17 16:42:31.484375
645,-2.98,2021-12-17 16:42:31.500000
646,-2.99,2021-12-17 16:42:31.515625
647,-2.93,2021-12-17 16:42:31.531250
648,-3.01,2021-12-17 16:42:31.546875
649,-3.3,2021-12-17 16:42:31.562500
650,-3.79,2021-12-17 16:42:31.578125
651,-4.42,2021-12-17 16:42:31.593750
652,-5.16,2021-12-17 16:42:31.609375
653,-6.0,2021-12-17 16:42:31.625000
654,-7.0,2021-12-17 16:42:31.640625
655,-8.11,2021-12-17 16:42:31.656250
656,-9.23,2021-12-17 16:42:31.671875
657,-10.15,2021-12-17 16:42:31.687500
658,-10.65,2021-12-17 16:42:31.703125
659,-10.62,2021-12-17 16:42:31.718750
660,-10.12,2021-12-17 16:42:31.734375
661,-9.36,2021-12-17 16:42:31.750000
662,-8.6,2021-12-17 16:42:31.765625
663,-8.04,2021-12-17 16:42:31.781250
664,-7.76,2021-12-17 16:42:31.796875
665,-7.71,2021-12-17 16:42:31.812500
666,-7.78,2021-12-17 16:42:31.828125
667,-7.86,2021-12-17 16:42:31.843750
668,-7.94,2021-12-17 16:42:31.859375
669,-8.09,2021-12-17 16:42:31.875000
670,-8.38,2021-12-17 16:42:31.890625
671,-8.83,2021-12-17 16:42:31.906250
672,-9.37,2021-12-17 16:42:31.921875
673,-9.84,2021-12-17 16:42:31.937500
674,-10.11,2021-12-17 16:42:31.953125
675,-10.19,2021-12-17 16:42:31.968750
676,-10.24,2021-12-17 16:42:31.984375
677,-10.55,2021-12-17 16:42:32.000000
678,-11.39,2021-12-17 16:42:32.015625
679,-12.82,2021-12-17 16:42:32.031250
680,-14.68,2021-12-17 16:42:32.046875
681,-16.58,2021-12-17 16:42:32.062500
682,-18.13,2021-12-17 16:42:32.078125
683,-19.06,2021-12-17 16:42:32.093750
684,-19.42,2021-12-17 16:42:32.109375
685,-19.51,2021-12-17 16:42:32.125000
686,-19.79,2021-12-17 16:42:32.140625
687,-20.54,2021-12-17 16:42:32.156250
688,-21.73,2021-12-17 16:42:32.171875
689,-22.83,2021-12-17 16:42:32.187500
690,-22.85,2021-12-17 16:42:32.203125
691,-20.53,2021-12-17 16:42:32.218750
692,-14.8,2021-12-17 16:42:32.234375
693,-5.37,2021-12-17 16:42:32.250000
694,6.72,2021-12-17 16:42:32.265625
695,19.05,2021-12-17 16:42:32.281250
696,28.4,2021-12-17 16:42:32.296875
697,31.97,2021-12-17 16:42:32.312500
698,28.57,2021-12-17 16:42:32.328125
699,19.43,2021-12-17 16:42:32.343750
700,7.57,2021-12-17 16:42:32.359375
701,-3.39,2021-12-17 16:42:32.375000
702,-10.77,2021-12-17 16:42:32.390625
703,-13.94,2021-12-17 16:42:32.406250
704,-14.18,2021-12-17 16:42:32.421875
705,-14.0,2021-12-17 16:42:32.437500
706,-16.14,2021-12-17 16:42:32.453125
707,-23.04,2021-12-17 16:42:32.468750
708,-36.55,2021-12-17 16:42:32.484375
709,-57.45,2021-12-17 16:42:32.500000
710,-84.47,2021-12-17 16:42:32.515625
711,-113.44,2021-12-17 16:42:32.531250
712,-137.56,2021-12-17 16:42:32.546875
713,-149.03,2021-12-17 16:42:32.562500
714,-142.25,2021-12-17 16:42:32.578125
715,-116.57,2021-12-17 16:42:32.593750
716,-77.51,2021-12-17 16:42:32.609375
717,-35.23,2021-12-17 16:42:32.625000
718,-1.1,2021-12-17 16:42:32.640625
719,16.25,2021-12-17 16:42:32.656250
720,13.31,2021-12-17 16:42:32.671875
721,-7.84,2021-12-17 16:42:32.687500
722,-41.07,2021-12-17 16:42:32.703125
723,-78.49,2021-12-17 16:42:32.718750
724,-112.33,2021-12-17 16:42:32.734375
725,-136.14,2021-12-17 16:42:32.750000
726,-145.24,2021-12-17 16:42:32.765625
727,-137.12,2021-12-17 16:42:32.781250
728,-111.67,2021-12-17 16:42:32.796875
729,-71.53,2021-12-17 16:42:32.812500
730,-21.76,2021-12-17 16:42:32.828125
731,30.9,2021-12-17 16:42:32.843750
732,79.21,2021-12-17 16:42:32.859375
733,116.97,2021-12-17 16:42:32.875000
734,140.35,2021-12-17 16:42:32.890625
735,148.79,2021-12-17 16:42:32.906250
736,144.95,2021-12-17 16:42:32.921875
737,133.83,2021-12-17 16:42:32.937500
738,121.15,2021-12-17 16:42:32.953125
739,111.6,2021-12-17 16:42:32.968750
740,107.57,2021-12-17 16:42:32.984375
741,108.68,2021-12-17 16:42:33.000000
742,112.56,2021-12-17 16:42:33.015625
743,116.26,2021-12-17 16:42:33.031250
744,117.61,2021-12-17 16:42:33.046875
745,116.15,2021-12-17 16:42:33.062500
746,113.04,2021-12-17 16:42:33.078125
747,110.16,2021-12-17 16:42:33.093750
748,109.01,2021-12-17 16:42:33.109375
749,109.98,2021-12-17 16:42:33.125000
750,112.3,2021-12-17 16:42:33.140625
751,114.53,2021-12-17 16:42:33.156250
752,114.97,2021-12-17 16:42:33.171875
753,111.62,2021-12-17 16:42:33.187500
754,102.04,2021-12-17 16:42:33.203125
755,83.51,2021-12-17 16:42:33.218750
756,54.13,2021-12-17 16:42:33.234375
757,14.48,2021-12-17 16:42:33.250000
758,-31.09,2021-12-17 16:42:33.265625
759,-74.99,2021-12-17 16:42:33.281250
760,-108.92,2021-12-17 16:42:33.296875
761,-127.38,2021-12-17 16:42:33.312500
762,-130.39,2021-12-17 16:42:33.328125
763,-123.49,2021-12-17 16:42:33.343750
764,-114.93,2021-12-17 16:42:33.359375
765,-111.39,2021-12-17 16:42:33.375000
766,-114.74,2021-12-17 16:42:33.390625
767,-121.6,2021-12-17 16:42:33.406250
768,-125.64,2021-12-17 16:42:33.421875
769,-121.25,2021-12-17 16:42:33.437500
770,-106.24,2021-12-17 16:42:33.453125
771,-82.41,2021-12-17 16:42:33.468750
772,-54.05,2021-12-17 16:42:33.484375
773,-25.62,2021-12-17 16:42:33.500000
774,-0.14,2021-12-17 16:42:33.515625
775,21.24,2021-12-17 16:42:33.531250
776,38.41,2021-12-17 16:42:33.546875
777,51.38,2021-12-17 16:42:33.562500
778,59.87,2021-12-17 16:42:33.578125
779,63.46,2021-12-17 16:42:33.593750
780,62.26,2021-12-17 16:42:33.609375
781,57.3,2021-12-17 16:42:33.625000
782,50.55,2021-12-17 16:42:33.640625
783,44.37,2021-12-17 16:42:33.656250
784,40.71,2021-12-17 16:42:33.671875
785,40.45,2021-12-17 16:42:33.687500
786,43.18,2021-12-17 16:42:33.703125
787,47.39,2021-12-17 16:42:33.718750
788,51.14,2021-12-17 16:42:33.734375
789,52.84,2021-12-17 16:42:33.750000
790,51.79,2021-12-17 16:42:33.765625
791,48.4,2021-12-17 16:42:33.781250
792,43.89,2021-12-17 16:42:33.796875
793,39.75,2021-12-17 16:42:33.812500
794,37.1,2021-12-17 16:42:33.828125
795,36.26,2021-12-17 16:42:33.843750
796,36.72,2021-12-17 16:42:33.859375
797,37.44,2021-12-17 16:42:33.875000
798,37.29,2021-12-17 16:42:33.890625
799,35.62,2021-12-17 16:42:33.906250
800,32.5,2021-12-17 16:42:33.921875
801,28.62,2021-12-17 16:42:33.937500
802,24.96,2021-12-17 16:42:33.953125
803,22.37,2021-12-17 16:42:33.968750
804,21.13,2021-12-17 16:42:33.984375
805,21.0,2021-12-17 16:42:34.000000
806,21.28,2021-12-17 16:42:34.015625
807,21.25,2021-12-17 16:42:34.031250
808,20.45,2021-12-17 16:42:34.046875
809,18.79,2021-12-17 16:42:34.062500
810,16.53,2021-12-17 16:42:34.078125
811,14.08,2021-12-17 16:42:34.093750
812,11.79,2021-12-17 16:42:34.109375
813,9.83,2021-12-17 16:42:34.125000
814,8.16,2021-12-17 16:42:34.140625
815,6.69,2021-12-17 16:42:34.156250
816,5.26,2021-12-17 16:42:34.171875
817,3.83,2021-12-17 16:42:34.187500
818,2.4,2021-12-17 16:42:34.203125
819,1.05,2021-12-17 16:42:34.218750
820,-0.17,2021-12-17 16:42:34.234375
821,-1.22,2021-12-17 16:42:34.250000
822,-2.11,2021-12-17 16:42:34.265625
823,-2.85,2021-12-17 16:42:34.281250
824,-3.44,2021-12-17 16:42:34.296875
825,-3.9,2021-12-17 16:42:34.312500
826,-4.21,2021-12-17 16:42:34.328125
827,-4.39,2021-12-17 16:42:34.343750
828,-4.47,2021-12-17 16:42:34.359375
829,-4.51,2021-12-17 16:42:34.375000
830,-4.54,2021-12-17 16:42:34.390625
831,-4.56,2021-12-17 16:42:34.406250
832,-4.54,2021-12-17 16:42:34.421875
833,-4.39,2021-12-17 16:42:34.437500
834,-4.08,2021-12-17 16:42:34.453125
835,-3.61,2021-12-17 16:42:34.468750
836,-3.09,2021-12-17 16:42:34.484375
837,-2.63,2021-12-17 16:42:34.500000
838,-2.34,2021-12-17 16:42:34.515625
839,-2.23,2021-12-17 16:42:34.531250
840,-2.23,2021-12-17 16:42:34.546875
841,-2.28,2021-12-17 16:42:34.562500
842,-2.32,2021-12-17 16:42:34.578125
843,-2.33,2021-12-17 16:42:34.593750
844,-2.38,2021-12-17 16:42:34.609375
845,-2.5,2021-12-17 16:42:34.625000
846,-2.72,2021-12-17 16:42:34.640625
847,-3.0,2021-12-17 16:42:34.656250
848,-3.28,2021-12-17 16:42:34.671875
849,-3.5,2021-12-17 16:42:34.687500
850,-3.59,2021-12-17 16:42:34.703125
851,-3.58,2021-12-17 16:42:34.718750
852,-3.49,2021-12-17 16:42:34.734375
853,-3.39,2021-12-17 16:42:34.750000
854,-3.34,2021-12-17 16:42:34.765625
855,-3.36,2021-12-17 16:42:34.781250
856,-3.43,2021-12-17 16:42:34.796875
857,-3.47,2021-12-17 16:42:34.812500
858,-3.42,2021-12-17 16:42:34.828125
859,-3.24,2021-12-17 16:42:34.843750
860,-2.94,2021-12-17 16:42:34.859375
861,-2.57,2021-12-17 16:42:34.875000
862,-2.22,2021-12-17 16:42:34.890625
863,-1.98,2021-12-17 16:42:34.906250
864,-1.84,2021-12-17 16:42:34.921875
865,-1.77,2021-12-17 16:42:34.937500
866,-1.65,2021-12-17 16:42:34.953125
867,-1.4,2021-12-17 16:42:34.968750
868,-0.95,2021-12-17 16:42:34.984375
869,-0.37,2021-12-17 16:42:35.000000
870,0.23,2021-12-17 16:42:35.015625
871,0.73,2021-12-17 16:42:35.031250
872,1.06,2021-12-17 16:42:35.046875
873,1.25,2021-12-17 16:42:35.062500
874,1.4,2021-12-17 16:42:35.078125
875,1.61,2021-12-17 16:42:35.093750
876,1.93,2021-12-17 16:42:35.109375
877,2.3,2021-12-17 16:42:35.125000
878,2.67,2021-12-17 16:42:35.140625
879,2.95,2021-12-17 16:42:35.156250
880,3.08,2021-12-17 16:42:35.171875
881,2.99,2021-12-17 16:42:35.187500
882,2.65,2021-12-17 16:42:35.203125
883,2.06,2021-12-17 16:42:35.218750
884,1.28,2021-12-17 16:42:35.234375
885,0.41,2021-12-17 16:42:35.250000
886,-0.41,2021-12-17 16:42:35.265625
887,-1.09,2021-12-17 16:42:35.281250
888,-1.65,2021-12-17 16:42:35.296875
889,-2.19,2021-12-17 16:42:35.312500
890,-2.82,2021-12-17 16:42:35.328125
891,-3.59,2021-12-17 16:42:35.343750
892,-4.45,2021-12-17 16:42:35.359375
893,-5.29,2021-12-17 16:42:35.375000
894,-6.05,2021-12-17 16:42:35.390625
895,-6.75,2021-12-17 16:42:35.406250
896,-7.46,2021-12-17 16:42:35.421875
897,-8.25,2021-12-17 16:42:35.437500
898,-9.05,2021-12-17 16:42:35.453125
899,-9.74,2021-12-17 16:42:35.468750
900,-10.18,2021-12-17 16:42:35.484375
901,-10.27,2021-12-17 16:42:35.500000
902,-10.04,2021-12-17 16:42:35.515625
903,-9.58,2021-12-17 16:42:35.531250
904,-8.95,2021-12-17 16:42:35.546875
905,-8.18,2021-12-17 16:42:35.562500
906,-7.29,2021-12-17 16:42:35.578125
907,-6.24,2021-12-17 16:42:35.593750
908,-5.05,2021-12-17 16:42:35.609375
909,-3.75,2021-12-17 16:42:35.625000
910,-2.39,2021-12-17 16:42:35.640625
911,-1.01,2021-12-17 16:42:35.656250
912,0.31,2021-12-17 16:42:35.671875
913,1.52,2021-12-17 16:42:35.687500
914,2.49,2021-12-17 16:42:35.703125
915,3.18,2021-12-17 16:42:35.718750
916,3.59,2021-12-17 16:42:35.734375
917,3.81,2021-12-17 16:42:35.750000
918,3.96,2021-12-17 16:42:35.765625
919,4.09,2021-12-17 16:42:35.781250
920,4.11,2021-12-17 16:42:35.796875
921,3.84,2021-12-17 16:42:35.812500
922,3.11,2021-12-17 16:42:35.828125
923,1.87,2021-12-17 16:42:35.843750
924,0.27,2021-12-17 16:42:35.859375
925,-1.42,2021-12-17 16:42:35.875000
926,-2.93,2021-12-17 16:42:35.890625
927,-4.1,2021-12-17 16:42:35.906250
928,-4.97,2021-12-17 16:42:35.921875
929,-5.7,2021-12-17 16:42:35.937500
930,-6.44,2021-12-17 16:42:35.953125
931,-7.28,2021-12-17 16:42:35.968750
932,-8.13,2021-12-17 16:42:35.984375
933,-8.84,2021-12-17 16:42:36.000000
934,-9.29,2021-12-17 16:42:36.015625
935,-9.42,2021-12-17 16:42:36.031250
936,-9.27,2021-12-17 16:42:36.046875
937,-8.94,2021-12-17 16:42:36.062500
938,-8.46,2021-12-17 16:42:36.078125
939,-7.86,2021-12-17 16:42:36.093750
940,-7.12,2021-12-17 16:42:36.109375
941,-6.24,2021-12-17 16:42:36.125000
942,-5.27,2021-12-17 16:42:36.140625
943,-4.29,2021-12-17 16:42:36.156250
944,-3.33,2021-12-17 16:42:36.171875
945,-2.37,2021-12-17 16:42:36.187500
946,-1.37,2021-12-17 16:42:36.203125
947,-0.28,2021-12-17 16:42:36.218750
948,0.89,2021-12-17 16:42:36.234375
949,2.07,2021-12-17 16:42:36.250000
950,3.12,2021-12-17 16:42:36.265625
951,3.97,2021-12-17 16:42:36.281250
952,4.56,2021-12-17 16:42:36.296875
953,4.9,2021-12-17 16:42:36.312500
954,5.03,2021-12-17 16:42:36.328125
955,4.99,2021-12-17 16:42:36.343750
956,4.82,2021-12-17 16:42:36.359375
957,4.53,2021-12-17 16:42:36.375000
958,4.17,2021-12-17 16:42:36.390625
959,3.77,2021-12-17 16:42:36.406250
960,3.32,2021-12-17 16:42:36.421875
961,2.77,2021-12-17 16:42:36.437500
962,2.08,2021-12-17 16:42:36.453125
963,1.19,2021-12-17 16:42:36.468750
964,0.12,2021-12-17 16:42:36.484375
965,-1.07,2021-12-17 16:42:36.500000
966,-2.27,2021-12-17 16:42:36.515625
967,-3.42,2021-12-17 16:42:36.531250
968,-4.47,2021-12-17 16:42:36.546875
969,-5.42,2021-12-17 16:42:36.562500
970,-6.26,2021-12-17 16:42:36.578125
971,-6.96,2021-12-17 16:42:36.593750
972,-7.49,2021-12-17 16:42:36.609375
973,-7.82,2021-12-17 16:42:36.625000
974,-7.92,2021-12-17 16:42:36.640625
975,-7.77,2021-12-17 16:42:36.656250
976,-7.35,2021-12-17 16:42:36.671875
977,-6.65,2021-12-17 16:42:36.687500
978,-5.64,2021-12-17 16:42:36.703125
979,-4.33,2021-12-17 16:42:36.718750
980,-2.77,2021-12-17 16:42:36.734375
981,-1.06,2021-12-17 16:42:36.750000
982,0.69,2021-12-17 16:42:36.765625
983,2.37,2021-12-17 16:42:36.781250
984,3.95,2021-12-17 16:42:36.796875
985,5.41,2021-12-17 16:42:36.812500
986,6.75,2021-12-17 16:42:36.828125
987,7.93,2021-12-17 16:42:36.843750
988,8.88,2021-12-17 16:42:36.859375
989,9.5,2021-12-17 16:42:36.875000
990,9.73,2021-12-17 16:42:36.890625
991,9.57,2021-12-17 16:42:36.906250
992,9.07,2021-12-17 16:42:36.921875
993,8.32,2021-12-17 16:42:36.937500
994,7.42,2021-12-17 16:42:36.953125
995,6.48,2021-12-17 16:42:36.968750
996,5.58,2021-12-17 16:42:36.984375
997,4.83,2021-12-17 16:42:37.000000
998,4.3,2021-12-17 16:42:37.015625
999,4.01,2021-12-17 16:42:37.031250
1000,3.9,2021-12-17 16:42:37.046875
1001,3.88,2021-12-17 16:42:37.062500
1002,3.79,2021-12-17 16:42:37.078125
1003,3.52,2021-12-17 16:42:37.093750
1004,3.05,2021-12-17 16:42:37.109375
1005,2.4,2021-12-17 16:42:37.125000
1006,1.6,2021-12-17 16:42:37.140625
1007,0.69,2021-12-17 16:42:37.156250
1008,-0.31,2021-12-17 16:42:37.171875
1009,-1.41,2021-12-17 16:42:37.187500
1010,-2.57,2021-12-17 16:42:37.203125
1011,-3.75,2021-12-17 16:42:37.218750
1012,-4.87,2021-12-17 16:42:37.234375
1013,-5.84,2021-12-17 16:42:37.250000
1014,-6.56,2021-12-17 16:42:37.265625
1015,-6.92,2021-12-17 16:42:37.281250
1016,-6.88,2021-12-17 16:42:37.296875
1017,-6.37,2021-12-17 16:42:37.312500
1018,-5.4,2021-12-17 16:42:37.328125
1019,-4.05,2021-12-17 16:42:37.343750
1020,-2.45,2021-12-17 16:42:37.359375
1021,-0.77,2021-12-17 16:42:37.375000
1022,0.83,2021-12-17 16:42:37.390625
1023,2.25,2021-12-17 16:42:37.406250
1024,3.48,2021-12-17 16:42:37.421875
1025,4.56,2021-12-17 16:42:37.437500
1026,5.56,2021-12-17 16:42:37.453125
1027,6.55,2021-12-17 16:42:37.468750
1028,7.53,2021-12-17 16:42:37.484375
1029,8.48,2021-12-17 16:42:37.500000
1030,9.35,2021-12-17 16:42:37.515625
1031,10.06,2021-12-17 16:42:37.531250
1032,10.6,2021-12-17 16:42:37.546875
1033,10.98,2021-12-17 16:42:37.562500
1034,11.25,2021-12-17 16:42:37.578125
1035,11.48,2021-12-17 16:42:37.593750
1036,11.72,2021-12-17 16:42:37.609375
1037,11.99,2021-12-17 16:42:37.625000
1038,12.28,2021-12-17 16:42:37.640625
1039,12.51,2021-12-17 16:42:37.656250
1040,12.63,2021-12-17 16:42:37.671875
1041,12.59,2021-12-17 16:42:37.687500
1042,12.39,2021-12-17 16:42:37.703125
1043,12.04,2021-12-17 16:42:37.718750
1044,11.65,2021-12-17 16:42:37.734375
1045,11.27,2021-12-17 16:42:37.750000
1046,10.97,2021-12-17 16:42:37.765625
1047,10.75,2021-12-17 16:42:37.781250
1048,10.55,2021-12-17 16:42:37.796875
1049,10.27,2021-12-17 16:42:37.812500
1050,9.83,2021-12-17 16:42:37.828125
1051,9.19,2021-12-17 16:42:37.843750
1052,8.37,2021-12-17 16:42:37.859375
1053,7.46,2021-12-17 16:42:37.875000
1054,6.54,2021-12-17 16:42:37.890625
1055,5.69,2021-12-17 16:42:37.906250
1056,4.96,2021-12-17 16:42:37.921875
1057,4.35,2021-12-17 16:42:37.937500
1058,3.86,2021-12-17 16:42:37.953125
1059,3.45,2021-12-17 16:42:37.968750
1060,3.08,2021-12-17 16:42:37.984375
1061,2.69,2021-12-17 16:42:38.000000
1062,2.24,2021-12-17 16:42:38.015625
1063,1.74,2021-12-17 16:42:38.031250
1064,1.21,2021-12-17 16:42:38.046875
1065,0.74,2021-12-17 16:42:38.062500
1066,0.38,2021-12-17 16:42:38.078125
1067,0.18,2021-12-17 16:42:38.093750
1068,0.1,2021-12-17 16:42:38.109375
1069,0.1,2021-12-17 16:42:38.125000
1070,0.1,2021-12-17 16:42:38.140625
1071,0.05,2021-12-17 16:42:38.156250
1072,-0.14,2021-12-17 16:42:38.171875
1073,-0.52,2021-12-17 16:42:38.187500
1074,-1.13,2021-12-17 16:42:38.203125
1075,-1.97,2021-12-17 16:42:38.218750
1076,-3.0,2021-12-17 16:42:38.234375
1077,-4.1,2021-12-17 16:42:38.250000
1078,-5.15,2021-12-17 16:42:38.265625
1079,-6.08,2021-12-17 16:42:38.281250
1080,-6.87,2021-12-17 16:42:38.296875
1081,-7.58,2021-12-17 16:42:38.312500
1082,-8.33,2021-12-17 16:42:38.328125
1083,-9.2,2021-12-17 16:42:38.343750
1084,-10.21,2021-12-17 16:42:38.359375
1085,-11.29,2021-12-17 16:42:38.375000
1086,-12.3,2021-12-17 16:42:38.390625
1087,-13.06,2021-12-17 16:42:38.406250
1088,-13.46,2021-12-17 16:42:38.421875
1089,-13.42,2021-12-17 16:42:38.437500
1090,-12.91,2021-12-17 16:42:38.453125
1091,-11.97,2021-12-17 16:42:38.468750
1092,-10.67,2021-12-17 16:42:38.484375
1093,-9.13,2021-12-17 16:42:38.500000
1094,-7.5,2021-12-17 16:42:38.515625
1095,-5.95,2021-12-17 16:42:38.531250
1096,-4.58,2021-12-17 16:42:38.546875
1097,-3.44,2021-12-17 16:42:38.562500
1098,-2.44,2021-12-17 16:42:38.578125
1099,-1.49,2021-12-17 16:42:38.593750
1100,-0.49,2021-12-17 16:42:38.609375
1101,0.56,2021-12-17 16:42:38.625000
1102,1.6,2021-12-17 16:42:38.640625
1103,2.55,2021-12-17 16:42:38.656250
1104,3.36,2021-12-17 16:42:38.671875
1105,4.01,2021-12-17 16:42:38.687500
1106,4.49,2021-12-17 16:42:38.703125
1107,4.83,2021-12-17 16:42:38.718750
1108,5.0,2021-12-17 16:42:38.734375
1109,5.03,2021-12-17 16:42:38.750000
1110,4.94,2021-12-17 16:42:38.765625
1111,4.86,2021-12-17 16:42:38.781250
1112,4.89,2021-12-17 16:42:38.796875
1113,5.12,2021-12-17 16:42:38.812500
1114,5.54,2021-12-17 16:42:38.828125
1115,6.08,2021-12-17 16:42:38.843750
1116,6.66,2021-12-17 16:42:38.859375
1117,7.21,2021-12-17 16:42:38.875000
1118,7.71,2021-12-17 16:42:38.890625
1119,8.17,2021-12-17 16:42:38.906250
1120,8.56,2021-12-17 16:42:38.921875
1121,8.81,2021-12-17 16:42:38.937500
1122,8.82,2021-12-17 16:42:38.953125
1123,8.56,2021-12-17 16:42:38.968750
1124,8.05,2021-12-17 16:42:38.984375
1125,7.45,2021-12-17 16:42:39.000000
1126,6.93,2021-12-17 16:42:39.015625
1127,6.6,2021-12-17 16:42:39.031250
1128,6.43,2021-12-17 16:42:39.046875
1129,6.28,2021-12-17 16:42:39.062500
1130,6.01,2021-12-17 16:42:39.078125
1131,5.55,2021-12-17 16:42:39.093750
1132,4.97,2021-12-17 16:42:39.109375
1133,4.39,2021-12-17 16:42:39.125000
1134,3.93,2021-12-17 16:42:39.140625
1135,3.57,2021-12-17 16:42:39.156250
1136,3.23,2021-12-17 16:42:39.171875
1137,2.77,2021-12-17 16:42:39.187500
1138,2.13,2021-12-17 16:42:39.203125
1139,1.34,2021-12-17 16:42:39.218750
1140,0.51,2021-12-17 16:42:39.234375
1141,-0.24,2021-12-17 16:42:39.250000
1142,-0.87,2021-12-17 16:42:39.265625
1143,-1.37,2021-12-17 16:42:39.281250
1144,-1.8,2021-12-17 16:42:39.296875
1145,-2.2,2021-12-17 16:42:39.312500
1146,-2.59,2021-12-17 16:42:39.328125
1147,-3.0,2021-12-17 16:42:39.343750
1148,-3.46,2021-12-17 16:42:39.359375
1149,-4.01,2021-12-17 16:42:39.375000
1150,-4.68,2021-12-17 16:42:39.390625
1151,-5.48,2021-12-17 16:42:39.406250
1152,-6.36,2021-12-17 16:42:39.421875
1153,-7.21,2021-12-17 16:42:39.437500
1154,-7.87,2021-12-17 16:42:39.453125
1155,-8.14,2021-12-17 16:42:39.468750
1156,-7.93,2021-12-17 16:42:39.484375
1157,-7.23,2021-12-17 16:42:39.500000
1158,-6.18,2021-12-17 16:42:39.515625
1159,-5.02,2021-12-17 16:42:39.531250
1160,-3.99,2021-12-17 16:42:39.546875
1161,-3.21,2021-12-17 16:42:39.562500
1162,-2.64,2021-12-17 16:42:39.578125
1163,-2.13,2021-12-17 16:42:39.593750
1164,-1.53,2021-12-17 16:42:39.609375
1165,-0.78,2021-12-17 16:42:39.625000
1166,0.03,2021-12-17 16:42:39.640625
1167,0.77,2021-12-17 16:42:39.656250
1168,1.29,2021-12-17 16:42:39.671875
1169,1.55,2021-12-17 16:42:39.687500
1170,1.59,2021-12-17 16:42:39.703125
1171,1.55,2021-12-17 16:42:39.718750
1172,1.5,2021-12-17 16:42:39.734375
1173,1.42,2021-12-17 16:42:39.750000
1174,1.28,2021-12-17 16:42:39.765625
1175,1.01,2021-12-17 16:42:39.781250
1176,0.61,2021-12-17 16:42:39.796875
1177,0.19,2021-12-17 16:42:39.812500
1178,-0.12,2021-12-17 16:42:39.828125
1179,-0.21,2021-12-17 16:42:39.843750
1180,-0.04,2021-12-17 16:42:39.859375
1181,0.32,2021-12-17 16:42:39.875000
1182,0.77,2021-12-17 16:42:39.890625
1183,1.17,2021-12-17 16:42:39.906250
1184,1.43,2021-12-17 16:42:39.921875
1185,1.52,2021-12-17 16:42:39.937500
1186,1.46,2021-12-17 16:42:39.953125
1187,1.3,2021-12-17 16:42:39.968750
1188,1.12,2021-12-17 16:42:39.984375
1189,0.96,2021-12-17 16:42:40.000000
1190,0.87,2021-12-17 16:42:40.015625
1191,0.84,2021-12-17 16:42:40.031250
1192,0.85,2021-12-17 16:42:40.046875
1193,0.86,2021-12-17 16:42:40.062500
1194,0.8,2021-12-17 16:42:40.078125
1195,0.66,2021-12-17 16:42:40.093750
1196,0.41,2021-12-17 16:42:40.109375
1197,0.1,2021-12-17 16:42:40.125000
1198,-0.22,2021-12-17 16:42:40.140625
1199,-0.51,2021-12-17 16:42:40.156250
1200,-0.7,2021-12-17 16:42:40.171875
1201,-0.83,2021-12-17 16:42:40.187500
1202,-0.95,2021-12-17 16:42:40.203125
1203,-1.13,2021-12-17 16:42:40.218750
1204,-1.44,2021-12-17 16:42:40.234375
1205,-1.85,2021-12-17 16:42:40.250000
1206,-2.31,2021-12-17 16:42:40.265625
1207,-2.77,2021-12-17 16:42:40.281250
1208,-3.23,2021-12-17 16:42:40.296875
1209,-3.78,2021-12-17 16:42:40.312500
1210,-4.5,2021-12-17 16:42:40.328125
1211,-5.38,2021-12-17 16:42:40.343750
1212,-6.32,2021-12-17 16:42:40.359375
1213,-7.09,2021-12-17 16:42:40.375000
1214,-7.52,2021-12-17 16:42:40.390625
1215,-7.59,2021-12-17 16:42:40.406250
1216,-7.42,2021-12-17 16:42:40.421875
1217,-7.22,2021-12-17 16:42:40.437500
1218,-7.13,2021-12-17 16:42:40.453125
1219,-7.14,2021-12-17 16:42:40.468750
1220,-7.12,2021-12-17 16:42:40.484375
1221,-6.88,2021-12-17 16:42:40.500000
1222,-6.33,2021-12-17 16:42:40.515625
1223,-5.53,2021-12-17 16:42:40.531250
1224,-4.66,2021-12-17 16:42:40.546875
1225,-3.92,2021-12-17 16:42:40.562500
1226,-3.4,2021-12-17 16:42:40.578125
1227,-3.05,2021-12-17 16:42:40.593750
1228,-2.72,2021-12-17 16:42:40.609375
1229,-2.22,2021-12-17 16:42:40.625000
1230,-1.47,2021-12-17 16:42:40.640625
1231,-0.52,2021-12-17 16:42:40.656250
1232,0.48,2021-12-17 16:42:40.671875
1233,1.33,2021-12-17 16:42:40.687500
1234,1.87,2021-12-17 16:42:40.703125
1235,2.06,2021-12-17 16:42:40.718750
1236,1.95,2021-12-17 16:42:40.734375
1237,1.69,2021-12-17 16:42:40.750000
1238,1.4,2021-12-17 16:42:40.765625
1239,1.21,2021-12-17 16:42:40.781250
1240,1.19,2021-12-17 16:42:40.796875
1241,1.35,2021-12-17 16:42:40.812500
1242,1.63,2021-12-17 16:42:40.828125
1243,1.95,2021-12-17 16:42:40.843750
1244,2.19,2021-12-17 16:42:40.859375
1245,2.24,2021-12-17 16:42:40.875000
1246,2.03,2021-12-17 16:42:40.890625
1247,1.53,2021-12-17 16:42:40.906250
1248,0.82,2021-12-17 16:42:40.921875
1249,0.04,2021-12-17 16:42:40.937500
1250,-0.67,2021-12-17 16:42:40.953125
1251,-1.21,2021-12-17 16:42:40.968750
1252,-1.52,2021-12-17 16:42:40.984375
1253,-1.65,2021-12-17 16:42:41.000000
1254,-1.69,2021-12-17 16:42:41.015625
1255,-1.71,2021-12-17 16:42:41.031250
1256,-1.72,2021-12-17 16:42:41.046875
1257,-1.75,2021-12-17 16:42:41.062500
1258,-1.76,2021-12-17 16:42:41.078125
1259,-1.75,2021-12-17 16:42:41.093750
1260,-1.75,2021-12-17 16:42:41.109375
1261,-1.73,2021-12-17 16:42:41.125000
1262,-1.66,2021-12-17 16:42:41.140625
1263,-1.46,2021-12-17 16:42:41.156250
1264,-1.1,2021-12-17 16:42:41.171875
1265,-0.63,2021-12-17 16:42:41.187500
1266,-0.15,2021-12-17 16:42:41.203125
1267,0.19,2021-12-17 16:42:41.218750
1268,0.26,2021-12-17 16:42:41.234375
1269,0.05,2021-12-17 16:42:41.250000
1270,-0.38,2021-12-17 16:42:41.265625
1271,-0.9,2021-12-17 16:42:41.281250
1272,-1.41,2021-12-17 16:42:41.296875
1273,-1.86,2021-12-17 16:42:41.312500
1274,-2.26,2021-12-17 16:42:41.328125
1275,-2.64,2021-12-17 16:42:41.343750
1276,-3.03,2021-12-17 16:42:41.359375
1277,-3.4,2021-12-17 16:42:41.375000
1278,-3.68,2021-12-17 16:42:41.390625
1279,-3.86,2021-12-17 16:42:41.406250
1280,-3.94,2021-12-17 16:42:41.421875
1281,-3.99,2021-12-17 16:42:41.437500
1282,-4.09,2021-12-17 16:42:41.453125
1283,-4.28,2021-12-17 16:42:41.468750
1284,-4.48,2021-12-17 16:42:41.484375
1285,-4.58,2021-12-17 16:42:41.500000
1286,-4.45,2021-12-17 16:42:41.515625
1287,-4.02,2021-12-17 16:42:41.531250
1288,-3.36,2021-12-17 16:42:41.546875
1289,-2.59,2021-12-17 16:42:41.562500
1290,-1.87,2021-12-17 16:42:41.578125
1291,-1.26,2021-12-17 16:42:41.593750
1292,-0.71,2021-12-17 16:42:41.609375
1293,-0.13,2021-12-17 16:42:41.625000
1294,0.52,2021-12-17 16:42:41.640625
1295,1.26,2021-12-17 16:42:41.656250
1296,1.95,2021-12-17 16:42:41.671875
1297,2.48,2021-12-17 16:42:41.687500
1298,2.8,2021-12-17 16:42:41.703125
1299,2.93,2021-12-17 16:42:41.718750
1300,3.02,2021-12-17 16:42:41.734375
1301,3.18,2021-12-17 16:42:41.750000
1302,3.46,2021-12-17 16:42:41.765625
1303,3.76,2021-12-17 16:42:41.781250
1304,3.91,2021-12-17 16:42:41.796875
1305,3.79,2021-12-17 16:42:41.812500
1306,3.37,2021-12-17 16:42:41.828125
1307,2.81,2021-12-17 16:42:41.843750
1308,2.31,2021-12-17 16:42:41.859375
1309,2.06,2021-12-17 16:42:41.875000
1310,2.12,2021-12-17 16:42:41.890625
1311,2.38,2021-12-17 16:42:41.906250
1312,2.63,2021-12-17 16:42:41.921875
1313,2.7,2021-12-17 16:42:41.937500
1314,2.48,2021-12-17 16:42:41.953125
1315,2.0,2021-12-17 16:42:41.968750
1316,1.38,2021-12-17 16:42:41.984375
1317,0.76,2021-12-17 16:42:42.000000
1318,0.24,2021-12-17 16:42:42.015625
1319,-0.15,2021-12-17 16:42:42.031250
1320,-0.41,2021-12-17 16:42:42.046875
1321,-0.6,2021-12-17 16:42:42.062500
1322,-0.78,2021-12-17 16:42:42.078125
1323,-1.0,2021-12-17 16:42:42.093750
1324,-1.31,2021-12-17 16:42:42.109375
1325,-1.69,2021-12-17 16:42:42.125000
1326,-2.12,2021-12-17 16:42:42.140625
1327,-2.54,2021-12-17 16:42:42.156250
1328,-2.9,2021-12-17 16:42:42.171875
1329,-3.16,2021-12-17 16:42:42.187500
1330,-3.3,2021-12-17 16:42:42.203125
1331,-3.32,2021-12-17 16:42:42.218750
1332,-3.25,2021-12-17 16:42:42.234375
1333,-3.12,2021-12-17 16:42:42.250000
1334,-2.99,2021-12-17 16:42:42.265625
1335,-2.89,2021-12-17 16:42:42.281250
1336,-2.86,2021-12-17 16:42:42.296875
1337,-2.9,2021-12-17 16:42:42.312500
1338,-3.0,2021-12-17 16:42:42.328125
1339,-3.13,2021-12-17 16:42:42.343750
1340,-3.23,2021-12-17 16:42:42.359375
1341,-3.31,2021-12-17 16:42:42.375000
1342,-3.37,2021-12-17 16:42:42.390625
1343,-3.43,2021-12-17 16:42:42.406250
1344,-3.51,2021-12-17 16:42:42.421875
1345,-3.59,2021-12-17 16:42:42.437500
1346,-3.66,2021-12-17 16:42:42.453125
1347,-3.73,2021-12-17 16:42:42.468750
1348,-3.84,2021-12-17 16:42:42.484375
1349,-4.05,2021-12-17 16:42:42.500000
1350,-4.33,2021-12-17 16:42:42.515625
1351,-4.59,2021-12-17 16:42:42.531250
1352,-4.69,2021-12-17 16:42:42.546875
1353,-4.5,2021-12-17 16:42:42.562500
1354,-3.95,2021-12-17 16:42:42.578125
1355,-3.13,2021-12-17 16:42:42.593750
1356,-2.17,2021-12-17 16:42:42.609375
1357,-1.23,2021-12-17 16:42:42.625000
1358,-0.39,2021-12-17 16:42:42.640625
1359,0.34,2021-12-17 16:42:42.656250
1360,0.99,2021-12-17 16:42:42.671875
1361,1.6,2021-12-17 16:42:42.687500
1362,2.15,2021-12-17 16:42:42.703125
1363,2.61,2021-12-17 16:42:42.718750
1364,2.94,2021-12-17 16:42:42.734375
1365,3.11,2021-12-17 16:42:42.750000
1366,3.1,2021-12-17 16:42:42.765625
1367,2.89,2021-12-17 16:42:42.781250
1368,2.52,2021-12-17 16:42:42.796875
1369,2.03,2021-12-17 16:42:42.812500
1370,1.52,2021-12-17 16:42:42.828125
1371,1.08,2021-12-17 16:42:42.843750
1372,0.72,2021-12-17 16:42:42.859375
1373,0.39,2021-12-17 16:42:42.875000
1374,0.02,2021-12-17 16:42:42.890625
1375,-0.38,2021-12-17 16:42:42.906250
1376,-0.72,2021-12-17 16:42:42.921875
1377,-0.84,2021-12-17 16:42:42.937500
1378,-0.64,2021-12-17 16:42:42.953125
1379,-0.16,2021-12-17 16:42:42.968750
1380,0.38,2021-12-17 16:42:42.984375
1381,0.75,2021-12-17 16:42:43.000000
1382,0.81,2021-12-17 16:42:43.015625
1383,0.59,2021-12-17 16:42:43.031250
1384,0.27,2021-12-17 16:42:43.046875
1385,0.08,2021-12-17 16:42:43.062500
1386,0.16,2021-12-17 16:42:43.078125
1387,0.5,2021-12-17 16:42:43.093750
1388,0.99,2021-12-17 16:42:43.109375
1389,1.47,2021-12-17 16:42:43.125000
1390,1.8,2021-12-17 16:42:43.140625
1391,1.88,2021-12-17 16:42:43.156250
1392,1.69,2021-12-17 16:42:43.171875
1393,1.28,2021-12-17 16:42:43.187500
1394,0.76,2021-12-17 16:42:43.203125
1395,0.25,2021-12-17 16:42:43.218750
1396,-0.15,2021-12-17 16:42:43.234375
1397,-0.44,2021-12-17 16:42:43.250000
1398,-0.71,2021-12-17 16:42:43.265625
1399,-1.08,2021-12-17 16:42:43.281250
1400,-1.62,2021-12-17 16:42:43.296875
1401,-2.24,2021-12-17 16:42:43.312500
1402,-2.78,2021-12-17 16:42:43.328125
1403,-3.04,2021-12-17 16:42:43.343750
1404,-3.0,2021-12-17 16:42:43.359375
1405,-2.8,2021-12-17 16:42:43.375000
1406,-2.65,2021-12-17 16:42:43.390625
1407,-2.74,2021-12-17 16:42:43.406250
1408,-3.06,2021-12-17 16:42:43.421875
1409,-3.48,2021-12-17 16:42:43.437500
1410,-3.82,2021-12-17 16:42:43.453125
1411,-3.99,2021-12-17 16:42:43.468750
1412,-4.01,2021-12-17 16:42:43.484375
1413,-3.97,2021-12-17 16:42:43.500000
1414,-3.92,2021-12-17 16:42:43.515625
1415,-3.77,2021-12-17 16:42:43.531250
1416,-3.44,2021-12-17 16:42:43.546875
1417,-2.89,2021-12-17 16:42:43.562500
1418,-2.19,2021-12-17 16:42:43.578125
1419,-1.54,2021-12-17 16:42:43.593750
1420,-1.09,2021-12-17 16:42:43.609375
1421,-0.88,2021-12-17 16:42:43.625000
1422,-0.82,2021-12-17 16:42:43.640625
1423,-0.73,2021-12-17 16:42:43.656250
1424,-0.49,2021-12-17 16:42:43.671875
1425,-0.09,2021-12-17 16:42:43.687500
1426,0.37,2021-12-17 16:42:43.703125
1427,0.75,2021-12-17 16:42:43.718750
1428,0.93,2021-12-17 16:42:43.734375
1429,0.88,2021-12-17 16:42:43.750000
1430,0.62,2021-12-17 16:42:43.765625
1431,0.21,2021-12-17 16:42:43.781250
1432,-0.29,2021-12-17 16:42:43.796875
1433,-0.8,2021-12-17 16:42:43.812500
1434,-1.27,2021-12-17 16:42:43.828125
1435,-1.61,2021-12-17 16:42:43.843750
1436,-1.78,2021-12-17 16:42:43.859375
1437,-1.79,2021-12-17 16:42:43.875000
1438,-1.68,2021-12-17 16:42:43.890625
1439,-1.5,2021-12-17 16:42:43.906250
1440,-1.3,2021-12-17 16:42:43.921875
1441,-1.09,2021-12-17 16:42:43.937500
1442,-0.9,2021-12-17 16:42:43.953125
1443,-0.74,2021-12-17 16:42:43.968750
1444,-0.62,2021-12-17 16:42:43.984375
1445,-0.56,2021-12-17 16:42:44.000000
1446,-0.57,2021-12-17 16:42:44.015625
1447,-0.63,2021-12-17 16:42:44.031250
1448,-0.73,2021-12-17 16:42:44.046875
1449,-0.81,2021-12-17 16:42:44.062500
1450,-0.85,2021-12-17 16:42:44.078125
1451,-0.84,2021-12-17 16:42:44.093750
1452,-0.76,2021-12-17 16:42:44.109375
1453,-0.67,2021-12-17 16:42:44.125000
1454,-0.63,2021-12-17 16:42:44.140625
1455,-0.74,2021-12-17 16:42:44.156250
1456,-1.05,2021-12-17 16:42:44.171875
1457,-1.59,2021-12-17 16:42:44.187500
1458,-2.25,2021-12-17 16:42:44.203125
1459,-2.84,2021-12-17 16:42:44.218750
1460,-3.18,2021-12-17 16:42:44.234375
1461,-3.19,2021-12-17 16:42:44.250000
1462,-2.9,2021-12-17 16:42:44.265625
1463,-2.47,2021-12-17 16:42:44.281250
1464,-2.06,2021-12-17 16:42:44.296875
1465,-1.81,2021-12-17 16:42:44.312500
1466,-1.73,2021-12-17 16:42:44.328125
1467,-1.76,2021-12-17 16:42:44.343750
1468,-1.86,2021-12-17 16:42:44.359375
1469,-2.01,2021-12-17 16:42:44.375000
1470,-2.25,2021-12-17 16:42:44.390625
1471,-2.56,2021-12-17 16:42:44.406250
1472,-2.93,2021-12-17 16:42:44.421875
1473,-3.28,2021-12-17 16:42:44.437500
1474,-3.47,2021-12-17 16:42:44.453125
1475,-3.48,2021-12-17 16:42:44.468750
1476,-3.31,2021-12-17 16:42:44.484375
1477,-3.05,2021-12-17 16:42:44.500000
1478,-2.79,2021-12-17 16:42:44.515625
1479,-2.57,2021-12-17 16:42:44.531250
1480,-2.41,2021-12-17 16:42:44.546875
1481,-2.3,2021-12-17 16:42:44.562500
1482,-2.23,2021-12-17 16:42:44.578125
1483,-2.23,2021-12-17 16:42:44.593750
1484,-2.34,2021-12-17 16:42:44.609375
1485,-2.57,2021-12-17 16:42:44.625000
1486,-2.89,2021-12-17 16:42:44.640625
1487,-3.23,2021-12-17 16:42:44.656250
1488,-3.51,2021-12-17 16:42:44.671875
1489,-3.66,2021-12-17 16:42:44.687500
1490,-3.68,2021-12-17 16:42:44.703125
1491,-3.54,2021-12-17 16:42:44.718750
1492,-3.24,2021-12-17 16:42:44.734375
1493,-2.77,2021-12-17 16:42:44.750000
1494,-2.13,2021-12-17 16:42:44.765625
1495,-1.41,2021-12-17 16:42:44.781250
1496,-0.66,2021-12-17 16:42:44.796875
1497,0.04,2021-12-17 16:42:44.812500
1498,0.67,2021-12-17 16:42:44.828125
1499,1.22,2021-12-17 16:42:44.843750
1500,1.71,2021-12-17 16:42:44.859375
1501,2.11,2021-12-17 16:42:44.875000
1502,2.39,2021-12-17 16:42:44.890625
1503,2.52,2021-12-17 16:42:44.906250
1504,2.53,2021-12-17 16:42:44.921875
1505,2.5,2021-12-17 16:42:44.937500
1506,2.51,2021-12-17 16:42:44.953125
1507,2.62,2021-12-17 16:42:44.968750
1508,2.79,2021-12-17 16:42:44.984375
1509,2.92,2021-12-17 16:42:45.000000
1510,2.93,2021-12-17 16:42:45.015625
1511,2.74,2021-12-17 16:42:45.031250
1512,2.35,2021-12-17 16:42:45.046875
1513,1.81,2021-12-17 16:42:45.062500
1514,1.21,2021-12-17 16:42:45.078125
1515,0.65,2021-12-17 16:42:45.093750
1516,0.2,2021-12-17 16:42:45.109375
1517,-0.07,2021-12-17 16:42:45.125000
1518,-0.2,2021-12-17 16:42:45.140625
1519,-0.28,2021-12-17 16:42:45.156250
1520,-0.44,2021-12-17 16:42:45.171875
1521,-0.79,2021-12-17 16:42:45.187500
1522,-1.34,2021-12-17 16:42:45.203125
1523,-2.02,2021-12-17 16:42:45.218750
1524,-2.69,2021-12-17 16:42:45.234375
1525,-3.27,2021-12-17 16:42:45.250000
1526,-3.75,2021-12-17 16:42:45.265625
1527,-4.18,2021-12-17 16:42:45.281250
1528,-4.6,2021-12-17 16:42:45.296875
1529,-5.02,2021-12-17 16:42:45.312500
1530,-5.39,2021-12-17 16:42:45.328125
1531,-5.67,2021-12-17 16:42:45.343750
1532,-5.86,2021-12-17 16:42:45.359375
1533,-6.01,2021-12-17 16:42:45.375000
1534,-6.16,2021-12-17 16:42:45.390625
1535,-6.28,2021-12-17 16:42:45.406250
1536,-6.33,2021-12-17 16:42:45.421875
1537,-6.26,2021-12-17 16:42:45.437500
1538,-6.07,2021-12-17 16:42:45.453125
1539,-5.8,2021-12-17 16:42:45.468750
1540,-5.55,2021-12-17 16:42:45.484375
1541,-5.31,2021-12-17 16:42:45.500000
1542,-5.04,2021-12-17 16:42:45.515625
1543,-4.63,2021-12-17 16:42:45.531250
1544,-4.0,2021-12-17 16:42:45.546875
1545,-3.21,2021-12-17 16:42:45.562500
1546,-2.37,2021-12-17 16:42:45.578125
1547,-1.65,2021-12-17 16:42:45.593750
1548,-1.16,2021-12-17 16:42:45.609375
1549,-0.87,2021-12-17 16:42:45.625000
1550,-0.7,2021-12-17 16:42:45.640625
1551,-0.57,2021-12-17 16:42:45.656250
1552,-0.42,2021-12-17 16:42:45.671875
1553,-0.29,2021-12-17 16:42:45.687500
1554,-0.19,2021-12-17 16:42:45.703125
1555,-0.11,2021-12-17 16:42:45.718750
1556,0.02,2021-12-17 16:42:45.734375
1557,0.33,2021-12-17 16:42:45.750000
1558,0.88,2021-12-17 16:42:45.765625
1559,1.67,2021-12-17 16:42:45.781250
1560,2.56,2021-12-17 16:42:45.796875
1561,3.33,2021-12-17 16:42:45.812500
1562,3.83,2021-12-17 16:42:45.828125
1563,3.98,2021-12-17 16:42:45.843750
1564,3.86,2021-12-17 16:42:45.859375
1565,3.63,2021-12-17 16:42:45.875000
1566,3.42,2021-12-17 16:42:45.890625
1567,3.31,2021-12-17 16:42:45.906250
1568,3.25,2021-12-17 16:42:45.921875
1569,3.15,2021-12-17 16:42:45.937500
1570,2.94,2021-12-17 16:42:45.953125
1571,2.65,2021-12-17 16:42:45.968750
1572,2.37,2021-12-17 16:42:45.984375
1573,2.22,2021-12-17 16:42:46.000000
1574,2.25,2021-12-17 16:42:46.015625
1575,2.35,2021-12-17 16:42:46.031250
1576,2.34,2021-12-17 16:42:46.046875
1577,2.03,2021-12-17 16:42:46.062500
1578,1.37,2021-12-17 16:42:46.078125
1579,0.46,2021-12-17 16:42:46.093750
1580,-0.46,2021-12-17 16:42:46.109375
1581,-1.2,2021-12-17 16:42:46.125000
1582,-1.68,2021-12-17 16:42:46.140625
1583,-1.98,2021-12-17 16:42:46.156250
1584,-2.29,2021-12-17 16:42:46.171875
1585,-2.77,2021-12-17 16:42:46.187500
1586,-3.46,2021-12-17 16:42:46.203125
1587,-4.3,2021-12-17 16:42:46.218750
1588,-5.11,2021-12-17 16:42:46.234375
1589,-5.76,2021-12-17 16:42:46.250000
1590,-6.21,2021-12-17 16:42:46.265625
1591,-6.49,2021-12-17 16:42:46.281250
1592,-6.7,2021-12-17 16:42:46.296875
1593,-6.9,2021-12-17 16:42:46.312500
1594,-7.09,2021-12-17 16:42:46.328125
1595,-7.25,2021-12-17 16:42:46.343750
1596,-7.31,2021-12-17 16:42:46.359375
1597,-7.22,2021-12-17 16:42:46.375000
1598,-6.98,2021-12-17 16:42:46.390625
1599,-6.65,2021-12-17 16:42:46.406250
1600,-6.27,2021-12-17 16:42:46.421875
1601,-5.9,2021-12-17 16:42:46.437500
1602,-5.54,2021-12-17 16:42:46.453125
1603,-5.16,2021-12-17 16:42:46.468750
1604,-4.76,2021-12-17 16:42:46.484375
1605,-4.33,2021-12-17 16:42:46.500000
1606,-3.86,2021-12-17 16:42:46.515625
1607,-3.38,2021-12-17 16:42:46.531250
1608,-2.86,2021-12-17 16:42:46.546875
1609,-2.33,2021-12-17 16:42:46.562500
1610,-1.78,2021-12-17 16:42:46.578125
1611,-1.22,2021-12-17 16:42:46.593750
1612,-0.65,2021-12-17 16:42:46.609375
1613,-0.06,2021-12-17 16:42:46.625000
1614,0.6,2021-12-17 16:42:46.640625
1615,1.38,2021-12-17 16:42:46.656250
1616,2.28,2021-12-17 16:42:46.671875
1617,3.26,2021-12-17 16:42:46.687500
1618,4.16,2021-12-17 16:42:46.703125
1619,4.85,2021-12-17 16:42:46.718750
1620,5.25,2021-12-17 16:42:46.734375
1621,5.39,2021-12-17 16:42:46.750000
1622,5.36,2021-12-17 16:42:46.765625
1623,5.28,2021-12-17 16:42:46.781250
1624,5.24,2021-12-17 16:42:46.796875
1625,5.24,2021-12-17 16:42:46.812500
1626,5.23,2021-12-17 16:42:46.828125
1627,5.19,2021-12-17 16:42:46.843750
1628,5.07,2021-12-17 16:42:46.859375
1629,4.91,2021-12-17 16:42:46.875000
1630,4.72,2021-12-17 16:42:46.890625
1631,4.53,2021-12-17 16:42:46.906250
1632,4.33,2021-12-17 16:42:46.921875
1633,4.08,2021-12-17 16:42:46.937500
1634,3.77,2021-12-17 16:42:46.953125
1635,3.41,2021-12-17 16:42:46.968750
1636,3.02,2021-12-17 16:42:46.984375
1637,2.71,2021-12-17 16:42:47.000000
1638,2.51,2021-12-17 16:42:47.015625
1639,2.43,2021-12-17 16:42:47.031250
1640,2.44,2021-12-17 16:42:47.046875
1641,2.43,2021-12-17 16:42:47.062500
1642,2.31,2021-12-17 16:42:47.078125
1643,2.02,2021-12-17 16:42:47.093750
1644,1.55,2021-12-17 16:42:47.109375
1645,0.92,2021-12-17 16:42:47.125000
1646,0.22,2021-12-17 16:42:47.140625
1647,-0.49,2021-12-17 16:42:47.156250
1648,-1.19,2021-12-17 16:42:47.171875
1649,-1.87,2021-12-17 16:42:47.187500
1650,-2.54,2021-12-17 16:42:47.203125
1651,-3.24,2021-12-17 16:42:47.218750
1652,-3.99,2021-12-17 16:42:47.234375
1653,-4.82,2021-12-17 16:42:47.250000
1654,-5.75,2021-12-17 16:42:47.265625
1655,-6.76,2021-12-17 16:42:47.281250
1656,-7.79,2021-12-17 16:42:47.296875
1657,-8.76,2021-12-17 16:42:47.312500
1658,-9.58,2021-12-17 16:42:47.328125
1659,-10.17,2021-12-17 16:42:47.343750
1660,-10.51,2021-12-17 16:42:47.359375
1661,-10.59,2021-12-17 16:42:47.375000
1662,-10.44,2021-12-17 16:42:47.390625
1663,-10.09,2021-12-17 16:42:47.406250
1664,-9.54,2021-12-17 16:42:47.421875
1665,-8.84,2021-12-17 16:42:47.437500
1666,-7.96,2021-12-17 16:42:47.453125
1667,-6.91,2021-12-17 16:42:47.468750
1668,-5.72,2021-12-17 16:42:47.484375
1669,-4.41,2021-12-17 16:42:47.500000
1670,-3.07,2021-12-17 16:42:47.515625
1671,-1.79,2021-12-17 16:42:47.531250
1672,-0.62,2021-12-17 16:42:47.546875
1673,0.37,2021-12-17 16:42:47.562500
1674,1.16,2021-12-17 16:42:47.578125
1675,1.81,2021-12-17 16:42:47.593750
1676,2.37,2021-12-17 16:42:47.609375
1677,2.92,2021-12-17 16:42:47.625000
1678,3.52,2021-12-17 16:42:47.640625
1679,4.17,2021-12-17 16:42:47.656250
1680,4.83,2021-12-17 16:42:47.671875
1681,5.38,2021-12-17 16:42:47.687500
1682,5.74,2021-12-17 16:42:47.703125
1683,5.84,2021-12-17 16:42:47.718750
1684,5.76,2021-12-17 16:42:47.734375
1685,5.62,2021-12-17 16:42:47.750000
1686,5.54,2021-12-17 16:42:47.765625
1687,5.58,2021-12-17 16:42:47.781250
1688,5.69,2021-12-17 16:42:47.796875
1689,5.75,2021-12-17 16:42:47.812500
1690,5.65,2021-12-17 16:42:47.828125
1691,5.35,2021-12-17 16:42:47.843750
1692,4.96,2021-12-17 16:42:47.859375
1693,4.63,2021-12-17 16:42:47.875000
1694,4.49,2021-12-17 16:42:47.890625
1695,4.57,2021-12-17 16:42:47.906250
1696,4.78,2021-12-17 16:42:47.921875
1697,4.95,2021-12-17 16:42:47.937500
1698,4.95,2021-12-17 16:42:47.953125
1699,4.77,2021-12-17 16:42:47.968750
1700,4.46,2021-12-17 16:42:47.984375
1701,4.13,2021-12-17 16:42:48.000000
1702,3.87,2021-12-17 16:42:48.015625
1703,3.68,2021-12-17 16:42:48.031250
1704,3.47,2021-12-17 16:42:48.046875
1705,3.11,2021-12-17 16:42:48.062500
1706,2.52,2021-12-17 16:42:48.078125
1707,1.68,2021-12-17 16:42:48.093750
1708,0.67,2021-12-17 16:42:48.109375
1709,-0.39,2021-12-17 16:42:48.125000
1710,-1.38,2021-12-17 16:42:48.140625
1711,-2.22,2021-12-17 16:42:48.156250
1712,-2.89,2021-12-17 16:42:48.171875
1713,-3.44,2021-12-17 16:42:48.187500
1714,-3.89,2021-12-17 16:42:48.203125
1715,-4.3,2021-12-17 16:42:48.218750
1716,-4.7,2021-12-17 16:42:48.234375
1717,-5.13,2021-12-17 16:42:48.250000
1718,-5.64,2021-12-17 16:42:48.265625
1719,-6.26,2021-12-17 16:42:48.281250
1720,-6.97,2021-12-17 16:42:48.296875
1721,-7.69,2021-12-17 16:42:48.312500
1722,-8.3,2021-12-17 16:42:48.328125
1723,-8.64,2021-12-17 16:42:48.343750
1724,-8.58,2021-12-17 16:42:48.359375
1725,-8.12,2021-12-17 16:42:48.375000
1726,-7.33,2021-12-17 16:42:48.390625
1727,-6.36,2021-12-17 16:42:48.406250
1728,-5.41,2021-12-17 16:42:48.421875
1729,-4.62,2021-12-17 16:42:48.437500
1730,-4.03,2021-12-17 16:42:48.453125
1731,-3.59,2021-12-17 16:42:48.468750
1732,-3.21,2021-12-17 16:42:48.484375
1733,-2.79,2021-12-17 16:42:48.500000
1734,-2.26,2021-12-17 16:42:48.515625
1735,-1.63,2021-12-17 16:42:48.531250
1736,-0.89,2021-12-17 16:42:48.546875
1737,-0.04,2021-12-17 16:42:48.562500
1738,0.94,2021-12-17 16:42:48.578125
1739,2.05,2021-12-17 16:42:48.593750
1740,3.23,2021-12-17 16:42:48.609375
1741,4.36,2021-12-17 16:42:48.625000
1742,5.24,2021-12-17 16:42:48.640625
1743,5.74,2021-12-17 16:42:48.656250
1744,5.77,2021-12-17 16:42:48.671875
1745,5.45,2021-12-17 16:42:48.687500
1746,4.96,2021-12-17 16:42:48.703125
1747,4.53,2021-12-17 16:42:48.718750
1748,4.29,2021-12-17 16:42:48.734375
1749,4.23,2021-12-17 16:42:48.750000
1750,4.26,2021-12-17 16:42:48.765625
1751,4.19,2021-12-17 16:42:48.781250
1752,3.94,2021-12-17 16:42:48.796875
1753,3.52,2021-12-17 16:42:48.812500
1754,3.03,2021-12-17 16:42:48.828125
1755,2.58,2021-12-17 16:42:48.843750
1756,2.23,2021-12-17 16:42:48.859375
1757,1.97,2021-12-17 16:42:48.875000
1758,1.7,2021-12-17 16:42:48.890625
1759,1.34,2021-12-17 16:42:48.906250
1760,0.86,2021-12-17 16:42:48.921875
1761,0.33,2021-12-17 16:42:48.937500
1762,-0.11,2021-12-17 16:42:48.953125
1763,-0.3,2021-12-17 16:42:48.968750
1764,-0.12,2021-12-17 16:42:48.984375
1765,0.4,2021-12-17 16:42:49.000000
1766,1.09,2021-12-17 16:42:49.015625
1767,1.71,2021-12-17 16:42:49.031250
1768,2.05,2021-12-17 16:42:49.046875
1769,2.0,2021-12-17 16:42:49.062500
1770,1.6,2021-12-17 16:42:49.078125
1771,1.01,2021-12-17 16:42:49.093750
1772,0.39,2021-12-17 16:42:49.109375
1773,-0.2,2021-12-17 16:42:49.125000
1774,-0.8,2021-12-17 16:42:49.140625
1775,-1.5,2021-12-17 16:42:49.156250
1776,-2.35,2021-12-17 16:42:49.171875
1777,-3.29,2021-12-17 16:42:49.187500
1778,-4.2,2021-12-17 16:42:49.203125
1779,-4.98,2021-12-17 16:42:49.218750
1780,-5.64,2021-12-17 16:42:49.234375
1781,-6.32,2021-12-17 16:42:49.250000
1782,-7.16,2021-12-17 16:42:49.265625
1783,-8.2,2021-12-17 16:42:49.281250
1784,-9.32,2021-12-17 16:42:49.296875
1785,-10.3,2021-12-17 16:42:49.312500
1786,-10.89,2021-12-17 16:42:49.328125
1787,-10.96,2021-12-17 16:42:49.343750
1788,-10.49,2021-12-17 16:42:49.359375
1789,-9.6,2021-12-17 16:42:49.375000
1790,-8.45,2021-12-17 16:42:49.390625
1791,-7.17,2021-12-17 16:42:49.406250
1792,-5.86,2021-12-17 16:42:49.421875
1793,-4.59,2021-12-17 16:42:49.437500
1794,-3.42,2021-12-17 16:42:49.453125
1795,-2.38,2021-12-17 16:42:49.468750
1796,-1.49,2021-12-17 16:42:49.484375
1797,-0.73,2021-12-17 16:42:49.500000
1798,-0.05,2021-12-17 16:42:49.515625
1799,0.62,2021-12-17 16:42:49.531250
1800,1.32,2021-12-17 16:42:49.546875
1801,2.09,2021-12-17 16:42:49.562500
1802,2.94,2021-12-17 16:42:49.578125
1803,3.85,2021-12-17 16:42:49.593750
1804,4.78,2021-12-17 16:42:49.609375
1805,5.66,2021-12-17 16:42:49.625000
1806,6.44,2021-12-17 16:42:49.640625
1807,7.1,2021-12-17 16:42:49.656250
1808,7.66,2021-12-17 16:42:49.671875
1809,8.14,2021-12-17 16:42:49.687500
1810,8.56,2021-12-17 16:42:49.703125
1811,8.89,2021-12-17 16:42:49.718750
1812,9.12,2021-12-17 16:42:49.734375
1813,9.22,2021-12-17 16:42:49.750000
1814,9.24,2021-12-17 16:42:49.765625
1815,9.26,2021-12-17 16:42:49.781250
1816,9.38,2021-12-17 16:42:49.796875
1817,9.64,2021-12-17 16:42:49.812500
1818,10.05,2021-12-17 16:42:49.828125
1819,10.5,2021-12-17 16:42:49.843750
1820,10.86,2021-12-17 16:42:49.859375
1821,11.01,2021-12-17 16:42:49.875000
1822,10.91,2021-12-17 16:42:49.890625
1823,10.55,2021-12-17 16:42:49.906250
1824,9.99,2021-12-17 16:42:49.921875
1825,9.34,2021-12-17 16:42:49.937500
1826,8.66,2021-12-17 16:42:49.953125
1827,8.0,2021-12-17 16:42:49.968750
1828,7.37,2021-12-17 16:42:49.984375
1829,6.75,2021-12-17 16:42:50.000000
1830,6.1,2021-12-17 16:42:50.015625
1831,5.38,2021-12-17 16:42:50.031250
1832,4.55,2021-12-17 16:42:50.046875
1833,3.61,2021-12-17 16:42:50.062500
1834,2.6,2021-12-17 16:42:50.078125
1835,1.53,2021-12-17 16:42:50.093750
1836,0.51,2021-12-17 16:42:50.109375
1837,-0.4,2021-12-17 16:42:50.125000
1838,-1.13,2021-12-17 16:42:50.140625
1839,-1.68,2021-12-17 16:42:50.156250
1840,-2.15,2021-12-17 16:42:50.171875
1841,-2.64,2021-12-17 16:42:50.187500
1842,-3.31,2021-12-17 16:42:50.203125
1843,-4.18,2021-12-17 16:42:50.218750
1844,-5.23,2021-12-17 16:42:50.234375
1845,-6.31,2021-12-17 16:42:50.250000
1846,-7.25,2021-12-17 16:42:50.265625
1847,-7.92,2021-12-17 16:42:50.281250
1848,-8.29,2021-12-17 16:42:50.296875
1849,-8.5,2021-12-17 16:42:50.312500
1850,-8.68,2021-12-17 16:42:50.328125
1851,-8.94,2021-12-17 16:42:50.343750
1852,-9.21,2021-12-17 16:42:50.359375
1853,-9.33,2021-12-17 16:42:50.375000
1854,-9.07,2021-12-17 16:42:50.390625
1855,-8.26,2021-12-17 16:42:50.406250
1856,-6.91,2021-12-17 16:42:50.421875
1857,-5.14,2021-12-17 16:42:50.437500
1858,-3.16,2021-12-17 16:42:50.453125
1859,-1.21,2021-12-17 16:42:50.468750
1860,0.53,2021-12-17 16:42:50.484375
1861,1.95,2021-12-17 16:42:50.500000
1862,2.96,2021-12-17 16:42:50.515625
1863,3.57,2021-12-17 16:42:50.531250
1864,3.88,2021-12-17 16:42:50.546875
1865,4.03,2021-12-17 16:42:50.562500
1866,4.19,2021-12-17 16:42:50.578125
1867,4.45,2021-12-17 16:42:50.593750
1868,4.82,2021-12-17 16:42:50.609375
1869,5.24,2021-12-17 16:42:50.625000
1870,5.66,2021-12-17 16:42:50.640625
1871,6.06,2021-12-17 16:42:50.656250
1872,6.5,2021-12-17 16:42:50.671875
1873,7.01,2021-12-17 16:42:50.687500
1874,7.56,2021-12-17 16:42:50.703125
1875,8.04,2021-12-17 16:42:50.718750
1876,8.3,2021-12-17 16:42:50.734375
1877,8.26,2021-12-17 16:42:50.750000
1878,7.98,2021-12-17 16:42:50.765625
1879,7.57,2021-12-17 16:42:50.781250
1880,7.18,2021-12-17 16:42:50.796875
1881,6.85,2021-12-17 16:42:50.812500
1882,6.54,2021-12-17 16:42:50.828125
1883,6.16,2021-12-17 16:42:50.843750
1884,5.62,2021-12-17 16:42:50.859375
1885,4.91,2021-12-17 16:42:50.875000
1886,4.12,2021-12-17 16:42:50.890625
1887,3.32,2021-12-17 16:42:50.906250
1888,2.62,2021-12-17 16:42:50.921875
1889,2.03,2021-12-17 16:42:50.937500
1890,1.54,2021-12-17 16:42:50.953125
1891,1.12,2021-12-17 16:42:50.968750
1892,0.76,2021-12-17 16:42:50.984375
1893,0.45,2021-12-17 16:42:51.000000
1894,0.12,2021-12-17 16:42:51.015625
1895,-0.29,2021-12-17 16:42:51.031250
1896,-0.86,2021-12-17 16:42:51.046875
1897,-1.63,2021-12-17 16:42:51.062500
1898,-2.58,2021-12-17 16:42:51.078125
1899,-3.64,2021-12-17 16:42:51.093750
1900,-4.7,2021-12-17 16:42:51.109375
1901,-5.7,2021-12-17 16:42:51.125000
1902,-6.64,2021-12-17 16:42:51.140625
1903,-7.57,2021-12-17 16:42:51.156250
1904,-8.5,2021-12-17 16:42:51.171875
1905,-9.35,2021-12-17 16:42:51.187500
1906,-10.0,2021-12-17 16:42:51.203125
1907,-10.27,2021-12-17 16:42:51.218750
1908,-10.06,2021-12-17 16:42:51.234375
1909,-9.36,2021-12-17 16:42:51.250000
1910,-8.31,2021-12-17 16:42:51.265625
1911,-7.09,2021-12-17 16:42:51.281250
1912,-5.88,2021-12-17 16:42:51.296875
1913,-4.78,2021-12-17 16:42:51.312500
1914,-3.79,2021-12-17 16:42:51.328125
1915,-2.87,2021-12-17 16:42:51.343750
1916,-1.98,2021-12-17 16:42:51.359375
1917,-1.11,2021-12-17 16:42:51.375000
1918,-0.29,2021-12-17 16:42:51.390625
1919,0.51,2021-12-17 16:42:51.406250
1920,1.34,2021-12-17 16:42:51.421875
1921,2.3,2021-12-17 16:42:51.437500
1922,3.45,2021-12-17 16:42:51.453125
1923,4.73,2021-12-17 16:42:51.468750
1924,6.05,2021-12-17 16:42:51.484375
1925,7.2,2021-12-17 16:42:51.500000
1926,8.06,2021-12-17 16:42:51.515625
1927,8.61,2021-12-17 16:42:51.531250
1928,8.94,2021-12-17 16:42:51.546875
1929,9.21,2021-12-17 16:42:51.562500
1930,9.55,2021-12-17 16:42:51.578125
1931,10.0,2021-12-17 16:42:51.593750
1932,10.52,2021-12-17 16:42:51.609375
1933,10.98,2021-12-17 16:42:51.625000
1934,11.25,2021-12-17 16:42:51.640625
1935,11.24,2021-12-17 16:42:51.656250
1936,10.93,2021-12-17 16:42:51.671875
1937,10.36,2021-12-17 16:42:51.687500
1938,9.66,2021-12-17 16:42:51.703125
1939,8.98,2021-12-17 16:42:51.718750
1940,8.45,2021-12-17 16:42:51.734375
1941,8.17,2021-12-17 16:42:51.750000
1942,8.14,2021-12-17 16:42:51.765625
1943,8.27,2021-12-17 16:42:51.781250
1944,8.38,2021-12-17 16:42:51.796875
1945,8.31,2021-12-17 16:42:51.812500
1946,7.94,2021-12-17 16:42:51.828125
1947,7.22,2021-12-17 16:42:51.843750
1948,6.2,2021-12-17 16:42:51.859375
1949,4.99,2021-12-17 16:42:51.875000
1950,3.74,2021-12-17 16:42:51.890625
1951,2.61,2021-12-17 16:42:51.906250
1952,1.69,2021-12-17 16:42:51.921875
1953,1.02,2021-12-17 16:42:51.937500
1954,0.54,2021-12-17 16:42:51.953125
1955,0.13,2021-12-17 16:42:51.968750
1956,-0.36,2021-12-17 16:42:51.984375
1957,-1.08,2021-12-17 16:42:52.000000
1958,-2.08,2021-12-17 16:42:52.015625
1959,-3.32,2021-12-17 16:42:52.031250
1960,-4.66,2021-12-17 16:42:52.046875
1961,-6.01,2021-12-17 16:42:52.062500
1962,-7.32,2021-12-17 16:42:52.078125
1963,-8.6,2021-12-17 16:42:52.093750
1964,-9.95,2021-12-17 16:42:52.109375
1965,-11.39,2021-12-17 16:42:52.125000
1966,-12.86,2021-12-17 16:42:52.140625
1967,-14.18,2021-12-17 16:42:52.156250
1968,-15.17,2021-12-17 16:42:52.171875
1969,-15.62,2021-12-17 16:42:52.187500
1970,-15.49,2021-12-17 16:42:52.203125
1971,-14.79,2021-12-17 16:42:52.218750
1972,-13.61,2021-12-17 16:42:52.234375
1973,-12.1,2021-12-17 16:42:52.250000
1974,-10.37,2021-12-17 16:42:52.265625
1975,-8.56,2021-12-17 16:42:52.281250
1976,-6.78,2021-12-17 16:42:52.296875
1977,-5.1,2021-12-17 16:42:52.312500
1978,-3.56,2021-12-17 16:42:52.328125
1979,-2.12,2021-12-17 16:42:52.343750
1980,-0.73,2021-12-17 16:42:52.359375
1981,0.68,2021-12-17 16:42:52.375000
1982,2.11,2021-12-17 16:42:52.390625
1983,3.55,2021-12-17 16:42:52.406250
1984,4.93,2021-12-17 16:42:52.421875
1985,6.16,2021-12-17 16:42:52.437500
1986,7.17,2021-12-17 16:42:52.453125
1987,7.91,2021-12-17 16:42:52.468750
1988,8.4,2021-12-17 16:42:52.484375
1989,8.7,2021-12-17 16:42:52.500000
1990,8.87,2021-12-17 16:42:52.515625
1991,9.0,2021-12-17 16:42:52.531250
1992,9.07,2021-12-17 16:42:52.546875
1993,9.05,2021-12-17 16:42:52.562500
1994,8.9,2021-12-17 16:42:52.578125
1995,8.59,2021-12-17 16:42:52.593750
1996,8.18,2021-12-17 16:42:52.609375
1997,7.8,2021-12-17 16:42:52.625000
1998,7.53,2021-12-17 16:42:52.640625
1999,7.4,2021-12-17 16:42:52.656250
2000,7.36,2021-12-17 16:42:52.671875
2001,7.35,2021-12-17 16:42:52.687500
2002,7.29,2021-12-17 16:42:52.703125
2003,7.19,2021-12-17 16:42:52.718750
2004,7.05,2021-12-17 16:42:52.734375
2005,6.92,2021-12-17 16:42:52.750000
2006,6.78,2021-12-17 16:42:52.765625
2007,6.61,2021-12-17 16:42:52.781250
2008,6.34,2021-12-17 16:42:52.796875
2009,5.93,2021-12-17 16:42:52.812500
2010,5.35,2021-12-17 16:42:52.828125
2011,4.57,2021-12-17 16:42:52.843750
2012,3.57,2021-12-17 16:42:52.859375
2013,2.36,2021-12-17 16:42:52.875000
2014,1.04,2021-12-17 16:42:52.890625
2015,-0.3,2021-12-17 16:42:52.906250
2016,-1.49,2021-12-17 16:42:52.921875
2017,-2.41,2021-12-17 16:42:52.937500
2018,-3.02,2021-12-17 16:42:52.953125
2019,-3.38,2021-12-17 16:42:52.968750
2020,-3.64,2021-12-17 16:42:52.984375
2021,-4.0,2021-12-17 16:42:53.000000
2022,-4.65,2021-12-17 16:42:53.015625
2023,-5.67,2021-12-17 16:42:53.031250
2024,-7.06,2021-12-17 16:42:53.046875
2025,-8.66,2021-12-17 16:42:53.062500
2026,-10.23,2021-12-17 16:42:53.078125
2027,-11.49,2021-12-17 16:42:53.093750
2028,-12.23,2021-12-17 16:42:53.109375
2029,-12.38,2021-12-17 16:42:53.125000
2030,-12.0,2021-12-17 16:42:53.140625
2031,-11.3,2021-12-17 16:42:53.156250
2032,-10.51,2021-12-17 16:42:53.171875
2033,-9.78,2021-12-17 16:42:53.187500
2034,-9.11,2021-12-17 16:42:53.203125
2035,-8.36,2021-12-17 16:42:53.218750
2036,-7.32,2021-12-17 16:42:53.234375
2037,-5.8,2021-12-17 16:42:53.250000
2038,-3.77,2021-12-17 16:42:53.265625
2039,-1.41,2021-12-17 16:42:53.281250
2040,1.0,2021-12-17 16:42:53.296875
2041,3.15,2021-12-17 16:42:53.312500
2042,4.86,2021-12-17 16:42:53.328125
2043,6.16,2021-12-17 16:42:53.343750
2044,7.26,2021-12-17 16:42:53.359375
2045,8.43,2021-12-17 16:42:53.375000
2046,9.94,2021-12-17 16:42:53.390625
2047,12.0,2021-12-17 16:42:53.406250
2048,14.72,2021-12-17 16:42:53.421875
2049,18.11,2021-12-17 16:42:53.437500
2050,21.88,2021-12-17 16:42:53.453125
2051,25.47,2021-12-17 16:42:53.468750
2052,28.12,2021-12-17 16:42:53.484375
2053,29.21,2021-12-17 16:42:53.500000
2054,28.78,2021-12-17 16:42:53.515625
2055,27.66,2021-12-17 16:42:53.531250
2056,27.28,2021-12-17 16:42:53.546875
2057,29.13,2021-12-17 16:42:53.562500
2058,33.91,2021-12-17 16:42:53.578125
2059,41.19,2021-12-17 16:42:53.593750
2060,49.41,2021-12-17 16:42:53.609375
2061,56.51,2021-12-17 16:42:53.625000
2062,60.74,2021-12-17 16:42:53.640625
2063,61.2,2021-12-17 16:42:53.656250
2064,57.97,2021-12-17 16:42:53.671875
2065,51.84,2021-12-17 16:42:53.687500
2066,43.82,2021-12-17 16:42:53.703125
2067,34.86,2021-12-17 16:42:53.718750
2068,25.67,2021-12-17 16:42:53.734375
2069,16.85,2021-12-17 16:42:53.750000
2070,8.94,2021-12-17 16:42:53.765625
2071,2.41,2021-12-17 16:42:53.781250
2072,-2.44,2021-12-17 16:42:53.796875
2073,-5.6,2021-12-17 16:42:53.812500
2074,-7.39,2021-12-17 16:42:53.828125
2075,-8.4,2021-12-17 16:42:53.843750
2076,-9.24,2021-12-17 16:42:53.859375
2077,-10.37,2021-12-17 16:42:53.875000
2078,-11.93,2021-12-17 16:42:53.890625
2079,-13.7,2021-12-17 16:42:53.906250
2080,-15.26,2021-12-17 16:42:53.921875
2081,-16.2,2021-12-17 16:42:53.937500
2082,-16.32,2021-12-17 16:42:53.953125
2083,-15.7,2021-12-17 16:42:53.968750
2084,-14.65,2021-12-17 16:42:53.984375
2085,-13.63,2021-12-17 16:42:54.000000
2086,-13.02,2021-12-17 16:42:54.015625
2087,-13.07,2021-12-17 16:42:54.031250
2088,-13.82,2021-12-17 16:42:54.046875
2089,-15.12,2021-12-17 16:42:54.062500
2090,-16.66,2021-12-17 16:42:54.078125
2091,-18.11,2021-12-17 16:42:54.093750
2092,-19.18,2021-12-17 16:42:54.109375
2093,-19.67,2021-12-17 16:42:54.125000
2094,-19.49,2021-12-17 16:42:54.140625
2095,-18.71,2021-12-17 16:42:54.156250
2096,-17.49,2021-12-17 16:42:54.171875
2097,-15.99,2021-12-17 16:42:54.187500
2098,-14.41,2021-12-17 16:42:54.203125
2099,-12.86,2021-12-17 16:42:54.218750
2100,-11.47,2021-12-17 16:42:54.234375
2101,-10.28,2021-12-17 16:42:54.250000
2102,-9.3,2021-12-17 16:42:54.265625
2103,-8.49,2021-12-17 16:42:54.281250
2104,-7.76,2021-12-17 16:42:54.296875
2105,-7.02,2021-12-17 16:42:54.312500
2106,-6.19,2021-12-17 16:42:54.328125
2107,-5.27,2021-12-17 16:42:54.343750
2108,-4.29,2021-12-17 16:42:54.359375
2109,-3.38,2021-12-17 16:42:54.375000
2110,-2.63,2021-12-17 16:42:54.390625
2111,-2.15,2021-12-17 16:42:54.406250
2112,-1.93,2021-12-17 16:42:54.421875
2113,-1.91,2021-12-17 16:42:54.437500
2114,-1.96,2021-12-17 16:42:54.453125
2115,-1.97,2021-12-17 16:42:54.468750
2116,-1.87,2021-12-17 16:42:54.484375
2117,-1.63,2021-12-17 16:42:54.500000
2118,-1.27,2021-12-17 16:42:54.515625
2119,-0.82,2021-12-17 16:42:54.531250
2120,-0.32,2021-12-17 16:42:54.546875
2121,0.21,2021-12-17 16:42:54.562500
2122,0.7,2021-12-17 16:42:54.578125
2123,1.06,2021-12-17 16:42:54.593750
2124,1.21,2021-12-17 16:42:54.609375
2125,1.11,2021-12-17 16:42:54.625000
2126,0.83,2021-12-17 16:42:54.640625
2127,0.46,2021-12-17 16:42:54.656250
2128,0.14,2021-12-17 16:42:54.671875
2129,-0.06,2021-12-17 16:42:54.687500
2130,-0.12,2021-12-17 16:42:54.703125
2131,-0.08,2021-12-17 16:42:54.718750
2132,0.02,2021-12-17 16:42:54.734375
2133,0.12,2021-12-17 16:42:54.750000
2134,0.19,2021-12-17 16:42:54.765625
2135,0.14,2021-12-17 16:42:54.781250
2136,-0.13,2021-12-17 16:42:54.796875
2137,-0.7,2021-12-17 16:42:54.812500
2138,-1.59,2021-12-17 16:42:54.828125
2139,-2.71,2021-12-17 16:42:54.843750
2140,-3.94,2021-12-17 16:42:54.859375
2141,-5.17,2021-12-17 16:42:54.875000
2142,-6.36,2021-12-17 16:42:54.890625
2143,-7.55,2021-12-17 16:42:54.906250
2144,-8.82,2021-12-17 16:42:54.921875
2145,-10.17,2021-12-17 16:42:54.937500
2146,-11.58,2021-12-17 16:42:54.953125
2147,-12.92,2021-12-17 16:42:54.968750
2148,-14.1,2021-12-17 16:42:54.984375
2149,-15.06,2021-12-17 16:42:55.000000
2150,-15.79,2021-12-17 16:42:55.015625
2151,-16.31,2021-12-17 16:42:55.031250
2152,-16.63,2021-12-17 16:42:55.046875
2153,-16.74,2021-12-17 16:42:55.062500
2154,-16.6,2021-12-17 16:42:55.078125
2155,-16.17,2021-12-17 16:42:55.093750
2156,-15.43,2021-12-17 16:42:55.109375
2157,-14.39,2021-12-17 16:42:55.125000
2158,-13.1,2021-12-17 16:42:55.140625
2159,-11.67,2021-12-17 16:42:55.156250
2160,-10.26,2021-12-17 16:42:55.171875
2161,-9.04,2021-12-17 16:42:55.187500
2162,-8.16,2021-12-17 16:42:55.203125
2163,-7.66,2021-12-17 16:42:55.218750
2164,-7.49,2021-12-17 16:42:55.234375
2165,-7.55,2021-12-17 16:42:55.250000
2166,-7.69,2021-12-17 16:42:55.265625
2167,-7.76,2021-12-17 16:42:55.281250
2168,-7.68,2021-12-17 16:42:55.296875
2169,-7.37,2021-12-17 16:42:55.312500
2170,-6.84,2021-12-17 16:42:55.328125
2171,-6.17,2021-12-17 16:42:55.343750
2172,-5.45,2021-12-17 16:42:55.359375
2173,-4.79,2021-12-17 16:42:55.375000
2174,-4.27,2021-12-17 16:42:55.390625
2175,-3.9,2021-12-17 16:42:55.406250
2176,-3.6,2021-12-17 16:42:55.421875
2177,-3.32,2021-12-17 16:42:55.437500
2178,-3.06,2021-12-17 16:42:55.453125
2179,-2.91,2021-12-17 16:42:55.468750
2180,-3.04,2021-12-17 16:42:55.484375
2181,-3.61,2021-12-17 16:42:55.500000
2182,-4.65,2021-12-17 16:42:55.515625
2183,-5.93,2021-12-17 16:42:55.531250
2184,-7.08,2021-12-17 16:42:55.546875
2185,-7.66,2021-12-17 16:42:55.562500
2186,-7.38,2021-12-17 16:42:55.578125
2187,-6.24,2021-12-17 16:42:55.593750
2188,-4.59,2021-12-17 16:42:55.609375
2189,-2.96,2021-12-17 16:42:55.625000
2190,-1.83,2021-12-17 16:42:55.640625
2191,-1.43,2021-12-17 16:42:55.656250
2192,-1.62,2021-12-17 16:42:55.671875
2193,-1.91,2021-12-17 16:42:55.687500
2194,-1.8,2021-12-17 16:42:55.703125
2195,-0.92,2021-12-17 16:42:55.718750
2196,0.7,2021-12-17 16:42:55.734375
2197,2.68,2021-12-17 16:42:55.750000
2198,4.43,2021-12-17 16:42:55.765625
2199,5.44,2021-12-17 16:42:55.781250
2200,5.43,2021-12-17 16:42:55.796875
2201,4.44,2021-12-17 16:42:55.812500
2202,2.76,2021-12-17 16:42:55.828125
2203,0.78,2021-12-17 16:42:55.843750
2204,-1.17,2021-12-17 16:42:55.859375
2205,-2.88,2021-12-17 16:42:55.875000
2206,-4.25,2021-12-17 16:42:55.890625
2207,-5.24,2021-12-17 16:42:55.906250
2208,-5.83,2021-12-17 16:42:55.921875
2209,-5.97,2021-12-17 16:42:55.937500
2210,-5.64,2021-12-17 16:42:55.953125
2211,-4.9,2021-12-17 16:42:55.968750
2212,-3.92,2021-12-17 16:42:55.984375
2213,-2.92,2021-12-17 16:42:56.000000
2214,-2.12,2021-12-17 16:42:56.015625
2215,-1.61,2021-12-17 16:42:56.031250
2216,-1.33,2021-12-17 16:42:56.046875
2217,-1.09,2021-12-17 16:42:56.062500
2218,-0.62,2021-12-17 16:42:56.078125
2219,0.23,2021-12-17 16:42:56.093750
2220,1.52,2021-12-17 16:42:56.109375
2221,3.12,2021-12-17 16:42:56.125000
2222,4.83,2021-12-17 16:42:56.140625
2223,6.44,2021-12-17 16:42:56.156250
2224,7.86,2021-12-17 16:42:56.171875
2225,9.04,2021-12-17 16:42:56.187500
2226,9.99,2021-12-17 16:42:56.203125
2227,10.69,2021-12-17 16:42:56.218750
2228,11.07,2021-12-17 16:42:56.234375
2229,11.09,2021-12-17 16:42:56.250000
2230,10.75,2021-12-17 16:42:56.265625
2231,10.15,2021-12-17 16:42:56.281250
2232,9.5,2021-12-17 16:42:56.296875
2233,8.99,2021-12-17 16:42:56.312500
2234,8.79,2021-12-17 16:42:56.328125
2235,8.93,2021-12-17 16:42:56.343750
2236,9.33,2021-12-17 16:42:56.359375
2237,9.81,2021-12-17 16:42:56.375000
2238,10.23,2021-12-17 16:42:56.390625
2239,10.41,2021-12-17 16:42:56.406250
2240,10.32,2021-12-17 16:42:56.421875
2241,9.95,2021-12-17 16:42:56.437500
2242,9.34,2021-12-17 16:42:56.453125
2243,8.54,2021-12-17 16:42:56.468750
2244,7.55,2021-12-17 16:42:56.484375
2245,6.32,2021-12-17 16:42:56.500000
2246,4.84,2021-12-17 16:42:56.515625
2247,3.13,2021-12-17 16:42:56.531250
2248,1.31,2021-12-17 16:42:56.546875
2249,-0.43,2021-12-17 16:42:56.562500
2250,-1.89,2021-12-17 16:42:56.578125
2251,-2.94,2021-12-17 16:42:56.593750
2252,-3.56,2021-12-17 16:42:56.609375
2253,-3.85,2021-12-17 16:42:56.625000
2254,-3.94,2021-12-17 16:42:56.640625
2255,-4.01,2021-12-17 16:42:56.656250
2256,-4.15,2021-12-17 16:42:56.671875
2257,-4.44,2021-12-17 16:42:56.687500
2258,-4.9,2021-12-17 16:42:56.703125
2259,-5.53,2021-12-17 16:42:56.718750
2260,-6.29,2021-12-17 16:42:56.734375
2261,-7.14,2021-12-17 16:42:56.750000
2262,-8.01,2021-12-17 16:42:56.765625
2263,-8.8,2021-12-17 16:42:56.781250
2264,-9.43,2021-12-17 16:42:56.796875
2265,-9.86,2021-12-17 16:42:56.812500
2266,-10.1,2021-12-17 16:42:56.828125
2267,-10.24,2021-12-17 16:42:56.843750
2268,-10.33,2021-12-17 16:42:56.859375
2269,-10.41,2021-12-17 16:42:56.875000
2270,-10.39,2021-12-17 16:42:56.890625
2271,-10.1,2021-12-17 16:42:56.906250
2272,-9.36,2021-12-17 16:42:56.921875
2273,-8.07,2021-12-17 16:42:56.937500
2274,-6.25,2021-12-17 16:42:56.953125
2275,-4.07,2021-12-17 16:42:56.968750
2276,-1.73,2021-12-17 16:42:56.984375
2277,0.6,2021-12-17 16:42:57.000000
2278,2.83,2021-12-17 16:42:57.015625
2279,4.91,2021-12-17 16:42:57.031250
2280,6.83,2021-12-17 16:42:57.046875
2281,8.49,2021-12-17 16:42:57.062500
2282,9.77,2021-12-17 16:42:57.078125
2283,10.57,2021-12-17 16:42:57.093750
2284,10.91,2021-12-17 16:42:57.109375
2285,10.98,2021-12-17 16:42:57.125000
2286,10.97,2021-12-17 16:42:57.140625
2287,11.11,2021-12-17 16:42:57.156250
2288,11.41,2021-12-17 16:42:57.171875
2289,11.79,2021-12-17 16:42:57.187500
2290,12.07,2021-12-17 16:42:57.203125
2291,12.06,2021-12-17 16:42:57.218750
2292,11.73,2021-12-17 16:42:57.234375
2293,11.12,2021-12-17 16:42:57.250000
2294,10.38,2021-12-17 16:42:57.265625
2295,9.64,2021-12-17 16:42:57.281250
2296,8.97,2021-12-17 16:42:57.296875
2297,8.37,2021-12-17 16:42:57.312500
2298,7.81,2021-12-17 16:42:57.328125
2299,7.24,2021-12-17 16:42:57.343750
2300,6.69,2021-12-17 16:42:57.359375
2301,6.18,2021-12-17 16:42:57.375000
2302,5.71,2021-12-17 16:42:57.390625
2303,5.25,2021-12-17 16:42:57.406250
2304,4.68,2021-12-17 16:42:57.421875
2305,3.92,2021-12-17 16:42:57.437500
2306,2.92,2021-12-17 16:42:57.453125
2307,1.78,2021-12-17 16:42:57.468750
2308,0.67,2021-12-17 16:42:57.484375
2309,-0.22,2021-12-17 16:42:57.500000
2310,-0.74,2021-12-17 16:42:57.515625
2311,-0.93,2021-12-17 16:42:57.531250
2312,-0.91,2021-12-17 16:42:57.546875
2313,-0.9,2021-12-17 16:42:57.562500
2314,-1.02,2021-12-17 16:42:57.578125
2315,-1.31,2021-12-17 16:42:57.593750
2316,-1.7,2021-12-17 16:42:57.609375
2317,-2.06,2021-12-17 16:42:57.625000
2318,-2.36,2021-12-17 16:42:57.640625
2319,-2.65,2021-12-17 16:42:57.656250
2320,-3.06,2021-12-17 16:42:57.671875
2321,-3.69,2021-12-17 16:42:57.687500
2322,-4.61,2021-12-17 16:42:57.703125
2323,-5.81,2021-12-17 16:42:57.718750
2324,-7.18,2021-12-17 16:42:57.734375
2325,-8.64,2021-12-17 16:42:57.750000
2326,-10.05,2021-12-17 16:42:57.765625
2327,-11.26,2021-12-17 16:42:57.781250
2328,-12.07,2021-12-17 16:42:57.796875
2329,-12.34,2021-12-17 16:42:57.812500
2330,-11.95,2021-12-17 16:42:57.828125
2331,-10.96,2021-12-17 16:42:57.843750
2332,-9.52,2021-12-17 16:42:57.859375
2333,-7.88,2021-12-17 16:42:57.875000
2334,-6.24,2021-12-17 16:42:57.890625
2335,-4.68,2021-12-17 16:42:57.906250
2336,-3.19,2021-12-17 16:42:57.921875
2337,-1.68,2021-12-17 16:42:57.937500
2338,-0.08,2021-12-17 16:42:57.953125
2339,1.63,2021-12-17 16:42:57.968750
2340,3.33,2021-12-17 16:42:57.984375
2341,4.87,2021-12-17 16:42:58.000000
2342,6.13,2021-12-17 16:42:58.015625
2343,7.01,2021-12-17 16:42:58.031250
2344,7.5,2021-12-17 16:42:58.046875
2345,7.68,2021-12-17 16:42:58.062500
2346,7.66,2021-12-17 16:42:58.078125
2347,7.56,2021-12-17 16:42:58.093750
2348,7.49,2021-12-17 16:42:58.109375
2349,7.51,2021-12-17 16:42:58.125000
2350,7.65,2021-12-17 16:42:58.140625
2351,7.91,2021-12-17 16:42:58.156250
2352,8.23,2021-12-17 16:42:58.171875
2353,8.55,2021-12-17 16:42:58.187500
2354,8.77,2021-12-17 16:42:58.203125
2355,8.8,2021-12-17 16:42:58.218750
2356,8.61,2021-12-17 16:42:58.234375
2357,8.18,2021-12-17 16:42:58.250000
2358,7.57,2021-12-17 16:42:58.265625
2359,6.86,2021-12-17 16:42:58.281250
2360,6.13,2021-12-17 16:42:58.296875
2361,5.4,2021-12-17 16:42:58.312500
2362,4.64,2021-12-17 16:42:58.328125
2363,3.79,2021-12-17 16:42:58.343750
2364,2.8,2021-12-17 16:42:58.359375
2365,1.7,2021-12-17 16:42:58.375000
2366,0.61,2021-12-17 16:42:58.390625
2367,-0.27,2021-12-17 16:42:58.406250
2368,-0.76,2021-12-17 16:42:58.421875
2369,-0.75,2021-12-17 16:42:58.437500
2370,-0.3,2021-12-17 16:42:58.453125
2371,0.36,2021-12-17 16:42:58.468750
2372,0.91,2021-12-17 16:42:58.484375
2373,1.04,2021-12-17 16:42:58.500000
2374,0.58,2021-12-17 16:42:58.515625
2375,-0.38,2021-12-17 16:42:58.531250
2376,-1.56,2021-12-17 16:42:58.546875
2377,-2.55,2021-12-17 16:42:58.562500
2378,-3.02,2021-12-17 16:42:58.578125
2379,-2.83,2021-12-17 16:42:58.593750
2380,-2.11,2021-12-17 16:42:58.609375
2381,-1.11,2021-12-17 16:42:58.625000
2382,-0.08,2021-12-17 16:42:58.640625
2383,0.88,2021-12-17 16:42:58.656250
2384,1.78,2021-12-17 16:42:58.671875
2385,2.77,2021-12-17 16:42:58.687500
2386,3.94,2021-12-17 16:42:58.703125
2387,5.31,2021-12-17 16:42:58.718750
2388,6.79,2021-12-17 16:42:58.734375
2389,8.2,2021-12-17 16:42:58.750000
2390,9.23,2021-12-17 16:42:58.765625
2391,9.53,2021-12-17 16:42:58.781250
2392,8.71,2021-12-17 16:42:58.796875
2393,6.51,2021-12-17 16:42:58.812500
2394,2.95,2021-12-17 16:42:58.828125
2395,-1.63,2021-12-17 16:42:58.843750
2396,-6.58,2021-12-17 16:42:58.859375
2397,-11.25,2021-12-17 16:42:58.875000
2398,-15.12,2021-12-17 16:42:58.890625
2399,-18.01,2021-12-17 16:42:58.906250
2400,-20.01,2021-12-17 16:42:58.921875
2401,-21.39,2021-12-17 16:42:58.937500
2402,-22.38,2021-12-17 16:42:58.953125
2403,-23.06,2021-12-17 16:42:58.968750
2404,-23.48,2021-12-17 16:42:58.984375
2405,-23.68,2021-12-17 16:42:59.000000
2406,-23.8,2021-12-17 16:42:59.015625
2407,-24.03,2021-12-17 16:42:59.031250
2408,-24.52,2021-12-17 16:42:59.046875
2409,-25.25,2021-12-17 16:42:59.062500
2410,-26.03,2021-12-17 16:42:59.078125
2411,-26.54,2021-12-17 16:42:59.093750
2412,-26.5,2021-12-17 16:42:59.109375
2413,-25.74,2021-12-17 16:42:59.125000
2414,-24.38,2021-12-17 16:42:59.140625
2415,-22.76,2021-12-17 16:42:59.156250
2416,-21.38,2021-12-17 16:42:59.171875
2417,-20.67,2021-12-17 16:42:59.187500
2418,-20.85,2021-12-17 16:42:59.203125
2419,-21.76,2021-12-17 16:42:59.218750
2420,-23.03,2021-12-17 16:42:59.234375
2421,-24.09,2021-12-17 16:42:59.250000
2422,-24.5,2021-12-17 16:42:59.265625
2423,-23.96,2021-12-17 16:42:59.281250
2424,-22.42,2021-12-17 16:42:59.296875
2425,-20.01,2021-12-17 16:42:59.312500
2426,-16.95,2021-12-17 16:42:59.328125
2427,-13.5,2021-12-17 16:42:59.343750
2428,-9.9,2021-12-17 16:42:59.359375
2429,-6.28,2021-12-17 16:42:59.375000
2430,-2.68,2021-12-17 16:42:59.390625
2431,0.9,2021-12-17 16:42:59.406250
2432,4.48,2021-12-17 16:42:59.421875
2433,8.01,2021-12-17 16:42:59.437500
2434,11.31,2021-12-17 16:42:59.453125
2435,14.19,2021-12-17 16:42:59.468750
2436,16.53,2021-12-17 16:42:59.484375
2437,18.35,2021-12-17 16:42:59.500000
2438,19.84,2021-12-17 16:42:59.515625
2439,21.24,2021-12-17 16:42:59.531250
2440,22.63,2021-12-17 16:42:59.546875
2441,23.95,2021-12-17 16:42:59.562500
2442,25.0,2021-12-17 16:42:59.578125
2443,25.62,2021-12-17 16:42:59.593750
2444,25.8,2021-12-17 16:42:59.609375
2445,25.72,2021-12-17 16:42:59.625000
2446,25.62,2021-12-17 16:42:59.640625
2447,25.64,2021-12-17 16:42:59.656250
2448,25.74,2021-12-17 16:42:59.671875
2449,25.73,2021-12-17 16:42:59.687500
2450,25.39,2021-12-17 16:42:59.703125
2451,24.55,2021-12-17 16:42:59.718750
2452,23.23,2021-12-17 16:42:59.734375
2453,21.57,2021-12-17 16:42:59.750000
2454,19.72,2021-12-17 16:42:59.765625
2455,17.89,2021-12-17 16:42:59.781250
2456,16.17,2021-12-17 16:42:59.796875
2457,14.59,2021-12-17 16:42:59.812500
2458,13.13,2021-12-17 16:42:59.828125
2459,11.71,2021-12-17 16:42:59.843750
2460,10.19,2021-12-17 16:42:59.859375
2461,8.46,2021-12-17 16:42:59.875000
2462,6.42,2021-12-17 16:42:59.890625
2463,4.06,2021-12-17 16:42:59.906250
2464,1.46,2021-12-17 16:42:59.921875
2465,-1.28,2021-12-17 16:42:59.937500
2466,-4.04,2021-12-17 16:42:59.953125
2467,-6.71,2021-12-17 16:42:59.968750
2468,-9.19,2021-12-17 16:42:59.984375
2469,-11.34,2021-12-17 16:43:00.000000
2470,-13.0,2021-12-17 16:43:00.015625
2471,-14.03,2021-12-17 16:43:00.031250
2472,-14.34,2021-12-17 16:43:00.046875
2473,-13.94,2021-12-17 16:43:00.062500
2474,-12.97,2021-12-17 16:43:00.078125
2475,-11.59,2021-12-17 16:43:00.093750
2476,-9.98,2021-12-17 16:43:00.109375
2477,-8.24,2021-12-17 16:43:00.125000
2478,-6.45,2021-12-17 16:43:00.140625
2479,-4.64,2021-12-17 16:43:00.156250
2480,-2.85,2021-12-17 16:43:00.171875
2481,-1.13,2021-12-17 16:43:00.187500
2482,0.48,2021-12-17 16:43:00.203125
2483,1.93,2021-12-17 16:43:00.218750
2484,3.18,2021-12-17 16:43:00.234375
2485,4.19,2021-12-17 16:43:00.250000
2486,4.9,2021-12-17 16:43:00.265625
2487,5.35,2021-12-17 16:43:00.281250
2488,5.62,2021-12-17 16:43:00.296875
2489,5.83,2021-12-17 16:43:00.312500
2490,6.11,2021-12-17 16:43:00.328125
2491,6.51,2021-12-17 16:43:00.343750
2492,7.01,2021-12-17 16:43:00.359375
2493,7.52,2021-12-17 16:43:00.375000
2494,7.92,2021-12-17 16:43:00.390625
2495,8.12,2021-12-17 16:43:00.406250
2496,8.11,2021-12-17 16:43:00.421875
2497,7.93,2021-12-17 16:43:00.437500
2498,7.62,2021-12-17 16:43:00.453125
2499,7.23,2021-12-17 16:43:00.468750
2500,6.74,2021-12-17 16:43:00.484375
2501,6.13,2021-12-17 16:43:00.500000
2502,5.37,2021-12-17 16:43:00.515625
2503,4.48,2021-12-17 16:43:00.531250
2504,3.48,2021-12-17 16:43:00.546875
2505,2.47,2021-12-17 16:43:00.562500
2506,1.52,2021-12-17 16:43:00.578125
2507,0.67,2021-12-17 16:43:00.593750
2508,-0.08,2021-12-17 16:43:00.609375
2509,-0.78,2021-12-17 16:43:00.625000
2510,-1.52,2021-12-17 16:43:00.640625
2511,-2.38,2021-12-17 16:43:00.656250
2512,-3.41,2021-12-17 16:43:00.671875
2513,-4.66,2021-12-17 16:43:00.687500
2514,-6.15,2021-12-17 16:43:00.703125
2515,-7.8,2021-12-17 16:43:00.718750
2516,-9.47,2021-12-17 16:43:00.734375
2517,-10.92,2021-12-17 16:43:00.750000
2518,-11.88,2021-12-17 16:43:00.765625
2519,-12.17,2021-12-17 16:43:00.781250
2520,-11.75,2021-12-17 16:43:00.796875
2521,-10.78,2021-12-17 16:43:00.812500
2522,-9.48,2021-12-17 16:43:00.828125
2523,-8.11,2021-12-17 16:43:00.843750
2524,-6.73,2021-12-17 16:43:00.859375
2525,-5.35,2021-12-17 16:43:00.875000
2526,-3.84,2021-12-17 16:43:00.890625
2527,-2.13,2021-12-17 16:43:00.906250
2528,-0.24,2021-12-17 16:43:00.921875
2529,1.69,2021-12-17 16:43:00.937500
2530,3.52,2021-12-17 16:43:00.953125
2531,5.12,2021-12-17 16:43:00.968750
2532,6.45,2021-12-17 16:43:00.984375
2533,7.55,2021-12-17 16:43:01.000000
2534,8.47,2021-12-17 16:43:01.015625
2535,9.29,2021-12-17 16:43:01.031250
2536,10.01,2021-12-17 16:43:01.046875
2537,10.64,2021-12-17 16:43:01.062500
2538,11.16,2021-12-17 16:43:01.078125
2539,11.55,2021-12-17 16:43:01.093750
2540,11.81,2021-12-17 16:43:01.109375
2541,11.95,2021-12-17 16:43:01.125000
2542,12.0,2021-12-17 16:43:01.140625
2543,12.0,2021-12-17 16:43:01.156250
2544,11.99,2021-12-17 16:43:01.171875
2545,11.97,2021-12-17 16:43:01.187500
2546,11.96,2021-12-17 16:43:01.203125
2547,11.92,2021-12-17 16:43:01.218750
2548,11.76,2021-12-17 16:43:01.234375
2549,11.42,2021-12-17 16:43:01.250000
2550,10.87,2021-12-17 16:43:01.265625
2551,10.1,2021-12-17 16:43:01.281250
2552,9.22,2021-12-17 16:43:01.296875
2553,8.36,2021-12-17 16:43:01.312500
2554,7.64,2021-12-17 16:43:01.328125
2555,7.09,2021-12-17 16:43:01.343750
2556,6.64,2021-12-17 16:43:01.359375
2557,6.13,2021-12-17 16:43:01.375000
2558,5.41,2021-12-17 16:43:01.390625
2559,4.39,2021-12-17 16:43:01.406250
2560,3.13,2021-12-17 16:43:01.421875
2561,1.76,2021-12-17 16:43:01.437500
2562,0.46,2021-12-17 16:43:01.453125
2563,-0.64,2021-12-17 16:43:01.468750
2564,-1.54,2021-12-17 16:43:01.484375
2565,-2.32,2021-12-17 16:43:01.500000
2566,-3.1,2021-12-17 16:43:01.515625
2567,-3.99,2021-12-17 16:43:01.531250
2568,-5.01,2021-12-17 16:43:01.546875
2569,-6.13,2021-12-17 16:43:01.562500
2570,-7.28,2021-12-17 16:43:01.578125
2571,-8.42,2021-12-17 16:43:01.593750
2572,-9.61,2021-12-17 16:43:01.609375
2573,-10.96,2021-12-17 16:43:01.625000
2574,-12.55,2021-12-17 16:43:01.640625
2575,-14.35,2021-12-17 16:43:01.656250
2576,-16.1,2021-12-17 16:43:01.671875
2577,-17.45,2021-12-17 16:43:01.687500
2578,-18.02,2021-12-17 16:43:01.703125
2579,-17.62,2021-12-17 16:43:01.718750
2580,-16.32,2021-12-17 16:43:01.734375
2581,-14.41,2021-12-17 16:43:01.750000
2582,-12.29,2021-12-17 16:43:01.765625
2583,-10.23,2021-12-17 16:43:01.781250
2584,-8.34,2021-12-17 16:43:01.796875
2585,-6.55,2021-12-17 16:43:01.812500
2586,-4.74,2021-12-17 16:43:01.828125
2587,-2.81,2021-12-17 16:43:01.843750
2588,-0.83,2021-12-17 16:43:01.859375
2589,1.09,2021-12-17 16:43:01.875000
2590,2.77,2021-12-17 16:43:01.890625
2591,4.15,2021-12-17 16:43:01.906250
2592,5.24,2021-12-17 16:43:01.921875
2593,6.08,2021-12-17 16:43:01.937500
2594,6.76,2021-12-17 16:43:01.953125
2595,7.36,2021-12-17 16:43:01.968750
2596,7.92,2021-12-17 16:43:01.984375
2597,8.46,2021-12-17 16:43:02.000000
2598,8.98,2021-12-17 16:43:02.015625
2599,9.48,2021-12-17 16:43:02.031250
2600,9.93,2021-12-17 16:43:02.046875
2601,10.3,2021-12-17 16:43:02.062500
2602,10.53,2021-12-17 16:43:02.078125
2603,10.64,2021-12-17 16:43:02.093750
2604,10.6,2021-12-17 16:43:02.109375
2605,10.45,2021-12-17 16:43:02.125000
2606,10.23,2021-12-17 16:43:02.140625
2607,9.96,2021-12-17 16:43:02.156250
2608,9.67,2021-12-17 16:43:02.171875
2609,9.39,2021-12-17 16:43:02.187500
2610,9.11,2021-12-17 16:43:02.203125
2611,8.82,2021-12-17 16:43:02.218750
2612,8.49,2021-12-17 16:43:02.234375
2613,8.03,2021-12-17 16:43:02.250000
2614,7.42,2021-12-17 16:43:02.265625
2615,6.67,2021-12-17 16:43:02.281250
2616,5.86,2021-12-17 16:43:02.296875
2617,5.09,2021-12-17 16:43:02.312500
2618,4.43,2021-12-17 16:43:02.328125
2619,3.89,2021-12-17 16:43:02.343750
2620,3.37,2021-12-17 16:43:02.359375
2621,2.78,2021-12-17 16:43:02.375000
2622,2.08,2021-12-17 16:43:02.390625
2623,1.32,2021-12-17 16:43:02.406250
2624,0.62,2021-12-17 16:43:02.421875
2625,0.12,2021-12-17 16:43:02.437500
2626,-0.18,2021-12-17 16:43:02.453125
2627,-0.37,2021-12-17 16:43:02.468750
2628,-0.61,2021-12-17 16:43:02.484375
2629,-1.07,2021-12-17 16:43:02.500000
2630,-1.82,2021-12-17 16:43:02.515625
2631,-2.82,2021-12-17 16:43:02.531250
2632,-3.9,2021-12-17 16:43:02.546875
2633,-4.94,2021-12-17 16:43:02.562500
2634,-5.9,2021-12-17 16:43:02.578125
2635,-6.84,2021-12-17 16:43:02.593750
2636,-7.9,2021-12-17 16:43:02.609375
2637,-9.22,2021-12-17 16:43:02.625000
2638,-10.79,2021-12-17 16:43:02.640625
2639,-12.47,2021-12-17 16:43:02.656250
2640,-13.99,2021-12-17 16:43:02.671875
2641,-15.08,2021-12-17 16:43:02.687500
2642,-15.56,2021-12-17 16:43:02.703125
2643,-15.42,2021-12-17 16:43:02.718750
2644,-14.77,2021-12-17 16:43:02.734375
2645,-13.78,2021-12-17 16:43:02.750000
2646,-12.59,2021-12-17 16:43:02.765625
2647,-11.3,2021-12-17 16:43:02.781250
2648,-9.97,2021-12-17 16:43:02.796875
2649,-8.63,2021-12-17 16:43:02.812500
2650,-7.35,2021-12-17 16:43:02.828125
2651,-6.12,2021-12-17 16:43:02.843750
2652,-4.91,2021-12-17 16:43:02.859375
2653,-3.63,2021-12-17 16:43:02.875000
2654,-2.21,2021-12-17 16:43:02.890625
2655,-0.63,2021-12-17 16:43:02.906250
2656,1.04,2021-12-17 16:43:02.921875
2657,2.69,2021-12-17 16:43:02.937500
2658,4.19,2021-12-17 16:43:02.953125
2659,5.44,2021-12-17 16:43:02.968750
2660,6.39,2021-12-17 16:43:02.984375
2661,7.0,2021-12-17 16:43:03.000000
2662,7.3,2021-12-17 16:43:03.015625
2663,7.33,2021-12-17 16:43:03.031250
2664,7.2,2021-12-17 16:43:03.046875
2665,7.07,2021-12-17 16:43:03.062500
2666,7.03,2021-12-17 16:43:03.078125
2667,7.2,2021-12-17 16:43:03.093750
2668,7.58,2021-12-17 16:43:03.109375
2669,8.14,2021-12-17 16:43:03.125000
2670,8.79,2021-12-17 16:43:03.140625
2671,9.45,2021-12-17 16:43:03.156250
2672,10.03,2021-12-17 16:43:03.171875
2673,10.45,2021-12-17 16:43:03.187500
2674,10.63,2021-12-17 16:43:03.203125
2675,10.54,2021-12-17 16:43:03.218750
2676,10.14,2021-12-17 16:43:03.234375
2677,9.45,2021-12-17 16:43:03.250000
2678,8.54,2021-12-17 16:43:03.265625
2679,7.55,2021-12-17 16:43:03.281250
2680,6.61,2021-12-17 16:43:03.296875
2681,5.84,2021-12-17 16:43:03.312500
2682,5.28,2021-12-17 16:43:03.328125
2683,4.86,2021-12-17 16:43:03.343750
2684,4.46,2021-12-17 16:43:03.359375
2685,3.98,2021-12-17 16:43:03.375000
2686,3.34,2021-12-17 16:43:03.390625
2687,2.59,2021-12-17 16:43:03.406250
2688,1.79,2021-12-17 16:43:03.421875
2689,1.04,2021-12-17 16:43:03.437500
2690,0.38,2021-12-17 16:43:03.453125
2691,-0.16,2021-12-17 16:43:03.468750
2692,-0.61,2021-12-17 16:43:03.484375
2693,-0.98,2021-12-17 16:43:03.500000
2694,-1.3,2021-12-17 16:43:03.515625
2695,-1.66,2021-12-17 16:43:03.531250
2696,-2.12,2021-12-17 16:43:03.546875
2697,-2.73,2021-12-17 16:43:03.562500
2698,-3.48,2021-12-17 16:43:03.578125
2699,-4.29,2021-12-17 16:43:03.593750
2700,-5.06,2021-12-17 16:43:03.609375
2701,-5.76,2021-12-17 16:43:03.625000
2702,-6.4,2021-12-17 16:43:03.640625
2703,-7.08,2021-12-17 16:43:03.656250
2704,-7.9,2021-12-17 16:43:03.671875
2705,-8.88,2021-12-17 16:43:03.687500
2706,-9.97,2021-12-17 16:43:03.703125
2707,-11.07,2021-12-17 16:43:03.718750
2708,-12.06,2021-12-17 16:43:03.734375
2709,-12.84,2021-12-17 16:43:03.750000
2710,-13.32,2021-12-17 16:43:03.765625
2711,-13.45,2021-12-17 16:43:03.781250
2712,-13.2,2021-12-17 16:43:03.796875
2713,-12.59,2021-12-17 16:43:03.812500
2714,-11.69,2021-12-17 16:43:03.828125
2715,-10.57,2021-12-17 16:43:03.843750
2716,-9.3,2021-12-17 16:43:03.859375
2717,-7.96,2021-12-17 16:43:03.875000
2718,-6.57,2021-12-17 16:43:03.890625
2719,-5.17,2021-12-17 16:43:03.906250
2720,-3.76,2021-12-17 16:43:03.921875
2721,-2.38,2021-12-17 16:43:03.937500
2722,-1.05,2021-12-17 16:43:03.953125
2723,0.2,2021-12-17 16:43:03.968750
2724,1.36,2021-12-17 16:43:03.984375
2725,2.43,2021-12-17 16:43:04.000000
2726,3.35,2021-12-17 16:43:04.015625
2727,4.11,2021-12-17 16:43:04.031250
2728,4.66,2021-12-17 16:43:04.046875
2729,5.04,2021-12-17 16:43:04.062500
2730,5.33,2021-12-17 16:43:04.078125
2731,5.64,2021-12-17 16:43:04.093750
2732,6.03,2021-12-17 16:43:04.109375
2733,6.52,2021-12-17 16:43:04.125000
2734,7.04,2021-12-17 16:43:04.140625
2735,7.5,2021-12-17 16:43:04.156250
2736,7.83,2021-12-17 16:43:04.171875
2737,8.02,2021-12-17 16:43:04.187500
2738,8.15,2021-12-17 16:43:04.203125
2739,8.25,2021-12-17 16:43:04.218750
2740,8.33,2021-12-17 16:43:04.234375
2741,8.37,2021-12-17 16:43:04.250000
2742,8.27,2021-12-17 16:43:04.265625
2743,8.0,2021-12-17 16:43:04.281250
2744,7.58,2021-12-17 16:43:04.296875
2745,7.09,2021-12-17 16:43:04.312500
2746,6.61,2021-12-17 16:43:04.328125
2747,6.22,2021-12-17 16:43:04.343750
2748,5.95,2021-12-17 16:43:04.359375
2749,5.78,2021-12-17 16:43:04.375000
2750,5.68,2021-12-17 16:43:04.390625
2751,5.57,2021-12-17 16:43:04.406250
2752,5.35,2021-12-17 16:43:04.421875
2753,4.92,2021-12-17 16:43:04.437500
2754,4.21,2021-12-17 16:43:04.453125
2755,3.22,2021-12-17 16:43:04.468750
2756,2.07,2021-12-17 16:43:04.484375
2757,0.93,2021-12-17 16:43:04.500000
2758,-0.02,2021-12-17 16:43:04.515625
2759,-0.73,2021-12-17 16:43:04.531250
2760,-1.24,2021-12-17 16:43:04.546875
2761,-1.74,2021-12-17 16:43:04.562500
2762,-2.36,2021-12-17 16:43:04.578125
2763,-3.18,2021-12-17 16:43:04.593750
2764,-4.14,2021-12-17 16:43:04.609375
2765,-5.09,2021-12-17 16:43:04.625000
2766,-5.89,2021-12-17 16:43:04.640625
2767,-6.46,2021-12-17 16:43:04.656250
2768,-6.8,2021-12-17 16:43:04.671875
2769,-6.98,2021-12-17 16:43:04.687500
2770,-7.11,2021-12-17 16:43:04.703125
2771,-7.27,2021-12-17 16:43:04.718750
2772,-7.57,2021-12-17 16:43:04.734375
2773,-8.09,2021-12-17 16:43:04.750000
2774,-8.89,2021-12-17 16:43:04.765625
2775,-9.97,2021-12-17 16:43:04.781250
2776,-11.2,2021-12-17 16:43:04.796875
2777,-12.38,2021-12-17 16:43:04.812500
2778,-13.27,2021-12-17 16:43:04.828125
2779,-13.7,2021-12-17 16:43:04.843750
2780,-13.62,2021-12-17 16:43:04.859375
2781,-13.09,2021-12-17 16:43:04.875000
2782,-12.29,2021-12-17 16:43:04.890625
2783,-11.39,2021-12-17 16:43:04.906250
2784,-10.48,2021-12-17 16:43:04.921875
2785,-9.54,2021-12-17 16:43:04.937500
2786,-8.49,2021-12-17 16:43:04.953125
2787,-7.25,2021-12-17 16:43:04.968750
2788,-5.83,2021-12-17 16:43:04.984375
2789,-4.26,2021-12-17 16:43:05.000000
2790,-2.67,2021-12-17 16:43:05.015625
2791,-1.14,2021-12-17 16:43:05.031250
2792,0.26,2021-12-17 16:43:05.046875
2793,1.51,2021-12-17 16:43:05.062500
2794,2.57,2021-12-17 16:43:05.078125
2795,3.44,2021-12-17 16:43:05.093750
2796,4.05,2021-12-17 16:43:05.109375
2797,4.34,2021-12-17 16:43:05.125000
2798,4.37,2021-12-17 16:43:05.140625
2799,4.21,2021-12-17 16:43:05.156250
2800,4.07,2021-12-17 16:43:05.171875
2801,4.1,2021-12-17 16:43:05.187500
2802,4.43,2021-12-17 16:43:05.203125
2803,5.1,2021-12-17 16:43:05.218750
2804,6.0,2021-12-17 16:43:05.234375
2805,6.99,2021-12-17 16:43:05.250000
2806,7.88,2021-12-17 16:43:05.265625
2807,8.51,2021-12-17 16:43:05.281250
2808,8.81,2021-12-17 16:43:05.296875
2809,8.77,2021-12-17 16:43:05.312500
2810,8.48,2021-12-17 16:43:05.328125
2811,8.08,2021-12-17 16:43:05.343750
2812,7.71,2021-12-17 16:43:05.359375
2813,7.44,2021-12-17 16:43:05.375000
2814,7.23,2021-12-17 16:43:05.390625
2815,7.01,2021-12-17 16:43:05.406250
2816,6.67,2021-12-17 16:43:05.421875
2817,6.2,2021-12-17 16:43:05.437500
2818,5.67,2021-12-17 16:43:05.453125
2819,5.19,2021-12-17 16:43:05.468750
2820,4.84,2021-12-17 16:43:05.484375
2821,4.61,2021-12-17 16:43:05.500000
2822,4.39,2021-12-17 16:43:05.515625
2823,4.04,2021-12-17 16:43:05.531250
2824,3.45,2021-12-17 16:43:05.546875
2825,2.65,2021-12-17 16:43:05.562500
2826,1.74,2021-12-17 16:43:05.578125
2827,0.83,2021-12-17 16:43:05.593750
2828,-0.03,2021-12-17 16:43:05.609375
2829,-0.87,2021-12-17 16:43:05.625000
2830,-1.76,2021-12-17 16:43:05.640625
2831,-2.69,2021-12-17 16:43:05.656250
2832,-3.61,2021-12-17 16:43:05.671875
2833,-4.42,2021-12-17 16:43:05.687500
2834,-5.06,2021-12-17 16:43:05.703125
2835,-5.56,2021-12-17 16:43:05.718750
2836,-6.08,2021-12-17 16:43:05.734375
2837,-6.79,2021-12-17 16:43:05.750000
2838,-7.8,2021-12-17 16:43:05.765625
2839,-9.05,2021-12-17 16:43:05.781250
2840,-10.38,2021-12-17 16:43:05.796875
2841,-11.57,2021-12-17 16:43:05.812500
2842,-12.44,2021-12-17 16:43:05.828125
2843,-12.85,2021-12-17 16:43:05.843750
2844,-12.78,2021-12-17 16:43:05.859375
2845,-12.27,2021-12-17 16:43:05.875000
2846,-11.37,2021-12-17 16:43:05.890625
2847,-10.2,2021-12-17 16:43:05.906250
2848,-8.93,2021-12-17 16:43:05.921875
2849,-7.71,2021-12-17 16:43:05.937500
2850,-6.66,2021-12-17 16:43:05.953125
2851,-5.81,2021-12-17 16:43:05.968750
2852,-5.1,2021-12-17 16:43:05.984375
2853,-4.4,2021-12-17 16:43:06.000000
2854,-3.62,2021-12-17 16:43:06.015625
2855,-2.7,2021-12-17 16:43:06.031250
2856,-1.68,2021-12-17 16:43:06.046875
2857,-0.69,2021-12-17 16:43:06.062500
2858,0.21,2021-12-17 16:43:06.078125
2859,0.91,2021-12-17 16:43:06.093750
2860,1.43,2021-12-17 16:43:06.109375
2861,1.81,2021-12-17 16:43:06.125000
2862,2.14,2021-12-17 16:43:06.140625
2863,2.52,2021-12-17 16:43:06.156250
2864,3.02,2021-12-17 16:43:06.171875
2865,3.68,2021-12-17 16:43:06.187500
2866,4.43,2021-12-17 16:43:06.203125
2867,5.19,2021-12-17 16:43:06.218750
2868,5.9,2021-12-17 16:43:06.234375
2869,6.51,2021-12-17 16:43:06.250000
2870,7.04,2021-12-17 16:43:06.265625
2871,7.52,2021-12-17 16:43:06.281250
2872,7.95,2021-12-17 16:43:06.296875
2873,8.31,2021-12-17 16:43:06.312500
2874,8.53,2021-12-17 16:43:06.328125
2875,8.6,2021-12-17 16:43:06.343750
2876,8.49,2021-12-17 16:43:06.359375
2877,8.27,2021-12-17 16:43:06.375000
2878,7.94,2021-12-17 16:43:06.390625
2879,7.49,2021-12-17 16:43:06.406250
2880,6.87,2021-12-17 16:43:06.421875
2881,6.03,2021-12-17 16:43:06.437500
2882,5.0,2021-12-17 16:43:06.453125
2883,3.91,2021-12-17 16:43:06.468750
2884,2.93,2021-12-17 16:43:06.484375
2885,2.2,2021-12-17 16:43:06.500000
2886,1.72,2021-12-17 16:43:06.515625
2887,1.4,2021-12-17 16:43:06.531250
2888,1.06,2021-12-17 16:43:06.546875
2889,0.56,2021-12-17 16:43:06.562500
2890,-0.15,2021-12-17 16:43:06.578125
2891,-1.01,2021-12-17 16:43:06.593750
2892,-1.9,2021-12-17 16:43:06.609375
2893,-2.73,2021-12-17 16:43:06.625000
2894,-3.43,2021-12-17 16:43:06.640625
2895,-4.03,2021-12-17 16:43:06.656250
2896,-4.62,2021-12-17 16:43:06.671875
2897,-5.23,2021-12-17 16:43:06.687500
2898,-5.85,2021-12-17 16:43:06.703125
2899,-6.42,2021-12-17 16:43:06.718750
2900,-6.89,2021-12-17 16:43:06.734375
2901,-7.23,2021-12-17 16:43:06.750000
2902,-7.51,2021-12-17 16:43:06.765625
2903,-7.86,2021-12-17 16:43:06.781250
2904,-8.41,2021-12-17 16:43:06.796875
2905,-9.24,2021-12-17 16:43:06.812500
2906,-10.29,2021-12-17 16:43:06.828125
2907,-11.41,2021-12-17 16:43:06.843750
2908,-12.31,2021-12-17 16:43:06.859375
2909,-12.77,2021-12-17 16:43:06.875000
2910,-12.66,2021-12-17 16:43:06.890625
2911,-12.02,2021-12-17 16:43:06.906250
2912,-11.03,2021-12-17 16:43:06.921875
2913,-9.91,2021-12-17 16:43:06.937500
2914,-8.83,2021-12-17 16:43:06.953125
2915,-7.81,2021-12-17 16:43:06.968750
2916,-6.84,2021-12-17 16:43:06.984375
2917,-5.82,2021-12-17 16:43:07.000000
2918,-4.72,2021-12-17 16:43:07.015625
2919,-3.57,2021-12-17 16:43:07.031250
2920,-2.44,2021-12-17 16:43:07.046875
2921,-1.37,2021-12-17 16:43:07.062500
2922,-0.36,2021-12-17 16:43:07.078125
2923,0.63,2021-12-17 16:43:07.093750
2924,1.67,2021-12-17 16:43:07.109375
2925,2.74,2021-12-17 16:43:07.125000
2926,3.76,2021-12-17 16:43:07.140625
2927,4.62,2021-12-17 16:43:07.156250
2928,5.21,2021-12-17 16:43:07.171875
2929,5.49,2021-12-17 16:43:07.187500
2930,5.5,2021-12-17 16:43:07.203125
2931,5.35,2021-12-17 16:43:07.218750
2932,5.19,2021-12-17 16:43:07.234375
2933,5.13,2021-12-17 16:43:07.250000
2934,5.26,2021-12-17 16:43:07.265625
2935,5.62,2021-12-17 16:43:07.281250
2936,6.16,2021-12-17 16:43:07.296875
2937,6.83,2021-12-17 16:43:07.312500
2938,7.53,2021-12-17 16:43:07.328125
2939,8.14,2021-12-17 16:43:07.343750
2940,8.57,2021-12-17 16:43:07.359375
2941,8.78,2021-12-17 16:43:07.375000
2942,8.76,2021-12-17 16:43:07.390625
2943,8.55,2021-12-17 16:43:07.406250
2944,8.19,2021-12-17 16:43:07.421875
2945,7.74,2021-12-17 16:43:07.437500
2946,7.21,2021-12-17 16:43:07.453125
2947,6.66,2021-12-17 16:43:07.468750
2948,6.09,2021-12-17 16:43:07.484375
2949,5.57,2021-12-17 16:43:07.500000
2950,5.16,2021-12-17 16:43:07.515625
2951,4.9,2021-12-17 16:43:07.531250
2952,4.81,2021-12-17 16:43:07.546875
2953,4.8,2021-12-17 16:43:07.562500
2954,4.77,2021-12-17 16:43:07.578125
2955,4.59,2021-12-17 16:43:07.593750
2956,4.22,2021-12-17 16:43:07.609375
2957,3.69,2021-12-17 16:43:07.625000
2958,3.11,2021-12-17 16:43:07.640625
2959,2.58,2021-12-17 16:43:07.656250
2960,2.19,2021-12-17 16:43:07.671875
2961,1.88,2021-12-17 16:43:07.687500
2962,1.58,2021-12-17 16:43:07.703125
2963,1.17,2021-12-17 16:43:07.718750
2964,0.58,2021-12-17 16:43:07.734375
2965,-0.18,2021-12-17 16:43:07.750000
2966,-1.05,2021-12-17 16:43:07.765625
2967,-1.99,2021-12-17 16:43:07.781250
2968,-3.01,2021-12-17 16:43:07.796875
2969,-4.13,2021-12-17 16:43:07.812500
2970,-5.37,2021-12-17 16:43:07.828125
2971,-6.66,2021-12-17 16:43:07.843750
2972,-7.85,2021-12-17 16:43:07.859375
2973,-8.73,2021-12-17 16:43:07.875000
2974,-9.15,2021-12-17 16:43:07.890625
2975,-9.04,2021-12-17 16:43:07.906250
2976,-8.52,2021-12-17 16:43:07.921875
2977,-7.8,2021-12-17 16:43:07.937500
2978,-7.09,2021-12-17 16:43:07.953125
2979,-6.49,2021-12-17 16:43:07.968750
2980,-5.99,2021-12-17 16:43:07.984375
2981,-5.44,2021-12-17 16:43:08.000000
2982,-4.71,2021-12-17 16:43:08.015625
2983,-3.7,2021-12-17 16:43:08.031250
2984,-2.48,2021-12-17 16:43:08.046875
2985,-1.17,2021-12-17 16:43:08.062500
2986,0.06,2021-12-17 16:43:08.078125
2987,1.1,2021-12-17 16:43:08.093750
2988,1.88,2021-12-17 16:43:08.109375
2989,2.37,2021-12-17 16:43:08.125000
2990,2.58,2021-12-17 16:43:08.140625
2991,2.56,2021-12-17 16:43:08.156250
2992,2.35,2021-12-17 16:43:08.171875
2993,2.04,2021-12-17 16:43:08.187500
2994,1.72,2021-12-17 16:43:08.203125
2995,1.52,2021-12-17 16:43:08.218750
2996,1.51,2021-12-17 16:43:08.234375
2997,1.73,2021-12-17 16:43:08.250000
2998,2.14,2021-12-17 16:43:08.265625
2999,2.65,2021-12-17 16:43:08.281250
3000,3.12,2021-12-17 16:43:08.296875
3001,3.44,2021-12-17 16:43:08.312500
3002,3.54,2021-12-17 16:43:08.328125
3003,3.41,2021-12-17 16:43:08.343750
3004,3.1,2021-12-17 16:43:08.359375
3005,2.71,2021-12-17 16:43:08.375000
3006,2.33,2021-12-17 16:43:08.390625
3007,2.04,2021-12-17 16:43:08.406250
3008,1.84,2021-12-17 16:43:08.421875
3009,1.68,2021-12-17 16:43:08.437500
3010,1.5,2021-12-17 16:43:08.453125
3011,1.24,2021-12-17 16:43:08.468750
3012,0.85,2021-12-17 16:43:08.484375
3013,0.31,2021-12-17 16:43:08.500000
3014,-0.37,2021-12-17 16:43:08.515625
3015,-1.16,2021-12-17 16:43:08.531250
3016,-2.02,2021-12-17 16:43:08.546875
3017,-2.84,2021-12-17 16:43:08.562500
3018,-3.54,2021-12-17 16:43:08.578125
3019,-3.99,2021-12-17 16:43:08.593750
3020,-4.17,2021-12-17 16:43:08.609375
3021,-4.13,2021-12-17 16:43:08.625000
3022,-4.0,2021-12-17 16:43:08.640625
3023,-3.97,2021-12-17 16:43:08.656250
3024,-4.25,2021-12-17 16:43:08.671875
3025,-4.93,2021-12-17 16:43:08.687500
3026,-5.97,2021-12-17 16:43:08.703125
3027,-7.24,2021-12-17 16:43:08.718750
3028,-8.51,2021-12-17 16:43:08.734375
3029,-9.53,2021-12-17 16:43:08.750000
3030,-10.16,2021-12-17 16:43:08.765625
3031,-10.3,2021-12-17 16:43:08.781250
3032,-10.0,2021-12-17 16:43:08.796875
3033,-9.38,2021-12-17 16:43:08.812500
3034,-8.6,2021-12-17 16:43:08.828125
3035,-7.76,2021-12-17 16:43:08.843750
3036,-6.9,2021-12-17 16:43:08.859375
3037,-6.01,2021-12-17 16:43:08.875000
3038,-5.03,2021-12-17 16:43:08.890625
3039,-3.98,2021-12-17 16:43:08.906250
3040,-2.93,2021-12-17 16:43:08.921875
3041,-2.0,2021-12-17 16:43:08.937500
3042,-1.27,2021-12-17 16:43:08.953125
3043,-0.77,2021-12-17 16:43:08.968750
3044,-0.48,2021-12-17 16:43:08.984375
3045,-0.32,2021-12-17 16:43:09.000000
3046,-0.25,2021-12-17 16:43:09.015625
3047,-0.28,2021-12-17 16:43:09.031250
3048,-0.47,2021-12-17 16:43:09.046875
3049,-0.85,2021-12-17 16:43:09.062500
3050,-1.39,2021-12-17 16:43:09.078125
3051,-1.98,2021-12-17 16:43:09.093750
3052,-2.5,2021-12-17 16:43:09.109375
3053,-2.83,2021-12-17 16:43:09.125000
3054,-2.96,2021-12-17 16:43:09.140625
3055,-2.97,2021-12-17 16:43:09.156250
3056,-3.02,2021-12-17 16:43:09.171875
3057,-3.23,2021-12-17 16:43:09.187500
3058,-3.64,2021-12-17 16:43:09.203125
3059,-4.2,2021-12-17 16:43:09.218750
3060,-4.76,2021-12-17 16:43:09.234375
3061,-5.21,2021-12-17 16:43:09.250000
3062,-5.51,2021-12-17 16:43:09.265625
3063,-5.72,2021-12-17 16:43:09.281250
3064,-5.98,2021-12-17 16:43:09.296875
3065,-6.45,2021-12-17 16:43:09.312500
3066,-7.19,2021-12-17 16:43:09.328125
3067,-8.15,2021-12-17 16:43:09.343750
3068,-9.15,2021-12-17 16:43:09.359375
3069,-9.97,2021-12-17 16:43:09.375000
3070,-10.46,2021-12-17 16:43:09.390625
3071,-10.58,2021-12-17 16:43:09.406250
3072,-10.42,2021-12-17 16:43:09.421875
3073,-10.11,2021-12-17 16:43:09.437500
3074,-9.77,2021-12-17 16:43:09.453125
3075,-9.4,2021-12-17 16:43:09.468750
3076,-8.93,2021-12-17 16:43:09.484375
3077,-8.27,2021-12-17 16:43:09.500000
3078,-7.36,2021-12-17 16:43:09.515625
3079,-6.2,2021-12-17 16:43:09.531250
3080,-4.83,2021-12-17 16:43:09.546875
3081,-3.3,2021-12-17 16:43:09.562500
3082,-1.6,2021-12-17 16:43:09.578125
3083,0.29,2021-12-17 16:43:09.593750
3084,2.34,2021-12-17 16:43:09.609375
3085,4.44,2021-12-17 16:43:09.625000
3086,6.42,2021-12-17 16:43:09.640625
3087,8.1,2021-12-17 16:43:09.656250
3088,9.34,2021-12-17 16:43:09.671875
3089,10.14,2021-12-17 16:43:09.687500
3090,10.61,2021-12-17 16:43:09.703125
3091,10.93,2021-12-17 16:43:09.718750
3092,11.25,2021-12-17 16:43:09.734375
3093,11.63,2021-12-17 16:43:09.750000
3094,12.06,2021-12-17 16:43:09.765625
3095,12.46,2021-12-17 16:43:09.781250
3096,12.78,2021-12-17 16:43:09.796875
3097,13.01,2021-12-17 16:43:09.812500
3098,13.21,2021-12-17 16:43:09.828125
3099,13.49,2021-12-17 16:43:09.843750
3100,13.87,2021-12-17 16:43:09.859375
3101,14.28,2021-12-17 16:43:09.875000
3102,14.56,2021-12-17 16:43:09.890625
3103,14.54,2021-12-17 16:43:09.906250
3104,14.12,2021-12-17 16:43:09.921875
3105,13.39,2021-12-17 16:43:09.937500
3106,12.55,2021-12-17 16:43:09.953125
3107,11.82,2021-12-17 16:43:09.968750
3108,11.32,2021-12-17 16:43:09.984375
3109,11.02,2021-12-17 16:43:10.000000
3110,10.77,2021-12-17 16:43:10.015625
3111,10.36,2021-12-17 16:43:10.031250
3112,9.71,2021-12-17 16:43:10.046875
3113,8.81,2021-12-17 16:43:10.062500
3114,7.8,2021-12-17 16:43:10.078125
3115,6.81,2021-12-17 16:43:10.093750
3116,5.96,2021-12-17 16:43:10.109375
3117,5.23,2021-12-17 16:43:10.125000
3118,4.55,2021-12-17 16:43:10.140625
3119,3.83,2021-12-17 16:43:10.156250
3120,3.0,2021-12-17 16:43:10.171875
3121,2.05,2021-12-17 16:43:10.187500
3122,1.01,2021-12-17 16:43:10.203125
3123,-0.08,2021-12-17 16:43:10.218750
3124,-1.2,2021-12-17 16:43:10.234375
3125,-2.39,2021-12-17 16:43:10.250000
3126,-3.68,2021-12-17 16:43:10.265625
3127,-5.13,2021-12-17 16:43:10.281250
3128,-6.73,2021-12-17 16:43:10.296875
3129,-8.42,2021-12-17 16:43:10.312500
3130,-10.15,2021-12-17 16:43:10.328125
3131,-11.88,2021-12-17 16:43:10.343750
3132,-13.6,2021-12-17 16:43:10.359375
3133,-15.3,2021-12-17 16:43:10.375000
3134,-16.9,2021-12-17 16:43:10.390625
3135,-18.28,2021-12-17 16:43:10.406250
3136,-19.27,2021-12-17 16:43:10.421875
3137,-19.7,2021-12-17 16:43:10.437500
3138,-19.47,2021-12-17 16:43:10.453125
3139,-18.6,2021-12-17 16:43:10.468750
3140,-17.2,2021-12-17 16:43:10.484375
3141,-15.43,2021-12-17 16:43:10.500000
3142,-13.44,2021-12-17 16:43:10.515625
3143,-11.34,2021-12-17 16:43:10.531250
3144,-9.21,2021-12-17 16:43:10.546875
3145,-7.11,2021-12-17 16:43:10.562500
3146,-5.12,2021-12-17 16:43:10.578125
3147,-3.28,2021-12-17 16:43:10.593750
3148,-1.65,2021-12-17 16:43:10.609375
3149,-0.24,2021-12-17 16:43:10.625000
3150,0.99,2021-12-17 16:43:10.640625
3151,2.16,2021-12-17 16:43:10.656250
3152,3.35,2021-12-17 16:43:10.671875
3153,4.6,2021-12-17 16:43:10.687500
3154,5.86,2021-12-17 16:43:10.703125
3155,7.02,2021-12-17 16:43:10.718750
3156,7.93,2021-12-17 16:43:10.734375
3157,8.54,2021-12-17 16:43:10.750000
3158,8.89,2021-12-17 16:43:10.765625
3159,9.1,2021-12-17 16:43:10.781250
3160,9.28,2021-12-17 16:43:10.796875
3161,9.5,2021-12-17 16:43:10.812500
3162,9.75,2021-12-17 16:43:10.828125
3163,10.0,2021-12-17 16:43:10.843750
3164,10.25,2021-12-17 16:43:10.859375
3165,10.55,2021-12-17 16:43:10.875000
3166,10.96,2021-12-17 16:43:10.890625
3167,11.45,2021-12-17 16:43:10.906250
3168,11.92,2021-12-17 16:43:10.921875
3169,12.19,2021-12-17 16:43:10.937500
3170,12.14,2021-12-17 16:43:10.953125
3171,11.75,2021-12-17 16:43:10.968750
3172,11.16,2021-12-17 16:43:10.984375
3173,10.6,2021-12-17 16:43:11.000000
3174,10.22,2021-12-17 16:43:11.015625
3175,10.07,2021-12-17 16:43:11.031250
3176,10.0,2021-12-17 16:43:11.046875
3177,9.81,2021-12-17 16:43:11.062500
3178,9.33,2021-12-17 16:43:11.078125
3179,8.5,2021-12-17 16:43:11.093750
3180,7.42,2021-12-17 16:43:11.109375
3181,6.25,2021-12-17 16:43:11.125000
3182,5.11,2021-12-17 16:43:11.140625
3183,4.06,2021-12-17 16:43:11.156250
3184,3.07,2021-12-17 16:43:11.171875
3185,2.1,2021-12-17 16:43:11.187500
3186,1.17,2021-12-17 16:43:11.203125
3187,0.36,2021-12-17 16:43:11.218750
3188,-0.27,2021-12-17 16:43:11.234375
3189,-0.72,2021-12-17 16:43:11.250000
3190,-1.09,2021-12-17 16:43:11.265625
3191,-1.54,2021-12-17 16:43:11.281250
3192,-2.23,2021-12-17 16:43:11.296875
3193,-3.22,2021-12-17 16:43:11.312500
3194,-4.43,2021-12-17 16:43:11.328125
3195,-5.7,2021-12-17 16:43:11.343750
3196,-6.88,2021-12-17 16:43:11.359375
3197,-7.96,2021-12-17 16:43:11.375000
3198,-9.02,2021-12-17 16:43:11.390625
3199,-10.19,2021-12-17 16:43:11.406250
3200,-11.57,2021-12-17 16:43:11.421875
3201,-13.06,2021-12-17 16:43:11.437500
3202,-14.42,2021-12-17 16:43:11.453125
3203,-15.32,2021-12-17 16:43:11.468750
3204,-15.49,2021-12-17 16:43:11.484375
3205,-14.85,2021-12-17 16:43:11.500000
3206,-13.58,2021-12-17 16:43:11.515625
3207,-11.96,2021-12-17 16:43:11.531250
3208,-10.3,2021-12-17 16:43:11.546875
3209,-8.77,2021-12-17 16:43:11.562500
3210,-7.4,2021-12-17 16:43:11.578125
3211,-6.03,2021-12-17 16:43:11.593750
3212,-4.5,2021-12-17 16:43:11.609375
