,BVP,time
0,-87.38,2022-08-17 14:23:42.390625
1,-79.17,2022-08-17 14:23:42.406250
2,-72.84,2022-08-17 14:23:42.421875
3,-68.89,2022-08-17 14:23:42.437500
4,-66.96,2022-08-17 14:23:42.453125
5,-66.12,2022-08-17 14:23:42.468750
6,-65.5,2022-08-17 14:23:42.484375
7,-64.67,2022-08-17 14:23:42.500000
8,-63.79,2022-08-17 14:23:42.515625
9,-63.57,2022-08-17 14:23:42.531250
10,-64.73,2022-08-17 14:23:42.546875
11,-67.59,2022-08-17 14:23:42.562500
12,-71.92,2022-08-17 14:23:42.578125
13,-76.93,2022-08-17 14:23:42.593750
14,-81.74,2022-08-17 14:23:42.609375
15,-85.79,2022-08-17 14:23:42.625000
16,-89.07,2022-08-17 14:23:42.640625
17,-92.15,2022-08-17 14:23:42.656250
18,-95.79,2022-08-17 14:23:42.671875
19,-100.27,2022-08-17 14:23:42.687500
20,-105.05,2022-08-17 14:23:42.703125
21,-108.71,2022-08-17 14:23:42.718750
22,-109.57,2022-08-17 14:23:42.734375
23,-106.52,2022-08-17 14:23:42.750000
24,-99.44,2022-08-17 14:23:42.765625
25,-89.34,2022-08-17 14:23:42.781250
26,-77.68,2022-08-17 14:23:42.796875
27,-65.62,2022-08-17 14:23:42.812500
28,-53.4,2022-08-17 14:23:42.828125
29,-40.53,2022-08-17 14:23:42.843750
30,-26.4,2022-08-17 14:23:42.859375
31,-11.13,2022-08-17 14:23:42.875000
32,4.03,2022-08-17 14:23:42.890625
33,17.15,2022-08-17 14:23:42.906250
34,26.42,2022-08-17 14:23:42.921875
35,31.01,2022-08-17 14:23:42.937500
36,31.47,2022-08-17 14:23:42.953125
37,29.38,2022-08-17 14:23:42.968750
38,26.52,2022-08-17 14:23:42.984375
39,24.2,2022-08-17 14:23:43.000000
40,22.87,2022-08-17 14:23:43.015625
41,22.32,2022-08-17 14:23:43.031250
42,22.11,2022-08-17 14:23:43.046875
43,22.1,2022-08-17 14:23:43.062500
44,22.24,2022-08-17 14:23:43.078125
45,22.59,2022-08-17 14:23:43.093750
46,23.02,2022-08-17 14:23:43.109375
47,23.04,2022-08-17 14:23:43.125000
48,22.22,2022-08-17 14:23:43.140625
49,20.47,2022-08-17 14:23:43.156250
50,18.11,2022-08-17 14:23:43.171875
51,15.77,2022-08-17 14:23:43.187500
52,14.04,2022-08-17 14:23:43.203125
53,13.19,2022-08-17 14:23:43.218750
54,13.15,2022-08-17 14:23:43.234375
55,13.88,2022-08-17 14:23:43.250000
56,15.48,2022-08-17 14:23:43.265625
57,18.32,2022-08-17 14:23:43.281250
58,22.79,2022-08-17 14:23:43.296875
59,28.96,2022-08-17 14:23:43.312500
60,36.37,2022-08-17 14:23:43.328125
61,44.16,2022-08-17 14:23:43.343750
62,51.5,2022-08-17 14:23:43.359375
63,58.02,2022-08-17 14:23:43.375000
64,63.96,2022-08-17 14:23:43.390625
65,69.96,2022-08-17 14:23:43.406250
66,76.7,2022-08-17 14:23:43.421875
67,84.56,2022-08-17 14:23:43.437500
68,93.35,2022-08-17 14:23:43.453125
69,102.33,2022-08-17 14:23:43.468750
70,110.14,2022-08-17 14:23:43.484375
71,114.9,2022-08-17 14:23:43.500000
72,114.69,2022-08-17 14:23:43.515625
73,107.91,2022-08-17 14:23:43.531250
74,93.74,2022-08-17 14:23:43.546875
75,72.59,2022-08-17 14:23:43.562500
76,46.08,2022-08-17 14:23:43.578125
77,16.67,2022-08-17 14:23:43.593750
78,-12.79,2022-08-17 14:23:43.609375
79,-39.87,2022-08-17 14:23:43.625000
80,-62.93,2022-08-17 14:23:43.640625
81,-81.0,2022-08-17 14:23:43.656250
82,-93.41,2022-08-17 14:23:43.671875
83,-99.76,2022-08-17 14:23:43.687500
84,-99.79,2022-08-17 14:23:43.703125
85,-93.69,2022-08-17 14:23:43.718750
86,-82.28,2022-08-17 14:23:43.734375
87,-67.0,2022-08-17 14:23:43.750000
88,-49.84,2022-08-17 14:23:43.765625
89,-32.94,2022-08-17 14:23:43.781250
90,-18.05,2022-08-17 14:23:43.796875
91,-6.09,2022-08-17 14:23:43.812500
92,2.78,2022-08-17 14:23:43.828125
93,9.08,2022-08-17 14:23:43.843750
94,13.27,2022-08-17 14:23:43.859375
95,15.97,2022-08-17 14:23:43.875000
96,17.67,2022-08-17 14:23:43.890625
97,18.74,2022-08-17 14:23:43.906250
98,19.42,2022-08-17 14:23:43.921875
99,20.23,2022-08-17 14:23:43.937500
100,21.76,2022-08-17 14:23:43.953125
101,24.2,2022-08-17 14:23:43.968750
102,26.94,2022-08-17 14:23:43.984375
103,28.05,2022-08-17 14:23:44.000000
104,25.92,2022-08-17 14:23:44.015625
105,19.65,2022-08-17 14:23:44.031250
106,9.35,2022-08-17 14:23:44.046875
107,-3.98,2022-08-17 14:23:44.062500
108,-18.35,2022-08-17 14:23:44.078125
109,-31.47,2022-08-17 14:23:44.093750
110,-41.82,2022-08-17 14:23:44.109375
111,-49.45,2022-08-17 14:23:44.125000
112,-57.07,2022-08-17 14:23:44.140625
113,-67.01,2022-08-17 14:23:44.156250
114,-80.99,2022-08-17 14:23:44.171875
115,-99.79,2022-08-17 14:23:44.187500
116,-122.8,2022-08-17 14:23:44.203125
117,-147.12,2022-08-17 14:23:44.218750
118,-167.99,2022-08-17 14:23:44.234375
119,-180.31,2022-08-17 14:23:44.250000
120,-180.48,2022-08-17 14:23:44.265625
121,-169.41,2022-08-17 14:23:44.281250
122,-148.57,2022-08-17 14:23:44.296875
123,-120.31,2022-08-17 14:23:44.312500
124,-87.86,2022-08-17 14:23:44.328125
125,-54.26,2022-08-17 14:23:44.343750
126,-20.69,2022-08-17 14:23:44.359375
127,13.81,2022-08-17 14:23:44.375000
128,51.96,2022-08-17 14:23:44.390625
129,96.72,2022-08-17 14:23:44.406250
130,147.71,2022-08-17 14:23:44.421875
131,205.98,2022-08-17 14:23:44.437500
132,272.06,2022-08-17 14:23:44.453125
133,344.53,2022-08-17 14:23:44.468750
134,411.03,2022-08-17 14:23:44.484375
135,454.21,2022-08-17 14:23:44.500000
136,459.0,2022-08-17 14:23:44.515625
137,420.35,2022-08-17 14:23:44.531250
138,355.69,2022-08-17 14:23:44.546875
139,268.04,2022-08-17 14:23:44.562500
140,158.07,2022-08-17 14:23:44.578125
141,28.09,2022-08-17 14:23:44.593750
142,-116.19,2022-08-17 14:23:44.609375
143,-261.62,2022-08-17 14:23:44.625000
144,-391.86,2022-08-17 14:23:44.640625
145,-492.13,2022-08-17 14:23:44.656250
146,-553.14,2022-08-17 14:23:44.671875
147,-572.92,2022-08-17 14:23:44.687500
148,-559.29,2022-08-17 14:23:44.703125
149,-520.7,2022-08-17 14:23:44.718750
150,-465.54,2022-08-17 14:23:44.734375
151,-401.92,2022-08-17 14:23:44.750000
152,-337.67,2022-08-17 14:23:44.765625
153,-280.02,2022-08-17 14:23:44.781250
154,-234.99,2022-08-17 14:23:44.796875
155,-206.61,2022-08-17 14:23:44.812500
156,-187.36,2022-08-17 14:23:44.828125
157,-172.75,2022-08-17 14:23:44.843750
158,-154.94,2022-08-17 14:23:44.859375
159,-126.82,2022-08-17 14:23:44.875000
160,-86.3,2022-08-17 14:23:44.890625
161,-37.67,2022-08-17 14:23:44.906250
162,10.51,2022-08-17 14:23:44.921875
163,49.35,2022-08-17 14:23:44.937500
164,73.35,2022-08-17 14:23:44.953125
165,82.22,2022-08-17 14:23:44.968750
166,78.0,2022-08-17 14:23:44.984375
167,66.5,2022-08-17 14:23:45.000000
168,53.53,2022-08-17 14:23:45.015625
169,42.31,2022-08-17 14:23:45.031250
170,33.82,2022-08-17 14:23:45.046875
171,27.24,2022-08-17 14:23:45.062500
172,22.95,2022-08-17 14:23:45.078125
173,21.59,2022-08-17 14:23:45.093750
174,23.73,2022-08-17 14:23:45.109375
175,27.66,2022-08-17 14:23:45.125000
176,31.41,2022-08-17 14:23:45.140625
177,33.08,2022-08-17 14:23:45.156250
178,30.5,2022-08-17 14:23:45.171875
179,22.84,2022-08-17 14:23:45.187500
180,11.09,2022-08-17 14:23:45.203125
181,-2.1,2022-08-17 14:23:45.218750
182,-13.77,2022-08-17 14:23:45.234375
183,-22.06,2022-08-17 14:23:45.250000
184,-27.13,2022-08-17 14:23:45.265625
185,-30.44,2022-08-17 14:23:45.281250
186,-33.72,2022-08-17 14:23:45.296875
187,-39.18,2022-08-17 14:23:45.312500
188,-47.0,2022-08-17 14:23:45.328125
189,-54.88,2022-08-17 14:23:45.343750
190,-59.01,2022-08-17 14:23:45.359375
191,-56.57,2022-08-17 14:23:45.375000
192,-47.21,2022-08-17 14:23:45.390625
193,-31.99,2022-08-17 14:23:45.406250
194,-12.96,2022-08-17 14:23:45.421875
195,10.42,2022-08-17 14:23:45.437500
196,37.45,2022-08-17 14:23:45.453125
197,66.38,2022-08-17 14:23:45.468750
198,94.55,2022-08-17 14:23:45.484375
199,119.43,2022-08-17 14:23:45.500000
200,139.79,2022-08-17 14:23:45.515625
201,156.29,2022-08-17 14:23:45.531250
202,173.61,2022-08-17 14:23:45.546875
203,192.12,2022-08-17 14:23:45.562500
204,214.05,2022-08-17 14:23:45.578125
205,240.17,2022-08-17 14:23:45.593750
206,270.48,2022-08-17 14:23:45.609375
207,304.88,2022-08-17 14:23:45.625000
208,343.38,2022-08-17 14:23:45.640625
209,385.55,2022-08-17 14:23:45.656250
210,417.57,2022-08-17 14:23:45.671875
211,427.72,2022-08-17 14:23:45.687500
212,408.72,2022-08-17 14:23:45.703125
213,362.37,2022-08-17 14:23:45.718750
214,297.39,2022-08-17 14:23:45.734375
215,225.46,2022-08-17 14:23:45.750000
216,156.39,2022-08-17 14:23:45.765625
217,95.32,2022-08-17 14:23:45.781250
218,42.53,2022-08-17 14:23:45.796875
219,-5.59,2022-08-17 14:23:45.812500
220,-51.83,2022-08-17 14:23:45.828125
221,-97.33,2022-08-17 14:23:45.843750
222,-140.11,2022-08-17 14:23:45.859375
223,-176.98,2022-08-17 14:23:45.875000
224,-204.66,2022-08-17 14:23:45.890625
225,-221.39,2022-08-17 14:23:45.906250
226,-229.54,2022-08-17 14:23:45.921875
227,-231.53,2022-08-17 14:23:45.937500
228,-230.05,2022-08-17 14:23:45.953125
229,-225.73,2022-08-17 14:23:45.968750
230,-218.22,2022-08-17 14:23:45.984375
231,-206.36,2022-08-17 14:23:46.000000
232,-189.85,2022-08-17 14:23:46.015625
233,-169.63,2022-08-17 14:23:46.031250
234,-147.8,2022-08-17 14:23:46.046875
235,-126.85,2022-08-17 14:23:46.062500
236,-108.49,2022-08-17 14:23:46.078125
237,-93.71,2022-08-17 14:23:46.093750
238,-81.59,2022-08-17 14:23:46.109375
239,-70.53,2022-08-17 14:23:46.125000
240,-58.87,2022-08-17 14:23:46.140625
241,-45.99,2022-08-17 14:23:46.156250
242,-31.94,2022-08-17 14:23:46.171875
243,-18.03,2022-08-17 14:23:46.187500
244,-5.83,2022-08-17 14:23:46.203125
245,3.85,2022-08-17 14:23:46.218750
246,10.82,2022-08-17 14:23:46.234375
247,16.09,2022-08-17 14:23:46.250000
248,21.0,2022-08-17 14:23:46.265625
249,26.81,2022-08-17 14:23:46.281250
250,33.89,2022-08-17 14:23:46.296875
251,41.89,2022-08-17 14:23:46.312500
252,49.79,2022-08-17 14:23:46.328125
253,56.46,2022-08-17 14:23:46.343750
254,61.2,2022-08-17 14:23:46.359375
255,63.73,2022-08-17 14:23:46.375000
256,64.31,2022-08-17 14:23:46.390625
257,63.37,2022-08-17 14:23:46.406250
258,61.52,2022-08-17 14:23:46.421875
259,59.04,2022-08-17 14:23:46.437500
260,56.16,2022-08-17 14:23:46.453125
261,52.83,2022-08-17 14:23:46.468750
262,49.03,2022-08-17 14:23:46.484375
263,44.75,2022-08-17 14:23:46.500000
264,40.12,2022-08-17 14:23:46.515625
265,35.4,2022-08-17 14:23:46.531250
266,31.08,2022-08-17 14:23:46.546875
267,27.66,2022-08-17 14:23:46.562500
268,25.41,2022-08-17 14:23:46.578125
269,24.33,2022-08-17 14:23:46.593750
270,23.92,2022-08-17 14:23:46.609375
271,23.5,2022-08-17 14:23:46.625000
272,22.38,2022-08-17 14:23:46.640625
273,20.07,2022-08-17 14:23:46.656250
274,16.37,2022-08-17 14:23:46.671875
275,11.34,2022-08-17 14:23:46.687500
276,5.24,2022-08-17 14:23:46.703125
277,-1.58,2022-08-17 14:23:46.718750
278,-8.61,2022-08-17 14:23:46.734375
279,-15.32,2022-08-17 14:23:46.750000
280,-21.35,2022-08-17 14:23:46.765625
281,-26.46,2022-08-17 14:23:46.781250
282,-30.86,2022-08-17 14:23:46.796875
283,-35.04,2022-08-17 14:23:46.812500
284,-39.51,2022-08-17 14:23:46.828125
285,-44.54,2022-08-17 14:23:46.843750
286,-50.09,2022-08-17 14:23:46.859375
287,-55.79,2022-08-17 14:23:46.875000
288,-61.21,2022-08-17 14:23:46.890625
289,-66.05,2022-08-17 14:23:46.906250
290,-69.99,2022-08-17 14:23:46.921875
291,-72.87,2022-08-17 14:23:46.937500
292,-74.5,2022-08-17 14:23:46.953125
293,-74.91,2022-08-17 14:23:46.968750
294,-74.42,2022-08-17 14:23:46.984375
295,-73.86,2022-08-17 14:23:47.000000
296,-74.33,2022-08-17 14:23:47.015625
297,-76.72,2022-08-17 14:23:47.031250
298,-81.32,2022-08-17 14:23:47.046875
299,-87.33,2022-08-17 14:23:47.062500
300,-93.25,2022-08-17 14:23:47.078125
301,-97.23,2022-08-17 14:23:47.093750
302,-97.74,2022-08-17 14:23:47.109375
303,-93.98,2022-08-17 14:23:47.125000
304,-86.07,2022-08-17 14:23:47.140625
305,-74.78,2022-08-17 14:23:47.156250
306,-61.27,2022-08-17 14:23:47.171875
307,-46.84,2022-08-17 14:23:47.187500
308,-32.67,2022-08-17 14:23:47.203125
309,-19.8,2022-08-17 14:23:47.218750
310,-8.83,2022-08-17 14:23:47.234375
311,-0.04,2022-08-17 14:23:47.250000
312,6.69,2022-08-17 14:23:47.265625
313,11.72,2022-08-17 14:23:47.281250
314,15.54,2022-08-17 14:23:47.296875
315,18.67,2022-08-17 14:23:47.312500
316,21.46,2022-08-17 14:23:47.328125
317,24.12,2022-08-17 14:23:47.343750
318,26.59,2022-08-17 14:23:47.359375
319,28.71,2022-08-17 14:23:47.375000
320,30.18,2022-08-17 14:23:47.390625
321,30.75,2022-08-17 14:23:47.406250
322,30.26,2022-08-17 14:23:47.421875
323,28.64,2022-08-17 14:23:47.437500
324,25.95,2022-08-17 14:23:47.453125
325,22.25,2022-08-17 14:23:47.468750
326,17.7,2022-08-17 14:23:47.484375
327,12.42,2022-08-17 14:23:47.500000
328,6.62,2022-08-17 14:23:47.515625
329,0.68,2022-08-17 14:23:47.531250
330,-4.96,2022-08-17 14:23:47.546875
331,-9.88,2022-08-17 14:23:47.562500
332,-13.72,2022-08-17 14:23:47.578125
333,-16.25,2022-08-17 14:23:47.593750
334,-17.48,2022-08-17 14:23:47.609375
335,-17.54,2022-08-17 14:23:47.625000
336,-16.75,2022-08-17 14:23:47.640625
337,-15.56,2022-08-17 14:23:47.656250
338,-14.42,2022-08-17 14:23:47.671875
339,-13.63,2022-08-17 14:23:47.687500
340,-13.2,2022-08-17 14:23:47.703125
341,-12.82,2022-08-17 14:23:47.718750
342,-11.91,2022-08-17 14:23:47.734375
343,-9.89,2022-08-17 14:23:47.750000
344,-6.25,2022-08-17 14:23:47.765625
345,-0.9,2022-08-17 14:23:47.781250
346,5.95,2022-08-17 14:23:47.796875
347,13.86,2022-08-17 14:23:47.812500
348,22.32,2022-08-17 14:23:47.828125
349,30.79,2022-08-17 14:23:47.843750
350,38.88,2022-08-17 14:23:47.859375
351,46.23,2022-08-17 14:23:47.875000
352,52.41,2022-08-17 14:23:47.890625
353,57.17,2022-08-17 14:23:47.906250
354,60.28,2022-08-17 14:23:47.921875
355,61.64,2022-08-17 14:23:47.937500
356,61.37,2022-08-17 14:23:47.953125
357,59.68,2022-08-17 14:23:47.968750
358,56.8,2022-08-17 14:23:47.984375
359,52.98,2022-08-17 14:23:48.000000
360,48.44,2022-08-17 14:23:48.015625
361,43.26,2022-08-17 14:23:48.031250
362,37.64,2022-08-17 14:23:48.046875
363,31.72,2022-08-17 14:23:48.062500
364,25.64,2022-08-17 14:23:48.078125
365,19.63,2022-08-17 14:23:48.093750
366,13.85,2022-08-17 14:23:48.109375
367,8.48,2022-08-17 14:23:48.125000
368,3.64,2022-08-17 14:23:48.140625
369,-0.6,2022-08-17 14:23:48.156250
370,-4.34,2022-08-17 14:23:48.171875
371,-7.64,2022-08-17 14:23:48.187500
372,-10.62,2022-08-17 14:23:48.203125
373,-13.4,2022-08-17 14:23:48.218750
374,-15.9,2022-08-17 14:23:48.234375
375,-18.14,2022-08-17 14:23:48.250000
376,-20.07,2022-08-17 14:23:48.265625
377,-21.71,2022-08-17 14:23:48.281250
378,-23.19,2022-08-17 14:23:48.296875
379,-24.67,2022-08-17 14:23:48.312500
380,-26.28,2022-08-17 14:23:48.328125
381,-28.07,2022-08-17 14:23:48.343750
382,-29.94,2022-08-17 14:23:48.359375
383,-31.59,2022-08-17 14:23:48.375000
384,-32.77,2022-08-17 14:23:48.390625
385,-33.26,2022-08-17 14:23:48.406250
386,-32.93,2022-08-17 14:23:48.421875
387,-31.74,2022-08-17 14:23:48.437500
388,-29.68,2022-08-17 14:23:48.453125
389,-26.64,2022-08-17 14:23:48.468750
390,-22.52,2022-08-17 14:23:48.484375
391,-17.25,2022-08-17 14:23:48.500000
392,-10.83,2022-08-17 14:23:48.515625
393,-3.55,2022-08-17 14:23:48.531250
394,4.06,2022-08-17 14:23:48.546875
395,11.41,2022-08-17 14:23:48.562500
396,17.84,2022-08-17 14:23:48.578125
397,22.91,2022-08-17 14:23:48.593750
398,26.36,2022-08-17 14:23:48.609375
399,28.14,2022-08-17 14:23:48.625000
400,28.45,2022-08-17 14:23:48.640625
401,27.64,2022-08-17 14:23:48.656250
402,26.07,2022-08-17 14:23:48.671875
403,24.05,2022-08-17 14:23:48.687500
404,21.79,2022-08-17 14:23:48.703125
405,19.37,2022-08-17 14:23:48.718750
406,16.93,2022-08-17 14:23:48.734375
407,14.59,2022-08-17 14:23:48.750000
408,12.51,2022-08-17 14:23:48.765625
409,10.91,2022-08-17 14:23:48.781250
410,9.85,2022-08-17 14:23:48.796875
411,9.25,2022-08-17 14:23:48.812500
412,8.82,2022-08-17 14:23:48.828125
413,8.19,2022-08-17 14:23:48.843750
414,7.07,2022-08-17 14:23:48.859375
415,5.37,2022-08-17 14:23:48.875000
416,3.23,2022-08-17 14:23:48.890625
417,0.92,2022-08-17 14:23:48.906250
418,-1.26,2022-08-17 14:23:48.921875
419,-3.2,2022-08-17 14:23:48.937500
420,-4.89,2022-08-17 14:23:48.953125
421,-6.43,2022-08-17 14:23:48.968750
422,-7.97,2022-08-17 14:23:48.984375
423,-9.65,2022-08-17 14:23:49.000000
424,-11.62,2022-08-17 14:23:49.015625
425,-13.95,2022-08-17 14:23:49.031250
426,-16.74,2022-08-17 14:23:49.046875
427,-19.95,2022-08-17 14:23:49.062500
428,-23.39,2022-08-17 14:23:49.078125
429,-26.74,2022-08-17 14:23:49.093750
430,-29.52,2022-08-17 14:23:49.109375
431,-31.22,2022-08-17 14:23:49.125000
432,-31.39,2022-08-17 14:23:49.140625
433,-29.72,2022-08-17 14:23:49.156250
434,-26.07,2022-08-17 14:23:49.171875
435,-20.6,2022-08-17 14:23:49.187500
436,-13.65,2022-08-17 14:23:49.203125
437,-5.75,2022-08-17 14:23:49.218750
438,2.42,2022-08-17 14:23:49.234375
439,10.21,2022-08-17 14:23:49.250000
440,17.02,2022-08-17 14:23:49.265625
441,22.41,2022-08-17 14:23:49.281250
442,26.17,2022-08-17 14:23:49.296875
443,28.36,2022-08-17 14:23:49.312500
444,29.18,2022-08-17 14:23:49.328125
445,29.0,2022-08-17 14:23:49.343750
446,28.09,2022-08-17 14:23:49.359375
447,26.69,2022-08-17 14:23:49.375000
448,24.93,2022-08-17 14:23:49.390625
449,22.92,2022-08-17 14:23:49.406250
450,20.84,2022-08-17 14:23:49.421875
451,18.93,2022-08-17 14:23:49.437500
452,17.43,2022-08-17 14:23:49.453125
453,16.55,2022-08-17 14:23:49.468750
454,16.31,2022-08-17 14:23:49.484375
455,16.58,2022-08-17 14:23:49.500000
456,17.03,2022-08-17 14:23:49.515625
457,17.3,2022-08-17 14:23:49.531250
458,16.99,2022-08-17 14:23:49.546875
459,15.92,2022-08-17 14:23:49.562500
460,14.08,2022-08-17 14:23:49.578125
461,11.6,2022-08-17 14:23:49.593750
462,8.63,2022-08-17 14:23:49.609375
463,5.34,2022-08-17 14:23:49.625000
464,1.78,2022-08-17 14:23:49.640625
465,-2.13,2022-08-17 14:23:49.656250
466,-6.43,2022-08-17 14:23:49.671875
467,-11.26,2022-08-17 14:23:49.687500
468,-16.67,2022-08-17 14:23:49.703125
469,-22.8,2022-08-17 14:23:49.718750
470,-29.75,2022-08-17 14:23:49.734375
471,-37.46,2022-08-17 14:23:49.750000
472,-45.46,2022-08-17 14:23:49.765625
473,-52.86,2022-08-17 14:23:49.781250
474,-58.46,2022-08-17 14:23:49.796875
475,-61.06,2022-08-17 14:23:49.812500
476,-60.0,2022-08-17 14:23:49.828125
477,-55.31,2022-08-17 14:23:49.843750
478,-47.66,2022-08-17 14:23:49.859375
479,-38.07,2022-08-17 14:23:49.875000
480,-27.43,2022-08-17 14:23:49.890625
481,-16.2,2022-08-17 14:23:49.906250
482,-4.63,2022-08-17 14:23:49.921875
483,7.13,2022-08-17 14:23:49.937500
484,18.63,2022-08-17 14:23:49.953125
485,29.14,2022-08-17 14:23:49.968750
486,37.91,2022-08-17 14:23:49.984375
487,44.47,2022-08-17 14:23:50.000000
488,48.77,2022-08-17 14:23:50.015625
489,51.22,2022-08-17 14:23:50.031250
490,52.33,2022-08-17 14:23:50.046875
491,52.49,2022-08-17 14:23:50.062500
492,51.95,2022-08-17 14:23:50.078125
493,50.73,2022-08-17 14:23:50.093750
494,48.8,2022-08-17 14:23:50.109375
495,46.25,2022-08-17 14:23:50.125000
496,43.31,2022-08-17 14:23:50.140625
497,40.25,2022-08-17 14:23:50.156250
498,37.37,2022-08-17 14:23:50.171875
499,34.74,2022-08-17 14:23:50.187500
500,32.29,2022-08-17 14:23:50.203125
501,29.83,2022-08-17 14:23:50.218750
502,27.17,2022-08-17 14:23:50.234375
503,24.24,2022-08-17 14:23:50.250000
504,21.16,2022-08-17 14:23:50.265625
505,18.28,2022-08-17 14:23:50.281250
506,16.07,2022-08-17 14:23:50.296875
507,14.93,2022-08-17 14:23:50.312500
508,15.1,2022-08-17 14:23:50.328125
509,16.52,2022-08-17 14:23:50.343750
510,18.94,2022-08-17 14:23:50.359375
511,21.97,2022-08-17 14:23:50.375000
512,25.19,2022-08-17 14:23:50.390625
513,28.19,2022-08-17 14:23:50.406250
514,30.61,2022-08-17 14:23:50.421875
515,32.14,2022-08-17 14:23:50.437500
516,32.56,2022-08-17 14:23:50.453125
517,31.76,2022-08-17 14:23:50.468750
518,29.84,2022-08-17 14:23:50.484375
519,27.04,2022-08-17 14:23:50.500000
520,23.65,2022-08-17 14:23:50.515625
521,19.87,2022-08-17 14:23:50.531250
522,15.74,2022-08-17 14:23:50.546875
523,11.15,2022-08-17 14:23:50.562500
524,6.03,2022-08-17 14:23:50.578125
525,0.44,2022-08-17 14:23:50.593750
526,-5.3,2022-08-17 14:23:50.609375
527,-10.67,2022-08-17 14:23:50.625000
528,-15.13,2022-08-17 14:23:50.640625
529,-18.25,2022-08-17 14:23:50.656250
530,-19.88,2022-08-17 14:23:50.671875
531,-20.16,2022-08-17 14:23:50.687500
532,-19.52,2022-08-17 14:23:50.703125
533,-18.49,2022-08-17 14:23:50.718750
534,-17.63,2022-08-17 14:23:50.734375
535,-17.29,2022-08-17 14:23:50.750000
536,-17.61,2022-08-17 14:23:50.765625
537,-18.55,2022-08-17 14:23:50.781250
538,-19.86,2022-08-17 14:23:50.796875
539,-21.32,2022-08-17 14:23:50.812500
540,-22.71,2022-08-17 14:23:50.828125
541,-23.93,2022-08-17 14:23:50.843750
542,-24.94,2022-08-17 14:23:50.859375
543,-25.75,2022-08-17 14:23:50.875000
544,-26.24,2022-08-17 14:23:50.890625
545,-26.27,2022-08-17 14:23:50.906250
546,-25.74,2022-08-17 14:23:50.921875
547,-24.57,2022-08-17 14:23:50.937500
548,-22.85,2022-08-17 14:23:50.953125
549,-20.78,2022-08-17 14:23:50.968750
550,-18.64,2022-08-17 14:23:50.984375
551,-16.66,2022-08-17 14:23:51.000000
552,-14.92,2022-08-17 14:23:51.015625
553,-13.35,2022-08-17 14:23:51.031250
554,-11.83,2022-08-17 14:23:51.046875
555,-10.28,2022-08-17 14:23:51.062500
556,-8.77,2022-08-17 14:23:51.078125
557,-7.54,2022-08-17 14:23:51.093750
558,-6.92,2022-08-17 14:23:51.109375
559,-7.15,2022-08-17 14:23:51.125000
560,-8.31,2022-08-17 14:23:51.140625
561,-10.23,2022-08-17 14:23:51.156250
562,-12.63,2022-08-17 14:23:51.171875
563,-15.07,2022-08-17 14:23:51.187500
564,-17.16,2022-08-17 14:23:51.203125
565,-18.49,2022-08-17 14:23:51.218750
566,-18.77,2022-08-17 14:23:51.234375
567,-17.84,2022-08-17 14:23:51.250000
568,-15.62,2022-08-17 14:23:51.265625
569,-12.2,2022-08-17 14:23:51.281250
570,-7.91,2022-08-17 14:23:51.296875
571,-3.14,2022-08-17 14:23:51.312500
572,1.66,2022-08-17 14:23:51.328125
573,6.1,2022-08-17 14:23:51.343750
574,9.93,2022-08-17 14:23:51.359375
575,13.01,2022-08-17 14:23:51.375000
576,15.35,2022-08-17 14:23:51.390625
577,17.0,2022-08-17 14:23:51.406250
578,18.04,2022-08-17 14:23:51.421875
579,18.52,2022-08-17 14:23:51.437500
580,18.53,2022-08-17 14:23:51.453125
581,18.15,2022-08-17 14:23:51.468750
582,17.43,2022-08-17 14:23:51.484375
583,16.46,2022-08-17 14:23:51.500000
584,15.3,2022-08-17 14:23:51.515625
585,14.01,2022-08-17 14:23:51.531250
586,12.68,2022-08-17 14:23:51.546875
587,11.39,2022-08-17 14:23:51.562500
588,10.17,2022-08-17 14:23:51.578125
589,9.06,2022-08-17 14:23:51.593750
590,8.1,2022-08-17 14:23:51.609375
591,7.27,2022-08-17 14:23:51.625000
592,6.58,2022-08-17 14:23:51.640625
593,6.01,2022-08-17 14:23:51.656250
594,5.5,2022-08-17 14:23:51.671875
595,4.95,2022-08-17 14:23:51.687500
596,4.26,2022-08-17 14:23:51.703125
597,3.35,2022-08-17 14:23:51.718750
598,2.2,2022-08-17 14:23:51.734375
599,0.99,2022-08-17 14:23:51.750000
600,-0.18,2022-08-17 14:23:51.765625
601,-1.14,2022-08-17 14:23:51.781250
602,-1.92,2022-08-17 14:23:51.796875
603,-2.74,2022-08-17 14:23:51.812500
604,-3.93,2022-08-17 14:23:51.828125
605,-5.77,2022-08-17 14:23:51.843750
606,-8.34,2022-08-17 14:23:51.859375
607,-11.46,2022-08-17 14:23:51.875000
608,-14.8,2022-08-17 14:23:51.890625
609,-18.01,2022-08-17 14:23:51.906250
610,-20.78,2022-08-17 14:23:51.921875
611,-22.94,2022-08-17 14:23:51.937500
612,-24.38,2022-08-17 14:23:51.953125
613,-24.91,2022-08-17 14:23:51.968750
614,-24.33,2022-08-17 14:23:51.984375
615,-22.43,2022-08-17 14:23:52.000000
616,-19.11,2022-08-17 14:23:52.015625
617,-14.52,2022-08-17 14:23:52.031250
618,-8.99,2022-08-17 14:23:52.046875
619,-2.91,2022-08-17 14:23:52.062500
620,3.27,2022-08-17 14:23:52.078125
621,9.12,2022-08-17 14:23:52.093750
622,14.36,2022-08-17 14:23:52.109375
623,18.66,2022-08-17 14:23:52.125000
624,21.84,2022-08-17 14:23:52.140625
625,23.81,2022-08-17 14:23:52.156250
626,24.66,2022-08-17 14:23:52.171875
627,24.6,2022-08-17 14:23:52.187500
628,23.89,2022-08-17 14:23:52.203125
629,22.77,2022-08-17 14:23:52.218750
630,21.39,2022-08-17 14:23:52.234375
631,19.91,2022-08-17 14:23:52.250000
632,18.48,2022-08-17 14:23:52.265625
633,17.29,2022-08-17 14:23:52.281250
634,16.48,2022-08-17 14:23:52.296875
635,16.11,2022-08-17 14:23:52.312500
636,16.11,2022-08-17 14:23:52.328125
637,16.26,2022-08-17 14:23:52.343750
638,16.33,2022-08-17 14:23:52.359375
639,16.17,2022-08-17 14:23:52.375000
640,15.75,2022-08-17 14:23:52.390625
641,15.14,2022-08-17 14:23:52.406250
642,14.48,2022-08-17 14:23:52.421875
643,13.84,2022-08-17 14:23:52.437500
644,13.13,2022-08-17 14:23:52.453125
645,12.19,2022-08-17 14:23:52.468750
646,10.85,2022-08-17 14:23:52.484375
647,8.94,2022-08-17 14:23:52.500000
648,6.4,2022-08-17 14:23:52.515625
649,3.34,2022-08-17 14:23:52.531250
650,-0.1,2022-08-17 14:23:52.546875
651,-3.69,2022-08-17 14:23:52.562500
652,-7.21,2022-08-17 14:23:52.578125
653,-10.52,2022-08-17 14:23:52.593750
654,-13.48,2022-08-17 14:23:52.609375
655,-16.07,2022-08-17 14:23:52.625000
656,-18.31,2022-08-17 14:23:52.640625
657,-20.3,2022-08-17 14:23:52.656250
658,-22.16,2022-08-17 14:23:52.671875
659,-24.0,2022-08-17 14:23:52.687500
660,-25.81,2022-08-17 14:23:52.703125
661,-27.5,2022-08-17 14:23:52.718750
662,-28.78,2022-08-17 14:23:52.734375
663,-29.26,2022-08-17 14:23:52.750000
664,-28.54,2022-08-17 14:23:52.765625
665,-26.32,2022-08-17 14:23:52.781250
666,-22.47,2022-08-17 14:23:52.796875
667,-17.14,2022-08-17 14:23:52.812500
668,-10.74,2022-08-17 14:23:52.828125
669,-3.82,2022-08-17 14:23:52.843750
670,3.15,2022-08-17 14:23:52.859375
671,9.82,2022-08-17 14:23:52.875000
672,16.01,2022-08-17 14:23:52.890625
673,21.62,2022-08-17 14:23:52.906250
674,26.5,2022-08-17 14:23:52.921875
675,30.53,2022-08-17 14:23:52.937500
676,33.56,2022-08-17 14:23:52.953125
677,35.48,2022-08-17 14:23:52.968750
678,36.32,2022-08-17 14:23:52.984375
679,36.25,2022-08-17 14:23:53.000000
680,35.46,2022-08-17 14:23:53.015625
681,34.19,2022-08-17 14:23:53.031250
682,32.53,2022-08-17 14:23:53.046875
683,30.54,2022-08-17 14:23:53.062500
684,28.23,2022-08-17 14:23:53.078125
685,25.63,2022-08-17 14:23:53.093750
686,22.89,2022-08-17 14:23:53.109375
687,20.22,2022-08-17 14:23:53.125000
688,17.75,2022-08-17 14:23:53.140625
689,15.59,2022-08-17 14:23:53.156250
690,13.72,2022-08-17 14:23:53.171875
691,12.07,2022-08-17 14:23:53.187500
692,10.5,2022-08-17 14:23:53.203125
693,8.99,2022-08-17 14:23:53.218750
694,7.6,2022-08-17 14:23:53.234375
695,6.46,2022-08-17 14:23:53.250000
696,5.66,2022-08-17 14:23:53.265625
697,5.01,2022-08-17 14:23:53.281250
698,4.03,2022-08-17 14:23:53.296875
699,1.95,2022-08-17 14:23:53.312500
700,-1.98,2022-08-17 14:23:53.328125
701,-8.38,2022-08-17 14:23:53.343750
702,-17.4,2022-08-17 14:23:53.359375
703,-28.65,2022-08-17 14:23:53.375000
704,-41.37,2022-08-17 14:23:53.390625
705,-54.53,2022-08-17 14:23:53.406250
706,-67.2,2022-08-17 14:23:53.421875
707,-78.51,2022-08-17 14:23:53.437500
708,-87.72,2022-08-17 14:23:53.453125
709,-94.19,2022-08-17 14:23:53.468750
710,-97.49,2022-08-17 14:23:53.484375
711,-97.6,2022-08-17 14:23:53.500000
712,-94.89,2022-08-17 14:23:53.515625
713,-89.9,2022-08-17 14:23:53.531250
714,-83.05,2022-08-17 14:23:53.546875
715,-74.39,2022-08-17 14:23:53.562500
716,-63.61,2022-08-17 14:23:53.578125
717,-50.32,2022-08-17 14:23:53.593750
718,-34.57,2022-08-17 14:23:53.609375
719,-17.08,2022-08-17 14:23:53.625000
720,0.8,2022-08-17 14:23:53.640625
721,17.51,2022-08-17 14:23:53.656250
722,31.8,2022-08-17 14:23:53.671875
723,43.16,2022-08-17 14:23:53.687500
724,51.68,2022-08-17 14:23:53.703125
725,57.83,2022-08-17 14:23:53.718750
726,62.13,2022-08-17 14:23:53.734375
727,64.92,2022-08-17 14:23:53.750000
728,66.36,2022-08-17 14:23:53.765625
729,66.62,2022-08-17 14:23:53.781250
730,65.93,2022-08-17 14:23:53.796875
731,64.45,2022-08-17 14:23:53.812500
732,62.44,2022-08-17 14:23:53.828125
733,60.04,2022-08-17 14:23:53.843750
734,57.3,2022-08-17 14:23:53.859375
735,54.25,2022-08-17 14:23:53.875000
736,50.86,2022-08-17 14:23:53.890625
737,47.15,2022-08-17 14:23:53.906250
738,43.19,2022-08-17 14:23:53.921875
739,39.14,2022-08-17 14:23:53.937500
740,35.08,2022-08-17 14:23:53.953125
741,31.19,2022-08-17 14:23:53.968750
742,27.6,2022-08-17 14:23:53.984375
743,24.38,2022-08-17 14:23:54.000000
744,21.55,2022-08-17 14:23:54.015625
745,19.01,2022-08-17 14:23:54.031250
746,16.55,2022-08-17 14:23:54.046875
747,13.99,2022-08-17 14:23:54.062500
748,11.17,2022-08-17 14:23:54.078125
749,8.04,2022-08-17 14:23:54.093750
750,4.76,2022-08-17 14:23:54.109375
751,1.48,2022-08-17 14:23:54.125000
752,-1.67,2022-08-17 14:23:54.140625
753,-4.69,2022-08-17 14:23:54.156250
754,-7.68,2022-08-17 14:23:54.171875
755,-10.74,2022-08-17 14:23:54.187500
756,-13.9,2022-08-17 14:23:54.203125
757,-17.02,2022-08-17 14:23:54.218750
758,-19.96,2022-08-17 14:23:54.234375
759,-22.49,2022-08-17 14:23:54.250000
760,-24.53,2022-08-17 14:23:54.265625
761,-26.17,2022-08-17 14:23:54.281250
762,-27.62,2022-08-17 14:23:54.296875
763,-29.11,2022-08-17 14:23:54.312500
764,-30.68,2022-08-17 14:23:54.328125
765,-32.19,2022-08-17 14:23:54.343750
766,-33.28,2022-08-17 14:23:54.359375
767,-33.61,2022-08-17 14:23:54.375000
768,-32.88,2022-08-17 14:23:54.390625
769,-31.01,2022-08-17 14:23:54.406250
770,-28.12,2022-08-17 14:23:54.421875
771,-24.45,2022-08-17 14:23:54.437500
772,-20.35,2022-08-17 14:23:54.453125
773,-16.1,2022-08-17 14:23:54.468750
774,-11.92,2022-08-17 14:23:54.484375
775,-8.0,2022-08-17 14:23:54.500000
776,-4.46,2022-08-17 14:23:54.515625
777,-1.37,2022-08-17 14:23:54.531250
778,1.18,2022-08-17 14:23:54.546875
779,3.15,2022-08-17 14:23:54.562500
780,4.49,2022-08-17 14:23:54.578125
781,5.14,2022-08-17 14:23:54.593750
782,5.16,2022-08-17 14:23:54.609375
783,4.62,2022-08-17 14:23:54.625000
784,3.76,2022-08-17 14:23:54.640625
785,2.9,2022-08-17 14:23:54.656250
786,2.3,2022-08-17 14:23:54.671875
787,2.07,2022-08-17 14:23:54.687500
788,2.14,2022-08-17 14:23:54.703125
789,2.34,2022-08-17 14:23:54.718750
790,2.4,2022-08-17 14:23:54.734375
791,2.1,2022-08-17 14:23:54.750000
792,1.27,2022-08-17 14:23:54.765625
793,-0.11,2022-08-17 14:23:54.781250
794,-1.97,2022-08-17 14:23:54.796875
795,-4.2,2022-08-17 14:23:54.812500
796,-6.62,2022-08-17 14:23:54.828125
797,-9.04,2022-08-17 14:23:54.843750
798,-11.08,2022-08-17 14:23:54.859375
799,-12.33,2022-08-17 14:23:54.875000
800,-12.41,2022-08-17 14:23:54.890625
801,-11.1,2022-08-17 14:23:54.906250
802,-8.38,2022-08-17 14:23:54.921875
803,-4.4,2022-08-17 14:23:54.937500
804,0.45,2022-08-17 14:23:54.953125
805,5.74,2022-08-17 14:23:54.968750
806,11.02,2022-08-17 14:23:54.984375
807,15.89,2022-08-17 14:23:55.000000
808,20.04,2022-08-17 14:23:55.015625
809,23.22,2022-08-17 14:23:55.031250
810,25.21,2022-08-17 14:23:55.046875
811,25.75,2022-08-17 14:23:55.062500
812,24.71,2022-08-17 14:23:55.078125
813,21.99,2022-08-17 14:23:55.093750
814,17.73,2022-08-17 14:23:55.109375
815,12.32,2022-08-17 14:23:55.125000
816,6.33,2022-08-17 14:23:55.140625
817,0.52,2022-08-17 14:23:55.156250
818,-4.29,2022-08-17 14:23:55.171875
819,-7.43,2022-08-17 14:23:55.187500
820,-8.48,2022-08-17 14:23:55.203125
821,-7.33,2022-08-17 14:23:55.218750
822,-4.22,2022-08-17 14:23:55.234375
823,0.39,2022-08-17 14:23:55.250000
824,6.0,2022-08-17 14:23:55.265625
825,12.09,2022-08-17 14:23:55.281250
826,18.26,2022-08-17 14:23:55.296875
827,24.2,2022-08-17 14:23:55.312500
828,29.68,2022-08-17 14:23:55.328125
829,34.32,2022-08-17 14:23:55.343750
830,37.83,2022-08-17 14:23:55.359375
831,39.96,2022-08-17 14:23:55.375000
832,40.58,2022-08-17 14:23:55.390625
833,39.81,2022-08-17 14:23:55.406250
834,37.79,2022-08-17 14:23:55.421875
835,34.67,2022-08-17 14:23:55.437500
836,30.55,2022-08-17 14:23:55.453125
837,25.45,2022-08-17 14:23:55.468750
838,19.43,2022-08-17 14:23:55.484375
839,12.74,2022-08-17 14:23:55.500000
840,5.79,2022-08-17 14:23:55.515625
841,-0.95,2022-08-17 14:23:55.531250
842,-7.03,2022-08-17 14:23:55.546875
843,-12.28,2022-08-17 14:23:55.562500
844,-16.7,2022-08-17 14:23:55.578125
845,-20.47,2022-08-17 14:23:55.593750
846,-23.78,2022-08-17 14:23:55.609375
847,-26.64,2022-08-17 14:23:55.625000
848,-28.91,2022-08-17 14:23:55.640625
849,-30.4,2022-08-17 14:23:55.656250
850,-31.02,2022-08-17 14:23:55.671875
851,-30.81,2022-08-17 14:23:55.687500
852,-30.08,2022-08-17 14:23:55.703125
853,-29.19,2022-08-17 14:23:55.718750
854,-28.39,2022-08-17 14:23:55.734375
855,-27.8,2022-08-17 14:23:55.750000
856,-27.34,2022-08-17 14:23:55.765625
857,-26.76,2022-08-17 14:23:55.781250
858,-25.84,2022-08-17 14:23:55.796875
859,-24.56,2022-08-17 14:23:55.812500
860,-23.0,2022-08-17 14:23:55.828125
861,-21.49,2022-08-17 14:23:55.843750
862,-20.38,2022-08-17 14:23:55.859375
863,-19.94,2022-08-17 14:23:55.875000
864,-20.28,2022-08-17 14:23:55.890625
865,-21.31,2022-08-17 14:23:55.906250
866,-22.77,2022-08-17 14:23:55.921875
867,-24.37,2022-08-17 14:23:55.937500
868,-25.83,2022-08-17 14:23:55.953125
869,-26.87,2022-08-17 14:23:55.968750
870,-27.33,2022-08-17 14:23:55.984375
871,-27.07,2022-08-17 14:23:56.000000
872,-26.02,2022-08-17 14:23:56.015625
873,-24.26,2022-08-17 14:23:56.031250
874,-21.96,2022-08-17 14:23:56.046875
875,-19.39,2022-08-17 14:23:56.062500
876,-16.78,2022-08-17 14:23:56.078125
877,-14.26,2022-08-17 14:23:56.093750
878,-11.83,2022-08-17 14:23:56.109375
879,-9.49,2022-08-17 14:23:56.125000
880,-7.22,2022-08-17 14:23:56.140625
881,-5.11,2022-08-17 14:23:56.156250
882,-3.34,2022-08-17 14:23:56.171875
883,-2.01,2022-08-17 14:23:56.187500
884,-1.12,2022-08-17 14:23:56.203125
885,-0.54,2022-08-17 14:23:56.218750
886,-0.07,2022-08-17 14:23:56.234375
887,0.51,2022-08-17 14:23:56.250000
888,1.16,2022-08-17 14:23:56.265625
889,1.84,2022-08-17 14:23:56.281250
890,2.44,2022-08-17 14:23:56.296875
891,2.98,2022-08-17 14:23:56.312500
892,3.58,2022-08-17 14:23:56.328125
893,4.45,2022-08-17 14:23:56.343750
894,5.67,2022-08-17 14:23:56.359375
895,7.23,2022-08-17 14:23:56.375000
896,8.99,2022-08-17 14:23:56.390625
897,10.66,2022-08-17 14:23:56.406250
898,12.0,2022-08-17 14:23:56.421875
899,12.82,2022-08-17 14:23:56.437500
900,13.01,2022-08-17 14:23:56.453125
901,12.59,2022-08-17 14:23:56.468750
902,11.61,2022-08-17 14:23:56.484375
903,10.15,2022-08-17 14:23:56.500000
904,8.32,2022-08-17 14:23:56.515625
905,6.26,2022-08-17 14:23:56.531250
906,4.04,2022-08-17 14:23:56.546875
907,1.7,2022-08-17 14:23:56.562500
908,-0.75,2022-08-17 14:23:56.578125
909,-3.34,2022-08-17 14:23:56.593750
910,-6.05,2022-08-17 14:23:56.609375
911,-8.82,2022-08-17 14:23:56.625000
912,-11.58,2022-08-17 14:23:56.640625
913,-14.3,2022-08-17 14:23:56.656250
914,-16.94,2022-08-17 14:23:56.671875
915,-19.54,2022-08-17 14:23:56.687500
916,-22.03,2022-08-17 14:23:56.703125
917,-24.27,2022-08-17 14:23:56.718750
918,-26.04,2022-08-17 14:23:56.734375
919,-27.04,2022-08-17 14:23:56.750000
920,-27.02,2022-08-17 14:23:56.765625
921,-25.91,2022-08-17 14:23:56.781250
922,-23.82,2022-08-17 14:23:56.796875
923,-20.96,2022-08-17 14:23:56.812500
924,-17.64,2022-08-17 14:23:56.828125
925,-14.08,2022-08-17 14:23:56.843750
926,-10.48,2022-08-17 14:23:56.859375
927,-6.99,2022-08-17 14:23:56.875000
928,-3.75,2022-08-17 14:23:56.890625
929,-0.88,2022-08-17 14:23:56.906250
930,1.49,2022-08-17 14:23:56.921875
931,3.26,2022-08-17 14:23:56.937500
932,4.38,2022-08-17 14:23:56.953125
933,4.82,2022-08-17 14:23:56.968750
934,4.61,2022-08-17 14:23:56.984375
935,3.82,2022-08-17 14:23:57.000000
936,2.56,2022-08-17 14:23:57.015625
937,1.01,2022-08-17 14:23:57.031250
938,-0.61,2022-08-17 14:23:57.046875
939,-2.06,2022-08-17 14:23:57.062500
940,-3.18,2022-08-17 14:23:57.078125
941,-3.8,2022-08-17 14:23:57.093750
942,-3.92,2022-08-17 14:23:57.109375
943,-3.56,2022-08-17 14:23:57.125000
944,-2.76,2022-08-17 14:23:57.140625
945,-1.6,2022-08-17 14:23:57.156250
946,-0.11,2022-08-17 14:23:57.171875
947,1.63,2022-08-17 14:23:57.187500
948,3.54,2022-08-17 14:23:57.203125
949,5.47,2022-08-17 14:23:57.218750
950,7.27,2022-08-17 14:23:57.234375
951,8.83,2022-08-17 14:23:57.250000
952,10.06,2022-08-17 14:23:57.265625
953,10.95,2022-08-17 14:23:57.281250
954,11.44,2022-08-17 14:23:57.296875
955,11.52,2022-08-17 14:23:57.312500
956,11.09,2022-08-17 14:23:57.328125
957,10.16,2022-08-17 14:23:57.343750
958,8.72,2022-08-17 14:23:57.359375
959,6.79,2022-08-17 14:23:57.375000
960,4.42,2022-08-17 14:23:57.390625
961,1.61,2022-08-17 14:23:57.406250
962,-1.66,2022-08-17 14:23:57.421875
963,-5.42,2022-08-17 14:23:57.437500
964,-9.57,2022-08-17 14:23:57.453125
965,-13.89,2022-08-17 14:23:57.468750
966,-17.89,2022-08-17 14:23:57.484375
967,-21.0,2022-08-17 14:23:57.500000
968,-22.73,2022-08-17 14:23:57.515625
969,-22.79,2022-08-17 14:23:57.531250
970,-21.15,2022-08-17 14:23:57.546875
971,-18.01,2022-08-17 14:23:57.562500
972,-13.74,2022-08-17 14:23:57.578125
973,-8.69,2022-08-17 14:23:57.593750
974,-3.23,2022-08-17 14:23:57.609375
975,2.28,2022-08-17 14:23:57.625000
976,7.53,2022-08-17 14:23:57.640625
977,12.21,2022-08-17 14:23:57.656250
978,16.14,2022-08-17 14:23:57.671875
979,19.31,2022-08-17 14:23:57.687500
980,21.86,2022-08-17 14:23:57.703125
981,24.06,2022-08-17 14:23:57.718750
982,26.1,2022-08-17 14:23:57.734375
983,27.99,2022-08-17 14:23:57.750000
984,29.52,2022-08-17 14:23:57.765625
985,30.31,2022-08-17 14:23:57.781250
986,30.01,2022-08-17 14:23:57.796875
987,28.4,2022-08-17 14:23:57.812500
988,25.44,2022-08-17 14:23:57.828125
989,21.18,2022-08-17 14:23:57.843750
990,15.75,2022-08-17 14:23:57.859375
991,9.46,2022-08-17 14:23:57.875000
992,2.87,2022-08-17 14:23:57.890625
993,-3.24,2022-08-17 14:23:57.906250
994,-7.98,2022-08-17 14:23:57.921875
995,-10.64,2022-08-17 14:23:57.937500
996,-10.98,2022-08-17 14:23:57.953125
997,-9.37,2022-08-17 14:23:57.968750
998,-6.58,2022-08-17 14:23:57.984375
999,-3.42,2022-08-17 14:23:58.000000
1000,-0.42,2022-08-17 14:23:58.015625
1001,2.34,2022-08-17 14:23:58.031250
1002,5.02,2022-08-17 14:23:58.046875
1003,7.8,2022-08-17 14:23:58.062500
1004,10.65,2022-08-17 14:23:58.078125
1005,13.31,2022-08-17 14:23:58.093750
1006,15.5,2022-08-17 14:23:58.109375
1007,17.13,2022-08-17 14:23:58.125000
1008,18.43,2022-08-17 14:23:58.140625
1009,19.68,2022-08-17 14:23:58.156250
1010,21.0,2022-08-17 14:23:58.171875
1011,22.21,2022-08-17 14:23:58.187500
1012,22.85,2022-08-17 14:23:58.203125
1013,22.47,2022-08-17 14:23:58.218750
1014,20.88,2022-08-17 14:23:58.234375
1015,18.38,2022-08-17 14:23:58.250000
1016,15.67,2022-08-17 14:23:58.265625
1017,13.6,2022-08-17 14:23:58.281250
1018,12.66,2022-08-17 14:23:58.296875
1019,12.82,2022-08-17 14:23:58.312500
1020,13.62,2022-08-17 14:23:58.328125
1021,14.38,2022-08-17 14:23:58.343750
1022,14.52,2022-08-17 14:23:58.359375
1023,13.76,2022-08-17 14:23:58.375000
1024,12.19,2022-08-17 14:23:58.390625
1025,10.06,2022-08-17 14:23:58.406250
1026,7.69,2022-08-17 14:23:58.421875
1027,5.36,2022-08-17 14:23:58.437500
1028,3.28,2022-08-17 14:23:58.453125
1029,1.71,2022-08-17 14:23:58.468750
1030,0.87,2022-08-17 14:23:58.484375
1031,0.96,2022-08-17 14:23:58.500000
1032,1.99,2022-08-17 14:23:58.515625
1033,3.78,2022-08-17 14:23:58.531250
1034,5.98,2022-08-17 14:23:58.546875
1035,8.26,2022-08-17 14:23:58.562500
1036,10.37,2022-08-17 14:23:58.578125
1037,12.27,2022-08-17 14:23:58.593750
1038,14.08,2022-08-17 14:23:58.609375
1039,15.9,2022-08-17 14:23:58.625000
1040,17.76,2022-08-17 14:23:58.640625
1041,19.58,2022-08-17 14:23:58.656250
1042,21.15,2022-08-17 14:23:58.671875
1043,22.14,2022-08-17 14:23:58.687500
1044,22.03,2022-08-17 14:23:58.703125
1045,20.3,2022-08-17 14:23:58.718750
1046,16.64,2022-08-17 14:23:58.734375
1047,11.22,2022-08-17 14:23:58.750000
1048,4.62,2022-08-17 14:23:58.765625
1049,-2.13,2022-08-17 14:23:58.781250
1050,-7.98,2022-08-17 14:23:58.796875
1051,-12.23,2022-08-17 14:23:58.812500
1052,-14.6,2022-08-17 14:23:58.828125
1053,-15.49,2022-08-17 14:23:58.843750
1054,-15.59,2022-08-17 14:23:58.859375
1055,-15.66,2022-08-17 14:23:58.875000
1056,-16.24,2022-08-17 14:23:58.890625
1057,-17.66,2022-08-17 14:23:58.906250
1058,-19.97,2022-08-17 14:23:58.921875
1059,-23.02,2022-08-17 14:23:58.937500
1060,-26.56,2022-08-17 14:23:58.953125
1061,-30.14,2022-08-17 14:23:58.968750
1062,-33.22,2022-08-17 14:23:58.984375
1063,-35.34,2022-08-17 14:23:59.000000
1064,-36.12,2022-08-17 14:23:59.015625
1065,-35.45,2022-08-17 14:23:59.031250
1066,-33.45,2022-08-17 14:23:59.046875
1067,-30.36,2022-08-17 14:23:59.062500
1068,-26.53,2022-08-17 14:23:59.078125
1069,-22.4,2022-08-17 14:23:59.093750
1070,-18.32,2022-08-17 14:23:59.109375
1071,-14.62,2022-08-17 14:23:59.125000
1072,-11.41,2022-08-17 14:23:59.140625
1073,-8.66,2022-08-17 14:23:59.156250
1074,-6.26,2022-08-17 14:23:59.171875
1075,-4.09,2022-08-17 14:23:59.187500
1076,-2.1,2022-08-17 14:23:59.203125
1077,-0.34,2022-08-17 14:23:59.218750
1078,1.11,2022-08-17 14:23:59.234375
1079,2.27,2022-08-17 14:23:59.250000
1080,3.27,2022-08-17 14:23:59.265625
1081,4.32,2022-08-17 14:23:59.281250
1082,5.59,2022-08-17 14:23:59.296875
1083,6.96,2022-08-17 14:23:59.312500
1084,8.31,2022-08-17 14:23:59.328125
1085,9.44,2022-08-17 14:23:59.343750
1086,10.31,2022-08-17 14:23:59.359375
1087,11.09,2022-08-17 14:23:59.375000
1088,12.01,2022-08-17 14:23:59.390625
1089,13.23,2022-08-17 14:23:59.406250
1090,14.75,2022-08-17 14:23:59.421875
1091,16.38,2022-08-17 14:23:59.437500
1092,17.73,2022-08-17 14:23:59.453125
1093,18.48,2022-08-17 14:23:59.468750
1094,18.32,2022-08-17 14:23:59.484375
1095,17.15,2022-08-17 14:23:59.500000
1096,15.04,2022-08-17 14:23:59.515625
1097,12.28,2022-08-17 14:23:59.531250
1098,9.21,2022-08-17 14:23:59.546875
1099,6.1,2022-08-17 14:23:59.562500
1100,3.1,2022-08-17 14:23:59.578125
1101,0.03,2022-08-17 14:23:59.593750
1102,-3.3,2022-08-17 14:23:59.609375
1103,-7.16,2022-08-17 14:23:59.625000
1104,-11.56,2022-08-17 14:23:59.640625
1105,-16.25,2022-08-17 14:23:59.656250
1106,-20.78,2022-08-17 14:23:59.671875
1107,-24.6,2022-08-17 14:23:59.687500
1108,-27.35,2022-08-17 14:23:59.703125
1109,-28.81,2022-08-17 14:23:59.718750
1110,-29.05,2022-08-17 14:23:59.734375
1111,-28.14,2022-08-17 14:23:59.750000
1112,-26.27,2022-08-17 14:23:59.765625
1113,-23.68,2022-08-17 14:23:59.781250
1114,-20.61,2022-08-17 14:23:59.796875
1115,-17.38,2022-08-17 14:23:59.812500
1116,-14.26,2022-08-17 14:23:59.828125
1117,-11.44,2022-08-17 14:23:59.843750
1118,-8.99,2022-08-17 14:23:59.859375
1119,-6.84,2022-08-17 14:23:59.875000
1120,-4.84,2022-08-17 14:23:59.890625
1121,-2.87,2022-08-17 14:23:59.906250
1122,-0.96,2022-08-17 14:23:59.921875
1123,0.89,2022-08-17 14:23:59.937500
1124,2.55,2022-08-17 14:23:59.953125
1125,3.97,2022-08-17 14:23:59.968750
1126,5.16,2022-08-17 14:23:59.984375
1127,6.2,2022-08-17 14:24:00.000000
1128,7.25,2022-08-17 14:24:00.015625
1129,8.41,2022-08-17 14:24:00.031250
1130,9.79,2022-08-17 14:24:00.046875
1131,11.29,2022-08-17 14:24:00.062500
1132,12.79,2022-08-17 14:24:00.078125
1133,14.07,2022-08-17 14:24:00.093750
1134,14.96,2022-08-17 14:24:00.109375
1135,15.44,2022-08-17 14:24:00.125000
1136,15.55,2022-08-17 14:24:00.140625
1137,15.42,2022-08-17 14:24:00.156250
1138,15.06,2022-08-17 14:24:00.171875
1139,14.42,2022-08-17 14:24:00.187500
1140,13.3,2022-08-17 14:24:00.203125
1141,11.6,2022-08-17 14:24:00.218750
1142,9.28,2022-08-17 14:24:00.234375
1143,6.5,2022-08-17 14:24:00.250000
1144,3.56,2022-08-17 14:24:00.265625
1145,0.74,2022-08-17 14:24:00.281250
1146,-1.78,2022-08-17 14:24:00.296875
1147,-4.0,2022-08-17 14:24:00.312500
1148,-6.03,2022-08-17 14:24:00.328125
1149,-8.02,2022-08-17 14:24:00.343750
1150,-10.01,2022-08-17 14:24:00.359375
1151,-12.02,2022-08-17 14:24:00.375000
1152,-14.04,2022-08-17 14:24:00.390625
1153,-15.98,2022-08-17 14:24:00.406250
1154,-17.82,2022-08-17 14:24:00.421875
1155,-19.5,2022-08-17 14:24:00.437500
1156,-20.87,2022-08-17 14:24:00.453125
1157,-21.63,2022-08-17 14:24:00.468750
1158,-21.44,2022-08-17 14:24:00.484375
1159,-19.98,2022-08-17 14:24:00.500000
1160,-17.09,2022-08-17 14:24:00.515625
1161,-12.93,2022-08-17 14:24:00.531250
1162,-7.91,2022-08-17 14:24:00.546875
1163,-2.67,2022-08-17 14:24:00.562500
1164,2.21,2022-08-17 14:24:00.578125
1165,6.24,2022-08-17 14:24:00.593750
1166,9.26,2022-08-17 14:24:00.609375
1167,11.33,2022-08-17 14:24:00.625000
1168,12.69,2022-08-17 14:24:00.640625
1169,13.59,2022-08-17 14:24:00.656250
1170,14.21,2022-08-17 14:24:00.671875
1171,14.64,2022-08-17 14:24:00.687500
1172,14.85,2022-08-17 14:24:00.703125
1173,14.81,2022-08-17 14:24:00.718750
1174,14.44,2022-08-17 14:24:00.734375
1175,13.76,2022-08-17 14:24:00.750000
1176,12.83,2022-08-17 14:24:00.765625
1177,11.76,2022-08-17 14:24:00.781250
1178,10.69,2022-08-17 14:24:00.796875
1179,9.75,2022-08-17 14:24:00.812500
1180,9.07,2022-08-17 14:24:00.828125
1181,8.63,2022-08-17 14:24:00.843750
1182,8.43,2022-08-17 14:24:00.859375
1183,8.35,2022-08-17 14:24:00.875000
1184,8.29,2022-08-17 14:24:00.890625
1185,8.17,2022-08-17 14:24:00.906250
1186,7.95,2022-08-17 14:24:00.921875
1187,7.53,2022-08-17 14:24:00.937500
1188,6.82,2022-08-17 14:24:00.953125
1189,5.79,2022-08-17 14:24:00.968750
1190,4.4,2022-08-17 14:24:00.984375
1191,2.73,2022-08-17 14:24:01.000000
1192,0.87,2022-08-17 14:24:01.015625
1193,-1.05,2022-08-17 14:24:01.031250
1194,-2.91,2022-08-17 14:24:01.046875
1195,-4.65,2022-08-17 14:24:01.062500
1196,-6.25,2022-08-17 14:24:01.078125
1197,-7.75,2022-08-17 14:24:01.093750
1198,-9.21,2022-08-17 14:24:01.109375
1199,-10.74,2022-08-17 14:24:01.125000
1200,-12.44,2022-08-17 14:24:01.140625
1201,-14.43,2022-08-17 14:24:01.156250
1202,-16.76,2022-08-17 14:24:01.171875
1203,-19.34,2022-08-17 14:24:01.187500
1204,-21.88,2022-08-17 14:24:01.203125
1205,-23.95,2022-08-17 14:24:01.218750
1206,-25.08,2022-08-17 14:24:01.234375
1207,-24.83,2022-08-17 14:24:01.250000
1208,-23.0,2022-08-17 14:24:01.265625
1209,-19.57,2022-08-17 14:24:01.281250
1210,-14.79,2022-08-17 14:24:01.296875
1211,-9.12,2022-08-17 14:24:01.312500
1212,-3.11,2022-08-17 14:24:01.328125
1213,2.73,2022-08-17 14:24:01.343750
1214,8.03,2022-08-17 14:24:01.359375
1215,12.53,2022-08-17 14:24:01.375000
1216,16.12,2022-08-17 14:24:01.390625
1217,18.69,2022-08-17 14:24:01.406250
1218,20.21,2022-08-17 14:24:01.421875
1219,20.64,2022-08-17 14:24:01.437500
1220,20.0,2022-08-17 14:24:01.453125
1221,18.53,2022-08-17 14:24:01.468750
1222,16.55,2022-08-17 14:24:01.484375
1223,14.53,2022-08-17 14:24:01.500000
1224,12.85,2022-08-17 14:24:01.515625
1225,11.69,2022-08-17 14:24:01.531250
1226,11.06,2022-08-17 14:24:01.546875
1227,10.72,2022-08-17 14:24:01.562500
1228,10.41,2022-08-17 14:24:01.578125
1229,9.88,2022-08-17 14:24:01.593750
1230,9.05,2022-08-17 14:24:01.609375
1231,7.97,2022-08-17 14:24:01.625000
1232,6.73,2022-08-17 14:24:01.640625
1233,5.44,2022-08-17 14:24:01.656250
1234,4.13,2022-08-17 14:24:01.671875
1235,2.81,2022-08-17 14:24:01.687500
1236,1.42,2022-08-17 14:24:01.703125
1237,-0.09,2022-08-17 14:24:01.718750
1238,-1.71,2022-08-17 14:24:01.734375
1239,-3.42,2022-08-17 14:24:01.750000
1240,-5.12,2022-08-17 14:24:01.765625
1241,-6.73,2022-08-17 14:24:01.781250
1242,-8.22,2022-08-17 14:24:01.796875
1243,-9.6,2022-08-17 14:24:01.812500
1244,-10.94,2022-08-17 14:24:01.828125
1245,-12.28,2022-08-17 14:24:01.843750
1246,-13.66,2022-08-17 14:24:01.859375
1247,-15.05,2022-08-17 14:24:01.875000
1248,-16.43,2022-08-17 14:24:01.890625
1249,-17.75,2022-08-17 14:24:01.906250
1250,-18.96,2022-08-17 14:24:01.921875
1251,-19.94,2022-08-17 14:24:01.937500
1252,-20.52,2022-08-17 14:24:01.953125
1253,-20.51,2022-08-17 14:24:01.968750
1254,-19.72,2022-08-17 14:24:01.984375
1255,-18.05,2022-08-17 14:24:02.000000
1256,-15.5,2022-08-17 14:24:02.015625
1257,-12.28,2022-08-17 14:24:02.031250
1258,-8.6,2022-08-17 14:24:02.046875
1259,-4.78,2022-08-17 14:24:02.062500
1260,-1.01,2022-08-17 14:24:02.078125
1261,2.6,2022-08-17 14:24:02.093750
1262,6.01,2022-08-17 14:24:02.109375
1263,9.12,2022-08-17 14:24:02.125000
1264,11.74,2022-08-17 14:24:02.140625
1265,13.67,2022-08-17 14:24:02.156250
1266,14.69,2022-08-17 14:24:02.171875
1267,14.83,2022-08-17 14:24:02.187500
1268,14.33,2022-08-17 14:24:02.203125
1269,13.6,2022-08-17 14:24:02.218750
1270,13.05,2022-08-17 14:24:02.234375
1271,12.94,2022-08-17 14:24:02.250000
1272,13.2,2022-08-17 14:24:02.265625
1273,13.61,2022-08-17 14:24:02.281250
1274,13.89,2022-08-17 14:24:02.296875
1275,13.79,2022-08-17 14:24:02.312500
1276,13.29,2022-08-17 14:24:02.328125
1277,12.49,2022-08-17 14:24:02.343750
1278,11.52,2022-08-17 14:24:02.359375
1279,10.47,2022-08-17 14:24:02.375000
1280,9.45,2022-08-17 14:24:02.390625
1281,8.47,2022-08-17 14:24:02.406250
1282,7.6,2022-08-17 14:24:02.421875
1283,6.85,2022-08-17 14:24:02.437500
1284,6.18,2022-08-17 14:24:02.453125
1285,5.56,2022-08-17 14:24:02.468750
1286,4.97,2022-08-17 14:24:02.484375
1287,4.41,2022-08-17 14:24:02.500000
1288,3.84,2022-08-17 14:24:02.515625
1289,3.23,2022-08-17 14:24:02.531250
1290,2.46,2022-08-17 14:24:02.546875
1291,1.35,2022-08-17 14:24:02.562500
1292,-0.26,2022-08-17 14:24:02.578125
1293,-2.38,2022-08-17 14:24:02.593750
1294,-4.88,2022-08-17 14:24:02.609375
1295,-7.5,2022-08-17 14:24:02.625000
1296,-10.09,2022-08-17 14:24:02.640625
1297,-12.52,2022-08-17 14:24:02.656250
1298,-14.85,2022-08-17 14:24:02.671875
1299,-17.06,2022-08-17 14:24:02.687500
1300,-19.0,2022-08-17 14:24:02.703125
1301,-20.35,2022-08-17 14:24:02.718750
1302,-20.7,2022-08-17 14:24:02.734375
1303,-19.75,2022-08-17 14:24:02.750000
1304,-17.42,2022-08-17 14:24:02.765625
1305,-13.96,2022-08-17 14:24:02.781250
1306,-9.71,2022-08-17 14:24:02.796875
1307,-5.09,2022-08-17 14:24:02.812500
1308,-0.45,2022-08-17 14:24:02.828125
1309,3.93,2022-08-17 14:24:02.843750
1310,7.88,2022-08-17 14:24:02.859375
1311,11.16,2022-08-17 14:24:02.875000
1312,13.69,2022-08-17 14:24:02.890625
1313,15.46,2022-08-17 14:24:02.906250
1314,16.54,2022-08-17 14:24:02.921875
1315,17.11,2022-08-17 14:24:02.937500
1316,17.38,2022-08-17 14:24:02.953125
1317,17.45,2022-08-17 14:24:02.968750
1318,17.41,2022-08-17 14:24:02.984375
1319,17.4,2022-08-17 14:24:03.000000
1320,17.56,2022-08-17 14:24:03.015625
1321,18.07,2022-08-17 14:24:03.031250
1322,19.02,2022-08-17 14:24:03.046875
1323,20.42,2022-08-17 14:24:03.062500
1324,22.05,2022-08-17 14:24:03.078125
1325,23.6,2022-08-17 14:24:03.093750
1326,24.68,2022-08-17 14:24:03.109375
1327,25.04,2022-08-17 14:24:03.125000
1328,24.6,2022-08-17 14:24:03.140625
1329,23.46,2022-08-17 14:24:03.156250
1330,21.82,2022-08-17 14:24:03.171875
1331,19.94,2022-08-17 14:24:03.187500
1332,18.02,2022-08-17 14:24:03.203125
1333,16.16,2022-08-17 14:24:03.218750
1334,14.34,2022-08-17 14:24:03.234375
1335,12.38,2022-08-17 14:24:03.250000
1336,10.14,2022-08-17 14:24:03.265625
1337,7.51,2022-08-17 14:24:03.281250
1338,4.49,2022-08-17 14:24:03.296875
1339,1.14,2022-08-17 14:24:03.312500
1340,-2.39,2022-08-17 14:24:03.328125
1341,-5.99,2022-08-17 14:24:03.343750
1342,-9.51,2022-08-17 14:24:03.359375
1343,-12.86,2022-08-17 14:24:03.375000
1344,-15.96,2022-08-17 14:24:03.390625
1345,-18.73,2022-08-17 14:24:03.406250
1346,-21.13,2022-08-17 14:24:03.421875
1347,-23.18,2022-08-17 14:24:03.437500
1348,-24.97,2022-08-17 14:24:03.453125
1349,-26.61,2022-08-17 14:24:03.468750
1350,-28.18,2022-08-17 14:24:03.484375
1351,-29.67,2022-08-17 14:24:03.500000
1352,-30.85,2022-08-17 14:24:03.515625
1353,-31.4,2022-08-17 14:24:03.531250
1354,-30.99,2022-08-17 14:24:03.546875
1355,-29.35,2022-08-17 14:24:03.562500
1356,-26.43,2022-08-17 14:24:03.578125
1357,-22.4,2022-08-17 14:24:03.593750
1358,-17.64,2022-08-17 14:24:03.609375
1359,-12.64,2022-08-17 14:24:03.625000
1360,-7.89,2022-08-17 14:24:03.640625
1361,-3.72,2022-08-17 14:24:03.656250
1362,-0.27,2022-08-17 14:24:03.671875
1363,2.41,2022-08-17 14:24:03.687500
1364,4.39,2022-08-17 14:24:03.703125
1365,5.76,2022-08-17 14:24:03.718750
1366,6.65,2022-08-17 14:24:03.734375
1367,7.1,2022-08-17 14:24:03.750000
1368,7.25,2022-08-17 14:24:03.765625
1369,7.2,2022-08-17 14:24:03.781250
1370,7.05,2022-08-17 14:24:03.796875
1371,6.91,2022-08-17 14:24:03.812500
1372,6.76,2022-08-17 14:24:03.828125
1373,6.59,2022-08-17 14:24:03.843750
1374,6.35,2022-08-17 14:24:03.859375
1375,6.06,2022-08-17 14:24:03.875000
1376,5.82,2022-08-17 14:24:03.890625
1377,5.78,2022-08-17 14:24:03.906250
1378,6.0,2022-08-17 14:24:03.921875
1379,6.47,2022-08-17 14:24:03.937500
1380,7.03,2022-08-17 14:24:03.953125
1381,7.47,2022-08-17 14:24:03.968750
1382,7.62,2022-08-17 14:24:03.984375
1383,7.42,2022-08-17 14:24:04.000000
1384,6.93,2022-08-17 14:24:04.015625
1385,6.25,2022-08-17 14:24:04.031250
1386,5.5,2022-08-17 14:24:04.046875
1387,4.65,2022-08-17 14:24:04.062500
1388,3.59,2022-08-17 14:24:04.078125
1389,2.26,2022-08-17 14:24:04.093750
1390,0.63,2022-08-17 14:24:04.109375
1391,-1.22,2022-08-17 14:24:04.125000
1392,-3.15,2022-08-17 14:24:04.140625
1393,-5.1,2022-08-17 14:24:04.156250
1394,-7.05,2022-08-17 14:24:04.171875
1395,-9.0,2022-08-17 14:24:04.187500
1396,-10.98,2022-08-17 14:24:04.203125
1397,-12.92,2022-08-17 14:24:04.218750
1398,-14.73,2022-08-17 14:24:04.234375
1399,-16.36,2022-08-17 14:24:04.250000
1400,-17.83,2022-08-17 14:24:04.265625
1401,-19.21,2022-08-17 14:24:04.281250
1402,-20.57,2022-08-17 14:24:04.296875
1403,-21.87,2022-08-17 14:24:04.312500
1404,-22.95,2022-08-17 14:24:04.328125
1405,-23.66,2022-08-17 14:24:04.343750
1406,-23.82,2022-08-17 14:24:04.359375
1407,-23.3,2022-08-17 14:24:04.375000
1408,-22.06,2022-08-17 14:24:04.390625
1409,-20.09,2022-08-17 14:24:04.406250
1410,-17.43,2022-08-17 14:24:04.421875
1411,-14.18,2022-08-17 14:24:04.437500
1412,-10.48,2022-08-17 14:24:04.453125
1413,-6.56,2022-08-17 14:24:04.468750
1414,-2.69,2022-08-17 14:24:04.484375
1415,0.88,2022-08-17 14:24:04.500000
1416,4.02,2022-08-17 14:24:04.515625
1417,6.63,2022-08-17 14:24:04.531250
1418,8.69,2022-08-17 14:24:04.546875
1419,10.15,2022-08-17 14:24:04.562500
1420,10.95,2022-08-17 14:24:04.578125
1421,11.06,2022-08-17 14:24:04.593750
1422,10.56,2022-08-17 14:24:04.609375
1423,9.68,2022-08-17 14:24:04.625000
1424,8.79,2022-08-17 14:24:04.640625
1425,8.33,2022-08-17 14:24:04.656250
1426,8.59,2022-08-17 14:24:04.671875
1427,9.64,2022-08-17 14:24:04.687500
1428,11.18,2022-08-17 14:24:04.703125
1429,12.76,2022-08-17 14:24:04.718750
1430,13.91,2022-08-17 14:24:04.734375
1431,14.37,2022-08-17 14:24:04.750000
1432,14.13,2022-08-17 14:24:04.765625
1433,13.39,2022-08-17 14:24:04.781250
1434,12.42,2022-08-17 14:24:04.796875
1435,11.46,2022-08-17 14:24:04.812500
1436,10.66,2022-08-17 14:24:04.828125
1437,10.12,2022-08-17 14:24:04.843750
1438,9.9,2022-08-17 14:24:04.859375
1439,10.0,2022-08-17 14:24:04.875000
1440,10.4,2022-08-17 14:24:04.890625
1441,10.96,2022-08-17 14:24:04.906250
1442,11.48,2022-08-17 14:24:04.921875
1443,11.71,2022-08-17 14:24:04.937500
1444,11.49,2022-08-17 14:24:04.953125
1445,10.79,2022-08-17 14:24:04.968750
1446,9.69,2022-08-17 14:24:04.984375
1447,8.32,2022-08-17 14:24:05.000000
1448,6.79,2022-08-17 14:24:05.015625
1449,5.11,2022-08-17 14:24:05.031250
1450,3.27,2022-08-17 14:24:05.046875
1451,1.17,2022-08-17 14:24:05.062500
1452,-1.19,2022-08-17 14:24:05.078125
1453,-3.81,2022-08-17 14:24:05.093750
1454,-6.58,2022-08-17 14:24:05.109375
1455,-9.4,2022-08-17 14:24:05.125000
1456,-12.14,2022-08-17 14:24:05.140625
1457,-14.77,2022-08-17 14:24:05.156250
1458,-17.22,2022-08-17 14:24:05.171875
1459,-19.31,2022-08-17 14:24:05.187500
1460,-20.83,2022-08-17 14:24:05.203125
1461,-21.47,2022-08-17 14:24:05.218750
1462,-20.95,2022-08-17 14:24:05.234375
1463,-19.19,2022-08-17 14:24:05.250000
1464,-16.27,2022-08-17 14:24:05.265625
1465,-12.59,2022-08-17 14:24:05.281250
1466,-8.68,2022-08-17 14:24:05.296875
1467,-5.08,2022-08-17 14:24:05.312500
1468,-2.2,2022-08-17 14:24:05.328125
1469,-0.26,2022-08-17 14:24:05.343750
1470,0.77,2022-08-17 14:24:05.359375
1471,1.05,2022-08-17 14:24:05.375000
1472,0.88,2022-08-17 14:24:05.390625
1473,0.57,2022-08-17 14:24:05.406250
1474,0.29,2022-08-17 14:24:05.421875
1475,0.11,2022-08-17 14:24:05.437500
1476,-0.0,2022-08-17 14:24:05.453125
1477,-0.13,2022-08-17 14:24:05.468750
1478,-0.33,2022-08-17 14:24:05.484375
1479,-0.56,2022-08-17 14:24:05.500000
1480,-0.75,2022-08-17 14:24:05.515625
1481,-0.84,2022-08-17 14:24:05.531250
1482,-0.76,2022-08-17 14:24:05.546875
1483,-0.53,2022-08-17 14:24:05.562500
1484,-0.07,2022-08-17 14:24:05.578125
1485,0.72,2022-08-17 14:24:05.593750
1486,1.9,2022-08-17 14:24:05.609375
1487,3.45,2022-08-17 14:24:05.625000
1488,5.22,2022-08-17 14:24:05.640625
1489,6.96,2022-08-17 14:24:05.656250
1490,8.41,2022-08-17 14:24:05.671875
1491,9.47,2022-08-17 14:24:05.687500
1492,10.16,2022-08-17 14:24:05.703125
1493,10.57,2022-08-17 14:24:05.718750
1494,10.8,2022-08-17 14:24:05.734375
1495,10.81,2022-08-17 14:24:05.750000
1496,10.55,2022-08-17 14:24:05.765625
1497,9.98,2022-08-17 14:24:05.781250
1498,9.11,2022-08-17 14:24:05.796875
1499,7.99,2022-08-17 14:24:05.812500
1500,6.71,2022-08-17 14:24:05.828125
1501,5.2,2022-08-17 14:24:05.843750
1502,3.33,2022-08-17 14:24:05.859375
1503,0.89,2022-08-17 14:24:05.875000
1504,-2.31,2022-08-17 14:24:05.890625
1505,-6.28,2022-08-17 14:24:05.906250
1506,-10.83,2022-08-17 14:24:05.921875
1507,-15.6,2022-08-17 14:24:05.937500
1508,-20.19,2022-08-17 14:24:05.953125
1509,-24.13,2022-08-17 14:24:05.968750
1510,-27.18,2022-08-17 14:24:05.984375
1511,-29.16,2022-08-17 14:24:06.000000
1512,-30.05,2022-08-17 14:24:06.015625
1513,-29.96,2022-08-17 14:24:06.031250
1514,-29.05,2022-08-17 14:24:06.046875
1515,-27.52,2022-08-17 14:24:06.062500
1516,-25.48,2022-08-17 14:24:06.078125
1517,-22.9,2022-08-17 14:24:06.093750
1518,-19.62,2022-08-17 14:24:06.109375
1519,-15.49,2022-08-17 14:24:06.125000
1520,-10.55,2022-08-17 14:24:06.140625
1521,-5.11,2022-08-17 14:24:06.156250
1522,0.16,2022-08-17 14:24:06.171875
1523,4.54,2022-08-17 14:24:06.187500
1524,7.5,2022-08-17 14:24:06.203125
1525,8.91,2022-08-17 14:24:06.218750
1526,9.11,2022-08-17 14:24:06.234375
1527,8.69,2022-08-17 14:24:06.250000
1528,8.24,2022-08-17 14:24:06.265625
1529,8.07,2022-08-17 14:24:06.281250
1530,8.26,2022-08-17 14:24:06.296875
1531,8.57,2022-08-17 14:24:06.312500
1532,8.83,2022-08-17 14:24:06.328125
1533,8.96,2022-08-17 14:24:06.343750
1534,9.04,2022-08-17 14:24:06.359375
1535,9.22,2022-08-17 14:24:06.375000
1536,9.71,2022-08-17 14:24:06.390625
1537,10.53,2022-08-17 14:24:06.406250
1538,11.61,2022-08-17 14:24:06.421875
1539,12.83,2022-08-17 14:24:06.437500
1540,13.97,2022-08-17 14:24:06.453125
1541,14.92,2022-08-17 14:24:06.468750
1542,15.6,2022-08-17 14:24:06.484375
1543,16.01,2022-08-17 14:24:06.500000
1544,16.18,2022-08-17 14:24:06.515625
1545,16.19,2022-08-17 14:24:06.531250
1546,16.0,2022-08-17 14:24:06.546875
1547,15.52,2022-08-17 14:24:06.562500
1548,14.64,2022-08-17 14:24:06.578125
1549,13.29,2022-08-17 14:24:06.593750
1550,11.52,2022-08-17 14:24:06.609375
1551,9.53,2022-08-17 14:24:06.625000
1552,7.63,2022-08-17 14:24:06.640625
1553,6.11,2022-08-17 14:24:06.656250
1554,5.07,2022-08-17 14:24:06.671875
1555,4.33,2022-08-17 14:24:06.687500
1556,3.51,2022-08-17 14:24:06.703125
1557,2.19,2022-08-17 14:24:06.718750
1558,0.02,2022-08-17 14:24:06.734375
1559,-3.18,2022-08-17 14:24:06.750000
1560,-7.33,2022-08-17 14:24:06.765625
1561,-12.18,2022-08-17 14:24:06.781250
1562,-17.25,2022-08-17 14:24:06.796875
1563,-21.88,2022-08-17 14:24:06.812500
1564,-25.42,2022-08-17 14:24:06.828125
1565,-27.32,2022-08-17 14:24:06.843750
1566,-27.34,2022-08-17 14:24:06.859375
1567,-25.7,2022-08-17 14:24:06.875000
1568,-22.99,2022-08-17 14:24:06.890625
1569,-19.94,2022-08-17 14:24:06.906250
1570,-17.26,2022-08-17 14:24:06.921875
1571,-15.22,2022-08-17 14:24:06.937500
1572,-13.75,2022-08-17 14:24:06.953125
1573,-12.51,2022-08-17 14:24:06.968750
1574,-11.23,2022-08-17 14:24:06.984375
1575,-9.75,2022-08-17 14:24:07.000000
1576,-8.15,2022-08-17 14:24:07.015625
1577,-6.56,2022-08-17 14:24:07.031250
1578,-4.98,2022-08-17 14:24:07.046875
1579,-3.31,2022-08-17 14:24:07.062500
1580,-1.38,2022-08-17 14:24:07.078125
1581,0.98,2022-08-17 14:24:07.093750
1582,3.79,2022-08-17 14:24:07.109375
1583,6.95,2022-08-17 14:24:07.125000
1584,10.17,2022-08-17 14:24:07.140625
1585,13.19,2022-08-17 14:24:07.156250
1586,15.73,2022-08-17 14:24:07.171875
1587,17.67,2022-08-17 14:24:07.187500
1588,18.91,2022-08-17 14:24:07.203125
1589,19.42,2022-08-17 14:24:07.218750
1590,19.18,2022-08-17 14:24:07.234375
1591,18.2,2022-08-17 14:24:07.250000
1592,16.6,2022-08-17 14:24:07.265625
1593,14.59,2022-08-17 14:24:07.281250
1594,12.54,2022-08-17 14:24:07.296875
1595,11.01,2022-08-17 14:24:07.312500
1596,10.54,2022-08-17 14:24:07.328125
1597,11.59,2022-08-17 14:24:07.343750
1598,14.29,2022-08-17 14:24:07.359375
1599,18.57,2022-08-17 14:24:07.375000
1600,24.0,2022-08-17 14:24:07.390625
1601,29.96,2022-08-17 14:24:07.406250
1602,35.83,2022-08-17 14:24:07.421875
1603,40.87,2022-08-17 14:24:07.437500
1604,44.47,2022-08-17 14:24:07.453125
1605,46.11,2022-08-17 14:24:07.468750
1606,45.38,2022-08-17 14:24:07.484375
1607,42.08,2022-08-17 14:24:07.500000
1608,36.31,2022-08-17 14:24:07.515625
1609,28.36,2022-08-17 14:24:07.531250
1610,18.74,2022-08-17 14:24:07.546875
1611,8.08,2022-08-17 14:24:07.562500
1612,-2.98,2022-08-17 14:24:07.578125
1613,-13.85,2022-08-17 14:24:07.593750
1614,-23.94,2022-08-17 14:24:07.609375
1615,-32.65,2022-08-17 14:24:07.625000
1616,-39.43,2022-08-17 14:24:07.640625
1617,-43.82,2022-08-17 14:24:07.656250
1618,-45.56,2022-08-17 14:24:07.671875
1619,-44.67,2022-08-17 14:24:07.687500
1620,-41.45,2022-08-17 14:24:07.703125
1621,-36.52,2022-08-17 14:24:07.718750
1622,-30.57,2022-08-17 14:24:07.734375
1623,-24.29,2022-08-17 14:24:07.750000
1624,-18.2,2022-08-17 14:24:07.765625
1625,-12.61,2022-08-17 14:24:07.781250
1626,-7.65,2022-08-17 14:24:07.796875
1627,-3.35,2022-08-17 14:24:07.812500
1628,0.22,2022-08-17 14:24:07.828125
1629,3.03,2022-08-17 14:24:07.843750
1630,4.94,2022-08-17 14:24:07.859375
1631,5.92,2022-08-17 14:24:07.875000
1632,6.07,2022-08-17 14:24:07.890625
1633,5.6,2022-08-17 14:24:07.906250
1634,4.8,2022-08-17 14:24:07.921875
1635,3.9,2022-08-17 14:24:07.937500
1636,2.9,2022-08-17 14:24:07.953125
1637,1.73,2022-08-17 14:24:07.968750
1638,0.3,2022-08-17 14:24:07.984375
1639,-1.49,2022-08-17 14:24:08.000000
1640,-3.62,2022-08-17 14:24:08.015625
1641,-5.98,2022-08-17 14:24:08.031250
1642,-8.52,2022-08-17 14:24:08.046875
1643,-11.11,2022-08-17 14:24:08.062500
1644,-13.55,2022-08-17 14:24:08.078125
1645,-15.64,2022-08-17 14:24:08.093750
1646,-17.16,2022-08-17 14:24:08.109375
1647,-17.96,2022-08-17 14:24:08.125000
1648,-18.13,2022-08-17 14:24:08.140625
1649,-17.85,2022-08-17 14:24:08.156250
1650,-17.39,2022-08-17 14:24:08.171875
1651,-16.97,2022-08-17 14:24:08.187500
1652,-16.61,2022-08-17 14:24:08.203125
1653,-16.22,2022-08-17 14:24:08.218750
1654,-15.71,2022-08-17 14:24:08.234375
1655,-15.06,2022-08-17 14:24:08.250000
1656,-14.33,2022-08-17 14:24:08.265625
1657,-13.71,2022-08-17 14:24:08.281250
1658,-13.37,2022-08-17 14:24:08.296875
1659,-13.33,2022-08-17 14:24:08.312500
1660,-13.52,2022-08-17 14:24:08.328125
1661,-13.83,2022-08-17 14:24:08.343750
1662,-14.21,2022-08-17 14:24:08.359375
1663,-14.64,2022-08-17 14:24:08.375000
1664,-15.08,2022-08-17 14:24:08.390625
1665,-15.48,2022-08-17 14:24:08.406250
1666,-15.68,2022-08-17 14:24:08.421875
1667,-15.44,2022-08-17 14:24:08.437500
1668,-14.55,2022-08-17 14:24:08.453125
1669,-12.89,2022-08-17 14:24:08.468750
1670,-10.42,2022-08-17 14:24:08.484375
1671,-7.25,2022-08-17 14:24:08.500000
1672,-3.55,2022-08-17 14:24:08.515625
1673,0.5,2022-08-17 14:24:08.531250
1674,4.6,2022-08-17 14:24:08.546875
1675,8.49,2022-08-17 14:24:08.562500
1676,11.92,2022-08-17 14:24:08.578125
1677,14.72,2022-08-17 14:24:08.593750
1678,16.8,2022-08-17 14:24:08.609375
1679,18.2,2022-08-17 14:24:08.625000
1680,18.95,2022-08-17 14:24:08.640625
1681,19.11,2022-08-17 14:24:08.656250
1682,18.72,2022-08-17 14:24:08.671875
1683,17.83,2022-08-17 14:24:08.687500
1684,16.61,2022-08-17 14:24:08.703125
1685,15.25,2022-08-17 14:24:08.718750
1686,14.06,2022-08-17 14:24:08.734375
1687,13.29,2022-08-17 14:24:08.750000
1688,13.17,2022-08-17 14:24:08.765625
1689,13.69,2022-08-17 14:24:08.781250
1690,14.69,2022-08-17 14:24:08.796875
1691,15.84,2022-08-17 14:24:08.812500
1692,16.7,2022-08-17 14:24:08.828125
1693,16.97,2022-08-17 14:24:08.843750
1694,16.41,2022-08-17 14:24:08.859375
1695,15.0,2022-08-17 14:24:08.875000
1696,12.92,2022-08-17 14:24:08.890625
1697,10.4,2022-08-17 14:24:08.906250
1698,7.64,2022-08-17 14:24:08.921875
1699,4.78,2022-08-17 14:24:08.937500
1700,1.88,2022-08-17 14:24:08.953125
1701,-1.01,2022-08-17 14:24:08.968750
1702,-3.79,2022-08-17 14:24:08.984375
1703,-6.29,2022-08-17 14:24:09.000000
1704,-8.43,2022-08-17 14:24:09.015625
1705,-10.15,2022-08-17 14:24:09.031250
1706,-11.57,2022-08-17 14:24:09.046875
1707,-12.98,2022-08-17 14:24:09.062500
1708,-14.66,2022-08-17 14:24:09.078125
1709,-16.78,2022-08-17 14:24:09.093750
1710,-19.36,2022-08-17 14:24:09.109375
1711,-22.13,2022-08-17 14:24:09.125000
1712,-24.72,2022-08-17 14:24:09.140625
1713,-26.59,2022-08-17 14:24:09.156250
1714,-27.3,2022-08-17 14:24:09.171875
1715,-26.52,2022-08-17 14:24:09.187500
1716,-24.1,2022-08-17 14:24:09.203125
1717,-20.16,2022-08-17 14:24:09.218750
1718,-15.05,2022-08-17 14:24:09.234375
1719,-9.31,2022-08-17 14:24:09.250000
1720,-3.47,2022-08-17 14:24:09.265625
1721,2.0,2022-08-17 14:24:09.281250
1722,6.85,2022-08-17 14:24:09.296875
1723,10.95,2022-08-17 14:24:09.312500
1724,14.32,2022-08-17 14:24:09.328125
1725,17.04,2022-08-17 14:24:09.343750
1726,19.17,2022-08-17 14:24:09.359375
1727,20.65,2022-08-17 14:24:09.375000
1728,21.43,2022-08-17 14:24:09.390625
1729,21.48,2022-08-17 14:24:09.406250
1730,20.83,2022-08-17 14:24:09.421875
1731,19.66,2022-08-17 14:24:09.437500
1732,18.18,2022-08-17 14:24:09.453125
1733,16.67,2022-08-17 14:24:09.468750
1734,15.25,2022-08-17 14:24:09.484375
1735,14.04,2022-08-17 14:24:09.500000
1736,13.01,2022-08-17 14:24:09.515625
1737,12.08,2022-08-17 14:24:09.531250
1738,11.3,2022-08-17 14:24:09.546875
1739,10.68,2022-08-17 14:24:09.562500
1740,10.31,2022-08-17 14:24:09.578125
1741,10.13,2022-08-17 14:24:09.593750
1742,10.03,2022-08-17 14:24:09.609375
1743,9.78,2022-08-17 14:24:09.625000
1744,9.12,2022-08-17 14:24:09.640625
1745,7.94,2022-08-17 14:24:09.656250
1746,6.28,2022-08-17 14:24:09.671875
1747,4.3,2022-08-17 14:24:09.687500
1748,2.2,2022-08-17 14:24:09.703125
1749,0.14,2022-08-17 14:24:09.718750
1750,-1.89,2022-08-17 14:24:09.734375
1751,-3.88,2022-08-17 14:24:09.750000
1752,-5.89,2022-08-17 14:24:09.765625
1753,-7.92,2022-08-17 14:24:09.781250
1754,-9.96,2022-08-17 14:24:09.796875
1755,-12.02,2022-08-17 14:24:09.812500
1756,-14.23,2022-08-17 14:24:09.828125
1757,-16.74,2022-08-17 14:24:09.843750
1758,-19.56,2022-08-17 14:24:09.859375
1759,-22.6,2022-08-17 14:24:09.875000
1760,-25.47,2022-08-17 14:24:09.890625
1761,-27.7,2022-08-17 14:24:09.906250
1762,-28.84,2022-08-17 14:24:09.921875
1763,-28.52,2022-08-17 14:24:09.937500
1764,-26.61,2022-08-17 14:24:09.953125
1765,-23.23,2022-08-17 14:24:09.968750
1766,-18.67,2022-08-17 14:24:09.984375
1767,-13.3,2022-08-17 14:24:10.000000
1768,-7.48,2022-08-17 14:24:10.015625
1769,-1.53,2022-08-17 14:24:10.031250
1770,4.31,2022-08-17 14:24:10.046875
1771,9.85,2022-08-17 14:24:10.062500
1772,14.99,2022-08-17 14:24:10.078125
1773,19.62,2022-08-17 14:24:10.093750
1774,23.57,2022-08-17 14:24:10.109375
1775,26.68,2022-08-17 14:24:10.125000
1776,28.88,2022-08-17 14:24:10.140625
1777,30.11,2022-08-17 14:24:10.156250
1778,30.53,2022-08-17 14:24:10.171875
1779,30.28,2022-08-17 14:24:10.187500
1780,29.56,2022-08-17 14:24:10.203125
1781,28.5,2022-08-17 14:24:10.218750
1782,27.14,2022-08-17 14:24:10.234375
1783,25.52,2022-08-17 14:24:10.250000
1784,23.7,2022-08-17 14:24:10.265625
1785,21.86,2022-08-17 14:24:10.281250
1786,20.18,2022-08-17 14:24:10.296875
1787,18.8,2022-08-17 14:24:10.312500
1788,17.72,2022-08-17 14:24:10.328125
1789,16.76,2022-08-17 14:24:10.343750
1790,15.65,2022-08-17 14:24:10.359375
1791,14.12,2022-08-17 14:24:10.375000
1792,12.08,2022-08-17 14:24:10.390625
1793,9.62,2022-08-17 14:24:10.406250
1794,6.95,2022-08-17 14:24:10.421875
1795,4.21,2022-08-17 14:24:10.437500
1796,1.43,2022-08-17 14:24:10.453125
1797,-1.51,2022-08-17 14:24:10.468750
1798,-4.74,2022-08-17 14:24:10.484375
1799,-8.37,2022-08-17 14:24:10.500000
1800,-12.32,2022-08-17 14:24:10.515625
1801,-16.31,2022-08-17 14:24:10.531250
1802,-20.05,2022-08-17 14:24:10.546875
1803,-23.33,2022-08-17 14:24:10.562500
1804,-26.15,2022-08-17 14:24:10.578125
1805,-28.58,2022-08-17 14:24:10.593750
1806,-30.74,2022-08-17 14:24:10.609375
1807,-32.69,2022-08-17 14:24:10.625000
1808,-34.38,2022-08-17 14:24:10.640625
1809,-35.7,2022-08-17 14:24:10.656250
1810,-36.5,2022-08-17 14:24:10.671875
1811,-36.73,2022-08-17 14:24:10.687500
1812,-36.32,2022-08-17 14:24:10.703125
1813,-35.18,2022-08-17 14:24:10.718750
1814,-33.11,2022-08-17 14:24:10.734375
1815,-29.87,2022-08-17 14:24:10.750000
1816,-25.36,2022-08-17 14:24:10.765625
1817,-19.74,2022-08-17 14:24:10.781250
1818,-13.42,2022-08-17 14:24:10.796875
1819,-6.97,2022-08-17 14:24:10.812500
1820,-1.02,2022-08-17 14:24:10.828125
1821,4.03,2022-08-17 14:24:10.843750
1822,8.0,2022-08-17 14:24:10.859375
1823,11.01,2022-08-17 14:24:10.875000
1824,13.22,2022-08-17 14:24:10.890625
1825,14.84,2022-08-17 14:24:10.906250
1826,16.01,2022-08-17 14:24:10.921875
1827,16.85,2022-08-17 14:24:10.937500
1828,17.58,2022-08-17 14:24:10.953125
1829,18.3,2022-08-17 14:24:10.968750
1830,19.18,2022-08-17 14:24:10.984375
1831,20.3,2022-08-17 14:24:11.000000
1832,21.6,2022-08-17 14:24:11.015625
1833,23.0,2022-08-17 14:24:11.031250
1834,24.42,2022-08-17 14:24:11.046875
1835,25.81,2022-08-17 14:24:11.062500
1836,27.09,2022-08-17 14:24:11.078125
1837,28.19,2022-08-17 14:24:11.093750
1838,28.93,2022-08-17 14:24:11.109375
1839,29.12,2022-08-17 14:24:11.125000
1840,28.51,2022-08-17 14:24:11.140625
1841,26.9,2022-08-17 14:24:11.156250
1842,24.23,2022-08-17 14:24:11.171875
1843,20.62,2022-08-17 14:24:11.187500
1844,16.41,2022-08-17 14:24:11.203125
1845,12.01,2022-08-17 14:24:11.218750
1846,7.82,2022-08-17 14:24:11.234375
1847,4.2,2022-08-17 14:24:11.250000
1848,1.35,2022-08-17 14:24:11.265625
1849,-0.74,2022-08-17 14:24:11.281250
1850,-2.24,2022-08-17 14:24:11.296875
1851,-3.43,2022-08-17 14:24:11.312500
1852,-4.61,2022-08-17 14:24:11.328125
1853,-5.94,2022-08-17 14:24:11.343750
1854,-7.5,2022-08-17 14:24:11.359375
1855,-9.3,2022-08-17 14:24:11.375000
1856,-11.26,2022-08-17 14:24:11.390625
1857,-13.37,2022-08-17 14:24:11.406250
1858,-15.63,2022-08-17 14:24:11.421875
1859,-18.1,2022-08-17 14:24:11.437500
1860,-20.79,2022-08-17 14:24:11.453125
1861,-23.67,2022-08-17 14:24:11.468750
1862,-26.6,2022-08-17 14:24:11.484375
1863,-29.32,2022-08-17 14:24:11.500000
1864,-31.54,2022-08-17 14:24:11.515625
1865,-32.94,2022-08-17 14:24:11.531250
1866,-33.25,2022-08-17 14:24:11.546875
1867,-32.26,2022-08-17 14:24:11.562500
1868,-29.91,2022-08-17 14:24:11.578125
1869,-26.29,2022-08-17 14:24:11.593750
1870,-21.62,2022-08-17 14:24:11.609375
1871,-16.28,2022-08-17 14:24:11.625000
1872,-10.6,2022-08-17 14:24:11.640625
1873,-4.94,2022-08-17 14:24:11.656250
1874,0.45,2022-08-17 14:24:11.671875
1875,5.37,2022-08-17 14:24:11.687500
1876,9.67,2022-08-17 14:24:11.703125
1877,13.29,2022-08-17 14:24:11.718750
1878,16.12,2022-08-17 14:24:11.734375
1879,18.09,2022-08-17 14:24:11.750000
1880,19.2,2022-08-17 14:24:11.765625
1881,19.51,2022-08-17 14:24:11.781250
1882,19.19,2022-08-17 14:24:11.796875
1883,18.5,2022-08-17 14:24:11.812500
1884,17.77,2022-08-17 14:24:11.828125
1885,17.18,2022-08-17 14:24:11.843750
1886,16.89,2022-08-17 14:24:11.859375
1887,16.92,2022-08-17 14:24:11.875000
1888,17.19,2022-08-17 14:24:11.890625
1889,17.59,2022-08-17 14:24:11.906250
1890,18.03,2022-08-17 14:24:11.921875
1891,18.45,2022-08-17 14:24:11.937500
1892,18.82,2022-08-17 14:24:11.953125
1893,19.07,2022-08-17 14:24:11.968750
1894,19.07,2022-08-17 14:24:11.984375
1895,18.62,2022-08-17 14:24:12.000000
1896,17.51,2022-08-17 14:24:12.015625
1897,15.44,2022-08-17 14:24:12.031250
1898,12.22,2022-08-17 14:24:12.046875
1899,7.74,2022-08-17 14:24:12.062500
1900,2.04,2022-08-17 14:24:12.078125
1901,-4.54,2022-08-17 14:24:12.093750
1902,-11.46,2022-08-17 14:24:12.109375
1903,-17.99,2022-08-17 14:24:12.125000
1904,-23.4,2022-08-17 14:24:12.140625
1905,-27.2,2022-08-17 14:24:12.156250
1906,-29.27,2022-08-17 14:24:12.171875
1907,-29.86,2022-08-17 14:24:12.187500
1908,-29.5,2022-08-17 14:24:12.203125
1909,-28.71,2022-08-17 14:24:12.218750
1910,-27.81,2022-08-17 14:24:12.234375
1911,-26.77,2022-08-17 14:24:12.250000
1912,-25.38,2022-08-17 14:24:12.265625
1913,-23.43,2022-08-17 14:24:12.281250
1914,-20.89,2022-08-17 14:24:12.296875
1915,-17.96,2022-08-17 14:24:12.312500
1916,-14.87,2022-08-17 14:24:12.328125
1917,-11.78,2022-08-17 14:24:12.343750
1918,-8.59,2022-08-17 14:24:12.359375
1919,-5.09,2022-08-17 14:24:12.375000
1920,-1.12,2022-08-17 14:24:12.390625
1921,3.28,2022-08-17 14:24:12.406250
1922,7.77,2022-08-17 14:24:12.421875
1923,11.9,2022-08-17 14:24:12.437500
1924,15.27,2022-08-17 14:24:12.453125
1925,17.69,2022-08-17 14:24:12.468750
1926,19.12,2022-08-17 14:24:12.484375
1927,19.63,2022-08-17 14:24:12.500000
1928,19.3,2022-08-17 14:24:12.515625
1929,18.19,2022-08-17 14:24:12.531250
1930,16.39,2022-08-17 14:24:12.546875
1931,14.12,2022-08-17 14:24:12.562500
1932,11.68,2022-08-17 14:24:12.578125
1933,9.41,2022-08-17 14:24:12.593750
1934,7.55,2022-08-17 14:24:12.609375
1935,6.18,2022-08-17 14:24:12.625000
1936,5.3,2022-08-17 14:24:12.640625
1937,4.83,2022-08-17 14:24:12.656250
1938,4.66,2022-08-17 14:24:12.671875
1939,4.79,2022-08-17 14:24:12.687500
1940,5.15,2022-08-17 14:24:12.703125
1941,5.62,2022-08-17 14:24:12.718750
1942,6.03,2022-08-17 14:24:12.734375
1943,6.07,2022-08-17 14:24:12.750000
1944,5.55,2022-08-17 14:24:12.765625
1945,4.32,2022-08-17 14:24:12.781250
1946,2.41,2022-08-17 14:24:12.796875
1947,-0.08,2022-08-17 14:24:12.812500
1948,-2.9,2022-08-17 14:24:12.828125
1949,-5.87,2022-08-17 14:24:12.843750
1950,-8.76,2022-08-17 14:24:12.859375
1951,-11.32,2022-08-17 14:24:12.875000
1952,-13.32,2022-08-17 14:24:12.890625
1953,-14.51,2022-08-17 14:24:12.906250
1954,-14.79,2022-08-17 14:24:12.921875
1955,-14.23,2022-08-17 14:24:12.937500
1956,-13.09,2022-08-17 14:24:12.953125
1957,-11.63,2022-08-17 14:24:12.968750
1958,-10.19,2022-08-17 14:24:12.984375
1959,-9.03,2022-08-17 14:24:13.000000
1960,-8.28,2022-08-17 14:24:13.015625
1961,-8.02,2022-08-17 14:24:13.031250
1962,-8.31,2022-08-17 14:24:13.046875
1963,-9.24,2022-08-17 14:24:13.062500
1964,-10.8,2022-08-17 14:24:13.078125
1965,-12.88,2022-08-17 14:24:13.093750
1966,-15.09,2022-08-17 14:24:13.109375
1967,-16.96,2022-08-17 14:24:13.125000
1968,-17.87,2022-08-17 14:24:13.140625
1969,-17.32,2022-08-17 14:24:13.156250
1970,-15.11,2022-08-17 14:24:13.171875
1971,-11.36,2022-08-17 14:24:13.187500
1972,-6.46,2022-08-17 14:24:13.203125
1973,-0.95,2022-08-17 14:24:13.218750
1974,4.68,2022-08-17 14:24:13.234375
1975,10.1,2022-08-17 14:24:13.250000
1976,15.12,2022-08-17 14:24:13.265625
1977,19.7,2022-08-17 14:24:13.281250
1978,23.82,2022-08-17 14:24:13.296875
1979,27.41,2022-08-17 14:24:13.312500
1980,30.29,2022-08-17 14:24:13.328125
1981,32.31,2022-08-17 14:24:13.343750
1982,33.41,2022-08-17 14:24:13.359375
1983,33.62,2022-08-17 14:24:13.375000
1984,33.11,2022-08-17 14:24:13.390625
1985,32.05,2022-08-17 14:24:13.406250
1986,30.7,2022-08-17 14:24:13.421875
1987,29.27,2022-08-17 14:24:13.437500
1988,27.9,2022-08-17 14:24:13.453125
1989,26.72,2022-08-17 14:24:13.468750
1990,25.82,2022-08-17 14:24:13.484375
1991,25.19,2022-08-17 14:24:13.500000
1992,24.68,2022-08-17 14:24:13.515625
1993,24.11,2022-08-17 14:24:13.531250
1994,23.22,2022-08-17 14:24:13.546875
1995,21.85,2022-08-17 14:24:13.562500
1996,19.94,2022-08-17 14:24:13.578125
1997,17.39,2022-08-17 14:24:13.593750
1998,14.34,2022-08-17 14:24:13.609375
1999,10.75,2022-08-17 14:24:13.625000
2000,6.71,2022-08-17 14:24:13.640625
2001,2.28,2022-08-17 14:24:13.656250
2002,-2.34,2022-08-17 14:24:13.671875
2003,-7.03,2022-08-17 14:24:13.687500
2004,-11.58,2022-08-17 14:24:13.703125
2005,-16.01,2022-08-17 14:24:13.718750
2006,-20.41,2022-08-17 14:24:13.734375
2007,-24.83,2022-08-17 14:24:13.750000
2008,-29.35,2022-08-17 14:24:13.765625
2009,-33.83,2022-08-17 14:24:13.781250
2010,-38.01,2022-08-17 14:24:13.796875
2011,-41.48,2022-08-17 14:24:13.812500
2012,-44.03,2022-08-17 14:24:13.828125
2013,-45.56,2022-08-17 14:24:13.843750
2014,-46.34,2022-08-17 14:24:13.859375
2015,-46.73,2022-08-17 14:24:13.875000
2016,-47.08,2022-08-17 14:24:13.890625
2017,-47.62,2022-08-17 14:24:13.906250
2018,-48.31,2022-08-17 14:24:13.921875
2019,-48.88,2022-08-17 14:24:13.937500
2020,-48.86,2022-08-17 14:24:13.953125
2021,-47.72,2022-08-17 14:24:13.968750
2022,-45.05,2022-08-17 14:24:13.984375
2023,-40.6,2022-08-17 14:24:14.000000
2024,-34.37,2022-08-17 14:24:14.015625
2025,-26.58,2022-08-17 14:24:14.031250
2026,-17.73,2022-08-17 14:24:14.046875
2027,-8.4,2022-08-17 14:24:14.062500
2028,0.72,2022-08-17 14:24:14.078125
2029,9.01,2022-08-17 14:24:14.093750
2030,16.13,2022-08-17 14:24:14.109375
2031,21.89,2022-08-17 14:24:14.125000
2032,26.42,2022-08-17 14:24:14.140625
2033,29.98,2022-08-17 14:24:14.156250
2034,32.88,2022-08-17 14:24:14.171875
2035,35.31,2022-08-17 14:24:14.187500
2036,37.39,2022-08-17 14:24:14.203125
2037,39.06,2022-08-17 14:24:14.218750
2038,40.25,2022-08-17 14:24:14.234375
2039,41.1,2022-08-17 14:24:14.250000
2040,41.87,2022-08-17 14:24:14.265625
2041,43.0,2022-08-17 14:24:14.281250
2042,44.9,2022-08-17 14:24:14.296875
2043,47.79,2022-08-17 14:24:14.312500
2044,51.58,2022-08-17 14:24:14.328125
2045,55.96,2022-08-17 14:24:14.343750
2046,60.31,2022-08-17 14:24:14.359375
2047,64.04,2022-08-17 14:24:14.375000
2048,66.7,2022-08-17 14:24:14.390625
2049,67.95,2022-08-17 14:24:14.406250
2050,67.69,2022-08-17 14:24:14.421875
2051,65.9,2022-08-17 14:24:14.437500
2052,62.54,2022-08-17 14:24:14.453125
2053,57.71,2022-08-17 14:24:14.468750
2054,51.63,2022-08-17 14:24:14.484375
2055,44.63,2022-08-17 14:24:14.500000
2056,37.13,2022-08-17 14:24:14.515625
2057,29.52,2022-08-17 14:24:14.531250
2058,22.04,2022-08-17 14:24:14.546875
2059,14.81,2022-08-17 14:24:14.562500
2060,7.79,2022-08-17 14:24:14.578125
2061,0.88,2022-08-17 14:24:14.593750
2062,-5.94,2022-08-17 14:24:14.609375
2063,-12.62,2022-08-17 14:24:14.625000
2064,-19.05,2022-08-17 14:24:14.640625
2065,-25.05,2022-08-17 14:24:14.656250
2066,-30.5,2022-08-17 14:24:14.671875
2067,-35.4,2022-08-17 14:24:14.687500
2068,-39.78,2022-08-17 14:24:14.703125
2069,-43.84,2022-08-17 14:24:14.718750
2070,-47.75,2022-08-17 14:24:14.734375
2071,-51.7,2022-08-17 14:24:14.750000
2072,-55.7,2022-08-17 14:24:14.765625
2073,-59.63,2022-08-17 14:24:14.781250
2074,-63.12,2022-08-17 14:24:14.796875
2075,-65.7,2022-08-17 14:24:14.812500
2076,-66.94,2022-08-17 14:24:14.828125
2077,-66.49,2022-08-17 14:24:14.843750
2078,-64.26,2022-08-17 14:24:14.859375
2079,-60.37,2022-08-17 14:24:14.875000
2080,-55.12,2022-08-17 14:24:14.890625
2081,-48.91,2022-08-17 14:24:14.906250
2082,-42.12,2022-08-17 14:24:14.921875
2083,-35.08,2022-08-17 14:24:14.937500
2084,-28.1,2022-08-17 14:24:14.953125
2085,-21.48,2022-08-17 14:24:14.968750
2086,-15.62,2022-08-17 14:24:14.984375
2087,-10.77,2022-08-17 14:24:15.000000
2088,-6.97,2022-08-17 14:24:15.015625
2089,-4.02,2022-08-17 14:24:15.031250
2090,-1.58,2022-08-17 14:24:15.046875
2091,0.73,2022-08-17 14:24:15.062500
2092,3.18,2022-08-17 14:24:15.078125
2093,5.79,2022-08-17 14:24:15.093750
2094,8.45,2022-08-17 14:24:15.109375
2095,10.91,2022-08-17 14:24:15.125000
2096,12.95,2022-08-17 14:24:15.140625
2097,14.44,2022-08-17 14:24:15.156250
2098,15.28,2022-08-17 14:24:15.171875
2099,15.42,2022-08-17 14:24:15.187500
2100,14.85,2022-08-17 14:24:15.203125
2101,13.62,2022-08-17 14:24:15.218750
2102,11.88,2022-08-17 14:24:15.234375
2103,9.89,2022-08-17 14:24:15.250000
2104,7.83,2022-08-17 14:24:15.265625
2105,5.9,2022-08-17 14:24:15.281250
2106,4.14,2022-08-17 14:24:15.296875
2107,2.52,2022-08-17 14:24:15.312500
2108,1.0,2022-08-17 14:24:15.328125
2109,-0.46,2022-08-17 14:24:15.343750
2110,-1.91,2022-08-17 14:24:15.359375
2111,-3.26,2022-08-17 14:24:15.375000
2112,-4.51,2022-08-17 14:24:15.390625
2113,-5.78,2022-08-17 14:24:15.406250
2114,-7.26,2022-08-17 14:24:15.421875
2115,-9.13,2022-08-17 14:24:15.437500
2116,-11.44,2022-08-17 14:24:15.453125
2117,-13.85,2022-08-17 14:24:15.468750
2118,-15.78,2022-08-17 14:24:15.484375
2119,-16.7,2022-08-17 14:24:15.500000
2120,-16.28,2022-08-17 14:24:15.515625
2121,-14.67,2022-08-17 14:24:15.531250
2122,-12.5,2022-08-17 14:24:15.546875
2123,-10.51,2022-08-17 14:24:15.562500
2124,-9.33,2022-08-17 14:24:15.578125
2125,-9.22,2022-08-17 14:24:15.593750
2126,-10.01,2022-08-17 14:24:15.609375
2127,-11.25,2022-08-17 14:24:15.625000
2128,-12.55,2022-08-17 14:24:15.640625
2129,-13.54,2022-08-17 14:24:15.656250
2130,-14.01,2022-08-17 14:24:15.671875
2131,-13.8,2022-08-17 14:24:15.687500
2132,-12.65,2022-08-17 14:24:15.703125
2133,-10.43,2022-08-17 14:24:15.718750
2134,-7.14,2022-08-17 14:24:15.734375
2135,-2.95,2022-08-17 14:24:15.750000
2136,1.75,2022-08-17 14:24:15.765625
2137,6.38,2022-08-17 14:24:15.781250
2138,10.48,2022-08-17 14:24:15.796875
2139,13.69,2022-08-17 14:24:15.812500
2140,15.82,2022-08-17 14:24:15.828125
2141,16.94,2022-08-17 14:24:15.843750
2142,17.24,2022-08-17 14:24:15.859375
2143,16.96,2022-08-17 14:24:15.875000
2144,16.36,2022-08-17 14:24:15.890625
2145,15.61,2022-08-17 14:24:15.906250
2146,14.79,2022-08-17 14:24:15.921875
2147,13.9,2022-08-17 14:24:15.937500
2148,13.02,2022-08-17 14:24:15.953125
2149,12.19,2022-08-17 14:24:15.968750
2150,11.67,2022-08-17 14:24:15.984375
2151,11.72,2022-08-17 14:24:16.000000
2152,12.55,2022-08-17 14:24:16.015625
2153,14.27,2022-08-17 14:24:16.031250
2154,16.66,2022-08-17 14:24:16.046875
2155,19.4,2022-08-17 14:24:16.062500
2156,22.05,2022-08-17 14:24:16.078125
2157,24.25,2022-08-17 14:24:16.093750
2158,25.72,2022-08-17 14:24:16.109375
2159,26.3,2022-08-17 14:24:16.125000
2160,25.9,2022-08-17 14:24:16.140625
2161,24.47,2022-08-17 14:24:16.156250
2162,22.06,2022-08-17 14:24:16.171875
2163,18.7,2022-08-17 14:24:16.187500
2164,14.59,2022-08-17 14:24:16.203125
2165,9.99,2022-08-17 14:24:16.218750
2166,5.25,2022-08-17 14:24:16.234375
2167,0.62,2022-08-17 14:24:16.250000
2168,-3.71,2022-08-17 14:24:16.265625
2169,-7.65,2022-08-17 14:24:16.281250
2170,-11.18,2022-08-17 14:24:16.296875
2171,-14.24,2022-08-17 14:24:16.312500
2172,-16.81,2022-08-17 14:24:16.328125
2173,-18.91,2022-08-17 14:24:16.343750
2174,-20.58,2022-08-17 14:24:16.359375
2175,-21.82,2022-08-17 14:24:16.375000
2176,-22.63,2022-08-17 14:24:16.390625
2177,-22.96,2022-08-17 14:24:16.406250
2178,-22.7,2022-08-17 14:24:16.421875
2179,-21.75,2022-08-17 14:24:16.437500
2180,-19.95,2022-08-17 14:24:16.453125
2181,-17.18,2022-08-17 14:24:16.468750
2182,-13.29,2022-08-17 14:24:16.484375
2183,-8.3,2022-08-17 14:24:16.500000
2184,-2.28,2022-08-17 14:24:16.515625
2185,4.48,2022-08-17 14:24:16.531250
2186,11.5,2022-08-17 14:24:16.546875
2187,18.24,2022-08-17 14:24:16.562500
2188,24.18,2022-08-17 14:24:16.578125
2189,28.95,2022-08-17 14:24:16.593750
2190,32.44,2022-08-17 14:24:16.609375
2191,34.68,2022-08-17 14:24:16.625000
2192,35.75,2022-08-17 14:24:16.640625
2193,35.7,2022-08-17 14:24:16.656250
2194,34.54,2022-08-17 14:24:16.671875
2195,32.3,2022-08-17 14:24:16.687500
2196,29.18,2022-08-17 14:24:16.703125
2197,25.51,2022-08-17 14:24:16.718750
2198,21.8,2022-08-17 14:24:16.734375
2199,18.53,2022-08-17 14:24:16.750000
2200,16.05,2022-08-17 14:24:16.765625
2201,14.36,2022-08-17 14:24:16.781250
2202,13.26,2022-08-17 14:24:16.796875
2203,12.39,2022-08-17 14:24:16.812500
2204,11.47,2022-08-17 14:24:16.828125
2205,10.45,2022-08-17 14:24:16.843750
2206,9.42,2022-08-17 14:24:16.859375
2207,8.61,2022-08-17 14:24:16.875000
2208,8.11,2022-08-17 14:24:16.890625
2209,7.86,2022-08-17 14:24:16.906250
2210,7.63,2022-08-17 14:24:16.921875
2211,7.1,2022-08-17 14:24:16.937500
2212,6.06,2022-08-17 14:24:16.953125
2213,4.41,2022-08-17 14:24:16.968750
2214,2.25,2022-08-17 14:24:16.984375
2215,-0.32,2022-08-17 14:24:17.000000
2216,-3.17,2022-08-17 14:24:17.015625
2217,-6.25,2022-08-17 14:24:17.031250
2218,-9.56,2022-08-17 14:24:17.046875
2219,-13.1,2022-08-17 14:24:17.062500
2220,-16.83,2022-08-17 14:24:17.078125
2221,-20.64,2022-08-17 14:24:17.093750
2222,-24.36,2022-08-17 14:24:17.109375
2223,-27.82,2022-08-17 14:24:17.125000
2224,-30.94,2022-08-17 14:24:17.140625
2225,-33.74,2022-08-17 14:24:17.156250
2226,-36.25,2022-08-17 14:24:17.171875
2227,-38.68,2022-08-17 14:24:17.187500
2228,-41.23,2022-08-17 14:24:17.203125
2229,-44.03,2022-08-17 14:24:17.218750
2230,-47.0,2022-08-17 14:24:17.234375
2231,-49.81,2022-08-17 14:24:17.250000
2232,-51.9,2022-08-17 14:24:17.265625
2233,-52.63,2022-08-17 14:24:17.281250
2234,-51.62,2022-08-17 14:24:17.296875
2235,-48.72,2022-08-17 14:24:17.312500
2236,-44.26,2022-08-17 14:24:17.328125
2237,-38.75,2022-08-17 14:24:17.343750
2238,-32.78,2022-08-17 14:24:17.359375
2239,-26.71,2022-08-17 14:24:17.375000
2240,-20.71,2022-08-17 14:24:17.390625
2241,-14.83,2022-08-17 14:24:17.406250
2242,-9.01,2022-08-17 14:24:17.421875
2243,-3.42,2022-08-17 14:24:17.437500
2244,1.73,2022-08-17 14:24:17.453125
2245,6.11,2022-08-17 14:24:17.468750
2246,9.52,2022-08-17 14:24:17.484375
2247,11.95,2022-08-17 14:24:17.500000
2248,13.53,2022-08-17 14:24:17.515625
2249,14.54,2022-08-17 14:24:17.531250
2250,15.19,2022-08-17 14:24:17.546875
2251,15.66,2022-08-17 14:24:17.562500
2252,16.02,2022-08-17 14:24:17.578125
2253,16.36,2022-08-17 14:24:17.593750
2254,16.76,2022-08-17 14:24:17.609375
2255,17.32,2022-08-17 14:24:17.625000
2256,18.18,2022-08-17 14:24:17.640625
2257,19.32,2022-08-17 14:24:17.656250
2258,20.75,2022-08-17 14:24:17.671875
2259,22.34,2022-08-17 14:24:17.687500
2260,23.97,2022-08-17 14:24:17.703125
2261,25.56,2022-08-17 14:24:17.718750
2262,27.1,2022-08-17 14:24:17.734375
2263,28.57,2022-08-17 14:24:17.750000
2264,29.96,2022-08-17 14:24:17.765625
2265,31.24,2022-08-17 14:24:17.781250
2266,32.23,2022-08-17 14:24:17.796875
2267,32.74,2022-08-17 14:24:17.812500
2268,32.53,2022-08-17 14:24:17.828125
2269,31.41,2022-08-17 14:24:17.843750
2270,29.27,2022-08-17 14:24:17.859375
2271,26.17,2022-08-17 14:24:17.875000
2272,22.28,2022-08-17 14:24:17.890625
2273,17.82,2022-08-17 14:24:17.906250
2274,13.07,2022-08-17 14:24:17.921875
2275,8.15,2022-08-17 14:24:17.937500
2276,3.11,2022-08-17 14:24:17.953125
2277,-2.16,2022-08-17 14:24:17.968750
2278,-7.81,2022-08-17 14:24:17.984375
2279,-13.94,2022-08-17 14:24:18.000000
2280,-20.51,2022-08-17 14:24:18.015625
2281,-27.28,2022-08-17 14:24:18.031250
2282,-33.76,2022-08-17 14:24:18.046875
2283,-39.37,2022-08-17 14:24:18.062500
2284,-43.53,2022-08-17 14:24:18.078125
2285,-45.73,2022-08-17 14:24:18.093750
2286,-45.64,2022-08-17 14:24:18.109375
2287,-43.26,2022-08-17 14:24:18.125000
2288,-38.77,2022-08-17 14:24:18.140625
2289,-32.71,2022-08-17 14:24:18.156250
2290,-25.72,2022-08-17 14:24:18.171875
2291,-18.42,2022-08-17 14:24:18.187500
2292,-11.34,2022-08-17 14:24:18.203125
2293,-4.83,2022-08-17 14:24:18.218750
2294,0.99,2022-08-17 14:24:18.234375
2295,6.09,2022-08-17 14:24:18.250000
2296,10.45,2022-08-17 14:24:18.265625
2297,14.01,2022-08-17 14:24:18.281250
2298,16.63,2022-08-17 14:24:18.296875
2299,18.17,2022-08-17 14:24:18.312500
2300,18.58,2022-08-17 14:24:18.328125
2301,18.01,2022-08-17 14:24:18.343750
2302,16.74,2022-08-17 14:24:18.359375
2303,15.22,2022-08-17 14:24:18.375000
2304,13.83,2022-08-17 14:24:18.390625
2305,12.83,2022-08-17 14:24:18.406250
2306,12.3,2022-08-17 14:24:18.421875
2307,12.13,2022-08-17 14:24:18.437500
2308,12.14,2022-08-17 14:24:18.453125
2309,12.12,2022-08-17 14:24:18.468750
2310,11.98,2022-08-17 14:24:18.484375
2311,11.65,2022-08-17 14:24:18.500000
2312,11.19,2022-08-17 14:24:18.515625
2313,10.58,2022-08-17 14:24:18.531250
2314,9.84,2022-08-17 14:24:18.546875
2315,8.97,2022-08-17 14:24:18.562500
2316,7.98,2022-08-17 14:24:18.578125
2317,6.94,2022-08-17 14:24:18.593750
2318,5.96,2022-08-17 14:24:18.609375
2319,5.07,2022-08-17 14:24:18.625000
2320,4.26,2022-08-17 14:24:18.640625
2321,3.43,2022-08-17 14:24:18.656250
2322,2.49,2022-08-17 14:24:18.671875
2323,1.37,2022-08-17 14:24:18.687500
2324,0.17,2022-08-17 14:24:18.703125
2325,-0.95,2022-08-17 14:24:18.718750
2326,-1.79,2022-08-17 14:24:18.734375
2327,-2.26,2022-08-17 14:24:18.750000
2328,-2.53,2022-08-17 14:24:18.765625
2329,-2.94,2022-08-17 14:24:18.781250
2330,-3.85,2022-08-17 14:24:18.796875
2331,-5.54,2022-08-17 14:24:18.812500
2332,-8.06,2022-08-17 14:24:18.828125
2333,-11.26,2022-08-17 14:24:18.843750
2334,-14.82,2022-08-17 14:24:18.859375
2335,-18.32,2022-08-17 14:24:18.875000
2336,-21.28,2022-08-17 14:24:18.890625
2337,-23.22,2022-08-17 14:24:18.906250
2338,-23.72,2022-08-17 14:24:18.921875
2339,-22.47,2022-08-17 14:24:18.937500
2340,-19.4,2022-08-17 14:24:18.953125
2341,-14.78,2022-08-17 14:24:18.968750
2342,-9.04,2022-08-17 14:24:18.984375
2343,-2.81,2022-08-17 14:24:19.000000
2344,3.45,2022-08-17 14:24:19.015625
2345,9.34,2022-08-17 14:24:19.031250
2346,14.64,2022-08-17 14:24:19.046875
2347,19.29,2022-08-17 14:24:19.062500
2348,23.21,2022-08-17 14:24:19.078125
2349,26.34,2022-08-17 14:24:19.093750
2350,28.53,2022-08-17 14:24:19.109375
2351,29.68,2022-08-17 14:24:19.125000
2352,29.62,2022-08-17 14:24:19.140625
2353,28.35,2022-08-17 14:24:19.156250
2354,25.97,2022-08-17 14:24:19.171875
2355,22.81,2022-08-17 14:24:19.187500
2356,19.34,2022-08-17 14:24:19.203125
2357,16.1,2022-08-17 14:24:19.218750
2358,13.52,2022-08-17 14:24:19.234375
2359,11.76,2022-08-17 14:24:19.250000
2360,10.75,2022-08-17 14:24:19.265625
2361,10.18,2022-08-17 14:24:19.281250
2362,9.76,2022-08-17 14:24:19.296875
2363,9.2,2022-08-17 14:24:19.312500
2364,8.39,2022-08-17 14:24:19.328125
2365,7.34,2022-08-17 14:24:19.343750
2366,6.01,2022-08-17 14:24:19.359375
2367,4.37,2022-08-17 14:24:19.375000
2368,2.37,2022-08-17 14:24:19.390625
2369,-0.01,2022-08-17 14:24:19.406250
2370,-2.68,2022-08-17 14:24:19.421875
2371,-5.44,2022-08-17 14:24:19.437500
2372,-8.02,2022-08-17 14:24:19.453125
2373,-10.18,2022-08-17 14:24:19.468750
2374,-11.71,2022-08-17 14:24:19.484375
2375,-12.6,2022-08-17 14:24:19.500000
2376,-12.92,2022-08-17 14:24:19.515625
2377,-12.81,2022-08-17 14:24:19.531250
2378,-12.6,2022-08-17 14:24:19.546875
2379,-12.58,2022-08-17 14:24:19.562500
2380,-13.04,2022-08-17 14:24:19.578125
2381,-14.2,2022-08-17 14:24:19.593750
2382,-16.16,2022-08-17 14:24:19.609375
2383,-18.88,2022-08-17 14:24:19.625000
2384,-22.21,2022-08-17 14:24:19.640625
2385,-25.84,2022-08-17 14:24:19.656250
2386,-29.21,2022-08-17 14:24:19.671875
2387,-31.78,2022-08-17 14:24:19.687500
2388,-33.03,2022-08-17 14:24:19.703125
2389,-32.55,2022-08-17 14:24:19.718750
2390,-30.3,2022-08-17 14:24:19.734375
2391,-26.45,2022-08-17 14:24:19.750000
2392,-21.36,2022-08-17 14:24:19.765625
2393,-15.5,2022-08-17 14:24:19.781250
2394,-9.3,2022-08-17 14:24:19.796875
2395,-3.09,2022-08-17 14:24:19.812500
2396,2.89,2022-08-17 14:24:19.828125
2397,8.48,2022-08-17 14:24:19.843750
2398,13.61,2022-08-17 14:24:19.859375
2399,18.12,2022-08-17 14:24:19.875000
2400,21.88,2022-08-17 14:24:19.890625
2401,24.75,2022-08-17 14:24:19.906250
2402,26.59,2022-08-17 14:24:19.921875
2403,27.33,2022-08-17 14:24:19.937500
2404,26.98,2022-08-17 14:24:19.953125
2405,25.69,2022-08-17 14:24:19.968750
2406,23.71,2022-08-17 14:24:19.984375
2407,21.39,2022-08-17 14:24:20.000000
2408,18.95,2022-08-17 14:24:20.015625
2409,16.68,2022-08-17 14:24:20.031250
2410,14.72,2022-08-17 14:24:20.046875
2411,13.09,2022-08-17 14:24:20.062500
2412,11.78,2022-08-17 14:24:20.078125
2413,10.66,2022-08-17 14:24:20.093750
2414,9.6,2022-08-17 14:24:20.109375
2415,8.49,2022-08-17 14:24:20.125000
2416,7.31,2022-08-17 14:24:20.140625
2417,6.01,2022-08-17 14:24:20.156250
2418,4.63,2022-08-17 14:24:20.171875
2419,3.21,2022-08-17 14:24:20.187500
2420,1.69,2022-08-17 14:24:20.203125
2421,0.01,2022-08-17 14:24:20.218750
2422,-1.87,2022-08-17 14:24:20.234375
2423,-3.97,2022-08-17 14:24:20.250000
2424,-6.26,2022-08-17 14:24:20.265625
2425,-8.56,2022-08-17 14:24:20.281250
2426,-10.79,2022-08-17 14:24:20.296875
2427,-12.87,2022-08-17 14:24:20.312500
2428,-14.8,2022-08-17 14:24:20.328125
2429,-16.75,2022-08-17 14:24:20.343750
2430,-18.81,2022-08-17 14:24:20.359375
2431,-21.14,2022-08-17 14:24:20.375000
2432,-23.88,2022-08-17 14:24:20.390625
2433,-27.01,2022-08-17 14:24:20.406250
2434,-30.43,2022-08-17 14:24:20.421875
2435,-33.81,2022-08-17 14:24:20.437500
2436,-36.64,2022-08-17 14:24:20.453125
2437,-38.34,2022-08-17 14:24:20.468750
2438,-38.41,2022-08-17 14:24:20.484375
2439,-36.48,2022-08-17 14:24:20.500000
2440,-32.56,2022-08-17 14:24:20.515625
2441,-26.99,2022-08-17 14:24:20.531250
2442,-20.25,2022-08-17 14:24:20.546875
2443,-12.95,2022-08-17 14:24:20.562500
2444,-5.63,2022-08-17 14:24:20.578125
2445,1.31,2022-08-17 14:24:20.593750
2446,7.6,2022-08-17 14:24:20.609375
2447,13.13,2022-08-17 14:24:20.625000
2448,17.86,2022-08-17 14:24:20.640625
2449,21.74,2022-08-17 14:24:20.656250
2450,24.63,2022-08-17 14:24:20.671875
2451,26.45,2022-08-17 14:24:20.687500
2452,27.12,2022-08-17 14:24:20.703125
2453,26.7,2022-08-17 14:24:20.718750
2454,25.4,2022-08-17 14:24:20.734375
2455,23.57,2022-08-17 14:24:20.750000
2456,21.55,2022-08-17 14:24:20.765625
2457,19.63,2022-08-17 14:24:20.781250
2458,17.86,2022-08-17 14:24:20.796875
2459,16.16,2022-08-17 14:24:20.812500
2460,14.54,2022-08-17 14:24:20.828125
2461,13.05,2022-08-17 14:24:20.843750
2462,11.85,2022-08-17 14:24:20.859375
2463,11.18,2022-08-17 14:24:20.875000
2464,11.17,2022-08-17 14:24:20.890625
2465,11.82,2022-08-17 14:24:20.906250
2466,13.03,2022-08-17 14:24:20.921875
2467,14.52,2022-08-17 14:24:20.937500
2468,16.08,2022-08-17 14:24:20.953125
2469,17.57,2022-08-17 14:24:20.968750
2470,18.88,2022-08-17 14:24:20.984375
2471,19.93,2022-08-17 14:24:21.000000
2472,20.56,2022-08-17 14:24:21.015625
2473,20.5,2022-08-17 14:24:21.031250
2474,19.56,2022-08-17 14:24:21.046875
2475,17.64,2022-08-17 14:24:21.062500
2476,14.79,2022-08-17 14:24:21.078125
2477,11.29,2022-08-17 14:24:21.093750
2478,7.46,2022-08-17 14:24:21.109375
2479,3.6,2022-08-17 14:24:21.125000
2480,-0.05,2022-08-17 14:24:21.140625
2481,-3.48,2022-08-17 14:24:21.156250
2482,-6.82,2022-08-17 14:24:21.171875
2483,-10.21,2022-08-17 14:24:21.187500
2484,-13.82,2022-08-17 14:24:21.203125
2485,-17.7,2022-08-17 14:24:21.218750
2486,-21.74,2022-08-17 14:24:21.234375
2487,-25.74,2022-08-17 14:24:21.250000
2488,-29.36,2022-08-17 14:24:21.265625
2489,-32.12,2022-08-17 14:24:21.281250
2490,-33.45,2022-08-17 14:24:21.296875
2491,-32.96,2022-08-17 14:24:21.312500
2492,-30.48,2022-08-17 14:24:21.328125
2493,-26.1,2022-08-17 14:24:21.343750
2494,-20.36,2022-08-17 14:24:21.359375
2495,-13.93,2022-08-17 14:24:21.375000
2496,-7.54,2022-08-17 14:24:21.390625
2497,-1.77,2022-08-17 14:24:21.406250
2498,3.14,2022-08-17 14:24:21.421875
2499,7.14,2022-08-17 14:24:21.437500
2500,10.31,2022-08-17 14:24:21.453125
2501,12.7,2022-08-17 14:24:21.468750
2502,14.32,2022-08-17 14:24:21.484375
2503,15.17,2022-08-17 14:24:21.500000
2504,15.34,2022-08-17 14:24:21.515625
2505,15.01,2022-08-17 14:24:21.531250
2506,14.5,2022-08-17 14:24:21.546875
2507,14.1,2022-08-17 14:24:21.562500
2508,13.99,2022-08-17 14:24:21.578125
2509,14.16,2022-08-17 14:24:21.593750
2510,14.47,2022-08-17 14:24:21.609375
2511,14.73,2022-08-17 14:24:21.625000
2512,14.87,2022-08-17 14:24:21.640625
2513,14.94,2022-08-17 14:24:21.656250
2514,15.04,2022-08-17 14:24:21.671875
2515,15.27,2022-08-17 14:24:21.687500
2516,15.67,2022-08-17 14:24:21.703125
2517,16.09,2022-08-17 14:24:21.718750
2518,16.39,2022-08-17 14:24:21.734375
2519,16.43,2022-08-17 14:24:21.750000
2520,16.14,2022-08-17 14:24:21.765625
2521,15.58,2022-08-17 14:24:21.781250
2522,14.9,2022-08-17 14:24:21.796875
2523,14.25,2022-08-17 14:24:21.812500
2524,13.67,2022-08-17 14:24:21.828125
2525,13.19,2022-08-17 14:24:21.843750
2526,12.71,2022-08-17 14:24:21.859375
2527,12.12,2022-08-17 14:24:21.875000
2528,11.39,2022-08-17 14:24:21.890625
2529,10.41,2022-08-17 14:24:21.906250
2530,9.12,2022-08-17 14:24:21.921875
2531,7.41,2022-08-17 14:24:21.937500
2532,5.22,2022-08-17 14:24:21.953125
2533,2.5,2022-08-17 14:24:21.968750
2534,-0.64,2022-08-17 14:24:21.984375
2535,-4.02,2022-08-17 14:24:22.000000
2536,-7.48,2022-08-17 14:24:22.015625
2537,-10.9,2022-08-17 14:24:22.031250
2538,-14.34,2022-08-17 14:24:22.046875
2539,-17.99,2022-08-17 14:24:22.062500
2540,-22.04,2022-08-17 14:24:22.078125
2541,-26.49,2022-08-17 14:24:22.093750
2542,-31.26,2022-08-17 14:24:22.109375
2543,-35.99,2022-08-17 14:24:22.125000
2544,-40.24,2022-08-17 14:24:22.140625
2545,-43.54,2022-08-17 14:24:22.156250
2546,-45.43,2022-08-17 14:24:22.171875
2547,-45.64,2022-08-17 14:24:22.187500
2548,-44.13,2022-08-17 14:24:22.203125
2549,-41.06,2022-08-17 14:24:22.218750
2550,-36.8,2022-08-17 14:24:22.234375
2551,-31.85,2022-08-17 14:24:22.250000
2552,-26.67,2022-08-17 14:24:22.265625
2553,-21.69,2022-08-17 14:24:22.281250
2554,-17.09,2022-08-17 14:24:22.296875
2555,-12.95,2022-08-17 14:24:22.312500
2556,-9.31,2022-08-17 14:24:22.328125
2557,-6.15,2022-08-17 14:24:22.343750
2558,-3.43,2022-08-17 14:24:22.359375
2559,-1.07,2022-08-17 14:24:22.375000
2560,1.04,2022-08-17 14:24:22.390625
2561,3.06,2022-08-17 14:24:22.406250
2562,5.06,2022-08-17 14:24:22.421875
2563,7.14,2022-08-17 14:24:22.437500
2564,9.29,2022-08-17 14:24:22.453125
2565,11.43,2022-08-17 14:24:22.468750
2566,13.49,2022-08-17 14:24:22.484375
2567,15.44,2022-08-17 14:24:22.500000
2568,17.26,2022-08-17 14:24:22.515625
2569,18.96,2022-08-17 14:24:22.531250
2570,20.56,2022-08-17 14:24:22.546875
2571,22.04,2022-08-17 14:24:22.562500
2572,23.31,2022-08-17 14:24:22.578125
2573,24.34,2022-08-17 14:24:22.593750
2574,25.03,2022-08-17 14:24:22.609375
2575,25.32,2022-08-17 14:24:22.625000
2576,25.19,2022-08-17 14:24:22.640625
2577,24.67,2022-08-17 14:24:22.656250
2578,23.79,2022-08-17 14:24:22.671875
2579,22.68,2022-08-17 14:24:22.687500
2580,21.49,2022-08-17 14:24:22.703125
2581,20.27,2022-08-17 14:24:22.718750
2582,19.07,2022-08-17 14:24:22.734375
2583,17.8,2022-08-17 14:24:22.750000
2584,16.37,2022-08-17 14:24:22.765625
2585,14.62,2022-08-17 14:24:22.781250
2586,12.46,2022-08-17 14:24:22.796875
2587,9.87,2022-08-17 14:24:22.812500
2588,6.88,2022-08-17 14:24:22.828125
2589,3.58,2022-08-17 14:24:22.843750
2590,0.1,2022-08-17 14:24:22.859375
2591,-3.43,2022-08-17 14:24:22.875000
2592,-6.99,2022-08-17 14:24:22.890625
2593,-10.54,2022-08-17 14:24:22.906250
2594,-14.15,2022-08-17 14:24:22.921875
2595,-17.87,2022-08-17 14:24:22.937500
2596,-21.64,2022-08-17 14:24:22.953125
2597,-25.39,2022-08-17 14:24:22.968750
2598,-29.01,2022-08-17 14:24:22.984375
2599,-32.32,2022-08-17 14:24:23.000000
2600,-35.06,2022-08-17 14:24:23.015625
2601,-36.99,2022-08-17 14:24:23.031250
2602,-37.79,2022-08-17 14:24:23.046875
2603,-37.29,2022-08-17 14:24:23.062500
2604,-35.44,2022-08-17 14:24:23.078125
2605,-32.37,2022-08-17 14:24:23.093750
2606,-28.35,2022-08-17 14:24:23.109375
2607,-23.78,2022-08-17 14:24:23.125000
2608,-19.02,2022-08-17 14:24:23.140625
2609,-14.33,2022-08-17 14:24:23.156250
2610,-9.9,2022-08-17 14:24:23.171875
2611,-5.89,2022-08-17 14:24:23.187500
2612,-2.44,2022-08-17 14:24:23.203125
2613,0.37,2022-08-17 14:24:23.218750
2614,2.42,2022-08-17 14:24:23.234375
2615,3.78,2022-08-17 14:24:23.250000
2616,4.5,2022-08-17 14:24:23.265625
2617,4.74,2022-08-17 14:24:23.281250
2618,4.69,2022-08-17 14:24:23.296875
2619,4.5,2022-08-17 14:24:23.312500
2620,4.31,2022-08-17 14:24:23.328125
2621,4.28,2022-08-17 14:24:23.343750
2622,4.56,2022-08-17 14:24:23.359375
2623,5.32,2022-08-17 14:24:23.375000
2624,6.72,2022-08-17 14:24:23.390625
2625,8.77,2022-08-17 14:24:23.406250
2626,11.35,2022-08-17 14:24:23.421875
2627,14.18,2022-08-17 14:24:23.437500
2628,16.9,2022-08-17 14:24:23.453125
2629,19.18,2022-08-17 14:24:23.468750
2630,20.74,2022-08-17 14:24:23.484375
2631,21.48,2022-08-17 14:24:23.500000
2632,21.43,2022-08-17 14:24:23.515625
2633,20.74,2022-08-17 14:24:23.531250
2634,19.62,2022-08-17 14:24:23.546875
2635,18.25,2022-08-17 14:24:23.562500
2636,16.78,2022-08-17 14:24:23.578125
2637,15.27,2022-08-17 14:24:23.593750
2638,13.82,2022-08-17 14:24:23.609375
2639,12.43,2022-08-17 14:24:23.625000
2640,11.1,2022-08-17 14:24:23.640625
2641,9.83,2022-08-17 14:24:23.656250
2642,8.53,2022-08-17 14:24:23.671875
2643,7.03,2022-08-17 14:24:23.687500
2644,5.07,2022-08-17 14:24:23.703125
2645,2.48,2022-08-17 14:24:23.718750
2646,-0.87,2022-08-17 14:24:23.734375
2647,-4.82,2022-08-17 14:24:23.750000
2648,-9.11,2022-08-17 14:24:23.765625
2649,-13.46,2022-08-17 14:24:23.781250
2650,-17.66,2022-08-17 14:24:23.796875
2651,-21.61,2022-08-17 14:24:23.812500
2652,-25.24,2022-08-17 14:24:23.828125
2653,-28.36,2022-08-17 14:24:23.843750
2654,-30.61,2022-08-17 14:24:23.859375
2655,-31.66,2022-08-17 14:24:23.875000
2656,-31.2,2022-08-17 14:24:23.890625
2657,-29.18,2022-08-17 14:24:23.906250
2658,-25.94,2022-08-17 14:24:23.921875
2659,-21.97,2022-08-17 14:24:23.937500
2660,-17.89,2022-08-17 14:24:23.953125
2661,-14.07,2022-08-17 14:24:23.968750
2662,-10.67,2022-08-17 14:24:23.984375
2663,-7.67,2022-08-17 14:24:24.000000
2664,-5.03,2022-08-17 14:24:24.015625
2665,-2.74,2022-08-17 14:24:24.031250
2666,-0.8,2022-08-17 14:24:24.046875
2667,0.67,2022-08-17 14:24:24.062500
2668,1.67,2022-08-17 14:24:24.078125
2669,2.27,2022-08-17 14:24:24.093750
2670,2.71,2022-08-17 14:24:24.109375
2671,3.19,2022-08-17 14:24:24.125000
2672,3.87,2022-08-17 14:24:24.140625
2673,4.84,2022-08-17 14:24:24.156250
2674,6.05,2022-08-17 14:24:24.171875
2675,7.49,2022-08-17 14:24:24.187500
2676,9.07,2022-08-17 14:24:24.203125
2677,10.81,2022-08-17 14:24:24.218750
2678,12.63,2022-08-17 14:24:24.234375
2679,14.41,2022-08-17 14:24:24.250000
2680,15.99,2022-08-17 14:24:24.265625
2681,17.17,2022-08-17 14:24:24.281250
2682,17.87,2022-08-17 14:24:24.296875
2683,18.08,2022-08-17 14:24:24.312500
2684,17.85,2022-08-17 14:24:24.328125
2685,17.27,2022-08-17 14:24:24.343750
2686,16.48,2022-08-17 14:24:24.359375
2687,15.46,2022-08-17 14:24:24.375000
2688,14.16,2022-08-17 14:24:24.390625
2689,12.56,2022-08-17 14:24:24.406250
2690,10.57,2022-08-17 14:24:24.421875
2691,8.23,2022-08-17 14:24:24.437500
2692,5.54,2022-08-17 14:24:24.453125
2693,2.59,2022-08-17 14:24:24.468750
2694,-0.54,2022-08-17 14:24:24.484375
2695,-3.66,2022-08-17 14:24:24.500000
2696,-6.61,2022-08-17 14:24:24.515625
2697,-9.35,2022-08-17 14:24:24.531250
2698,-11.96,2022-08-17 14:24:24.546875
2699,-14.65,2022-08-17 14:24:24.562500
2700,-17.62,2022-08-17 14:24:24.578125
2701,-20.95,2022-08-17 14:24:24.593750
2702,-24.58,2022-08-17 14:24:24.609375
2703,-28.3,2022-08-17 14:24:24.625000
2704,-31.83,2022-08-17 14:24:24.640625
2705,-34.82,2022-08-17 14:24:24.656250
2706,-37.0,2022-08-17 14:24:24.671875
2707,-37.97,2022-08-17 14:24:24.687500
2708,-37.47,2022-08-17 14:24:24.703125
2709,-35.3,2022-08-17 14:24:24.718750
2710,-31.44,2022-08-17 14:24:24.734375
2711,-26.24,2022-08-17 14:24:24.750000
2712,-20.23,2022-08-17 14:24:24.765625
2713,-14.11,2022-08-17 14:24:24.781250
2714,-8.48,2022-08-17 14:24:24.796875
2715,-3.78,2022-08-17 14:24:24.812500
2716,-0.04,2022-08-17 14:24:24.828125
2717,2.82,2022-08-17 14:24:24.843750
2718,5.09,2022-08-17 14:24:24.859375
2719,7.03,2022-08-17 14:24:24.875000
2720,8.86,2022-08-17 14:24:24.890625
2721,10.72,2022-08-17 14:24:24.906250
2722,12.65,2022-08-17 14:24:24.921875
2723,14.68,2022-08-17 14:24:24.937500
2724,16.8,2022-08-17 14:24:24.953125
2725,19.05,2022-08-17 14:24:24.968750
2726,21.33,2022-08-17 14:24:24.984375
2727,23.51,2022-08-17 14:24:25.000000
2728,25.44,2022-08-17 14:24:25.015625
2729,27.03,2022-08-17 14:24:25.031250
2730,28.24,2022-08-17 14:24:25.046875
2731,29.18,2022-08-17 14:24:25.062500
2732,30.01,2022-08-17 14:24:25.078125
2733,30.8,2022-08-17 14:24:25.093750
2734,31.55,2022-08-17 14:24:25.109375
2735,32.06,2022-08-17 14:24:25.125000
2736,32.05,2022-08-17 14:24:25.140625
2737,31.31,2022-08-17 14:24:25.156250
2738,29.83,2022-08-17 14:24:25.171875
2739,27.74,2022-08-17 14:24:25.187500
2740,25.32,2022-08-17 14:24:25.203125
2741,22.79,2022-08-17 14:24:25.218750
2742,20.26,2022-08-17 14:24:25.234375
2743,17.59,2022-08-17 14:24:25.250000
2744,14.59,2022-08-17 14:24:25.265625
2745,11.12,2022-08-17 14:24:25.281250
2746,7.2,2022-08-17 14:24:25.296875
2747,2.98,2022-08-17 14:24:25.312500
2748,-1.22,2022-08-17 14:24:25.328125
2749,-5.1,2022-08-17 14:24:25.343750
2750,-8.56,2022-08-17 14:24:25.359375
2751,-11.69,2022-08-17 14:24:25.375000
2752,-14.67,2022-08-17 14:24:25.390625
2753,-17.75,2022-08-17 14:24:25.406250
2754,-21.13,2022-08-17 14:24:25.421875
2755,-24.91,2022-08-17 14:24:25.437500
2756,-29.19,2022-08-17 14:24:25.453125
2757,-33.9,2022-08-17 14:24:25.468750
2758,-38.84,2022-08-17 14:24:25.484375
2759,-43.57,2022-08-17 14:24:25.500000
2760,-47.47,2022-08-17 14:24:25.515625
2761,-49.7,2022-08-17 14:24:25.531250
2762,-49.57,2022-08-17 14:24:25.546875
2763,-46.72,2022-08-17 14:24:25.562500
2764,-41.31,2022-08-17 14:24:25.578125
2765,-33.96,2022-08-17 14:24:25.593750
2766,-25.58,2022-08-17 14:24:25.609375
2767,-17.09,2022-08-17 14:24:25.625000
2768,-9.19,2022-08-17 14:24:25.640625
2769,-2.29,2022-08-17 14:24:25.656250
2770,3.54,2022-08-17 14:24:25.671875
2771,8.36,2022-08-17 14:24:25.687500
2772,12.34,2022-08-17 14:24:25.703125
2773,15.56,2022-08-17 14:24:25.718750
2774,18.17,2022-08-17 14:24:25.734375
2775,20.24,2022-08-17 14:24:25.750000
2776,21.85,2022-08-17 14:24:25.765625
2777,23.12,2022-08-17 14:24:25.781250
2778,24.17,2022-08-17 14:24:25.796875
2779,25.07,2022-08-17 14:24:25.812500
2780,25.83,2022-08-17 14:24:25.828125
2781,26.49,2022-08-17 14:24:25.843750
2782,27.01,2022-08-17 14:24:25.859375
2783,27.34,2022-08-17 14:24:25.875000
2784,27.43,2022-08-17 14:24:25.890625
2785,27.22,2022-08-17 14:24:25.906250
2786,26.73,2022-08-17 14:24:25.921875
2787,25.95,2022-08-17 14:24:25.937500
2788,24.84,2022-08-17 14:24:25.953125
2789,23.34,2022-08-17 14:24:25.968750
2790,21.39,2022-08-17 14:24:25.984375
2791,18.92,2022-08-17 14:24:26.000000
2792,15.94,2022-08-17 14:24:26.015625
2793,12.44,2022-08-17 14:24:26.031250
2794,8.48,2022-08-17 14:24:26.046875
2795,4.23,2022-08-17 14:24:26.062500
2796,-0.27,2022-08-17 14:24:26.078125
2797,-4.83,2022-08-17 14:24:26.093750
2798,-9.41,2022-08-17 14:24:26.109375
2799,-13.93,2022-08-17 14:24:26.125000
2800,-18.35,2022-08-17 14:24:26.140625
2801,-22.54,2022-08-17 14:24:26.156250
2802,-26.4,2022-08-17 14:24:26.171875
2803,-29.79,2022-08-17 14:24:26.187500
2804,-32.58,2022-08-17 14:24:26.203125
2805,-34.82,2022-08-17 14:24:26.218750
2806,-36.57,2022-08-17 14:24:26.234375
2807,-38.09,2022-08-17 14:24:26.250000
2808,-39.67,2022-08-17 14:24:26.265625
2809,-41.55,2022-08-17 14:24:26.281250
2810,-43.65,2022-08-17 14:24:26.296875
2811,-45.64,2022-08-17 14:24:26.312500
2812,-46.99,2022-08-17 14:24:26.328125
2813,-47.11,2022-08-17 14:24:26.343750
2814,-45.61,2022-08-17 14:24:26.359375
2815,-42.35,2022-08-17 14:24:26.375000
2816,-37.54,2022-08-17 14:24:26.390625
2817,-31.51,2022-08-17 14:24:26.406250
2818,-24.64,2022-08-17 14:24:26.421875
2819,-17.18,2022-08-17 14:24:26.437500
2820,-9.34,2022-08-17 14:24:26.453125
2821,-1.4,2022-08-17 14:24:26.468750
2822,6.25,2022-08-17 14:24:26.484375
2823,13.02,2022-08-17 14:24:26.500000
2824,18.38,2022-08-17 14:24:26.515625
2825,22.07,2022-08-17 14:24:26.531250
2826,24.12,2022-08-17 14:24:26.546875
2827,24.94,2022-08-17 14:24:26.562500
2828,25.01,2022-08-17 14:24:26.578125
2829,24.78,2022-08-17 14:24:26.593750
2830,24.42,2022-08-17 14:24:26.609375
2831,24.0,2022-08-17 14:24:26.625000
2832,23.44,2022-08-17 14:24:26.640625
2833,22.79,2022-08-17 14:24:26.656250
2834,22.23,2022-08-17 14:24:26.671875
2835,22.02,2022-08-17 14:24:26.687500
2836,22.45,2022-08-17 14:24:26.703125
2837,23.59,2022-08-17 14:24:26.718750
2838,25.31,2022-08-17 14:24:26.734375
2839,27.3,2022-08-17 14:24:26.750000
2840,29.19,2022-08-17 14:24:26.765625
2841,30.63,2022-08-17 14:24:26.781250
2842,31.4,2022-08-17 14:24:26.796875
2843,31.43,2022-08-17 14:24:26.812500
2844,30.79,2022-08-17 14:24:26.828125
2845,29.63,2022-08-17 14:24:26.843750
2846,28.03,2022-08-17 14:24:26.859375
2847,26.03,2022-08-17 14:24:26.875000
2848,23.62,2022-08-17 14:24:26.890625
2849,20.78,2022-08-17 14:24:26.906250
2850,17.59,2022-08-17 14:24:26.921875
2851,14.21,2022-08-17 14:24:26.937500
2852,10.84,2022-08-17 14:24:26.953125
2853,7.61,2022-08-17 14:24:26.968750
2854,4.63,2022-08-17 14:24:26.984375
2855,1.86,2022-08-17 14:24:27.000000
2856,-0.79,2022-08-17 14:24:27.015625
2857,-3.39,2022-08-17 14:24:27.031250
2858,-5.99,2022-08-17 14:24:27.046875
2859,-8.56,2022-08-17 14:24:27.062500
2860,-11.07,2022-08-17 14:24:27.078125
2861,-13.43,2022-08-17 14:24:27.093750
2862,-15.68,2022-08-17 14:24:27.109375
2863,-17.88,2022-08-17 14:24:27.125000
2864,-20.11,2022-08-17 14:24:27.140625
2865,-22.45,2022-08-17 14:24:27.156250
2866,-24.73,2022-08-17 14:24:27.171875
2867,-26.67,2022-08-17 14:24:27.187500
2868,-27.79,2022-08-17 14:24:27.203125
2869,-27.64,2022-08-17 14:24:27.218750
2870,-25.85,2022-08-17 14:24:27.234375
2871,-22.4,2022-08-17 14:24:27.250000
2872,-17.5,2022-08-17 14:24:27.265625
2873,-11.56,2022-08-17 14:24:27.281250
2874,-5.09,2022-08-17 14:24:27.296875
2875,1.54,2022-08-17 14:24:27.312500
2876,7.92,2022-08-17 14:24:27.328125
2877,13.79,2022-08-17 14:24:27.343750
2878,18.87,2022-08-17 14:24:27.359375
2879,22.89,2022-08-17 14:24:27.375000
2880,25.57,2022-08-17 14:24:27.390625
2881,26.78,2022-08-17 14:24:27.406250
2882,26.49,2022-08-17 14:24:27.421875
2883,24.78,2022-08-17 14:24:27.437500
2884,21.96,2022-08-17 14:24:27.453125
2885,18.31,2022-08-17 14:24:27.468750
2886,14.17,2022-08-17 14:24:27.484375
2887,9.79,2022-08-17 14:24:27.500000
2888,5.41,2022-08-17 14:24:27.515625
2889,1.23,2022-08-17 14:24:27.531250
2890,-2.57,2022-08-17 14:24:27.546875
2891,-5.75,2022-08-17 14:24:27.562500
2892,-8.23,2022-08-17 14:24:27.578125
2893,-9.91,2022-08-17 14:24:27.593750
2894,-10.85,2022-08-17 14:24:27.609375
2895,-11.16,2022-08-17 14:24:27.625000
2896,-11.01,2022-08-17 14:24:27.640625
2897,-10.62,2022-08-17 14:24:27.656250
2898,-10.1,2022-08-17 14:24:27.671875
2899,-9.59,2022-08-17 14:24:27.687500
2900,-9.01,2022-08-17 14:24:27.703125
2901,-8.37,2022-08-17 14:24:27.718750
2902,-7.57,2022-08-17 14:24:27.734375
2903,-6.67,2022-08-17 14:24:27.750000
2904,-5.75,2022-08-17 14:24:27.765625
2905,-4.96,2022-08-17 14:24:27.781250
2906,-4.52,2022-08-17 14:24:27.796875
2907,-4.51,2022-08-17 14:24:27.812500
2908,-4.97,2022-08-17 14:24:27.828125
2909,-5.81,2022-08-17 14:24:27.843750
2910,-6.98,2022-08-17 14:24:27.859375
2911,-8.38,2022-08-17 14:24:27.875000
2912,-10.04,2022-08-17 14:24:27.890625
2913,-11.97,2022-08-17 14:24:27.906250
2914,-14.21,2022-08-17 14:24:27.921875
2915,-16.69,2022-08-17 14:24:27.937500
2916,-19.25,2022-08-17 14:24:27.953125
2917,-21.63,2022-08-17 14:24:27.968750
2918,-23.46,2022-08-17 14:24:27.984375
2919,-24.36,2022-08-17 14:24:28.000000
2920,-23.97,2022-08-17 14:24:28.015625
2921,-22.1,2022-08-17 14:24:28.031250
2922,-18.78,2022-08-17 14:24:28.046875
2923,-14.28,2022-08-17 14:24:28.062500
2924,-8.99,2022-08-17 14:24:28.078125
2925,-3.35,2022-08-17 14:24:28.093750
2926,2.24,2022-08-17 14:24:28.109375
2927,7.58,2022-08-17 14:24:28.125000
2928,12.63,2022-08-17 14:24:28.140625
2929,17.35,2022-08-17 14:24:28.156250
2930,21.7,2022-08-17 14:24:28.171875
2931,25.51,2022-08-17 14:24:28.187500
2932,28.52,2022-08-17 14:24:28.203125
2933,30.48,2022-08-17 14:24:28.218750
2934,31.21,2022-08-17 14:24:28.234375
2935,30.71,2022-08-17 14:24:28.250000
2936,29.18,2022-08-17 14:24:28.265625
2937,27.01,2022-08-17 14:24:28.281250
2938,24.58,2022-08-17 14:24:28.296875
2939,22.26,2022-08-17 14:24:28.312500
2940,20.27,2022-08-17 14:24:28.328125
2941,18.71,2022-08-17 14:24:28.343750
2942,17.59,2022-08-17 14:24:28.359375
2943,16.91,2022-08-17 14:24:28.375000
2944,16.68,2022-08-17 14:24:28.390625
2945,16.96,2022-08-17 14:24:28.406250
2946,17.74,2022-08-17 14:24:28.421875
2947,18.87,2022-08-17 14:24:28.437500
2948,20.17,2022-08-17 14:24:28.453125
2949,21.35,2022-08-17 14:24:28.468750
2950,22.21,2022-08-17 14:24:28.484375
2951,22.55,2022-08-17 14:24:28.500000
2952,22.29,2022-08-17 14:24:28.515625
2953,21.37,2022-08-17 14:24:28.531250
2954,19.79,2022-08-17 14:24:28.546875
2955,17.58,2022-08-17 14:24:28.562500
2956,14.74,2022-08-17 14:24:28.578125
2957,11.44,2022-08-17 14:24:28.593750
2958,7.66,2022-08-17 14:24:28.609375
2959,3.45,2022-08-17 14:24:28.625000
2960,-1.16,2022-08-17 14:24:28.640625
2961,-6.13,2022-08-17 14:24:28.656250
2962,-11.47,2022-08-17 14:24:28.671875
2963,-17.13,2022-08-17 14:24:28.687500
2964,-23.09,2022-08-17 14:24:28.703125
2965,-29.3,2022-08-17 14:24:28.718750
2966,-35.62,2022-08-17 14:24:28.734375
2967,-41.97,2022-08-17 14:24:28.750000
2968,-48.11,2022-08-17 14:24:28.765625
2969,-53.65,2022-08-17 14:24:28.781250
2970,-58.14,2022-08-17 14:24:28.796875
2971,-61.04,2022-08-17 14:24:28.812500
2972,-61.86,2022-08-17 14:24:28.828125
2973,-60.29,2022-08-17 14:24:28.843750
2974,-56.29,2022-08-17 14:24:28.859375
2975,-50.11,2022-08-17 14:24:28.875000
2976,-42.29,2022-08-17 14:24:28.890625
2977,-33.55,2022-08-17 14:24:28.906250
2978,-24.53,2022-08-17 14:24:28.921875
2979,-15.89,2022-08-17 14:24:28.937500
2980,-8.0,2022-08-17 14:24:28.953125
2981,-1.15,2022-08-17 14:24:28.968750
2982,4.6,2022-08-17 14:24:28.984375
2983,9.3,2022-08-17 14:24:29.000000
2984,13.07,2022-08-17 14:24:29.015625
2985,16.06,2022-08-17 14:24:29.031250
2986,18.39,2022-08-17 14:24:29.046875
2987,20.23,2022-08-17 14:24:29.062500
2988,21.64,2022-08-17 14:24:29.078125
2989,22.83,2022-08-17 14:24:29.093750
2990,23.88,2022-08-17 14:24:29.109375
2991,24.84,2022-08-17 14:24:29.125000
2992,25.74,2022-08-17 14:24:29.140625
2993,26.52,2022-08-17 14:24:29.156250
2994,27.12,2022-08-17 14:24:29.171875
2995,27.52,2022-08-17 14:24:29.187500
2996,27.73,2022-08-17 14:24:29.203125
2997,27.73,2022-08-17 14:24:29.218750
2998,27.58,2022-08-17 14:24:29.234375
2999,27.23,2022-08-17 14:24:29.250000
3000,26.59,2022-08-17 14:24:29.265625
3001,25.61,2022-08-17 14:24:29.281250
3002,24.29,2022-08-17 14:24:29.296875
3003,22.74,2022-08-17 14:24:29.312500
3004,21.12,2022-08-17 14:24:29.328125
3005,19.58,2022-08-17 14:24:29.343750
3006,18.17,2022-08-17 14:24:29.359375
3007,16.86,2022-08-17 14:24:29.375000
3008,15.51,2022-08-17 14:24:29.390625
3009,13.88,2022-08-17 14:24:29.406250
3010,11.78,2022-08-17 14:24:29.421875
3011,9.09,2022-08-17 14:24:29.437500
3012,5.81,2022-08-17 14:24:29.453125
3013,2.07,2022-08-17 14:24:29.468750
3014,-2.06,2022-08-17 14:24:29.484375
3015,-6.43,2022-08-17 14:24:29.500000
3016,-10.98,2022-08-17 14:24:29.515625
3017,-15.64,2022-08-17 14:24:29.531250
3018,-20.37,2022-08-17 14:24:29.546875
3019,-25.21,2022-08-17 14:24:29.562500
3020,-30.08,2022-08-17 14:24:29.578125
3021,-34.81,2022-08-17 14:24:29.593750
3022,-39.06,2022-08-17 14:24:29.609375
3023,-42.39,2022-08-17 14:24:29.625000
3024,-44.22,2022-08-17 14:24:29.640625
3025,-44.15,2022-08-17 14:24:29.656250
3026,-42.07,2022-08-17 14:24:29.671875
3027,-38.11,2022-08-17 14:24:29.687500
3028,-32.82,2022-08-17 14:24:29.703125
3029,-26.78,2022-08-17 14:24:29.718750
3030,-20.52,2022-08-17 14:24:29.734375
3031,-14.42,2022-08-17 14:24:29.750000
3032,-8.7,2022-08-17 14:24:29.765625
3033,-3.46,2022-08-17 14:24:29.781250
3034,1.2,2022-08-17 14:24:29.796875
3035,5.15,2022-08-17 14:24:29.812500
3036,8.37,2022-08-17 14:24:29.828125
3037,10.9,2022-08-17 14:24:29.843750
3038,12.88,2022-08-17 14:24:29.859375
3039,14.54,2022-08-17 14:24:29.875000
3040,16.04,2022-08-17 14:24:29.890625
3041,17.5,2022-08-17 14:24:29.906250
3042,18.92,2022-08-17 14:24:29.921875
3043,20.28,2022-08-17 14:24:29.937500
3044,21.54,2022-08-17 14:24:29.953125
3045,22.84,2022-08-17 14:24:29.968750
3046,24.25,2022-08-17 14:24:29.984375
3047,25.87,2022-08-17 14:24:30.000000
3048,27.6,2022-08-17 14:24:30.015625
3049,29.2,2022-08-17 14:24:30.031250
3050,30.39,2022-08-17 14:24:30.046875
3051,30.85,2022-08-17 14:24:30.062500
3052,30.42,2022-08-17 14:24:30.078125
3053,29.08,2022-08-17 14:24:30.093750
3054,26.96,2022-08-17 14:24:30.109375
3055,24.26,2022-08-17 14:24:30.125000
3056,21.26,2022-08-17 14:24:30.140625
3057,18.25,2022-08-17 14:24:30.156250
3058,15.39,2022-08-17 14:24:30.171875
3059,12.82,2022-08-17 14:24:30.187500
3060,10.51,2022-08-17 14:24:30.203125
3061,8.33,2022-08-17 14:24:30.218750
3062,6.11,2022-08-17 14:24:30.234375
3063,3.67,2022-08-17 14:24:30.250000
3064,0.87,2022-08-17 14:24:30.265625
3065,-2.3,2022-08-17 14:24:30.281250
3066,-5.82,2022-08-17 14:24:30.296875
3067,-9.6,2022-08-17 14:24:30.312500
3068,-13.62,2022-08-17 14:24:30.328125
3069,-17.85,2022-08-17 14:24:30.343750
3070,-22.28,2022-08-17 14:24:30.359375
3071,-26.83,2022-08-17 14:24:30.375000
3072,-31.41,2022-08-17 14:24:30.390625
3073,-35.92,2022-08-17 14:24:30.406250
3074,-40.2,2022-08-17 14:24:30.421875
3075,-43.98,2022-08-17 14:24:30.437500
3076,-46.86,2022-08-17 14:24:30.453125
3077,-48.4,2022-08-17 14:24:30.468750
3078,-48.1,2022-08-17 14:24:30.484375
3079,-45.66,2022-08-17 14:24:30.500000
3080,-41.05,2022-08-17 14:24:30.515625
3081,-34.6,2022-08-17 14:24:30.531250
3082,-26.96,2022-08-17 14:24:30.546875
3083,-18.92,2022-08-17 14:24:30.562500
3084,-11.19,2022-08-17 14:24:30.578125
3085,-4.19,2022-08-17 14:24:30.593750
3086,1.89,2022-08-17 14:24:30.609375
3087,7.03,2022-08-17 14:24:30.625000
3088,11.34,2022-08-17 14:24:30.640625
3089,14.89,2022-08-17 14:24:30.656250
3090,17.73,2022-08-17 14:24:30.671875
3091,19.81,2022-08-17 14:24:30.687500
3092,21.16,2022-08-17 14:24:30.703125
3093,21.85,2022-08-17 14:24:30.718750
3094,22.1,2022-08-17 14:24:30.734375
3095,22.16,2022-08-17 14:24:30.750000
3096,22.21,2022-08-17 14:24:30.765625
3097,22.36,2022-08-17 14:24:30.781250
3098,22.55,2022-08-17 14:24:30.796875
3099,22.69,2022-08-17 14:24:30.812500
3100,22.68,2022-08-17 14:24:30.828125
3101,22.63,2022-08-17 14:24:30.843750
3102,22.66,2022-08-17 14:24:30.859375
3103,22.95,2022-08-17 14:24:30.875000
3104,23.62,2022-08-17 14:24:30.890625
3105,24.51,2022-08-17 14:24:30.906250
3106,25.38,2022-08-17 14:24:30.921875
3107,25.92,2022-08-17 14:24:30.937500
3108,26.0,2022-08-17 14:24:30.953125
3109,25.6,2022-08-17 14:24:30.968750
3110,24.84,2022-08-17 14:24:30.984375
3111,23.87,2022-08-17 14:24:31.000000
3112,22.65,2022-08-17 14:24:31.015625
3113,21.06,2022-08-17 14:24:31.031250
3114,18.86,2022-08-17 14:24:31.046875
3115,15.94,2022-08-17 14:24:31.062500
3116,12.34,2022-08-17 14:24:31.078125
3117,8.35,2022-08-17 14:24:31.093750
3118,4.26,2022-08-17 14:24:31.109375
3119,0.24,2022-08-17 14:24:31.125000
3120,-3.77,2022-08-17 14:24:31.140625
3121,-7.99,2022-08-17 14:24:31.156250
3122,-12.68,2022-08-17 14:24:31.171875
3123,-17.95,2022-08-17 14:24:31.187500
3124,-23.66,2022-08-17 14:24:31.203125
3125,-29.5,2022-08-17 14:24:31.218750
3126,-35.04,2022-08-17 14:24:31.234375
3127,-39.89,2022-08-17 14:24:31.250000
3128,-43.73,2022-08-17 14:24:31.265625
3129,-46.3,2022-08-17 14:24:31.281250
3130,-47.33,2022-08-17 14:24:31.296875
3131,-46.66,2022-08-17 14:24:31.312500
3132,-44.23,2022-08-17 14:24:31.328125
3133,-40.22,2022-08-17 14:24:31.343750
3134,-35.0,2022-08-17 14:24:31.359375
3135,-29.19,2022-08-17 14:24:31.375000
3136,-23.28,2022-08-17 14:24:31.390625
3137,-17.7,2022-08-17 14:24:31.406250
3138,-12.63,2022-08-17 14:24:31.421875
3139,-8.08,2022-08-17 14:24:31.437500
3140,-3.97,2022-08-17 14:24:31.453125
3141,-0.27,2022-08-17 14:24:31.468750
3142,2.96,2022-08-17 14:24:31.484375
3143,5.68,2022-08-17 14:24:31.500000
3144,7.81,2022-08-17 14:24:31.515625
3145,9.46,2022-08-17 14:24:31.531250
3146,10.74,2022-08-17 14:24:31.546875
3147,11.87,2022-08-17 14:24:31.562500
3148,12.96,2022-08-17 14:24:31.578125
3149,14.07,2022-08-17 14:24:31.593750
3150,15.21,2022-08-17 14:24:31.609375
3151,16.27,2022-08-17 14:24:31.625000
3152,17.18,2022-08-17 14:24:31.640625
3153,17.88,2022-08-17 14:24:31.656250
3154,18.37,2022-08-17 14:24:31.671875
3155,18.61,2022-08-17 14:24:31.687500
3156,18.49,2022-08-17 14:24:31.703125
3157,17.9,2022-08-17 14:24:31.718750
3158,16.76,2022-08-17 14:24:31.734375
3159,15.08,2022-08-17 14:24:31.750000
3160,12.96,2022-08-17 14:24:31.765625
3161,10.63,2022-08-17 14:24:31.781250
3162,8.29,2022-08-17 14:24:31.796875
3163,6.13,2022-08-17 14:24:31.812500
3164,4.17,2022-08-17 14:24:31.828125
3165,2.38,2022-08-17 14:24:31.843750
3166,0.76,2022-08-17 14:24:31.859375
3167,-0.73,2022-08-17 14:24:31.875000
3168,-2.1,2022-08-17 14:24:31.890625
3169,-3.43,2022-08-17 14:24:31.906250
3170,-4.83,2022-08-17 14:24:31.921875
3171,-6.49,2022-08-17 14:24:31.937500
3172,-8.55,2022-08-17 14:24:31.953125
3173,-11.1,2022-08-17 14:24:31.968750
3174,-14.1,2022-08-17 14:24:31.984375
3175,-17.33,2022-08-17 14:24:32.000000
3176,-20.55,2022-08-17 14:24:32.015625
3177,-23.41,2022-08-17 14:24:32.031250
3178,-25.54,2022-08-17 14:24:32.046875
