,BVP,time
0,-104.85,2022-10-28 10:52:36.343750
1,-151.46,2022-10-28 10:52:36.359375
2,-186.19,2022-10-28 10:52:36.375000
3,-204.76,2022-10-28 10:52:36.390625
4,-204.41,2022-10-28 10:52:36.406250
5,-185.6,2022-10-28 10:52:36.421875
6,-151.79,2022-10-28 10:52:36.437500
7,-109.79,2022-10-28 10:52:36.453125
8,-67.83,2022-10-28 10:52:36.468750
9,-34.26,2022-10-28 10:52:36.484375
10,-15.04,2022-10-28 10:52:36.500000
11,-12.52,2022-10-28 10:52:36.515625
12,-25.51,2022-10-28 10:52:36.531250
13,-48.66,2022-10-28 10:52:36.546875
14,-73.99,2022-10-28 10:52:36.562500
15,-92.01,2022-10-28 10:52:36.578125
16,-95.47,2022-10-28 10:52:36.593750
17,-81.14,2022-10-28 10:52:36.609375
18,-50.71,2022-10-28 10:52:36.625000
19,-10.42,2022-10-28 10:52:36.640625
20,32.63,2022-10-28 10:52:36.656250
21,72.98,2022-10-28 10:52:36.671875
22,109.03,2022-10-28 10:52:36.687500
23,142.31,2022-10-28 10:52:36.703125
24,176.6,2022-10-28 10:52:36.718750
25,215.77,2022-10-28 10:52:36.734375
26,261.27,2022-10-28 10:52:36.750000
27,310.71,2022-10-28 10:52:36.765625
28,357.35,2022-10-28 10:52:36.781250
29,391.95,2022-10-28 10:52:36.796875
30,404.67,2022-10-28 10:52:36.812500
31,388.39,2022-10-28 10:52:36.828125
32,341.2,2022-10-28 10:52:36.843750
33,267.4,2022-10-28 10:52:36.859375
34,176.68,2022-10-28 10:52:36.875000
35,82.45,2022-10-28 10:52:36.890625
36,-1.31,2022-10-28 10:52:36.906250
37,-63.01,2022-10-28 10:52:36.921875
38,-95.08,2022-10-28 10:52:36.937500
39,-96.12,2022-10-28 10:52:36.953125
40,-70.98,2022-10-28 10:52:36.968750
41,-29.4,2022-10-28 10:52:36.984375
42,17.61,2022-10-28 10:52:37.000000
43,61.59,2022-10-28 10:52:37.015625
44,99.51,2022-10-28 10:52:37.031250
45,133.71,2022-10-28 10:52:37.046875
46,168.57,2022-10-28 10:52:37.062500
47,207.23,2022-10-28 10:52:37.078125
48,248.9,2022-10-28 10:52:37.093750
49,289.28,2022-10-28 10:52:37.109375
50,323.33,2022-10-28 10:52:37.125000
51,347.32,2022-10-28 10:52:37.140625
52,359.12,2022-10-28 10:52:37.156250
53,357.15,2022-10-28 10:52:37.171875
54,339.31,2022-10-28 10:52:37.187500
55,303.13,2022-10-28 10:52:37.203125
56,246.98,2022-10-28 10:52:37.218750
57,171.4,2022-10-28 10:52:37.234375
58,78.64,2022-10-28 10:52:37.250000
59,-27.72,2022-10-28 10:52:37.265625
60,-144.49,2022-10-28 10:52:37.281250
61,-268.15,2022-10-28 10:52:37.296875
62,-393.28,2022-10-28 10:52:37.312500
63,-512.5,2022-10-28 10:52:37.328125
64,-616.64,2022-10-28 10:52:37.343750
65,-697.37,2022-10-28 10:52:37.359375
66,-750.18,2022-10-28 10:52:37.375000
67,-775.9,2022-10-28 10:52:37.390625
68,-780.1,2022-10-28 10:52:37.406250
69,-769.82,2022-10-28 10:52:37.421875
70,-749.24,2022-10-28 10:52:37.437500
71,-718.6,2022-10-28 10:52:37.453125
72,-675.91,2022-10-28 10:52:37.468750
73,-620.06,2022-10-28 10:52:37.484375
74,-553.92,2022-10-28 10:52:37.500000
75,-484.25,2022-10-28 10:52:37.515625
76,-418.58,2022-10-28 10:52:37.531250
77,-361.74,2022-10-28 10:52:37.546875
78,-313.71,2022-10-28 10:52:37.562500
79,-270.23,2022-10-28 10:52:37.578125
80,-224.89,2022-10-28 10:52:37.593750
81,-172.47,2022-10-28 10:52:37.609375
82,-110.2,2022-10-28 10:52:37.625000
83,-37.16,2022-10-28 10:52:37.640625
84,47.55,2022-10-28 10:52:37.656250
85,145.51,2022-10-28 10:52:37.671875
86,257.47,2022-10-28 10:52:37.687500
87,381.58,2022-10-28 10:52:37.703125
88,511.68,2022-10-28 10:52:37.718750
89,638.87,2022-10-28 10:52:37.734375
90,754.25,2022-10-28 10:52:37.750000
91,851.97,2022-10-28 10:52:37.765625
92,928.89,2022-10-28 10:52:37.781250
93,982.62,2022-10-28 10:52:37.796875
94,1009.41,2022-10-28 10:52:37.812500
95,1003.3,2022-10-28 10:52:37.828125
96,957.96,2022-10-28 10:52:37.843750
97,869.44,2022-10-28 10:52:37.859375
98,740.03,2022-10-28 10:52:37.875000
99,578.75,2022-10-28 10:52:37.890625
100,399.95,2022-10-28 10:52:37.906250
101,219.52,2022-10-28 10:52:37.921875
102,51.03,2022-10-28 10:52:37.937500
103,-97.08,2022-10-28 10:52:37.953125
104,-222.45,2022-10-28 10:52:37.968750
105,-326.99,2022-10-28 10:52:37.984375
106,-415.09,2022-10-28 10:52:38.000000
107,-491.68,2022-10-28 10:52:38.015625
108,-560.94,2022-10-28 10:52:38.031250
109,-625.58,2022-10-28 10:52:38.046875
110,-686.05,2022-10-28 10:52:38.062500
111,-742.08,2022-10-28 10:52:38.078125
112,-792.75,2022-10-28 10:52:38.093750
113,-838.26,2022-10-28 10:52:38.109375
114,-879.36,2022-10-28 10:52:38.125000
115,-916.56,2022-10-28 10:52:38.140625
116,-947.62,2022-10-28 10:52:38.156250
117,-966.47,2022-10-28 10:52:38.171875
118,-964.86,2022-10-28 10:52:38.187500
119,-935.09,2022-10-28 10:52:38.203125
120,-873.6,2022-10-28 10:52:38.218750
121,-783.32,2022-10-28 10:52:38.234375
122,-672.87,2022-10-28 10:52:38.250000
123,-553.52,2022-10-28 10:52:38.265625
124,-435.36,2022-10-28 10:52:38.281250
125,-324.24,2022-10-28 10:52:38.296875
126,-220.75,2022-10-28 10:52:38.312500
127,-121.63,2022-10-28 10:52:38.328125
128,-21.52,2022-10-28 10:52:38.343750
129,83.66,2022-10-28 10:52:38.359375
130,195.56,2022-10-28 10:52:38.375000
131,313.06,2022-10-28 10:52:38.390625
132,431.63,2022-10-28 10:52:38.406250
133,545.03,2022-10-28 10:52:38.421875
134,645.8,2022-10-28 10:52:38.437500
135,727.89,2022-10-28 10:52:38.453125
136,786.99,2022-10-28 10:52:38.468750
137,821.18,2022-10-28 10:52:38.484375
138,830.02,2022-10-28 10:52:38.500000
139,814.64,2022-10-28 10:52:38.515625
140,778.0,2022-10-28 10:52:38.531250
141,724.94,2022-10-28 10:52:38.546875
142,662.38,2022-10-28 10:52:38.562500
143,596.54,2022-10-28 10:52:38.578125
144,530.75,2022-10-28 10:52:38.593750
145,463.66,2022-10-28 10:52:38.609375
146,390.9,2022-10-28 10:52:38.625000
147,308.0,2022-10-28 10:52:38.640625
148,213.24,2022-10-28 10:52:38.656250
149,109.23,2022-10-28 10:52:38.671875
150,0.89,2022-10-28 10:52:38.687500
151,-107.05,2022-10-28 10:52:38.703125
152,-212.79,2022-10-28 10:52:38.718750
153,-316.54,2022-10-28 10:52:38.734375
154,-418.28,2022-10-28 10:52:38.750000
155,-514.67,2022-10-28 10:52:38.765625
156,-598.75,2022-10-28 10:52:38.781250
157,-663.07,2022-10-28 10:52:38.796875
158,-703.51,2022-10-28 10:52:38.812500
159,-721.23,2022-10-28 10:52:38.828125
160,-720.56,2022-10-28 10:52:38.843750
161,-704.24,2022-10-28 10:52:38.859375
162,-670.01,2022-10-28 10:52:38.875000
163,-611.37,2022-10-28 10:52:38.890625
164,-522.4,2022-10-28 10:52:38.906250
165,-403.5,2022-10-28 10:52:38.921875
166,-264.98,2022-10-28 10:52:38.937500
167,-124.29,2022-10-28 10:52:38.953125
168,-0.19,2022-10-28 10:52:38.968750
169,95.61,2022-10-28 10:52:38.984375
170,162.76,2022-10-28 10:52:39.000000
171,211.41,2022-10-28 10:52:39.015625
172,256.51,2022-10-28 10:52:39.031250
173,310.77,2022-10-28 10:52:39.046875
174,378.45,2022-10-28 10:52:39.062500
175,455.33,2022-10-28 10:52:39.078125
176,531.2,2022-10-28 10:52:39.093750
177,594.46,2022-10-28 10:52:39.109375
178,635.92,2022-10-28 10:52:39.125000
179,650.11,2022-10-28 10:52:39.140625
180,635.84,2022-10-28 10:52:39.156250
181,595.75,2022-10-28 10:52:39.171875
182,535.47,2022-10-28 10:52:39.187500
183,463.79,2022-10-28 10:52:39.203125
184,391.44,2022-10-28 10:52:39.218750
185,329.78,2022-10-28 10:52:39.234375
186,288.09,2022-10-28 10:52:39.250000
187,270.75,2022-10-28 10:52:39.265625
188,275.16,2022-10-28 10:52:39.281250
189,292.52,2022-10-28 10:52:39.296875
190,310.45,2022-10-28 10:52:39.312500
191,318.13,2022-10-28 10:52:39.328125
192,310.44,2022-10-28 10:52:39.343750
193,288.79,2022-10-28 10:52:39.359375
194,259.93,2022-10-28 10:52:39.375000
195,231.1,2022-10-28 10:52:39.390625
196,206.76,2022-10-28 10:52:39.406250
197,186.79,2022-10-28 10:52:39.421875
198,167.5,2022-10-28 10:52:39.437500
199,144.46,2022-10-28 10:52:39.453125
200,115.53,2022-10-28 10:52:39.468750
201,81.27,2022-10-28 10:52:39.484375
202,44.12,2022-10-28 10:52:39.500000
203,5.97,2022-10-28 10:52:39.515625
204,-34.14,2022-10-28 10:52:39.531250
205,-79.31,2022-10-28 10:52:39.546875
206,-133.35,2022-10-28 10:52:39.562500
207,-197.95,2022-10-28 10:52:39.578125
208,-270.88,2022-10-28 10:52:39.593750
209,-345.23,2022-10-28 10:52:39.609375
210,-410.73,2022-10-28 10:52:39.625000
211,-456.47,2022-10-28 10:52:39.640625
212,-474.23,2022-10-28 10:52:39.656250
213,-462.22,2022-10-28 10:52:39.671875
214,-426.24,2022-10-28 10:52:39.687500
215,-378.24,2022-10-28 10:52:39.703125
216,-331.71,2022-10-28 10:52:39.718750
217,-296.4,2022-10-28 10:52:39.734375
218,-275.0,2022-10-28 10:52:39.750000
219,-262.2,2022-10-28 10:52:39.765625
220,-248.11,2022-10-28 10:52:39.781250
221,-222.56,2022-10-28 10:52:39.796875
222,-179.34,2022-10-28 10:52:39.812500
223,-118.09,2022-10-28 10:52:39.828125
224,-43.53,2022-10-28 10:52:39.843750
225,36.48,2022-10-28 10:52:39.859375
226,113.65,2022-10-28 10:52:39.875000
227,181.4,2022-10-28 10:52:39.890625
228,235.62,2022-10-28 10:52:39.906250
229,274.55,2022-10-28 10:52:39.921875
230,299.16,2022-10-28 10:52:39.937500
231,311.64,2022-10-28 10:52:39.953125
232,314.79,2022-10-28 10:52:39.968750
233,309.85,2022-10-28 10:52:39.984375
234,296.41,2022-10-28 10:52:40.000000
235,273.02,2022-10-28 10:52:40.015625
236,238.62,2022-10-28 10:52:40.031250
237,193.97,2022-10-28 10:52:40.046875
238,142.13,2022-10-28 10:52:40.062500
239,87.34,2022-10-28 10:52:40.078125
240,33.35,2022-10-28 10:52:40.093750
241,-18.51,2022-10-28 10:52:40.109375
242,-70.37,2022-10-28 10:52:40.125000
243,-127.42,2022-10-28 10:52:40.140625
244,-195.39,2022-10-28 10:52:40.156250
245,-277.81,2022-10-28 10:52:40.171875
246,-373.45,2022-10-28 10:52:40.187500
247,-475.69,2022-10-28 10:52:40.203125
248,-574.38,2022-10-28 10:52:40.218750
249,-658.13,2022-10-28 10:52:40.234375
250,-717.7,2022-10-28 10:52:40.250000
251,-748.31,2022-10-28 10:52:40.265625
252,-750.24,2022-10-28 10:52:40.281250
253,-728.7,2022-10-28 10:52:40.296875
254,-691.08,2022-10-28 10:52:40.312500
255,-644.47,2022-10-28 10:52:40.328125
256,-593.87,2022-10-28 10:52:40.343750
257,-541.05,2022-10-28 10:52:40.359375
258,-486.22,2022-10-28 10:52:40.375000
259,-429.71,2022-10-28 10:52:40.390625
260,-373.14,2022-10-28 10:52:40.406250
261,-319.82,2022-10-28 10:52:40.421875
262,-273.84,2022-10-28 10:52:40.437500
263,-238.05,2022-10-28 10:52:40.453125
264,-211.3,2022-10-28 10:52:40.468750
265,-188.14,2022-10-28 10:52:40.484375
266,-159.44,2022-10-28 10:52:40.500000
267,-116.34,2022-10-28 10:52:40.515625
268,-54.14,2022-10-28 10:52:40.531250
269,24.05,2022-10-28 10:52:40.546875
270,108.19,2022-10-28 10:52:40.562500
271,185.29,2022-10-28 10:52:40.578125
272,245.92,2022-10-28 10:52:40.593750
273,289.39,2022-10-28 10:52:40.609375
274,325.34,2022-10-28 10:52:40.625000
275,369.62,2022-10-28 10:52:40.640625
276,436.15,2022-10-28 10:52:40.656250
277,529.77,2022-10-28 10:52:40.671875
278,644.17,2022-10-28 10:52:40.687500
279,764.36,2022-10-28 10:52:40.703125
280,872.56,2022-10-28 10:52:40.718750
281,954.03,2022-10-28 10:52:40.734375
282,1000.33,2022-10-28 10:52:40.750000
283,1008.71,2022-10-28 10:52:40.765625
284,981.28,2022-10-28 10:52:40.781250
285,923.08,2022-10-28 10:52:40.796875
286,841.93,2022-10-28 10:52:40.812500
287,747.03,2022-10-28 10:52:40.828125
288,646.95,2022-10-28 10:52:40.843750
289,547.91,2022-10-28 10:52:40.859375
290,452.47,2022-10-28 10:52:40.875000
291,360.51,2022-10-28 10:52:40.890625
292,270.09,2022-10-28 10:52:40.906250
293,179.45,2022-10-28 10:52:40.921875
294,86.91,2022-10-28 10:52:40.937500
295,-10.09,2022-10-28 10:52:40.953125
296,-113.76,2022-10-28 10:52:40.968750
297,-223.82,2022-10-28 10:52:40.984375
298,-334.83,2022-10-28 10:52:41.000000
299,-435.24,2022-10-28 10:52:41.015625
300,-509.96,2022-10-28 10:52:41.031250
301,-546.41,2022-10-28 10:52:41.046875
302,-539.3,2022-10-28 10:52:41.062500
303,-493.87,2022-10-28 10:52:41.078125
304,-423.69,2022-10-28 10:52:41.093750
305,-345.9,2022-10-28 10:52:41.109375
306,-275.72,2022-10-28 10:52:41.125000
307,-222.74,2022-10-28 10:52:41.140625
308,-189.71,2022-10-28 10:52:41.156250
309,-174.21,2022-10-28 10:52:41.171875
310,-170.85,2022-10-28 10:52:41.187500
311,-173.29,2022-10-28 10:52:41.203125
312,-175.82,2022-10-28 10:52:41.218750
313,-174.18,2022-10-28 10:52:41.234375
314,-165.62,2022-10-28 10:52:41.250000
315,-149.29,2022-10-28 10:52:41.265625
316,-125.78,2022-10-28 10:52:41.281250
317,-98.23,2022-10-28 10:52:41.296875
318,-72.37,2022-10-28 10:52:41.312500
319,-55.91,2022-10-28 10:52:41.328125
320,-55.97,2022-10-28 10:52:41.343750
321,-76.21,2022-10-28 10:52:41.359375
322,-114.08,2022-10-28 10:52:41.375000
323,-160.87,2022-10-28 10:52:41.390625
324,-204.79,2022-10-28 10:52:41.406250
325,-235.36,2022-10-28 10:52:41.421875
326,-246.94,2022-10-28 10:52:41.437500
327,-239.38,2022-10-28 10:52:41.453125
328,-216.66,2022-10-28 10:52:41.468750
329,-182.71,2022-10-28 10:52:41.484375
330,-139.74,2022-10-28 10:52:41.500000
331,-87.32,2022-10-28 10:52:41.515625
332,-25.02,2022-10-28 10:52:41.531250
333,44.67,2022-10-28 10:52:41.546875
334,116.44,2022-10-28 10:52:41.562500
335,182.33,2022-10-28 10:52:41.578125
336,235.01,2022-10-28 10:52:41.593750
337,270.6,2022-10-28 10:52:41.609375
338,289.98,2022-10-28 10:52:41.625000
339,297.38,2022-10-28 10:52:41.640625
340,298.61,2022-10-28 10:52:41.656250
341,298.18,2022-10-28 10:52:41.671875
342,298.08,2022-10-28 10:52:41.687500
343,298.59,2022-10-28 10:52:41.703125
344,298.86,2022-10-28 10:52:41.718750
345,298.4,2022-10-28 10:52:41.734375
346,296.33,2022-10-28 10:52:41.750000
347,290.73,2022-10-28 10:52:41.765625
348,279.43,2022-10-28 10:52:41.781250
349,261.69,2022-10-28 10:52:41.796875
350,240.73,2022-10-28 10:52:41.812500
351,223.16,2022-10-28 10:52:41.828125
352,215.56,2022-10-28 10:52:41.843750
353,219.85,2022-10-28 10:52:41.859375
354,231.7,2022-10-28 10:52:41.875000
355,241.45,2022-10-28 10:52:41.890625
356,239.78,2022-10-28 10:52:41.906250
357,223.49,2022-10-28 10:52:41.921875
358,196.63,2022-10-28 10:52:41.937500
359,167.97,2022-10-28 10:52:41.953125
360,144.58,2022-10-28 10:52:41.968750
361,128.1,2022-10-28 10:52:41.984375
362,114.04,2022-10-28 10:52:42.000000
363,96.51,2022-10-28 10:52:42.015625
364,73.84,2022-10-28 10:52:42.031250
365,49.88,2022-10-28 10:52:42.046875
366,31.52,2022-10-28 10:52:42.062500
367,22.64,2022-10-28 10:52:42.078125
368,20.6,2022-10-28 10:52:42.093750
369,16.68,2022-10-28 10:52:42.109375
370,2.12,2022-10-28 10:52:42.125000
371,-26.15,2022-10-28 10:52:42.140625
372,-62.27,2022-10-28 10:52:42.156250
373,-94.91,2022-10-28 10:52:42.171875
374,-113.46,2022-10-28 10:52:42.187500
375,-114.3,2022-10-28 10:52:42.203125
376,-103.69,2022-10-28 10:52:42.218750
377,-94.08,2022-10-28 10:52:42.234375
378,-97.58,2022-10-28 10:52:42.250000
379,-119.37,2022-10-28 10:52:42.265625
380,-154.66,2022-10-28 10:52:42.281250
381,-192.79,2022-10-28 10:52:42.296875
382,-224.73,2022-10-28 10:52:42.312500
383,-248.19,2022-10-28 10:52:42.328125
384,-269.09,2022-10-28 10:52:42.343750
385,-297.31,2022-10-28 10:52:42.359375
386,-338.97,2022-10-28 10:52:42.375000
387,-392.11,2022-10-28 10:52:42.390625
388,-446.53,2022-10-28 10:52:42.406250
389,-488.56,2022-10-28 10:52:42.421875
390,-507.28,2022-10-28 10:52:42.437500
391,-498.66,2022-10-28 10:52:42.453125
392,-467.26,2022-10-28 10:52:42.468750
393,-422.53,2022-10-28 10:52:42.484375
394,-374.61,2022-10-28 10:52:42.500000
395,-330.4,2022-10-28 10:52:42.515625
396,-292.14,2022-10-28 10:52:42.531250
397,-259.05,2022-10-28 10:52:42.546875
398,-229.3,2022-10-28 10:52:42.562500
399,-202.88,2022-10-28 10:52:42.578125
400,-181.24,2022-10-28 10:52:42.593750
401,-166.21,2022-10-28 10:52:42.609375
402,-158.17,2022-10-28 10:52:42.625000
403,-154.73,2022-10-28 10:52:42.640625
404,-150.98,2022-10-28 10:52:42.656250
405,-141.4,2022-10-28 10:52:42.671875
406,-122.35,2022-10-28 10:52:42.687500
407,-93.34,2022-10-28 10:52:42.703125
408,-57.48,2022-10-28 10:52:42.718750
409,-19.41,2022-10-28 10:52:42.734375
410,16.7,2022-10-28 10:52:42.750000
411,48.83,2022-10-28 10:52:42.765625
412,77.19,2022-10-28 10:52:42.781250
413,102.75,2022-10-28 10:52:42.796875
414,124.69,2022-10-28 10:52:42.812500
415,139.72,2022-10-28 10:52:42.828125
416,142.85,2022-10-28 10:52:42.843750
417,130.16,2022-10-28 10:52:42.859375
418,102.26,2022-10-28 10:52:42.875000
419,65.23,2022-10-28 10:52:42.890625
420,28.36,2022-10-28 10:52:42.906250
421,0.37,2022-10-28 10:52:42.921875
422,-15.62,2022-10-28 10:52:42.937500
423,-22.08,2022-10-28 10:52:42.953125
424,-25.17,2022-10-28 10:52:42.968750
425,-28.68,2022-10-28 10:52:42.984375
426,-30.83,2022-10-28 10:52:43.000000
427,-24.69,2022-10-28 10:52:43.015625
428,-1.92,2022-10-28 10:52:43.031250
429,40.73,2022-10-28 10:52:43.046875
430,98.74,2022-10-28 10:52:43.062500
431,161.21,2022-10-28 10:52:43.078125
432,214.68,2022-10-28 10:52:43.093750
433,248.2,2022-10-28 10:52:43.109375
434,255.58,2022-10-28 10:52:43.125000
435,235.66,2022-10-28 10:52:43.140625
436,190.66,2022-10-28 10:52:43.156250
437,125.15,2022-10-28 10:52:43.171875
438,44.61,2022-10-28 10:52:43.187500
439,-44.37,2022-10-28 10:52:43.203125
440,-134.79,2022-10-28 10:52:43.218750
441,-219.18,2022-10-28 10:52:43.234375
442,-291.11,2022-10-28 10:52:43.250000
443,-346.69,2022-10-28 10:52:43.265625
444,-385.3,2022-10-28 10:52:43.281250
445,-408.95,2022-10-28 10:52:43.296875
446,-420.86,2022-10-28 10:52:43.312500
447,-422.44,2022-10-28 10:52:43.328125
448,-411.24,2022-10-28 10:52:43.343750
449,-381.35,2022-10-28 10:52:43.359375
450,-326.52,2022-10-28 10:52:43.375000
451,-244.03,2022-10-28 10:52:43.390625
452,-138.2,2022-10-28 10:52:43.406250
453,-19.02,2022-10-28 10:52:43.421875
454,100.05,2022-10-28 10:52:43.437500
455,207.25,2022-10-28 10:52:43.453125
456,295.73,2022-10-28 10:52:43.468750
457,365.19,2022-10-28 10:52:43.484375
458,420.49,2022-10-28 10:52:43.500000
459,468.28,2022-10-28 10:52:43.515625
460,514.37,2022-10-28 10:52:43.531250
461,562.32,2022-10-28 10:52:43.546875
462,612.8,2022-10-28 10:52:43.562500
463,664.37,2022-10-28 10:52:43.578125
464,713.74,2022-10-28 10:52:43.593750
465,756.0,2022-10-28 10:52:43.609375
466,785.64,2022-10-28 10:52:43.625000
467,797.94,2022-10-28 10:52:43.640625
468,790.87,2022-10-28 10:52:43.656250
469,766.59,2022-10-28 10:52:43.671875
470,730.67,2022-10-28 10:52:43.687500
471,689.32,2022-10-28 10:52:43.703125
472,646.51,2022-10-28 10:52:43.718750
473,601.86,2022-10-28 10:52:43.734375
474,550.73,2022-10-28 10:52:43.750000
475,488.02,2022-10-28 10:52:43.765625
476,411.41,2022-10-28 10:52:43.781250
477,324.51,2022-10-28 10:52:43.796875
478,235.9,2022-10-28 10:52:43.812500
479,155.15,2022-10-28 10:52:43.828125
480,88.01,2022-10-28 10:52:43.843750
481,33.89,2022-10-28 10:52:43.859375
482,-12.48,2022-10-28 10:52:43.875000
483,-57.16,2022-10-28 10:52:43.890625
484,-103.28,2022-10-28 10:52:43.906250
485,-149.22,2022-10-28 10:52:43.921875
486,-190.7,2022-10-28 10:52:43.937500
487,-225.08,2022-10-28 10:52:43.953125
488,-254.38,2022-10-28 10:52:43.968750
489,-285.11,2022-10-28 10:52:43.984375
490,-324.22,2022-10-28 10:52:44.000000
491,-374.41,2022-10-28 10:52:44.015625
492,-431.9,2022-10-28 10:52:44.031250
493,-487.15,2022-10-28 10:52:44.046875
494,-530.73,2022-10-28 10:52:44.062500
495,-557.16,2022-10-28 10:52:44.078125
496,-566.86,2022-10-28 10:52:44.093750
497,-564.63,2022-10-28 10:52:44.109375
498,-556.24,2022-10-28 10:52:44.125000
499,-545.85,2022-10-28 10:52:44.140625
500,-535.14,2022-10-28 10:52:44.156250
501,-524.29,2022-10-28 10:52:44.171875
502,-512.32,2022-10-28 10:52:44.187500
503,-497.83,2022-10-28 10:52:44.203125
504,-478.15,2022-10-28 10:52:44.218750
505,-448.47,2022-10-28 10:52:44.234375
506,-403.82,2022-10-28 10:52:44.250000
507,-340.43,2022-10-28 10:52:44.265625
508,-258.55,2022-10-28 10:52:44.281250
509,-163.83,2022-10-28 10:52:44.296875
510,-66.02,2022-10-28 10:52:44.312500
511,23.53,2022-10-28 10:52:44.328125
512,95.16,2022-10-28 10:52:44.343750
513,142.37,2022-10-28 10:52:44.359375
514,162.72,2022-10-28 10:52:44.375000
515,156.55,2022-10-28 10:52:44.390625
516,127.11,2022-10-28 10:52:44.406250
517,79.52,2022-10-28 10:52:44.421875
518,20.03,2022-10-28 10:52:44.437500
519,-44.64,2022-10-28 10:52:44.453125
520,-108.91,2022-10-28 10:52:44.468750
521,-169.42,2022-10-28 10:52:44.484375
522,-224.55,2022-10-28 10:52:44.500000
523,-273.54,2022-10-28 10:52:44.515625
524,-315.34,2022-10-28 10:52:44.531250
525,-347.47,2022-10-28 10:52:44.546875
526,-366.99,2022-10-28 10:52:44.562500
527,-371.23,2022-10-28 10:52:44.578125
528,-358.76,2022-10-28 10:52:44.593750
529,-329.25,2022-10-28 10:52:44.609375
530,-283.09,2022-10-28 10:52:44.625000
531,-220.49,2022-10-28 10:52:44.640625
532,-142.98,2022-10-28 10:52:44.656250
533,-55.04,2022-10-28 10:52:44.671875
534,35.75,2022-10-28 10:52:44.687500
535,120.25,2022-10-28 10:52:44.703125
536,191.53,2022-10-28 10:52:44.718750
537,248.64,2022-10-28 10:52:44.734375
538,296.75,2022-10-28 10:52:44.750000
539,344.7,2022-10-28 10:52:44.765625
540,399.75,2022-10-28 10:52:44.781250
541,463.38,2022-10-28 10:52:44.796875
542,530.41,2022-10-28 10:52:44.812500
543,591.73,2022-10-28 10:52:44.828125
544,638.45,2022-10-28 10:52:44.843750
545,666.35,2022-10-28 10:52:44.859375
546,677.08,2022-10-28 10:52:44.875000
547,675.8,2022-10-28 10:52:44.890625
548,668.37,2022-10-28 10:52:44.906250
549,657.84,2022-10-28 10:52:44.921875
550,643.13,2022-10-28 10:52:44.937500
551,620.28,2022-10-28 10:52:44.953125
552,584.43,2022-10-28 10:52:44.968750
553,533.0,2022-10-28 10:52:44.984375
554,466.43,2022-10-28 10:52:45.000000
555,386.98,2022-10-28 10:52:45.015625
556,297.49,2022-10-28 10:52:45.031250
557,200.77,2022-10-28 10:52:45.046875
558,99.88,2022-10-28 10:52:45.062500
559,-0.73,2022-10-28 10:52:45.078125
560,-93.77,2022-10-28 10:52:45.093750
561,-170.06,2022-10-28 10:52:45.109375
562,-221.8,2022-10-28 10:52:45.125000
563,-245.71,2022-10-28 10:52:45.140625
564,-244.78,2022-10-28 10:52:45.156250
565,-228.06,2022-10-28 10:52:45.171875
566,-207.06,2022-10-28 10:52:45.187500
567,-191.59,2022-10-28 10:52:45.203125
568,-186.88,2022-10-28 10:52:45.218750
569,-192.46,2022-10-28 10:52:45.234375
570,-204.56,2022-10-28 10:52:45.250000
571,-218.27,2022-10-28 10:52:45.265625
572,-230.81,2022-10-28 10:52:45.281250
573,-241.67,2022-10-28 10:52:45.296875
574,-252.64,2022-10-28 10:52:45.312500
575,-265.74,2022-10-28 10:52:45.328125
576,-282.87,2022-10-28 10:52:45.343750
577,-304.88,2022-10-28 10:52:45.359375
578,-332.02,2022-10-28 10:52:45.375000
579,-364.08,2022-10-28 10:52:45.390625
580,-399.03,2022-10-28 10:52:45.406250
581,-432.66,2022-10-28 10:52:45.421875
582,-459.18,2022-10-28 10:52:45.437500
583,-472.6,2022-10-28 10:52:45.453125
584,-470.42,2022-10-28 10:52:45.468750
585,-455.35,2022-10-28 10:52:45.484375
586,-433.84,2022-10-28 10:52:45.500000
587,-413.3,2022-10-28 10:52:45.515625
588,-398.4,2022-10-28 10:52:45.531250
589,-388.06,2022-10-28 10:52:45.546875
590,-376.91,2022-10-28 10:52:45.562500
591,-358.59,2022-10-28 10:52:45.578125
592,-329.4,2022-10-28 10:52:45.593750
593,-290.65,2022-10-28 10:52:45.609375
594,-247.26,2022-10-28 10:52:45.625000
595,-206.22,2022-10-28 10:52:45.640625
596,-173.47,2022-10-28 10:52:45.656250
597,-154.29,2022-10-28 10:52:45.671875
598,-152.79,2022-10-28 10:52:45.687500
599,-171.38,2022-10-28 10:52:45.703125
600,-209.14,2022-10-28 10:52:45.718750
601,-258.81,2022-10-28 10:52:45.734375
602,-306.98,2022-10-28 10:52:45.750000
603,-335.98,2022-10-28 10:52:45.765625
604,-329.95,2022-10-28 10:52:45.781250
605,-280.52,2022-10-28 10:52:45.796875
606,-190.73,2022-10-28 10:52:45.812500
607,-74.64,2022-10-28 10:52:45.828125
608,47.68,2022-10-28 10:52:45.843750
609,158.18,2022-10-28 10:52:45.859375
610,247.74,2022-10-28 10:52:45.875000
611,317.69,2022-10-28 10:52:45.890625
612,377.12,2022-10-28 10:52:45.906250
613,436.14,2022-10-28 10:52:45.921875
614,499.72,2022-10-28 10:52:45.937500
615,565.84,2022-10-28 10:52:45.953125
616,627.31,2022-10-28 10:52:45.968750
617,675.85,2022-10-28 10:52:45.984375
618,705.66,2022-10-28 10:52:46.000000
619,714.74,2022-10-28 10:52:46.015625
620,704.2,2022-10-28 10:52:46.031250
621,676.49,2022-10-28 10:52:46.046875
622,634.21,2022-10-28 10:52:46.062500
623,580.06,2022-10-28 10:52:46.078125
624,518.36,2022-10-28 10:52:46.093750
625,454.79,2022-10-28 10:52:46.109375
626,395.59,2022-10-28 10:52:46.125000
627,344.37,2022-10-28 10:52:46.140625
628,301.0,2022-10-28 10:52:46.156250
629,260.68,2022-10-28 10:52:46.171875
630,217.53,2022-10-28 10:52:46.187500
631,167.33,2022-10-28 10:52:46.203125
632,109.81,2022-10-28 10:52:46.218750
633,49.04,2022-10-28 10:52:46.234375
634,-9.69,2022-10-28 10:52:46.250000
635,-62.66,2022-10-28 10:52:46.265625
636,-109.62,2022-10-28 10:52:46.281250
637,-152.99,2022-10-28 10:52:46.296875
638,-194.55,2022-10-28 10:52:46.312500
639,-233.16,2022-10-28 10:52:46.328125
640,-264.06,2022-10-28 10:52:46.343750
641,-281.43,2022-10-28 10:52:46.359375
642,-281.47,2022-10-28 10:52:46.375000
643,-264.56,2022-10-28 10:52:46.390625
644,-234.14,2022-10-28 10:52:46.406250
645,-194.05,2022-10-28 10:52:46.421875
646,-146.9,2022-10-28 10:52:46.437500
647,-94.29,2022-10-28 10:52:46.453125
648,-40.22,2022-10-28 10:52:46.468750
649,7.86,2022-10-28 10:52:46.484375
650,40.77,2022-10-28 10:52:46.500000
651,51.27,2022-10-28 10:52:46.515625
652,38.13,2022-10-28 10:52:46.531250
653,7.31,2022-10-28 10:52:46.546875
654,-31.27,2022-10-28 10:52:46.562500
655,-69.46,2022-10-28 10:52:46.578125
656,-104.24,2022-10-28 10:52:46.593750
657,-137.98,2022-10-28 10:52:46.609375
658,-174.12,2022-10-28 10:52:46.625000
659,-213.7,2022-10-28 10:52:46.640625
660,-253.48,2022-10-28 10:52:46.656250
661,-287.33,2022-10-28 10:52:46.671875
662,-309.88,2022-10-28 10:52:46.687500
663,-318.53,2022-10-28 10:52:46.703125
664,-314.38,2022-10-28 10:52:46.718750
665,-299.92,2022-10-28 10:52:46.734375
666,-278.41,2022-10-28 10:52:46.750000
667,-253.67,2022-10-28 10:52:46.765625
668,-230.23,2022-10-28 10:52:46.781250
669,-213.67,2022-10-28 10:52:46.796875
670,-208.88,2022-10-28 10:52:46.812500
671,-217.77,2022-10-28 10:52:46.828125
672,-237.76,2022-10-28 10:52:46.843750
673,-262.34,2022-10-28 10:52:46.859375
674,-283.75,2022-10-28 10:52:46.875000
675,-296.9,2022-10-28 10:52:46.890625
676,-301.7,2022-10-28 10:52:46.906250
677,-303.32,2022-10-28 10:52:46.921875
678,-309.56,2022-10-28 10:52:46.937500
679,-325.08,2022-10-28 10:52:46.953125
680,-348.54,2022-10-28 10:52:46.968750
681,-372.23,2022-10-28 10:52:46.984375
682,-384.5,2022-10-28 10:52:47.000000
683,-375.33,2022-10-28 10:52:47.015625
684,-340.79,2022-10-28 10:52:47.031250
685,-284.15,2022-10-28 10:52:47.046875
686,-214.8,2022-10-28 10:52:47.062500
687,-144.14,2022-10-28 10:52:47.078125
688,-81.98,2022-10-28 10:52:47.093750
689,-34.39,2022-10-28 10:52:47.109375
690,-2.95,2022-10-28 10:52:47.125000
691,14.93,2022-10-28 10:52:47.140625
692,24.33,2022-10-28 10:52:47.156250
693,31.51,2022-10-28 10:52:47.171875
694,41.82,2022-10-28 10:52:47.187500
695,58.82,2022-10-28 10:52:47.203125
696,82.87,2022-10-28 10:52:47.218750
697,112.57,2022-10-28 10:52:47.234375
698,146.56,2022-10-28 10:52:47.250000
699,184.77,2022-10-28 10:52:47.265625
700,227.73,2022-10-28 10:52:47.281250
701,274.44,2022-10-28 10:52:47.296875
702,320.54,2022-10-28 10:52:47.312500
703,358.74,2022-10-28 10:52:47.328125
704,381.91,2022-10-28 10:52:47.343750
705,388.04,2022-10-28 10:52:47.359375
706,383.12,2022-10-28 10:52:47.375000
707,378.16,2022-10-28 10:52:47.390625
708,384.42,2022-10-28 10:52:47.406250
709,407.45,2022-10-28 10:52:47.421875
710,444.6,2022-10-28 10:52:47.437500
711,487.3,2022-10-28 10:52:47.453125
712,525.7,2022-10-28 10:52:47.468750
713,552.04,2022-10-28 10:52:47.484375
714,562.6,2022-10-28 10:52:47.500000
715,556.15,2022-10-28 10:52:47.515625
716,533.09,2022-10-28 10:52:47.531250
717,495.69,2022-10-28 10:52:47.546875
718,448.49,2022-10-28 10:52:47.562500
719,398.77,2022-10-28 10:52:47.578125
720,354.5,2022-10-28 10:52:47.593750
721,321.43,2022-10-28 10:52:47.609375
722,300.5,2022-10-28 10:52:47.625000
723,288.07,2022-10-28 10:52:47.640625
724,279.96,2022-10-28 10:52:47.656250
725,274.57,2022-10-28 10:52:47.671875
726,274.5,2022-10-28 10:52:47.687500
727,284.6,2022-10-28 10:52:47.703125
728,307.32,2022-10-28 10:52:47.718750
729,340.16,2022-10-28 10:52:47.734375
730,374.74,2022-10-28 10:52:47.750000
731,401.14,2022-10-28 10:52:47.765625
732,411.69,2022-10-28 10:52:47.781250
733,403.29,2022-10-28 10:52:47.796875
734,376.94,2022-10-28 10:52:47.812500
735,335.6,2022-10-28 10:52:47.828125
736,282.0,2022-10-28 10:52:47.843750
737,217.72,2022-10-28 10:52:47.859375
738,144.83,2022-10-28 10:52:47.875000
739,66.56,2022-10-28 10:52:47.890625
740,-12.31,2022-10-28 10:52:47.906250
741,-87.16,2022-10-28 10:52:47.921875
742,-154.97,2022-10-28 10:52:47.937500
743,-214.63,2022-10-28 10:52:47.953125
744,-267.15,2022-10-28 10:52:47.968750
745,-314.22,2022-10-28 10:52:47.984375
746,-356.79,2022-10-28 10:52:48.000000
747,-394.63,2022-10-28 10:52:48.015625
748,-425.83,2022-10-28 10:52:48.031250
749,-447.88,2022-10-28 10:52:48.046875
750,-458.68,2022-10-28 10:52:48.062500
751,-457.94,2022-10-28 10:52:48.078125
752,-448.31,2022-10-28 10:52:48.093750
753,-434.93,2022-10-28 10:52:48.109375
754,-423.71,2022-10-28 10:52:48.125000
755,-419.07,2022-10-28 10:52:48.140625
756,-421.54,2022-10-28 10:52:48.156250
757,-427.61,2022-10-28 10:52:48.171875
758,-430.96,2022-10-28 10:52:48.187500
759,-425.08,2022-10-28 10:52:48.203125
760,-405.62,2022-10-28 10:52:48.218750
761,-370.72,2022-10-28 10:52:48.234375
762,-320.85,2022-10-28 10:52:48.250000
763,-256.91,2022-10-28 10:52:48.265625
764,-179.98,2022-10-28 10:52:48.281250
765,-92.7,2022-10-28 10:52:48.296875
766,-1.01,2022-10-28 10:52:48.312500
767,85.4,2022-10-28 10:52:48.328125
768,156.29,2022-10-28 10:52:48.343750
769,205.12,2022-10-28 10:52:48.359375
770,233.58,2022-10-28 10:52:48.375000
771,252.23,2022-10-28 10:52:48.390625
772,277.4,2022-10-28 10:52:48.406250
773,323.4,2022-10-28 10:52:48.421875
774,395.43,2022-10-28 10:52:48.437500
775,486.67,2022-10-28 10:52:48.453125
776,580.12,2022-10-28 10:52:48.468750
777,656.11,2022-10-28 10:52:48.484375
778,700.72,2022-10-28 10:52:48.500000
779,710.64,2022-10-28 10:52:48.515625
780,693.21,2022-10-28 10:52:48.531250
781,660.55,2022-10-28 10:52:48.546875
782,623.41,2022-10-28 10:52:48.562500
783,587.08,2022-10-28 10:52:48.578125
784,550.24,2022-10-28 10:52:48.593750
785,507.64,2022-10-28 10:52:48.609375
786,454.36,2022-10-28 10:52:48.625000
787,387.79,2022-10-28 10:52:48.640625
788,308.05,2022-10-28 10:52:48.656250
789,216.38,2022-10-28 10:52:48.671875
790,113.67,2022-10-28 10:52:48.687500
791,-0.62,2022-10-28 10:52:48.703125
792,-125.67,2022-10-28 10:52:48.718750
793,-256.75,2022-10-28 10:52:48.734375
794,-384.95,2022-10-28 10:52:48.750000
795,-499.52,2022-10-28 10:52:48.765625
796,-592.39,2022-10-28 10:52:48.781250
797,-661.48,2022-10-28 10:52:48.796875
798,-710.91,2022-10-28 10:52:48.812500
799,-747.5,2022-10-28 10:52:48.828125
800,-775.56,2022-10-28 10:52:48.843750
801,-793.74,2022-10-28 10:52:48.859375
802,-794.75,2022-10-28 10:52:48.875000
803,-770.06,2022-10-28 10:52:48.890625
804,-714.48,2022-10-28 10:52:48.906250
805,-630.53,2022-10-28 10:52:48.921875
806,-529.43,2022-10-28 10:52:48.937500
807,-427.39,2022-10-28 10:52:48.953125
808,-340.14,2022-10-28 10:52:48.968750
809,-277.75,2022-10-28 10:52:48.984375
810,-242.12,2022-10-28 10:52:49.000000
811,-227.75,2022-10-28 10:52:49.015625
812,-225.41,2022-10-28 10:52:49.031250
813,-226.63,2022-10-28 10:52:49.046875
814,-227.61,2022-10-28 10:52:49.062500
815,-229.09,2022-10-28 10:52:49.078125
816,-233.96,2022-10-28 10:52:49.093750
817,-244.11,2022-10-28 10:52:49.109375
818,-257.55,2022-10-28 10:52:49.125000
819,-269.21,2022-10-28 10:52:49.140625
820,-273.59,2022-10-28 10:52:49.156250
821,-267.39,2022-10-28 10:52:49.171875
822,-250.06,2022-10-28 10:52:49.187500
823,-222.72,2022-10-28 10:52:49.203125
824,-186.45,2022-10-28 10:52:49.218750
825,-141.28,2022-10-28 10:52:49.234375
826,-88.53,2022-10-28 10:52:49.250000
827,-31.83,2022-10-28 10:52:49.265625
828,22.02,2022-10-28 10:52:49.281250
829,65.34,2022-10-28 10:52:49.296875
830,93.29,2022-10-28 10:52:49.312500
831,106.6,2022-10-28 10:52:49.328125
832,112.8,2022-10-28 10:52:49.343750
833,122.6,2022-10-28 10:52:49.359375
834,145.9,2022-10-28 10:52:49.375000
835,187.51,2022-10-28 10:52:49.390625
836,246.09,2022-10-28 10:52:49.406250
837,315.55,2022-10-28 10:52:49.421875
838,387.1,2022-10-28 10:52:49.437500
839,451.01,2022-10-28 10:52:49.453125
840,498.24,2022-10-28 10:52:49.468750
841,521.17,2022-10-28 10:52:49.484375
842,514.7,2022-10-28 10:52:49.500000
843,477.43,2022-10-28 10:52:49.515625
844,410.72,2022-10-28 10:52:49.531250
845,319.35,2022-10-28 10:52:49.546875
846,210.6,2022-10-28 10:52:49.562500
847,93.66,2022-10-28 10:52:49.578125
848,-19.86,2022-10-28 10:52:49.593750
849,-116.6,2022-10-28 10:52:49.609375
850,-182.94,2022-10-28 10:52:49.625000
851,-208.66,2022-10-28 10:52:49.640625
852,-190.69,2022-10-28 10:52:49.656250
853,-136.32,2022-10-28 10:52:49.671875
854,-62.14,2022-10-28 10:52:49.687500
855,10.54,2022-10-28 10:52:49.703125
856,63.1,2022-10-28 10:52:49.718750
857,86.31,2022-10-28 10:52:49.734375
858,81.62,2022-10-28 10:52:49.750000
859,58.92,2022-10-28 10:52:49.765625
860,30.85,2022-10-28 10:52:49.781250
861,7.38,2022-10-28 10:52:49.796875
862,-7.28,2022-10-28 10:52:49.812500
863,-14.4,2022-10-28 10:52:49.828125
864,-17.28,2022-10-28 10:52:49.843750
865,-19.15,2022-10-28 10:52:49.859375
866,-20.57,2022-10-28 10:52:49.875000
867,-20.48,2022-10-28 10:52:49.890625
868,-17.62,2022-10-28 10:52:49.906250
869,-11.97,2022-10-28 10:52:49.921875
870,-4.61,2022-10-28 10:52:49.937500
871,3.46,2022-10-28 10:52:49.953125
872,13.15,2022-10-28 10:52:49.968750
873,27.66,2022-10-28 10:52:49.984375
874,49.74,2022-10-28 10:52:50.000000
875,79.99,2022-10-28 10:52:50.015625
876,114.3,2022-10-28 10:52:50.031250
877,145.83,2022-10-28 10:52:50.046875
878,168.51,2022-10-28 10:52:50.062500
879,180.04,2022-10-28 10:52:50.078125
880,183.88,2022-10-28 10:52:50.093750
881,186.55,2022-10-28 10:52:50.109375
882,194.06,2022-10-28 10:52:50.125000
883,208.74,2022-10-28 10:52:50.140625
884,228.91,2022-10-28 10:52:50.156250
885,250.06,2022-10-28 10:52:50.171875
886,267.95,2022-10-28 10:52:50.187500
887,279.13,2022-10-28 10:52:50.203125
888,281.09,2022-10-28 10:52:50.218750
889,271.63,2022-10-28 10:52:50.234375
890,247.96,2022-10-28 10:52:50.250000
891,207.91,2022-10-28 10:52:50.265625
892,152.02,2022-10-28 10:52:50.281250
893,84.98,2022-10-28 10:52:50.296875
894,14.38,2022-10-28 10:52:50.312500
895,-52.09,2022-10-28 10:52:50.328125
896,-108.16,2022-10-28 10:52:50.343750
897,-152.06,2022-10-28 10:52:50.359375
898,-185.79,2022-10-28 10:52:50.375000
899,-214.47,2022-10-28 10:52:50.390625
900,-243.67,2022-10-28 10:52:50.406250
901,-276.89,2022-10-28 10:52:50.421875
902,-313.18,2022-10-28 10:52:50.437500
903,-346.52,2022-10-28 10:52:50.453125
904,-368.21,2022-10-28 10:52:50.468750
905,-369.64,2022-10-28 10:52:50.484375
906,-346.58,2022-10-28 10:52:50.500000
907,-300.62,2022-10-28 10:52:50.515625
908,-239.35,2022-10-28 10:52:50.531250
909,-172.94,2022-10-28 10:52:50.546875
910,-110.3,2022-10-28 10:52:50.562500
911,-56.45,2022-10-28 10:52:50.578125
912,-10.77,2022-10-28 10:52:50.593750
913,30.49,2022-10-28 10:52:50.609375
914,71.98,2022-10-28 10:52:50.625000
915,114.93,2022-10-28 10:52:50.640625
916,156.19,2022-10-28 10:52:50.656250
917,189.22,2022-10-28 10:52:50.671875
918,207.78,2022-10-28 10:52:50.687500
919,209.46,2022-10-28 10:52:50.703125
920,197.68,2022-10-28 10:52:50.718750
921,180.46,2022-10-28 10:52:50.734375
922,166.16,2022-10-28 10:52:50.750000
923,158.6,2022-10-28 10:52:50.765625
924,155.66,2022-10-28 10:52:50.781250
925,151.73,2022-10-28 10:52:50.796875
926,142.52,2022-10-28 10:52:50.812500
927,129.21,2022-10-28 10:52:50.828125
928,118.49,2022-10-28 10:52:50.843750
929,118.43,2022-10-28 10:52:50.859375
930,132.78,2022-10-28 10:52:50.875000
931,157.61,2022-10-28 10:52:50.890625
932,182.79,2022-10-28 10:52:50.906250
933,196.46,2022-10-28 10:52:50.921875
934,190.8,2022-10-28 10:52:50.937500
935,165.12,2022-10-28 10:52:50.953125
936,124.48,2022-10-28 10:52:50.968750
937,77.13,2022-10-28 10:52:50.984375
938,30.69,2022-10-28 10:52:51.000000
939,-8.46,2022-10-28 10:52:51.015625
940,-35.73,2022-10-28 10:52:51.031250
941,-47.76,2022-10-28 10:52:51.046875
942,-43.01,2022-10-28 10:52:51.062500
943,-23.26,2022-10-28 10:52:51.078125
944,5.22,2022-10-28 10:52:51.093750
945,31.89,2022-10-28 10:52:51.109375
946,45.32,2022-10-28 10:52:51.125000
947,36.99,2022-10-28 10:52:51.140625
948,5.28,2022-10-28 10:52:51.156250
949,-43.45,2022-10-28 10:52:51.171875
950,-97.56,2022-10-28 10:52:51.187500
951,-145.25,2022-10-28 10:52:51.203125
952,-180.39,2022-10-28 10:52:51.218750
953,-204.4,2022-10-28 10:52:51.234375
954,-223.08,2022-10-28 10:52:51.250000
955,-242.26,2022-10-28 10:52:51.265625
956,-262.2,2022-10-28 10:52:51.281250
957,-276.46,2022-10-28 10:52:51.296875
958,-275.83,2022-10-28 10:52:51.312500
959,-254.07,2022-10-28 10:52:51.328125
960,-212.66,2022-10-28 10:52:51.343750
961,-159.95,2022-10-28 10:52:51.359375
962,-106.47,2022-10-28 10:52:51.375000
963,-59.55,2022-10-28 10:52:51.390625
964,-19.51,2022-10-28 10:52:51.406250
965,18.02,2022-10-28 10:52:51.421875
966,57.61,2022-10-28 10:52:51.437500
967,100.0,2022-10-28 10:52:51.453125
968,141.38,2022-10-28 10:52:51.468750
969,177.23,2022-10-28 10:52:51.484375
970,205.55,2022-10-28 10:52:51.500000
971,229.44,2022-10-28 10:52:51.515625
972,255.06,2022-10-28 10:52:51.531250
973,287.36,2022-10-28 10:52:51.546875
974,325.34,2022-10-28 10:52:51.562500
975,361.4,2022-10-28 10:52:51.578125
976,383.61,2022-10-28 10:52:51.593750
977,381.2,2022-10-28 10:52:51.609375
978,350.06,2022-10-28 10:52:51.625000
979,294.43,2022-10-28 10:52:51.640625
980,225.69,2022-10-28 10:52:51.656250
981,157.98,2022-10-28 10:52:51.671875
982,102.42,2022-10-28 10:52:51.687500
983,65.16,2022-10-28 10:52:51.703125
984,45.98,2022-10-28 10:52:51.718750
985,40.2,2022-10-28 10:52:51.734375
986,42.32,2022-10-28 10:52:51.750000
987,47.95,2022-10-28 10:52:51.765625
988,54.27,2022-10-28 10:52:51.781250
989,58.91,2022-10-28 10:52:51.796875
990,58.99,2022-10-28 10:52:51.812500
991,50.93,2022-10-28 10:52:51.828125
992,30.86,2022-10-28 10:52:51.843750
993,-3.55,2022-10-28 10:52:51.859375
994,-50.6,2022-10-28 10:52:51.875000
995,-105.22,2022-10-28 10:52:51.890625
996,-159.22,2022-10-28 10:52:51.906250
997,-204.48,2022-10-28 10:52:51.921875
998,-235.16,2022-10-28 10:52:51.937500
999,-249.72,2022-10-28 10:52:51.953125
1000,-250.98,2022-10-28 10:52:51.968750
1001,-244.13,2022-10-28 10:52:51.984375
1002,-234.19,2022-10-28 10:52:52.000000
1003,-223.59,2022-10-28 10:52:52.015625
1004,-211.9,2022-10-28 10:52:52.031250
1005,-197.01,2022-10-28 10:52:52.046875
1006,-177.65,2022-10-28 10:52:52.062500
1007,-156.07,2022-10-28 10:52:52.078125
1008,-137.87,2022-10-28 10:52:52.093750
1009,-130.31,2022-10-28 10:52:52.109375
1010,-138.3,2022-10-28 10:52:52.125000
1011,-162.04,2022-10-28 10:52:52.140625
1012,-197.56,2022-10-28 10:52:52.156250
1013,-238.89,2022-10-28 10:52:52.171875
1014,-282.22,2022-10-28 10:52:52.187500
1015,-326.94,2022-10-28 10:52:52.203125
1016,-374.63,2022-10-28 10:52:52.218750
1017,-425.8,2022-10-28 10:52:52.234375
1018,-476.62,2022-10-28 10:52:52.250000
1019,-519.05,2022-10-28 10:52:52.265625
1020,-544.71,2022-10-28 10:52:52.281250
1021,-549.42,2022-10-28 10:52:52.296875
1022,-536.09,2022-10-28 10:52:52.312500
1023,-512.56,2022-10-28 10:52:52.328125
1024,-486.58,2022-10-28 10:52:52.343750
1025,-460.34,2022-10-28 10:52:52.359375
1026,-428.12,2022-10-28 10:52:52.375000
1027,-379.59,2022-10-28 10:52:52.390625
1028,-305.28,2022-10-28 10:52:52.406250
1029,-201.82,2022-10-28 10:52:52.421875
1030,-73.87,2022-10-28 10:52:52.437500
1031,68.71,2022-10-28 10:52:52.453125
1032,214.41,2022-10-28 10:52:52.468750
1033,353.23,2022-10-28 10:52:52.484375
1034,477.07,2022-10-28 10:52:52.500000
1035,579.06,2022-10-28 10:52:52.515625
1036,653.18,2022-10-28 10:52:52.531250
1037,694.45,2022-10-28 10:52:52.546875
1038,701.54,2022-10-28 10:52:52.562500
1039,677.37,2022-10-28 10:52:52.578125
1040,628.2,2022-10-28 10:52:52.593750
1041,561.88,2022-10-28 10:52:52.609375
1042,485.02,2022-10-28 10:52:52.625000
1043,402.49,2022-10-28 10:52:52.640625
1044,317.48,2022-10-28 10:52:52.656250
1045,232.7,2022-10-28 10:52:52.671875
1046,151.53,2022-10-28 10:52:52.687500
1047,78.49,2022-10-28 10:52:52.703125
1048,18.36,2022-10-28 10:52:52.718750
1049,-25.27,2022-10-28 10:52:52.734375
1050,-50.55,2022-10-28 10:52:52.750000
1051,-58.04,2022-10-28 10:52:52.765625
1052,-50.64,2022-10-28 10:52:52.781250
1053,-33.6,2022-10-28 10:52:52.796875
1054,-13.62,2022-10-28 10:52:52.812500
1055,2.93,2022-10-28 10:52:52.828125
1056,12.05,2022-10-28 10:52:52.843750
1057,13.07,2022-10-28 10:52:52.859375
1058,8.28,2022-10-28 10:52:52.875000
1059,0.98,2022-10-28 10:52:52.890625
1060,-6.93,2022-10-28 10:52:52.906250
1061,-16.55,2022-10-28 10:52:52.921875
1062,-32.58,2022-10-28 10:52:52.937500
1063,-60.89,2022-10-28 10:52:52.953125
1064,-105.84,2022-10-28 10:52:52.968750
1065,-167.55,2022-10-28 10:52:52.984375
1066,-240.7,2022-10-28 10:52:53.000000
1067,-315.51,2022-10-28 10:52:53.015625
1068,-381.09,2022-10-28 10:52:53.031250
1069,-429.41,2022-10-28 10:52:53.046875
1070,-458.88,2022-10-28 10:52:53.062500
1071,-474.1,2022-10-28 10:52:53.078125
1072,-483.15,2022-10-28 10:52:53.093750
1073,-493.68,2022-10-28 10:52:53.109375
1074,-509.83,2022-10-28 10:52:53.125000
1075,-530.6,2022-10-28 10:52:53.140625
1076,-551.1,2022-10-28 10:52:53.156250
1077,-565.61,2022-10-28 10:52:53.171875
1078,-569.71,2022-10-28 10:52:53.187500
1079,-560.62,2022-10-28 10:52:53.203125
1080,-536.44,2022-10-28 10:52:53.218750
1081,-495.46,2022-10-28 10:52:53.234375
1082,-436.02,2022-10-28 10:52:53.250000
1083,-358.73,2022-10-28 10:52:53.265625
1084,-268.4,2022-10-28 10:52:53.281250
1085,-174.13,2022-10-28 10:52:53.296875
1086,-86.79,2022-10-28 10:52:53.312500
1087,-15.54,2022-10-28 10:52:53.328125
1088,35.86,2022-10-28 10:52:53.343750
1089,68.97,2022-10-28 10:52:53.359375
1090,89.0,2022-10-28 10:52:53.375000
1091,102.3,2022-10-28 10:52:53.390625
1092,113.4,2022-10-28 10:52:53.406250
1093,125.89,2022-10-28 10:52:53.421875
1094,142.08,2022-10-28 10:52:53.437500
1095,163.74,2022-10-28 10:52:53.453125
1096,191.53,2022-10-28 10:52:53.468750
1097,223.21,2022-10-28 10:52:53.484375
1098,253.06,2022-10-28 10:52:53.500000
1099,273.83,2022-10-28 10:52:53.515625
1100,279.06,2022-10-28 10:52:53.531250
1101,268.38,2022-10-28 10:52:53.546875
1102,248.37,2022-10-28 10:52:53.562500
1103,231.18,2022-10-28 10:52:53.578125
1104,230.08,2022-10-28 10:52:53.593750
1105,252.7,2022-10-28 10:52:53.609375
1106,297.42,2022-10-28 10:52:53.625000
1107,352.99,2022-10-28 10:52:53.640625
1108,403.48,2022-10-28 10:52:53.656250
1109,434.62,2022-10-28 10:52:53.671875
1110,439.43,2022-10-28 10:52:53.687500
1111,420.4,2022-10-28 10:52:53.703125
1112,386.56,2022-10-28 10:52:53.718750
1113,347.41,2022-10-28 10:52:53.734375
1114,308.07,2022-10-28 10:52:53.750000
1115,267.31,2022-10-28 10:52:53.765625
1116,220.1,2022-10-28 10:52:53.781250
1117,163.25,2022-10-28 10:52:53.796875
1118,99.04,2022-10-28 10:52:53.812500
1119,34.71,2022-10-28 10:52:53.828125
1120,-20.89,2022-10-28 10:52:53.843750
1121,-62.2,2022-10-28 10:52:53.859375
1122,-89.16,2022-10-28 10:52:53.875000
1123,-104.35,2022-10-28 10:52:53.890625
1124,-109.86,2022-10-28 10:52:53.906250
1125,-104.18,2022-10-28 10:52:53.921875
1126,-82.65,2022-10-28 10:52:53.937500
1127,-41.06,2022-10-28 10:52:53.953125
1128,20.61,2022-10-28 10:52:53.968750
1129,96.25,2022-10-28 10:52:53.984375
1130,174.93,2022-10-28 10:52:54.000000
1131,245.05,2022-10-28 10:52:54.015625
1132,298.12,2022-10-28 10:52:54.031250
1133,331.96,2022-10-28 10:52:54.046875
1134,350.04,2022-10-28 10:52:54.062500
1135,359.03,2022-10-28 10:52:54.078125
1136,366.2,2022-10-28 10:52:54.093750
1137,376.06,2022-10-28 10:52:54.109375
1138,389.13,2022-10-28 10:52:54.125000
1139,401.76,2022-10-28 10:52:54.140625
1140,408.32,2022-10-28 10:52:54.156250
1141,404.81,2022-10-28 10:52:54.171875
1142,391.95,2022-10-28 10:52:54.187500
1143,376.81,2022-10-28 10:52:54.203125
1144,370.2,2022-10-28 10:52:54.218750
1145,380.33,2022-10-28 10:52:54.234375
1146,407.83,2022-10-28 10:52:54.250000
1147,443.95,2022-10-28 10:52:54.265625
1148,474.22,2022-10-28 10:52:54.281250
1149,486.44,2022-10-28 10:52:54.296875
1150,476.44,2022-10-28 10:52:54.312500
1151,449.78,2022-10-28 10:52:54.328125
1152,417.37,2022-10-28 10:52:54.343750
1153,387.83,2022-10-28 10:52:54.359375
1154,362.62,2022-10-28 10:52:54.375000
1155,336.55,2022-10-28 10:52:54.390625
1156,302.22,2022-10-28 10:52:54.406250
1157,255.85,2022-10-28 10:52:54.421875
1158,200.31,2022-10-28 10:52:54.437500
1159,143.12,2022-10-28 10:52:54.453125
1160,92.11,2022-10-28 10:52:54.468750
1161,52.24,2022-10-28 10:52:54.484375
1162,24.35,2022-10-28 10:52:54.500000
1163,6.85,2022-10-28 10:52:54.515625
1164,-1.86,2022-10-28 10:52:54.531250
1165,-3.62,2022-10-28 10:52:54.546875
1166,-0.83,2022-10-28 10:52:54.562500
1167,2.01,2022-10-28 10:52:54.578125
1168,-2.13,2022-10-28 10:52:54.593750
1169,-21.47,2022-10-28 10:52:54.609375
1170,-62.6,2022-10-28 10:52:54.625000
1171,-128.42,2022-10-28 10:52:54.640625
1172,-216.34,2022-10-28 10:52:54.656250
1173,-318.78,2022-10-28 10:52:54.671875
1174,-426.3,2022-10-28 10:52:54.687500
1175,-530.65,2022-10-28 10:52:54.703125
1176,-626.97,2022-10-28 10:52:54.718750
1177,-714.06,2022-10-28 10:52:54.734375
1178,-792.28,2022-10-28 10:52:54.750000
1179,-861.65,2022-10-28 10:52:54.765625
1180,-920.28,2022-10-28 10:52:54.781250
1181,-964.6,2022-10-28 10:52:54.796875
1182,-991.35,2022-10-28 10:52:54.812500
1183,-1000.17,2022-10-28 10:52:54.828125
1184,-993.77,2022-10-28 10:52:54.843750
1185,-977.72,2022-10-28 10:52:54.859375
1186,-957.31,2022-10-28 10:52:54.875000
1187,-934.47,2022-10-28 10:52:54.890625
1188,-907.28,2022-10-28 10:52:54.906250
1189,-871.38,2022-10-28 10:52:54.921875
1190,-822.46,2022-10-28 10:52:54.937500
1191,-758.98,2022-10-28 10:52:54.953125
1192,-684.06,2022-10-28 10:52:54.968750
1193,-603.2,2022-10-28 10:52:54.984375
1194,-521.87,2022-10-28 10:52:55.000000
1195,-442.17,2022-10-28 10:52:55.015625
1196,-361.18,2022-10-28 10:52:55.031250
1197,-273.02,2022-10-28 10:52:55.046875
1198,-172.48,2022-10-28 10:52:55.062500
1199,-58.17,2022-10-28 10:52:55.078125
1200,66.04,2022-10-28 10:52:55.093750
1201,193.04,2022-10-28 10:52:55.109375
1202,316.95,2022-10-28 10:52:55.125000
1203,435.78,2022-10-28 10:52:55.140625
1204,551.21,2022-10-28 10:52:55.156250
1205,665.54,2022-10-28 10:52:55.171875
1206,776.84,2022-10-28 10:52:55.187500
1207,876.9,2022-10-28 10:52:55.203125
1208,953.5,2022-10-28 10:52:55.218750
1209,995.3,2022-10-28 10:52:55.234375
1210,997.22,2022-10-28 10:52:55.250000
1211,963.18,2022-10-28 10:52:55.265625
1212,903.94,2022-10-28 10:52:55.281250
1213,832.53,2022-10-28 10:52:55.296875
1214,759.7,2022-10-28 10:52:55.312500
1215,690.28,2022-10-28 10:52:55.328125
1216,623.59,2022-10-28 10:52:55.343750
1217,555.06,2022-10-28 10:52:55.359375
1218,478.87,2022-10-28 10:52:55.375000
1219,390.44,2022-10-28 10:52:55.390625
1220,288.95,2022-10-28 10:52:55.406250
1221,177.86,2022-10-28 10:52:55.421875
1222,64.49,2022-10-28 10:52:55.437500
1223,-41.79,2022-10-28 10:52:55.453125
1224,-132.94,2022-10-28 10:52:55.468750
1225,-204.63,2022-10-28 10:52:55.484375
1226,-256.98,2022-10-28 10:52:55.500000
1227,-292.89,2022-10-28 10:52:55.515625
1228,-315.2,2022-10-28 10:52:55.531250
1229,-325.5,2022-10-28 10:52:55.546875
1230,-323.29,2022-10-28 10:52:55.562500
1231,-307.58,2022-10-28 10:52:55.578125
1232,-278.72,2022-10-28 10:52:55.593750
1233,-239.86,2022-10-28 10:52:55.609375
1234,-196.94,2022-10-28 10:52:55.625000
1235,-156.9,2022-10-28 10:52:55.640625
1236,-126.54,2022-10-28 10:52:55.656250
1237,-109.74,2022-10-28 10:52:55.671875
1238,-106.74,2022-10-28 10:52:55.687500
1239,-114.25,2022-10-28 10:52:55.703125
1240,-127.02,2022-10-28 10:52:55.718750
1241,-139.66,2022-10-28 10:52:55.734375
1242,-148.22,2022-10-28 10:52:55.750000
1243,-150.73,2022-10-28 10:52:55.765625
1244,-147.36,2022-10-28 10:52:55.781250
1245,-138.86,2022-10-28 10:52:55.796875
1246,-125.78,2022-10-28 10:52:55.812500
1247,-108.78,2022-10-28 10:52:55.828125
1248,-89.37,2022-10-28 10:52:55.843750
1249,-69.45,2022-10-28 10:52:55.859375
1250,-49.98,2022-10-28 10:52:55.875000
1251,-30.53,2022-10-28 10:52:55.890625
1252,-8.73,2022-10-28 10:52:55.906250
1253,17.87,2022-10-28 10:52:55.921875
1254,48.21,2022-10-28 10:52:55.937500
1255,75.38,2022-10-28 10:52:55.953125
1256,87.52,2022-10-28 10:52:55.968750
1257,71.88,2022-10-28 10:52:55.984375
1258,20.53,2022-10-28 10:52:56.000000
1259,-64.8,2022-10-28 10:52:56.015625
1260,-170.84,2022-10-28 10:52:56.031250
1261,-278.67,2022-10-28 10:52:56.046875
1262,-370.12,2022-10-28 10:52:56.062500
1263,-435.33,2022-10-28 10:52:56.078125
1264,-475.19,2022-10-28 10:52:56.093750
1265,-498.11,2022-10-28 10:52:56.109375
1266,-514.07,2022-10-28 10:52:56.125000
1267,-528.18,2022-10-28 10:52:56.140625
1268,-538.54,2022-10-28 10:52:56.156250
1269,-538.5,2022-10-28 10:52:56.171875
1270,-521.5,2022-10-28 10:52:56.187500
1271,-484.71,2022-10-28 10:52:56.203125
1272,-430.01,2022-10-28 10:52:56.218750
1273,-361.9,2022-10-28 10:52:56.234375
1274,-283.63,2022-10-28 10:52:56.250000
1275,-194.39,2022-10-28 10:52:56.265625
1276,-91.04,2022-10-28 10:52:56.281250
1277,28.83,2022-10-28 10:52:56.296875
1278,163.02,2022-10-28 10:52:56.312500
1279,302.61,2022-10-28 10:52:56.328125
1280,433.45,2022-10-28 10:52:56.343750
1281,539.84,2022-10-28 10:52:56.359375
1282,609.83,2022-10-28 10:52:56.375000
1283,639.12,2022-10-28 10:52:56.390625
1284,632.34,2022-10-28 10:52:56.406250
1285,601.29,2022-10-28 10:52:56.421875
1286,561.43,2022-10-28 10:52:56.437500
1287,526.5,2022-10-28 10:52:56.453125
1288,504.58,2022-10-28 10:52:56.468750
1289,497.4,2022-10-28 10:52:56.484375
1290,501.19,2022-10-28 10:52:56.500000
1291,509.07,2022-10-28 10:52:56.515625
1292,514.85,2022-10-28 10:52:56.531250
1293,514.15,2022-10-28 10:52:56.546875
1294,505.02,2022-10-28 10:52:56.562500
1295,487.14,2022-10-28 10:52:56.578125
1296,460.27,2022-10-28 10:52:56.593750
1297,424.42,2022-10-28 10:52:56.609375
1298,381.45,2022-10-28 10:52:56.625000
1299,335.47,2022-10-28 10:52:56.640625
1300,293.62,2022-10-28 10:52:56.656250
1301,262.77,2022-10-28 10:52:56.671875
1302,245.96,2022-10-28 10:52:56.687500
1303,241.39,2022-10-28 10:52:56.703125
1304,243.74,2022-10-28 10:52:56.718750
1305,248.01,2022-10-28 10:52:56.734375
1306,253.09,2022-10-28 10:52:56.750000
1307,261.42,2022-10-28 10:52:56.765625
1308,276.38,2022-10-28 10:52:56.781250
1309,297.33,2022-10-28 10:52:56.796875
1310,317.04,2022-10-28 10:52:56.812500
1311,324.04,2022-10-28 10:52:56.828125
1312,308.02,2022-10-28 10:52:56.843750
1313,265.91,2022-10-28 10:52:56.859375
1314,203.35,2022-10-28 10:52:56.875000
1315,132.44,2022-10-28 10:52:56.890625
1316,65.48,2022-10-28 10:52:56.906250
1317,8.72,2022-10-28 10:52:56.921875
1318,-38.94,2022-10-28 10:52:56.937500
1319,-84.12,2022-10-28 10:52:56.953125
1320,-134.67,2022-10-28 10:52:56.968750
1321,-196.13,2022-10-28 10:52:56.984375
1322,-270.32,2022-10-28 10:52:57.000000
1323,-355.6,2022-10-28 10:52:57.015625
1324,-447.68,2022-10-28 10:52:57.031250
1325,-539.83,2022-10-28 10:52:57.046875
1326,-623.9,2022-10-28 10:52:57.062500
1327,-690.79,2022-10-28 10:52:57.078125
1328,-732.95,2022-10-28 10:52:57.093750
1329,-746.31,2022-10-28 10:52:57.109375
1330,-731.94,2022-10-28 10:52:57.125000
1331,-695.89,2022-10-28 10:52:57.140625
1332,-647.09,2022-10-28 10:52:57.156250
1333,-595.38,2022-10-28 10:52:57.171875
1334,-548.73,2022-10-28 10:52:57.187500
1335,-511.74,2022-10-28 10:52:57.203125
1336,-485.14,2022-10-28 10:52:57.218750
1337,-465.75,2022-10-28 10:52:57.234375
1338,-446.87,2022-10-28 10:52:57.250000
1339,-419.92,2022-10-28 10:52:57.265625
1340,-376.36,2022-10-28 10:52:57.281250
1341,-309.9,2022-10-28 10:52:57.296875
1342,-219.77,2022-10-28 10:52:57.312500
1343,-110.52,2022-10-28 10:52:57.328125
1344,8.5,2022-10-28 10:52:57.343750
1345,125.92,2022-10-28 10:52:57.359375
1346,231.99,2022-10-28 10:52:57.375000
1347,320.65,2022-10-28 10:52:57.390625
1348,390.39,2022-10-28 10:52:57.406250
1349,443.09,2022-10-28 10:52:57.421875
1350,480.99,2022-10-28 10:52:57.437500
1351,504.96,2022-10-28 10:52:57.453125
1352,513.37,2022-10-28 10:52:57.468750
1353,502.68,2022-10-28 10:52:57.484375
1354,469.58,2022-10-28 10:52:57.500000
1355,412.44,2022-10-28 10:52:57.515625
1356,331.98,2022-10-28 10:52:57.531250
1357,231.91,2022-10-28 10:52:57.546875
1358,117.46,2022-10-28 10:52:57.562500
1359,-4.21,2022-10-28 10:52:57.578125
1360,-125.17,2022-10-28 10:52:57.593750
1361,-236.95,2022-10-28 10:52:57.609375
1362,-332.01,2022-10-28 10:52:57.625000
1363,-405.21,2022-10-28 10:52:57.640625
1364,-454.76,2022-10-28 10:52:57.656250
1365,-482.59,2022-10-28 10:52:57.671875
1366,-492.78,2022-10-28 10:52:57.687500
1367,-490.58,2022-10-28 10:52:57.703125
1368,-481.27,2022-10-28 10:52:57.718750
1369,-468.74,2022-10-28 10:52:57.734375
1370,-456.29,2022-10-28 10:52:57.750000
1371,-445.25,2022-10-28 10:52:57.765625
1372,-435.15,2022-10-28 10:52:57.781250
1373,-422.75,2022-10-28 10:52:57.796875
1374,-403.05,2022-10-28 10:52:57.812500
1375,-371.04,2022-10-28 10:52:57.828125
1376,-324.35,2022-10-28 10:52:57.843750
1377,-265.66,2022-10-28 10:52:57.859375
1378,-202.44,2022-10-28 10:52:57.875000
1379,-144.23,2022-10-28 10:52:57.890625
1380,-98.27,2022-10-28 10:52:57.906250
1381,-65.26,2022-10-28 10:52:57.921875
1382,-38.08,2022-10-28 10:52:57.937500
1383,-5.39,2022-10-28 10:52:57.953125
1384,42.25,2022-10-28 10:52:57.968750
1385,106.61,2022-10-28 10:52:57.984375
1386,180.03,2022-10-28 10:52:58.000000
1387,248.9,2022-10-28 10:52:58.015625
1388,299.87,2022-10-28 10:52:58.031250
1389,325.55,2022-10-28 10:52:58.046875
1390,325.79,2022-10-28 10:52:58.062500
1391,305.85,2022-10-28 10:52:58.078125
1392,272.68,2022-10-28 10:52:58.093750
1393,232.32,2022-10-28 10:52:58.109375
1394,190.5,2022-10-28 10:52:58.125000
1395,154.06,2022-10-28 10:52:58.140625
1396,130.56,2022-10-28 10:52:58.156250
1397,126.21,2022-10-28 10:52:58.171875
1398,143.24,2022-10-28 10:52:58.187500
1399,178.27,2022-10-28 10:52:58.203125
1400,224.7,2022-10-28 10:52:58.218750
1401,276.81,2022-10-28 10:52:58.234375
1402,333.16,2022-10-28 10:52:58.250000
1403,396.91,2022-10-28 10:52:58.265625
1404,470.94,2022-10-28 10:52:58.281250
1405,554.65,2022-10-28 10:52:58.296875
1406,641.84,2022-10-28 10:52:58.312500
1407,722.31,2022-10-28 10:52:58.328125
1408,786.39,2022-10-28 10:52:58.343750
1409,828.3,2022-10-28 10:52:58.359375
1410,847.35,2022-10-28 10:52:58.375000
1411,846.29,2022-10-28 10:52:58.390625
1412,828.75,2022-10-28 10:52:58.406250
1413,796.71,2022-10-28 10:52:58.421875
1414,749.95,2022-10-28 10:52:58.437500
1415,686.44,2022-10-28 10:52:58.453125
1416,603.81,2022-10-28 10:52:58.468750
1417,501.18,2022-10-28 10:52:58.484375
1418,380.83,2022-10-28 10:52:58.500000
1419,248.15,2022-10-28 10:52:58.515625
1420,111.47,2022-10-28 10:52:58.531250
1421,-19.86,2022-10-28 10:52:58.546875
1422,-137.37,2022-10-28 10:52:58.562500
1423,-235.13,2022-10-28 10:52:58.578125
1424,-310.88,2022-10-28 10:52:58.593750
1425,-365.19,2022-10-28 10:52:58.609375
1426,-401.28,2022-10-28 10:52:58.625000
1427,-424.21,2022-10-28 10:52:58.640625
1428,-439.85,2022-10-28 10:52:58.656250
1429,-452.66,2022-10-28 10:52:58.671875
1430,-463.12,2022-10-28 10:52:58.687500
1431,-467.09,2022-10-28 10:52:58.703125
1432,-456.3,2022-10-28 10:52:58.718750
1433,-423.01,2022-10-28 10:52:58.734375
1434,-364.53,2022-10-28 10:52:58.750000
1435,-285.27,2022-10-28 10:52:58.765625
1436,-196.37,2022-10-28 10:52:58.781250
1437,-109.91,2022-10-28 10:52:58.796875
1438,-33.99,2022-10-28 10:52:58.812500
1439,30.12,2022-10-28 10:52:58.828125
1440,86.86,2022-10-28 10:52:58.843750
1441,140.22,2022-10-28 10:52:58.859375
1442,190.1,2022-10-28 10:52:58.875000
1443,230.88,2022-10-28 10:52:58.890625
1444,254.15,2022-10-28 10:52:58.906250
1445,254.29,2022-10-28 10:52:58.921875
1446,232.55,2022-10-28 10:52:58.937500
1447,197.4,2022-10-28 10:52:58.953125
1448,161.76,2022-10-28 10:52:58.968750
1449,137.62,2022-10-28 10:52:58.984375
1450,132.1,2022-10-28 10:52:59.000000
1451,145.06,2022-10-28 10:52:59.015625
1452,169.88,2022-10-28 10:52:59.031250
1453,196.07,2022-10-28 10:52:59.046875
1454,213.73,2022-10-28 10:52:59.062500
1455,217.56,2022-10-28 10:52:59.078125
1456,207.17,2022-10-28 10:52:59.093750
1457,186.79,2022-10-28 10:52:59.109375
1458,161.0,2022-10-28 10:52:59.125000
1459,132.32,2022-10-28 10:52:59.140625
1460,99.31,2022-10-28 10:52:59.156250
1461,57.95,2022-10-28 10:52:59.171875
1462,5.23,2022-10-28 10:52:59.187500
1463,-58.33,2022-10-28 10:52:59.203125
1464,-128.31,2022-10-28 10:52:59.218750
1465,-199.31,2022-10-28 10:52:59.234375
1466,-268.51,2022-10-28 10:52:59.250000
1467,-337.54,2022-10-28 10:52:59.265625
1468,-411.34,2022-10-28 10:52:59.281250
1469,-493.05,2022-10-28 10:52:59.296875
1470,-581.24,2022-10-28 10:52:59.312500
1471,-669.77,2022-10-28 10:52:59.328125
1472,-750.77,2022-10-28 10:52:59.343750
1473,-819.79,2022-10-28 10:52:59.359375
1474,-877.17,2022-10-28 10:52:59.375000
1475,-926.93,2022-10-28 10:52:59.390625
1476,-972.78,2022-10-28 10:52:59.406250
1477,-1013.75,2022-10-28 10:52:59.421875
1478,-1043.33,2022-10-28 10:52:59.437500
1479,-1052.93,2022-10-28 10:52:59.453125
1480,-1035.92,2022-10-28 10:52:59.468750
1481,-991.28,2022-10-28 10:52:59.484375
1482,-923.66,2022-10-28 10:52:59.500000
1483,-839.47,2022-10-28 10:52:59.515625
1484,-742.35,2022-10-28 10:52:59.531250
1485,-631.86,2022-10-28 10:52:59.546875
1486,-505.63,2022-10-28 10:52:59.562500
1487,-364.3,2022-10-28 10:52:59.578125
1488,-215.67,2022-10-28 10:52:59.593750
1489,-73.12,2022-10-28 10:52:59.609375
1490,48.67,2022-10-28 10:52:59.625000
1491,141.18,2022-10-28 10:52:59.640625
1492,205.99,2022-10-28 10:52:59.656250
1493,254.2,2022-10-28 10:52:59.671875
1494,299.63,2022-10-28 10:52:59.687500
1495,350.76,2022-10-28 10:52:59.703125
1496,406.36,2022-10-28 10:52:59.718750
1497,455.6,2022-10-28 10:52:59.734375
1498,484.71,2022-10-28 10:52:59.750000
1499,484.26,2022-10-28 10:52:59.765625
1500,453.63,2022-10-28 10:52:59.781250
1501,401.0,2022-10-28 10:52:59.796875
1502,339.3,2022-10-28 10:52:59.812500
1503,280.44,2022-10-28 10:52:59.828125
1504,232.64,2022-10-28 10:52:59.843750
1505,199.44,2022-10-28 10:52:59.859375
1506,181.07,2022-10-28 10:52:59.875000
1507,176.24,2022-10-28 10:52:59.890625
1508,181.73,2022-10-28 10:52:59.906250
1509,192.87,2022-10-28 10:52:59.921875
1510,203.9,2022-10-28 10:52:59.937500
1511,209.74,2022-10-28 10:52:59.953125
1512,208.64,2022-10-28 10:52:59.968750
1513,203.68,2022-10-28 10:52:59.984375
1514,201.54,2022-10-28 10:53:00.000000
1515,208.86,2022-10-28 10:53:00.015625
1516,227.59,2022-10-28 10:53:00.031250
1517,252.3,2022-10-28 10:53:00.046875
1518,271.52,2022-10-28 10:53:00.062500
1519,272.59,2022-10-28 10:53:00.078125
1520,247.52,2022-10-28 10:53:00.093750
1521,196.82,2022-10-28 10:53:00.109375
1522,128.64,2022-10-28 10:53:00.125000
1523,55.57,2022-10-28 10:53:00.140625
1524,-10.85,2022-10-28 10:53:00.156250
1525,-63.16,2022-10-28 10:53:00.171875
1526,-99.06,2022-10-28 10:53:00.187500
1527,-120.77,2022-10-28 10:53:00.203125
1528,-132.65,2022-10-28 10:53:00.218750
1529,-139.87,2022-10-28 10:53:00.234375
1530,-146.89,2022-10-28 10:53:00.250000
1531,-156.37,2022-10-28 10:53:00.265625
1532,-168.62,2022-10-28 10:53:00.281250
1533,-181.5,2022-10-28 10:53:00.296875
1534,-190.38,2022-10-28 10:53:00.312500
1535,-190.27,2022-10-28 10:53:00.328125
1536,-177.36,2022-10-28 10:53:00.343750
1537,-150.36,2022-10-28 10:53:00.359375
1538,-111.44,2022-10-28 10:53:00.375000
1539,-65.45,2022-10-28 10:53:00.390625
1540,-19.2,2022-10-28 10:53:00.406250
1541,20.98,2022-10-28 10:53:00.421875
1542,50.95,2022-10-28 10:53:00.437500
1543,70.01,2022-10-28 10:53:00.453125
1544,80.79,2022-10-28 10:53:00.468750
1545,87.33,2022-10-28 10:53:00.484375
1546,93.88,2022-10-28 10:53:00.500000
1547,103.31,2022-10-28 10:53:00.515625
1548,118.37,2022-10-28 10:53:00.531250
1549,142.24,2022-10-28 10:53:00.546875
1550,178.96,2022-10-28 10:53:00.562500
1551,231.74,2022-10-28 10:53:00.578125
1552,299.07,2022-10-28 10:53:00.593750
1553,373.79,2022-10-28 10:53:00.609375
1554,443.91,2022-10-28 10:53:00.625000
1555,497.32,2022-10-28 10:53:00.640625
1556,526.44,2022-10-28 10:53:00.656250
1557,531.43,2022-10-28 10:53:00.671875
1558,519.98,2022-10-28 10:53:00.687500
1559,502.32,2022-10-28 10:53:00.703125
1560,486.6,2022-10-28 10:53:00.718750
1561,475.89,2022-10-28 10:53:00.734375
1562,468.39,2022-10-28 10:53:00.750000
1563,460.03,2022-10-28 10:53:00.765625
1564,447.06,2022-10-28 10:53:00.781250
1565,427.79,2022-10-28 10:53:00.796875
1566,402.06,2022-10-28 10:53:00.812500
1567,370.52,2022-10-28 10:53:00.828125
1568,333.31,2022-10-28 10:53:00.843750
1569,289.96,2022-10-28 10:53:00.859375
1570,239.62,2022-10-28 10:53:00.875000
1571,182.04,2022-10-28 10:53:00.890625
1572,117.85,2022-10-28 10:53:00.906250
1573,49.51,2022-10-28 10:53:00.921875
1574,-18.88,2022-10-28 10:53:00.937500
1575,-81.65,2022-10-28 10:53:00.953125
1576,-132.71,2022-10-28 10:53:00.968750
1577,-167.95,2022-10-28 10:53:00.984375
1578,-186.64,2022-10-28 10:53:01.000000
1579,-192.95,2022-10-28 10:53:01.015625
1580,-194.31,2022-10-28 10:53:01.031250
1581,-199.78,2022-10-28 10:53:01.046875
1582,-216.36,2022-10-28 10:53:01.062500
1583,-245.53,2022-10-28 10:53:01.078125
1584,-284.33,2022-10-28 10:53:01.093750
1585,-326.73,2022-10-28 10:53:01.109375
1586,-367.04,2022-10-28 10:53:01.125000
1587,-401.62,2022-10-28 10:53:01.140625
1588,-428.45,2022-10-28 10:53:01.156250
1589,-446.13,2022-10-28 10:53:01.171875
1590,-451.93,2022-10-28 10:53:01.187500
1591,-442.4,2022-10-28 10:53:01.203125
1592,-415.69,2022-10-28 10:53:01.218750
1593,-373.82,2022-10-28 10:53:01.234375
1594,-323.55,2022-10-28 10:53:01.250000
1595,-274.62,2022-10-28 10:53:01.265625
1596,-236.7,2022-10-28 10:53:01.281250
1597,-215.6,2022-10-28 10:53:01.296875
1598,-212.23,2022-10-28 10:53:01.312500
1599,-223.2,2022-10-28 10:53:01.328125
1600,-243.41,2022-10-28 10:53:01.343750
1601,-267.54,2022-10-28 10:53:01.359375
1602,-291.43,2022-10-28 10:53:01.375000
1603,-311.69,2022-10-28 10:53:01.390625
1604,-325.87,2022-10-28 10:53:01.406250
1605,-333.42,2022-10-28 10:53:01.421875
1606,-336.38,2022-10-28 10:53:01.437500
1607,-338.86,2022-10-28 10:53:01.453125
1608,-344.96,2022-10-28 10:53:01.468750
1609,-356.17,2022-10-28 10:53:01.484375
1610,-370.38,2022-10-28 10:53:01.500000
1611,-382.81,2022-10-28 10:53:01.515625
1612,-389.47,2022-10-28 10:53:01.531250
1613,-389.86,2022-10-28 10:53:01.546875
1614,-387.48,2022-10-28 10:53:01.562500
1615,-387.02,2022-10-28 10:53:01.578125
1616,-390.36,2022-10-28 10:53:01.593750
1617,-393.73,2022-10-28 10:53:01.609375
1618,-388.47,2022-10-28 10:53:01.625000
1619,-366.22,2022-10-28 10:53:01.640625
1620,-323.41,2022-10-28 10:53:01.656250
1621,-263.65,2022-10-28 10:53:01.671875
1622,-196.31,2022-10-28 10:53:01.687500
1623,-131.23,2022-10-28 10:53:01.703125
1624,-74.66,2022-10-28 10:53:01.718750
1625,-27.3,2022-10-28 10:53:01.734375
1626,14.69,2022-10-28 10:53:01.750000
1627,56.88,2022-10-28 10:53:01.765625
1628,104.45,2022-10-28 10:53:01.781250
1629,160.26,2022-10-28 10:53:01.796875
1630,224.25,2022-10-28 10:53:01.812500
1631,292.42,2022-10-28 10:53:01.828125
1632,357.6,2022-10-28 10:53:01.843750
1633,411.4,2022-10-28 10:53:01.859375
1634,446.82,2022-10-28 10:53:01.875000
1635,461.36,2022-10-28 10:53:01.890625
1636,457.58,2022-10-28 10:53:01.906250
1637,441.36,2022-10-28 10:53:01.921875
1638,418.6,2022-10-28 10:53:01.937500
1639,392.39,2022-10-28 10:53:01.953125
1640,362.3,2022-10-28 10:53:01.968750
1641,326.92,2022-10-28 10:53:01.984375
1642,286.73,2022-10-28 10:53:02.000000
1643,245.52,2022-10-28 10:53:02.015625
1644,210.02,2022-10-28 10:53:02.031250
1645,186.44,2022-10-28 10:53:02.046875
1646,177.7,2022-10-28 10:53:02.062500
1647,181.86,2022-10-28 10:53:02.078125
1648,193.36,2022-10-28 10:53:02.093750
1649,205.13,2022-10-28 10:53:02.109375
1650,211.74,2022-10-28 10:53:02.125000
1651,210.88,2022-10-28 10:53:02.140625
1652,203.3,2022-10-28 10:53:02.156250
1653,192.3,2022-10-28 10:53:02.171875
1654,181.37,2022-10-28 10:53:02.187500
1655,172.9,2022-10-28 10:53:02.203125
1656,167.65,2022-10-28 10:53:02.218750
1657,165.09,2022-10-28 10:53:02.234375
1658,165.01,2022-10-28 10:53:02.250000
1659,168.86,2022-10-28 10:53:02.265625
1660,180.6,2022-10-28 10:53:02.281250
1661,205.76,2022-10-28 10:53:02.296875
1662,248.5,2022-10-28 10:53:02.312500
1663,308.27,2022-10-28 10:53:02.328125
1664,379.05,2022-10-28 10:53:02.343750
1665,449.71,2022-10-28 10:53:02.359375
1666,508.71,2022-10-28 10:53:02.375000
1667,548.8,2022-10-28 10:53:02.390625
1668,568.55,2022-10-28 10:53:02.406250
1669,571.73,2022-10-28 10:53:02.421875
1670,562.86,2022-10-28 10:53:02.437500
1671,543.86,2022-10-28 10:53:02.453125
1672,512.72,2022-10-28 10:53:02.468750
1673,466.45,2022-10-28 10:53:02.484375
1674,405.7,2022-10-28 10:53:02.500000
1675,336.57,2022-10-28 10:53:02.515625
1676,269.52,2022-10-28 10:53:02.531250
1677,214.72,2022-10-28 10:53:02.546875
1678,176.52,2022-10-28 10:53:02.562500
1679,150.88,2022-10-28 10:53:02.578125
1680,128.14,2022-10-28 10:53:02.593750
1681,97.64,2022-10-28 10:53:02.609375
1682,53.79,2022-10-28 10:53:02.625000
1683,-0.91,2022-10-28 10:53:02.640625
1684,-57.78,2022-10-28 10:53:02.656250
1685,-105.49,2022-10-28 10:53:02.671875
1686,-136.16,2022-10-28 10:53:02.687500
1687,-148.91,2022-10-28 10:53:02.703125
1688,-149.73,2022-10-28 10:53:02.718750
1689,-148.63,2022-10-28 10:53:02.734375
1690,-154.63,2022-10-28 10:53:02.750000
1691,-171.65,2022-10-28 10:53:02.765625
1692,-198.68,2022-10-28 10:53:02.781250
1693,-230.94,2022-10-28 10:53:02.796875
1694,-263.62,2022-10-28 10:53:02.812500
1695,-294.52,2022-10-28 10:53:02.828125
1696,-323.23,2022-10-28 10:53:02.843750
1697,-349.59,2022-10-28 10:53:02.859375
1698,-371.03,2022-10-28 10:53:02.875000
1699,-381.34,2022-10-28 10:53:02.890625
1700,-373.03,2022-10-28 10:53:02.906250
1701,-339.28,2022-10-28 10:53:02.921875
1702,-277.86,2022-10-28 10:53:02.937500
1703,-193.2,2022-10-28 10:53:02.953125
1704,-97.2,2022-10-28 10:53:02.968750
1705,-6.98,2022-10-28 10:53:02.984375
1706,59.33,2022-10-28 10:53:03.000000
1707,88.37,2022-10-28 10:53:03.015625
1708,76.61,2022-10-28 10:53:03.031250
1709,31.69,2022-10-28 10:53:03.046875
1710,-31.06,2022-10-28 10:53:03.062500
1711,-95.06,2022-10-28 10:53:03.078125
1712,-148.03,2022-10-28 10:53:03.093750
1713,-185.16,2022-10-28 10:53:03.109375
1714,-208.03,2022-10-28 10:53:03.125000
1715,-220.05,2022-10-28 10:53:03.140625
1716,-223.91,2022-10-28 10:53:03.156250
1717,-219.82,2022-10-28 10:53:03.171875
1718,-207.4,2022-10-28 10:53:03.187500
1719,-187.81,2022-10-28 10:53:03.203125
1720,-164.14,2022-10-28 10:53:03.218750
1721,-141.38,2022-10-28 10:53:03.234375
1722,-124.68,2022-10-28 10:53:03.250000
1723,-117.28,2022-10-28 10:53:03.265625
1724,-119.86,2022-10-28 10:53:03.281250
1725,-130.08,2022-10-28 10:53:03.296875
1726,-143.71,2022-10-28 10:53:03.312500
1727,-155.56,2022-10-28 10:53:03.328125
1728,-162.39,2022-10-28 10:53:03.343750
1729,-165.0,2022-10-28 10:53:03.359375
1730,-169.67,2022-10-28 10:53:03.375000
1731,-186.61,2022-10-28 10:53:03.390625
1732,-225.37,2022-10-28 10:53:03.406250
1733,-289.16,2022-10-28 10:53:03.421875
1734,-371.67,2022-10-28 10:53:03.437500
1735,-457.77,2022-10-28 10:53:03.453125
1736,-528.92,2022-10-28 10:53:03.468750
1737,-569.15,2022-10-28 10:53:03.484375
1738,-570.54,2022-10-28 10:53:03.500000
1739,-534.44,2022-10-28 10:53:03.515625
1740,-469.44,2022-10-28 10:53:03.531250
1741,-388.45,2022-10-28 10:53:03.546875
1742,-305.53,2022-10-28 10:53:03.562500
1743,-232.04,2022-10-28 10:53:03.578125
1744,-174.46,2022-10-28 10:53:03.593750
1745,-133.15,2022-10-28 10:53:03.609375
1746,-103.34,2022-10-28 10:53:03.625000
1747,-77.65,2022-10-28 10:53:03.640625
1748,-49.91,2022-10-28 10:53:03.656250
1749,-18.16,2022-10-28 10:53:03.671875
1750,14.83,2022-10-28 10:53:03.687500
1751,44.21,2022-10-28 10:53:03.703125
1752,67.41,2022-10-28 10:53:03.718750
1753,86.75,2022-10-28 10:53:03.734375
1754,108.79,2022-10-28 10:53:03.750000
1755,140.73,2022-10-28 10:53:03.765625
1756,186.24,2022-10-28 10:53:03.781250
1757,243.55,2022-10-28 10:53:03.796875
1758,306.0,2022-10-28 10:53:03.812500
1759,366.05,2022-10-28 10:53:03.828125
1760,417.55,2022-10-28 10:53:03.843750
1761,457.59,2022-10-28 10:53:03.859375
1762,486.27,2022-10-28 10:53:03.875000
1763,505.31,2022-10-28 10:53:03.890625
1764,516.36,2022-10-28 10:53:03.906250
1765,519.93,2022-10-28 10:53:03.921875
1766,514.17,2022-10-28 10:53:03.937500
1767,495.06,2022-10-28 10:53:03.953125
1768,457.52,2022-10-28 10:53:03.968750
1769,398.92,2022-10-28 10:53:03.984375
1770,320.47,2022-10-28 10:53:04.000000
1771,227.94,2022-10-28 10:53:04.015625
1772,130.96,2022-10-28 10:53:04.031250
1773,38.91,2022-10-28 10:53:04.046875
1774,-42.14,2022-10-28 10:53:04.062500
1775,-110.1,2022-10-28 10:53:04.078125
1776,-166.12,2022-10-28 10:53:04.093750
1777,-210.74,2022-10-28 10:53:04.109375
1778,-242.83,2022-10-28 10:53:04.125000
1779,-260.18,2022-10-28 10:53:04.140625
1780,-262.18,2022-10-28 10:53:04.156250
1781,-251.11,2022-10-28 10:53:04.171875
1782,-232.15,2022-10-28 10:53:04.187500
1783,-210.78,2022-10-28 10:53:04.203125
1784,-189.91,2022-10-28 10:53:04.218750
1785,-168.73,2022-10-28 10:53:04.234375
1786,-144.82,2022-10-28 10:53:04.250000
1787,-117.12,2022-10-28 10:53:04.265625
1788,-87.51,2022-10-28 10:53:04.281250
1789,-60.49,2022-10-28 10:53:04.296875
1790,-41.25,2022-10-28 10:53:04.312500
1791,-32.54,2022-10-28 10:53:04.328125
1792,-32.62,2022-10-28 10:53:04.343750
1793,-35.34,2022-10-28 10:53:04.359375
1794,-32.68,2022-10-28 10:53:04.375000
1795,-17.01,2022-10-28 10:53:04.390625
1796,15.7,2022-10-28 10:53:04.406250
1797,65.59,2022-10-28 10:53:04.421875
1798,128.64,2022-10-28 10:53:04.437500
1799,197.39,2022-10-28 10:53:04.453125
1800,262.14,2022-10-28 10:53:04.468750
1801,313.71,2022-10-28 10:53:04.484375
1802,345.72,2022-10-28 10:53:04.500000
1803,356.58,2022-10-28 10:53:04.515625
1804,350.2,2022-10-28 10:53:04.531250
1805,333.39,2022-10-28 10:53:04.546875
1806,312.91,2022-10-28 10:53:04.562500
1807,293.78,2022-10-28 10:53:04.578125
1808,278.01,2022-10-28 10:53:04.593750
1809,266.32,2022-10-28 10:53:04.609375
1810,258.97,2022-10-28 10:53:04.625000
1811,257.84,2022-10-28 10:53:04.640625
1812,265.53,2022-10-28 10:53:04.656250
1813,284.65,2022-10-28 10:53:04.671875
1814,315.29,2022-10-28 10:53:04.687500
1815,354.59,2022-10-28 10:53:04.703125
1816,396.58,2022-10-28 10:53:04.718750
1817,434.54,2022-10-28 10:53:04.734375
1818,462.9,2022-10-28 10:53:04.750000
1819,478.34,2022-10-28 10:53:04.765625
1820,479.96,2022-10-28 10:53:04.781250
1821,468.53,2022-10-28 10:53:04.796875
1822,445.76,2022-10-28 10:53:04.812500
1823,413.7,2022-10-28 10:53:04.828125
1824,373.58,2022-10-28 10:53:04.843750
1825,326.17,2022-10-28 10:53:04.859375
1826,271.87,2022-10-28 10:53:04.875000
1827,211.75,2022-10-28 10:53:04.890625
1828,146.81,2022-10-28 10:53:04.906250
1829,77.74,2022-10-28 10:53:04.921875
1830,4.55,2022-10-28 10:53:04.937500
1831,-73.46,2022-10-28 10:53:04.953125
1832,-156.39,2022-10-28 10:53:04.968750
1833,-242.87,2022-10-28 10:53:04.984375
1834,-330.52,2022-10-28 10:53:05.000000
1835,-417.57,2022-10-28 10:53:05.015625
1836,-503.41,2022-10-28 10:53:05.031250
1837,-588.24,2022-10-28 10:53:05.046875
1838,-670.83,2022-10-28 10:53:05.062500
1839,-747.0,2022-10-28 10:53:05.078125
1840,-809.99,2022-10-28 10:53:05.093750
1841,-852.64,2022-10-28 10:53:05.109375
1842,-870.75,2022-10-28 10:53:05.125000
1843,-865.07,2022-10-28 10:53:05.140625
1844,-840.71,2022-10-28 10:53:05.156250
1845,-803.82,2022-10-28 10:53:05.171875
1846,-759.06,2022-10-28 10:53:05.187500
1847,-707.01,2022-10-28 10:53:05.203125
1848,-646.3,2022-10-28 10:53:05.218750
1849,-575.17,2022-10-28 10:53:05.234375
1850,-493.28,2022-10-28 10:53:05.250000
1851,-402.26,2022-10-28 10:53:05.265625
1852,-302.91,2022-10-28 10:53:05.281250
1853,-196.11,2022-10-28 10:53:05.296875
1854,-83.53,2022-10-28 10:53:05.312500
1855,29.46,2022-10-28 10:53:05.328125
1856,132.29,2022-10-28 10:53:05.343750
1857,212.26,2022-10-28 10:53:05.359375
1858,259.24,2022-10-28 10:53:05.375000
1859,271.36,2022-10-28 10:53:05.390625
1860,256.42,2022-10-28 10:53:05.406250
1861,228.6,2022-10-28 10:53:05.421875
1862,201.86,2022-10-28 10:53:05.437500
1863,184.01,2022-10-28 10:53:05.453125
1864,174.21,2022-10-28 10:53:05.468750
1865,165.41,2022-10-28 10:53:05.484375
1866,150.21,2022-10-28 10:53:05.500000
1867,124.74,2022-10-28 10:53:05.515625
1868,90.84,2022-10-28 10:53:05.531250
1869,55.45,2022-10-28 10:53:05.546875
1870,27.41,2022-10-28 10:53:05.562500
1871,14.12,2022-10-28 10:53:05.578125
1872,19.3,2022-10-28 10:53:05.593750
1873,42.32,2022-10-28 10:53:05.609375
1874,79.11,2022-10-28 10:53:05.625000
1875,123.19,2022-10-28 10:53:05.640625
1876,167.28,2022-10-28 10:53:05.656250
1877,205.13,2022-10-28 10:53:05.671875
1878,230.36,2022-10-28 10:53:05.687500
1879,237.6,2022-10-28 10:53:05.703125
1880,222.85,2022-10-28 10:53:05.718750
1881,185.48,2022-10-28 10:53:05.734375
1882,129.98,2022-10-28 10:53:05.750000
1883,65.78,2022-10-28 10:53:05.765625
1884,5.89,2022-10-28 10:53:05.781250
1885,-38.65,2022-10-28 10:53:05.796875
1886,-61.95,2022-10-28 10:53:05.812500
1887,-65.53,2022-10-28 10:53:05.828125
1888,-56.51,2022-10-28 10:53:05.843750
1889,-42.84,2022-10-28 10:53:05.859375
1890,-29.88,2022-10-28 10:53:05.875000
1891,-19.23,2022-10-28 10:53:05.890625
1892,-10.15,2022-10-28 10:53:05.906250
1893,-2.45,2022-10-28 10:53:05.921875
1894,2.31,2022-10-28 10:53:05.937500
1895,1.99,2022-10-28 10:53:05.953125
1896,-3.46,2022-10-28 10:53:05.968750
1897,-11.34,2022-10-28 10:53:05.984375
1898,-16.37,2022-10-28 10:53:06.000000
1899,-13.6,2022-10-28 10:53:06.015625
1900,-1.84,2022-10-28 10:53:06.031250
1901,16.46,2022-10-28 10:53:06.046875
1902,36.43,2022-10-28 10:53:06.062500
1903,54.45,2022-10-28 10:53:06.078125
1904,69.67,2022-10-28 10:53:06.093750
1905,83.81,2022-10-28 10:53:06.109375
1906,98.98,2022-10-28 10:53:06.125000
1907,114.09,2022-10-28 10:53:06.140625
1908,123.52,2022-10-28 10:53:06.156250
1909,119.95,2022-10-28 10:53:06.171875
1910,97.58,2022-10-28 10:53:06.187500
1911,56.73,2022-10-28 10:53:06.203125
1912,4.85,2022-10-28 10:53:06.218750
1913,-44.54,2022-10-28 10:53:06.234375
1914,-78.02,2022-10-28 10:53:06.250000
1915,-87.68,2022-10-28 10:53:06.265625
1916,-74.44,2022-10-28 10:53:06.281250
1917,-48.54,2022-10-28 10:53:06.296875
1918,-24.68,2022-10-28 10:53:06.312500
1919,-15.53,2022-10-28 10:53:06.328125
1920,-26.1,2022-10-28 10:53:06.343750
1921,-51.43,2022-10-28 10:53:06.359375
1922,-78.86,2022-10-28 10:53:06.375000
1923,-93.52,2022-10-28 10:53:06.390625
1924,-84.16,2022-10-28 10:53:06.406250
1925,-46.68,2022-10-28 10:53:06.421875
1926,15.5,2022-10-28 10:53:06.437500
1927,93.16,2022-10-28 10:53:06.453125
1928,174.52,2022-10-28 10:53:06.468750
1929,247.85,2022-10-28 10:53:06.484375
1930,303.59,2022-10-28 10:53:06.500000
1931,335.01,2022-10-28 10:53:06.515625
1932,338.87,2022-10-28 10:53:06.531250
1933,316.28,2022-10-28 10:53:06.546875
1934,271.91,2022-10-28 10:53:06.562500
1935,213.41,2022-10-28 10:53:06.578125
1936,148.0,2022-10-28 10:53:06.593750
1937,80.79,2022-10-28 10:53:06.609375
1938,13.5,2022-10-28 10:53:06.625000
1939,-54.69,2022-10-28 10:53:06.640625
1940,-124.6,2022-10-28 10:53:06.656250
1941,-194.82,2022-10-28 10:53:06.671875
1942,-261.36,2022-10-28 10:53:06.687500
1943,-317.53,2022-10-28 10:53:06.703125
1944,-357.32,2022-10-28 10:53:06.718750
1945,-376.34,2022-10-28 10:53:06.734375
1946,-373.46,2022-10-28 10:53:06.750000
1947,-349.65,2022-10-28 10:53:06.765625
1948,-306.02,2022-10-28 10:53:06.781250
1949,-243.68,2022-10-28 10:53:06.796875
1950,-163.94,2022-10-28 10:53:06.812500
1951,-70.68,2022-10-28 10:53:06.828125
1952,28.73,2022-10-28 10:53:06.843750
1953,125.07,2022-10-28 10:53:06.859375
1954,210.9,2022-10-28 10:53:06.875000
1955,284.28,2022-10-28 10:53:06.890625
1956,348.02,2022-10-28 10:53:06.906250
1957,406.79,2022-10-28 10:53:06.921875
1958,461.54,2022-10-28 10:53:06.937500
1959,506.49,2022-10-28 10:53:06.953125
1960,530.62,2022-10-28 10:53:06.968750
1961,523.13,2022-10-28 10:53:06.984375
1962,480.28,2022-10-28 10:53:07.000000
1963,407.31,2022-10-28 10:53:07.015625
1964,316.14,2022-10-28 10:53:07.031250
1965,219.14,2022-10-28 10:53:07.046875
1966,123.66,2022-10-28 10:53:07.062500
1967,31.19,2022-10-28 10:53:07.078125
1968,-59.98,2022-10-28 10:53:07.093750
1969,-150.64,2022-10-28 10:53:07.109375
1970,-238.5,2022-10-28 10:53:07.125000
1971,-319.19,2022-10-28 10:53:07.140625
1972,-388.83,2022-10-28 10:53:07.156250
1973,-445.19,2022-10-28 10:53:07.171875
1974,-487.73,2022-10-28 10:53:07.187500
1975,-514.59,2022-10-28 10:53:07.203125
1976,-522.64,2022-10-28 10:53:07.218750
1977,-508.69,2022-10-28 10:53:07.234375
1978,-472.83,2022-10-28 10:53:07.250000
1979,-420.92,2022-10-28 10:53:07.265625
1980,-363.52,2022-10-28 10:53:07.281250
1981,-312.51,2022-10-28 10:53:07.296875
1982,-276.03,2022-10-28 10:53:07.312500
1983,-255.8,2022-10-28 10:53:07.328125
1984,-247.13,2022-10-28 10:53:07.343750
1985,-241.27,2022-10-28 10:53:07.359375
1986,-229.17,2022-10-28 10:53:07.375000
1987,-203.71,2022-10-28 10:53:07.390625
1988,-162.3,2022-10-28 10:53:07.406250
1989,-107.52,2022-10-28 10:53:07.421875
1990,-46.35,2022-10-28 10:53:07.437500
1991,12.27,2022-10-28 10:53:07.453125
1992,59.47,2022-10-28 10:53:07.468750
1993,89.15,2022-10-28 10:53:07.484375
1994,99.96,2022-10-28 10:53:07.500000
1995,94.73,2022-10-28 10:53:07.515625
1996,79.89,2022-10-28 10:53:07.531250
1997,62.97,2022-10-28 10:53:07.546875
1998,50.63,2022-10-28 10:53:07.562500
1999,46.78,2022-10-28 10:53:07.578125
2000,52.89,2022-10-28 10:53:07.593750
2001,68.1,2022-10-28 10:53:07.609375
2002,90.03,2022-10-28 10:53:07.625000
2003,115.84,2022-10-28 10:53:07.640625
2004,142.24,2022-10-28 10:53:07.656250
2005,166.1,2022-10-28 10:53:07.671875
2006,184.38,2022-10-28 10:53:07.687500
2007,194.82,2022-10-28 10:53:07.703125
2008,197.05,2022-10-28 10:53:07.718750
2009,193.02,2022-10-28 10:53:07.734375
2010,186.38,2022-10-28 10:53:07.750000
2011,181.47,2022-10-28 10:53:07.765625
2012,180.65,2022-10-28 10:53:07.781250
2013,182.96,2022-10-28 10:53:07.796875
2014,184.61,2022-10-28 10:53:07.812500
2015,180.89,2022-10-28 10:53:07.828125
2016,169.59,2022-10-28 10:53:07.843750
2017,152.4,2022-10-28 10:53:07.859375
2018,133.45,2022-10-28 10:53:07.875000
2019,116.11,2022-10-28 10:53:07.890625
2020,100.21,2022-10-28 10:53:07.906250
2021,82.22,2022-10-28 10:53:07.921875
2022,57.15,2022-10-28 10:53:07.937500
2023,23.0,2022-10-28 10:53:07.953125
2024,-17.87,2022-10-28 10:53:07.968750
2025,-60.33,2022-10-28 10:53:07.984375
2026,-98.64,2022-10-28 10:53:08.000000
2027,-130.14,2022-10-28 10:53:08.015625
2028,-154.78,2022-10-28 10:53:08.031250
2029,-173.5,2022-10-28 10:53:08.046875
2030,-186.19,2022-10-28 10:53:08.062500
2031,-189.75,2022-10-28 10:53:08.078125
2032,-179.69,2022-10-28 10:53:08.093750
2033,-152.79,2022-10-28 10:53:08.109375
2034,-109.33,2022-10-28 10:53:08.125000
2035,-54.19,2022-10-28 10:53:08.140625
2036,5.56,2022-10-28 10:53:08.156250
2037,63.02,2022-10-28 10:53:08.171875
2038,114.13,2022-10-28 10:53:08.187500
2039,157.7,2022-10-28 10:53:08.203125
2040,194.34,2022-10-28 10:53:08.218750
2041,224.72,2022-10-28 10:53:08.234375
2042,248.01,2022-10-28 10:53:08.250000
2043,262.45,2022-10-28 10:53:08.265625
2044,266.12,2022-10-28 10:53:08.281250
2045,258.73,2022-10-28 10:53:08.296875
2046,242.58,2022-10-28 10:53:08.312500
2047,222.14,2022-10-28 10:53:08.328125
2048,202.26,2022-10-28 10:53:08.343750
2049,186.1,2022-10-28 10:53:08.359375
2050,174.39,2022-10-28 10:53:08.375000
2051,166.06,2022-10-28 10:53:08.390625
2052,159.53,2022-10-28 10:53:08.406250
2053,154.01,2022-10-28 10:53:08.421875
2054,148.88,2022-10-28 10:53:08.437500
2055,141.66,2022-10-28 10:53:08.453125
2056,127.99,2022-10-28 10:53:08.468750
2057,100.91,2022-10-28 10:53:08.484375
2058,55.25,2022-10-28 10:53:08.500000
2059,-9.37,2022-10-28 10:53:08.515625
2060,-86.64,2022-10-28 10:53:08.531250
2061,-164.5,2022-10-28 10:53:08.546875
2062,-230.68,2022-10-28 10:53:08.562500
2063,-277.44,2022-10-28 10:53:08.578125
2064,-305.4,2022-10-28 10:53:08.593750
2065,-322.66,2022-10-28 10:53:08.609375
2066,-340.91,2022-10-28 10:53:08.625000
2067,-370.77,2022-10-28 10:53:08.640625
2068,-417.49,2022-10-28 10:53:08.656250
2069,-479.27,2022-10-28 10:53:08.671875
2070,-547.37,2022-10-28 10:53:08.687500
2071,-607.49,2022-10-28 10:53:08.703125
2072,-643.65,2022-10-28 10:53:08.718750
2073,-643.14,2022-10-28 10:53:08.734375
2074,-600.37,2022-10-28 10:53:08.750000
2075,-519.23,2022-10-28 10:53:08.765625
2076,-411.81,2022-10-28 10:53:08.781250
2077,-293.49,2022-10-28 10:53:08.796875
2078,-177.6,2022-10-28 10:53:08.812500
2079,-71.79,2022-10-28 10:53:08.828125
2080,22.43,2022-10-28 10:53:08.843750
2081,107.14,2022-10-28 10:53:08.859375
2082,183.51,2022-10-28 10:53:08.875000
2083,249.9,2022-10-28 10:53:08.890625
2084,302.78,2022-10-28 10:53:08.906250
2085,339.05,2022-10-28 10:53:08.921875
2086,359.93,2022-10-28 10:53:08.937500
2087,369.93,2022-10-28 10:53:08.953125
2088,375.95,2022-10-28 10:53:08.968750
2089,383.34,2022-10-28 10:53:08.984375
2090,392.75,2022-10-28 10:53:09.000000
2091,400.47,2022-10-28 10:53:09.015625
2092,400.7,2022-10-28 10:53:09.031250
2093,389.21,2022-10-28 10:53:09.046875
2094,365.88,2022-10-28 10:53:09.062500
2095,334.45,2022-10-28 10:53:09.078125
2096,300.33,2022-10-28 10:53:09.093750
2097,267.11,2022-10-28 10:53:09.109375
2098,234.27,2022-10-28 10:53:09.125000
2099,198.4,2022-10-28 10:53:09.140625
2100,155.87,2022-10-28 10:53:09.156250
2101,105.63,2022-10-28 10:53:09.171875
2102,49.73,2022-10-28 10:53:09.187500
2103,-7.97,2022-10-28 10:53:09.203125
2104,-64.03,2022-10-28 10:53:09.218750
2105,-117.49,2022-10-28 10:53:09.234375
2106,-169.92,2022-10-28 10:53:09.250000
2107,-223.0,2022-10-28 10:53:09.265625
2108,-275.63,2022-10-28 10:53:09.281250
2109,-322.38,2022-10-28 10:53:09.296875
2110,-354.4,2022-10-28 10:53:09.312500
2111,-362.72,2022-10-28 10:53:09.328125
2112,-342.41,2022-10-28 10:53:09.343750
2113,-294.59,2022-10-28 10:53:09.359375
2114,-226.72,2022-10-28 10:53:09.375000
2115,-149.47,2022-10-28 10:53:09.390625
2116,-72.73,2022-10-28 10:53:09.406250
2117,-3.36,2022-10-28 10:53:09.421875
2118,56.83,2022-10-28 10:53:09.437500
2119,108.68,2022-10-28 10:53:09.453125
2120,153.61,2022-10-28 10:53:09.468750
2121,192.31,2022-10-28 10:53:09.484375
2122,224.37,2022-10-28 10:53:09.500000
2123,249.22,2022-10-28 10:53:09.515625
2124,268.42,2022-10-28 10:53:09.531250
2125,285.79,2022-10-28 10:53:09.546875
2126,306.68,2022-10-28 10:53:09.562500
2127,334.61,2022-10-28 10:53:09.578125
2128,368.87,2022-10-28 10:53:09.593750
2129,403.64,2022-10-28 10:53:09.609375
2130,429.37,2022-10-28 10:53:09.625000
2131,437.31,2022-10-28 10:53:09.640625
2132,424.14,2022-10-28 10:53:09.656250
2133,393.7,2022-10-28 10:53:09.671875
2134,356.32,2022-10-28 10:53:09.687500
2135,323.43,2022-10-28 10:53:09.703125
2136,302.25,2022-10-28 10:53:09.718750
2137,292.16,2022-10-28 10:53:09.734375
2138,284.86,2022-10-28 10:53:09.750000
2139,267.8,2022-10-28 10:53:09.765625
2140,229.76,2022-10-28 10:53:09.781250
2141,164.71,2022-10-28 10:53:09.796875
2142,73.88,2022-10-28 10:53:09.812500
2143,-35.3,2022-10-28 10:53:09.828125
2144,-152.13,2022-10-28 10:53:09.843750
2145,-266.3,2022-10-28 10:53:09.859375
2146,-371.22,2022-10-28 10:53:09.875000
2147,-464.74,2022-10-28 10:53:09.890625
2148,-548.0,2022-10-28 10:53:09.906250
2149,-622.21,2022-10-28 10:53:09.921875
2150,-685.25,2022-10-28 10:53:09.937500
2151,-731.47,2022-10-28 10:53:09.953125
2152,-753.78,2022-10-28 10:53:09.968750
2153,-748.66,2022-10-28 10:53:09.984375
2154,-718.4,2022-10-28 10:53:10.000000
2155,-670.81,2022-10-28 10:53:10.015625
2156,-614.89,2022-10-28 10:53:10.031250
2157,-555.68,2022-10-28 10:53:10.046875
2158,-491.25,2022-10-28 10:53:10.062500
2159,-415.41,2022-10-28 10:53:10.078125
2160,-322.9,2022-10-28 10:53:10.093750
2161,-214.75,2022-10-28 10:53:10.109375
2162,-100.04,2022-10-28 10:53:10.125000
2163,7.05,2022-10-28 10:53:10.140625
2164,93.56,2022-10-28 10:53:10.156250
2165,152.3,2022-10-28 10:53:10.171875
2166,183.54,2022-10-28 10:53:10.187500
2167,193.01,2022-10-28 10:53:10.203125
2168,188.86,2022-10-28 10:53:10.218750
2169,178.41,2022-10-28 10:53:10.234375
2170,167.97,2022-10-28 10:53:10.250000
2171,162.66,2022-10-28 10:53:10.265625
2172,167.25,2022-10-28 10:53:10.281250
2173,186.15,2022-10-28 10:53:10.296875
2174,221.97,2022-10-28 10:53:10.312500
2175,273.41,2022-10-28 10:53:10.328125
2176,334.03,2022-10-28 10:53:10.343750
2177,393.64,2022-10-28 10:53:10.359375
2178,440.43,2022-10-28 10:53:10.375000
2179,464.96,2022-10-28 10:53:10.390625
2180,463.01,2022-10-28 10:53:10.406250
2181,436.57,2022-10-28 10:53:10.421875
2182,393.03,2022-10-28 10:53:10.437500
2183,341.66,2022-10-28 10:53:10.453125
2184,291.84,2022-10-28 10:53:10.468750
2185,250.65,2022-10-28 10:53:10.484375
2186,221.41,2022-10-28 10:53:10.500000
2187,204.04,2022-10-28 10:53:10.515625
2188,195.84,2022-10-28 10:53:10.531250
2189,192.65,2022-10-28 10:53:10.546875
2190,189.89,2022-10-28 10:53:10.562500
2191,183.2,2022-10-28 10:53:10.578125
2192,168.79,2022-10-28 10:53:10.593750
2193,143.84,2022-10-28 10:53:10.609375
2194,107.12,2022-10-28 10:53:10.625000
2195,60.45,2022-10-28 10:53:10.640625
2196,9.41,2022-10-28 10:53:10.656250
2197,-36.97,2022-10-28 10:53:10.671875
2198,-69.27,2022-10-28 10:53:10.687500
2199,-81.62,2022-10-28 10:53:10.703125
2200,-74.25,2022-10-28 10:53:10.718750
2201,-54.55,2022-10-28 10:53:10.734375
2202,-34.4,2022-10-28 10:53:10.750000
2203,-25.58,2022-10-28 10:53:10.765625
2204,-37.02,2022-10-28 10:53:10.781250
2205,-72.2,2022-10-28 10:53:10.796875
2206,-129.32,2022-10-28 10:53:10.812500
2207,-202.24,2022-10-28 10:53:10.828125
2208,-281.58,2022-10-28 10:53:10.843750
2209,-356.54,2022-10-28 10:53:10.859375
2210,-417.43,2022-10-28 10:53:10.875000
2211,-458.22,2022-10-28 10:53:10.890625
2212,-478.13,2022-10-28 10:53:10.906250
2213,-482.09,2022-10-28 10:53:10.921875
2214,-478.24,2022-10-28 10:53:10.937500
2215,-474.74,2022-10-28 10:53:10.953125
2216,-476.92,2022-10-28 10:53:10.968750
2217,-485.33,2022-10-28 10:53:10.984375
2218,-496.47,2022-10-28 10:53:11.000000
2219,-505.1,2022-10-28 10:53:11.015625
2220,-505.89,2022-10-28 10:53:11.031250
2221,-495.1,2022-10-28 10:53:11.046875
2222,-471.63,2022-10-28 10:53:11.062500
2223,-435.97,2022-10-28 10:53:11.078125
2224,-390.55,2022-10-28 10:53:11.093750
2225,-338.96,2022-10-28 10:53:11.109375
2226,-286.0,2022-10-28 10:53:11.125000
2227,-237.4,2022-10-28 10:53:11.140625
2228,-199.13,2022-10-28 10:53:11.156250
2229,-174.61,2022-10-28 10:53:11.171875
2230,-162.5,2022-10-28 10:53:11.187500
2231,-155.72,2022-10-28 10:53:11.203125
2232,-143.5,2022-10-28 10:53:11.218750
2233,-115.96,2022-10-28 10:53:11.234375
2234,-68.94,2022-10-28 10:53:11.250000
2235,-6.09,2022-10-28 10:53:11.265625
2236,62.71,2022-10-28 10:53:11.281250
2237,125.9,2022-10-28 10:53:11.296875
2238,175.17,2022-10-28 10:53:11.312500
2239,207.33,2022-10-28 10:53:11.328125
2240,225.02,2022-10-28 10:53:11.343750
2241,233.58,2022-10-28 10:53:11.359375
2242,238.3,2022-10-28 10:53:11.375000
2243,241.73,2022-10-28 10:53:11.390625
2244,242.61,2022-10-28 10:53:11.406250
2245,236.64,2022-10-28 10:53:11.421875
2246,218.36,2022-10-28 10:53:11.437500
2247,184.14,2022-10-28 10:53:11.453125
2248,134.55,2022-10-28 10:53:11.468750
2249,75.37,2022-10-28 10:53:11.484375
2250,16.4,2022-10-28 10:53:11.500000
2251,-33.09,2022-10-28 10:53:11.515625
2252,-68.25,2022-10-28 10:53:11.531250
2253,-90.51,2022-10-28 10:53:11.546875
2254,-106.49,2022-10-28 10:53:11.562500
2255,-123.3,2022-10-28 10:53:11.578125
2256,-144.08,2022-10-28 10:53:11.593750
2257,-167.14,2022-10-28 10:53:11.609375
2258,-187.39,2022-10-28 10:53:11.625000
2259,-199.63,2022-10-28 10:53:11.640625
2260,-201.51,2022-10-28 10:53:11.656250
2261,-193.69,2022-10-28 10:53:11.671875
2262,-177.79,2022-10-28 10:53:11.687500
2263,-154.18,2022-10-28 10:53:11.703125
2264,-120.69,2022-10-28 10:53:11.718750
2265,-73.54,2022-10-28 10:53:11.734375
2266,-10.83,2022-10-28 10:53:11.750000
2267,65.91,2022-10-28 10:53:11.765625
2268,150.96,2022-10-28 10:53:11.781250
2269,237.05,2022-10-28 10:53:11.796875
2270,318.75,2022-10-28 10:53:11.812500
2271,393.96,2022-10-28 10:53:11.828125
2272,463.99,2022-10-28 10:53:11.843750
2273,530.75,2022-10-28 10:53:11.859375
2274,594.26,2022-10-28 10:53:11.875000
2275,651.47,2022-10-28 10:53:11.890625
2276,696.64,2022-10-28 10:53:11.906250
2277,724.58,2022-10-28 10:53:11.921875
2278,732.74,2022-10-28 10:53:11.937500
2279,723.3,2022-10-28 10:53:11.953125
2280,702.46,2022-10-28 10:53:11.968750
2281,677.3,2022-10-28 10:53:11.984375
2282,652.55,2022-10-28 10:53:12.000000
2283,627.8,2022-10-28 10:53:12.015625
2284,597.67,2022-10-28 10:53:12.031250
2285,555.5,2022-10-28 10:53:12.046875
2286,497.31,2022-10-28 10:53:12.062500
2287,424.51,2022-10-28 10:53:12.078125
2288,344.03,2022-10-28 10:53:12.093750
2289,263.83,2022-10-28 10:53:12.109375
2290,188.25,2022-10-28 10:53:12.125000
2291,115.8,2022-10-28 10:53:12.140625
2292,41.27,2022-10-28 10:53:12.156250
2293,-40.06,2022-10-28 10:53:12.171875
2294,-126.28,2022-10-28 10:53:12.187500
2295,-208.53,2022-10-28 10:53:12.203125
2296,-274.66,2022-10-28 10:53:12.218750
2297,-314.34,2022-10-28 10:53:12.234375
2298,-325.15,2022-10-28 10:53:12.250000
2299,-312.02,2022-10-28 10:53:12.265625
2300,-284.97,2022-10-28 10:53:12.281250
2301,-253.38,2022-10-28 10:53:12.296875
2302,-222.02,2022-10-28 10:53:12.312500
2303,-190.95,2022-10-28 10:53:12.328125
2304,-157.39,2022-10-28 10:53:12.343750
2305,-119.5,2022-10-28 10:53:12.359375
2306,-78.16,2022-10-28 10:53:12.375000
2307,-36.88,2022-10-28 10:53:12.390625
2308,-0.77,2022-10-28 10:53:12.406250
2309,26.42,2022-10-28 10:53:12.421875
2310,42.2,2022-10-28 10:53:12.437500
2311,45.93,2022-10-28 10:53:12.453125
2312,38.33,2022-10-28 10:53:12.468750
2313,20.46,2022-10-28 10:53:12.484375
2314,-5.27,2022-10-28 10:53:12.500000
2315,-35.2,2022-10-28 10:53:12.515625
2316,-65.48,2022-10-28 10:53:12.531250
2317,-93.23,2022-10-28 10:53:12.546875
2318,-118.22,2022-10-28 10:53:12.562500
2319,-142.74,2022-10-28 10:53:12.578125
2320,-169.36,2022-10-28 10:53:12.593750
2321,-199.35,2022-10-28 10:53:12.609375
2322,-231.54,2022-10-28 10:53:12.625000
2323,-263.01,2022-10-28 10:53:12.640625
2324,-290.26,2022-10-28 10:53:12.656250
2325,-312.25,2022-10-28 10:53:12.671875
2326,-330.4,2022-10-28 10:53:12.687500
2327,-347.48,2022-10-28 10:53:12.703125
2328,-365.59,2022-10-28 10:53:12.718750
2329,-383.5,2022-10-28 10:53:12.734375
2330,-396.98,2022-10-28 10:53:12.750000
2331,-399.28,2022-10-28 10:53:12.765625
2332,-385.23,2022-10-28 10:53:12.781250
2333,-354.7,2022-10-28 10:53:12.796875
2334,-313.42,2022-10-28 10:53:12.812500
2335,-272.19,2022-10-28 10:53:12.828125
2336,-242.5,2022-10-28 10:53:12.843750
2337,-232.03,2022-10-28 10:53:12.859375
2338,-240.91,2022-10-28 10:53:12.875000
2339,-260.5,2022-10-28 10:53:12.890625
2340,-277.58,2022-10-28 10:53:12.906250
2341,-278.94,2022-10-28 10:53:12.921875
2342,-257.5,2022-10-28 10:53:12.937500
2343,-215.43,2022-10-28 10:53:12.953125
2344,-162.05,2022-10-28 10:53:12.968750
2345,-109.79,2022-10-28 10:53:12.984375
2346,-68.19,2022-10-28 10:53:13.000000
2347,-41.09,2022-10-28 10:53:13.015625
2348,-26.69,2022-10-28 10:53:13.031250
2349,-19.02,2022-10-28 10:53:13.046875
2350,-11.2,2022-10-28 10:53:13.062500
2351,2.61,2022-10-28 10:53:13.078125
2352,27.24,2022-10-28 10:53:13.093750
2353,65.67,2022-10-28 10:53:13.109375
2354,118.7,2022-10-28 10:53:13.125000
2355,183.23,2022-10-28 10:53:13.140625
2356,252.0,2022-10-28 10:53:13.156250
2357,314.71,2022-10-28 10:53:13.171875
2358,360.85,2022-10-28 10:53:13.187500
2359,383.13,2022-10-28 10:53:13.203125
2360,379.82,2022-10-28 10:53:13.218750
2361,355.85,2022-10-28 10:53:13.234375
2362,320.03,2022-10-28 10:53:13.250000
2363,282.67,2022-10-28 10:53:13.265625
2364,253.31,2022-10-28 10:53:13.281250
2365,239.2,2022-10-28 10:53:13.296875
2366,243.79,2022-10-28 10:53:13.312500
2367,265.29,2022-10-28 10:53:13.328125
2368,296.7,2022-10-28 10:53:13.343750
2369,327.18,2022-10-28 10:53:13.359375
2370,346.11,2022-10-28 10:53:13.375000
2371,348.07,2022-10-28 10:53:13.390625
2372,334.43,2022-10-28 10:53:13.406250
2373,312.31,2022-10-28 10:53:13.421875
2374,289.68,2022-10-28 10:53:13.437500
2375,271.39,2022-10-28 10:53:13.453125
2376,257.93,2022-10-28 10:53:13.468750
2377,246.85,2022-10-28 10:53:13.484375
2378,236.71,2022-10-28 10:53:13.500000
2379,229.07,2022-10-28 10:53:13.515625
2380,227.08,2022-10-28 10:53:13.531250
2381,232.57,2022-10-28 10:53:13.546875
2382,243.45,2022-10-28 10:53:13.562500
2383,253.3,2022-10-28 10:53:13.578125
2384,254.93,2022-10-28 10:53:13.593750
2385,244.56,2022-10-28 10:53:13.609375
2386,223.93,2022-10-28 10:53:13.625000
2387,198.86,2022-10-28 10:53:13.640625
2388,175.05,2022-10-28 10:53:13.656250
2389,154.86,2022-10-28 10:53:13.671875
2390,136.85,2022-10-28 10:53:13.687500
2391,118.17,2022-10-28 10:53:13.703125
2392,97.8,2022-10-28 10:53:13.718750
2393,78.41,2022-10-28 10:53:13.734375
2394,64.59,2022-10-28 10:53:13.750000
2395,59.22,2022-10-28 10:53:13.765625
2396,60.61,2022-10-28 10:53:13.781250
2397,62.73,2022-10-28 10:53:13.796875
2398,57.85,2022-10-28 10:53:13.812500
2399,40.82,2022-10-28 10:53:13.828125
2400,12.34,2022-10-28 10:53:13.843750
2401,-22.02,2022-10-28 10:53:13.859375
2402,-53.89,2022-10-28 10:53:13.875000
2403,-76.18,2022-10-28 10:53:13.890625
2404,-86.07,2022-10-28 10:53:13.906250
2405,-84.63,2022-10-28 10:53:13.921875
2406,-76.4,2022-10-28 10:53:13.937500
2407,-67.88,2022-10-28 10:53:13.953125
2408,-66.23,2022-10-28 10:53:13.968750
2409,-79.04,2022-10-28 10:53:13.984375
2410,-111.95,2022-10-28 10:53:14.000000
2411,-166.49,2022-10-28 10:53:14.015625
2412,-238.12,2022-10-28 10:53:14.031250
2413,-317.43,2022-10-28 10:53:14.046875
2414,-393.32,2022-10-28 10:53:14.062500
2415,-458.08,2022-10-28 10:53:14.078125
2416,-510.08,2022-10-28 10:53:14.093750
2417,-552.83,2022-10-28 10:53:14.109375
2418,-591.12,2022-10-28 10:53:14.125000
2419,-626.32,2022-10-28 10:53:14.140625
2420,-655.88,2022-10-28 10:53:14.156250
2421,-674.31,2022-10-28 10:53:14.171875
2422,-678.01,2022-10-28 10:53:14.187500
2423,-667.88,2022-10-28 10:53:14.203125
2424,-648.89,2022-10-28 10:53:14.218750
2425,-626.15,2022-10-28 10:53:14.234375
2426,-599.82,2022-10-28 10:53:14.250000
2427,-564.45,2022-10-28 10:53:14.265625
2428,-511.28,2022-10-28 10:53:14.281250
2429,-433.77,2022-10-28 10:53:14.296875
2430,-332.27,2022-10-28 10:53:14.312500
2431,-214.08,2022-10-28 10:53:14.328125
2432,-90.19,2022-10-28 10:53:14.343750
2433,29.29,2022-10-28 10:53:14.359375
2434,137.61,2022-10-28 10:53:14.375000
2435,231.54,2022-10-28 10:53:14.390625
2436,309.09,2022-10-28 10:53:14.406250
2437,368.08,2022-10-28 10:53:14.421875
2438,405.96,2022-10-28 10:53:14.437500
2439,421.76,2022-10-28 10:53:14.453125
2440,417.45,2022-10-28 10:53:14.468750
2441,397.44,2022-10-28 10:53:14.484375
2442,366.92,2022-10-28 10:53:14.500000
2443,329.89,2022-10-28 10:53:14.515625
2444,289.29,2022-10-28 10:53:14.531250
2445,247.53,2022-10-28 10:53:14.546875
2446,207.25,2022-10-28 10:53:14.562500
2447,170.51,2022-10-28 10:53:14.578125
2448,136.58,2022-10-28 10:53:14.593750
2449,101.32,2022-10-28 10:53:14.609375
2450,58.34,2022-10-28 10:53:14.625000
2451,3.46,2022-10-28 10:53:14.640625
2452,-62.6,2022-10-28 10:53:14.656250
2453,-133.47,2022-10-28 10:53:14.671875
2454,-201.41,2022-10-28 10:53:14.687500
2455,-261.01,2022-10-28 10:53:14.703125
2456,-312.04,2022-10-28 10:53:14.718750
2457,-358.0,2022-10-28 10:53:14.734375
2458,-401.98,2022-10-28 10:53:14.750000
2459,-444.15,2022-10-28 10:53:14.765625
2460,-480.64,2022-10-28 10:53:14.781250
2461,-506.44,2022-10-28 10:53:14.796875
2462,-517.69,2022-10-28 10:53:14.812500
2463,-512.26,2022-10-28 10:53:14.828125
2464,-489.78,2022-10-28 10:53:14.843750
2465,-450.58,2022-10-28 10:53:14.859375
2466,-396.83,2022-10-28 10:53:14.875000
2467,-333.3,2022-10-28 10:53:14.890625
2468,-267.88,2022-10-28 10:53:14.906250
2469,-208.17,2022-10-28 10:53:14.921875
2470,-157.54,2022-10-28 10:53:14.937500
2471,-112.02,2022-10-28 10:53:14.953125
2472,-61.6,2022-10-28 10:53:14.968750
2473,4.67,2022-10-28 10:53:14.984375
2474,92.24,2022-10-28 10:53:15.000000
2475,197.96,2022-10-28 10:53:15.015625
2476,311.58,2022-10-28 10:53:15.031250
2477,421.03,2022-10-28 10:53:15.046875
2478,517.68,2022-10-28 10:53:15.062500
2479,598.97,2022-10-28 10:53:15.078125
2480,666.51,2022-10-28 10:53:15.093750
2481,722.65,2022-10-28 10:53:15.109375
2482,767.63,2022-10-28 10:53:15.125000
2483,799.96,2022-10-28 10:53:15.140625
2484,818.23,2022-10-28 10:53:15.156250
2485,823.43,2022-10-28 10:53:15.171875
2486,817.5,2022-10-28 10:53:15.187500
2487,801.9,2022-10-28 10:53:15.203125
2488,774.79,2022-10-28 10:53:15.218750
2489,730.57,2022-10-28 10:53:15.234375
2490,662.79,2022-10-28 10:53:15.250000
2491,568.29,2022-10-28 10:53:15.265625
2492,450.77,2022-10-28 10:53:15.281250
2493,319.88,2022-10-28 10:53:15.296875
2494,188.17,2022-10-28 10:53:15.312500
2495,66.39,2022-10-28 10:53:15.328125
2496,-39.73,2022-10-28 10:53:15.343750
2497,-129.22,2022-10-28 10:53:15.359375
2498,-204.0,2022-10-28 10:53:15.375000
2499,-265.86,2022-10-28 10:53:15.390625
2500,-315.43,2022-10-28 10:53:15.406250
2501,-352.91,2022-10-28 10:53:15.421875
2502,-379.92,2022-10-28 10:53:15.437500
2503,-400.1,2022-10-28 10:53:15.453125
2504,-417.69,2022-10-28 10:53:15.468750
2505,-435.26,2022-10-28 10:53:15.484375
2506,-450.91,2022-10-28 10:53:15.500000
2507,-458.87,2022-10-28 10:53:15.515625
2508,-451.82,2022-10-28 10:53:15.531250
2509,-425.53,2022-10-28 10:53:15.546875
2510,-380.94,2022-10-28 10:53:15.562500
2511,-324.42,2022-10-28 10:53:15.578125
2512,-264.53,2022-10-28 10:53:15.593750
2513,-207.82,2022-10-28 10:53:15.609375
2514,-157.03,2022-10-28 10:53:15.625000
2515,-111.3,2022-10-28 10:53:15.640625
2516,-69.22,2022-10-28 10:53:15.656250
2517,-31.12,2022-10-28 10:53:15.671875
2518,0.04,2022-10-28 10:53:15.687500
2519,20.38,2022-10-28 10:53:15.703125
2520,29.26,2022-10-28 10:53:15.718750
2521,31.7,2022-10-28 10:53:15.734375
2522,37.79,2022-10-28 10:53:15.750000
2523,58.64,2022-10-28 10:53:15.765625
2524,101.06,2022-10-28 10:53:15.781250
2525,164.78,2022-10-28 10:53:15.796875
2526,242.13,2022-10-28 10:53:15.812500
2527,322.04,2022-10-28 10:53:15.828125
2528,393.88,2022-10-28 10:53:15.843750
2529,449.8,2022-10-28 10:53:15.859375
2530,486.18,2022-10-28 10:53:15.875000
2531,502.29,2022-10-28 10:53:15.890625
2532,500.23,2022-10-28 10:53:15.906250
2533,483.31,2022-10-28 10:53:15.921875
2534,455.52,2022-10-28 10:53:15.937500
2535,420.93,2022-10-28 10:53:15.953125
2536,382.36,2022-10-28 10:53:15.968750
2537,340.95,2022-10-28 10:53:15.984375
2538,296.38,2022-10-28 10:53:16.000000
2539,247.27,2022-10-28 10:53:16.015625
2540,192.03,2022-10-28 10:53:16.031250
2541,129.39,2022-10-28 10:53:16.046875
2542,59.6,2022-10-28 10:53:16.062500
2543,-15.28,2022-10-28 10:53:16.078125
2544,-90.88,2022-10-28 10:53:16.093750
2545,-161.19,2022-10-28 10:53:16.109375
2546,-219.68,2022-10-28 10:53:16.125000
2547,-261.2,2022-10-28 10:53:16.140625
2548,-283.04,2022-10-28 10:53:16.156250
2549,-285.56,2022-10-28 10:53:16.171875
2550,-272.15,2022-10-28 10:53:16.187500
2551,-248.95,2022-10-28 10:53:16.203125
2552,-224.6,2022-10-28 10:53:16.218750
2553,-209.7,2022-10-28 10:53:16.234375
2554,-214.55,2022-10-28 10:53:16.250000
2555,-245.04,2022-10-28 10:53:16.265625
2556,-299.49,2022-10-28 10:53:16.281250
2557,-367.46,2022-10-28 10:53:16.296875
2558,-434.64,2022-10-28 10:53:16.312500
2559,-488.71,2022-10-28 10:53:16.328125
2560,-525.2,2022-10-28 10:53:16.343750
2561,-548.82,2022-10-28 10:53:16.359375
2562,-568.16,2022-10-28 10:53:16.375000
2563,-589.72,2022-10-28 10:53:16.390625
2564,-612.73,2022-10-28 10:53:16.406250
2565,-630.39,2022-10-28 10:53:16.421875
2566,-633.96,2022-10-28 10:53:16.437500
2567,-617.57,2022-10-28 10:53:16.453125
2568,-581.9,2022-10-28 10:53:16.468750
2569,-532.88,2022-10-28 10:53:16.484375
2570,-478.62,2022-10-28 10:53:16.500000
2571,-426.31,2022-10-28 10:53:16.515625
2572,-380.52,2022-10-28 10:53:16.531250
2573,-342.8,2022-10-28 10:53:16.546875
2574,-312.33,2022-10-28 10:53:16.562500
2575,-286.58,2022-10-28 10:53:16.578125
2576,-261.65,2022-10-28 10:53:16.593750
2577,-233.98,2022-10-28 10:53:16.609375
2578,-200.32,2022-10-28 10:53:16.625000
2579,-159.62,2022-10-28 10:53:16.640625
2580,-113.35,2022-10-28 10:53:16.656250
2581,-63.64,2022-10-28 10:53:16.671875
2582,-12.44,2022-10-28 10:53:16.687500
2583,40.25,2022-10-28 10:53:16.703125
2584,95.88,2022-10-28 10:53:16.718750
2585,155.42,2022-10-28 10:53:16.734375
2586,218.29,2022-10-28 10:53:16.750000
2587,281.71,2022-10-28 10:53:16.765625
2588,341.7,2022-10-28 10:53:16.781250
2589,395.34,2022-10-28 10:53:16.796875
2590,442.43,2022-10-28 10:53:16.812500
2591,486.27,2022-10-28 10:53:16.828125
2592,532.25,2022-10-28 10:53:16.843750
2593,584.61,2022-10-28 10:53:16.859375
2594,643.17,2022-10-28 10:53:16.875000
2595,702.01,2022-10-28 10:53:16.890625
2596,752.43,2022-10-28 10:53:16.906250
2597,787.29,2022-10-28 10:53:16.921875
2598,805.01,2022-10-28 10:53:16.937500
2599,810.84,2022-10-28 10:53:16.953125
2600,812.71,2022-10-28 10:53:16.968750
2601,815.25,2022-10-28 10:53:16.984375
2602,816.84,2022-10-28 10:53:17.000000
2603,809.49,2022-10-28 10:53:17.015625
2604,783.25,2022-10-28 10:53:17.031250
2605,731.72,2022-10-28 10:53:17.046875
2606,655.46,2022-10-28 10:53:17.062500
2607,562.27,2022-10-28 10:53:17.078125
2608,463.34,2022-10-28 10:53:17.093750
2609,367.61,2022-10-28 10:53:17.109375
2610,278.12,2022-10-28 10:53:17.125000
2611,192.35,2022-10-28 10:53:17.140625
2612,104.59,2022-10-28 10:53:17.156250
2613,10.8,2022-10-28 10:53:17.171875
2614,-88.64,2022-10-28 10:53:17.187500
2615,-187.91,2022-10-28 10:53:17.203125
2616,-277.17,2022-10-28 10:53:17.218750
2617,-345.81,2022-10-28 10:53:17.234375
2618,-385.89,2022-10-28 10:53:17.250000
2619,-394.79,2022-10-28 10:53:17.265625
2620,-375.35,2022-10-28 10:53:17.281250
2621,-334.5,2022-10-28 10:53:17.296875
2622,-280.88,2022-10-28 10:53:17.312500
2623,-222.61,2022-10-28 10:53:17.328125
2624,-166.55,2022-10-28 10:53:17.343750
2625,-117.66,2022-10-28 10:53:17.359375
2626,-78.09,2022-10-28 10:53:17.375000
2627,-46.48,2022-10-28 10:53:17.390625
2628,-18.09,2022-10-28 10:53:17.406250
2629,12.99,2022-10-28 10:53:17.421875
2630,50.36,2022-10-28 10:53:17.437500
2631,92.87,2022-10-28 10:53:17.453125
2632,135.44,2022-10-28 10:53:17.468750
2633,171.35,2022-10-28 10:53:17.484375
2634,196.93,2022-10-28 10:53:17.500000
2635,212.99,2022-10-28 10:53:17.515625
2636,223.81,2022-10-28 10:53:17.531250
2637,232.41,2022-10-28 10:53:17.546875
2638,235.64,2022-10-28 10:53:17.562500
2639,224.24,2022-10-28 10:53:17.578125
2640,187.01,2022-10-28 10:53:17.593750
2641,117.61,2022-10-28 10:53:17.609375
2642,19.11,2022-10-28 10:53:17.625000
2643,-95.43,2022-10-28 10:53:17.640625
2644,-209.41,2022-10-28 10:53:17.656250
2645,-309.51,2022-10-28 10:53:17.671875
2646,-390.9,2022-10-28 10:53:17.687500
2647,-456.62,2022-10-28 10:53:17.703125
2648,-513.24,2022-10-28 10:53:17.718750
2649,-564.51,2022-10-28 10:53:17.734375
2650,-608.46,2022-10-28 10:53:17.750000
2651,-638.58,2022-10-28 10:53:17.765625
2652,-647.42,2022-10-28 10:53:17.781250
2653,-631.2,2022-10-28 10:53:17.796875
2654,-591.91,2022-10-28 10:53:17.812500
2655,-536.29,2022-10-28 10:53:17.828125
2656,-473.69,2022-10-28 10:53:17.843750
2657,-412.02,2022-10-28 10:53:17.859375
2658,-355.69,2022-10-28 10:53:17.875000
2659,-304.63,2022-10-28 10:53:17.890625
2660,-255.58,2022-10-28 10:53:17.906250
2661,-204.24,2022-10-28 10:53:17.921875
2662,-148.29,2022-10-28 10:53:17.937500
2663,-90.42,2022-10-28 10:53:17.953125
2664,-37.05,2022-10-28 10:53:17.968750
2665,4.04,2022-10-28 10:53:17.984375
2666,27.06,2022-10-28 10:53:18.000000
2667,30.98,2022-10-28 10:53:18.015625
2668,19.74,2022-10-28 10:53:18.031250
2669,0.13,2022-10-28 10:53:18.046875
2670,-21.32,2022-10-28 10:53:18.062500
2671,-40.75,2022-10-28 10:53:18.078125
2672,-56.77,2022-10-28 10:53:18.093750
2673,-69.44,2022-10-28 10:53:18.109375
2674,-79.15,2022-10-28 10:53:18.125000
2675,-84.76,2022-10-28 10:53:18.140625
2676,-84.1,2022-10-28 10:53:18.156250
2677,-74.75,2022-10-28 10:53:18.171875
2678,-55.06,2022-10-28 10:53:18.187500
2679,-25.84,2022-10-28 10:53:18.203125
2680,9.11,2022-10-28 10:53:18.218750
2681,43.5,2022-10-28 10:53:18.234375
2682,70.04,2022-10-28 10:53:18.250000
2683,83.79,2022-10-28 10:53:18.265625
2684,84.26,2022-10-28 10:53:18.281250
2685,76.26,2022-10-28 10:53:18.296875
2686,67.58,2022-10-28 10:53:18.312500
2687,65.44,2022-10-28 10:53:18.328125
2688,72.82,2022-10-28 10:53:18.343750
2689,87.47,2022-10-28 10:53:18.359375
2690,102.71,2022-10-28 10:53:18.375000
2691,110.7,2022-10-28 10:53:18.390625
2692,105.29,2022-10-28 10:53:18.406250
2693,84.73,2022-10-28 10:53:18.421875
2694,52.96,2022-10-28 10:53:18.437500
2695,18.18,2022-10-28 10:53:18.453125
2696,-9.83,2022-10-28 10:53:18.468750
2697,-23.29,2022-10-28 10:53:18.484375
2698,-19.29,2022-10-28 10:53:18.500000
2699,0.47,2022-10-28 10:53:18.515625
2700,31.62,2022-10-28 10:53:18.531250
2701,69.74,2022-10-28 10:53:18.546875
2702,111.65,2022-10-28 10:53:18.562500
2703,154.7,2022-10-28 10:53:18.578125
2704,195.19,2022-10-28 10:53:18.593750
2705,228.16,2022-10-28 10:53:18.609375
2706,247.98,2022-10-28 10:53:18.625000
2707,251.79,2022-10-28 10:53:18.640625
2708,241.02,2022-10-28 10:53:18.656250
2709,220.67,2022-10-28 10:53:18.671875
2710,197.34,2022-10-28 10:53:18.687500
2711,174.46,2022-10-28 10:53:18.703125
2712,151.26,2022-10-28 10:53:18.718750
2713,123.97,2022-10-28 10:53:18.734375
2714,89.02,2022-10-28 10:53:18.750000
2715,45.95,2022-10-28 10:53:18.765625
2716,-2.07,2022-10-28 10:53:18.781250
2717,-49.01,2022-10-28 10:53:18.796875
2718,-88.47,2022-10-28 10:53:18.812500
2719,-115.95,2022-10-28 10:53:18.828125
2720,-129.11,2022-10-28 10:53:18.843750
2721,-126.63,2022-10-28 10:53:18.859375
2722,-107.76,2022-10-28 10:53:18.875000
2723,-70.76,2022-10-28 10:53:18.890625
2724,-14.4,2022-10-28 10:53:18.906250
2725,60.09,2022-10-28 10:53:18.921875
2726,146.92,2022-10-28 10:53:18.937500
2727,235.2,2022-10-28 10:53:18.953125
2728,312.02,2022-10-28 10:53:18.968750
2729,366.37,2022-10-28 10:53:18.984375
2730,393.56,2022-10-28 10:53:19.000000
2731,396.04,2022-10-28 10:53:19.015625
2732,381.28,2022-10-28 10:53:19.031250
2733,357.32,2022-10-28 10:53:19.046875
2734,329.02,2022-10-28 10:53:19.062500
2735,298.27,2022-10-28 10:53:19.078125
2736,265.94,2022-10-28 10:53:19.093750
2737,235.54,2022-10-28 10:53:19.109375
2738,212.64,2022-10-28 10:53:19.125000
2739,202.68,2022-10-28 10:53:19.140625
2740,205.73,2022-10-28 10:53:19.156250
2741,213.86,2022-10-28 10:53:19.171875
2742,214.04,2022-10-28 10:53:19.187500
2743,193.91,2022-10-28 10:53:19.203125
2744,148.22,2022-10-28 10:53:19.218750
2745,80.15,2022-10-28 10:53:19.234375
2746,-0.25,2022-10-28 10:53:19.250000
2747,-82.58,2022-10-28 10:53:19.265625
2748,-160.06,2022-10-28 10:53:19.281250
2749,-230.4,2022-10-28 10:53:19.296875
2750,-294.08,2022-10-28 10:53:19.312500
2751,-351.31,2022-10-28 10:53:19.328125
2752,-401.95,2022-10-28 10:53:19.343750
2753,-446.02,2022-10-28 10:53:19.359375
2754,-485.61,2022-10-28 10:53:19.375000
2755,-524.16,2022-10-28 10:53:19.390625
2756,-564.21,2022-10-28 10:53:19.406250
2757,-605.02,2022-10-28 10:53:19.421875
2758,-641.84,2022-10-28 10:53:19.437500
2759,-668.29,2022-10-28 10:53:19.453125
2760,-677.89,2022-10-28 10:53:19.468750
2761,-666.4,2022-10-28 10:53:19.484375
2762,-631.29,2022-10-28 10:53:19.500000
2763,-572.16,2022-10-28 10:53:19.515625
2764,-490.93,2022-10-28 10:53:19.531250
2765,-393.59,2022-10-28 10:53:19.546875
2766,-291.04,2022-10-28 10:53:19.562500
2767,-197.24,2022-10-28 10:53:19.578125
2768,-125.44,2022-10-28 10:53:19.593750
2769,-83.53,2022-10-28 10:53:19.609375
2770,-71.88,2022-10-28 10:53:19.625000
2771,-84.34,2022-10-28 10:53:19.640625
2772,-111.51,2022-10-28 10:53:19.656250
2773,-143.96,2022-10-28 10:53:19.671875
2774,-174.62,2022-10-28 10:53:19.687500
2775,-198.17,2022-10-28 10:53:19.703125
2776,-211.11,2022-10-28 10:53:19.718750
2777,-212.9,2022-10-28 10:53:19.734375
2778,-206.34,2022-10-28 10:53:19.750000
2779,-198.21,2022-10-28 10:53:19.765625
2780,-196.13,2022-10-28 10:53:19.781250
2781,-203.33,2022-10-28 10:53:19.796875
2782,-215.43,2022-10-28 10:53:19.812500
2783,-219.87,2022-10-28 10:53:19.828125
2784,-200.81,2022-10-28 10:53:19.843750
2785,-147.23,2022-10-28 10:53:19.859375
2786,-58.99,2022-10-28 10:53:19.875000
2787,52.14,2022-10-28 10:53:19.890625
2788,167.11,2022-10-28 10:53:19.906250
2789,268.56,2022-10-28 10:53:19.921875
2790,348.2,2022-10-28 10:53:19.937500
2791,407.19,2022-10-28 10:53:19.953125
2792,451.94,2022-10-28 10:53:19.968750
2793,486.86,2022-10-28 10:53:19.984375
2794,510.71,2022-10-28 10:53:20.000000
2795,517.25,2022-10-28 10:53:20.015625
2796,500.63,2022-10-28 10:53:20.031250
2797,461.55,2022-10-28 10:53:20.046875
2798,408.33,2022-10-28 10:53:20.062500
2799,354.16,2022-10-28 10:53:20.078125
2800,311.68,2022-10-28 10:53:20.093750
2801,287.76,2022-10-28 10:53:20.109375
2802,283.04,2022-10-28 10:53:20.125000
2803,292.56,2022-10-28 10:53:20.140625
2804,309.92,2022-10-28 10:53:20.156250
2805,329.65,2022-10-28 10:53:20.171875
2806,347.19,2022-10-28 10:53:20.187500
2807,359.22,2022-10-28 10:53:20.203125
2808,362.98,2022-10-28 10:53:20.218750
2809,356.97,2022-10-28 10:53:20.234375
2810,341.3,2022-10-28 10:53:20.250000
2811,317.73,2022-10-28 10:53:20.265625
2812,288.62,2022-10-28 10:53:20.281250
2813,255.22,2022-10-28 10:53:20.296875
2814,216.69,2022-10-28 10:53:20.312500
2815,170.03,2022-10-28 10:53:20.328125
2816,111.8,2022-10-28 10:53:20.343750
2817,40.39,2022-10-28 10:53:20.359375
2818,-41.92,2022-10-28 10:53:20.375000
2819,-128.21,2022-10-28 10:53:20.390625
2820,-209.01,2022-10-28 10:53:20.406250
2821,-275.93,2022-10-28 10:53:20.421875
2822,-324.16,2022-10-28 10:53:20.437500
2823,-354.25,2022-10-28 10:53:20.453125
2824,-369.79,2022-10-28 10:53:20.468750
2825,-373.29,2022-10-28 10:53:20.484375
2826,-364.23,2022-10-28 10:53:20.500000
2827,-339.05,2022-10-28 10:53:20.515625
2828,-296.35,2022-10-28 10:53:20.531250
2829,-240.48,2022-10-28 10:53:20.546875
2830,-182.69,2022-10-28 10:53:20.562500
2831,-137.43,2022-10-28 10:53:20.578125
2832,-113.75,2022-10-28 10:53:20.593750
2833,-110.51,2022-10-28 10:53:20.609375
2834,-115.09,2022-10-28 10:53:20.625000
2835,-110.35,2022-10-28 10:53:20.640625
2836,-82.83,2022-10-28 10:53:20.656250
2837,-29.07,2022-10-28 10:53:20.671875
2838,44.53,2022-10-28 10:53:20.687500
2839,127.56,2022-10-28 10:53:20.703125
2840,211.81,2022-10-28 10:53:20.718750
2841,295.53,2022-10-28 10:53:20.734375
2842,380.88,2022-10-28 10:53:20.750000
2843,469.15,2022-10-28 10:53:20.765625
2844,557.1,2022-10-28 10:53:20.781250
2845,636.65,2022-10-28 10:53:20.796875
2846,697.87,2022-10-28 10:53:20.812500
2847,733.22,2022-10-28 10:53:20.828125
2848,739.81,2022-10-28 10:53:20.843750
2849,718.11,2022-10-28 10:53:20.859375
2850,670.53,2022-10-28 10:53:20.875000
2851,599.78,2022-10-28 10:53:20.890625
2852,509.59,2022-10-28 10:53:20.906250
2853,404.87,2022-10-28 10:53:20.921875
2854,292.15,2022-10-28 10:53:20.937500
2855,178.96,2022-10-28 10:53:20.953125
2856,71.49,2022-10-28 10:53:20.968750
2857,-26.09,2022-10-28 10:53:20.984375
2858,-111.86,2022-10-28 10:53:21.000000
2859,-184.34,2022-10-28 10:53:21.015625
2860,-241.75,2022-10-28 10:53:21.031250
2861,-281.54,2022-10-28 10:53:21.046875
2862,-301.05,2022-10-28 10:53:21.062500
2863,-299.77,2022-10-28 10:53:21.078125
2864,-279.27,2022-10-28 10:53:21.093750
2865,-242.34,2022-10-28 10:53:21.109375
2866,-192.13,2022-10-28 10:53:21.125000
2867,-132.19,2022-10-28 10:53:21.140625
2868,-67.38,2022-10-28 10:53:21.156250
2869,-5.75,2022-10-28 10:53:21.171875
2870,41.68,2022-10-28 10:53:21.187500
2871,64.9,2022-10-28 10:53:21.203125
2872,59.38,2022-10-28 10:53:21.218750
2873,29.3,2022-10-28 10:53:21.234375
2874,-13.31,2022-10-28 10:53:21.250000
2875,-55.28,2022-10-28 10:53:21.265625
2876,-88.97,2022-10-28 10:53:21.281250
2877,-116.29,2022-10-28 10:53:21.296875
2878,-147.25,2022-10-28 10:53:21.312500
2879,-192.72,2022-10-28 10:53:21.328125
2880,-256.64,2022-10-28 10:53:21.343750
2881,-333.18,2022-10-28 10:53:21.359375
2882,-409.35,2022-10-28 10:53:21.375000
2883,-472.71,2022-10-28 10:53:21.390625
2884,-517.89,2022-10-28 10:53:21.406250
2885,-547.98,2022-10-28 10:53:21.421875
2886,-570.87,2022-10-28 10:53:21.437500
2887,-592.02,2022-10-28 10:53:21.453125
2888,-610.44,2022-10-28 10:53:21.468750
2889,-620.38,2022-10-28 10:53:21.484375
2890,-615.99,2022-10-28 10:53:21.500000
2891,-596.72,2022-10-28 10:53:21.515625
2892,-568.2,2022-10-28 10:53:21.531250
2893,-539.04,2022-10-28 10:53:21.546875
2894,-514.71,2022-10-28 10:53:21.562500
2895,-492.82,2022-10-28 10:53:21.578125
2896,-464.17,2022-10-28 10:53:21.593750
2897,-417.46,2022-10-28 10:53:21.609375
2898,-347.1,2022-10-28 10:53:21.625000
2899,-257.66,2022-10-28 10:53:21.640625
2900,-162.67,2022-10-28 10:53:21.656250
2901,-78.72,2022-10-28 10:53:21.671875
2902,-18.77,2022-10-28 10:53:21.687500
2903,12.34,2022-10-28 10:53:21.703125
2904,18.09,2022-10-28 10:53:21.718750
2905,6.19,2022-10-28 10:53:21.734375
2906,-13.94,2022-10-28 10:53:21.750000
2907,-33.36,2022-10-28 10:53:21.765625
2908,-44.11,2022-10-28 10:53:21.781250
2909,-38.43,2022-10-28 10:53:21.796875
2910,-11.06,2022-10-28 10:53:21.812500
2911,38.2,2022-10-28 10:53:21.828125
2912,102.02,2022-10-28 10:53:21.843750
2913,166.42,2022-10-28 10:53:21.859375
2914,215.47,2022-10-28 10:53:21.875000
2915,238.0,2022-10-28 10:53:21.890625
2916,232.22,2022-10-28 10:53:21.906250
2917,205.65,2022-10-28 10:53:21.921875
2918,170.45,2022-10-28 10:53:21.937500
2919,136.78,2022-10-28 10:53:21.953125
2920,108.96,2022-10-28 10:53:21.968750
2921,85.78,2022-10-28 10:53:21.984375
2922,64.72,2022-10-28 10:53:22.000000
2923,46.04,2022-10-28 10:53:22.015625
2924,34.75,2022-10-28 10:53:22.031250
2925,38.55,2022-10-28 10:53:22.046875
2926,62.39,2022-10-28 10:53:22.062500
2927,103.69,2022-10-28 10:53:22.078125
2928,151.7,2022-10-28 10:53:22.093750
2929,192.61,2022-10-28 10:53:22.109375
2930,216.29,2022-10-28 10:53:22.125000
2931,222.2,2022-10-28 10:53:22.140625
2932,219.77,2022-10-28 10:53:22.156250
2933,224.48,2022-10-28 10:53:22.171875
2934,250.55,2022-10-28 10:53:22.187500
2935,304.01,2022-10-28 10:53:22.203125
2936,380.76,2022-10-28 10:53:22.218750
2937,468.11,2022-10-28 10:53:22.234375
2938,550.62,2022-10-28 10:53:22.250000
2939,616.49,2022-10-28 10:53:22.265625
2940,660.14,2022-10-28 10:53:22.281250
2941,683.4,2022-10-28 10:53:22.296875
2942,692.55,2022-10-28 10:53:22.312500
2943,695.69,2022-10-28 10:53:22.328125
2944,699.56,2022-10-28 10:53:22.343750
2945,707.61,2022-10-28 10:53:22.359375
2946,719.57,2022-10-28 10:53:22.375000
2947,730.9,2022-10-28 10:53:22.390625
2948,734.21,2022-10-28 10:53:22.406250
2949,722.34,2022-10-28 10:53:22.421875
2950,691.28,2022-10-28 10:53:22.437500
2951,642.05,2022-10-28 10:53:22.453125
2952,580.21,2022-10-28 10:53:22.468750
2953,513.13,2022-10-28 10:53:22.484375
2954,447.36,2022-10-28 10:53:22.500000
2955,386.1,2022-10-28 10:53:22.515625
2956,328.62,2022-10-28 10:53:22.531250
2957,271.78,2022-10-28 10:53:22.546875
2958,212.91,2022-10-28 10:53:22.562500
2959,151.24,2022-10-28 10:53:22.578125
2960,87.98,2022-10-28 10:53:22.593750
2961,24.99,2022-10-28 10:53:22.609375
2962,-37.1,2022-10-28 10:53:22.625000
2963,-98.56,2022-10-28 10:53:22.640625
2964,-159.29,2022-10-28 10:53:22.656250
2965,-217.59,2022-10-28 10:53:22.671875
2966,-269.04,2022-10-28 10:53:22.687500
2967,-308.99,2022-10-28 10:53:22.703125
2968,-334.14,2022-10-28 10:53:22.718750
2969,-345.32,2022-10-28 10:53:22.734375
2970,-348.16,2022-10-28 10:53:22.750000
2971,-351.24,2022-10-28 10:53:22.765625
2972,-363.65,2022-10-28 10:53:22.781250
2973,-391.78,2022-10-28 10:53:22.796875
2974,-437.32,2022-10-28 10:53:22.812500
2975,-496.76,2022-10-28 10:53:22.828125
2976,-562.69,2022-10-28 10:53:22.843750
2977,-625.95,2022-10-28 10:53:22.859375
2978,-677.67,2022-10-28 10:53:22.875000
2979,-712.17,2022-10-28 10:53:22.890625
2980,-729.47,2022-10-28 10:53:22.906250
2981,-735.06,2022-10-28 10:53:22.921875
2982,-737.47,2022-10-28 10:53:22.937500
2983,-743.89,2022-10-28 10:53:22.953125
2984,-755.93,2022-10-28 10:53:22.968750
2985,-769.16,2022-10-28 10:53:22.984375
2986,-775.7,2022-10-28 10:53:23.000000
2987,-768.58,2022-10-28 10:53:23.015625
2988,-744.3,2022-10-28 10:53:23.031250
2989,-703.49,2022-10-28 10:53:23.046875
2990,-648.82,2022-10-28 10:53:23.062500
2991,-583.62,2022-10-28 10:53:23.078125
2992,-511.74,2022-10-28 10:53:23.093750
2993,-438.13,2022-10-28 10:53:23.109375
2994,-369.7,2022-10-28 10:53:23.125000
2995,-313.77,2022-10-28 10:53:23.140625
2996,-273.57,2022-10-28 10:53:23.156250
2997,-246.06,2022-10-28 10:53:23.171875
2998,-221.46,2022-10-28 10:53:23.187500
2999,-188.27,2022-10-28 10:53:23.203125
3000,-138.45,2022-10-28 10:53:23.218750
3001,-71.7,2022-10-28 10:53:23.234375
3002,5.25,2022-10-28 10:53:23.250000
3003,83.7,2022-10-28 10:53:23.265625
3004,157.89,2022-10-28 10:53:23.281250
3005,227.05,2022-10-28 10:53:23.296875
3006,294.33,2022-10-28 10:53:23.312500
3007,363.02,2022-10-28 10:53:23.328125
3008,433.26,2022-10-28 10:53:23.343750
3009,501.63,2022-10-28 10:53:23.359375
3010,562.77,2022-10-28 10:53:23.375000
3011,612.74,2022-10-28 10:53:23.390625
3012,650.41,2022-10-28 10:53:23.406250
3013,677.93,2022-10-28 10:53:23.421875
3014,699.62,2022-10-28 10:53:23.437500
3015,718.88,2022-10-28 10:53:23.453125
3016,736.04,2022-10-28 10:53:23.468750
3017,746.86,2022-10-28 10:53:23.484375
3018,743.49,2022-10-28 10:53:23.500000
3019,716.01,2022-10-28 10:53:23.515625
3020,656.77,2022-10-28 10:53:23.531250
3021,563.25,2022-10-28 10:53:23.546875
3022,440.13,2022-10-28 10:53:23.562500
3023,297.76,2022-10-28 10:53:23.578125
3024,149.47,2022-10-28 10:53:23.593750
3025,7.79,2022-10-28 10:53:23.609375
3026,-118.77,2022-10-28 10:53:23.625000
3027,-227.26,2022-10-28 10:53:23.640625
3028,-317.98,2022-10-28 10:53:23.656250
3029,-392.25,2022-10-28 10:53:23.671875
3030,-450.41,2022-10-28 10:53:23.687500
3031,-491.62,2022-10-28 10:53:23.703125
3032,-514.0,2022-10-28 10:53:23.718750
3033,-516.31,2022-10-28 10:53:23.734375
3034,-499.07,2022-10-28 10:53:23.750000
3035,-464.65,2022-10-28 10:53:23.765625
3036,-417.98,2022-10-28 10:53:23.781250
3037,-366.44,2022-10-28 10:53:23.796875
3038,-319.11,2022-10-28 10:53:23.812500
3039,-285.04,2022-10-28 10:53:23.828125
3040,-270.72,2022-10-28 10:53:23.843750
3041,-277.22,2022-10-28 10:53:23.859375
3042,-299.41,2022-10-28 10:53:23.875000
3043,-325.35,2022-10-28 10:53:23.890625
3044,-340.25,2022-10-28 10:53:23.906250
3045,-331.37,2022-10-28 10:53:23.921875
3046,-292.53,2022-10-28 10:53:23.937500
3047,-227.62,2022-10-28 10:53:23.953125
3048,-149.13,2022-10-28 10:53:23.968750
3049,-73.29,2022-10-28 10:53:23.984375
3050,-13.47,2022-10-28 10:53:24.000000
3051,23.96,2022-10-28 10:53:24.015625
3052,40.57,2022-10-28 10:53:24.031250
3053,42.73,2022-10-28 10:53:24.046875
3054,37.78,2022-10-28 10:53:24.062500
3055,30.55,2022-10-28 10:53:24.078125
3056,23.47,2022-10-28 10:53:24.093750
3057,18.0,2022-10-28 10:53:24.109375
3058,16.1,2022-10-28 10:53:24.125000
3059,19.73,2022-10-28 10:53:24.140625
3060,29.03,2022-10-28 10:53:24.156250
3061,41.06,2022-10-28 10:53:24.171875
3062,50.57,2022-10-28 10:53:24.187500
3063,53.22,2022-10-28 10:53:24.203125
3064,48.96,2022-10-28 10:53:24.218750
3065,42.78,2022-10-28 10:53:24.234375
3066,42.01,2022-10-28 10:53:24.250000
3067,52.1,2022-10-28 10:53:24.265625
3068,72.95,2022-10-28 10:53:24.281250
3069,99.41,2022-10-28 10:53:24.296875
3070,124.17,2022-10-28 10:53:24.312500
3071,141.13,2022-10-28 10:53:24.328125
3072,147.3,2022-10-28 10:53:24.343750
3073,143.27,2022-10-28 10:53:24.359375
3074,131.45,2022-10-28 10:53:24.375000
3075,116.7,2022-10-28 10:53:24.390625
3076,105.56,2022-10-28 10:53:24.406250
3077,105.82,2022-10-28 10:53:24.421875
3078,125.13,2022-10-28 10:53:24.437500
3079,167.78,2022-10-28 10:53:24.453125
3080,231.88,2022-10-28 10:53:24.468750
3081,309.02,2022-10-28 10:53:24.484375
3082,386.19,2022-10-28 10:53:24.500000
3083,450.65,2022-10-28 10:53:24.515625
3084,494.48,2022-10-28 10:53:24.531250
3085,517.47,2022-10-28 10:53:24.546875
3086,526.61,2022-10-28 10:53:24.562500
3087,532.47,2022-10-28 10:53:24.578125
3088,544.8,2022-10-28 10:53:24.593750
3089,567.77,2022-10-28 10:53:24.609375
3090,597.97,2022-10-28 10:53:24.625000
3091,625.48,2022-10-28 10:53:24.640625
