,BVP,time
0,-109.36,2021-12-17 17:38:59.921875
1,-91.23,2021-12-17 17:38:59.937500
2,-68.13,2021-12-17 17:38:59.953125
3,-39.71,2021-12-17 17:38:59.968750
4,-6.13,2021-12-17 17:38:59.984375
5,31.9,2021-12-17 17:39:00.000000
6,72.95,2021-12-17 17:39:00.015625
7,114.76,2021-12-17 17:39:00.031250
8,154.18,2021-12-17 17:39:00.046875
9,187.37,2021-12-17 17:39:00.062500
10,210.51,2021-12-17 17:39:00.078125
11,220.73,2021-12-17 17:39:00.093750
12,217.0,2021-12-17 17:39:00.109375
13,200.55,2021-12-17 17:39:00.125000
14,174.58,2021-12-17 17:39:00.140625
15,143.31,2021-12-17 17:39:00.156250
16,110.94,2021-12-17 17:39:00.171875
17,80.81,2021-12-17 17:39:00.187500
18,55.07,2021-12-17 17:39:00.203125
19,34.84,2021-12-17 17:39:00.218750
20,20.32,2021-12-17 17:39:00.234375
21,11.05,2021-12-17 17:39:00.250000
22,6.04,2021-12-17 17:39:00.265625
23,4.05,2021-12-17 17:39:00.281250
24,3.94,2021-12-17 17:39:00.296875
25,5.02,2021-12-17 17:39:00.312500
26,7.07,2021-12-17 17:39:00.328125
27,9.75,2021-12-17 17:39:00.343750
28,12.07,2021-12-17 17:39:00.359375
29,12.39,2021-12-17 17:39:00.375000
30,8.97,2021-12-17 17:39:00.390625
31,1.21,2021-12-17 17:39:00.406250
32,-9.59,2021-12-17 17:39:00.421875
33,-20.28,2021-12-17 17:39:00.437500
34,-27.14,2021-12-17 17:39:00.453125
35,-27.5,2021-12-17 17:39:00.468750
36,-21.01,2021-12-17 17:39:00.484375
37,-9.68,2021-12-17 17:39:00.500000
38,3.06,2021-12-17 17:39:00.515625
39,13.71,2021-12-17 17:39:00.531250
40,19.73,2021-12-17 17:39:00.546875
41,19.67,2021-12-17 17:39:00.562500
42,12.84,2021-12-17 17:39:00.578125
43,-1.13,2021-12-17 17:39:00.593750
44,-22.39,2021-12-17 17:39:00.609375
45,-50.55,2021-12-17 17:39:00.625000
46,-84.31,2021-12-17 17:39:00.640625
47,-121.37,2021-12-17 17:39:00.656250
48,-158.77,2021-12-17 17:39:00.671875
49,-193.42,2021-12-17 17:39:00.687500
50,-222.69,2021-12-17 17:39:00.703125
51,-244.8,2021-12-17 17:39:00.718750
52,-258.91,2021-12-17 17:39:00.734375
53,-265.24,2021-12-17 17:39:00.750000
54,-264.85,2021-12-17 17:39:00.765625
55,-259.48,2021-12-17 17:39:00.781250
56,-251.16,2021-12-17 17:39:00.796875
57,-241.82,2021-12-17 17:39:00.812500
58,-232.81,2021-12-17 17:39:00.828125
59,-224.56,2021-12-17 17:39:00.843750
60,-216.55,2021-12-17 17:39:00.859375
61,-207.53,2021-12-17 17:39:00.875000
62,-196.15,2021-12-17 17:39:00.890625
63,-181.7,2021-12-17 17:39:00.906250
64,-164.52,2021-12-17 17:39:00.921875
65,-146.13,2021-12-17 17:39:00.937500
66,-128.61,2021-12-17 17:39:00.953125
67,-113.66,2021-12-17 17:39:00.968750
68,-102.01,2021-12-17 17:39:00.984375
69,-93.13,2021-12-17 17:39:01.000000
70,-85.65,2021-12-17 17:39:01.015625
71,-78.2,2021-12-17 17:39:01.031250
72,-69.96,2021-12-17 17:39:01.046875
73,-60.8,2021-12-17 17:39:01.062500
74,-50.79,2021-12-17 17:39:01.078125
75,-39.64,2021-12-17 17:39:01.093750
76,-26.41,2021-12-17 17:39:01.109375
77,-9.81,2021-12-17 17:39:01.125000
78,10.85,2021-12-17 17:39:01.140625
79,34.98,2021-12-17 17:39:01.156250
80,60.27,2021-12-17 17:39:01.171875
81,83.25,2021-12-17 17:39:01.187500
82,100.34,2021-12-17 17:39:01.203125
83,109.16,2021-12-17 17:39:01.218750
84,109.24,2021-12-17 17:39:01.234375
85,102.05,2021-12-17 17:39:01.250000
86,90.12,2021-12-17 17:39:01.265625
87,76.05,2021-12-17 17:39:01.281250
88,61.69,2021-12-17 17:39:01.296875
89,47.85,2021-12-17 17:39:01.312500
90,34.56,2021-12-17 17:39:01.328125
91,21.63,2021-12-17 17:39:01.343750
92,8.91,2021-12-17 17:39:01.359375
93,-3.53,2021-12-17 17:39:01.375000
94,-15.67,2021-12-17 17:39:01.390625
95,-27.83,2021-12-17 17:39:01.406250
96,-40.62,2021-12-17 17:39:01.421875
97,-54.67,2021-12-17 17:39:01.437500
98,-70.24,2021-12-17 17:39:01.453125
99,-86.89,2021-12-17 17:39:01.468750
100,-103.52,2021-12-17 17:39:01.484375
101,-118.75,2021-12-17 17:39:01.500000
102,-131.35,2021-12-17 17:39:01.515625
103,-140.6,2021-12-17 17:39:01.531250
104,-146.39,2021-12-17 17:39:01.546875
105,-149.08,2021-12-17 17:39:01.562500
106,-149.3,2021-12-17 17:39:01.578125
107,-147.79,2021-12-17 17:39:01.593750
108,-145.24,2021-12-17 17:39:01.609375
109,-142.09,2021-12-17 17:39:01.625000
110,-138.64,2021-12-17 17:39:01.640625
111,-134.97,2021-12-17 17:39:01.656250
112,-131.07,2021-12-17 17:39:01.671875
113,-126.86,2021-12-17 17:39:01.687500
114,-122.3,2021-12-17 17:39:01.703125
115,-117.37,2021-12-17 17:39:01.718750
116,-112.06,2021-12-17 17:39:01.734375
117,-106.38,2021-12-17 17:39:01.750000
118,-100.19,2021-12-17 17:39:01.765625
119,-93.38,2021-12-17 17:39:01.781250
120,-85.74,2021-12-17 17:39:01.796875
121,-77.09,2021-12-17 17:39:01.812500
122,-67.39,2021-12-17 17:39:01.828125
123,-56.75,2021-12-17 17:39:01.843750
124,-45.52,2021-12-17 17:39:01.859375
125,-34.12,2021-12-17 17:39:01.875000
126,-23.04,2021-12-17 17:39:01.890625
127,-12.59,2021-12-17 17:39:01.906250
128,-2.84,2021-12-17 17:39:01.921875
129,6.45,2021-12-17 17:39:01.937500
130,15.67,2021-12-17 17:39:01.953125
131,25.23,2021-12-17 17:39:01.968750
132,35.34,2021-12-17 17:39:01.984375
133,45.94,2021-12-17 17:39:02.000000
134,56.72,2021-12-17 17:39:02.015625
135,67.31,2021-12-17 17:39:02.031250
136,77.53,2021-12-17 17:39:02.046875
137,87.54,2021-12-17 17:39:02.062500
138,97.89,2021-12-17 17:39:02.078125
139,109.26,2021-12-17 17:39:02.093750
140,122.27,2021-12-17 17:39:02.109375
141,137.13,2021-12-17 17:39:02.125000
142,153.56,2021-12-17 17:39:02.140625
143,170.9,2021-12-17 17:39:02.156250
144,188.41,2021-12-17 17:39:02.171875
145,205.52,2021-12-17 17:39:02.187500
146,222.1,2021-12-17 17:39:02.203125
147,238.4,2021-12-17 17:39:02.218750
148,255.04,2021-12-17 17:39:02.234375
149,272.87,2021-12-17 17:39:02.250000
150,292.95,2021-12-17 17:39:02.265625
151,316.13,2021-12-17 17:39:02.281250
152,342.6,2021-12-17 17:39:02.296875
153,371.14,2021-12-17 17:39:02.312500
154,398.87,2021-12-17 17:39:02.328125
155,421.56,2021-12-17 17:39:02.343750
156,434.77,2021-12-17 17:39:02.359375
157,435.29,2021-12-17 17:39:02.375000
158,422.32,2021-12-17 17:39:02.390625
159,397.72,2021-12-17 17:39:02.406250
160,365.16,2021-12-17 17:39:02.421875
161,328.81,2021-12-17 17:39:02.437500
162,292.07,2021-12-17 17:39:02.453125
163,257.02,2021-12-17 17:39:02.468750
164,224.61,2021-12-17 17:39:02.484375
165,195.21,2021-12-17 17:39:02.500000
166,169.09,2021-12-17 17:39:02.515625
167,146.61,2021-12-17 17:39:02.531250
168,127.84,2021-12-17 17:39:02.546875
169,112.37,2021-12-17 17:39:02.562500
170,99.2,2021-12-17 17:39:02.578125
171,87.05,2021-12-17 17:39:02.593750
172,74.83,2021-12-17 17:39:02.609375
173,62.06,2021-12-17 17:39:02.625000
174,49.01,2021-12-17 17:39:02.640625
175,36.58,2021-12-17 17:39:02.656250
176,25.78,2021-12-17 17:39:02.671875
177,17.28,2021-12-17 17:39:02.687500
178,11.05,2021-12-17 17:39:02.703125
179,6.56,2021-12-17 17:39:02.718750
180,3.0,2021-12-17 17:39:02.734375
181,-0.19,2021-12-17 17:39:02.750000
182,-3.15,2021-12-17 17:39:02.765625
183,-5.64,2021-12-17 17:39:02.781250
184,-7.25,2021-12-17 17:39:02.796875
185,-7.71,2021-12-17 17:39:02.812500
186,-6.98,2021-12-17 17:39:02.828125
187,-5.29,2021-12-17 17:39:02.843750
188,-3.08,2021-12-17 17:39:02.859375
189,-0.93,2021-12-17 17:39:02.875000
190,0.49,2021-12-17 17:39:02.890625
191,0.41,2021-12-17 17:39:02.906250
192,-1.89,2021-12-17 17:39:02.921875
193,-6.9,2021-12-17 17:39:02.937500
194,-14.7,2021-12-17 17:39:02.953125
195,-24.87,2021-12-17 17:39:02.968750
196,-36.45,2021-12-17 17:39:02.984375
197,-48.19,2021-12-17 17:39:03.000000
198,-58.72,2021-12-17 17:39:03.015625
199,-66.85,2021-12-17 17:39:03.031250
200,-71.75,2021-12-17 17:39:03.046875
201,-72.97,2021-12-17 17:39:03.062500
202,-70.52,2021-12-17 17:39:03.078125
203,-64.67,2021-12-17 17:39:03.093750
204,-55.93,2021-12-17 17:39:03.109375
205,-44.9,2021-12-17 17:39:03.125000
206,-32.38,2021-12-17 17:39:03.140625
207,-19.38,2021-12-17 17:39:03.156250
208,-7.05,2021-12-17 17:39:03.171875
209,3.41,2021-12-17 17:39:03.187500
210,11.15,2021-12-17 17:39:03.203125
211,15.89,2021-12-17 17:39:03.218750
212,18.13,2021-12-17 17:39:03.234375
213,19.04,2021-12-17 17:39:03.250000
214,20.27,2021-12-17 17:39:03.265625
215,23.51,2021-12-17 17:39:03.281250
216,30.07,2021-12-17 17:39:03.296875
217,40.45,2021-12-17 17:39:03.312500
218,54.1,2021-12-17 17:39:03.328125
219,69.4,2021-12-17 17:39:03.343750
220,83.88,2021-12-17 17:39:03.359375
221,94.72,2021-12-17 17:39:03.375000
222,99.39,2021-12-17 17:39:03.390625
223,96.15,2021-12-17 17:39:03.406250
224,84.49,2021-12-17 17:39:03.421875
225,65.17,2021-12-17 17:39:03.437500
226,39.98,2021-12-17 17:39:03.453125
227,11.35,2021-12-17 17:39:03.468750
228,-18.27,2021-12-17 17:39:03.484375
229,-46.92,2021-12-17 17:39:03.500000
230,-73.36,2021-12-17 17:39:03.515625
231,-97.14,2021-12-17 17:39:03.531250
232,-118.2,2021-12-17 17:39:03.546875
233,-136.56,2021-12-17 17:39:03.562500
234,-151.98,2021-12-17 17:39:03.578125
235,-164.05,2021-12-17 17:39:03.593750
236,-172.49,2021-12-17 17:39:03.609375
237,-177.48,2021-12-17 17:39:03.625000
238,-179.71,2021-12-17 17:39:03.640625
239,-180.2,2021-12-17 17:39:03.656250
240,-179.95,2021-12-17 17:39:03.671875
241,-179.58,2021-12-17 17:39:03.687500
242,-179.47,2021-12-17 17:39:03.703125
243,-179.95,2021-12-17 17:39:03.718750
244,-181.48,2021-12-17 17:39:03.734375
245,-184.67,2021-12-17 17:39:03.750000
246,-189.94,2021-12-17 17:39:03.765625
247,-197.22,2021-12-17 17:39:03.781250
248,-205.82,2021-12-17 17:39:03.796875
249,-214.54,2021-12-17 17:39:03.812500
250,-222.14,2021-12-17 17:39:03.828125
251,-227.63,2021-12-17 17:39:03.843750
252,-230.29,2021-12-17 17:39:03.859375
253,-229.42,2021-12-17 17:39:03.875000
254,-224.14,2021-12-17 17:39:03.890625
255,-213.46,2021-12-17 17:39:03.906250
256,-196.58,2021-12-17 17:39:03.921875
257,-173.47,2021-12-17 17:39:03.937500
258,-145.22,2021-12-17 17:39:03.953125
259,-113.94,2021-12-17 17:39:03.968750
260,-82.2,2021-12-17 17:39:03.984375
261,-52.23,2021-12-17 17:39:04.000000
262,-25.3,2021-12-17 17:39:04.015625
263,-1.39,2021-12-17 17:39:04.031250
264,20.66,2021-12-17 17:39:04.046875
265,42.67,2021-12-17 17:39:04.062500
266,66.56,2021-12-17 17:39:04.078125
267,94.05,2021-12-17 17:39:04.093750
268,126.52,2021-12-17 17:39:04.109375
269,164.62,2021-12-17 17:39:04.125000
270,207.88,2021-12-17 17:39:04.140625
271,254.33,2021-12-17 17:39:04.156250
272,300.36,2021-12-17 17:39:04.171875
273,341.41,2021-12-17 17:39:04.187500
274,373.0,2021-12-17 17:39:04.203125
275,392.09,2021-12-17 17:39:04.218750
276,397.94,2021-12-17 17:39:04.234375
277,392.02,2021-12-17 17:39:04.250000
278,377.12,2021-12-17 17:39:04.265625
279,355.97,2021-12-17 17:39:04.281250
280,330.24,2021-12-17 17:39:04.296875
281,300.4,2021-12-17 17:39:04.312500
282,266.41,2021-12-17 17:39:04.328125
283,228.98,2021-12-17 17:39:04.343750
284,190.18,2021-12-17 17:39:04.359375
285,153.28,2021-12-17 17:39:04.375000
286,121.8,2021-12-17 17:39:04.390625
287,98.12,2021-12-17 17:39:04.406250
288,82.47,2021-12-17 17:39:04.421875
289,72.91,2021-12-17 17:39:04.437500
290,66.17,2021-12-17 17:39:04.453125
291,58.98,2021-12-17 17:39:04.468750
292,49.31,2021-12-17 17:39:04.484375
293,37.05,2021-12-17 17:39:04.500000
294,23.58,2021-12-17 17:39:04.515625
295,10.84,2021-12-17 17:39:04.531250
296,0.26,2021-12-17 17:39:04.546875
297,-7.91,2021-12-17 17:39:04.562500
298,-14.61,2021-12-17 17:39:04.578125
299,-21.33,2021-12-17 17:39:04.593750
300,-29.19,2021-12-17 17:39:04.609375
301,-38.28,2021-12-17 17:39:04.625000
302,-47.52,2021-12-17 17:39:04.640625
303,-55.11,2021-12-17 17:39:04.656250
304,-59.37,2021-12-17 17:39:04.671875
305,-59.6,2021-12-17 17:39:04.687500
306,-56.45,2021-12-17 17:39:04.703125
307,-51.62,2021-12-17 17:39:04.718750
308,-47.23,2021-12-17 17:39:04.734375
309,-44.84,2021-12-17 17:39:04.750000
310,-44.89,2021-12-17 17:39:04.765625
311,-46.62,2021-12-17 17:39:04.781250
312,-48.47,2021-12-17 17:39:04.796875
313,-48.73,2021-12-17 17:39:04.812500
314,-46.09,2021-12-17 17:39:04.828125
315,-39.97,2021-12-17 17:39:04.843750
316,-30.62,2021-12-17 17:39:04.859375
317,-18.99,2021-12-17 17:39:04.875000
318,-6.65,2021-12-17 17:39:04.890625
319,4.51,2021-12-17 17:39:04.906250
320,12.58,2021-12-17 17:39:04.921875
321,16.09,2021-12-17 17:39:04.937500
322,14.46,2021-12-17 17:39:04.953125
323,8.23,2021-12-17 17:39:04.968750
324,-0.95,2021-12-17 17:39:04.984375
325,-10.79,2021-12-17 17:39:05.000000
326,-18.87,2021-12-17 17:39:05.015625
327,-23.2,2021-12-17 17:39:05.031250
328,-22.56,2021-12-17 17:39:05.046875
329,-16.7,2021-12-17 17:39:05.062500
330,-6.42,2021-12-17 17:39:05.078125
331,6.44,2021-12-17 17:39:05.093750
332,19.32,2021-12-17 17:39:05.109375
333,29.45,2021-12-17 17:39:05.125000
334,34.57,2021-12-17 17:39:05.140625
335,33.52,2021-12-17 17:39:05.156250
336,26.48,2021-12-17 17:39:05.171875
337,14.87,2021-12-17 17:39:05.187500
338,0.58,2021-12-17 17:39:05.203125
339,-14.54,2021-12-17 17:39:05.218750
340,-29.21,2021-12-17 17:39:05.234375
341,-42.71,2021-12-17 17:39:05.250000
342,-54.64,2021-12-17 17:39:05.265625
343,-64.56,2021-12-17 17:39:05.281250
344,-71.71,2021-12-17 17:39:05.296875
345,-75.2,2021-12-17 17:39:05.312500
346,-74.23,2021-12-17 17:39:05.328125
347,-68.49,2021-12-17 17:39:05.343750
348,-58.28,2021-12-17 17:39:05.359375
349,-44.38,2021-12-17 17:39:05.375000
350,-27.8,2021-12-17 17:39:05.390625
351,-9.47,2021-12-17 17:39:05.406250
352,9.91,2021-12-17 17:39:05.421875
353,29.75,2021-12-17 17:39:05.437500
354,49.34,2021-12-17 17:39:05.453125
355,67.69,2021-12-17 17:39:05.468750
356,83.53,2021-12-17 17:39:05.484375
357,95.53,2021-12-17 17:39:05.500000
358,102.64,2021-12-17 17:39:05.515625
359,104.37,2021-12-17 17:39:05.531250
360,100.9,2021-12-17 17:39:05.546875
361,93.06,2021-12-17 17:39:05.562500
362,82.14,2021-12-17 17:39:05.578125
363,69.68,2021-12-17 17:39:05.593750
364,57.22,2021-12-17 17:39:05.609375
365,46.02,2021-12-17 17:39:05.625000
366,36.8,2021-12-17 17:39:05.640625
367,29.7,2021-12-17 17:39:05.656250
368,24.31,2021-12-17 17:39:05.671875
369,20.02,2021-12-17 17:39:05.687500
370,16.25,2021-12-17 17:39:05.703125
371,12.67,2021-12-17 17:39:05.718750
372,9.16,2021-12-17 17:39:05.734375
373,5.66,2021-12-17 17:39:05.750000
374,2.12,2021-12-17 17:39:05.765625
375,-1.69,2021-12-17 17:39:05.781250
376,-6.05,2021-12-17 17:39:05.796875
377,-11.24,2021-12-17 17:39:05.812500
378,-17.35,2021-12-17 17:39:05.828125
379,-24.22,2021-12-17 17:39:05.843750
380,-31.37,2021-12-17 17:39:05.859375
381,-38.13,2021-12-17 17:39:05.875000
382,-43.73,2021-12-17 17:39:05.890625
383,-47.55,2021-12-17 17:39:05.906250
384,-49.36,2021-12-17 17:39:05.921875
385,-49.31,2021-12-17 17:39:05.937500
386,-47.96,2021-12-17 17:39:05.953125
387,-46.04,2021-12-17 17:39:05.968750
388,-44.22,2021-12-17 17:39:05.984375
389,-43.05,2021-12-17 17:39:06.000000
390,-42.8,2021-12-17 17:39:06.015625
391,-43.53,2021-12-17 17:39:06.031250
392,-45.08,2021-12-17 17:39:06.046875
393,-47.09,2021-12-17 17:39:06.062500
394,-48.95,2021-12-17 17:39:06.078125
395,-50.0,2021-12-17 17:39:06.093750
396,-49.61,2021-12-17 17:39:06.109375
397,-47.36,2021-12-17 17:39:06.125000
398,-43.19,2021-12-17 17:39:06.140625
399,-37.34,2021-12-17 17:39:06.156250
400,-30.23,2021-12-17 17:39:06.171875
401,-22.34,2021-12-17 17:39:06.187500
402,-14.09,2021-12-17 17:39:06.203125
403,-5.7,2021-12-17 17:39:06.218750
404,2.72,2021-12-17 17:39:06.234375
405,11.2,2021-12-17 17:39:06.250000
406,19.82,2021-12-17 17:39:06.265625
407,28.53,2021-12-17 17:39:06.281250
408,37.09,2021-12-17 17:39:06.296875
409,45.06,2021-12-17 17:39:06.312500
410,52.02,2021-12-17 17:39:06.328125
411,57.71,2021-12-17 17:39:06.343750
412,62.35,2021-12-17 17:39:06.359375
413,66.57,2021-12-17 17:39:06.375000
414,71.26,2021-12-17 17:39:06.390625
415,77.19,2021-12-17 17:39:06.406250
416,84.76,2021-12-17 17:39:06.421875
417,93.71,2021-12-17 17:39:06.437500
418,103.3,2021-12-17 17:39:06.453125
419,112.36,2021-12-17 17:39:06.468750
420,119.66,2021-12-17 17:39:06.484375
421,124.04,2021-12-17 17:39:06.500000
422,124.68,2021-12-17 17:39:06.515625
423,121.18,2021-12-17 17:39:06.531250
424,113.65,2021-12-17 17:39:06.546875
425,102.71,2021-12-17 17:39:06.562500
426,89.3,2021-12-17 17:39:06.578125
427,74.46,2021-12-17 17:39:06.593750
428,59.08,2021-12-17 17:39:06.609375
429,43.77,2021-12-17 17:39:06.625000
430,28.88,2021-12-17 17:39:06.640625
431,14.58,2021-12-17 17:39:06.656250
432,1.09,2021-12-17 17:39:06.671875
433,-11.33,2021-12-17 17:39:06.687500
434,-22.35,2021-12-17 17:39:06.703125
435,-31.72,2021-12-17 17:39:06.718750
436,-39.34,2021-12-17 17:39:06.734375
437,-45.29,2021-12-17 17:39:06.750000
438,-49.82,2021-12-17 17:39:06.765625
439,-53.28,2021-12-17 17:39:06.781250
440,-56.07,2021-12-17 17:39:06.796875
441,-58.53,2021-12-17 17:39:06.812500
442,-60.93,2021-12-17 17:39:06.828125
443,-63.35,2021-12-17 17:39:06.843750
444,-65.62,2021-12-17 17:39:06.859375
445,-67.36,2021-12-17 17:39:06.875000
446,-68.11,2021-12-17 17:39:06.890625
447,-67.42,2021-12-17 17:39:06.906250
448,-65.09,2021-12-17 17:39:06.921875
449,-61.24,2021-12-17 17:39:06.937500
450,-56.23,2021-12-17 17:39:06.953125
451,-50.61,2021-12-17 17:39:06.968750
452,-44.96,2021-12-17 17:39:06.984375
453,-39.76,2021-12-17 17:39:07.000000
454,-35.36,2021-12-17 17:39:07.015625
455,-31.93,2021-12-17 17:39:07.031250
456,-29.49,2021-12-17 17:39:07.046875
457,-27.91,2021-12-17 17:39:07.062500
458,-27.01,2021-12-17 17:39:07.078125
459,-26.48,2021-12-17 17:39:07.093750
460,-26.03,2021-12-17 17:39:07.109375
461,-25.38,2021-12-17 17:39:07.125000
462,-24.31,2021-12-17 17:39:07.140625
463,-22.69,2021-12-17 17:39:07.156250
464,-20.48,2021-12-17 17:39:07.171875
465,-17.7,2021-12-17 17:39:07.187500
466,-14.3,2021-12-17 17:39:07.203125
467,-10.19,2021-12-17 17:39:07.218750
468,-5.28,2021-12-17 17:39:07.234375
469,0.41,2021-12-17 17:39:07.250000
470,6.69,2021-12-17 17:39:07.265625
471,13.19,2021-12-17 17:39:07.281250
472,19.46,2021-12-17 17:39:07.296875
473,25.14,2021-12-17 17:39:07.312500
474,30.04,2021-12-17 17:39:07.328125
475,34.15,2021-12-17 17:39:07.343750
476,37.47,2021-12-17 17:39:07.359375
477,40.02,2021-12-17 17:39:07.375000
478,41.74,2021-12-17 17:39:07.390625
479,42.63,2021-12-17 17:39:07.406250
480,42.83,2021-12-17 17:39:07.421875
481,42.59,2021-12-17 17:39:07.437500
482,42.19,2021-12-17 17:39:07.453125
483,41.81,2021-12-17 17:39:07.468750
484,41.45,2021-12-17 17:39:07.484375
485,40.94,2021-12-17 17:39:07.500000
486,40.08,2021-12-17 17:39:07.515625
487,38.74,2021-12-17 17:39:07.531250
488,36.92,2021-12-17 17:39:07.546875
489,34.74,2021-12-17 17:39:07.562500
490,32.31,2021-12-17 17:39:07.578125
491,29.67,2021-12-17 17:39:07.593750
492,26.72,2021-12-17 17:39:07.609375
493,23.31,2021-12-17 17:39:07.625000
494,19.26,2021-12-17 17:39:07.640625
495,14.54,2021-12-17 17:39:07.656250
496,9.31,2021-12-17 17:39:07.671875
497,3.97,2021-12-17 17:39:07.687500
498,-0.86,2021-12-17 17:39:07.703125
499,-4.58,2021-12-17 17:39:07.718750
500,-6.75,2021-12-17 17:39:07.734375
501,-7.28,2021-12-17 17:39:07.750000
502,-6.44,2021-12-17 17:39:07.765625
503,-4.75,2021-12-17 17:39:07.781250
504,-2.74,2021-12-17 17:39:07.796875
505,-0.75,2021-12-17 17:39:07.812500
506,1.11,2021-12-17 17:39:07.828125
507,2.96,2021-12-17 17:39:07.843750
508,4.94,2021-12-17 17:39:07.859375
509,7.09,2021-12-17 17:39:07.875000
510,9.31,2021-12-17 17:39:07.890625
511,11.36,2021-12-17 17:39:07.906250
512,13.02,2021-12-17 17:39:07.921875
513,14.19,2021-12-17 17:39:07.937500
514,14.84,2021-12-17 17:39:07.953125
515,15.08,2021-12-17 17:39:07.968750
516,14.96,2021-12-17 17:39:07.984375
517,14.55,2021-12-17 17:39:08.000000
518,13.94,2021-12-17 17:39:08.015625
519,13.34,2021-12-17 17:39:08.031250
520,13.04,2021-12-17 17:39:08.046875
521,13.33,2021-12-17 17:39:08.062500
522,14.35,2021-12-17 17:39:08.078125
523,15.94,2021-12-17 17:39:08.093750
524,17.71,2021-12-17 17:39:08.109375
525,19.11,2021-12-17 17:39:08.125000
526,19.77,2021-12-17 17:39:08.140625
527,19.57,2021-12-17 17:39:08.156250
528,18.66,2021-12-17 17:39:08.171875
529,17.32,2021-12-17 17:39:08.187500
530,15.66,2021-12-17 17:39:08.203125
531,13.57,2021-12-17 17:39:08.218750
532,10.67,2021-12-17 17:39:08.234375
533,6.57,2021-12-17 17:39:08.250000
534,1.01,2021-12-17 17:39:08.265625
535,-5.95,2021-12-17 17:39:08.281250
536,-13.98,2021-12-17 17:39:08.296875
537,-22.52,2021-12-17 17:39:08.312500
538,-30.96,2021-12-17 17:39:08.328125
539,-38.68,2021-12-17 17:39:08.343750
540,-45.11,2021-12-17 17:39:08.359375
541,-49.77,2021-12-17 17:39:08.375000
542,-52.35,2021-12-17 17:39:08.390625
543,-52.85,2021-12-17 17:39:08.406250
544,-51.47,2021-12-17 17:39:08.421875
545,-48.73,2021-12-17 17:39:08.437500
546,-45.26,2021-12-17 17:39:08.453125
547,-41.6,2021-12-17 17:39:08.468750
548,-38.14,2021-12-17 17:39:08.484375
549,-34.96,2021-12-17 17:39:08.500000
550,-31.91,2021-12-17 17:39:08.515625
551,-28.74,2021-12-17 17:39:08.531250
552,-25.14,2021-12-17 17:39:08.546875
553,-20.9,2021-12-17 17:39:08.562500
554,-15.95,2021-12-17 17:39:08.578125
555,-10.37,2021-12-17 17:39:08.593750
556,-4.36,2021-12-17 17:39:08.609375
557,1.8,2021-12-17 17:39:08.625000
558,7.85,2021-12-17 17:39:08.640625
559,13.51,2021-12-17 17:39:08.656250
560,18.62,2021-12-17 17:39:08.671875
561,23.08,2021-12-17 17:39:08.687500
562,26.86,2021-12-17 17:39:08.703125
563,30.0,2021-12-17 17:39:08.718750
564,32.59,2021-12-17 17:39:08.734375
565,34.73,2021-12-17 17:39:08.750000
566,36.44,2021-12-17 17:39:08.765625
567,37.71,2021-12-17 17:39:08.781250
568,38.51,2021-12-17 17:39:08.796875
569,38.84,2021-12-17 17:39:08.812500
570,38.83,2021-12-17 17:39:08.828125
571,38.68,2021-12-17 17:39:08.843750
572,38.65,2021-12-17 17:39:08.859375
573,39.02,2021-12-17 17:39:08.875000
574,39.89,2021-12-17 17:39:08.890625
575,41.23,2021-12-17 17:39:08.906250
576,42.83,2021-12-17 17:39:08.921875
577,44.4,2021-12-17 17:39:08.937500
578,45.6,2021-12-17 17:39:08.953125
579,46.17,2021-12-17 17:39:08.968750
580,45.87,2021-12-17 17:39:08.984375
581,44.63,2021-12-17 17:39:09.000000
582,42.5,2021-12-17 17:39:09.015625
583,39.66,2021-12-17 17:39:09.031250
584,36.42,2021-12-17 17:39:09.046875
585,33.05,2021-12-17 17:39:09.062500
586,29.75,2021-12-17 17:39:09.078125
587,26.51,2021-12-17 17:39:09.093750
588,23.2,2021-12-17 17:39:09.109375
589,19.6,2021-12-17 17:39:09.125000
590,15.55,2021-12-17 17:39:09.140625
591,11.06,2021-12-17 17:39:09.156250
592,6.31,2021-12-17 17:39:09.171875
593,1.56,2021-12-17 17:39:09.187500
594,-2.97,2021-12-17 17:39:09.203125
595,-7.11,2021-12-17 17:39:09.218750
596,-10.88,2021-12-17 17:39:09.234375
597,-14.35,2021-12-17 17:39:09.250000
598,-17.68,2021-12-17 17:39:09.265625
599,-21.0,2021-12-17 17:39:09.281250
600,-24.39,2021-12-17 17:39:09.296875
601,-27.85,2021-12-17 17:39:09.312500
602,-31.28,2021-12-17 17:39:09.328125
603,-34.51,2021-12-17 17:39:09.343750
604,-37.28,2021-12-17 17:39:09.359375
605,-39.36,2021-12-17 17:39:09.375000
606,-40.55,2021-12-17 17:39:09.390625
607,-40.73,2021-12-17 17:39:09.406250
608,-39.91,2021-12-17 17:39:09.421875
609,-38.12,2021-12-17 17:39:09.437500
610,-35.48,2021-12-17 17:39:09.453125
611,-32.17,2021-12-17 17:39:09.468750
612,-28.4,2021-12-17 17:39:09.484375
613,-24.38,2021-12-17 17:39:09.500000
614,-20.31,2021-12-17 17:39:09.515625
615,-16.33,2021-12-17 17:39:09.531250
616,-12.55,2021-12-17 17:39:09.546875
617,-9.02,2021-12-17 17:39:09.562500
618,-5.82,2021-12-17 17:39:09.578125
619,-3.02,2021-12-17 17:39:09.593750
620,-0.71,2021-12-17 17:39:09.609375
621,1.05,2021-12-17 17:39:09.625000
622,2.19,2021-12-17 17:39:09.640625
623,2.72,2021-12-17 17:39:09.656250
624,2.71,2021-12-17 17:39:09.671875
625,2.31,2021-12-17 17:39:09.687500
626,1.73,2021-12-17 17:39:09.703125
627,1.19,2021-12-17 17:39:09.718750
628,0.86,2021-12-17 17:39:09.734375
629,0.84,2021-12-17 17:39:09.750000
630,1.14,2021-12-17 17:39:09.765625
631,1.73,2021-12-17 17:39:09.781250
632,2.57,2021-12-17 17:39:09.796875
633,3.66,2021-12-17 17:39:09.812500
634,4.96,2021-12-17 17:39:09.828125
635,6.31,2021-12-17 17:39:09.843750
636,7.47,2021-12-17 17:39:09.859375
637,8.06,2021-12-17 17:39:09.875000
638,7.81,2021-12-17 17:39:09.890625
639,6.58,2021-12-17 17:39:09.906250
640,4.45,2021-12-17 17:39:09.921875
641,1.67,2021-12-17 17:39:09.937500
642,-1.47,2021-12-17 17:39:09.953125
643,-4.7,2021-12-17 17:39:09.968750
644,-7.91,2021-12-17 17:39:09.984375
645,-11.03,2021-12-17 17:39:10.000000
646,-14.09,2021-12-17 17:39:10.015625
647,-17.08,2021-12-17 17:39:10.031250
648,-20.06,2021-12-17 17:39:10.046875
649,-23.05,2021-12-17 17:39:10.062500
650,-26.14,2021-12-17 17:39:10.078125
651,-29.37,2021-12-17 17:39:10.093750
652,-32.72,2021-12-17 17:39:10.109375
653,-36.1,2021-12-17 17:39:10.125000
654,-39.31,2021-12-17 17:39:10.140625
655,-42.18,2021-12-17 17:39:10.156250
656,-44.55,2021-12-17 17:39:10.171875
657,-46.33,2021-12-17 17:39:10.187500
658,-47.49,2021-12-17 17:39:10.203125
659,-47.95,2021-12-17 17:39:10.218750
660,-47.61,2021-12-17 17:39:10.234375
661,-46.29,2021-12-17 17:39:10.250000
662,-43.92,2021-12-17 17:39:10.265625
663,-40.54,2021-12-17 17:39:10.281250
664,-36.42,2021-12-17 17:39:10.296875
665,-31.91,2021-12-17 17:39:10.312500
666,-27.38,2021-12-17 17:39:10.328125
667,-23.01,2021-12-17 17:39:10.343750
668,-18.76,2021-12-17 17:39:10.359375
669,-14.54,2021-12-17 17:39:10.375000
670,-10.32,2021-12-17 17:39:10.390625
671,-6.26,2021-12-17 17:39:10.406250
672,-2.78,2021-12-17 17:39:10.421875
673,-0.3,2021-12-17 17:39:10.437500
674,0.92,2021-12-17 17:39:10.453125
675,1.01,2021-12-17 17:39:10.468750
676,0.39,2021-12-17 17:39:10.484375
677,-0.41,2021-12-17 17:39:10.500000
678,-0.94,2021-12-17 17:39:10.515625
679,-1.02,2021-12-17 17:39:10.531250
680,-0.73,2021-12-17 17:39:10.546875
681,-0.27,2021-12-17 17:39:10.562500
682,0.19,2021-12-17 17:39:10.578125
683,0.56,2021-12-17 17:39:10.593750
684,0.79,2021-12-17 17:39:10.609375
685,0.85,2021-12-17 17:39:10.625000
686,0.63,2021-12-17 17:39:10.640625
687,-0.02,2021-12-17 17:39:10.656250
688,-1.18,2021-12-17 17:39:10.671875
689,-2.83,2021-12-17 17:39:10.687500
690,-4.78,2021-12-17 17:39:10.703125
691,-6.77,2021-12-17 17:39:10.718750
692,-8.52,2021-12-17 17:39:10.734375
693,-9.86,2021-12-17 17:39:10.750000
694,-10.77,2021-12-17 17:39:10.765625
695,-11.36,2021-12-17 17:39:10.781250
696,-11.88,2021-12-17 17:39:10.796875
697,-12.55,2021-12-17 17:39:10.812500
698,-13.53,2021-12-17 17:39:10.828125
699,-14.83,2021-12-17 17:39:10.843750
700,-16.33,2021-12-17 17:39:10.859375
701,-17.85,2021-12-17 17:39:10.875000
702,-19.23,2021-12-17 17:39:10.890625
703,-20.43,2021-12-17 17:39:10.906250
704,-21.5,2021-12-17 17:39:10.921875
705,-22.54,2021-12-17 17:39:10.937500
706,-23.65,2021-12-17 17:39:10.953125
707,-24.86,2021-12-17 17:39:10.968750
708,-26.1,2021-12-17 17:39:10.984375
709,-27.31,2021-12-17 17:39:11.000000
710,-28.38,2021-12-17 17:39:11.015625
711,-29.15,2021-12-17 17:39:11.031250
712,-29.45,2021-12-17 17:39:11.046875
713,-29.04,2021-12-17 17:39:11.062500
714,-27.73,2021-12-17 17:39:11.078125
715,-25.42,2021-12-17 17:39:11.093750
716,-22.21,2021-12-17 17:39:11.109375
717,-18.38,2021-12-17 17:39:11.125000
718,-14.31,2021-12-17 17:39:11.140625
719,-10.34,2021-12-17 17:39:11.156250
720,-6.7,2021-12-17 17:39:11.171875
721,-3.41,2021-12-17 17:39:11.187500
722,-0.44,2021-12-17 17:39:11.203125
723,2.22,2021-12-17 17:39:11.218750
724,4.51,2021-12-17 17:39:11.234375
725,6.28,2021-12-17 17:39:11.250000
726,7.42,2021-12-17 17:39:11.265625
727,7.94,2021-12-17 17:39:11.281250
728,7.97,2021-12-17 17:39:11.296875
729,7.73,2021-12-17 17:39:11.312500
730,7.39,2021-12-17 17:39:11.328125
731,6.99,2021-12-17 17:39:11.343750
732,6.45,2021-12-17 17:39:11.359375
733,5.63,2021-12-17 17:39:11.375000
734,4.48,2021-12-17 17:39:11.390625
735,3.05,2021-12-17 17:39:11.406250
736,1.51,2021-12-17 17:39:11.421875
737,0.06,2021-12-17 17:39:11.437500
738,-1.14,2021-12-17 17:39:11.453125
739,-2.11,2021-12-17 17:39:11.468750
740,-2.95,2021-12-17 17:39:11.484375
741,-3.83,2021-12-17 17:39:11.500000
742,-4.88,2021-12-17 17:39:11.515625
743,-6.15,2021-12-17 17:39:11.531250
744,-7.56,2021-12-17 17:39:11.546875
745,-8.96,2021-12-17 17:39:11.562500
746,-10.18,2021-12-17 17:39:11.578125
747,-11.14,2021-12-17 17:39:11.593750
748,-11.82,2021-12-17 17:39:11.609375
749,-12.36,2021-12-17 17:39:11.625000
750,-12.99,2021-12-17 17:39:11.640625
751,-13.91,2021-12-17 17:39:11.656250
752,-15.27,2021-12-17 17:39:11.671875
753,-17.04,2021-12-17 17:39:11.687500
754,-18.99,2021-12-17 17:39:11.703125
755,-20.85,2021-12-17 17:39:11.718750
756,-22.4,2021-12-17 17:39:11.734375
757,-23.57,2021-12-17 17:39:11.750000
758,-24.46,2021-12-17 17:39:11.765625
759,-25.28,2021-12-17 17:39:11.781250
760,-26.16,2021-12-17 17:39:11.796875
761,-27.08,2021-12-17 17:39:11.812500
762,-27.86,2021-12-17 17:39:11.828125
763,-28.25,2021-12-17 17:39:11.843750
764,-27.97,2021-12-17 17:39:11.859375
765,-26.88,2021-12-17 17:39:11.875000
766,-25.0,2021-12-17 17:39:11.890625
767,-22.47,2021-12-17 17:39:11.906250
768,-19.56,2021-12-17 17:39:11.921875
769,-16.57,2021-12-17 17:39:11.937500
770,-13.78,2021-12-17 17:39:11.953125
771,-11.36,2021-12-17 17:39:11.968750
772,-9.34,2021-12-17 17:39:11.984375
773,-7.64,2021-12-17 17:39:12.000000
774,-6.04,2021-12-17 17:39:12.015625
775,-4.28,2021-12-17 17:39:12.031250
776,-2.12,2021-12-17 17:39:12.046875
777,0.66,2021-12-17 17:39:12.062500
778,4.14,2021-12-17 17:39:12.078125
779,8.28,2021-12-17 17:39:12.093750
780,12.87,2021-12-17 17:39:12.109375
781,17.5,2021-12-17 17:39:12.125000
782,21.68,2021-12-17 17:39:12.140625
783,24.91,2021-12-17 17:39:12.156250
784,26.78,2021-12-17 17:39:12.171875
785,27.1,2021-12-17 17:39:12.187500
786,25.94,2021-12-17 17:39:12.203125
787,23.66,2021-12-17 17:39:12.218750
788,20.81,2021-12-17 17:39:12.234375
789,18.06,2021-12-17 17:39:12.250000
790,15.99,2021-12-17 17:39:12.265625
791,14.95,2021-12-17 17:39:12.281250
792,14.93,2021-12-17 17:39:12.296875
793,15.54,2021-12-17 17:39:12.312500
794,16.16,2021-12-17 17:39:12.328125
795,16.09,2021-12-17 17:39:12.343750
796,14.82,2021-12-17 17:39:12.359375
797,12.19,2021-12-17 17:39:12.375000
798,8.39,2021-12-17 17:39:12.390625
799,3.88,2021-12-17 17:39:12.406250
800,-0.87,2021-12-17 17:39:12.421875
801,-5.55,2021-12-17 17:39:12.437500
802,-10.04,2021-12-17 17:39:12.453125
803,-14.4,2021-12-17 17:39:12.468750
804,-18.74,2021-12-17 17:39:12.484375
805,-23.12,2021-12-17 17:39:12.500000
806,-27.43,2021-12-17 17:39:12.515625
807,-31.51,2021-12-17 17:39:12.531250
808,-35.18,2021-12-17 17:39:12.546875
809,-38.41,2021-12-17 17:39:12.562500
810,-41.27,2021-12-17 17:39:12.578125
811,-43.95,2021-12-17 17:39:12.593750
812,-46.61,2021-12-17 17:39:12.609375
813,-49.36,2021-12-17 17:39:12.625000
814,-52.17,2021-12-17 17:39:12.640625
815,-54.82,2021-12-17 17:39:12.656250
816,-56.96,2021-12-17 17:39:12.671875
817,-58.16,2021-12-17 17:39:12.687500
818,-58.0,2021-12-17 17:39:12.703125
819,-56.22,2021-12-17 17:39:12.718750
820,-52.8,2021-12-17 17:39:12.734375
821,-47.98,2021-12-17 17:39:12.750000
822,-42.19,2021-12-17 17:39:12.765625
823,-35.95,2021-12-17 17:39:12.781250
824,-29.67,2021-12-17 17:39:12.796875
825,-23.61,2021-12-17 17:39:12.812500
826,-17.83,2021-12-17 17:39:12.828125
827,-12.31,2021-12-17 17:39:12.843750
828,-6.96,2021-12-17 17:39:12.859375
829,-1.73,2021-12-17 17:39:12.875000
830,3.38,2021-12-17 17:39:12.890625
831,8.33,2021-12-17 17:39:12.906250
832,13.01,2021-12-17 17:39:12.921875
833,17.3,2021-12-17 17:39:12.937500
834,21.04,2021-12-17 17:39:12.953125
835,24.1,2021-12-17 17:39:12.968750
836,26.4,2021-12-17 17:39:12.984375
837,27.9,2021-12-17 17:39:13.000000
838,28.64,2021-12-17 17:39:13.015625
839,28.68,2021-12-17 17:39:13.031250
840,28.08,2021-12-17 17:39:13.046875
841,26.89,2021-12-17 17:39:13.062500
842,25.25,2021-12-17 17:39:13.078125
843,23.35,2021-12-17 17:39:13.093750
844,21.46,2021-12-17 17:39:13.109375
845,19.86,2021-12-17 17:39:13.125000
846,18.76,2021-12-17 17:39:13.140625
847,18.21,2021-12-17 17:39:13.156250
848,18.09,2021-12-17 17:39:13.171875
849,18.21,2021-12-17 17:39:13.187500
850,18.34,2021-12-17 17:39:13.203125
851,18.31,2021-12-17 17:39:13.218750
852,18.07,2021-12-17 17:39:13.234375
853,17.63,2021-12-17 17:39:13.250000
854,17.04,2021-12-17 17:39:13.265625
855,16.31,2021-12-17 17:39:13.281250
856,15.41,2021-12-17 17:39:13.296875
857,14.31,2021-12-17 17:39:13.312500
858,13.0,2021-12-17 17:39:13.328125
859,11.56,2021-12-17 17:39:13.343750
860,10.09,2021-12-17 17:39:13.359375
861,8.67,2021-12-17 17:39:13.375000
862,7.28,2021-12-17 17:39:13.390625
863,5.78,2021-12-17 17:39:13.406250
864,3.95,2021-12-17 17:39:13.421875
865,1.69,2021-12-17 17:39:13.437500
866,-0.98,2021-12-17 17:39:13.453125
867,-3.77,2021-12-17 17:39:13.468750
868,-6.23,2021-12-17 17:39:13.484375
869,-7.89,2021-12-17 17:39:13.500000
870,-8.43,2021-12-17 17:39:13.515625
871,-7.75,2021-12-17 17:39:13.531250
872,-6.01,2021-12-17 17:39:13.546875
873,-3.54,2021-12-17 17:39:13.562500
874,-0.76,2021-12-17 17:39:13.578125
875,1.96,2021-12-17 17:39:13.593750
876,4.32,2021-12-17 17:39:13.609375
877,6.12,2021-12-17 17:39:13.625000
878,7.3,2021-12-17 17:39:13.640625
879,7.86,2021-12-17 17:39:13.656250
880,7.91,2021-12-17 17:39:13.671875
881,7.58,2021-12-17 17:39:13.687500
882,7.03,2021-12-17 17:39:13.703125
883,6.47,2021-12-17 17:39:13.718750
884,6.09,2021-12-17 17:39:13.734375
885,6.07,2021-12-17 17:39:13.750000
886,6.5,2021-12-17 17:39:13.765625
887,7.4,2021-12-17 17:39:13.781250
888,8.65,2021-12-17 17:39:13.796875
889,10.09,2021-12-17 17:39:13.812500
890,11.49,2021-12-17 17:39:13.828125
891,12.67,2021-12-17 17:39:13.843750
892,13.53,2021-12-17 17:39:13.859375
893,14.05,2021-12-17 17:39:13.875000
894,14.35,2021-12-17 17:39:13.890625
895,14.58,2021-12-17 17:39:13.906250
896,14.89,2021-12-17 17:39:13.921875
897,15.35,2021-12-17 17:39:13.937500
898,15.91,2021-12-17 17:39:13.953125
899,16.38,2021-12-17 17:39:13.968750
900,16.49,2021-12-17 17:39:13.984375
901,16.02,2021-12-17 17:39:14.000000
902,14.89,2021-12-17 17:39:14.015625
903,13.21,2021-12-17 17:39:14.031250
904,11.25,2021-12-17 17:39:14.046875
905,9.22,2021-12-17 17:39:14.062500
906,7.21,2021-12-17 17:39:14.078125
907,5.1,2021-12-17 17:39:14.093750
908,2.71,2021-12-17 17:39:14.109375
909,-0.11,2021-12-17 17:39:14.125000
910,-3.34,2021-12-17 17:39:14.140625
911,-6.8,2021-12-17 17:39:14.156250
912,-10.25,2021-12-17 17:39:14.171875
913,-13.56,2021-12-17 17:39:14.187500
914,-16.76,2021-12-17 17:39:14.203125
915,-20.0,2021-12-17 17:39:14.218750
916,-23.38,2021-12-17 17:39:14.234375
917,-26.81,2021-12-17 17:39:14.250000
918,-29.96,2021-12-17 17:39:14.265625
919,-32.31,2021-12-17 17:39:14.281250
920,-33.42,2021-12-17 17:39:14.296875
921,-33.02,2021-12-17 17:39:14.312500
922,-31.17,2021-12-17 17:39:14.328125
923,-28.18,2021-12-17 17:39:14.343750
924,-24.55,2021-12-17 17:39:14.359375
925,-20.79,2021-12-17 17:39:14.375000
926,-17.28,2021-12-17 17:39:14.390625
927,-14.22,2021-12-17 17:39:14.406250
928,-11.66,2021-12-17 17:39:14.421875
929,-9.55,2021-12-17 17:39:14.437500
930,-7.89,2021-12-17 17:39:14.453125
931,-6.73,2021-12-17 17:39:14.468750
932,-6.2,2021-12-17 17:39:14.484375
933,-6.39,2021-12-17 17:39:14.500000
934,-7.29,2021-12-17 17:39:14.515625
935,-8.69,2021-12-17 17:39:14.531250
936,-10.3,2021-12-17 17:39:14.546875
937,-11.79,2021-12-17 17:39:14.562500
938,-12.96,2021-12-17 17:39:14.578125
939,-13.81,2021-12-17 17:39:14.593750
940,-14.44,2021-12-17 17:39:14.609375
941,-15.01,2021-12-17 17:39:14.625000
942,-15.57,2021-12-17 17:39:14.640625
943,-16.04,2021-12-17 17:39:14.656250
944,-16.23,2021-12-17 17:39:14.671875
945,-15.96,2021-12-17 17:39:14.687500
946,-15.15,2021-12-17 17:39:14.703125
947,-13.9,2021-12-17 17:39:14.718750
948,-12.42,2021-12-17 17:39:14.734375
949,-11.0,2021-12-17 17:39:14.750000
950,-9.89,2021-12-17 17:39:14.765625
951,-9.26,2021-12-17 17:39:14.781250
952,-9.15,2021-12-17 17:39:14.796875
953,-9.56,2021-12-17 17:39:14.812500
954,-10.42,2021-12-17 17:39:14.828125
955,-11.64,2021-12-17 17:39:14.843750
956,-13.1,2021-12-17 17:39:14.859375
957,-14.64,2021-12-17 17:39:14.875000
958,-16.1,2021-12-17 17:39:14.890625
959,-17.35,2021-12-17 17:39:14.906250
960,-18.35,2021-12-17 17:39:14.921875
961,-19.2,2021-12-17 17:39:14.937500
962,-20.06,2021-12-17 17:39:14.953125
963,-21.13,2021-12-17 17:39:14.968750
964,-22.53,2021-12-17 17:39:14.984375
965,-24.2,2021-12-17 17:39:15.000000
966,-25.88,2021-12-17 17:39:15.015625
967,-27.16,2021-12-17 17:39:15.031250
968,-27.59,2021-12-17 17:39:15.046875
969,-26.86,2021-12-17 17:39:15.062500
970,-24.91,2021-12-17 17:39:15.078125
971,-21.98,2021-12-17 17:39:15.093750
972,-18.48,2021-12-17 17:39:15.109375
973,-14.84,2021-12-17 17:39:15.125000
974,-11.33,2021-12-17 17:39:15.140625
975,-8.0,2021-12-17 17:39:15.156250
976,-4.7,2021-12-17 17:39:15.171875
977,-1.27,2021-12-17 17:39:15.187500
978,2.37,2021-12-17 17:39:15.203125
979,6.09,2021-12-17 17:39:15.218750
980,9.59,2021-12-17 17:39:15.234375
981,12.53,2021-12-17 17:39:15.250000
982,14.65,2021-12-17 17:39:15.265625
983,15.89,2021-12-17 17:39:15.281250
984,16.35,2021-12-17 17:39:15.296875
985,16.27,2021-12-17 17:39:15.312500
986,15.93,2021-12-17 17:39:15.328125
987,15.49,2021-12-17 17:39:15.343750
988,15.02,2021-12-17 17:39:15.359375
989,14.55,2021-12-17 17:39:15.375000
990,14.08,2021-12-17 17:39:15.390625
991,13.56,2021-12-17 17:39:15.406250
992,12.96,2021-12-17 17:39:15.421875
993,12.24,2021-12-17 17:39:15.437500
994,11.33,2021-12-17 17:39:15.453125
995,10.21,2021-12-17 17:39:15.468750
996,8.92,2021-12-17 17:39:15.484375
997,7.51,2021-12-17 17:39:15.500000
998,6.05,2021-12-17 17:39:15.515625
999,4.57,2021-12-17 17:39:15.531250
1000,2.97,2021-12-17 17:39:15.546875
1001,1.19,2021-12-17 17:39:15.562500
1002,-0.81,2021-12-17 17:39:15.578125
1003,-3.01,2021-12-17 17:39:15.593750
1004,-5.35,2021-12-17 17:39:15.609375
1005,-7.74,2021-12-17 17:39:15.625000
1006,-10.2,2021-12-17 17:39:15.640625
1007,-12.79,2021-12-17 17:39:15.656250
1008,-15.6,2021-12-17 17:39:15.671875
1009,-18.72,2021-12-17 17:39:15.687500
1010,-22.16,2021-12-17 17:39:15.703125
1011,-25.85,2021-12-17 17:39:15.718750
1012,-29.71,2021-12-17 17:39:15.734375
1013,-33.6,2021-12-17 17:39:15.750000
1014,-37.35,2021-12-17 17:39:15.765625
1015,-40.75,2021-12-17 17:39:15.781250
1016,-43.54,2021-12-17 17:39:15.796875
1017,-45.45,2021-12-17 17:39:15.812500
1018,-46.22,2021-12-17 17:39:15.828125
1019,-45.72,2021-12-17 17:39:15.843750
1020,-43.96,2021-12-17 17:39:15.859375
1021,-41.11,2021-12-17 17:39:15.875000
1022,-37.42,2021-12-17 17:39:15.890625
1023,-33.15,2021-12-17 17:39:15.906250
1024,-28.48,2021-12-17 17:39:15.921875
1025,-23.4,2021-12-17 17:39:15.937500
1026,-17.81,2021-12-17 17:39:15.953125
1027,-11.64,2021-12-17 17:39:15.968750
1028,-4.91,2021-12-17 17:39:15.984375
1029,2.16,2021-12-17 17:39:16.000000
1030,9.19,2021-12-17 17:39:16.015625
1031,15.74,2021-12-17 17:39:16.031250
1032,21.46,2021-12-17 17:39:16.046875
1033,26.15,2021-12-17 17:39:16.062500
1034,29.82,2021-12-17 17:39:16.078125
1035,32.62,2021-12-17 17:39:16.093750
1036,34.68,2021-12-17 17:39:16.109375
1037,36.05,2021-12-17 17:39:16.125000
1038,36.67,2021-12-17 17:39:16.140625
1039,36.41,2021-12-17 17:39:16.156250
1040,35.26,2021-12-17 17:39:16.171875
1041,33.35,2021-12-17 17:39:16.187500
1042,31.02,2021-12-17 17:39:16.203125
1043,28.7,2021-12-17 17:39:16.218750
1044,26.7,2021-12-17 17:39:16.234375
1045,25.19,2021-12-17 17:39:16.250000
1046,24.09,2021-12-17 17:39:16.265625
1047,23.23,2021-12-17 17:39:16.281250
1048,22.39,2021-12-17 17:39:16.296875
1049,21.43,2021-12-17 17:39:16.312500
1050,20.3,2021-12-17 17:39:16.328125
1051,18.99,2021-12-17 17:39:16.343750
1052,17.51,2021-12-17 17:39:16.359375
1053,15.75,2021-12-17 17:39:16.375000
1054,13.54,2021-12-17 17:39:16.390625
1055,10.6,2021-12-17 17:39:16.406250
1056,6.64,2021-12-17 17:39:16.421875
1057,1.45,2021-12-17 17:39:16.437500
1058,-4.93,2021-12-17 17:39:16.453125
1059,-12.2,2021-12-17 17:39:16.468750
1060,-19.88,2021-12-17 17:39:16.484375
1061,-27.45,2021-12-17 17:39:16.500000
1062,-34.6,2021-12-17 17:39:16.515625
1063,-41.21,2021-12-17 17:39:16.531250
1064,-47.28,2021-12-17 17:39:16.546875
1065,-52.64,2021-12-17 17:39:16.562500
1066,-56.79,2021-12-17 17:39:16.578125
1067,-59.01,2021-12-17 17:39:16.593750
1068,-58.58,2021-12-17 17:39:16.609375
1069,-55.19,2021-12-17 17:39:16.625000
1070,-49.08,2021-12-17 17:39:16.640625
1071,-41.07,2021-12-17 17:39:16.656250
1072,-32.22,2021-12-17 17:39:16.671875
1073,-23.46,2021-12-17 17:39:16.687500
1074,-15.37,2021-12-17 17:39:16.703125
1075,-8.17,2021-12-17 17:39:16.718750
1076,-1.8,2021-12-17 17:39:16.734375
1077,3.8,2021-12-17 17:39:16.750000
1078,8.61,2021-12-17 17:39:16.765625
1079,12.54,2021-12-17 17:39:16.781250
1080,15.48,2021-12-17 17:39:16.796875
1081,17.48,2021-12-17 17:39:16.812500
1082,18.77,2021-12-17 17:39:16.828125
1083,19.73,2021-12-17 17:39:16.843750
1084,20.75,2021-12-17 17:39:16.859375
1085,22.09,2021-12-17 17:39:16.875000
1086,23.81,2021-12-17 17:39:16.890625
1087,25.81,2021-12-17 17:39:16.906250
1088,27.92,2021-12-17 17:39:16.921875
1089,30.0,2021-12-17 17:39:16.937500
1090,32.07,2021-12-17 17:39:16.953125
1091,34.15,2021-12-17 17:39:16.968750
1092,36.21,2021-12-17 17:39:16.984375
1093,38.0,2021-12-17 17:39:17.000000
1094,39.11,2021-12-17 17:39:17.015625
1095,39.14,2021-12-17 17:39:17.031250
1096,37.83,2021-12-17 17:39:17.046875
1097,35.2,2021-12-17 17:39:17.062500
1098,31.58,2021-12-17 17:39:17.078125
1099,27.35,2021-12-17 17:39:17.093750
1100,22.9,2021-12-17 17:39:17.109375
1101,18.46,2021-12-17 17:39:17.125000
1102,14.17,2021-12-17 17:39:17.140625
1103,10.14,2021-12-17 17:39:17.156250
1104,6.49,2021-12-17 17:39:17.171875
1105,3.35,2021-12-17 17:39:17.187500
1106,0.81,2021-12-17 17:39:17.203125
1107,-1.1,2021-12-17 17:39:17.218750
1108,-2.48,2021-12-17 17:39:17.234375
1109,-3.48,2021-12-17 17:39:17.250000
1110,-4.29,2021-12-17 17:39:17.265625
1111,-5.15,2021-12-17 17:39:17.281250
1112,-6.26,2021-12-17 17:39:17.296875
1113,-7.8,2021-12-17 17:39:17.312500
1114,-9.86,2021-12-17 17:39:17.328125
1115,-12.36,2021-12-17 17:39:17.343750
1116,-15.06,2021-12-17 17:39:17.359375
1117,-17.56,2021-12-17 17:39:17.375000
1118,-19.38,2021-12-17 17:39:17.390625
1119,-20.09,2021-12-17 17:39:17.406250
1120,-19.37,2021-12-17 17:39:17.421875
1121,-17.1,2021-12-17 17:39:17.437500
1122,-13.33,2021-12-17 17:39:17.453125
1123,-8.28,2021-12-17 17:39:17.468750
1124,-2.3,2021-12-17 17:39:17.484375
1125,4.22,2021-12-17 17:39:17.500000
1126,10.96,2021-12-17 17:39:17.515625
1127,17.68,2021-12-17 17:39:17.531250
1128,24.23,2021-12-17 17:39:17.546875
1129,30.46,2021-12-17 17:39:17.562500
1130,36.18,2021-12-17 17:39:17.578125
1131,41.08,2021-12-17 17:39:17.593750
1132,44.89,2021-12-17 17:39:17.609375
1133,47.39,2021-12-17 17:39:17.625000
1134,48.56,2021-12-17 17:39:17.640625
1135,48.53,2021-12-17 17:39:17.656250
1136,47.56,2021-12-17 17:39:17.671875
1137,45.95,2021-12-17 17:39:17.687500
1138,43.98,2021-12-17 17:39:17.703125
1139,41.91,2021-12-17 17:39:17.718750
1140,39.97,2021-12-17 17:39:17.734375
1141,38.33,2021-12-17 17:39:17.750000
1142,37.07,2021-12-17 17:39:17.765625
1143,36.11,2021-12-17 17:39:17.781250
1144,35.28,2021-12-17 17:39:17.796875
1145,34.32,2021-12-17 17:39:17.812500
1146,33.02,2021-12-17 17:39:17.828125
1147,31.28,2021-12-17 17:39:17.843750
1148,29.12,2021-12-17 17:39:17.859375
1149,26.65,2021-12-17 17:39:17.875000
1150,24.07,2021-12-17 17:39:17.890625
1151,21.59,2021-12-17 17:39:17.906250
1152,19.36,2021-12-17 17:39:17.921875
1153,17.43,2021-12-17 17:39:17.937500
1154,15.75,2021-12-17 17:39:17.953125
1155,14.13,2021-12-17 17:39:17.968750
1156,12.35,2021-12-17 17:39:17.984375
1157,10.26,2021-12-17 17:39:18.000000
1158,7.84,2021-12-17 17:39:18.015625
1159,5.21,2021-12-17 17:39:18.031250
1160,2.56,2021-12-17 17:39:18.046875
1161,0.04,2021-12-17 17:39:18.062500
1162,-2.32,2021-12-17 17:39:18.078125
1163,-4.61,2021-12-17 17:39:18.093750
1164,-7.02,2021-12-17 17:39:18.109375
1165,-9.82,2021-12-17 17:39:18.125000
1166,-13.26,2021-12-17 17:39:18.140625
1167,-17.54,2021-12-17 17:39:18.156250
1168,-22.68,2021-12-17 17:39:18.171875
1169,-28.38,2021-12-17 17:39:18.187500
1170,-34.07,2021-12-17 17:39:18.203125
1171,-38.93,2021-12-17 17:39:18.218750
1172,-42.19,2021-12-17 17:39:18.234375
1173,-43.33,2021-12-17 17:39:18.250000
1174,-42.31,2021-12-17 17:39:18.265625
1175,-39.47,2021-12-17 17:39:18.281250
1176,-35.38,2021-12-17 17:39:18.296875
1177,-30.53,2021-12-17 17:39:18.312500
1178,-25.29,2021-12-17 17:39:18.328125
1179,-19.77,2021-12-17 17:39:18.343750
1180,-14.01,2021-12-17 17:39:18.359375
1181,-8.08,2021-12-17 17:39:18.375000
1182,-2.14,2021-12-17 17:39:18.390625
1183,3.6,2021-12-17 17:39:18.406250
1184,8.88,2021-12-17 17:39:18.421875
1185,13.52,2021-12-17 17:39:18.437500
1186,17.34,2021-12-17 17:39:18.453125
1187,20.3,2021-12-17 17:39:18.468750
1188,22.38,2021-12-17 17:39:18.484375
1189,23.73,2021-12-17 17:39:18.500000
1190,24.55,2021-12-17 17:39:18.515625
1191,25.09,2021-12-17 17:39:18.531250
1192,25.57,2021-12-17 17:39:18.546875
1193,26.06,2021-12-17 17:39:18.562500
1194,26.53,2021-12-17 17:39:18.578125
1195,26.83,2021-12-17 17:39:18.593750
1196,26.89,2021-12-17 17:39:18.609375
1197,26.7,2021-12-17 17:39:18.625000
1198,26.3,2021-12-17 17:39:18.640625
1199,25.79,2021-12-17 17:39:18.656250
1200,25.18,2021-12-17 17:39:18.671875
1201,24.4,2021-12-17 17:39:18.687500
1202,23.36,2021-12-17 17:39:18.703125
1203,21.97,2021-12-17 17:39:18.718750
1204,20.26,2021-12-17 17:39:18.734375
1205,18.34,2021-12-17 17:39:18.750000
1206,16.41,2021-12-17 17:39:18.765625
1207,14.63,2021-12-17 17:39:18.781250
1208,13.07,2021-12-17 17:39:18.796875
1209,11.62,2021-12-17 17:39:18.812500
1210,10.13,2021-12-17 17:39:18.828125
1211,8.44,2021-12-17 17:39:18.843750
1212,6.49,2021-12-17 17:39:18.859375
1213,4.36,2021-12-17 17:39:18.875000
1214,2.18,2021-12-17 17:39:18.890625
1215,0.08,2021-12-17 17:39:18.906250
1216,-1.89,2021-12-17 17:39:18.921875
1217,-3.87,2021-12-17 17:39:18.937500
1218,-6.04,2021-12-17 17:39:18.953125
1219,-8.64,2021-12-17 17:39:18.968750
1220,-11.83,2021-12-17 17:39:18.984375
1221,-15.69,2021-12-17 17:39:19.000000
1222,-20.2,2021-12-17 17:39:19.015625
1223,-25.25,2021-12-17 17:39:19.031250
1224,-30.65,2021-12-17 17:39:19.046875
1225,-36.06,2021-12-17 17:39:19.062500
1226,-41.02,2021-12-17 17:39:19.078125
1227,-44.99,2021-12-17 17:39:19.093750
1228,-47.48,2021-12-17 17:39:19.109375
1229,-48.22,2021-12-17 17:39:19.125000
1230,-47.14,2021-12-17 17:39:19.140625
1231,-44.48,2021-12-17 17:39:19.156250
1232,-40.59,2021-12-17 17:39:19.171875
1233,-35.89,2021-12-17 17:39:19.187500
1234,-30.71,2021-12-17 17:39:19.203125
1235,-25.27,2021-12-17 17:39:19.218750
1236,-19.68,2021-12-17 17:39:19.234375
1237,-13.99,2021-12-17 17:39:19.250000
1238,-8.22,2021-12-17 17:39:19.265625
1239,-2.46,2021-12-17 17:39:19.281250
1240,3.12,2021-12-17 17:39:19.296875
1241,8.32,2021-12-17 17:39:19.312500
1242,12.89,2021-12-17 17:39:19.328125
1243,16.6,2021-12-17 17:39:19.343750
1244,19.33,2021-12-17 17:39:19.359375
1245,21.06,2021-12-17 17:39:19.375000
1246,21.92,2021-12-17 17:39:19.390625
1247,22.08,2021-12-17 17:39:19.406250
1248,21.77,2021-12-17 17:39:19.421875
1249,21.15,2021-12-17 17:39:19.437500
1250,20.34,2021-12-17 17:39:19.453125
1251,19.46,2021-12-17 17:39:19.468750
1252,18.56,2021-12-17 17:39:19.484375
1253,17.76,2021-12-17 17:39:19.500000
1254,17.1,2021-12-17 17:39:19.515625
1255,16.59,2021-12-17 17:39:19.531250
1256,16.17,2021-12-17 17:39:19.546875
1257,15.68,2021-12-17 17:39:19.562500
1258,14.99,2021-12-17 17:39:19.578125
1259,13.99,2021-12-17 17:39:19.593750
1260,12.68,2021-12-17 17:39:19.609375
1261,11.12,2021-12-17 17:39:19.625000
1262,9.43,2021-12-17 17:39:19.640625
1263,7.7,2021-12-17 17:39:19.656250
1264,5.96,2021-12-17 17:39:19.671875
1265,4.22,2021-12-17 17:39:19.687500
1266,2.43,2021-12-17 17:39:19.703125
1267,0.63,2021-12-17 17:39:19.718750
1268,-1.2,2021-12-17 17:39:19.734375
1269,-3.06,2021-12-17 17:39:19.750000
1270,-5.03,2021-12-17 17:39:19.765625
1271,-7.18,2021-12-17 17:39:19.781250
1272,-9.56,2021-12-17 17:39:19.796875
1273,-12.17,2021-12-17 17:39:19.812500
1274,-14.93,2021-12-17 17:39:19.828125
1275,-17.76,2021-12-17 17:39:19.843750
1276,-20.59,2021-12-17 17:39:19.859375
1277,-23.46,2021-12-17 17:39:19.875000
1278,-26.43,2021-12-17 17:39:19.890625
1279,-29.52,2021-12-17 17:39:19.906250
1280,-32.7,2021-12-17 17:39:19.921875
1281,-35.76,2021-12-17 17:39:19.937500
1282,-38.4,2021-12-17 17:39:19.953125
1283,-40.25,2021-12-17 17:39:19.968750
1284,-40.96,2021-12-17 17:39:19.984375
1285,-40.29,2021-12-17 17:39:20.000000
1286,-38.17,2021-12-17 17:39:20.015625
1287,-34.78,2021-12-17 17:39:20.031250
1288,-30.46,2021-12-17 17:39:20.046875
1289,-25.67,2021-12-17 17:39:20.062500
1290,-20.89,2021-12-17 17:39:20.078125
1291,-16.4,2021-12-17 17:39:20.093750
1292,-12.25,2021-12-17 17:39:20.109375
1293,-8.18,2021-12-17 17:39:20.125000
1294,-3.74,2021-12-17 17:39:20.140625
1295,1.58,2021-12-17 17:39:20.156250
1296,8.11,2021-12-17 17:39:20.171875
1297,15.88,2021-12-17 17:39:20.187500
1298,24.53,2021-12-17 17:39:20.203125
1299,33.47,2021-12-17 17:39:20.218750
1300,42.02,2021-12-17 17:39:20.234375
1301,49.59,2021-12-17 17:39:20.250000
1302,55.78,2021-12-17 17:39:20.265625
1303,60.29,2021-12-17 17:39:20.281250
1304,62.86,2021-12-17 17:39:20.296875
1305,63.26,2021-12-17 17:39:20.312500
1306,61.41,2021-12-17 17:39:20.328125
1307,57.42,2021-12-17 17:39:20.343750
1308,51.74,2021-12-17 17:39:20.359375
1309,45.04,2021-12-17 17:39:20.375000
1310,37.98,2021-12-17 17:39:20.390625
1311,31.1,2021-12-17 17:39:20.406250
1312,24.62,2021-12-17 17:39:20.421875
1313,18.53,2021-12-17 17:39:20.437500
1314,12.73,2021-12-17 17:39:20.453125
1315,7.18,2021-12-17 17:39:20.468750
1316,1.98,2021-12-17 17:39:20.484375
1317,-2.6,2021-12-17 17:39:20.500000
1318,-6.32,2021-12-17 17:39:20.515625
1319,-8.99,2021-12-17 17:39:20.531250
1320,-10.63,2021-12-17 17:39:20.546875
1321,-11.48,2021-12-17 17:39:20.562500
1322,-11.91,2021-12-17 17:39:20.578125
1323,-12.38,2021-12-17 17:39:20.593750
1324,-13.24,2021-12-17 17:39:20.609375
1325,-14.66,2021-12-17 17:39:20.625000
1326,-16.54,2021-12-17 17:39:20.640625
1327,-18.63,2021-12-17 17:39:20.656250
1328,-20.62,2021-12-17 17:39:20.671875
1329,-22.23,2021-12-17 17:39:20.687500
1330,-23.33,2021-12-17 17:39:20.703125
1331,-23.92,2021-12-17 17:39:20.718750
1332,-24.15,2021-12-17 17:39:20.734375
1333,-24.27,2021-12-17 17:39:20.750000
1334,-24.61,2021-12-17 17:39:20.765625
1335,-25.5,2021-12-17 17:39:20.781250
1336,-27.1,2021-12-17 17:39:20.796875
1337,-29.32,2021-12-17 17:39:20.812500
1338,-31.82,2021-12-17 17:39:20.828125
1339,-34.03,2021-12-17 17:39:20.843750
1340,-35.36,2021-12-17 17:39:20.859375
1341,-35.37,2021-12-17 17:39:20.875000
1342,-33.87,2021-12-17 17:39:20.890625
1343,-30.92,2021-12-17 17:39:20.906250
1344,-26.78,2021-12-17 17:39:20.921875
1345,-21.78,2021-12-17 17:39:20.937500
1346,-16.27,2021-12-17 17:39:20.953125
1347,-10.55,2021-12-17 17:39:20.968750
1348,-4.86,2021-12-17 17:39:20.984375
1349,0.65,2021-12-17 17:39:21.000000
1350,5.85,2021-12-17 17:39:21.015625
1351,10.69,2021-12-17 17:39:21.031250
1352,15.07,2021-12-17 17:39:21.046875
1353,18.92,2021-12-17 17:39:21.062500
1354,22.19,2021-12-17 17:39:21.078125
1355,24.83,2021-12-17 17:39:21.093750
1356,26.85,2021-12-17 17:39:21.109375
1357,28.27,2021-12-17 17:39:21.125000
1358,29.14,2021-12-17 17:39:21.140625
1359,29.52,2021-12-17 17:39:21.156250
1360,29.48,2021-12-17 17:39:21.171875
1361,29.14,2021-12-17 17:39:21.187500
1362,28.61,2021-12-17 17:39:21.203125
1363,27.97,2021-12-17 17:39:21.218750
1364,27.24,2021-12-17 17:39:21.234375
1365,26.44,2021-12-17 17:39:21.250000
1366,25.6,2021-12-17 17:39:21.265625
1367,24.8,2021-12-17 17:39:21.281250
1368,24.21,2021-12-17 17:39:21.296875
1369,23.97,2021-12-17 17:39:21.312500
1370,24.1,2021-12-17 17:39:21.328125
1371,24.5,2021-12-17 17:39:21.343750
1372,24.99,2021-12-17 17:39:21.359375
1373,25.39,2021-12-17 17:39:21.375000
1374,25.61,2021-12-17 17:39:21.390625
1375,25.69,2021-12-17 17:39:21.406250
1376,25.64,2021-12-17 17:39:21.421875
1377,25.47,2021-12-17 17:39:21.437500
1378,25.06,2021-12-17 17:39:21.453125
1379,24.31,2021-12-17 17:39:21.468750
1380,23.19,2021-12-17 17:39:21.484375
1381,21.74,2021-12-17 17:39:21.500000
1382,20.06,2021-12-17 17:39:21.515625
1383,18.2,2021-12-17 17:39:21.531250
1384,16.14,2021-12-17 17:39:21.546875
1385,13.81,2021-12-17 17:39:21.562500
1386,11.1,2021-12-17 17:39:21.578125
1387,8.01,2021-12-17 17:39:21.593750
1388,4.56,2021-12-17 17:39:21.609375
1389,0.77,2021-12-17 17:39:21.625000
1390,-3.37,2021-12-17 17:39:21.640625
1391,-7.95,2021-12-17 17:39:21.656250
1392,-12.93,2021-12-17 17:39:21.671875
1393,-18.19,2021-12-17 17:39:21.687500
1394,-23.32,2021-12-17 17:39:21.703125
1395,-27.81,2021-12-17 17:39:21.718750
1396,-31.15,2021-12-17 17:39:21.734375
1397,-33.0,2021-12-17 17:39:21.750000
1398,-33.27,2021-12-17 17:39:21.765625
1399,-32.12,2021-12-17 17:39:21.781250
1400,-29.81,2021-12-17 17:39:21.796875
1401,-26.64,2021-12-17 17:39:21.812500
1402,-22.89,2021-12-17 17:39:21.828125
1403,-18.75,2021-12-17 17:39:21.843750
1404,-14.42,2021-12-17 17:39:21.859375
1405,-10.06,2021-12-17 17:39:21.875000
1406,-5.86,2021-12-17 17:39:21.890625
1407,-2.0,2021-12-17 17:39:21.906250
1408,1.37,2021-12-17 17:39:21.921875
1409,4.21,2021-12-17 17:39:21.937500
1410,6.61,2021-12-17 17:39:21.953125
1411,8.78,2021-12-17 17:39:21.968750
1412,11.01,2021-12-17 17:39:21.984375
1413,13.53,2021-12-17 17:39:22.000000
1414,16.42,2021-12-17 17:39:22.015625
1415,19.55,2021-12-17 17:39:22.031250
1416,22.63,2021-12-17 17:39:22.046875
1417,25.34,2021-12-17 17:39:22.062500
1418,27.43,2021-12-17 17:39:22.078125
1419,28.82,2021-12-17 17:39:22.093750
1420,29.53,2021-12-17 17:39:22.109375
1421,29.68,2021-12-17 17:39:22.125000
1422,29.3,2021-12-17 17:39:22.140625
1423,28.44,2021-12-17 17:39:22.156250
1424,27.04,2021-12-17 17:39:22.171875
1425,25.08,2021-12-17 17:39:22.187500
1426,22.51,2021-12-17 17:39:22.203125
1427,19.28,2021-12-17 17:39:22.218750
1428,15.4,2021-12-17 17:39:22.234375
1429,10.89,2021-12-17 17:39:22.250000
1430,5.86,2021-12-17 17:39:22.265625
1431,0.48,2021-12-17 17:39:22.281250
1432,-5.03,2021-12-17 17:39:22.296875
1433,-10.5,2021-12-17 17:39:22.312500
1434,-15.79,2021-12-17 17:39:22.328125
1435,-20.79,2021-12-17 17:39:22.343750
1436,-25.42,2021-12-17 17:39:22.359375
1437,-29.59,2021-12-17 17:39:22.375000
1438,-33.27,2021-12-17 17:39:22.390625
1439,-36.5,2021-12-17 17:39:22.406250
1440,-39.44,2021-12-17 17:39:22.421875
1441,-42.35,2021-12-17 17:39:22.437500
1442,-45.47,2021-12-17 17:39:22.453125
1443,-48.87,2021-12-17 17:39:22.468750
1444,-52.5,2021-12-17 17:39:22.484375
1445,-56.08,2021-12-17 17:39:22.500000
1446,-59.33,2021-12-17 17:39:22.515625
1447,-61.93,2021-12-17 17:39:22.531250
1448,-63.63,2021-12-17 17:39:22.546875
1449,-64.15,2021-12-17 17:39:22.562500
1450,-63.23,2021-12-17 17:39:22.578125
1451,-60.69,2021-12-17 17:39:22.593750
1452,-56.53,2021-12-17 17:39:22.609375
1453,-50.99,2021-12-17 17:39:22.625000
1454,-44.59,2021-12-17 17:39:22.640625
1455,-37.9,2021-12-17 17:39:22.656250
1456,-31.35,2021-12-17 17:39:22.671875
1457,-25.13,2021-12-17 17:39:22.687500
1458,-19.14,2021-12-17 17:39:22.703125
1459,-13.16,2021-12-17 17:39:22.718750
1460,-7.05,2021-12-17 17:39:22.734375
1461,-0.91,2021-12-17 17:39:22.750000
1462,4.93,2021-12-17 17:39:22.765625
1463,10.07,2021-12-17 17:39:22.781250
1464,14.17,2021-12-17 17:39:22.796875
1465,17.14,2021-12-17 17:39:22.812500
1466,19.13,2021-12-17 17:39:22.828125
1467,20.43,2021-12-17 17:39:22.843750
1468,21.3,2021-12-17 17:39:22.859375
1469,21.88,2021-12-17 17:39:22.875000
1470,22.16,2021-12-17 17:39:22.890625
1471,22.07,2021-12-17 17:39:22.906250
1472,21.56,2021-12-17 17:39:22.921875
1473,20.6,2021-12-17 17:39:22.937500
1474,19.28,2021-12-17 17:39:22.953125
1475,17.69,2021-12-17 17:39:22.968750
1476,15.93,2021-12-17 17:39:22.984375
1477,14.06,2021-12-17 17:39:23.000000
1478,12.15,2021-12-17 17:39:23.015625
1479,10.26,2021-12-17 17:39:23.031250
1480,8.46,2021-12-17 17:39:23.046875
1481,6.81,2021-12-17 17:39:23.062500
1482,5.4,2021-12-17 17:39:23.078125
1483,4.26,2021-12-17 17:39:23.093750
1484,3.4,2021-12-17 17:39:23.109375
1485,2.75,2021-12-17 17:39:23.125000
1486,2.16,2021-12-17 17:39:23.140625
1487,1.43,2021-12-17 17:39:23.156250
1488,0.37,2021-12-17 17:39:23.171875
1489,-1.12,2021-12-17 17:39:23.187500
1490,-2.97,2021-12-17 17:39:23.203125
1491,-4.98,2021-12-17 17:39:23.218750
1492,-6.9,2021-12-17 17:39:23.234375
1493,-8.6,2021-12-17 17:39:23.250000
1494,-10.11,2021-12-17 17:39:23.265625
1495,-11.69,2021-12-17 17:39:23.281250
1496,-13.65,2021-12-17 17:39:23.296875
1497,-16.24,2021-12-17 17:39:23.312500
1498,-19.54,2021-12-17 17:39:23.328125
1499,-23.46,2021-12-17 17:39:23.343750
1500,-27.76,2021-12-17 17:39:23.359375
1501,-32.18,2021-12-17 17:39:23.375000
1502,-36.43,2021-12-17 17:39:23.390625
1503,-40.22,2021-12-17 17:39:23.406250
1504,-43.2,2021-12-17 17:39:23.421875
1505,-45.0,2021-12-17 17:39:23.437500
1506,-45.31,2021-12-17 17:39:23.453125
1507,-43.98,2021-12-17 17:39:23.468750
1508,-41.17,2021-12-17 17:39:23.484375
1509,-37.28,2021-12-17 17:39:23.500000
1510,-32.82,2021-12-17 17:39:23.515625
1511,-28.24,2021-12-17 17:39:23.531250
1512,-23.86,2021-12-17 17:39:23.546875
1513,-19.8,2021-12-17 17:39:23.562500
1514,-16.08,2021-12-17 17:39:23.578125
1515,-12.76,2021-12-17 17:39:23.593750
1516,-9.98,2021-12-17 17:39:23.609375
1517,-7.88,2021-12-17 17:39:23.625000
1518,-6.53,2021-12-17 17:39:23.640625
1519,-5.83,2021-12-17 17:39:23.656250
1520,-5.5,2021-12-17 17:39:23.671875
1521,-5.19,2021-12-17 17:39:23.687500
1522,-4.64,2021-12-17 17:39:23.703125
1523,-3.72,2021-12-17 17:39:23.718750
1524,-2.52,2021-12-17 17:39:23.734375
1525,-1.21,2021-12-17 17:39:23.750000
1526,0.04,2021-12-17 17:39:23.765625
1527,1.12,2021-12-17 17:39:23.781250
1528,2.02,2021-12-17 17:39:23.796875
1529,2.82,2021-12-17 17:39:23.812500
1530,3.57,2021-12-17 17:39:23.828125
1531,4.31,2021-12-17 17:39:23.843750
1532,4.99,2021-12-17 17:39:23.859375
1533,5.49,2021-12-17 17:39:23.875000
1534,5.62,2021-12-17 17:39:23.890625
1535,5.25,2021-12-17 17:39:23.906250
1536,4.29,2021-12-17 17:39:23.921875
1537,2.86,2021-12-17 17:39:23.937500
1538,1.18,2021-12-17 17:39:23.953125
1539,-0.5,2021-12-17 17:39:23.968750
1540,-1.99,2021-12-17 17:39:23.984375
1541,-3.25,2021-12-17 17:39:24.000000
1542,-4.43,2021-12-17 17:39:24.015625
1543,-5.73,2021-12-17 17:39:24.031250
1544,-7.35,2021-12-17 17:39:24.046875
1545,-9.32,2021-12-17 17:39:24.062500
1546,-11.58,2021-12-17 17:39:24.078125
1547,-13.95,2021-12-17 17:39:24.093750
1548,-16.29,2021-12-17 17:39:24.109375
1549,-18.54,2021-12-17 17:39:24.125000
1550,-20.71,2021-12-17 17:39:24.140625
1551,-22.93,2021-12-17 17:39:24.156250
1552,-25.24,2021-12-17 17:39:24.171875
1553,-27.65,2021-12-17 17:39:24.187500
1554,-30.11,2021-12-17 17:39:24.203125
1555,-32.55,2021-12-17 17:39:24.218750
1556,-34.9,2021-12-17 17:39:24.234375
1557,-37.12,2021-12-17 17:39:24.250000
1558,-39.1,2021-12-17 17:39:24.265625
1559,-40.63,2021-12-17 17:39:24.281250
1560,-41.41,2021-12-17 17:39:24.296875
1561,-41.06,2021-12-17 17:39:24.312500
1562,-39.34,2021-12-17 17:39:24.328125
1563,-36.2,2021-12-17 17:39:24.343750
1564,-31.96,2021-12-17 17:39:24.359375
1565,-27.17,2021-12-17 17:39:24.375000
1566,-22.41,2021-12-17 17:39:24.390625
1567,-18.13,2021-12-17 17:39:24.406250
1568,-14.5,2021-12-17 17:39:24.421875
1569,-11.43,2021-12-17 17:39:24.437500
1570,-8.63,2021-12-17 17:39:24.453125
1571,-5.9,2021-12-17 17:39:24.468750
1572,-3.16,2021-12-17 17:39:24.484375
1573,-0.51,2021-12-17 17:39:24.500000
1574,1.83,2021-12-17 17:39:24.515625
1575,3.74,2021-12-17 17:39:24.531250
1576,5.18,2021-12-17 17:39:24.546875
1577,6.32,2021-12-17 17:39:24.562500
1578,7.33,2021-12-17 17:39:24.578125
1579,8.37,2021-12-17 17:39:24.593750
1580,9.49,2021-12-17 17:39:24.609375
1581,10.63,2021-12-17 17:39:24.625000
1582,11.68,2021-12-17 17:39:24.640625
1583,12.56,2021-12-17 17:39:24.656250
1584,13.25,2021-12-17 17:39:24.671875
1585,13.77,2021-12-17 17:39:24.687500
1586,14.12,2021-12-17 17:39:24.703125
1587,14.3,2021-12-17 17:39:24.718750
1588,14.29,2021-12-17 17:39:24.734375
1589,14.02,2021-12-17 17:39:24.750000
1590,13.48,2021-12-17 17:39:24.765625
1591,12.69,2021-12-17 17:39:24.781250
1592,11.72,2021-12-17 17:39:24.796875
1593,10.67,2021-12-17 17:39:24.812500
1594,9.67,2021-12-17 17:39:24.828125
1595,8.79,2021-12-17 17:39:24.843750
1596,7.98,2021-12-17 17:39:24.859375
1597,7.12,2021-12-17 17:39:24.875000
1598,5.95,2021-12-17 17:39:24.890625
1599,4.22,2021-12-17 17:39:24.906250
1600,1.76,2021-12-17 17:39:24.921875
1601,-1.45,2021-12-17 17:39:24.937500
1602,-5.28,2021-12-17 17:39:24.953125
1603,-9.57,2021-12-17 17:39:24.968750
1604,-14.25,2021-12-17 17:39:24.984375
1605,-19.33,2021-12-17 17:39:25.000000
1606,-24.9,2021-12-17 17:39:25.015625
1607,-30.94,2021-12-17 17:39:25.031250
1608,-37.18,2021-12-17 17:39:25.046875
1609,-43.04,2021-12-17 17:39:25.062500
1610,-47.75,2021-12-17 17:39:25.078125
1611,-50.59,2021-12-17 17:39:25.093750
1612,-51.12,2021-12-17 17:39:25.109375
1613,-49.33,2021-12-17 17:39:25.125000
1614,-45.68,2021-12-17 17:39:25.140625
1615,-40.88,2021-12-17 17:39:25.156250
1616,-35.7,2021-12-17 17:39:25.171875
1617,-30.68,2021-12-17 17:39:25.187500
1618,-26.11,2021-12-17 17:39:25.203125
1619,-22.0,2021-12-17 17:39:25.218750
1620,-18.2,2021-12-17 17:39:25.234375
1621,-14.55,2021-12-17 17:39:25.250000
1622,-10.96,2021-12-17 17:39:25.265625
1623,-7.36,2021-12-17 17:39:25.281250
1624,-3.71,2021-12-17 17:39:25.296875
1625,0.16,2021-12-17 17:39:25.312500
1626,4.48,2021-12-17 17:39:25.328125
1627,9.57,2021-12-17 17:39:25.343750
1628,15.68,2021-12-17 17:39:25.359375
1629,22.86,2021-12-17 17:39:25.375000
1630,30.93,2021-12-17 17:39:25.390625
1631,39.44,2021-12-17 17:39:25.406250
1632,47.82,2021-12-17 17:39:25.421875
1633,55.44,2021-12-17 17:39:25.437500
1634,61.74,2021-12-17 17:39:25.453125
1635,66.34,2021-12-17 17:39:25.468750
1636,69.11,2021-12-17 17:39:25.484375
1637,70.13,2021-12-17 17:39:25.500000
1638,69.62,2021-12-17 17:39:25.515625
1639,67.84,2021-12-17 17:39:25.531250
1640,64.95,2021-12-17 17:39:25.546875
1641,61.01,2021-12-17 17:39:25.562500
1642,56.02,2021-12-17 17:39:25.578125
1643,49.96,2021-12-17 17:39:25.593750
1644,42.9,2021-12-17 17:39:25.609375
1645,34.92,2021-12-17 17:39:25.625000
1646,26.18,2021-12-17 17:39:25.640625
1647,16.78,2021-12-17 17:39:25.656250
1648,6.9,2021-12-17 17:39:25.671875
1649,-3.15,2021-12-17 17:39:25.687500
1650,-12.85,2021-12-17 17:39:25.703125
1651,-21.57,2021-12-17 17:39:25.718750
1652,-28.66,2021-12-17 17:39:25.734375
1653,-33.77,2021-12-17 17:39:25.750000
1654,-36.99,2021-12-17 17:39:25.765625
1655,-38.8,2021-12-17 17:39:25.781250
1656,-39.89,2021-12-17 17:39:25.796875
1657,-40.81,2021-12-17 17:39:25.812500
1658,-41.76,2021-12-17 17:39:25.828125
1659,-42.52,2021-12-17 17:39:25.843750
1660,-42.6,2021-12-17 17:39:25.859375
1661,-41.54,2021-12-17 17:39:25.875000
1662,-39.06,2021-12-17 17:39:25.890625
1663,-35.19,2021-12-17 17:39:25.906250
1664,-30.17,2021-12-17 17:39:25.921875
1665,-24.36,2021-12-17 17:39:25.937500
1666,-18.12,2021-12-17 17:39:25.953125
1667,-11.79,2021-12-17 17:39:25.968750
1668,-5.67,2021-12-17 17:39:25.984375
1669,-0.08,2021-12-17 17:39:26.000000
1670,4.69,2021-12-17 17:39:26.015625
1671,8.49,2021-12-17 17:39:26.031250
1672,11.35,2021-12-17 17:39:26.046875
1673,13.58,2021-12-17 17:39:26.062500
1674,15.62,2021-12-17 17:39:26.078125
1675,17.98,2021-12-17 17:39:26.093750
1676,20.99,2021-12-17 17:39:26.109375
1677,24.71,2021-12-17 17:39:26.125000
1678,28.91,2021-12-17 17:39:26.140625
1679,33.21,2021-12-17 17:39:26.156250
1680,37.25,2021-12-17 17:39:26.171875
1681,40.86,2021-12-17 17:39:26.187500
1682,44.2,2021-12-17 17:39:26.203125
1683,47.52,2021-12-17 17:39:26.218750
1684,51.09,2021-12-17 17:39:26.234375
1685,54.89,2021-12-17 17:39:26.250000
1686,58.59,2021-12-17 17:39:26.265625
1687,61.68,2021-12-17 17:39:26.281250
1688,63.71,2021-12-17 17:39:26.296875
1689,64.49,2021-12-17 17:39:26.312500
1690,64.18,2021-12-17 17:39:26.328125
1691,63.2,2021-12-17 17:39:26.343750
1692,61.96,2021-12-17 17:39:26.359375
1693,60.69,2021-12-17 17:39:26.375000
1694,59.29,2021-12-17 17:39:26.390625
1695,57.43,2021-12-17 17:39:26.406250
1696,54.76,2021-12-17 17:39:26.421875
1697,51.1,2021-12-17 17:39:26.437500
1698,46.56,2021-12-17 17:39:26.453125
1699,41.46,2021-12-17 17:39:26.468750
1700,36.19,2021-12-17 17:39:26.484375
1701,31.03,2021-12-17 17:39:26.500000
1702,26.08,2021-12-17 17:39:26.515625
1703,21.31,2021-12-17 17:39:26.531250
1704,16.66,2021-12-17 17:39:26.546875
1705,12.08,2021-12-17 17:39:26.562500
1706,7.57,2021-12-17 17:39:26.578125
1707,3.08,2021-12-17 17:39:26.593750
1708,-1.57,2021-12-17 17:39:26.609375
1709,-6.63,2021-12-17 17:39:26.625000
1710,-12.27,2021-12-17 17:39:26.640625
1711,-18.39,2021-12-17 17:39:26.656250
1712,-24.53,2021-12-17 17:39:26.671875
1713,-29.93,2021-12-17 17:39:26.687500
1714,-33.8,2021-12-17 17:39:26.703125
1715,-35.63,2021-12-17 17:39:26.718750
1716,-35.36,2021-12-17 17:39:26.734375
1717,-33.32,2021-12-17 17:39:26.750000
1718,-30.16,2021-12-17 17:39:26.765625
1719,-26.47,2021-12-17 17:39:26.781250
1720,-22.66,2021-12-17 17:39:26.796875
1721,-18.96,2021-12-17 17:39:26.812500
1722,-15.38,2021-12-17 17:39:26.828125
1723,-11.94,2021-12-17 17:39:26.843750
1724,-8.62,2021-12-17 17:39:26.859375
1725,-5.46,2021-12-17 17:39:26.875000
1726,-2.53,2021-12-17 17:39:26.890625
1727,0.13,2021-12-17 17:39:26.906250
1728,2.47,2021-12-17 17:39:26.921875
1729,4.46,2021-12-17 17:39:26.937500
1730,6.06,2021-12-17 17:39:26.953125
1731,7.3,2021-12-17 17:39:26.968750
1732,8.2,2021-12-17 17:39:26.984375
1733,8.86,2021-12-17 17:39:27.000000
1734,9.33,2021-12-17 17:39:27.015625
1735,9.74,2021-12-17 17:39:27.031250
1736,10.16,2021-12-17 17:39:27.046875
1737,10.64,2021-12-17 17:39:27.062500
1738,11.22,2021-12-17 17:39:27.078125
1739,11.93,2021-12-17 17:39:27.093750
1740,12.74,2021-12-17 17:39:27.109375
1741,13.57,2021-12-17 17:39:27.125000
1742,14.32,2021-12-17 17:39:27.140625
1743,14.86,2021-12-17 17:39:27.156250
1744,15.11,2021-12-17 17:39:27.171875
1745,14.99,2021-12-17 17:39:27.187500
1746,14.54,2021-12-17 17:39:27.203125
1747,13.83,2021-12-17 17:39:27.218750
1748,12.92,2021-12-17 17:39:27.234375
1749,11.83,2021-12-17 17:39:27.250000
1750,10.5,2021-12-17 17:39:27.265625
1751,8.83,2021-12-17 17:39:27.281250
1752,6.74,2021-12-17 17:39:27.296875
1753,4.24,2021-12-17 17:39:27.312500
1754,1.43,2021-12-17 17:39:27.328125
1755,-1.48,2021-12-17 17:39:27.343750
1756,-4.22,2021-12-17 17:39:27.359375
1757,-6.6,2021-12-17 17:39:27.375000
1758,-8.54,2021-12-17 17:39:27.390625
1759,-10.11,2021-12-17 17:39:27.406250
1760,-11.52,2021-12-17 17:39:27.421875
1761,-13.1,2021-12-17 17:39:27.437500
1762,-15.2,2021-12-17 17:39:27.453125
1763,-18.07,2021-12-17 17:39:27.468750
1764,-21.75,2021-12-17 17:39:27.484375
1765,-26.07,2021-12-17 17:39:27.500000
1766,-30.62,2021-12-17 17:39:27.515625
1767,-34.91,2021-12-17 17:39:27.531250
1768,-38.52,2021-12-17 17:39:27.546875
1769,-41.16,2021-12-17 17:39:27.562500
1770,-42.73,2021-12-17 17:39:27.578125
1771,-43.28,2021-12-17 17:39:27.593750
1772,-42.85,2021-12-17 17:39:27.609375
1773,-41.44,2021-12-17 17:39:27.625000
1774,-38.99,2021-12-17 17:39:27.640625
1775,-35.39,2021-12-17 17:39:27.656250
1776,-30.55,2021-12-17 17:39:27.671875
1777,-24.48,2021-12-17 17:39:27.687500
1778,-17.33,2021-12-17 17:39:27.703125
1779,-9.35,2021-12-17 17:39:27.718750
1780,-0.96,2021-12-17 17:39:27.734375
1781,7.41,2021-12-17 17:39:27.750000
1782,15.31,2021-12-17 17:39:27.765625
1783,22.37,2021-12-17 17:39:27.781250
1784,28.44,2021-12-17 17:39:27.796875
1785,33.53,2021-12-17 17:39:27.812500
1786,37.82,2021-12-17 17:39:27.828125
1787,41.57,2021-12-17 17:39:27.843750
1788,45.0,2021-12-17 17:39:27.859375
1789,48.29,2021-12-17 17:39:27.875000
1790,51.51,2021-12-17 17:39:27.890625
1791,54.66,2021-12-17 17:39:27.906250
1792,57.63,2021-12-17 17:39:27.921875
1793,60.21,2021-12-17 17:39:27.937500
1794,62.1,2021-12-17 17:39:27.953125
1795,62.99,2021-12-17 17:39:27.968750
1796,62.61,2021-12-17 17:39:27.984375
1797,60.89,2021-12-17 17:39:28.000000
1798,57.98,2021-12-17 17:39:28.015625
1799,54.23,2021-12-17 17:39:28.031250
1800,50.04,2021-12-17 17:39:28.046875
1801,45.71,2021-12-17 17:39:28.062500
1802,41.28,2021-12-17 17:39:28.078125
1803,36.61,2021-12-17 17:39:28.093750
1804,31.48,2021-12-17 17:39:28.109375
1805,25.72,2021-12-17 17:39:28.125000
1806,19.44,2021-12-17 17:39:28.140625
1807,12.95,2021-12-17 17:39:28.156250
1808,6.65,2021-12-17 17:39:28.171875
1809,0.91,2021-12-17 17:39:28.187500
1810,-4.18,2021-12-17 17:39:28.203125
1811,-8.73,2021-12-17 17:39:28.218750
1812,-13.03,2021-12-17 17:39:28.234375
1813,-17.35,2021-12-17 17:39:28.250000
1814,-21.88,2021-12-17 17:39:28.265625
1815,-26.64,2021-12-17 17:39:28.281250
1816,-31.47,2021-12-17 17:39:28.296875
1817,-36.11,2021-12-17 17:39:28.312500
1818,-40.12,2021-12-17 17:39:28.328125
1819,-43.01,2021-12-17 17:39:28.343750
1820,-44.28,2021-12-17 17:39:28.359375
1821,-43.57,2021-12-17 17:39:28.375000
1822,-40.81,2021-12-17 17:39:28.390625
1823,-36.31,2021-12-17 17:39:28.406250
1824,-30.67,2021-12-17 17:39:28.421875
1825,-24.56,2021-12-17 17:39:28.437500
1826,-18.48,2021-12-17 17:39:28.453125
1827,-12.63,2021-12-17 17:39:28.468750
1828,-6.93,2021-12-17 17:39:28.484375
1829,-1.28,2021-12-17 17:39:28.500000
1830,4.29,2021-12-17 17:39:28.515625
1831,9.55,2021-12-17 17:39:28.531250
1832,14.15,2021-12-17 17:39:28.546875
1833,17.81,2021-12-17 17:39:28.562500
1834,20.5,2021-12-17 17:39:28.578125
1835,22.42,2021-12-17 17:39:28.593750
1836,23.88,2021-12-17 17:39:28.609375
1837,25.1,2021-12-17 17:39:28.625000
1838,26.12,2021-12-17 17:39:28.640625
1839,26.88,2021-12-17 17:39:28.656250
1840,27.29,2021-12-17 17:39:28.671875
1841,27.37,2021-12-17 17:39:28.687500
1842,27.26,2021-12-17 17:39:28.703125
1843,27.12,2021-12-17 17:39:28.718750
1844,27.01,2021-12-17 17:39:28.734375
1845,26.83,2021-12-17 17:39:28.750000
1846,26.41,2021-12-17 17:39:28.765625
1847,25.54,2021-12-17 17:39:28.781250
1848,24.13,2021-12-17 17:39:28.796875
1849,22.21,2021-12-17 17:39:28.812500
1850,19.96,2021-12-17 17:39:28.828125
1851,17.62,2021-12-17 17:39:28.843750
1852,15.4,2021-12-17 17:39:28.859375
1853,13.44,2021-12-17 17:39:28.875000
1854,11.75,2021-12-17 17:39:28.890625
1855,10.21,2021-12-17 17:39:28.906250
1856,8.62,2021-12-17 17:39:28.921875
1857,6.8,2021-12-17 17:39:28.937500
1858,4.64,2021-12-17 17:39:28.953125
1859,2.16,2021-12-17 17:39:28.968750
1860,-0.5,2021-12-17 17:39:28.984375
1861,-3.15,2021-12-17 17:39:29.000000
1862,-5.64,2021-12-17 17:39:29.015625
1863,-7.9,2021-12-17 17:39:29.031250
1864,-9.96,2021-12-17 17:39:29.046875
1865,-11.99,2021-12-17 17:39:29.062500
1866,-14.21,2021-12-17 17:39:29.078125
1867,-16.77,2021-12-17 17:39:29.093750
1868,-19.69,2021-12-17 17:39:29.109375
1869,-22.78,2021-12-17 17:39:29.125000
1870,-25.61,2021-12-17 17:39:29.140625
1871,-27.64,2021-12-17 17:39:29.156250
1872,-28.43,2021-12-17 17:39:29.171875
1873,-27.78,2021-12-17 17:39:29.187500
1874,-25.81,2021-12-17 17:39:29.203125
1875,-22.84,2021-12-17 17:39:29.218750
1876,-19.34,2021-12-17 17:39:29.234375
1877,-15.68,2021-12-17 17:39:29.250000
1878,-12.08,2021-12-17 17:39:29.265625
1879,-8.62,2021-12-17 17:39:29.281250
1880,-5.25,2021-12-17 17:39:29.296875
1881,-1.86,2021-12-17 17:39:29.312500
1882,1.71,2021-12-17 17:39:29.328125
1883,5.54,2021-12-17 17:39:29.343750
1884,9.68,2021-12-17 17:39:29.359375
1885,14.05,2021-12-17 17:39:29.375000
1886,18.44,2021-12-17 17:39:29.390625
1887,22.58,2021-12-17 17:39:29.406250
1888,26.19,2021-12-17 17:39:29.421875
1889,29.02,2021-12-17 17:39:29.437500
1890,30.97,2021-12-17 17:39:29.453125
1891,32.0,2021-12-17 17:39:29.468750
1892,32.14,2021-12-17 17:39:29.484375
1893,31.47,2021-12-17 17:39:29.500000
1894,30.11,2021-12-17 17:39:29.515625
1895,28.3,2021-12-17 17:39:29.531250
1896,26.3,2021-12-17 17:39:29.546875
1897,24.38,2021-12-17 17:39:29.562500
1898,22.72,2021-12-17 17:39:29.578125
1899,21.3,2021-12-17 17:39:29.593750
1900,19.92,2021-12-17 17:39:29.609375
1901,18.28,2021-12-17 17:39:29.625000
1902,16.06,2021-12-17 17:39:29.640625
1903,13.14,2021-12-17 17:39:29.656250
1904,9.55,2021-12-17 17:39:29.671875
1905,5.55,2021-12-17 17:39:29.687500
1906,1.45,2021-12-17 17:39:29.703125
1907,-2.48,2021-12-17 17:39:29.718750
1908,-6.15,2021-12-17 17:39:29.734375
1909,-9.58,2021-12-17 17:39:29.750000
1910,-12.9,2021-12-17 17:39:29.765625
1911,-16.2,2021-12-17 17:39:29.781250
1912,-19.54,2021-12-17 17:39:29.796875
1913,-22.89,2021-12-17 17:39:29.812500
1914,-26.13,2021-12-17 17:39:29.828125
1915,-29.14,2021-12-17 17:39:29.843750
1916,-31.81,2021-12-17 17:39:29.859375
1917,-34.02,2021-12-17 17:39:29.875000
1918,-35.71,2021-12-17 17:39:29.890625
1919,-36.88,2021-12-17 17:39:29.906250
1920,-37.56,2021-12-17 17:39:29.921875
1921,-37.89,2021-12-17 17:39:29.937500
1922,-37.98,2021-12-17 17:39:29.953125
1923,-37.9,2021-12-17 17:39:29.968750
1924,-37.65,2021-12-17 17:39:29.984375
1925,-37.09,2021-12-17 17:39:30.000000
1926,-36.05,2021-12-17 17:39:30.015625
1927,-34.35,2021-12-17 17:39:30.031250
1928,-31.91,2021-12-17 17:39:30.046875
1929,-28.73,2021-12-17 17:39:30.062500
1930,-24.99,2021-12-17 17:39:30.078125
1931,-20.88,2021-12-17 17:39:30.093750
1932,-16.55,2021-12-17 17:39:30.109375
1933,-12.12,2021-12-17 17:39:30.125000
1934,-7.59,2021-12-17 17:39:30.140625
1935,-3.0,2021-12-17 17:39:30.156250
1936,1.54,2021-12-17 17:39:30.171875
1937,5.83,2021-12-17 17:39:30.187500
1938,9.63,2021-12-17 17:39:30.203125
1939,12.77,2021-12-17 17:39:30.218750
1940,15.19,2021-12-17 17:39:30.234375
1941,16.97,2021-12-17 17:39:30.250000
1942,18.27,2021-12-17 17:39:30.265625
1943,19.19,2021-12-17 17:39:30.281250
1944,19.81,2021-12-17 17:39:30.296875
1945,20.15,2021-12-17 17:39:30.312500
1946,20.25,2021-12-17 17:39:30.328125
1947,20.22,2021-12-17 17:39:30.343750
1948,20.16,2021-12-17 17:39:30.359375
1949,20.15,2021-12-17 17:39:30.375000
1950,20.18,2021-12-17 17:39:30.390625
1951,20.11,2021-12-17 17:39:30.406250
1952,19.79,2021-12-17 17:39:30.421875
1953,19.01,2021-12-17 17:39:30.437500
1954,17.61,2021-12-17 17:39:30.453125
1955,15.45,2021-12-17 17:39:30.468750
1956,12.54,2021-12-17 17:39:30.484375
1957,8.97,2021-12-17 17:39:30.500000
1958,4.97,2021-12-17 17:39:30.515625
1959,0.82,2021-12-17 17:39:30.531250
1960,-3.22,2021-12-17 17:39:30.546875
1961,-7.04,2021-12-17 17:39:30.562500
1962,-10.66,2021-12-17 17:39:30.578125
1963,-14.23,2021-12-17 17:39:30.593750
1964,-17.89,2021-12-17 17:39:30.609375
1965,-21.7,2021-12-17 17:39:30.625000
1966,-25.61,2021-12-17 17:39:30.640625
1967,-29.46,2021-12-17 17:39:30.656250
1968,-33.1,2021-12-17 17:39:30.671875
1969,-36.41,2021-12-17 17:39:30.687500
1970,-39.41,2021-12-17 17:39:30.703125
1971,-42.19,2021-12-17 17:39:30.718750
1972,-44.91,2021-12-17 17:39:30.734375
1973,-47.73,2021-12-17 17:39:30.750000
1974,-50.68,2021-12-17 17:39:30.765625
1975,-53.65,2021-12-17 17:39:30.781250
1976,-56.39,2021-12-17 17:39:30.796875
1977,-58.47,2021-12-17 17:39:30.812500
1978,-59.42,2021-12-17 17:39:30.828125
1979,-58.81,2021-12-17 17:39:30.843750
1980,-56.37,2021-12-17 17:39:30.859375
1981,-52.09,2021-12-17 17:39:30.875000
1982,-46.28,2021-12-17 17:39:30.890625
1983,-39.53,2021-12-17 17:39:30.906250
1984,-32.54,2021-12-17 17:39:30.921875
1985,-25.91,2021-12-17 17:39:30.937500
1986,-20.01,2021-12-17 17:39:30.953125
1987,-14.89,2021-12-17 17:39:30.968750
1988,-10.4,2021-12-17 17:39:30.984375
1989,-6.37,2021-12-17 17:39:31.000000
1990,-2.69,2021-12-17 17:39:31.015625
1991,0.57,2021-12-17 17:39:31.031250
1992,3.32,2021-12-17 17:39:31.046875
1993,5.45,2021-12-17 17:39:31.062500
1994,7.0,2021-12-17 17:39:31.078125
1995,8.03,2021-12-17 17:39:31.093750
1996,8.69,2021-12-17 17:39:31.109375
1997,9.12,2021-12-17 17:39:31.125000
1998,9.5,2021-12-17 17:39:31.140625
1999,9.93,2021-12-17 17:39:31.156250
2000,10.5,2021-12-17 17:39:31.171875
2001,11.25,2021-12-17 17:39:31.187500
2002,12.09,2021-12-17 17:39:31.203125
2003,12.89,2021-12-17 17:39:31.218750
2004,13.42,2021-12-17 17:39:31.234375
2005,13.51,2021-12-17 17:39:31.250000
2006,13.02,2021-12-17 17:39:31.265625
2007,11.9,2021-12-17 17:39:31.281250
2008,10.13,2021-12-17 17:39:31.296875
2009,7.76,2021-12-17 17:39:31.312500
2010,4.92,2021-12-17 17:39:31.328125
2011,1.83,2021-12-17 17:39:31.343750
2012,-1.27,2021-12-17 17:39:31.359375
2013,-4.13,2021-12-17 17:39:31.375000
2014,-6.59,2021-12-17 17:39:31.390625
2015,-8.58,2021-12-17 17:39:31.406250
2016,-10.14,2021-12-17 17:39:31.421875
2017,-11.37,2021-12-17 17:39:31.437500
2018,-12.39,2021-12-17 17:39:31.453125
2019,-13.29,2021-12-17 17:39:31.468750
2020,-14.11,2021-12-17 17:39:31.484375
2021,-14.78,2021-12-17 17:39:31.500000
2022,-15.13,2021-12-17 17:39:31.515625
2023,-14.93,2021-12-17 17:39:31.531250
2024,-14.0,2021-12-17 17:39:31.546875
2025,-12.35,2021-12-17 17:39:31.562500
2026,-10.21,2021-12-17 17:39:31.578125
2027,-8.03,2021-12-17 17:39:31.593750
2028,-6.31,2021-12-17 17:39:31.609375
2029,-5.47,2021-12-17 17:39:31.625000
2030,-5.64,2021-12-17 17:39:31.640625
2031,-6.64,2021-12-17 17:39:31.656250
2032,-8.03,2021-12-17 17:39:31.671875
2033,-9.22,2021-12-17 17:39:31.687500
2034,-9.63,2021-12-17 17:39:31.703125
2035,-8.81,2021-12-17 17:39:31.718750
2036,-6.58,2021-12-17 17:39:31.734375
2037,-3.07,2021-12-17 17:39:31.750000
2038,1.3,2021-12-17 17:39:31.765625
2039,5.92,2021-12-17 17:39:31.781250
2040,10.2,2021-12-17 17:39:31.796875
2041,13.77,2021-12-17 17:39:31.812500
2042,16.59,2021-12-17 17:39:31.828125
2043,18.85,2021-12-17 17:39:31.843750
2044,20.88,2021-12-17 17:39:31.859375
2045,22.93,2021-12-17 17:39:31.875000
2046,25.04,2021-12-17 17:39:31.890625
2047,27.08,2021-12-17 17:39:31.906250
2048,28.78,2021-12-17 17:39:31.921875
2049,29.94,2021-12-17 17:39:31.937500
2050,30.4,2021-12-17 17:39:31.953125
2051,30.15,2021-12-17 17:39:31.968750
2052,29.25,2021-12-17 17:39:31.984375
2053,27.77,2021-12-17 17:39:32.000000
2054,25.85,2021-12-17 17:39:32.015625
2055,23.61,2021-12-17 17:39:32.031250
2056,21.25,2021-12-17 17:39:32.046875
2057,18.97,2021-12-17 17:39:32.062500
2058,16.95,2021-12-17 17:39:32.078125
2059,15.27,2021-12-17 17:39:32.093750
2060,13.88,2021-12-17 17:39:32.109375
2061,12.6,2021-12-17 17:39:32.125000
2062,11.17,2021-12-17 17:39:32.140625
2063,9.41,2021-12-17 17:39:32.156250
2064,7.22,2021-12-17 17:39:32.171875
2065,4.68,2021-12-17 17:39:32.187500
2066,1.97,2021-12-17 17:39:32.203125
2067,-0.66,2021-12-17 17:39:32.218750
2068,-3.02,2021-12-17 17:39:32.234375
2069,-4.96,2021-12-17 17:39:32.250000
2070,-6.46,2021-12-17 17:39:32.265625
2071,-7.58,2021-12-17 17:39:32.281250
2072,-8.47,2021-12-17 17:39:32.296875
2073,-9.36,2021-12-17 17:39:32.312500
2074,-10.51,2021-12-17 17:39:32.328125
2075,-12.11,2021-12-17 17:39:32.343750
2076,-14.27,2021-12-17 17:39:32.359375
2077,-17.02,2021-12-17 17:39:32.375000
2078,-20.35,2021-12-17 17:39:32.390625
2079,-24.2,2021-12-17 17:39:32.406250
2080,-28.5,2021-12-17 17:39:32.421875
2081,-33.06,2021-12-17 17:39:32.437500
2082,-37.55,2021-12-17 17:39:32.453125
2083,-41.47,2021-12-17 17:39:32.468750
2084,-44.25,2021-12-17 17:39:32.484375
2085,-45.4,2021-12-17 17:39:32.500000
2086,-44.66,2021-12-17 17:39:32.515625
2087,-42.05,2021-12-17 17:39:32.531250
2088,-37.86,2021-12-17 17:39:32.546875
2089,-32.54,2021-12-17 17:39:32.562500
2090,-26.52,2021-12-17 17:39:32.578125
2091,-20.21,2021-12-17 17:39:32.593750
2092,-13.87,2021-12-17 17:39:32.609375
2093,-7.67,2021-12-17 17:39:32.625000
2094,-1.67,2021-12-17 17:39:32.640625
2095,4.07,2021-12-17 17:39:32.656250
2096,9.49,2021-12-17 17:39:32.671875
2097,14.51,2021-12-17 17:39:32.687500
2098,18.98,2021-12-17 17:39:32.703125
2099,22.74,2021-12-17 17:39:32.718750
2100,25.64,2021-12-17 17:39:32.734375
2101,27.56,2021-12-17 17:39:32.750000
2102,28.54,2021-12-17 17:39:32.765625
2103,28.7,2021-12-17 17:39:32.781250
2104,28.32,2021-12-17 17:39:32.796875
2105,27.65,2021-12-17 17:39:32.812500
2106,26.89,2021-12-17 17:39:32.828125
2107,26.11,2021-12-17 17:39:32.843750
2108,25.22,2021-12-17 17:39:32.859375
2109,24.07,2021-12-17 17:39:32.875000
2110,22.52,2021-12-17 17:39:32.890625
2111,20.54,2021-12-17 17:39:32.906250
2112,18.25,2021-12-17 17:39:32.921875
2113,15.85,2021-12-17 17:39:32.937500
2114,13.58,2021-12-17 17:39:32.953125
2115,11.61,2021-12-17 17:39:32.968750
2116,10.0,2021-12-17 17:39:32.984375
2117,8.71,2021-12-17 17:39:33.000000
2118,7.62,2021-12-17 17:39:33.015625
2119,6.62,2021-12-17 17:39:33.031250
2120,5.63,2021-12-17 17:39:33.046875
2121,4.57,2021-12-17 17:39:33.062500
2122,3.45,2021-12-17 17:39:33.078125
2123,2.29,2021-12-17 17:39:33.093750
2124,1.13,2021-12-17 17:39:33.109375
2125,0.02,2021-12-17 17:39:33.125000
2126,-1.04,2021-12-17 17:39:33.140625
2127,-2.07,2021-12-17 17:39:33.156250
2128,-3.11,2021-12-17 17:39:33.171875
2129,-4.27,2021-12-17 17:39:33.187500
2130,-5.7,2021-12-17 17:39:33.203125
2131,-7.59,2021-12-17 17:39:33.218750
2132,-10.16,2021-12-17 17:39:33.234375
2133,-13.5,2021-12-17 17:39:33.250000
2134,-17.48,2021-12-17 17:39:33.265625
2135,-21.68,2021-12-17 17:39:33.281250
2136,-25.51,2021-12-17 17:39:33.296875
2137,-28.28,2021-12-17 17:39:33.312500
2138,-29.52,2021-12-17 17:39:33.328125
2139,-29.1,2021-12-17 17:39:33.343750
2140,-27.33,2021-12-17 17:39:33.359375
2141,-24.76,2021-12-17 17:39:33.375000
2142,-22.05,2021-12-17 17:39:33.390625
2143,-19.66,2021-12-17 17:39:33.406250
2144,-17.79,2021-12-17 17:39:33.421875
2145,-16.35,2021-12-17 17:39:33.437500
2146,-15.06,2021-12-17 17:39:33.453125
2147,-13.67,2021-12-17 17:39:33.468750
2148,-12.08,2021-12-17 17:39:33.484375
2149,-10.39,2021-12-17 17:39:33.500000
2150,-8.81,2021-12-17 17:39:33.515625
2151,-7.59,2021-12-17 17:39:33.531250
2152,-6.88,2021-12-17 17:39:33.546875
2153,-6.63,2021-12-17 17:39:33.562500
2154,-6.62,2021-12-17 17:39:33.578125
2155,-6.53,2021-12-17 17:39:33.593750
2156,-6.12,2021-12-17 17:39:33.609375
2157,-5.26,2021-12-17 17:39:33.625000
2158,-4.04,2021-12-17 17:39:33.640625
2159,-2.71,2021-12-17 17:39:33.656250
2160,-1.55,2021-12-17 17:39:33.671875
2161,-0.78,2021-12-17 17:39:33.687500
2162,-0.45,2021-12-17 17:39:33.703125
2163,-0.45,2021-12-17 17:39:33.718750
2164,-0.56,2021-12-17 17:39:33.734375
2165,-0.6,2021-12-17 17:39:33.750000
2166,-0.49,2021-12-17 17:39:33.765625
2167,-0.31,2021-12-17 17:39:33.781250
2168,-0.24,2021-12-17 17:39:33.796875
2169,-0.48,2021-12-17 17:39:33.812500
2170,-1.09,2021-12-17 17:39:33.828125
2171,-2.04,2021-12-17 17:39:33.843750
2172,-3.15,2021-12-17 17:39:33.859375
2173,-4.24,2021-12-17 17:39:33.875000
2174,-5.19,2021-12-17 17:39:33.890625
2175,-6.03,2021-12-17 17:39:33.906250
2176,-6.86,2021-12-17 17:39:33.921875
2177,-7.79,2021-12-17 17:39:33.937500
2178,-8.88,2021-12-17 17:39:33.953125
2179,-10.04,2021-12-17 17:39:33.968750
2180,-11.05,2021-12-17 17:39:33.984375
2181,-11.71,2021-12-17 17:39:34.000000
2182,-11.95,2021-12-17 17:39:34.015625
2183,-11.97,2021-12-17 17:39:34.031250
2184,-12.11,2021-12-17 17:39:34.046875
2185,-12.75,2021-12-17 17:39:34.062500
2186,-14.0,2021-12-17 17:39:34.078125
2187,-15.61,2021-12-17 17:39:34.093750
2188,-17.0,2021-12-17 17:39:34.109375
2189,-17.53,2021-12-17 17:39:34.125000
2190,-16.77,2021-12-17 17:39:34.140625
2191,-14.7,2021-12-17 17:39:34.156250
2192,-11.72,2021-12-17 17:39:34.171875
2193,-8.4,2021-12-17 17:39:34.187500
2194,-5.28,2021-12-17 17:39:34.203125
2195,-2.62,2021-12-17 17:39:34.218750
2196,-0.38,2021-12-17 17:39:34.234375
2197,1.64,2021-12-17 17:39:34.250000
2198,3.7,2021-12-17 17:39:34.265625
2199,5.98,2021-12-17 17:39:34.281250
2200,8.6,2021-12-17 17:39:34.296875
2201,11.56,2021-12-17 17:39:34.312500
2202,14.78,2021-12-17 17:39:34.328125
2203,18.1,2021-12-17 17:39:34.343750
2204,21.15,2021-12-17 17:39:34.359375
2205,23.49,2021-12-17 17:39:34.375000
2206,24.66,2021-12-17 17:39:34.390625
2207,24.37,2021-12-17 17:39:34.406250
2208,22.6,2021-12-17 17:39:34.421875
2209,19.67,2021-12-17 17:39:34.437500
2210,16.13,2021-12-17 17:39:34.453125
2211,12.55,2021-12-17 17:39:34.468750
2212,9.38,2021-12-17 17:39:34.484375
2213,6.88,2021-12-17 17:39:34.500000
2214,5.11,2021-12-17 17:39:34.515625
2215,4.04,2021-12-17 17:39:34.531250
2216,3.63,2021-12-17 17:39:34.546875
2217,3.83,2021-12-17 17:39:34.562500
2218,4.55,2021-12-17 17:39:34.578125
2219,5.67,2021-12-17 17:39:34.593750
2220,6.99,2021-12-17 17:39:34.609375
2221,8.32,2021-12-17 17:39:34.625000
2222,9.56,2021-12-17 17:39:34.640625
2223,10.64,2021-12-17 17:39:34.656250
2224,11.58,2021-12-17 17:39:34.671875
2225,12.34,2021-12-17 17:39:34.687500
2226,12.83,2021-12-17 17:39:34.703125
2227,12.94,2021-12-17 17:39:34.718750
2228,12.62,2021-12-17 17:39:34.734375
2229,11.9,2021-12-17 17:39:34.750000
2230,10.9,2021-12-17 17:39:34.765625
2231,9.74,2021-12-17 17:39:34.781250
2232,8.45,2021-12-17 17:39:34.796875
2233,6.92,2021-12-17 17:39:34.812500
2234,5.02,2021-12-17 17:39:34.828125
2235,2.61,2021-12-17 17:39:34.843750
2236,-0.32,2021-12-17 17:39:34.859375
2237,-3.66,2021-12-17 17:39:34.875000
2238,-7.21,2021-12-17 17:39:34.890625
2239,-10.77,2021-12-17 17:39:34.906250
2240,-14.11,2021-12-17 17:39:34.921875
2241,-17.01,2021-12-17 17:39:34.937500
2242,-19.23,2021-12-17 17:39:34.953125
2243,-20.5,2021-12-17 17:39:34.968750
2244,-20.66,2021-12-17 17:39:34.984375
2245,-19.69,2021-12-17 17:39:35.000000
2246,-17.74,2021-12-17 17:39:35.015625
2247,-15.06,2021-12-17 17:39:35.031250
2248,-11.95,2021-12-17 17:39:35.046875
2249,-8.65,2021-12-17 17:39:35.062500
2250,-5.29,2021-12-17 17:39:35.078125
2251,-1.87,2021-12-17 17:39:35.093750
2252,1.61,2021-12-17 17:39:35.109375
2253,5.13,2021-12-17 17:39:35.125000
2254,8.58,2021-12-17 17:39:35.140625
2255,11.71,2021-12-17 17:39:35.156250
2256,14.31,2021-12-17 17:39:35.171875
2257,16.26,2021-12-17 17:39:35.187500
2258,17.58,2021-12-17 17:39:35.203125
2259,18.53,2021-12-17 17:39:35.218750
2260,19.36,2021-12-17 17:39:35.234375
2261,20.26,2021-12-17 17:39:35.250000
2262,21.27,2021-12-17 17:39:35.265625
2263,22.22,2021-12-17 17:39:35.281250
2264,22.94,2021-12-17 17:39:35.296875
2265,23.3,2021-12-17 17:39:35.312500
2266,23.33,2021-12-17 17:39:35.328125
2267,23.14,2021-12-17 17:39:35.343750
2268,22.86,2021-12-17 17:39:35.359375
2269,22.49,2021-12-17 17:39:35.375000
2270,21.99,2021-12-17 17:39:35.390625
2271,21.31,2021-12-17 17:39:35.406250
2272,20.44,2021-12-17 17:39:35.421875
2273,19.45,2021-12-17 17:39:35.437500
2274,18.46,2021-12-17 17:39:35.453125
2275,17.59,2021-12-17 17:39:35.468750
2276,16.89,2021-12-17 17:39:35.484375
2277,16.26,2021-12-17 17:39:35.500000
2278,15.53,2021-12-17 17:39:35.515625
2279,14.44,2021-12-17 17:39:35.531250
2280,12.79,2021-12-17 17:39:35.546875
2281,10.5,2021-12-17 17:39:35.562500
2282,7.68,2021-12-17 17:39:35.578125
2283,4.61,2021-12-17 17:39:35.593750
2284,1.65,2021-12-17 17:39:35.609375
2285,-0.94,2021-12-17 17:39:35.625000
2286,-3.03,2021-12-17 17:39:35.640625
2287,-4.74,2021-12-17 17:39:35.656250
2288,-6.25,2021-12-17 17:39:35.671875
2289,-7.81,2021-12-17 17:39:35.687500
2290,-9.54,2021-12-17 17:39:35.703125
2291,-11.51,2021-12-17 17:39:35.718750
2292,-13.69,2021-12-17 17:39:35.734375
2293,-16.02,2021-12-17 17:39:35.750000
2294,-18.38,2021-12-17 17:39:35.765625
2295,-20.55,2021-12-17 17:39:35.781250
2296,-22.25,2021-12-17 17:39:35.796875
2297,-23.14,2021-12-17 17:39:35.812500
2298,-23.0,2021-12-17 17:39:35.828125
2299,-21.75,2021-12-17 17:39:35.843750
2300,-19.56,2021-12-17 17:39:35.859375
2301,-16.75,2021-12-17 17:39:35.875000
2302,-13.66,2021-12-17 17:39:35.890625
2303,-10.57,2021-12-17 17:39:35.906250
2304,-7.55,2021-12-17 17:39:35.921875
2305,-4.58,2021-12-17 17:39:35.937500
2306,-1.54,2021-12-17 17:39:35.953125
2307,1.64,2021-12-17 17:39:35.968750
2308,4.97,2021-12-17 17:39:35.984375
2309,8.34,2021-12-17 17:39:36.000000
2310,11.62,2021-12-17 17:39:36.015625
2311,14.66,2021-12-17 17:39:36.031250
2312,17.35,2021-12-17 17:39:36.046875
2313,19.63,2021-12-17 17:39:36.062500
2314,21.52,2021-12-17 17:39:36.078125
2315,23.07,2021-12-17 17:39:36.093750
2316,24.31,2021-12-17 17:39:36.109375
2317,25.26,2021-12-17 17:39:36.125000
2318,25.89,2021-12-17 17:39:36.140625
2319,26.15,2021-12-17 17:39:36.156250
2320,26.02,2021-12-17 17:39:36.171875
2321,25.57,2021-12-17 17:39:36.187500
2322,24.89,2021-12-17 17:39:36.203125
2323,24.12,2021-12-17 17:39:36.218750
2324,23.33,2021-12-17 17:39:36.234375
2325,22.51,2021-12-17 17:39:36.250000
2326,21.54,2021-12-17 17:39:36.265625
2327,20.25,2021-12-17 17:39:36.281250
2328,18.56,2021-12-17 17:39:36.296875
2329,16.53,2021-12-17 17:39:36.312500
2330,14.37,2021-12-17 17:39:36.328125
2331,12.39,2021-12-17 17:39:36.343750
2332,10.79,2021-12-17 17:39:36.359375
2333,9.66,2021-12-17 17:39:36.375000
2334,8.86,2021-12-17 17:39:36.390625
2335,8.16,2021-12-17 17:39:36.406250
2336,7.32,2021-12-17 17:39:36.421875
2337,6.19,2021-12-17 17:39:36.437500
2338,4.78,2021-12-17 17:39:36.453125
2339,3.19,2021-12-17 17:39:36.468750
2340,1.54,2021-12-17 17:39:36.484375
2341,-0.11,2021-12-17 17:39:36.500000
2342,-1.79,2021-12-17 17:39:36.515625
2343,-3.62,2021-12-17 17:39:36.531250
2344,-5.72,2021-12-17 17:39:36.546875
2345,-8.13,2021-12-17 17:39:36.562500
2346,-10.82,2021-12-17 17:39:36.578125
2347,-13.59,2021-12-17 17:39:36.593750
2348,-16.18,2021-12-17 17:39:36.609375
2349,-18.28,2021-12-17 17:39:36.625000
2350,-19.64,2021-12-17 17:39:36.640625
2351,-20.09,2021-12-17 17:39:36.656250
2352,-19.58,2021-12-17 17:39:36.671875
2353,-18.17,2021-12-17 17:39:36.687500
2354,-16.0,2021-12-17 17:39:36.703125
2355,-13.27,2021-12-17 17:39:36.718750
2356,-10.2,2021-12-17 17:39:36.734375
2357,-6.94,2021-12-17 17:39:36.750000
2358,-3.63,2021-12-17 17:39:36.765625
2359,-0.36,2021-12-17 17:39:36.781250
2360,2.82,2021-12-17 17:39:36.796875
2361,5.83,2021-12-17 17:39:36.812500
2362,8.59,2021-12-17 17:39:36.828125
2363,10.97,2021-12-17 17:39:36.843750
2364,12.9,2021-12-17 17:39:36.859375
2365,14.31,2021-12-17 17:39:36.875000
2366,15.25,2021-12-17 17:39:36.890625
2367,15.78,2021-12-17 17:39:36.906250
2368,16.04,2021-12-17 17:39:36.921875
2369,16.17,2021-12-17 17:39:36.937500
2370,16.29,2021-12-17 17:39:36.953125
2371,16.45,2021-12-17 17:39:36.968750
2372,16.64,2021-12-17 17:39:36.984375
2373,16.74,2021-12-17 17:39:37.000000
2374,16.61,2021-12-17 17:39:37.015625
2375,16.15,2021-12-17 17:39:37.031250
2376,15.3,2021-12-17 17:39:37.046875
2377,14.14,2021-12-17 17:39:37.062500
2378,12.78,2021-12-17 17:39:37.078125
2379,11.36,2021-12-17 17:39:37.093750
2380,10.01,2021-12-17 17:39:37.109375
2381,8.79,2021-12-17 17:39:37.125000
2382,7.7,2021-12-17 17:39:37.140625
2383,6.7,2021-12-17 17:39:37.156250
2384,5.73,2021-12-17 17:39:37.171875
2385,4.73,2021-12-17 17:39:37.187500
2386,3.65,2021-12-17 17:39:37.203125
2387,2.45,2021-12-17 17:39:37.218750
2388,1.13,2021-12-17 17:39:37.234375
2389,-0.28,2021-12-17 17:39:37.250000
2390,-1.73,2021-12-17 17:39:37.265625
2391,-3.16,2021-12-17 17:39:37.281250
2392,-4.51,2021-12-17 17:39:37.296875
2393,-5.72,2021-12-17 17:39:37.312500
2394,-6.76,2021-12-17 17:39:37.328125
2395,-7.65,2021-12-17 17:39:37.343750
2396,-8.51,2021-12-17 17:39:37.359375
2397,-9.5,2021-12-17 17:39:37.375000
2398,-10.8,2021-12-17 17:39:37.390625
2399,-12.51,2021-12-17 17:39:37.406250
2400,-14.6,2021-12-17 17:39:37.421875
2401,-16.8,2021-12-17 17:39:37.437500
2402,-18.73,2021-12-17 17:39:37.453125
2403,-19.99,2021-12-17 17:39:37.468750
2404,-20.27,2021-12-17 17:39:37.484375
2405,-19.49,2021-12-17 17:39:37.500000
2406,-17.78,2021-12-17 17:39:37.515625
2407,-15.43,2021-12-17 17:39:37.531250
2408,-12.75,2021-12-17 17:39:37.546875
2409,-9.98,2021-12-17 17:39:37.562500
2410,-7.26,2021-12-17 17:39:37.578125
2411,-4.6,2021-12-17 17:39:37.593750
2412,-2.02,2021-12-17 17:39:37.609375
2413,0.45,2021-12-17 17:39:37.625000
2414,2.7,2021-12-17 17:39:37.640625
2415,4.61,2021-12-17 17:39:37.656250
2416,6.03,2021-12-17 17:39:37.671875
2417,6.94,2021-12-17 17:39:37.687500
2418,7.34,2021-12-17 17:39:37.703125
2419,7.35,2021-12-17 17:39:37.718750
2420,7.13,2021-12-17 17:39:37.734375
2421,6.81,2021-12-17 17:39:37.750000
2422,6.5,2021-12-17 17:39:37.765625
2423,6.26,2021-12-17 17:39:37.781250
2424,6.11,2021-12-17 17:39:37.796875
2425,6.1,2021-12-17 17:39:37.812500
2426,6.24,2021-12-17 17:39:37.828125
2427,6.56,2021-12-17 17:39:37.843750
2428,7.05,2021-12-17 17:39:37.859375
2429,7.6,2021-12-17 17:39:37.875000
2430,8.02,2021-12-17 17:39:37.890625
2431,8.15,2021-12-17 17:39:37.906250
2432,7.87,2021-12-17 17:39:37.921875
2433,7.24,2021-12-17 17:39:37.937500
2434,6.48,2021-12-17 17:39:37.953125
2435,5.86,2021-12-17 17:39:37.968750
2436,5.61,2021-12-17 17:39:37.984375
2437,5.76,2021-12-17 17:39:38.000000
2438,6.13,2021-12-17 17:39:38.015625
2439,6.42,2021-12-17 17:39:38.031250
2440,6.35,2021-12-17 17:39:38.046875
2441,5.75,2021-12-17 17:39:38.062500
2442,4.66,2021-12-17 17:39:38.078125
2443,3.24,2021-12-17 17:39:38.093750
2444,1.72,2021-12-17 17:39:38.109375
2445,0.31,2021-12-17 17:39:38.125000
2446,-0.88,2021-12-17 17:39:38.140625
2447,-1.78,2021-12-17 17:39:38.156250
2448,-2.42,2021-12-17 17:39:38.171875
2449,-2.85,2021-12-17 17:39:38.187500
2450,-3.18,2021-12-17 17:39:38.203125
2451,-3.53,2021-12-17 17:39:38.218750
2452,-3.97,2021-12-17 17:39:38.234375
2453,-4.47,2021-12-17 17:39:38.250000
2454,-4.79,2021-12-17 17:39:38.265625
2455,-4.6,2021-12-17 17:39:38.281250
2456,-3.53,2021-12-17 17:39:38.296875
2457,-1.38,2021-12-17 17:39:38.312500
2458,1.84,2021-12-17 17:39:38.328125
2459,5.86,2021-12-17 17:39:38.343750
2460,10.28,2021-12-17 17:39:38.359375
2461,14.71,2021-12-17 17:39:38.375000
2462,18.9,2021-12-17 17:39:38.390625
2463,22.75,2021-12-17 17:39:38.406250
2464,26.27,2021-12-17 17:39:38.421875
2465,29.57,2021-12-17 17:39:38.437500
2466,32.74,2021-12-17 17:39:38.453125
2467,35.84,2021-12-17 17:39:38.468750
2468,38.82,2021-12-17 17:39:38.484375
2469,41.44,2021-12-17 17:39:38.500000
2470,43.24,2021-12-17 17:39:38.515625
2471,43.64,2021-12-17 17:39:38.531250
2472,42.1,2021-12-17 17:39:38.546875
2473,38.39,2021-12-17 17:39:38.562500
2474,32.73,2021-12-17 17:39:38.578125
2475,25.82,2021-12-17 17:39:38.593750
2476,18.59,2021-12-17 17:39:38.609375
2477,11.94,2021-12-17 17:39:38.625000
2478,6.43,2021-12-17 17:39:38.640625
2479,2.27,2021-12-17 17:39:38.656250
2480,-0.63,2021-12-17 17:39:38.671875
2481,-2.42,2021-12-17 17:39:38.687500
2482,-3.17,2021-12-17 17:39:38.703125
2483,-2.89,2021-12-17 17:39:38.718750
2484,-1.55,2021-12-17 17:39:38.734375
2485,0.72,2021-12-17 17:39:38.750000
2486,3.68,2021-12-17 17:39:38.765625
2487,6.93,2021-12-17 17:39:38.781250
2488,10.04,2021-12-17 17:39:38.796875
2489,12.55,2021-12-17 17:39:38.812500
2490,13.98,2021-12-17 17:39:38.828125
2491,13.94,2021-12-17 17:39:38.843750
2492,12.11,2021-12-17 17:39:38.859375
2493,8.47,2021-12-17 17:39:38.875000
2494,3.22,2021-12-17 17:39:38.890625
2495,-3.12,2021-12-17 17:39:38.906250
2496,-10.0,2021-12-17 17:39:38.921875
2497,-16.94,2021-12-17 17:39:38.937500
2498,-23.71,2021-12-17 17:39:38.953125
2499,-30.3,2021-12-17 17:39:38.968750
2500,-36.82,2021-12-17 17:39:38.984375
2501,-43.36,2021-12-17 17:39:39.000000
2502,-49.83,2021-12-17 17:39:39.015625
2503,-55.95,2021-12-17 17:39:39.031250
2504,-61.23,2021-12-17 17:39:39.046875
2505,-65.14,2021-12-17 17:39:39.062500
2506,-67.16,2021-12-17 17:39:39.078125
2507,-66.98,2021-12-17 17:39:39.093750
2508,-64.53,2021-12-17 17:39:39.109375
2509,-60.03,2021-12-17 17:39:39.125000
2510,-53.93,2021-12-17 17:39:39.140625
2511,-46.79,2021-12-17 17:39:39.156250
2512,-39.14,2021-12-17 17:39:39.171875
2513,-31.34,2021-12-17 17:39:39.187500
2514,-23.59,2021-12-17 17:39:39.203125
2515,-15.99,2021-12-17 17:39:39.218750
2516,-8.67,2021-12-17 17:39:39.234375
2517,-1.77,2021-12-17 17:39:39.250000
2518,4.47,2021-12-17 17:39:39.265625
2519,9.84,2021-12-17 17:39:39.281250
2520,14.2,2021-12-17 17:39:39.296875
2521,17.49,2021-12-17 17:39:39.312500
2522,19.88,2021-12-17 17:39:39.328125
2523,21.62,2021-12-17 17:39:39.343750
2524,23.1,2021-12-17 17:39:39.359375
2525,24.74,2021-12-17 17:39:39.375000
2526,26.92,2021-12-17 17:39:39.390625
2527,29.88,2021-12-17 17:39:39.406250
2528,33.62,2021-12-17 17:39:39.421875
2529,37.93,2021-12-17 17:39:39.437500
2530,42.42,2021-12-17 17:39:39.453125
2531,46.67,2021-12-17 17:39:39.468750
2532,50.39,2021-12-17 17:39:39.484375
2533,53.57,2021-12-17 17:39:39.500000
2534,56.54,2021-12-17 17:39:39.515625
2535,59.85,2021-12-17 17:39:39.531250
2536,64.09,2021-12-17 17:39:39.546875
2537,69.67,2021-12-17 17:39:39.562500
2538,76.65,2021-12-17 17:39:39.578125
2539,84.54,2021-12-17 17:39:39.593750
2540,92.25,2021-12-17 17:39:39.609375
2541,98.24,2021-12-17 17:39:39.625000
2542,100.74,2021-12-17 17:39:39.640625
2543,98.29,2021-12-17 17:39:39.656250
2544,90.1,2021-12-17 17:39:39.671875
2545,76.3,2021-12-17 17:39:39.687500
2546,57.96,2021-12-17 17:39:39.703125
2547,36.72,2021-12-17 17:39:39.718750
2548,14.42,2021-12-17 17:39:39.734375
2549,-7.19,2021-12-17 17:39:39.750000
2550,-26.46,2021-12-17 17:39:39.765625
2551,-41.8,2021-12-17 17:39:39.781250
2552,-51.56,2021-12-17 17:39:39.796875
2553,-54.17,2021-12-17 17:39:39.812500
2554,-48.5,2021-12-17 17:39:39.828125
2555,-34.25,2021-12-17 17:39:39.843750
2556,-12.24,2021-12-17 17:39:39.859375
2557,15.59,2021-12-17 17:39:39.875000
2558,46.52,2021-12-17 17:39:39.890625
2559,77.47,2021-12-17 17:39:39.906250
2560,105.44,2021-12-17 17:39:39.921875
2561,127.84,2021-12-17 17:39:39.937500
2562,142.76,2021-12-17 17:39:39.953125
2563,149.14,2021-12-17 17:39:39.968750
2564,146.83,2021-12-17 17:39:39.984375
2565,136.63,2021-12-17 17:39:40.000000
2566,120.05,2021-12-17 17:39:40.015625
2567,99.07,2021-12-17 17:39:40.031250
2568,75.75,2021-12-17 17:39:40.046875
2569,52.05,2021-12-17 17:39:40.062500
2570,29.69,2021-12-17 17:39:40.078125
2571,10.14,2021-12-17 17:39:40.093750
2572,-5.49,2021-12-17 17:39:40.109375
2573,-16.55,2021-12-17 17:39:40.125000
2574,-22.92,2021-12-17 17:39:40.140625
2575,-25.09,2021-12-17 17:39:40.156250
2576,-24.07,2021-12-17 17:39:40.171875
2577,-21.12,2021-12-17 17:39:40.187500
2578,-17.52,2021-12-17 17:39:40.203125
2579,-14.37,2021-12-17 17:39:40.218750
2580,-12.53,2021-12-17 17:39:40.234375
2581,-12.56,2021-12-17 17:39:40.250000
2582,-14.86,2021-12-17 17:39:40.265625
2583,-19.54,2021-12-17 17:39:40.281250
2584,-26.37,2021-12-17 17:39:40.296875
2585,-34.76,2021-12-17 17:39:40.312500
2586,-43.86,2021-12-17 17:39:40.328125
2587,-52.76,2021-12-17 17:39:40.343750
2588,-60.78,2021-12-17 17:39:40.359375
2589,-67.56,2021-12-17 17:39:40.375000
2590,-73.06,2021-12-17 17:39:40.390625
2591,-77.28,2021-12-17 17:39:40.406250
2592,-80.07,2021-12-17 17:39:40.421875
2593,-81.1,2021-12-17 17:39:40.437500
2594,-79.93,2021-12-17 17:39:40.453125
2595,-76.29,2021-12-17 17:39:40.468750
2596,-70.3,2021-12-17 17:39:40.484375
2597,-62.47,2021-12-17 17:39:40.500000
2598,-53.54,2021-12-17 17:39:40.515625
2599,-44.35,2021-12-17 17:39:40.531250
2600,-35.58,2021-12-17 17:39:40.546875
2601,-27.7,2021-12-17 17:39:40.562500
2602,-21.01,2021-12-17 17:39:40.578125
2603,-15.74,2021-12-17 17:39:40.593750
2604,-12.0,2021-12-17 17:39:40.609375
2605,-9.78,2021-12-17 17:39:40.625000
2606,-8.88,2021-12-17 17:39:40.640625
2607,-8.87,2021-12-17 17:39:40.656250
2608,-9.13,2021-12-17 17:39:40.671875
2609,-9.03,2021-12-17 17:39:40.687500
2610,-8.01,2021-12-17 17:39:40.703125
2611,-5.78,2021-12-17 17:39:40.718750
2612,-2.37,2021-12-17 17:39:40.734375
2613,1.92,2021-12-17 17:39:40.750000
2614,6.62,2021-12-17 17:39:40.765625
2615,11.16,2021-12-17 17:39:40.781250
2616,15.09,2021-12-17 17:39:40.796875
2617,18.16,2021-12-17 17:39:40.812500
2618,20.34,2021-12-17 17:39:40.828125
2619,21.72,2021-12-17 17:39:40.843750
2620,22.43,2021-12-17 17:39:40.859375
2621,22.54,2021-12-17 17:39:40.875000
2622,22.0,2021-12-17 17:39:40.890625
2623,20.69,2021-12-17 17:39:40.906250
2624,18.53,2021-12-17 17:39:40.921875
2625,15.6,2021-12-17 17:39:40.937500
2626,12.15,2021-12-17 17:39:40.953125
2627,8.59,2021-12-17 17:39:40.968750
2628,5.31,2021-12-17 17:39:40.984375
2629,2.52,2021-12-17 17:39:41.000000
2630,0.2,2021-12-17 17:39:41.015625
2631,-1.85,2021-12-17 17:39:41.031250
2632,-3.9,2021-12-17 17:39:41.046875
2633,-6.1,2021-12-17 17:39:41.062500
2634,-8.42,2021-12-17 17:39:41.078125
2635,-10.65,2021-12-17 17:39:41.093750
2636,-12.51,2021-12-17 17:39:41.109375
2637,-13.79,2021-12-17 17:39:41.125000
2638,-14.42,2021-12-17 17:39:41.140625
2639,-14.52,2021-12-17 17:39:41.156250
2640,-14.35,2021-12-17 17:39:41.171875
2641,-14.29,2021-12-17 17:39:41.187500
2642,-14.71,2021-12-17 17:39:41.203125
2643,-15.94,2021-12-17 17:39:41.218750
2644,-18.15,2021-12-17 17:39:41.234375
2645,-21.29,2021-12-17 17:39:41.250000
2646,-25.06,2021-12-17 17:39:41.265625
2647,-28.99,2021-12-17 17:39:41.281250
2648,-32.5,2021-12-17 17:39:41.296875
2649,-35.15,2021-12-17 17:39:41.312500
2650,-36.72,2021-12-17 17:39:41.328125
2651,-37.22,2021-12-17 17:39:41.343750
2652,-36.88,2021-12-17 17:39:41.359375
2653,-36.0,2021-12-17 17:39:41.375000
2654,-34.82,2021-12-17 17:39:41.390625
2655,-33.56,2021-12-17 17:39:41.406250
2656,-32.39,2021-12-17 17:39:41.421875
2657,-31.51,2021-12-17 17:39:41.437500
2658,-31.05,2021-12-17 17:39:41.453125
2659,-31.08,2021-12-17 17:39:41.468750
2660,-31.47,2021-12-17 17:39:41.484375
2661,-31.98,2021-12-17 17:39:41.500000
2662,-32.31,2021-12-17 17:39:41.515625
2663,-32.25,2021-12-17 17:39:41.531250
2664,-31.8,2021-12-17 17:39:41.546875
2665,-31.11,2021-12-17 17:39:41.562500
2666,-30.41,2021-12-17 17:39:41.578125
2667,-29.87,2021-12-17 17:39:41.593750
2668,-29.55,2021-12-17 17:39:41.609375
2669,-29.39,2021-12-17 17:39:41.625000
2670,-29.33,2021-12-17 17:39:41.640625
2671,-29.32,2021-12-17 17:39:41.656250
2672,-29.39,2021-12-17 17:39:41.671875
2673,-29.58,2021-12-17 17:39:41.687500
2674,-29.85,2021-12-17 17:39:41.703125
2675,-30.06,2021-12-17 17:39:41.718750
2676,-30.0,2021-12-17 17:39:41.734375
2677,-29.44,2021-12-17 17:39:41.750000
2678,-28.18,2021-12-17 17:39:41.765625
2679,-26.13,2021-12-17 17:39:41.781250
2680,-23.37,2021-12-17 17:39:41.796875
2681,-20.06,2021-12-17 17:39:41.812500
2682,-16.49,2021-12-17 17:39:41.828125
2683,-12.88,2021-12-17 17:39:41.843750
2684,-9.47,2021-12-17 17:39:41.859375
2685,-6.35,2021-12-17 17:39:41.875000
2686,-3.59,2021-12-17 17:39:41.890625
2687,-1.23,2021-12-17 17:39:41.906250
2688,0.68,2021-12-17 17:39:41.921875
2689,2.06,2021-12-17 17:39:41.937500
2690,2.86,2021-12-17 17:39:41.953125
2691,3.11,2021-12-17 17:39:41.968750
2692,2.91,2021-12-17 17:39:41.984375
2693,2.43,2021-12-17 17:39:42.000000
2694,1.78,2021-12-17 17:39:42.015625
2695,0.98,2021-12-17 17:39:42.031250
2696,-0.12,2021-12-17 17:39:42.046875
2697,-1.63,2021-12-17 17:39:42.062500
2698,-3.63,2021-12-17 17:39:42.078125
2699,-5.95,2021-12-17 17:39:42.093750
2700,-8.3,2021-12-17 17:39:42.109375
2701,-10.34,2021-12-17 17:39:42.125000
2702,-11.85,2021-12-17 17:39:42.140625
2703,-12.74,2021-12-17 17:39:42.156250
2704,-13.12,2021-12-17 17:39:42.171875
2705,-13.15,2021-12-17 17:39:42.187500
2706,-13.02,2021-12-17 17:39:42.203125
2707,-12.88,2021-12-17 17:39:42.218750
2708,-12.77,2021-12-17 17:39:42.234375
2709,-12.66,2021-12-17 17:39:42.250000
2710,-12.44,2021-12-17 17:39:42.265625
2711,-11.92,2021-12-17 17:39:42.281250
2712,-10.9,2021-12-17 17:39:42.296875
2713,-9.24,2021-12-17 17:39:42.312500
2714,-6.91,2021-12-17 17:39:42.328125
2715,-4.02,2021-12-17 17:39:42.343750
2716,-0.72,2021-12-17 17:39:42.359375
2717,2.82,2021-12-17 17:39:42.375000
2718,6.45,2021-12-17 17:39:42.390625
2719,9.98,2021-12-17 17:39:42.406250
2720,13.14,2021-12-17 17:39:42.421875
2721,15.61,2021-12-17 17:39:42.437500
2722,17.09,2021-12-17 17:39:42.453125
2723,17.47,2021-12-17 17:39:42.468750
2724,16.86,2021-12-17 17:39:42.484375
2725,15.56,2021-12-17 17:39:42.500000
2726,13.95,2021-12-17 17:39:42.515625
2727,12.33,2021-12-17 17:39:42.531250
2728,10.86,2021-12-17 17:39:42.546875
2729,9.57,2021-12-17 17:39:42.562500
2730,8.46,2021-12-17 17:39:42.578125
2731,7.51,2021-12-17 17:39:42.593750
2732,6.77,2021-12-17 17:39:42.609375
2733,6.25,2021-12-17 17:39:42.625000
2734,5.9,2021-12-17 17:39:42.640625
2735,5.62,2021-12-17 17:39:42.656250
2736,5.28,2021-12-17 17:39:42.671875
2737,4.79,2021-12-17 17:39:42.687500
2738,4.09,2021-12-17 17:39:42.703125
2739,3.18,2021-12-17 17:39:42.718750
2740,2.11,2021-12-17 17:39:42.734375
2741,0.91,2021-12-17 17:39:42.750000
2742,-0.37,2021-12-17 17:39:42.765625
2743,-1.73,2021-12-17 17:39:42.781250
2744,-3.2,2021-12-17 17:39:42.796875
2745,-4.83,2021-12-17 17:39:42.812500
2746,-6.67,2021-12-17 17:39:42.828125
2747,-8.68,2021-12-17 17:39:42.843750
2748,-10.71,2021-12-17 17:39:42.859375
2749,-12.53,2021-12-17 17:39:42.875000
2750,-13.91,2021-12-17 17:39:42.890625
2751,-14.74,2021-12-17 17:39:42.906250
2752,-15.1,2021-12-17 17:39:42.921875
2753,-15.23,2021-12-17 17:39:42.937500
2754,-15.42,2021-12-17 17:39:42.953125
2755,-15.88,2021-12-17 17:39:42.968750
2756,-16.67,2021-12-17 17:39:42.984375
2757,-17.73,2021-12-17 17:39:43.000000
2758,-18.94,2021-12-17 17:39:43.015625
2759,-20.14,2021-12-17 17:39:43.031250
2760,-21.15,2021-12-17 17:39:43.046875
2761,-21.75,2021-12-17 17:39:43.062500
2762,-21.69,2021-12-17 17:39:43.078125
2763,-20.77,2021-12-17 17:39:43.093750
2764,-18.92,2021-12-17 17:39:43.109375
2765,-16.29,2021-12-17 17:39:43.125000
2766,-13.22,2021-12-17 17:39:43.140625
2767,-10.15,2021-12-17 17:39:43.156250
2768,-7.44,2021-12-17 17:39:43.171875
2769,-5.3,2021-12-17 17:39:43.187500
2770,-3.73,2021-12-17 17:39:43.203125
2771,-2.57,2021-12-17 17:39:43.218750
2772,-1.62,2021-12-17 17:39:43.234375
2773,-0.69,2021-12-17 17:39:43.250000
2774,0.3,2021-12-17 17:39:43.265625
2775,1.35,2021-12-17 17:39:43.281250
2776,2.37,2021-12-17 17:39:43.296875
2777,3.23,2021-12-17 17:39:43.312500
2778,3.83,2021-12-17 17:39:43.328125
2779,4.07,2021-12-17 17:39:43.343750
2780,3.99,2021-12-17 17:39:43.359375
2781,3.64,2021-12-17 17:39:43.375000
2782,3.13,2021-12-17 17:39:43.390625
2783,2.6,2021-12-17 17:39:43.406250
2784,2.15,2021-12-17 17:39:43.421875
2785,1.88,2021-12-17 17:39:43.437500
2786,1.78,2021-12-17 17:39:43.453125
2787,1.8,2021-12-17 17:39:43.468750
2788,1.79,2021-12-17 17:39:43.484375
2789,1.61,2021-12-17 17:39:43.500000
2790,1.12,2021-12-17 17:39:43.515625
2791,0.28,2021-12-17 17:39:43.531250
2792,-0.82,2021-12-17 17:39:43.546875
2793,-2.05,2021-12-17 17:39:43.562500
2794,-3.23,2021-12-17 17:39:43.578125
2795,-4.26,2021-12-17 17:39:43.593750
2796,-5.11,2021-12-17 17:39:43.609375
2797,-5.83,2021-12-17 17:39:43.625000
2798,-6.54,2021-12-17 17:39:43.640625
2799,-7.36,2021-12-17 17:39:43.656250
2800,-8.4,2021-12-17 17:39:43.671875
2801,-9.69,2021-12-17 17:39:43.687500
2802,-11.21,2021-12-17 17:39:43.703125
2803,-12.88,2021-12-17 17:39:43.718750
2804,-14.55,2021-12-17 17:39:43.734375
2805,-16.09,2021-12-17 17:39:43.750000
2806,-17.43,2021-12-17 17:39:43.765625
2807,-18.62,2021-12-17 17:39:43.781250
2808,-19.79,2021-12-17 17:39:43.796875
2809,-21.08,2021-12-17 17:39:43.812500
2810,-22.51,2021-12-17 17:39:43.828125
2811,-23.95,2021-12-17 17:39:43.843750
2812,-25.12,2021-12-17 17:39:43.859375
2813,-25.73,2021-12-17 17:39:43.875000
2814,-25.51,2021-12-17 17:39:43.890625
2815,-24.38,2021-12-17 17:39:43.906250
2816,-22.37,2021-12-17 17:39:43.921875
2817,-19.61,2021-12-17 17:39:43.937500
2818,-16.26,2021-12-17 17:39:43.953125
2819,-12.47,2021-12-17 17:39:43.968750
2820,-8.4,2021-12-17 17:39:43.984375
2821,-4.26,2021-12-17 17:39:44.000000
2822,-0.27,2021-12-17 17:39:44.015625
2823,3.33,2021-12-17 17:39:44.031250
2824,6.37,2021-12-17 17:39:44.046875
2825,8.82,2021-12-17 17:39:44.062500
2826,10.75,2021-12-17 17:39:44.078125
2827,12.34,2021-12-17 17:39:44.093750
2828,13.76,2021-12-17 17:39:44.109375
2829,15.14,2021-12-17 17:39:44.125000
2830,16.55,2021-12-17 17:39:44.140625
2831,17.93,2021-12-17 17:39:44.156250
2832,19.14,2021-12-17 17:39:44.171875
2833,20.03,2021-12-17 17:39:44.187500
2834,20.5,2021-12-17 17:39:44.203125
2835,20.58,2021-12-17 17:39:44.218750
2836,20.4,2021-12-17 17:39:44.234375
2837,20.18,2021-12-17 17:39:44.250000
2838,20.12,2021-12-17 17:39:44.265625
2839,20.3,2021-12-17 17:39:44.281250
2840,20.67,2021-12-17 17:39:44.296875
2841,21.06,2021-12-17 17:39:44.312500
2842,21.27,2021-12-17 17:39:44.328125
2843,21.17,2021-12-17 17:39:44.343750
2844,20.66,2021-12-17 17:39:44.359375
2845,19.77,2021-12-17 17:39:44.375000
2846,18.5,2021-12-17 17:39:44.390625
2847,16.87,2021-12-17 17:39:44.406250
2848,14.85,2021-12-17 17:39:44.421875
2849,12.43,2021-12-17 17:39:44.437500
2850,9.64,2021-12-17 17:39:44.453125
2851,6.58,2021-12-17 17:39:44.468750
2852,3.44,2021-12-17 17:39:44.484375
2853,0.42,2021-12-17 17:39:44.500000
2854,-2.3,2021-12-17 17:39:44.515625
2855,-4.64,2021-12-17 17:39:44.531250
2856,-6.63,2021-12-17 17:39:44.546875
2857,-8.4,2021-12-17 17:39:44.562500
2858,-10.16,2021-12-17 17:39:44.578125
2859,-12.06,2021-12-17 17:39:44.593750
2860,-14.19,2021-12-17 17:39:44.609375
2861,-16.54,2021-12-17 17:39:44.625000
2862,-19.0,2021-12-17 17:39:44.640625
2863,-21.49,2021-12-17 17:39:44.656250
2864,-23.94,2021-12-17 17:39:44.671875
2865,-26.34,2021-12-17 17:39:44.687500
2866,-28.67,2021-12-17 17:39:44.703125
2867,-30.82,2021-12-17 17:39:44.718750
2868,-32.59,2021-12-17 17:39:44.734375
2869,-33.74,2021-12-17 17:39:44.750000
2870,-34.0,2021-12-17 17:39:44.765625
2871,-33.28,2021-12-17 17:39:44.781250
2872,-31.6,2021-12-17 17:39:44.796875
2873,-29.15,2021-12-17 17:39:44.812500
2874,-26.19,2021-12-17 17:39:44.828125
2875,-22.93,2021-12-17 17:39:44.843750
2876,-19.53,2021-12-17 17:39:44.859375
2877,-16.09,2021-12-17 17:39:44.875000
2878,-12.66,2021-12-17 17:39:44.890625
2879,-9.32,2021-12-17 17:39:44.906250
2880,-6.16,2021-12-17 17:39:44.921875
2881,-3.28,2021-12-17 17:39:44.937500
2882,-0.81,2021-12-17 17:39:44.953125
2883,1.13,2021-12-17 17:39:44.968750
2884,2.46,2021-12-17 17:39:44.984375
2885,3.17,2021-12-17 17:39:45.000000
2886,3.31,2021-12-17 17:39:45.015625
2887,3.07,2021-12-17 17:39:45.031250
2888,2.69,2021-12-17 17:39:45.046875
2889,2.46,2021-12-17 17:39:45.062500
2890,2.59,2021-12-17 17:39:45.078125
2891,3.23,2021-12-17 17:39:45.093750
2892,4.38,2021-12-17 17:39:45.109375
2893,5.91,2021-12-17 17:39:45.125000
2894,7.64,2021-12-17 17:39:45.140625
2895,9.36,2021-12-17 17:39:45.156250
2896,10.82,2021-12-17 17:39:45.171875
2897,11.87,2021-12-17 17:39:45.187500
2898,12.39,2021-12-17 17:39:45.203125
2899,12.36,2021-12-17 17:39:45.218750
2900,11.85,2021-12-17 17:39:45.234375
2901,11.05,2021-12-17 17:39:45.250000
2902,10.19,2021-12-17 17:39:45.265625
2903,9.5,2021-12-17 17:39:45.281250
2904,9.16,2021-12-17 17:39:45.296875
2905,9.2,2021-12-17 17:39:45.312500
2906,9.48,2021-12-17 17:39:45.328125
2907,9.75,2021-12-17 17:39:45.343750
2908,9.75,2021-12-17 17:39:45.359375
2909,9.34,2021-12-17 17:39:45.375000
2910,8.54,2021-12-17 17:39:45.390625
2911,7.54,2021-12-17 17:39:45.406250
2912,6.56,2021-12-17 17:39:45.421875
2913,5.76,2021-12-17 17:39:45.437500
2914,5.09,2021-12-17 17:39:45.453125
2915,4.35,2021-12-17 17:39:45.468750
2916,3.33,2021-12-17 17:39:45.484375
2917,1.88,2021-12-17 17:39:45.500000
2918,-0.01,2021-12-17 17:39:45.515625
2919,-2.24,2021-12-17 17:39:45.531250
2920,-4.68,2021-12-17 17:39:45.546875
2921,-7.15,2021-12-17 17:39:45.562500
2922,-9.52,2021-12-17 17:39:45.578125
2923,-11.57,2021-12-17 17:39:45.593750
2924,-13.04,2021-12-17 17:39:45.609375
2925,-13.61,2021-12-17 17:39:45.625000
2926,-13.07,2021-12-17 17:39:45.640625
2927,-11.36,2021-12-17 17:39:45.656250
2928,-8.69,2021-12-17 17:39:45.671875
2929,-5.46,2021-12-17 17:39:45.687500
2930,-2.12,2021-12-17 17:39:45.703125
2931,0.96,2021-12-17 17:39:45.718750
2932,3.62,2021-12-17 17:39:45.734375
2933,5.85,2021-12-17 17:39:45.750000
2934,7.73,2021-12-17 17:39:45.765625
2935,9.34,2021-12-17 17:39:45.781250
2936,10.66,2021-12-17 17:39:45.796875
2937,11.65,2021-12-17 17:39:45.812500
2938,12.25,2021-12-17 17:39:45.828125
2939,12.47,2021-12-17 17:39:45.843750
2940,12.42,2021-12-17 17:39:45.859375
2941,12.21,2021-12-17 17:39:45.875000
2942,11.98,2021-12-17 17:39:45.890625
2943,11.78,2021-12-17 17:39:45.906250
2944,11.63,2021-12-17 17:39:45.921875
2945,11.48,2021-12-17 17:39:45.937500
2946,11.33,2021-12-17 17:39:45.953125
2947,11.21,2021-12-17 17:39:45.968750
2948,11.17,2021-12-17 17:39:45.984375
2949,11.25,2021-12-17 17:39:46.000000
2950,11.4,2021-12-17 17:39:46.015625
2951,11.49,2021-12-17 17:39:46.031250
2952,11.35,2021-12-17 17:39:46.046875
2953,10.87,2021-12-17 17:39:46.062500
2954,10.03,2021-12-17 17:39:46.078125
2955,8.92,2021-12-17 17:39:46.093750
2956,7.64,2021-12-17 17:39:46.109375
2957,6.31,2021-12-17 17:39:46.125000
2958,4.9,2021-12-17 17:39:46.140625
2959,3.35,2021-12-17 17:39:46.156250
2960,1.62,2021-12-17 17:39:46.171875
2961,-0.24,2021-12-17 17:39:46.187500
2962,-2.1,2021-12-17 17:39:46.203125
2963,-3.77,2021-12-17 17:39:46.218750
2964,-5.15,2021-12-17 17:39:46.234375
2965,-6.32,2021-12-17 17:39:46.250000
2966,-7.48,2021-12-17 17:39:46.265625
2967,-8.88,2021-12-17 17:39:46.281250
2968,-10.71,2021-12-17 17:39:46.296875
2969,-13.03,2021-12-17 17:39:46.312500
2970,-15.76,2021-12-17 17:39:46.328125
2971,-18.7,2021-12-17 17:39:46.343750
2972,-21.59,2021-12-17 17:39:46.359375
2973,-24.16,2021-12-17 17:39:46.375000
2974,-26.14,2021-12-17 17:39:46.390625
2975,-27.29,2021-12-17 17:39:46.406250
2976,-27.44,2021-12-17 17:39:46.421875
2977,-26.54,2021-12-17 17:39:46.437500
2978,-24.67,2021-12-17 17:39:46.453125
2979,-22.05,2021-12-17 17:39:46.468750
2980,-18.95,2021-12-17 17:39:46.484375
2981,-15.61,2021-12-17 17:39:46.500000
2982,-12.23,2021-12-17 17:39:46.515625
2983,-8.93,2021-12-17 17:39:46.531250
2984,-5.81,2021-12-17 17:39:46.546875
2985,-2.93,2021-12-17 17:39:46.562500
2986,-0.36,2021-12-17 17:39:46.578125
2987,1.91,2021-12-17 17:39:46.593750
2988,3.91,2021-12-17 17:39:46.609375
2989,5.72,2021-12-17 17:39:46.625000
2990,7.42,2021-12-17 17:39:46.640625
2991,8.99,2021-12-17 17:39:46.656250
2992,10.37,2021-12-17 17:39:46.671875
2993,11.47,2021-12-17 17:39:46.687500
2994,12.21,2021-12-17 17:39:46.703125
2995,12.61,2021-12-17 17:39:46.718750
2996,12.84,2021-12-17 17:39:46.734375
2997,13.04,2021-12-17 17:39:46.750000
2998,13.35,2021-12-17 17:39:46.765625
2999,13.84,2021-12-17 17:39:46.781250
3000,14.45,2021-12-17 17:39:46.796875
3001,15.07,2021-12-17 17:39:46.812500
3002,15.59,2021-12-17 17:39:46.828125
3003,15.94,2021-12-17 17:39:46.843750
3004,16.12,2021-12-17 17:39:46.859375
3005,16.13,2021-12-17 17:39:46.875000
3006,16.01,2021-12-17 17:39:46.890625
3007,15.75,2021-12-17 17:39:46.906250
3008,15.34,2021-12-17 17:39:46.921875
3009,14.75,2021-12-17 17:39:46.937500
3010,13.98,2021-12-17 17:39:46.953125
3011,13.05,2021-12-17 17:39:46.968750
3012,11.94,2021-12-17 17:39:46.984375
3013,10.63,2021-12-17 17:39:47.000000
3014,9.08,2021-12-17 17:39:47.015625
3015,7.25,2021-12-17 17:39:47.031250
3016,5.15,2021-12-17 17:39:47.046875
3017,2.89,2021-12-17 17:39:47.062500
3018,0.59,2021-12-17 17:39:47.078125
3019,-1.61,2021-12-17 17:39:47.093750
3020,-3.67,2021-12-17 17:39:47.109375
3021,-5.63,2021-12-17 17:39:47.125000
3022,-7.61,2021-12-17 17:39:47.140625
3023,-9.8,2021-12-17 17:39:47.156250
3024,-12.31,2021-12-17 17:39:47.171875
3025,-15.19,2021-12-17 17:39:47.187500
3026,-18.34,2021-12-17 17:39:47.203125
3027,-21.49,2021-12-17 17:39:47.218750
3028,-24.22,2021-12-17 17:39:47.234375
3029,-26.08,2021-12-17 17:39:47.250000
3030,-26.67,2021-12-17 17:39:47.265625
3031,-25.89,2021-12-17 17:39:47.281250
3032,-23.91,2021-12-17 17:39:47.296875
3033,-21.16,2021-12-17 17:39:47.312500
3034,-18.14,2021-12-17 17:39:47.328125
3035,-15.22,2021-12-17 17:39:47.343750
3036,-12.55,2021-12-17 17:39:47.359375
3037,-9.99,2021-12-17 17:39:47.375000
3038,-7.37,2021-12-17 17:39:47.390625
3039,-4.51,2021-12-17 17:39:47.406250
3040,-1.44,2021-12-17 17:39:47.421875
3041,1.7,2021-12-17 17:39:47.437500
3042,4.68,2021-12-17 17:39:47.453125
3043,7.31,2021-12-17 17:39:47.468750
3044,9.46,2021-12-17 17:39:47.484375
3045,11.08,2021-12-17 17:39:47.500000
3046,12.15,2021-12-17 17:39:47.515625
3047,12.7,2021-12-17 17:39:47.531250
3048,12.77,2021-12-17 17:39:47.546875
3049,12.53,2021-12-17 17:39:47.562500
3050,12.2,2021-12-17 17:39:47.578125
3051,12.07,2021-12-17 17:39:47.593750
3052,12.39,2021-12-17 17:39:47.609375
3053,13.26,2021-12-17 17:39:47.625000
3054,14.61,2021-12-17 17:39:47.640625
3055,16.19,2021-12-17 17:39:47.656250
3056,17.68,2021-12-17 17:39:47.671875
3057,18.75,2021-12-17 17:39:47.687500
3058,19.22,2021-12-17 17:39:47.703125
3059,19.07,2021-12-17 17:39:47.718750
3060,18.43,2021-12-17 17:39:47.734375
3061,17.54,2021-12-17 17:39:47.750000
3062,16.64,2021-12-17 17:39:47.765625
3063,15.89,2021-12-17 17:39:47.781250
3064,15.31,2021-12-17 17:39:47.796875
3065,14.75,2021-12-17 17:39:47.812500
3066,13.96,2021-12-17 17:39:47.828125
3067,12.66,2021-12-17 17:39:47.843750
3068,10.65,2021-12-17 17:39:47.859375
3069,7.91,2021-12-17 17:39:47.875000
3070,4.64,2021-12-17 17:39:47.890625
3071,1.14,2021-12-17 17:39:47.906250
3072,-2.2,2021-12-17 17:39:47.921875
3073,-5.06,2021-12-17 17:39:47.937500
3074,-7.24,2021-12-17 17:39:47.953125
3075,-8.72,2021-12-17 17:39:47.968750
3076,-9.62,2021-12-17 17:39:47.984375
3077,-10.2,2021-12-17 17:39:48.000000
3078,-10.69,2021-12-17 17:39:48.015625
3079,-11.29,2021-12-17 17:39:48.031250
3080,-12.09,2021-12-17 17:39:48.046875
3081,-13.05,2021-12-17 17:39:48.062500
3082,-14.04,2021-12-17 17:39:48.078125
3083,-14.8,2021-12-17 17:39:48.093750
3084,-15.06,2021-12-17 17:39:48.109375
3085,-14.54,2021-12-17 17:39:48.125000
3086,-13.04,2021-12-17 17:39:48.140625
3087,-10.51,2021-12-17 17:39:48.156250
3088,-7.05,2021-12-17 17:39:48.171875
3089,-2.92,2021-12-17 17:39:48.187500
3090,1.6,2021-12-17 17:39:48.203125
3091,6.27,2021-12-17 17:39:48.218750
3092,10.94,2021-12-17 17:39:48.234375
3093,15.5,2021-12-17 17:39:48.250000
3094,19.81,2021-12-17 17:39:48.265625
3095,23.69,2021-12-17 17:39:48.281250
3096,26.86,2021-12-17 17:39:48.296875
3097,29.08,2021-12-17 17:39:48.312500
3098,30.29,2021-12-17 17:39:48.328125
3099,30.6,2021-12-17 17:39:48.343750
3100,30.3,2021-12-17 17:39:48.359375
3101,29.75,2021-12-17 17:39:48.375000
3102,29.19,2021-12-17 17:39:48.390625
3103,28.75,2021-12-17 17:39:48.406250
3104,28.37,2021-12-17 17:39:48.421875
3105,27.95,2021-12-17 17:39:48.437500
3106,27.35,2021-12-17 17:39:48.453125
3107,26.49,2021-12-17 17:39:48.468750
3108,25.32,2021-12-17 17:39:48.484375
3109,23.85,2021-12-17 17:39:48.500000
3110,22.13,2021-12-17 17:39:48.515625
3111,20.21,2021-12-17 17:39:48.531250
3112,18.13,2021-12-17 17:39:48.546875
3113,15.96,2021-12-17 17:39:48.562500
3114,13.78,2021-12-17 17:39:48.578125
3115,11.73,2021-12-17 17:39:48.593750
3116,9.97,2021-12-17 17:39:48.609375
3117,8.6,2021-12-17 17:39:48.625000
3118,7.58,2021-12-17 17:39:48.640625
3119,6.74,2021-12-17 17:39:48.656250
3120,5.78,2021-12-17 17:39:48.671875
3121,4.41,2021-12-17 17:39:48.687500
3122,2.48,2021-12-17 17:39:48.703125
3123,0.1,2021-12-17 17:39:48.718750
3124,-2.47,2021-12-17 17:39:48.734375
3125,-4.94,2021-12-17 17:39:48.750000
3126,-7.09,2021-12-17 17:39:48.765625
3127,-8.86,2021-12-17 17:39:48.781250
3128,-10.34,2021-12-17 17:39:48.796875
3129,-11.65,2021-12-17 17:39:48.812500
3130,-12.94,2021-12-17 17:39:48.828125
3131,-14.31,2021-12-17 17:39:48.843750
3132,-15.89,2021-12-17 17:39:48.859375
3133,-17.77,2021-12-17 17:39:48.875000
3134,-20.02,2021-12-17 17:39:48.890625
3135,-22.53,2021-12-17 17:39:48.906250
3136,-25.08,2021-12-17 17:39:48.921875
3137,-27.27,2021-12-17 17:39:48.937500
3138,-28.65,2021-12-17 17:39:48.953125
3139,-28.86,2021-12-17 17:39:48.968750
3140,-27.78,2021-12-17 17:39:48.984375
3141,-25.49,2021-12-17 17:39:49.000000
3142,-22.34,2021-12-17 17:39:49.015625
3143,-18.74,2021-12-17 17:39:49.031250
3144,-15.06,2021-12-17 17:39:49.046875
3145,-11.54,2021-12-17 17:39:49.062500
3146,-8.22,2021-12-17 17:39:49.078125
3147,-5.07,2021-12-17 17:39:49.093750
3148,-2.03,2021-12-17 17:39:49.109375
3149,0.84,2021-12-17 17:39:49.125000
3150,3.37,2021-12-17 17:39:49.140625
3151,5.27,2021-12-17 17:39:49.156250
3152,6.28,2021-12-17 17:39:49.171875
3153,6.26,2021-12-17 17:39:49.187500
3154,5.21,2021-12-17 17:39:49.203125
3155,3.24,2021-12-17 17:39:49.218750
3156,0.49,2021-12-17 17:39:49.234375
3157,-2.93,2021-12-17 17:39:49.250000
3158,-6.96,2021-12-17 17:39:49.265625
3159,-11.5,2021-12-17 17:39:49.281250
3160,-16.33,2021-12-17 17:39:49.296875
3161,-21.07,2021-12-17 17:39:49.312500
3162,-25.18,2021-12-17 17:39:49.328125
3163,-28.19,2021-12-17 17:39:49.343750
3164,-29.77,2021-12-17 17:39:49.359375
3165,-29.87,2021-12-17 17:39:49.375000
3166,-28.73,2021-12-17 17:39:49.390625
3167,-26.74,2021-12-17 17:39:49.406250
3168,-24.28,2021-12-17 17:39:49.421875
3169,-21.62,2021-12-17 17:39:49.437500
3170,-18.86,2021-12-17 17:39:49.453125
3171,-16.06,2021-12-17 17:39:49.468750
3172,-13.32,2021-12-17 17:39:49.484375
