,BVP,time
0,31.3,2022-10-26 09:59:15.703125
1,29.03,2022-10-26 09:59:15.718750
2,26.48,2022-10-26 09:59:15.734375
3,24.33,2022-10-26 09:59:15.750000
4,22.81,2022-10-26 09:59:15.765625
5,21.7,2022-10-26 09:59:15.781250
6,20.46,2022-10-26 09:59:15.796875
7,18.61,2022-10-26 09:59:15.812500
8,15.94,2022-10-26 09:59:15.828125
9,12.57,2022-10-26 09:59:15.843750
10,8.88,2022-10-26 09:59:15.859375
11,5.29,2022-10-26 09:59:15.875000
12,2.11,2022-10-26 09:59:15.890625
13,-0.47,2022-10-26 09:59:15.906250
14,-2.3,2022-10-26 09:59:15.921875
15,-3.14,2022-10-26 09:59:15.937500
16,-2.78,2022-10-26 09:59:15.953125
17,-1.29,2022-10-26 09:59:15.968750
18,0.66,2022-10-26 09:59:15.984375
19,1.67,2022-10-26 09:59:16.000000
20,-0.04,2022-10-26 09:59:16.015625
21,-5.97,2022-10-26 09:59:16.031250
22,-16.49,2022-10-26 09:59:16.046875
23,-30.4,2022-10-26 09:59:16.062500
24,-45.1,2022-10-26 09:59:16.078125
25,-57.48,2022-10-26 09:59:16.093750
26,-65.12,2022-10-26 09:59:16.109375
27,-67.13,2022-10-26 09:59:16.125000
28,-64.29,2022-10-26 09:59:16.140625
29,-58.45,2022-10-26 09:59:16.156250
30,-51.52,2022-10-26 09:59:16.171875
31,-44.77,2022-10-26 09:59:16.187500
32,-38.72,2022-10-26 09:59:16.203125
33,-33.62,2022-10-26 09:59:16.218750
34,-30.05,2022-10-26 09:59:16.234375
35,-29.08,2022-10-26 09:59:16.250000
36,-31.88,2022-10-26 09:59:16.265625
37,-38.8,2022-10-26 09:59:16.281250
38,-48.8,2022-10-26 09:59:16.296875
39,-59.58,2022-10-26 09:59:16.312500
40,-68.42,2022-10-26 09:59:16.328125
41,-73.43,2022-10-26 09:59:16.343750
42,-74.26,2022-10-26 09:59:16.359375
43,-72.03,2022-10-26 09:59:16.375000
44,-68.38,2022-10-26 09:59:16.390625
45,-64.32,2022-10-26 09:59:16.406250
46,-59.72,2022-10-26 09:59:16.421875
47,-53.43,2022-10-26 09:59:16.437500
48,-44.29,2022-10-26 09:59:16.453125
49,-32.0,2022-10-26 09:59:16.468750
50,-17.44,2022-10-26 09:59:16.484375
51,-2.35,2022-10-26 09:59:16.500000
52,11.64,2022-10-26 09:59:16.515625
53,23.71,2022-10-26 09:59:16.531250
54,34.06,2022-10-26 09:59:16.546875
55,43.43,2022-10-26 09:59:16.562500
56,52.44,2022-10-26 09:59:16.578125
57,61.05,2022-10-26 09:59:16.593750
58,68.65,2022-10-26 09:59:16.609375
59,74.47,2022-10-26 09:59:16.625000
60,78.11,2022-10-26 09:59:16.640625
61,79.87,2022-10-26 09:59:16.656250
62,80.57,2022-10-26 09:59:16.671875
63,81.05,2022-10-26 09:59:16.687500
64,81.65,2022-10-26 09:59:16.703125
65,82.0,2022-10-26 09:59:16.718750
66,81.21,2022-10-26 09:59:16.734375
67,78.55,2022-10-26 09:59:16.750000
68,74.03,2022-10-26 09:59:16.765625
69,68.73,2022-10-26 09:59:16.781250
70,64.63,2022-10-26 09:59:16.796875
71,63.88,2022-10-26 09:59:16.812500
72,68.01,2022-10-26 09:59:16.828125
73,77.09,2022-10-26 09:59:16.843750
74,89.48,2022-10-26 09:59:16.859375
75,102.27,2022-10-26 09:59:16.875000
76,112.24,2022-10-26 09:59:16.890625
77,116.97,2022-10-26 09:59:16.906250
78,115.54,2022-10-26 09:59:16.921875
79,108.61,2022-10-26 09:59:16.937500
80,97.84,2022-10-26 09:59:16.953125
81,85.32,2022-10-26 09:59:16.968750
82,72.98,2022-10-26 09:59:16.984375
83,62.58,2022-10-26 09:59:17.000000
84,55.52,2022-10-26 09:59:17.015625
85,52.75,2022-10-26 09:59:17.031250
86,54.16,2022-10-26 09:59:17.046875
87,58.34,2022-10-26 09:59:17.062500
88,62.63,2022-10-26 09:59:17.078125
89,63.9,2022-10-26 09:59:17.093750
90,59.66,2022-10-26 09:59:17.109375
91,49.11,2022-10-26 09:59:17.125000
92,33.42,2022-10-26 09:59:17.140625
93,15.21,2022-10-26 09:59:17.156250
94,-2.42,2022-10-26 09:59:17.171875
95,-16.77,2022-10-26 09:59:17.187500
96,-25.96,2022-10-26 09:59:17.203125
97,-28.95,2022-10-26 09:59:17.218750
98,-25.6,2022-10-26 09:59:17.234375
99,-16.65,2022-10-26 09:59:17.250000
100,-3.79,2022-10-26 09:59:17.265625
101,10.45,2022-10-26 09:59:17.281250
102,23.31,2022-10-26 09:59:17.296875
103,32.57,2022-10-26 09:59:17.312500
104,37.27,2022-10-26 09:59:17.328125
105,37.91,2022-10-26 09:59:17.343750
106,36.09,2022-10-26 09:59:17.359375
107,33.76,2022-10-26 09:59:17.375000
108,32.51,2022-10-26 09:59:17.390625
109,33.03,2022-10-26 09:59:17.406250
110,35.16,2022-10-26 09:59:17.421875
111,38.11,2022-10-26 09:59:17.437500
112,40.84,2022-10-26 09:59:17.453125
113,42.31,2022-10-26 09:59:17.468750
114,41.46,2022-10-26 09:59:17.484375
115,37.12,2022-10-26 09:59:17.500000
116,28.05,2022-10-26 09:59:17.515625
117,13.15,2022-10-26 09:59:17.531250
118,-8.05,2022-10-26 09:59:17.546875
119,-34.91,2022-10-26 09:59:17.562500
120,-65.57,2022-10-26 09:59:17.578125
121,-97.26,2022-10-26 09:59:17.593750
122,-126.98,2022-10-26 09:59:17.609375
123,-152.23,2022-10-26 09:59:17.625000
124,-171.43,2022-10-26 09:59:17.640625
125,-183.93,2022-10-26 09:59:17.656250
126,-189.74,2022-10-26 09:59:17.671875
127,-189.19,2022-10-26 09:59:17.687500
128,-183.0,2022-10-26 09:59:17.703125
129,-172.5,2022-10-26 09:59:17.718750
130,-159.71,2022-10-26 09:59:17.734375
131,-147.33,2022-10-26 09:59:17.750000
132,-137.95,2022-10-26 09:59:17.765625
133,-133.24,2022-10-26 09:59:17.781250
134,-133.18,2022-10-26 09:59:17.796875
135,-136.04,2022-10-26 09:59:17.812500
136,-138.99,2022-10-26 09:59:17.828125
137,-139.14,2022-10-26 09:59:17.843750
138,-134.69,2022-10-26 09:59:17.859375
139,-125.27,2022-10-26 09:59:17.875000
140,-111.97,2022-10-26 09:59:17.890625
141,-96.55,2022-10-26 09:59:17.906250
142,-80.77,2022-10-26 09:59:17.921875
143,-65.91,2022-10-26 09:59:17.937500
144,-52.62,2022-10-26 09:59:17.953125
145,-41.12,2022-10-26 09:59:17.968750
146,-31.52,2022-10-26 09:59:17.984375
147,-23.92,2022-10-26 09:59:18.000000
148,-18.32,2022-10-26 09:59:18.015625
149,-14.41,2022-10-26 09:59:18.031250
150,-11.51,2022-10-26 09:59:18.046875
151,-8.63,2022-10-26 09:59:18.062500
152,-4.88,2022-10-26 09:59:18.078125
153,0.16,2022-10-26 09:59:18.093750
154,6.22,2022-10-26 09:59:18.109375
155,12.45,2022-10-26 09:59:18.125000
156,17.83,2022-10-26 09:59:18.140625
157,21.84,2022-10-26 09:59:18.156250
158,24.66,2022-10-26 09:59:18.171875
159,27.21,2022-10-26 09:59:18.187500
160,30.65,2022-10-26 09:59:18.203125
161,35.77,2022-10-26 09:59:18.218750
162,42.51,2022-10-26 09:59:18.234375
163,49.89,2022-10-26 09:59:18.250000
164,56.45,2022-10-26 09:59:18.265625
165,60.79,2022-10-26 09:59:18.281250
166,62.28,2022-10-26 09:59:18.296875
167,61.14,2022-10-26 09:59:18.312500
168,58.41,2022-10-26 09:59:18.328125
169,55.38,2022-10-26 09:59:18.343750
170,53.05,2022-10-26 09:59:18.359375
171,51.72,2022-10-26 09:59:18.375000
172,51.07,2022-10-26 09:59:18.390625
173,50.41,2022-10-26 09:59:18.406250
174,49.1,2022-10-26 09:59:18.421875
175,46.98,2022-10-26 09:59:18.437500
176,44.29,2022-10-26 09:59:18.453125
177,41.49,2022-10-26 09:59:18.468750
178,38.85,2022-10-26 09:59:18.484375
179,36.24,2022-10-26 09:59:18.500000
180,33.14,2022-10-26 09:59:18.515625
181,29.0,2022-10-26 09:59:18.531250
182,23.5,2022-10-26 09:59:18.546875
183,16.8,2022-10-26 09:59:18.562500
184,9.39,2022-10-26 09:59:18.578125
185,1.74,2022-10-26 09:59:18.593750
186,-5.95,2022-10-26 09:59:18.609375
187,-13.89,2022-10-26 09:59:18.625000
188,-22.37,2022-10-26 09:59:18.640625
189,-31.31,2022-10-26 09:59:18.656250
190,-40.03,2022-10-26 09:59:18.671875
191,-47.21,2022-10-26 09:59:18.687500
192,-51.33,2022-10-26 09:59:18.703125
193,-51.33,2022-10-26 09:59:18.718750
194,-47.01,2022-10-26 09:59:18.734375
195,-39.15,2022-10-26 09:59:18.750000
196,-29.18,2022-10-26 09:59:18.765625
197,-18.6,2022-10-26 09:59:18.781250
198,-8.49,2022-10-26 09:59:18.796875
199,0.7,2022-10-26 09:59:18.812500
200,9.02,2022-10-26 09:59:18.828125
201,16.6,2022-10-26 09:59:18.843750
202,23.42,2022-10-26 09:59:18.859375
203,29.14,2022-10-26 09:59:18.875000
204,33.3,2022-10-26 09:59:18.890625
205,35.61,2022-10-26 09:59:18.906250
206,36.11,2022-10-26 09:59:18.921875
207,35.29,2022-10-26 09:59:18.937500
208,33.87,2022-10-26 09:59:18.953125
209,32.6,2022-10-26 09:59:18.968750
210,31.92,2022-10-26 09:59:18.984375
211,31.93,2022-10-26 09:59:19.000000
212,32.35,2022-10-26 09:59:19.015625
213,32.69,2022-10-26 09:59:19.031250
214,32.49,2022-10-26 09:59:19.046875
215,31.46,2022-10-26 09:59:19.062500
216,29.58,2022-10-26 09:59:19.078125
217,27.08,2022-10-26 09:59:19.093750
218,24.28,2022-10-26 09:59:19.109375
219,21.4,2022-10-26 09:59:19.125000
220,18.46,2022-10-26 09:59:19.140625
221,15.19,2022-10-26 09:59:19.156250
222,11.25,2022-10-26 09:59:19.171875
223,6.35,2022-10-26 09:59:19.187500
224,0.33,2022-10-26 09:59:19.203125
225,-6.78,2022-10-26 09:59:19.218750
226,-14.8,2022-10-26 09:59:19.234375
227,-23.37,2022-10-26 09:59:19.250000
228,-31.95,2022-10-26 09:59:19.265625
229,-39.63,2022-10-26 09:59:19.281250
230,-45.29,2022-10-26 09:59:19.296875
231,-47.74,2022-10-26 09:59:19.312500
232,-46.24,2022-10-26 09:59:19.328125
233,-40.76,2022-10-26 09:59:19.343750
234,-32.07,2022-10-26 09:59:19.359375
235,-21.49,2022-10-26 09:59:19.375000
236,-10.4,2022-10-26 09:59:19.390625
237,0.17,2022-10-26 09:59:19.406250
238,9.73,2022-10-26 09:59:19.421875
239,18.13,2022-10-26 09:59:19.437500
240,25.36,2022-10-26 09:59:19.453125
241,31.27,2022-10-26 09:59:19.468750
242,35.63,2022-10-26 09:59:19.484375
243,38.25,2022-10-26 09:59:19.500000
244,39.17,2022-10-26 09:59:19.515625
245,38.75,2022-10-26 09:59:19.531250
246,37.57,2022-10-26 09:59:19.546875
247,36.19,2022-10-26 09:59:19.562500
248,35.0,2022-10-26 09:59:19.578125
249,34.11,2022-10-26 09:59:19.593750
250,33.41,2022-10-26 09:59:19.609375
251,32.65,2022-10-26 09:59:19.625000
252,31.6,2022-10-26 09:59:19.640625
253,30.1,2022-10-26 09:59:19.656250
254,28.1,2022-10-26 09:59:19.671875
255,25.61,2022-10-26 09:59:19.687500
256,22.75,2022-10-26 09:59:19.703125
257,19.64,2022-10-26 09:59:19.718750
258,16.35,2022-10-26 09:59:19.734375
259,12.89,2022-10-26 09:59:19.750000
260,9.14,2022-10-26 09:59:19.765625
261,4.84,2022-10-26 09:59:19.781250
262,-0.31,2022-10-26 09:59:19.796875
263,-6.56,2022-10-26 09:59:19.812500
264,-13.98,2022-10-26 09:59:19.828125
265,-22.25,2022-10-26 09:59:19.843750
266,-30.63,2022-10-26 09:59:19.859375
267,-38.01,2022-10-26 09:59:19.875000
268,-43.09,2022-10-26 09:59:19.890625
269,-44.75,2022-10-26 09:59:19.906250
270,-42.37,2022-10-26 09:59:19.921875
271,-36.03,2022-10-26 09:59:19.937500
272,-26.48,2022-10-26 09:59:19.953125
273,-14.96,2022-10-26 09:59:19.968750
274,-2.88,2022-10-26 09:59:19.984375
275,8.58,2022-10-26 09:59:20.000000
276,18.72,2022-10-26 09:59:20.015625
277,27.42,2022-10-26 09:59:20.031250
278,35.04,2022-10-26 09:59:20.046875
279,42.11,2022-10-26 09:59:20.062500
280,48.93,2022-10-26 09:59:20.078125
281,55.35,2022-10-26 09:59:20.093750
282,60.72,2022-10-26 09:59:20.109375
283,64.34,2022-10-26 09:59:20.125000
284,65.89,2022-10-26 09:59:20.140625
285,65.83,2022-10-26 09:59:20.156250
286,65.34,2022-10-26 09:59:20.171875
287,65.78,2022-10-26 09:59:20.187500
288,68.04,2022-10-26 09:59:20.203125
289,72.08,2022-10-26 09:59:20.218750
290,76.97,2022-10-26 09:59:20.234375
291,81.38,2022-10-26 09:59:20.250000
292,84.34,2022-10-26 09:59:20.265625
293,85.64,2022-10-26 09:59:20.281250
294,86.0,2022-10-26 09:59:20.296875
295,86.71,2022-10-26 09:59:20.312500
296,89.1,2022-10-26 09:59:20.328125
297,93.94,2022-10-26 09:59:20.343750
298,101.11,2022-10-26 09:59:20.359375
299,109.61,2022-10-26 09:59:20.375000
300,117.8,2022-10-26 09:59:20.390625
301,123.87,2022-10-26 09:59:20.406250
302,126.26,2022-10-26 09:59:20.421875
303,123.89,2022-10-26 09:59:20.437500
304,116.47,2022-10-26 09:59:20.453125
305,104.47,2022-10-26 09:59:20.468750
306,89.24,2022-10-26 09:59:20.484375
307,72.86,2022-10-26 09:59:20.500000
308,57.94,2022-10-26 09:59:20.515625
309,47.06,2022-10-26 09:59:20.531250
310,42.02,2022-10-26 09:59:20.546875
311,43.2,2022-10-26 09:59:20.562500
312,49.42,2022-10-26 09:59:20.578125
313,58.31,2022-10-26 09:59:20.593750
314,67.3,2022-10-26 09:59:20.609375
315,74.45,2022-10-26 09:59:20.625000
316,78.8,2022-10-26 09:59:20.640625
317,80.29,2022-10-26 09:59:20.656250
318,79.12,2022-10-26 09:59:20.671875
319,75.38,2022-10-26 09:59:20.687500
320,68.9,2022-10-26 09:59:20.703125
321,59.57,2022-10-26 09:59:20.718750
322,47.68,2022-10-26 09:59:20.734375
323,34.09,2022-10-26 09:59:20.750000
324,20.11,2022-10-26 09:59:20.765625
325,7.12,2022-10-26 09:59:20.781250
326,-3.9,2022-10-26 09:59:20.796875
327,-12.63,2022-10-26 09:59:20.812500
328,-19.38,2022-10-26 09:59:20.828125
329,-24.88,2022-10-26 09:59:20.843750
330,-29.9,2022-10-26 09:59:20.859375
331,-34.84,2022-10-26 09:59:20.875000
332,-39.6,2022-10-26 09:59:20.890625
333,-43.68,2022-10-26 09:59:20.906250
334,-46.44,2022-10-26 09:59:20.921875
335,-47.59,2022-10-26 09:59:20.937500
336,-47.4,2022-10-26 09:59:20.953125
337,-46.67,2022-10-26 09:59:20.968750
338,-46.39,2022-10-26 09:59:20.984375
339,-47.28,2022-10-26 09:59:21.000000
340,-49.51,2022-10-26 09:59:21.015625
341,-52.76,2022-10-26 09:59:21.031250
342,-56.42,2022-10-26 09:59:21.046875
343,-60.0,2022-10-26 09:59:21.062500
344,-63.24,2022-10-26 09:59:21.078125
345,-66.14,2022-10-26 09:59:21.093750
346,-68.79,2022-10-26 09:59:21.109375
347,-71.1,2022-10-26 09:59:21.125000
348,-72.69,2022-10-26 09:59:21.140625
349,-73.0,2022-10-26 09:59:21.156250
350,-71.39,2022-10-26 09:59:21.171875
351,-67.36,2022-10-26 09:59:21.187500
352,-60.77,2022-10-26 09:59:21.203125
353,-51.9,2022-10-26 09:59:21.218750
354,-41.38,2022-10-26 09:59:21.234375
355,-30.05,2022-10-26 09:59:21.250000
356,-18.71,2022-10-26 09:59:21.265625
357,-7.93,2022-10-26 09:59:21.281250
358,1.96,2022-10-26 09:59:21.296875
359,10.79,2022-10-26 09:59:21.312500
360,18.35,2022-10-26 09:59:21.328125
361,24.3,2022-10-26 09:59:21.343750
362,28.2,2022-10-26 09:59:21.359375
363,29.72,2022-10-26 09:59:21.375000
364,28.86,2022-10-26 09:59:21.390625
365,26.07,2022-10-26 09:59:21.406250
366,22.14,2022-10-26 09:59:21.421875
367,17.98,2022-10-26 09:59:21.437500
368,14.29,2022-10-26 09:59:21.453125
369,11.4,2022-10-26 09:59:21.468750
370,9.27,2022-10-26 09:59:21.484375
371,7.62,2022-10-26 09:59:21.500000
372,6.15,2022-10-26 09:59:21.515625
373,4.65,2022-10-26 09:59:21.531250
374,3.03,2022-10-26 09:59:21.546875
375,1.27,2022-10-26 09:59:21.562500
376,-0.7,2022-10-26 09:59:21.578125
377,-3.01,2022-10-26 09:59:21.593750
378,-5.82,2022-10-26 09:59:21.609375
379,-9.3,2022-10-26 09:59:21.625000
380,-13.54,2022-10-26 09:59:21.640625
381,-18.58,2022-10-26 09:59:21.656250
382,-24.42,2022-10-26 09:59:21.671875
383,-31.01,2022-10-26 09:59:21.687500
384,-38.18,2022-10-26 09:59:21.703125
385,-45.47,2022-10-26 09:59:21.718750
386,-52.13,2022-10-26 09:59:21.734375
387,-57.17,2022-10-26 09:59:21.750000
388,-59.66,2022-10-26 09:59:21.765625
389,-59.02,2022-10-26 09:59:21.781250
390,-55.23,2022-10-26 09:59:21.796875
391,-48.87,2022-10-26 09:59:21.812500
392,-40.84,2022-10-26 09:59:21.828125
393,-32.09,2022-10-26 09:59:21.843750
394,-23.39,2022-10-26 09:59:21.859375
395,-15.18,2022-10-26 09:59:21.875000
396,-7.72,2022-10-26 09:59:21.890625
397,-1.17,2022-10-26 09:59:21.906250
398,4.37,2022-10-26 09:59:21.921875
399,8.76,2022-10-26 09:59:21.937500
400,12.06,2022-10-26 09:59:21.953125
401,14.52,2022-10-26 09:59:21.968750
402,16.49,2022-10-26 09:59:21.984375
403,18.36,2022-10-26 09:59:22.000000
404,20.33,2022-10-26 09:59:22.015625
405,22.37,2022-10-26 09:59:22.031250
406,24.29,2022-10-26 09:59:22.046875
407,25.91,2022-10-26 09:59:22.062500
408,27.11,2022-10-26 09:59:22.078125
409,27.95,2022-10-26 09:59:22.093750
410,28.43,2022-10-26 09:59:22.109375
411,28.47,2022-10-26 09:59:22.125000
412,27.82,2022-10-26 09:59:22.140625
413,26.15,2022-10-26 09:59:22.156250
414,23.25,2022-10-26 09:59:22.171875
415,19.12,2022-10-26 09:59:22.187500
416,14.02,2022-10-26 09:59:22.203125
417,8.24,2022-10-26 09:59:22.218750
418,1.92,2022-10-26 09:59:22.234375
419,-4.99,2022-10-26 09:59:22.250000
420,-12.66,2022-10-26 09:59:22.265625
421,-21.17,2022-10-26 09:59:22.281250
422,-30.2,2022-10-26 09:59:22.296875
423,-38.98,2022-10-26 09:59:22.312500
424,-46.47,2022-10-26 09:59:22.328125
425,-51.58,2022-10-26 09:59:22.343750
426,-53.62,2022-10-26 09:59:22.359375
427,-52.44,2022-10-26 09:59:22.375000
428,-48.42,2022-10-26 09:59:22.390625
429,-42.29,2022-10-26 09:59:22.406250
430,-34.89,2022-10-26 09:59:22.421875
431,-27.04,2022-10-26 09:59:22.437500
432,-19.43,2022-10-26 09:59:22.453125
433,-12.69,2022-10-26 09:59:22.468750
434,-7.28,2022-10-26 09:59:22.484375
435,-3.53,2022-10-26 09:59:22.500000
436,-1.5,2022-10-26 09:59:22.515625
437,-0.96,2022-10-26 09:59:22.531250
438,-1.4,2022-10-26 09:59:22.546875
439,-2.09,2022-10-26 09:59:22.562500
440,-2.21,2022-10-26 09:59:22.578125
441,-0.96,2022-10-26 09:59:22.593750
442,2.17,2022-10-26 09:59:22.609375
443,7.26,2022-10-26 09:59:22.625000
444,13.85,2022-10-26 09:59:22.640625
445,21.03,2022-10-26 09:59:22.656250
446,27.65,2022-10-26 09:59:22.671875
447,32.71,2022-10-26 09:59:22.687500
448,35.6,2022-10-26 09:59:22.703125
449,36.2,2022-10-26 09:59:22.718750
450,34.72,2022-10-26 09:59:22.734375
451,31.49,2022-10-26 09:59:22.750000
452,26.82,2022-10-26 09:59:22.765625
453,20.92,2022-10-26 09:59:22.781250
454,14.14,2022-10-26 09:59:22.796875
455,7.05,2022-10-26 09:59:22.812500
456,0.39,2022-10-26 09:59:22.828125
457,-5.15,2022-10-26 09:59:22.843750
458,-9.23,2022-10-26 09:59:22.859375
459,-12.1,2022-10-26 09:59:22.875000
460,-14.53,2022-10-26 09:59:22.890625
461,-17.44,2022-10-26 09:59:22.906250
462,-21.52,2022-10-26 09:59:22.921875
463,-26.84,2022-10-26 09:59:22.937500
464,-32.83,2022-10-26 09:59:22.953125
465,-38.45,2022-10-26 09:59:22.968750
466,-42.65,2022-10-26 09:59:22.984375
467,-44.68,2022-10-26 09:59:23.000000
468,-44.33,2022-10-26 09:59:23.015625
469,-41.89,2022-10-26 09:59:23.031250
470,-37.9,2022-10-26 09:59:23.046875
471,-32.97,2022-10-26 09:59:23.062500
472,-27.56,2022-10-26 09:59:23.078125
473,-21.97,2022-10-26 09:59:23.093750
474,-16.41,2022-10-26 09:59:23.109375
475,-11.05,2022-10-26 09:59:23.125000
476,-6.07,2022-10-26 09:59:23.140625
477,-1.61,2022-10-26 09:59:23.156250
478,2.26,2022-10-26 09:59:23.171875
479,5.56,2022-10-26 09:59:23.187500
480,8.37,2022-10-26 09:59:23.203125
481,10.7,2022-10-26 09:59:23.218750
482,12.42,2022-10-26 09:59:23.234375
483,13.34,2022-10-26 09:59:23.250000
484,13.19,2022-10-26 09:59:23.265625
485,11.92,2022-10-26 09:59:23.281250
486,9.74,2022-10-26 09:59:23.296875
487,7.15,2022-10-26 09:59:23.312500
488,4.81,2022-10-26 09:59:23.328125
489,3.24,2022-10-26 09:59:23.343750
490,2.67,2022-10-26 09:59:23.359375
491,2.95,2022-10-26 09:59:23.375000
492,3.58,2022-10-26 09:59:23.390625
493,3.96,2022-10-26 09:59:23.406250
494,3.53,2022-10-26 09:59:23.421875
495,1.97,2022-10-26 09:59:23.437500
496,-0.64,2022-10-26 09:59:23.453125
497,-3.93,2022-10-26 09:59:23.468750
498,-7.29,2022-10-26 09:59:23.484375
499,-10.07,2022-10-26 09:59:23.500000
500,-11.78,2022-10-26 09:59:23.515625
501,-12.32,2022-10-26 09:59:23.531250
502,-11.99,2022-10-26 09:59:23.546875
503,-11.4,2022-10-26 09:59:23.562500
504,-11.26,2022-10-26 09:59:23.578125
505,-12.08,2022-10-26 09:59:23.593750
506,-13.9,2022-10-26 09:59:23.609375
507,-16.09,2022-10-26 09:59:23.625000
508,-17.52,2022-10-26 09:59:23.640625
509,-16.84,2022-10-26 09:59:23.656250
510,-12.96,2022-10-26 09:59:23.671875
511,-5.5,2022-10-26 09:59:23.687500
512,5.0,2022-10-26 09:59:23.703125
513,17.27,2022-10-26 09:59:23.718750
514,29.6,2022-10-26 09:59:23.734375
515,40.45,2022-10-26 09:59:23.750000
516,48.83,2022-10-26 09:59:23.765625
517,54.46,2022-10-26 09:59:23.781250
518,57.68,2022-10-26 09:59:23.796875
519,59.29,2022-10-26 09:59:23.812500
520,60.28,2022-10-26 09:59:23.828125
521,61.62,2022-10-26 09:59:23.843750
522,64.05,2022-10-26 09:59:23.859375
523,67.83,2022-10-26 09:59:23.875000
524,72.58,2022-10-26 09:59:23.890625
525,77.25,2022-10-26 09:59:23.906250
526,80.43,2022-10-26 09:59:23.921875
527,80.79,2022-10-26 09:59:23.937500
528,77.58,2022-10-26 09:59:23.953125
529,70.83,2022-10-26 09:59:23.968750
530,61.2,2022-10-26 09:59:23.984375
531,49.68,2022-10-26 09:59:24.000000
532,37.2,2022-10-26 09:59:24.015625
533,24.48,2022-10-26 09:59:24.031250
534,12.08,2022-10-26 09:59:24.046875
535,0.5,2022-10-26 09:59:24.062500
536,-9.7,2022-10-26 09:59:24.078125
537,-18.08,2022-10-26 09:59:24.093750
538,-24.4,2022-10-26 09:59:24.109375
539,-28.75,2022-10-26 09:59:24.125000
540,-31.51,2022-10-26 09:59:24.140625
541,-33.28,2022-10-26 09:59:24.156250
542,-34.71,2022-10-26 09:59:24.171875
543,-36.34,2022-10-26 09:59:24.187500
544,-38.54,2022-10-26 09:59:24.203125
545,-41.37,2022-10-26 09:59:24.218750
546,-44.49,2022-10-26 09:59:24.234375
547,-47.26,2022-10-26 09:59:24.250000
548,-48.86,2022-10-26 09:59:24.265625
549,-48.6,2022-10-26 09:59:24.281250
550,-46.05,2022-10-26 09:59:24.296875
551,-41.18,2022-10-26 09:59:24.312500
552,-34.22,2022-10-26 09:59:24.328125
553,-25.84,2022-10-26 09:59:24.343750
554,-17.08,2022-10-26 09:59:24.359375
555,-9.51,2022-10-26 09:59:24.375000
556,-4.87,2022-10-26 09:59:24.390625
557,-4.52,2022-10-26 09:59:24.406250
558,-8.74,2022-10-26 09:59:24.421875
559,-16.41,2022-10-26 09:59:24.437500
560,-25.34,2022-10-26 09:59:24.453125
561,-33.23,2022-10-26 09:59:24.468750
562,-38.73,2022-10-26 09:59:24.484375
563,-41.8,2022-10-26 09:59:24.500000
564,-43.39,2022-10-26 09:59:24.515625
565,-44.43,2022-10-26 09:59:24.531250
566,-45.08,2022-10-26 09:59:24.546875
567,-44.39,2022-10-26 09:59:24.562500
568,-41.05,2022-10-26 09:59:24.578125
569,-34.25,2022-10-26 09:59:24.593750
570,-24.43,2022-10-26 09:59:24.609375
571,-13.34,2022-10-26 09:59:24.625000
572,-3.22,2022-10-26 09:59:24.640625
573,4.11,2022-10-26 09:59:24.656250
574,8.05,2022-10-26 09:59:24.671875
575,9.21,2022-10-26 09:59:24.687500
576,8.92,2022-10-26 09:59:24.703125
577,8.53,2022-10-26 09:59:24.718750
578,8.74,2022-10-26 09:59:24.734375
579,9.41,2022-10-26 09:59:24.750000
580,9.83,2022-10-26 09:59:24.765625
581,9.16,2022-10-26 09:59:24.781250
582,6.92,2022-10-26 09:59:24.796875
583,3.22,2022-10-26 09:59:24.812500
584,-1.39,2022-10-26 09:59:24.828125
585,-6.06,2022-10-26 09:59:24.843750
586,-10.05,2022-10-26 09:59:24.859375
587,-12.77,2022-10-26 09:59:24.875000
588,-13.92,2022-10-26 09:59:24.890625
589,-13.41,2022-10-26 09:59:24.906250
590,-11.47,2022-10-26 09:59:24.921875
591,-8.58,2022-10-26 09:59:24.937500
592,-5.51,2022-10-26 09:59:24.953125
593,-3.21,2022-10-26 09:59:24.968750
594,-2.54,2022-10-26 09:59:24.984375
595,-4.1,2022-10-26 09:59:25.000000
596,-7.99,2022-10-26 09:59:25.015625
597,-13.84,2022-10-26 09:59:25.031250
598,-20.83,2022-10-26 09:59:25.046875
599,-27.89,2022-10-26 09:59:25.062500
600,-33.97,2022-10-26 09:59:25.078125
601,-38.24,2022-10-26 09:59:25.093750
602,-40.24,2022-10-26 09:59:25.109375
603,-39.9,2022-10-26 09:59:25.125000
604,-37.51,2022-10-26 09:59:25.140625
605,-33.54,2022-10-26 09:59:25.156250
606,-28.53,2022-10-26 09:59:25.171875
607,-23.05,2022-10-26 09:59:25.187500
608,-17.62,2022-10-26 09:59:25.203125
609,-12.8,2022-10-26 09:59:25.218750
610,-9.07,2022-10-26 09:59:25.234375
611,-6.79,2022-10-26 09:59:25.250000
612,-6.09,2022-10-26 09:59:25.265625
613,-6.93,2022-10-26 09:59:25.281250
614,-9.13,2022-10-26 09:59:25.296875
615,-12.56,2022-10-26 09:59:25.312500
616,-17.16,2022-10-26 09:59:25.328125
617,-22.96,2022-10-26 09:59:25.343750
618,-29.98,2022-10-26 09:59:25.359375
619,-38.09,2022-10-26 09:59:25.375000
620,-46.85,2022-10-26 09:59:25.390625
621,-55.49,2022-10-26 09:59:25.406250
622,-62.98,2022-10-26 09:59:25.421875
623,-68.4,2022-10-26 09:59:25.437500
624,-71.22,2022-10-26 09:59:25.453125
625,-71.51,2022-10-26 09:59:25.468750
626,-69.81,2022-10-26 09:59:25.484375
627,-66.81,2022-10-26 09:59:25.500000
628,-62.87,2022-10-26 09:59:25.515625
629,-57.79,2022-10-26 09:59:25.531250
630,-50.95,2022-10-26 09:59:25.546875
631,-41.73,2022-10-26 09:59:25.562500
632,-30.09,2022-10-26 09:59:25.578125
633,-16.77,2022-10-26 09:59:25.593750
634,-3.12,2022-10-26 09:59:25.609375
635,9.51,2022-10-26 09:59:25.625000
636,20.26,2022-10-26 09:59:25.640625
637,29.1,2022-10-26 09:59:25.656250
638,36.51,2022-10-26 09:59:25.671875
639,42.99,2022-10-26 09:59:25.687500
640,48.7,2022-10-26 09:59:25.703125
641,53.25,2022-10-26 09:59:25.718750
642,56.03,2022-10-26 09:59:25.734375
643,56.56,2022-10-26 09:59:25.750000
644,54.83,2022-10-26 09:59:25.765625
645,51.3,2022-10-26 09:59:25.781250
646,46.72,2022-10-26 09:59:25.796875
647,41.83,2022-10-26 09:59:25.812500
648,37.2,2022-10-26 09:59:25.828125
649,33.09,2022-10-26 09:59:25.843750
650,29.61,2022-10-26 09:59:25.859375
651,26.71,2022-10-26 09:59:25.875000
652,24.26,2022-10-26 09:59:25.890625
653,21.96,2022-10-26 09:59:25.906250
654,19.47,2022-10-26 09:59:25.921875
655,16.46,2022-10-26 09:59:25.937500
656,12.78,2022-10-26 09:59:25.953125
657,8.48,2022-10-26 09:59:25.968750
658,3.75,2022-10-26 09:59:25.984375
659,-1.12,2022-10-26 09:59:26.000000
660,-5.9,2022-10-26 09:59:26.015625
661,-10.35,2022-10-26 09:59:26.031250
662,-14.24,2022-10-26 09:59:26.046875
663,-17.4,2022-10-26 09:59:26.062500
664,-19.83,2022-10-26 09:59:26.078125
665,-21.84,2022-10-26 09:59:26.093750
666,-23.95,2022-10-26 09:59:26.109375
667,-26.74,2022-10-26 09:59:26.125000
668,-30.38,2022-10-26 09:59:26.140625
669,-34.51,2022-10-26 09:59:26.156250
670,-38.16,2022-10-26 09:59:26.171875
671,-40.19,2022-10-26 09:59:26.187500
672,-39.71,2022-10-26 09:59:26.203125
673,-36.48,2022-10-26 09:59:26.218750
674,-30.9,2022-10-26 09:59:26.234375
675,-23.81,2022-10-26 09:59:26.250000
676,-16.12,2022-10-26 09:59:26.265625
677,-8.47,2022-10-26 09:59:26.281250
678,-1.33,2022-10-26 09:59:26.296875
679,5.0,2022-10-26 09:59:26.312500
680,10.19,2022-10-26 09:59:26.328125
681,13.95,2022-10-26 09:59:26.343750
682,16.12,2022-10-26 09:59:26.359375
683,16.91,2022-10-26 09:59:26.375000
684,16.83,2022-10-26 09:59:26.390625
685,16.54,2022-10-26 09:59:26.406250
686,16.58,2022-10-26 09:59:26.421875
687,17.21,2022-10-26 09:59:26.437500
688,18.27,2022-10-26 09:59:26.453125
689,19.41,2022-10-26 09:59:26.468750
690,20.21,2022-10-26 09:59:26.484375
691,20.41,2022-10-26 09:59:26.500000
692,19.87,2022-10-26 09:59:26.515625
693,18.66,2022-10-26 09:59:26.531250
694,16.91,2022-10-26 09:59:26.546875
695,14.79,2022-10-26 09:59:26.562500
696,12.47,2022-10-26 09:59:26.578125
697,10.12,2022-10-26 09:59:26.593750
698,7.85,2022-10-26 09:59:26.609375
699,5.68,2022-10-26 09:59:26.625000
700,3.52,2022-10-26 09:59:26.640625
701,1.22,2022-10-26 09:59:26.656250
702,-1.37,2022-10-26 09:59:26.671875
703,-4.33,2022-10-26 09:59:26.687500
704,-7.62,2022-10-26 09:59:26.703125
705,-11.12,2022-10-26 09:59:26.718750
706,-14.66,2022-10-26 09:59:26.734375
707,-17.99,2022-10-26 09:59:26.750000
708,-20.82,2022-10-26 09:59:26.765625
709,-22.76,2022-10-26 09:59:26.781250
710,-23.38,2022-10-26 09:59:26.796875
711,-22.38,2022-10-26 09:59:26.812500
712,-19.63,2022-10-26 09:59:26.828125
713,-15.36,2022-10-26 09:59:26.843750
714,-10.04,2022-10-26 09:59:26.859375
715,-4.3,2022-10-26 09:59:26.875000
716,1.32,2022-10-26 09:59:26.890625
717,6.48,2022-10-26 09:59:26.906250
718,11.01,2022-10-26 09:59:26.921875
719,14.85,2022-10-26 09:59:26.937500
720,17.87,2022-10-26 09:59:26.953125
721,19.86,2022-10-26 09:59:26.968750
722,20.6,2022-10-26 09:59:26.984375
723,20.04,2022-10-26 09:59:27.000000
724,18.38,2022-10-26 09:59:27.015625
725,16.1,2022-10-26 09:59:27.031250
726,13.78,2022-10-26 09:59:27.046875
727,11.97,2022-10-26 09:59:27.062500
728,10.92,2022-10-26 09:59:27.078125
729,10.52,2022-10-26 09:59:27.093750
730,10.42,2022-10-26 09:59:27.109375
731,10.19,2022-10-26 09:59:27.125000
732,9.54,2022-10-26 09:59:27.140625
733,8.42,2022-10-26 09:59:27.156250
734,6.98,2022-10-26 09:59:27.171875
735,5.46,2022-10-26 09:59:27.187500
736,4.04,2022-10-26 09:59:27.203125
737,2.84,2022-10-26 09:59:27.218750
738,1.84,2022-10-26 09:59:27.234375
739,0.97,2022-10-26 09:59:27.250000
740,0.1,2022-10-26 09:59:27.265625
741,-0.98,2022-10-26 09:59:27.281250
742,-2.59,2022-10-26 09:59:27.296875
743,-5.08,2022-10-26 09:59:27.312500
744,-8.65,2022-10-26 09:59:27.328125
745,-13.19,2022-10-26 09:59:27.343750
746,-18.1,2022-10-26 09:59:27.359375
747,-22.49,2022-10-26 09:59:27.375000
748,-25.31,2022-10-26 09:59:27.390625
749,-25.79,2022-10-26 09:59:27.406250
750,-23.64,2022-10-26 09:59:27.421875
751,-19.15,2022-10-26 09:59:27.437500
752,-13.01,2022-10-26 09:59:27.453125
753,-6.16,2022-10-26 09:59:27.468750
754,0.5,2022-10-26 09:59:27.484375
755,6.29,2022-10-26 09:59:27.500000
756,10.8,2022-10-26 09:59:27.515625
757,13.86,2022-10-26 09:59:27.531250
758,15.56,2022-10-26 09:59:27.546875
759,16.03,2022-10-26 09:59:27.562500
760,15.45,2022-10-26 09:59:27.578125
761,14.0,2022-10-26 09:59:27.593750
762,11.84,2022-10-26 09:59:27.609375
763,9.2,2022-10-26 09:59:27.625000
764,6.38,2022-10-26 09:59:27.640625
765,3.73,2022-10-26 09:59:27.656250
766,1.62,2022-10-26 09:59:27.671875
767,0.26,2022-10-26 09:59:27.687500
768,-0.39,2022-10-26 09:59:27.703125
769,-0.7,2022-10-26 09:59:27.718750
770,-1.14,2022-10-26 09:59:27.734375
771,-2.2,2022-10-26 09:59:27.750000
772,-4.1,2022-10-26 09:59:27.765625
773,-6.69,2022-10-26 09:59:27.781250
774,-9.55,2022-10-26 09:59:27.796875
775,-12.22,2022-10-26 09:59:27.812500
776,-14.36,2022-10-26 09:59:27.828125
777,-15.96,2022-10-26 09:59:27.843750
778,-17.28,2022-10-26 09:59:27.859375
779,-18.75,2022-10-26 09:59:27.875000
780,-20.76,2022-10-26 09:59:27.890625
781,-23.49,2022-10-26 09:59:27.906250
782,-26.96,2022-10-26 09:59:27.921875
783,-30.99,2022-10-26 09:59:27.937500
784,-35.25,2022-10-26 09:59:27.953125
785,-39.3,2022-10-26 09:59:27.968750
786,-42.54,2022-10-26 09:59:27.984375
787,-44.3,2022-10-26 09:59:28.000000
788,-44.03,2022-10-26 09:59:28.015625
789,-41.46,2022-10-26 09:59:28.031250
790,-36.71,2022-10-26 09:59:28.046875
791,-30.34,2022-10-26 09:59:28.062500
792,-23.16,2022-10-26 09:59:28.078125
793,-16.02,2022-10-26 09:59:28.093750
794,-9.63,2022-10-26 09:59:28.109375
795,-4.37,2022-10-26 09:59:28.125000
796,-0.3,2022-10-26 09:59:28.140625
797,2.75,2022-10-26 09:59:28.156250
798,5.06,2022-10-26 09:59:28.171875
799,6.92,2022-10-26 09:59:28.187500
800,8.54,2022-10-26 09:59:28.203125
801,9.98,2022-10-26 09:59:28.218750
802,11.25,2022-10-26 09:59:28.234375
803,12.32,2022-10-26 09:59:28.250000
804,13.19,2022-10-26 09:59:28.265625
805,13.9,2022-10-26 09:59:28.281250
806,14.48,2022-10-26 09:59:28.296875
807,14.87,2022-10-26 09:59:28.312500
808,14.92,2022-10-26 09:59:28.328125
809,14.4,2022-10-26 09:59:28.343750
810,13.13,2022-10-26 09:59:28.359375
811,11.1,2022-10-26 09:59:28.375000
812,8.43,2022-10-26 09:59:28.390625
813,5.4,2022-10-26 09:59:28.406250
814,2.26,2022-10-26 09:59:28.421875
815,-0.86,2022-10-26 09:59:28.437500
816,-4.03,2022-10-26 09:59:28.453125
817,-7.35,2022-10-26 09:59:28.468750
818,-10.89,2022-10-26 09:59:28.484375
819,-14.61,2022-10-26 09:59:28.500000
820,-18.4,2022-10-26 09:59:28.515625
821,-22.15,2022-10-26 09:59:28.531250
822,-25.82,2022-10-26 09:59:28.546875
823,-29.45,2022-10-26 09:59:28.562500
824,-32.95,2022-10-26 09:59:28.578125
825,-36.0,2022-10-26 09:59:28.593750
826,-37.92,2022-10-26 09:59:28.609375
827,-37.92,2022-10-26 09:59:28.625000
828,-35.33,2022-10-26 09:59:28.640625
829,-30.0,2022-10-26 09:59:28.656250
830,-22.44,2022-10-26 09:59:28.671875
831,-13.65,2022-10-26 09:59:28.687500
832,-4.81,2022-10-26 09:59:28.703125
833,3.11,2022-10-26 09:59:28.718750
834,9.62,2022-10-26 09:59:28.734375
835,14.71,2022-10-26 09:59:28.750000
836,18.67,2022-10-26 09:59:28.765625
837,21.77,2022-10-26 09:59:28.781250
838,24.21,2022-10-26 09:59:28.796875
839,25.97,2022-10-26 09:59:28.812500
840,27.0,2022-10-26 09:59:28.828125
841,27.3,2022-10-26 09:59:28.843750
842,26.96,2022-10-26 09:59:28.859375
843,26.14,2022-10-26 09:59:28.875000
844,25.03,2022-10-26 09:59:28.890625
845,23.73,2022-10-26 09:59:28.906250
846,22.31,2022-10-26 09:59:28.921875
847,20.82,2022-10-26 09:59:28.937500
848,19.22,2022-10-26 09:59:28.953125
849,17.44,2022-10-26 09:59:28.968750
850,15.2,2022-10-26 09:59:28.984375
851,12.13,2022-10-26 09:59:29.000000
852,7.85,2022-10-26 09:59:29.015625
853,2.19,2022-10-26 09:59:29.031250
854,-4.63,2022-10-26 09:59:29.046875
855,-12.08,2022-10-26 09:59:29.062500
856,-19.42,2022-10-26 09:59:29.078125
857,-26.06,2022-10-26 09:59:29.093750
858,-31.66,2022-10-26 09:59:29.109375
859,-36.15,2022-10-26 09:59:29.125000
860,-39.6,2022-10-26 09:59:29.140625
861,-42.11,2022-10-26 09:59:29.156250
862,-43.87,2022-10-26 09:59:29.171875
863,-45.24,2022-10-26 09:59:29.187500
864,-46.77,2022-10-26 09:59:29.203125
865,-49.09,2022-10-26 09:59:29.218750
866,-52.46,2022-10-26 09:59:29.234375
867,-56.51,2022-10-26 09:59:29.250000
868,-60.11,2022-10-26 09:59:29.265625
869,-61.74,2022-10-26 09:59:29.281250
870,-60.13,2022-10-26 09:59:29.296875
871,-54.83,2022-10-26 09:59:29.312500
872,-46.41,2022-10-26 09:59:29.328125
873,-36.21,2022-10-26 09:59:29.343750
874,-25.7,2022-10-26 09:59:29.359375
875,-16.02,2022-10-26 09:59:29.375000
876,-7.64,2022-10-26 09:59:29.390625
877,-0.49,2022-10-26 09:59:29.406250
878,5.76,2022-10-26 09:59:29.421875
879,11.41,2022-10-26 09:59:29.437500
880,16.53,2022-10-26 09:59:29.453125
881,21.1,2022-10-26 09:59:29.468750
882,25.05,2022-10-26 09:59:29.484375
883,28.4,2022-10-26 09:59:29.500000
884,31.21,2022-10-26 09:59:29.515625
885,33.6,2022-10-26 09:59:29.531250
886,35.72,2022-10-26 09:59:29.546875
887,37.75,2022-10-26 09:59:29.562500
888,39.82,2022-10-26 09:59:29.578125
889,42.05,2022-10-26 09:59:29.593750
890,44.42,2022-10-26 09:59:29.609375
891,46.84,2022-10-26 09:59:29.625000
892,49.17,2022-10-26 09:59:29.640625
893,51.34,2022-10-26 09:59:29.656250
894,53.35,2022-10-26 09:59:29.671875
895,55.26,2022-10-26 09:59:29.687500
896,57.03,2022-10-26 09:59:29.703125
897,58.42,2022-10-26 09:59:29.718750
898,59.02,2022-10-26 09:59:29.734375
899,58.31,2022-10-26 09:59:29.750000
900,55.94,2022-10-26 09:59:29.765625
901,51.85,2022-10-26 09:59:29.781250
902,46.42,2022-10-26 09:59:29.796875
903,40.3,2022-10-26 09:59:29.812500
904,34.26,2022-10-26 09:59:29.828125
905,28.99,2022-10-26 09:59:29.843750
906,24.94,2022-10-26 09:59:29.859375
907,22.31,2022-10-26 09:59:29.875000
908,21.0,2022-10-26 09:59:29.890625
909,20.71,2022-10-26 09:59:29.906250
910,20.92,2022-10-26 09:59:29.921875
911,20.94,2022-10-26 09:59:29.937500
912,20.15,2022-10-26 09:59:29.953125
913,17.99,2022-10-26 09:59:29.968750
914,14.27,2022-10-26 09:59:29.984375
915,9.18,2022-10-26 09:59:30.000000
916,3.29,2022-10-26 09:59:30.015625
917,-2.62,2022-10-26 09:59:30.031250
918,-7.85,2022-10-26 09:59:30.046875
919,-11.97,2022-10-26 09:59:30.062500
920,-14.98,2022-10-26 09:59:30.078125
921,-17.24,2022-10-26 09:59:30.093750
922,-19.17,2022-10-26 09:59:30.109375
923,-21.03,2022-10-26 09:59:30.125000
924,-22.79,2022-10-26 09:59:30.140625
925,-24.16,2022-10-26 09:59:30.156250
926,-24.89,2022-10-26 09:59:30.171875
927,-25.05,2022-10-26 09:59:30.187500
928,-25.0,2022-10-26 09:59:30.203125
929,-25.35,2022-10-26 09:59:30.218750
930,-26.59,2022-10-26 09:59:30.234375
931,-28.75,2022-10-26 09:59:30.250000
932,-31.41,2022-10-26 09:59:30.265625
933,-33.74,2022-10-26 09:59:30.281250
934,-34.87,2022-10-26 09:59:30.296875
935,-34.23,2022-10-26 09:59:30.312500
936,-31.77,2022-10-26 09:59:30.328125
937,-27.94,2022-10-26 09:59:30.343750
938,-23.64,2022-10-26 09:59:30.359375
939,-19.95,2022-10-26 09:59:30.375000
940,-17.9,2022-10-26 09:59:30.390625
941,-18.07,2022-10-26 09:59:30.406250
942,-20.45,2022-10-26 09:59:30.421875
943,-24.22,2022-10-26 09:59:30.437500
944,-27.95,2022-10-26 09:59:30.453125
945,-30.06,2022-10-26 09:59:30.468750
946,-29.33,2022-10-26 09:59:30.484375
947,-25.38,2022-10-26 09:59:30.500000
948,-18.79,2022-10-26 09:59:30.515625
949,-10.75,2022-10-26 09:59:30.531250
950,-2.5,2022-10-26 09:59:30.546875
951,5.17,2022-10-26 09:59:30.562500
952,12.11,2022-10-26 09:59:30.578125
953,18.63,2022-10-26 09:59:30.593750
954,25.12,2022-10-26 09:59:30.609375
955,31.64,2022-10-26 09:59:30.625000
956,37.86,2022-10-26 09:59:30.640625
957,43.13,2022-10-26 09:59:30.656250
958,46.92,2022-10-26 09:59:30.671875
959,49.04,2022-10-26 09:59:30.687500
960,49.74,2022-10-26 09:59:30.703125
961,49.63,2022-10-26 09:59:30.718750
962,49.5,2022-10-26 09:59:30.734375
963,49.93,2022-10-26 09:59:30.750000
964,51.21,2022-10-26 09:59:30.765625
965,53.21,2022-10-26 09:59:30.781250
966,55.54,2022-10-26 09:59:30.796875
967,57.73,2022-10-26 09:59:30.812500
968,59.44,2022-10-26 09:59:30.828125
969,60.65,2022-10-26 09:59:30.843750
970,61.63,2022-10-26 09:59:30.859375
971,62.85,2022-10-26 09:59:30.875000
972,64.75,2022-10-26 09:59:30.890625
973,67.54,2022-10-26 09:59:30.906250
974,71.04,2022-10-26 09:59:30.921875
975,74.67,2022-10-26 09:59:30.937500
976,77.57,2022-10-26 09:59:30.953125
977,78.62,2022-10-26 09:59:30.968750
978,76.65,2022-10-26 09:59:30.984375
979,70.69,2022-10-26 09:59:31.000000
980,60.45,2022-10-26 09:59:31.015625
981,46.72,2022-10-26 09:59:31.031250
982,31.51,2022-10-26 09:59:31.046875
983,17.57,2022-10-26 09:59:31.062500
984,7.49,2022-10-26 09:59:31.078125
985,2.71,2022-10-26 09:59:31.093750
986,2.93,2022-10-26 09:59:31.109375
987,6.35,2022-10-26 09:59:31.125000
988,10.46,2022-10-26 09:59:31.140625
989,13.11,2022-10-26 09:59:31.156250
990,13.09,2022-10-26 09:59:31.171875
991,10.26,2022-10-26 09:59:31.187500
992,5.12,2022-10-26 09:59:31.203125
993,-1.64,2022-10-26 09:59:31.218750
994,-9.31,2022-10-26 09:59:31.234375
995,-17.21,2022-10-26 09:59:31.250000
996,-24.49,2022-10-26 09:59:31.265625
997,-30.33,2022-10-26 09:59:31.281250
998,-34.12,2022-10-26 09:59:31.296875
999,-35.7,2022-10-26 09:59:31.312500
1000,-35.26,2022-10-26 09:59:31.328125
1001,-33.01,2022-10-26 09:59:31.343750
1002,-28.99,2022-10-26 09:59:31.359375
1003,-23.02,2022-10-26 09:59:31.375000
1004,-15.13,2022-10-26 09:59:31.390625
1005,-5.9,2022-10-26 09:59:31.406250
1006,3.27,2022-10-26 09:59:31.421875
1007,10.58,2022-10-26 09:59:31.437500
1008,14.46,2022-10-26 09:59:31.453125
1009,14.18,2022-10-26 09:59:31.468750
1010,10.05,2022-10-26 09:59:31.484375
1011,3.08,2022-10-26 09:59:31.500000
1012,-5.5,2022-10-26 09:59:31.515625
1013,-14.63,2022-10-26 09:59:31.531250
1014,-23.37,2022-10-26 09:59:31.546875
1015,-30.89,2022-10-26 09:59:31.562500
1016,-36.23,2022-10-26 09:59:31.578125
1017,-38.46,2022-10-26 09:59:31.593750
1018,-36.84,2022-10-26 09:59:31.609375
1019,-31.04,2022-10-26 09:59:31.625000
1020,-21.33,2022-10-26 09:59:31.640625
1021,-8.6,2022-10-26 09:59:31.656250
1022,5.57,2022-10-26 09:59:31.671875
1023,19.12,2022-10-26 09:59:31.687500
1024,29.74,2022-10-26 09:59:31.703125
1025,35.47,2022-10-26 09:59:31.718750
1026,35.38,2022-10-26 09:59:31.734375
1027,29.86,2022-10-26 09:59:31.750000
1028,20.62,2022-10-26 09:59:31.765625
1029,9.87,2022-10-26 09:59:31.781250
1030,-0.42,2022-10-26 09:59:31.796875
1031,-9.19,2022-10-26 09:59:31.812500
1032,-16.25,2022-10-26 09:59:31.828125
1033,-21.88,2022-10-26 09:59:31.843750
1034,-26.31,2022-10-26 09:59:31.859375
1035,-29.51,2022-10-26 09:59:31.875000
1036,-31.24,2022-10-26 09:59:31.890625
1037,-31.45,2022-10-26 09:59:31.906250
1038,-30.53,2022-10-26 09:59:31.921875
1039,-29.22,2022-10-26 09:59:31.937500
1040,-28.5,2022-10-26 09:59:31.953125
1041,-29.35,2022-10-26 09:59:31.968750
1042,-32.4,2022-10-26 09:59:31.984375
1043,-37.8,2022-10-26 09:59:32.000000
1044,-44.95,2022-10-26 09:59:32.015625
1045,-52.55,2022-10-26 09:59:32.031250
1046,-58.89,2022-10-26 09:59:32.046875
1047,-62.38,2022-10-26 09:59:32.062500
1048,-62.3,2022-10-26 09:59:32.078125
1049,-59.23,2022-10-26 09:59:32.093750
1050,-54.99,2022-10-26 09:59:32.109375
1051,-51.97,2022-10-26 09:59:32.125000
1052,-52.11,2022-10-26 09:59:32.140625
1053,-56.1,2022-10-26 09:59:32.156250
1054,-63.04,2022-10-26 09:59:32.171875
1055,-70.83,2022-10-26 09:59:32.187500
1056,-76.96,2022-10-26 09:59:32.203125
1057,-79.46,2022-10-26 09:59:32.218750
1058,-77.48,2022-10-26 09:59:32.234375
1059,-71.34,2022-10-26 09:59:32.250000
1060,-62.11,2022-10-26 09:59:32.265625
1061,-51.12,2022-10-26 09:59:32.281250
1062,-39.48,2022-10-26 09:59:32.296875
1063,-28.0,2022-10-26 09:59:32.312500
1064,-17.25,2022-10-26 09:59:32.328125
1065,-7.71,2022-10-26 09:59:32.343750
1066,0.23,2022-10-26 09:59:32.359375
1067,6.43,2022-10-26 09:59:32.375000
1068,11.01,2022-10-26 09:59:32.390625
1069,14.41,2022-10-26 09:59:32.406250
1070,17.1,2022-10-26 09:59:32.421875
1071,19.36,2022-10-26 09:59:32.437500
1072,21.17,2022-10-26 09:59:32.453125
1073,22.2,2022-10-26 09:59:32.468750
1074,22.18,2022-10-26 09:59:32.484375
1075,21.05,2022-10-26 09:59:32.500000
1076,19.15,2022-10-26 09:59:32.515625
1077,17.08,2022-10-26 09:59:32.531250
1078,15.45,2022-10-26 09:59:32.546875
1079,14.59,2022-10-26 09:59:32.562500
1080,14.52,2022-10-26 09:59:32.578125
1081,15.01,2022-10-26 09:59:32.593750
1082,15.66,2022-10-26 09:59:32.609375
1083,16.02,2022-10-26 09:59:32.625000
1084,15.73,2022-10-26 09:59:32.640625
1085,14.55,2022-10-26 09:59:32.656250
1086,12.36,2022-10-26 09:59:32.671875
1087,9.19,2022-10-26 09:59:32.687500
1088,5.2,2022-10-26 09:59:32.703125
1089,0.67,2022-10-26 09:59:32.718750
1090,-4.03,2022-10-26 09:59:32.734375
1091,-8.42,2022-10-26 09:59:32.750000
1092,-11.89,2022-10-26 09:59:32.765625
1093,-13.83,2022-10-26 09:59:32.781250
1094,-13.67,2022-10-26 09:59:32.796875
1095,-11.13,2022-10-26 09:59:32.812500
1096,-6.28,2022-10-26 09:59:32.828125
1097,0.5,2022-10-26 09:59:32.843750
1098,8.53,2022-10-26 09:59:32.859375
1099,17.07,2022-10-26 09:59:32.875000
1100,25.49,2022-10-26 09:59:32.890625
1101,33.3,2022-10-26 09:59:32.906250
1102,40.2,2022-10-26 09:59:32.921875
1103,46.02,2022-10-26 09:59:32.937500
1104,50.6,2022-10-26 09:59:32.953125
1105,53.73,2022-10-26 09:59:32.968750
1106,55.19,2022-10-26 09:59:32.984375
1107,54.83,2022-10-26 09:59:33.000000
1108,52.75,2022-10-26 09:59:33.015625
1109,49.4,2022-10-26 09:59:33.031250
1110,45.48,2022-10-26 09:59:33.046875
1111,41.72,2022-10-26 09:59:33.062500
1112,38.59,2022-10-26 09:59:33.078125
1113,36.08,2022-10-26 09:59:33.093750
1114,33.74,2022-10-26 09:59:33.109375
1115,30.99,2022-10-26 09:59:33.125000
1116,27.46,2022-10-26 09:59:33.140625
1117,23.28,2022-10-26 09:59:33.156250
1118,19.1,2022-10-26 09:59:33.171875
1119,15.71,2022-10-26 09:59:33.187500
1120,13.74,2022-10-26 09:59:33.203125
1121,13.32,2022-10-26 09:59:33.218750
1122,13.98,2022-10-26 09:59:33.234375
1123,14.86,2022-10-26 09:59:33.250000
1124,14.96,2022-10-26 09:59:33.265625
1125,13.39,2022-10-26 09:59:33.281250
1126,9.53,2022-10-26 09:59:33.296875
1127,3.07,2022-10-26 09:59:33.312500
1128,-5.84,2022-10-26 09:59:33.328125
1129,-16.55,2022-10-26 09:59:33.343750
1130,-27.86,2022-10-26 09:59:33.359375
1131,-38.16,2022-10-26 09:59:33.375000
1132,-45.72,2022-10-26 09:59:33.390625
1133,-49.23,2022-10-26 09:59:33.406250
1134,-48.3,2022-10-26 09:59:33.421875
1135,-43.65,2022-10-26 09:59:33.437500
1136,-37.0,2022-10-26 09:59:33.453125
1137,-30.41,2022-10-26 09:59:33.468750
1138,-25.54,2022-10-26 09:59:33.484375
1139,-23.1,2022-10-26 09:59:33.500000
1140,-22.77,2022-10-26 09:59:33.515625
1141,-23.61,2022-10-26 09:59:33.531250
1142,-24.6,2022-10-26 09:59:33.546875
1143,-25.16,2022-10-26 09:59:33.562500
1144,-25.33,2022-10-26 09:59:33.578125
1145,-25.51,2022-10-26 09:59:33.593750
1146,-26.18,2022-10-26 09:59:33.609375
1147,-27.56,2022-10-26 09:59:33.625000
1148,-29.53,2022-10-26 09:59:33.640625
1149,-31.8,2022-10-26 09:59:33.656250
1150,-34.12,2022-10-26 09:59:33.671875
1151,-36.43,2022-10-26 09:59:33.687500
1152,-38.85,2022-10-26 09:59:33.703125
1153,-41.57,2022-10-26 09:59:33.718750
1154,-44.7,2022-10-26 09:59:33.734375
1155,-48.23,2022-10-26 09:59:33.750000
1156,-52.08,2022-10-26 09:59:33.765625
1157,-56.15,2022-10-26 09:59:33.781250
1158,-60.36,2022-10-26 09:59:33.796875
1159,-64.68,2022-10-26 09:59:33.812500
1160,-69.11,2022-10-26 09:59:33.828125
1161,-73.65,2022-10-26 09:59:33.843750
1162,-78.24,2022-10-26 09:59:33.859375
1163,-82.73,2022-10-26 09:59:33.875000
1164,-86.93,2022-10-26 09:59:33.890625
1165,-90.59,2022-10-26 09:59:33.906250
1166,-93.46,2022-10-26 09:59:33.921875
1167,-95.31,2022-10-26 09:59:33.937500
1168,-95.88,2022-10-26 09:59:33.953125
1169,-94.77,2022-10-26 09:59:33.968750
1170,-91.41,2022-10-26 09:59:33.984375
1171,-85.06,2022-10-26 09:59:34.000000
1172,-75.02,2022-10-26 09:59:34.015625
1173,-60.91,2022-10-26 09:59:34.031250
1174,-42.98,2022-10-26 09:59:34.046875
1175,-22.21,2022-10-26 09:59:34.062500
1176,-0.24,2022-10-26 09:59:34.078125
1177,21.09,2022-10-26 09:59:34.093750
1178,40.23,2022-10-26 09:59:34.109375
1179,56.45,2022-10-26 09:59:34.125000
1180,69.93,2022-10-26 09:59:34.140625
1181,81.55,2022-10-26 09:59:34.156250
1182,92.37,2022-10-26 09:59:34.171875
1183,103.09,2022-10-26 09:59:34.187500
1184,113.73,2022-10-26 09:59:34.203125
1185,123.72,2022-10-26 09:59:34.218750
1186,132.22,2022-10-26 09:59:34.234375
1187,138.61,2022-10-26 09:59:34.250000
1188,142.73,2022-10-26 09:59:34.265625
1189,144.72,2022-10-26 09:59:34.281250
1190,144.81,2022-10-26 09:59:34.296875
1191,143.0,2022-10-26 09:59:34.312500
1192,139.03,2022-10-26 09:59:34.328125
1193,132.63,2022-10-26 09:59:34.343750
1194,123.86,2022-10-26 09:59:34.359375
1195,113.31,2022-10-26 09:59:34.375000
1196,102.08,2022-10-26 09:59:34.390625
1197,91.37,2022-10-26 09:59:34.406250
1198,82.16,2022-10-26 09:59:34.421875
1199,74.85,2022-10-26 09:59:34.437500
1200,69.24,2022-10-26 09:59:34.453125
1201,64.6,2022-10-26 09:59:34.468750
1202,59.99,2022-10-26 09:59:34.484375
1203,54.47,2022-10-26 09:59:34.500000
1204,47.39,2022-10-26 09:59:34.515625
1205,38.56,2022-10-26 09:59:34.531250
1206,28.26,2022-10-26 09:59:34.546875
1207,17.27,2022-10-26 09:59:34.562500
1208,6.65,2022-10-26 09:59:34.578125
1209,-2.48,2022-10-26 09:59:34.593750
1210,-9.18,2022-10-26 09:59:34.609375
1211,-12.9,2022-10-26 09:59:34.625000
1212,-13.56,2022-10-26 09:59:34.640625
1213,-11.48,2022-10-26 09:59:34.656250
1214,-7.3,2022-10-26 09:59:34.671875
1215,-1.85,2022-10-26 09:59:34.687500
1216,4.06,2022-10-26 09:59:34.703125
1217,9.78,2022-10-26 09:59:34.718750
1218,14.82,2022-10-26 09:59:34.734375
1219,18.93,2022-10-26 09:59:34.750000
1220,21.98,2022-10-26 09:59:34.765625
1221,23.81,2022-10-26 09:59:34.781250
1222,24.21,2022-10-26 09:59:34.796875
1223,22.91,2022-10-26 09:59:34.812500
1224,19.68,2022-10-26 09:59:34.828125
1225,14.49,2022-10-26 09:59:34.843750
1226,7.54,2022-10-26 09:59:34.859375
1227,-0.75,2022-10-26 09:59:34.875000
1228,-9.85,2022-10-26 09:59:34.890625
1229,-19.34,2022-10-26 09:59:34.906250
1230,-28.9,2022-10-26 09:59:34.921875
1231,-38.37,2022-10-26 09:59:34.937500
1232,-47.56,2022-10-26 09:59:34.953125
1233,-56.17,2022-10-26 09:59:34.968750
1234,-63.63,2022-10-26 09:59:34.984375
1235,-69.22,2022-10-26 09:59:35.000000
1236,-72.22,2022-10-26 09:59:35.015625
1237,-72.21,2022-10-26 09:59:35.031250
1238,-69.41,2022-10-26 09:59:35.046875
1239,-64.67,2022-10-26 09:59:35.062500
1240,-59.34,2022-10-26 09:59:35.078125
1241,-54.93,2022-10-26 09:59:35.093750
1242,-52.54,2022-10-26 09:59:35.109375
1243,-52.46,2022-10-26 09:59:35.125000
1244,-54.11,2022-10-26 09:59:35.140625
1245,-56.18,2022-10-26 09:59:35.156250
1246,-57.14,2022-10-26 09:59:35.171875
1247,-55.89,2022-10-26 09:59:35.187500
1248,-52.0,2022-10-26 09:59:35.203125
1249,-45.85,2022-10-26 09:59:35.218750
1250,-38.41,2022-10-26 09:59:35.234375
1251,-30.75,2022-10-26 09:59:35.250000
1252,-23.72,2022-10-26 09:59:35.265625
1253,-17.77,2022-10-26 09:59:35.281250
1254,-12.96,2022-10-26 09:59:35.296875
1255,-9.11,2022-10-26 09:59:35.312500
1256,-5.95,2022-10-26 09:59:35.328125
1257,-3.13,2022-10-26 09:59:35.343750
1258,-0.27,2022-10-26 09:59:35.359375
1259,2.99,2022-10-26 09:59:35.375000
1260,6.84,2022-10-26 09:59:35.390625
1261,11.27,2022-10-26 09:59:35.406250
1262,15.97,2022-10-26 09:59:35.421875
1263,20.59,2022-10-26 09:59:35.437500
1264,24.91,2022-10-26 09:59:35.453125
1265,29.06,2022-10-26 09:59:35.468750
1266,33.42,2022-10-26 09:59:35.484375
1267,38.43,2022-10-26 09:59:35.500000
1268,44.28,2022-10-26 09:59:35.515625
1269,50.8,2022-10-26 09:59:35.531250
1270,57.39,2022-10-26 09:59:35.546875
1271,63.15,2022-10-26 09:59:35.562500
1272,67.14,2022-10-26 09:59:35.578125
1273,68.46,2022-10-26 09:59:35.593750
1274,66.45,2022-10-26 09:59:35.609375
1275,60.83,2022-10-26 09:59:35.625000
1276,51.84,2022-10-26 09:59:35.640625
1277,40.2,2022-10-26 09:59:35.656250
1278,27.07,2022-10-26 09:59:35.671875
1279,13.71,2022-10-26 09:59:35.687500
1280,1.31,2022-10-26 09:59:35.703125
1281,-9.15,2022-10-26 09:59:35.718750
1282,-16.98,2022-10-26 09:59:35.734375
1283,-21.75,2022-10-26 09:59:35.750000
1284,-23.35,2022-10-26 09:59:35.765625
1285,-22.05,2022-10-26 09:59:35.781250
1286,-18.53,2022-10-26 09:59:35.796875
1287,-13.76,2022-10-26 09:59:35.812500
1288,-8.74,2022-10-26 09:59:35.828125
1289,-4.21,2022-10-26 09:59:35.843750
1290,-0.52,2022-10-26 09:59:35.859375
1291,2.3,2022-10-26 09:59:35.875000
1292,4.3,2022-10-26 09:59:35.890625
1293,5.41,2022-10-26 09:59:35.906250
1294,5.41,2022-10-26 09:59:35.921875
1295,4.14,2022-10-26 09:59:35.937500
1296,1.6,2022-10-26 09:59:35.953125
1297,-1.85,2022-10-26 09:59:35.968750
1298,-5.7,2022-10-26 09:59:35.984375
1299,-9.4,2022-10-26 09:59:36.000000
1300,-12.58,2022-10-26 09:59:36.015625
1301,-15.03,2022-10-26 09:59:36.031250
1302,-16.71,2022-10-26 09:59:36.046875
1303,-17.61,2022-10-26 09:59:36.062500
1304,-17.76,2022-10-26 09:59:36.078125
1305,-17.26,2022-10-26 09:59:36.093750
1306,-16.35,2022-10-26 09:59:36.109375
1307,-15.4,2022-10-26 09:59:36.125000
1308,-14.77,2022-10-26 09:59:36.140625
1309,-14.68,2022-10-26 09:59:36.156250
1310,-15.02,2022-10-26 09:59:36.171875
1311,-15.45,2022-10-26 09:59:36.187500
1312,-15.54,2022-10-26 09:59:36.203125
1313,-14.97,2022-10-26 09:59:36.218750
1314,-13.73,2022-10-26 09:59:36.234375
1315,-12.12,2022-10-26 09:59:36.250000
1316,-10.69,2022-10-26 09:59:36.265625
1317,-10.06,2022-10-26 09:59:36.281250
1318,-10.64,2022-10-26 09:59:36.296875
1319,-12.51,2022-10-26 09:59:36.312500
1320,-15.29,2022-10-26 09:59:36.328125
1321,-18.26,2022-10-26 09:59:36.343750
1322,-20.5,2022-10-26 09:59:36.359375
1323,-21.21,2022-10-26 09:59:36.375000
1324,-19.96,2022-10-26 09:59:36.390625
1325,-16.81,2022-10-26 09:59:36.406250
1326,-12.26,2022-10-26 09:59:36.421875
1327,-7.02,2022-10-26 09:59:36.437500
1328,-1.74,2022-10-26 09:59:36.453125
1329,3.07,2022-10-26 09:59:36.468750
1330,7.09,2022-10-26 09:59:36.484375
1331,10.07,2022-10-26 09:59:36.500000
1332,11.78,2022-10-26 09:59:36.515625
1333,11.99,2022-10-26 09:59:36.531250
1334,10.78,2022-10-26 09:59:36.546875
1335,8.53,2022-10-26 09:59:36.562500
1336,5.98,2022-10-26 09:59:36.578125
1337,3.99,2022-10-26 09:59:36.593750
1338,3.32,2022-10-26 09:59:36.609375
1339,4.34,2022-10-26 09:59:36.625000
1340,6.98,2022-10-26 09:59:36.640625
1341,10.65,2022-10-26 09:59:36.656250
1342,14.54,2022-10-26 09:59:36.671875
1343,17.74,2022-10-26 09:59:36.687500
1344,19.55,2022-10-26 09:59:36.703125
1345,19.67,2022-10-26 09:59:36.718750
1346,18.36,2022-10-26 09:59:36.734375
1347,16.26,2022-10-26 09:59:36.750000
1348,14.17,2022-10-26 09:59:36.765625
1349,12.64,2022-10-26 09:59:36.781250
1350,11.76,2022-10-26 09:59:36.796875
1351,11.15,2022-10-26 09:59:36.812500
1352,10.21,2022-10-26 09:59:36.828125
1353,8.46,2022-10-26 09:59:36.843750
1354,5.86,2022-10-26 09:59:36.859375
1355,2.76,2022-10-26 09:59:36.875000
1356,-0.27,2022-10-26 09:59:36.890625
1357,-2.73,2022-10-26 09:59:36.906250
1358,-4.37,2022-10-26 09:59:36.921875
1359,-5.13,2022-10-26 09:59:36.937500
1360,-5.02,2022-10-26 09:59:36.953125
1361,-3.96,2022-10-26 09:59:36.968750
1362,-1.78,2022-10-26 09:59:36.984375
1363,1.58,2022-10-26 09:59:37.000000
1364,5.93,2022-10-26 09:59:37.015625
1365,10.79,2022-10-26 09:59:37.031250
1366,15.43,2022-10-26 09:59:37.046875
1367,19.16,2022-10-26 09:59:37.062500
1368,21.56,2022-10-26 09:59:37.078125
1369,22.61,2022-10-26 09:59:37.093750
1370,22.62,2022-10-26 09:59:37.109375
1371,21.98,2022-10-26 09:59:37.125000
1372,21.02,2022-10-26 09:59:37.140625
1373,19.86,2022-10-26 09:59:37.156250
1374,18.49,2022-10-26 09:59:37.171875
1375,16.87,2022-10-26 09:59:37.187500
1376,15.12,2022-10-26 09:59:37.203125
1377,13.47,2022-10-26 09:59:37.218750
1378,12.14,2022-10-26 09:59:37.234375
1379,11.13,2022-10-26 09:59:37.250000
1380,10.11,2022-10-26 09:59:37.265625
1381,8.47,2022-10-26 09:59:37.281250
1382,5.52,2022-10-26 09:59:37.296875
1383,0.88,2022-10-26 09:59:37.312500
1384,-5.33,2022-10-26 09:59:37.328125
1385,-12.37,2022-10-26 09:59:37.343750
1386,-19.24,2022-10-26 09:59:37.359375
1387,-25.0,2022-10-26 09:59:37.375000
1388,-29.15,2022-10-26 09:59:37.390625
1389,-31.82,2022-10-26 09:59:37.406250
1390,-33.59,2022-10-26 09:59:37.421875
1391,-35.21,2022-10-26 09:59:37.437500
1392,-37.22,2022-10-26 09:59:37.453125
1393,-39.87,2022-10-26 09:59:37.468750
1394,-43.01,2022-10-26 09:59:37.484375
1395,-46.2,2022-10-26 09:59:37.500000
1396,-48.96,2022-10-26 09:59:37.515625
1397,-50.8,2022-10-26 09:59:37.531250
1398,-51.39,2022-10-26 09:59:37.546875
1399,-50.52,2022-10-26 09:59:37.562500
1400,-48.12,2022-10-26 09:59:37.578125
1401,-44.14,2022-10-26 09:59:37.593750
1402,-38.54,2022-10-26 09:59:37.609375
1403,-31.4,2022-10-26 09:59:37.625000
1404,-23.0,2022-10-26 09:59:37.640625
1405,-13.98,2022-10-26 09:59:37.656250
1406,-5.26,2022-10-26 09:59:37.671875
1407,2.23,2022-10-26 09:59:37.687500
1408,7.89,2022-10-26 09:59:37.703125
1409,11.74,2022-10-26 09:59:37.718750
1410,14.44,2022-10-26 09:59:37.734375
1411,16.87,2022-10-26 09:59:37.750000
1412,19.7,2022-10-26 09:59:37.765625
1413,23.02,2022-10-26 09:59:37.781250
1414,26.32,2022-10-26 09:59:37.796875
1415,28.83,2022-10-26 09:59:37.812500
1416,29.92,2022-10-26 09:59:37.828125
1417,29.41,2022-10-26 09:59:37.843750
1418,27.63,2022-10-26 09:59:37.859375
1419,25.17,2022-10-26 09:59:37.875000
1420,22.59,2022-10-26 09:59:37.890625
1421,20.17,2022-10-26 09:59:37.906250
1422,17.86,2022-10-26 09:59:37.921875
1423,15.37,2022-10-26 09:59:37.937500
1424,12.4,2022-10-26 09:59:37.953125
1425,8.8,2022-10-26 09:59:37.968750
1426,4.61,2022-10-26 09:59:37.984375
1427,0.07,2022-10-26 09:59:38.000000
1428,-4.58,2022-10-26 09:59:38.015625
1429,-9.12,2022-10-26 09:59:38.031250
1430,-13.45,2022-10-26 09:59:38.046875
1431,-17.5,2022-10-26 09:59:38.062500
1432,-21.08,2022-10-26 09:59:38.078125
1433,-23.8,2022-10-26 09:59:38.093750
1434,-25.17,2022-10-26 09:59:38.109375
1435,-24.71,2022-10-26 09:59:38.125000
1436,-22.21,2022-10-26 09:59:38.140625
1437,-17.88,2022-10-26 09:59:38.156250
1438,-12.32,2022-10-26 09:59:38.171875
1439,-6.33,2022-10-26 09:59:38.187500
1440,-0.64,2022-10-26 09:59:38.203125
1441,4.31,2022-10-26 09:59:38.218750
1442,8.42,2022-10-26 09:59:38.234375
1443,11.8,2022-10-26 09:59:38.250000
1444,14.66,2022-10-26 09:59:38.265625
1445,17.07,2022-10-26 09:59:38.281250
1446,18.96,2022-10-26 09:59:38.296875
1447,20.2,2022-10-26 09:59:38.312500
1448,20.74,2022-10-26 09:59:38.328125
1449,20.68,2022-10-26 09:59:38.343750
1450,20.31,2022-10-26 09:59:38.359375
1451,20.01,2022-10-26 09:59:38.375000
1452,20.07,2022-10-26 09:59:38.390625
1453,20.55,2022-10-26 09:59:38.406250
1454,21.26,2022-10-26 09:59:38.421875
1455,21.85,2022-10-26 09:59:38.437500
1456,22.01,2022-10-26 09:59:38.453125
1457,21.65,2022-10-26 09:59:38.468750
1458,20.9,2022-10-26 09:59:38.484375
1459,20.06,2022-10-26 09:59:38.500000
1460,19.41,2022-10-26 09:59:38.515625
1461,19.07,2022-10-26 09:59:38.531250
1462,18.92,2022-10-26 09:59:38.546875
1463,18.67,2022-10-26 09:59:38.562500
1464,18.06,2022-10-26 09:59:38.578125
1465,17.0,2022-10-26 09:59:38.593750
1466,15.57,2022-10-26 09:59:38.609375
1467,14.05,2022-10-26 09:59:38.625000
1468,12.77,2022-10-26 09:59:38.640625
1469,12.06,2022-10-26 09:59:38.656250
1470,12.14,2022-10-26 09:59:38.671875
1471,13.1,2022-10-26 09:59:38.687500
1472,14.93,2022-10-26 09:59:38.703125
1473,17.53,2022-10-26 09:59:38.718750
1474,20.68,2022-10-26 09:59:38.734375
1475,24.18,2022-10-26 09:59:38.750000
1476,27.92,2022-10-26 09:59:38.765625
1477,31.82,2022-10-26 09:59:38.781250
1478,35.88,2022-10-26 09:59:38.796875
1479,39.95,2022-10-26 09:59:38.812500
1480,43.78,2022-10-26 09:59:38.828125
1481,46.86,2022-10-26 09:59:38.843750
1482,48.62,2022-10-26 09:59:38.859375
1483,48.68,2022-10-26 09:59:38.875000
1484,47.05,2022-10-26 09:59:38.890625
1485,44.22,2022-10-26 09:59:38.906250
1486,41.06,2022-10-26 09:59:38.921875
1487,38.61,2022-10-26 09:59:38.937500
1488,37.67,2022-10-26 09:59:38.953125
1489,38.69,2022-10-26 09:59:38.968750
1490,41.54,2022-10-26 09:59:38.984375
1491,45.69,2022-10-26 09:59:39.000000
1492,50.4,2022-10-26 09:59:39.015625
1493,54.97,2022-10-26 09:59:39.031250
1494,58.97,2022-10-26 09:59:39.046875
1495,62.3,2022-10-26 09:59:39.062500
1496,65.01,2022-10-26 09:59:39.078125
1497,67.16,2022-10-26 09:59:39.093750
1498,68.61,2022-10-26 09:59:39.109375
1499,69.11,2022-10-26 09:59:39.125000
1500,68.41,2022-10-26 09:59:39.140625
1501,66.51,2022-10-26 09:59:39.156250
1502,63.74,2022-10-26 09:59:39.171875
1503,60.65,2022-10-26 09:59:39.187500
1504,57.77,2022-10-26 09:59:39.203125
1505,55.44,2022-10-26 09:59:39.218750
1506,53.72,2022-10-26 09:59:39.234375
1507,52.49,2022-10-26 09:59:39.250000
1508,51.52,2022-10-26 09:59:39.265625
1509,50.51,2022-10-26 09:59:39.281250
1510,49.05,2022-10-26 09:59:39.296875
1511,46.63,2022-10-26 09:59:39.312500
1512,42.89,2022-10-26 09:59:39.328125
1513,37.81,2022-10-26 09:59:39.343750
1514,32.0,2022-10-26 09:59:39.359375
1515,26.6,2022-10-26 09:59:39.375000
1516,22.87,2022-10-26 09:59:39.390625
1517,21.53,2022-10-26 09:59:39.406250
1518,22.33,2022-10-26 09:59:39.421875
1519,24.05,2022-10-26 09:59:39.437500
1520,24.86,2022-10-26 09:59:39.453125
1521,23.08,2022-10-26 09:59:39.468750
1522,17.63,2022-10-26 09:59:39.484375
1523,8.35,2022-10-26 09:59:39.500000
1524,-4.11,2022-10-26 09:59:39.515625
1525,-18.56,2022-10-26 09:59:39.531250
1526,-33.55,2022-10-26 09:59:39.546875
1527,-47.62,2022-10-26 09:59:39.562500
1528,-59.46,2022-10-26 09:59:39.578125
1529,-68.16,2022-10-26 09:59:39.593750
1530,-73.26,2022-10-26 09:59:39.609375
1531,-74.81,2022-10-26 09:59:39.625000
1532,-73.16,2022-10-26 09:59:39.640625
1533,-68.83,2022-10-26 09:59:39.656250
1534,-62.61,2022-10-26 09:59:39.671875
1535,-55.84,2022-10-26 09:59:39.687500
1536,-50.61,2022-10-26 09:59:39.703125
1537,-49.49,2022-10-26 09:59:39.718750
1538,-54.74,2022-10-26 09:59:39.734375
1539,-67.2,2022-10-26 09:59:39.750000
1540,-85.48,2022-10-26 09:59:39.765625
1541,-106.08,2022-10-26 09:59:39.781250
1542,-124.53,2022-10-26 09:59:39.796875
1543,-137.1,2022-10-26 09:59:39.812500
1544,-142.29,2022-10-26 09:59:39.828125
1545,-141.19,2022-10-26 09:59:39.843750
1546,-136.64,2022-10-26 09:59:39.859375
1547,-131.81,2022-10-26 09:59:39.875000
1548,-128.66,2022-10-26 09:59:39.890625
1549,-127.52,2022-10-26 09:59:39.906250
1550,-127.41,2022-10-26 09:59:39.921875
1551,-127.13,2022-10-26 09:59:39.937500
1552,-126.17,2022-10-26 09:59:39.953125
1553,-125.01,2022-10-26 09:59:39.968750
1554,-124.83,2022-10-26 09:59:39.984375
1555,-126.55,2022-10-26 09:59:40.000000
1556,-129.96,2022-10-26 09:59:40.015625
1557,-133.53,2022-10-26 09:59:40.031250
1558,-134.9,2022-10-26 09:59:40.046875
1559,-131.95,2022-10-26 09:59:40.062500
1560,-123.84,2022-10-26 09:59:40.078125
1561,-111.42,2022-10-26 09:59:40.093750
1562,-96.82,2022-10-26 09:59:40.109375
1563,-82.48,2022-10-26 09:59:40.125000
1564,-70.16,2022-10-26 09:59:40.140625
1565,-60.46,2022-10-26 09:59:40.156250
1566,-52.85,2022-10-26 09:59:40.171875
1567,-46.27,2022-10-26 09:59:40.187500
1568,-39.72,2022-10-26 09:59:40.203125
1569,-32.64,2022-10-26 09:59:40.218750
1570,-25.0,2022-10-26 09:59:40.234375
1571,-17.13,2022-10-26 09:59:40.250000
1572,-9.59,2022-10-26 09:59:40.265625
1573,-2.95,2022-10-26 09:59:40.281250
1574,2.25,2022-10-26 09:59:40.296875
1575,5.62,2022-10-26 09:59:40.312500
1576,6.99,2022-10-26 09:59:40.328125
1577,6.39,2022-10-26 09:59:40.343750
1578,4.05,2022-10-26 09:59:40.359375
1579,0.33,2022-10-26 09:59:40.375000
1580,-4.16,2022-10-26 09:59:40.390625
1581,-8.61,2022-10-26 09:59:40.406250
1582,-12.0,2022-10-26 09:59:40.421875
1583,-13.25,2022-10-26 09:59:40.437500
1584,-11.61,2022-10-26 09:59:40.453125
1585,-6.94,2022-10-26 09:59:40.468750
1586,0.24,2022-10-26 09:59:40.484375
1587,8.84,2022-10-26 09:59:40.500000
1588,17.59,2022-10-26 09:59:40.515625
1589,25.38,2022-10-26 09:59:40.531250
1590,31.5,2022-10-26 09:59:40.546875
1591,35.67,2022-10-26 09:59:40.562500
1592,38.03,2022-10-26 09:59:40.578125
1593,38.9,2022-10-26 09:59:40.593750
1594,38.71,2022-10-26 09:59:40.609375
1595,37.84,2022-10-26 09:59:40.625000
1596,36.68,2022-10-26 09:59:40.640625
1597,35.53,2022-10-26 09:59:40.656250
1598,34.67,2022-10-26 09:59:40.671875
1599,34.16,2022-10-26 09:59:40.687500
1600,33.91,2022-10-26 09:59:40.703125
1601,33.6,2022-10-26 09:59:40.718750
1602,32.81,2022-10-26 09:59:40.734375
1603,31.23,2022-10-26 09:59:40.750000
1604,28.75,2022-10-26 09:59:40.765625
1605,25.57,2022-10-26 09:59:40.781250
1606,22.12,2022-10-26 09:59:40.796875
1607,18.81,2022-10-26 09:59:40.812500
1608,15.93,2022-10-26 09:59:40.828125
1609,13.51,2022-10-26 09:59:40.843750
1610,11.35,2022-10-26 09:59:40.859375
1611,9.12,2022-10-26 09:59:40.875000
1612,6.52,2022-10-26 09:59:40.890625
1613,3.41,2022-10-26 09:59:40.906250
1614,-0.12,2022-10-26 09:59:40.921875
1615,-3.77,2022-10-26 09:59:40.937500
1616,-7.04,2022-10-26 09:59:40.953125
1617,-9.41,2022-10-26 09:59:40.968750
1618,-10.35,2022-10-26 09:59:40.984375
1619,-9.56,2022-10-26 09:59:41.000000
1620,-7.0,2022-10-26 09:59:41.015625
1621,-2.93,2022-10-26 09:59:41.031250
1622,2.17,2022-10-26 09:59:41.046875
1623,7.67,2022-10-26 09:59:41.062500
1624,13.0,2022-10-26 09:59:41.078125
1625,17.71,2022-10-26 09:59:41.093750
1626,21.46,2022-10-26 09:59:41.109375
1627,24.11,2022-10-26 09:59:41.125000
1628,25.59,2022-10-26 09:59:41.140625
1629,25.99,2022-10-26 09:59:41.156250
1630,25.5,2022-10-26 09:59:41.171875
1631,24.43,2022-10-26 09:59:41.187500
1632,23.13,2022-10-26 09:59:41.203125
1633,21.96,2022-10-26 09:59:41.218750
1634,21.16,2022-10-26 09:59:41.234375
1635,20.85,2022-10-26 09:59:41.250000
1636,20.96,2022-10-26 09:59:41.265625
1637,21.27,2022-10-26 09:59:41.281250
1638,21.55,2022-10-26 09:59:41.296875
1639,21.6,2022-10-26 09:59:41.312500
1640,21.36,2022-10-26 09:59:41.328125
1641,20.9,2022-10-26 09:59:41.343750
1642,20.37,2022-10-26 09:59:41.359375
1643,19.95,2022-10-26 09:59:41.375000
1644,19.66,2022-10-26 09:59:41.390625
1645,19.39,2022-10-26 09:59:41.406250
1646,18.87,2022-10-26 09:59:41.421875
1647,17.77,2022-10-26 09:59:41.437500
1648,15.79,2022-10-26 09:59:41.453125
1649,12.71,2022-10-26 09:59:41.468750
1650,8.5,2022-10-26 09:59:41.484375
1651,3.23,2022-10-26 09:59:41.500000
1652,-2.75,2022-10-26 09:59:41.515625
1653,-8.86,2022-10-26 09:59:41.531250
1654,-14.24,2022-10-26 09:59:41.546875
1655,-17.9,2022-10-26 09:59:41.562500
1656,-18.96,2022-10-26 09:59:41.578125
1657,-16.98,2022-10-26 09:59:41.593750
1658,-12.18,2022-10-26 09:59:41.609375
1659,-5.31,2022-10-26 09:59:41.625000
1660,2.45,2022-10-26 09:59:41.640625
1661,9.97,2022-10-26 09:59:41.656250
1662,16.43,2022-10-26 09:59:41.671875
1663,21.52,2022-10-26 09:59:41.687500
1664,25.28,2022-10-26 09:59:41.703125
1665,27.97,2022-10-26 09:59:41.718750
1666,29.86,2022-10-26 09:59:41.734375
1667,31.06,2022-10-26 09:59:41.750000
1668,31.58,2022-10-26 09:59:41.765625
1669,31.42,2022-10-26 09:59:41.781250
1670,30.71,2022-10-26 09:59:41.796875
1671,29.66,2022-10-26 09:59:41.812500
1672,28.61,2022-10-26 09:59:41.828125
1673,27.76,2022-10-26 09:59:41.843750
1674,27.14,2022-10-26 09:59:41.859375
1675,26.57,2022-10-26 09:59:41.875000
1676,25.73,2022-10-26 09:59:41.890625
1677,24.38,2022-10-26 09:59:41.906250
1678,22.46,2022-10-26 09:59:41.921875
1679,20.15,2022-10-26 09:59:41.937500
1680,17.74,2022-10-26 09:59:41.953125
1681,15.47,2022-10-26 09:59:41.968750
1682,13.35,2022-10-26 09:59:41.984375
1683,11.19,2022-10-26 09:59:42.000000
1684,8.64,2022-10-26 09:59:42.015625
1685,5.39,2022-10-26 09:59:42.031250
1686,1.29,2022-10-26 09:59:42.046875
1687,-3.62,2022-10-26 09:59:42.062500
1688,-9.15,2022-10-26 09:59:42.078125
1689,-15.0,2022-10-26 09:59:42.093750
1690,-20.81,2022-10-26 09:59:42.109375
1691,-26.0,2022-10-26 09:59:42.125000
1692,-29.87,2022-10-26 09:59:42.140625
1693,-31.58,2022-10-26 09:59:42.156250
1694,-30.47,2022-10-26 09:59:42.171875
1695,-26.26,2022-10-26 09:59:42.187500
1696,-19.32,2022-10-26 09:59:42.203125
1697,-10.56,2022-10-26 09:59:42.218750
1698,-1.29,2022-10-26 09:59:42.234375
1699,7.23,2022-10-26 09:59:42.250000
1700,14.0,2022-10-26 09:59:42.265625
1701,18.63,2022-10-26 09:59:42.281250
1702,21.27,2022-10-26 09:59:42.296875
1703,22.56,2022-10-26 09:59:42.312500
1704,23.3,2022-10-26 09:59:42.328125
1705,24.25,2022-10-26 09:59:42.343750
1706,25.91,2022-10-26 09:59:42.359375
1707,28.44,2022-10-26 09:59:42.375000
1708,31.86,2022-10-26 09:59:42.390625
1709,36.12,2022-10-26 09:59:42.406250
1710,41.33,2022-10-26 09:59:42.421875
1711,47.74,2022-10-26 09:59:42.437500
1712,55.69,2022-10-26 09:59:42.453125
1713,65.55,2022-10-26 09:59:42.468750
1714,77.69,2022-10-26 09:59:42.484375
1715,92.47,2022-10-26 09:59:42.500000
1716,110.06,2022-10-26 09:59:42.515625
1717,130.13,2022-10-26 09:59:42.531250
1718,151.44,2022-10-26 09:59:42.546875
1719,171.8,2022-10-26 09:59:42.562500
1720,188.33,2022-10-26 09:59:42.578125
1721,198.39,2022-10-26 09:59:42.593750
1722,200.5,2022-10-26 09:59:42.609375
1723,194.8,2022-10-26 09:59:42.625000
1724,182.88,2022-10-26 09:59:42.640625
1725,167.0,2022-10-26 09:59:42.656250
1726,149.26,2022-10-26 09:59:42.671875
1727,131.03,2022-10-26 09:59:42.687500
1728,112.96,2022-10-26 09:59:42.703125
1729,95.31,2022-10-26 09:59:42.718750
1730,78.07,2022-10-26 09:59:42.734375
1731,61.0,2022-10-26 09:59:42.750000
1732,43.57,2022-10-26 09:59:42.765625
1733,25.07,2022-10-26 09:59:42.781250
1734,5.11,2022-10-26 09:59:42.796875
1735,-15.93,2022-10-26 09:59:42.812500
1736,-36.9,2022-10-26 09:59:42.828125
1737,-56.27,2022-10-26 09:59:42.843750
1738,-73.04,2022-10-26 09:59:42.859375
1739,-87.28,2022-10-26 09:59:42.875000
1740,-100.11,2022-10-26 09:59:42.890625
1741,-112.91,2022-10-26 09:59:42.906250
1742,-126.47,2022-10-26 09:59:42.921875
1743,-140.44,2022-10-26 09:59:42.937500
1744,-153.55,2022-10-26 09:59:42.953125
1745,-164.25,2022-10-26 09:59:42.968750
1746,-171.44,2022-10-26 09:59:42.984375
1747,-174.71,2022-10-26 09:59:43.000000
1748,-174.13,2022-10-26 09:59:43.015625
1749,-169.98,2022-10-26 09:59:43.031250
1750,-162.45,2022-10-26 09:59:43.046875
1751,-151.79,2022-10-26 09:59:43.062500
1752,-138.58,2022-10-26 09:59:43.078125
1753,-124.0,2022-10-26 09:59:43.093750
1754,-109.74,2022-10-26 09:59:43.109375
1755,-97.66,2022-10-26 09:59:43.125000
1756,-89.25,2022-10-26 09:59:43.140625
1757,-85.22,2022-10-26 09:59:43.156250
1758,-85.37,2022-10-26 09:59:43.171875
1759,-88.65,2022-10-26 09:59:43.187500
1760,-93.51,2022-10-26 09:59:43.203125
1761,-98.16,2022-10-26 09:59:43.218750
1762,-100.85,2022-10-26 09:59:43.234375
1763,-100.1,2022-10-26 09:59:43.250000
1764,-94.84,2022-10-26 09:59:43.265625
1765,-84.71,2022-10-26 09:59:43.281250
1766,-70.08,2022-10-26 09:59:43.296875
1767,-52.11,2022-10-26 09:59:43.312500
1768,-32.48,2022-10-26 09:59:43.328125
1769,-12.93,2022-10-26 09:59:43.343750
1770,5.18,2022-10-26 09:59:43.359375
1771,21.26,2022-10-26 09:59:43.375000
1772,35.53,2022-10-26 09:59:43.390625
1773,48.82,2022-10-26 09:59:43.406250
1774,62.19,2022-10-26 09:59:43.421875
1775,76.61,2022-10-26 09:59:43.437500
1776,92.58,2022-10-26 09:59:43.453125
1777,110.0,2022-10-26 09:59:43.468750
1778,127.99,2022-10-26 09:59:43.484375
1779,145.05,2022-10-26 09:59:43.500000
1780,159.32,2022-10-26 09:59:43.515625
1781,169.0,2022-10-26 09:59:43.531250
1782,172.82,2022-10-26 09:59:43.546875
1783,170.39,2022-10-26 09:59:43.562500
1784,162.21,2022-10-26 09:59:43.578125
1785,149.43,2022-10-26 09:59:43.593750
1786,133.37,2022-10-26 09:59:43.609375
1787,115.05,2022-10-26 09:59:43.625000
1788,94.93,2022-10-26 09:59:43.640625
1789,72.94,2022-10-26 09:59:43.656250
1790,48.8,2022-10-26 09:59:43.671875
1791,22.61,2022-10-26 09:59:43.687500
1792,-4.95,2022-10-26 09:59:43.703125
1793,-32.55,2022-10-26 09:59:43.718750
1794,-58.63,2022-10-26 09:59:43.734375
1795,-81.8,2022-10-26 09:59:43.750000
1796,-101.3,2022-10-26 09:59:43.765625
1797,-116.92,2022-10-26 09:59:43.781250
1798,-128.69,2022-10-26 09:59:43.796875
1799,-136.5,2022-10-26 09:59:43.812500
1800,-139.87,2022-10-26 09:59:43.828125
1801,-138.26,2022-10-26 09:59:43.843750
1802,-131.6,2022-10-26 09:59:43.859375
1803,-120.67,2022-10-26 09:59:43.875000
1804,-107.09,2022-10-26 09:59:43.890625
1805,-92.92,2022-10-26 09:59:43.906250
1806,-79.94,2022-10-26 09:59:43.921875
1807,-69.1,2022-10-26 09:59:43.937500
1808,-60.45,2022-10-26 09:59:43.953125
1809,-53.32,2022-10-26 09:59:43.968750
1810,-46.91,2022-10-26 09:59:43.984375
1811,-40.68,2022-10-26 09:59:44.000000
1812,-34.57,2022-10-26 09:59:44.015625
1813,-28.95,2022-10-26 09:59:44.031250
1814,-24.39,2022-10-26 09:59:44.046875
1815,-21.36,2022-10-26 09:59:44.062500
1816,-19.98,2022-10-26 09:59:44.078125
1817,-20.04,2022-10-26 09:59:44.093750
1818,-21.05,2022-10-26 09:59:44.109375
1819,-22.47,2022-10-26 09:59:44.125000
1820,-23.92,2022-10-26 09:59:44.140625
1821,-25.11,2022-10-26 09:59:44.156250
1822,-25.74,2022-10-26 09:59:44.171875
1823,-25.31,2022-10-26 09:59:44.187500
1824,-23.01,2022-10-26 09:59:44.203125
1825,-17.94,2022-10-26 09:59:44.218750
1826,-9.57,2022-10-26 09:59:44.234375
1827,1.86,2022-10-26 09:59:44.250000
1828,15.16,2022-10-26 09:59:44.265625
1829,28.4,2022-10-26 09:59:44.281250
1830,39.46,2022-10-26 09:59:44.296875
1831,46.67,2022-10-26 09:59:44.312500
1832,49.28,2022-10-26 09:59:44.328125
1833,47.61,2022-10-26 09:59:44.343750
1834,42.94,2022-10-26 09:59:44.359375
1835,37.2,2022-10-26 09:59:44.375000
1836,32.6,2022-10-26 09:59:44.390625
1837,31.1,2022-10-26 09:59:44.406250
1838,34.01,2022-10-26 09:59:44.421875
1839,41.57,2022-10-26 09:59:44.437500
1840,52.86,2022-10-26 09:59:44.453125
1841,65.98,2022-10-26 09:59:44.468750
1842,78.61,2022-10-26 09:59:44.484375
1843,88.62,2022-10-26 09:59:44.500000
1844,94.62,2022-10-26 09:59:44.515625
1845,96.18,2022-10-26 09:59:44.531250
1846,93.71,2022-10-26 09:59:44.546875
1847,88.14,2022-10-26 09:59:44.562500
1848,80.47,2022-10-26 09:59:44.578125
1849,71.66,2022-10-26 09:59:44.593750
1850,62.39,2022-10-26 09:59:44.609375
1851,53.12,2022-10-26 09:59:44.625000
1852,44.01,2022-10-26 09:59:44.640625
1853,34.92,2022-10-26 09:59:44.656250
1854,25.34,2022-10-26 09:59:44.671875
1855,14.68,2022-10-26 09:59:44.687500
1856,2.51,2022-10-26 09:59:44.703125
1857,-11.02,2022-10-26 09:59:44.718750
1858,-25.11,2022-10-26 09:59:44.734375
1859,-38.66,2022-10-26 09:59:44.750000
1860,-50.88,2022-10-26 09:59:44.765625
1861,-61.84,2022-10-26 09:59:44.781250
1862,-72.53,2022-10-26 09:59:44.796875
1863,-84.52,2022-10-26 09:59:44.812500
1864,-99.36,2022-10-26 09:59:44.828125
1865,-118.21,2022-10-26 09:59:44.843750
1866,-141.59,2022-10-26 09:59:44.859375
1867,-169.32,2022-10-26 09:59:44.875000
1868,-200.42,2022-10-26 09:59:44.890625
1869,-232.92,2022-10-26 09:59:44.906250
1870,-263.83,2022-10-26 09:59:44.921875
1871,-289.45,2022-10-26 09:59:44.937500
1872,-306.35,2022-10-26 09:59:44.953125
1873,-312.25,2022-10-26 09:59:44.968750
1874,-306.57,2022-10-26 09:59:44.984375
1875,-290.18,2022-10-26 09:59:45.000000
1876,-264.58,2022-10-26 09:59:45.015625
1877,-231.04,2022-10-26 09:59:45.031250
1878,-190.58,2022-10-26 09:59:45.046875
1879,-144.46,2022-10-26 09:59:45.062500
1880,-95.06,2022-10-26 09:59:45.078125
1881,-45.99,2022-10-26 09:59:45.093750
1882,-1.31,2022-10-26 09:59:45.109375
1883,35.82,2022-10-26 09:59:45.125000
1884,64.21,2022-10-26 09:59:45.140625
1885,84.83,2022-10-26 09:59:45.156250
1886,99.91,2022-10-26 09:59:45.171875
1887,111.5,2022-10-26 09:59:45.187500
1888,120.46,2022-10-26 09:59:45.203125
1889,126.3,2022-10-26 09:59:45.218750
1890,127.85,2022-10-26 09:59:45.234375
1891,124.29,2022-10-26 09:59:45.250000
1892,116.03,2022-10-26 09:59:45.265625
1893,104.79,2022-10-26 09:59:45.281250
1894,93.17,2022-10-26 09:59:45.296875
1895,83.74,2022-10-26 09:59:45.312500
1896,78.27,2022-10-26 09:59:45.328125
1897,77.18,2022-10-26 09:59:45.343750
1898,79.65,2022-10-26 09:59:45.359375
1899,84.0,2022-10-26 09:59:45.375000
1900,88.35,2022-10-26 09:59:45.390625
1901,91.25,2022-10-26 09:59:45.406250
1902,91.92,2022-10-26 09:59:45.421875
1903,90.29,2022-10-26 09:59:45.437500
1904,86.66,2022-10-26 09:59:45.453125
1905,81.38,2022-10-26 09:59:45.468750
1906,74.67,2022-10-26 09:59:45.484375
1907,66.67,2022-10-26 09:59:45.500000
1908,57.56,2022-10-26 09:59:45.515625
1909,47.73,2022-10-26 09:59:45.531250
1910,37.83,2022-10-26 09:59:45.546875
1911,28.76,2022-10-26 09:59:45.562500
1912,21.42,2022-10-26 09:59:45.578125
1913,16.58,2022-10-26 09:59:45.593750
1914,14.65,2022-10-26 09:59:45.609375
1915,15.51,2022-10-26 09:59:45.625000
1916,18.52,2022-10-26 09:59:45.640625
1917,22.67,2022-10-26 09:59:45.656250
1918,26.95,2022-10-26 09:59:45.671875
1919,30.62,2022-10-26 09:59:45.687500
1920,33.46,2022-10-26 09:59:45.703125
1921,35.66,2022-10-26 09:59:45.718750
1922,37.59,2022-10-26 09:59:45.734375
1923,39.46,2022-10-26 09:59:45.750000
1924,41.19,2022-10-26 09:59:45.765625
1925,42.45,2022-10-26 09:59:45.781250
1926,42.88,2022-10-26 09:59:45.796875
1927,42.36,2022-10-26 09:59:45.812500
1928,41.1,2022-10-26 09:59:45.828125
1929,39.54,2022-10-26 09:59:45.843750
1930,38.13,2022-10-26 09:59:45.859375
1931,37.16,2022-10-26 09:59:45.875000
1932,36.62,2022-10-26 09:59:45.890625
1933,36.28,2022-10-26 09:59:45.906250
1934,35.85,2022-10-26 09:59:45.921875
1935,35.13,2022-10-26 09:59:45.937500
1936,34.06,2022-10-26 09:59:45.953125
1937,32.73,2022-10-26 09:59:45.968750
1938,31.3,2022-10-26 09:59:45.984375
1939,29.86,2022-10-26 09:59:46.000000
1940,28.37,2022-10-26 09:59:46.015625
1941,26.74,2022-10-26 09:59:46.031250
1942,24.83,2022-10-26 09:59:46.046875
1943,22.61,2022-10-26 09:59:46.062500
1944,20.12,2022-10-26 09:59:46.078125
1945,17.48,2022-10-26 09:59:46.093750
1946,14.85,2022-10-26 09:59:46.109375
1947,12.32,2022-10-26 09:59:46.125000
1948,9.83,2022-10-26 09:59:46.140625
1949,7.25,2022-10-26 09:59:46.156250
1950,4.33,2022-10-26 09:59:46.171875
1951,0.91,2022-10-26 09:59:46.187500
1952,-3.06,2022-10-26 09:59:46.203125
1953,-7.33,2022-10-26 09:59:46.218750
1954,-11.4,2022-10-26 09:59:46.234375
1955,-14.56,2022-10-26 09:59:46.250000
1956,-16.1,2022-10-26 09:59:46.265625
1957,-15.48,2022-10-26 09:59:46.281250
1958,-12.56,2022-10-26 09:59:46.296875
1959,-7.6,2022-10-26 09:59:46.312500
1960,-1.27,2022-10-26 09:59:46.328125
1961,5.59,2022-10-26 09:59:46.343750
1962,12.12,2022-10-26 09:59:46.359375
1963,17.68,2022-10-26 09:59:46.375000
1964,21.84,2022-10-26 09:59:46.390625
1965,24.5,2022-10-26 09:59:46.406250
1966,25.76,2022-10-26 09:59:46.421875
1967,25.87,2022-10-26 09:59:46.437500
1968,25.2,2022-10-26 09:59:46.453125
1969,24.11,2022-10-26 09:59:46.468750
1970,22.91,2022-10-26 09:59:46.484375
1971,21.76,2022-10-26 09:59:46.500000
1972,20.76,2022-10-26 09:59:46.515625
1973,19.87,2022-10-26 09:59:46.531250
1974,19.0,2022-10-26 09:59:46.546875
1975,18.02,2022-10-26 09:59:46.562500
1976,16.86,2022-10-26 09:59:46.578125
1977,15.45,2022-10-26 09:59:46.593750
1978,13.79,2022-10-26 09:59:46.609375
1979,11.94,2022-10-26 09:59:46.625000
1980,9.94,2022-10-26 09:59:46.640625
1981,7.87,2022-10-26 09:59:46.656250
1982,5.8,2022-10-26 09:59:46.671875
1983,3.8,2022-10-26 09:59:46.687500
1984,1.9,2022-10-26 09:59:46.703125
1985,0.16,2022-10-26 09:59:46.718750
1986,-1.42,2022-10-26 09:59:46.734375
1987,-2.82,2022-10-26 09:59:46.750000
1988,-4.02,2022-10-26 09:59:46.765625
1989,-5.09,2022-10-26 09:59:46.781250
1990,-6.15,2022-10-26 09:59:46.796875
1991,-7.43,2022-10-26 09:59:46.812500
1992,-9.2,2022-10-26 09:59:46.828125
1993,-11.63,2022-10-26 09:59:46.843750
1994,-14.63,2022-10-26 09:59:46.859375
1995,-17.77,2022-10-26 09:59:46.875000
1996,-20.3,2022-10-26 09:59:46.890625
1997,-21.41,2022-10-26 09:59:46.906250
1998,-20.48,2022-10-26 09:59:46.921875
1999,-17.37,2022-10-26 09:59:46.937500
2000,-12.48,2022-10-26 09:59:46.953125
2001,-6.58,2022-10-26 09:59:46.968750
2002,-0.54,2022-10-26 09:59:46.984375
2003,4.91,2022-10-26 09:59:47.000000
2004,9.32,2022-10-26 09:59:47.015625
2005,12.54,2022-10-26 09:59:47.031250
2006,14.59,2022-10-26 09:59:47.046875
2007,15.6,2022-10-26 09:59:47.062500
2008,15.72,2022-10-26 09:59:47.078125
2009,15.15,2022-10-26 09:59:47.093750
2010,14.08,2022-10-26 09:59:47.109375
2011,12.72,2022-10-26 09:59:47.125000
2012,11.27,2022-10-26 09:59:47.140625
2013,9.91,2022-10-26 09:59:47.156250
2014,8.8,2022-10-26 09:59:47.171875
2015,8.07,2022-10-26 09:59:47.187500
2016,7.81,2022-10-26 09:59:47.203125
2017,8.03,2022-10-26 09:59:47.218750
2018,8.66,2022-10-26 09:59:47.234375
2019,9.49,2022-10-26 09:59:47.250000
2020,10.28,2022-10-26 09:59:47.265625
2021,10.73,2022-10-26 09:59:47.281250
2022,10.63,2022-10-26 09:59:47.296875
2023,9.87,2022-10-26 09:59:47.312500
2024,8.49,2022-10-26 09:59:47.328125
2025,6.61,2022-10-26 09:59:47.343750
2026,4.52,2022-10-26 09:59:47.359375
2027,2.49,2022-10-26 09:59:47.375000
2028,0.76,2022-10-26 09:59:47.390625
2029,-0.59,2022-10-26 09:59:47.406250
2030,-1.6,2022-10-26 09:59:47.421875
2031,-2.49,2022-10-26 09:59:47.437500
2032,-3.55,2022-10-26 09:59:47.453125
2033,-4.98,2022-10-26 09:59:47.468750
2034,-6.83,2022-10-26 09:59:47.484375
2035,-8.94,2022-10-26 09:59:47.500000
2036,-10.9,2022-10-26 09:59:47.515625
2037,-12.16,2022-10-26 09:59:47.531250
2038,-12.25,2022-10-26 09:59:47.546875
2039,-10.92,2022-10-26 09:59:47.562500
2040,-8.24,2022-10-26 09:59:47.578125
2041,-4.64,2022-10-26 09:59:47.593750
2042,-0.73,2022-10-26 09:59:47.609375
2043,2.9,2022-10-26 09:59:47.625000
2044,5.81,2022-10-26 09:59:47.640625
2045,7.86,2022-10-26 09:59:47.656250
2046,9.14,2022-10-26 09:59:47.671875
2047,9.78,2022-10-26 09:59:47.687500
2048,9.9,2022-10-26 09:59:47.703125
2049,9.52,2022-10-26 09:59:47.718750
2050,8.67,2022-10-26 09:59:47.734375
2051,7.42,2022-10-26 09:59:47.750000
2052,5.96,2022-10-26 09:59:47.765625
2053,4.52,2022-10-26 09:59:47.781250
2054,3.34,2022-10-26 09:59:47.796875
2055,2.5,2022-10-26 09:59:47.812500
2056,1.93,2022-10-26 09:59:47.828125
2057,1.51,2022-10-26 09:59:47.843750
2058,1.1,2022-10-26 09:59:47.859375
2059,0.69,2022-10-26 09:59:47.875000
2060,0.33,2022-10-26 09:59:47.890625
2061,0.06,2022-10-26 09:59:47.906250
2062,-0.17,2022-10-26 09:59:47.921875
2063,-0.54,2022-10-26 09:59:47.937500
2064,-1.21,2022-10-26 09:59:47.953125
2065,-2.26,2022-10-26 09:59:47.968750
2066,-3.58,2022-10-26 09:59:47.984375
2067,-4.96,2022-10-26 09:59:48.000000
2068,-6.2,2022-10-26 09:59:48.015625
2069,-7.26,2022-10-26 09:59:48.031250
2070,-8.28,2022-10-26 09:59:48.046875
2071,-9.47,2022-10-26 09:59:48.062500
2072,-10.98,2022-10-26 09:59:48.078125
2073,-12.72,2022-10-26 09:59:48.093750
2074,-14.4,2022-10-26 09:59:48.109375
2075,-15.6,2022-10-26 09:59:48.125000
2076,-15.9,2022-10-26 09:59:48.140625
2077,-15.11,2022-10-26 09:59:48.156250
2078,-13.18,2022-10-26 09:59:48.171875
2079,-10.32,2022-10-26 09:59:48.187500
2080,-6.84,2022-10-26 09:59:48.203125
2081,-3.11,2022-10-26 09:59:48.218750
2082,0.5,2022-10-26 09:59:48.234375
2083,3.69,2022-10-26 09:59:48.250000
2084,6.21,2022-10-26 09:59:48.265625
2085,7.93,2022-10-26 09:59:48.281250
2086,8.84,2022-10-26 09:59:48.296875
2087,8.96,2022-10-26 09:59:48.312500
2088,8.39,2022-10-26 09:59:48.328125
2089,7.31,2022-10-26 09:59:48.343750
2090,5.89,2022-10-26 09:59:48.359375
2091,4.33,2022-10-26 09:59:48.375000
2092,2.82,2022-10-26 09:59:48.390625
2093,1.5,2022-10-26 09:59:48.406250
2094,0.44,2022-10-26 09:59:48.421875
2095,-0.38,2022-10-26 09:59:48.437500
2096,-1.03,2022-10-26 09:59:48.453125
2097,-1.61,2022-10-26 09:59:48.468750
2098,-2.18,2022-10-26 09:59:48.484375
2099,-2.76,2022-10-26 09:59:48.500000
2100,-3.3,2022-10-26 09:59:48.515625
2101,-3.77,2022-10-26 09:59:48.531250
2102,-4.15,2022-10-26 09:59:48.546875
2103,-4.44,2022-10-26 09:59:48.562500
2104,-4.71,2022-10-26 09:59:48.578125
2105,-5.05,2022-10-26 09:59:48.593750
2106,-5.56,2022-10-26 09:59:48.609375
2107,-6.38,2022-10-26 09:59:48.625000
2108,-7.6,2022-10-26 09:59:48.640625
2109,-9.28,2022-10-26 09:59:48.656250
2110,-11.32,2022-10-26 09:59:48.671875
2111,-13.44,2022-10-26 09:59:48.687500
2112,-15.19,2022-10-26 09:59:48.703125
2113,-16.01,2022-10-26 09:59:48.718750
2114,-15.42,2022-10-26 09:59:48.734375
2115,-13.22,2022-10-26 09:59:48.750000
2116,-9.59,2022-10-26 09:59:48.765625
2117,-5.09,2022-10-26 09:59:48.781250
2118,-0.44,2022-10-26 09:59:48.796875
2119,3.65,2022-10-26 09:59:48.812500
2120,6.81,2022-10-26 09:59:48.828125
2121,8.96,2022-10-26 09:59:48.843750
2122,10.32,2022-10-26 09:59:48.859375
2123,11.13,2022-10-26 09:59:48.875000
2124,11.6,2022-10-26 09:59:48.890625
2125,11.75,2022-10-26 09:59:48.906250
2126,11.54,2022-10-26 09:59:48.921875
2127,10.96,2022-10-26 09:59:48.937500
2128,10.07,2022-10-26 09:59:48.953125
2129,9.02,2022-10-26 09:59:48.968750
2130,7.97,2022-10-26 09:59:48.984375
2131,6.99,2022-10-26 09:59:49.000000
2132,6.03,2022-10-26 09:59:49.015625
2133,4.94,2022-10-26 09:59:49.031250
2134,3.51,2022-10-26 09:59:49.046875
2135,1.53,2022-10-26 09:59:49.062500
2136,-1.07,2022-10-26 09:59:49.078125
2137,-4.2,2022-10-26 09:59:49.093750
2138,-7.58,2022-10-26 09:59:49.109375
2139,-10.8,2022-10-26 09:59:49.125000
2140,-13.48,2022-10-26 09:59:49.140625
2141,-15.4,2022-10-26 09:59:49.156250
2142,-16.7,2022-10-26 09:59:49.171875
2143,-17.75,2022-10-26 09:59:49.187500
2144,-19.12,2022-10-26 09:59:49.203125
2145,-21.25,2022-10-26 09:59:49.218750
2146,-24.29,2022-10-26 09:59:49.234375
2147,-28.02,2022-10-26 09:59:49.250000
2148,-31.79,2022-10-26 09:59:49.265625
2149,-34.8,2022-10-26 09:59:49.281250
2150,-36.27,2022-10-26 09:59:49.296875
2151,-35.65,2022-10-26 09:59:49.312500
2152,-32.83,2022-10-26 09:59:49.328125
2153,-28.04,2022-10-26 09:59:49.343750
2154,-21.88,2022-10-26 09:59:49.359375
2155,-15.13,2022-10-26 09:59:49.375000
2156,-8.52,2022-10-26 09:59:49.390625
2157,-2.64,2022-10-26 09:59:49.406250
2158,2.17,2022-10-26 09:59:49.421875
2159,5.85,2022-10-26 09:59:49.437500
2160,8.48,2022-10-26 09:59:49.453125
2161,10.15,2022-10-26 09:59:49.468750
2162,10.98,2022-10-26 09:59:49.484375
2163,11.02,2022-10-26 09:59:49.500000
2164,10.31,2022-10-26 09:59:49.515625
2165,8.97,2022-10-26 09:59:49.531250
2166,7.14,2022-10-26 09:59:49.546875
2167,5.05,2022-10-26 09:59:49.562500
2168,2.96,2022-10-26 09:59:49.578125
2169,1.11,2022-10-26 09:59:49.593750
2170,-0.4,2022-10-26 09:59:49.609375
2171,-1.54,2022-10-26 09:59:49.625000
2172,-2.47,2022-10-26 09:59:49.640625
2173,-3.34,2022-10-26 09:59:49.656250
2174,-4.26,2022-10-26 09:59:49.671875
2175,-5.25,2022-10-26 09:59:49.687500
2176,-6.24,2022-10-26 09:59:49.703125
2177,-7.16,2022-10-26 09:59:49.718750
2178,-7.94,2022-10-26 09:59:49.734375
2179,-8.61,2022-10-26 09:59:49.750000
2180,-9.24,2022-10-26 09:59:49.765625
2181,-9.95,2022-10-26 09:59:49.781250
2182,-10.82,2022-10-26 09:59:49.796875
2183,-11.91,2022-10-26 09:59:49.812500
2184,-13.25,2022-10-26 09:59:49.828125
2185,-14.79,2022-10-26 09:59:49.843750
2186,-16.33,2022-10-26 09:59:49.859375
2187,-17.51,2022-10-26 09:59:49.875000
2188,-17.94,2022-10-26 09:59:49.890625
2189,-17.27,2022-10-26 09:59:49.906250
2190,-15.42,2022-10-26 09:59:49.921875
2191,-12.61,2022-10-26 09:59:49.937500
2192,-9.25,2022-10-26 09:59:49.953125
2193,-5.78,2022-10-26 09:59:49.968750
2194,-2.52,2022-10-26 09:59:49.984375
2195,0.39,2022-10-26 09:59:50.000000
2196,2.93,2022-10-26 09:59:50.015625
2197,5.06,2022-10-26 09:59:50.031250
2198,6.69,2022-10-26 09:59:50.046875
2199,7.65,2022-10-26 09:59:50.062500
2200,7.85,2022-10-26 09:59:50.078125
2201,7.31,2022-10-26 09:59:50.093750
2202,6.24,2022-10-26 09:59:50.109375
2203,4.94,2022-10-26 09:59:50.125000
2204,3.77,2022-10-26 09:59:50.140625
2205,3.01,2022-10-26 09:59:50.156250
2206,2.74,2022-10-26 09:59:50.171875
2207,2.9,2022-10-26 09:59:50.187500
2208,3.18,2022-10-26 09:59:50.203125
2209,3.21,2022-10-26 09:59:50.218750
2210,2.65,2022-10-26 09:59:50.234375
2211,1.42,2022-10-26 09:59:50.250000
2212,-0.31,2022-10-26 09:59:50.265625
2213,-2.18,2022-10-26 09:59:50.281250
2214,-3.76,2022-10-26 09:59:50.296875
2215,-4.85,2022-10-26 09:59:50.312500
2216,-5.5,2022-10-26 09:59:50.328125
2217,-6.0,2022-10-26 09:59:50.343750
2218,-6.73,2022-10-26 09:59:50.359375
2219,-8.02,2022-10-26 09:59:50.375000
2220,-9.96,2022-10-26 09:59:50.390625
2221,-12.43,2022-10-26 09:59:50.406250
2222,-15.12,2022-10-26 09:59:50.421875
2223,-17.66,2022-10-26 09:59:50.437500
2224,-19.67,2022-10-26 09:59:50.453125
2225,-20.79,2022-10-26 09:59:50.468750
2226,-20.74,2022-10-26 09:59:50.484375
2227,-19.38,2022-10-26 09:59:50.500000
2228,-16.7,2022-10-26 09:59:50.515625
2229,-12.98,2022-10-26 09:59:50.531250
2230,-8.64,2022-10-26 09:59:50.546875
2231,-4.27,2022-10-26 09:59:50.562500
2232,-0.36,2022-10-26 09:59:50.578125
2233,2.76,2022-10-26 09:59:50.593750
2234,5.0,2022-10-26 09:59:50.609375
2235,6.47,2022-10-26 09:59:50.625000
2236,7.31,2022-10-26 09:59:50.640625
2237,7.64,2022-10-26 09:59:50.656250
2238,7.46,2022-10-26 09:59:50.671875
2239,6.76,2022-10-26 09:59:50.687500
2240,5.58,2022-10-26 09:59:50.703125
2241,4.1,2022-10-26 09:59:50.718750
2242,2.58,2022-10-26 09:59:50.734375
2243,1.3,2022-10-26 09:59:50.750000
2244,0.47,2022-10-26 09:59:50.765625
2245,0.19,2022-10-26 09:59:50.781250
2246,0.41,2022-10-26 09:59:50.796875
2247,0.9,2022-10-26 09:59:50.812500
2248,1.43,2022-10-26 09:59:50.828125
2249,1.73,2022-10-26 09:59:50.843750
2250,1.67,2022-10-26 09:59:50.859375
2251,1.21,2022-10-26 09:59:50.875000
2252,0.47,2022-10-26 09:59:50.890625
2253,-0.41,2022-10-26 09:59:50.906250
2254,-1.38,2022-10-26 09:59:50.921875
2255,-2.48,2022-10-26 09:59:50.937500
2256,-3.88,2022-10-26 09:59:50.953125
2257,-5.79,2022-10-26 09:59:50.968750
2258,-8.26,2022-10-26 09:59:50.984375
2259,-11.22,2022-10-26 09:59:51.000000
2260,-14.43,2022-10-26 09:59:51.015625
2261,-17.56,2022-10-26 09:59:51.031250
2262,-20.24,2022-10-26 09:59:51.046875
2263,-22.06,2022-10-26 09:59:51.062500
2264,-22.69,2022-10-26 09:59:51.078125
2265,-21.83,2022-10-26 09:59:51.093750
2266,-19.43,2022-10-26 09:59:51.109375
2267,-15.72,2022-10-26 09:59:51.125000
2268,-11.22,2022-10-26 09:59:51.140625
2269,-6.61,2022-10-26 09:59:51.156250
2270,-2.48,2022-10-26 09:59:51.171875
2271,0.83,2022-10-26 09:59:51.187500
2272,3.23,2022-10-26 09:59:51.203125
2273,4.83,2022-10-26 09:59:51.218750
2274,5.8,2022-10-26 09:59:51.234375
2275,6.2,2022-10-26 09:59:51.250000
2276,6.03,2022-10-26 09:59:51.265625
2277,5.33,2022-10-26 09:59:51.281250
2278,4.24,2022-10-26 09:59:51.296875
2279,3.04,2022-10-26 09:59:51.312500
2280,2.02,2022-10-26 09:59:51.328125
2281,1.41,2022-10-26 09:59:51.343750
2282,1.22,2022-10-26 09:59:51.359375
2283,1.33,2022-10-26 09:59:51.375000
2284,1.53,2022-10-26 09:59:51.390625
2285,1.68,2022-10-26 09:59:51.406250
2286,1.66,2022-10-26 09:59:51.421875
2287,1.48,2022-10-26 09:59:51.437500
2288,1.18,2022-10-26 09:59:51.453125
2289,0.79,2022-10-26 09:59:51.468750
2290,0.33,2022-10-26 09:59:51.484375
2291,-0.24,2022-10-26 09:59:51.500000
2292,-1.03,2022-10-26 09:59:51.515625
2293,-2.16,2022-10-26 09:59:51.531250
2294,-3.77,2022-10-26 09:59:51.546875
2295,-5.95,2022-10-26 09:59:51.562500
2296,-8.72,2022-10-26 09:59:51.578125
2297,-11.94,2022-10-26 09:59:51.593750
2298,-15.35,2022-10-26 09:59:51.609375
2299,-18.53,2022-10-26 09:59:51.625000
2300,-20.98,2022-10-26 09:59:51.640625
2301,-22.22,2022-10-26 09:59:51.656250
2302,-21.82,2022-10-26 09:59:51.671875
2303,-19.61,2022-10-26 09:59:51.687500
2304,-15.7,2022-10-26 09:59:51.703125
2305,-10.52,2022-10-26 09:59:51.718750
2306,-4.74,2022-10-26 09:59:51.734375
2307,0.87,2022-10-26 09:59:51.750000
2308,5.68,2022-10-26 09:59:51.765625
2309,9.29,2022-10-26 09:59:51.781250
2310,11.57,2022-10-26 09:59:51.796875
2311,12.62,2022-10-26 09:59:51.812500
2312,12.66,2022-10-26 09:59:51.828125
2313,11.91,2022-10-26 09:59:51.843750
2314,10.57,2022-10-26 09:59:51.859375
2315,8.82,2022-10-26 09:59:51.875000
2316,6.86,2022-10-26 09:59:51.890625
2317,4.93,2022-10-26 09:59:51.906250
2318,3.28,2022-10-26 09:59:51.921875
2319,2.04,2022-10-26 09:59:51.937500
2320,1.19,2022-10-26 09:59:51.953125
2321,0.54,2022-10-26 09:59:51.968750
2322,-0.19,2022-10-26 09:59:51.984375
2323,-1.19,2022-10-26 09:59:52.000000
2324,-2.53,2022-10-26 09:59:52.015625
2325,-4.12,2022-10-26 09:59:52.031250
2326,-5.74,2022-10-26 09:59:52.046875
2327,-7.24,2022-10-26 09:59:52.062500
2328,-8.57,2022-10-26 09:59:52.078125
2329,-9.85,2022-10-26 09:59:52.093750
2330,-11.35,2022-10-26 09:59:52.109375
2331,-13.38,2022-10-26 09:59:52.125000
2332,-16.2,2022-10-26 09:59:52.140625
2333,-19.87,2022-10-26 09:59:52.156250
2334,-24.27,2022-10-26 09:59:52.171875
2335,-29.01,2022-10-26 09:59:52.187500
2336,-33.51,2022-10-26 09:59:52.203125
2337,-37.04,2022-10-26 09:59:52.218750
2338,-38.92,2022-10-26 09:59:52.234375
2339,-38.64,2022-10-26 09:59:52.250000
2340,-36.03,2022-10-26 09:59:52.265625
2341,-31.35,2022-10-26 09:59:52.281250
2342,-25.26,2022-10-26 09:59:52.296875
2343,-18.57,2022-10-26 09:59:52.312500
2344,-12.14,2022-10-26 09:59:52.328125
2345,-6.57,2022-10-26 09:59:52.343750
2346,-2.16,2022-10-26 09:59:52.359375
2347,1.11,2022-10-26 09:59:52.375000
2348,3.41,2022-10-26 09:59:52.390625
2349,4.93,2022-10-26 09:59:52.406250
2350,5.77,2022-10-26 09:59:52.421875
2351,5.98,2022-10-26 09:59:52.437500
2352,5.6,2022-10-26 09:59:52.453125
2353,4.79,2022-10-26 09:59:52.468750
2354,3.82,2022-10-26 09:59:52.484375
2355,2.9,2022-10-26 09:59:52.500000
2356,2.16,2022-10-26 09:59:52.515625
2357,1.49,2022-10-26 09:59:52.531250
2358,0.59,2022-10-26 09:59:52.546875
2359,-0.85,2022-10-26 09:59:52.562500
2360,-3.0,2022-10-26 09:59:52.578125
2361,-5.75,2022-10-26 09:59:52.593750
2362,-8.81,2022-10-26 09:59:52.609375
2363,-11.76,2022-10-26 09:59:52.625000
2364,-14.24,2022-10-26 09:59:52.640625
2365,-16.11,2022-10-26 09:59:52.656250
2366,-17.44,2022-10-26 09:59:52.671875
2367,-18.48,2022-10-26 09:59:52.687500
2368,-19.56,2022-10-26 09:59:52.703125
2369,-21.03,2022-10-26 09:59:52.718750
2370,-23.19,2022-10-26 09:59:52.734375
2371,-26.24,2022-10-26 09:59:52.750000
2372,-30.15,2022-10-26 09:59:52.765625
2373,-34.55,2022-10-26 09:59:52.781250
2374,-38.75,2022-10-26 09:59:52.796875
2375,-41.84,2022-10-26 09:59:52.812500
2376,-42.96,2022-10-26 09:59:52.828125
2377,-41.54,2022-10-26 09:59:52.843750
2378,-37.56,2022-10-26 09:59:52.859375
2379,-31.48,2022-10-26 09:59:52.875000
2380,-24.19,2022-10-26 09:59:52.890625
2381,-16.63,2022-10-26 09:59:52.906250
2382,-9.56,2022-10-26 09:59:52.921875
2383,-3.42,2022-10-26 09:59:52.937500
2384,1.67,2022-10-26 09:59:52.953125
2385,5.7,2022-10-26 09:59:52.968750
2386,8.76,2022-10-26 09:59:52.984375
2387,10.82,2022-10-26 09:59:53.000000
2388,11.85,2022-10-26 09:59:53.015625
2389,11.94,2022-10-26 09:59:53.031250
2390,11.27,2022-10-26 09:59:53.046875
2391,10.22,2022-10-26 09:59:53.062500
2392,9.13,2022-10-26 09:59:53.078125
2393,8.36,2022-10-26 09:59:53.093750
2394,8.04,2022-10-26 09:59:53.109375
2395,8.1,2022-10-26 09:59:53.125000
2396,8.35,2022-10-26 09:59:53.140625
2397,8.54,2022-10-26 09:59:53.156250
2398,8.44,2022-10-26 09:59:53.171875
2399,7.89,2022-10-26 09:59:53.187500
2400,6.87,2022-10-26 09:59:53.203125
2401,5.4,2022-10-26 09:59:53.218750
2402,3.58,2022-10-26 09:59:53.234375
2403,1.5,2022-10-26 09:59:53.250000
2404,-0.78,2022-10-26 09:59:53.265625
2405,-3.32,2022-10-26 09:59:53.281250
2406,-6.26,2022-10-26 09:59:53.296875
2407,-9.87,2022-10-26 09:59:53.312500
2408,-14.45,2022-10-26 09:59:53.328125
2409,-20.12,2022-10-26 09:59:53.343750
2410,-26.81,2022-10-26 09:59:53.359375
2411,-33.99,2022-10-26 09:59:53.375000
2412,-40.76,2022-10-26 09:59:53.390625
2413,-45.95,2022-10-26 09:59:53.406250
2414,-48.42,2022-10-26 09:59:53.421875
2415,-47.36,2022-10-26 09:59:53.437500
2416,-42.62,2022-10-26 09:59:53.453125
2417,-34.73,2022-10-26 09:59:53.468750
2418,-24.77,2022-10-26 09:59:53.484375
2419,-14.04,2022-10-26 09:59:53.500000
2420,-3.67,2022-10-26 09:59:53.515625
2421,5.63,2022-10-26 09:59:53.531250
2422,13.6,2022-10-26 09:59:53.546875
2423,20.29,2022-10-26 09:59:53.562500
2424,25.8,2022-10-26 09:59:53.578125
2425,30.17,2022-10-26 09:59:53.593750
2426,33.27,2022-10-26 09:59:53.609375
2427,34.98,2022-10-26 09:59:53.625000
2428,35.33,2022-10-26 09:59:53.640625
2429,34.6,2022-10-26 09:59:53.656250
2430,33.21,2022-10-26 09:59:53.671875
2431,31.66,2022-10-26 09:59:53.687500
2432,30.31,2022-10-26 09:59:53.703125
2433,29.34,2022-10-26 09:59:53.718750
2434,28.72,2022-10-26 09:59:53.734375
2435,28.32,2022-10-26 09:59:53.750000
2436,27.95,2022-10-26 09:59:53.765625
2437,27.4,2022-10-26 09:59:53.781250
2438,26.47,2022-10-26 09:59:53.796875
2439,24.98,2022-10-26 09:59:53.812500
2440,22.82,2022-10-26 09:59:53.828125
2441,19.97,2022-10-26 09:59:53.843750
2442,16.53,2022-10-26 09:59:53.859375
2443,12.63,2022-10-26 09:59:53.875000
2444,8.37,2022-10-26 09:59:53.890625
2445,3.75,2022-10-26 09:59:53.906250
2446,-1.36,2022-10-26 09:59:53.921875
2447,-7.12,2022-10-26 09:59:53.937500
2448,-13.67,2022-10-26 09:59:53.953125
2449,-21.0,2022-10-26 09:59:53.968750
2450,-28.82,2022-10-26 09:59:53.984375
2451,-36.51,2022-10-26 09:59:54.000000
2452,-43.06,2022-10-26 09:59:54.015625
2453,-47.31,2022-10-26 09:59:54.031250
2454,-48.18,2022-10-26 09:59:54.046875
2455,-45.04,2022-10-26 09:59:54.062500
2456,-38.01,2022-10-26 09:59:54.078125
2457,-27.96,2022-10-26 09:59:54.093750
2458,-16.27,2022-10-26 09:59:54.109375
2459,-4.37,2022-10-26 09:59:54.125000
2460,6.59,2022-10-26 09:59:54.140625
2461,15.97,2022-10-26 09:59:54.156250
2462,23.63,2022-10-26 09:59:54.171875
2463,29.67,2022-10-26 09:59:54.187500
2464,34.25,2022-10-26 09:59:54.203125
2465,37.47,2022-10-26 09:59:54.218750
2466,39.38,2022-10-26 09:59:54.234375
2467,40.12,2022-10-26 09:59:54.250000
2468,39.93,2022-10-26 09:59:54.265625
2469,39.2,2022-10-26 09:59:54.281250
2470,38.31,2022-10-26 09:59:54.296875
2471,37.58,2022-10-26 09:59:54.312500
2472,37.15,2022-10-26 09:59:54.328125
2473,36.97,2022-10-26 09:59:54.343750
2474,36.85,2022-10-26 09:59:54.359375
2475,36.52,2022-10-26 09:59:54.375000
2476,35.75,2022-10-26 09:59:54.390625
2477,34.41,2022-10-26 09:59:54.406250
2478,32.51,2022-10-26 09:59:54.421875
2479,30.17,2022-10-26 09:59:54.437500
2480,27.51,2022-10-26 09:59:54.453125
2481,24.62,2022-10-26 09:59:54.468750
2482,21.49,2022-10-26 09:59:54.484375
2483,18.05,2022-10-26 09:59:54.500000
2484,14.21,2022-10-26 09:59:54.515625
2485,9.89,2022-10-26 09:59:54.531250
2486,4.91,2022-10-26 09:59:54.546875
2487,-0.88,2022-10-26 09:59:54.562500
2488,-7.54,2022-10-26 09:59:54.578125
2489,-14.9,2022-10-26 09:59:54.593750
2490,-22.4,2022-10-26 09:59:54.609375
2491,-29.02,2022-10-26 09:59:54.625000
2492,-33.49,2022-10-26 09:59:54.640625
2493,-34.69,2022-10-26 09:59:54.656250
2494,-31.99,2022-10-26 09:59:54.671875
2495,-25.52,2022-10-26 09:59:54.687500
2496,-16.19,2022-10-26 09:59:54.703125
2497,-5.38,2022-10-26 09:59:54.718750
2498,5.5,2022-10-26 09:59:54.734375
2499,15.35,2022-10-26 09:59:54.750000
2500,23.58,2022-10-26 09:59:54.765625
2501,30.08,2022-10-26 09:59:54.781250
2502,35.01,2022-10-26 09:59:54.796875
2503,38.58,2022-10-26 09:59:54.812500
2504,40.89,2022-10-26 09:59:54.828125
2505,42.01,2022-10-26 09:59:54.843750
2506,41.99,2022-10-26 09:59:54.859375
2507,41.04,2022-10-26 09:59:54.875000
2508,39.57,2022-10-26 09:59:54.890625
2509,38.05,2022-10-26 09:59:54.906250
2510,36.85,2022-10-26 09:59:54.921875
2511,36.11,2022-10-26 09:59:54.937500
2512,35.68,2022-10-26 09:59:54.953125
2513,35.21,2022-10-26 09:59:54.968750
2514,34.29,2022-10-26 09:59:54.984375
2515,32.64,2022-10-26 09:59:55.000000
2516,30.18,2022-10-26 09:59:55.015625
2517,27.09,2022-10-26 09:59:55.031250
2518,23.61,2022-10-26 09:59:55.046875
2519,20.06,2022-10-26 09:59:55.062500
2520,16.61,2022-10-26 09:59:55.078125
2521,13.26,2022-10-26 09:59:55.093750
2522,9.8,2022-10-26 09:59:55.109375
2523,5.88,2022-10-26 09:59:55.125000
2524,1.08,2022-10-26 09:59:55.140625
2525,-4.94,2022-10-26 09:59:55.156250
2526,-12.33,2022-10-26 09:59:55.171875
2527,-20.95,2022-10-26 09:59:55.187500
2528,-30.21,2022-10-26 09:59:55.203125
2529,-39.09,2022-10-26 09:59:55.218750
2530,-46.27,2022-10-26 09:59:55.234375
2531,-50.41,2022-10-26 09:59:55.250000
2532,-50.45,2022-10-26 09:59:55.265625
2533,-46.0,2022-10-26 09:59:55.281250
2534,-37.51,2022-10-26 09:59:55.296875
2535,-26.14,2022-10-26 09:59:55.312500
2536,-13.48,2022-10-26 09:59:55.328125
2537,-1.13,2022-10-26 09:59:55.343750
2538,9.75,2022-10-26 09:59:55.359375
2539,18.58,2022-10-26 09:59:55.375000
2540,25.36,2022-10-26 09:59:55.390625
2541,30.4,2022-10-26 09:59:55.406250
2542,34.12,2022-10-26 09:59:55.421875
2543,36.79,2022-10-26 09:59:55.437500
2544,38.52,2022-10-26 09:59:55.453125
2545,39.29,2022-10-26 09:59:55.468750
2546,39.13,2022-10-26 09:59:55.484375
2547,38.21,2022-10-26 09:59:55.500000
2548,36.83,2022-10-26 09:59:55.515625
2549,35.33,2022-10-26 09:59:55.531250
2550,33.95,2022-10-26 09:59:55.546875
2551,32.79,2022-10-26 09:59:55.562500
2552,31.78,2022-10-26 09:59:55.578125
2553,30.8,2022-10-26 09:59:55.593750
2554,29.69,2022-10-26 09:59:55.609375
2555,28.32,2022-10-26 09:59:55.625000
2556,26.57,2022-10-26 09:59:55.640625
2557,24.32,2022-10-26 09:59:55.656250
2558,21.47,2022-10-26 09:59:55.671875
2559,17.98,2022-10-26 09:59:55.687500
2560,13.93,2022-10-26 09:59:55.703125
2561,9.5,2022-10-26 09:59:55.718750
2562,4.97,2022-10-26 09:59:55.734375
2563,0.49,2022-10-26 09:59:55.750000
2564,-3.9,2022-10-26 09:59:55.765625
2565,-8.39,2022-10-26 09:59:55.781250
2566,-13.32,2022-10-26 09:59:55.796875
2567,-18.99,2022-10-26 09:59:55.812500
2568,-25.46,2022-10-26 09:59:55.828125
2569,-32.36,2022-10-26 09:59:55.843750
2570,-38.87,2022-10-26 09:59:55.859375
2571,-43.81,2022-10-26 09:59:55.875000
2572,-45.95,2022-10-26 09:59:55.890625
2573,-44.38,2022-10-26 09:59:55.906250
2574,-38.78,2022-10-26 09:59:55.921875
2575,-29.64,2022-10-26 09:59:55.937500
2576,-18.01,2022-10-26 09:59:55.953125
2577,-5.33,2022-10-26 09:59:55.968750
2578,7.07,2022-10-26 09:59:55.984375
2579,18.13,2022-10-26 09:59:56.000000
2580,27.32,2022-10-26 09:59:56.015625
2581,34.51,2022-10-26 09:59:56.031250
2582,39.83,2022-10-26 09:59:56.046875
2583,43.55,2022-10-26 09:59:56.062500
2584,45.94,2022-10-26 09:59:56.078125
2585,47.24,2022-10-26 09:59:56.093750
2586,47.68,2022-10-26 09:59:56.109375
2587,47.51,2022-10-26 09:59:56.125000
2588,46.96,2022-10-26 09:59:56.140625
2589,46.25,2022-10-26 09:59:56.156250
2590,45.52,2022-10-26 09:59:56.171875
2591,44.76,2022-10-26 09:59:56.187500
2592,43.9,2022-10-26 09:59:56.203125
2593,42.88,2022-10-26 09:59:56.218750
2594,41.65,2022-10-26 09:59:56.234375
2595,40.23,2022-10-26 09:59:56.250000
2596,38.59,2022-10-26 09:59:56.265625
2597,36.64,2022-10-26 09:59:56.281250
2598,34.24,2022-10-26 09:59:56.296875
2599,31.24,2022-10-26 09:59:56.312500
2600,27.57,2022-10-26 09:59:56.328125
2601,23.34,2022-10-26 09:59:56.343750
2602,18.77,2022-10-26 09:59:56.359375
2603,14.13,2022-10-26 09:59:56.375000
2604,9.58,2022-10-26 09:59:56.390625
2605,5.14,2022-10-26 09:59:56.406250
2606,0.62,2022-10-26 09:59:56.421875
2607,-4.31,2022-10-26 09:59:56.437500
2608,-9.96,2022-10-26 09:59:56.453125
2609,-16.52,2022-10-26 09:59:56.468750
2610,-23.79,2022-10-26 09:59:56.484375
2611,-31.13,2022-10-26 09:59:56.500000
2612,-37.49,2022-10-26 09:59:56.515625
2613,-41.58,2022-10-26 09:59:56.531250
2614,-42.33,2022-10-26 09:59:56.546875
2615,-39.16,2022-10-26 09:59:56.562500
2616,-32.29,2022-10-26 09:59:56.578125
2617,-22.63,2022-10-26 09:59:56.593750
2618,-11.47,2022-10-26 09:59:56.609375
2619,-0.1,2022-10-26 09:59:56.625000
2620,10.53,2022-10-26 09:59:56.640625
2621,19.93,2022-10-26 09:59:56.656250
2622,27.93,2022-10-26 09:59:56.671875
2623,34.5,2022-10-26 09:59:56.687500
2624,39.57,2022-10-26 09:59:56.703125
2625,42.96,2022-10-26 09:59:56.718750
2626,44.46,2022-10-26 09:59:56.734375
2627,43.96,2022-10-26 09:59:56.750000
2628,41.57,2022-10-26 09:59:56.765625
2629,37.73,2022-10-26 09:59:56.781250
2630,33.18,2022-10-26 09:59:56.796875
2631,28.82,2022-10-26 09:59:56.812500
2632,25.43,2022-10-26 09:59:56.828125
2633,23.49,2022-10-26 09:59:56.843750
2634,22.97,2022-10-26 09:59:56.859375
2635,23.46,2022-10-26 09:59:56.875000
2636,24.3,2022-10-26 09:59:56.890625
2637,24.92,2022-10-26 09:59:56.906250
2638,25.01,2022-10-26 09:59:56.921875
2639,24.49,2022-10-26 09:59:56.937500
2640,23.48,2022-10-26 09:59:56.953125
2641,22.07,2022-10-26 09:59:56.968750
2642,20.19,2022-10-26 09:59:56.984375
2643,17.68,2022-10-26 09:59:57.000000
2644,14.3,2022-10-26 09:59:57.015625
2645,9.86,2022-10-26 09:59:57.031250
2646,4.27,2022-10-26 09:59:57.046875
2647,-2.49,2022-10-26 09:59:57.062500
2648,-10.28,2022-10-26 09:59:57.078125
2649,-18.76,2022-10-26 09:59:57.093750
2650,-27.27,2022-10-26 09:59:57.109375
2651,-34.81,2022-10-26 09:59:57.125000
2652,-40.19,2022-10-26 09:59:57.140625
2653,-42.3,2022-10-26 09:59:57.156250
2654,-40.49,2022-10-26 09:59:57.171875
2655,-34.79,2022-10-26 09:59:57.187500
2656,-25.96,2022-10-26 09:59:57.203125
2657,-15.33,2022-10-26 09:59:57.218750
2658,-4.36,2022-10-26 09:59:57.234375
2659,5.72,2022-10-26 09:59:57.250000
2660,14.16,2022-10-26 09:59:57.265625
2661,20.79,2022-10-26 09:59:57.281250
2662,25.78,2022-10-26 09:59:57.296875
2663,29.46,2022-10-26 09:59:57.312500
2664,32.05,2022-10-26 09:59:57.328125
2665,33.64,2022-10-26 09:59:57.343750
2666,34.22,2022-10-26 09:59:57.359375
2667,33.85,2022-10-26 09:59:57.375000
2668,32.76,2022-10-26 09:59:57.390625
2669,31.3,2022-10-26 09:59:57.406250
2670,29.81,2022-10-26 09:59:57.421875
2671,28.48,2022-10-26 09:59:57.437500
2672,27.27,2022-10-26 09:59:57.453125
2673,25.94,2022-10-26 09:59:57.468750
2674,24.24,2022-10-26 09:59:57.484375
2675,22.03,2022-10-26 09:59:57.500000
2676,19.43,2022-10-26 09:59:57.515625
2677,16.66,2022-10-26 09:59:57.531250
2678,14.01,2022-10-26 09:59:57.546875
2679,11.6,2022-10-26 09:59:57.562500
2680,9.33,2022-10-26 09:59:57.578125
2681,6.92,2022-10-26 09:59:57.593750
2682,4.03,2022-10-26 09:59:57.609375
2683,0.37,2022-10-26 09:59:57.625000
2684,-4.14,2022-10-26 09:59:57.640625
2685,-9.43,2022-10-26 09:59:57.656250
2686,-15.34,2022-10-26 09:59:57.671875
2687,-21.68,2022-10-26 09:59:57.687500
2688,-28.22,2022-10-26 09:59:57.703125
2689,-34.58,2022-10-26 09:59:57.718750
2690,-40.13,2022-10-26 09:59:57.734375
2691,-43.97,2022-10-26 09:59:57.750000
2692,-45.11,2022-10-26 09:59:57.765625
2693,-42.79,2022-10-26 09:59:57.781250
2694,-36.84,2022-10-26 09:59:57.796875
2695,-27.7,2022-10-26 09:59:57.812500
2696,-16.42,2022-10-26 09:59:57.828125
2697,-4.28,2022-10-26 09:59:57.843750
2698,7.54,2022-10-26 09:59:57.859375
2699,18.27,2022-10-26 09:59:57.875000
2700,27.61,2022-10-26 09:59:57.890625
2701,35.67,2022-10-26 09:59:57.906250
2702,42.74,2022-10-26 09:59:57.921875
2703,49.12,2022-10-26 09:59:57.937500
2704,54.95,2022-10-26 09:59:57.953125
2705,60.12,2022-10-26 09:59:57.968750
2706,64.27,2022-10-26 09:59:57.984375
2707,66.93,2022-10-26 09:59:58.000000
2708,67.57,2022-10-26 09:59:58.015625
2709,65.79,2022-10-26 09:59:58.031250
2710,61.43,2022-10-26 09:59:58.046875
2711,54.62,2022-10-26 09:59:58.062500
2712,45.92,2022-10-26 09:59:58.078125
2713,36.39,2022-10-26 09:59:58.093750
2714,27.62,2022-10-26 09:59:58.109375
2715,21.67,2022-10-26 09:59:58.125000
2716,20.7,2022-10-26 09:59:58.140625
2717,26.32,2022-10-26 09:59:58.156250
2718,38.8,2022-10-26 09:59:58.171875
2719,56.62,2022-10-26 09:59:58.187500
2720,76.52,2022-10-26 09:59:58.203125
2721,94.32,2022-10-26 09:59:58.218750
2722,106.12,2022-10-26 09:59:58.234375
2723,109.3,2022-10-26 09:59:58.250000
2724,103.17,2022-10-26 09:59:58.265625
2725,88.69,2022-10-26 09:59:58.281250
2726,67.91,2022-10-26 09:59:58.296875
2727,43.35,2022-10-26 09:59:58.312500
2728,17.65,2022-10-26 09:59:58.328125
2729,-6.59,2022-10-26 09:59:58.343750
2730,-26.84,2022-10-26 09:59:58.359375
2731,-41.03,2022-10-26 09:59:58.375000
2732,-48.07,2022-10-26 09:59:58.390625
2733,-48.26,2022-10-26 09:59:58.406250
2734,-43.27,2022-10-26 09:59:58.421875
2735,-35.57,2022-10-26 09:59:58.437500
2736,-27.61,2022-10-26 09:59:58.453125
2737,-21.17,2022-10-26 09:59:58.468750
2738,-17.13,2022-10-26 09:59:58.484375
2739,-15.76,2022-10-26 09:59:58.500000
2740,-16.97,2022-10-26 09:59:58.515625
2741,-20.62,2022-10-26 09:59:58.531250
2742,-26.33,2022-10-26 09:59:58.546875
2743,-33.42,2022-10-26 09:59:58.562500
2744,-40.87,2022-10-26 09:59:58.578125
2745,-47.58,2022-10-26 09:59:58.593750
2746,-52.79,2022-10-26 09:59:58.609375
2747,-56.42,2022-10-26 09:59:58.625000
2748,-59.05,2022-10-26 09:59:58.640625
2749,-61.62,2022-10-26 09:59:58.656250
2750,-64.98,2022-10-26 09:59:58.671875
2751,-69.54,2022-10-26 09:59:58.687500
2752,-75.21,2022-10-26 09:59:58.703125
2753,-81.37,2022-10-26 09:59:58.718750
2754,-87.23,2022-10-26 09:59:58.734375
2755,-91.9,2022-10-26 09:59:58.750000
2756,-94.58,2022-10-26 09:59:58.765625
2757,-94.76,2022-10-26 09:59:58.781250
2758,-92.29,2022-10-26 09:59:58.796875
2759,-87.53,2022-10-26 09:59:58.812500
2760,-81.27,2022-10-26 09:59:58.828125
2761,-74.6,2022-10-26 09:59:58.843750
2762,-68.53,2022-10-26 09:59:58.859375
2763,-63.67,2022-10-26 09:59:58.875000
2764,-60.04,2022-10-26 09:59:58.890625
2765,-57.16,2022-10-26 09:59:58.906250
2766,-54.36,2022-10-26 09:59:58.921875
2767,-51.14,2022-10-26 09:59:58.937500
2768,-47.41,2022-10-26 09:59:58.953125
2769,-43.4,2022-10-26 09:59:58.968750
2770,-39.43,2022-10-26 09:59:58.984375
2771,-35.58,2022-10-26 09:59:59.000000
2772,-31.55,2022-10-26 09:59:59.015625
2773,-26.82,2022-10-26 09:59:59.031250
2774,-20.96,2022-10-26 09:59:59.046875
2775,-13.83,2022-10-26 09:59:59.062500
2776,-5.61,2022-10-26 09:59:59.078125
2777,3.29,2022-10-26 09:59:59.093750
2778,12.39,2022-10-26 09:59:59.109375
2779,21.23,2022-10-26 09:59:59.125000
2780,29.25,2022-10-26 09:59:59.140625
2781,35.74,2022-10-26 09:59:59.156250
2782,39.85,2022-10-26 09:59:59.171875
2783,40.89,2022-10-26 09:59:59.187500
2784,38.63,2022-10-26 09:59:59.203125
2785,33.46,2022-10-26 09:59:59.218750
2786,26.37,2022-10-26 09:59:59.234375
2787,18.64,2022-10-26 09:59:59.250000
2788,11.46,2022-10-26 09:59:59.265625
2789,5.63,2022-10-26 09:59:59.281250
2790,1.44,2022-10-26 09:59:59.296875
2791,-1.22,2022-10-26 09:59:59.312500
2792,-2.71,2022-10-26 09:59:59.328125
2793,-3.46,2022-10-26 09:59:59.343750
2794,-3.87,2022-10-26 09:59:59.359375
2795,-4.21,2022-10-26 09:59:59.375000
2796,-4.62,2022-10-26 09:59:59.390625
2797,-5.16,2022-10-26 09:59:59.406250
2798,-5.95,2022-10-26 09:59:59.421875
2799,-7.29,2022-10-26 09:59:59.437500
2800,-9.67,2022-10-26 09:59:59.453125
2801,-13.63,2022-10-26 09:59:59.468750
2802,-19.55,2022-10-26 09:59:59.484375
2803,-27.42,2022-10-26 09:59:59.500000
2804,-36.68,2022-10-26 09:59:59.515625
2805,-46.21,2022-10-26 09:59:59.531250
2806,-54.63,2022-10-26 09:59:59.546875
2807,-60.53,2022-10-26 09:59:59.562500
2808,-62.82,2022-10-26 09:59:59.578125
2809,-61.04,2022-10-26 09:59:59.593750
2810,-55.42,2022-10-26 09:59:59.609375
2811,-46.78,2022-10-26 09:59:59.625000
2812,-36.39,2022-10-26 09:59:59.640625
2813,-25.52,2022-10-26 09:59:59.656250
2814,-15.25,2022-10-26 09:59:59.671875
2815,-6.15,2022-10-26 09:59:59.687500
2816,1.63,2022-10-26 09:59:59.703125
2817,8.35,2022-10-26 09:59:59.718750
2818,14.31,2022-10-26 09:59:59.734375
2819,19.83,2022-10-26 09:59:59.750000
2820,25.03,2022-10-26 09:59:59.765625
2821,29.98,2022-10-26 09:59:59.781250
2822,34.64,2022-10-26 09:59:59.796875
2823,38.98,2022-10-26 09:59:59.812500
2824,42.89,2022-10-26 09:59:59.828125
2825,46.13,2022-10-26 09:59:59.843750
2826,48.37,2022-10-26 09:59:59.859375
2827,49.22,2022-10-26 09:59:59.875000
2828,48.43,2022-10-26 09:59:59.890625
2829,46.02,2022-10-26 09:59:59.906250
2830,42.32,2022-10-26 09:59:59.921875
2831,37.92,2022-10-26 09:59:59.937500
2832,33.38,2022-10-26 09:59:59.953125
2833,29.16,2022-10-26 09:59:59.968750
2834,25.46,2022-10-26 09:59:59.984375
2835,22.29,2022-10-26 10:00:00.000000
2836,19.49,2022-10-26 10:00:00.015625
2837,16.92,2022-10-26 10:00:00.031250
2838,14.4,2022-10-26 10:00:00.046875
2839,11.8,2022-10-26 10:00:00.062500
2840,8.87,2022-10-26 10:00:00.078125
2841,5.3,2022-10-26 10:00:00.093750
2842,0.73,2022-10-26 10:00:00.109375
2843,-5.08,2022-10-26 10:00:00.125000
2844,-12.07,2022-10-26 10:00:00.140625
2845,-19.71,2022-10-26 10:00:00.156250
2846,-26.97,2022-10-26 10:00:00.171875
2847,-32.63,2022-10-26 10:00:00.187500
2848,-35.57,2022-10-26 10:00:00.203125
2849,-35.21,2022-10-26 10:00:00.218750
2850,-31.69,2022-10-26 10:00:00.234375
2851,-25.79,2022-10-26 10:00:00.250000
2852,-18.65,2022-10-26 10:00:00.265625
2853,-11.39,2022-10-26 10:00:00.281250
2854,-4.84,2022-10-26 10:00:00.296875
2855,0.58,2022-10-26 10:00:00.312500
2856,4.73,2022-10-26 10:00:00.328125
2857,7.75,2022-10-26 10:00:00.343750
2858,9.94,2022-10-26 10:00:00.359375
2859,11.71,2022-10-26 10:00:00.375000
2860,13.52,2022-10-26 10:00:00.390625
2861,15.66,2022-10-26 10:00:00.406250
2862,18.19,2022-10-26 10:00:00.421875
2863,20.84,2022-10-26 10:00:00.437500
2864,23.15,2022-10-26 10:00:00.453125
2865,24.65,2022-10-26 10:00:00.468750
2866,25.07,2022-10-26 10:00:00.484375
2867,24.45,2022-10-26 10:00:00.500000
2868,23.09,2022-10-26 10:00:00.515625
2869,21.36,2022-10-26 10:00:00.531250
2870,19.61,2022-10-26 10:00:00.546875
2871,18.04,2022-10-26 10:00:00.562500
2872,16.76,2022-10-26 10:00:00.578125
2873,15.64,2022-10-26 10:00:00.593750
2874,14.44,2022-10-26 10:00:00.609375
2875,12.8,2022-10-26 10:00:00.625000
2876,10.36,2022-10-26 10:00:00.640625
2877,6.92,2022-10-26 10:00:00.656250
2878,2.58,2022-10-26 10:00:00.671875
2879,-2.23,2022-10-26 10:00:00.687500
2880,-7.0,2022-10-26 10:00:00.703125
2881,-11.37,2022-10-26 10:00:00.718750
2882,-15.35,2022-10-26 10:00:00.734375
2883,-19.32,2022-10-26 10:00:00.750000
2884,-23.84,2022-10-26 10:00:00.765625
2885,-29.37,2022-10-26 10:00:00.781250
2886,-36.01,2022-10-26 10:00:00.796875
2887,-43.35,2022-10-26 10:00:00.812500
2888,-50.64,2022-10-26 10:00:00.828125
2889,-56.86,2022-10-26 10:00:00.843750
2890,-60.99,2022-10-26 10:00:00.859375
2891,-62.19,2022-10-26 10:00:00.875000
2892,-60.02,2022-10-26 10:00:00.890625
2893,-54.54,2022-10-26 10:00:00.906250
2894,-46.44,2022-10-26 10:00:00.921875
2895,-36.84,2022-10-26 10:00:00.937500
2896,-27.01,2022-10-26 10:00:00.953125
2897,-17.97,2022-10-26 10:00:00.968750
2898,-10.17,2022-10-26 10:00:00.984375
2899,-3.47,2022-10-26 10:00:01.000000
2900,2.58,2022-10-26 10:00:01.015625
2901,8.33,2022-10-26 10:00:01.031250
2902,13.79,2022-10-26 10:00:01.046875
2903,18.55,2022-10-26 10:00:01.062500
2904,22.03,2022-10-26 10:00:01.078125
2905,23.9,2022-10-26 10:00:01.093750
2906,24.32,2022-10-26 10:00:01.109375
2907,23.88,2022-10-26 10:00:01.125000
2908,23.33,2022-10-26 10:00:01.140625
2909,23.17,2022-10-26 10:00:01.156250
2910,23.45,2022-10-26 10:00:01.171875
2911,23.82,2022-10-26 10:00:01.187500
2912,23.83,2022-10-26 10:00:01.203125
2913,23.23,2022-10-26 10:00:01.218750
2914,22.06,2022-10-26 10:00:01.234375
2915,20.61,2022-10-26 10:00:01.250000
2916,19.14,2022-10-26 10:00:01.265625
2917,17.72,2022-10-26 10:00:01.281250
2918,16.19,2022-10-26 10:00:01.296875
2919,14.3,2022-10-26 10:00:01.312500
2920,11.97,2022-10-26 10:00:01.328125
2921,9.29,2022-10-26 10:00:01.343750
2922,6.55,2022-10-26 10:00:01.359375
2923,4.04,2022-10-26 10:00:01.375000
2924,1.83,2022-10-26 10:00:01.390625
2925,-0.23,2022-10-26 10:00:01.406250
2926,-2.52,2022-10-26 10:00:01.421875
2927,-5.48,2022-10-26 10:00:01.437500
2928,-9.39,2022-10-26 10:00:01.453125
2929,-14.19,2022-10-26 10:00:01.468750
2930,-19.44,2022-10-26 10:00:01.484375
2931,-24.28,2022-10-26 10:00:01.500000
2932,-27.64,2022-10-26 10:00:01.515625
2933,-28.54,2022-10-26 10:00:01.531250
2934,-26.42,2022-10-26 10:00:01.546875
2935,-21.35,2022-10-26 10:00:01.562500
2936,-14.06,2022-10-26 10:00:01.578125
2937,-5.69,2022-10-26 10:00:01.593750
2938,2.54,2022-10-26 10:00:01.609375
2939,9.69,2022-10-26 10:00:01.625000
2940,15.33,2022-10-26 10:00:01.640625
2941,19.44,2022-10-26 10:00:01.656250
2942,22.31,2022-10-26 10:00:01.671875
2943,24.24,2022-10-26 10:00:01.687500
2944,25.41,2022-10-26 10:00:01.703125
2945,25.94,2022-10-26 10:00:01.718750
2946,25.85,2022-10-26 10:00:01.734375
2947,25.24,2022-10-26 10:00:01.750000
2948,24.24,2022-10-26 10:00:01.765625
2949,23.03,2022-10-26 10:00:01.781250
2950,21.68,2022-10-26 10:00:01.796875
2951,20.19,2022-10-26 10:00:01.812500
2952,18.49,2022-10-26 10:00:01.828125
2953,16.53,2022-10-26 10:00:01.843750
2954,14.34,2022-10-26 10:00:01.859375
2955,12.1,2022-10-26 10:00:01.875000
2956,10.02,2022-10-26 10:00:01.890625
2957,8.27,2022-10-26 10:00:01.906250
2958,6.81,2022-10-26 10:00:01.921875
2959,5.42,2022-10-26 10:00:01.937500
2960,3.75,2022-10-26 10:00:01.953125
2961,1.5,2022-10-26 10:00:01.968750
2962,-1.44,2022-10-26 10:00:01.984375
2963,-4.95,2022-10-26 10:00:02.000000
2964,-8.72,2022-10-26 10:00:02.015625
2965,-12.38,2022-10-26 10:00:02.031250
2966,-15.59,2022-10-26 10:00:02.046875
2967,-18.2,2022-10-26 10:00:02.062500
2968,-20.26,2022-10-26 10:00:02.078125
2969,-22.11,2022-10-26 10:00:02.093750
2970,-24.22,2022-10-26 10:00:02.109375
2971,-27.12,2022-10-26 10:00:02.125000
2972,-30.99,2022-10-26 10:00:02.140625
2973,-35.52,2022-10-26 10:00:02.156250
2974,-39.86,2022-10-26 10:00:02.171875
2975,-42.81,2022-10-26 10:00:02.187500
2976,-43.3,2022-10-26 10:00:02.203125
2977,-40.83,2022-10-26 10:00:02.218750
2978,-35.7,2022-10-26 10:00:02.234375
2979,-28.84,2022-10-26 10:00:02.250000
2980,-21.46,2022-10-26 10:00:02.265625
2981,-14.54,2022-10-26 10:00:02.281250
2982,-8.65,2022-10-26 10:00:02.296875
2983,-3.89,2022-10-26 10:00:02.312500
2984,-0.14,2022-10-26 10:00:02.328125
2985,2.78,2022-10-26 10:00:02.343750
2986,5.0,2022-10-26 10:00:02.359375
2987,6.67,2022-10-26 10:00:02.375000
2988,7.97,2022-10-26 10:00:02.390625
2989,9.15,2022-10-26 10:00:02.406250
2990,10.45,2022-10-26 10:00:02.421875
2991,11.97,2022-10-26 10:00:02.437500
2992,13.63,2022-10-26 10:00:02.453125
2993,15.2,2022-10-26 10:00:02.468750
2994,16.42,2022-10-26 10:00:02.484375
2995,17.05,2022-10-26 10:00:02.500000
2996,17.01,2022-10-26 10:00:02.515625
2997,16.39,2022-10-26 10:00:02.531250
2998,15.35,2022-10-26 10:00:02.546875
2999,14.15,2022-10-26 10:00:02.562500
3000,12.97,2022-10-26 10:00:02.578125
3001,11.93,2022-10-26 10:00:02.593750
3002,11.08,2022-10-26 10:00:02.609375
3003,10.36,2022-10-26 10:00:02.625000
3004,9.72,2022-10-26 10:00:02.640625
3005,9.05,2022-10-26 10:00:02.656250
3006,8.22,2022-10-26 10:00:02.671875
3007,7.03,2022-10-26 10:00:02.687500
3008,5.3,2022-10-26 10:00:02.703125
3009,2.85,2022-10-26 10:00:02.718750
3010,-0.31,2022-10-26 10:00:02.734375
3011,-3.99,2022-10-26 10:00:02.750000
3012,-7.83,2022-10-26 10:00:02.765625
3013,-11.4,2022-10-26 10:00:02.781250
3014,-14.43,2022-10-26 10:00:02.796875
3015,-16.89,2022-10-26 10:00:02.812500
3016,-19.02,2022-10-26 10:00:02.828125
3017,-21.22,2022-10-26 10:00:02.843750
3018,-23.88,2022-10-26 10:00:02.859375
3019,-27.25,2022-10-26 10:00:02.875000
3020,-31.29,2022-10-26 10:00:02.890625
3021,-35.61,2022-10-26 10:00:02.906250
3022,-39.54,2022-10-26 10:00:02.921875
3023,-42.24,2022-10-26 10:00:02.937500
3024,-42.94,2022-10-26 10:00:02.953125
3025,-41.14,2022-10-26 10:00:02.968750
3026,-36.78,2022-10-26 10:00:02.984375
3027,-30.3,2022-10-26 10:00:03.000000
3028,-22.5,2022-10-26 10:00:03.015625
3029,-14.34,2022-10-26 10:00:03.031250
3030,-6.7,2022-10-26 10:00:03.046875
3031,-0.17,2022-10-26 10:00:03.062500
3032,5.04,2022-10-26 10:00:03.078125
3033,8.97,2022-10-26 10:00:03.093750
3034,11.88,2022-10-26 10:00:03.109375
3035,14.01,2022-10-26 10:00:03.125000
3036,15.55,2022-10-26 10:00:03.140625
3037,16.58,2022-10-26 10:00:03.156250
3038,17.13,2022-10-26 10:00:03.171875
3039,17.28,2022-10-26 10:00:03.187500
3040,17.15,2022-10-26 10:00:03.203125
3041,16.94,2022-10-26 10:00:03.218750
3042,16.8,2022-10-26 10:00:03.234375
3043,16.79,2022-10-26 10:00:03.250000
3044,16.81,2022-10-26 10:00:03.265625
3045,16.67,2022-10-26 10:00:03.281250
3046,16.2,2022-10-26 10:00:03.296875
3047,15.31,2022-10-26 10:00:03.312500
3048,14.07,2022-10-26 10:00:03.328125
3049,12.53,2022-10-26 10:00:03.343750
3050,10.84,2022-10-26 10:00:03.359375
3051,9.02,2022-10-26 10:00:03.375000
3052,7.08,2022-10-26 10:00:03.390625
3053,4.98,2022-10-26 10:00:03.406250
3054,2.73,2022-10-26 10:00:03.421875
3055,0.41,2022-10-26 10:00:03.437500
3056,-1.88,2022-10-26 10:00:03.453125
3057,-4.02,2022-10-26 10:00:03.468750
3058,-5.92,2022-10-26 10:00:03.484375
3059,-7.56,2022-10-26 10:00:03.500000
3060,-9.02,2022-10-26 10:00:03.515625
3061,-10.44,2022-10-26 10:00:03.531250
3062,-11.95,2022-10-26 10:00:03.546875
3063,-13.64,2022-10-26 10:00:03.562500
3064,-15.51,2022-10-26 10:00:03.578125
3065,-17.59,2022-10-26 10:00:03.593750
3066,-19.92,2022-10-26 10:00:03.609375
3067,-22.59,2022-10-26 10:00:03.625000
3068,-25.71,2022-10-26 10:00:03.640625
3069,-29.17,2022-10-26 10:00:03.656250
3070,-32.58,2022-10-26 10:00:03.671875
3071,-35.25,2022-10-26 10:00:03.687500
3072,-36.36,2022-10-26 10:00:03.703125
3073,-35.3,2022-10-26 10:00:03.718750
3074,-31.94,2022-10-26 10:00:03.734375
3075,-26.68,2022-10-26 10:00:03.750000
3076,-20.31,2022-10-26 10:00:03.765625
3077,-13.71,2022-10-26 10:00:03.781250
3078,-7.54,2022-10-26 10:00:03.796875
3079,-2.15,2022-10-26 10:00:03.812500
3080,2.4,2022-10-26 10:00:03.828125
3081,6.19,2022-10-26 10:00:03.843750
3082,9.31,2022-10-26 10:00:03.859375
3083,11.8,2022-10-26 10:00:03.875000
3084,13.66,2022-10-26 10:00:03.890625
3085,14.9,2022-10-26 10:00:03.906250
3086,15.58,2022-10-26 10:00:03.921875
3087,15.76,2022-10-26 10:00:03.937500
3088,15.55,2022-10-26 10:00:03.953125
3089,15.07,2022-10-26 10:00:03.968750
3090,14.47,2022-10-26 10:00:03.984375
3091,13.96,2022-10-26 10:00:04.000000
3092,13.67,2022-10-26 10:00:04.015625
3093,13.67,2022-10-26 10:00:04.031250
3094,13.86,2022-10-26 10:00:04.046875
3095,14.08,2022-10-26 10:00:04.062500
3096,14.17,2022-10-26 10:00:04.078125
3097,14.01,2022-10-26 10:00:04.093750
3098,13.65,2022-10-26 10:00:04.109375
3099,13.16,2022-10-26 10:00:04.125000
3100,12.55,2022-10-26 10:00:04.140625
3101,11.71,2022-10-26 10:00:04.156250
3102,10.39,2022-10-26 10:00:04.171875
3103,8.34,2022-10-26 10:00:04.187500
3104,5.44,2022-10-26 10:00:04.203125
3105,1.86,2022-10-26 10:00:04.218750
3106,-1.99,2022-10-26 10:00:04.234375
3107,-5.71,2022-10-26 10:00:04.250000
3108,-8.96,2022-10-26 10:00:04.265625
3109,-11.68,2022-10-26 10:00:04.281250
3110,-13.96,2022-10-26 10:00:04.296875
3111,-15.97,2022-10-26 10:00:04.312500
3112,-17.86,2022-10-26 10:00:04.328125
3113,-19.68,2022-10-26 10:00:04.343750
3114,-21.54,2022-10-26 10:00:04.359375
3115,-23.52,2022-10-26 10:00:04.375000
3116,-25.74,2022-10-26 10:00:04.390625
3117,-28.15,2022-10-26 10:00:04.406250
3118,-30.42,2022-10-26 10:00:04.421875
3119,-31.93,2022-10-26 10:00:04.437500
3120,-31.97,2022-10-26 10:00:04.453125
3121,-30.0,2022-10-26 10:00:04.468750
3122,-25.9,2022-10-26 10:00:04.484375
3123,-20.07,2022-10-26 10:00:04.500000
3124,-13.27,2022-10-26 10:00:04.515625
3125,-6.38,2022-10-26 10:00:04.531250
3126,-0.08,2022-10-26 10:00:04.546875
3127,5.25,2022-10-26 10:00:04.562500
3128,9.55,2022-10-26 10:00:04.578125
3129,12.99,2022-10-26 10:00:04.593750
3130,15.8,2022-10-26 10:00:04.609375
3131,18.15,2022-10-26 10:00:04.625000
3132,20.1,2022-10-26 10:00:04.640625
3133,21.62,2022-10-26 10:00:04.656250
3134,22.65,2022-10-26 10:00:04.671875
3135,23.17,2022-10-26 10:00:04.687500
3136,23.29,2022-10-26 10:00:04.703125
3137,23.26,2022-10-26 10:00:04.718750
3138,23.35,2022-10-26 10:00:04.734375
3139,23.72,2022-10-26 10:00:04.750000
3140,24.34,2022-10-26 10:00:04.765625
3141,25.03,2022-10-26 10:00:04.781250
3142,25.64,2022-10-26 10:00:04.796875
3143,26.14,2022-10-26 10:00:04.812500
3144,26.72,2022-10-26 10:00:04.828125
3145,27.64,2022-10-26 10:00:04.843750
3146,29.04,2022-10-26 10:00:04.859375
3147,30.77,2022-10-26 10:00:04.875000
3148,32.38,2022-10-26 10:00:04.890625
3149,33.43,2022-10-26 10:00:04.906250
3150,33.68,2022-10-26 10:00:04.921875
3151,33.33,2022-10-26 10:00:04.937500
3152,32.86,2022-10-26 10:00:04.953125
3153,32.9,2022-10-26 10:00:04.968750
3154,33.82,2022-10-26 10:00:04.984375
3155,35.65,2022-10-26 10:00:05.000000
3156,37.98,2022-10-26 10:00:05.015625
3157,40.19,2022-10-26 10:00:05.031250
3158,41.68,2022-10-26 10:00:05.046875
3159,42.15,2022-10-26 10:00:05.062500
3160,41.83,2022-10-26 10:00:05.078125
3161,41.51,2022-10-26 10:00:05.093750
3162,42.37,2022-10-26 10:00:05.109375
3163,45.66,2022-10-26 10:00:05.125000
3164,52.25,2022-10-26 10:00:05.140625
3165,62.27,2022-10-26 10:00:05.156250
3166,74.99,2022-10-26 10:00:05.171875
3167,88.94,2022-10-26 10:00:05.187500
3168,102.26,2022-10-26 10:00:05.203125
3169,113.15,2022-10-26 10:00:05.218750
3170,120.21,2022-10-26 10:00:05.234375
3171,122.8,2022-10-26 10:00:05.250000
3172,121.15,2022-10-26 10:00:05.265625
3173,116.28,2022-10-26 10:00:05.281250
