,BVP,time
0,-95.87,2022-08-17 13:23:52.703125
1,-102.7,2022-08-17 13:23:52.718750
2,-104.29,2022-08-17 13:23:52.734375
3,-100.34,2022-08-17 13:23:52.750000
4,-91.41,2022-08-17 13:23:52.765625
5,-78.6,2022-08-17 13:23:52.781250
6,-63.14,2022-08-17 13:23:52.796875
7,-46.02,2022-08-17 13:23:52.812500
8,-28.07,2022-08-17 13:23:52.828125
9,-9.99,2022-08-17 13:23:52.843750
10,7.46,2022-08-17 13:23:52.859375
11,23.52,2022-08-17 13:23:52.875000
12,37.43,2022-08-17 13:23:52.890625
13,48.79,2022-08-17 13:23:52.906250
14,57.64,2022-08-17 13:23:52.921875
15,64.56,2022-08-17 13:23:52.937500
16,70.78,2022-08-17 13:23:52.953125
17,77.84,2022-08-17 13:23:52.968750
18,87.37,2022-08-17 13:23:52.984375
19,100.63,2022-08-17 13:23:53.000000
20,118.2,2022-08-17 13:23:53.015625
21,139.9,2022-08-17 13:23:53.031250
22,164.9,2022-08-17 13:23:53.046875
23,192.0,2022-08-17 13:23:53.062500
24,219.61,2022-08-17 13:23:53.078125
25,245.95,2022-08-17 13:23:53.093750
26,268.77,2022-08-17 13:23:53.109375
27,285.84,2022-08-17 13:23:53.125000
28,295.26,2022-08-17 13:23:53.140625
29,295.94,2022-08-17 13:23:53.156250
30,287.57,2022-08-17 13:23:53.171875
31,270.31,2022-08-17 13:23:53.187500
32,244.67,2022-08-17 13:23:53.203125
33,211.53,2022-08-17 13:23:53.218750
34,172.74,2022-08-17 13:23:53.234375
35,131.09,2022-08-17 13:23:53.250000
36,90.11,2022-08-17 13:23:53.265625
37,52.84,2022-08-17 13:23:53.281250
38,20.5,2022-08-17 13:23:53.296875
39,-8.12,2022-08-17 13:23:53.312500
40,-35.96,2022-08-17 13:23:53.328125
41,-65.88,2022-08-17 13:23:53.343750
42,-98.95,2022-08-17 13:23:53.359375
43,-133.47,2022-08-17 13:23:53.375000
44,-165.45,2022-08-17 13:23:53.390625
45,-190.03,2022-08-17 13:23:53.406250
46,-203.24,2022-08-17 13:23:53.421875
47,-203.01,2022-08-17 13:23:53.437500
48,-189.62,2022-08-17 13:23:53.453125
49,-165.63,2022-08-17 13:23:53.468750
50,-135.33,2022-08-17 13:23:53.484375
51,-104.22,2022-08-17 13:23:53.500000
52,-77.66,2022-08-17 13:23:53.515625
53,-59.32,2022-08-17 13:23:53.531250
54,-50.2,2022-08-17 13:23:53.546875
55,-48.64,2022-08-17 13:23:53.562500
56,-51.0,2022-08-17 13:23:53.578125
57,-53.36,2022-08-17 13:23:53.593750
58,-52.95,2022-08-17 13:23:53.609375
59,-48.46,2022-08-17 13:23:53.625000
60,-40.05,2022-08-17 13:23:53.640625
61,-28.81,2022-08-17 13:23:53.656250
62,-16.59,2022-08-17 13:23:53.671875
63,-6.17,2022-08-17 13:23:53.687500
64,-0.6,2022-08-17 13:23:53.703125
65,-1.9,2022-08-17 13:23:53.718750
66,-9.15,2022-08-17 13:23:53.734375
67,-17.75,2022-08-17 13:23:53.750000
68,-20.24,2022-08-17 13:23:53.765625
69,-9.44,2022-08-17 13:23:53.781250
70,18.15,2022-08-17 13:23:53.796875
71,59.92,2022-08-17 13:23:53.812500
72,107.8,2022-08-17 13:23:53.828125
73,151.5,2022-08-17 13:23:53.843750
74,182.67,2022-08-17 13:23:53.859375
75,197.99,2022-08-17 13:23:53.875000
76,199.36,2022-08-17 13:23:53.890625
77,191.97,2022-08-17 13:23:53.906250
78,181.06,2022-08-17 13:23:53.921875
79,169.66,2022-08-17 13:23:53.937500
80,158.2,2022-08-17 13:23:53.953125
81,145.31,2022-08-17 13:23:53.968750
82,129.55,2022-08-17 13:23:53.984375
83,110.5,2022-08-17 13:23:54.000000
84,88.96,2022-08-17 13:23:54.015625
85,66.72,2022-08-17 13:23:54.031250
86,45.8,2022-08-17 13:23:54.046875
87,27.81,2022-08-17 13:23:54.062500
88,13.91,2022-08-17 13:23:54.078125
89,5.41,2022-08-17 13:23:54.093750
90,3.61,2022-08-17 13:23:54.109375
91,9.83,2022-08-17 13:23:54.125000
92,24.19,2022-08-17 13:23:54.140625
93,44.46,2022-08-17 13:23:54.156250
94,65.51,2022-08-17 13:23:54.171875
95,80.17,2022-08-17 13:23:54.187500
96,81.58,2022-08-17 13:23:54.203125
97,66.0,2022-08-17 13:23:54.218750
98,34.8,2022-08-17 13:23:54.234375
99,-5.83,2022-08-17 13:23:54.250000
100,-47.17,2022-08-17 13:23:54.265625
101,-81.28,2022-08-17 13:23:54.281250
102,-103.71,2022-08-17 13:23:54.296875
103,-114.5,2022-08-17 13:23:54.312500
104,-117.02,2022-08-17 13:23:54.328125
105,-115.79,2022-08-17 13:23:54.343750
106,-114.59,2022-08-17 13:23:54.359375
107,-115.31,2022-08-17 13:23:54.375000
108,-118.36,2022-08-17 13:23:54.390625
109,-123.15,2022-08-17 13:23:54.406250
110,-128.72,2022-08-17 13:23:54.421875
111,-134.12,2022-08-17 13:23:54.437500
112,-138.38,2022-08-17 13:23:54.453125
113,-140.58,2022-08-17 13:23:54.468750
114,-139.98,2022-08-17 13:23:54.484375
115,-136.2,2022-08-17 13:23:54.500000
116,-129.07,2022-08-17 13:23:54.515625
117,-118.7,2022-08-17 13:23:54.531250
118,-105.34,2022-08-17 13:23:54.546875
119,-89.18,2022-08-17 13:23:54.562500
120,-70.74,2022-08-17 13:23:54.578125
121,-50.78,2022-08-17 13:23:54.593750
122,-30.71,2022-08-17 13:23:54.609375
123,-12.4,2022-08-17 13:23:54.625000
124,1.92,2022-08-17 13:23:54.640625
125,10.31,2022-08-17 13:23:54.656250
126,11.75,2022-08-17 13:23:54.671875
127,6.66,2022-08-17 13:23:54.687500
128,-2.76,2022-08-17 13:23:54.703125
129,-13.06,2022-08-17 13:23:54.718750
130,-20.39,2022-08-17 13:23:54.734375
131,-21.77,2022-08-17 13:23:54.750000
132,-16.13,2022-08-17 13:23:54.765625
133,-4.65,2022-08-17 13:23:54.781250
134,9.7,2022-08-17 13:23:54.796875
135,23.32,2022-08-17 13:23:54.812500
136,33.15,2022-08-17 13:23:54.828125
137,37.72,2022-08-17 13:23:54.843750
138,37.13,2022-08-17 13:23:54.859375
139,33.19,2022-08-17 13:23:54.875000
140,28.59,2022-08-17 13:23:54.890625
141,26.31,2022-08-17 13:23:54.906250
142,28.92,2022-08-17 13:23:54.921875
143,37.89,2022-08-17 13:23:54.937500
144,53.02,2022-08-17 13:23:54.953125
145,72.49,2022-08-17 13:23:54.968750
146,93.87,2022-08-17 13:23:54.984375
147,115.26,2022-08-17 13:23:55.000000
148,136.48,2022-08-17 13:23:55.015625
149,158.95,2022-08-17 13:23:55.031250
150,184.16,2022-08-17 13:23:55.046875
151,211.48,2022-08-17 13:23:55.062500
152,236.76,2022-08-17 13:23:55.078125
153,252.46,2022-08-17 13:23:55.093750
154,249.91,2022-08-17 13:23:55.109375
155,222.74,2022-08-17 13:23:55.125000
156,169.94,2022-08-17 13:23:55.140625
157,96.95,2022-08-17 13:23:55.156250
158,14.38,2022-08-17 13:23:55.171875
159,-65.26,2022-08-17 13:23:55.187500
160,-131.38,2022-08-17 13:23:55.203125
161,-178.54,2022-08-17 13:23:55.218750
162,-207.65,2022-08-17 13:23:55.234375
163,-224.95,2022-08-17 13:23:55.250000
164,-239.29,2022-08-17 13:23:55.265625
165,-258.6,2022-08-17 13:23:55.281250
166,-287.14,2022-08-17 13:23:55.296875
167,-324.49,2022-08-17 13:23:55.312500
168,-366.5,2022-08-17 13:23:55.328125
169,-407.39,2022-08-17 13:23:55.343750
170,-442.32,2022-08-17 13:23:55.359375
171,-468.6,2022-08-17 13:23:55.375000
172,-485.32,2022-08-17 13:23:55.390625
173,-492.39,2022-08-17 13:23:55.406250
174,-489.3,2022-08-17 13:23:55.421875
175,-474.97,2022-08-17 13:23:55.437500
176,-448.39,2022-08-17 13:23:55.453125
177,-409.42,2022-08-17 13:23:55.468750
178,-359.19,2022-08-17 13:23:55.484375
179,-299.67,2022-08-17 13:23:55.500000
180,-232.89,2022-08-17 13:23:55.515625
181,-160.23,2022-08-17 13:23:55.531250
182,-82.89,2022-08-17 13:23:55.546875
183,-2.63,2022-08-17 13:23:55.562500
184,77.61,2022-08-17 13:23:55.578125
185,153.84,2022-08-17 13:23:55.593750
186,221.78,2022-08-17 13:23:55.609375
187,278.08,2022-08-17 13:23:55.625000
188,321.18,2022-08-17 13:23:55.640625
189,351.6,2022-08-17 13:23:55.656250
190,371.41,2022-08-17 13:23:55.671875
191,383.27,2022-08-17 13:23:55.687500
192,389.75,2022-08-17 13:23:55.703125
193,393.09,2022-08-17 13:23:55.718750
194,395.48,2022-08-17 13:23:55.734375
195,399.09,2022-08-17 13:23:55.750000
196,405.59,2022-08-17 13:23:55.765625
197,414.93,2022-08-17 13:23:55.781250
198,424.42,2022-08-17 13:23:55.796875
199,428.5,2022-08-17 13:23:55.812500
200,419.94,2022-08-17 13:23:55.828125
201,392.42,2022-08-17 13:23:55.843750
202,343.02,2022-08-17 13:23:55.859375
203,273.56,2022-08-17 13:23:55.875000
204,190.06,2022-08-17 13:23:55.890625
205,100.43,2022-08-17 13:23:55.906250
206,11.83,2022-08-17 13:23:55.921875
207,-70.76,2022-08-17 13:23:55.937500
208,-144.57,2022-08-17 13:23:55.953125
209,-207.75,2022-08-17 13:23:55.968750
210,-258.22,2022-08-17 13:23:55.984375
211,-293.68,2022-08-17 13:23:56.000000
212,-312.85,2022-08-17 13:23:56.015625
213,-316.61,2022-08-17 13:23:56.031250
214,-308.6,2022-08-17 13:23:56.046875
215,-294.34,2022-08-17 13:23:56.062500
216,-279.08,2022-08-17 13:23:56.078125
217,-265.94,2022-08-17 13:23:56.093750
218,-254.98,2022-08-17 13:23:56.109375
219,-243.64,2022-08-17 13:23:56.125000
220,-228.37,2022-08-17 13:23:56.140625
221,-206.61,2022-08-17 13:23:56.156250
222,-177.73,2022-08-17 13:23:56.171875
223,-143.14,2022-08-17 13:23:56.187500
224,-105.58,2022-08-17 13:23:56.203125
225,-68.04,2022-08-17 13:23:56.218750
226,-32.87,2022-08-17 13:23:56.234375
227,-1.4,2022-08-17 13:23:56.250000
228,26.05,2022-08-17 13:23:56.265625
229,49.55,2022-08-17 13:23:56.281250
230,69.19,2022-08-17 13:23:56.296875
231,84.88,2022-08-17 13:23:56.312500
232,96.45,2022-08-17 13:23:56.328125
233,103.87,2022-08-17 13:23:56.343750
234,107.66,2022-08-17 13:23:56.359375
235,108.73,2022-08-17 13:23:56.375000
236,108.2,2022-08-17 13:23:56.390625
237,107.11,2022-08-17 13:23:56.406250
238,105.96,2022-08-17 13:23:56.421875
239,104.69,2022-08-17 13:23:56.437500
240,102.93,2022-08-17 13:23:56.453125
241,100.3,2022-08-17 13:23:56.468750
242,96.62,2022-08-17 13:23:56.484375
243,92.25,2022-08-17 13:23:56.500000
244,87.68,2022-08-17 13:23:56.515625
245,83.24,2022-08-17 13:23:56.531250
246,79.08,2022-08-17 13:23:56.546875
247,74.96,2022-08-17 13:23:56.562500
248,70.56,2022-08-17 13:23:56.578125
249,65.58,2022-08-17 13:23:56.593750
250,59.94,2022-08-17 13:23:56.609375
251,53.62,2022-08-17 13:23:56.625000
252,46.73,2022-08-17 13:23:56.640625
253,39.37,2022-08-17 13:23:56.656250
254,31.47,2022-08-17 13:23:56.671875
255,23.08,2022-08-17 13:23:56.687500
256,14.28,2022-08-17 13:23:56.703125
257,5.29,2022-08-17 13:23:56.718750
258,-3.73,2022-08-17 13:23:56.734375
259,-12.61,2022-08-17 13:23:56.750000
260,-21.27,2022-08-17 13:23:56.765625
261,-29.67,2022-08-17 13:23:56.781250
262,-37.8,2022-08-17 13:23:56.796875
263,-45.7,2022-08-17 13:23:56.812500
264,-53.41,2022-08-17 13:23:56.828125
265,-61.04,2022-08-17 13:23:56.843750
266,-68.44,2022-08-17 13:23:56.859375
267,-75.06,2022-08-17 13:23:56.875000
268,-79.77,2022-08-17 13:23:56.890625
269,-81.0,2022-08-17 13:23:56.906250
270,-77.19,2022-08-17 13:23:56.921875
271,-67.49,2022-08-17 13:23:56.937500
272,-52.15,2022-08-17 13:23:56.953125
273,-32.47,2022-08-17 13:23:56.968750
274,-10.63,2022-08-17 13:23:56.984375
275,11.22,2022-08-17 13:23:57.000000
276,31.37,2022-08-17 13:23:57.015625
277,48.76,2022-08-17 13:23:57.031250
278,62.88,2022-08-17 13:23:57.046875
279,73.48,2022-08-17 13:23:57.062500
280,80.37,2022-08-17 13:23:57.078125
281,83.4,2022-08-17 13:23:57.093750
282,82.75,2022-08-17 13:23:57.109375
283,78.89,2022-08-17 13:23:57.125000
284,72.73,2022-08-17 13:23:57.140625
285,65.41,2022-08-17 13:23:57.156250
286,57.94,2022-08-17 13:23:57.171875
287,51.02,2022-08-17 13:23:57.187500
288,45.01,2022-08-17 13:23:57.203125
289,39.86,2022-08-17 13:23:57.218750
290,35.4,2022-08-17 13:23:57.234375
291,31.47,2022-08-17 13:23:57.250000
292,28.0,2022-08-17 13:23:57.265625
293,25.05,2022-08-17 13:23:57.281250
294,22.73,2022-08-17 13:23:57.296875
295,21.05,2022-08-17 13:23:57.312500
296,19.83,2022-08-17 13:23:57.328125
297,18.76,2022-08-17 13:23:57.343750
298,17.43,2022-08-17 13:23:57.359375
299,15.54,2022-08-17 13:23:57.375000
300,13.01,2022-08-17 13:23:57.390625
301,9.84,2022-08-17 13:23:57.406250
302,6.22,2022-08-17 13:23:57.421875
303,2.21,2022-08-17 13:23:57.437500
304,-2.13,2022-08-17 13:23:57.453125
305,-6.87,2022-08-17 13:23:57.468750
306,-12.0,2022-08-17 13:23:57.484375
307,-17.48,2022-08-17 13:23:57.500000
308,-23.11,2022-08-17 13:23:57.515625
309,-28.62,2022-08-17 13:23:57.531250
310,-34.0,2022-08-17 13:23:57.546875
311,-39.31,2022-08-17 13:23:57.562500
312,-44.78,2022-08-17 13:23:57.578125
313,-50.48,2022-08-17 13:23:57.593750
314,-56.15,2022-08-17 13:23:57.609375
315,-61.0,2022-08-17 13:23:57.625000
316,-63.82,2022-08-17 13:23:57.640625
317,-63.19,2022-08-17 13:23:57.656250
318,-57.97,2022-08-17 13:23:57.671875
319,-47.71,2022-08-17 13:23:57.687500
320,-32.72,2022-08-17 13:23:57.703125
321,-14.15,2022-08-17 13:23:57.718750
322,6.33,2022-08-17 13:23:57.734375
323,26.92,2022-08-17 13:23:57.750000
324,45.94,2022-08-17 13:23:57.765625
325,62.14,2022-08-17 13:23:57.781250
326,74.64,2022-08-17 13:23:57.796875
327,82.95,2022-08-17 13:23:57.812500
328,86.84,2022-08-17 13:23:57.828125
329,86.47,2022-08-17 13:23:57.843750
330,82.3,2022-08-17 13:23:57.859375
331,75.23,2022-08-17 13:23:57.875000
332,66.46,2022-08-17 13:23:57.890625
333,57.3,2022-08-17 13:23:57.906250
334,48.92,2022-08-17 13:23:57.921875
335,42.04,2022-08-17 13:23:57.937500
336,36.91,2022-08-17 13:23:57.953125
337,33.25,2022-08-17 13:23:57.968750
338,30.57,2022-08-17 13:23:57.984375
339,28.38,2022-08-17 13:23:58.000000
340,26.35,2022-08-17 13:23:58.015625
341,24.43,2022-08-17 13:23:58.031250
342,22.68,2022-08-17 13:23:58.046875
343,21.1,2022-08-17 13:23:58.062500
344,19.52,2022-08-17 13:23:58.078125
345,17.61,2022-08-17 13:23:58.093750
346,14.86,2022-08-17 13:23:58.109375
347,10.95,2022-08-17 13:23:58.125000
348,5.77,2022-08-17 13:23:58.140625
349,-0.46,2022-08-17 13:23:58.156250
350,-7.27,2022-08-17 13:23:58.171875
351,-14.16,2022-08-17 13:23:58.187500
352,-20.72,2022-08-17 13:23:58.203125
353,-26.65,2022-08-17 13:23:58.218750
354,-32.0,2022-08-17 13:23:58.234375
355,-36.9,2022-08-17 13:23:58.250000
356,-41.64,2022-08-17 13:23:58.265625
357,-46.51,2022-08-17 13:23:58.281250
358,-51.74,2022-08-17 13:23:58.296875
359,-57.33,2022-08-17 13:23:58.312500
360,-62.83,2022-08-17 13:23:58.328125
361,-67.36,2022-08-17 13:23:58.343750
362,-69.54,2022-08-17 13:23:58.359375
363,-68.03,2022-08-17 13:23:58.375000
364,-61.72,2022-08-17 13:23:58.390625
365,-50.33,2022-08-17 13:23:58.406250
366,-34.54,2022-08-17 13:23:58.421875
367,-15.88,2022-08-17 13:23:58.437500
368,3.63,2022-08-17 13:23:58.453125
369,22.2,2022-08-17 13:23:58.468750
370,38.5,2022-08-17 13:23:58.484375
371,51.84,2022-08-17 13:23:58.500000
372,62.03,2022-08-17 13:23:58.515625
373,69.07,2022-08-17 13:23:58.531250
374,72.93,2022-08-17 13:23:58.546875
375,73.57,2022-08-17 13:23:58.562500
376,71.18,2022-08-17 13:23:58.578125
377,66.26,2022-08-17 13:23:58.593750
378,59.79,2022-08-17 13:23:58.609375
379,52.86,2022-08-17 13:23:58.625000
380,46.4,2022-08-17 13:23:58.640625
381,40.93,2022-08-17 13:23:58.656250
382,36.44,2022-08-17 13:23:58.671875
383,32.62,2022-08-17 13:23:58.687500
384,28.97,2022-08-17 13:23:58.703125
385,25.24,2022-08-17 13:23:58.718750
386,21.39,2022-08-17 13:23:58.734375
387,17.69,2022-08-17 13:23:58.750000
388,14.37,2022-08-17 13:23:58.765625
389,11.6,2022-08-17 13:23:58.781250
390,9.3,2022-08-17 13:23:58.796875
391,7.18,2022-08-17 13:23:58.812500
392,4.9,2022-08-17 13:23:58.828125
393,2.09,2022-08-17 13:23:58.843750
394,-1.39,2022-08-17 13:23:58.859375
395,-5.6,2022-08-17 13:23:58.875000
396,-10.33,2022-08-17 13:23:58.890625
397,-15.38,2022-08-17 13:23:58.906250
398,-20.54,2022-08-17 13:23:58.921875
399,-25.57,2022-08-17 13:23:58.937500
400,-30.46,2022-08-17 13:23:58.953125
401,-35.25,2022-08-17 13:23:58.968750
402,-40.08,2022-08-17 13:23:58.984375
403,-45.11,2022-08-17 13:23:59.000000
404,-50.59,2022-08-17 13:23:59.015625
405,-56.69,2022-08-17 13:23:59.031250
406,-63.36,2022-08-17 13:23:59.046875
407,-70.23,2022-08-17 13:23:59.062500
408,-76.26,2022-08-17 13:23:59.078125
409,-80.11,2022-08-17 13:23:59.093750
410,-80.23,2022-08-17 13:23:59.109375
411,-75.42,2022-08-17 13:23:59.125000
412,-65.23,2022-08-17 13:23:59.140625
413,-50.26,2022-08-17 13:23:59.156250
414,-32.0,2022-08-17 13:23:59.171875
415,-12.4,2022-08-17 13:23:59.187500
416,6.62,2022-08-17 13:23:59.203125
417,23.62,2022-08-17 13:23:59.218750
418,37.66,2022-08-17 13:23:59.234375
419,48.36,2022-08-17 13:23:59.250000
420,55.62,2022-08-17 13:23:59.265625
421,59.58,2022-08-17 13:23:59.281250
422,60.41,2022-08-17 13:23:59.296875
423,58.52,2022-08-17 13:23:59.312500
424,54.49,2022-08-17 13:23:59.328125
425,49.13,2022-08-17 13:23:59.343750
426,43.37,2022-08-17 13:23:59.359375
427,37.96,2022-08-17 13:23:59.375000
428,33.47,2022-08-17 13:23:59.390625
429,30.13,2022-08-17 13:23:59.406250
430,27.84,2022-08-17 13:23:59.421875
431,26.39,2022-08-17 13:23:59.437500
432,25.49,2022-08-17 13:23:59.453125
433,24.92,2022-08-17 13:23:59.468750
434,24.57,2022-08-17 13:23:59.484375
435,24.47,2022-08-17 13:23:59.500000
436,24.61,2022-08-17 13:23:59.515625
437,24.97,2022-08-17 13:23:59.531250
438,25.44,2022-08-17 13:23:59.546875
439,25.67,2022-08-17 13:23:59.562500
440,25.22,2022-08-17 13:23:59.578125
441,23.57,2022-08-17 13:23:59.593750
442,20.32,2022-08-17 13:23:59.609375
443,15.39,2022-08-17 13:23:59.625000
444,9.18,2022-08-17 13:23:59.640625
445,2.46,2022-08-17 13:23:59.656250
446,-3.94,2022-08-17 13:23:59.671875
447,-9.33,2022-08-17 13:23:59.687500
448,-13.55,2022-08-17 13:23:59.703125
449,-16.93,2022-08-17 13:23:59.718750
450,-20.16,2022-08-17 13:23:59.734375
451,-23.99,2022-08-17 13:23:59.750000
452,-28.92,2022-08-17 13:23:59.765625
453,-35.06,2022-08-17 13:23:59.781250
454,-42.12,2022-08-17 13:23:59.796875
455,-49.53,2022-08-17 13:23:59.812500
456,-56.4,2022-08-17 13:23:59.828125
457,-61.57,2022-08-17 13:23:59.843750
458,-63.75,2022-08-17 13:23:59.859375
459,-61.92,2022-08-17 13:23:59.875000
460,-55.98,2022-08-17 13:23:59.890625
461,-46.87,2022-08-17 13:23:59.906250
462,-36.53,2022-08-17 13:23:59.921875
463,-27.08,2022-08-17 13:23:59.937500
464,-19.86,2022-08-17 13:23:59.953125
465,-14.73,2022-08-17 13:23:59.968750
466,-10.1,2022-08-17 13:23:59.984375
467,-3.67,2022-08-17 13:24:00.000000
468,6.39,2022-08-17 13:24:00.015625
469,20.39,2022-08-17 13:24:00.031250
470,37.05,2022-08-17 13:24:00.046875
471,54.11,2022-08-17 13:24:00.062500
472,69.14,2022-08-17 13:24:00.078125
473,80.48,2022-08-17 13:24:00.093750
474,87.46,2022-08-17 13:24:00.109375
475,90.19,2022-08-17 13:24:00.125000
476,89.18,2022-08-17 13:24:00.140625
477,85.04,2022-08-17 13:24:00.156250
478,78.36,2022-08-17 13:24:00.171875
479,69.82,2022-08-17 13:24:00.187500
480,60.33,2022-08-17 13:24:00.203125
481,50.91,2022-08-17 13:24:00.218750
482,42.57,2022-08-17 13:24:00.234375
483,35.93,2022-08-17 13:24:00.250000
484,31.09,2022-08-17 13:24:00.265625
485,27.59,2022-08-17 13:24:00.281250
486,24.6,2022-08-17 13:24:00.296875
487,21.29,2022-08-17 13:24:00.312500
488,17.08,2022-08-17 13:24:00.328125
489,11.9,2022-08-17 13:24:00.343750
490,6.15,2022-08-17 13:24:00.359375
491,0.55,2022-08-17 13:24:00.375000
492,-4.26,2022-08-17 13:24:00.390625
493,-8.11,2022-08-17 13:24:00.406250
494,-11.23,2022-08-17 13:24:00.421875
495,-14.19,2022-08-17 13:24:00.437500
496,-17.57,2022-08-17 13:24:00.453125
497,-21.73,2022-08-17 13:24:00.468750
498,-26.47,2022-08-17 13:24:00.484375
499,-31.36,2022-08-17 13:24:00.500000
500,-35.85,2022-08-17 13:24:00.515625
501,-39.68,2022-08-17 13:24:00.531250
502,-43.05,2022-08-17 13:24:00.546875
503,-46.53,2022-08-17 13:24:00.562500
504,-50.68,2022-08-17 13:24:00.578125
505,-55.9,2022-08-17 13:24:00.593750
506,-62.08,2022-08-17 13:24:00.609375
507,-68.45,2022-08-17 13:24:00.625000
508,-73.74,2022-08-17 13:24:00.640625
509,-76.52,2022-08-17 13:24:00.656250
510,-75.57,2022-08-17 13:24:00.671875
511,-70.25,2022-08-17 13:24:00.687500
512,-60.63,2022-08-17 13:24:00.703125
513,-47.41,2022-08-17 13:24:00.718750
514,-31.75,2022-08-17 13:24:00.734375
515,-14.94,2022-08-17 13:24:00.750000
516,1.79,2022-08-17 13:24:00.765625
517,17.48,2022-08-17 13:24:00.781250
518,31.34,2022-08-17 13:24:00.796875
519,42.84,2022-08-17 13:24:00.812500
520,51.58,2022-08-17 13:24:00.828125
521,57.37,2022-08-17 13:24:00.843750
522,60.25,2022-08-17 13:24:00.859375
523,60.52,2022-08-17 13:24:00.875000
524,58.8,2022-08-17 13:24:00.890625
525,55.75,2022-08-17 13:24:00.906250
526,51.96,2022-08-17 13:24:00.921875
527,47.73,2022-08-17 13:24:00.937500
528,43.18,2022-08-17 13:24:00.953125
529,38.32,2022-08-17 13:24:00.968750
530,33.16,2022-08-17 13:24:00.984375
531,28.01,2022-08-17 13:24:01.000000
532,23.33,2022-08-17 13:24:01.015625
533,19.7,2022-08-17 13:24:01.031250
534,17.49,2022-08-17 13:24:01.046875
535,16.6,2022-08-17 13:24:01.062500
536,16.55,2022-08-17 13:24:01.078125
537,16.66,2022-08-17 13:24:01.093750
538,16.27,2022-08-17 13:24:01.109375
539,14.96,2022-08-17 13:24:01.125000
540,12.66,2022-08-17 13:24:01.140625
541,9.61,2022-08-17 13:24:01.156250
542,6.13,2022-08-17 13:24:01.171875
543,2.54,2022-08-17 13:24:01.187500
544,-1.11,2022-08-17 13:24:01.203125
545,-4.89,2022-08-17 13:24:01.218750
546,-9.0,2022-08-17 13:24:01.234375
547,-13.51,2022-08-17 13:24:01.250000
548,-18.42,2022-08-17 13:24:01.265625
549,-23.52,2022-08-17 13:24:01.281250
550,-28.49,2022-08-17 13:24:01.296875
551,-33.01,2022-08-17 13:24:01.312500
552,-36.83,2022-08-17 13:24:01.328125
553,-39.92,2022-08-17 13:24:01.343750
554,-42.44,2022-08-17 13:24:01.359375
555,-44.75,2022-08-17 13:24:01.375000
556,-47.16,2022-08-17 13:24:01.390625
557,-49.95,2022-08-17 13:24:01.406250
558,-53.17,2022-08-17 13:24:01.421875
559,-56.57,2022-08-17 13:24:01.437500
560,-59.73,2022-08-17 13:24:01.453125
561,-61.88,2022-08-17 13:24:01.468750
562,-62.16,2022-08-17 13:24:01.484375
563,-59.59,2022-08-17 13:24:01.500000
564,-53.53,2022-08-17 13:24:01.515625
565,-43.78,2022-08-17 13:24:01.531250
566,-30.93,2022-08-17 13:24:01.546875
567,-16.23,2022-08-17 13:24:01.562500
568,-1.19,2022-08-17 13:24:01.578125
569,12.67,2022-08-17 13:24:01.593750
570,24.39,2022-08-17 13:24:01.609375
571,33.53,2022-08-17 13:24:01.625000
572,40.09,2022-08-17 13:24:01.640625
573,44.2,2022-08-17 13:24:01.656250
574,46.0,2022-08-17 13:24:01.671875
575,45.61,2022-08-17 13:24:01.687500
576,43.3,2022-08-17 13:24:01.703125
577,39.69,2022-08-17 13:24:01.718750
578,35.56,2022-08-17 13:24:01.734375
579,31.8,2022-08-17 13:24:01.750000
580,28.96,2022-08-17 13:24:01.765625
581,27.09,2022-08-17 13:24:01.781250
582,25.86,2022-08-17 13:24:01.796875
583,24.84,2022-08-17 13:24:01.812500
584,23.68,2022-08-17 13:24:01.828125
585,22.41,2022-08-17 13:24:01.843750
586,21.34,2022-08-17 13:24:01.859375
587,20.68,2022-08-17 13:24:01.875000
588,20.56,2022-08-17 13:24:01.890625
589,20.75,2022-08-17 13:24:01.906250
590,20.78,2022-08-17 13:24:01.921875
591,20.24,2022-08-17 13:24:01.937500
592,18.91,2022-08-17 13:24:01.953125
593,16.86,2022-08-17 13:24:01.968750
594,14.33,2022-08-17 13:24:01.984375
595,11.57,2022-08-17 13:24:02.000000
596,8.68,2022-08-17 13:24:02.015625
597,5.75,2022-08-17 13:24:02.031250
598,2.75,2022-08-17 13:24:02.046875
599,-0.35,2022-08-17 13:24:02.062500
600,-3.56,2022-08-17 13:24:02.078125
601,-6.86,2022-08-17 13:24:02.093750
602,-10.24,2022-08-17 13:24:02.109375
603,-13.67,2022-08-17 13:24:02.125000
604,-17.16,2022-08-17 13:24:02.140625
605,-20.68,2022-08-17 13:24:02.156250
606,-24.05,2022-08-17 13:24:02.171875
607,-27.09,2022-08-17 13:24:02.187500
608,-29.61,2022-08-17 13:24:02.203125
609,-31.63,2022-08-17 13:24:02.218750
610,-33.28,2022-08-17 13:24:02.234375
611,-34.86,2022-08-17 13:24:02.250000
612,-36.73,2022-08-17 13:24:02.265625
613,-39.17,2022-08-17 13:24:02.281250
614,-42.2,2022-08-17 13:24:02.296875
615,-45.46,2022-08-17 13:24:02.312500
616,-48.18,2022-08-17 13:24:02.328125
617,-49.38,2022-08-17 13:24:02.343750
618,-48.13,2022-08-17 13:24:02.359375
619,-43.79,2022-08-17 13:24:02.375000
620,-36.32,2022-08-17 13:24:02.390625
621,-26.25,2022-08-17 13:24:02.406250
622,-14.58,2022-08-17 13:24:02.421875
623,-2.53,2022-08-17 13:24:02.437500
624,8.75,2022-08-17 13:24:02.453125
625,18.46,2022-08-17 13:24:02.468750
626,26.05,2022-08-17 13:24:02.484375
627,31.24,2022-08-17 13:24:02.500000
628,33.97,2022-08-17 13:24:02.515625
629,34.37,2022-08-17 13:24:02.531250
630,32.75,2022-08-17 13:24:02.546875
631,29.66,2022-08-17 13:24:02.562500
632,25.73,2022-08-17 13:24:02.578125
633,21.61,2022-08-17 13:24:02.593750
634,17.89,2022-08-17 13:24:02.609375
635,14.9,2022-08-17 13:24:02.625000
636,12.73,2022-08-17 13:24:02.640625
637,11.27,2022-08-17 13:24:02.656250
638,10.32,2022-08-17 13:24:02.671875
639,9.72,2022-08-17 13:24:02.687500
640,9.45,2022-08-17 13:24:02.703125
641,9.51,2022-08-17 13:24:02.718750
642,9.9,2022-08-17 13:24:02.734375
643,10.59,2022-08-17 13:24:02.750000
644,11.32,2022-08-17 13:24:02.765625
645,11.71,2022-08-17 13:24:02.781250
646,11.37,2022-08-17 13:24:02.796875
647,10.01,2022-08-17 13:24:02.812500
648,7.69,2022-08-17 13:24:02.828125
649,4.85,2022-08-17 13:24:02.843750
650,2.05,2022-08-17 13:24:02.859375
651,-0.17,2022-08-17 13:24:02.875000
652,-1.58,2022-08-17 13:24:02.890625
653,-2.34,2022-08-17 13:24:02.906250
654,-2.85,2022-08-17 13:24:02.921875
655,-3.52,2022-08-17 13:24:02.937500
656,-4.63,2022-08-17 13:24:02.953125
657,-6.07,2022-08-17 13:24:02.968750
658,-7.5,2022-08-17 13:24:02.984375
659,-8.55,2022-08-17 13:24:03.000000
660,-8.92,2022-08-17 13:24:03.015625
661,-8.57,2022-08-17 13:24:03.031250
662,-7.64,2022-08-17 13:24:03.046875
663,-6.36,2022-08-17 13:24:03.062500
664,-5.03,2022-08-17 13:24:03.078125
665,-4.0,2022-08-17 13:24:03.093750
666,-3.59,2022-08-17 13:24:03.109375
667,-4.21,2022-08-17 13:24:03.125000
668,-6.12,2022-08-17 13:24:03.140625
669,-9.29,2022-08-17 13:24:03.156250
670,-13.24,2022-08-17 13:24:03.171875
671,-16.92,2022-08-17 13:24:03.187500
672,-19.02,2022-08-17 13:24:03.203125
673,-18.42,2022-08-17 13:24:03.218750
674,-14.65,2022-08-17 13:24:03.234375
675,-8.09,2022-08-17 13:24:03.250000
676,0.15,2022-08-17 13:24:03.265625
677,8.65,2022-08-17 13:24:03.281250
678,16.22,2022-08-17 13:24:03.296875
679,22.19,2022-08-17 13:24:03.312500
680,26.5,2022-08-17 13:24:03.328125
681,29.36,2022-08-17 13:24:03.343750
682,30.95,2022-08-17 13:24:03.359375
683,31.31,2022-08-17 13:24:03.375000
684,30.36,2022-08-17 13:24:03.390625
685,28.15,2022-08-17 13:24:03.406250
686,25.07,2022-08-17 13:24:03.421875
687,21.94,2022-08-17 13:24:03.437500
688,19.49,2022-08-17 13:24:03.453125
689,18.34,2022-08-17 13:24:03.468750
690,18.56,2022-08-17 13:24:03.484375
691,19.74,2022-08-17 13:24:03.500000
692,21.38,2022-08-17 13:24:03.515625
693,23.11,2022-08-17 13:24:03.531250
694,24.89,2022-08-17 13:24:03.546875
695,26.96,2022-08-17 13:24:03.562500
696,29.57,2022-08-17 13:24:03.578125
697,32.58,2022-08-17 13:24:03.593750
698,35.5,2022-08-17 13:24:03.609375
699,37.54,2022-08-17 13:24:03.625000
700,37.97,2022-08-17 13:24:03.640625
701,36.52,2022-08-17 13:24:03.656250
702,33.26,2022-08-17 13:24:03.671875
703,28.59,2022-08-17 13:24:03.687500
704,22.95,2022-08-17 13:24:03.703125
705,16.66,2022-08-17 13:24:03.718750
706,9.84,2022-08-17 13:24:03.734375
707,2.62,2022-08-17 13:24:03.750000
708,-4.9,2022-08-17 13:24:03.765625
709,-12.65,2022-08-17 13:24:03.781250
710,-20.52,2022-08-17 13:24:03.796875
711,-28.51,2022-08-17 13:24:03.812500
712,-36.66,2022-08-17 13:24:03.828125
713,-44.77,2022-08-17 13:24:03.843750
714,-52.45,2022-08-17 13:24:03.859375
715,-59.01,2022-08-17 13:24:03.875000
716,-63.59,2022-08-17 13:24:03.890625
717,-65.67,2022-08-17 13:24:03.906250
718,-65.23,2022-08-17 13:24:03.921875
719,-62.77,2022-08-17 13:24:03.937500
720,-59.19,2022-08-17 13:24:03.953125
721,-55.57,2022-08-17 13:24:03.968750
722,-52.73,2022-08-17 13:24:03.984375
723,-51.07,2022-08-17 13:24:04.000000
724,-50.58,2022-08-17 13:24:04.015625
725,-50.79,2022-08-17 13:24:04.031250
726,-50.94,2022-08-17 13:24:04.046875
727,-50.2,2022-08-17 13:24:04.062500
728,-47.77,2022-08-17 13:24:04.078125
729,-43.1,2022-08-17 13:24:04.093750
730,-36.12,2022-08-17 13:24:04.109375
731,-27.18,2022-08-17 13:24:04.125000
732,-17.05,2022-08-17 13:24:04.140625
733,-6.77,2022-08-17 13:24:04.156250
734,2.68,2022-08-17 13:24:04.171875
735,10.47,2022-08-17 13:24:04.187500
736,16.07,2022-08-17 13:24:04.203125
737,19.26,2022-08-17 13:24:04.218750
738,20.02,2022-08-17 13:24:04.234375
739,18.64,2022-08-17 13:24:04.250000
740,15.63,2022-08-17 13:24:04.265625
741,11.61,2022-08-17 13:24:04.281250
742,7.14,2022-08-17 13:24:04.296875
743,2.73,2022-08-17 13:24:04.312500
744,-1.35,2022-08-17 13:24:04.328125
745,-5.01,2022-08-17 13:24:04.343750
746,-8.3,2022-08-17 13:24:04.359375
747,-11.24,2022-08-17 13:24:04.375000
748,-13.62,2022-08-17 13:24:04.390625
749,-14.93,2022-08-17 13:24:04.406250
750,-14.44,2022-08-17 13:24:04.421875
751,-11.53,2022-08-17 13:24:04.437500
752,-5.88,2022-08-17 13:24:04.453125
753,2.31,2022-08-17 13:24:04.468750
754,12.15,2022-08-17 13:24:04.484375
755,22.27,2022-08-17 13:24:04.500000
756,31.19,2022-08-17 13:24:04.515625
757,37.66,2022-08-17 13:24:04.531250
758,40.92,2022-08-17 13:24:04.546875
759,40.87,2022-08-17 13:24:04.562500
760,37.89,2022-08-17 13:24:04.578125
761,32.72,2022-08-17 13:24:04.593750
762,26.25,2022-08-17 13:24:04.609375
763,19.22,2022-08-17 13:24:04.625000
764,12.14,2022-08-17 13:24:04.640625
765,5.24,2022-08-17 13:24:04.656250
766,-1.44,2022-08-17 13:24:04.671875
767,-7.91,2022-08-17 13:24:04.687500
768,-14.15,2022-08-17 13:24:04.703125
769,-20.0,2022-08-17 13:24:04.718750
770,-25.29,2022-08-17 13:24:04.734375
771,-29.92,2022-08-17 13:24:04.750000
772,-34.04,2022-08-17 13:24:04.765625
773,-37.86,2022-08-17 13:24:04.781250
774,-41.78,2022-08-17 13:24:04.796875
775,-46.1,2022-08-17 13:24:04.812500
776,-51.0,2022-08-17 13:24:04.828125
777,-56.36,2022-08-17 13:24:04.843750
778,-61.78,2022-08-17 13:24:04.859375
779,-66.53,2022-08-17 13:24:04.875000
780,-69.58,2022-08-17 13:24:04.890625
781,-69.74,2022-08-17 13:24:04.906250
782,-65.87,2022-08-17 13:24:04.921875
783,-57.33,2022-08-17 13:24:04.937500
784,-44.37,2022-08-17 13:24:04.953125
785,-28.18,2022-08-17 13:24:04.968750
786,-10.71,2022-08-17 13:24:04.984375
787,5.82,2022-08-17 13:24:05.000000
788,19.62,2022-08-17 13:24:05.015625
789,29.68,2022-08-17 13:24:05.031250
790,36.0,2022-08-17 13:24:05.046875
791,39.27,2022-08-17 13:24:05.062500
792,40.48,2022-08-17 13:24:05.078125
793,40.51,2022-08-17 13:24:05.093750
794,39.88,2022-08-17 13:24:05.109375
795,38.85,2022-08-17 13:24:05.125000
796,37.54,2022-08-17 13:24:05.140625
797,36.19,2022-08-17 13:24:05.156250
798,35.19,2022-08-17 13:24:05.171875
799,34.97,2022-08-17 13:24:05.187500
800,35.8,2022-08-17 13:24:05.203125
801,37.71,2022-08-17 13:24:05.218750
802,40.46,2022-08-17 13:24:05.234375
803,43.63,2022-08-17 13:24:05.250000
804,46.78,2022-08-17 13:24:05.265625
805,49.63,2022-08-17 13:24:05.281250
806,52.01,2022-08-17 13:24:05.296875
807,53.76,2022-08-17 13:24:05.312500
808,54.63,2022-08-17 13:24:05.328125
809,54.2,2022-08-17 13:24:05.343750
810,52.06,2022-08-17 13:24:05.359375
811,48.02,2022-08-17 13:24:05.375000
812,42.19,2022-08-17 13:24:05.390625
813,35.09,2022-08-17 13:24:05.406250
814,27.55,2022-08-17 13:24:05.421875
815,20.42,2022-08-17 13:24:05.437500
816,14.37,2022-08-17 13:24:05.453125
817,9.57,2022-08-17 13:24:05.468750
818,5.75,2022-08-17 13:24:05.484375
819,2.33,2022-08-17 13:24:05.500000
820,-1.31,2022-08-17 13:24:05.515625
821,-5.67,2022-08-17 13:24:05.531250
822,-10.83,2022-08-17 13:24:05.546875
823,-16.63,2022-08-17 13:24:05.562500
824,-22.72,2022-08-17 13:24:05.578125
825,-28.72,2022-08-17 13:24:05.593750
826,-34.35,2022-08-17 13:24:05.609375
827,-39.37,2022-08-17 13:24:05.625000
828,-43.65,2022-08-17 13:24:05.640625
829,-47.16,2022-08-17 13:24:05.656250
830,-50.02,2022-08-17 13:24:05.671875
831,-52.38,2022-08-17 13:24:05.687500
832,-54.63,2022-08-17 13:24:05.703125
833,-57.12,2022-08-17 13:24:05.718750
834,-59.95,2022-08-17 13:24:05.734375
835,-62.88,2022-08-17 13:24:05.750000
836,-65.29,2022-08-17 13:24:05.765625
837,-66.31,2022-08-17 13:24:05.781250
838,-65.19,2022-08-17 13:24:05.796875
839,-61.63,2022-08-17 13:24:05.812500
840,-55.75,2022-08-17 13:24:05.828125
841,-48.24,2022-08-17 13:24:05.843750
842,-39.97,2022-08-17 13:24:05.859375
843,-31.56,2022-08-17 13:24:05.875000
844,-23.43,2022-08-17 13:24:05.890625
845,-15.71,2022-08-17 13:24:05.906250
846,-8.49,2022-08-17 13:24:05.921875
847,-2.07,2022-08-17 13:24:05.937500
848,3.14,2022-08-17 13:24:05.953125
849,6.82,2022-08-17 13:24:05.968750
850,8.8,2022-08-17 13:24:05.984375
851,9.29,2022-08-17 13:24:06.000000
852,8.88,2022-08-17 13:24:06.015625
853,8.18,2022-08-17 13:24:06.031250
854,7.66,2022-08-17 13:24:06.046875
855,7.44,2022-08-17 13:24:06.062500
856,7.32,2022-08-17 13:24:06.078125
857,7.01,2022-08-17 13:24:06.093750
858,6.2,2022-08-17 13:24:06.109375
859,4.75,2022-08-17 13:24:06.125000
860,2.77,2022-08-17 13:24:06.140625
861,0.65,2022-08-17 13:24:06.156250
862,-1.14,2022-08-17 13:24:06.171875
863,-2.1,2022-08-17 13:24:06.187500
864,-1.84,2022-08-17 13:24:06.203125
865,-0.29,2022-08-17 13:24:06.218750
866,2.39,2022-08-17 13:24:06.234375
867,5.8,2022-08-17 13:24:06.250000
868,9.39,2022-08-17 13:24:06.265625
869,12.65,2022-08-17 13:24:06.281250
870,15.23,2022-08-17 13:24:06.296875
871,16.93,2022-08-17 13:24:06.312500
872,17.78,2022-08-17 13:24:06.328125
873,17.94,2022-08-17 13:24:06.343750
874,17.49,2022-08-17 13:24:06.359375
875,16.56,2022-08-17 13:24:06.375000
876,15.25,2022-08-17 13:24:06.390625
877,13.61,2022-08-17 13:24:06.406250
878,11.62,2022-08-17 13:24:06.421875
879,9.27,2022-08-17 13:24:06.437500
880,6.44,2022-08-17 13:24:06.453125
881,3.02,2022-08-17 13:24:06.468750
882,-1.01,2022-08-17 13:24:06.484375
883,-5.59,2022-08-17 13:24:06.500000
884,-10.52,2022-08-17 13:24:06.515625
885,-15.44,2022-08-17 13:24:06.531250
886,-20.0,2022-08-17 13:24:06.546875
887,-24.1,2022-08-17 13:24:06.562500
888,-27.83,2022-08-17 13:24:06.578125
889,-31.54,2022-08-17 13:24:06.593750
890,-35.62,2022-08-17 13:24:06.609375
891,-40.26,2022-08-17 13:24:06.625000
892,-45.22,2022-08-17 13:24:06.640625
893,-49.85,2022-08-17 13:24:06.656250
894,-53.1,2022-08-17 13:24:06.671875
895,-54.05,2022-08-17 13:24:06.687500
896,-52.08,2022-08-17 13:24:06.703125
897,-47.11,2022-08-17 13:24:06.718750
898,-39.53,2022-08-17 13:24:06.734375
899,-30.07,2022-08-17 13:24:06.750000
900,-19.55,2022-08-17 13:24:06.765625
901,-8.71,2022-08-17 13:24:06.781250
902,1.83,2022-08-17 13:24:06.796875
903,11.48,2022-08-17 13:24:06.812500
904,19.61,2022-08-17 13:24:06.828125
905,25.78,2022-08-17 13:24:06.843750
906,29.66,2022-08-17 13:24:06.859375
907,31.3,2022-08-17 13:24:06.875000
908,31.16,2022-08-17 13:24:06.890625
909,30.03,2022-08-17 13:24:06.906250
910,28.63,2022-08-17 13:24:06.921875
911,27.51,2022-08-17 13:24:06.937500
912,26.86,2022-08-17 13:24:06.953125
913,26.59,2022-08-17 13:24:06.968750
914,26.54,2022-08-17 13:24:06.984375
915,26.59,2022-08-17 13:24:07.000000
916,26.72,2022-08-17 13:24:07.015625
917,27.01,2022-08-17 13:24:07.031250
918,27.58,2022-08-17 13:24:07.046875
919,28.32,2022-08-17 13:24:07.062500
920,28.96,2022-08-17 13:24:07.078125
921,29.17,2022-08-17 13:24:07.093750
922,28.68,2022-08-17 13:24:07.109375
923,27.29,2022-08-17 13:24:07.125000
924,25.0,2022-08-17 13:24:07.140625
925,21.9,2022-08-17 13:24:07.156250
926,18.14,2022-08-17 13:24:07.171875
927,13.98,2022-08-17 13:24:07.187500
928,9.57,2022-08-17 13:24:07.203125
929,5.07,2022-08-17 13:24:07.218750
930,0.58,2022-08-17 13:24:07.234375
931,-3.76,2022-08-17 13:24:07.250000
932,-7.88,2022-08-17 13:24:07.265625
933,-11.58,2022-08-17 13:24:07.281250
934,-14.71,2022-08-17 13:24:07.296875
935,-17.09,2022-08-17 13:24:07.312500
936,-18.7,2022-08-17 13:24:07.328125
937,-19.62,2022-08-17 13:24:07.343750
938,-20.17,2022-08-17 13:24:07.359375
939,-20.72,2022-08-17 13:24:07.375000
940,-21.65,2022-08-17 13:24:07.390625
941,-23.28,2022-08-17 13:24:07.406250
942,-25.77,2022-08-17 13:24:07.421875
943,-29.11,2022-08-17 13:24:07.437500
944,-33.02,2022-08-17 13:24:07.453125
945,-37.04,2022-08-17 13:24:07.468750
946,-40.55,2022-08-17 13:24:07.484375
947,-42.96,2022-08-17 13:24:07.500000
948,-43.8,2022-08-17 13:24:07.515625
949,-42.97,2022-08-17 13:24:07.531250
950,-40.54,2022-08-17 13:24:07.546875
951,-36.64,2022-08-17 13:24:07.562500
952,-31.45,2022-08-17 13:24:07.578125
953,-25.0,2022-08-17 13:24:07.593750
954,-17.3,2022-08-17 13:24:07.609375
955,-8.43,2022-08-17 13:24:07.625000
956,1.33,2022-08-17 13:24:07.640625
957,11.67,2022-08-17 13:24:07.656250
958,22.09,2022-08-17 13:24:07.671875
959,32.19,2022-08-17 13:24:07.687500
960,41.67,2022-08-17 13:24:07.703125
961,50.04,2022-08-17 13:24:07.718750
962,56.76,2022-08-17 13:24:07.734375
963,61.18,2022-08-17 13:24:07.750000
964,62.77,2022-08-17 13:24:07.765625
965,61.22,2022-08-17 13:24:07.781250
966,56.74,2022-08-17 13:24:07.796875
967,49.96,2022-08-17 13:24:07.812500
968,41.84,2022-08-17 13:24:07.828125
969,33.48,2022-08-17 13:24:07.843750
970,25.69,2022-08-17 13:24:07.859375
971,19.06,2022-08-17 13:24:07.875000
972,13.83,2022-08-17 13:24:07.890625
973,9.99,2022-08-17 13:24:07.906250
974,7.28,2022-08-17 13:24:07.921875
975,5.36,2022-08-17 13:24:07.937500
976,3.83,2022-08-17 13:24:07.953125
977,2.38,2022-08-17 13:24:07.968750
978,0.88,2022-08-17 13:24:07.984375
979,-0.72,2022-08-17 13:24:08.000000
980,-2.19,2022-08-17 13:24:08.015625
981,-3.37,2022-08-17 13:24:08.031250
982,-4.24,2022-08-17 13:24:08.046875
983,-4.93,2022-08-17 13:24:08.062500
984,-5.78,2022-08-17 13:24:08.078125
985,-7.15,2022-08-17 13:24:08.093750
986,-9.25,2022-08-17 13:24:08.109375
987,-12.0,2022-08-17 13:24:08.125000
988,-15.19,2022-08-17 13:24:08.140625
989,-18.3,2022-08-17 13:24:08.156250
990,-20.96,2022-08-17 13:24:08.171875
991,-22.95,2022-08-17 13:24:08.187500
992,-24.29,2022-08-17 13:24:08.203125
993,-25.15,2022-08-17 13:24:08.218750
994,-25.74,2022-08-17 13:24:08.234375
995,-26.09,2022-08-17 13:24:08.250000
996,-25.94,2022-08-17 13:24:08.265625
997,-24.95,2022-08-17 13:24:08.281250
998,-22.69,2022-08-17 13:24:08.296875
999,-19.04,2022-08-17 13:24:08.312500
1000,-14.11,2022-08-17 13:24:08.328125
1001,-8.27,2022-08-17 13:24:08.343750
1002,-2.12,2022-08-17 13:24:08.359375
1003,3.6,2022-08-17 13:24:08.375000
1004,7.99,2022-08-17 13:24:08.390625
1005,10.31,2022-08-17 13:24:08.406250
1006,10.07,2022-08-17 13:24:08.421875
1007,7.57,2022-08-17 13:24:08.437500
1008,3.91,2022-08-17 13:24:08.453125
1009,0.84,2022-08-17 13:24:08.468750
1010,0.12,2022-08-17 13:24:08.484375
1011,2.7,2022-08-17 13:24:08.500000
1012,8.33,2022-08-17 13:24:08.515625
1013,15.68,2022-08-17 13:24:08.531250
1014,23.02,2022-08-17 13:24:08.546875
1015,28.95,2022-08-17 13:24:08.562500
1016,32.91,2022-08-17 13:24:08.578125
1017,35.03,2022-08-17 13:24:08.593750
1018,35.8,2022-08-17 13:24:08.609375
1019,35.52,2022-08-17 13:24:08.625000
1020,34.1,2022-08-17 13:24:08.640625
1021,31.37,2022-08-17 13:24:08.656250
1022,27.22,2022-08-17 13:24:08.671875
1023,21.97,2022-08-17 13:24:08.687500
1024,16.28,2022-08-17 13:24:08.703125
1025,10.92,2022-08-17 13:24:08.718750
1026,6.34,2022-08-17 13:24:08.734375
1027,2.73,2022-08-17 13:24:08.750000
1028,-0.07,2022-08-17 13:24:08.765625
1029,-2.32,2022-08-17 13:24:08.781250
1030,-4.06,2022-08-17 13:24:08.796875
1031,-5.2,2022-08-17 13:24:08.812500
1032,-5.52,2022-08-17 13:24:08.828125
1033,-4.89,2022-08-17 13:24:08.843750
1034,-3.34,2022-08-17 13:24:08.859375
1035,-1.29,2022-08-17 13:24:08.875000
1036,0.64,2022-08-17 13:24:08.890625
1037,1.81,2022-08-17 13:24:08.906250
1038,1.76,2022-08-17 13:24:08.921875
1039,0.51,2022-08-17 13:24:08.937500
1040,-1.65,2022-08-17 13:24:08.953125
1041,-4.28,2022-08-17 13:24:08.968750
1042,-6.93,2022-08-17 13:24:08.984375
1043,-9.35,2022-08-17 13:24:09.000000
1044,-11.55,2022-08-17 13:24:09.015625
1045,-13.69,2022-08-17 13:24:09.031250
1046,-16.02,2022-08-17 13:24:09.046875
1047,-18.65,2022-08-17 13:24:09.062500
1048,-21.5,2022-08-17 13:24:09.078125
1049,-24.37,2022-08-17 13:24:09.093750
1050,-26.98,2022-08-17 13:24:09.109375
1051,-29.18,2022-08-17 13:24:09.125000
1052,-30.87,2022-08-17 13:24:09.140625
1053,-32.13,2022-08-17 13:24:09.156250
1054,-33.12,2022-08-17 13:24:09.171875
1055,-34.15,2022-08-17 13:24:09.187500
1056,-35.58,2022-08-17 13:24:09.203125
1057,-37.71,2022-08-17 13:24:09.218750
1058,-40.73,2022-08-17 13:24:09.234375
1059,-44.37,2022-08-17 13:24:09.250000
1060,-47.96,2022-08-17 13:24:09.265625
1061,-50.46,2022-08-17 13:24:09.281250
1062,-50.76,2022-08-17 13:24:09.296875
1063,-47.97,2022-08-17 13:24:09.312500
1064,-41.83,2022-08-17 13:24:09.328125
1065,-32.7,2022-08-17 13:24:09.343750
1066,-21.38,2022-08-17 13:24:09.359375
1067,-9.0,2022-08-17 13:24:09.375000
1068,3.49,2022-08-17 13:24:09.390625
1069,15.28,2022-08-17 13:24:09.406250
1070,25.65,2022-08-17 13:24:09.421875
1071,34.0,2022-08-17 13:24:09.437500
1072,39.92,2022-08-17 13:24:09.453125
1073,43.1,2022-08-17 13:24:09.468750
1074,43.6,2022-08-17 13:24:09.484375
1075,41.86,2022-08-17 13:24:09.500000
1076,38.59,2022-08-17 13:24:09.515625
1077,34.59,2022-08-17 13:24:09.531250
1078,30.43,2022-08-17 13:24:09.546875
1079,26.47,2022-08-17 13:24:09.562500
1080,22.75,2022-08-17 13:24:09.578125
1081,19.31,2022-08-17 13:24:09.593750
1082,16.2,2022-08-17 13:24:09.609375
1083,13.57,2022-08-17 13:24:09.625000
1084,11.59,2022-08-17 13:24:09.640625
1085,10.39,2022-08-17 13:24:09.656250
1086,9.84,2022-08-17 13:24:09.671875
1087,9.68,2022-08-17 13:24:09.687500
1088,9.59,2022-08-17 13:24:09.703125
1089,9.23,2022-08-17 13:24:09.718750
1090,8.49,2022-08-17 13:24:09.734375
1091,7.38,2022-08-17 13:24:09.750000
1092,6.02,2022-08-17 13:24:09.765625
1093,4.54,2022-08-17 13:24:09.781250
1094,3.04,2022-08-17 13:24:09.796875
1095,1.47,2022-08-17 13:24:09.812500
1096,-0.19,2022-08-17 13:24:09.828125
1097,-2.14,2022-08-17 13:24:09.843750
1098,-4.57,2022-08-17 13:24:09.859375
1099,-7.65,2022-08-17 13:24:09.875000
1100,-11.4,2022-08-17 13:24:09.890625
1101,-15.71,2022-08-17 13:24:09.906250
1102,-20.24,2022-08-17 13:24:09.921875
1103,-24.6,2022-08-17 13:24:09.937500
1104,-28.47,2022-08-17 13:24:09.953125
1105,-31.73,2022-08-17 13:24:09.968750
1106,-34.58,2022-08-17 13:24:09.984375
1107,-37.35,2022-08-17 13:24:10.000000
1108,-40.52,2022-08-17 13:24:10.015625
1109,-44.35,2022-08-17 13:24:10.031250
1110,-48.78,2022-08-17 13:24:10.046875
1111,-53.31,2022-08-17 13:24:10.062500
1112,-57.08,2022-08-17 13:24:10.078125
1113,-58.91,2022-08-17 13:24:10.093750
1114,-57.56,2022-08-17 13:24:10.109375
1115,-52.11,2022-08-17 13:24:10.125000
1116,-42.34,2022-08-17 13:24:10.140625
1117,-28.88,2022-08-17 13:24:10.156250
1118,-13.16,2022-08-17 13:24:10.171875
1119,2.96,2022-08-17 13:24:10.187500
1120,17.79,2022-08-17 13:24:10.203125
1121,30.02,2022-08-17 13:24:10.218750
1122,39.03,2022-08-17 13:24:10.234375
1123,44.77,2022-08-17 13:24:10.250000
1124,47.56,2022-08-17 13:24:10.265625
1125,47.81,2022-08-17 13:24:10.281250
1126,46.09,2022-08-17 13:24:10.296875
1127,42.83,2022-08-17 13:24:10.312500
1128,38.55,2022-08-17 13:24:10.328125
1129,33.79,2022-08-17 13:24:10.343750
1130,28.98,2022-08-17 13:24:10.359375
1131,24.55,2022-08-17 13:24:10.375000
1132,20.85,2022-08-17 13:24:10.390625
1133,18.07,2022-08-17 13:24:10.406250
1134,16.35,2022-08-17 13:24:10.421875
1135,15.8,2022-08-17 13:24:10.437500
1136,16.36,2022-08-17 13:24:10.453125
1137,17.91,2022-08-17 13:24:10.468750
1138,20.21,2022-08-17 13:24:10.484375
1139,22.78,2022-08-17 13:24:10.500000
1140,25.12,2022-08-17 13:24:10.515625
1141,26.61,2022-08-17 13:24:10.531250
1142,26.77,2022-08-17 13:24:10.546875
1143,25.45,2022-08-17 13:24:10.562500
1144,22.89,2022-08-17 13:24:10.578125
1145,19.48,2022-08-17 13:24:10.593750
1146,15.73,2022-08-17 13:24:10.609375
1147,11.9,2022-08-17 13:24:10.625000
1148,7.93,2022-08-17 13:24:10.640625
1149,3.63,2022-08-17 13:24:10.656250
1150,-1.25,2022-08-17 13:24:10.671875
1151,-6.69,2022-08-17 13:24:10.687500
1152,-12.35,2022-08-17 13:24:10.703125
1153,-17.62,2022-08-17 13:24:10.718750
1154,-22.0,2022-08-17 13:24:10.734375
1155,-25.3,2022-08-17 13:24:10.750000
1156,-27.69,2022-08-17 13:24:10.765625
1157,-29.74,2022-08-17 13:24:10.781250
1158,-31.98,2022-08-17 13:24:10.796875
1159,-34.81,2022-08-17 13:24:10.812500
1160,-38.37,2022-08-17 13:24:10.828125
1161,-42.52,2022-08-17 13:24:10.843750
1162,-46.88,2022-08-17 13:24:10.859375
1163,-50.77,2022-08-17 13:24:10.875000
1164,-53.28,2022-08-17 13:24:10.890625
1165,-53.34,2022-08-17 13:24:10.906250
1166,-50.01,2022-08-17 13:24:10.921875
1167,-42.65,2022-08-17 13:24:10.937500
1168,-31.38,2022-08-17 13:24:10.953125
1169,-17.11,2022-08-17 13:24:10.968750
1170,-1.26,2022-08-17 13:24:10.984375
1171,14.52,2022-08-17 13:24:11.000000
1172,28.84,2022-08-17 13:24:11.015625
1173,40.67,2022-08-17 13:24:11.031250
1174,49.39,2022-08-17 13:24:11.046875
1175,54.75,2022-08-17 13:24:11.062500
1176,56.84,2022-08-17 13:24:11.078125
1177,55.97,2022-08-17 13:24:11.093750
1178,52.67,2022-08-17 13:24:11.109375
1179,47.67,2022-08-17 13:24:11.125000
1180,41.71,2022-08-17 13:24:11.140625
1181,35.59,2022-08-17 13:24:11.156250
1182,29.86,2022-08-17 13:24:11.171875
1183,24.98,2022-08-17 13:24:11.187500
1184,21.11,2022-08-17 13:24:11.203125
1185,18.28,2022-08-17 13:24:11.218750
1186,16.34,2022-08-17 13:24:11.234375
1187,15.05,2022-08-17 13:24:11.250000
1188,14.24,2022-08-17 13:24:11.265625
1189,13.81,2022-08-17 13:24:11.281250
1190,13.69,2022-08-17 13:24:11.296875
1191,13.72,2022-08-17 13:24:11.312500
1192,13.7,2022-08-17 13:24:11.328125
1193,13.34,2022-08-17 13:24:11.343750
1194,12.39,2022-08-17 13:24:11.359375
1195,10.69,2022-08-17 13:24:11.375000
1196,8.33,2022-08-17 13:24:11.390625
1197,5.48,2022-08-17 13:24:11.406250
1198,2.34,2022-08-17 13:24:11.421875
1199,-1.0,2022-08-17 13:24:11.437500
1200,-4.62,2022-08-17 13:24:11.453125
1201,-8.71,2022-08-17 13:24:11.468750
1202,-13.43,2022-08-17 13:24:11.484375
1203,-18.84,2022-08-17 13:24:11.500000
1204,-24.86,2022-08-17 13:24:11.515625
1205,-31.16,2022-08-17 13:24:11.531250
1206,-37.36,2022-08-17 13:24:11.546875
1207,-43.01,2022-08-17 13:24:11.562500
1208,-47.91,2022-08-17 13:24:11.578125
1209,-52.03,2022-08-17 13:24:11.593750
1210,-55.68,2022-08-17 13:24:11.609375
1211,-59.27,2022-08-17 13:24:11.625000
1212,-63.24,2022-08-17 13:24:11.640625
1213,-67.61,2022-08-17 13:24:11.656250
1214,-71.91,2022-08-17 13:24:11.671875
1215,-75.21,2022-08-17 13:24:11.687500
1216,-76.31,2022-08-17 13:24:11.703125
1217,-74.26,2022-08-17 13:24:11.718750
1218,-68.51,2022-08-17 13:24:11.734375
1219,-59.21,2022-08-17 13:24:11.750000
1220,-47.23,2022-08-17 13:24:11.765625
1221,-34.11,2022-08-17 13:24:11.781250
1222,-21.58,2022-08-17 13:24:11.796875
1223,-11.3,2022-08-17 13:24:11.812500
1224,-4.44,2022-08-17 13:24:11.828125
1225,-1.09,2022-08-17 13:24:11.843750
1226,-0.36,2022-08-17 13:24:11.859375
1227,-0.48,2022-08-17 13:24:11.875000
1228,0.5,2022-08-17 13:24:11.890625
1229,4.09,2022-08-17 13:24:11.906250
1230,10.85,2022-08-17 13:24:11.921875
1231,20.41,2022-08-17 13:24:11.937500
1232,31.73,2022-08-17 13:24:11.953125
1233,43.51,2022-08-17 13:24:11.968750
1234,54.65,2022-08-17 13:24:11.984375
1235,64.27,2022-08-17 13:24:12.000000
1236,71.69,2022-08-17 13:24:12.015625
1237,76.44,2022-08-17 13:24:12.031250
1238,78.22,2022-08-17 13:24:12.046875
1239,77.03,2022-08-17 13:24:12.062500
1240,73.29,2022-08-17 13:24:12.078125
1241,67.74,2022-08-17 13:24:12.093750
1242,61.33,2022-08-17 13:24:12.109375
1243,54.94,2022-08-17 13:24:12.125000
1244,49.14,2022-08-17 13:24:12.140625
1245,44.08,2022-08-17 13:24:12.156250
1246,39.63,2022-08-17 13:24:12.171875
1247,35.53,2022-08-17 13:24:12.187500
1248,31.56,2022-08-17 13:24:12.203125
1249,27.72,2022-08-17 13:24:12.218750
1250,24.19,2022-08-17 13:24:12.234375
1251,21.22,2022-08-17 13:24:12.250000
1252,19.08,2022-08-17 13:24:12.265625
1253,17.77,2022-08-17 13:24:12.281250
1254,17.04,2022-08-17 13:24:12.296875
1255,16.58,2022-08-17 13:24:12.312500
1256,16.02,2022-08-17 13:24:12.328125
1257,15.13,2022-08-17 13:24:12.343750
1258,13.74,2022-08-17 13:24:12.359375
1259,11.82,2022-08-17 13:24:12.375000
1260,9.36,2022-08-17 13:24:12.390625
1261,6.33,2022-08-17 13:24:12.406250
1262,2.71,2022-08-17 13:24:12.421875
1263,-1.51,2022-08-17 13:24:12.437500
1264,-6.18,2022-08-17 13:24:12.453125
1265,-11.15,2022-08-17 13:24:12.468750
1266,-16.16,2022-08-17 13:24:12.484375
1267,-21.05,2022-08-17 13:24:12.500000
1268,-25.72,2022-08-17 13:24:12.515625
1269,-30.15,2022-08-17 13:24:12.531250
1270,-34.34,2022-08-17 13:24:12.546875
1271,-38.27,2022-08-17 13:24:12.562500
1272,-41.98,2022-08-17 13:24:12.578125
1273,-45.55,2022-08-17 13:24:12.593750
1274,-49.06,2022-08-17 13:24:12.609375
1275,-52.43,2022-08-17 13:24:12.625000
1276,-55.24,2022-08-17 13:24:12.640625
1277,-56.7,2022-08-17 13:24:12.656250
1278,-55.84,2022-08-17 13:24:12.671875
1279,-51.78,2022-08-17 13:24:12.687500
1280,-44.06,2022-08-17 13:24:12.703125
1281,-32.92,2022-08-17 13:24:12.718750
1282,-19.27,2022-08-17 13:24:12.734375
1283,-4.37,2022-08-17 13:24:12.750000
1284,10.44,2022-08-17 13:24:12.765625
1285,24.07,2022-08-17 13:24:12.781250
1286,35.77,2022-08-17 13:24:12.796875
1287,45.06,2022-08-17 13:24:12.812500
1288,51.74,2022-08-17 13:24:12.828125
1289,55.73,2022-08-17 13:24:12.843750
1290,57.07,2022-08-17 13:24:12.859375
1291,55.95,2022-08-17 13:24:12.875000
1292,52.8,2022-08-17 13:24:12.890625
1293,48.19,2022-08-17 13:24:12.906250
1294,42.85,2022-08-17 13:24:12.921875
1295,37.37,2022-08-17 13:24:12.937500
1296,32.23,2022-08-17 13:24:12.953125
1297,27.73,2022-08-17 13:24:12.968750
1298,23.93,2022-08-17 13:24:12.984375
1299,20.91,2022-08-17 13:24:13.000000
1300,18.67,2022-08-17 13:24:13.015625
1301,17.23,2022-08-17 13:24:13.031250
1302,16.58,2022-08-17 13:24:13.046875
1303,16.61,2022-08-17 13:24:13.062500
1304,17.0,2022-08-17 13:24:13.078125
1305,17.38,2022-08-17 13:24:13.093750
1306,17.46,2022-08-17 13:24:13.109375
1307,16.93,2022-08-17 13:24:13.125000
1308,15.76,2022-08-17 13:24:13.140625
1309,14.01,2022-08-17 13:24:13.156250
1310,11.81,2022-08-17 13:24:13.171875
1311,9.31,2022-08-17 13:24:13.187500
1312,6.66,2022-08-17 13:24:13.203125
1313,3.89,2022-08-17 13:24:13.218750
1314,0.97,2022-08-17 13:24:13.234375
1315,-2.15,2022-08-17 13:24:13.250000
1316,-5.64,2022-08-17 13:24:13.265625
1317,-9.6,2022-08-17 13:24:13.281250
1318,-14.07,2022-08-17 13:24:13.296875
1319,-18.96,2022-08-17 13:24:13.312500
1320,-23.99,2022-08-17 13:24:13.328125
1321,-28.76,2022-08-17 13:24:13.343750
1322,-32.97,2022-08-17 13:24:13.359375
1323,-36.57,2022-08-17 13:24:13.375000
1324,-39.74,2022-08-17 13:24:13.390625
1325,-42.91,2022-08-17 13:24:13.406250
1326,-46.37,2022-08-17 13:24:13.421875
1327,-50.07,2022-08-17 13:24:13.437500
1328,-53.43,2022-08-17 13:24:13.453125
1329,-55.25,2022-08-17 13:24:13.468750
1330,-54.19,2022-08-17 13:24:13.484375
1331,-49.09,2022-08-17 13:24:13.500000
1332,-39.49,2022-08-17 13:24:13.515625
1333,-25.86,2022-08-17 13:24:13.531250
1334,-9.57,2022-08-17 13:24:13.546875
1335,7.5,2022-08-17 13:24:13.562500
1336,23.31,2022-08-17 13:24:13.578125
1337,36.21,2022-08-17 13:24:13.593750
1338,45.4,2022-08-17 13:24:13.609375
1339,50.82,2022-08-17 13:24:13.625000
1340,53.17,2022-08-17 13:24:13.640625
1341,53.45,2022-08-17 13:24:13.656250
1342,52.57,2022-08-17 13:24:13.671875
1343,50.85,2022-08-17 13:24:13.687500
1344,48.2,2022-08-17 13:24:13.703125
1345,44.03,2022-08-17 13:24:13.718750
1346,37.63,2022-08-17 13:24:13.734375
1347,28.63,2022-08-17 13:24:13.750000
1348,17.18,2022-08-17 13:24:13.765625
1349,4.05,2022-08-17 13:24:13.781250
1350,-9.41,2022-08-17 13:24:13.796875
1351,-21.5,2022-08-17 13:24:13.812500
1352,-30.74,2022-08-17 13:24:13.828125
1353,-36.14,2022-08-17 13:24:13.843750
1354,-37.58,2022-08-17 13:24:13.859375
1355,-35.87,2022-08-17 13:24:13.875000
1356,-32.43,2022-08-17 13:24:13.890625
1357,-28.65,2022-08-17 13:24:13.906250
1358,-25.27,2022-08-17 13:24:13.921875
1359,-21.96,2022-08-17 13:24:13.937500
1360,-17.5,2022-08-17 13:24:13.953125
1361,-10.33,2022-08-17 13:24:13.968750
1362,0.48,2022-08-17 13:24:13.984375
1363,14.72,2022-08-17 13:24:14.000000
1364,30.69,2022-08-17 13:24:14.015625
1365,45.74,2022-08-17 13:24:14.031250
1366,57.01,2022-08-17 13:24:14.046875
1367,62.46,2022-08-17 13:24:14.062500
1368,61.51,2022-08-17 13:24:14.078125
1369,54.96,2022-08-17 13:24:14.093750
1370,44.7,2022-08-17 13:24:14.109375
1371,32.78,2022-08-17 13:24:14.125000
1372,20.71,2022-08-17 13:24:14.140625
1373,9.16,2022-08-17 13:24:14.156250
1374,-1.76,2022-08-17 13:24:14.171875
1375,-12.17,2022-08-17 13:24:14.187500
1376,-21.76,2022-08-17 13:24:14.203125
1377,-29.74,2022-08-17 13:24:14.218750
1378,-34.99,2022-08-17 13:24:14.234375
1379,-36.5,2022-08-17 13:24:14.250000
1380,-33.83,2022-08-17 13:24:14.265625
1381,-27.3,2022-08-17 13:24:14.281250
1382,-17.92,2022-08-17 13:24:14.296875
1383,-6.96,2022-08-17 13:24:14.312500
1384,4.35,2022-08-17 13:24:14.328125
1385,14.98,2022-08-17 13:24:14.343750
1386,24.09,2022-08-17 13:24:14.359375
1387,31.14,2022-08-17 13:24:14.375000
1388,35.86,2022-08-17 13:24:14.390625
1389,38.48,2022-08-17 13:24:14.406250
1390,39.66,2022-08-17 13:24:14.421875
1391,40.29,2022-08-17 13:24:14.437500
1392,41.05,2022-08-17 13:24:14.453125
1393,42.1,2022-08-17 13:24:14.468750
1394,43.02,2022-08-17 13:24:14.484375
1395,42.96,2022-08-17 13:24:14.500000
1396,41.25,2022-08-17 13:24:14.515625
1397,37.55,2022-08-17 13:24:14.531250
1398,32.11,2022-08-17 13:24:14.546875
1399,25.5,2022-08-17 13:24:14.562500
1400,18.38,2022-08-17 13:24:14.578125
1401,11.3,2022-08-17 13:24:14.593750
1402,4.79,2022-08-17 13:24:14.609375
1403,-0.57,2022-08-17 13:24:14.625000
1404,-4.26,2022-08-17 13:24:14.640625
1405,-5.91,2022-08-17 13:24:14.656250
1406,-5.63,2022-08-17 13:24:14.671875
1407,-4.02,2022-08-17 13:24:14.687500
1408,-2.08,2022-08-17 13:24:14.703125
1409,-0.77,2022-08-17 13:24:14.718750
1410,-0.76,2022-08-17 13:24:14.734375
1411,-2.24,2022-08-17 13:24:14.750000
1412,-5.01,2022-08-17 13:24:14.765625
1413,-8.77,2022-08-17 13:24:14.781250
1414,-13.2,2022-08-17 13:24:14.796875
1415,-18.05,2022-08-17 13:24:14.812500
1416,-23.14,2022-08-17 13:24:14.828125
1417,-28.16,2022-08-17 13:24:14.843750
1418,-32.87,2022-08-17 13:24:14.859375
1419,-37.08,2022-08-17 13:24:14.875000
1420,-40.88,2022-08-17 13:24:14.890625
1421,-44.62,2022-08-17 13:24:14.906250
1422,-48.76,2022-08-17 13:24:14.921875
1423,-53.63,2022-08-17 13:24:14.937500
1424,-59.31,2022-08-17 13:24:14.953125
1425,-65.56,2022-08-17 13:24:14.968750
1426,-71.84,2022-08-17 13:24:14.984375
1427,-77.39,2022-08-17 13:24:15.000000
1428,-81.28,2022-08-17 13:24:15.015625
1429,-82.58,2022-08-17 13:24:15.031250
1430,-80.52,2022-08-17 13:24:15.046875
1431,-74.65,2022-08-17 13:24:15.062500
1432,-64.9,2022-08-17 13:24:15.078125
1433,-51.75,2022-08-17 13:24:15.093750
1434,-36.17,2022-08-17 13:24:15.109375
1435,-19.44,2022-08-17 13:24:15.125000
1436,-2.98,2022-08-17 13:24:15.140625
1437,11.94,2022-08-17 13:24:15.156250
1438,24.2,2022-08-17 13:24:15.171875
1439,33.12,2022-08-17 13:24:15.187500
1440,38.39,2022-08-17 13:24:15.203125
1441,40.3,2022-08-17 13:24:15.218750
1442,39.51,2022-08-17 13:24:15.234375
1443,36.95,2022-08-17 13:24:15.250000
1444,33.56,2022-08-17 13:24:15.265625
1445,30.02,2022-08-17 13:24:15.281250
1446,26.75,2022-08-17 13:24:15.296875
1447,23.91,2022-08-17 13:24:15.312500
1448,21.62,2022-08-17 13:24:15.328125
1449,20.01,2022-08-17 13:24:15.343750
1450,19.28,2022-08-17 13:24:15.359375
1451,19.49,2022-08-17 13:24:15.375000
1452,20.54,2022-08-17 13:24:15.390625
1453,22.14,2022-08-17 13:24:15.406250
1454,23.77,2022-08-17 13:24:15.421875
1455,24.97,2022-08-17 13:24:15.437500
1456,25.38,2022-08-17 13:24:15.453125
1457,24.8,2022-08-17 13:24:15.468750
1458,23.24,2022-08-17 13:24:15.484375
1459,20.77,2022-08-17 13:24:15.500000
1460,17.54,2022-08-17 13:24:15.515625
1461,13.76,2022-08-17 13:24:15.531250
1462,9.66,2022-08-17 13:24:15.546875
1463,5.31,2022-08-17 13:24:15.562500
1464,0.77,2022-08-17 13:24:15.578125
1465,-4.01,2022-08-17 13:24:15.593750
1466,-9.0,2022-08-17 13:24:15.609375
1467,-14.08,2022-08-17 13:24:15.625000
1468,-19.1,2022-08-17 13:24:15.640625
1469,-23.85,2022-08-17 13:24:15.656250
1470,-28.14,2022-08-17 13:24:15.671875
1471,-31.93,2022-08-17 13:24:15.687500
1472,-35.38,2022-08-17 13:24:15.703125
1473,-38.62,2022-08-17 13:24:15.718750
1474,-41.87,2022-08-17 13:24:15.734375
1475,-45.29,2022-08-17 13:24:15.750000
1476,-48.95,2022-08-17 13:24:15.765625
1477,-52.79,2022-08-17 13:24:15.781250
1478,-56.52,2022-08-17 13:24:15.796875
1479,-59.6,2022-08-17 13:24:15.812500
1480,-61.12,2022-08-17 13:24:15.828125
1481,-60.08,2022-08-17 13:24:15.843750
1482,-55.56,2022-08-17 13:24:15.859375
1483,-47.04,2022-08-17 13:24:15.875000
1484,-34.69,2022-08-17 13:24:15.890625
1485,-19.32,2022-08-17 13:24:15.906250
1486,-2.31,2022-08-17 13:24:15.921875
1487,14.77,2022-08-17 13:24:15.937500
1488,30.48,2022-08-17 13:24:15.953125
1489,43.74,2022-08-17 13:24:15.968750
1490,53.9,2022-08-17 13:24:15.984375
1491,60.83,2022-08-17 13:24:16.000000
1492,64.65,2022-08-17 13:24:16.015625
1493,65.69,2022-08-17 13:24:16.031250
1494,64.4,2022-08-17 13:24:16.046875
1495,61.23,2022-08-17 13:24:16.062500
1496,56.75,2022-08-17 13:24:16.078125
1497,51.61,2022-08-17 13:24:16.093750
1498,46.49,2022-08-17 13:24:16.109375
1499,41.89,2022-08-17 13:24:16.125000
1500,38.15,2022-08-17 13:24:16.140625
1501,35.25,2022-08-17 13:24:16.156250
1502,33.01,2022-08-17 13:24:16.171875
1503,31.24,2022-08-17 13:24:16.187500
1504,29.8,2022-08-17 13:24:16.203125
1505,28.68,2022-08-17 13:24:16.218750
1506,27.86,2022-08-17 13:24:16.234375
1507,27.24,2022-08-17 13:24:16.250000
1508,26.49,2022-08-17 13:24:16.265625
1509,25.24,2022-08-17 13:24:16.281250
1510,23.25,2022-08-17 13:24:16.296875
1511,20.52,2022-08-17 13:24:16.312500
1512,17.33,2022-08-17 13:24:16.328125
1513,14.05,2022-08-17 13:24:16.343750
1514,10.98,2022-08-17 13:24:16.359375
1515,8.23,2022-08-17 13:24:16.375000
1516,5.55,2022-08-17 13:24:16.390625
1517,2.54,2022-08-17 13:24:16.406250
1518,-1.31,2022-08-17 13:24:16.421875
1519,-6.21,2022-08-17 13:24:16.437500
1520,-12.05,2022-08-17 13:24:16.453125
1521,-18.26,2022-08-17 13:24:16.468750
1522,-24.15,2022-08-17 13:24:16.484375
1523,-29.07,2022-08-17 13:24:16.500000
1524,-32.77,2022-08-17 13:24:16.515625
1525,-35.46,2022-08-17 13:24:16.531250
1526,-37.64,2022-08-17 13:24:16.546875
1527,-39.99,2022-08-17 13:24:16.562500
1528,-42.98,2022-08-17 13:24:16.578125
1529,-46.84,2022-08-17 13:24:16.593750
1530,-51.39,2022-08-17 13:24:16.609375
1531,-56.2,2022-08-17 13:24:16.625000
1532,-60.56,2022-08-17 13:24:16.640625
1533,-63.62,2022-08-17 13:24:16.656250
1534,-64.56,2022-08-17 13:24:16.671875
1535,-62.69,2022-08-17 13:24:16.687500
1536,-57.76,2022-08-17 13:24:16.703125
1537,-49.97,2022-08-17 13:24:16.718750
1538,-40.08,2022-08-17 13:24:16.734375
1539,-29.25,2022-08-17 13:24:16.750000
1540,-18.75,2022-08-17 13:24:16.765625
1541,-9.77,2022-08-17 13:24:16.781250
1542,-3.18,2022-08-17 13:24:16.796875
1543,0.58,2022-08-17 13:24:16.812500
1544,1.48,2022-08-17 13:24:16.828125
1545,-0.17,2022-08-17 13:24:16.843750
1546,-3.75,2022-08-17 13:24:16.859375
1547,-8.46,2022-08-17 13:24:16.875000
1548,-13.36,2022-08-17 13:24:16.890625
1549,-17.57,2022-08-17 13:24:16.906250
1550,-20.32,2022-08-17 13:24:16.921875
1551,-21.14,2022-08-17 13:24:16.937500
1552,-19.88,2022-08-17 13:24:16.953125
1553,-16.56,2022-08-17 13:24:16.968750
1554,-11.36,2022-08-17 13:24:16.984375
1555,-4.54,2022-08-17 13:24:17.000000
1556,3.63,2022-08-17 13:24:17.015625
1557,12.74,2022-08-17 13:24:17.031250
1558,22.25,2022-08-17 13:24:17.046875
1559,31.55,2022-08-17 13:24:17.062500
1560,39.98,2022-08-17 13:24:17.078125
1561,47.07,2022-08-17 13:24:17.093750
1562,52.6,2022-08-17 13:24:17.109375
1563,56.47,2022-08-17 13:24:17.125000
1564,58.67,2022-08-17 13:24:17.140625
1565,59.14,2022-08-17 13:24:17.156250
1566,57.88,2022-08-17 13:24:17.171875
1567,54.92,2022-08-17 13:24:17.187500
1568,50.45,2022-08-17 13:24:17.203125
1569,44.82,2022-08-17 13:24:17.218750
1570,38.45,2022-08-17 13:24:17.234375
1571,31.73,2022-08-17 13:24:17.250000
1572,24.88,2022-08-17 13:24:17.265625
1573,18.11,2022-08-17 13:24:17.281250
1574,11.51,2022-08-17 13:24:17.296875
1575,5.26,2022-08-17 13:24:17.312500
1576,-0.48,2022-08-17 13:24:17.328125
1577,-5.62,2022-08-17 13:24:17.343750
1578,-10.19,2022-08-17 13:24:17.359375
1579,-14.31,2022-08-17 13:24:17.375000
1580,-18.18,2022-08-17 13:24:17.390625
1581,-21.9,2022-08-17 13:24:17.406250
1582,-25.33,2022-08-17 13:24:17.421875
1583,-28.08,2022-08-17 13:24:17.437500
1584,-29.47,2022-08-17 13:24:17.453125
1585,-28.76,2022-08-17 13:24:17.468750
1586,-25.31,2022-08-17 13:24:17.484375
1587,-18.86,2022-08-17 13:24:17.500000
1588,-9.62,2022-08-17 13:24:17.515625
1589,1.63,2022-08-17 13:24:17.531250
1590,13.81,2022-08-17 13:24:17.546875
1591,25.72,2022-08-17 13:24:17.562500
1592,36.35,2022-08-17 13:24:17.578125
1593,45.1,2022-08-17 13:24:17.593750
1594,51.7,2022-08-17 13:24:17.609375
1595,56.12,2022-08-17 13:24:17.625000
1596,58.47,2022-08-17 13:24:17.640625
1597,58.82,2022-08-17 13:24:17.656250
1598,57.35,2022-08-17 13:24:17.671875
1599,54.38,2022-08-17 13:24:17.687500
1600,50.36,2022-08-17 13:24:17.703125
1601,45.83,2022-08-17 13:24:17.718750
1602,41.37,2022-08-17 13:24:17.734375
1603,37.41,2022-08-17 13:24:17.750000
1604,34.08,2022-08-17 13:24:17.765625
1605,31.39,2022-08-17 13:24:17.781250
1606,29.16,2022-08-17 13:24:17.796875
1607,27.25,2022-08-17 13:24:17.812500
1608,25.61,2022-08-17 13:24:17.828125
1609,24.21,2022-08-17 13:24:17.843750
1610,22.96,2022-08-17 13:24:17.859375
1611,21.69,2022-08-17 13:24:17.875000
1612,20.22,2022-08-17 13:24:17.890625
1613,18.32,2022-08-17 13:24:17.906250
1614,15.92,2022-08-17 13:24:17.921875
1615,13.02,2022-08-17 13:24:17.937500
1616,9.75,2022-08-17 13:24:17.953125
1617,6.21,2022-08-17 13:24:17.968750
1618,2.45,2022-08-17 13:24:17.984375
1619,-1.58,2022-08-17 13:24:18.000000
1620,-5.93,2022-08-17 13:24:18.015625
1621,-10.63,2022-08-17 13:24:18.031250
1622,-15.63,2022-08-17 13:24:18.046875
1623,-20.71,2022-08-17 13:24:18.062500
1624,-25.67,2022-08-17 13:24:18.078125
1625,-30.3,2022-08-17 13:24:18.093750
1626,-34.46,2022-08-17 13:24:18.109375
1627,-38.13,2022-08-17 13:24:18.125000
1628,-41.31,2022-08-17 13:24:18.140625
1629,-44.08,2022-08-17 13:24:18.156250
1630,-46.63,2022-08-17 13:24:18.171875
1631,-49.15,2022-08-17 13:24:18.187500
1632,-51.68,2022-08-17 13:24:18.203125
1633,-54.23,2022-08-17 13:24:18.218750
1634,-56.46,2022-08-17 13:24:18.234375
1635,-57.79,2022-08-17 13:24:18.250000
1636,-57.4,2022-08-17 13:24:18.265625
1637,-54.51,2022-08-17 13:24:18.281250
1638,-48.61,2022-08-17 13:24:18.296875
1639,-39.71,2022-08-17 13:24:18.312500
1640,-28.38,2022-08-17 13:24:18.328125
1641,-15.49,2022-08-17 13:24:18.343750
1642,-2.24,2022-08-17 13:24:18.359375
1643,10.33,2022-08-17 13:24:18.375000
1644,21.36,2022-08-17 13:24:18.390625
1645,30.31,2022-08-17 13:24:18.406250
1646,36.84,2022-08-17 13:24:18.421875
1647,40.89,2022-08-17 13:24:18.437500
1648,42.56,2022-08-17 13:24:18.453125
1649,42.06,2022-08-17 13:24:18.468750
1650,39.8,2022-08-17 13:24:18.484375
1651,36.25,2022-08-17 13:24:18.500000
1652,32.0,2022-08-17 13:24:18.515625
1653,27.66,2022-08-17 13:24:18.531250
1654,23.85,2022-08-17 13:24:18.546875
1655,20.93,2022-08-17 13:24:18.562500
1656,19.08,2022-08-17 13:24:18.578125
1657,18.28,2022-08-17 13:24:18.593750
1658,18.14,2022-08-17 13:24:18.609375
1659,18.3,2022-08-17 13:24:18.625000
1660,18.38,2022-08-17 13:24:18.640625
1661,18.25,2022-08-17 13:24:18.656250
1662,17.88,2022-08-17 13:24:18.671875
1663,17.41,2022-08-17 13:24:18.687500
1664,16.92,2022-08-17 13:24:18.703125
1665,16.37,2022-08-17 13:24:18.718750
1666,15.61,2022-08-17 13:24:18.734375
1667,14.25,2022-08-17 13:24:18.750000
1668,11.89,2022-08-17 13:24:18.765625
1669,8.21,2022-08-17 13:24:18.781250
1670,3.2,2022-08-17 13:24:18.796875
1671,-2.81,2022-08-17 13:24:18.812500
1672,-9.18,2022-08-17 13:24:18.828125
1673,-15.1,2022-08-17 13:24:18.843750
1674,-19.96,2022-08-17 13:24:18.859375
1675,-23.5,2022-08-17 13:24:18.875000
1676,-26.13,2022-08-17 13:24:18.890625
1677,-28.67,2022-08-17 13:24:18.906250
1678,-31.97,2022-08-17 13:24:18.921875
1679,-36.41,2022-08-17 13:24:18.937500
1680,-41.69,2022-08-17 13:24:18.953125
1681,-46.86,2022-08-17 13:24:18.968750
1682,-50.72,2022-08-17 13:24:18.984375
1683,-52.37,2022-08-17 13:24:19.000000
1684,-51.47,2022-08-17 13:24:19.015625
1685,-48.41,2022-08-17 13:24:19.031250
1686,-43.86,2022-08-17 13:24:19.046875
1687,-38.5,2022-08-17 13:24:19.062500
1688,-32.66,2022-08-17 13:24:19.078125
1689,-26.17,2022-08-17 13:24:19.093750
1690,-18.53,2022-08-17 13:24:19.109375
1691,-9.05,2022-08-17 13:24:19.125000
1692,2.65,2022-08-17 13:24:19.140625
1693,16.26,2022-08-17 13:24:19.156250
1694,30.2,2022-08-17 13:24:19.171875
1695,41.48,2022-08-17 13:24:19.187500
1696,45.94,2022-08-17 13:24:19.203125
1697,39.3,2022-08-17 13:24:19.218750
1698,18.81,2022-08-17 13:24:19.234375
1699,-15.32,2022-08-17 13:24:19.250000
1700,-59.08,2022-08-17 13:24:19.265625
1701,-105.1,2022-08-17 13:24:19.281250
1702,-144.38,2022-08-17 13:24:19.296875
1703,-168.8,2022-08-17 13:24:19.312500
1704,-173.44,2022-08-17 13:24:19.328125
1705,-158.22,2022-08-17 13:24:19.343750
1706,-127.68,2022-08-17 13:24:19.359375
1707,-89.54,2022-08-17 13:24:19.375000
1708,-52.2,2022-08-17 13:24:19.390625
1709,-22.49,2022-08-17 13:24:19.406250
1710,-3.94,2022-08-17 13:24:19.421875
1711,3.54,2022-08-17 13:24:19.437500
1712,2.77,2022-08-17 13:24:19.453125
1713,-2.15,2022-08-17 13:24:19.468750
1714,-7.37,2022-08-17 13:24:19.484375
1715,-10.26,2022-08-17 13:24:19.500000
1716,-9.4,2022-08-17 13:24:19.515625
1717,-4.29,2022-08-17 13:24:19.531250
1718,5.1,2022-08-17 13:24:19.546875
1719,18.46,2022-08-17 13:24:19.562500
1720,34.91,2022-08-17 13:24:19.578125
1721,52.84,2022-08-17 13:24:19.593750
1722,69.87,2022-08-17 13:24:19.609375
1723,83.37,2022-08-17 13:24:19.625000
1724,91.31,2022-08-17 13:24:19.640625
1725,92.88,2022-08-17 13:24:19.656250
1726,88.79,2022-08-17 13:24:19.671875
1727,80.88,2022-08-17 13:24:19.687500
1728,71.36,2022-08-17 13:24:19.703125
1729,61.93,2022-08-17 13:24:19.718750
1730,53.47,2022-08-17 13:24:19.734375
1731,45.96,2022-08-17 13:24:19.750000
1732,38.84,2022-08-17 13:24:19.765625
1733,31.58,2022-08-17 13:24:19.781250
1734,24.03,2022-08-17 13:24:19.796875
1735,16.64,2022-08-17 13:24:19.812500
1736,10.41,2022-08-17 13:24:19.828125
1737,6.57,2022-08-17 13:24:19.843750
1738,6.24,2022-08-17 13:24:19.859375
1739,9.92,2022-08-17 13:24:19.875000
1740,17.33,2022-08-17 13:24:19.890625
1741,27.28,2022-08-17 13:24:19.906250
1742,38.0,2022-08-17 13:24:19.921875
1743,47.64,2022-08-17 13:24:19.937500
1744,54.89,2022-08-17 13:24:19.953125
1745,59.18,2022-08-17 13:24:19.968750
1746,60.74,2022-08-17 13:24:19.984375
1747,60.22,2022-08-17 13:24:20.000000
1748,58.22,2022-08-17 13:24:20.015625
1749,55.12,2022-08-17 13:24:20.031250
1750,50.93,2022-08-17 13:24:20.046875
1751,45.45,2022-08-17 13:24:20.062500
1752,38.54,2022-08-17 13:24:20.078125
1753,30.39,2022-08-17 13:24:20.093750
1754,21.58,2022-08-17 13:24:20.109375
1755,12.85,2022-08-17 13:24:20.125000
1756,5.0,2022-08-17 13:24:20.140625
1757,-1.48,2022-08-17 13:24:20.156250
1758,-6.37,2022-08-17 13:24:20.171875
1759,-9.85,2022-08-17 13:24:20.187500
1760,-12.2,2022-08-17 13:24:20.203125
1761,-13.73,2022-08-17 13:24:20.218750
1762,-14.59,2022-08-17 13:24:20.234375
1763,-14.85,2022-08-17 13:24:20.250000
1764,-14.7,2022-08-17 13:24:20.265625
1765,-14.43,2022-08-17 13:24:20.281250
1766,-14.5,2022-08-17 13:24:20.296875
1767,-15.22,2022-08-17 13:24:20.312500
1768,-16.78,2022-08-17 13:24:20.328125
1769,-19.08,2022-08-17 13:24:20.343750
1770,-21.74,2022-08-17 13:24:20.359375
1771,-24.43,2022-08-17 13:24:20.375000
1772,-26.87,2022-08-17 13:24:20.390625
1773,-29.03,2022-08-17 13:24:20.406250
1774,-31.04,2022-08-17 13:24:20.421875
1775,-33.1,2022-08-17 13:24:20.437500
1776,-35.3,2022-08-17 13:24:20.453125
1777,-37.63,2022-08-17 13:24:20.468750
1778,-39.99,2022-08-17 13:24:20.484375
1779,-42.21,2022-08-17 13:24:20.500000
1780,-44.24,2022-08-17 13:24:20.515625
1781,-46.12,2022-08-17 13:24:20.531250
1782,-47.94,2022-08-17 13:24:20.546875
1783,-49.94,2022-08-17 13:24:20.562500
1784,-52.41,2022-08-17 13:24:20.578125
1785,-55.6,2022-08-17 13:24:20.593750
1786,-59.68,2022-08-17 13:24:20.609375
1787,-64.61,2022-08-17 13:24:20.625000
1788,-69.89,2022-08-17 13:24:20.640625
1789,-74.59,2022-08-17 13:24:20.656250
1790,-77.45,2022-08-17 13:24:20.671875
1791,-77.15,2022-08-17 13:24:20.687500
1792,-72.72,2022-08-17 13:24:20.703125
1793,-63.86,2022-08-17 13:24:20.718750
1794,-51.0,2022-08-17 13:24:20.734375
1795,-35.15,2022-08-17 13:24:20.750000
1796,-17.65,2022-08-17 13:24:20.765625
1797,0.25,2022-08-17 13:24:20.781250
1798,17.49,2022-08-17 13:24:20.796875
1799,33.24,2022-08-17 13:24:20.812500
1800,46.77,2022-08-17 13:24:20.828125
1801,57.46,2022-08-17 13:24:20.843750
1802,64.83,2022-08-17 13:24:20.859375
1803,68.65,2022-08-17 13:24:20.875000
1804,69.14,2022-08-17 13:24:20.890625
1805,66.96,2022-08-17 13:24:20.906250
1806,63.05,2022-08-17 13:24:20.921875
1807,58.31,2022-08-17 13:24:20.937500
1808,53.42,2022-08-17 13:24:20.953125
1809,48.63,2022-08-17 13:24:20.968750
1810,43.93,2022-08-17 13:24:20.984375
1811,39.26,2022-08-17 13:24:21.000000
1812,34.73,2022-08-17 13:24:21.015625
1813,30.64,2022-08-17 13:24:21.031250
1814,27.49,2022-08-17 13:24:21.046875
1815,25.68,2022-08-17 13:24:21.062500
1816,25.28,2022-08-17 13:24:21.078125
1817,25.96,2022-08-17 13:24:21.093750
1818,27.13,2022-08-17 13:24:21.109375
1819,28.02,2022-08-17 13:24:21.125000
1820,28.03,2022-08-17 13:24:21.140625
1821,26.87,2022-08-17 13:24:21.156250
1822,24.58,2022-08-17 13:24:21.171875
1823,21.48,2022-08-17 13:24:21.187500
1824,18.01,2022-08-17 13:24:21.203125
1825,14.49,2022-08-17 13:24:21.218750
1826,11.09,2022-08-17 13:24:21.234375
1827,7.68,2022-08-17 13:24:21.250000
1828,3.95,2022-08-17 13:24:21.265625
1829,-0.46,2022-08-17 13:24:21.281250
1830,-5.75,2022-08-17 13:24:21.296875
1831,-11.86,2022-08-17 13:24:21.312500
1832,-18.5,2022-08-17 13:24:21.328125
1833,-25.23,2022-08-17 13:24:21.343750
1834,-31.6,2022-08-17 13:24:21.359375
1835,-37.32,2022-08-17 13:24:21.375000
1836,-42.33,2022-08-17 13:24:21.390625
1837,-46.76,2022-08-17 13:24:21.406250
1838,-50.82,2022-08-17 13:24:21.421875
1839,-54.74,2022-08-17 13:24:21.437500
1840,-58.6,2022-08-17 13:24:21.453125
1841,-62.33,2022-08-17 13:24:21.468750
1842,-65.58,2022-08-17 13:24:21.484375
1843,-67.72,2022-08-17 13:24:21.500000
1844,-67.89,2022-08-17 13:24:21.515625
1845,-65.18,2022-08-17 13:24:21.531250
1846,-58.93,2022-08-17 13:24:21.546875
1847,-48.89,2022-08-17 13:24:21.562500
1848,-35.48,2022-08-17 13:24:21.578125
1849,-19.58,2022-08-17 13:24:21.593750
1850,-2.47,2022-08-17 13:24:21.609375
1851,14.52,2022-08-17 13:24:21.625000
1852,30.1,2022-08-17 13:24:21.640625
1853,43.26,2022-08-17 13:24:21.656250
1854,53.26,2022-08-17 13:24:21.671875
1855,59.63,2022-08-17 13:24:21.687500
1856,62.3,2022-08-17 13:24:21.703125
1857,61.53,2022-08-17 13:24:21.718750
1858,57.98,2022-08-17 13:24:21.734375
1859,52.64,2022-08-17 13:24:21.750000
1860,46.53,2022-08-17 13:24:21.765625
1861,40.58,2022-08-17 13:24:21.781250
1862,35.42,2022-08-17 13:24:21.796875
1863,31.29,2022-08-17 13:24:21.812500
1864,28.27,2022-08-17 13:24:21.828125
1865,26.22,2022-08-17 13:24:21.843750
1866,24.96,2022-08-17 13:24:21.859375
1867,24.34,2022-08-17 13:24:21.875000
1868,24.19,2022-08-17 13:24:21.890625
1869,24.24,2022-08-17 13:24:21.906250
1870,24.17,2022-08-17 13:24:21.921875
1871,23.6,2022-08-17 13:24:21.937500
1872,22.18,2022-08-17 13:24:21.953125
1873,19.8,2022-08-17 13:24:21.968750
1874,16.5,2022-08-17 13:24:21.984375
1875,12.57,2022-08-17 13:24:22.000000
1876,8.39,2022-08-17 13:24:22.015625
1877,4.31,2022-08-17 13:24:22.031250
1878,0.53,2022-08-17 13:24:22.046875
1879,-2.96,2022-08-17 13:24:22.062500
1880,-6.38,2022-08-17 13:24:22.078125
1881,-9.97,2022-08-17 13:24:22.093750
1882,-13.87,2022-08-17 13:24:22.109375
1883,-18.15,2022-08-17 13:24:22.125000
1884,-22.69,2022-08-17 13:24:22.140625
1885,-27.33,2022-08-17 13:24:22.156250
1886,-31.91,2022-08-17 13:24:22.171875
1887,-36.4,2022-08-17 13:24:22.187500
1888,-40.81,2022-08-17 13:24:22.203125
1889,-45.17,2022-08-17 13:24:22.218750
1890,-49.57,2022-08-17 13:24:22.234375
1891,-54.03,2022-08-17 13:24:22.250000
1892,-58.63,2022-08-17 13:24:22.265625
1893,-63.37,2022-08-17 13:24:22.281250
1894,-68.02,2022-08-17 13:24:22.296875
1895,-71.89,2022-08-17 13:24:22.312500
1896,-73.96,2022-08-17 13:24:22.328125
1897,-73.0,2022-08-17 13:24:22.343750
1898,-67.94,2022-08-17 13:24:22.359375
1899,-58.47,2022-08-17 13:24:22.375000
1900,-45.05,2022-08-17 13:24:22.390625
1901,-28.95,2022-08-17 13:24:22.406250
1902,-11.77,2022-08-17 13:24:22.421875
1903,4.9,2022-08-17 13:24:22.437500
1904,19.85,2022-08-17 13:24:22.453125
1905,32.3,2022-08-17 13:24:22.468750
1906,41.82,2022-08-17 13:24:22.484375
1907,48.25,2022-08-17 13:24:22.500000
1908,51.61,2022-08-17 13:24:22.515625
1909,52.17,2022-08-17 13:24:22.531250
1910,50.48,2022-08-17 13:24:22.546875
1911,47.26,2022-08-17 13:24:22.562500
1912,43.24,2022-08-17 13:24:22.578125
1913,38.96,2022-08-17 13:24:22.593750
1914,34.78,2022-08-17 13:24:22.609375
1915,30.79,2022-08-17 13:24:22.625000
1916,26.99,2022-08-17 13:24:22.640625
1917,23.35,2022-08-17 13:24:22.656250
1918,19.96,2022-08-17 13:24:22.671875
1919,16.96,2022-08-17 13:24:22.687500
1920,14.54,2022-08-17 13:24:22.703125
1921,12.81,2022-08-17 13:24:22.718750
1922,11.74,2022-08-17 13:24:22.734375
1923,11.12,2022-08-17 13:24:22.750000
1924,10.68,2022-08-17 13:24:22.765625
1925,10.15,2022-08-17 13:24:22.781250
1926,9.27,2022-08-17 13:24:22.796875
1927,7.98,2022-08-17 13:24:22.812500
1928,6.28,2022-08-17 13:24:22.828125
1929,4.26,2022-08-17 13:24:22.843750
1930,2.12,2022-08-17 13:24:22.859375
1931,-0.09,2022-08-17 13:24:22.875000
1932,-2.43,2022-08-17 13:24:22.890625
1933,-5.13,2022-08-17 13:24:22.906250
1934,-8.33,2022-08-17 13:24:22.921875
1935,-12.2,2022-08-17 13:24:22.937500
1936,-16.61,2022-08-17 13:24:22.953125
1937,-21.24,2022-08-17 13:24:22.968750
1938,-25.63,2022-08-17 13:24:22.984375
1939,-29.21,2022-08-17 13:24:23.000000
1940,-31.66,2022-08-17 13:24:23.015625
1941,-32.89,2022-08-17 13:24:23.031250
1942,-33.28,2022-08-17 13:24:23.046875
1943,-33.51,2022-08-17 13:24:23.062500
1944,-34.41,2022-08-17 13:24:23.078125
1945,-36.68,2022-08-17 13:24:23.093750
1946,-40.61,2022-08-17 13:24:23.109375
1947,-46.02,2022-08-17 13:24:23.125000
1948,-51.97,2022-08-17 13:24:23.140625
1949,-57.07,2022-08-17 13:24:23.156250
1950,-59.61,2022-08-17 13:24:23.171875
1951,-58.08,2022-08-17 13:24:23.187500
1952,-51.65,2022-08-17 13:24:23.203125
1953,-40.44,2022-08-17 13:24:23.218750
1954,-25.47,2022-08-17 13:24:23.234375
1955,-8.4,2022-08-17 13:24:23.250000
1956,8.76,2022-08-17 13:24:23.265625
1957,24.38,2022-08-17 13:24:23.281250
1958,37.28,2022-08-17 13:24:23.296875
1959,46.92,2022-08-17 13:24:23.312500
1960,53.25,2022-08-17 13:24:23.328125
1961,56.44,2022-08-17 13:24:23.343750
1962,56.86,2022-08-17 13:24:23.359375
1963,55.0,2022-08-17 13:24:23.375000
1964,51.58,2022-08-17 13:24:23.390625
1965,47.28,2022-08-17 13:24:23.406250
1966,42.9,2022-08-17 13:24:23.421875
1967,38.96,2022-08-17 13:24:23.437500
1968,35.76,2022-08-17 13:24:23.453125
1969,33.26,2022-08-17 13:24:23.468750
1970,31.19,2022-08-17 13:24:23.484375
1971,29.27,2022-08-17 13:24:23.500000
1972,27.37,2022-08-17 13:24:23.515625
1973,25.65,2022-08-17 13:24:23.531250
1974,24.36,2022-08-17 13:24:23.546875
1975,23.73,2022-08-17 13:24:23.562500
1976,23.68,2022-08-17 13:24:23.578125
1977,23.76,2022-08-17 13:24:23.593750
1978,23.3,2022-08-17 13:24:23.609375
1979,21.61,2022-08-17 13:24:23.625000
1980,18.28,2022-08-17 13:24:23.640625
1981,13.36,2022-08-17 13:24:23.656250
1982,7.34,2022-08-17 13:24:23.671875
1983,1.0,2022-08-17 13:24:23.687500
1984,-4.88,2022-08-17 13:24:23.703125
1985,-9.77,2022-08-17 13:24:23.718750
1986,-13.57,2022-08-17 13:24:23.734375
1987,-16.37,2022-08-17 13:24:23.750000
1988,-18.54,2022-08-17 13:24:23.765625
1989,-20.44,2022-08-17 13:24:23.781250
1990,-22.28,2022-08-17 13:24:23.796875
1991,-24.21,2022-08-17 13:24:23.812500
1992,-26.25,2022-08-17 13:24:23.828125
1993,-28.4,2022-08-17 13:24:23.843750
1994,-30.75,2022-08-17 13:24:23.859375
1995,-33.41,2022-08-17 13:24:23.875000
1996,-36.38,2022-08-17 13:24:23.890625
1997,-39.71,2022-08-17 13:24:23.906250
1998,-43.4,2022-08-17 13:24:23.921875
1999,-47.4,2022-08-17 13:24:23.937500
2000,-51.52,2022-08-17 13:24:23.953125
2001,-55.34,2022-08-17 13:24:23.968750
2002,-58.17,2022-08-17 13:24:23.984375
2003,-59.04,2022-08-17 13:24:24.000000
2004,-57.01,2022-08-17 13:24:24.015625
2005,-51.25,2022-08-17 13:24:24.031250
2006,-41.54,2022-08-17 13:24:24.046875
2007,-28.33,2022-08-17 13:24:24.062500
2008,-12.78,2022-08-17 13:24:24.078125
2009,3.59,2022-08-17 13:24:24.093750
2010,19.18,2022-08-17 13:24:24.109375
2011,32.82,2022-08-17 13:24:24.125000
2012,43.77,2022-08-17 13:24:24.140625
2013,51.78,2022-08-17 13:24:24.156250
2014,57.05,2022-08-17 13:24:24.171875
2015,59.79,2022-08-17 13:24:24.187500
2016,60.29,2022-08-17 13:24:24.203125
2017,58.79,2022-08-17 13:24:24.218750
2018,55.58,2022-08-17 13:24:24.234375
2019,51.14,2022-08-17 13:24:24.250000
2020,46.14,2022-08-17 13:24:24.265625
2021,41.23,2022-08-17 13:24:24.281250
2022,36.86,2022-08-17 13:24:24.296875
2023,33.27,2022-08-17 13:24:24.312500
2024,30.36,2022-08-17 13:24:24.328125
2025,28.02,2022-08-17 13:24:24.343750
2026,26.14,2022-08-17 13:24:24.359375
2027,24.75,2022-08-17 13:24:24.375000
2028,23.95,2022-08-17 13:24:24.390625
2029,23.76,2022-08-17 13:24:24.406250
2030,23.94,2022-08-17 13:24:24.421875
2031,23.92,2022-08-17 13:24:24.437500
2032,23.17,2022-08-17 13:24:24.453125
2033,21.17,2022-08-17 13:24:24.468750
2034,17.8,2022-08-17 13:24:24.484375
2035,13.27,2022-08-17 13:24:24.500000
2036,8.09,2022-08-17 13:24:24.515625
2037,2.86,2022-08-17 13:24:24.531250
2038,-1.92,2022-08-17 13:24:24.546875
2039,-6.0,2022-08-17 13:24:24.562500
2040,-9.47,2022-08-17 13:24:24.578125
2041,-12.53,2022-08-17 13:24:24.593750
2042,-15.55,2022-08-17 13:24:24.609375
2043,-18.74,2022-08-17 13:24:24.625000
2044,-22.15,2022-08-17 13:24:24.640625
2045,-25.65,2022-08-17 13:24:24.656250
2046,-29.01,2022-08-17 13:24:24.671875
2047,-31.99,2022-08-17 13:24:24.687500
2048,-34.57,2022-08-17 13:24:24.703125
2049,-36.92,2022-08-17 13:24:24.718750
2050,-39.28,2022-08-17 13:24:24.734375
2051,-41.95,2022-08-17 13:24:24.750000
2052,-45.14,2022-08-17 13:24:24.765625
2053,-48.73,2022-08-17 13:24:24.781250
2054,-52.42,2022-08-17 13:24:24.796875
2055,-55.51,2022-08-17 13:24:24.812500
2056,-57.03,2022-08-17 13:24:24.828125
2057,-55.97,2022-08-17 13:24:24.843750
2058,-51.38,2022-08-17 13:24:24.859375
2059,-42.79,2022-08-17 13:24:24.875000
2060,-30.39,2022-08-17 13:24:24.890625
2061,-15.07,2022-08-17 13:24:24.906250
2062,1.84,2022-08-17 13:24:24.921875
2063,18.76,2022-08-17 13:24:24.937500
2064,34.32,2022-08-17 13:24:24.953125
2065,47.56,2022-08-17 13:24:24.968750
2066,57.97,2022-08-17 13:24:24.984375
2067,65.44,2022-08-17 13:24:25.000000
2068,70.01,2022-08-17 13:24:25.015625
2069,71.78,2022-08-17 13:24:25.031250
2070,70.9,2022-08-17 13:24:25.046875
2071,67.78,2022-08-17 13:24:25.062500
2072,62.97,2022-08-17 13:24:25.078125
2073,57.21,2022-08-17 13:24:25.093750
2074,51.25,2022-08-17 13:24:25.109375
2075,45.58,2022-08-17 13:24:25.125000
2076,40.49,2022-08-17 13:24:25.140625
2077,35.97,2022-08-17 13:24:25.156250
2078,31.91,2022-08-17 13:24:25.171875
2079,28.23,2022-08-17 13:24:25.187500
2080,25.08,2022-08-17 13:24:25.203125
2081,22.64,2022-08-17 13:24:25.218750
2082,21.08,2022-08-17 13:24:25.234375
2083,20.39,2022-08-17 13:24:25.250000
2084,20.3,2022-08-17 13:24:25.265625
2085,20.5,2022-08-17 13:24:25.281250
2086,20.61,2022-08-17 13:24:25.296875
2087,20.37,2022-08-17 13:24:25.312500
2088,19.7,2022-08-17 13:24:25.328125
2089,18.62,2022-08-17 13:24:25.343750
2090,17.21,2022-08-17 13:24:25.359375
2091,15.51,2022-08-17 13:24:25.375000
2092,13.45,2022-08-17 13:24:25.390625
2093,10.85,2022-08-17 13:24:25.406250
2094,7.54,2022-08-17 13:24:25.421875
2095,3.48,2022-08-17 13:24:25.437500
2096,-1.3,2022-08-17 13:24:25.453125
2097,-6.58,2022-08-17 13:24:25.468750
2098,-12.05,2022-08-17 13:24:25.484375
2099,-17.42,2022-08-17 13:24:25.500000
2100,-22.5,2022-08-17 13:24:25.515625
2101,-27.2,2022-08-17 13:24:25.531250
2102,-31.63,2022-08-17 13:24:25.546875
2103,-35.98,2022-08-17 13:24:25.562500
2104,-40.36,2022-08-17 13:24:25.578125
2105,-44.82,2022-08-17 13:24:25.593750
2106,-49.24,2022-08-17 13:24:25.609375
2107,-53.27,2022-08-17 13:24:25.625000
2108,-56.31,2022-08-17 13:24:25.640625
2109,-57.58,2022-08-17 13:24:25.656250
2110,-56.13,2022-08-17 13:24:25.671875
2111,-51.23,2022-08-17 13:24:25.687500
2112,-42.56,2022-08-17 13:24:25.703125
2113,-30.42,2022-08-17 13:24:25.718750
2114,-15.75,2022-08-17 13:24:25.734375
2115,0.08,2022-08-17 13:24:25.750000
2116,15.55,2022-08-17 13:24:25.765625
2117,29.34,2022-08-17 13:24:25.781250
2118,40.58,2022-08-17 13:24:25.796875
2119,48.87,2022-08-17 13:24:25.812500
2120,54.19,2022-08-17 13:24:25.828125
2121,56.72,2022-08-17 13:24:25.843750
2122,56.71,2022-08-17 13:24:25.859375
2123,54.59,2022-08-17 13:24:25.875000
2124,50.79,2022-08-17 13:24:25.890625
2125,45.9,2022-08-17 13:24:25.906250
2126,40.45,2022-08-17 13:24:25.921875
2127,35.01,2022-08-17 13:24:25.937500
2128,29.98,2022-08-17 13:24:25.953125
2129,25.56,2022-08-17 13:24:25.968750
2130,21.78,2022-08-17 13:24:25.984375
2131,18.5,2022-08-17 13:24:26.000000
2132,15.62,2022-08-17 13:24:26.015625
2133,13.05,2022-08-17 13:24:26.031250
2134,10.87,2022-08-17 13:24:26.046875
2135,9.06,2022-08-17 13:24:26.062500
2136,7.53,2022-08-17 13:24:26.078125
2137,6.07,2022-08-17 13:24:26.093750
2138,4.35,2022-08-17 13:24:26.109375
2139,2.07,2022-08-17 13:24:26.125000
2140,-0.86,2022-08-17 13:24:26.140625
2141,-4.37,2022-08-17 13:24:26.156250
2142,-8.33,2022-08-17 13:24:26.171875
2143,-12.55,2022-08-17 13:24:26.187500
2144,-16.93,2022-08-17 13:24:26.203125
2145,-21.39,2022-08-17 13:24:26.218750
2146,-25.85,2022-08-17 13:24:26.234375
2147,-30.17,2022-08-17 13:24:26.250000
2148,-34.17,2022-08-17 13:24:26.265625
2149,-37.6,2022-08-17 13:24:26.281250
2150,-40.41,2022-08-17 13:24:26.296875
2151,-42.78,2022-08-17 13:24:26.312500
2152,-45.07,2022-08-17 13:24:26.328125
2153,-47.67,2022-08-17 13:24:26.343750
2154,-50.97,2022-08-17 13:24:26.359375
2155,-55.1,2022-08-17 13:24:26.375000
2156,-59.86,2022-08-17 13:24:26.390625
2157,-64.63,2022-08-17 13:24:26.406250
2158,-68.37,2022-08-17 13:24:26.421875
2159,-69.82,2022-08-17 13:24:26.437500
2160,-67.85,2022-08-17 13:24:26.453125
2161,-61.73,2022-08-17 13:24:26.468750
2162,-51.46,2022-08-17 13:24:26.484375
2163,-37.84,2022-08-17 13:24:26.500000
2164,-22.22,2022-08-17 13:24:26.515625
2165,-6.21,2022-08-17 13:24:26.531250
2166,8.7,2022-08-17 13:24:26.546875
2167,21.41,2022-08-17 13:24:26.562500
2168,31.26,2022-08-17 13:24:26.578125
2169,38.02,2022-08-17 13:24:26.593750
2170,41.61,2022-08-17 13:24:26.609375
2171,42.13,2022-08-17 13:24:26.625000
2172,39.92,2022-08-17 13:24:26.640625
2173,35.5,2022-08-17 13:24:26.656250
2174,29.7,2022-08-17 13:24:26.671875
2175,23.42,2022-08-17 13:24:26.687500
2176,17.55,2022-08-17 13:24:26.703125
2177,12.72,2022-08-17 13:24:26.718750
2178,9.31,2022-08-17 13:24:26.734375
2179,7.36,2022-08-17 13:24:26.750000
2180,6.6,2022-08-17 13:24:26.765625
2181,6.68,2022-08-17 13:24:26.781250
2182,7.13,2022-08-17 13:24:26.796875
2183,7.57,2022-08-17 13:24:26.812500
2184,7.6,2022-08-17 13:24:26.828125
2185,6.99,2022-08-17 13:24:26.843750
2186,5.68,2022-08-17 13:24:26.859375
2187,3.64,2022-08-17 13:24:26.875000
2188,1.0,2022-08-17 13:24:26.890625
2189,-2.28,2022-08-17 13:24:26.906250
2190,-6.11,2022-08-17 13:24:26.921875
2191,-10.49,2022-08-17 13:24:26.937500
2192,-15.32,2022-08-17 13:24:26.953125
2193,-20.54,2022-08-17 13:24:26.968750
2194,-26.09,2022-08-17 13:24:26.984375
2195,-31.84,2022-08-17 13:24:27.000000
2196,-37.68,2022-08-17 13:24:27.015625
2197,-43.39,2022-08-17 13:24:27.031250
2198,-48.73,2022-08-17 13:24:27.046875
2199,-53.31,2022-08-17 13:24:27.062500
2200,-56.93,2022-08-17 13:24:27.078125
2201,-59.57,2022-08-17 13:24:27.093750
2202,-61.49,2022-08-17 13:24:27.109375
2203,-63.17,2022-08-17 13:24:27.125000
2204,-64.84,2022-08-17 13:24:27.140625
2205,-66.4,2022-08-17 13:24:27.156250
2206,-67.11,2022-08-17 13:24:27.171875
2207,-65.88,2022-08-17 13:24:27.187500
2208,-61.56,2022-08-17 13:24:27.203125
2209,-53.48,2022-08-17 13:24:27.218750
2210,-41.77,2022-08-17 13:24:27.234375
2211,-27.36,2022-08-17 13:24:27.250000
2212,-11.69,2022-08-17 13:24:27.265625
2213,3.81,2022-08-17 13:24:27.281250
2214,17.96,2022-08-17 13:24:27.296875
2215,30.21,2022-08-17 13:24:27.312500
2216,40.29,2022-08-17 13:24:27.328125
2217,48.16,2022-08-17 13:24:27.343750
2218,53.69,2022-08-17 13:24:27.359375
2219,56.63,2022-08-17 13:24:27.375000
2220,56.84,2022-08-17 13:24:27.390625
2221,54.47,2022-08-17 13:24:27.406250
2222,50.12,2022-08-17 13:24:27.421875
2223,44.71,2022-08-17 13:24:27.437500
2224,39.24,2022-08-17 13:24:27.453125
2225,34.54,2022-08-17 13:24:27.468750
2226,31.06,2022-08-17 13:24:27.484375
2227,28.78,2022-08-17 13:24:27.500000
2228,27.37,2022-08-17 13:24:27.515625
2229,26.49,2022-08-17 13:24:27.531250
2230,25.79,2022-08-17 13:24:27.546875
2231,25.15,2022-08-17 13:24:27.562500
2232,24.54,2022-08-17 13:24:27.578125
2233,23.91,2022-08-17 13:24:27.593750
2234,23.18,2022-08-17 13:24:27.609375
2235,22.2,2022-08-17 13:24:27.625000
2236,20.81,2022-08-17 13:24:27.640625
2237,18.8,2022-08-17 13:24:27.656250
2238,16.09,2022-08-17 13:24:27.671875
2239,12.59,2022-08-17 13:24:27.687500
2240,8.36,2022-08-17 13:24:27.703125
2241,3.41,2022-08-17 13:24:27.718750
2242,-2.13,2022-08-17 13:24:27.734375
2243,-8.17,2022-08-17 13:24:27.750000
2244,-14.52,2022-08-17 13:24:27.765625
2245,-20.87,2022-08-17 13:24:27.781250
2246,-26.93,2022-08-17 13:24:27.796875
2247,-32.41,2022-08-17 13:24:27.812500
2248,-37.23,2022-08-17 13:24:27.828125
2249,-41.55,2022-08-17 13:24:27.843750
2250,-45.7,2022-08-17 13:24:27.859375
2251,-50.07,2022-08-17 13:24:27.875000
2252,-54.95,2022-08-17 13:24:27.890625
2253,-60.23,2022-08-17 13:24:27.906250
2254,-65.42,2022-08-17 13:24:27.921875
2255,-69.48,2022-08-17 13:24:27.937500
2256,-71.19,2022-08-17 13:24:27.953125
2257,-69.35,2022-08-17 13:24:27.968750
2258,-63.28,2022-08-17 13:24:27.984375
2259,-52.9,2022-08-17 13:24:28.000000
2260,-39.04,2022-08-17 13:24:28.015625
2261,-23.06,2022-08-17 13:24:28.031250
2262,-6.61,2022-08-17 13:24:28.046875
2263,8.85,2022-08-17 13:24:28.062500
2264,22.35,2022-08-17 13:24:28.078125
2265,33.33,2022-08-17 13:24:28.093750
2266,41.65,2022-08-17 13:24:28.109375
2267,47.25,2022-08-17 13:24:28.125000
2268,50.27,2022-08-17 13:24:28.140625
2269,50.86,2022-08-17 13:24:28.156250
2270,49.39,2022-08-17 13:24:28.171875
2271,46.43,2022-08-17 13:24:28.187500
2272,42.72,2022-08-17 13:24:28.203125
2273,39.01,2022-08-17 13:24:28.218750
2274,35.8,2022-08-17 13:24:28.234375
2275,33.29,2022-08-17 13:24:28.250000
2276,31.32,2022-08-17 13:24:28.265625
2277,29.66,2022-08-17 13:24:28.281250
2278,28.08,2022-08-17 13:24:28.296875
2279,26.46,2022-08-17 13:24:28.312500
2280,24.87,2022-08-17 13:24:28.328125
2281,23.43,2022-08-17 13:24:28.343750
2282,22.21,2022-08-17 13:24:28.359375
2283,21.12,2022-08-17 13:24:28.375000
2284,19.84,2022-08-17 13:24:28.390625
2285,18.07,2022-08-17 13:24:28.406250
2286,15.57,2022-08-17 13:24:28.421875
2287,12.39,2022-08-17 13:24:28.437500
2288,8.69,2022-08-17 13:24:28.453125
2289,4.77,2022-08-17 13:24:28.468750
2290,0.75,2022-08-17 13:24:28.484375
2291,-3.35,2022-08-17 13:24:28.500000
2292,-7.63,2022-08-17 13:24:28.515625
2293,-12.25,2022-08-17 13:24:28.531250
2294,-17.22,2022-08-17 13:24:28.546875
2295,-22.4,2022-08-17 13:24:28.562500
2296,-27.46,2022-08-17 13:24:28.578125
2297,-32.16,2022-08-17 13:24:28.593750
2298,-36.34,2022-08-17 13:24:28.609375
2299,-40.09,2022-08-17 13:24:28.625000
2300,-43.62,2022-08-17 13:24:28.640625
2301,-47.08,2022-08-17 13:24:28.656250
2302,-50.66,2022-08-17 13:24:28.671875
2303,-54.32,2022-08-17 13:24:28.687500
2304,-57.7,2022-08-17 13:24:28.703125
2305,-60.1,2022-08-17 13:24:28.718750
2306,-60.63,2022-08-17 13:24:28.734375
2307,-58.31,2022-08-17 13:24:28.750000
2308,-52.48,2022-08-17 13:24:28.765625
2309,-43.02,2022-08-17 13:24:28.781250
2310,-30.36,2022-08-17 13:24:28.796875
2311,-15.58,2022-08-17 13:24:28.812500
2312,-0.09,2022-08-17 13:24:28.828125
2313,14.73,2022-08-17 13:24:28.843750
2314,27.76,2022-08-17 13:24:28.859375
2315,38.28,2022-08-17 13:24:28.875000
2316,45.96,2022-08-17 13:24:28.890625
2317,50.74,2022-08-17 13:24:28.906250
2318,52.78,2022-08-17 13:24:28.921875
2319,52.41,2022-08-17 13:24:28.937500
2320,50.14,2022-08-17 13:24:28.953125
2321,46.56,2022-08-17 13:24:28.968750
2322,42.35,2022-08-17 13:24:28.984375
2323,38.1,2022-08-17 13:24:29.000000
2324,34.29,2022-08-17 13:24:29.015625
2325,31.25,2022-08-17 13:24:29.031250
2326,29.01,2022-08-17 13:24:29.046875
2327,27.46,2022-08-17 13:24:29.062500
2328,26.4,2022-08-17 13:24:29.078125
2329,25.63,2022-08-17 13:24:29.093750
2330,25.01,2022-08-17 13:24:29.109375
2331,24.47,2022-08-17 13:24:29.125000
2332,23.89,2022-08-17 13:24:29.140625
2333,23.17,2022-08-17 13:24:29.156250
2334,22.12,2022-08-17 13:24:29.171875
2335,20.54,2022-08-17 13:24:29.187500
2336,18.32,2022-08-17 13:24:29.203125
2337,15.53,2022-08-17 13:24:29.218750
2338,12.37,2022-08-17 13:24:29.234375
2339,9.14,2022-08-17 13:24:29.250000
2340,6.06,2022-08-17 13:24:29.265625
2341,3.04,2022-08-17 13:24:29.281250
2342,-0.05,2022-08-17 13:24:29.296875
2343,-3.5,2022-08-17 13:24:29.312500
2344,-7.53,2022-08-17 13:24:29.328125
2345,-12.14,2022-08-17 13:24:29.343750
2346,-17.08,2022-08-17 13:24:29.359375
2347,-22.04,2022-08-17 13:24:29.375000
2348,-26.75,2022-08-17 13:24:29.390625
2349,-31.09,2022-08-17 13:24:29.406250
2350,-35.24,2022-08-17 13:24:29.421875
2351,-39.39,2022-08-17 13:24:29.437500
2352,-43.7,2022-08-17 13:24:29.453125
2353,-48.19,2022-08-17 13:24:29.468750
2354,-52.67,2022-08-17 13:24:29.484375
2355,-56.7,2022-08-17 13:24:29.500000
2356,-59.68,2022-08-17 13:24:29.515625
2357,-60.82,2022-08-17 13:24:29.531250
2358,-59.31,2022-08-17 13:24:29.546875
2359,-54.46,2022-08-17 13:24:29.562500
2360,-45.92,2022-08-17 13:24:29.578125
2361,-33.91,2022-08-17 13:24:29.593750
2362,-19.29,2022-08-17 13:24:29.609375
2363,-3.37,2022-08-17 13:24:29.625000
2364,12.37,2022-08-17 13:24:29.640625
2365,26.55,2022-08-17 13:24:29.656250
2366,38.26,2022-08-17 13:24:29.671875
2367,47.0,2022-08-17 13:24:29.687500
2368,52.72,2022-08-17 13:24:29.703125
2369,55.68,2022-08-17 13:24:29.718750
2370,56.26,2022-08-17 13:24:29.734375
2371,54.96,2022-08-17 13:24:29.750000
2372,52.32,2022-08-17 13:24:29.765625
2373,48.82,2022-08-17 13:24:29.781250
2374,44.89,2022-08-17 13:24:29.796875
2375,40.83,2022-08-17 13:24:29.812500
2376,36.88,2022-08-17 13:24:29.828125
2377,33.19,2022-08-17 13:24:29.843750
2378,29.9,2022-08-17 13:24:29.859375
2379,27.14,2022-08-17 13:24:29.875000
2380,24.95,2022-08-17 13:24:29.890625
2381,23.38,2022-08-17 13:24:29.906250
2382,22.36,2022-08-17 13:24:29.921875
2383,21.79,2022-08-17 13:24:29.937500
2384,21.44,2022-08-17 13:24:29.953125
2385,21.07,2022-08-17 13:24:29.968750
2386,20.35,2022-08-17 13:24:29.984375
2387,19.04,2022-08-17 13:24:30.000000
2388,16.94,2022-08-17 13:24:30.015625
2389,14.02,2022-08-17 13:24:30.031250
2390,10.34,2022-08-17 13:24:30.046875
2391,6.17,2022-08-17 13:24:30.062500
2392,1.85,2022-08-17 13:24:30.078125
2393,-2.39,2022-08-17 13:24:30.093750
2394,-6.37,2022-08-17 13:24:30.109375
2395,-10.18,2022-08-17 13:24:30.125000
2396,-13.94,2022-08-17 13:24:30.140625
2397,-17.84,2022-08-17 13:24:30.156250
2398,-21.9,2022-08-17 13:24:30.171875
2399,-26.03,2022-08-17 13:24:30.187500
2400,-30.03,2022-08-17 13:24:30.203125
2401,-33.68,2022-08-17 13:24:30.218750
2402,-36.91,2022-08-17 13:24:30.234375
2403,-39.82,2022-08-17 13:24:30.250000
2404,-42.67,2022-08-17 13:24:30.265625
2405,-45.72,2022-08-17 13:24:30.281250
2406,-49.15,2022-08-17 13:24:30.296875
2407,-52.83,2022-08-17 13:24:30.312500
2408,-56.32,2022-08-17 13:24:30.328125
2409,-58.83,2022-08-17 13:24:30.343750
2410,-59.37,2022-08-17 13:24:30.359375
2411,-57.01,2022-08-17 13:24:30.375000
2412,-51.09,2022-08-17 13:24:30.390625
2413,-41.5,2022-08-17 13:24:30.406250
2414,-28.72,2022-08-17 13:24:30.421875
2415,-13.79,2022-08-17 13:24:30.437500
2416,1.96,2022-08-17 13:24:30.453125
2417,17.1,2022-08-17 13:24:30.468750
2418,30.49,2022-08-17 13:24:30.484375
2419,41.39,2022-08-17 13:24:30.500000
2420,49.45,2022-08-17 13:24:30.515625
2421,54.73,2022-08-17 13:24:30.531250
2422,57.47,2022-08-17 13:24:30.546875
2423,57.92,2022-08-17 13:24:30.562500
2424,56.46,2022-08-17 13:24:30.578125
2425,53.44,2022-08-17 13:24:30.593750
2426,49.36,2022-08-17 13:24:30.609375
2427,44.76,2022-08-17 13:24:30.625000
2428,40.24,2022-08-17 13:24:30.640625
2429,36.31,2022-08-17 13:24:30.656250
2430,33.28,2022-08-17 13:24:30.671875
2431,31.27,2022-08-17 13:24:30.687500
2432,30.21,2022-08-17 13:24:30.703125
2433,29.99,2022-08-17 13:24:30.718750
2434,30.47,2022-08-17 13:24:30.734375
2435,31.47,2022-08-17 13:24:30.750000
2436,32.67,2022-08-17 13:24:30.765625
2437,33.63,2022-08-17 13:24:30.781250
2438,33.82,2022-08-17 13:24:30.796875
2439,32.74,2022-08-17 13:24:30.812500
2440,30.08,2022-08-17 13:24:30.828125
2441,25.94,2022-08-17 13:24:30.843750
2442,20.65,2022-08-17 13:24:30.859375
2443,14.78,2022-08-17 13:24:30.875000
2444,8.88,2022-08-17 13:24:30.890625
2445,3.19,2022-08-17 13:24:30.906250
2446,-2.16,2022-08-17 13:24:30.921875
2447,-7.29,2022-08-17 13:24:30.937500
2448,-12.29,2022-08-17 13:24:30.953125
2449,-17.2,2022-08-17 13:24:30.968750
2450,-21.89,2022-08-17 13:24:30.984375
2451,-26.13,2022-08-17 13:24:31.000000
2452,-29.72,2022-08-17 13:24:31.015625
2453,-32.57,2022-08-17 13:24:31.031250
2454,-34.81,2022-08-17 13:24:31.046875
2455,-36.64,2022-08-17 13:24:31.062500
2456,-38.28,2022-08-17 13:24:31.078125
2457,-39.97,2022-08-17 13:24:31.093750
2458,-41.89,2022-08-17 13:24:31.109375
2459,-44.21,2022-08-17 13:24:31.125000
2460,-46.96,2022-08-17 13:24:31.140625
2461,-49.98,2022-08-17 13:24:31.156250
2462,-52.68,2022-08-17 13:24:31.171875
2463,-54.12,2022-08-17 13:24:31.187500
2464,-53.11,2022-08-17 13:24:31.203125
2465,-48.59,2022-08-17 13:24:31.218750
2466,-40.08,2022-08-17 13:24:31.234375
2467,-27.92,2022-08-17 13:24:31.250000
2468,-13.18,2022-08-17 13:24:31.265625
2469,2.57,2022-08-17 13:24:31.281250
2470,17.82,2022-08-17 13:24:31.296875
2471,31.44,2022-08-17 13:24:31.312500
2472,42.75,2022-08-17 13:24:31.328125
2473,51.52,2022-08-17 13:24:31.343750
2474,57.69,2022-08-17 13:24:31.359375
2475,61.25,2022-08-17 13:24:31.375000
2476,62.36,2022-08-17 13:24:31.390625
2477,61.23,2022-08-17 13:24:31.406250
2478,58.29,2022-08-17 13:24:31.421875
2479,54.08,2022-08-17 13:24:31.437500
2480,49.29,2022-08-17 13:24:31.453125
2481,44.42,2022-08-17 13:24:31.468750
2482,39.85,2022-08-17 13:24:31.484375
2483,35.87,2022-08-17 13:24:31.500000
2484,32.64,2022-08-17 13:24:31.515625
2485,30.35,2022-08-17 13:24:31.531250
2486,29.07,2022-08-17 13:24:31.546875
2487,28.69,2022-08-17 13:24:31.562500
2488,28.91,2022-08-17 13:24:31.578125
2489,29.35,2022-08-17 13:24:31.593750
2490,29.52,2022-08-17 13:24:31.609375
2491,29.05,2022-08-17 13:24:31.625000
2492,27.79,2022-08-17 13:24:31.640625
2493,25.71,2022-08-17 13:24:31.656250
2494,22.86,2022-08-17 13:24:31.671875
2495,19.28,2022-08-17 13:24:31.687500
2496,15.08,2022-08-17 13:24:31.703125
2497,10.4,2022-08-17 13:24:31.718750
2498,5.41,2022-08-17 13:24:31.734375
2499,0.38,2022-08-17 13:24:31.750000
2500,-4.5,2022-08-17 13:24:31.765625
2501,-9.09,2022-08-17 13:24:31.781250
2502,-13.37,2022-08-17 13:24:31.796875
2503,-17.44,2022-08-17 13:24:31.812500
2504,-21.38,2022-08-17 13:24:31.828125
2505,-25.19,2022-08-17 13:24:31.843750
2506,-28.83,2022-08-17 13:24:31.859375
2507,-32.32,2022-08-17 13:24:31.875000
2508,-35.7,2022-08-17 13:24:31.890625
2509,-39.13,2022-08-17 13:24:31.906250
2510,-42.73,2022-08-17 13:24:31.921875
2511,-46.64,2022-08-17 13:24:31.937500
2512,-50.76,2022-08-17 13:24:31.953125
2513,-54.7,2022-08-17 13:24:31.968750
2514,-57.71,2022-08-17 13:24:31.984375
2515,-58.79,2022-08-17 13:24:32.000000
2516,-56.88,2022-08-17 13:24:32.015625
2517,-51.12,2022-08-17 13:24:32.031250
2518,-41.21,2022-08-17 13:24:32.046875
2519,-27.51,2022-08-17 13:24:32.062500
2520,-11.07,2022-08-17 13:24:32.078125
2521,6.78,2022-08-17 13:24:32.093750
2522,24.54,2022-08-17 13:24:32.109375
2523,40.99,2022-08-17 13:24:32.125000
2524,55.19,2022-08-17 13:24:32.140625
2525,66.56,2022-08-17 13:24:32.156250
2526,74.83,2022-08-17 13:24:32.171875
2527,79.9,2022-08-17 13:24:32.187500
2528,81.93,2022-08-17 13:24:32.203125
2529,81.41,2022-08-17 13:24:32.218750
2530,79.07,2022-08-17 13:24:32.234375
2531,75.73,2022-08-17 13:24:32.250000
2532,72.17,2022-08-17 13:24:32.265625
2533,68.9,2022-08-17 13:24:32.281250
2534,66.11,2022-08-17 13:24:32.296875
2535,63.78,2022-08-17 13:24:32.312500
2536,61.74,2022-08-17 13:24:32.328125
2537,59.81,2022-08-17 13:24:32.343750
2538,57.93,2022-08-17 13:24:32.359375
2539,56.01,2022-08-17 13:24:32.375000
2540,53.86,2022-08-17 13:24:32.390625
2541,51.12,2022-08-17 13:24:32.406250
2542,47.31,2022-08-17 13:24:32.421875
2543,41.89,2022-08-17 13:24:32.437500
2544,34.51,2022-08-17 13:24:32.453125
2545,25.02,2022-08-17 13:24:32.468750
2546,13.45,2022-08-17 13:24:32.484375
2547,-0.03,2022-08-17 13:24:32.500000
2548,-15.3,2022-08-17 13:24:32.515625
2549,-32.09,2022-08-17 13:24:32.531250
2550,-50.03,2022-08-17 13:24:32.546875
2551,-68.48,2022-08-17 13:24:32.562500
2552,-86.71,2022-08-17 13:24:32.578125
2553,-103.9,2022-08-17 13:24:32.593750
2554,-119.44,2022-08-17 13:24:32.609375
2555,-133.01,2022-08-17 13:24:32.625000
2556,-144.55,2022-08-17 13:24:32.640625
2557,-154.3,2022-08-17 13:24:32.656250
2558,-162.47,2022-08-17 13:24:32.671875
2559,-169.19,2022-08-17 13:24:32.687500
2560,-174.49,2022-08-17 13:24:32.703125
2561,-178.3,2022-08-17 13:24:32.718750
2562,-180.38,2022-08-17 13:24:32.734375
2563,-180.41,2022-08-17 13:24:32.750000
2564,-177.82,2022-08-17 13:24:32.765625
2565,-171.85,2022-08-17 13:24:32.781250
2566,-161.77,2022-08-17 13:24:32.796875
2567,-147.02,2022-08-17 13:24:32.812500
2568,-127.47,2022-08-17 13:24:32.828125
2569,-103.66,2022-08-17 13:24:32.843750
2570,-76.78,2022-08-17 13:24:32.859375
2571,-48.52,2022-08-17 13:24:32.875000
2572,-20.83,2022-08-17 13:24:32.890625
2573,4.46,2022-08-17 13:24:32.906250
2574,25.97,2022-08-17 13:24:32.921875
2575,42.93,2022-08-17 13:24:32.937500
2576,55.3,2022-08-17 13:24:32.953125
2577,63.53,2022-08-17 13:24:32.968750
2578,68.36,2022-08-17 13:24:32.984375
2579,70.62,2022-08-17 13:24:33.000000
2580,70.97,2022-08-17 13:24:33.015625
2581,69.93,2022-08-17 13:24:33.031250
2582,67.95,2022-08-17 13:24:33.046875
2583,65.31,2022-08-17 13:24:33.062500
2584,62.11,2022-08-17 13:24:33.078125
2585,58.31,2022-08-17 13:24:33.093750
2586,53.64,2022-08-17 13:24:33.109375
2587,47.86,2022-08-17 13:24:33.125000
2588,41.07,2022-08-17 13:24:33.140625
2589,33.68,2022-08-17 13:24:33.156250
2590,26.41,2022-08-17 13:24:33.171875
2591,20.04,2022-08-17 13:24:33.187500
2592,15.13,2022-08-17 13:24:33.203125
2593,11.89,2022-08-17 13:24:33.218750
2594,10.33,2022-08-17 13:24:33.234375
2595,10.32,2022-08-17 13:24:33.250000
2596,11.79,2022-08-17 13:24:33.265625
2597,14.71,2022-08-17 13:24:33.281250
2598,19.02,2022-08-17 13:24:33.296875
2599,24.46,2022-08-17 13:24:33.312500
2600,30.58,2022-08-17 13:24:33.328125
2601,36.58,2022-08-17 13:24:33.343750
2602,41.64,2022-08-17 13:24:33.359375
2603,45.02,2022-08-17 13:24:33.375000
2604,46.36,2022-08-17 13:24:33.390625
2605,45.97,2022-08-17 13:24:33.406250
2606,44.69,2022-08-17 13:24:33.421875
2607,43.6,2022-08-17 13:24:33.437500
2608,43.23,2022-08-17 13:24:33.453125
2609,43.13,2022-08-17 13:24:33.468750
2610,41.49,2022-08-17 13:24:33.484375
2611,35.94,2022-08-17 13:24:33.500000
2612,24.55,2022-08-17 13:24:33.515625
2613,6.82,2022-08-17 13:24:33.531250
2614,-15.82,2022-08-17 13:24:33.546875
2615,-40.29,2022-08-17 13:24:33.562500
2616,-62.93,2022-08-17 13:24:33.578125
2617,-80.38,2022-08-17 13:24:33.593750
2618,-90.19,2022-08-17 13:24:33.609375
2619,-90.97,2022-08-17 13:24:33.625000
2620,-82.21,2022-08-17 13:24:33.640625
2621,-64.17,2022-08-17 13:24:33.656250
2622,-38.04,2022-08-17 13:24:33.671875
2623,-5.97,2022-08-17 13:24:33.687500
2624,28.86,2022-08-17 13:24:33.703125
2625,62.73,2022-08-17 13:24:33.718750
2626,92.07,2022-08-17 13:24:33.734375
2627,114.31,2022-08-17 13:24:33.750000
2628,128.49,2022-08-17 13:24:33.765625
2629,135.24,2022-08-17 13:24:33.781250
2630,136.55,2022-08-17 13:24:33.796875
2631,134.88,2022-08-17 13:24:33.812500
2632,132.75,2022-08-17 13:24:33.828125
2633,131.85,2022-08-17 13:24:33.843750
2634,132.78,2022-08-17 13:24:33.859375
2635,135.05,2022-08-17 13:24:33.875000
2636,137.48,2022-08-17 13:24:33.890625
2637,138.81,2022-08-17 13:24:33.906250
2638,138.22,2022-08-17 13:24:33.921875
2639,135.83,2022-08-17 13:24:33.937500
2640,132.33,2022-08-17 13:24:33.953125
2641,128.64,2022-08-17 13:24:33.968750
2642,125.35,2022-08-17 13:24:33.984375
2643,122.21,2022-08-17 13:24:34.000000
2644,118.19,2022-08-17 13:24:34.015625
2645,111.82,2022-08-17 13:24:34.031250
2646,101.72,2022-08-17 13:24:34.046875
2647,87.0,2022-08-17 13:24:34.062500
2648,67.71,2022-08-17 13:24:34.078125
2649,44.75,2022-08-17 13:24:34.093750
2650,19.86,2022-08-17 13:24:34.109375
2651,-4.64,2022-08-17 13:24:34.125000
2652,-26.4,2022-08-17 13:24:34.140625
2653,-43.61,2022-08-17 13:24:34.156250
2654,-55.88,2022-08-17 13:24:34.171875
2655,-64.49,2022-08-17 13:24:34.187500
2656,-72.24,2022-08-17 13:24:34.203125
2657,-82.22,2022-08-17 13:24:34.218750
2658,-96.38,2022-08-17 13:24:34.234375
2659,-114.3,2022-08-17 13:24:34.250000
2660,-133.21,2022-08-17 13:24:34.265625
2661,-148.97,2022-08-17 13:24:34.281250
2662,-157.79,2022-08-17 13:24:34.296875
2663,-157.91,2022-08-17 13:24:34.312500
2664,-150.06,2022-08-17 13:24:34.328125
2665,-136.9,2022-08-17 13:24:34.343750
2666,-121.61,2022-08-17 13:24:34.359375
2667,-106.56,2022-08-17 13:24:34.375000
2668,-92.71,2022-08-17 13:24:34.390625
2669,-79.85,2022-08-17 13:24:34.406250
2670,-67.49,2022-08-17 13:24:34.421875
2671,-55.53,2022-08-17 13:24:34.437500
2672,-44.61,2022-08-17 13:24:34.453125
2673,-35.71,2022-08-17 13:24:34.468750
2674,-29.61,2022-08-17 13:24:34.484375
2675,-26.49,2022-08-17 13:24:34.500000
2676,-25.72,2022-08-17 13:24:34.515625
2677,-26.3,2022-08-17 13:24:34.531250
2678,-27.22,2022-08-17 13:24:34.546875
2679,-27.95,2022-08-17 13:24:34.562500
2680,-28.38,2022-08-17 13:24:34.578125
2681,-28.72,2022-08-17 13:24:34.593750
2682,-28.96,2022-08-17 13:24:34.609375
2683,-28.62,2022-08-17 13:24:34.625000
2684,-26.94,2022-08-17 13:24:34.640625
2685,-23.02,2022-08-17 13:24:34.656250
2686,-16.48,2022-08-17 13:24:34.671875
2687,-7.65,2022-08-17 13:24:34.687500
2688,2.34,2022-08-17 13:24:34.703125
2689,12.0,2022-08-17 13:24:34.718750
2690,19.79,2022-08-17 13:24:34.734375
2691,24.74,2022-08-17 13:24:34.750000
2692,26.68,2022-08-17 13:24:34.765625
2693,26.06,2022-08-17 13:24:34.781250
2694,23.77,2022-08-17 13:24:34.796875
2695,20.69,2022-08-17 13:24:34.812500
2696,17.4,2022-08-17 13:24:34.828125
2697,14.12,2022-08-17 13:24:34.843750
2698,10.7,2022-08-17 13:24:34.859375
2699,6.9,2022-08-17 13:24:34.875000
2700,2.54,2022-08-17 13:24:34.890625
2701,-2.27,2022-08-17 13:24:34.906250
2702,-7.17,2022-08-17 13:24:34.921875
2703,-11.63,2022-08-17 13:24:34.937500
2704,-15.2,2022-08-17 13:24:34.953125
2705,-17.63,2022-08-17 13:24:34.968750
2706,-18.95,2022-08-17 13:24:34.984375
2707,-19.47,2022-08-17 13:24:35.000000
2708,-19.64,2022-08-17 13:24:35.015625
2709,-19.98,2022-08-17 13:24:35.031250
2710,-20.95,2022-08-17 13:24:35.046875
2711,-22.97,2022-08-17 13:24:35.062500
2712,-26.16,2022-08-17 13:24:35.078125
2713,-30.37,2022-08-17 13:24:35.093750
2714,-34.96,2022-08-17 13:24:35.109375
2715,-38.88,2022-08-17 13:24:35.125000
2716,-40.85,2022-08-17 13:24:35.140625
2717,-39.75,2022-08-17 13:24:35.156250
2718,-35.02,2022-08-17 13:24:35.171875
2719,-26.68,2022-08-17 13:24:35.187500
2720,-15.54,2022-08-17 13:24:35.203125
2721,-2.69,2022-08-17 13:24:35.218750
2722,10.66,2022-08-17 13:24:35.234375
2723,23.44,2022-08-17 13:24:35.250000
2724,34.87,2022-08-17 13:24:35.265625
2725,44.42,2022-08-17 13:24:35.281250
2726,51.75,2022-08-17 13:24:35.296875
2727,56.66,2022-08-17 13:24:35.312500
2728,59.15,2022-08-17 13:24:35.328125
2729,59.25,2022-08-17 13:24:35.343750
2730,57.25,2022-08-17 13:24:35.359375
2731,53.56,2022-08-17 13:24:35.375000
2732,48.78,2022-08-17 13:24:35.390625
2733,43.62,2022-08-17 13:24:35.406250
2734,38.79,2022-08-17 13:24:35.421875
2735,34.81,2022-08-17 13:24:35.437500
2736,31.86,2022-08-17 13:24:35.453125
2737,29.8,2022-08-17 13:24:35.468750
2738,28.14,2022-08-17 13:24:35.484375
2739,26.41,2022-08-17 13:24:35.500000
2740,24.31,2022-08-17 13:24:35.515625
2741,21.77,2022-08-17 13:24:35.531250
2742,18.94,2022-08-17 13:24:35.546875
2743,15.98,2022-08-17 13:24:35.562500
2744,12.92,2022-08-17 13:24:35.578125
2745,9.58,2022-08-17 13:24:35.593750
2746,5.76,2022-08-17 13:24:35.609375
2747,1.18,2022-08-17 13:24:35.625000
2748,-4.17,2022-08-17 13:24:35.640625
2749,-10.02,2022-08-17 13:24:35.656250
2750,-16.0,2022-08-17 13:24:35.671875
2751,-21.57,2022-08-17 13:24:35.687500
2752,-26.44,2022-08-17 13:24:35.703125
2753,-30.45,2022-08-17 13:24:35.718750
2754,-33.7,2022-08-17 13:24:35.734375
2755,-36.3,2022-08-17 13:24:35.750000
2756,-38.53,2022-08-17 13:24:35.765625
2757,-40.72,2022-08-17 13:24:35.781250
2758,-43.21,2022-08-17 13:24:35.796875
2759,-46.51,2022-08-17 13:24:35.812500
2760,-50.87,2022-08-17 13:24:35.828125
2761,-56.34,2022-08-17 13:24:35.843750
2762,-62.33,2022-08-17 13:24:35.859375
2763,-67.64,2022-08-17 13:24:35.875000
2764,-70.61,2022-08-17 13:24:35.890625
2765,-69.72,2022-08-17 13:24:35.906250
2766,-64.16,2022-08-17 13:24:35.921875
2767,-54.07,2022-08-17 13:24:35.937500
2768,-40.73,2022-08-17 13:24:35.953125
2769,-25.87,2022-08-17 13:24:35.968750
2770,-11.25,2022-08-17 13:24:35.984375
2771,1.93,2022-08-17 13:24:36.000000
2772,13.26,2022-08-17 13:24:36.015625
2773,22.82,2022-08-17 13:24:36.031250
2774,30.77,2022-08-17 13:24:36.046875
2775,37.21,2022-08-17 13:24:36.062500
2776,42.02,2022-08-17 13:24:36.078125
2777,44.93,2022-08-17 13:24:36.093750
2778,45.96,2022-08-17 13:24:36.109375
2779,45.31,2022-08-17 13:24:36.125000
2780,43.43,2022-08-17 13:24:36.140625
2781,40.91,2022-08-17 13:24:36.156250
2782,38.18,2022-08-17 13:24:36.171875
2783,35.43,2022-08-17 13:24:36.187500
2784,32.68,2022-08-17 13:24:36.203125
2785,29.9,2022-08-17 13:24:36.218750
2786,26.99,2022-08-17 13:24:36.234375
2787,24.0,2022-08-17 13:24:36.250000
2788,21.04,2022-08-17 13:24:36.265625
2789,18.19,2022-08-17 13:24:36.281250
2790,15.51,2022-08-17 13:24:36.296875
2791,12.97,2022-08-17 13:24:36.312500
2792,10.43,2022-08-17 13:24:36.328125
2793,7.74,2022-08-17 13:24:36.343750
2794,4.75,2022-08-17 13:24:36.359375
2795,1.34,2022-08-17 13:24:36.375000
2796,-2.48,2022-08-17 13:24:36.390625
2797,-6.62,2022-08-17 13:24:36.406250
2798,-10.99,2022-08-17 13:24:36.421875
2799,-15.41,2022-08-17 13:24:36.437500
2800,-19.74,2022-08-17 13:24:36.453125
2801,-23.84,2022-08-17 13:24:36.468750
2802,-27.62,2022-08-17 13:24:36.484375
2803,-31.12,2022-08-17 13:24:36.500000
2804,-34.51,2022-08-17 13:24:36.515625
2805,-37.97,2022-08-17 13:24:36.531250
2806,-41.76,2022-08-17 13:24:36.546875
2807,-46.1,2022-08-17 13:24:36.562500
2808,-51.16,2022-08-17 13:24:36.578125
2809,-56.89,2022-08-17 13:24:36.593750
2810,-62.89,2022-08-17 13:24:36.609375
2811,-68.29,2022-08-17 13:24:36.625000
2812,-71.87,2022-08-17 13:24:36.640625
2813,-72.34,2022-08-17 13:24:36.656250
2814,-68.65,2022-08-17 13:24:36.671875
2815,-60.44,2022-08-17 13:24:36.687500
2816,-48.22,2022-08-17 13:24:36.703125
2817,-33.21,2022-08-17 13:24:36.718750
2818,-16.94,2022-08-17 13:24:36.734375
2819,-0.93,2022-08-17 13:24:36.750000
2820,13.78,2022-08-17 13:24:36.765625
2821,26.62,2022-08-17 13:24:36.781250
2822,37.32,2022-08-17 13:24:36.796875
2823,45.76,2022-08-17 13:24:36.812500
2824,51.87,2022-08-17 13:24:36.828125
2825,55.53,2022-08-17 13:24:36.843750
2826,56.72,2022-08-17 13:24:36.859375
2827,55.64,2022-08-17 13:24:36.875000
2828,52.64,2022-08-17 13:24:36.890625
2829,48.38,2022-08-17 13:24:36.906250
2830,43.54,2022-08-17 13:24:36.921875
2831,38.8,2022-08-17 13:24:36.937500
2832,34.58,2022-08-17 13:24:36.953125
2833,31.11,2022-08-17 13:24:36.968750
2834,28.27,2022-08-17 13:24:36.984375
2835,25.88,2022-08-17 13:24:37.000000
2836,23.65,2022-08-17 13:24:37.015625
2837,21.37,2022-08-17 13:24:37.031250
2838,19.06,2022-08-17 13:24:37.046875
2839,16.83,2022-08-17 13:24:37.062500
2840,14.78,2022-08-17 13:24:37.078125
2841,12.88,2022-08-17 13:24:37.093750
2842,10.93,2022-08-17 13:24:37.109375
2843,8.57,2022-08-17 13:24:37.125000
2844,5.51,2022-08-17 13:24:37.140625
2845,1.66,2022-08-17 13:24:37.156250
2846,-2.85,2022-08-17 13:24:37.171875
2847,-7.59,2022-08-17 13:24:37.187500
2848,-12.1,2022-08-17 13:24:37.203125
2849,-16.22,2022-08-17 13:24:37.218750
2850,-19.96,2022-08-17 13:24:37.234375
2851,-23.57,2022-08-17 13:24:37.250000
2852,-27.35,2022-08-17 13:24:37.265625
2853,-31.46,2022-08-17 13:24:37.281250
2854,-35.91,2022-08-17 13:24:37.296875
2855,-40.77,2022-08-17 13:24:37.312500
2856,-46.02,2022-08-17 13:24:37.328125
2857,-51.64,2022-08-17 13:24:37.343750
2858,-57.45,2022-08-17 13:24:37.359375
2859,-62.79,2022-08-17 13:24:37.375000
2860,-66.61,2022-08-17 13:24:37.390625
2861,-67.65,2022-08-17 13:24:37.406250
2862,-64.77,2022-08-17 13:24:37.421875
2863,-57.43,2022-08-17 13:24:37.437500
2864,-46.05,2022-08-17 13:24:37.453125
2865,-31.8,2022-08-17 13:24:37.468750
2866,-16.26,2022-08-17 13:24:37.484375
2867,-0.96,2022-08-17 13:24:37.500000
2868,13.02,2022-08-17 13:24:37.515625
2869,25.13,2022-08-17 13:24:37.531250
2870,35.16,2022-08-17 13:24:37.546875
2871,43.04,2022-08-17 13:24:37.562500
2872,48.77,2022-08-17 13:24:37.578125
2873,52.07,2022-08-17 13:24:37.593750
2874,52.78,2022-08-17 13:24:37.609375
2875,50.99,2022-08-17 13:24:37.625000
2876,47.17,2022-08-17 13:24:37.640625
2877,42.2,2022-08-17 13:24:37.656250
2878,37.16,2022-08-17 13:24:37.671875
2879,32.93,2022-08-17 13:24:37.687500
2880,29.87,2022-08-17 13:24:37.703125
2881,27.84,2022-08-17 13:24:37.718750
2882,26.23,2022-08-17 13:24:37.734375
2883,24.49,2022-08-17 13:24:37.750000
2884,22.41,2022-08-17 13:24:37.765625
2885,20.17,2022-08-17 13:24:37.781250
2886,18.28,2022-08-17 13:24:37.796875
2887,16.95,2022-08-17 13:24:37.812500
2888,16.12,2022-08-17 13:24:37.828125
2889,15.22,2022-08-17 13:24:37.843750
2890,13.64,2022-08-17 13:24:37.859375
2891,10.96,2022-08-17 13:24:37.875000
2892,7.18,2022-08-17 13:24:37.890625
2893,2.66,2022-08-17 13:24:37.906250
2894,-2.21,2022-08-17 13:24:37.921875
2895,-7.06,2022-08-17 13:24:37.937500
2896,-11.91,2022-08-17 13:24:37.953125
2897,-16.8,2022-08-17 13:24:37.968750
2898,-21.87,2022-08-17 13:24:37.984375
2899,-27.0,2022-08-17 13:24:38.000000
2900,-31.99,2022-08-17 13:24:38.015625
2901,-36.53,2022-08-17 13:24:38.031250
2902,-40.49,2022-08-17 13:24:38.046875
2903,-43.99,2022-08-17 13:24:38.062500
2904,-47.31,2022-08-17 13:24:38.078125
2905,-50.85,2022-08-17 13:24:38.093750
2906,-54.71,2022-08-17 13:24:38.109375
2907,-58.58,2022-08-17 13:24:38.125000
2908,-61.59,2022-08-17 13:24:38.140625
2909,-62.68,2022-08-17 13:24:38.156250
2910,-60.72,2022-08-17 13:24:38.171875
2911,-55.08,2022-08-17 13:24:38.187500
2912,-45.79,2022-08-17 13:24:38.203125
2913,-33.57,2022-08-17 13:24:38.218750
2914,-19.7,2022-08-17 13:24:38.234375
2915,-5.46,2022-08-17 13:24:38.250000
2916,8.03,2022-08-17 13:24:38.265625
2917,19.98,2022-08-17 13:24:38.281250
2918,29.87,2022-08-17 13:24:38.296875
2919,37.42,2022-08-17 13:24:38.312500
2920,42.49,2022-08-17 13:24:38.328125
2921,45.08,2022-08-17 13:24:38.343750
2922,45.36,2022-08-17 13:24:38.359375
2923,43.66,2022-08-17 13:24:38.375000
2924,40.5,2022-08-17 13:24:38.390625
2925,36.46,2022-08-17 13:24:38.406250
2926,32.14,2022-08-17 13:24:38.421875
2927,28.11,2022-08-17 13:24:38.437500
2928,24.75,2022-08-17 13:24:38.453125
2929,22.3,2022-08-17 13:24:38.468750
2930,20.71,2022-08-17 13:24:38.484375
2931,19.76,2022-08-17 13:24:38.500000
2932,19.06,2022-08-17 13:24:38.515625
2933,18.34,2022-08-17 13:24:38.531250
2934,17.41,2022-08-17 13:24:38.546875
2935,16.32,2022-08-17 13:24:38.562500
2936,15.19,2022-08-17 13:24:38.578125
2937,14.03,2022-08-17 13:24:38.593750
2938,12.69,2022-08-17 13:24:38.609375
2939,10.95,2022-08-17 13:24:38.625000
2940,8.58,2022-08-17 13:24:38.640625
2941,5.44,2022-08-17 13:24:38.656250
2942,1.68,2022-08-17 13:24:38.671875
2943,-2.44,2022-08-17 13:24:38.687500
2944,-6.56,2022-08-17 13:24:38.703125
2945,-10.32,2022-08-17 13:24:38.718750
2946,-13.62,2022-08-17 13:24:38.734375
2947,-16.52,2022-08-17 13:24:38.750000
2948,-19.17,2022-08-17 13:24:38.765625
2949,-21.81,2022-08-17 13:24:38.781250
2950,-24.74,2022-08-17 13:24:38.796875
2951,-28.24,2022-08-17 13:24:38.812500
2952,-32.52,2022-08-17 13:24:38.828125
2953,-37.47,2022-08-17 13:24:38.843750
2954,-42.52,2022-08-17 13:24:38.859375
2955,-46.69,2022-08-17 13:24:38.875000
2956,-48.77,2022-08-17 13:24:38.890625
2957,-47.65,2022-08-17 13:24:38.906250
2958,-42.6,2022-08-17 13:24:38.921875
2959,-33.73,2022-08-17 13:24:38.937500
2960,-21.73,2022-08-17 13:24:38.953125
2961,-7.85,2022-08-17 13:24:38.968750
2962,6.59,2022-08-17 13:24:38.984375
2963,20.43,2022-08-17 13:24:39.000000
2964,32.8,2022-08-17 13:24:39.015625
2965,43.08,2022-08-17 13:24:39.031250
2966,50.84,2022-08-17 13:24:39.046875
2967,55.83,2022-08-17 13:24:39.062500
2968,57.93,2022-08-17 13:24:39.078125
2969,57.35,2022-08-17 13:24:39.093750
2970,54.48,2022-08-17 13:24:39.109375
2971,50.04,2022-08-17 13:24:39.125000
2972,44.85,2022-08-17 13:24:39.140625
2973,39.6,2022-08-17 13:24:39.156250
2974,34.78,2022-08-17 13:24:39.171875
2975,30.53,2022-08-17 13:24:39.187500
2976,26.85,2022-08-17 13:24:39.203125
2977,23.62,2022-08-17 13:24:39.218750
2978,20.77,2022-08-17 13:24:39.234375
2979,18.3,2022-08-17 13:24:39.250000
2980,16.14,2022-08-17 13:24:39.265625
2981,14.33,2022-08-17 13:24:39.281250
2982,12.79,2022-08-17 13:24:39.296875
2983,11.4,2022-08-17 13:24:39.312500
2984,9.93,2022-08-17 13:24:39.328125
2985,8.16,2022-08-17 13:24:39.343750
2986,5.86,2022-08-17 13:24:39.359375
2987,2.88,2022-08-17 13:24:39.375000
2988,-0.84,2022-08-17 13:24:39.390625
2989,-5.24,2022-08-17 13:24:39.406250
2990,-10.06,2022-08-17 13:24:39.421875
2991,-14.97,2022-08-17 13:24:39.437500
2992,-19.69,2022-08-17 13:24:39.453125
2993,-24.09,2022-08-17 13:24:39.468750
2994,-28.2,2022-08-17 13:24:39.484375
2995,-32.21,2022-08-17 13:24:39.500000
2996,-36.36,2022-08-17 13:24:39.515625
2997,-40.88,2022-08-17 13:24:39.531250
2998,-45.94,2022-08-17 13:24:39.546875
2999,-51.41,2022-08-17 13:24:39.562500
3000,-56.82,2022-08-17 13:24:39.578125
3001,-61.25,2022-08-17 13:24:39.593750
3002,-63.58,2022-08-17 13:24:39.609375
3003,-62.72,2022-08-17 13:24:39.625000
3004,-57.98,2022-08-17 13:24:39.640625
3005,-49.29,2022-08-17 13:24:39.656250
3006,-37.26,2022-08-17 13:24:39.671875
3007,-23.04,2022-08-17 13:24:39.687500
3008,-8.02,2022-08-17 13:24:39.703125
3009,6.61,2022-08-17 13:24:39.718750
3010,19.96,2022-08-17 13:24:39.734375
3011,31.46,2022-08-17 13:24:39.750000
3012,40.81,2022-08-17 13:24:39.765625
3013,47.83,2022-08-17 13:24:39.781250
3014,52.47,2022-08-17 13:24:39.796875
3015,54.77,2022-08-17 13:24:39.812500
3016,54.92,2022-08-17 13:24:39.828125
3017,53.26,2022-08-17 13:24:39.843750
3018,50.31,2022-08-17 13:24:39.859375
3019,46.65,2022-08-17 13:24:39.875000
3020,42.86,2022-08-17 13:24:39.890625
3021,39.36,2022-08-17 13:24:39.906250
3022,36.3,2022-08-17 13:24:39.921875
3023,33.63,2022-08-17 13:24:39.937500
3024,31.15,2022-08-17 13:24:39.953125
3025,28.63,2022-08-17 13:24:39.968750
3026,26.01,2022-08-17 13:24:39.984375
3027,23.32,2022-08-17 13:24:40.000000
3028,20.64,2022-08-17 13:24:40.015625
3029,18.04,2022-08-17 13:24:40.031250
3030,15.53,2022-08-17 13:24:40.046875
3031,12.97,2022-08-17 13:24:40.062500
3032,10.16,2022-08-17 13:24:40.078125
3033,6.93,2022-08-17 13:24:40.093750
3034,3.13,2022-08-17 13:24:40.109375
3035,-1.21,2022-08-17 13:24:40.125000
3036,-6.04,2022-08-17 13:24:40.140625
3037,-11.25,2022-08-17 13:24:40.156250
3038,-16.77,2022-08-17 13:24:40.171875
3039,-22.43,2022-08-17 13:24:40.187500
3040,-28.14,2022-08-17 13:24:40.203125
3041,-33.79,2022-08-17 13:24:40.218750
3042,-39.23,2022-08-17 13:24:40.234375
3043,-44.45,2022-08-17 13:24:40.250000
3044,-49.49,2022-08-17 13:24:40.265625
3045,-54.56,2022-08-17 13:24:40.281250
3046,-59.84,2022-08-17 13:24:40.296875
3047,-65.4,2022-08-17 13:24:40.312500
3048,-70.83,2022-08-17 13:24:40.328125
3049,-75.27,2022-08-17 13:24:40.343750
3050,-77.55,2022-08-17 13:24:40.359375
3051,-76.45,2022-08-17 13:24:40.375000
3052,-71.16,2022-08-17 13:24:40.390625
3053,-61.47,2022-08-17 13:24:40.406250
3054,-48.02,2022-08-17 13:24:40.421875
3055,-31.98,2022-08-17 13:24:40.437500
3056,-14.85,2022-08-17 13:24:40.453125
3057,2.0,2022-08-17 13:24:40.468750
3058,17.6,2022-08-17 13:24:40.484375
3059,31.28,2022-08-17 13:24:40.500000
3060,42.71,2022-08-17 13:24:40.515625
3061,51.64,2022-08-17 13:24:40.531250
3062,57.98,2022-08-17 13:24:40.546875
3063,61.75,2022-08-17 13:24:40.562500
3064,63.17,2022-08-17 13:24:40.578125
3065,62.63,2022-08-17 13:24:40.593750
3066,60.58,2022-08-17 13:24:40.609375
3067,57.59,2022-08-17 13:24:40.625000
3068,54.1,2022-08-17 13:24:40.640625
3069,50.41,2022-08-17 13:24:40.656250
3070,46.75,2022-08-17 13:24:40.671875
3071,43.23,2022-08-17 13:24:40.687500
3072,39.94,2022-08-17 13:24:40.703125
3073,36.99,2022-08-17 13:24:40.718750
3074,34.39,2022-08-17 13:24:40.734375
3075,32.02,2022-08-17 13:24:40.750000
3076,29.8,2022-08-17 13:24:40.765625
3077,27.58,2022-08-17 13:24:40.781250
3078,25.34,2022-08-17 13:24:40.796875
3079,23.11,2022-08-17 13:24:40.812500
3080,20.85,2022-08-17 13:24:40.828125
3081,18.51,2022-08-17 13:24:40.843750
3082,15.92,2022-08-17 13:24:40.859375
3083,12.85,2022-08-17 13:24:40.875000
3084,9.02,2022-08-17 13:24:40.890625
3085,4.41,2022-08-17 13:24:40.906250
3086,-0.87,2022-08-17 13:24:40.921875
3087,-6.54,2022-08-17 13:24:40.937500
3088,-12.29,2022-08-17 13:24:40.953125
3089,-18.07,2022-08-17 13:24:40.968750
3090,-23.84,2022-08-17 13:24:40.984375
3091,-29.76,2022-08-17 13:24:41.000000
3092,-35.83,2022-08-17 13:24:41.015625
3093,-41.99,2022-08-17 13:24:41.031250
3094,-48.0,2022-08-17 13:24:41.046875
3095,-53.72,2022-08-17 13:24:41.062500
3096,-59.07,2022-08-17 13:24:41.078125
3097,-64.12,2022-08-17 13:24:41.093750
3098,-68.94,2022-08-17 13:24:41.109375
3099,-73.18,2022-08-17 13:24:41.125000
3100,-76.08,2022-08-17 13:24:41.140625
3101,-76.34,2022-08-17 13:24:41.156250
3102,-72.74,2022-08-17 13:24:41.171875
3103,-64.49,2022-08-17 13:24:41.187500
3104,-51.86,2022-08-17 13:24:41.203125
3105,-36.02,2022-08-17 13:24:41.218750
3106,-18.73,2022-08-17 13:24:41.234375
3107,-1.76,2022-08-17 13:24:41.250000
3108,13.66,2022-08-17 13:24:41.265625
3109,26.96,2022-08-17 13:24:41.281250
3110,38.13,2022-08-17 13:24:41.296875
3111,47.32,2022-08-17 13:24:41.312500
3112,54.51,2022-08-17 13:24:41.328125
3113,59.44,2022-08-17 13:24:41.343750
3114,61.94,2022-08-17 13:24:41.359375
3115,62.14,2022-08-17 13:24:41.375000
3116,60.55,2022-08-17 13:24:41.390625
3117,57.94,2022-08-17 13:24:41.406250
3118,54.95,2022-08-17 13:24:41.421875
3119,51.86,2022-08-17 13:24:41.437500
3120,48.65,2022-08-17 13:24:41.453125
3121,45.12,2022-08-17 13:24:41.468750
3122,41.24,2022-08-17 13:24:41.484375
3123,37.34,2022-08-17 13:24:41.500000
3124,33.99,2022-08-17 13:24:41.515625
3125,31.72,2022-08-17 13:24:41.531250
3126,30.67,2022-08-17 13:24:41.546875
3127,30.41,2022-08-17 13:24:41.562500
3128,30.13,2022-08-17 13:24:41.578125
3129,29.06,2022-08-17 13:24:41.593750
3130,26.73,2022-08-17 13:24:41.609375
3131,23.3,2022-08-17 13:24:41.625000
3132,19.27,2022-08-17 13:24:41.640625
3133,15.19,2022-08-17 13:24:41.656250
3134,11.34,2022-08-17 13:24:41.671875
3135,7.66,2022-08-17 13:24:41.687500
3136,3.86,2022-08-17 13:24:41.703125
3137,-0.36,2022-08-17 13:24:41.718750
3138,-5.07,2022-08-17 13:24:41.734375
3139,-10.18,2022-08-17 13:24:41.750000
3140,-15.46,2022-08-17 13:24:41.765625
3141,-20.7,2022-08-17 13:24:41.781250
3142,-25.79,2022-08-17 13:24:41.796875
3143,-30.69,2022-08-17 13:24:41.812500
3144,-35.28,2022-08-17 13:24:41.828125
3145,-39.48,2022-08-17 13:24:41.843750
3146,-43.27,2022-08-17 13:24:41.859375
3147,-46.77,2022-08-17 13:24:41.875000
3148,-50.38,2022-08-17 13:24:41.890625
3149,-54.48,2022-08-17 13:24:41.906250
3150,-59.28,2022-08-17 13:24:41.921875
3151,-64.46,2022-08-17 13:24:41.937500
3152,-69.16,2022-08-17 13:24:41.953125
3153,-71.99,2022-08-17 13:24:41.968750
3154,-71.59,2022-08-17 13:24:41.984375
3155,-67.04,2022-08-17 13:24:42.000000
3156,-58.21,2022-08-17 13:24:42.015625
3157,-45.87,2022-08-17 13:24:42.031250
3158,-31.32,2022-08-17 13:24:42.046875
3159,-15.99,2022-08-17 13:24:42.062500
3160,-1.09,2022-08-17 13:24:42.078125
3161,12.57,2022-08-17 13:24:42.093750
3162,24.6,2022-08-17 13:24:42.109375
