,BVP,time
0,172.89,2022-10-28 11:11:42.875000
1,161.19,2022-10-28 11:11:42.890625
2,142.43,2022-10-28 11:11:42.906250
3,119.91,2022-10-28 11:11:42.921875
4,96.76,2022-10-28 11:11:42.937500
5,75.49,2022-10-28 11:11:42.953125
6,57.77,2022-10-28 11:11:42.968750
7,44.39,2022-10-28 11:11:42.984375
8,35.19,2022-10-28 11:11:43.000000
9,29.07,2022-10-28 11:11:43.015625
10,24.19,2022-10-28 11:11:43.031250
11,18.45,2022-10-28 11:11:43.046875
12,10.13,2022-10-28 11:11:43.062500
13,-1.63,2022-10-28 11:11:43.078125
14,-16.7,2022-10-28 11:11:43.093750
15,-34.12,2022-10-28 11:11:43.109375
16,-52.42,2022-10-28 11:11:43.125000
17,-69.78,2022-10-28 11:11:43.140625
18,-84.22,2022-10-28 11:11:43.156250
19,-93.85,2022-10-28 11:11:43.171875
20,-97.37,2022-10-28 11:11:43.187500
21,-94.7,2022-10-28 11:11:43.203125
22,-87.27,2022-10-28 11:11:43.218750
23,-77.77,2022-10-28 11:11:43.234375
24,-69.05,2022-10-28 11:11:43.250000
25,-63.03,2022-10-28 11:11:43.265625
26,-59.87,2022-10-28 11:11:43.281250
27,-58.21,2022-10-28 11:11:43.296875
28,-56.22,2022-10-28 11:11:43.312500
29,-52.84,2022-10-28 11:11:43.328125
30,-48.43,2022-10-28 11:11:43.343750
31,-44.4,2022-10-28 11:11:43.359375
32,-42.21,2022-10-28 11:11:43.375000
33,-42.34,2022-10-28 11:11:43.390625
34,-43.9,2022-10-28 11:11:43.406250
35,-45.12,2022-10-28 11:11:43.421875
36,-44.4,2022-10-28 11:11:43.437500
37,-41.07,2022-10-28 11:11:43.453125
38,-35.71,2022-10-28 11:11:43.468750
39,-29.79,2022-10-28 11:11:43.484375
40,-25.0,2022-10-28 11:11:43.500000
41,-22.79,2022-10-28 11:11:43.515625
42,-23.99,2022-10-28 11:11:43.531250
43,-28.82,2022-10-28 11:11:43.546875
44,-36.95,2022-10-28 11:11:43.562500
45,-47.67,2022-10-28 11:11:43.578125
46,-60.12,2022-10-28 11:11:43.593750
47,-73.32,2022-10-28 11:11:43.609375
48,-86.28,2022-10-28 11:11:43.625000
49,-97.94,2022-10-28 11:11:43.640625
50,-107.23,2022-10-28 11:11:43.656250
51,-113.28,2022-10-28 11:11:43.671875
52,-115.76,2022-10-28 11:11:43.687500
53,-115.24,2022-10-28 11:11:43.703125
54,-113.14,2022-10-28 11:11:43.718750
55,-111.27,2022-10-28 11:11:43.734375
56,-111.06,2022-10-28 11:11:43.750000
57,-112.98,2022-10-28 11:11:43.765625
58,-116.35,2022-10-28 11:11:43.781250
59,-119.72,2022-10-28 11:11:43.796875
60,-121.45,2022-10-28 11:11:43.812500
61,-120.14,2022-10-28 11:11:43.828125
62,-114.68,2022-10-28 11:11:43.843750
63,-104.24,2022-10-28 11:11:43.859375
64,-88.19,2022-10-28 11:11:43.875000
65,-66.46,2022-10-28 11:11:43.890625
66,-39.88,2022-10-28 11:11:43.906250
67,-10.09,2022-10-28 11:11:43.921875
68,20.83,2022-10-28 11:11:43.937500
69,51.25,2022-10-28 11:11:43.953125
70,80.34,2022-10-28 11:11:43.968750
71,108.0,2022-10-28 11:11:43.984375
72,134.46,2022-10-28 11:11:44.000000
73,159.78,2022-10-28 11:11:44.015625
74,184.06,2022-10-28 11:11:44.031250
75,207.92,2022-10-28 11:11:44.046875
76,232.54,2022-10-28 11:11:44.062500
77,258.9,2022-10-28 11:11:44.078125
78,286.55,2022-10-28 11:11:44.093750
79,312.74,2022-10-28 11:11:44.109375
80,332.95,2022-10-28 11:11:44.125000
81,342.64,2022-10-28 11:11:44.140625
82,339.5,2022-10-28 11:11:44.156250
83,324.7,2022-10-28 11:11:44.171875
84,302.42,2022-10-28 11:11:44.187500
85,277.84,2022-10-28 11:11:44.203125
86,254.88,2022-10-28 11:11:44.218750
87,235.08,2022-10-28 11:11:44.234375
88,217.81,2022-10-28 11:11:44.250000
89,201.7,2022-10-28 11:11:44.265625
90,185.78,2022-10-28 11:11:44.281250
91,169.91,2022-10-28 11:11:44.296875
92,154.37,2022-10-28 11:11:44.312500
93,139.23,2022-10-28 11:11:44.328125
94,124.14,2022-10-28 11:11:44.343750
95,108.68,2022-10-28 11:11:44.359375
96,92.87,2022-10-28 11:11:44.375000
97,77.27,2022-10-28 11:11:44.390625
98,62.67,2022-10-28 11:11:44.406250
99,49.68,2022-10-28 11:11:44.421875
100,38.44,2022-10-28 11:11:44.437500
101,28.63,2022-10-28 11:11:44.453125
102,19.75,2022-10-28 11:11:44.468750
103,11.33,2022-10-28 11:11:44.484375
104,3.14,2022-10-28 11:11:44.500000
105,-4.86,2022-10-28 11:11:44.515625
106,-12.47,2022-10-28 11:11:44.531250
107,-19.29,2022-10-28 11:11:44.546875
108,-24.75,2022-10-28 11:11:44.562500
109,-28.48,2022-10-28 11:11:44.578125
110,-30.58,2022-10-28 11:11:44.593750
111,-32.02,2022-10-28 11:11:44.609375
112,-34.63,2022-10-28 11:11:44.625000
113,-40.54,2022-10-28 11:11:44.640625
114,-51.53,2022-10-28 11:11:44.656250
115,-68.2,2022-10-28 11:11:44.671875
116,-89.78,2022-10-28 11:11:44.687500
117,-114.15,2022-10-28 11:11:44.703125
118,-138.81,2022-10-28 11:11:44.718750
119,-161.68,2022-10-28 11:11:44.734375
120,-181.61,2022-10-28 11:11:44.750000
121,-198.23,2022-10-28 11:11:44.765625
122,-211.49,2022-10-28 11:11:44.781250
123,-221.39,2022-10-28 11:11:44.796875
124,-227.82,2022-10-28 11:11:44.812500
125,-230.7,2022-10-28 11:11:44.828125
126,-229.98,2022-10-28 11:11:44.843750
127,-225.9,2022-10-28 11:11:44.859375
128,-218.85,2022-10-28 11:11:44.875000
129,-209.28,2022-10-28 11:11:44.890625
130,-197.42,2022-10-28 11:11:44.906250
131,-183.11,2022-10-28 11:11:44.921875
132,-166.54,2022-10-28 11:11:44.937500
133,-148.42,2022-10-28 11:11:44.953125
134,-130.24,2022-10-28 11:11:44.968750
135,-113.44,2022-10-28 11:11:44.984375
136,-99.28,2022-10-28 11:11:45.000000
137,-88.49,2022-10-28 11:11:45.015625
138,-81.33,2022-10-28 11:11:45.031250
139,-77.58,2022-10-28 11:11:45.046875
140,-76.26,2022-10-28 11:11:45.062500
141,-76.7,2022-10-28 11:11:45.078125
142,-78.65,2022-10-28 11:11:45.093750
143,-82.2,2022-10-28 11:11:45.109375
144,-86.38,2022-10-28 11:11:45.125000
145,-89.86,2022-10-28 11:11:45.140625
146,-91.61,2022-10-28 11:11:45.156250
147,-91.36,2022-10-28 11:11:45.171875
148,-89.65,2022-10-28 11:11:45.187500
149,-86.23,2022-10-28 11:11:45.203125
150,-81.6,2022-10-28 11:11:45.218750
151,-76.83,2022-10-28 11:11:45.234375
152,-73.42,2022-10-28 11:11:45.250000
153,-70.62,2022-10-28 11:11:45.265625
154,-66.69,2022-10-28 11:11:45.281250
155,-59.68,2022-10-28 11:11:45.296875
156,-47.86,2022-10-28 11:11:45.312500
157,-29.79,2022-10-28 11:11:45.328125
158,-2.69,2022-10-28 11:11:45.343750
159,33.94,2022-10-28 11:11:45.359375
160,77.64,2022-10-28 11:11:45.375000
161,123.1,2022-10-28 11:11:45.390625
162,167.14,2022-10-28 11:11:45.406250
163,207.87,2022-10-28 11:11:45.421875
164,244.4,2022-10-28 11:11:45.437500
165,276.45,2022-10-28 11:11:45.453125
166,304.05,2022-10-28 11:11:45.468750
167,329.42,2022-10-28 11:11:45.484375
168,352.35,2022-10-28 11:11:45.500000
169,369.71,2022-10-28 11:11:45.515625
170,376.08,2022-10-28 11:11:45.531250
171,370.36,2022-10-28 11:11:45.546875
172,354.1,2022-10-28 11:11:45.562500
173,329.97,2022-10-28 11:11:45.578125
174,300.4,2022-10-28 11:11:45.593750
175,251.35,2022-10-28 11:11:45.609375
176,181.07,2022-10-28 11:11:45.625000
177,100.26,2022-10-28 11:11:45.640625
178,32.43,2022-10-28 11:11:45.656250
179,-21.64,2022-10-28 11:11:45.671875
180,-64.85,2022-10-28 11:11:45.687500
181,-99.11,2022-10-28 11:11:45.703125
182,-123.87,2022-10-28 11:11:45.718750
183,-139.13,2022-10-28 11:11:45.734375
184,-145.88,2022-10-28 11:11:45.750000
185,-143.26,2022-10-28 11:11:45.765625
186,-132.05,2022-10-28 11:11:45.781250
187,-114.94,2022-10-28 11:11:45.796875
188,-96.56,2022-10-28 11:11:45.812500
189,-78.17,2022-10-28 11:11:45.828125
190,-59.96,2022-10-28 11:11:45.843750
191,-42.46,2022-10-28 11:11:45.859375
192,-26.82,2022-10-28 11:11:45.875000
193,-14.2,2022-10-28 11:11:45.890625
194,-3.31,2022-10-28 11:11:45.906250
195,6.5,2022-10-28 11:11:45.921875
196,14.71,2022-10-28 11:11:45.937500
197,19.35,2022-10-28 11:11:45.953125
198,21.0,2022-10-28 11:11:45.968750
199,20.96,2022-10-28 11:11:45.984375
200,20.12,2022-10-28 11:11:46.000000
201,18.5,2022-10-28 11:11:46.015625
202,15.68,2022-10-28 11:11:46.031250
203,12.46,2022-10-28 11:11:46.046875
204,9.23,2022-10-28 11:11:46.062500
205,5.87,2022-10-28 11:11:46.078125
206,1.56,2022-10-28 11:11:46.093750
207,-2.79,2022-10-28 11:11:46.109375
208,-5.91,2022-10-28 11:11:46.125000
209,-7.03,2022-10-28 11:11:46.140625
210,-6.08,2022-10-28 11:11:46.156250
211,-3.32,2022-10-28 11:11:46.171875
212,1.53,2022-10-28 11:11:46.187500
213,8.54,2022-10-28 11:11:46.203125
214,17.29,2022-10-28 11:11:46.218750
215,26.71,2022-10-28 11:11:46.234375
216,36.1,2022-10-28 11:11:46.250000
217,44.58,2022-10-28 11:11:46.265625
218,50.89,2022-10-28 11:11:46.281250
219,53.59,2022-10-28 11:11:46.296875
220,51.36,2022-10-28 11:11:46.312500
221,43.58,2022-10-28 11:11:46.328125
222,30.16,2022-10-28 11:11:46.343750
223,11.53,2022-10-28 11:11:46.359375
224,-11.38,2022-10-28 11:11:46.375000
225,-36.84,2022-10-28 11:11:46.390625
226,-62.95,2022-10-28 11:11:46.406250
227,-88.18,2022-10-28 11:11:46.421875
228,-111.85,2022-10-28 11:11:46.437500
229,-134.08,2022-10-28 11:11:46.453125
230,-155.62,2022-10-28 11:11:46.468750
231,-177.16,2022-10-28 11:11:46.484375
232,-198.85,2022-10-28 11:11:46.500000
233,-220.08,2022-10-28 11:11:46.515625
234,-239.61,2022-10-28 11:11:46.531250
235,-255.92,2022-10-28 11:11:46.546875
236,-267.51,2022-10-28 11:11:46.562500
237,-273.04,2022-10-28 11:11:46.578125
238,-271.45,2022-10-28 11:11:46.593750
239,-262.09,2022-10-28 11:11:46.609375
240,-245.13,2022-10-28 11:11:46.625000
241,-221.77,2022-10-28 11:11:46.640625
242,-194.26,2022-10-28 11:11:46.656250
243,-165.3,2022-10-28 11:11:46.671875
244,-137.24,2022-10-28 11:11:46.687500
245,-111.44,2022-10-28 11:11:46.703125
246,-88.22,2022-10-28 11:11:46.718750
247,-67.25,2022-10-28 11:11:46.734375
248,-48.24,2022-10-28 11:11:46.750000
249,-31.35,2022-10-28 11:11:46.765625
250,-17.13,2022-10-28 11:11:46.781250
251,-6.01,2022-10-28 11:11:46.796875
252,2.11,2022-10-28 11:11:46.812500
253,8.03,2022-10-28 11:11:46.828125
254,12.97,2022-10-28 11:11:46.843750
255,18.09,2022-10-28 11:11:46.859375
256,24.15,2022-10-28 11:11:46.875000
257,31.28,2022-10-28 11:11:46.890625
258,39.28,2022-10-28 11:11:46.906250
259,47.77,2022-10-28 11:11:46.921875
260,56.49,2022-10-28 11:11:46.937500
261,65.39,2022-10-28 11:11:46.953125
262,74.54,2022-10-28 11:11:46.968750
263,83.93,2022-10-28 11:11:46.984375
264,93.3,2022-10-28 11:11:47.000000
265,102.11,2022-10-28 11:11:47.015625
266,109.56,2022-10-28 11:11:47.031250
267,114.89,2022-10-28 11:11:47.046875
268,117.56,2022-10-28 11:11:47.062500
269,117.49,2022-10-28 11:11:47.078125
270,115.02,2022-10-28 11:11:47.093750
271,110.69,2022-10-28 11:11:47.109375
272,105.05,2022-10-28 11:11:47.125000
273,98.46,2022-10-28 11:11:47.140625
274,91.03,2022-10-28 11:11:47.156250
275,82.78,2022-10-28 11:11:47.171875
276,73.82,2022-10-28 11:11:47.187500
277,64.51,2022-10-28 11:11:47.203125
278,55.51,2022-10-28 11:11:47.218750
279,47.63,2022-10-28 11:11:47.234375
280,41.4,2022-10-28 11:11:47.250000
281,36.92,2022-10-28 11:11:47.265625
282,33.68,2022-10-28 11:11:47.281250
283,30.79,2022-10-28 11:11:47.296875
284,27.4,2022-10-28 11:11:47.312500
285,23.11,2022-10-28 11:11:47.328125
286,18.09,2022-10-28 11:11:47.343750
287,12.94,2022-10-28 11:11:47.359375
288,8.29,2022-10-28 11:11:47.375000
289,4.39,2022-10-28 11:11:47.390625
290,0.96,2022-10-28 11:11:47.406250
291,-2.64,2022-10-28 11:11:47.421875
292,-7.07,2022-10-28 11:11:47.437500
293,-12.64,2022-10-28 11:11:47.453125
294,-19.16,2022-10-28 11:11:47.468750
295,-25.94,2022-10-28 11:11:47.484375
296,-32.0,2022-10-28 11:11:47.500000
297,-36.27,2022-10-28 11:11:47.515625
298,-37.81,2022-10-28 11:11:47.531250
299,-36.02,2022-10-28 11:11:47.546875
300,-30.81,2022-10-28 11:11:47.562500
301,-22.77,2022-10-28 11:11:47.578125
302,-13.1,2022-10-28 11:11:47.593750
303,-3.36,2022-10-28 11:11:47.609375
304,4.95,2022-10-28 11:11:47.625000
305,10.83,2022-10-28 11:11:47.640625
306,14.01,2022-10-28 11:11:47.656250
307,14.89,2022-10-28 11:11:47.671875
308,14.31,2022-10-28 11:11:47.687500
309,13.14,2022-10-28 11:11:47.703125
310,11.98,2022-10-28 11:11:47.718750
311,11.11,2022-10-28 11:11:47.734375
312,10.55,2022-10-28 11:11:47.750000
313,10.18,2022-10-28 11:11:47.765625
314,9.94,2022-10-28 11:11:47.781250
315,9.85,2022-10-28 11:11:47.796875
316,10.01,2022-10-28 11:11:47.812500
317,10.58,2022-10-28 11:11:47.828125
318,11.69,2022-10-28 11:11:47.843750
319,13.41,2022-10-28 11:11:47.859375
320,15.73,2022-10-28 11:11:47.875000
321,18.59,2022-10-28 11:11:47.890625
322,21.87,2022-10-28 11:11:47.906250
323,25.4,2022-10-28 11:11:47.921875
324,29.01,2022-10-28 11:11:47.937500
325,32.5,2022-10-28 11:11:47.953125
326,35.69,2022-10-28 11:11:47.968750
327,38.38,2022-10-28 11:11:47.984375
328,40.44,2022-10-28 11:11:48.000000
329,41.78,2022-10-28 11:11:48.015625
330,42.47,2022-10-28 11:11:48.031250
331,42.64,2022-10-28 11:11:48.046875
332,42.51,2022-10-28 11:11:48.062500
333,42.3,2022-10-28 11:11:48.078125
334,42.13,2022-10-28 11:11:48.093750
335,42.05,2022-10-28 11:11:48.109375
336,41.97,2022-10-28 11:11:48.125000
337,41.73,2022-10-28 11:11:48.140625
338,41.23,2022-10-28 11:11:48.156250
339,40.34,2022-10-28 11:11:48.171875
340,39.06,2022-10-28 11:11:48.187500
341,37.46,2022-10-28 11:11:48.203125
342,35.69,2022-10-28 11:11:48.218750
343,33.95,2022-10-28 11:11:48.234375
344,32.42,2022-10-28 11:11:48.250000
345,31.2,2022-10-28 11:11:48.265625
346,30.24,2022-10-28 11:11:48.281250
347,29.37,2022-10-28 11:11:48.296875
348,28.29,2022-10-28 11:11:48.312500
349,26.69,2022-10-28 11:11:48.328125
350,24.39,2022-10-28 11:11:48.343750
351,21.34,2022-10-28 11:11:48.359375
352,17.74,2022-10-28 11:11:48.375000
353,13.88,2022-10-28 11:11:48.390625
354,10.05,2022-10-28 11:11:48.406250
355,6.45,2022-10-28 11:11:48.421875
356,3.08,2022-10-28 11:11:48.437500
357,-0.2,2022-10-28 11:11:48.453125
358,-3.68,2022-10-28 11:11:48.468750
359,-7.68,2022-10-28 11:11:48.484375
360,-12.43,2022-10-28 11:11:48.500000
361,-18.04,2022-10-28 11:11:48.515625
362,-24.28,2022-10-28 11:11:48.531250
363,-30.62,2022-10-28 11:11:48.546875
364,-36.2,2022-10-28 11:11:48.562500
365,-40.07,2022-10-28 11:11:48.578125
366,-41.42,2022-10-28 11:11:48.593750
367,-39.83,2022-10-28 11:11:48.609375
368,-35.55,2022-10-28 11:11:48.625000
369,-29.32,2022-10-28 11:11:48.640625
370,-22.21,2022-10-28 11:11:48.656250
371,-15.26,2022-10-28 11:11:48.671875
372,-9.17,2022-10-28 11:11:48.687500
373,-4.22,2022-10-28 11:11:48.703125
374,-0.37,2022-10-28 11:11:48.718750
375,2.5,2022-10-28 11:11:48.734375
376,4.48,2022-10-28 11:11:48.750000
377,5.51,2022-10-28 11:11:48.765625
378,5.52,2022-10-28 11:11:48.781250
379,4.57,2022-10-28 11:11:48.796875
380,2.95,2022-10-28 11:11:48.812500
381,1.1,2022-10-28 11:11:48.828125
382,-0.48,2022-10-28 11:11:48.843750
383,-1.43,2022-10-28 11:11:48.859375
384,-1.62,2022-10-28 11:11:48.875000
385,-1.07,2022-10-28 11:11:48.890625
386,0.06,2022-10-28 11:11:48.906250
387,1.62,2022-10-28 11:11:48.921875
388,3.4,2022-10-28 11:11:48.937500
389,5.28,2022-10-28 11:11:48.953125
390,7.26,2022-10-28 11:11:48.968750
391,9.4,2022-10-28 11:11:48.984375
392,11.73,2022-10-28 11:11:49.000000
393,14.1,2022-10-28 11:11:49.015625
394,16.28,2022-10-28 11:11:49.031250
395,18.02,2022-10-28 11:11:49.046875
396,19.12,2022-10-28 11:11:49.062500
397,19.42,2022-10-28 11:11:49.078125
398,19.06,2022-10-28 11:11:49.093750
399,18.46,2022-10-28 11:11:49.109375
400,18.14,2022-10-28 11:11:49.125000
401,18.49,2022-10-28 11:11:49.140625
402,19.5,2022-10-28 11:11:49.156250
403,20.87,2022-10-28 11:11:49.171875
404,22.14,2022-10-28 11:11:49.187500
405,22.91,2022-10-28 11:11:49.203125
406,22.77,2022-10-28 11:11:49.218750
407,21.7,2022-10-28 11:11:49.234375
408,20.1,2022-10-28 11:11:49.250000
409,18.53,2022-10-28 11:11:49.265625
410,17.54,2022-10-28 11:11:49.281250
411,17.27,2022-10-28 11:11:49.296875
412,17.61,2022-10-28 11:11:49.312500
413,18.35,2022-10-28 11:11:49.328125
414,19.15,2022-10-28 11:11:49.343750
415,18.98,2022-10-28 11:11:49.359375
416,17.24,2022-10-28 11:11:49.375000
417,14.21,2022-10-28 11:11:49.390625
418,10.88,2022-10-28 11:11:49.406250
419,8.6,2022-10-28 11:11:49.421875
420,7.7,2022-10-28 11:11:49.437500
421,7.54,2022-10-28 11:11:49.453125
422,6.43,2022-10-28 11:11:49.468750
423,1.83,2022-10-28 11:11:49.484375
424,-10.04,2022-10-28 11:11:49.500000
425,-30.87,2022-10-28 11:11:49.515625
426,-58.98,2022-10-28 11:11:49.531250
427,-89.67,2022-10-28 11:11:49.546875
428,-116.64,2022-10-28 11:11:49.562500
429,-135.6,2022-10-28 11:11:49.578125
430,-144.45,2022-10-28 11:11:49.593750
431,-143.53,2022-10-28 11:11:49.609375
432,-135.49,2022-10-28 11:11:49.625000
433,-126.48,2022-10-28 11:11:49.640625
434,-121.83,2022-10-28 11:11:49.656250
435,-124.66,2022-10-28 11:11:49.671875
436,-135.97,2022-10-28 11:11:49.687500
437,-154.68,2022-10-28 11:11:49.703125
438,-180.11,2022-10-28 11:11:49.718750
439,-209.47,2022-10-28 11:11:49.734375
440,-237.48,2022-10-28 11:11:49.750000
441,-258.0,2022-10-28 11:11:49.765625
442,-268.69,2022-10-28 11:11:49.781250
443,-268.61,2022-10-28 11:11:49.796875
444,-258.04,2022-10-28 11:11:49.812500
445,-238.47,2022-10-28 11:11:49.828125
446,-211.59,2022-10-28 11:11:49.843750
447,-181.63,2022-10-28 11:11:49.859375
448,-151.86,2022-10-28 11:11:49.875000
449,-123.88,2022-10-28 11:11:49.890625
450,-80.73,2022-10-28 11:11:49.906250
451,-18.56,2022-10-28 11:11:49.921875
452,52.59,2022-10-28 11:11:49.937500
453,115.83,2022-10-28 11:11:49.953125
454,152.53,2022-10-28 11:11:49.968750
455,168.64,2022-10-28 11:11:49.984375
456,172.46,2022-10-28 11:11:50.000000
457,170.33,2022-10-28 11:11:50.015625
458,168.09,2022-10-28 11:11:50.031250
459,167.35,2022-10-28 11:11:50.046875
460,164.64,2022-10-28 11:11:50.062500
461,157.22,2022-10-28 11:11:50.078125
462,145.25,2022-10-28 11:11:50.093750
463,131.69,2022-10-28 11:11:50.109375
464,121.18,2022-10-28 11:11:50.125000
465,114.79,2022-10-28 11:11:50.140625
466,111.64,2022-10-28 11:11:50.156250
467,109.34,2022-10-28 11:11:50.171875
468,104.27,2022-10-28 11:11:50.187500
469,90.94,2022-10-28 11:11:50.203125
470,66.31,2022-10-28 11:11:50.218750
471,30.9,2022-10-28 11:11:50.234375
472,-11.99,2022-10-28 11:11:50.250000
473,-57.51,2022-10-28 11:11:50.265625
474,-102.69,2022-10-28 11:11:50.281250
475,-144.16,2022-10-28 11:11:50.296875
476,-177.23,2022-10-28 11:11:50.312500
477,-196.72,2022-10-28 11:11:50.328125
478,-199.9,2022-10-28 11:11:50.343750
479,-186.81,2022-10-28 11:11:50.359375
480,-161.4,2022-10-28 11:11:50.375000
481,-131.25,2022-10-28 11:11:50.390625
482,-104.97,2022-10-28 11:11:50.406250
483,-90.03,2022-10-28 11:11:50.421875
484,-88.38,2022-10-28 11:11:50.437500
485,-95.31,2022-10-28 11:11:50.453125
486,-102.08,2022-10-28 11:11:50.468750
487,-100.36,2022-10-28 11:11:50.484375
488,-84.91,2022-10-28 11:11:50.500000
489,-54.8,2022-10-28 11:11:50.515625
490,-12.43,2022-10-28 11:11:50.531250
491,38.77,2022-10-28 11:11:50.546875
492,95.49,2022-10-28 11:11:50.562500
493,155.78,2022-10-28 11:11:50.578125
494,218.32,2022-10-28 11:11:50.593750
495,280.97,2022-10-28 11:11:50.609375
496,339.96,2022-10-28 11:11:50.625000
497,390.83,2022-10-28 11:11:50.640625
498,430.0,2022-10-28 11:11:50.656250
499,456.11,2022-10-28 11:11:50.671875
500,470.22,2022-10-28 11:11:50.687500
501,474.67,2022-10-28 11:11:50.703125
502,471.54,2022-10-28 11:11:50.718750
503,461.27,2022-10-28 11:11:50.734375
504,442.19,2022-10-28 11:11:50.750000
505,411.4,2022-10-28 11:11:50.765625
506,366.46,2022-10-28 11:11:50.781250
507,306.99,2022-10-28 11:11:50.796875
508,235.42,2022-10-28 11:11:50.812500
509,156.3,2022-10-28 11:11:50.828125
510,74.73,2022-10-28 11:11:50.843750
511,-5.27,2022-10-28 11:11:50.859375
512,-81.93,2022-10-28 11:11:50.875000
513,-155.75,2022-10-28 11:11:50.890625
514,-228.69,2022-10-28 11:11:50.906250
515,-302.65,2022-10-28 11:11:50.921875
516,-377.98,2022-10-28 11:11:50.937500
517,-452.6,2022-10-28 11:11:50.953125
518,-522.07,2022-10-28 11:11:50.968750
519,-580.79,2022-10-28 11:11:50.984375
520,-623.84,2022-10-28 11:11:51.000000
521,-648.74,2022-10-28 11:11:51.015625
522,-656.32,2022-10-28 11:11:51.031250
523,-650.26,2022-10-28 11:11:51.046875
524,-635.49,2022-10-28 11:11:51.062500
525,-616.34,2022-10-28 11:11:51.078125
526,-595.13,2022-10-28 11:11:51.093750
527,-572.01,2022-10-28 11:11:51.109375
528,-545.67,2022-10-28 11:11:51.125000
529,-514.53,2022-10-28 11:11:51.140625
530,-477.66,2022-10-28 11:11:51.156250
531,-435.05,2022-10-28 11:11:51.171875
532,-387.4,2022-10-28 11:11:51.187500
533,-335.68,2022-10-28 11:11:51.203125
534,-280.93,2022-10-28 11:11:51.218750
535,-224.31,2022-10-28 11:11:51.234375
536,-167.16,2022-10-28 11:11:51.250000
537,-111.02,2022-10-28 11:11:51.265625
538,-57.34,2022-10-28 11:11:51.281250
539,-7.28,2022-10-28 11:11:51.296875
540,38.61,2022-10-28 11:11:51.312500
541,80.29,2022-10-28 11:11:51.328125
542,117.95,2022-10-28 11:11:51.343750
543,151.51,2022-10-28 11:11:51.359375
544,180.42,2022-10-28 11:11:51.375000
545,203.73,2022-10-28 11:11:51.390625
546,220.65,2022-10-28 11:11:51.406250
547,231.24,2022-10-28 11:11:51.421875
548,236.96,2022-10-28 11:11:51.437500
549,240.52,2022-10-28 11:11:51.453125
550,245.15,2022-10-28 11:11:51.468750
551,253.55,2022-10-28 11:11:51.484375
552,267.02,2022-10-28 11:11:51.500000
553,285.15,2022-10-28 11:11:51.515625
554,306.26,2022-10-28 11:11:51.531250
555,328.06,2022-10-28 11:11:51.546875
556,348.36,2022-10-28 11:11:51.562500
557,365.4,2022-10-28 11:11:51.578125
558,377.84,2022-10-28 11:11:51.593750
559,384.74,2022-10-28 11:11:51.609375
560,385.48,2022-10-28 11:11:51.625000
561,379.98,2022-10-28 11:11:51.640625
562,368.75,2022-10-28 11:11:51.656250
563,352.86,2022-10-28 11:11:51.671875
564,333.5,2022-10-28 11:11:51.687500
565,311.74,2022-10-28 11:11:51.703125
566,288.27,2022-10-28 11:11:51.718750
567,263.6,2022-10-28 11:11:51.734375
568,238.4,2022-10-28 11:11:51.750000
569,213.66,2022-10-28 11:11:51.765625
570,190.5,2022-10-28 11:11:51.781250
571,169.64,2022-10-28 11:11:51.796875
572,151.04,2022-10-28 11:11:51.812500
573,133.79,2022-10-28 11:11:51.828125
574,116.62,2022-10-28 11:11:51.843750
575,98.38,2022-10-28 11:11:51.859375
576,78.46,2022-10-28 11:11:51.875000
577,56.79,2022-10-28 11:11:51.890625
578,33.49,2022-10-28 11:11:51.906250
579,8.73,2022-10-28 11:11:51.921875
580,-17.33,2022-10-28 11:11:51.937500
581,-44.14,2022-10-28 11:11:51.953125
582,-70.57,2022-10-28 11:11:51.968750
583,-94.78,2022-10-28 11:11:51.984375
584,-114.58,2022-10-28 11:11:52.000000
585,-128.08,2022-10-28 11:11:52.015625
586,-134.12,2022-10-28 11:11:52.031250
587,-132.63,2022-10-28 11:11:52.046875
588,-124.56,2022-10-28 11:11:52.062500
589,-111.74,2022-10-28 11:11:52.078125
590,-96.33,2022-10-28 11:11:52.093750
591,-80.37,2022-10-28 11:11:52.109375
592,-65.36,2022-10-28 11:11:52.125000
593,-51.89,2022-10-28 11:11:52.140625
594,-39.87,2022-10-28 11:11:52.156250
595,-28.91,2022-10-28 11:11:52.171875
596,-18.92,2022-10-28 11:11:52.187500
597,-10.44,2022-10-28 11:11:52.203125
598,-4.6,2022-10-28 11:11:52.218750
599,-2.59,2022-10-28 11:11:52.234375
600,-4.98,2022-10-28 11:11:52.250000
601,-11.39,2022-10-28 11:11:52.265625
602,-20.44,2022-10-28 11:11:52.281250
603,-30.25,2022-10-28 11:11:52.296875
604,-38.96,2022-10-28 11:11:52.312500
605,-45.22,2022-10-28 11:11:52.328125
606,-48.14,2022-10-28 11:11:52.343750
607,-47.16,2022-10-28 11:11:52.359375
608,-41.76,2022-10-28 11:11:52.375000
609,-31.43,2022-10-28 11:11:52.390625
610,-15.94,2022-10-28 11:11:52.406250
611,4.23,2022-10-28 11:11:52.421875
612,27.64,2022-10-28 11:11:52.437500
613,52.04,2022-10-28 11:11:52.453125
614,75.09,2022-10-28 11:11:52.468750
615,95.0,2022-10-28 11:11:52.484375
616,111.22,2022-10-28 11:11:52.500000
617,124.33,2022-10-28 11:11:52.515625
618,135.67,2022-10-28 11:11:52.531250
619,146.63,2022-10-28 11:11:52.546875
620,158.19,2022-10-28 11:11:52.562500
621,170.71,2022-10-28 11:11:52.578125
622,184.16,2022-10-28 11:11:52.593750
623,198.15,2022-10-28 11:11:52.609375
624,212.07,2022-10-28 11:11:52.625000
625,224.98,2022-10-28 11:11:52.640625
626,235.74,2022-10-28 11:11:52.656250
627,243.33,2022-10-28 11:11:52.671875
628,247.29,2022-10-28 11:11:52.687500
629,248.05,2022-10-28 11:11:52.703125
630,246.87,2022-10-28 11:11:52.718750
631,245.27,2022-10-28 11:11:52.734375
632,244.43,2022-10-28 11:11:52.750000
633,244.55,2022-10-28 11:11:52.765625
634,244.83,2022-10-28 11:11:52.781250
635,243.75,2022-10-28 11:11:52.796875
636,239.66,2022-10-28 11:11:52.812500
637,231.31,2022-10-28 11:11:52.828125
638,218.21,2022-10-28 11:11:52.843750
639,200.85,2022-10-28 11:11:52.859375
640,180.52,2022-10-28 11:11:52.875000
641,158.97,2022-10-28 11:11:52.890625
642,137.86,2022-10-28 11:11:52.906250
643,118.15,2022-10-28 11:11:52.921875
644,99.78,2022-10-28 11:11:52.937500
645,81.63,2022-10-28 11:11:52.953125
646,62.04,2022-10-28 11:11:52.968750
647,39.37,2022-10-28 11:11:52.984375
648,12.75,2022-10-28 11:11:53.000000
649,-17.51,2022-10-28 11:11:53.015625
650,-49.95,2022-10-28 11:11:53.031250
651,-82.32,2022-10-28 11:11:53.046875
652,-112.29,2022-10-28 11:11:53.062500
653,-138.14,2022-10-28 11:11:53.078125
654,-159.33,2022-10-28 11:11:53.093750
655,-176.61,2022-10-28 11:11:53.109375
656,-191.76,2022-10-28 11:11:53.125000
657,-207.0,2022-10-28 11:11:53.140625
658,-224.32,2022-10-28 11:11:53.156250
659,-244.91,2022-10-28 11:11:53.171875
660,-268.93,2022-10-28 11:11:53.187500
661,-295.59,2022-10-28 11:11:53.203125
662,-323.39,2022-10-28 11:11:53.218750
663,-350.34,2022-10-28 11:11:53.234375
664,-374.02,2022-10-28 11:11:53.250000
665,-391.76,2022-10-28 11:11:53.265625
666,-401.01,2022-10-28 11:11:53.281250
667,-399.88,2022-10-28 11:11:53.296875
668,-387.65,2022-10-28 11:11:53.312500
669,-365.03,2022-10-28 11:11:53.328125
670,-333.88,2022-10-28 11:11:53.343750
671,-296.61,2022-10-28 11:11:53.359375
672,-255.52,2022-10-28 11:11:53.375000
673,-212.38,2022-10-28 11:11:53.390625
674,-168.46,2022-10-28 11:11:53.406250
675,-124.57,2022-10-28 11:11:53.421875
676,-81.32,2022-10-28 11:11:53.437500
677,-39.23,2022-10-28 11:11:53.453125
678,1.09,2022-10-28 11:11:53.468750
679,38.83,2022-10-28 11:11:53.484375
680,72.93,2022-10-28 11:11:53.500000
681,102.15,2022-10-28 11:11:53.515625
682,125.35,2022-10-28 11:11:53.531250
683,141.88,2022-10-28 11:11:53.546875
684,152.13,2022-10-28 11:11:53.562500
685,157.69,2022-10-28 11:11:53.578125
686,161.04,2022-10-28 11:11:53.593750
687,164.82,2022-10-28 11:11:53.609375
688,171.02,2022-10-28 11:11:53.625000
689,180.24,2022-10-28 11:11:53.640625
690,191.72,2022-10-28 11:11:53.656250
691,203.71,2022-10-28 11:11:53.671875
692,214.3,2022-10-28 11:11:53.687500
693,222.2,2022-10-28 11:11:53.703125
694,227.1,2022-10-28 11:11:53.718750
695,229.56,2022-10-28 11:11:53.734375
696,230.39,2022-10-28 11:11:53.750000
697,230.06,2022-10-28 11:11:53.765625
698,228.28,2022-10-28 11:11:53.781250
699,224.1,2022-10-28 11:11:53.796875
700,216.55,2022-10-28 11:11:53.812500
701,205.15,2022-10-28 11:11:53.828125
702,190.04,2022-10-28 11:11:53.843750
703,171.82,2022-10-28 11:11:53.859375
704,151.11,2022-10-28 11:11:53.875000
705,128.23,2022-10-28 11:11:53.890625
706,103.13,2022-10-28 11:11:53.906250
707,75.9,2022-10-28 11:11:53.921875
708,47.42,2022-10-28 11:11:53.937500
709,19.64,2022-10-28 11:11:53.953125
710,-5.18,2022-10-28 11:11:53.968750
711,-25.78,2022-10-28 11:11:53.984375
712,-42.52,2022-10-28 11:11:54.000000
713,-57.14,2022-10-28 11:11:54.015625
714,-71.48,2022-10-28 11:11:54.031250
715,-86.03,2022-10-28 11:11:54.046875
716,-99.54,2022-10-28 11:11:54.062500
717,-109.86,2022-10-28 11:11:54.078125
718,-115.85,2022-10-28 11:11:54.093750
719,-118.84,2022-10-28 11:11:54.109375
720,-122.93,2022-10-28 11:11:54.125000
721,-132.68,2022-10-28 11:11:54.140625
722,-150.28,2022-10-28 11:11:54.156250
723,-174.09,2022-10-28 11:11:54.171875
724,-199.44,2022-10-28 11:11:54.187500
725,-221.24,2022-10-28 11:11:54.203125
726,-236.46,2022-10-28 11:11:54.218750
727,-245.12,2022-10-28 11:11:54.234375
728,-249.07,2022-10-28 11:11:54.250000
729,-250.97,2022-10-28 11:11:54.265625
730,-251.12,2022-10-28 11:11:54.281250
731,-246.91,2022-10-28 11:11:54.296875
732,-234.41,2022-10-28 11:11:54.312500
733,-211.24,2022-10-28 11:11:54.328125
734,-178.51,2022-10-28 11:11:54.343750
735,-140.62,2022-10-28 11:11:54.359375
736,-103.11,2022-10-28 11:11:54.375000
737,-69.93,2022-10-28 11:11:54.390625
738,-44.13,2022-10-28 11:11:54.406250
739,-24.95,2022-10-28 11:11:54.421875
740,-8.12,2022-10-28 11:11:54.437500
741,12.0,2022-10-28 11:11:54.453125
742,38.93,2022-10-28 11:11:54.468750
743,71.21,2022-10-28 11:11:54.484375
744,102.46,2022-10-28 11:11:54.500000
745,123.66,2022-10-28 11:11:54.515625
746,126.66,2022-10-28 11:11:54.531250
747,103.53,2022-10-28 11:11:54.546875
748,53.04,2022-10-28 11:11:54.562500
749,-17.68,2022-10-28 11:11:54.578125
750,-95.09,2022-10-28 11:11:54.593750
751,-164.67,2022-10-28 11:11:54.609375
752,-216.62,2022-10-28 11:11:54.625000
753,-248.17,2022-10-28 11:11:54.640625
754,-262.65,2022-10-28 11:11:54.656250
755,-266.71,2022-10-28 11:11:54.671875
756,-272.4,2022-10-28 11:11:54.687500
757,-288.8,2022-10-28 11:11:54.703125
758,-318.91,2022-10-28 11:11:54.718750
759,-359.42,2022-10-28 11:11:54.734375
760,-404.3,2022-10-28 11:11:54.750000
761,-448.53,2022-10-28 11:11:54.765625
762,-489.25,2022-10-28 11:11:54.781250
763,-524.68,2022-10-28 11:11:54.796875
764,-522.29,2022-10-28 11:11:54.812500
765,-461.48,2022-10-28 11:11:54.828125
766,-343.28,2022-10-28 11:11:54.843750
767,-192.57,2022-10-28 11:11:54.859375
768,-40.99,2022-10-28 11:11:54.875000
769,90.1,2022-10-28 11:11:54.890625
770,192.82,2022-10-28 11:11:54.906250
771,267.77,2022-10-28 11:11:54.921875
772,319.52,2022-10-28 11:11:54.937500
773,354.08,2022-10-28 11:11:54.953125
774,372.1,2022-10-28 11:11:54.968750
775,374.8,2022-10-28 11:11:54.984375
776,365.53,2022-10-28 11:11:55.000000
777,350.07,2022-10-28 11:11:55.015625
778,334.12,2022-10-28 11:11:55.031250
779,320.98,2022-10-28 11:11:55.046875
780,310.86,2022-10-28 11:11:55.062500
781,302.69,2022-10-28 11:11:55.078125
782,295.71,2022-10-28 11:11:55.093750
783,284.6,2022-10-28 11:11:55.109375
784,265.76,2022-10-28 11:11:55.125000
785,238.71,2022-10-28 11:11:55.140625
786,206.2,2022-10-28 11:11:55.156250
787,171.97,2022-10-28 11:11:55.171875
788,138.9,2022-10-28 11:11:55.187500
789,107.58,2022-10-28 11:11:55.203125
790,77.76,2022-10-28 11:11:55.218750
791,52.45,2022-10-28 11:11:55.234375
792,29.62,2022-10-28 11:11:55.250000
793,7.47,2022-10-28 11:11:55.265625
794,-14.27,2022-10-28 11:11:55.281250
795,-34.02,2022-10-28 11:11:55.296875
796,-49.67,2022-10-28 11:11:55.312500
797,-59.6,2022-10-28 11:11:55.328125
798,-64.11,2022-10-28 11:11:55.343750
799,-64.12,2022-10-28 11:11:55.359375
800,-60.63,2022-10-28 11:11:55.375000
801,-56.08,2022-10-28 11:11:55.390625
802,-51.97,2022-10-28 11:11:55.406250
803,-48.51,2022-10-28 11:11:55.421875
804,-44.66,2022-10-28 11:11:55.437500
805,-41.81,2022-10-28 11:11:55.453125
806,-36.93,2022-10-28 11:11:55.468750
807,-28.72,2022-10-28 11:11:55.484375
808,-16.7,2022-10-28 11:11:55.500000
809,-0.89,2022-10-28 11:11:55.515625
810,17.64,2022-10-28 11:11:55.531250
811,38.05,2022-10-28 11:11:55.546875
812,59.77,2022-10-28 11:11:55.562500
813,82.55,2022-10-28 11:11:55.578125
814,106.21,2022-10-28 11:11:55.593750
815,130.88,2022-10-28 11:11:55.609375
816,155.78,2022-10-28 11:11:55.625000
817,180.14,2022-10-28 11:11:55.640625
818,203.34,2022-10-28 11:11:55.656250
819,224.72,2022-10-28 11:11:55.671875
820,243.71,2022-10-28 11:11:55.687500
821,260.02,2022-10-28 11:11:55.703125
822,273.52,2022-10-28 11:11:55.718750
823,284.16,2022-10-28 11:11:55.734375
824,291.79,2022-10-28 11:11:55.750000
825,295.9,2022-10-28 11:11:55.765625
826,296.22,2022-10-28 11:11:55.781250
827,292.47,2022-10-28 11:11:55.796875
828,285.34,2022-10-28 11:11:55.812500
829,275.32,2022-10-28 11:11:55.828125
830,262.89,2022-10-28 11:11:55.843750
831,248.55,2022-10-28 11:11:55.859375
832,232.84,2022-10-28 11:11:55.875000
833,216.09,2022-10-28 11:11:55.890625
834,198.39,2022-10-28 11:11:55.906250
835,180.08,2022-10-28 11:11:55.921875
836,161.67,2022-10-28 11:11:55.937500
837,143.7,2022-10-28 11:11:55.953125
838,126.49,2022-10-28 11:11:55.968750
839,110.18,2022-10-28 11:11:55.984375
840,94.9,2022-10-28 11:11:56.000000
841,80.66,2022-10-28 11:11:56.015625
842,66.63,2022-10-28 11:11:56.031250
843,51.97,2022-10-28 11:11:56.046875
844,36.52,2022-10-28 11:11:56.062500
845,20.68,2022-10-28 11:11:56.078125
846,4.92,2022-10-28 11:11:56.093750
847,-10.53,2022-10-28 11:11:56.109375
848,-25.67,2022-10-28 11:11:56.125000
849,-40.74,2022-10-28 11:11:56.140625
850,-56.07,2022-10-28 11:11:56.156250
851,-74.37,2022-10-28 11:11:56.171875
852,-97.45,2022-10-28 11:11:56.187500
853,-125.25,2022-10-28 11:11:56.203125
854,-155.85,2022-10-28 11:11:56.218750
855,-186.7,2022-10-28 11:11:56.234375
856,-215.73,2022-10-28 11:11:56.250000
857,-241.47,2022-10-28 11:11:56.265625
858,-262.85,2022-10-28 11:11:56.281250
859,-279.13,2022-10-28 11:11:56.296875
860,-294.84,2022-10-28 11:11:56.312500
861,-312.99,2022-10-28 11:11:56.328125
862,-333.24,2022-10-28 11:11:56.343750
863,-352.33,2022-10-28 11:11:56.359375
864,-366.71,2022-10-28 11:11:56.375000
865,-374.59,2022-10-28 11:11:56.390625
866,-375.91,2022-10-28 11:11:56.406250
867,-371.57,2022-10-28 11:11:56.421875
868,-362.86,2022-10-28 11:11:56.437500
869,-359.15,2022-10-28 11:11:56.453125
870,-366.72,2022-10-28 11:11:56.468750
871,-385.89,2022-10-28 11:11:56.484375
872,-412.05,2022-10-28 11:11:56.500000
873,-440.52,2022-10-28 11:11:56.515625
874,-469.64,2022-10-28 11:11:56.531250
875,-500.34,2022-10-28 11:11:56.546875
876,-533.81,2022-10-28 11:11:56.562500
877,-569.62,2022-10-28 11:11:56.578125
878,-615.27,2022-10-28 11:11:56.593750
879,-672.67,2022-10-28 11:11:56.609375
880,-735.92,2022-10-28 11:11:56.625000
881,-794.06,2022-10-28 11:11:56.640625
882,-837.84,2022-10-28 11:11:56.656250
883,-863.67,2022-10-28 11:11:56.671875
884,-872.66,2022-10-28 11:11:56.687500
885,-868.02,2022-10-28 11:11:56.703125
886,-790.0,2022-10-28 11:11:56.718750
887,-616.17,2022-10-28 11:11:56.734375
888,-369.77,2022-10-28 11:11:56.750000
889,-107.19,2022-10-28 11:11:56.765625
890,120.69,2022-10-28 11:11:56.781250
891,291.07,2022-10-28 11:11:56.796875
892,405.22,2022-10-28 11:11:56.812500
893,475.97,2022-10-28 11:11:56.828125
894,518.05,2022-10-28 11:11:56.843750
895,543.66,2022-10-28 11:11:56.859375
896,550.58,2022-10-28 11:11:56.875000
897,537.14,2022-10-28 11:11:56.890625
898,506.65,2022-10-28 11:11:56.906250
899,467.86,2022-10-28 11:11:56.921875
900,429.8,2022-10-28 11:11:56.937500
901,398.11,2022-10-28 11:11:56.953125
902,375.18,2022-10-28 11:11:56.968750
903,361.12,2022-10-28 11:11:56.984375
904,355.21,2022-10-28 11:11:57.000000
905,348.55,2022-10-28 11:11:57.015625
906,335.88,2022-10-28 11:11:57.031250
907,317.78,2022-10-28 11:11:57.046875
908,298.89,2022-10-28 11:11:57.062500
909,282.4,2022-10-28 11:11:57.078125
910,266.3,2022-10-28 11:11:57.093750
911,246.92,2022-10-28 11:11:57.109375
912,220.48,2022-10-28 11:11:57.125000
913,186.35,2022-10-28 11:11:57.140625
914,142.98,2022-10-28 11:11:57.156250
915,94.5,2022-10-28 11:11:57.171875
916,49.06,2022-10-28 11:11:57.187500
917,15.31,2022-10-28 11:11:57.203125
918,-1.84,2022-10-28 11:11:57.218750
919,-2.68,2022-10-28 11:11:57.234375
920,9.31,2022-10-28 11:11:57.250000
921,29.89,2022-10-28 11:11:57.265625
922,57.59,2022-10-28 11:11:57.281250
923,85.88,2022-10-28 11:11:57.296875
924,110.29,2022-10-28 11:11:57.312500
925,128.64,2022-10-28 11:11:57.328125
926,140.76,2022-10-28 11:11:57.343750
927,147.77,2022-10-28 11:11:57.359375
928,151.39,2022-10-28 11:11:57.375000
929,153.75,2022-10-28 11:11:57.390625
930,156.49,2022-10-28 11:11:57.406250
931,160.22,2022-10-28 11:11:57.421875
932,162.97,2022-10-28 11:11:57.437500
933,162.85,2022-10-28 11:11:57.453125
934,158.44,2022-10-28 11:11:57.468750
935,149.47,2022-10-28 11:11:57.484375
936,136.97,2022-10-28 11:11:57.500000
937,122.7,2022-10-28 11:11:57.515625
938,108.61,2022-10-28 11:11:57.531250
939,95.99,2022-10-28 11:11:57.546875
940,85.45,2022-10-28 11:11:57.562500
941,74.47,2022-10-28 11:11:57.578125
942,60.38,2022-10-28 11:11:57.593750
943,40.29,2022-10-28 11:11:57.609375
944,11.82,2022-10-28 11:11:57.625000
945,-25.7,2022-10-28 11:11:57.640625
946,-70.05,2022-10-28 11:11:57.656250
947,-115.83,2022-10-28 11:11:57.671875
948,-153.82,2022-10-28 11:11:57.687500
949,-176.25,2022-10-28 11:11:57.703125
950,-179.45,2022-10-28 11:11:57.718750
951,-165.17,2022-10-28 11:11:57.734375
952,-140.57,2022-10-28 11:11:57.750000
953,-114.97,2022-10-28 11:11:57.765625
954,-96.0,2022-10-28 11:11:57.781250
955,-86.28,2022-10-28 11:11:57.796875
956,-82.92,2022-10-28 11:11:57.812500
957,-79.67,2022-10-28 11:11:57.828125
958,-71.46,2022-10-28 11:11:57.843750
959,-55.0,2022-10-28 11:11:57.859375
960,-29.96,2022-10-28 11:11:57.875000
961,1.92,2022-10-28 11:11:57.890625
962,37.81,2022-10-28 11:11:57.906250
963,74.22,2022-10-28 11:11:57.921875
964,106.96,2022-10-28 11:11:57.937500
965,130.2,2022-10-28 11:11:57.953125
966,140.49,2022-10-28 11:11:57.968750
967,137.5,2022-10-28 11:11:57.984375
968,124.67,2022-10-28 11:11:58.000000
969,107.92,2022-10-28 11:11:58.015625
970,93.34,2022-10-28 11:11:58.031250
971,84.65,2022-10-28 11:11:58.046875
972,82.23,2022-10-28 11:11:58.062500
973,84.08,2022-10-28 11:11:58.078125
974,87.72,2022-10-28 11:11:58.093750
975,91.88,2022-10-28 11:11:58.109375
976,96.23,2022-10-28 11:11:58.125000
977,100.6,2022-10-28 11:11:58.140625
978,104.04,2022-10-28 11:11:58.156250
979,104.8,2022-10-28 11:11:58.171875
980,100.95,2022-10-28 11:11:58.187500
981,91.34,2022-10-28 11:11:58.203125
982,76.73,2022-10-28 11:11:58.218750
983,58.34,2022-10-28 11:11:58.234375
984,38.69,2022-10-28 11:11:58.250000
985,20.55,2022-10-28 11:11:58.265625
986,5.81,2022-10-28 11:11:58.281250
987,-4.98,2022-10-28 11:11:58.296875
988,-12.79,2022-10-28 11:11:58.312500
989,-19.71,2022-10-28 11:11:58.328125
990,-27.48,2022-10-28 11:11:58.343750
991,-37.91,2022-10-28 11:11:58.359375
992,-51.08,2022-10-28 11:11:58.375000
993,-65.32,2022-10-28 11:11:58.390625
994,-78.36,2022-10-28 11:11:58.406250
995,-88.68,2022-10-28 11:11:58.421875
996,-96.32,2022-10-28 11:11:58.437500
997,-102.63,2022-10-28 11:11:58.453125
998,-109.15,2022-10-28 11:11:58.468750
999,-116.54,2022-10-28 11:11:58.484375
1000,-123.99,2022-10-28 11:11:58.500000
1001,-129.57,2022-10-28 11:11:58.515625
1002,-131.46,2022-10-28 11:11:58.531250
1003,-129.35,2022-10-28 11:11:58.546875
1004,-124.69,2022-10-28 11:11:58.562500
1005,-119.76,2022-10-28 11:11:58.578125
1006,-116.34,2022-10-28 11:11:58.593750
1007,-114.16,2022-10-28 11:11:58.609375
1008,-111.36,2022-10-28 11:11:58.625000
1009,-105.51,2022-10-28 11:11:58.640625
1010,-94.99,2022-10-28 11:11:58.656250
1011,-80.08,2022-10-28 11:11:58.671875
1012,-62.79,2022-10-28 11:11:58.687500
1013,-45.45,2022-10-28 11:11:58.703125
1014,-29.49,2022-10-28 11:11:58.718750
1015,-16.13,2022-10-28 11:11:58.734375
1016,-5.95,2022-10-28 11:11:58.750000
1017,-1.09,2022-10-28 11:11:58.765625
1018,-4.49,2022-10-28 11:11:58.781250
1019,-17.9,2022-10-28 11:11:58.796875
1020,-39.74,2022-10-28 11:11:58.812500
1021,-64.51,2022-10-28 11:11:58.828125
1022,-84.77,2022-10-28 11:11:58.843750
1023,-94.28,2022-10-28 11:11:58.859375
1024,-92.3,2022-10-28 11:11:58.875000
1025,-83.12,2022-10-28 11:11:58.890625
1026,-73.89,2022-10-28 11:11:58.906250
1027,-70.09,2022-10-28 11:11:58.921875
1028,-72.85,2022-10-28 11:11:58.937500
1029,-78.63,2022-10-28 11:11:58.953125
1030,-82.02,2022-10-28 11:11:58.968750
1031,-78.49,2022-10-28 11:11:58.984375
1032,-66.85,2022-10-28 11:11:59.000000
1033,-48.98,2022-10-28 11:11:59.015625
1034,-27.72,2022-10-28 11:11:59.031250
1035,-5.25,2022-10-28 11:11:59.046875
1036,17.88,2022-10-28 11:11:59.062500
1037,41.97,2022-10-28 11:11:59.078125
1038,66.28,2022-10-28 11:11:59.093750
1039,89.98,2022-10-28 11:11:59.109375
1040,111.2,2022-10-28 11:11:59.125000
1041,127.57,2022-10-28 11:11:59.140625
1042,137.41,2022-10-28 11:11:59.156250
1043,140.5,2022-10-28 11:11:59.171875
1044,137.87,2022-10-28 11:11:59.187500
1045,131.66,2022-10-28 11:11:59.203125
1046,124.16,2022-10-28 11:11:59.218750
1047,117.06,2022-10-28 11:11:59.234375
1048,111.09,2022-10-28 11:11:59.250000
1049,105.95,2022-10-28 11:11:59.265625
1050,100.72,2022-10-28 11:11:59.281250
1051,94.55,2022-10-28 11:11:59.296875
1052,87.73,2022-10-28 11:11:59.312500
1053,80.19,2022-10-28 11:11:59.328125
1054,72.76,2022-10-28 11:11:59.343750
1055,66.24,2022-10-28 11:11:59.359375
1056,61.13,2022-10-28 11:11:59.375000
1057,57.45,2022-10-28 11:11:59.390625
1058,54.71,2022-10-28 11:11:59.406250
1059,52.19,2022-10-28 11:11:59.421875
1060,49.32,2022-10-28 11:11:59.437500
1061,45.91,2022-10-28 11:11:59.453125
1062,42.1,2022-10-28 11:11:59.468750
1063,38.42,2022-10-28 11:11:59.484375
1064,35.29,2022-10-28 11:11:59.500000
1065,32.95,2022-10-28 11:11:59.515625
1066,31.41,2022-10-28 11:11:59.531250
1067,30.42,2022-10-28 11:11:59.546875
1068,29.65,2022-10-28 11:11:59.562500
1069,28.86,2022-10-28 11:11:59.578125
1070,27.95,2022-10-28 11:11:59.593750
1071,26.95,2022-10-28 11:11:59.609375
1072,26.09,2022-10-28 11:11:59.625000
1073,25.5,2022-10-28 11:11:59.640625
1074,25.26,2022-10-28 11:11:59.656250
1075,25.37,2022-10-28 11:11:59.671875
1076,25.76,2022-10-28 11:11:59.687500
1077,26.36,2022-10-28 11:11:59.703125
1078,27.11,2022-10-28 11:11:59.718750
1079,27.92,2022-10-28 11:11:59.734375
1080,28.76,2022-10-28 11:11:59.750000
1081,29.69,2022-10-28 11:11:59.765625
1082,30.61,2022-10-28 11:11:59.781250
1083,31.42,2022-10-28 11:11:59.796875
1084,31.95,2022-10-28 11:11:59.812500
1085,31.99,2022-10-28 11:11:59.828125
1086,31.29,2022-10-28 11:11:59.843750
1087,29.88,2022-10-28 11:11:59.859375
1088,27.06,2022-10-28 11:11:59.875000
1089,22.49,2022-10-28 11:11:59.890625
1090,15.96,2022-10-28 11:11:59.906250
1091,7.5,2022-10-28 11:11:59.921875
1092,-2.67,2022-10-28 11:11:59.937500
1093,-14.09,2022-10-28 11:11:59.953125
1094,-26.19,2022-10-28 11:11:59.968750
1095,-38.23,2022-10-28 11:11:59.984375
1096,-49.46,2022-10-28 11:12:00.000000
1097,-59.26,2022-10-28 11:12:00.015625
1098,-67.01,2022-10-28 11:12:00.031250
1099,-72.24,2022-10-28 11:12:00.046875
1100,-74.57,2022-10-28 11:12:00.062500
1101,-73.9,2022-10-28 11:12:00.078125
1102,-70.29,2022-10-28 11:12:00.093750
1103,-64.04,2022-10-28 11:12:00.109375
1104,-55.69,2022-10-28 11:12:00.125000
1105,-45.91,2022-10-28 11:12:00.140625
1106,-35.59,2022-10-28 11:12:00.156250
1107,-25.56,2022-10-28 11:12:00.171875
1108,-16.42,2022-10-28 11:12:00.187500
1109,-8.41,2022-10-28 11:12:00.203125
1110,-1.58,2022-10-28 11:12:00.218750
1111,4.36,2022-10-28 11:12:00.234375
1112,9.78,2022-10-28 11:12:00.250000
1113,14.94,2022-10-28 11:12:00.265625
1114,19.87,2022-10-28 11:12:00.281250
1115,24.25,2022-10-28 11:12:00.296875
1116,27.6,2022-10-28 11:12:00.312500
1117,29.51,2022-10-28 11:12:00.328125
1118,29.97,2022-10-28 11:12:00.343750
1119,29.21,2022-10-28 11:12:00.359375
1120,27.77,2022-10-28 11:12:00.375000
1121,26.2,2022-10-28 11:12:00.390625
1122,24.77,2022-10-28 11:12:00.406250
1123,23.25,2022-10-28 11:12:00.421875
1124,20.94,2022-10-28 11:12:00.437500
1125,17.12,2022-10-28 11:12:00.453125
1126,10.77,2022-10-28 11:12:00.468750
1127,3.01,2022-10-28 11:12:00.484375
1128,-4.59,2022-10-28 11:12:00.500000
1129,-10.14,2022-10-28 11:12:00.515625
1130,-11.7,2022-10-28 11:12:00.531250
1131,-8.68,2022-10-28 11:12:00.546875
1132,-1.45,2022-10-28 11:12:00.562500
1133,8.47,2022-10-28 11:12:00.578125
1134,19.32,2022-10-28 11:12:00.593750
1135,29.52,2022-10-28 11:12:00.609375
1136,38.47,2022-10-28 11:12:00.625000
1137,46.36,2022-10-28 11:12:00.640625
1138,54.05,2022-10-28 11:12:00.656250
1139,62.7,2022-10-28 11:12:00.671875
1140,73.42,2022-10-28 11:12:00.687500
1141,87.24,2022-10-28 11:12:00.703125
1142,104.36,2022-10-28 11:12:00.718750
1143,123.81,2022-10-28 11:12:00.734375
1144,142.59,2022-10-28 11:12:00.750000
1145,155.9,2022-10-28 11:12:00.765625
1146,158.18,2022-10-28 11:12:00.781250
1147,145.64,2022-10-28 11:12:00.796875
1148,118.54,2022-10-28 11:12:00.812500
1149,81.84,2022-10-28 11:12:00.828125
1150,44.06,2022-10-28 11:12:00.843750
1151,13.86,2022-10-28 11:12:00.859375
1152,-2.73,2022-10-28 11:12:00.875000
1153,-4.27,2022-10-28 11:12:00.890625
1154,6.53,2022-10-28 11:12:00.906250
1155,24.72,2022-10-28 11:12:00.921875
1156,45.44,2022-10-28 11:12:00.937500
1157,65.29,2022-10-28 11:12:00.953125
1158,82.09,2022-10-28 11:12:00.968750
1159,95.74,2022-10-28 11:12:00.984375
1160,104.62,2022-10-28 11:12:01.000000
1161,106.98,2022-10-28 11:12:01.015625
1162,101.74,2022-10-28 11:12:01.031250
1163,89.32,2022-10-28 11:12:01.046875
1164,71.72,2022-10-28 11:12:01.062500
1165,51.87,2022-10-28 11:12:01.078125
1166,32.78,2022-10-28 11:12:01.093750
1167,16.29,2022-10-28 11:12:01.109375
1168,2.78,2022-10-28 11:12:01.125000
1169,-8.95,2022-10-28 11:12:01.140625
1170,-20.42,2022-10-28 11:12:01.156250
1171,-32.68,2022-10-28 11:12:01.171875
1172,-45.79,2022-10-28 11:12:01.187500
1173,-58.86,2022-10-28 11:12:01.203125
1174,-70.6,2022-10-28 11:12:01.218750
1175,-80.07,2022-10-28 11:12:01.234375
1176,-87.46,2022-10-28 11:12:01.250000
1177,-93.92,2022-10-28 11:12:01.265625
1178,-101.44,2022-10-28 11:12:01.281250
1179,-111.49,2022-10-28 11:12:01.296875
1180,-124.17,2022-10-28 11:12:01.312500
1181,-137.93,2022-10-28 11:12:01.328125
1182,-149.86,2022-10-28 11:12:01.343750
1183,-156.63,2022-10-28 11:12:01.359375
1184,-155.48,2022-10-28 11:12:01.375000
1185,-144.89,2022-10-28 11:12:01.390625
1186,-124.81,2022-10-28 11:12:01.406250
1187,-96.77,2022-10-28 11:12:01.421875
1188,-63.37,2022-10-28 11:12:01.437500
1189,-28.11,2022-10-28 11:12:01.453125
1190,5.12,2022-10-28 11:12:01.468750
1191,32.75,2022-10-28 11:12:01.484375
1192,52.36,2022-10-28 11:12:01.500000
1193,63.29,2022-10-28 11:12:01.515625
1194,66.58,2022-10-28 11:12:01.531250
1195,64.31,2022-10-28 11:12:01.546875
1196,58.5,2022-10-28 11:12:01.562500
1197,50.48,2022-10-28 11:12:01.578125
1198,40.66,2022-10-28 11:12:01.593750
1199,29.05,2022-10-28 11:12:01.609375
1200,16.01,2022-10-28 11:12:01.625000
1201,2.59,2022-10-28 11:12:01.640625
1202,-9.64,2022-10-28 11:12:01.656250
1203,-19.36,2022-10-28 11:12:01.671875
1204,-26.02,2022-10-28 11:12:01.687500
1205,-30.14,2022-10-28 11:12:01.703125
1206,-32.82,2022-10-28 11:12:01.718750
1207,-35.09,2022-10-28 11:12:01.734375
1208,-37.44,2022-10-28 11:12:01.750000
1209,-39.52,2022-10-28 11:12:01.765625
1210,-40.45,2022-10-28 11:12:01.781250
1211,-39.3,2022-10-28 11:12:01.796875
1212,-35.57,2022-10-28 11:12:01.812500
1213,-29.4,2022-10-28 11:12:01.828125
1214,-21.48,2022-10-28 11:12:01.843750
1215,-12.75,2022-10-28 11:12:01.859375
1216,-4.12,2022-10-28 11:12:01.875000
1217,3.74,2022-10-28 11:12:01.890625
1218,10.5,2022-10-28 11:12:01.906250
1219,15.96,2022-10-28 11:12:01.921875
1220,19.88,2022-10-28 11:12:01.937500
1221,21.85,2022-10-28 11:12:01.953125
1222,21.29,2022-10-28 11:12:01.968750
1223,17.51,2022-10-28 11:12:01.984375
1224,10.03,2022-10-28 11:12:02.000000
1225,-1.27,2022-10-28 11:12:02.015625
1226,-15.89,2022-10-28 11:12:02.031250
1227,-32.8,2022-10-28 11:12:02.046875
1228,-50.68,2022-10-28 11:12:02.062500
1229,-68.35,2022-10-28 11:12:02.078125
1230,-85.09,2022-10-28 11:12:02.093750
1231,-100.83,2022-10-28 11:12:02.109375
1232,-116.1,2022-10-28 11:12:02.125000
1233,-131.68,2022-10-28 11:12:02.140625
1234,-148.29,2022-10-28 11:12:02.156250
1235,-166.18,2022-10-28 11:12:02.171875
1236,-184.81,2022-10-28 11:12:02.187500
1237,-202.68,2022-10-28 11:12:02.203125
1238,-217.51,2022-10-28 11:12:02.218750
1239,-226.53,2022-10-28 11:12:02.234375
1240,-227.2,2022-10-28 11:12:02.250000
1241,-217.99,2022-10-28 11:12:02.265625
1242,-198.96,2022-10-28 11:12:02.281250
1243,-171.95,2022-10-28 11:12:02.296875
1244,-140.07,2022-10-28 11:12:02.312500
1245,-106.93,2022-10-28 11:12:02.328125
1246,-75.64,2022-10-28 11:12:02.343750
1247,-48.21,2022-10-28 11:12:02.359375
1248,-25.36,2022-10-28 11:12:02.375000
1249,-6.9,2022-10-28 11:12:02.390625
1250,7.73,2022-10-28 11:12:02.406250
1251,19.07,2022-10-28 11:12:02.421875
1252,27.29,2022-10-28 11:12:02.437500
1253,32.49,2022-10-28 11:12:02.453125
1254,34.87,2022-10-28 11:12:02.468750
1255,35.06,2022-10-28 11:12:02.484375
1256,34.08,2022-10-28 11:12:02.500000
1257,33.18,2022-10-28 11:12:02.515625
1258,33.39,2022-10-28 11:12:02.531250
1259,35.24,2022-10-28 11:12:02.546875
1260,38.69,2022-10-28 11:12:02.562500
1261,43.25,2022-10-28 11:12:02.578125
1262,48.37,2022-10-28 11:12:02.593750
1263,53.73,2022-10-28 11:12:02.609375
1264,59.21,2022-10-28 11:12:02.625000
1265,64.74,2022-10-28 11:12:02.640625
1266,70.07,2022-10-28 11:12:02.656250
1267,74.5,2022-10-28 11:12:02.671875
1268,77.1,2022-10-28 11:12:02.687500
1269,77.03,2022-10-28 11:12:02.703125
1270,73.94,2022-10-28 11:12:02.718750
1271,68.17,2022-10-28 11:12:02.734375
1272,60.74,2022-10-28 11:12:02.750000
1273,52.9,2022-10-28 11:12:02.765625
1274,45.72,2022-10-28 11:12:02.781250
1275,39.74,2022-10-28 11:12:02.796875
1276,34.86,2022-10-28 11:12:02.812500
1277,30.57,2022-10-28 11:12:02.828125
1278,26.31,2022-10-28 11:12:02.843750
1279,21.7,2022-10-28 11:12:02.859375
1280,16.8,2022-10-28 11:12:02.875000
1281,11.98,2022-10-28 11:12:02.890625
1282,7.7,2022-10-28 11:12:02.906250
1283,4.23,2022-10-28 11:12:02.921875
1284,1.47,2022-10-28 11:12:02.937500
1285,-1.03,2022-10-28 11:12:02.953125
1286,-3.91,2022-10-28 11:12:02.968750
1287,-7.72,2022-10-28 11:12:02.984375
1288,-12.72,2022-10-28 11:12:03.000000
1289,-18.71,2022-10-28 11:12:03.015625
1290,-25.18,2022-10-28 11:12:03.031250
1291,-31.49,2022-10-28 11:12:03.046875
1292,-37.18,2022-10-28 11:12:03.062500
1293,-42.24,2022-10-28 11:12:03.078125
1294,-47.15,2022-10-28 11:12:03.093750
1295,-52.78,2022-10-28 11:12:03.109375
1296,-60.08,2022-10-28 11:12:03.125000
1297,-69.73,2022-10-28 11:12:03.140625
1298,-81.69,2022-10-28 11:12:03.156250
1299,-94.94,2022-10-28 11:12:03.171875
1300,-107.44,2022-10-28 11:12:03.187500
1301,-116.31,2022-10-28 11:12:03.203125
1302,-118.67,2022-10-28 11:12:03.218750
1303,-112.4,2022-10-28 11:12:03.234375
1304,-96.95,2022-10-28 11:12:03.250000
1305,-73.67,2022-10-28 11:12:03.265625
1306,-45.57,2022-10-28 11:12:03.281250
1307,-16.53,2022-10-28 11:12:03.296875
1308,9.9,2022-10-28 11:12:03.312500
1309,31.28,2022-10-28 11:12:03.328125
1310,46.9,2022-10-28 11:12:03.343750
1311,57.32,2022-10-28 11:12:03.359375
1312,63.83,2022-10-28 11:12:03.375000
1313,67.62,2022-10-28 11:12:03.390625
1314,69.29,2022-10-28 11:12:03.406250
1315,68.83,2022-10-28 11:12:03.421875
1316,65.86,2022-10-28 11:12:03.437500
1317,60.24,2022-10-28 11:12:03.453125
1318,52.31,2022-10-28 11:12:03.468750
1319,43.49,2022-10-28 11:12:03.484375
1320,35.56,2022-10-28 11:12:03.500000
1321,30.46,2022-10-28 11:12:03.515625
1322,29.58,2022-10-28 11:12:03.531250
1323,33.21,2022-10-28 11:12:03.546875
1324,40.38,2022-10-28 11:12:03.562500
1325,49.0,2022-10-28 11:12:03.578125
1326,56.56,2022-10-28 11:12:03.593750
1327,60.62,2022-10-28 11:12:03.609375
1328,60.64,2022-10-28 11:12:03.625000
1329,57.2,2022-10-28 11:12:03.640625
1330,52.14,2022-10-28 11:12:03.656250
1331,47.69,2022-10-28 11:12:03.671875
1332,45.32,2022-10-28 11:12:03.687500
1333,44.81,2022-10-28 11:12:03.703125
1334,44.19,2022-10-28 11:12:03.718750
1335,40.45,2022-10-28 11:12:03.734375
1336,30.44,2022-10-28 11:12:03.750000
1337,14.31,2022-10-28 11:12:03.765625
1338,-6.15,2022-10-28 11:12:03.781250
1339,-27.1,2022-10-28 11:12:03.796875
1340,-43.99,2022-10-28 11:12:03.812500
1341,-53.43,2022-10-28 11:12:03.828125
1342,-54.64,2022-10-28 11:12:03.843750
1343,-50.01,2022-10-28 11:12:03.859375
1344,-44.66,2022-10-28 11:12:03.875000
1345,-46.18,2022-10-28 11:12:03.890625
1346,-59.86,2022-10-28 11:12:03.906250
1347,-90.37,2022-10-28 11:12:03.921875
1348,-138.6,2022-10-28 11:12:03.937500
1349,-200.24,2022-10-28 11:12:03.953125
1350,-265.99,2022-10-28 11:12:03.968750
1351,-323.52,2022-10-28 11:12:03.984375
1352,-361.04,2022-10-28 11:12:04.000000
1353,-370.67,2022-10-28 11:12:04.015625
1354,-351.85,2022-10-28 11:12:04.031250
1355,-306.95,2022-10-28 11:12:04.046875
1356,-243.4,2022-10-28 11:12:04.062500
1357,-168.56,2022-10-28 11:12:04.078125
1358,-87.15,2022-10-28 11:12:04.093750
1359,-0.52,2022-10-28 11:12:04.109375
1360,92.18,2022-10-28 11:12:04.125000
1361,191.75,2022-10-28 11:12:04.140625
1362,303.86,2022-10-28 11:12:04.156250
1363,411.42,2022-10-28 11:12:04.171875
1364,508.7,2022-10-28 11:12:04.187500
1365,586.64,2022-10-28 11:12:04.203125
1366,637.62,2022-10-28 11:12:04.218750
1367,657.85,2022-10-28 11:12:04.234375
1368,648.62,2022-10-28 11:12:04.250000
1369,615.78,2022-10-28 11:12:04.265625
1370,567.52,2022-10-28 11:12:04.281250
1371,511.29,2022-10-28 11:12:04.296875
1372,450.85,2022-10-28 11:12:04.312500
1373,389.84,2022-10-28 11:12:04.328125
1374,328.45,2022-10-28 11:12:04.343750
1375,266.94,2022-10-28 11:12:04.359375
1376,206.59,2022-10-28 11:12:04.375000
1377,149.1,2022-10-28 11:12:04.390625
1378,95.53,2022-10-28 11:12:04.406250
1379,45.25,2022-10-28 11:12:04.421875
1380,-3.91,2022-10-28 11:12:04.437500
1381,-55.34,2022-10-28 11:12:04.453125
1382,-109.11,2022-10-28 11:12:04.468750
1383,-164.99,2022-10-28 11:12:04.484375
1384,-221.53,2022-10-28 11:12:04.500000
1385,-276.95,2022-10-28 11:12:04.515625
1386,-330.04,2022-10-28 11:12:04.531250
1387,-379.95,2022-10-28 11:12:04.546875
1388,-425.4,2022-10-28 11:12:04.562500
1389,-463.76,2022-10-28 11:12:04.578125
1390,-491.53,2022-10-28 11:12:04.593750
1391,-503.48,2022-10-28 11:12:04.609375
1392,-496.6,2022-10-28 11:12:04.625000
1393,-470.98,2022-10-28 11:12:04.640625
1394,-430.27,2022-10-28 11:12:04.656250
1395,-380.77,2022-10-28 11:12:04.671875
1396,-329.44,2022-10-28 11:12:04.687500
1397,-281.95,2022-10-28 11:12:04.703125
1398,-241.56,2022-10-28 11:12:04.718750
1399,-209.39,2022-10-28 11:12:04.734375
1400,-184.29,2022-10-28 11:12:04.750000
1401,-164.95,2022-10-28 11:12:04.765625
1402,-150.0,2022-10-28 11:12:04.781250
1403,-138.25,2022-10-28 11:12:04.796875
1404,-128.55,2022-10-28 11:12:04.812500
1405,-119.99,2022-10-28 11:12:04.828125
1406,-112.26,2022-10-28 11:12:04.843750
1407,-105.9,2022-10-28 11:12:04.859375
1408,-102.12,2022-10-28 11:12:04.875000
1409,-101.85,2022-10-28 11:12:04.890625
1410,-104.73,2022-10-28 11:12:04.906250
1411,-108.3,2022-10-28 11:12:04.921875
1412,-108.11,2022-10-28 11:12:04.937500
1413,-99.43,2022-10-28 11:12:04.953125
1414,-79.52,2022-10-28 11:12:04.968750
1415,-49.61,2022-10-28 11:12:04.984375
1416,-15.03,2022-10-28 11:12:05.000000
1417,16.62,2022-10-28 11:12:05.015625
1418,38.56,2022-10-28 11:12:05.031250
1419,47.56,2022-10-28 11:12:05.046875
1420,44.86,2022-10-28 11:12:05.062500
1421,35.06,2022-10-28 11:12:05.078125
1422,23.55,2022-10-28 11:12:05.093750
1423,13.95,2022-10-28 11:12:05.109375
1424,7.15,2022-10-28 11:12:05.125000
1425,1.78,2022-10-28 11:12:05.140625
1426,-4.13,2022-10-28 11:12:05.156250
1427,-11.86,2022-10-28 11:12:05.171875
1428,-21.37,2022-10-28 11:12:05.187500
1429,-31.73,2022-10-28 11:12:05.203125
1430,-41.91,2022-10-28 11:12:05.218750
1431,-51.31,2022-10-28 11:12:05.234375
1432,-59.66,2022-10-28 11:12:05.250000
1433,-66.57,2022-10-28 11:12:05.265625
1434,-71.35,2022-10-28 11:12:05.281250
1435,-72.97,2022-10-28 11:12:05.296875
1436,-70.51,2022-10-28 11:12:05.312500
1437,-63.67,2022-10-28 11:12:05.328125
1438,-53.12,2022-10-28 11:12:05.343750
1439,-40.54,2022-10-28 11:12:05.359375
1440,-28.24,2022-10-28 11:12:05.375000
1441,-18.65,2022-10-28 11:12:05.390625
1442,-13.61,2022-10-28 11:12:05.406250
1443,-14.0,2022-10-28 11:12:05.421875
1444,-19.48,2022-10-28 11:12:05.437500
1445,-28.7,2022-10-28 11:12:05.453125
1446,-39.81,2022-10-28 11:12:05.468750
1447,-50.99,2022-10-28 11:12:05.484375
1448,-61.07,2022-10-28 11:12:05.500000
1449,-69.63,2022-10-28 11:12:05.515625
1450,-76.91,2022-10-28 11:12:05.531250
1451,-83.2,2022-10-28 11:12:05.546875
1452,-88.41,2022-10-28 11:12:05.562500
1453,-91.6,2022-10-28 11:12:05.578125
1454,-91.07,2022-10-28 11:12:05.593750
1455,-84.95,2022-10-28 11:12:05.609375
1456,-71.9,2022-10-28 11:12:05.625000
1457,-51.88,2022-10-28 11:12:05.640625
1458,-26.34,2022-10-28 11:12:05.656250
1459,2.04,2022-10-28 11:12:05.671875
1460,30.29,2022-10-28 11:12:05.687500
1461,55.99,2022-10-28 11:12:05.703125
1462,77.89,2022-10-28 11:12:05.718750
1463,95.91,2022-10-28 11:12:05.734375
1464,110.56,2022-10-28 11:12:05.750000
1465,122.43,2022-10-28 11:12:05.765625
1466,131.74,2022-10-28 11:12:05.781250
1467,138.59,2022-10-28 11:12:05.796875
1468,143.26,2022-10-28 11:12:05.812500
1469,146.58,2022-10-28 11:12:05.828125
1470,149.66,2022-10-28 11:12:05.843750
1471,153.42,2022-10-28 11:12:05.859375
1472,157.99,2022-10-28 11:12:05.875000
1473,162.41,2022-10-28 11:12:05.890625
1474,165.15,2022-10-28 11:12:05.906250
1475,164.76,2022-10-28 11:12:05.921875
1476,160.63,2022-10-28 11:12:05.937500
1477,153.28,2022-10-28 11:12:05.953125
1478,144.01,2022-10-28 11:12:05.968750
1479,134.22,2022-10-28 11:12:05.984375
1480,124.82,2022-10-28 11:12:06.000000
1481,115.97,2022-10-28 11:12:06.015625
1482,107.12,2022-10-28 11:12:06.031250
1483,97.41,2022-10-28 11:12:06.046875
1484,85.75,2022-10-28 11:12:06.062500
1485,71.23,2022-10-28 11:12:06.078125
1486,53.34,2022-10-28 11:12:06.093750
1487,32.5,2022-10-28 11:12:06.109375
1488,10.47,2022-10-28 11:12:06.125000
1489,-9.57,2022-10-28 11:12:06.140625
1490,-23.58,2022-10-28 11:12:06.156250
1491,-27.84,2022-10-28 11:12:06.171875
1492,-20.09,2022-10-28 11:12:06.187500
1493,-0.35,2022-10-28 11:12:06.203125
1494,29.18,2022-10-28 11:12:06.218750
1495,64.89,2022-10-28 11:12:06.234375
1496,102.9,2022-10-28 11:12:06.250000
1497,140.03,2022-10-28 11:12:06.265625
1498,174.05,2022-10-28 11:12:06.281250
1499,203.71,2022-10-28 11:12:06.296875
1500,228.26,2022-10-28 11:12:06.312500
1501,247.29,2022-10-28 11:12:06.328125
1502,260.59,2022-10-28 11:12:06.343750
1503,268.36,2022-10-28 11:12:06.359375
1504,271.28,2022-10-28 11:12:06.375000
1505,270.49,2022-10-28 11:12:06.390625
1506,267.38,2022-10-28 11:12:06.406250
1507,263.17,2022-10-28 11:12:06.421875
1508,258.54,2022-10-28 11:12:06.437500
1509,253.43,2022-10-28 11:12:06.453125
1510,247.17,2022-10-28 11:12:06.468750
1511,239.02,2022-10-28 11:12:06.484375
1512,228.75,2022-10-28 11:12:06.500000
1513,217.1,2022-10-28 11:12:06.515625
1514,205.55,2022-10-28 11:12:06.531250
1515,195.73,2022-10-28 11:12:06.546875
1516,188.6,2022-10-28 11:12:06.562500
1517,184.15,2022-10-28 11:12:06.578125
1518,181.43,2022-10-28 11:12:06.593750
1519,179.38,2022-10-28 11:12:06.609375
1520,177.46,2022-10-28 11:12:06.625000
1521,176.05,2022-10-28 11:12:06.640625
1522,176.25,2022-10-28 11:12:06.656250
1523,179.19,2022-10-28 11:12:06.671875
1524,185.35,2022-10-28 11:12:06.687500
1525,194.13,2022-10-28 11:12:06.703125
1526,204.04,2022-10-28 11:12:06.718750
1527,213.13,2022-10-28 11:12:06.734375
1528,219.71,2022-10-28 11:12:06.750000
1529,222.79,2022-10-28 11:12:06.765625
1530,222.12,2022-10-28 11:12:06.781250
1531,217.92,2022-10-28 11:12:06.796875
1532,210.45,2022-10-28 11:12:06.812500
1533,199.69,2022-10-28 11:12:06.828125
1534,185.33,2022-10-28 11:12:06.843750
1535,167.08,2022-10-28 11:12:06.859375
1536,145.04,2022-10-28 11:12:06.875000
1537,120.04,2022-10-28 11:12:06.890625
1538,93.52,2022-10-28 11:12:06.906250
1539,67.16,2022-10-28 11:12:06.921875
1540,42.37,2022-10-28 11:12:06.937500
1541,19.93,2022-10-28 11:12:06.953125
1542,-0.02,2022-10-28 11:12:06.968750
1543,-17.7,2022-10-28 11:12:06.984375
1544,-33.25,2022-10-28 11:12:07.000000
1545,-46.38,2022-10-28 11:12:07.015625
1546,-56.35,2022-10-28 11:12:07.031250
1547,-62.14,2022-10-28 11:12:07.046875
1548,-62.92,2022-10-28 11:12:07.062500
1549,-58.47,2022-10-28 11:12:07.078125
1550,-49.66,2022-10-28 11:12:07.093750
1551,-38.3,2022-10-28 11:12:07.109375
1552,-26.86,2022-10-28 11:12:07.125000
1553,-17.75,2022-10-28 11:12:07.140625
1554,-12.64,2022-10-28 11:12:07.156250
1555,-12.1,2022-10-28 11:12:07.171875
1556,-15.76,2022-10-28 11:12:07.187500
1557,-22.68,2022-10-28 11:12:07.203125
1558,-31.98,2022-10-28 11:12:07.218750
1559,-43.27,2022-10-28 11:12:07.234375
1560,-56.75,2022-10-28 11:12:07.250000
1561,-73.09,2022-10-28 11:12:07.265625
1562,-93.45,2022-10-28 11:12:07.281250
1563,-119.23,2022-10-28 11:12:07.296875
1564,-151.63,2022-10-28 11:12:07.312500
1565,-190.58,2022-10-28 11:12:07.328125
1566,-233.38,2022-10-28 11:12:07.343750
1567,-273.97,2022-10-28 11:12:07.359375
1568,-303.55,2022-10-28 11:12:07.375000
1569,-313.05,2022-10-28 11:12:07.390625
1570,-296.33,2022-10-28 11:12:07.406250
1571,-252.81,2022-10-28 11:12:07.421875
1572,-187.89,2022-10-28 11:12:07.437500
1573,-110.95,2022-10-28 11:12:07.453125
1574,-32.14,2022-10-28 11:12:07.468750
1575,40.69,2022-10-28 11:12:07.484375
1576,103.33,2022-10-28 11:12:07.500000
1577,154.86,2022-10-28 11:12:07.515625
1578,195.93,2022-10-28 11:12:07.531250
1579,227.28,2022-10-28 11:12:07.546875
1580,248.88,2022-10-28 11:12:07.562500
1581,260.05,2022-10-28 11:12:07.578125
1582,260.17,2022-10-28 11:12:07.593750
1583,249.16,2022-10-28 11:12:07.609375
1584,227.67,2022-10-28 11:12:07.625000
1585,196.86,2022-10-28 11:12:07.640625
1586,158.09,2022-10-28 11:12:07.656250
1587,112.9,2022-10-28 11:12:07.671875
1588,63.33,2022-10-28 11:12:07.687500
1589,12.44,2022-10-28 11:12:07.703125
1590,-35.55,2022-10-28 11:12:07.718750
1591,-75.6,2022-10-28 11:12:07.734375
1592,-103.13,2022-10-28 11:12:07.750000
1593,-115.59,2022-10-28 11:12:07.765625
1594,-113.57,2022-10-28 11:12:07.781250
1595,-100.77,2022-10-28 11:12:07.796875
1596,-82.53,2022-10-28 11:12:07.812500
1597,-63.82,2022-10-28 11:12:07.828125
1598,-47.78,2022-10-28 11:12:07.843750
1599,-35.51,2022-10-28 11:12:07.859375
1600,-27.25,2022-10-28 11:12:07.875000
1601,-23.45,2022-10-28 11:12:07.890625
1602,-25.29,2022-10-28 11:12:07.906250
1603,-33.91,2022-10-28 11:12:07.921875
1604,-49.2,2022-10-28 11:12:07.937500
1605,-69.08,2022-10-28 11:12:07.953125
1606,-89.79,2022-10-28 11:12:07.968750
1607,-107.35,2022-10-28 11:12:07.984375
1608,-119.09,2022-10-28 11:12:08.000000
1609,-124.52,2022-10-28 11:12:08.015625
1610,-125.09,2022-10-28 11:12:08.031250
1611,-123.02,2022-10-28 11:12:08.046875
1612,-119.96,2022-10-28 11:12:08.062500
1613,-116.25,2022-10-28 11:12:08.078125
1614,-111.16,2022-10-28 11:12:08.093750
1615,-103.9,2022-10-28 11:12:08.109375
1616,-94.7,2022-10-28 11:12:08.125000
1617,-85.43,2022-10-28 11:12:08.140625
1618,-79.21,2022-10-28 11:12:08.156250
1619,-79.39,2022-10-28 11:12:08.171875
1620,-88.31,2022-10-28 11:12:08.187500
1621,-106.22,2022-10-28 11:12:08.203125
1622,-131.06,2022-10-28 11:12:08.218750
1623,-159.11,2022-10-28 11:12:08.234375
1624,-186.03,2022-10-28 11:12:08.250000
1625,-208.12,2022-10-28 11:12:08.265625
1626,-222.73,2022-10-28 11:12:08.281250
1627,-228.67,2022-10-28 11:12:08.296875
1628,-226.17,2022-10-28 11:12:08.312500
1629,-216.89,2022-10-28 11:12:08.328125
1630,-203.39,2022-10-28 11:12:08.343750
1631,-188.51,2022-10-28 11:12:08.359375
1632,-174.8,2022-10-28 11:12:08.375000
1633,-163.99,2022-10-28 11:12:08.390625
1634,-156.98,2022-10-28 11:12:08.406250
1635,-153.96,2022-10-28 11:12:08.421875
1636,-154.65,2022-10-28 11:12:08.437500
1637,-158.72,2022-10-28 11:12:08.453125
1638,-166.21,2022-10-28 11:12:08.468750
1639,-176.99,2022-10-28 11:12:08.484375
1640,-190.6,2022-10-28 11:12:08.500000
1641,-206.3,2022-10-28 11:12:08.515625
1642,-223.18,2022-10-28 11:12:08.531250
1643,-240.7,2022-10-28 11:12:08.546875
1644,-258.55,2022-10-28 11:12:08.562500
1645,-276.38,2022-10-28 11:12:08.578125
1646,-293.69,2022-10-28 11:12:08.593750
1647,-310.37,2022-10-28 11:12:08.609375
1648,-325.5,2022-10-28 11:12:08.625000
1649,-337.32,2022-10-28 11:12:08.640625
1650,-343.81,2022-10-28 11:12:08.656250
1651,-343.15,2022-10-28 11:12:08.671875
1652,-335.57,2022-10-28 11:12:08.687500
1653,-322.72,2022-10-28 11:12:08.703125
1654,-307.12,2022-10-28 11:12:08.718750
1655,-291.72,2022-10-28 11:12:08.734375
1656,-280.68,2022-10-28 11:12:08.750000
1657,-276.48,2022-10-28 11:12:08.765625
1658,-279.03,2022-10-28 11:12:08.781250
1659,-285.84,2022-10-28 11:12:08.796875
1660,-292.48,2022-10-28 11:12:08.812500
1661,-295.67,2022-10-28 11:12:08.828125
1662,-292.58,2022-10-28 11:12:08.843750
1663,-280.92,2022-10-28 11:12:08.859375
1664,-259.68,2022-10-28 11:12:08.875000
1665,-231.65,2022-10-28 11:12:08.890625
1666,-199.64,2022-10-28 11:12:08.906250
1667,-165.41,2022-10-28 11:12:08.921875
1668,-129.93,2022-10-28 11:12:08.937500
1669,-93.36,2022-10-28 11:12:08.953125
1670,-59.0,2022-10-28 11:12:08.968750
1671,-30.18,2022-10-28 11:12:08.984375
1672,-8.57,2022-10-28 11:12:09.000000
1673,6.12,2022-10-28 11:12:09.015625
1674,12.94,2022-10-28 11:12:09.031250
1675,13.49,2022-10-28 11:12:09.046875
1676,11.57,2022-10-28 11:12:09.062500
1677,11.29,2022-10-28 11:12:09.078125
1678,16.25,2022-10-28 11:12:09.093750
1679,24.41,2022-10-28 11:12:09.109375
1680,32.29,2022-10-28 11:12:09.125000
1681,37.03,2022-10-28 11:12:09.140625
1682,58.3,2022-10-28 11:12:09.156250
1683,103.01,2022-10-28 11:12:09.171875
1684,163.77,2022-10-28 11:12:09.187500
1685,224.04,2022-10-28 11:12:09.203125
1686,260.64,2022-10-28 11:12:09.218750
1687,278.98,2022-10-28 11:12:09.234375
1688,287.6,2022-10-28 11:12:09.250000
1689,292.86,2022-10-28 11:12:09.265625
1690,300.17,2022-10-28 11:12:09.281250
1691,309.26,2022-10-28 11:12:09.296875
1692,313.34,2022-10-28 11:12:09.312500
1693,305.66,2022-10-28 11:12:09.328125
1694,282.66,2022-10-28 11:12:09.343750
1695,245.14,2022-10-28 11:12:09.359375
1696,198.71,2022-10-28 11:12:09.375000
1697,148.01,2022-10-28 11:12:09.390625
1698,98.37,2022-10-28 11:12:09.406250
1699,55.59,2022-10-28 11:12:09.421875
1700,24.38,2022-10-28 11:12:09.437500
1701,5.79,2022-10-28 11:12:09.453125
1702,0.49,2022-10-28 11:12:09.468750
1703,9.6,2022-10-28 11:12:09.484375
1704,33.89,2022-10-28 11:12:09.500000
1705,73.33,2022-10-28 11:12:09.515625
1706,122.66,2022-10-28 11:12:09.531250
1707,174.28,2022-10-28 11:12:09.546875
1708,220.08,2022-10-28 11:12:09.562500
1709,252.92,2022-10-28 11:12:09.578125
1710,266.91,2022-10-28 11:12:09.593750
1711,260.82,2022-10-28 11:12:09.609375
1712,239.05,2022-10-28 11:12:09.625000
1713,210.22,2022-10-28 11:12:09.640625
1714,185.02,2022-10-28 11:12:09.656250
1715,170.96,2022-10-28 11:12:09.671875
1716,171.85,2022-10-28 11:12:09.687500
1717,187.44,2022-10-28 11:12:09.703125
1718,213.81,2022-10-28 11:12:09.718750
1719,244.43,2022-10-28 11:12:09.734375
1720,272.92,2022-10-28 11:12:09.750000
1721,294.74,2022-10-28 11:12:09.765625
1722,307.54,2022-10-28 11:12:09.781250
1723,310.98,2022-10-28 11:12:09.796875
1724,305.0,2022-10-28 11:12:09.812500
1725,290.17,2022-10-28 11:12:09.828125
1726,267.78,2022-10-28 11:12:09.843750
1727,239.75,2022-10-28 11:12:09.859375
1728,208.34,2022-10-28 11:12:09.875000
1729,176.2,2022-10-28 11:12:09.890625
1730,145.95,2022-10-28 11:12:09.906250
1731,119.48,2022-10-28 11:12:09.921875
1732,97.56,2022-10-28 11:12:09.937500
1733,79.38,2022-10-28 11:12:09.953125
1734,63.3,2022-10-28 11:12:09.968750
1735,47.62,2022-10-28 11:12:09.984375
1736,31.31,2022-10-28 11:12:10.000000
1737,14.39,2022-10-28 11:12:10.015625
1738,-2.19,2022-10-28 11:12:10.031250
1739,-17.03,2022-10-28 11:12:10.046875
1740,-29.01,2022-10-28 11:12:10.062500
1741,-37.74,2022-10-28 11:12:10.078125
1742,-43.65,2022-10-28 11:12:10.093750
1743,-47.75,2022-10-28 11:12:10.109375
1744,-50.97,2022-10-28 11:12:10.125000
1745,-53.68,2022-10-28 11:12:10.140625
1746,-55.55,2022-10-28 11:12:10.156250
1747,-55.79,2022-10-28 11:12:10.171875
1748,-53.67,2022-10-28 11:12:10.187500
1749,-48.94,2022-10-28 11:12:10.203125
1750,-42.06,2022-10-28 11:12:10.218750
1751,-34.2,2022-10-28 11:12:10.234375
1752,-26.82,2022-10-28 11:12:10.250000
1753,-21.37,2022-10-28 11:12:10.265625
1754,-18.87,2022-10-28 11:12:10.281250
1755,-19.77,2022-10-28 11:12:10.296875
1756,-23.75,2022-10-28 11:12:10.312500
1757,-29.89,2022-10-28 11:12:10.328125
1758,-36.88,2022-10-28 11:12:10.343750
1759,-43.25,2022-10-28 11:12:10.359375
1760,-47.79,2022-10-28 11:12:10.375000
1761,-49.73,2022-10-28 11:12:10.390625
1762,-48.91,2022-10-28 11:12:10.406250
1763,-45.74,2022-10-28 11:12:10.421875
1764,-41.14,2022-10-28 11:12:10.437500
1765,-36.33,2022-10-28 11:12:10.453125
1766,-32.52,2022-10-28 11:12:10.468750
1767,-30.7,2022-10-28 11:12:10.484375
1768,-31.27,2022-10-28 11:12:10.500000
1769,-34.0,2022-10-28 11:12:10.515625
1770,-38.07,2022-10-28 11:12:10.531250
1771,-42.36,2022-10-28 11:12:10.546875
1772,-45.81,2022-10-28 11:12:10.562500
1773,-47.7,2022-10-28 11:12:10.578125
1774,-47.82,2022-10-28 11:12:10.593750
1775,-46.38,2022-10-28 11:12:10.609375
1776,-43.98,2022-10-28 11:12:10.625000
1777,-41.28,2022-10-28 11:12:10.640625
1778,-38.95,2022-10-28 11:12:10.656250
1779,-37.34,2022-10-28 11:12:10.671875
1780,-36.52,2022-10-28 11:12:10.687500
1781,-36.22,2022-10-28 11:12:10.703125
1782,-36.02,2022-10-28 11:12:10.718750
1783,-35.56,2022-10-28 11:12:10.734375
1784,-34.65,2022-10-28 11:12:10.750000
1785,-33.35,2022-10-28 11:12:10.765625
1786,-31.84,2022-10-28 11:12:10.781250
1787,-30.24,2022-10-28 11:12:10.796875
1788,-28.58,2022-10-28 11:12:10.812500
1789,-26.78,2022-10-28 11:12:10.828125
1790,-24.82,2022-10-28 11:12:10.843750
1791,-22.9,2022-10-28 11:12:10.859375
1792,-21.51,2022-10-28 11:12:10.875000
1793,-21.37,2022-10-28 11:12:10.890625
1794,-23.25,2022-10-28 11:12:10.906250
1795,-27.65,2022-10-28 11:12:10.921875
1796,-34.56,2022-10-28 11:12:10.937500
1797,-43.38,2022-10-28 11:12:10.953125
1798,-52.98,2022-10-28 11:12:10.968750
1799,-62.03,2022-10-28 11:12:10.984375
1800,-69.42,2022-10-28 11:12:11.000000
1801,-74.71,2022-10-28 11:12:11.015625
1802,-78.23,2022-10-28 11:12:11.031250
1803,-81.0,2022-10-28 11:12:11.046875
1804,-84.16,2022-10-28 11:12:11.062500
1805,-88.48,2022-10-28 11:12:11.078125
1806,-93.9,2022-10-28 11:12:11.093750
1807,-99.39,2022-10-28 11:12:11.109375
1808,-103.31,2022-10-28 11:12:11.125000
1809,-103.84,2022-10-28 11:12:11.140625
1810,-99.62,2022-10-28 11:12:11.156250
1811,-90.08,2022-10-28 11:12:11.171875
1812,-75.56,2022-10-28 11:12:11.187500
1813,-57.19,2022-10-28 11:12:11.203125
1814,-36.67,2022-10-28 11:12:11.218750
1815,-15.99,2022-10-28 11:12:11.234375
1816,2.99,2022-10-28 11:12:11.250000
1817,18.8,2022-10-28 11:12:11.265625
1818,30.85,2022-10-28 11:12:11.281250
1819,39.52,2022-10-28 11:12:11.296875
1820,46.04,2022-10-28 11:12:11.312500
1821,52.01,2022-10-28 11:12:11.328125
1822,58.68,2022-10-28 11:12:11.343750
1823,66.43,2022-10-28 11:12:11.359375
1824,74.56,2022-10-28 11:12:11.375000
1825,81.66,2022-10-28 11:12:11.390625
1826,86.27,2022-10-28 11:12:11.406250
1827,87.57,2022-10-28 11:12:11.421875
1828,85.77,2022-10-28 11:12:11.437500
1829,81.98,2022-10-28 11:12:11.453125
1830,77.7,2022-10-28 11:12:11.468750
1831,74.22,2022-10-28 11:12:11.484375
1832,72.19,2022-10-28 11:12:11.500000
1833,71.58,2022-10-28 11:12:11.515625
1834,71.96,2022-10-28 11:12:11.531250
1835,72.72,2022-10-28 11:12:11.546875
1836,73.39,2022-10-28 11:12:11.562500
1837,73.64,2022-10-28 11:12:11.578125
1838,73.21,2022-10-28 11:12:11.593750
1839,71.87,2022-10-28 11:12:11.609375
1840,69.37,2022-10-28 11:12:11.625000
1841,65.6,2022-10-28 11:12:11.640625
1842,60.6,2022-10-28 11:12:11.656250
1843,54.6,2022-10-28 11:12:11.671875
1844,47.93,2022-10-28 11:12:11.687500
1845,40.91,2022-10-28 11:12:11.703125
1846,33.78,2022-10-28 11:12:11.718750
1847,26.7,2022-10-28 11:12:11.734375
1848,19.84,2022-10-28 11:12:11.750000
1849,13.34,2022-10-28 11:12:11.765625
1850,7.37,2022-10-28 11:12:11.781250
1851,2.02,2022-10-28 11:12:11.796875
1852,-2.73,2022-10-28 11:12:11.812500
1853,-7.05,2022-10-28 11:12:11.828125
1854,-11.12,2022-10-28 11:12:11.843750
1855,-15.1,2022-10-28 11:12:11.859375
1856,-18.88,2022-10-28 11:12:11.875000
1857,-22.03,2022-10-28 11:12:11.890625
1858,-23.82,2022-10-28 11:12:11.906250
1859,-23.28,2022-10-28 11:12:11.921875
1860,-19.59,2022-10-28 11:12:11.937500
1861,-12.27,2022-10-28 11:12:11.953125
1862,-1.45,2022-10-28 11:12:11.968750
1863,12.12,2022-10-28 11:12:11.984375
1864,27.27,2022-10-28 11:12:12.000000
1865,42.75,2022-10-28 11:12:12.015625
1866,57.5,2022-10-28 11:12:12.031250
1867,70.78,2022-10-28 11:12:12.046875
1868,82.15,2022-10-28 11:12:12.062500
1869,91.36,2022-10-28 11:12:12.078125
1870,98.24,2022-10-28 11:12:12.093750
1871,102.79,2022-10-28 11:12:12.109375
1872,105.3,2022-10-28 11:12:12.125000
1873,106.46,2022-10-28 11:12:12.140625
1874,107.3,2022-10-28 11:12:12.156250
1875,108.8,2022-10-28 11:12:12.171875
1876,111.45,2022-10-28 11:12:12.187500
1877,115.1,2022-10-28 11:12:12.203125
1878,118.95,2022-10-28 11:12:12.218750
1879,122.0,2022-10-28 11:12:12.234375
1880,123.53,2022-10-28 11:12:12.250000
1881,123.31,2022-10-28 11:12:12.265625
1882,121.49,2022-10-28 11:12:12.281250
1883,118.08,2022-10-28 11:12:12.296875
1884,112.45,2022-10-28 11:12:12.312500
1885,103.02,2022-10-28 11:12:12.328125
1886,87.69,2022-10-28 11:12:12.343750
1887,64.65,2022-10-28 11:12:12.359375
1888,33.37,2022-10-28 11:12:12.375000
1889,-4.99,2022-10-28 11:12:12.390625
1890,-47.65,2022-10-28 11:12:12.406250
1891,-91.15,2022-10-28 11:12:12.421875
1892,-132.54,2022-10-28 11:12:12.437500
1893,-170.15,2022-10-28 11:12:12.453125
1894,-203.94,2022-10-28 11:12:12.468750
1895,-235.01,2022-10-28 11:12:12.484375
1896,-264.79,2022-10-28 11:12:12.500000
1897,-294.52,2022-10-28 11:12:12.515625
1898,-325.14,2022-10-28 11:12:12.531250
1899,-357.43,2022-10-28 11:12:12.546875
1900,-391.86,2022-10-28 11:12:12.562500
1901,-427.78,2022-10-28 11:12:12.578125
1902,-462.46,2022-10-28 11:12:12.593750
1903,-490.61,2022-10-28 11:12:12.609375
1904,-505.41,2022-10-28 11:12:12.625000
1905,-500.51,2022-10-28 11:12:12.640625
1906,-472.49,2022-10-28 11:12:12.656250
1907,-422.41,2022-10-28 11:12:12.671875
1908,-355.63,2022-10-28 11:12:12.687500
1909,-279.88,2022-10-28 11:12:12.703125
1910,-202.86,2022-10-28 11:12:12.718750
1911,-130.29,2022-10-28 11:12:12.734375
1912,-65.3,2022-10-28 11:12:12.750000
1913,-8.93,2022-10-28 11:12:12.765625
1914,38.94,2022-10-28 11:12:12.781250
1915,79.16,2022-10-28 11:12:12.796875
1916,113.4,2022-10-28 11:12:12.812500
1917,144.45,2022-10-28 11:12:12.828125
1918,176.27,2022-10-28 11:12:12.843750
1919,213.35,2022-10-28 11:12:12.859375
1920,259.23,2022-10-28 11:12:12.875000
1921,314.46,2022-10-28 11:12:12.890625
1922,375.22,2022-10-28 11:12:12.906250
1923,433.38,2022-10-28 11:12:12.921875
1924,478.73,2022-10-28 11:12:12.937500
1925,502.82,2022-10-28 11:12:12.953125
1926,502.61,2022-10-28 11:12:12.968750
1927,482.05,2022-10-28 11:12:12.984375
1928,450.61,2022-10-28 11:12:13.000000
1929,419.34,2022-10-28 11:12:13.015625
1930,396.27,2022-10-28 11:12:13.031250
1931,383.63,2022-10-28 11:12:13.046875
1932,377.98,2022-10-28 11:12:13.062500
1933,372.98,2022-10-28 11:12:13.078125
1934,362.99,2022-10-28 11:12:13.093750
1935,345.49,2022-10-28 11:12:13.109375
1936,321.26,2022-10-28 11:12:13.125000
1937,292.63,2022-10-28 11:12:13.140625
1938,261.36,2022-10-28 11:12:13.156250
1939,227.46,2022-10-28 11:12:13.171875
1940,189.36,2022-10-28 11:12:13.187500
1941,145.26,2022-10-28 11:12:13.203125
1942,94.53,2022-10-28 11:12:13.218750
1943,38.59,2022-10-28 11:12:13.234375
1944,-19.51,2022-10-28 11:12:13.250000
1945,-76.21,2022-10-28 11:12:13.265625
1946,-129.11,2022-10-28 11:12:13.281250
1947,-177.99,2022-10-28 11:12:13.296875
1948,-224.85,2022-10-28 11:12:13.312500
1949,-272.91,2022-10-28 11:12:13.328125
1950,-325.42,2022-10-28 11:12:13.343750
1951,-384.53,2022-10-28 11:12:13.359375
1952,-450.6,2022-10-28 11:12:13.375000
1953,-521.57,2022-10-28 11:12:13.390625
1954,-592.68,2022-10-28 11:12:13.406250
1955,-656.73,2022-10-28 11:12:13.421875
1956,-705.3,2022-10-28 11:12:13.437500
1957,-730.96,2022-10-28 11:12:13.453125
1958,-729.77,2022-10-28 11:12:13.468750
1959,-702.77,2022-10-28 11:12:13.484375
1960,-655.56,2022-10-28 11:12:13.500000
1961,-595.89,2022-10-28 11:12:13.515625
1962,-530.68,2022-10-28 11:12:13.531250
1963,-463.96,2022-10-28 11:12:13.546875
1964,-396.72,2022-10-28 11:12:13.562500
1965,-328.57,2022-10-28 11:12:13.578125
1966,-259.87,2022-10-28 11:12:13.593750
1967,-192.74,2022-10-28 11:12:13.609375
1968,-130.16,2022-10-28 11:12:13.625000
1969,-74.16,2022-10-28 11:12:13.640625
1970,-24.33,2022-10-28 11:12:13.656250
1971,22.41,2022-10-28 11:12:13.671875
1972,70.06,2022-10-28 11:12:13.687500
1973,121.55,2022-10-28 11:12:13.703125
1974,177.4,2022-10-28 11:12:13.718750
1975,236.05,2022-10-28 11:12:13.734375
1976,295.1,2022-10-28 11:12:13.750000
1977,352.71,2022-10-28 11:12:13.765625
1978,407.86,2022-10-28 11:12:13.781250
1979,459.32,2022-10-28 11:12:13.796875
1980,504.54,2022-10-28 11:12:13.812500
1981,539.25,2022-10-28 11:12:13.828125
1982,558.42,2022-10-28 11:12:13.843750
1983,558.39,2022-10-28 11:12:13.859375
1984,538.58,2022-10-28 11:12:13.875000
1985,501.54,2022-10-28 11:12:13.890625
1986,451.67,2022-10-28 11:12:13.906250
1987,393.2,2022-10-28 11:12:13.921875
1988,329.57,2022-10-28 11:12:13.937500
1989,264.4,2022-10-28 11:12:13.953125
1990,203.62,2022-10-28 11:12:13.968750
1991,156.38,2022-10-28 11:12:13.984375
1992,133.24,2022-10-28 11:12:14.000000
1993,141.72,2022-10-28 11:12:14.015625
1994,181.58,2022-10-28 11:12:14.031250
1995,242.8,2022-10-28 11:12:14.046875
1996,308.12,2022-10-28 11:12:14.062500
1997,359.28,2022-10-28 11:12:14.078125
1998,383.97,2022-10-28 11:12:14.093750
1999,379.73,2022-10-28 11:12:14.109375
2000,353.43,2022-10-28 11:12:14.125000
2001,316.44,2022-10-28 11:12:14.140625
2002,278.85,2022-10-28 11:12:14.156250
2003,245.61,2022-10-28 11:12:14.171875
2004,216.31,2022-10-28 11:12:14.187500
2005,187.66,2022-10-28 11:12:14.203125
2006,156.81,2022-10-28 11:12:14.218750
2007,123.23,2022-10-28 11:12:14.234375
2008,88.52,2022-10-28 11:12:14.250000
2009,54.68,2022-10-28 11:12:14.265625
2010,22.43,2022-10-28 11:12:14.281250
2011,-9.64,2022-10-28 11:12:14.296875
2012,-44.14,2022-10-28 11:12:14.312500
2013,-83.42,2022-10-28 11:12:14.328125
2014,-128.13,2022-10-28 11:12:14.343750
2015,-176.65,2022-10-28 11:12:14.359375
2016,-225.9,2022-10-28 11:12:14.375000
2017,-273.14,2022-10-28 11:12:14.390625
2018,-317.7,2022-10-28 11:12:14.406250
2019,-361.67,2022-10-28 11:12:14.421875
2020,-408.34,2022-10-28 11:12:14.437500
2021,-459.57,2022-10-28 11:12:14.453125
2022,-513.09,2022-10-28 11:12:14.468750
2023,-561.89,2022-10-28 11:12:14.484375
2024,-596.13,2022-10-28 11:12:14.500000
2025,-607.07,2022-10-28 11:12:14.515625
2026,-590.74,2022-10-28 11:12:14.531250
2027,-549.48,2022-10-28 11:12:14.546875
2028,-490.46,2022-10-28 11:12:14.562500
2029,-422.28,2022-10-28 11:12:14.578125
2030,-351.85,2022-10-28 11:12:14.593750
2031,-283.38,2022-10-28 11:12:14.609375
2032,-219.56,2022-10-28 11:12:14.625000
2033,-163.2,2022-10-28 11:12:14.640625
2034,-117.8,2022-10-28 11:12:14.656250
2035,-86.21,2022-10-28 11:12:14.671875
2036,-68.46,2022-10-28 11:12:14.687500
2037,-60.87,2022-10-28 11:12:14.703125
2038,-57.7,2022-10-28 11:12:14.718750
2039,-54.46,2022-10-28 11:12:14.734375
2040,-50.91,2022-10-28 11:12:14.750000
2041,-51.26,2022-10-28 11:12:14.765625
2042,-61.2,2022-10-28 11:12:14.781250
2043,-83.65,2022-10-28 11:12:14.796875
2044,-115.61,2022-10-28 11:12:14.812500
2045,-148.3,2022-10-28 11:12:14.828125
2046,-170.74,2022-10-28 11:12:14.843750
2047,-174.31,2022-10-28 11:12:14.859375
2048,-155.92,2022-10-28 11:12:14.875000
2049,-118.02,2022-10-28 11:12:14.890625
2050,-66.29,2022-10-28 11:12:14.906250
2051,-7.03,2022-10-28 11:12:14.921875
2052,54.2,2022-10-28 11:12:14.937500
2053,112.72,2022-10-28 11:12:14.953125
2054,164.56,2022-10-28 11:12:14.968750
2055,206.68,2022-10-28 11:12:14.984375
2056,237.82,2022-10-28 11:12:15.000000
2057,258.87,2022-10-28 11:12:15.015625
2058,272.26,2022-10-28 11:12:15.031250
2059,280.06,2022-10-28 11:12:15.046875
2060,282.3,2022-10-28 11:12:15.062500
2061,276.51,2022-10-28 11:12:15.078125
2062,259.23,2022-10-28 11:12:15.093750
2063,228.48,2022-10-28 11:12:15.109375
2064,185.39,2022-10-28 11:12:15.125000
2065,134.32,2022-10-28 11:12:15.140625
2066,81.18,2022-10-28 11:12:15.156250
2067,31.17,2022-10-28 11:12:15.171875
2068,-12.67,2022-10-28 11:12:15.187500
2069,-49.42,2022-10-28 11:12:15.203125
2070,-79.32,2022-10-28 11:12:15.218750
2071,-102.64,2022-10-28 11:12:15.234375
2072,-119.53,2022-10-28 11:12:15.250000
2073,-130.47,2022-10-28 11:12:15.265625
2074,-136.89,2022-10-28 11:12:15.281250
2075,-141.22,2022-10-28 11:12:15.296875
2076,-146.42,2022-10-28 11:12:15.312500
2077,-154.82,2022-10-28 11:12:15.328125
2078,-166.94,2022-10-28 11:12:15.343750
2079,-180.89,2022-10-28 11:12:15.359375
2080,-192.66,2022-10-28 11:12:15.375000
2081,-197.45,2022-10-28 11:12:15.390625
2082,-191.47,2022-10-28 11:12:15.406250
2083,-173.49,2022-10-28 11:12:15.421875
2084,-145.45,2022-10-28 11:12:15.437500
2085,-111.81,2022-10-28 11:12:15.453125
2086,-78.0,2022-10-28 11:12:15.468750
2087,-48.45,2022-10-28 11:12:15.484375
2088,-25.28,2022-10-28 11:12:15.500000
2089,-8.11,2022-10-28 11:12:15.515625
2090,5.13,2022-10-28 11:12:15.531250
2091,16.79,2022-10-28 11:12:15.546875
2092,28.32,2022-10-28 11:12:15.562500
2093,39.86,2022-10-28 11:12:15.578125
2094,50.5,2022-10-28 11:12:15.593750
2095,59.17,2022-10-28 11:12:15.609375
2096,65.34,2022-10-28 11:12:15.625000
2097,69.22,2022-10-28 11:12:15.640625
2098,71.46,2022-10-28 11:12:15.656250
2099,72.72,2022-10-28 11:12:15.671875
2100,73.22,2022-10-28 11:12:15.687500
2101,72.85,2022-10-28 11:12:15.703125
2102,71.4,2022-10-28 11:12:15.718750
2103,68.97,2022-10-28 11:12:15.734375
2104,65.98,2022-10-28 11:12:15.750000
2105,63.0,2022-10-28 11:12:15.765625
2106,60.4,2022-10-28 11:12:15.781250
2107,58.04,2022-10-28 11:12:15.796875
2108,55.36,2022-10-28 11:12:15.812500
2109,51.67,2022-10-28 11:12:15.828125
2110,46.55,2022-10-28 11:12:15.843750
2111,39.98,2022-10-28 11:12:15.859375
2112,32.37,2022-10-28 11:12:15.875000
2113,24.37,2022-10-28 11:12:15.890625
2114,16.58,2022-10-28 11:12:15.906250
2115,9.51,2022-10-28 11:12:15.921875
2116,3.31,2022-10-28 11:12:15.937500
2117,-2.23,2022-10-28 11:12:15.953125
2118,-7.76,2022-10-28 11:12:15.968750
2119,-14.13,2022-10-28 11:12:15.984375
2120,-22.07,2022-10-28 11:12:16.000000
2121,-31.62,2022-10-28 11:12:16.015625
2122,-41.71,2022-10-28 11:12:16.031250
2123,-50.19,2022-10-28 11:12:16.046875
2124,-54.4,2022-10-28 11:12:16.062500
2125,-52.07,2022-10-28 11:12:16.078125
2126,-42.24,2022-10-28 11:12:16.093750
2127,-25.76,2022-10-28 11:12:16.109375
2128,-4.99,2022-10-28 11:12:16.125000
2129,16.94,2022-10-28 11:12:16.140625
2130,37.13,2022-10-28 11:12:16.156250
2131,53.7,2022-10-28 11:12:16.171875
2132,65.88,2022-10-28 11:12:16.187500
2133,73.82,2022-10-28 11:12:16.203125
2134,78.07,2022-10-28 11:12:16.218750
2135,79.23,2022-10-28 11:12:16.234375
2136,77.84,2022-10-28 11:12:16.250000
2137,74.4,2022-10-28 11:12:16.265625
2138,69.48,2022-10-28 11:12:16.281250
2139,63.68,2022-10-28 11:12:16.296875
2140,57.52,2022-10-28 11:12:16.312500
2141,51.26,2022-10-28 11:12:16.328125
2142,44.98,2022-10-28 11:12:16.343750
2143,38.59,2022-10-28 11:12:16.359375
2144,32.17,2022-10-28 11:12:16.375000
2145,26.1,2022-10-28 11:12:16.390625
2146,21.0,2022-10-28 11:12:16.406250
2147,17.6,2022-10-28 11:12:16.421875
2148,16.36,2022-10-28 11:12:16.437500
2149,17.19,2022-10-28 11:12:16.453125
2150,19.44,2022-10-28 11:12:16.468750
2151,22.09,2022-10-28 11:12:16.484375
2152,24.07,2022-10-28 11:12:16.500000
2153,24.65,2022-10-28 11:12:16.515625
2154,23.59,2022-10-28 11:12:16.531250
2155,21.18,2022-10-28 11:12:16.546875
2156,17.95,2022-10-28 11:12:16.562500
2157,14.41,2022-10-28 11:12:16.578125
2158,10.77,2022-10-28 11:12:16.593750
2159,6.88,2022-10-28 11:12:16.609375
2160,2.27,2022-10-28 11:12:16.625000
2161,-3.63,2022-10-28 11:12:16.640625
2162,-11.18,2022-10-28 11:12:16.656250
2163,-20.27,2022-10-28 11:12:16.671875
2164,-30.08,2022-10-28 11:12:16.687500
2165,-39.16,2022-10-28 11:12:16.703125
2166,-45.69,2022-10-28 11:12:16.718750
2167,-47.98,2022-10-28 11:12:16.734375
2168,-44.94,2022-10-28 11:12:16.750000
2169,-36.39,2022-10-28 11:12:16.765625
2170,-23.05,2022-10-28 11:12:16.781250
2171,-6.35,2022-10-28 11:12:16.796875
2172,11.96,2022-10-28 11:12:16.812500
2173,30.03,2022-10-28 11:12:16.828125
2174,46.19,2022-10-28 11:12:16.843750
2175,59.12,2022-10-28 11:12:16.859375
2176,67.96,2022-10-28 11:12:16.875000
2177,72.47,2022-10-28 11:12:16.890625
2178,73.04,2022-10-28 11:12:16.906250
2179,70.52,2022-10-28 11:12:16.921875
2180,65.91,2022-10-28 11:12:16.937500
2181,60.09,2022-10-28 11:12:16.953125
2182,53.58,2022-10-28 11:12:16.968750
2183,46.67,2022-10-28 11:12:16.984375
2184,39.55,2022-10-28 11:12:17.000000
2185,32.57,2022-10-28 11:12:17.015625
2186,26.18,2022-10-28 11:12:17.031250
2187,20.87,2022-10-28 11:12:17.046875
2188,17.0,2022-10-28 11:12:17.062500
2189,14.64,2022-10-28 11:12:17.078125
2190,13.6,2022-10-28 11:12:17.093750
2191,13.42,2022-10-28 11:12:17.109375
2192,13.55,2022-10-28 11:12:17.125000
2193,13.42,2022-10-28 11:12:17.140625
2194,12.63,2022-10-28 11:12:17.156250
2195,10.97,2022-10-28 11:12:17.171875
2196,8.45,2022-10-28 11:12:17.187500
2197,5.25,2022-10-28 11:12:17.203125
2198,1.63,2022-10-28 11:12:17.218750
2199,-2.17,2022-10-28 11:12:17.234375
2200,-6.04,2022-10-28 11:12:17.250000
2201,-9.98,2022-10-28 11:12:17.265625
2202,-14.1,2022-10-28 11:12:17.281250
2203,-18.66,2022-10-28 11:12:17.296875
2204,-23.98,2022-10-28 11:12:17.312500
2205,-30.35,2022-10-28 11:12:17.328125
2206,-37.88,2022-10-28 11:12:17.343750
2207,-46.17,2022-10-28 11:12:17.359375
2208,-54.12,2022-10-28 11:12:17.375000
2209,-60.04,2022-10-28 11:12:17.390625
2210,-62.08,2022-10-28 11:12:17.406250
2211,-58.84,2022-10-28 11:12:17.421875
2212,-50.01,2022-10-28 11:12:17.437500
2213,-36.61,2022-10-28 11:12:17.453125
2214,-20.72,2022-10-28 11:12:17.468750
2215,-4.89,2022-10-28 11:12:17.484375
2216,8.61,2022-10-28 11:12:17.500000
2217,18.36,2022-10-28 11:12:17.515625
2218,23.83,2022-10-28 11:12:17.531250
2219,25.2,2022-10-28 11:12:17.546875
2220,23.08,2022-10-28 11:12:17.562500
2221,18.16,2022-10-28 11:12:17.578125
2222,11.33,2022-10-28 11:12:17.593750
2223,3.68,2022-10-28 11:12:17.609375
2224,-3.44,2022-10-28 11:12:17.625000
2225,-8.69,2022-10-28 11:12:17.640625
2226,-11.1,2022-10-28 11:12:17.656250
2227,-10.51,2022-10-28 11:12:17.671875
2228,-7.5,2022-10-28 11:12:17.687500
2229,-3.22,2022-10-28 11:12:17.703125
2230,1.16,2022-10-28 11:12:17.718750
2231,4.98,2022-10-28 11:12:17.734375
2232,8.19,2022-10-28 11:12:17.750000
2233,11.22,2022-10-28 11:12:17.765625
2234,14.43,2022-10-28 11:12:17.781250
2235,17.77,2022-10-28 11:12:17.796875
2236,20.54,2022-10-28 11:12:17.812500
2237,21.67,2022-10-28 11:12:17.828125
2238,20.19,2022-10-28 11:12:17.843750
2239,15.74,2022-10-28 11:12:17.859375
2240,8.89,2022-10-28 11:12:17.875000
2241,1.02,2022-10-28 11:12:17.890625
2242,-6.13,2022-10-28 11:12:17.906250
2243,-11.02,2022-10-28 11:12:17.921875
2244,-12.91,2022-10-28 11:12:17.937500
2245,-12.02,2022-10-28 11:12:17.953125
2246,-9.42,2022-10-28 11:12:17.968750
2247,-6.63,2022-10-28 11:12:17.984375
2248,-5.11,2022-10-28 11:12:18.000000
2249,-5.79,2022-10-28 11:12:18.015625
2250,-8.83,2022-10-28 11:12:18.031250
2251,-13.49,2022-10-28 11:12:18.046875
2252,-18.27,2022-10-28 11:12:18.062500
2253,-21.33,2022-10-28 11:12:18.078125
2254,-20.97,2022-10-28 11:12:18.093750
2255,-16.17,2022-10-28 11:12:18.109375
2256,-7.02,2022-10-28 11:12:18.125000
2257,5.3,2022-10-28 11:12:18.140625
2258,18.89,2022-10-28 11:12:18.156250
2259,31.7,2022-10-28 11:12:18.171875
2260,42.19,2022-10-28 11:12:18.187500
2261,49.66,2022-10-28 11:12:18.203125
2262,54.17,2022-10-28 11:12:18.218750
2263,56.3,2022-10-28 11:12:18.234375
2264,56.67,2022-10-28 11:12:18.250000
2265,55.75,2022-10-28 11:12:18.265625
2266,53.72,2022-10-28 11:12:18.281250
2267,50.71,2022-10-28 11:12:18.296875
2268,46.87,2022-10-28 11:12:18.312500
2269,42.56,2022-10-28 11:12:18.328125
2270,38.35,2022-10-28 11:12:18.343750
2271,34.8,2022-10-28 11:12:18.359375
2272,32.26,2022-10-28 11:12:18.375000
2273,30.71,2022-10-28 11:12:18.390625
2274,29.76,2022-10-28 11:12:18.406250
2275,28.84,2022-10-28 11:12:18.421875
2276,27.54,2022-10-28 11:12:18.437500
2277,25.81,2022-10-28 11:12:18.453125
2278,23.96,2022-10-28 11:12:18.468750
2279,22.5,2022-10-28 11:12:18.484375
2280,21.73,2022-10-28 11:12:18.500000
2281,21.5,2022-10-28 11:12:18.515625
2282,21.18,2022-10-28 11:12:18.531250
2283,19.91,2022-10-28 11:12:18.546875
2284,16.99,2022-10-28 11:12:18.562500
2285,12.27,2022-10-28 11:12:18.578125
2286,6.19,2022-10-28 11:12:18.593750
2287,-0.44,2022-10-28 11:12:18.609375
2288,-6.73,2022-10-28 11:12:18.625000
2289,-12.09,2022-10-28 11:12:18.640625
2290,-16.28,2022-10-28 11:12:18.656250
2291,-19.4,2022-10-28 11:12:18.671875
2292,-21.66,2022-10-28 11:12:18.687500
2293,-23.3,2022-10-28 11:12:18.703125
2294,-24.63,2022-10-28 11:12:18.718750
2295,-26.16,2022-10-28 11:12:18.734375
2296,-28.56,2022-10-28 11:12:18.750000
2297,-32.29,2022-10-28 11:12:18.765625
2298,-37.29,2022-10-28 11:12:18.781250
2299,-42.52,2022-10-28 11:12:18.796875
2300,-46.06,2022-10-28 11:12:18.812500
2301,-45.7,2022-10-28 11:12:18.828125
2302,-39.77,2022-10-28 11:12:18.843750
2303,-28.03,2022-10-28 11:12:18.859375
2304,-11.84,2022-10-28 11:12:18.875000
2305,6.16,2022-10-28 11:12:18.890625
2306,23.11,2022-10-28 11:12:18.906250
2307,36.75,2022-10-28 11:12:18.921875
2308,46.12,2022-10-28 11:12:18.937500
2309,51.47,2022-10-28 11:12:18.953125
2310,53.78,2022-10-28 11:12:18.968750
2311,54.09,2022-10-28 11:12:18.984375
2312,53.01,2022-10-28 11:12:19.000000
2313,50.74,2022-10-28 11:12:19.015625
2314,47.15,2022-10-28 11:12:19.031250
2315,42.24,2022-10-28 11:12:19.046875
2316,36.3,2022-10-28 11:12:19.062500
2317,29.94,2022-10-28 11:12:19.078125
2318,23.97,2022-10-28 11:12:19.093750
2319,18.99,2022-10-28 11:12:19.109375
2320,15.39,2022-10-28 11:12:19.125000
2321,13.09,2022-10-28 11:12:19.140625
2322,11.94,2022-10-28 11:12:19.156250
2323,11.61,2022-10-28 11:12:19.171875
2324,11.93,2022-10-28 11:12:19.187500
2325,12.79,2022-10-28 11:12:19.203125
2326,14.1,2022-10-28 11:12:19.218750
2327,15.63,2022-10-28 11:12:19.234375
2328,17.03,2022-10-28 11:12:19.250000
2329,17.96,2022-10-28 11:12:19.265625
2330,18.21,2022-10-28 11:12:19.281250
2331,17.8,2022-10-28 11:12:19.296875
2332,16.9,2022-10-28 11:12:19.312500
2333,15.52,2022-10-28 11:12:19.328125
2334,13.43,2022-10-28 11:12:19.343750
2335,10.06,2022-10-28 11:12:19.359375
2336,4.83,2022-10-28 11:12:19.375000
2337,-2.61,2022-10-28 11:12:19.390625
2338,-11.94,2022-10-28 11:12:19.406250
2339,-22.31,2022-10-28 11:12:19.421875
2340,-32.5,2022-10-28 11:12:19.437500
2341,-41.43,2022-10-28 11:12:19.453125
2342,-48.43,2022-10-28 11:12:19.468750
2343,-53.45,2022-10-28 11:12:19.484375
2344,-56.97,2022-10-28 11:12:19.500000
2345,-59.71,2022-10-28 11:12:19.515625
2346,-62.43,2022-10-28 11:12:19.531250
2347,-65.61,2022-10-28 11:12:19.546875
2348,-69.26,2022-10-28 11:12:19.562500
2349,-72.74,2022-10-28 11:12:19.578125
2350,-74.79,2022-10-28 11:12:19.593750
2351,-73.83,2022-10-28 11:12:19.609375
2352,-68.38,2022-10-28 11:12:19.625000
2353,-57.75,2022-10-28 11:12:19.640625
2354,-42.37,2022-10-28 11:12:19.656250
2355,-23.81,2022-10-28 11:12:19.671875
2356,-4.26,2022-10-28 11:12:19.687500
2357,14.05,2022-10-28 11:12:19.703125
2358,29.46,2022-10-28 11:12:19.718750
2359,41.26,2022-10-28 11:12:19.734375
2360,49.45,2022-10-28 11:12:19.750000
2361,54.56,2022-10-28 11:12:19.765625
2362,57.16,2022-10-28 11:12:19.781250
2363,57.71,2022-10-28 11:12:19.796875
2364,56.51,2022-10-28 11:12:19.812500
2365,53.79,2022-10-28 11:12:19.828125
2366,49.88,2022-10-28 11:12:19.843750
2367,45.24,2022-10-28 11:12:19.859375
2368,40.45,2022-10-28 11:12:19.875000
2369,36.1,2022-10-28 11:12:19.890625
2370,32.66,2022-10-28 11:12:19.906250
2371,30.3,2022-10-28 11:12:19.921875
2372,28.94,2022-10-28 11:12:19.937500
2373,28.27,2022-10-28 11:12:19.953125
2374,27.93,2022-10-28 11:12:19.968750
2375,27.59,2022-10-28 11:12:19.984375
2376,27.09,2022-10-28 11:12:20.000000
2377,26.4,2022-10-28 11:12:20.015625
2378,25.5,2022-10-28 11:12:20.031250
2379,24.38,2022-10-28 11:12:20.046875
2380,22.91,2022-10-28 11:12:20.062500
2381,20.93,2022-10-28 11:12:20.078125
2382,18.28,2022-10-28 11:12:20.093750
2383,14.91,2022-10-28 11:12:20.109375
2384,10.91,2022-10-28 11:12:20.125000
2385,6.56,2022-10-28 11:12:20.140625
2386,2.17,2022-10-28 11:12:20.156250
2387,-1.97,2022-10-28 11:12:20.171875
2388,-5.69,2022-10-28 11:12:20.187500
2389,-8.94,2022-10-28 11:12:20.203125
2390,-11.85,2022-10-28 11:12:20.218750
2391,-14.65,2022-10-28 11:12:20.234375
2392,-17.59,2022-10-28 11:12:20.250000
2393,-20.9,2022-10-28 11:12:20.265625
2394,-24.68,2022-10-28 11:12:20.281250
2395,-28.82,2022-10-28 11:12:20.296875
2396,-33.08,2022-10-28 11:12:20.312500
2397,-37.12,2022-10-28 11:12:20.328125
2398,-40.63,2022-10-28 11:12:20.343750
2399,-43.48,2022-10-28 11:12:20.359375
2400,-45.76,2022-10-28 11:12:20.375000
2401,-47.78,2022-10-28 11:12:20.390625
2402,-50.03,2022-10-28 11:12:20.406250
2403,-53.09,2022-10-28 11:12:20.421875
2404,-57.5,2022-10-28 11:12:20.437500
2405,-63.43,2022-10-28 11:12:20.453125
2406,-70.39,2022-10-28 11:12:20.468750
2407,-77.03,2022-10-28 11:12:20.484375
2408,-81.3,2022-10-28 11:12:20.500000
2409,-81.04,2022-10-28 11:12:20.515625
2410,-74.78,2022-10-28 11:12:20.531250
2411,-62.43,2022-10-28 11:12:20.546875
2412,-45.49,2022-10-28 11:12:20.562500
2413,-26.55,2022-10-28 11:12:20.578125
2414,-8.36,2022-10-28 11:12:20.593750
2415,7.05,2022-10-28 11:12:20.609375
2416,18.88,2022-10-28 11:12:20.625000
2417,27.37,2022-10-28 11:12:20.640625
2418,33.27,2022-10-28 11:12:20.656250
2419,37.2,2022-10-28 11:12:20.671875
2420,39.41,2022-10-28 11:12:20.687500
2421,39.8,2022-10-28 11:12:20.703125
2422,38.29,2022-10-28 11:12:20.718750
2423,35.06,2022-10-28 11:12:20.734375
2424,30.66,2022-10-28 11:12:20.750000
2425,25.8,2022-10-28 11:12:20.765625
2426,21.19,2022-10-28 11:12:20.781250
2427,17.42,2022-10-28 11:12:20.796875
2428,14.86,2022-10-28 11:12:20.812500
2429,13.76,2022-10-28 11:12:20.828125
2430,14.22,2022-10-28 11:12:20.843750
2431,16.14,2022-10-28 11:12:20.859375
2432,19.21,2022-10-28 11:12:20.875000
2433,22.92,2022-10-28 11:12:20.890625
2434,26.71,2022-10-28 11:12:20.906250
2435,30.08,2022-10-28 11:12:20.921875
2436,32.72,2022-10-28 11:12:20.937500
2437,34.51,2022-10-28 11:12:20.953125
2438,35.35,2022-10-28 11:12:20.968750
2439,35.19,2022-10-28 11:12:20.984375
2440,33.92,2022-10-28 11:12:21.000000
2441,31.49,2022-10-28 11:12:21.015625
2442,28.03,2022-10-28 11:12:21.031250
2443,23.9,2022-10-28 11:12:21.046875
2444,19.59,2022-10-28 11:12:21.062500
2445,15.5,2022-10-28 11:12:21.078125
2446,11.78,2022-10-28 11:12:21.093750
2447,8.31,2022-10-28 11:12:21.109375
2448,4.79,2022-10-28 11:12:21.125000
2449,0.96,2022-10-28 11:12:21.140625
2450,-3.29,2022-10-28 11:12:21.156250
2451,-7.87,2022-10-28 11:12:21.171875
2452,-12.64,2022-10-28 11:12:21.187500
2453,-17.49,2022-10-28 11:12:21.203125
2454,-22.39,2022-10-28 11:12:21.218750
2455,-27.35,2022-10-28 11:12:21.234375
2456,-32.36,2022-10-28 11:12:21.250000
2457,-37.26,2022-10-28 11:12:21.265625
2458,-41.78,2022-10-28 11:12:21.281250
2459,-45.57,2022-10-28 11:12:21.296875
2460,-48.24,2022-10-28 11:12:21.312500
2461,-49.45,2022-10-28 11:12:21.328125
2462,-49.01,2022-10-28 11:12:21.343750
2463,-46.93,2022-10-28 11:12:21.359375
2464,-43.56,2022-10-28 11:12:21.375000
2465,-39.62,2022-10-28 11:12:21.390625
2466,-36.09,2022-10-28 11:12:21.406250
2467,-34.09,2022-10-28 11:12:21.421875
2468,-34.57,2022-10-28 11:12:21.437500
2469,-38.02,2022-10-28 11:12:21.453125
2470,-44.19,2022-10-28 11:12:21.468750
2471,-51.92,2022-10-28 11:12:21.484375
2472,-59.17,2022-10-28 11:12:21.500000
2473,-63.4,2022-10-28 11:12:21.515625
2474,-62.15,2022-10-28 11:12:21.531250
2475,-53.86,2022-10-28 11:12:21.546875
2476,-38.51,2022-10-28 11:12:21.562500
2477,-17.88,2022-10-28 11:12:21.578125
2478,4.98,2022-10-28 11:12:21.593750
2479,26.55,2022-10-28 11:12:21.609375
2480,43.97,2022-10-28 11:12:21.625000
2481,55.82,2022-10-28 11:12:21.640625
2482,62.29,2022-10-28 11:12:21.656250
2483,64.71,2022-10-28 11:12:21.671875
2484,64.84,2022-10-28 11:12:21.687500
2485,64.05,2022-10-28 11:12:21.703125
2486,62.97,2022-10-28 11:12:21.718750
2487,61.6,2022-10-28 11:12:21.734375
2488,59.67,2022-10-28 11:12:21.750000
2489,57.12,2022-10-28 11:12:21.765625
2490,54.31,2022-10-28 11:12:21.781250
2491,51.88,2022-10-28 11:12:21.796875
2492,50.47,2022-10-28 11:12:21.812500
2493,50.4,2022-10-28 11:12:21.828125
2494,51.54,2022-10-28 11:12:21.843750
2495,53.49,2022-10-28 11:12:21.859375
2496,55.85,2022-10-28 11:12:21.875000
2497,58.38,2022-10-28 11:12:21.890625
2498,61.03,2022-10-28 11:12:21.906250
2499,63.71,2022-10-28 11:12:21.921875
2500,66.16,2022-10-28 11:12:21.937500
2501,67.83,2022-10-28 11:12:21.953125
2502,68.02,2022-10-28 11:12:21.968750
2503,66.23,2022-10-28 11:12:21.984375
2504,62.32,2022-10-28 11:12:22.000000
2505,56.68,2022-10-28 11:12:22.015625
2506,50.03,2022-10-28 11:12:22.031250
2507,43.25,2022-10-28 11:12:22.046875
2508,37.02,2022-10-28 11:12:22.062500
2509,31.67,2022-10-28 11:12:22.078125
2510,27.17,2022-10-28 11:12:22.093750
2511,23.21,2022-10-28 11:12:22.109375
2512,19.43,2022-10-28 11:12:22.125000
2513,15.51,2022-10-28 11:12:22.140625
2514,11.36,2022-10-28 11:12:22.156250
2515,7.01,2022-10-28 11:12:22.171875
2516,2.56,2022-10-28 11:12:22.187500
2517,-1.91,2022-10-28 11:12:22.203125
2518,-6.35,2022-10-28 11:12:22.218750
2519,-10.73,2022-10-28 11:12:22.234375
2520,-14.9,2022-10-28 11:12:22.250000
2521,-18.65,2022-10-28 11:12:22.265625
2522,-21.75,2022-10-28 11:12:22.281250
2523,-24.11,2022-10-28 11:12:22.296875
2524,-25.94,2022-10-28 11:12:22.312500
2525,-27.67,2022-10-28 11:12:22.328125
2526,-29.86,2022-10-28 11:12:22.343750
2527,-32.88,2022-10-28 11:12:22.359375
2528,-36.81,2022-10-28 11:12:22.375000
2529,-41.29,2022-10-28 11:12:22.390625
2530,-45.73,2022-10-28 11:12:22.406250
2531,-49.58,2022-10-28 11:12:22.421875
2532,-52.54,2022-10-28 11:12:22.437500
2533,-54.67,2022-10-28 11:12:22.453125
2534,-56.39,2022-10-28 11:12:22.468750
2535,-58.3,2022-10-28 11:12:22.484375
2536,-61.04,2022-10-28 11:12:22.500000
2537,-65.09,2022-10-28 11:12:22.515625
2538,-70.65,2022-10-28 11:12:22.531250
2539,-77.35,2022-10-28 11:12:22.546875
2540,-84.13,2022-10-28 11:12:22.562500
2541,-89.27,2022-10-28 11:12:22.578125
2542,-90.7,2022-10-28 11:12:22.593750
2543,-86.65,2022-10-28 11:12:22.609375
2544,-76.33,2022-10-28 11:12:22.625000
2545,-60.31,2022-10-28 11:12:22.640625
2546,-40.53,2022-10-28 11:12:22.656250
2547,-19.7,2022-10-28 11:12:22.671875
2548,-0.44,2022-10-28 11:12:22.687500
2549,15.41,2022-10-28 11:12:22.703125
2550,27.17,2022-10-28 11:12:22.718750
2551,35.12,2022-10-28 11:12:22.734375
2552,40.07,2022-10-28 11:12:22.750000
2553,42.8,2022-10-28 11:12:22.765625
2554,43.83,2022-10-28 11:12:22.781250
2555,43.36,2022-10-28 11:12:22.796875
2556,41.48,2022-10-28 11:12:22.812500
2557,38.39,2022-10-28 11:12:22.828125
2558,34.58,2022-10-28 11:12:22.843750
2559,30.77,2022-10-28 11:12:22.859375
2560,27.72,2022-10-28 11:12:22.875000
2561,26.12,2022-10-28 11:12:22.890625
2562,26.29,2022-10-28 11:12:22.906250
2563,28.22,2022-10-28 11:12:22.921875
2564,31.51,2022-10-28 11:12:22.937500
2565,35.57,2022-10-28 11:12:22.953125
2566,39.76,2022-10-28 11:12:22.968750
2567,43.56,2022-10-28 11:12:22.984375
2568,46.61,2022-10-28 11:12:23.000000
2569,48.66,2022-10-28 11:12:23.015625
2570,49.56,2022-10-28 11:12:23.031250
2571,49.25,2022-10-28 11:12:23.046875
2572,47.75,2022-10-28 11:12:23.062500
2573,45.25,2022-10-28 11:12:23.078125
2574,42.06,2022-10-28 11:12:23.093750
2575,38.59,2022-10-28 11:12:23.109375
2576,35.17,2022-10-28 11:12:23.125000
2577,31.94,2022-10-28 11:12:23.140625
2578,28.85,2022-10-28 11:12:23.156250
2579,25.67,2022-10-28 11:12:23.171875
2580,22.22,2022-10-28 11:12:23.187500
2581,18.47,2022-10-28 11:12:23.203125
2582,14.67,2022-10-28 11:12:23.218750
2583,11.2,2022-10-28 11:12:23.234375
2584,8.44,2022-10-28 11:12:23.250000
2585,6.53,2022-10-28 11:12:23.265625
2586,5.29,2022-10-28 11:12:23.281250
2587,4.27,2022-10-28 11:12:23.296875
2588,2.95,2022-10-28 11:12:23.312500
2589,0.93,2022-10-28 11:12:23.328125
2590,-1.91,2022-10-28 11:12:23.343750
2591,-5.32,2022-10-28 11:12:23.359375
2592,-8.91,2022-10-28 11:12:23.375000
2593,-12.3,2022-10-28 11:12:23.390625
2594,-15.27,2022-10-28 11:12:23.406250
2595,-17.9,2022-10-28 11:12:23.421875
2596,-20.42,2022-10-28 11:12:23.437500
2597,-23.16,2022-10-28 11:12:23.453125
2598,-26.37,2022-10-28 11:12:23.468750
2599,-30.19,2022-10-28 11:12:23.484375
2600,-34.49,2022-10-28 11:12:23.500000
2601,-39.06,2022-10-28 11:12:23.515625
2602,-43.54,2022-10-28 11:12:23.531250
2603,-47.58,2022-10-28 11:12:23.546875
2604,-50.98,2022-10-28 11:12:23.562500
2605,-53.84,2022-10-28 11:12:23.578125
2606,-56.64,2022-10-28 11:12:23.593750
2607,-60.18,2022-10-28 11:12:23.609375
2608,-65.22,2022-10-28 11:12:23.625000
2609,-71.99,2022-10-28 11:12:23.640625
2610,-79.76,2022-10-28 11:12:23.656250
2611,-86.74,2022-10-28 11:12:23.671875
2612,-90.48,2022-10-28 11:12:23.687500
2613,-88.75,2022-10-28 11:12:23.703125
2614,-80.43,2022-10-28 11:12:23.718750
2615,-65.96,2022-10-28 11:12:23.734375
2616,-47.33,2022-10-28 11:12:23.750000
2617,-27.3,2022-10-28 11:12:23.765625
2618,-8.53,2022-10-28 11:12:23.781250
2619,7.15,2022-10-28 11:12:23.796875
2620,19.02,2022-10-28 11:12:23.812500
2621,27.29,2022-10-28 11:12:23.828125
2622,32.6,2022-10-28 11:12:23.843750
2623,35.62,2022-10-28 11:12:23.859375
2624,36.82,2022-10-28 11:12:23.875000
2625,36.43,2022-10-28 11:12:23.890625
2626,34.63,2022-10-28 11:12:23.906250
2627,31.69,2022-10-28 11:12:23.921875
2628,28.02,2022-10-28 11:12:23.937500
2629,24.19,2022-10-28 11:12:23.953125
2630,20.83,2022-10-28 11:12:23.968750
2631,18.43,2022-10-28 11:12:23.984375
2632,17.35,2022-10-28 11:12:24.000000
2633,17.64,2022-10-28 11:12:24.015625
2634,19.21,2022-10-28 11:12:24.031250
2635,21.86,2022-10-28 11:12:24.046875
2636,25.34,2022-10-28 11:12:24.062500
2637,29.39,2022-10-28 11:12:24.078125
2638,33.73,2022-10-28 11:12:24.093750
2639,37.95,2022-10-28 11:12:24.109375
2640,41.52,2022-10-28 11:12:24.125000
2641,43.95,2022-10-28 11:12:24.140625
2642,44.8,2022-10-28 11:12:24.156250
2643,43.9,2022-10-28 11:12:24.171875
2644,41.37,2022-10-28 11:12:24.187500
2645,37.63,2022-10-28 11:12:24.203125
2646,33.22,2022-10-28 11:12:24.218750
2647,28.63,2022-10-28 11:12:24.234375
2648,24.21,2022-10-28 11:12:24.250000
2649,20.07,2022-10-28 11:12:24.265625
2650,16.2,2022-10-28 11:12:24.281250
2651,12.57,2022-10-28 11:12:24.296875
2652,9.19,2022-10-28 11:12:24.312500
2653,6.19,2022-10-28 11:12:24.328125
2654,3.76,2022-10-28 11:12:24.343750
2655,2.03,2022-10-28 11:12:24.359375
2656,0.95,2022-10-28 11:12:24.375000
2657,0.3,2022-10-28 11:12:24.390625
2658,-0.29,2022-10-28 11:12:24.406250
2659,-1.2,2022-10-28 11:12:24.421875
2660,-2.69,2022-10-28 11:12:24.437500
2661,-4.8,2022-10-28 11:12:24.453125
2662,-7.39,2022-10-28 11:12:24.468750
2663,-10.13,2022-10-28 11:12:24.484375
2664,-12.68,2022-10-28 11:12:24.500000
2665,-14.89,2022-10-28 11:12:24.515625
2666,-16.84,2022-10-28 11:12:24.531250
2667,-18.91,2022-10-28 11:12:24.546875
2668,-21.58,2022-10-28 11:12:24.562500
2669,-25.24,2022-10-28 11:12:24.578125
2670,-29.93,2022-10-28 11:12:24.593750
2671,-35.34,2022-10-28 11:12:24.609375
2672,-40.87,2022-10-28 11:12:24.625000
2673,-45.8,2022-10-28 11:12:24.640625
2674,-49.64,2022-10-28 11:12:24.656250
2675,-52.28,2022-10-28 11:12:24.671875
2676,-54.13,2022-10-28 11:12:24.687500
2677,-56.03,2022-10-28 11:12:24.703125
2678,-58.98,2022-10-28 11:12:24.718750
2679,-63.78,2022-10-28 11:12:24.734375
2680,-70.62,2022-10-28 11:12:24.750000
2681,-78.76,2022-10-28 11:12:24.765625
2682,-86.45,2022-10-28 11:12:24.781250
2683,-91.37,2022-10-28 11:12:24.796875
2684,-91.18,2022-10-28 11:12:24.812500
2685,-84.42,2022-10-28 11:12:24.828125
2686,-71.05,2022-10-28 11:12:24.843750
2687,-52.56,2022-10-28 11:12:24.859375
2688,-31.58,2022-10-28 11:12:24.875000
2689,-11.02,2022-10-28 11:12:24.890625
2690,6.72,2022-10-28 11:12:24.906250
2691,20.32,2022-10-28 11:12:24.921875
2692,29.58,2022-10-28 11:12:24.937500
2693,35.16,2022-10-28 11:12:24.953125
2694,38.05,2022-10-28 11:12:24.968750
2695,39.12,2022-10-28 11:12:24.984375
2696,39.0,2022-10-28 11:12:25.000000
2697,38.05,2022-10-28 11:12:25.015625
2698,36.54,2022-10-28 11:12:25.031250
2699,34.7,2022-10-28 11:12:25.046875
2700,32.85,2022-10-28 11:12:25.062500
2701,31.39,2022-10-28 11:12:25.078125
2702,30.67,2022-10-28 11:12:25.093750
2703,30.99,2022-10-28 11:12:25.109375
2704,32.41,2022-10-28 11:12:25.125000
2705,34.83,2022-10-28 11:12:25.140625
2706,37.92,2022-10-28 11:12:25.156250
2707,41.25,2022-10-28 11:12:25.171875
2708,44.38,2022-10-28 11:12:25.187500
2709,46.92,2022-10-28 11:12:25.203125
2710,48.58,2022-10-28 11:12:25.218750
2711,49.13,2022-10-28 11:12:25.234375
2712,48.39,2022-10-28 11:12:25.250000
2713,46.3,2022-10-28 11:12:25.265625
2714,42.97,2022-10-28 11:12:25.281250
2715,38.71,2022-10-28 11:12:25.296875
2716,34.03,2022-10-28 11:12:25.312500
2717,29.49,2022-10-28 11:12:25.328125
2718,25.55,2022-10-28 11:12:25.343750
2719,22.39,2022-10-28 11:12:25.359375
2720,19.88,2022-10-28 11:12:25.375000
2721,17.68,2022-10-28 11:12:25.390625
2722,15.4,2022-10-28 11:12:25.406250
2723,12.84,2022-10-28 11:12:25.421875
2724,10.01,2022-10-28 11:12:25.437500
2725,7.22,2022-10-28 11:12:25.453125
2726,4.86,2022-10-28 11:12:25.468750
2727,3.29,2022-10-28 11:12:25.484375
2728,2.61,2022-10-28 11:12:25.500000
2729,2.59,2022-10-28 11:12:25.515625
2730,2.79,2022-10-28 11:12:25.531250
2731,2.66,2022-10-28 11:12:25.546875
2732,1.77,2022-10-28 11:12:25.562500
2733,-0.02,2022-10-28 11:12:25.578125
2734,-2.59,2022-10-28 11:12:25.593750
2735,-5.54,2022-10-28 11:12:25.609375
2736,-8.47,2022-10-28 11:12:25.625000
2737,-11.07,2022-10-28 11:12:25.640625
2738,-13.39,2022-10-28 11:12:25.656250
2739,-15.74,2022-10-28 11:12:25.671875
2740,-18.61,2022-10-28 11:12:25.687500
2741,-22.38,2022-10-28 11:12:25.703125
2742,-27.09,2022-10-28 11:12:25.718750
2743,-32.33,2022-10-28 11:12:25.734375
2744,-37.39,2022-10-28 11:12:25.750000
2745,-41.53,2022-10-28 11:12:25.765625
2746,-44.34,2022-10-28 11:12:25.781250
2747,-46.01,2022-10-28 11:12:25.796875
2748,-47.17,2022-10-28 11:12:25.812500
2749,-48.82,2022-10-28 11:12:25.828125
2750,-51.86,2022-10-28 11:12:25.843750
2751,-56.86,2022-10-28 11:12:25.859375
2752,-63.81,2022-10-28 11:12:25.875000
2753,-71.96,2022-10-28 11:12:25.890625
2754,-79.91,2022-10-28 11:12:25.906250
2755,-85.73,2022-10-28 11:12:25.921875
2756,-87.43,2022-10-28 11:12:25.937500
2757,-83.47,2022-10-28 11:12:25.953125
2758,-73.34,2022-10-28 11:12:25.968750
2759,-57.82,2022-10-28 11:12:25.984375
2760,-38.79,2022-10-28 11:12:26.000000
2761,-18.79,2022-10-28 11:12:26.015625
2762,-0.22,2022-10-28 11:12:26.031250
2763,15.18,2022-10-28 11:12:26.046875
2764,26.73,2022-10-28 11:12:26.062500
2765,34.63,2022-10-28 11:12:26.078125
2766,39.62,2022-10-28 11:12:26.093750
2767,42.54,2022-10-28 11:12:26.109375
2768,44.0,2022-10-28 11:12:26.125000
2769,44.31,2022-10-28 11:12:26.140625
2770,43.56,2022-10-28 11:12:26.156250
2771,41.86,2022-10-28 11:12:26.171875
2772,39.46,2022-10-28 11:12:26.187500
2773,36.84,2022-10-28 11:12:26.203125
2774,34.6,2022-10-28 11:12:26.218750
2775,33.35,2022-10-28 11:12:26.234375
2776,33.48,2022-10-28 11:12:26.250000
2777,35.06,2022-10-28 11:12:26.265625
2778,37.82,2022-10-28 11:12:26.281250
2779,41.27,2022-10-28 11:12:26.296875
2780,44.88,2022-10-28 11:12:26.312500
2781,48.18,2022-10-28 11:12:26.328125
2782,50.86,2022-10-28 11:12:26.343750
2783,52.69,2022-10-28 11:12:26.359375
2784,53.56,2022-10-28 11:12:26.375000
2785,53.36,2022-10-28 11:12:26.390625
2786,52.04,2022-10-28 11:12:26.406250
2787,49.69,2022-10-28 11:12:26.421875
2788,46.54,2022-10-28 11:12:26.437500
2789,42.96,2022-10-28 11:12:26.453125
2790,39.4,2022-10-28 11:12:26.468750
2791,36.2,2022-10-28 11:12:26.484375
2792,33.52,2022-10-28 11:12:26.500000
2793,31.3,2022-10-28 11:12:26.515625
2794,29.39,2022-10-28 11:12:26.531250
2795,27.56,2022-10-28 11:12:26.546875
2796,25.73,2022-10-28 11:12:26.562500
2797,23.93,2022-10-28 11:12:26.578125
2798,22.31,2022-10-28 11:12:26.593750
2799,21.04,2022-10-28 11:12:26.609375
2800,20.23,2022-10-28 11:12:26.625000
2801,19.87,2022-10-28 11:12:26.640625
2802,19.79,2022-10-28 11:12:26.656250
2803,19.84,2022-10-28 11:12:26.671875
2804,19.83,2022-10-28 11:12:26.687500
2805,19.67,2022-10-28 11:12:26.703125
2806,19.33,2022-10-28 11:12:26.718750
2807,18.82,2022-10-28 11:12:26.734375
2808,18.11,2022-10-28 11:12:26.750000
2809,17.09,2022-10-28 11:12:26.765625
2810,15.58,2022-10-28 11:12:26.781250
2811,13.42,2022-10-28 11:12:26.796875
2812,10.62,2022-10-28 11:12:26.812500
2813,7.38,2022-10-28 11:12:26.828125
2814,4.07,2022-10-28 11:12:26.843750
2815,1.06,2022-10-28 11:12:26.859375
2816,-1.46,2022-10-28 11:12:26.875000
2817,-3.57,2022-10-28 11:12:26.890625
2818,-5.59,2022-10-28 11:12:26.906250
2819,-7.91,2022-10-28 11:12:26.921875
2820,-10.82,2022-10-28 11:12:26.937500
2821,-14.32,2022-10-28 11:12:26.953125
2822,-18.11,2022-10-28 11:12:26.968750
2823,-21.75,2022-10-28 11:12:26.984375
2824,-24.87,2022-10-28 11:12:27.000000
2825,-27.39,2022-10-28 11:12:27.015625
2826,-29.53,2022-10-28 11:12:27.031250
2827,-31.79,2022-10-28 11:12:27.046875
2828,-34.71,2022-10-28 11:12:27.062500
2829,-38.61,2022-10-28 11:12:27.078125
2830,-43.46,2022-10-28 11:12:27.093750
2831,-48.88,2022-10-28 11:12:27.109375
2832,-54.27,2022-10-28 11:12:27.125000
2833,-59.04,2022-10-28 11:12:27.140625
2834,-62.92,2022-10-28 11:12:27.156250
2835,-65.99,2022-10-28 11:12:27.171875
2836,-68.79,2022-10-28 11:12:27.187500
2837,-72.08,2022-10-28 11:12:27.203125
2838,-76.67,2022-10-28 11:12:27.218750
2839,-83.07,2022-10-28 11:12:27.234375
2840,-91.2,2022-10-28 11:12:27.250000
2841,-100.14,2022-10-28 11:12:27.265625
2842,-108.06,2022-10-28 11:12:27.281250
2843,-112.55,2022-10-28 11:12:27.296875
2844,-111.17,2022-10-28 11:12:27.312500
2845,-102.32,2022-10-28 11:12:27.328125
2846,-85.88,2022-10-28 11:12:27.343750
2847,-63.52,2022-10-28 11:12:27.359375
2848,-38.24,2022-10-28 11:12:27.375000
2849,-13.55,2022-10-28 11:12:27.390625
2850,7.58,2022-10-28 11:12:27.406250
2851,23.48,2022-10-28 11:12:27.421875
2852,33.92,2022-10-28 11:12:27.437500
2853,39.81,2022-10-28 11:12:27.453125
2854,42.57,2022-10-28 11:12:27.468750
2855,43.53,2022-10-28 11:12:27.484375
2856,43.58,2022-10-28 11:12:27.500000
2857,43.08,2022-10-28 11:12:27.515625
2858,42.11,2022-10-28 11:12:27.531250
2859,40.69,2022-10-28 11:12:27.546875
2860,38.9,2022-10-28 11:12:27.562500
2861,37.01,2022-10-28 11:12:27.578125
2862,35.4,2022-10-28 11:12:27.593750
2863,34.43,2022-10-28 11:12:27.609375
2864,34.36,2022-10-28 11:12:27.625000
2865,35.28,2022-10-28 11:12:27.640625
2866,37.08,2022-10-28 11:12:27.656250
2867,39.57,2022-10-28 11:12:27.671875
2868,42.52,2022-10-28 11:12:27.687500
2869,45.67,2022-10-28 11:12:27.703125
2870,48.73,2022-10-28 11:12:27.718750
2871,51.41,2022-10-28 11:12:27.734375
2872,53.3,2022-10-28 11:12:27.750000
2873,54.02,2022-10-28 11:12:27.765625
2874,53.33,2022-10-28 11:12:27.781250
2875,51.2,2022-10-28 11:12:27.796875
2876,47.85,2022-10-28 11:12:27.812500
2877,43.73,2022-10-28 11:12:27.828125
2878,39.33,2022-10-28 11:12:27.843750
2879,35.09,2022-10-28 11:12:27.859375
2880,31.32,2022-10-28 11:12:27.875000
2881,28.13,2022-10-28 11:12:27.890625
2882,25.47,2022-10-28 11:12:27.906250
2883,23.24,2022-10-28 11:12:27.921875
2884,21.27,2022-10-28 11:12:27.937500
2885,19.49,2022-10-28 11:12:27.953125
2886,17.82,2022-10-28 11:12:27.968750
2887,16.28,2022-10-28 11:12:27.984375
2888,14.94,2022-10-28 11:12:28.000000
2889,13.85,2022-10-28 11:12:28.015625
2890,13.04,2022-10-28 11:12:28.031250
2891,12.44,2022-10-28 11:12:28.046875
2892,11.86,2022-10-28 11:12:28.062500
2893,11.07,2022-10-28 11:12:28.078125
2894,9.86,2022-10-28 11:12:28.093750
2895,8.17,2022-10-28 11:12:28.109375
2896,6.1,2022-10-28 11:12:28.125000
2897,3.85,2022-10-28 11:12:28.140625
2898,1.67,2022-10-28 11:12:28.156250
2899,-0.29,2022-10-28 11:12:28.171875
2900,-2.05,2022-10-28 11:12:28.187500
2901,-3.82,2022-10-28 11:12:28.203125
2902,-5.89,2022-10-28 11:12:28.218750
2903,-8.48,2022-10-28 11:12:28.234375
2904,-11.57,2022-10-28 11:12:28.250000
2905,-14.98,2022-10-28 11:12:28.265625
2906,-18.31,2022-10-28 11:12:28.281250
2907,-21.23,2022-10-28 11:12:28.296875
2908,-23.62,2022-10-28 11:12:28.312500
2909,-25.64,2022-10-28 11:12:28.328125
2910,-27.67,2022-10-28 11:12:28.343750
2911,-30.16,2022-10-28 11:12:28.359375
2912,-33.34,2022-10-28 11:12:28.375000
2913,-37.11,2022-10-28 11:12:28.390625
2914,-41.0,2022-10-28 11:12:28.406250
2915,-44.42,2022-10-28 11:12:28.421875
2916,-46.94,2022-10-28 11:12:28.437500
2917,-48.57,2022-10-28 11:12:28.453125
2918,-49.77,2022-10-28 11:12:28.468750
2919,-51.29,2022-10-28 11:12:28.484375
2920,-53.91,2022-10-28 11:12:28.500000
2921,-58.15,2022-10-28 11:12:28.515625
2922,-64.13,2022-10-28 11:12:28.531250
2923,-71.45,2022-10-28 11:12:28.546875
2924,-79.15,2022-10-28 11:12:28.562500
2925,-85.75,2022-10-28 11:12:28.578125
2926,-89.45,2022-10-28 11:12:28.593750
2927,-88.44,2022-10-28 11:12:28.609375
2928,-81.51,2022-10-28 11:12:28.625000
2929,-68.56,2022-10-28 11:12:28.640625
2930,-50.79,2022-10-28 11:12:28.656250
2931,-30.51,2022-10-28 11:12:28.671875
2932,-10.42,2022-10-28 11:12:28.687500
2933,7.19,2022-10-28 11:12:28.703125
2934,21.09,2022-10-28 11:12:28.718750
2935,31.08,2022-10-28 11:12:28.734375
2936,37.77,2022-10-28 11:12:28.750000
2937,41.97,2022-10-28 11:12:28.765625
2938,44.3,2022-10-28 11:12:28.781250
2939,45.03,2022-10-28 11:12:28.796875
2940,44.18,2022-10-28 11:12:28.812500
2941,41.83,2022-10-28 11:12:28.828125
2942,38.25,2022-10-28 11:12:28.843750
2943,33.94,2022-10-28 11:12:28.859375
2944,29.55,2022-10-28 11:12:28.875000
2945,25.8,2022-10-28 11:12:28.890625
2946,23.27,2022-10-28 11:12:28.906250
2947,22.36,2022-10-28 11:12:28.921875
2948,23.14,2022-10-28 11:12:28.937500
2949,25.43,2022-10-28 11:12:28.953125
2950,28.76,2022-10-28 11:12:28.968750
2951,32.6,2022-10-28 11:12:28.984375
2952,36.39,2022-10-28 11:12:29.000000
2953,39.75,2022-10-28 11:12:29.015625
2954,42.4,2022-10-28 11:12:29.031250
2955,44.18,2022-10-28 11:12:29.046875
2956,44.94,2022-10-28 11:12:29.062500
2957,44.57,2022-10-28 11:12:29.078125
2958,42.99,2022-10-28 11:12:29.093750
2959,40.24,2022-10-28 11:12:29.109375
2960,36.55,2022-10-28 11:12:29.125000
2961,32.32,2022-10-28 11:12:29.140625
2962,27.99,2022-10-28 11:12:29.156250
2963,23.97,2022-10-28 11:12:29.171875
2964,20.43,2022-10-28 11:12:29.187500
2965,17.25,2022-10-28 11:12:29.203125
2966,14.2,2022-10-28 11:12:29.218750
2967,11.07,2022-10-28 11:12:29.234375
2968,7.77,2022-10-28 11:12:29.250000
2969,4.51,2022-10-28 11:12:29.265625
2970,1.61,2022-10-28 11:12:29.281250
2971,-0.72,2022-10-28 11:12:29.296875
2972,-2.42,2022-10-28 11:12:29.312500
2973,-3.75,2022-10-28 11:12:29.328125
2974,-5.07,2022-10-28 11:12:29.343750
2975,-6.69,2022-10-28 11:12:29.359375
2976,-8.74,2022-10-28 11:12:29.375000
2977,-11.17,2022-10-28 11:12:29.390625
2978,-13.88,2022-10-28 11:12:29.406250
2979,-16.79,2022-10-28 11:12:29.421875
2980,-19.94,2022-10-28 11:12:29.437500
2981,-23.36,2022-10-28 11:12:29.453125
2982,-27.01,2022-10-28 11:12:29.468750
2983,-30.7,2022-10-28 11:12:29.484375
2984,-34.12,2022-10-28 11:12:29.500000
2985,-37.1,2022-10-28 11:12:29.515625
2986,-39.66,2022-10-28 11:12:29.531250
2987,-42.16,2022-10-28 11:12:29.546875
2988,-45.13,2022-10-28 11:12:29.562500
2989,-49.21,2022-10-28 11:12:29.578125
2990,-54.83,2022-10-28 11:12:29.593750
2991,-62.16,2022-10-28 11:12:29.609375
2992,-70.82,2022-10-28 11:12:29.625000
2993,-79.89,2022-10-28 11:12:29.640625
2994,-87.89,2022-10-28 11:12:29.656250
2995,-92.99,2022-10-28 11:12:29.671875
2996,-93.43,2022-10-28 11:12:29.687500
2997,-88.1,2022-10-28 11:12:29.703125
2998,-76.95,2022-10-28 11:12:29.718750
2999,-61.04,2022-10-28 11:12:29.734375
3000,-42.35,2022-10-28 11:12:29.750000
3001,-23.15,2022-10-28 11:12:29.765625
3002,-5.4,2022-10-28 11:12:29.781250
3003,9.64,2022-10-28 11:12:29.796875
3004,21.48,2022-10-28 11:12:29.812500
3005,30.24,2022-10-28 11:12:29.828125
3006,36.33,2022-10-28 11:12:29.843750
3007,40.17,2022-10-28 11:12:29.859375
3008,42.14,2022-10-28 11:12:29.875000
3009,42.51,2022-10-28 11:12:29.890625
3010,41.55,2022-10-28 11:12:29.906250
3011,39.57,2022-10-28 11:12:29.921875
3012,36.95,2022-10-28 11:12:29.937500
3013,34.15,2022-10-28 11:12:29.953125
3014,31.68,2022-10-28 11:12:29.968750
3015,29.93,2022-10-28 11:12:29.984375
3016,29.22,2022-10-28 11:12:30.000000
3017,29.73,2022-10-28 11:12:30.015625
3018,31.5,2022-10-28 11:12:30.031250
3019,34.4,2022-10-28 11:12:30.046875
3020,38.15,2022-10-28 11:12:30.062500
3021,42.31,2022-10-28 11:12:30.078125
3022,46.26,2022-10-28 11:12:30.093750
3023,49.3,2022-10-28 11:12:30.109375
3024,50.88,2022-10-28 11:12:30.125000
3025,50.66,2022-10-28 11:12:30.140625
3026,48.72,2022-10-28 11:12:30.156250
3027,45.42,2022-10-28 11:12:30.171875
3028,41.38,2022-10-28 11:12:30.187500
3029,37.16,2022-10-28 11:12:30.203125
3030,33.19,2022-10-28 11:12:30.218750
3031,29.64,2022-10-28 11:12:30.234375
3032,26.43,2022-10-28 11:12:30.250000
3033,23.36,2022-10-28 11:12:30.265625
3034,20.19,2022-10-28 11:12:30.281250
3035,16.81,2022-10-28 11:12:30.296875
3036,13.21,2022-10-28 11:12:30.312500
3037,9.6,2022-10-28 11:12:30.328125
3038,6.2,2022-10-28 11:12:30.343750
3039,3.25,2022-10-28 11:12:30.359375
3040,0.81,2022-10-28 11:12:30.375000
3041,-1.23,2022-10-28 11:12:30.390625
3042,-3.15,2022-10-28 11:12:30.406250
3043,-5.24,2022-10-28 11:12:30.421875
3044,-7.71,2022-10-28 11:12:30.437500
3045,-10.62,2022-10-28 11:12:30.453125
3046,-13.88,2022-10-28 11:12:30.468750
3047,-17.31,2022-10-28 11:12:30.484375
3048,-20.7,2022-10-28 11:12:30.500000
3049,-23.88,2022-10-28 11:12:30.515625
3050,-26.73,2022-10-28 11:12:30.531250
3051,-29.19,2022-10-28 11:12:30.546875
3052,-31.3,2022-10-28 11:12:30.562500
3053,-33.2,2022-10-28 11:12:30.578125
3054,-35.09,2022-10-28 11:12:30.593750
3055,-37.13,2022-10-28 11:12:30.609375
3056,-39.4,2022-10-28 11:12:30.625000
3057,-41.89,2022-10-28 11:12:30.640625
3058,-44.6,2022-10-28 11:12:30.656250
3059,-47.68,2022-10-28 11:12:30.671875
3060,-51.51,2022-10-28 11:12:30.687500
3061,-56.7,2022-10-28 11:12:30.703125
3062,-63.81,2022-10-28 11:12:30.718750
3063,-72.84,2022-10-28 11:12:30.734375
3064,-82.84,2022-10-28 11:12:30.750000
3065,-91.83,2022-10-28 11:12:30.765625
3066,-97.14,2022-10-28 11:12:30.781250
3067,-96.27,2022-10-28 11:12:30.796875
3068,-87.87,2022-10-28 11:12:30.812500
3069,-72.32,2022-10-28 11:12:30.828125
3070,-51.74,2022-10-28 11:12:30.843750
3071,-29.31,2022-10-28 11:12:30.859375
3072,-8.22,2022-10-28 11:12:30.875000
3073,9.3,2022-10-28 11:12:30.890625
3074,22.39,2022-10-28 11:12:30.906250
3075,31.42,2022-10-28 11:12:30.921875
3076,37.47,2022-10-28 11:12:30.937500
3077,41.68,2022-10-28 11:12:30.953125
3078,44.82,2022-10-28 11:12:30.968750
3079,47.24,2022-10-28 11:12:30.984375
3080,48.96,2022-10-28 11:12:31.000000
3081,49.87,2022-10-28 11:12:31.015625
3082,49.96,2022-10-28 11:12:31.031250
3083,49.39,2022-10-28 11:12:31.046875
3084,48.47,2022-10-28 11:12:31.062500
3085,47.59,2022-10-28 11:12:31.078125
3086,47.08,2022-10-28 11:12:31.093750
3087,47.13,2022-10-28 11:12:31.109375
3088,47.81,2022-10-28 11:12:31.125000
3089,49.03,2022-10-28 11:12:31.140625
3090,50.72,2022-10-28 11:12:31.156250
3091,52.77,2022-10-28 11:12:31.171875
3092,54.99,2022-10-28 11:12:31.187500
3093,57.12,2022-10-28 11:12:31.203125
3094,58.7,2022-10-28 11:12:31.218750
3095,59.2,2022-10-28 11:12:31.234375
3096,58.16,2022-10-28 11:12:31.250000
3097,55.39,2022-10-28 11:12:31.265625
3098,51.06,2022-10-28 11:12:31.281250
3099,45.73,2022-10-28 11:12:31.296875
3100,40.11,2022-10-28 11:12:31.312500
3101,34.92,2022-10-28 11:12:31.328125
3102,30.61,2022-10-28 11:12:31.343750
3103,27.31,2022-10-28 11:12:31.359375
3104,24.83,2022-10-28 11:12:31.375000
3105,22.77,2022-10-28 11:12:31.390625
3106,20.82,2022-10-28 11:12:31.406250
3107,18.85,2022-10-28 11:12:31.421875
3108,16.99,2022-10-28 11:12:31.437500
3109,15.52,2022-10-28 11:12:31.453125
3110,14.67,2022-10-28 11:12:31.468750
3111,14.5,2022-10-28 11:12:31.484375
3112,14.77,2022-10-28 11:12:31.500000
3113,15.12,2022-10-28 11:12:31.515625
3114,15.11,2022-10-28 11:12:31.531250
3115,14.51,2022-10-28 11:12:31.546875
3116,13.27,2022-10-28 11:12:31.562500
3117,11.6,2022-10-28 11:12:31.578125
3118,9.77,2022-10-28 11:12:31.593750
3119,7.96,2022-10-28 11:12:31.609375
3120,6.22,2022-10-28 11:12:31.625000
3121,4.4,2022-10-28 11:12:31.640625
3122,2.26,2022-10-28 11:12:31.656250
3123,-0.41,2022-10-28 11:12:31.671875
3124,-3.68,2022-10-28 11:12:31.687500
3125,-7.41,2022-10-28 11:12:31.703125
3126,-11.3,2022-10-28 11:12:31.718750
3127,-15.03,2022-10-28 11:12:31.734375
3128,-18.4,2022-10-28 11:12:31.750000
3129,-21.45,2022-10-28 11:12:31.765625
3130,-24.5,2022-10-28 11:12:31.781250
3131,-27.98,2022-10-28 11:12:31.796875
3132,-32.23,2022-10-28 11:12:31.812500
3133,-37.35,2022-10-28 11:12:31.828125
3134,-43.1,2022-10-28 11:12:31.843750
3135,-48.95,2022-10-28 11:12:31.859375
3136,-54.36,2022-10-28 11:12:31.875000
3137,-58.96,2022-10-28 11:12:31.890625
