,BVP,time
0,-6.57,2022-08-17 14:43:18.890625
1,-9.2,2022-08-17 14:43:18.906250
2,-11.22,2022-08-17 14:43:18.921875
3,-12.47,2022-08-17 14:43:18.937500
4,-13.13,2022-08-17 14:43:18.953125
5,-13.68,2022-08-17 14:43:18.968750
6,-14.66,2022-08-17 14:43:18.984375
7,-16.4,2022-08-17 14:43:19.000000
8,-18.86,2022-08-17 14:43:19.015625
9,-21.67,2022-08-17 14:43:19.031250
10,-24.37,2022-08-17 14:43:19.046875
11,-26.61,2022-08-17 14:43:19.062500
12,-28.32,2022-08-17 14:43:19.078125
13,-29.72,2022-08-17 14:43:19.093750
14,-31.18,2022-08-17 14:43:19.109375
15,-33.14,2022-08-17 14:43:19.125000
16,-35.87,2022-08-17 14:43:19.140625
17,-39.43,2022-08-17 14:43:19.156250
18,-43.61,2022-08-17 14:43:19.171875
19,-47.88,2022-08-17 14:43:19.187500
20,-51.44,2022-08-17 14:43:19.203125
21,-53.38,2022-08-17 14:43:19.218750
22,-52.91,2022-08-17 14:43:19.234375
23,-49.55,2022-08-17 14:43:19.250000
24,-43.35,2022-08-17 14:43:19.265625
25,-34.86,2022-08-17 14:43:19.281250
26,-24.9,2022-08-17 14:43:19.296875
27,-14.34,2022-08-17 14:43:19.312500
28,-3.83,2022-08-17 14:43:19.328125
29,6.25,2022-08-17 14:43:19.343750
30,15.74,2022-08-17 14:43:19.359375
31,24.5,2022-08-17 14:43:19.375000
32,32.37,2022-08-17 14:43:19.390625
33,39.14,2022-08-17 14:43:19.406250
34,44.69,2022-08-17 14:43:19.421875
35,49.07,2022-08-17 14:43:19.437500
36,52.5,2022-08-17 14:43:19.453125
37,55.35,2022-08-17 14:43:19.468750
38,57.91,2022-08-17 14:43:19.484375
39,60.33,2022-08-17 14:43:19.500000
40,62.56,2022-08-17 14:43:19.515625
41,64.52,2022-08-17 14:43:19.531250
42,66.24,2022-08-17 14:43:19.546875
43,67.94,2022-08-17 14:43:19.562500
44,69.98,2022-08-17 14:43:19.578125
45,72.71,2022-08-17 14:43:19.593750
46,76.25,2022-08-17 14:43:19.609375
47,80.5,2022-08-17 14:43:19.625000
48,85.0,2022-08-17 14:43:19.640625
49,89.11,2022-08-17 14:43:19.656250
50,92.25,2022-08-17 14:43:19.671875
51,94.24,2022-08-17 14:43:19.687500
52,95.38,2022-08-17 14:43:19.703125
53,96.51,2022-08-17 14:43:19.718750
54,98.65,2022-08-17 14:43:19.734375
55,102.66,2022-08-17 14:43:19.750000
56,108.87,2022-08-17 14:43:19.765625
57,116.85,2022-08-17 14:43:19.781250
58,125.5,2022-08-17 14:43:19.796875
59,133.57,2022-08-17 14:43:19.812500
60,140.24,2022-08-17 14:43:19.828125
61,145.61,2022-08-17 14:43:19.843750
62,150.71,2022-08-17 14:43:19.859375
63,156.99,2022-08-17 14:43:19.875000
64,165.56,2022-08-17 14:43:19.890625
65,176.46,2022-08-17 14:43:19.906250
66,188.15,2022-08-17 14:43:19.921875
67,197.71,2022-08-17 14:43:19.937500
68,201.87,2022-08-17 14:43:19.953125
69,198.37,2022-08-17 14:43:19.968750
70,186.98,2022-08-17 14:43:19.984375
71,169.43,2022-08-17 14:43:20.000000
72,148.64,2022-08-17 14:43:20.015625
73,127.09,2022-08-17 14:43:20.031250
74,106.19,2022-08-17 14:43:20.046875
75,85.43,2022-08-17 14:43:20.062500
76,62.96,2022-08-17 14:43:20.078125
77,36.98,2022-08-17 14:43:20.093750
78,6.89,2022-08-17 14:43:20.109375
79,-26.49,2022-08-17 14:43:20.125000
80,-61.55,2022-08-17 14:43:20.140625
81,-96.4,2022-08-17 14:43:20.156250
82,-128.8,2022-08-17 14:43:20.171875
83,-154.76,2022-08-17 14:43:20.187500
84,-169.6,2022-08-17 14:43:20.203125
85,-169.52,2022-08-17 14:43:20.218750
86,-154.06,2022-08-17 14:43:20.234375
87,-127.56,2022-08-17 14:43:20.250000
88,-98.6,2022-08-17 14:43:20.265625
89,-76.92,2022-08-17 14:43:20.281250
90,-68.72,2022-08-17 14:43:20.296875
91,-73.27,2022-08-17 14:43:20.312500
92,-81.97,2022-08-17 14:43:20.328125
93,-84.22,2022-08-17 14:43:20.343750
94,-73.66,2022-08-17 14:43:20.359375
95,-51.7,2022-08-17 14:43:20.375000
96,-26.04,2022-08-17 14:43:20.390625
97,-5.49,2022-08-17 14:43:20.406250
98,5.14,2022-08-17 14:43:20.421875
99,7.53,2022-08-17 14:43:20.437500
100,7.84,2022-08-17 14:43:20.453125
101,13.86,2022-08-17 14:43:20.468750
102,28.78,2022-08-17 14:43:20.484375
103,49.45,2022-08-17 14:43:20.500000
104,68.83,2022-08-17 14:43:20.515625
105,80.53,2022-08-17 14:43:20.531250
106,82.1,2022-08-17 14:43:20.546875
107,74.97,2022-08-17 14:43:20.562500
108,62.56,2022-08-17 14:43:20.578125
109,38.17,2022-08-17 14:43:20.593750
110,-0.19,2022-08-17 14:43:20.609375
111,-47.93,2022-08-17 14:43:20.625000
112,-95.14,2022-08-17 14:43:20.640625
113,-133.02,2022-08-17 14:43:20.656250
114,-158.12,2022-08-17 14:43:20.671875
115,-171.52,2022-08-17 14:43:20.687500
116,-176.56,2022-08-17 14:43:20.703125
117,-176.07,2022-08-17 14:43:20.718750
118,-171.8,2022-08-17 14:43:20.734375
119,-162.95,2022-08-17 14:43:20.750000
120,-149.27,2022-08-17 14:43:20.765625
121,-132.35,2022-08-17 14:43:20.781250
122,-115.4,2022-08-17 14:43:20.796875
123,-101.66,2022-08-17 14:43:20.812500
124,-92.89,2022-08-17 14:43:20.828125
125,-90.06,2022-08-17 14:43:20.843750
126,-92.0,2022-08-17 14:43:20.859375
127,-97.51,2022-08-17 14:43:20.875000
128,-104.93,2022-08-17 14:43:20.890625
129,-113.56,2022-08-17 14:43:20.906250
130,-123.08,2022-08-17 14:43:20.921875
131,-132.38,2022-08-17 14:43:20.937500
132,-138.35,2022-08-17 14:43:20.953125
133,-133.72,2022-08-17 14:43:20.968750
134,-115.59,2022-08-17 14:43:20.984375
135,-85.72,2022-08-17 14:43:21.000000
136,-50.27,2022-08-17 14:43:21.015625
137,-16.36,2022-08-17 14:43:21.031250
138,10.22,2022-08-17 14:43:21.046875
139,27.09,2022-08-17 14:43:21.062500
140,35.27,2022-08-17 14:43:21.078125
141,37.55,2022-08-17 14:43:21.093750
142,36.12,2022-08-17 14:43:21.109375
143,30.78,2022-08-17 14:43:21.125000
144,20.59,2022-08-17 14:43:21.140625
145,5.66,2022-08-17 14:43:21.156250
146,-10.94,2022-08-17 14:43:21.171875
147,-24.16,2022-08-17 14:43:21.187500
148,-29.27,2022-08-17 14:43:21.203125
149,-24.7,2022-08-17 14:43:21.218750
150,-12.41,2022-08-17 14:43:21.234375
151,3.07,2022-08-17 14:43:21.250000
152,16.23,2022-08-17 14:43:21.265625
153,23.65,2022-08-17 14:43:21.281250
154,25.04,2022-08-17 14:43:21.296875
155,22.95,2022-08-17 14:43:21.312500
156,20.74,2022-08-17 14:43:21.328125
157,20.72,2022-08-17 14:43:21.343750
158,23.11,2022-08-17 14:43:21.359375
159,26.47,2022-08-17 14:43:21.375000
160,28.83,2022-08-17 14:43:21.390625
161,28.59,2022-08-17 14:43:21.406250
162,25.7,2022-08-17 14:43:21.421875
163,21.31,2022-08-17 14:43:21.437500
164,17.11,2022-08-17 14:43:21.453125
165,14.34,2022-08-17 14:43:21.468750
166,13.21,2022-08-17 14:43:21.484375
167,12.97,2022-08-17 14:43:21.500000
168,12.46,2022-08-17 14:43:21.515625
169,10.66,2022-08-17 14:43:21.531250
170,7.18,2022-08-17 14:43:21.546875
171,2.58,2022-08-17 14:43:21.562500
172,-1.98,2022-08-17 14:43:21.578125
173,-5.38,2022-08-17 14:43:21.593750
174,-6.92,2022-08-17 14:43:21.609375
175,-6.6,2022-08-17 14:43:21.625000
176,-5.14,2022-08-17 14:43:21.640625
177,-3.53,2022-08-17 14:43:21.656250
178,-2.59,2022-08-17 14:43:21.671875
179,-2.65,2022-08-17 14:43:21.687500
180,-3.51,2022-08-17 14:43:21.703125
181,-4.66,2022-08-17 14:43:21.718750
182,-5.62,2022-08-17 14:43:21.734375
183,-6.17,2022-08-17 14:43:21.750000
184,-6.41,2022-08-17 14:43:21.765625
185,-6.51,2022-08-17 14:43:21.781250
186,-6.56,2022-08-17 14:43:21.796875
187,-6.48,2022-08-17 14:43:21.812500
188,-6.12,2022-08-17 14:43:21.828125
189,-5.47,2022-08-17 14:43:21.843750
190,-4.77,2022-08-17 14:43:21.859375
191,-4.48,2022-08-17 14:43:21.875000
192,-5.09,2022-08-17 14:43:21.890625
193,-6.89,2022-08-17 14:43:21.906250
194,-9.77,2022-08-17 14:43:21.921875
195,-13.21,2022-08-17 14:43:21.937500
196,-16.47,2022-08-17 14:43:21.953125
197,-18.93,2022-08-17 14:43:21.968750
198,-20.34,2022-08-17 14:43:21.984375
199,-20.94,2022-08-17 14:43:22.000000
200,-21.3,2022-08-17 14:43:22.015625
201,-22.08,2022-08-17 14:43:22.031250
202,-23.64,2022-08-17 14:43:22.046875
203,-25.82,2022-08-17 14:43:22.062500
204,-28.02,2022-08-17 14:43:22.078125
205,-29.43,2022-08-17 14:43:22.093750
206,-29.44,2022-08-17 14:43:22.109375
207,-27.83,2022-08-17 14:43:22.125000
208,-24.83,2022-08-17 14:43:22.140625
209,-20.88,2022-08-17 14:43:22.156250
210,-16.42,2022-08-17 14:43:22.171875
211,-11.73,2022-08-17 14:43:22.187500
212,-6.99,2022-08-17 14:43:22.203125
213,-2.4,2022-08-17 14:43:22.218750
214,1.78,2022-08-17 14:43:22.234375
215,5.23,2022-08-17 14:43:22.250000
216,7.69,2022-08-17 14:43:22.265625
217,9.1,2022-08-17 14:43:22.281250
218,9.56,2022-08-17 14:43:22.296875
219,9.28,2022-08-17 14:43:22.312500
220,8.4,2022-08-17 14:43:22.328125
221,7.09,2022-08-17 14:43:22.343750
222,5.57,2022-08-17 14:43:22.359375
223,4.21,2022-08-17 14:43:22.375000
224,3.55,2022-08-17 14:43:22.390625
225,4.1,2022-08-17 14:43:22.406250
226,6.13,2022-08-17 14:43:22.421875
227,9.4,2022-08-17 14:43:22.437500
228,13.25,2022-08-17 14:43:22.453125
229,16.73,2022-08-17 14:43:22.468750
230,19.02,2022-08-17 14:43:22.484375
231,19.72,2022-08-17 14:43:22.500000
232,18.95,2022-08-17 14:43:22.515625
233,17.25,2022-08-17 14:43:22.531250
234,15.24,2022-08-17 14:43:22.546875
235,13.29,2022-08-17 14:43:22.562500
236,11.42,2022-08-17 14:43:22.578125
237,9.28,2022-08-17 14:43:22.593750
238,6.48,2022-08-17 14:43:22.609375
239,2.85,2022-08-17 14:43:22.625000
240,-1.3,2022-08-17 14:43:22.640625
241,-5.23,2022-08-17 14:43:22.656250
242,-7.95,2022-08-17 14:43:22.671875
243,-8.58,2022-08-17 14:43:22.687500
244,-6.71,2022-08-17 14:43:22.703125
245,-2.56,2022-08-17 14:43:22.718750
246,3.06,2022-08-17 14:43:22.734375
247,9.0,2022-08-17 14:43:22.750000
248,14.1,2022-08-17 14:43:22.765625
249,17.46,2022-08-17 14:43:22.781250
250,18.76,2022-08-17 14:43:22.796875
251,18.4,2022-08-17 14:43:22.812500
252,17.62,2022-08-17 14:43:22.828125
253,18.43,2022-08-17 14:43:22.843750
254,23.32,2022-08-17 14:43:22.859375
255,34.63,2022-08-17 14:43:22.875000
256,53.79,2022-08-17 14:43:22.890625
257,80.72,2022-08-17 14:43:22.906250
258,113.69,2022-08-17 14:43:22.921875
259,149.78,2022-08-17 14:43:22.937500
260,185.68,2022-08-17 14:43:22.953125
261,218.48,2022-08-17 14:43:22.968750
262,246.09,2022-08-17 14:43:22.984375
263,267.16,2022-08-17 14:43:23.000000
264,280.66,2022-08-17 14:43:23.015625
265,285.45,2022-08-17 14:43:23.031250
266,280.26,2022-08-17 14:43:23.046875
267,263.92,2022-08-17 14:43:23.062500
268,236.12,2022-08-17 14:43:23.078125
269,197.79,2022-08-17 14:43:23.093750
270,151.33,2022-08-17 14:43:23.109375
271,100.18,2022-08-17 14:43:23.125000
272,48.05,2022-08-17 14:43:23.140625
273,-1.89,2022-08-17 14:43:23.156250
274,-47.48,2022-08-17 14:43:23.171875
275,-87.66,2022-08-17 14:43:23.187500
276,-122.01,2022-08-17 14:43:23.203125
277,-150.41,2022-08-17 14:43:23.218750
278,-172.74,2022-08-17 14:43:23.234375
279,-189.06,2022-08-17 14:43:23.250000
280,-199.95,2022-08-17 14:43:23.265625
281,-206.83,2022-08-17 14:43:23.281250
282,-211.74,2022-08-17 14:43:23.296875
283,-216.71,2022-08-17 14:43:23.312500
284,-223.01,2022-08-17 14:43:23.328125
285,-230.65,2022-08-17 14:43:23.343750
286,-238.53,2022-08-17 14:43:23.359375
287,-244.94,2022-08-17 14:43:23.375000
288,-248.49,2022-08-17 14:43:23.390625
289,-248.61,2022-08-17 14:43:23.406250
290,-245.7,2022-08-17 14:43:23.421875
291,-240.6,2022-08-17 14:43:23.437500
292,-233.9,2022-08-17 14:43:23.453125
293,-225.44,2022-08-17 14:43:23.468750
294,-214.36,2022-08-17 14:43:23.484375
295,-199.57,2022-08-17 14:43:23.500000
296,-180.58,2022-08-17 14:43:23.515625
297,-158.07,2022-08-17 14:43:23.531250
298,-134.03,2022-08-17 14:43:23.546875
299,-111.33,2022-08-17 14:43:23.562500
300,-92.69,2022-08-17 14:43:23.578125
301,-79.64,2022-08-17 14:43:23.593750
302,-71.92,2022-08-17 14:43:23.609375
303,-67.52,2022-08-17 14:43:23.625000
304,-63.32,2022-08-17 14:43:23.640625
305,-56.07,2022-08-17 14:43:23.656250
306,-43.4,2022-08-17 14:43:23.671875
307,-24.78,2022-08-17 14:43:23.687500
308,-1.8,2022-08-17 14:43:23.703125
309,22.39,2022-08-17 14:43:23.718750
310,44.18,2022-08-17 14:43:23.734375
311,60.74,2022-08-17 14:43:23.750000
312,70.85,2022-08-17 14:43:23.765625
313,75.17,2022-08-17 14:43:23.781250
314,76.12,2022-08-17 14:43:23.796875
315,76.83,2022-08-17 14:43:23.812500
316,79.68,2022-08-17 14:43:23.828125
317,85.13,2022-08-17 14:43:23.843750
318,91.67,2022-08-17 14:43:23.859375
319,96.59,2022-08-17 14:43:23.875000
320,97.09,2022-08-17 14:43:23.890625
321,91.57,2022-08-17 14:43:23.906250
322,80.73,2022-08-17 14:43:23.921875
323,68.18,2022-08-17 14:43:23.937500
324,59.83,2022-08-17 14:43:23.953125
325,61.49,2022-08-17 14:43:23.968750
326,75.96,2022-08-17 14:43:23.984375
327,101.51,2022-08-17 14:43:24.000000
328,131.85,2022-08-17 14:43:24.015625
329,157.78,2022-08-17 14:43:24.031250
330,169.82,2022-08-17 14:43:24.046875
331,161.5,2022-08-17 14:43:24.062500
332,132.09,2022-08-17 14:43:24.078125
333,87.29,2022-08-17 14:43:24.093750
334,37.36,2022-08-17 14:43:24.109375
335,-6.26,2022-08-17 14:43:24.125000
336,-33.95,2022-08-17 14:43:24.140625
337,-40.07,2022-08-17 14:43:24.156250
338,-23.96,2022-08-17 14:43:24.171875
339,11.75,2022-08-17 14:43:24.187500
340,57.66,2022-08-17 14:43:24.203125
341,99.16,2022-08-17 14:43:24.218750
342,123.8,2022-08-17 14:43:24.234375
343,126.63,2022-08-17 14:43:24.250000
344,109.18,2022-08-17 14:43:24.265625
345,76.06,2022-08-17 14:43:24.281250
346,33.37,2022-08-17 14:43:24.296875
347,-10.81,2022-08-17 14:43:24.312500
348,-51.78,2022-08-17 14:43:24.328125
349,-84.77,2022-08-17 14:43:24.343750
350,-105.88,2022-08-17 14:43:24.359375
351,-113.54,2022-08-17 14:43:24.375000
352,-109.55,2022-08-17 14:43:24.390625
353,-98.61,2022-08-17 14:43:24.406250
354,-86.24,2022-08-17 14:43:24.421875
355,-75.45,2022-08-17 14:43:24.437500
356,-68.19,2022-08-17 14:43:24.453125
357,-64.62,2022-08-17 14:43:24.468750
358,-63.25,2022-08-17 14:43:24.484375
359,-61.84,2022-08-17 14:43:24.500000
360,-58.21,2022-08-17 14:43:24.515625
361,-51.25,2022-08-17 14:43:24.531250
362,-41.48,2022-08-17 14:43:24.546875
363,-30.64,2022-08-17 14:43:24.562500
364,-20.45,2022-08-17 14:43:24.578125
365,-12.2,2022-08-17 14:43:24.593750
366,-6.13,2022-08-17 14:43:24.609375
367,-1.35,2022-08-17 14:43:24.625000
368,3.52,2022-08-17 14:43:24.640625
369,9.73,2022-08-17 14:43:24.656250
370,17.62,2022-08-17 14:43:24.671875
371,26.42,2022-08-17 14:43:24.687500
372,34.75,2022-08-17 14:43:24.703125
373,41.47,2022-08-17 14:43:24.718750
374,46.04,2022-08-17 14:43:24.734375
375,48.72,2022-08-17 14:43:24.750000
376,50.58,2022-08-17 14:43:24.765625
377,52.73,2022-08-17 14:43:24.781250
378,55.94,2022-08-17 14:43:24.796875
379,60.32,2022-08-17 14:43:24.812500
380,65.38,2022-08-17 14:43:24.828125
381,70.5,2022-08-17 14:43:24.843750
382,75.52,2022-08-17 14:43:24.859375
383,80.97,2022-08-17 14:43:24.875000
384,87.97,2022-08-17 14:43:24.890625
385,97.73,2022-08-17 14:43:24.906250
386,110.75,2022-08-17 14:43:24.921875
387,126.56,2022-08-17 14:43:24.937500
388,143.94,2022-08-17 14:43:24.953125
389,161.26,2022-08-17 14:43:24.968750
390,176.86,2022-08-17 14:43:24.984375
391,189.03,2022-08-17 14:43:25.000000
392,195.7,2022-08-17 14:43:25.015625
393,194.33,2022-08-17 14:43:25.031250
394,182.25,2022-08-17 14:43:25.046875
395,157.57,2022-08-17 14:43:25.062500
396,120.17,2022-08-17 14:43:25.078125
397,72.35,2022-08-17 14:43:25.093750
398,18.38,2022-08-17 14:43:25.109375
399,-37.06,2022-08-17 14:43:25.125000
400,-90.44,2022-08-17 14:43:25.140625
401,-140.38,2022-08-17 14:43:25.156250
402,-187.02,2022-08-17 14:43:25.171875
403,-230.25,2022-08-17 14:43:25.187500
404,-267.98,2022-08-17 14:43:25.203125
405,-295.63,2022-08-17 14:43:25.218750
406,-307.54,2022-08-17 14:43:25.234375
407,-299.64,2022-08-17 14:43:25.250000
408,-271.87,2022-08-17 14:43:25.265625
409,-228.88,2022-08-17 14:43:25.281250
410,-178.5,2022-08-17 14:43:25.296875
411,-128.81,2022-08-17 14:43:25.312500
412,-85.33,2022-08-17 14:43:25.328125
413,-49.85,2022-08-17 14:43:25.343750
414,-21.24,2022-08-17 14:43:25.359375
415,2.43,2022-08-17 14:43:25.375000
416,22.02,2022-08-17 14:43:25.390625
417,36.63,2022-08-17 14:43:25.406250
418,44.43,2022-08-17 14:43:25.421875
419,44.34,2022-08-17 14:43:25.437500
420,37.54,2022-08-17 14:43:25.453125
421,27.91,2022-08-17 14:43:25.468750
422,21.12,2022-08-17 14:43:25.484375
423,22.47,2022-08-17 14:43:25.500000
424,34.7,2022-08-17 14:43:25.515625
425,56.42,2022-08-17 14:43:25.531250
426,82.24,2022-08-17 14:43:25.546875
427,104.76,2022-08-17 14:43:25.562500
428,117.57,2022-08-17 14:43:25.578125
429,118.01,2022-08-17 14:43:25.593750
430,108.26,2022-08-17 14:43:25.609375
431,94.15,2022-08-17 14:43:25.625000
432,82.33,2022-08-17 14:43:25.640625
433,77.09,2022-08-17 14:43:25.656250
434,78.62,2022-08-17 14:43:25.671875
435,83.33,2022-08-17 14:43:25.687500
436,85.97,2022-08-17 14:43:25.703125
437,82.48,2022-08-17 14:43:25.718750
438,71.95,2022-08-17 14:43:25.734375
439,56.8,2022-08-17 14:43:25.750000
440,41.33,2022-08-17 14:43:25.765625
441,29.59,2022-08-17 14:43:25.781250
442,23.58,2022-08-17 14:43:25.796875
443,22.59,2022-08-17 14:43:25.812500
444,23.86,2022-08-17 14:43:25.828125
445,23.9,2022-08-17 14:43:25.843750
446,19.89,2022-08-17 14:43:25.859375
447,10.67,2022-08-17 14:43:25.875000
448,-2.96,2022-08-17 14:43:25.890625
449,-18.51,2022-08-17 14:43:25.906250
450,-32.44,2022-08-17 14:43:25.921875
451,-40.99,2022-08-17 14:43:25.937500
452,-41.26,2022-08-17 14:43:25.953125
453,-32.17,2022-08-17 14:43:25.968750
454,-15.03,2022-08-17 14:43:25.984375
455,6.59,2022-08-17 14:43:26.000000
456,27.87,2022-08-17 14:43:26.015625
457,44.03,2022-08-17 14:43:26.031250
458,51.52,2022-08-17 14:43:26.046875
459,48.48,2022-08-17 14:43:26.062500
460,34.75,2022-08-17 14:43:26.078125
461,11.65,2022-08-17 14:43:26.093750
462,-18.25,2022-08-17 14:43:26.109375
463,-51.51,2022-08-17 14:43:26.125000
464,-84.31,2022-08-17 14:43:26.140625
465,-113.17,2022-08-17 14:43:26.156250
466,-135.38,2022-08-17 14:43:26.171875
467,-149.07,2022-08-17 14:43:26.187500
468,-152.72,2022-08-17 14:43:26.203125
469,-144.75,2022-08-17 14:43:26.218750
470,-123.67,2022-08-17 14:43:26.234375
471,-89.41,2022-08-17 14:43:26.250000
472,-44.89,2022-08-17 14:43:26.265625
473,3.37,2022-08-17 14:43:26.281250
474,46.18,2022-08-17 14:43:26.296875
475,74.47,2022-08-17 14:43:26.312500
476,82.65,2022-08-17 14:43:26.328125
477,70.6,2022-08-17 14:43:26.343750
478,43.36,2022-08-17 14:43:26.359375
479,8.51,2022-08-17 14:43:26.375000
480,-27.17,2022-08-17 14:43:26.390625
481,-59.73,2022-08-17 14:43:26.406250
482,-87.98,2022-08-17 14:43:26.421875
483,-111.5,2022-08-17 14:43:26.437500
484,-128.4,2022-08-17 14:43:26.453125
485,-134.41,2022-08-17 14:43:26.468750
486,-124.31,2022-08-17 14:43:26.484375
487,-94.92,2022-08-17 14:43:26.500000
488,-48.03,2022-08-17 14:43:26.515625
489,8.59,2022-08-17 14:43:26.531250
490,63.21,2022-08-17 14:43:26.546875
491,104.4,2022-08-17 14:43:26.562500
492,125.5,2022-08-17 14:43:26.578125
493,127.06,2022-08-17 14:43:26.593750
494,116.1,2022-08-17 14:43:26.609375
495,102.36,2022-08-17 14:43:26.625000
496,93.91,2022-08-17 14:43:26.640625
497,94.14,2022-08-17 14:43:26.656250
498,101.69,2022-08-17 14:43:26.671875
499,112.7,2022-08-17 14:43:26.687500
500,123.93,2022-08-17 14:43:26.703125
501,134.62,2022-08-17 14:43:26.718750
502,146.38,2022-08-17 14:43:26.734375
503,161.24,2022-08-17 14:43:26.750000
504,179.76,2022-08-17 14:43:26.765625
505,200.11,2022-08-17 14:43:26.781250
506,218.45,2022-08-17 14:43:26.796875
507,230.64,2022-08-17 14:43:26.812500
508,233.62,2022-08-17 14:43:26.828125
509,226.69,2022-08-17 14:43:26.843750
510,211.53,2022-08-17 14:43:26.859375
511,191.2,2022-08-17 14:43:26.875000
512,168.7,2022-08-17 14:43:26.890625
513,146.38,2022-08-17 14:43:26.906250
514,125.73,2022-08-17 14:43:26.921875
515,107.45,2022-08-17 14:43:26.937500
516,91.8,2022-08-17 14:43:26.953125
517,78.6,2022-08-17 14:43:26.968750
518,67.67,2022-08-17 14:43:26.984375
519,58.77,2022-08-17 14:43:27.000000
520,51.42,2022-08-17 14:43:27.015625
521,44.09,2022-08-17 14:43:27.031250
522,34.93,2022-08-17 14:43:27.046875
523,22.3,2022-08-17 14:43:27.062500
524,5.36,2022-08-17 14:43:27.078125
525,-15.39,2022-08-17 14:43:27.093750
526,-38.74,2022-08-17 14:43:27.109375
527,-62.53,2022-08-17 14:43:27.125000
528,-84.31,2022-08-17 14:43:27.140625
529,-102.62,2022-08-17 14:43:27.156250
530,-119.14,2022-08-17 14:43:27.171875
531,-136.43,2022-08-17 14:43:27.187500
532,-156.23,2022-08-17 14:43:27.203125
533,-178.55,2022-08-17 14:43:27.218750
534,-201.19,2022-08-17 14:43:27.234375
535,-222.56,2022-08-17 14:43:27.250000
536,-240.95,2022-08-17 14:43:27.265625
537,-254.68,2022-08-17 14:43:27.281250
538,-262.44,2022-08-17 14:43:27.296875
539,-265.76,2022-08-17 14:43:27.312500
540,-264.73,2022-08-17 14:43:27.328125
541,-257.46,2022-08-17 14:43:27.343750
542,-242.31,2022-08-17 14:43:27.359375
543,-219.66,2022-08-17 14:43:27.375000
544,-196.48,2022-08-17 14:43:27.390625
545,-180.71,2022-08-17 14:43:27.406250
546,-176.75,2022-08-17 14:43:27.421875
547,-183.72,2022-08-17 14:43:27.437500
548,-200.66,2022-08-17 14:43:27.453125
549,-222.7,2022-08-17 14:43:27.468750
550,-242.78,2022-08-17 14:43:27.484375
551,-255.08,2022-08-17 14:43:27.500000
552,-256.03,2022-08-17 14:43:27.515625
553,-250.41,2022-08-17 14:43:27.531250
554,-243.84,2022-08-17 14:43:27.546875
555,-239.9,2022-08-17 14:43:27.562500
556,-241.08,2022-08-17 14:43:27.578125
557,-255.77,2022-08-17 14:43:27.593750
558,-289.61,2022-08-17 14:43:27.609375
559,-341.38,2022-08-17 14:43:27.625000
560,-402.47,2022-08-17 14:43:27.640625
561,-457.79,2022-08-17 14:43:27.656250
562,-497.92,2022-08-17 14:43:27.671875
563,-516.14,2022-08-17 14:43:27.687500
564,-509.59,2022-08-17 14:43:27.703125
565,-440.69,2022-08-17 14:43:27.718750
566,-301.86,2022-08-17 14:43:27.734375
567,-120.52,2022-08-17 14:43:27.750000
568,57.08,2022-08-17 14:43:27.765625
569,178.12,2022-08-17 14:43:27.781250
570,250.84,2022-08-17 14:43:27.796875
571,291.16,2022-08-17 14:43:27.812500
572,311.07,2022-08-17 14:43:27.828125
573,321.72,2022-08-17 14:43:27.843750
574,327.03,2022-08-17 14:43:27.859375
575,322.58,2022-08-17 14:43:27.875000
576,306.53,2022-08-17 14:43:27.890625
577,282.86,2022-08-17 14:43:27.906250
578,259.65,2022-08-17 14:43:27.921875
579,246.42,2022-08-17 14:43:27.937500
580,242.82,2022-08-17 14:43:27.953125
581,245.15,2022-08-17 14:43:27.968750
582,249.68,2022-08-17 14:43:27.984375
583,253.26,2022-08-17 14:43:28.000000
584,249.65,2022-08-17 14:43:28.015625
585,236.04,2022-08-17 14:43:28.031250
586,214.51,2022-08-17 14:43:28.046875
587,190.25,2022-08-17 14:43:28.062500
588,169.99,2022-08-17 14:43:28.078125
589,153.69,2022-08-17 14:43:28.093750
590,139.73,2022-08-17 14:43:28.109375
591,127.13,2022-08-17 14:43:28.125000
592,115.27,2022-08-17 14:43:28.140625
593,101.27,2022-08-17 14:43:28.156250
594,83.83,2022-08-17 14:43:28.171875
595,64.27,2022-08-17 14:43:28.187500
596,45.7,2022-08-17 14:43:28.203125
597,32.18,2022-08-17 14:43:28.218750
598,23.42,2022-08-17 14:43:28.234375
599,17.95,2022-08-17 14:43:28.250000
600,14.53,2022-08-17 14:43:28.265625
601,12.1,2022-08-17 14:43:28.281250
602,8.77,2022-08-17 14:43:28.296875
603,3.71,2022-08-17 14:43:28.312500
604,-2.43,2022-08-17 14:43:28.328125
605,-8.08,2022-08-17 14:43:28.343750
606,-11.33,2022-08-17 14:43:28.359375
607,-12.54,2022-08-17 14:43:28.375000
608,-12.67,2022-08-17 14:43:28.390625
609,-12.43,2022-08-17 14:43:28.406250
610,-12.19,2022-08-17 14:43:28.421875
611,-12.23,2022-08-17 14:43:28.437500
612,-12.21,2022-08-17 14:43:28.453125
613,-11.29,2022-08-17 14:43:28.468750
614,-8.47,2022-08-17 14:43:28.484375
615,-3.03,2022-08-17 14:43:28.500000
616,4.54,2022-08-17 14:43:28.515625
617,13.22,2022-08-17 14:43:28.531250
618,21.94,2022-08-17 14:43:28.546875
619,29.81,2022-08-17 14:43:28.562500
620,36.41,2022-08-17 14:43:28.578125
621,41.76,2022-08-17 14:43:28.593750
622,46.2,2022-08-17 14:43:28.609375
623,50.22,2022-08-17 14:43:28.625000
624,54.19,2022-08-17 14:43:28.640625
625,58.25,2022-08-17 14:43:28.656250
626,62.24,2022-08-17 14:43:28.671875
627,65.8,2022-08-17 14:43:28.687500
628,68.42,2022-08-17 14:43:28.703125
629,69.63,2022-08-17 14:43:28.718750
630,69.14,2022-08-17 14:43:28.734375
631,66.98,2022-08-17 14:43:28.750000
632,63.6,2022-08-17 14:43:28.765625
633,59.84,2022-08-17 14:43:28.781250
634,56.84,2022-08-17 14:43:28.796875
635,55.63,2022-08-17 14:43:28.812500
636,56.69,2022-08-17 14:43:28.828125
637,59.52,2022-08-17 14:43:28.843750
638,62.51,2022-08-17 14:43:28.859375
639,63.34,2022-08-17 14:43:28.875000
640,59.75,2022-08-17 14:43:28.890625
641,50.46,2022-08-17 14:43:28.906250
642,35.77,2022-08-17 14:43:28.921875
643,17.48,2022-08-17 14:43:28.937500
644,-1.74,2022-08-17 14:43:28.953125
645,-19.3,2022-08-17 14:43:28.968750
646,-33.53,2022-08-17 14:43:28.984375
647,-44.0,2022-08-17 14:43:29.000000
648,-51.22,2022-08-17 14:43:29.015625
649,-56.15,2022-08-17 14:43:29.031250
650,-59.67,2022-08-17 14:43:29.046875
651,-62.4,2022-08-17 14:43:29.062500
652,-64.74,2022-08-17 14:43:29.078125
653,-67.04,2022-08-17 14:43:29.093750
654,-69.68,2022-08-17 14:43:29.109375
655,-72.91,2022-08-17 14:43:29.125000
656,-76.63,2022-08-17 14:43:29.140625
657,-80.22,2022-08-17 14:43:29.156250
658,-82.66,2022-08-17 14:43:29.171875
659,-82.84,2022-08-17 14:43:29.187500
660,-80.03,2022-08-17 14:43:29.203125
661,-74.22,2022-08-17 14:43:29.218750
662,-66.21,2022-08-17 14:43:29.234375
663,-57.42,2022-08-17 14:43:29.250000
664,-49.37,2022-08-17 14:43:29.265625
665,-43.23,2022-08-17 14:43:29.281250
666,-39.42,2022-08-17 14:43:29.296875
667,-37.63,2022-08-17 14:43:29.312500
668,-37.07,2022-08-17 14:43:29.328125
669,-36.83,2022-08-17 14:43:29.343750
670,-36.27,2022-08-17 14:43:29.359375
671,-35.1,2022-08-17 14:43:29.375000
672,-33.39,2022-08-17 14:43:29.390625
673,-31.38,2022-08-17 14:43:29.406250
674,-29.32,2022-08-17 14:43:29.421875
675,-27.33,2022-08-17 14:43:29.437500
676,-25.42,2022-08-17 14:43:29.453125
677,-23.49,2022-08-17 14:43:29.468750
678,-21.38,2022-08-17 14:43:29.484375
679,-18.94,2022-08-17 14:43:29.500000
680,-16.14,2022-08-17 14:43:29.515625
681,-13.1,2022-08-17 14:43:29.531250
682,-10.04,2022-08-17 14:43:29.546875
683,-7.25,2022-08-17 14:43:29.562500
684,-4.87,2022-08-17 14:43:29.578125
685,-2.87,2022-08-17 14:43:29.593750
686,-1.09,2022-08-17 14:43:29.609375
687,0.71,2022-08-17 14:43:29.625000
688,2.67,2022-08-17 14:43:29.640625
689,4.73,2022-08-17 14:43:29.656250
690,6.7,2022-08-17 14:43:29.671875
691,8.31,2022-08-17 14:43:29.687500
692,9.32,2022-08-17 14:43:29.703125
693,9.6,2022-08-17 14:43:29.718750
694,9.18,2022-08-17 14:43:29.734375
695,8.18,2022-08-17 14:43:29.750000
696,6.86,2022-08-17 14:43:29.765625
697,5.55,2022-08-17 14:43:29.781250
698,4.57,2022-08-17 14:43:29.796875
699,4.19,2022-08-17 14:43:29.812500
700,4.53,2022-08-17 14:43:29.828125
701,5.51,2022-08-17 14:43:29.843750
702,6.82,2022-08-17 14:43:29.859375
703,8.1,2022-08-17 14:43:29.875000
704,8.99,2022-08-17 14:43:29.890625
705,9.25,2022-08-17 14:43:29.906250
706,8.88,2022-08-17 14:43:29.921875
707,8.03,2022-08-17 14:43:29.937500
708,6.94,2022-08-17 14:43:29.953125
709,5.81,2022-08-17 14:43:29.968750
710,4.72,2022-08-17 14:43:29.984375
711,3.6,2022-08-17 14:43:30.000000
712,2.29,2022-08-17 14:43:30.015625
713,0.61,2022-08-17 14:43:30.031250
714,-1.53,2022-08-17 14:43:30.046875
715,-4.1,2022-08-17 14:43:30.062500
716,-6.92,2022-08-17 14:43:30.078125
717,-9.72,2022-08-17 14:43:30.093750
718,-12.09,2022-08-17 14:43:30.109375
719,-13.6,2022-08-17 14:43:30.125000
720,-13.79,2022-08-17 14:43:30.140625
721,-12.36,2022-08-17 14:43:30.156250
722,-9.26,2022-08-17 14:43:30.171875
723,-4.78,2022-08-17 14:43:30.187500
724,0.5,2022-08-17 14:43:30.203125
725,5.9,2022-08-17 14:43:30.218750
726,10.82,2022-08-17 14:43:30.234375
727,14.9,2022-08-17 14:43:30.250000
728,18.06,2022-08-17 14:43:30.265625
729,20.38,2022-08-17 14:43:30.281250
730,22.02,2022-08-17 14:43:30.296875
731,23.11,2022-08-17 14:43:30.312500
732,23.73,2022-08-17 14:43:30.328125
733,23.94,2022-08-17 14:43:30.343750
734,23.75,2022-08-17 14:43:30.359375
735,23.21,2022-08-17 14:43:30.375000
736,22.3,2022-08-17 14:43:30.390625
737,21.04,2022-08-17 14:43:30.406250
738,19.48,2022-08-17 14:43:30.421875
739,17.78,2022-08-17 14:43:30.437500
740,16.13,2022-08-17 14:43:30.453125
741,14.73,2022-08-17 14:43:30.468750
742,13.65,2022-08-17 14:43:30.484375
743,12.85,2022-08-17 14:43:30.500000
744,12.2,2022-08-17 14:43:30.515625
745,11.58,2022-08-17 14:43:30.531250
746,10.9,2022-08-17 14:43:30.546875
747,10.16,2022-08-17 14:43:30.562500
748,9.39,2022-08-17 14:43:30.578125
749,8.62,2022-08-17 14:43:30.593750
750,7.82,2022-08-17 14:43:30.609375
751,6.96,2022-08-17 14:43:30.625000
752,5.97,2022-08-17 14:43:30.640625
753,4.82,2022-08-17 14:43:30.656250
754,3.49,2022-08-17 14:43:30.671875
755,2.05,2022-08-17 14:43:30.687500
756,0.54,2022-08-17 14:43:30.703125
757,-1.0,2022-08-17 14:43:30.718750
758,-2.56,2022-08-17 14:43:30.734375
759,-4.14,2022-08-17 14:43:30.750000
760,-5.81,2022-08-17 14:43:30.765625
761,-7.61,2022-08-17 14:43:30.781250
762,-9.6,2022-08-17 14:43:30.796875
763,-11.83,2022-08-17 14:43:30.812500
764,-14.27,2022-08-17 14:43:30.828125
765,-16.83,2022-08-17 14:43:30.843750
766,-19.31,2022-08-17 14:43:30.859375
767,-21.36,2022-08-17 14:43:30.875000
768,-22.53,2022-08-17 14:43:30.890625
769,-22.38,2022-08-17 14:43:30.906250
770,-20.62,2022-08-17 14:43:30.921875
771,-17.24,2022-08-17 14:43:30.937500
772,-12.52,2022-08-17 14:43:30.953125
773,-6.98,2022-08-17 14:43:30.968750
774,-1.23,2022-08-17 14:43:30.984375
775,4.24,2022-08-17 14:43:31.000000
776,9.1,2022-08-17 14:43:31.015625
777,13.24,2022-08-17 14:43:31.031250
778,16.62,2022-08-17 14:43:31.046875
779,19.24,2022-08-17 14:43:31.062500
780,21.09,2022-08-17 14:43:31.078125
781,22.16,2022-08-17 14:43:31.093750
782,22.52,2022-08-17 14:43:31.109375
783,22.28,2022-08-17 14:43:31.125000
784,21.6,2022-08-17 14:43:31.140625
785,20.64,2022-08-17 14:43:31.156250
786,19.51,2022-08-17 14:43:31.171875
787,18.33,2022-08-17 14:43:31.187500
788,17.24,2022-08-17 14:43:31.203125
789,16.36,2022-08-17 14:43:31.218750
790,15.82,2022-08-17 14:43:31.234375
791,15.63,2022-08-17 14:43:31.250000
792,15.67,2022-08-17 14:43:31.265625
793,15.75,2022-08-17 14:43:31.281250
794,15.65,2022-08-17 14:43:31.296875
795,15.25,2022-08-17 14:43:31.312500
796,14.53,2022-08-17 14:43:31.328125
797,13.56,2022-08-17 14:43:31.343750
798,12.44,2022-08-17 14:43:31.359375
799,11.2,2022-08-17 14:43:31.375000
800,9.87,2022-08-17 14:43:31.390625
801,8.44,2022-08-17 14:43:31.406250
802,6.88,2022-08-17 14:43:31.421875
803,5.2,2022-08-17 14:43:31.437500
804,3.39,2022-08-17 14:43:31.453125
805,1.48,2022-08-17 14:43:31.468750
806,-0.53,2022-08-17 14:43:31.484375
807,-2.6,2022-08-17 14:43:31.500000
808,-4.71,2022-08-17 14:43:31.515625
809,-6.84,2022-08-17 14:43:31.531250
810,-8.98,2022-08-17 14:43:31.546875
811,-11.15,2022-08-17 14:43:31.562500
812,-13.39,2022-08-17 14:43:31.578125
813,-15.74,2022-08-17 14:43:31.593750
814,-18.22,2022-08-17 14:43:31.609375
815,-20.82,2022-08-17 14:43:31.625000
816,-23.37,2022-08-17 14:43:31.640625
817,-25.61,2022-08-17 14:43:31.656250
818,-27.08,2022-08-17 14:43:31.671875
819,-27.31,2022-08-17 14:43:31.687500
820,-25.92,2022-08-17 14:43:31.703125
821,-22.8,2022-08-17 14:43:31.718750
822,-18.21,2022-08-17 14:43:31.734375
823,-12.68,2022-08-17 14:43:31.750000
824,-6.86,2022-08-17 14:43:31.765625
825,-1.32,2022-08-17 14:43:31.781250
826,3.61,2022-08-17 14:43:31.796875
827,7.86,2022-08-17 14:43:31.812500
828,11.43,2022-08-17 14:43:31.828125
829,14.33,2022-08-17 14:43:31.843750
830,16.46,2022-08-17 14:43:31.859375
831,17.66,2022-08-17 14:43:31.875000
832,17.81,2022-08-17 14:43:31.890625
833,16.96,2022-08-17 14:43:31.906250
834,15.33,2022-08-17 14:43:31.921875
835,13.24,2022-08-17 14:43:31.937500
836,11.06,2022-08-17 14:43:31.953125
837,9.09,2022-08-17 14:43:31.968750
838,7.51,2022-08-17 14:43:31.984375
839,6.38,2022-08-17 14:43:32.000000
840,5.67,2022-08-17 14:43:32.015625
841,5.24,2022-08-17 14:43:32.031250
842,4.93,2022-08-17 14:43:32.046875
843,4.61,2022-08-17 14:43:32.062500
844,4.17,2022-08-17 14:43:32.078125
845,3.58,2022-08-17 14:43:32.093750
846,2.85,2022-08-17 14:43:32.109375
847,2.01,2022-08-17 14:43:32.125000
848,1.06,2022-08-17 14:43:32.140625
849,-0.02,2022-08-17 14:43:32.156250
850,-1.28,2022-08-17 14:43:32.171875
851,-2.75,2022-08-17 14:43:32.187500
852,-4.45,2022-08-17 14:43:32.203125
853,-6.35,2022-08-17 14:43:32.218750
854,-8.38,2022-08-17 14:43:32.234375
855,-10.47,2022-08-17 14:43:32.250000
856,-12.51,2022-08-17 14:43:32.265625
857,-14.42,2022-08-17 14:43:32.281250
858,-16.16,2022-08-17 14:43:32.296875
859,-17.75,2022-08-17 14:43:32.312500
860,-19.25,2022-08-17 14:43:32.328125
861,-20.79,2022-08-17 14:43:32.343750
862,-22.52,2022-08-17 14:43:32.359375
863,-24.59,2022-08-17 14:43:32.375000
864,-27.06,2022-08-17 14:43:32.390625
865,-29.89,2022-08-17 14:43:32.406250
866,-32.79,2022-08-17 14:43:32.421875
867,-35.31,2022-08-17 14:43:32.437500
868,-36.85,2022-08-17 14:43:32.453125
869,-36.88,2022-08-17 14:43:32.468750
870,-35.04,2022-08-17 14:43:32.484375
871,-31.32,2022-08-17 14:43:32.500000
872,-25.99,2022-08-17 14:43:32.515625
873,-19.57,2022-08-17 14:43:32.531250
874,-12.65,2022-08-17 14:43:32.546875
875,-5.78,2022-08-17 14:43:32.562500
876,0.6,2022-08-17 14:43:32.578125
877,6.16,2022-08-17 14:43:32.593750
878,10.67,2022-08-17 14:43:32.609375
879,14.02,2022-08-17 14:43:32.625000
880,16.18,2022-08-17 14:43:32.640625
881,17.25,2022-08-17 14:43:32.656250
882,17.35,2022-08-17 14:43:32.671875
883,16.65,2022-08-17 14:43:32.687500
884,15.33,2022-08-17 14:43:32.703125
885,13.61,2022-08-17 14:43:32.718750
886,11.78,2022-08-17 14:43:32.734375
887,10.18,2022-08-17 14:43:32.750000
888,9.09,2022-08-17 14:43:32.765625
889,8.64,2022-08-17 14:43:32.781250
890,8.79,2022-08-17 14:43:32.796875
891,9.29,2022-08-17 14:43:32.812500
892,9.88,2022-08-17 14:43:32.828125
893,10.34,2022-08-17 14:43:32.843750
894,10.57,2022-08-17 14:43:32.859375
895,10.58,2022-08-17 14:43:32.875000
896,10.4,2022-08-17 14:43:32.890625
897,10.07,2022-08-17 14:43:32.906250
898,9.53,2022-08-17 14:43:32.921875
899,8.72,2022-08-17 14:43:32.937500
900,7.58,2022-08-17 14:43:32.953125
901,6.09,2022-08-17 14:43:32.968750
902,4.33,2022-08-17 14:43:32.984375
903,2.41,2022-08-17 14:43:33.000000
904,0.47,2022-08-17 14:43:33.015625
905,-1.43,2022-08-17 14:43:33.031250
906,-3.25,2022-08-17 14:43:33.046875
907,-5.07,2022-08-17 14:43:33.062500
908,-7.0,2022-08-17 14:43:33.078125
909,-9.13,2022-08-17 14:43:33.093750
910,-11.54,2022-08-17 14:43:33.109375
911,-14.26,2022-08-17 14:43:33.125000
912,-17.29,2022-08-17 14:43:33.140625
913,-20.59,2022-08-17 14:43:33.156250
914,-24.0,2022-08-17 14:43:33.171875
915,-27.22,2022-08-17 14:43:33.187500
916,-29.74,2022-08-17 14:43:33.203125
917,-30.94,2022-08-17 14:43:33.218750
918,-30.3,2022-08-17 14:43:33.234375
919,-27.59,2022-08-17 14:43:33.250000
920,-22.94,2022-08-17 14:43:33.265625
921,-16.92,2022-08-17 14:43:33.281250
922,-10.32,2022-08-17 14:43:33.296875
923,-3.95,2022-08-17 14:43:33.312500
924,1.55,2022-08-17 14:43:33.328125
925,5.76,2022-08-17 14:43:33.343750
926,8.54,2022-08-17 14:43:33.359375
927,9.94,2022-08-17 14:43:33.375000
928,10.12,2022-08-17 14:43:33.390625
929,9.31,2022-08-17 14:43:33.406250
930,7.7,2022-08-17 14:43:33.421875
931,5.44,2022-08-17 14:43:33.437500
932,2.63,2022-08-17 14:43:33.453125
933,-0.6,2022-08-17 14:43:33.468750
934,-4.08,2022-08-17 14:43:33.484375
935,-7.62,2022-08-17 14:43:33.500000
936,-11.03,2022-08-17 14:43:33.515625
937,-14.27,2022-08-17 14:43:33.531250
938,-17.43,2022-08-17 14:43:33.546875
939,-20.71,2022-08-17 14:43:33.562500
940,-24.3,2022-08-17 14:43:33.578125
941,-28.26,2022-08-17 14:43:33.593750
942,-32.5,2022-08-17 14:43:33.609375
943,-36.84,2022-08-17 14:43:33.625000
944,-41.06,2022-08-17 14:43:33.640625
945,-45.05,2022-08-17 14:43:33.656250
946,-48.72,2022-08-17 14:43:33.671875
947,-51.99,2022-08-17 14:43:33.687500
948,-54.66,2022-08-17 14:43:33.703125
949,-56.43,2022-08-17 14:43:33.718750
950,-56.92,2022-08-17 14:43:33.734375
951,-55.79,2022-08-17 14:43:33.750000
952,-52.8,2022-08-17 14:43:33.765625
953,-47.94,2022-08-17 14:43:33.781250
954,-41.38,2022-08-17 14:43:33.796875
955,-33.53,2022-08-17 14:43:33.812500
956,-24.9,2022-08-17 14:43:33.828125
957,-15.94,2022-08-17 14:43:33.843750
958,-6.86,2022-08-17 14:43:33.859375
959,2.49,2022-08-17 14:43:33.875000
960,12.6,2022-08-17 14:43:33.890625
961,24.19,2022-08-17 14:43:33.906250
962,37.92,2022-08-17 14:43:33.921875
963,54.22,2022-08-17 14:43:33.937500
964,73.13,2022-08-17 14:43:33.953125
965,94.31,2022-08-17 14:43:33.968750
966,117.04,2022-08-17 14:43:33.984375
967,140.35,2022-08-17 14:43:34.000000
968,163.1,2022-08-17 14:43:34.015625
969,184.18,2022-08-17 14:43:34.031250
970,202.71,2022-08-17 14:43:34.046875
971,218.19,2022-08-17 14:43:34.062500
972,230.6,2022-08-17 14:43:34.078125
973,240.19,2022-08-17 14:43:34.093750
974,247.39,2022-08-17 14:43:34.109375
975,252.51,2022-08-17 14:43:34.125000
976,255.73,2022-08-17 14:43:34.140625
977,257.04,2022-08-17 14:43:34.156250
978,256.22,2022-08-17 14:43:34.171875
979,252.62,2022-08-17 14:43:34.187500
980,245.02,2022-08-17 14:43:34.203125
981,231.68,2022-08-17 14:43:34.218750
982,210.94,2022-08-17 14:43:34.234375
983,182.24,2022-08-17 14:43:34.250000
984,147.03,2022-08-17 14:43:34.265625
985,108.93,2022-08-17 14:43:34.281250
986,73.02,2022-08-17 14:43:34.296875
987,44.11,2022-08-17 14:43:34.312500
988,25.01,2022-08-17 14:43:34.328125
989,15.69,2022-08-17 14:43:34.343750
990,13.49,2022-08-17 14:43:34.359375
991,14.48,2022-08-17 14:43:34.375000
992,15.07,2022-08-17 14:43:34.390625
993,13.1,2022-08-17 14:43:34.406250
994,7.94,2022-08-17 14:43:34.421875
995,-0.04,2022-08-17 14:43:34.437500
996,-10.31,2022-08-17 14:43:34.453125
997,-22.44,2022-08-17 14:43:34.468750
998,-35.99,2022-08-17 14:43:34.484375
999,-50.23,2022-08-17 14:43:34.500000
1000,-64.02,2022-08-17 14:43:34.515625
1001,-76.41,2022-08-17 14:43:34.531250
1002,-87.21,2022-08-17 14:43:34.546875
1003,-97.5,2022-08-17 14:43:34.562500
1004,-109.31,2022-08-17 14:43:34.578125
1005,-124.66,2022-08-17 14:43:34.593750
1006,-144.27,2022-08-17 14:43:34.609375
1007,-166.58,2022-08-17 14:43:34.625000
1008,-187.85,2022-08-17 14:43:34.640625
1009,-203.23,2022-08-17 14:43:34.656250
1010,-208.59,2022-08-17 14:43:34.671875
1011,-202.23,2022-08-17 14:43:34.687500
1012,-185.74,2022-08-17 14:43:34.703125
1013,-163.46,2022-08-17 14:43:34.718750
1014,-140.87,2022-08-17 14:43:34.734375
1015,-122.53,2022-08-17 14:43:34.750000
1016,-110.53,2022-08-17 14:43:34.765625
1017,-104.09,2022-08-17 14:43:34.781250
1018,-100.4,2022-08-17 14:43:34.796875
1019,-96.15,2022-08-17 14:43:34.812500
1020,-89.03,2022-08-17 14:43:34.828125
1021,-78.46,2022-08-17 14:43:34.843750
1022,-65.43,2022-08-17 14:43:34.859375
1023,-51.74,2022-08-17 14:43:34.875000
1024,-39.09,2022-08-17 14:43:34.890625
1025,-28.56,2022-08-17 14:43:34.906250
1026,-20.51,2022-08-17 14:43:34.921875
1027,-14.78,2022-08-17 14:43:34.937500
1028,-10.89,2022-08-17 14:43:34.953125
1029,-8.14,2022-08-17 14:43:34.968750
1030,-5.61,2022-08-17 14:43:34.984375
1031,-2.32,2022-08-17 14:43:35.000000
1032,2.41,2022-08-17 14:43:35.015625
1033,8.68,2022-08-17 14:43:35.031250
1034,15.75,2022-08-17 14:43:35.046875
1035,22.3,2022-08-17 14:43:35.062500
1036,26.95,2022-08-17 14:43:35.078125
1037,28.9,2022-08-17 14:43:35.093750
1038,28.27,2022-08-17 14:43:35.109375
1039,26.06,2022-08-17 14:43:35.125000
1040,23.61,2022-08-17 14:43:35.140625
1041,22.02,2022-08-17 14:43:35.156250
1042,21.82,2022-08-17 14:43:35.171875
1043,22.84,2022-08-17 14:43:35.187500
1044,24.52,2022-08-17 14:43:35.203125
1045,26.18,2022-08-17 14:43:35.218750
1046,27.21,2022-08-17 14:43:35.234375
1047,27.23,2022-08-17 14:43:35.250000
1048,26.17,2022-08-17 14:43:35.265625
1049,24.39,2022-08-17 14:43:35.281250
1050,22.82,2022-08-17 14:43:35.296875
1051,22.84,2022-08-17 14:43:35.312500
1052,26.02,2022-08-17 14:43:35.328125
1053,33.57,2022-08-17 14:43:35.343750
1054,45.72,2022-08-17 14:43:35.359375
1055,61.59,2022-08-17 14:43:35.375000
1056,79.24,2022-08-17 14:43:35.390625
1057,96.27,2022-08-17 14:43:35.406250
1058,110.51,2022-08-17 14:43:35.421875
1059,120.63,2022-08-17 14:43:35.437500
1060,126.32,2022-08-17 14:43:35.453125
1061,127.95,2022-08-17 14:43:35.468750
1062,126.04,2022-08-17 14:43:35.484375
1063,120.82,2022-08-17 14:43:35.500000
1064,112.14,2022-08-17 14:43:35.515625
1065,99.85,2022-08-17 14:43:35.531250
1066,84.13,2022-08-17 14:43:35.546875
1067,65.82,2022-08-17 14:43:35.562500
1068,46.2,2022-08-17 14:43:35.578125
1069,26.47,2022-08-17 14:43:35.593750
1070,7.25,2022-08-17 14:43:35.609375
1071,-11.64,2022-08-17 14:43:35.625000
1072,-30.8,2022-08-17 14:43:35.640625
1073,-50.73,2022-08-17 14:43:35.656250
1074,-71.18,2022-08-17 14:43:35.671875
1075,-91.04,2022-08-17 14:43:35.687500
1076,-108.57,2022-08-17 14:43:35.703125
1077,-121.95,2022-08-17 14:43:35.718750
1078,-129.79,2022-08-17 14:43:35.734375
1079,-131.54,2022-08-17 14:43:35.750000
1080,-127.59,2022-08-17 14:43:35.765625
1081,-119.26,2022-08-17 14:43:35.781250
1082,-108.6,2022-08-17 14:43:35.796875
1083,-98.03,2022-08-17 14:43:35.812500
1084,-89.87,2022-08-17 14:43:35.828125
1085,-85.81,2022-08-17 14:43:35.843750
1086,-86.42,2022-08-17 14:43:35.859375
1087,-91.1,2022-08-17 14:43:35.875000
1088,-98.2,2022-08-17 14:43:35.890625
1089,-105.46,2022-08-17 14:43:35.906250
1090,-110.63,2022-08-17 14:43:35.921875
1091,-111.89,2022-08-17 14:43:35.937500
1092,-108.19,2022-08-17 14:43:35.953125
1093,-99.32,2022-08-17 14:43:35.968750
1094,-85.88,2022-08-17 14:43:35.984375
1095,-69.08,2022-08-17 14:43:36.000000
1096,-50.52,2022-08-17 14:43:36.015625
1097,-31.86,2022-08-17 14:43:36.031250
1098,-14.47,2022-08-17 14:43:36.046875
1099,0.76,2022-08-17 14:43:36.062500
1100,13.62,2022-08-17 14:43:36.078125
1101,24.43,2022-08-17 14:43:36.093750
1102,33.83,2022-08-17 14:43:36.109375
1103,42.47,2022-08-17 14:43:36.125000
1104,50.7,2022-08-17 14:43:36.140625
1105,58.43,2022-08-17 14:43:36.156250
1106,65.1,2022-08-17 14:43:36.171875
1107,69.85,2022-08-17 14:43:36.187500
1108,71.78,2022-08-17 14:43:36.203125
1109,70.17,2022-08-17 14:43:36.218750
1110,64.83,2022-08-17 14:43:36.234375
1111,56.13,2022-08-17 14:43:36.250000
1112,44.99,2022-08-17 14:43:36.265625
1113,32.63,2022-08-17 14:43:36.281250
1114,20.28,2022-08-17 14:43:36.296875
1115,8.95,2022-08-17 14:43:36.312500
1116,-0.65,2022-08-17 14:43:36.328125
1117,-8.19,2022-08-17 14:43:36.343750
1118,-13.5,2022-08-17 14:43:36.359375
1119,-16.52,2022-08-17 14:43:36.375000
1120,-17.27,2022-08-17 14:43:36.390625
1121,-15.92,2022-08-17 14:43:36.406250
1122,-12.84,2022-08-17 14:43:36.421875
1123,-8.65,2022-08-17 14:43:36.437500
1124,-4.15,2022-08-17 14:43:36.453125
1125,-0.21,2022-08-17 14:43:36.468750
1126,2.47,2022-08-17 14:43:36.484375
1127,3.52,2022-08-17 14:43:36.500000
1128,2.98,2022-08-17 14:43:36.515625
1129,1.29,2022-08-17 14:43:36.531250
1130,-0.81,2022-08-17 14:43:36.546875
1131,-2.54,2022-08-17 14:43:36.562500
1132,-3.31,2022-08-17 14:43:36.578125
1133,-2.86,2022-08-17 14:43:36.593750
1134,-1.2,2022-08-17 14:43:36.609375
1135,1.52,2022-08-17 14:43:36.625000
1136,5.2,2022-08-17 14:43:36.640625
1137,9.9,2022-08-17 14:43:36.656250
1138,15.73,2022-08-17 14:43:36.671875
1139,22.68,2022-08-17 14:43:36.687500
1140,30.48,2022-08-17 14:43:36.703125
1141,38.59,2022-08-17 14:43:36.718750
1142,46.38,2022-08-17 14:43:36.734375
1143,53.3,2022-08-17 14:43:36.750000
1144,59.06,2022-08-17 14:43:36.765625
1145,63.61,2022-08-17 14:43:36.781250
1146,67.12,2022-08-17 14:43:36.796875
1147,69.75,2022-08-17 14:43:36.812500
1148,71.73,2022-08-17 14:43:36.828125
1149,73.26,2022-08-17 14:43:36.843750
1150,74.59,2022-08-17 14:43:36.859375
1151,75.9,2022-08-17 14:43:36.875000
1152,77.24,2022-08-17 14:43:36.890625
1153,78.38,2022-08-17 14:43:36.906250
1154,78.82,2022-08-17 14:43:36.921875
1155,77.89,2022-08-17 14:43:36.937500
1156,74.92,2022-08-17 14:43:36.953125
1157,69.45,2022-08-17 14:43:36.968750
1158,61.31,2022-08-17 14:43:36.984375
1159,50.66,2022-08-17 14:43:37.000000
1160,37.94,2022-08-17 14:43:37.015625
1161,23.77,2022-08-17 14:43:37.031250
1162,8.82,2022-08-17 14:43:37.046875
1163,-6.17,2022-08-17 14:43:37.062500
1164,-20.48,2022-08-17 14:43:37.078125
1165,-33.55,2022-08-17 14:43:37.093750
1166,-44.97,2022-08-17 14:43:37.109375
1167,-54.56,2022-08-17 14:43:37.125000
1168,-62.28,2022-08-17 14:43:37.140625
1169,-68.05,2022-08-17 14:43:37.156250
1170,-71.63,2022-08-17 14:43:37.171875
1171,-72.71,2022-08-17 14:43:37.187500
1172,-71.18,2022-08-17 14:43:37.203125
1173,-67.4,2022-08-17 14:43:37.218750
1174,-62.18,2022-08-17 14:43:37.234375
1175,-56.55,2022-08-17 14:43:37.250000
1176,-51.17,2022-08-17 14:43:37.265625
1177,-46.07,2022-08-17 14:43:37.281250
1178,-40.71,2022-08-17 14:43:37.296875
1179,-34.53,2022-08-17 14:43:37.312500
1180,-27.48,2022-08-17 14:43:37.328125
1181,-20.28,2022-08-17 14:43:37.343750
1182,-14.13,2022-08-17 14:43:37.359375
1183,-9.98,2022-08-17 14:43:37.375000
1184,-8.07,2022-08-17 14:43:37.390625
1185,-7.77,2022-08-17 14:43:37.406250
1186,-8.06,2022-08-17 14:43:37.421875
1187,-8.13,2022-08-17 14:43:37.437500
1188,-7.77,2022-08-17 14:43:37.453125
1189,-7.33,2022-08-17 14:43:37.468750
1190,-7.3,2022-08-17 14:43:37.484375
1191,-7.87,2022-08-17 14:43:37.500000
1192,-8.83,2022-08-17 14:43:37.515625
1193,-9.71,2022-08-17 14:43:37.531250
1194,-10.15,2022-08-17 14:43:37.546875
1195,-10.07,2022-08-17 14:43:37.562500
1196,-9.7,2022-08-17 14:43:37.578125
1197,-9.46,2022-08-17 14:43:37.593750
1198,-9.7,2022-08-17 14:43:37.609375
1199,-10.56,2022-08-17 14:43:37.625000
1200,-11.91,2022-08-17 14:43:37.640625
1201,-13.43,2022-08-17 14:43:37.656250
1202,-14.82,2022-08-17 14:43:37.671875
1203,-15.89,2022-08-17 14:43:37.687500
1204,-16.75,2022-08-17 14:43:37.703125
1205,-17.75,2022-08-17 14:43:37.718750
1206,-19.33,2022-08-17 14:43:37.734375
1207,-21.85,2022-08-17 14:43:37.750000
1208,-25.32,2022-08-17 14:43:37.765625
1209,-29.39,2022-08-17 14:43:37.781250
1210,-33.41,2022-08-17 14:43:37.796875
1211,-36.65,2022-08-17 14:43:37.812500
1212,-38.65,2022-08-17 14:43:37.828125
1213,-39.26,2022-08-17 14:43:37.843750
1214,-38.77,2022-08-17 14:43:37.859375
1215,-37.63,2022-08-17 14:43:37.875000
1216,-36.31,2022-08-17 14:43:37.890625
1217,-35.09,2022-08-17 14:43:37.906250
1218,-34.05,2022-08-17 14:43:37.921875
1219,-33.25,2022-08-17 14:43:37.937500
1220,-32.82,2022-08-17 14:43:37.953125
1221,-33.07,2022-08-17 14:43:37.968750
1222,-34.42,2022-08-17 14:43:37.984375
1223,-37.15,2022-08-17 14:43:38.000000
1224,-41.22,2022-08-17 14:43:38.015625
1225,-46.22,2022-08-17 14:43:38.031250
1226,-51.44,2022-08-17 14:43:38.046875
1227,-56.26,2022-08-17 14:43:38.062500
1228,-60.44,2022-08-17 14:43:38.078125
1229,-64.2,2022-08-17 14:43:38.093750
1230,-68.16,2022-08-17 14:43:38.109375
1231,-72.91,2022-08-17 14:43:38.125000
1232,-78.67,2022-08-17 14:43:38.140625
1233,-85.05,2022-08-17 14:43:38.156250
1234,-91.2,2022-08-17 14:43:38.171875
1235,-95.94,2022-08-17 14:43:38.187500
1236,-98.01,2022-08-17 14:43:38.203125
1237,-96.02,2022-08-17 14:43:38.218750
1238,-88.48,2022-08-17 14:43:38.234375
1239,-73.96,2022-08-17 14:43:38.250000
1240,-51.59,2022-08-17 14:43:38.265625
1241,-21.56,2022-08-17 14:43:38.281250
1242,14.59,2022-08-17 14:43:38.296875
1243,54.28,2022-08-17 14:43:38.312500
1244,94.58,2022-08-17 14:43:38.328125
1245,133.14,2022-08-17 14:43:38.343750
1246,168.59,2022-08-17 14:43:38.359375
1247,200.24,2022-08-17 14:43:38.375000
1248,227.4,2022-08-17 14:43:38.390625
1249,248.6,2022-08-17 14:43:38.406250
1250,261.55,2022-08-17 14:43:38.421875
1251,263.87,2022-08-17 14:43:38.437500
1252,254.32,2022-08-17 14:43:38.453125
1253,233.68,2022-08-17 14:43:38.468750
1254,204.89,2022-08-17 14:43:38.484375
1255,172.21,2022-08-17 14:43:38.500000
1256,139.8,2022-08-17 14:43:38.515625
1257,110.53,2022-08-17 14:43:38.531250
1258,85.45,2022-08-17 14:43:38.546875
1259,64.18,2022-08-17 14:43:38.562500
1260,45.62,2022-08-17 14:43:38.578125
1261,28.89,2022-08-17 14:43:38.593750
1262,13.67,2022-08-17 14:43:38.609375
1263,0.12,2022-08-17 14:43:38.625000
1264,-11.54,2022-08-17 14:43:38.640625
1265,-21.38,2022-08-17 14:43:38.656250
1266,-29.83,2022-08-17 14:43:38.671875
1267,-37.34,2022-08-17 14:43:38.687500
1268,-44.14,2022-08-17 14:43:38.703125
1269,-50.04,2022-08-17 14:43:38.718750
1270,-54.63,2022-08-17 14:43:38.734375
1271,-57.62,2022-08-17 14:43:38.750000
1272,-59.01,2022-08-17 14:43:38.765625
1273,-59.25,2022-08-17 14:43:38.781250
1274,-59.0,2022-08-17 14:43:38.796875
1275,-58.89,2022-08-17 14:43:38.812500
1276,-59.31,2022-08-17 14:43:38.828125
1277,-60.28,2022-08-17 14:43:38.843750
1278,-61.53,2022-08-17 14:43:38.859375
1279,-62.64,2022-08-17 14:43:38.875000
1280,-63.19,2022-08-17 14:43:38.890625
1281,-62.98,2022-08-17 14:43:38.906250
1282,-62.11,2022-08-17 14:43:38.921875
1283,-61.0,2022-08-17 14:43:38.937500
1284,-60.26,2022-08-17 14:43:38.953125
1285,-60.36,2022-08-17 14:43:38.968750
1286,-61.42,2022-08-17 14:43:38.984375
1287,-63.04,2022-08-17 14:43:39.000000
1288,-64.35,2022-08-17 14:43:39.015625
1289,-64.32,2022-08-17 14:43:39.031250
1290,-62.14,2022-08-17 14:43:39.046875
1291,-57.55,2022-08-17 14:43:39.062500
1292,-50.89,2022-08-17 14:43:39.078125
1293,-42.94,2022-08-17 14:43:39.093750
1294,-34.61,2022-08-17 14:43:39.109375
1295,-26.63,2022-08-17 14:43:39.125000
1296,-19.41,2022-08-17 14:43:39.140625
1297,-13.0,2022-08-17 14:43:39.156250
1298,-7.35,2022-08-17 14:43:39.171875
1299,-2.39,2022-08-17 14:43:39.187500
1300,1.81,2022-08-17 14:43:39.203125
1301,5.04,2022-08-17 14:43:39.218750
1302,7.04,2022-08-17 14:43:39.234375
1303,7.57,2022-08-17 14:43:39.250000
1304,6.51,2022-08-17 14:43:39.265625
1305,3.93,2022-08-17 14:43:39.281250
1306,0.12,2022-08-17 14:43:39.296875
1307,-4.44,2022-08-17 14:43:39.312500
1308,-9.18,2022-08-17 14:43:39.328125
1309,-13.6,2022-08-17 14:43:39.343750
1310,-17.38,2022-08-17 14:43:39.359375
1311,-20.46,2022-08-17 14:43:39.375000
1312,-23.0,2022-08-17 14:43:39.390625
1313,-25.31,2022-08-17 14:43:39.406250
1314,-27.68,2022-08-17 14:43:39.421875
1315,-30.25,2022-08-17 14:43:39.437500
1316,-33.03,2022-08-17 14:43:39.453125
1317,-35.95,2022-08-17 14:43:39.468750
1318,-38.89,2022-08-17 14:43:39.484375
1319,-41.84,2022-08-17 14:43:39.500000
1320,-44.96,2022-08-17 14:43:39.515625
1321,-48.62,2022-08-17 14:43:39.531250
1322,-53.26,2022-08-17 14:43:39.546875
1323,-59.25,2022-08-17 14:43:39.562500
1324,-66.6,2022-08-17 14:43:39.578125
1325,-74.71,2022-08-17 14:43:39.593750
1326,-82.3,2022-08-17 14:43:39.609375
1327,-87.69,2022-08-17 14:43:39.625000
1328,-89.12,2022-08-17 14:43:39.640625
1329,-85.23,2022-08-17 14:43:39.656250
1330,-75.29,2022-08-17 14:43:39.671875
1331,-59.31,2022-08-17 14:43:39.687500
1332,-37.93,2022-08-17 14:43:39.703125
1333,-12.31,2022-08-17 14:43:39.718750
1334,15.95,2022-08-17 14:43:39.734375
1335,44.97,2022-08-17 14:43:39.750000
1336,72.82,2022-08-17 14:43:39.765625
1337,97.83,2022-08-17 14:43:39.781250
1338,118.98,2022-08-17 14:43:39.796875
1339,136.04,2022-08-17 14:43:39.812500
1340,149.48,2022-08-17 14:43:39.828125
1341,160.13,2022-08-17 14:43:39.843750
1342,168.68,2022-08-17 14:43:39.859375
1343,175.5,2022-08-17 14:43:39.875000
1344,180.58,2022-08-17 14:43:39.890625
1345,183.78,2022-08-17 14:43:39.906250
1346,185.14,2022-08-17 14:43:39.921875
1347,185.02,2022-08-17 14:43:39.937500
1348,184.03,2022-08-17 14:43:39.953125
1349,182.8,2022-08-17 14:43:39.968750
1350,181.73,2022-08-17 14:43:39.984375
1351,180.84,2022-08-17 14:43:40.000000
1352,179.91,2022-08-17 14:43:40.015625
1353,178.53,2022-08-17 14:43:40.031250
1354,176.25,2022-08-17 14:43:40.046875
1355,172.62,2022-08-17 14:43:40.062500
1356,167.13,2022-08-17 14:43:40.078125
1357,159.26,2022-08-17 14:43:40.093750
1358,148.56,2022-08-17 14:43:40.109375
1359,134.86,2022-08-17 14:43:40.125000
1360,118.43,2022-08-17 14:43:40.140625
1361,99.98,2022-08-17 14:43:40.156250
1362,80.44,2022-08-17 14:43:40.171875
1363,60.74,2022-08-17 14:43:40.187500
1364,41.51,2022-08-17 14:43:40.203125
1365,23.1,2022-08-17 14:43:40.218750
1366,5.66,2022-08-17 14:43:40.234375
1367,-10.82,2022-08-17 14:43:40.250000
1368,-26.37,2022-08-17 14:43:40.265625
1369,-41.17,2022-08-17 14:43:40.281250
1370,-55.5,2022-08-17 14:43:40.296875
1371,-69.58,2022-08-17 14:43:40.312500
1372,-83.31,2022-08-17 14:43:40.328125
1373,-96.14,2022-08-17 14:43:40.343750
1374,-107.08,2022-08-17 14:43:40.359375
1375,-115.08,2022-08-17 14:43:40.375000
1376,-119.43,2022-08-17 14:43:40.390625
1377,-120.13,2022-08-17 14:43:40.406250
1378,-117.86,2022-08-17 14:43:40.421875
1379,-113.69,2022-08-17 14:43:40.437500
1380,-108.6,2022-08-17 14:43:40.453125
1381,-103.23,2022-08-17 14:43:40.468750
1382,-97.75,2022-08-17 14:43:40.484375
1383,-92.13,2022-08-17 14:43:40.500000
1384,-86.38,2022-08-17 14:43:40.515625
1385,-80.74,2022-08-17 14:43:40.531250
1386,-75.69,2022-08-17 14:43:40.546875
1387,-71.7,2022-08-17 14:43:40.562500
1388,-69.06,2022-08-17 14:43:40.578125
1389,-67.66,2022-08-17 14:43:40.593750
1390,-67.13,2022-08-17 14:43:40.609375
1391,-66.94,2022-08-17 14:43:40.625000
1392,-66.67,2022-08-17 14:43:40.640625
1393,-66.11,2022-08-17 14:43:40.656250
1394,-65.24,2022-08-17 14:43:40.671875
1395,-64.12,2022-08-17 14:43:40.687500
1396,-62.76,2022-08-17 14:43:40.703125
1397,-61.09,2022-08-17 14:43:40.718750
1398,-58.94,2022-08-17 14:43:40.734375
1399,-56.24,2022-08-17 14:43:40.750000
1400,-53.12,2022-08-17 14:43:40.765625
1401,-49.86,2022-08-17 14:43:40.781250
1402,-46.85,2022-08-17 14:43:40.796875
1403,-44.48,2022-08-17 14:43:40.812500
1404,-42.97,2022-08-17 14:43:40.828125
1405,-42.33,2022-08-17 14:43:40.843750
1406,-42.38,2022-08-17 14:43:40.859375
1407,-42.8,2022-08-17 14:43:40.875000
1408,-43.27,2022-08-17 14:43:40.890625
1409,-43.57,2022-08-17 14:43:40.906250
1410,-43.67,2022-08-17 14:43:40.921875
1411,-43.74,2022-08-17 14:43:40.937500
1412,-44.11,2022-08-17 14:43:40.953125
1413,-45.13,2022-08-17 14:43:40.968750
1414,-47.06,2022-08-17 14:43:40.984375
1415,-49.96,2022-08-17 14:43:41.000000
1416,-53.55,2022-08-17 14:43:41.015625
1417,-57.19,2022-08-17 14:43:41.031250
1418,-59.94,2022-08-17 14:43:41.046875
1419,-60.8,2022-08-17 14:43:41.062500
1420,-59.01,2022-08-17 14:43:41.078125
1421,-54.34,2022-08-17 14:43:41.093750
1422,-47.18,2022-08-17 14:43:41.109375
1423,-38.41,2022-08-17 14:43:41.125000
1424,-29.08,2022-08-17 14:43:41.140625
1425,-19.99,2022-08-17 14:43:41.156250
1426,-11.56,2022-08-17 14:43:41.171875
1427,-3.83,2022-08-17 14:43:41.187500
1428,3.31,2022-08-17 14:43:41.203125
1429,9.89,2022-08-17 14:43:41.218750
1430,15.69,2022-08-17 14:43:41.234375
1431,20.33,2022-08-17 14:43:41.250000
1432,23.45,2022-08-17 14:43:41.265625
1433,24.84,2022-08-17 14:43:41.281250
1434,24.63,2022-08-17 14:43:41.296875
1435,23.17,2022-08-17 14:43:41.312500
1436,20.96,2022-08-17 14:43:41.328125
1437,18.45,2022-08-17 14:43:41.343750
1438,16.01,2022-08-17 14:43:41.359375
1439,13.81,2022-08-17 14:43:41.375000
1440,11.84,2022-08-17 14:43:41.390625
1441,10.02,2022-08-17 14:43:41.406250
1442,8.31,2022-08-17 14:43:41.421875
1443,6.77,2022-08-17 14:43:41.437500
1444,5.51,2022-08-17 14:43:41.453125
1445,4.67,2022-08-17 14:43:41.468750
1446,4.19,2022-08-17 14:43:41.484375
1447,3.82,2022-08-17 14:43:41.500000
1448,3.11,2022-08-17 14:43:41.515625
1449,1.58,2022-08-17 14:43:41.531250
1450,-1.07,2022-08-17 14:43:41.546875
1451,-4.82,2022-08-17 14:43:41.562500
1452,-9.33,2022-08-17 14:43:41.578125
1453,-14.08,2022-08-17 14:43:41.593750
1454,-18.55,2022-08-17 14:43:41.609375
1455,-22.5,2022-08-17 14:43:41.625000
1456,-25.96,2022-08-17 14:43:41.640625
1457,-29.24,2022-08-17 14:43:41.656250
1458,-32.72,2022-08-17 14:43:41.671875
1459,-36.71,2022-08-17 14:43:41.687500
1460,-41.42,2022-08-17 14:43:41.703125
1461,-46.94,2022-08-17 14:43:41.718750
1462,-53.22,2022-08-17 14:43:41.734375
1463,-60.0,2022-08-17 14:43:41.750000
1464,-66.66,2022-08-17 14:43:41.765625
1465,-72.23,2022-08-17 14:43:41.781250
1466,-75.5,2022-08-17 14:43:41.796875
1467,-75.43,2022-08-17 14:43:41.812500
1468,-71.53,2022-08-17 14:43:41.828125
1469,-64.09,2022-08-17 14:43:41.843750
1470,-54.11,2022-08-17 14:43:41.859375
1471,-42.81,2022-08-17 14:43:41.875000
1472,-31.28,2022-08-17 14:43:41.890625
1473,-20.13,2022-08-17 14:43:41.906250
1474,-9.51,2022-08-17 14:43:41.921875
1475,0.66,2022-08-17 14:43:41.937500
1476,10.4,2022-08-17 14:43:41.953125
1477,19.55,2022-08-17 14:43:41.968750
1478,27.77,2022-08-17 14:43:41.984375
1479,34.67,2022-08-17 14:43:42.000000
1480,40.03,2022-08-17 14:43:42.015625
1481,43.76,2022-08-17 14:43:42.031250
1482,45.9,2022-08-17 14:43:42.046875
1483,46.65,2022-08-17 14:43:42.062500
1484,46.32,2022-08-17 14:43:42.078125
1485,45.34,2022-08-17 14:43:42.093750
1486,44.18,2022-08-17 14:43:42.109375
1487,43.26,2022-08-17 14:43:42.125000
1488,42.83,2022-08-17 14:43:42.140625
1489,42.88,2022-08-17 14:43:42.156250
1490,43.22,2022-08-17 14:43:42.171875
1491,43.6,2022-08-17 14:43:42.187500
1492,43.83,2022-08-17 14:43:42.203125
1493,43.87,2022-08-17 14:43:42.218750
1494,43.7,2022-08-17 14:43:42.234375
1495,43.3,2022-08-17 14:43:42.250000
1496,42.48,2022-08-17 14:43:42.265625
1497,40.91,2022-08-17 14:43:42.281250
1498,38.36,2022-08-17 14:43:42.296875
1499,34.77,2022-08-17 14:43:42.312500
1500,30.41,2022-08-17 14:43:42.328125
1501,25.78,2022-08-17 14:43:42.343750
1502,21.41,2022-08-17 14:43:42.359375
1503,17.59,2022-08-17 14:43:42.375000
1504,14.36,2022-08-17 14:43:42.390625
1505,11.54,2022-08-17 14:43:42.406250
1506,8.89,2022-08-17 14:43:42.421875
1507,6.33,2022-08-17 14:43:42.437500
1508,4.03,2022-08-17 14:43:42.453125
1509,2.3,2022-08-17 14:43:42.468750
1510,1.43,2022-08-17 14:43:42.484375
1511,1.49,2022-08-17 14:43:42.500000
1512,2.19,2022-08-17 14:43:42.515625
1513,3.0,2022-08-17 14:43:42.531250
1514,3.25,2022-08-17 14:43:42.546875
1515,2.43,2022-08-17 14:43:42.562500
1516,0.35,2022-08-17 14:43:42.578125
1517,-2.83,2022-08-17 14:43:42.593750
1518,-6.66,2022-08-17 14:43:42.609375
1519,-10.66,2022-08-17 14:43:42.625000
1520,-14.4,2022-08-17 14:43:42.640625
1521,-17.73,2022-08-17 14:43:42.656250
1522,-20.78,2022-08-17 14:43:42.671875
1523,-23.88,2022-08-17 14:43:42.687500
1524,-27.5,2022-08-17 14:43:42.703125
1525,-32.08,2022-08-17 14:43:42.718750
1526,-37.94,2022-08-17 14:43:42.734375
1527,-45.1,2022-08-17 14:43:42.750000
1528,-53.19,2022-08-17 14:43:42.765625
1529,-61.39,2022-08-17 14:43:42.781250
1530,-68.5,2022-08-17 14:43:42.796875
1531,-73.2,2022-08-17 14:43:42.812500
1532,-74.37,2022-08-17 14:43:42.828125
1533,-71.45,2022-08-17 14:43:42.843750
1534,-64.59,2022-08-17 14:43:42.859375
1535,-54.57,2022-08-17 14:43:42.875000
1536,-42.56,2022-08-17 14:43:42.890625
1537,-29.75,2022-08-17 14:43:42.906250
1538,-17.0,2022-08-17 14:43:42.921875
1539,-4.79,2022-08-17 14:43:42.937500
1540,6.71,2022-08-17 14:43:42.953125
1541,17.39,2022-08-17 14:43:42.968750
1542,27.05,2022-08-17 14:43:42.984375
1543,35.3,2022-08-17 14:43:43.000000
1544,41.73,2022-08-17 14:43:43.015625
1545,46.05,2022-08-17 14:43:43.031250
1546,48.29,2022-08-17 14:43:43.046875
1547,48.73,2022-08-17 14:43:43.062500
1548,47.86,2022-08-17 14:43:43.078125
1549,46.18,2022-08-17 14:43:43.093750
1550,44.15,2022-08-17 14:43:43.109375
1551,42.08,2022-08-17 14:43:43.125000
1552,40.19,2022-08-17 14:43:43.140625
1553,38.62,2022-08-17 14:43:43.156250
1554,37.47,2022-08-17 14:43:43.171875
1555,36.81,2022-08-17 14:43:43.187500
1556,36.65,2022-08-17 14:43:43.203125
1557,36.99,2022-08-17 14:43:43.218750
1558,37.7,2022-08-17 14:43:43.234375
1559,38.54,2022-08-17 14:43:43.250000
1560,39.22,2022-08-17 14:43:43.265625
1561,39.41,2022-08-17 14:43:43.281250
1562,38.9,2022-08-17 14:43:43.296875
1563,37.68,2022-08-17 14:43:43.312500
1564,35.96,2022-08-17 14:43:43.328125
1565,34.03,2022-08-17 14:43:43.343750
1566,32.13,2022-08-17 14:43:43.359375
1567,30.34,2022-08-17 14:43:43.375000
1568,28.53,2022-08-17 14:43:43.390625
1569,26.51,2022-08-17 14:43:43.406250
1570,24.19,2022-08-17 14:43:43.421875
1571,21.65,2022-08-17 14:43:43.437500
1572,19.11,2022-08-17 14:43:43.453125
1573,16.83,2022-08-17 14:43:43.468750
1574,14.93,2022-08-17 14:43:43.484375
1575,13.35,2022-08-17 14:43:43.500000
1576,11.88,2022-08-17 14:43:43.515625
1577,10.23,2022-08-17 14:43:43.531250
1578,8.17,2022-08-17 14:43:43.546875
1579,5.56,2022-08-17 14:43:43.562500
1580,2.45,2022-08-17 14:43:43.578125
1581,-1.03,2022-08-17 14:43:43.593750
1582,-4.62,2022-08-17 14:43:43.609375
1583,-8.06,2022-08-17 14:43:43.625000
1584,-11.17,2022-08-17 14:43:43.640625
1585,-13.87,2022-08-17 14:43:43.656250
1586,-16.32,2022-08-17 14:43:43.671875
1587,-18.8,2022-08-17 14:43:43.687500
1588,-21.63,2022-08-17 14:43:43.703125
1589,-24.98,2022-08-17 14:43:43.718750
1590,-28.88,2022-08-17 14:43:43.734375
1591,-33.11,2022-08-17 14:43:43.750000
1592,-37.36,2022-08-17 14:43:43.765625
1593,-41.32,2022-08-17 14:43:43.781250
1594,-44.83,2022-08-17 14:43:43.796875
1595,-47.96,2022-08-17 14:43:43.812500
1596,-50.99,2022-08-17 14:43:43.828125
1597,-54.36,2022-08-17 14:43:43.843750
1598,-58.5,2022-08-17 14:43:43.859375
1599,-63.72,2022-08-17 14:43:43.875000
1600,-69.91,2022-08-17 14:43:43.890625
1601,-76.41,2022-08-17 14:43:43.906250
1602,-82.01,2022-08-17 14:43:43.921875
1603,-85.22,2022-08-17 14:43:43.937500
1604,-84.68,2022-08-17 14:43:43.953125
1605,-79.62,2022-08-17 14:43:43.968750
1606,-70.19,2022-08-17 14:43:43.984375
1607,-57.34,2022-08-17 14:43:44.000000
1608,-42.51,2022-08-17 14:43:44.015625
1609,-27.15,2022-08-17 14:43:44.031250
1610,-12.3,2022-08-17 14:43:44.046875
1611,1.5,2022-08-17 14:43:44.062500
1612,14.08,2022-08-17 14:43:44.078125
1613,25.35,2022-08-17 14:43:44.093750
1614,35.13,2022-08-17 14:43:44.109375
1615,43.11,2022-08-17 14:43:44.125000
1616,49.01,2022-08-17 14:43:44.140625
1617,52.77,2022-08-17 14:43:44.156250
1618,54.56,2022-08-17 14:43:44.171875
1619,54.8,2022-08-17 14:43:44.187500
1620,54.01,2022-08-17 14:43:44.203125
1621,52.68,2022-08-17 14:43:44.218750
1622,51.23,2022-08-17 14:43:44.234375
1623,49.92,2022-08-17 14:43:44.250000
1624,48.89,2022-08-17 14:43:44.265625
1625,48.18,2022-08-17 14:43:44.281250
1626,47.76,2022-08-17 14:43:44.296875
1627,47.58,2022-08-17 14:43:44.312500
1628,47.61,2022-08-17 14:43:44.328125
1629,47.83,2022-08-17 14:43:44.343750
1630,48.22,2022-08-17 14:43:44.359375
1631,48.68,2022-08-17 14:43:44.375000
1632,49.02,2022-08-17 14:43:44.390625
1633,48.97,2022-08-17 14:43:44.406250
1634,48.26,2022-08-17 14:43:44.421875
1635,46.8,2022-08-17 14:43:44.437500
1636,44.69,2022-08-17 14:43:44.453125
1637,42.21,2022-08-17 14:43:44.468750
1638,39.67,2022-08-17 14:43:44.484375
1639,37.3,2022-08-17 14:43:44.500000
1640,35.13,2022-08-17 14:43:44.515625
1641,33.01,2022-08-17 14:43:44.531250
1642,30.74,2022-08-17 14:43:44.546875
1643,28.18,2022-08-17 14:43:44.562500
1644,25.34,2022-08-17 14:43:44.578125
1645,22.35,2022-08-17 14:43:44.593750
1646,19.39,2022-08-17 14:43:44.609375
1647,16.56,2022-08-17 14:43:44.625000
1648,13.86,2022-08-17 14:43:44.640625
1649,11.21,2022-08-17 14:43:44.656250
1650,8.46,2022-08-17 14:43:44.671875
1651,5.51,2022-08-17 14:43:44.687500
1652,2.3,2022-08-17 14:43:44.703125
1653,-1.06,2022-08-17 14:43:44.718750
1654,-4.41,2022-08-17 14:43:44.734375
1655,-7.55,2022-08-17 14:43:44.750000
1656,-10.37,2022-08-17 14:43:44.765625
1657,-12.88,2022-08-17 14:43:44.781250
1658,-15.28,2022-08-17 14:43:44.796875
1659,-17.87,2022-08-17 14:43:44.812500
1660,-20.87,2022-08-17 14:43:44.828125
1661,-24.35,2022-08-17 14:43:44.843750
1662,-28.16,2022-08-17 14:43:44.859375
1663,-32.04,2022-08-17 14:43:44.875000
1664,-35.69,2022-08-17 14:43:44.890625
1665,-38.99,2022-08-17 14:43:44.906250
1666,-41.97,2022-08-17 14:43:44.921875
1667,-44.89,2022-08-17 14:43:44.937500
1668,-48.11,2022-08-17 14:43:44.953125
1669,-52.01,2022-08-17 14:43:44.968750
1670,-56.91,2022-08-17 14:43:44.984375
1671,-62.84,2022-08-17 14:43:45.000000
1672,-69.39,2022-08-17 14:43:45.015625
1673,-75.6,2022-08-17 14:43:45.031250
1674,-80.11,2022-08-17 14:43:45.046875
1675,-81.44,2022-08-17 14:43:45.062500
1676,-78.53,2022-08-17 14:43:45.078125
1677,-71.1,2022-08-17 14:43:45.093750
1678,-59.78,2022-08-17 14:43:45.109375
1679,-45.89,2022-08-17 14:43:45.125000
1680,-30.93,2022-08-17 14:43:45.140625
1681,-16.17,2022-08-17 14:43:45.156250
1682,-2.34,2022-08-17 14:43:45.171875
1683,10.28,2022-08-17 14:43:45.187500
1684,21.62,2022-08-17 14:43:45.203125
1685,31.61,2022-08-17 14:43:45.218750
1686,40.02,2022-08-17 14:43:45.234375
1687,46.55,2022-08-17 14:43:45.250000
1688,50.98,2022-08-17 14:43:45.265625
1689,53.32,2022-08-17 14:43:45.281250
1690,53.87,2022-08-17 14:43:45.296875
1691,53.11,2022-08-17 14:43:45.312500
1692,51.58,2022-08-17 14:43:45.328125
1693,49.78,2022-08-17 14:43:45.343750
1694,48.03,2022-08-17 14:43:45.359375
1695,46.51,2022-08-17 14:43:45.375000
1696,45.3,2022-08-17 14:43:45.390625
1697,44.39,2022-08-17 14:43:45.406250
1698,43.79,2022-08-17 14:43:45.421875
1699,43.48,2022-08-17 14:43:45.437500
1700,43.45,2022-08-17 14:43:45.453125
1701,43.59,2022-08-17 14:43:45.468750
1702,43.75,2022-08-17 14:43:45.484375
1703,43.73,2022-08-17 14:43:45.500000
1704,43.31,2022-08-17 14:43:45.515625
1705,42.4,2022-08-17 14:43:45.531250
1706,41.0,2022-08-17 14:43:45.546875
1707,39.24,2022-08-17 14:43:45.562500
1708,37.28,2022-08-17 14:43:45.578125
1709,35.28,2022-08-17 14:43:45.593750
1710,33.27,2022-08-17 14:43:45.609375
1711,31.25,2022-08-17 14:43:45.625000
1712,29.1,2022-08-17 14:43:45.640625
1713,26.74,2022-08-17 14:43:45.656250
1714,24.12,2022-08-17 14:43:45.671875
1715,21.28,2022-08-17 14:43:45.687500
1716,18.35,2022-08-17 14:43:45.703125
1717,15.49,2022-08-17 14:43:45.718750
1718,12.86,2022-08-17 14:43:45.734375
1719,10.55,2022-08-17 14:43:45.750000
1720,8.5,2022-08-17 14:43:45.765625
1721,6.58,2022-08-17 14:43:45.781250
1722,4.58,2022-08-17 14:43:45.796875
1723,2.28,2022-08-17 14:43:45.812500
1724,-0.38,2022-08-17 14:43:45.828125
1725,-3.37,2022-08-17 14:43:45.843750
1726,-6.53,2022-08-17 14:43:45.859375
1727,-9.63,2022-08-17 14:43:45.875000
1728,-12.48,2022-08-17 14:43:45.890625
1729,-15.03,2022-08-17 14:43:45.906250
1730,-17.32,2022-08-17 14:43:45.921875
1731,-19.53,2022-08-17 14:43:45.937500
1732,-21.87,2022-08-17 14:43:45.953125
1733,-24.49,2022-08-17 14:43:45.968750
1734,-27.43,2022-08-17 14:43:45.984375
1735,-30.57,2022-08-17 14:43:46.000000
1736,-33.72,2022-08-17 14:43:46.015625
1737,-36.69,2022-08-17 14:43:46.031250
1738,-39.4,2022-08-17 14:43:46.046875
1739,-41.89,2022-08-17 14:43:46.062500
1740,-44.35,2022-08-17 14:43:46.078125
1741,-46.97,2022-08-17 14:43:46.093750
1742,-50.0,2022-08-17 14:43:46.109375
1743,-53.65,2022-08-17 14:43:46.125000
1744,-57.99,2022-08-17 14:43:46.140625
1745,-62.84,2022-08-17 14:43:46.156250
1746,-67.67,2022-08-17 14:43:46.171875
1747,-71.48,2022-08-17 14:43:46.187500
1748,-73.0,2022-08-17 14:43:46.203125
1749,-71.03,2022-08-17 14:43:46.218750
1750,-64.88,2022-08-17 14:43:46.234375
1751,-54.74,2022-08-17 14:43:46.250000
1752,-41.63,2022-08-17 14:43:46.265625
1753,-27.08,2022-08-17 14:43:46.281250
1754,-12.62,2022-08-17 14:43:46.296875
1755,0.68,2022-08-17 14:43:46.312500
1756,12.32,2022-08-17 14:43:46.328125
1757,22.29,2022-08-17 14:43:46.343750
1758,30.61,2022-08-17 14:43:46.359375
1759,37.24,2022-08-17 14:43:46.375000
1760,42.01,2022-08-17 14:43:46.390625
1761,44.82,2022-08-17 14:43:46.406250
1762,45.86,2022-08-17 14:43:46.421875
1763,45.63,2022-08-17 14:43:46.437500
1764,44.77,2022-08-17 14:43:46.453125
1765,43.81,2022-08-17 14:43:46.468750
1766,42.96,2022-08-17 14:43:46.484375
1767,42.14,2022-08-17 14:43:46.500000
1768,41.13,2022-08-17 14:43:46.515625
1769,39.84,2022-08-17 14:43:46.531250
1770,38.37,2022-08-17 14:43:46.546875
1771,37.04,2022-08-17 14:43:46.562500
1772,36.18,2022-08-17 14:43:46.578125
1773,35.98,2022-08-17 14:43:46.593750
1774,36.34,2022-08-17 14:43:46.609375
1775,36.98,2022-08-17 14:43:46.625000
1776,37.49,2022-08-17 14:43:46.640625
1777,37.52,2022-08-17 14:43:46.656250
1778,36.88,2022-08-17 14:43:46.671875
1779,35.55,2022-08-17 14:43:46.687500
1780,33.73,2022-08-17 14:43:46.703125
1781,31.63,2022-08-17 14:43:46.718750
1782,29.52,2022-08-17 14:43:46.734375
1783,27.55,2022-08-17 14:43:46.750000
1784,25.74,2022-08-17 14:43:46.765625
1785,23.95,2022-08-17 14:43:46.781250
1786,22.02,2022-08-17 14:43:46.796875
1787,19.79,2022-08-17 14:43:46.812500
1788,17.23,2022-08-17 14:43:46.828125
1789,14.47,2022-08-17 14:43:46.843750
1790,11.71,2022-08-17 14:43:46.859375
1791,9.14,2022-08-17 14:43:46.875000
1792,6.86,2022-08-17 14:43:46.890625
1793,4.79,2022-08-17 14:43:46.906250
1794,2.72,2022-08-17 14:43:46.921875
1795,0.42,2022-08-17 14:43:46.937500
1796,-2.23,2022-08-17 14:43:46.953125
1797,-5.23,2022-08-17 14:43:46.968750
1798,-8.41,2022-08-17 14:43:46.984375
1799,-11.5,2022-08-17 14:43:47.000000
1800,-14.25,2022-08-17 14:43:47.015625
1801,-16.58,2022-08-17 14:43:47.031250
1802,-18.5,2022-08-17 14:43:47.046875
1803,-20.25,2022-08-17 14:43:47.062500
1804,-22.1,2022-08-17 14:43:47.078125
1805,-24.31,2022-08-17 14:43:47.093750
1806,-27.0,2022-08-17 14:43:47.109375
1807,-30.05,2022-08-17 14:43:47.125000
1808,-33.19,2022-08-17 14:43:47.140625
1809,-36.13,2022-08-17 14:43:47.156250
1810,-38.69,2022-08-17 14:43:47.171875
1811,-40.93,2022-08-17 14:43:47.187500
1812,-43.09,2022-08-17 14:43:47.203125
1813,-45.5,2022-08-17 14:43:47.218750
1814,-48.45,2022-08-17 14:43:47.234375
1815,-52.13,2022-08-17 14:43:47.250000
1816,-56.55,2022-08-17 14:43:47.265625
1817,-61.44,2022-08-17 14:43:47.281250
1818,-66.2,2022-08-17 14:43:47.296875
1819,-69.83,2022-08-17 14:43:47.312500
1820,-71.17,2022-08-17 14:43:47.328125
1821,-69.09,2022-08-17 14:43:47.343750
1822,-63.0,2022-08-17 14:43:47.359375
1823,-53.05,2022-08-17 14:43:47.375000
1824,-40.21,2022-08-17 14:43:47.390625
1825,-25.98,2022-08-17 14:43:47.406250
1826,-11.9,2022-08-17 14:43:47.421875
1827,0.88,2022-08-17 14:43:47.437500
1828,11.8,2022-08-17 14:43:47.453125
1829,20.84,2022-08-17 14:43:47.468750
1830,28.21,2022-08-17 14:43:47.484375
1831,34.08,2022-08-17 14:43:47.500000
1832,38.42,2022-08-17 14:43:47.515625
1833,41.07,2022-08-17 14:43:47.531250
1834,41.98,2022-08-17 14:43:47.546875
1835,41.32,2022-08-17 14:43:47.562500
1836,39.6,2022-08-17 14:43:47.578125
1837,37.44,2022-08-17 14:43:47.593750
1838,35.45,2022-08-17 14:43:47.609375
1839,33.97,2022-08-17 14:43:47.625000
1840,33.01,2022-08-17 14:43:47.640625
1841,32.41,2022-08-17 14:43:47.656250
1842,32.0,2022-08-17 14:43:47.671875
1843,31.76,2022-08-17 14:43:47.687500
1844,31.8,2022-08-17 14:43:47.703125
1845,32.21,2022-08-17 14:43:47.718750
1846,32.96,2022-08-17 14:43:47.734375
1847,33.84,2022-08-17 14:43:47.750000
1848,34.59,2022-08-17 14:43:47.765625
1849,34.98,2022-08-17 14:43:47.781250
1850,34.91,2022-08-17 14:43:47.796875
1851,34.4,2022-08-17 14:43:47.812500
1852,33.48,2022-08-17 14:43:47.828125
1853,32.16,2022-08-17 14:43:47.843750
1854,30.42,2022-08-17 14:43:47.859375
1855,28.29,2022-08-17 14:43:47.875000
1856,25.87,2022-08-17 14:43:47.890625
1857,23.37,2022-08-17 14:43:47.906250
1858,20.94,2022-08-17 14:43:47.921875
1859,18.69,2022-08-17 14:43:47.937500
1860,16.58,2022-08-17 14:43:47.953125
1861,14.48,2022-08-17 14:43:47.968750
1862,12.31,2022-08-17 14:43:47.984375
1863,10.0,2022-08-17 14:43:48.000000
1864,7.54,2022-08-17 14:43:48.015625
1865,4.95,2022-08-17 14:43:48.031250
1866,2.21,2022-08-17 14:43:48.046875
1867,-0.63,2022-08-17 14:43:48.062500
1868,-3.51,2022-08-17 14:43:48.078125
1869,-6.32,2022-08-17 14:43:48.093750
1870,-9.0,2022-08-17 14:43:48.109375
1871,-11.55,2022-08-17 14:43:48.125000
1872,-14.11,2022-08-17 14:43:48.140625
1873,-16.83,2022-08-17 14:43:48.156250
1874,-19.81,2022-08-17 14:43:48.171875
1875,-23.04,2022-08-17 14:43:48.187500
1876,-26.37,2022-08-17 14:43:48.203125
1877,-29.6,2022-08-17 14:43:48.218750
1878,-32.62,2022-08-17 14:43:48.234375
1879,-35.44,2022-08-17 14:43:48.250000
1880,-38.17,2022-08-17 14:43:48.265625
1881,-40.97,2022-08-17 14:43:48.281250
1882,-44.04,2022-08-17 14:43:48.296875
1883,-47.53,2022-08-17 14:43:48.312500
1884,-51.61,2022-08-17 14:43:48.328125
1885,-56.26,2022-08-17 14:43:48.343750
1886,-61.2,2022-08-17 14:43:48.359375
1887,-65.69,2022-08-17 14:43:48.375000
1888,-68.58,2022-08-17 14:43:48.390625
1889,-68.58,2022-08-17 14:43:48.406250
1890,-64.67,2022-08-17 14:43:48.421875
1891,-56.6,2022-08-17 14:43:48.437500
1892,-45.0,2022-08-17 14:43:48.453125
1893,-31.28,2022-08-17 14:43:48.468750
1894,-17.1,2022-08-17 14:43:48.484375
1895,-3.86,2022-08-17 14:43:48.500000
1896,7.6,2022-08-17 14:43:48.515625
1897,17.06,2022-08-17 14:43:48.531250
1898,24.6,2022-08-17 14:43:48.546875
1899,30.39,2022-08-17 14:43:48.562500
1900,34.53,2022-08-17 14:43:48.578125
1901,37.03,2022-08-17 14:43:48.593750
1902,38.0,2022-08-17 14:43:48.609375
1903,37.73,2022-08-17 14:43:48.625000
1904,36.64,2022-08-17 14:43:48.640625
1905,35.19,2022-08-17 14:43:48.656250
1906,33.78,2022-08-17 14:43:48.671875
1907,32.58,2022-08-17 14:43:48.687500
1908,31.64,2022-08-17 14:43:48.703125
1909,30.93,2022-08-17 14:43:48.718750
1910,30.41,2022-08-17 14:43:48.734375
1911,30.1,2022-08-17 14:43:48.750000
1912,30.06,2022-08-17 14:43:48.765625
1913,30.29,2022-08-17 14:43:48.781250
1914,30.74,2022-08-17 14:43:48.796875
1915,31.3,2022-08-17 14:43:48.812500
1916,31.79,2022-08-17 14:43:48.828125
1917,32.02,2022-08-17 14:43:48.843750
1918,31.81,2022-08-17 14:43:48.859375
1919,31.09,2022-08-17 14:43:48.875000
1920,29.82,2022-08-17 14:43:48.890625
1921,28.09,2022-08-17 14:43:48.906250
1922,26.01,2022-08-17 14:43:48.921875
1923,23.69,2022-08-17 14:43:48.937500
1924,21.23,2022-08-17 14:43:48.953125
1925,18.7,2022-08-17 14:43:48.968750
1926,16.1,2022-08-17 14:43:48.984375
1927,13.44,2022-08-17 14:43:49.000000
1928,10.7,2022-08-17 14:43:49.015625
1929,7.85,2022-08-17 14:43:49.031250
1930,4.91,2022-08-17 14:43:49.046875
1931,1.86,2022-08-17 14:43:49.062500
1932,-1.19,2022-08-17 14:43:49.078125
1933,-4.17,2022-08-17 14:43:49.093750
1934,-6.94,2022-08-17 14:43:49.109375
1935,-9.43,2022-08-17 14:43:49.125000
1936,-11.67,2022-08-17 14:43:49.140625
1937,-13.84,2022-08-17 14:43:49.156250
1938,-16.26,2022-08-17 14:43:49.171875
1939,-19.24,2022-08-17 14:43:49.187500
1940,-22.93,2022-08-17 14:43:49.203125
1941,-27.25,2022-08-17 14:43:49.218750
1942,-31.9,2022-08-17 14:43:49.234375
1943,-36.51,2022-08-17 14:43:49.250000
1944,-40.77,2022-08-17 14:43:49.265625
1945,-44.61,2022-08-17 14:43:49.281250
1946,-48.18,2022-08-17 14:43:49.296875
1947,-51.77,2022-08-17 14:43:49.312500
1948,-55.64,2022-08-17 14:43:49.328125
1949,-60.04,2022-08-17 14:43:49.343750
1950,-65.07,2022-08-17 14:43:49.359375
1951,-70.7,2022-08-17 14:43:49.375000
1952,-76.59,2022-08-17 14:43:49.390625
1953,-82.01,2022-08-17 14:43:49.406250
1954,-85.77,2022-08-17 14:43:49.421875
1955,-86.48,2022-08-17 14:43:49.437500
1956,-82.98,2022-08-17 14:43:49.453125
1957,-74.81,2022-08-17 14:43:49.468750
1958,-62.49,2022-08-17 14:43:49.484375
1959,-47.38,2022-08-17 14:43:49.500000
1960,-31.23,2022-08-17 14:43:49.515625
1961,-15.58,2022-08-17 14:43:49.531250
1962,-1.38,2022-08-17 14:43:49.546875
1963,11.06,2022-08-17 14:43:49.562500
1964,21.83,2022-08-17 14:43:49.578125
1965,31.04,2022-08-17 14:43:49.593750
1966,38.67,2022-08-17 14:43:49.609375
1967,44.56,2022-08-17 14:43:49.625000
1968,48.61,2022-08-17 14:43:49.640625
1969,50.88,2022-08-17 14:43:49.656250
1970,51.67,2022-08-17 14:43:49.671875
1971,51.37,2022-08-17 14:43:49.687500
1972,50.34,2022-08-17 14:43:49.703125
1973,48.87,2022-08-17 14:43:49.718750
1974,47.16,2022-08-17 14:43:49.734375
1975,45.4,2022-08-17 14:43:49.750000
1976,43.77,2022-08-17 14:43:49.765625
1977,42.53,2022-08-17 14:43:49.781250
1978,41.88,2022-08-17 14:43:49.796875
1979,41.96,2022-08-17 14:43:49.812500
1980,42.74,2022-08-17 14:43:49.828125
1981,43.98,2022-08-17 14:43:49.843750
1982,45.26,2022-08-17 14:43:49.859375
1983,46.11,2022-08-17 14:43:49.875000
1984,46.12,2022-08-17 14:43:49.890625
1985,45.11,2022-08-17 14:43:49.906250
1986,43.18,2022-08-17 14:43:49.921875
1987,40.69,2022-08-17 14:43:49.937500
1988,38.07,2022-08-17 14:43:49.953125
1989,35.67,2022-08-17 14:43:49.968750
1990,33.57,2022-08-17 14:43:49.984375
1991,31.61,2022-08-17 14:43:50.000000
1992,29.51,2022-08-17 14:43:50.015625
1993,27.02,2022-08-17 14:43:50.031250
1994,24.14,2022-08-17 14:43:50.046875
1995,21.03,2022-08-17 14:43:50.062500
1996,17.97,2022-08-17 14:43:50.078125
1997,15.15,2022-08-17 14:43:50.093750
1998,12.59,2022-08-17 14:43:50.109375
1999,10.06,2022-08-17 14:43:50.125000
2000,7.3,2022-08-17 14:43:50.140625
2001,4.08,2022-08-17 14:43:50.156250
2002,0.34,2022-08-17 14:43:50.171875
2003,-3.74,2022-08-17 14:43:50.187500
2004,-7.9,2022-08-17 14:43:50.203125
2005,-11.87,2022-08-17 14:43:50.218750
2006,-15.5,2022-08-17 14:43:50.234375
2007,-18.78,2022-08-17 14:43:50.250000
2008,-21.85,2022-08-17 14:43:50.265625
2009,-24.89,2022-08-17 14:43:50.281250
2010,-28.09,2022-08-17 14:43:50.296875
2011,-31.54,2022-08-17 14:43:50.312500
2012,-35.21,2022-08-17 14:43:50.328125
2013,-38.98,2022-08-17 14:43:50.343750
2014,-42.65,2022-08-17 14:43:50.359375
2015,-46.07,2022-08-17 14:43:50.375000
2016,-49.24,2022-08-17 14:43:50.390625
2017,-52.28,2022-08-17 14:43:50.406250
2018,-55.44,2022-08-17 14:43:50.421875
2019,-59.06,2022-08-17 14:43:50.437500
2020,-63.48,2022-08-17 14:43:50.453125
2021,-68.92,2022-08-17 14:43:50.468750
2022,-75.32,2022-08-17 14:43:50.484375
2023,-82.12,2022-08-17 14:43:50.500000
2024,-88.18,2022-08-17 14:43:50.515625
2025,-91.95,2022-08-17 14:43:50.531250
2026,-91.85,2022-08-17 14:43:50.546875
2027,-86.82,2022-08-17 14:43:50.562500
2028,-76.81,2022-08-17 14:43:50.578125
2029,-62.79,2022-08-17 14:43:50.593750
2030,-46.43,2022-08-17 14:43:50.609375
2031,-29.54,2022-08-17 14:43:50.625000
2032,-13.48,2022-08-17 14:43:50.640625
2033,1.05,2022-08-17 14:43:50.656250
2034,13.87,2022-08-17 14:43:50.671875
2035,25.07,2022-08-17 14:43:50.687500
2036,34.69,2022-08-17 14:43:50.703125
2037,42.66,2022-08-17 14:43:50.718750
2038,48.84,2022-08-17 14:43:50.734375
2039,53.2,2022-08-17 14:43:50.750000
2040,55.88,2022-08-17 14:43:50.765625
2041,57.15,2022-08-17 14:43:50.781250
2042,57.33,2022-08-17 14:43:50.796875
2043,56.71,2022-08-17 14:43:50.812500
2044,55.51,2022-08-17 14:43:50.828125
2045,53.91,2022-08-17 14:43:50.843750
2046,52.13,2022-08-17 14:43:50.859375
2047,50.4,2022-08-17 14:43:50.875000
2048,48.98,2022-08-17 14:43:50.890625
2049,48.1,2022-08-17 14:43:50.906250
2050,47.87,2022-08-17 14:43:50.921875
2051,48.2,2022-08-17 14:43:50.937500
2052,48.83,2022-08-17 14:43:50.953125
2053,49.38,2022-08-17 14:43:50.968750
2054,49.48,2022-08-17 14:43:50.984375
2055,48.87,2022-08-17 14:43:51.000000
2056,47.48,2022-08-17 14:43:51.015625
2057,45.39,2022-08-17 14:43:51.031250
2058,42.83,2022-08-17 14:43:51.046875
2059,40.06,2022-08-17 14:43:51.062500
2060,37.33,2022-08-17 14:43:51.078125
2061,34.8,2022-08-17 14:43:51.093750
2062,32.48,2022-08-17 14:43:51.109375
2063,30.25,2022-08-17 14:43:51.125000
2064,27.93,2022-08-17 14:43:51.140625
2065,25.33,2022-08-17 14:43:51.156250
2066,22.4,2022-08-17 14:43:51.171875
2067,19.2,2022-08-17 14:43:51.187500
2068,15.9,2022-08-17 14:43:51.203125
2069,12.65,2022-08-17 14:43:51.218750
2070,9.52,2022-08-17 14:43:51.234375
2071,6.47,2022-08-17 14:43:51.250000
2072,3.37,2022-08-17 14:43:51.265625
2073,0.14,2022-08-17 14:43:51.281250
2074,-3.26,2022-08-17 14:43:51.296875
2075,-6.74,2022-08-17 14:43:51.312500
2076,-10.18,2022-08-17 14:43:51.328125
2077,-13.47,2022-08-17 14:43:51.343750
2078,-16.61,2022-08-17 14:43:51.359375
2079,-19.66,2022-08-17 14:43:51.375000
2080,-22.79,2022-08-17 14:43:51.390625
2081,-26.16,2022-08-17 14:43:51.406250
2082,-29.83,2022-08-17 14:43:51.421875
2083,-33.76,2022-08-17 14:43:51.437500
2084,-37.77,2022-08-17 14:43:51.453125
2085,-41.63,2022-08-17 14:43:51.468750
2086,-45.15,2022-08-17 14:43:51.484375
2087,-48.31,2022-08-17 14:43:51.500000
2088,-51.28,2022-08-17 14:43:51.515625
2089,-54.38,2022-08-17 14:43:51.531250
2090,-57.98,2022-08-17 14:43:51.546875
2091,-62.38,2022-08-17 14:43:51.562500
2092,-67.7,2022-08-17 14:43:51.578125
2093,-73.81,2022-08-17 14:43:51.593750
2094,-80.14,2022-08-17 14:43:51.609375
2095,-85.75,2022-08-17 14:43:51.625000
2096,-89.31,2022-08-17 14:43:51.640625
2097,-89.43,2022-08-17 14:43:51.656250
2098,-85.06,2022-08-17 14:43:51.671875
2099,-75.95,2022-08-17 14:43:51.687500
2100,-62.75,2022-08-17 14:43:51.703125
2101,-46.94,2022-08-17 14:43:51.718750
2102,-30.32,2022-08-17 14:43:51.734375
2103,-14.45,2022-08-17 14:43:51.750000
2104,-0.23,2022-08-17 14:43:51.765625
2105,12.11,2022-08-17 14:43:51.781250
2106,22.8,2022-08-17 14:43:51.796875
2107,32.08,2022-08-17 14:43:51.812500
2108,39.99,2022-08-17 14:43:51.828125
2109,46.33,2022-08-17 14:43:51.843750
2110,50.83,2022-08-17 14:43:51.859375
2111,53.42,2022-08-17 14:43:51.875000
2112,54.32,2022-08-17 14:43:51.890625
2113,53.99,2022-08-17 14:43:51.906250
2114,52.97,2022-08-17 14:43:51.921875
2115,51.7,2022-08-17 14:43:51.937500
2116,50.44,2022-08-17 14:43:51.953125
2117,49.26,2022-08-17 14:43:51.968750
2118,48.16,2022-08-17 14:43:51.984375
2119,47.16,2022-08-17 14:43:52.000000
2120,46.34,2022-08-17 14:43:52.015625
2121,45.79,2022-08-17 14:43:52.031250
2122,45.55,2022-08-17 14:43:52.046875
2123,45.6,2022-08-17 14:43:52.062500
2124,45.8,2022-08-17 14:43:52.078125
2125,45.93,2022-08-17 14:43:52.093750
2126,45.77,2022-08-17 14:43:52.109375
2127,45.13,2022-08-17 14:43:52.125000
2128,43.91,2022-08-17 14:43:52.140625
2129,42.19,2022-08-17 14:43:52.156250
2130,40.06,2022-08-17 14:43:52.171875
2131,37.7,2022-08-17 14:43:52.187500
2132,35.22,2022-08-17 14:43:52.203125
2133,32.64,2022-08-17 14:43:52.218750
2134,29.92,2022-08-17 14:43:52.234375
2135,27.03,2022-08-17 14:43:52.250000
2136,23.97,2022-08-17 14:43:52.265625
2137,20.84,2022-08-17 14:43:52.281250
2138,17.8,2022-08-17 14:43:52.296875
2139,15.01,2022-08-17 14:43:52.312500
2140,12.56,2022-08-17 14:43:52.328125
2141,10.37,2022-08-17 14:43:52.343750
2142,8.24,2022-08-17 14:43:52.359375
2143,5.93,2022-08-17 14:43:52.375000
2144,3.22,2022-08-17 14:43:52.390625
2145,0.04,2022-08-17 14:43:52.406250
2146,-3.49,2022-08-17 14:43:52.421875
2147,-7.12,2022-08-17 14:43:52.437500
2148,-10.55,2022-08-17 14:43:52.453125
2149,-13.59,2022-08-17 14:43:52.468750
2150,-16.31,2022-08-17 14:43:52.484375
2151,-18.95,2022-08-17 14:43:52.500000
2152,-21.85,2022-08-17 14:43:52.515625
2153,-25.29,2022-08-17 14:43:52.531250
2154,-29.33,2022-08-17 14:43:52.546875
2155,-33.75,2022-08-17 14:43:52.562500
2156,-38.23,2022-08-17 14:43:52.578125
2157,-42.44,2022-08-17 14:43:52.593750
2158,-46.23,2022-08-17 14:43:52.609375
2159,-49.64,2022-08-17 14:43:52.625000
2160,-52.9,2022-08-17 14:43:52.640625
2161,-56.3,2022-08-17 14:43:52.656250
2162,-60.14,2022-08-17 14:43:52.671875
2163,-64.67,2022-08-17 14:43:52.687500
2164,-69.95,2022-08-17 14:43:52.703125
2165,-75.66,2022-08-17 14:43:52.718750
2166,-80.99,2022-08-17 14:43:52.734375
2167,-84.66,2022-08-17 14:43:52.750000
2168,-85.17,2022-08-17 14:43:52.765625
2169,-81.36,2022-08-17 14:43:52.781250
2170,-72.81,2022-08-17 14:43:52.796875
2171,-60.13,2022-08-17 14:43:52.812500
2172,-44.69,2022-08-17 14:43:52.828125
2173,-28.23,2022-08-17 14:43:52.843750
2174,-12.29,2022-08-17 14:43:52.859375
2175,2.14,2022-08-17 14:43:52.875000
2176,14.67,2022-08-17 14:43:52.890625
2177,25.24,2022-08-17 14:43:52.906250
2178,33.9,2022-08-17 14:43:52.921875
2179,40.66,2022-08-17 14:43:52.937500
2180,45.47,2022-08-17 14:43:52.953125
2181,48.41,2022-08-17 14:43:52.968750
2182,49.7,2022-08-17 14:43:52.984375
2183,49.74,2022-08-17 14:43:53.000000
2184,49.0,2022-08-17 14:43:53.015625
2185,47.89,2022-08-17 14:43:53.031250
2186,46.67,2022-08-17 14:43:53.046875
2187,45.5,2022-08-17 14:43:53.062500
2188,44.43,2022-08-17 14:43:53.078125
2189,43.53,2022-08-17 14:43:53.093750
2190,42.86,2022-08-17 14:43:53.109375
2191,42.5,2022-08-17 14:43:53.125000
2192,42.47,2022-08-17 14:43:53.140625
2193,42.73,2022-08-17 14:43:53.156250
2194,43.17,2022-08-17 14:43:53.171875
2195,43.61,2022-08-17 14:43:53.187500
2196,43.88,2022-08-17 14:43:53.203125
2197,43.8,2022-08-17 14:43:53.218750
2198,43.23,2022-08-17 14:43:53.234375
2199,42.09,2022-08-17 14:43:53.250000
2200,40.38,2022-08-17 14:43:53.265625
2201,38.22,2022-08-17 14:43:53.281250
2202,35.83,2022-08-17 14:43:53.296875
2203,33.47,2022-08-17 14:43:53.312500
2204,31.35,2022-08-17 14:43:53.328125
2205,29.47,2022-08-17 14:43:53.343750
2206,27.65,2022-08-17 14:43:53.359375
2207,25.61,2022-08-17 14:43:53.375000
2208,23.09,2022-08-17 14:43:53.390625
2209,20.07,2022-08-17 14:43:53.406250
2210,16.74,2022-08-17 14:43:53.421875
2211,13.46,2022-08-17 14:43:53.437500
2212,10.56,2022-08-17 14:43:53.453125
2213,8.13,2022-08-17 14:43:53.468750
2214,6.02,2022-08-17 14:43:53.484375
2215,3.91,2022-08-17 14:43:53.500000
2216,1.45,2022-08-17 14:43:53.515625
2217,-1.51,2022-08-17 14:43:53.531250
2218,-4.84,2022-08-17 14:43:53.546875
2219,-8.2,2022-08-17 14:43:53.562500
2220,-11.26,2022-08-17 14:43:53.578125
2221,-13.86,2022-08-17 14:43:53.593750
2222,-16.08,2022-08-17 14:43:53.609375
2223,-18.26,2022-08-17 14:43:53.625000
2224,-20.8,2022-08-17 14:43:53.640625
2225,-23.97,2022-08-17 14:43:53.656250
2226,-27.79,2022-08-17 14:43:53.671875
2227,-31.97,2022-08-17 14:43:53.687500
2228,-36.1,2022-08-17 14:43:53.703125
2229,-39.78,2022-08-17 14:43:53.718750
2230,-42.87,2022-08-17 14:43:53.734375
2231,-45.49,2022-08-17 14:43:53.750000
2232,-48.06,2022-08-17 14:43:53.765625
2233,-51.02,2022-08-17 14:43:53.781250
2234,-54.73,2022-08-17 14:43:53.796875
2235,-59.36,2022-08-17 14:43:53.812500
2236,-64.81,2022-08-17 14:43:53.828125
2237,-70.74,2022-08-17 14:43:53.843750
2238,-76.5,2022-08-17 14:43:53.859375
2239,-81.04,2022-08-17 14:43:53.875000
2240,-83.11,2022-08-17 14:43:53.890625
2241,-81.49,2022-08-17 14:43:53.906250
2242,-75.41,2022-08-17 14:43:53.921875
2243,-64.93,2022-08-17 14:43:53.937500
2244,-51.07,2022-08-17 14:43:53.953125
2245,-35.48,2022-08-17 14:43:53.968750
2246,-19.92,2022-08-17 14:43:53.984375
2247,-5.69,2022-08-17 14:43:54.000000
2248,6.6,2022-08-17 14:43:54.015625
2249,16.99,2022-08-17 14:43:54.031250
2250,25.75,2022-08-17 14:43:54.046875
2251,33.07,2022-08-17 14:43:54.062500
2252,38.87,2022-08-17 14:43:54.078125
2253,43.0,2022-08-17 14:43:54.093750
2254,45.38,2022-08-17 14:43:54.109375
2255,46.19,2022-08-17 14:43:54.125000
2256,45.89,2022-08-17 14:43:54.140625
2257,44.99,2022-08-17 14:43:54.156250
2258,43.89,2022-08-17 14:43:54.171875
2259,42.8,2022-08-17 14:43:54.187500
2260,41.71,2022-08-17 14:43:54.203125
2261,40.59,2022-08-17 14:43:54.218750
2262,39.44,2022-08-17 14:43:54.234375
2263,38.39,2022-08-17 14:43:54.250000
2264,37.64,2022-08-17 14:43:54.265625
2265,37.38,2022-08-17 14:43:54.281250
2266,37.69,2022-08-17 14:43:54.296875
2267,38.44,2022-08-17 14:43:54.312500
2268,39.35,2022-08-17 14:43:54.328125
2269,39.99,2022-08-17 14:43:54.343750
2270,39.96,2022-08-17 14:43:54.359375
2271,39.09,2022-08-17 14:43:54.375000
2272,37.45,2022-08-17 14:43:54.390625
2273,35.39,2022-08-17 14:43:54.406250
2274,33.31,2022-08-17 14:43:54.421875
2275,31.51,2022-08-17 14:43:54.437500
2276,30.04,2022-08-17 14:43:54.453125
2277,28.69,2022-08-17 14:43:54.468750
2278,27.15,2022-08-17 14:43:54.484375
2279,25.18,2022-08-17 14:43:54.500000
2280,22.7,2022-08-17 14:43:54.515625
2281,19.84,2022-08-17 14:43:54.531250
2282,16.86,2022-08-17 14:43:54.546875
2283,14.01,2022-08-17 14:43:54.562500
2284,11.44,2022-08-17 14:43:54.578125
2285,9.12,2022-08-17 14:43:54.593750
2286,6.93,2022-08-17 14:43:54.609375
2287,4.64,2022-08-17 14:43:54.625000
2288,2.11,2022-08-17 14:43:54.640625
2289,-0.72,2022-08-17 14:43:54.656250
2290,-3.72,2022-08-17 14:43:54.671875
2291,-6.71,2022-08-17 14:43:54.687500
2292,-9.49,2022-08-17 14:43:54.703125
2293,-12.0,2022-08-17 14:43:54.718750
2294,-14.33,2022-08-17 14:43:54.734375
2295,-16.69,2022-08-17 14:43:54.750000
2296,-19.3,2022-08-17 14:43:54.765625
2297,-22.29,2022-08-17 14:43:54.781250
2298,-25.61,2022-08-17 14:43:54.796875
2299,-29.12,2022-08-17 14:43:54.812500
2300,-32.61,2022-08-17 14:43:54.828125
2301,-35.9,2022-08-17 14:43:54.843750
2302,-38.86,2022-08-17 14:43:54.859375
2303,-41.5,2022-08-17 14:43:54.875000
2304,-43.96,2022-08-17 14:43:54.890625
2305,-46.5,2022-08-17 14:43:54.906250
2306,-49.48,2022-08-17 14:43:54.921875
2307,-53.25,2022-08-17 14:43:54.937500
2308,-58.05,2022-08-17 14:43:54.953125
2309,-63.81,2022-08-17 14:43:54.968750
2310,-69.97,2022-08-17 14:43:54.984375
2311,-75.47,2022-08-17 14:43:55.000000
2312,-78.93,2022-08-17 14:43:55.015625
2313,-78.96,2022-08-17 14:43:55.031250
2314,-74.68,2022-08-17 14:43:55.046875
2315,-66.01,2022-08-17 14:43:55.062500
2316,-53.74,2022-08-17 14:43:55.078125
2317,-39.36,2022-08-17 14:43:55.093750
2318,-24.49,2022-08-17 14:43:55.109375
2319,-10.51,2022-08-17 14:43:55.125000
2320,1.78,2022-08-17 14:43:55.140625
2321,12.13,2022-08-17 14:43:55.156250
2322,20.63,2022-08-17 14:43:55.171875
2323,27.47,2022-08-17 14:43:55.187500
2324,32.76,2022-08-17 14:43:55.203125
2325,36.53,2022-08-17 14:43:55.218750
2326,38.75,2022-08-17 14:43:55.234375
2327,39.55,2022-08-17 14:43:55.250000
2328,39.14,2022-08-17 14:43:55.265625
2329,37.88,2022-08-17 14:43:55.281250
2330,36.21,2022-08-17 14:43:55.296875
2331,34.55,2022-08-17 14:43:55.312500
2332,33.2,2022-08-17 14:43:55.328125
2333,32.37,2022-08-17 14:43:55.343750
2334,32.04,2022-08-17 14:43:55.359375
2335,32.1,2022-08-17 14:43:55.375000
2336,32.43,2022-08-17 14:43:55.390625
2337,32.9,2022-08-17 14:43:55.406250
2338,33.43,2022-08-17 14:43:55.421875
2339,33.99,2022-08-17 14:43:55.437500
2340,34.47,2022-08-17 14:43:55.453125
2341,34.78,2022-08-17 14:43:55.468750
2342,34.74,2022-08-17 14:43:55.484375
2343,34.27,2022-08-17 14:43:55.500000
2344,33.36,2022-08-17 14:43:55.515625
2345,32.16,2022-08-17 14:43:55.531250
2346,30.84,2022-08-17 14:43:55.546875
2347,29.52,2022-08-17 14:43:55.562500
2348,28.19,2022-08-17 14:43:55.578125
2349,26.68,2022-08-17 14:43:55.593750
2350,24.78,2022-08-17 14:43:55.609375
2351,22.37,2022-08-17 14:43:55.625000
2352,19.51,2022-08-17 14:43:55.640625
2353,16.47,2022-08-17 14:43:55.656250
2354,13.62,2022-08-17 14:43:55.671875
2355,11.23,2022-08-17 14:43:55.687500
2356,9.35,2022-08-17 14:43:55.703125
2357,7.77,2022-08-17 14:43:55.718750
2358,6.14,2022-08-17 14:43:55.734375
2359,4.12,2022-08-17 14:43:55.750000
2360,1.56,2022-08-17 14:43:55.765625
2361,-1.41,2022-08-17 14:43:55.781250
2362,-4.52,2022-08-17 14:43:55.796875
2363,-7.45,2022-08-17 14:43:55.812500
2364,-10.0,2022-08-17 14:43:55.828125
2365,-12.18,2022-08-17 14:43:55.843750
2366,-14.19,2022-08-17 14:43:55.859375
2367,-16.32,2022-08-17 14:43:55.875000
2368,-18.79,2022-08-17 14:43:55.890625
2369,-21.73,2022-08-17 14:43:55.906250
2370,-25.03,2022-08-17 14:43:55.921875
2371,-28.51,2022-08-17 14:43:55.937500
2372,-31.89,2022-08-17 14:43:55.953125
2373,-34.99,2022-08-17 14:43:55.968750
2374,-37.74,2022-08-17 14:43:55.984375
2375,-40.27,2022-08-17 14:43:56.000000
2376,-42.82,2022-08-17 14:43:56.015625
2377,-45.73,2022-08-17 14:43:56.031250
2378,-49.3,2022-08-17 14:43:56.046875
2379,-53.75,2022-08-17 14:43:56.062500
2380,-59.02,2022-08-17 14:43:56.078125
2381,-64.63,2022-08-17 14:43:56.093750
2382,-69.67,2022-08-17 14:43:56.109375
2383,-72.87,2022-08-17 14:43:56.125000
2384,-72.93,2022-08-17 14:43:56.140625
2385,-68.94,2022-08-17 14:43:56.156250
2386,-60.78,2022-08-17 14:43:56.171875
2387,-49.24,2022-08-17 14:43:56.187500
2388,-35.74,2022-08-17 14:43:56.203125
2389,-21.94,2022-08-17 14:43:56.218750
2390,-9.17,2022-08-17 14:43:56.234375
2391,1.86,2022-08-17 14:43:56.250000
2392,11.01,2022-08-17 14:43:56.265625
2393,18.49,2022-08-17 14:43:56.281250
2394,24.49,2022-08-17 14:43:56.296875
2395,29.04,2022-08-17 14:43:56.312500
2396,32.06,2022-08-17 14:43:56.328125
2397,33.5,2022-08-17 14:43:56.343750
2398,33.55,2022-08-17 14:43:56.359375
2399,32.61,2022-08-17 14:43:56.375000
2400,31.23,2022-08-17 14:43:56.390625
2401,29.87,2022-08-17 14:43:56.406250
2402,28.76,2022-08-17 14:43:56.421875
2403,27.93,2022-08-17 14:43:56.437500
2404,27.25,2022-08-17 14:43:56.453125
2405,26.66,2022-08-17 14:43:56.468750
2406,26.24,2022-08-17 14:43:56.484375
2407,26.17,2022-08-17 14:43:56.500000
2408,26.64,2022-08-17 14:43:56.515625
2409,27.67,2022-08-17 14:43:56.531250
2410,29.1,2022-08-17 14:43:56.546875
2411,30.55,2022-08-17 14:43:56.562500
2412,31.65,2022-08-17 14:43:56.578125
2413,32.14,2022-08-17 14:43:56.593750
2414,31.95,2022-08-17 14:43:56.609375
2415,31.2,2022-08-17 14:43:56.625000
2416,30.08,2022-08-17 14:43:56.640625
2417,28.76,2022-08-17 14:43:56.656250
2418,27.31,2022-08-17 14:43:56.671875
2419,25.77,2022-08-17 14:43:56.687500
2420,24.12,2022-08-17 14:43:56.703125
2421,22.33,2022-08-17 14:43:56.718750
2422,20.42,2022-08-17 14:43:56.734375
2423,18.36,2022-08-17 14:43:56.750000
2424,16.07,2022-08-17 14:43:56.765625
2425,13.46,2022-08-17 14:43:56.781250
2426,10.5,2022-08-17 14:43:56.796875
2427,7.23,2022-08-17 14:43:56.812500
2428,3.89,2022-08-17 14:43:56.828125
2429,0.77,2022-08-17 14:43:56.843750
2430,-1.86,2022-08-17 14:43:56.859375
2431,-3.94,2022-08-17 14:43:56.875000
2432,-5.66,2022-08-17 14:43:56.890625
2433,-7.39,2022-08-17 14:43:56.906250
2434,-9.57,2022-08-17 14:43:56.921875
2435,-12.49,2022-08-17 14:43:56.937500
2436,-16.16,2022-08-17 14:43:56.953125
2437,-20.36,2022-08-17 14:43:56.968750
2438,-24.68,2022-08-17 14:43:56.984375
2439,-28.75,2022-08-17 14:43:57.000000
2440,-32.38,2022-08-17 14:43:57.015625
2441,-35.52,2022-08-17 14:43:57.031250
2442,-38.36,2022-08-17 14:43:57.046875
2443,-41.11,2022-08-17 14:43:57.062500
2444,-44.09,2022-08-17 14:43:57.078125
2445,-47.57,2022-08-17 14:43:57.093750
2446,-51.8,2022-08-17 14:43:57.109375
2447,-56.84,2022-08-17 14:43:57.125000
2448,-62.37,2022-08-17 14:43:57.140625
2449,-67.59,2022-08-17 14:43:57.156250
2450,-71.25,2022-08-17 14:43:57.171875
2451,-71.93,2022-08-17 14:43:57.187500
2452,-68.57,2022-08-17 14:43:57.203125
2453,-60.87,2022-08-17 14:43:57.218750
2454,-49.48,2022-08-17 14:43:57.234375
2455,-35.86,2022-08-17 14:43:57.250000
2456,-21.75,2022-08-17 14:43:57.265625
2457,-8.66,2022-08-17 14:43:57.281250
2458,2.56,2022-08-17 14:43:57.296875
2459,11.66,2022-08-17 14:43:57.312500
2460,18.86,2022-08-17 14:43:57.328125
2461,24.49,2022-08-17 14:43:57.343750
2462,28.73,2022-08-17 14:43:57.359375
2463,31.66,2022-08-17 14:43:57.375000
2464,33.27,2022-08-17 14:43:57.390625
2465,33.7,2022-08-17 14:43:57.406250
2466,33.22,2022-08-17 14:43:57.421875
2467,32.23,2022-08-17 14:43:57.437500
2468,31.12,2022-08-17 14:43:57.453125
2469,30.14,2022-08-17 14:43:57.468750
2470,29.42,2022-08-17 14:43:57.484375
2471,28.95,2022-08-17 14:43:57.500000
2472,28.7,2022-08-17 14:43:57.515625
2473,28.64,2022-08-17 14:43:57.531250
2474,28.82,2022-08-17 14:43:57.546875
2475,29.29,2022-08-17 14:43:57.562500
2476,30.08,2022-08-17 14:43:57.578125
2477,31.19,2022-08-17 14:43:57.593750
2478,32.45,2022-08-17 14:43:57.609375
2479,33.62,2022-08-17 14:43:57.625000
2480,34.35,2022-08-17 14:43:57.640625
2481,34.34,2022-08-17 14:43:57.656250
2482,33.4,2022-08-17 14:43:57.671875
2483,31.56,2022-08-17 14:43:57.687500
2484,29.08,2022-08-17 14:43:57.703125
2485,26.37,2022-08-17 14:43:57.718750
2486,23.8,2022-08-17 14:43:57.734375
2487,21.53,2022-08-17 14:43:57.750000
2488,19.44,2022-08-17 14:43:57.765625
2489,17.23,2022-08-17 14:43:57.781250
2490,14.57,2022-08-17 14:43:57.796875
2491,11.32,2022-08-17 14:43:57.812500
2492,7.64,2022-08-17 14:43:57.828125
2493,3.87,2022-08-17 14:43:57.843750
2494,0.42,2022-08-17 14:43:57.859375
2495,-2.5,2022-08-17 14:43:57.875000
2496,-4.97,2022-08-17 14:43:57.890625
2497,-7.34,2022-08-17 14:43:57.906250
2498,-10.05,2022-08-17 14:43:57.921875
2499,-13.46,2022-08-17 14:43:57.937500
2500,-17.63,2022-08-17 14:43:57.953125
2501,-22.34,2022-08-17 14:43:57.968750
2502,-27.16,2022-08-17 14:43:57.984375
2503,-31.66,2022-08-17 14:43:58.000000
2504,-35.56,2022-08-17 14:43:58.015625
2505,-38.86,2022-08-17 14:43:58.031250
2506,-41.78,2022-08-17 14:43:58.046875
2507,-44.7,2022-08-17 14:43:58.062500
2508,-48.01,2022-08-17 14:43:58.078125
2509,-52.03,2022-08-17 14:43:58.093750
2510,-56.94,2022-08-17 14:43:58.109375
2511,-62.68,2022-08-17 14:43:58.125000
2512,-68.83,2022-08-17 14:43:58.140625
2513,-74.55,2022-08-17 14:43:58.156250
2514,-78.59,2022-08-17 14:43:58.171875
2515,-79.6,2022-08-17 14:43:58.187500
2516,-76.49,2022-08-17 14:43:58.203125
2517,-68.92,2022-08-17 14:43:58.218750
2518,-57.44,2022-08-17 14:43:58.234375
2519,-43.43,2022-08-17 14:43:58.250000
2520,-28.63,2022-08-17 14:43:58.265625
2521,-14.63,2022-08-17 14:43:58.281250
2522,-2.38,2022-08-17 14:43:58.296875
2523,7.84,2022-08-17 14:43:58.312500
2524,16.27,2022-08-17 14:43:58.328125
2525,23.36,2022-08-17 14:43:58.343750
2526,29.39,2022-08-17 14:43:58.359375
2527,34.46,2022-08-17 14:43:58.375000
2528,38.41,2022-08-17 14:43:58.390625
2529,41.08,2022-08-17 14:43:58.406250
2530,42.45,2022-08-17 14:43:58.421875
2531,42.69,2022-08-17 14:43:58.437500
2532,42.13,2022-08-17 14:43:58.453125
2533,41.15,2022-08-17 14:43:58.468750
2534,40.07,2022-08-17 14:43:58.484375
2535,39.08,2022-08-17 14:43:58.500000
2536,38.3,2022-08-17 14:43:58.515625
2537,37.77,2022-08-17 14:43:58.531250
2538,37.57,2022-08-17 14:43:58.546875
2539,37.76,2022-08-17 14:43:58.562500
2540,38.37,2022-08-17 14:43:58.578125
2541,39.36,2022-08-17 14:43:58.593750
2542,40.49,2022-08-17 14:43:58.609375
2543,41.42,2022-08-17 14:43:58.625000
2544,41.76,2022-08-17 14:43:58.640625
2545,41.23,2022-08-17 14:43:58.656250
2546,39.73,2022-08-17 14:43:58.671875
2547,37.41,2022-08-17 14:43:58.687500
2548,34.62,2022-08-17 14:43:58.703125
2549,31.76,2022-08-17 14:43:58.718750
2550,29.13,2022-08-17 14:43:58.734375
2551,26.85,2022-08-17 14:43:58.750000
2552,24.74,2022-08-17 14:43:58.765625
2553,22.52,2022-08-17 14:43:58.781250
2554,19.9,2022-08-17 14:43:58.796875
2555,16.72,2022-08-17 14:43:58.812500
2556,13.03,2022-08-17 14:43:58.828125
2557,9.04,2022-08-17 14:43:58.843750
2558,5.0,2022-08-17 14:43:58.859375
2559,1.14,2022-08-17 14:43:58.875000
2560,-2.45,2022-08-17 14:43:58.890625
2561,-5.82,2022-08-17 14:43:58.906250
2562,-9.09,2022-08-17 14:43:58.921875
2563,-12.47,2022-08-17 14:43:58.937500
2564,-16.15,2022-08-17 14:43:58.953125
2565,-20.23,2022-08-17 14:43:58.968750
2566,-24.67,2022-08-17 14:43:58.984375
2567,-29.31,2022-08-17 14:43:59.000000
2568,-33.88,2022-08-17 14:43:59.015625
2569,-38.15,2022-08-17 14:43:59.031250
2570,-41.99,2022-08-17 14:43:59.046875
2571,-45.5,2022-08-17 14:43:59.062500
2572,-48.99,2022-08-17 14:43:59.078125
2573,-52.86,2022-08-17 14:43:59.093750
2574,-57.51,2022-08-17 14:43:59.109375
2575,-63.12,2022-08-17 14:43:59.125000
2576,-69.48,2022-08-17 14:43:59.140625
2577,-75.82,2022-08-17 14:43:59.156250
2578,-80.89,2022-08-17 14:43:59.171875
2579,-83.25,2022-08-17 14:43:59.187500
2580,-81.68,2022-08-17 14:43:59.203125
2581,-75.63,2022-08-17 14:43:59.218750
2582,-65.45,2022-08-17 14:43:59.234375
2583,-52.33,2022-08-17 14:43:59.250000
2584,-37.81,2022-08-17 14:43:59.265625
2585,-23.39,2022-08-17 14:43:59.281250
2586,-10.03,2022-08-17 14:43:59.296875
2587,1.87,2022-08-17 14:43:59.312500
2588,12.33,2022-08-17 14:43:59.328125
2589,21.49,2022-08-17 14:43:59.343750
2590,29.43,2022-08-17 14:43:59.359375
2591,36.06,2022-08-17 14:43:59.375000
2592,41.27,2022-08-17 14:43:59.390625
2593,45.04,2022-08-17 14:43:59.406250
2594,47.51,2022-08-17 14:43:59.421875
2595,48.95,2022-08-17 14:43:59.437500
2596,49.6,2022-08-17 14:43:59.453125
2597,49.63,2022-08-17 14:43:59.468750
2598,49.12,2022-08-17 14:43:59.484375
2599,48.13,2022-08-17 14:43:59.500000
2600,46.78,2022-08-17 14:43:59.515625
2601,45.34,2022-08-17 14:43:59.531250
2602,44.16,2022-08-17 14:43:59.546875
2603,43.52,2022-08-17 14:43:59.562500
2604,43.54,2022-08-17 14:43:59.578125
2605,44.08,2022-08-17 14:43:59.593750
2606,44.8,2022-08-17 14:43:59.609375
2607,45.32,2022-08-17 14:43:59.625000
2608,45.34,2022-08-17 14:43:59.640625
2609,44.74,2022-08-17 14:43:59.656250
2610,43.53,2022-08-17 14:43:59.671875
2611,41.87,2022-08-17 14:43:59.687500
2612,39.89,2022-08-17 14:43:59.703125
2613,37.71,2022-08-17 14:43:59.718750
2614,35.4,2022-08-17 14:43:59.734375
2615,32.97,2022-08-17 14:43:59.750000
2616,30.42,2022-08-17 14:43:59.765625
2617,27.75,2022-08-17 14:43:59.781250
2618,24.98,2022-08-17 14:43:59.796875
2619,22.18,2022-08-17 14:43:59.812500
2620,19.46,2022-08-17 14:43:59.828125
2621,16.95,2022-08-17 14:43:59.843750
2622,14.67,2022-08-17 14:43:59.859375
2623,12.53,2022-08-17 14:43:59.875000
2624,10.3,2022-08-17 14:43:59.890625
2625,7.73,2022-08-17 14:43:59.906250
2626,4.72,2022-08-17 14:43:59.921875
2627,1.4,2022-08-17 14:43:59.937500
2628,-1.94,2022-08-17 14:43:59.953125
2629,-4.97,2022-08-17 14:43:59.968750
2630,-7.56,2022-08-17 14:43:59.984375
2631,-9.88,2022-08-17 14:44:00.000000
2632,-12.29,2022-08-17 14:44:00.015625
2633,-15.22,2022-08-17 14:44:00.031250
2634,-18.84,2022-08-17 14:44:00.046875
2635,-23.07,2022-08-17 14:44:00.062500
2636,-27.55,2022-08-17 14:44:00.078125
2637,-31.89,2022-08-17 14:44:00.093750
2638,-35.83,2022-08-17 14:44:00.109375
2639,-39.35,2022-08-17 14:44:00.125000
2640,-42.62,2022-08-17 14:44:00.140625
2641,-45.93,2022-08-17 14:44:00.156250
2642,-49.55,2022-08-17 14:44:00.171875
2643,-53.74,2022-08-17 14:44:00.187500
2644,-58.75,2022-08-17 14:44:00.203125
2645,-64.6,2022-08-17 14:44:00.218750
2646,-71.05,2022-08-17 14:44:00.234375
2647,-77.29,2022-08-17 14:44:00.250000
2648,-82.11,2022-08-17 14:44:00.265625
2649,-84.03,2022-08-17 14:44:00.281250
2650,-81.91,2022-08-17 14:44:00.296875
2651,-75.3,2022-08-17 14:44:00.312500
2652,-64.73,2022-08-17 14:44:00.328125
2653,-51.52,2022-08-17 14:44:00.343750
2654,-37.34,2022-08-17 14:44:00.359375
2655,-23.59,2022-08-17 14:44:00.375000
2656,-11.14,2022-08-17 14:44:00.390625
2657,-0.24,2022-08-17 14:44:00.406250
2658,9.24,2022-08-17 14:44:00.421875
2659,17.5,2022-08-17 14:44:00.437500
2660,24.61,2022-08-17 14:44:00.453125
2661,30.52,2022-08-17 14:44:00.468750
2662,35.16,2022-08-17 14:44:00.484375
2663,38.57,2022-08-17 14:44:00.500000
2664,40.87,2022-08-17 14:44:00.515625
2665,42.22,2022-08-17 14:44:00.531250
2666,42.79,2022-08-17 14:44:00.546875
2667,42.67,2022-08-17 14:44:00.562500
2668,41.98,2022-08-17 14:44:00.578125
2669,40.89,2022-08-17 14:44:00.593750
2670,39.66,2022-08-17 14:44:00.609375
2671,38.59,2022-08-17 14:44:00.625000
2672,37.93,2022-08-17 14:44:00.640625
2673,37.82,2022-08-17 14:44:00.656250
2674,38.24,2022-08-17 14:44:00.671875
2675,39.01,2022-08-17 14:44:00.687500
2676,39.85,2022-08-17 14:44:00.703125
2677,40.51,2022-08-17 14:44:00.718750
2678,40.75,2022-08-17 14:44:00.734375
2679,40.46,2022-08-17 14:44:00.750000
2680,39.66,2022-08-17 14:44:00.765625
2681,38.47,2022-08-17 14:44:00.781250
2682,37.06,2022-08-17 14:44:00.796875
2683,35.65,2022-08-17 14:44:00.812500
2684,34.31,2022-08-17 14:44:00.828125
2685,33.03,2022-08-17 14:44:00.843750
2686,31.69,2022-08-17 14:44:00.859375
2687,30.07,2022-08-17 14:44:00.875000
2688,28.03,2022-08-17 14:44:00.890625
2689,25.5,2022-08-17 14:44:00.906250
2690,22.61,2022-08-17 14:44:00.921875
2691,19.65,2022-08-17 14:44:00.937500
2692,16.93,2022-08-17 14:44:00.953125
2693,14.66,2022-08-17 14:44:00.968750
2694,12.8,2022-08-17 14:44:00.984375
2695,11.15,2022-08-17 14:44:01.000000
2696,9.35,2022-08-17 14:44:01.015625
2697,7.13,2022-08-17 14:44:01.031250
2698,4.45,2022-08-17 14:44:01.046875
2699,1.46,2022-08-17 14:44:01.062500
2700,-1.54,2022-08-17 14:44:01.078125
2701,-4.34,2022-08-17 14:44:01.093750
2702,-6.89,2022-08-17 14:44:01.109375
2703,-9.36,2022-08-17 14:44:01.125000
2704,-12.01,2022-08-17 14:44:01.140625
2705,-15.09,2022-08-17 14:44:01.156250
2706,-18.63,2022-08-17 14:44:01.171875
2707,-22.53,2022-08-17 14:44:01.187500
2708,-26.52,2022-08-17 14:44:01.203125
2709,-30.37,2022-08-17 14:44:01.218750
2710,-33.97,2022-08-17 14:44:01.234375
2711,-37.34,2022-08-17 14:44:01.250000
2712,-40.62,2022-08-17 14:44:01.265625
2713,-43.98,2022-08-17 14:44:01.281250
2714,-47.62,2022-08-17 14:44:01.296875
2715,-51.74,2022-08-17 14:44:01.312500
2716,-56.47,2022-08-17 14:44:01.328125
2717,-61.71,2022-08-17 14:44:01.343750
2718,-66.99,2022-08-17 14:44:01.359375
2719,-71.38,2022-08-17 14:44:01.375000
2720,-73.62,2022-08-17 14:44:01.390625
2721,-72.56,2022-08-17 14:44:01.406250
2722,-67.56,2022-08-17 14:44:01.421875
2723,-58.8,2022-08-17 14:44:01.437500
2724,-47.26,2022-08-17 14:44:01.453125
2725,-34.39,2022-08-17 14:44:01.468750
2726,-21.6,2022-08-17 14:44:01.484375
2727,-9.89,2022-08-17 14:44:01.500000
2728,0.26,2022-08-17 14:44:01.515625
2729,8.77,2022-08-17 14:44:01.531250
2730,15.8,2022-08-17 14:44:01.546875
2731,21.53,2022-08-17 14:44:01.562500
2732,26.1,2022-08-17 14:44:01.578125
2733,29.66,2022-08-17 14:44:01.593750
2734,32.31,2022-08-17 14:44:01.609375
2735,34.17,2022-08-17 14:44:01.625000
2736,35.32,2022-08-17 14:44:01.640625
2737,35.78,2022-08-17 14:44:01.656250
2738,35.59,2022-08-17 14:44:01.671875
2739,34.88,2022-08-17 14:44:01.687500
2740,33.83,2022-08-17 14:44:01.703125
2741,32.67,2022-08-17 14:44:01.718750
2742,31.68,2022-08-17 14:44:01.734375
2743,31.09,2022-08-17 14:44:01.750000
2744,31.1,2022-08-17 14:44:01.765625
2745,31.77,2022-08-17 14:44:01.781250
2746,33.0,2022-08-17 14:44:01.796875
2747,34.52,2022-08-17 14:44:01.812500
2748,35.93,2022-08-17 14:44:01.828125
2749,36.8,2022-08-17 14:44:01.843750
2750,36.85,2022-08-17 14:44:01.859375
2751,36.05,2022-08-17 14:44:01.875000
2752,34.55,2022-08-17 14:44:01.890625
2753,32.69,2022-08-17 14:44:01.906250
2754,30.78,2022-08-17 14:44:01.921875
2755,29.08,2022-08-17 14:44:01.937500
2756,27.64,2022-08-17 14:44:01.953125
2757,26.39,2022-08-17 14:44:01.968750
2758,25.11,2022-08-17 14:44:01.984375
2759,23.58,2022-08-17 14:44:02.000000
2760,21.65,2022-08-17 14:44:02.015625
2761,19.3,2022-08-17 14:44:02.031250
2762,16.65,2022-08-17 14:44:02.046875
2763,13.92,2022-08-17 14:44:02.062500
2764,11.36,2022-08-17 14:44:02.078125
2765,9.1,2022-08-17 14:44:02.093750
2766,7.14,2022-08-17 14:44:02.109375
2767,5.33,2022-08-17 14:44:02.125000
2768,3.51,2022-08-17 14:44:02.140625
2769,1.51,2022-08-17 14:44:02.156250
2770,-0.73,2022-08-17 14:44:02.171875
2771,-3.15,2022-08-17 14:44:02.187500
2772,-5.62,2022-08-17 14:44:02.203125
2773,-7.98,2022-08-17 14:44:02.218750
2774,-10.17,2022-08-17 14:44:02.234375
2775,-12.2,2022-08-17 14:44:02.250000
2776,-14.19,2022-08-17 14:44:02.265625
2777,-16.35,2022-08-17 14:44:02.281250
2778,-18.81,2022-08-17 14:44:02.296875
2779,-21.65,2022-08-17 14:44:02.312500
2780,-24.76,2022-08-17 14:44:02.328125
2781,-27.94,2022-08-17 14:44:02.343750
2782,-30.93,2022-08-17 14:44:02.359375
2783,-33.59,2022-08-17 14:44:02.375000
2784,-35.89,2022-08-17 14:44:02.390625
2785,-38.05,2022-08-17 14:44:02.406250
2786,-40.42,2022-08-17 14:44:02.421875
2787,-43.39,2022-08-17 14:44:02.437500
2788,-47.25,2022-08-17 14:44:02.453125
2789,-52.04,2022-08-17 14:44:02.468750
2790,-57.39,2022-08-17 14:44:02.484375
2791,-62.49,2022-08-17 14:44:02.500000
2792,-66.21,2022-08-17 14:44:02.515625
2793,-67.36,2022-08-17 14:44:02.531250
2794,-65.07,2022-08-17 14:44:02.546875
2795,-59.1,2022-08-17 14:44:02.562500
2796,-49.99,2022-08-17 14:44:02.578125
2797,-38.88,2022-08-17 14:44:02.593750
2798,-27.16,2022-08-17 14:44:02.609375
2799,-16.03,2022-08-17 14:44:02.625000
2800,-6.19,2022-08-17 14:44:02.640625
2801,2.15,2022-08-17 14:44:02.656250
2802,9.11,2022-08-17 14:44:02.671875
2803,14.88,2022-08-17 14:44:02.687500
2804,19.56,2022-08-17 14:44:02.703125
2805,23.14,2022-08-17 14:44:02.718750
2806,25.56,2022-08-17 14:44:02.734375
2807,26.94,2022-08-17 14:44:02.750000
2808,27.5,2022-08-17 14:44:02.765625
2809,27.56,2022-08-17 14:44:02.781250
2810,27.37,2022-08-17 14:44:02.796875
2811,27.04,2022-08-17 14:44:02.812500
2812,26.54,2022-08-17 14:44:02.828125
2813,25.83,2022-08-17 14:44:02.843750
2814,24.97,2022-08-17 14:44:02.859375
2815,24.14,2022-08-17 14:44:02.875000
2816,23.63,2022-08-17 14:44:02.890625
2817,23.63,2022-08-17 14:44:02.906250
2818,24.17,2022-08-17 14:44:02.921875
2819,25.1,2022-08-17 14:44:02.937500
2820,26.16,2022-08-17 14:44:02.953125
2821,27.09,2022-08-17 14:44:02.968750
2822,27.75,2022-08-17 14:44:02.984375
2823,28.08,2022-08-17 14:44:03.000000
2824,28.1,2022-08-17 14:44:03.015625
2825,27.78,2022-08-17 14:44:03.031250
2826,27.11,2022-08-17 14:44:03.046875
2827,26.11,2022-08-17 14:44:03.062500
2828,24.86,2022-08-17 14:44:03.078125
2829,23.46,2022-08-17 14:44:03.093750
2830,22.0,2022-08-17 14:44:03.109375
2831,20.51,2022-08-17 14:44:03.125000
2832,18.91,2022-08-17 14:44:03.140625
2833,17.17,2022-08-17 14:44:03.156250
2834,15.26,2022-08-17 14:44:03.171875
2835,13.28,2022-08-17 14:44:03.187500
2836,11.35,2022-08-17 14:44:03.203125
2837,9.55,2022-08-17 14:44:03.218750
2838,7.86,2022-08-17 14:44:03.234375
2839,6.15,2022-08-17 14:44:03.250000
2840,4.29,2022-08-17 14:44:03.265625
2841,2.2,2022-08-17 14:44:03.281250
2842,-0.06,2022-08-17 14:44:03.296875
2843,-2.35,2022-08-17 14:44:03.312500
2844,-4.47,2022-08-17 14:44:03.328125
2845,-6.32,2022-08-17 14:44:03.343750
2846,-7.93,2022-08-17 14:44:03.359375
2847,-9.49,2022-08-17 14:44:03.375000
2848,-11.24,2022-08-17 14:44:03.390625
2849,-13.39,2022-08-17 14:44:03.406250
2850,-16.01,2022-08-17 14:44:03.421875
2851,-18.96,2022-08-17 14:44:03.437500
2852,-22.01,2022-08-17 14:44:03.453125
2853,-24.89,2022-08-17 14:44:03.468750
2854,-27.47,2022-08-17 14:44:03.484375
2855,-29.77,2022-08-17 14:44:03.500000
2856,-31.97,2022-08-17 14:44:03.515625
2857,-34.33,2022-08-17 14:44:03.531250
2858,-37.08,2022-08-17 14:44:03.546875
2859,-40.44,2022-08-17 14:44:03.562500
2860,-44.4,2022-08-17 14:44:03.578125
2861,-48.71,2022-08-17 14:44:03.593750
2862,-52.72,2022-08-17 14:44:03.609375
2863,-55.45,2022-08-17 14:44:03.625000
2864,-55.77,2022-08-17 14:44:03.640625
2865,-52.89,2022-08-17 14:44:03.656250
2866,-46.63,2022-08-17 14:44:03.671875
2867,-37.67,2022-08-17 14:44:03.687500
2868,-27.27,2022-08-17 14:44:03.703125
2869,-16.9,2022-08-17 14:44:03.718750
2870,-7.68,2022-08-17 14:44:03.734375
2871,-0.12,2022-08-17 14:44:03.750000
2872,5.88,2022-08-17 14:44:03.765625
2873,10.7,2022-08-17 14:44:03.781250
2874,14.64,2022-08-17 14:44:03.796875
2875,17.74,2022-08-17 14:44:03.812500
2876,19.84,2022-08-17 14:44:03.828125
2877,20.79,2022-08-17 14:44:03.843750
2878,20.65,2022-08-17 14:44:03.859375
2879,19.77,2022-08-17 14:44:03.875000
2880,18.64,2022-08-17 14:44:03.890625
2881,17.72,2022-08-17 14:44:03.906250
2882,17.29,2022-08-17 14:44:03.921875
2883,17.36,2022-08-17 14:44:03.937500
2884,17.77,2022-08-17 14:44:03.953125
2885,18.29,2022-08-17 14:44:03.968750
2886,18.77,2022-08-17 14:44:03.984375
2887,19.23,2022-08-17 14:44:04.000000
2888,19.74,2022-08-17 14:44:04.015625
2889,20.37,2022-08-17 14:44:04.031250
2890,21.17,2022-08-17 14:44:04.046875
2891,22.08,2022-08-17 14:44:04.062500
2892,22.91,2022-08-17 14:44:04.078125
2893,23.49,2022-08-17 14:44:04.093750
2894,23.66,2022-08-17 14:44:04.109375
2895,23.33,2022-08-17 14:44:04.125000
2896,22.54,2022-08-17 14:44:04.140625
2897,21.39,2022-08-17 14:44:04.156250
2898,20.04,2022-08-17 14:44:04.171875
2899,18.62,2022-08-17 14:44:04.187500
2900,17.16,2022-08-17 14:44:04.203125
2901,15.68,2022-08-17 14:44:04.218750
2902,14.11,2022-08-17 14:44:04.234375
2903,12.39,2022-08-17 14:44:04.250000
2904,10.44,2022-08-17 14:44:04.265625
2905,8.24,2022-08-17 14:44:04.281250
2906,5.82,2022-08-17 14:44:04.296875
2907,3.32,2022-08-17 14:44:04.312500
2908,0.93,2022-08-17 14:44:04.328125
2909,-1.15,2022-08-17 14:44:04.343750
2910,-2.83,2022-08-17 14:44:04.359375
2911,-4.2,2022-08-17 14:44:04.375000
2912,-5.54,2022-08-17 14:44:04.390625
2913,-7.23,2022-08-17 14:44:04.406250
2914,-9.57,2022-08-17 14:44:04.421875
2915,-12.61,2022-08-17 14:44:04.437500
2916,-16.1,2022-08-17 14:44:04.453125
2917,-19.6,2022-08-17 14:44:04.468750
2918,-22.69,2022-08-17 14:44:04.484375
2919,-25.16,2022-08-17 14:44:04.500000
2920,-27.11,2022-08-17 14:44:04.515625
2921,-28.86,2022-08-17 14:44:04.531250
2922,-30.86,2022-08-17 14:44:04.546875
2923,-33.49,2022-08-17 14:44:04.562500
2924,-36.99,2022-08-17 14:44:04.578125
2925,-41.45,2022-08-17 14:44:04.593750
2926,-46.71,2022-08-17 14:44:04.609375
2927,-52.35,2022-08-17 14:44:04.625000
2928,-57.54,2022-08-17 14:44:04.640625
2929,-61.2,2022-08-17 14:44:04.656250
2930,-62.15,2022-08-17 14:44:04.671875
2931,-59.57,2022-08-17 14:44:04.687500
2932,-53.32,2022-08-17 14:44:04.703125
2933,-44.08,2022-08-17 14:44:04.718750
2934,-33.13,2022-08-17 14:44:04.734375
2935,-21.93,2022-08-17 14:44:04.750000
2936,-11.63,2022-08-17 14:44:04.765625
2937,-2.85,2022-08-17 14:44:04.781250
2938,4.36,2022-08-17 14:44:04.796875
2939,10.23,2022-08-17 14:44:04.812500
2940,14.99,2022-08-17 14:44:04.828125
2941,18.71,2022-08-17 14:44:04.843750
2942,21.31,2022-08-17 14:44:04.859375
2943,22.77,2022-08-17 14:44:04.875000
2944,23.21,2022-08-17 14:44:04.890625
2945,22.94,2022-08-17 14:44:04.906250
2946,22.33,2022-08-17 14:44:04.921875
2947,21.66,2022-08-17 14:44:04.937500
2948,21.08,2022-08-17 14:44:04.953125
2949,20.61,2022-08-17 14:44:04.968750
2950,20.28,2022-08-17 14:44:04.984375
2951,20.1,2022-08-17 14:44:05.000000
2952,20.24,2022-08-17 14:44:05.015625
2953,20.79,2022-08-17 14:44:05.031250
2954,21.78,2022-08-17 14:44:05.046875
2955,23.1,2022-08-17 14:44:05.062500
2956,24.56,2022-08-17 14:44:05.078125
2957,25.86,2022-08-17 14:44:05.093750
2958,26.76,2022-08-17 14:44:05.109375
2959,27.08,2022-08-17 14:44:05.125000
2960,26.73,2022-08-17 14:44:05.140625
2961,25.77,2022-08-17 14:44:05.156250
2962,24.3,2022-08-17 14:44:05.171875
2963,22.52,2022-08-17 14:44:05.187500
2964,20.63,2022-08-17 14:44:05.203125
2965,18.77,2022-08-17 14:44:05.218750
2966,17.0,2022-08-17 14:44:05.234375
2967,15.27,2022-08-17 14:44:05.250000
2968,13.46,2022-08-17 14:44:05.265625
2969,11.4,2022-08-17 14:44:05.281250
2970,8.99,2022-08-17 14:44:05.296875
2971,6.16,2022-08-17 14:44:05.312500
2972,3.02,2022-08-17 14:44:05.328125
2973,-0.22,2022-08-17 14:44:05.343750
2974,-3.26,2022-08-17 14:44:05.359375
2975,-5.84,2022-08-17 14:44:05.375000
2976,-7.87,2022-08-17 14:44:05.390625
2977,-9.55,2022-08-17 14:44:05.406250
2978,-11.3,2022-08-17 14:44:05.421875
2979,-13.55,2022-08-17 14:44:05.437500
2980,-16.55,2022-08-17 14:44:05.453125
2981,-20.27,2022-08-17 14:44:05.468750
2982,-24.36,2022-08-17 14:44:05.484375
2983,-28.39,2022-08-17 14:44:05.500000
2984,-32.08,2022-08-17 14:44:05.515625
2985,-35.34,2022-08-17 14:44:05.531250
2986,-38.34,2022-08-17 14:44:05.546875
2987,-41.34,2022-08-17 14:44:05.562500
2988,-44.59,2022-08-17 14:44:05.578125
2989,-48.29,2022-08-17 14:44:05.593750
2990,-52.63,2022-08-17 14:44:05.609375
2991,-57.73,2022-08-17 14:44:05.625000
2992,-63.49,2022-08-17 14:44:05.640625
2993,-69.44,2022-08-17 14:44:05.656250
2994,-74.55,2022-08-17 14:44:05.671875
2995,-77.46,2022-08-17 14:44:05.687500
2996,-76.87,2022-08-17 14:44:05.703125
2997,-72.06,2022-08-17 14:44:05.718750
2998,-63.26,2022-08-17 14:44:05.734375
2999,-51.62,2022-08-17 14:44:05.750000
3000,-38.77,2022-08-17 14:44:05.765625
3001,-26.23,2022-08-17 14:44:05.781250
3002,-14.98,2022-08-17 14:44:05.796875
3003,-5.26,2022-08-17 14:44:05.812500
3004,3.17,2022-08-17 14:44:05.828125
3005,10.63,2022-08-17 14:44:05.843750
3006,17.34,2022-08-17 14:44:05.859375
3007,23.22,2022-08-17 14:44:05.875000
3008,28.07,2022-08-17 14:44:05.890625
3009,31.71,2022-08-17 14:44:05.906250
3010,34.13,2022-08-17 14:44:05.921875
3011,35.46,2022-08-17 14:44:05.937500
3012,35.97,2022-08-17 14:44:05.953125
3013,35.94,2022-08-17 14:44:05.968750
3014,35.61,2022-08-17 14:44:05.984375
3015,35.16,2022-08-17 14:44:06.000000
3016,34.72,2022-08-17 14:44:06.015625
3017,34.39,2022-08-17 14:44:06.031250
3018,34.24,2022-08-17 14:44:06.046875
3019,34.36,2022-08-17 14:44:06.062500
3020,34.8,2022-08-17 14:44:06.078125
3021,35.56,2022-08-17 14:44:06.093750
3022,36.56,2022-08-17 14:44:06.109375
3023,37.59,2022-08-17 14:44:06.125000
3024,38.38,2022-08-17 14:44:06.140625
3025,38.67,2022-08-17 14:44:06.156250
3026,38.31,2022-08-17 14:44:06.171875
3027,37.3,2022-08-17 14:44:06.187500
3028,35.77,2022-08-17 14:44:06.203125
3029,33.91,2022-08-17 14:44:06.218750
3030,31.86,2022-08-17 14:44:06.234375
3031,29.66,2022-08-17 14:44:06.250000
3032,27.3,2022-08-17 14:44:06.265625
3033,24.74,2022-08-17 14:44:06.281250
3034,22.04,2022-08-17 14:44:06.296875
3035,19.26,2022-08-17 14:44:06.312500
3036,16.54,2022-08-17 14:44:06.328125
3037,13.91,2022-08-17 14:44:06.343750
3038,11.35,2022-08-17 14:44:06.359375
3039,8.78,2022-08-17 14:44:06.375000
3040,6.11,2022-08-17 14:44:06.390625
3041,3.33,2022-08-17 14:44:06.406250
3042,0.5,2022-08-17 14:44:06.421875
3043,-2.32,2022-08-17 14:44:06.437500
3044,-5.13,2022-08-17 14:44:06.453125
3045,-8.09,2022-08-17 14:44:06.468750
3046,-11.41,2022-08-17 14:44:06.484375
3047,-15.24,2022-08-17 14:44:06.500000
3048,-19.6,2022-08-17 14:44:06.515625
3049,-24.32,2022-08-17 14:44:06.531250
3050,-29.06,2022-08-17 14:44:06.546875
3051,-33.53,2022-08-17 14:44:06.562500
3052,-37.51,2022-08-17 14:44:06.578125
3053,-41.02,2022-08-17 14:44:06.593750
3054,-44.26,2022-08-17 14:44:06.609375
3055,-47.56,2022-08-17 14:44:06.625000
3056,-51.34,2022-08-17 14:44:06.640625
3057,-55.97,2022-08-17 14:44:06.656250
3058,-61.74,2022-08-17 14:44:06.671875
3059,-68.56,2022-08-17 14:44:06.687500
3060,-75.95,2022-08-17 14:44:06.703125
3061,-82.82,2022-08-17 14:44:06.718750
3062,-87.67,2022-08-17 14:44:06.734375
3063,-89.03,2022-08-17 14:44:06.750000
3064,-85.91,2022-08-17 14:44:06.765625
3065,-78.18,2022-08-17 14:44:06.781250
3066,-66.68,2022-08-17 14:44:06.796875
3067,-52.91,2022-08-17 14:44:06.812500
3068,-38.49,2022-08-17 14:44:06.828125
3069,-24.71,2022-08-17 14:44:06.843750
3070,-12.24,2022-08-17 14:44:06.859375
3071,-1.18,2022-08-17 14:44:06.875000
3072,8.65,2022-08-17 14:44:06.890625
3073,17.42,2022-08-17 14:44:06.906250
3074,25.14,2022-08-17 14:44:06.921875
3075,31.67,2022-08-17 14:44:06.937500
3076,36.83,2022-08-17 14:44:06.953125
3077,40.6,2022-08-17 14:44:06.968750
3078,43.08,2022-08-17 14:44:06.984375
3079,44.57,2022-08-17 14:44:07.000000
3080,45.35,2022-08-17 14:44:07.015625
3081,45.59,2022-08-17 14:44:07.031250
3082,45.4,2022-08-17 14:44:07.046875
3083,44.82,2022-08-17 14:44:07.062500
3084,43.95,2022-08-17 14:44:07.078125
3085,43.06,2022-08-17 14:44:07.093750
3086,42.46,2022-08-17 14:44:07.109375
3087,42.45,2022-08-17 14:44:07.125000
3088,43.11,2022-08-17 14:44:07.140625
3089,44.33,2022-08-17 14:44:07.156250
3090,45.72,2022-08-17 14:44:07.171875
3091,46.87,2022-08-17 14:44:07.187500
3092,47.45,2022-08-17 14:44:07.203125
3093,47.33,2022-08-17 14:44:07.218750
3094,46.61,2022-08-17 14:44:07.234375
3095,45.45,2022-08-17 14:44:07.250000
3096,44.04,2022-08-17 14:44:07.265625
3097,42.43,2022-08-17 14:44:07.281250
3098,40.59,2022-08-17 14:44:07.296875
3099,38.38,2022-08-17 14:44:07.312500
3100,35.75,2022-08-17 14:44:07.328125
3101,32.71,2022-08-17 14:44:07.343750
3102,29.43,2022-08-17 14:44:07.359375
3103,26.11,2022-08-17 14:44:07.375000
3104,22.92,2022-08-17 14:44:07.390625
3105,19.94,2022-08-17 14:44:07.406250
3106,17.12,2022-08-17 14:44:07.421875
3107,14.4,2022-08-17 14:44:07.437500
3108,11.71,2022-08-17 14:44:07.453125
3109,8.99,2022-08-17 14:44:07.468750
3110,6.26,2022-08-17 14:44:07.484375
3111,3.47,2022-08-17 14:44:07.500000
3112,0.6,2022-08-17 14:44:07.515625
3113,-2.41,2022-08-17 14:44:07.531250
3114,-5.59,2022-08-17 14:44:07.546875
3115,-8.96,2022-08-17 14:44:07.562500
3116,-12.49,2022-08-17 14:44:07.578125
3117,-16.15,2022-08-17 14:44:07.593750
3118,-19.92,2022-08-17 14:44:07.609375
3119,-23.8,2022-08-17 14:44:07.625000
3120,-27.78,2022-08-17 14:44:07.640625
3121,-31.84,2022-08-17 14:44:07.656250
3122,-35.9,2022-08-17 14:44:07.671875
3123,-39.93,2022-08-17 14:44:07.687500
3124,-43.92,2022-08-17 14:44:07.703125
3125,-47.92,2022-08-17 14:44:07.718750
3126,-52.12,2022-08-17 14:44:07.734375
3127,-56.73,2022-08-17 14:44:07.750000
3128,-62.02,2022-08-17 14:44:07.765625
3129,-68.02,2022-08-17 14:44:07.781250
3130,-74.35,2022-08-17 14:44:07.796875
3131,-80.09,2022-08-17 14:44:07.812500
3132,-83.85,2022-08-17 14:44:07.828125
3133,-84.18,2022-08-17 14:44:07.843750
3134,-80.12,2022-08-17 14:44:07.859375
3135,-71.62,2022-08-17 14:44:07.875000
3136,-59.63,2022-08-17 14:44:07.890625
3137,-45.74,2022-08-17 14:44:07.906250
3138,-31.62,2022-08-17 14:44:07.921875
3139,-18.48,2022-08-17 14:44:07.937500
3140,-6.8,2022-08-17 14:44:07.953125
3141,3.46,2022-08-17 14:44:07.968750
3142,12.62,2022-08-17 14:44:07.984375
3143,20.85,2022-08-17 14:44:08.000000
3144,28.08,2022-08-17 14:44:08.015625
3145,34.03,2022-08-17 14:44:08.031250
3146,38.47,2022-08-17 14:44:08.046875
3147,41.29,2022-08-17 14:44:08.062500
3148,42.65,2022-08-17 14:44:08.078125
3149,42.87,2022-08-17 14:44:08.093750
3150,42.4,2022-08-17 14:44:08.109375
3151,41.7,2022-08-17 14:44:08.125000
3152,41.09,2022-08-17 14:44:08.140625
3153,40.77,2022-08-17 14:44:08.156250
3154,40.78,2022-08-17 14:44:08.171875
3155,41.11,2022-08-17 14:44:08.187500
3156,41.76,2022-08-17 14:44:08.203125
3157,42.76,2022-08-17 14:44:08.218750
3158,44.08,2022-08-17 14:44:08.234375
3159,45.63,2022-08-17 14:44:08.250000
3160,47.1,2022-08-17 14:44:08.265625
