,BVP,time
0,-15.5,2022-10-26 15:47:57.843750
1,-18.46,2022-10-26 15:47:57.859375
2,-21.57,2022-10-26 15:47:57.875000
3,-24.43,2022-10-26 15:47:57.890625
4,-26.96,2022-10-26 15:47:57.906250
5,-29.28,2022-10-26 15:47:57.921875
6,-31.6,2022-10-26 15:47:57.937500
7,-34.08,2022-10-26 15:47:57.953125
8,-36.63,2022-10-26 15:47:57.968750
9,-38.99,2022-10-26 15:47:57.984375
10,-40.81,2022-10-26 15:47:58.000000
11,-41.75,2022-10-26 15:47:58.015625
12,-41.56,2022-10-26 15:47:58.031250
13,-40.11,2022-10-26 15:47:58.046875
14,-37.37,2022-10-26 15:47:58.062500
15,-33.44,2022-10-26 15:47:58.078125
16,-28.68,2022-10-26 15:47:58.093750
17,-23.66,2022-10-26 15:47:58.109375
18,-19.08,2022-10-26 15:47:58.125000
19,-15.53,2022-10-26 15:47:58.140625
20,-13.23,2022-10-26 15:47:58.156250
21,-11.87,2022-10-26 15:47:58.171875
22,-10.78,2022-10-26 15:47:58.187500
23,-9.17,2022-10-26 15:47:58.203125
24,-6.51,2022-10-26 15:47:58.218750
25,-2.76,2022-10-26 15:47:58.234375
26,1.78,2022-10-26 15:47:58.250000
27,6.73,2022-10-26 15:47:58.265625
28,11.86,2022-10-26 15:47:58.281250
29,17.17,2022-10-26 15:47:58.296875
30,22.74,2022-10-26 15:47:58.312500
31,28.41,2022-10-26 15:47:58.328125
32,33.65,2022-10-26 15:47:58.343750
33,37.61,2022-10-26 15:47:58.359375
34,39.4,2022-10-26 15:47:58.375000
35,38.4,2022-10-26 15:47:58.390625
36,34.45,2022-10-26 15:47:58.406250
37,28.02,2022-10-26 15:47:58.421875
38,19.97,2022-10-26 15:47:58.437500
39,11.5,2022-10-26 15:47:58.453125
40,3.75,2022-10-26 15:47:58.468750
41,-2.35,2022-10-26 15:47:58.484375
42,-6.31,2022-10-26 15:47:58.500000
43,-8.1,2022-10-26 15:47:58.515625
44,-8.12,2022-10-26 15:47:58.531250
45,-6.87,2022-10-26 15:47:58.546875
46,-4.77,2022-10-26 15:47:58.562500
47,-2.06,2022-10-26 15:47:58.578125
48,1.14,2022-10-26 15:47:58.593750
49,4.57,2022-10-26 15:47:58.609375
50,7.84,2022-10-26 15:47:58.625000
51,10.43,2022-10-26 15:47:58.640625
52,12.02,2022-10-26 15:47:58.656250
53,12.78,2022-10-26 15:47:58.671875
54,13.18,2022-10-26 15:47:58.687500
55,13.69,2022-10-26 15:47:58.703125
56,14.19,2022-10-26 15:47:58.718750
57,13.73,2022-10-26 15:47:58.734375
58,10.82,2022-10-26 15:47:58.750000
59,4.25,2022-10-26 15:47:58.765625
60,-6.03,2022-10-26 15:47:58.781250
61,-18.39,2022-10-26 15:47:58.796875
62,-29.92,2022-10-26 15:47:58.812500
63,-37.53,2022-10-26 15:47:58.828125
64,-39.38,2022-10-26 15:47:58.843750
65,-35.79,2022-10-26 15:47:58.859375
66,-29.33,2022-10-26 15:47:58.875000
67,-23.82,2022-10-26 15:47:58.890625
68,-22.78,2022-10-26 15:47:58.906250
69,-27.9,2022-10-26 15:47:58.921875
70,-38.15,2022-10-26 15:47:58.937500
71,-50.17,2022-10-26 15:47:58.953125
72,-59.55,2022-10-26 15:47:58.968750
73,-62.68,2022-10-26 15:47:58.984375
74,-58.23,2022-10-26 15:47:59.000000
75,-47.65,2022-10-26 15:47:59.015625
76,-34.54,2022-10-26 15:47:59.031250
77,-23.03,2022-10-26 15:47:59.046875
78,-16.28,2022-10-26 15:47:59.062500
79,-15.54,2022-10-26 15:47:59.078125
80,-20.12,2022-10-26 15:47:59.093750
81,-27.97,2022-10-26 15:47:59.109375
82,-36.08,2022-10-26 15:47:59.125000
83,-40.58,2022-10-26 15:47:59.140625
84,-37.02,2022-10-26 15:47:59.156250
85,-21.41,2022-10-26 15:47:59.171875
86,7.93,2022-10-26 15:47:59.187500
87,48.15,2022-10-26 15:47:59.203125
88,91.5,2022-10-26 15:47:59.218750
89,127.58,2022-10-26 15:47:59.234375
90,147.86,2022-10-26 15:47:59.250000
91,150.03,2022-10-26 15:47:59.265625
92,139.58,2022-10-26 15:47:59.281250
93,127.19,2022-10-26 15:47:59.296875
94,123.0,2022-10-26 15:47:59.312500
95,131.36,2022-10-26 15:47:59.328125
96,149.07,2022-10-26 15:47:59.343750
97,168.37,2022-10-26 15:47:59.359375
98,182.41,2022-10-26 15:47:59.375000
99,189.22,2022-10-26 15:47:59.390625
100,191.66,2022-10-26 15:47:59.406250
101,193.51,2022-10-26 15:47:59.421875
102,194.89,2022-10-26 15:47:59.437500
103,190.75,2022-10-26 15:47:59.453125
104,173.54,2022-10-26 15:47:59.468750
105,138.45,2022-10-26 15:47:59.484375
106,87.51,2022-10-26 15:47:59.500000
107,29.72,2022-10-26 15:47:59.515625
108,-22.95,2022-10-26 15:47:59.531250
109,-61.17,2022-10-26 15:47:59.546875
110,-82.04,2022-10-26 15:47:59.562500
111,-89.09,2022-10-26 15:47:59.578125
112,-89.09,2022-10-26 15:47:59.593750
113,-87.88,2022-10-26 15:47:59.609375
114,-87.88,2022-10-26 15:47:59.625000
115,-88.16,2022-10-26 15:47:59.640625
116,-86.56,2022-10-26 15:47:59.656250
117,-81.93,2022-10-26 15:47:59.671875
118,-74.99,2022-10-26 15:47:59.687500
119,-67.9,2022-10-26 15:47:59.703125
120,-62.87,2022-10-26 15:47:59.718750
121,-61.0,2022-10-26 15:47:59.734375
122,-61.85,2022-10-26 15:47:59.750000
123,-63.95,2022-10-26 15:47:59.765625
124,-65.54,2022-10-26 15:47:59.781250
125,-65.37,2022-10-26 15:47:59.796875
126,-63.02,2022-10-26 15:47:59.812500
127,-58.65,2022-10-26 15:47:59.828125
128,-52.8,2022-10-26 15:47:59.843750
129,-45.9,2022-10-26 15:47:59.859375
130,-38.14,2022-10-26 15:47:59.875000
131,-29.35,2022-10-26 15:47:59.890625
132,-19.16,2022-10-26 15:47:59.906250
133,-7.2,2022-10-26 15:47:59.921875
134,6.53,2022-10-26 15:47:59.937500
135,21.41,2022-10-26 15:47:59.953125
136,36.18,2022-10-26 15:47:59.968750
137,49.17,2022-10-26 15:47:59.984375
138,58.83,2022-10-26 15:48:00.000000
139,64.26,2022-10-26 15:48:00.015625
140,65.39,2022-10-26 15:48:00.031250
141,62.95,2022-10-26 15:48:00.046875
142,58.01,2022-10-26 15:48:00.062500
143,51.53,2022-10-26 15:48:00.078125
144,44.16,2022-10-26 15:48:00.093750
145,36.25,2022-10-26 15:48:00.109375
146,28.04,2022-10-26 15:48:00.125000
147,19.78,2022-10-26 15:48:00.140625
148,11.76,2022-10-26 15:48:00.156250
149,4.25,2022-10-26 15:48:00.171875
150,-2.61,2022-10-26 15:48:00.187500
151,-8.74,2022-10-26 15:48:00.203125
152,-14.11,2022-10-26 15:48:00.218750
153,-18.6,2022-10-26 15:48:00.234375
154,-22.1,2022-10-26 15:48:00.250000
155,-24.54,2022-10-26 15:48:00.265625
156,-25.95,2022-10-26 15:48:00.281250
157,-26.52,2022-10-26 15:48:00.296875
158,-26.5,2022-10-26 15:48:00.312500
159,-26.08,2022-10-26 15:48:00.328125
160,-25.41,2022-10-26 15:48:00.343750
161,-24.54,2022-10-26 15:48:00.359375
162,-23.48,2022-10-26 15:48:00.375000
163,-22.23,2022-10-26 15:48:00.390625
164,-20.82,2022-10-26 15:48:00.406250
165,-19.35,2022-10-26 15:48:00.421875
166,-17.91,2022-10-26 15:48:00.437500
167,-16.6,2022-10-26 15:48:00.453125
168,-15.48,2022-10-26 15:48:00.468750
169,-14.78,2022-10-26 15:48:00.484375
170,-14.56,2022-10-26 15:48:00.500000
171,-14.71,2022-10-26 15:48:00.515625
172,-15.02,2022-10-26 15:48:00.531250
173,-15.3,2022-10-26 15:48:00.546875
174,-15.46,2022-10-26 15:48:00.562500
175,-15.43,2022-10-26 15:48:00.578125
176,-15.15,2022-10-26 15:48:00.593750
177,-14.58,2022-10-26 15:48:00.609375
178,-13.92,2022-10-26 15:48:00.625000
179,-13.27,2022-10-26 15:48:00.640625
180,-12.66,2022-10-26 15:48:00.656250
181,-11.99,2022-10-26 15:48:00.671875
182,-11.26,2022-10-26 15:48:00.687500
183,-10.52,2022-10-26 15:48:00.703125
184,-9.81,2022-10-26 15:48:00.718750
185,-9.16,2022-10-26 15:48:00.734375
186,-8.6,2022-10-26 15:48:00.750000
187,-8.57,2022-10-26 15:48:00.765625
188,-9.28,2022-10-26 15:48:00.781250
189,-10.56,2022-10-26 15:48:00.796875
190,-12.08,2022-10-26 15:48:00.812500
191,-13.68,2022-10-26 15:48:00.828125
192,-15.31,2022-10-26 15:48:00.843750
193,-16.86,2022-10-26 15:48:00.859375
194,-18.06,2022-10-26 15:48:00.875000
195,-18.52,2022-10-26 15:48:00.890625
196,-18.9,2022-10-26 15:48:00.906250
197,-19.3,2022-10-26 15:48:00.921875
198,-18.97,2022-10-26 15:48:00.937500
199,-17.0,2022-10-26 15:48:00.953125
200,-13.27,2022-10-26 15:48:00.968750
201,-8.53,2022-10-26 15:48:00.984375
202,-3.86,2022-10-26 15:48:01.000000
203,-0.17,2022-10-26 15:48:01.015625
204,2.06,2022-10-26 15:48:01.031250
205,0.65,2022-10-26 15:48:01.046875
206,-4.62,2022-10-26 15:48:01.062500
207,-11.39,2022-10-26 15:48:01.078125
208,-16.49,2022-10-26 15:48:01.093750
209,-18.35,2022-10-26 15:48:01.109375
210,-17.67,2022-10-26 15:48:01.125000
211,-16.99,2022-10-26 15:48:01.140625
212,-19.79,2022-10-26 15:48:01.156250
213,-29.64,2022-10-26 15:48:01.171875
214,-52.84,2022-10-26 15:48:01.187500
215,-91.51,2022-10-26 15:48:01.203125
216,-141.62,2022-10-26 15:48:01.218750
217,-195.24,2022-10-26 15:48:01.234375
218,-244.57,2022-10-26 15:48:01.250000
219,-283.73,2022-10-26 15:48:01.265625
220,-309.12,2022-10-26 15:48:01.281250
221,-319.46,2022-10-26 15:48:01.296875
222,-315.74,2022-10-26 15:48:01.312500
223,-305.51,2022-10-26 15:48:01.328125
224,-294.38,2022-10-26 15:48:01.343750
225,-283.43,2022-10-26 15:48:01.359375
226,-271.29,2022-10-26 15:48:01.375000
227,-257.76,2022-10-26 15:48:01.390625
228,-244.0,2022-10-26 15:48:01.406250
229,-231.14,2022-10-26 15:48:01.421875
230,-219.07,2022-10-26 15:48:01.437500
231,-177.0,2022-10-26 15:48:01.453125
232,-97.99,2022-10-26 15:48:01.468750
233,-2.44,2022-10-26 15:48:01.484375
234,81.63,2022-10-26 15:48:01.500000
235,141.02,2022-10-26 15:48:01.515625
236,176.68,2022-10-26 15:48:01.531250
237,194.76,2022-10-26 15:48:01.546875
238,201.21,2022-10-26 15:48:01.562500
239,200.56,2022-10-26 15:48:01.578125
240,195.73,2022-10-26 15:48:01.593750
241,183.76,2022-10-26 15:48:01.609375
242,164.21,2022-10-26 15:48:01.625000
243,141.16,2022-10-26 15:48:01.640625
244,120.76,2022-10-26 15:48:01.656250
245,106.64,2022-10-26 15:48:01.671875
246,100.03,2022-10-26 15:48:01.687500
247,98.76,2022-10-26 15:48:01.703125
248,99.97,2022-10-26 15:48:01.718750
249,100.75,2022-10-26 15:48:01.734375
250,94.95,2022-10-26 15:48:01.750000
251,79.69,2022-10-26 15:48:01.765625
252,57.06,2022-10-26 15:48:01.781250
253,32.41,2022-10-26 15:48:01.796875
254,10.16,2022-10-26 15:48:01.812500
255,-7.43,2022-10-26 15:48:01.828125
256,-20.16,2022-10-26 15:48:01.843750
257,-29.03,2022-10-26 15:48:01.859375
258,-35.73,2022-10-26 15:48:01.875000
259,-43.98,2022-10-26 15:48:01.890625
260,-54.77,2022-10-26 15:48:01.906250
261,-68.44,2022-10-26 15:48:01.921875
262,-82.01,2022-10-26 15:48:01.937500
263,-92.87,2022-10-26 15:48:01.953125
264,-99.67,2022-10-26 15:48:01.968750
265,-102.32,2022-10-26 15:48:01.984375
266,-101.47,2022-10-26 15:48:02.000000
267,-98.32,2022-10-26 15:48:02.015625
268,-95.45,2022-10-26 15:48:02.031250
269,-94.71,2022-10-26 15:48:02.046875
270,-96.46,2022-10-26 15:48:02.062500
271,-99.46,2022-10-26 15:48:02.078125
272,-102.42,2022-10-26 15:48:02.093750
273,-104.22,2022-10-26 15:48:02.109375
274,-104.06,2022-10-26 15:48:02.125000
275,-101.37,2022-10-26 15:48:02.140625
276,-95.89,2022-10-26 15:48:02.156250
277,-87.85,2022-10-26 15:48:02.171875
278,-77.08,2022-10-26 15:48:02.187500
279,-62.83,2022-10-26 15:48:02.203125
280,-43.96,2022-10-26 15:48:02.218750
281,-20.3,2022-10-26 15:48:02.234375
282,7.06,2022-10-26 15:48:02.250000
283,35.99,2022-10-26 15:48:02.265625
284,64.22,2022-10-26 15:48:02.281250
285,90.25,2022-10-26 15:48:02.296875
286,113.87,2022-10-26 15:48:02.312500
287,136.12,2022-10-26 15:48:02.328125
288,158.63,2022-10-26 15:48:02.343750
289,182.97,2022-10-26 15:48:02.359375
290,209.6,2022-10-26 15:48:02.375000
291,237.61,2022-10-26 15:48:02.390625
292,264.97,2022-10-26 15:48:02.406250
293,289.21,2022-10-26 15:48:02.421875
294,308.28,2022-10-26 15:48:02.437500
295,321.2,2022-10-26 15:48:02.453125
296,328.41,2022-10-26 15:48:02.468750
297,331.49,2022-10-26 15:48:02.484375
298,332.65,2022-10-26 15:48:02.500000
299,333.75,2022-10-26 15:48:02.515625
300,335.83,2022-10-26 15:48:02.531250
301,338.91,2022-10-26 15:48:02.546875
302,342.18,2022-10-26 15:48:02.562500
303,344.56,2022-10-26 15:48:02.578125
304,345.16,2022-10-26 15:48:02.593750
305,343.94,2022-10-26 15:48:02.609375
306,341.92,2022-10-26 15:48:02.625000
307,341.03,2022-10-26 15:48:02.640625
308,343.13,2022-10-26 15:48:02.656250
309,348.8,2022-10-26 15:48:02.671875
310,356.23,2022-10-26 15:48:02.687500
311,361.24,2022-10-26 15:48:02.703125
312,358.48,2022-10-26 15:48:02.718750
313,343.55,2022-10-26 15:48:02.734375
314,315.05,2022-10-26 15:48:02.750000
315,275.12,2022-10-26 15:48:02.765625
316,228.32,2022-10-26 15:48:02.781250
317,179.29,2022-10-26 15:48:02.796875
318,130.77,2022-10-26 15:48:02.812500
319,82.85,2022-10-26 15:48:02.828125
320,34.13,2022-10-26 15:48:02.843750
321,-16.47,2022-10-26 15:48:02.859375
322,-68.25,2022-10-26 15:48:02.875000
323,-118.65,2022-10-26 15:48:02.890625
324,-164.43,2022-10-26 15:48:02.906250
325,-203.3,2022-10-26 15:48:02.921875
326,-234.84,2022-10-26 15:48:02.937500
327,-260.32,2022-10-26 15:48:02.953125
328,-281.75,2022-10-26 15:48:02.968750
329,-300.67,2022-10-26 15:48:02.984375
330,-317.57,2022-10-26 15:48:03.000000
331,-331.98,2022-10-26 15:48:03.015625
332,-343.07,2022-10-26 15:48:03.031250
333,-350.49,2022-10-26 15:48:03.046875
334,-354.78,2022-10-26 15:48:03.062500
335,-357.31,2022-10-26 15:48:03.078125
336,-359.85,2022-10-26 15:48:03.093750
337,-363.98,2022-10-26 15:48:03.109375
338,-370.46,2022-10-26 15:48:03.125000
339,-378.95,2022-10-26 15:48:03.140625
340,-387.98,2022-10-26 15:48:03.156250
341,-395.24,2022-10-26 15:48:03.171875
342,-398.25,2022-10-26 15:48:03.187500
343,-395.12,2022-10-26 15:48:03.203125
344,-385.18,2022-10-26 15:48:03.218750
345,-369.33,2022-10-26 15:48:03.234375
346,-349.9,2022-10-26 15:48:03.250000
347,-330.05,2022-10-26 15:48:03.265625
348,-312.92,2022-10-26 15:48:03.281250
349,-300.85,2022-10-26 15:48:03.296875
350,-294.84,2022-10-26 15:48:03.312500
351,-294.36,2022-10-26 15:48:03.328125
352,-297.64,2022-10-26 15:48:03.343750
353,-302.07,2022-10-26 15:48:03.359375
354,-304.72,2022-10-26 15:48:03.375000
355,-302.89,2022-10-26 15:48:03.390625
356,-294.56,2022-10-26 15:48:03.406250
357,-278.66,2022-10-26 15:48:03.421875
358,-255.27,2022-10-26 15:48:03.437500
359,-225.49,2022-10-26 15:48:03.453125
360,-191.08,2022-10-26 15:48:03.468750
361,-154.0,2022-10-26 15:48:03.484375
362,-115.99,2022-10-26 15:48:03.500000
363,-78.52,2022-10-26 15:48:03.515625
364,-42.89,2022-10-26 15:48:03.531250
365,-10.49,2022-10-26 15:48:03.546875
366,17.27,2022-10-26 15:48:03.562500
367,39.19,2022-10-26 15:48:03.578125
368,54.79,2022-10-26 15:48:03.593750
369,64.74,2022-10-26 15:48:03.609375
370,70.78,2022-10-26 15:48:03.625000
371,75.34,2022-10-26 15:48:03.640625
372,80.75,2022-10-26 15:48:03.656250
373,88.58,2022-10-26 15:48:03.671875
374,99.4,2022-10-26 15:48:03.687500
375,113.02,2022-10-26 15:48:03.703125
376,128.95,2022-10-26 15:48:03.718750
377,146.9,2022-10-26 15:48:03.734375
378,166.83,2022-10-26 15:48:03.750000
379,188.63,2022-10-26 15:48:03.765625
380,211.57,2022-10-26 15:48:03.781250
381,233.99,2022-10-26 15:48:03.796875
382,253.44,2022-10-26 15:48:03.812500
383,267.41,2022-10-26 15:48:03.828125
384,274.15,2022-10-26 15:48:03.843750
385,273.4,2022-10-26 15:48:03.859375
386,266.46,2022-10-26 15:48:03.875000
387,255.59,2022-10-26 15:48:03.890625
388,243.09,2022-10-26 15:48:03.906250
389,230.43,2022-10-26 15:48:03.921875
390,218.02,2022-10-26 15:48:03.937500
391,205.42,2022-10-26 15:48:03.953125
392,192.03,2022-10-26 15:48:03.968750
393,177.67,2022-10-26 15:48:03.984375
394,162.75,2022-10-26 15:48:04.000000
395,148.06,2022-10-26 15:48:04.015625
396,134.29,2022-10-26 15:48:04.031250
397,121.63,2022-10-26 15:48:04.046875
398,109.74,2022-10-26 15:48:04.062500
399,97.94,2022-10-26 15:48:04.078125
400,85.51,2022-10-26 15:48:04.093750
401,72.05,2022-10-26 15:48:04.109375
402,57.62,2022-10-26 15:48:04.125000
403,42.7,2022-10-26 15:48:04.140625
404,28.21,2022-10-26 15:48:04.156250
405,15.39,2022-10-26 15:48:04.171875
406,5.62,2022-10-26 15:48:04.187500
407,0.16,2022-10-26 15:48:04.203125
408,-0.16,2022-10-26 15:48:04.218750
409,4.76,2022-10-26 15:48:04.234375
410,14.18,2022-10-26 15:48:04.250000
411,26.67,2022-10-26 15:48:04.265625
412,40.46,2022-10-26 15:48:04.281250
413,53.81,2022-10-26 15:48:04.296875
414,65.31,2022-10-26 15:48:04.312500
415,74.0,2022-10-26 15:48:04.328125
416,79.44,2022-10-26 15:48:04.343750
417,81.66,2022-10-26 15:48:04.359375
418,81.05,2022-10-26 15:48:04.375000
419,78.32,2022-10-26 15:48:04.390625
420,74.27,2022-10-26 15:48:04.406250
421,69.64,2022-10-26 15:48:04.421875
422,64.98,2022-10-26 15:48:04.437500
423,60.66,2022-10-26 15:48:04.453125
424,56.94,2022-10-26 15:48:04.468750
425,54.03,2022-10-26 15:48:04.484375
426,52.12,2022-10-26 15:48:04.500000
427,51.27,2022-10-26 15:48:04.515625
428,51.37,2022-10-26 15:48:04.531250
429,52.09,2022-10-26 15:48:04.546875
430,53.05,2022-10-26 15:48:04.562500
431,53.94,2022-10-26 15:48:04.578125
432,54.62,2022-10-26 15:48:04.593750
433,55.06,2022-10-26 15:48:04.609375
434,55.29,2022-10-26 15:48:04.625000
435,55.19,2022-10-26 15:48:04.640625
436,54.54,2022-10-26 15:48:04.656250
437,53.08,2022-10-26 15:48:04.671875
438,50.65,2022-10-26 15:48:04.687500
439,47.32,2022-10-26 15:48:04.703125
440,43.32,2022-10-26 15:48:04.718750
441,38.99,2022-10-26 15:48:04.734375
442,34.61,2022-10-26 15:48:04.750000
443,30.36,2022-10-26 15:48:04.765625
444,26.29,2022-10-26 15:48:04.781250
445,22.39,2022-10-26 15:48:04.796875
446,18.58,2022-10-26 15:48:04.812500
447,14.79,2022-10-26 15:48:04.828125
448,10.92,2022-10-26 15:48:04.843750
449,6.9,2022-10-26 15:48:04.859375
450,2.77,2022-10-26 15:48:04.875000
451,-1.34,2022-10-26 15:48:04.890625
452,-5.18,2022-10-26 15:48:04.906250
453,-8.47,2022-10-26 15:48:04.921875
454,-11.07,2022-10-26 15:48:04.937500
455,-13.1,2022-10-26 15:48:04.953125
456,-14.95,2022-10-26 15:48:04.968750
457,-17.18,2022-10-26 15:48:04.984375
458,-20.31,2022-10-26 15:48:05.000000
459,-24.53,2022-10-26 15:48:05.015625
460,-29.54,2022-10-26 15:48:05.031250
461,-34.56,2022-10-26 15:48:05.046875
462,-38.48,2022-10-26 15:48:05.062500
463,-40.11,2022-10-26 15:48:05.078125
464,-38.44,2022-10-26 15:48:05.093750
465,-32.88,2022-10-26 15:48:05.109375
466,-23.45,2022-10-26 15:48:05.125000
467,-10.78,2022-10-26 15:48:05.140625
468,3.91,2022-10-26 15:48:05.156250
469,19.11,2022-10-26 15:48:05.171875
470,33.25,2022-10-26 15:48:05.187500
471,45.05,2022-10-26 15:48:05.203125
472,53.69,2022-10-26 15:48:05.218750
473,58.9,2022-10-26 15:48:05.234375
474,60.85,2022-10-26 15:48:05.250000
475,59.98,2022-10-26 15:48:05.265625
476,56.94,2022-10-26 15:48:05.281250
477,52.44,2022-10-26 15:48:05.296875
478,47.28,2022-10-26 15:48:05.312500
479,42.27,2022-10-26 15:48:05.328125
480,38.11,2022-10-26 15:48:05.343750
481,35.29,2022-10-26 15:48:05.359375
482,33.95,2022-10-26 15:48:05.375000
483,33.92,2022-10-26 15:48:05.390625
484,34.77,2022-10-26 15:48:05.406250
485,36.01,2022-10-26 15:48:05.421875
486,37.19,2022-10-26 15:48:05.437500
487,38.01,2022-10-26 15:48:05.453125
488,38.37,2022-10-26 15:48:05.468750
489,38.28,2022-10-26 15:48:05.484375
490,37.84,2022-10-26 15:48:05.500000
491,37.08,2022-10-26 15:48:05.515625
492,35.97,2022-10-26 15:48:05.531250
493,34.4,2022-10-26 15:48:05.546875
494,32.25,2022-10-26 15:48:05.562500
495,29.45,2022-10-26 15:48:05.578125
496,26.07,2022-10-26 15:48:05.593750
497,22.33,2022-10-26 15:48:05.609375
498,18.59,2022-10-26 15:48:05.625000
499,15.24,2022-10-26 15:48:05.640625
500,12.53,2022-10-26 15:48:05.656250
501,10.53,2022-10-26 15:48:05.671875
502,9.05,2022-10-26 15:48:05.687500
503,7.84,2022-10-26 15:48:05.703125
504,6.59,2022-10-26 15:48:05.718750
505,5.15,2022-10-26 15:48:05.734375
506,3.56,2022-10-26 15:48:05.750000
507,2.07,2022-10-26 15:48:05.765625
508,1.01,2022-10-26 15:48:05.781250
509,0.62,2022-10-26 15:48:05.796875
510,0.96,2022-10-26 15:48:05.812500
511,1.96,2022-10-26 15:48:05.828125
512,3.46,2022-10-26 15:48:05.843750
513,5.2,2022-10-26 15:48:05.859375
514,6.83,2022-10-26 15:48:05.875000
515,8.09,2022-10-26 15:48:05.890625
516,8.87,2022-10-26 15:48:05.906250
517,9.4,2022-10-26 15:48:05.921875
518,10.3,2022-10-26 15:48:05.937500
519,12.6,2022-10-26 15:48:05.953125
520,17.53,2022-10-26 15:48:05.968750
521,26.3,2022-10-26 15:48:05.984375
522,39.46,2022-10-26 15:48:06.000000
523,56.7,2022-10-26 15:48:06.015625
524,76.99,2022-10-26 15:48:06.031250
525,99.02,2022-10-26 15:48:06.046875
526,121.51,2022-10-26 15:48:06.062500
527,143.52,2022-10-26 15:48:06.078125
528,164.43,2022-10-26 15:48:06.093750
529,183.96,2022-10-26 15:48:06.109375
530,202.22,2022-10-26 15:48:06.125000
531,219.23,2022-10-26 15:48:06.140625
532,235.0,2022-10-26 15:48:06.156250
533,249.64,2022-10-26 15:48:06.171875
534,263.24,2022-10-26 15:48:06.187500
535,275.15,2022-10-26 15:48:06.203125
536,283.63,2022-10-26 15:48:06.218750
537,286.26,2022-10-26 15:48:06.234375
538,280.82,2022-10-26 15:48:06.250000
539,266.7,2022-10-26 15:48:06.265625
540,244.23,2022-10-26 15:48:06.281250
541,214.54,2022-10-26 15:48:06.296875
542,179.7,2022-10-26 15:48:06.312500
543,142.59,2022-10-26 15:48:06.328125
544,106.27,2022-10-26 15:48:06.343750
545,73.37,2022-10-26 15:48:06.359375
546,45.74,2022-10-26 15:48:06.375000
547,24.08,2022-10-26 15:48:06.390625
548,8.29,2022-10-26 15:48:06.406250
549,-4.42,2022-10-26 15:48:06.421875
550,-18.53,2022-10-26 15:48:06.437500
551,-37.67,2022-10-26 15:48:06.453125
552,-62.62,2022-10-26 15:48:06.468750
553,-91.25,2022-10-26 15:48:06.484375
554,-119.95,2022-10-26 15:48:06.500000
555,-145.16,2022-10-26 15:48:06.515625
556,-164.43,2022-10-26 15:48:06.531250
557,-176.01,2022-10-26 15:48:06.546875
558,-181.24,2022-10-26 15:48:06.562500
559,-183.7,2022-10-26 15:48:06.578125
560,-187.23,2022-10-26 15:48:06.593750
561,-194.36,2022-10-26 15:48:06.609375
562,-206.26,2022-10-26 15:48:06.625000
563,-223.2,2022-10-26 15:48:06.640625
564,-244.03,2022-10-26 15:48:06.656250
565,-272.57,2022-10-26 15:48:06.671875
566,-302.01,2022-10-26 15:48:06.687500
567,-320.4,2022-10-26 15:48:06.703125
568,-320.21,2022-10-26 15:48:06.718750
569,-303.22,2022-10-26 15:48:06.734375
570,-275.64,2022-10-26 15:48:06.750000
571,-241.57,2022-10-26 15:48:06.765625
572,-203.4,2022-10-26 15:48:06.781250
573,-164.32,2022-10-26 15:48:06.796875
574,-128.42,2022-10-26 15:48:06.812500
575,-99.11,2022-10-26 15:48:06.828125
576,-80.65,2022-10-26 15:48:06.843750
577,-76.73,2022-10-26 15:48:06.859375
578,-88.31,2022-10-26 15:48:06.875000
579,-112.58,2022-10-26 15:48:06.890625
580,-144.25,2022-10-26 15:48:06.906250
581,-177.55,2022-10-26 15:48:06.921875
582,-207.24,2022-10-26 15:48:06.937500
583,-228.86,2022-10-26 15:48:06.953125
584,-238.39,2022-10-26 15:48:06.968750
585,-234.56,2022-10-26 15:48:06.984375
586,-219.06,2022-10-26 15:48:07.000000
587,-195.4,2022-10-26 15:48:07.015625
588,-167.47,2022-10-26 15:48:07.031250
589,-138.85,2022-10-26 15:48:07.046875
590,-112.39,2022-10-26 15:48:07.062500
591,-89.58,2022-10-26 15:48:07.078125
592,-70.45,2022-10-26 15:48:07.093750
593,-53.64,2022-10-26 15:48:07.109375
594,-38.39,2022-10-26 15:48:07.125000
595,-24.93,2022-10-26 15:48:07.140625
596,-13.76,2022-10-26 15:48:07.156250
597,-4.87,2022-10-26 15:48:07.171875
598,2.23,2022-10-26 15:48:07.187500
599,8.05,2022-10-26 15:48:07.203125
600,12.97,2022-10-26 15:48:07.218750
601,17.3,2022-10-26 15:48:07.234375
602,21.67,2022-10-26 15:48:07.250000
603,26.56,2022-10-26 15:48:07.265625
604,32.51,2022-10-26 15:48:07.281250
605,40.31,2022-10-26 15:48:07.296875
606,50.88,2022-10-26 15:48:07.312500
607,64.54,2022-10-26 15:48:07.328125
608,80.48,2022-10-26 15:48:07.343750
609,96.82,2022-10-26 15:48:07.359375
610,111.18,2022-10-26 15:48:07.375000
611,121.56,2022-10-26 15:48:07.390625
612,126.71,2022-10-26 15:48:07.406250
613,126.46,2022-10-26 15:48:07.421875
614,121.64,2022-10-26 15:48:07.437500
615,113.63,2022-10-26 15:48:07.453125
616,103.92,2022-10-26 15:48:07.468750
617,93.66,2022-10-26 15:48:07.484375
618,83.58,2022-10-26 15:48:07.500000
619,74.11,2022-10-26 15:48:07.515625
620,65.46,2022-10-26 15:48:07.531250
621,57.63,2022-10-26 15:48:07.546875
622,50.49,2022-10-26 15:48:07.562500
623,43.78,2022-10-26 15:48:07.578125
624,37.25,2022-10-26 15:48:07.593750
625,30.75,2022-10-26 15:48:07.609375
626,24.38,2022-10-26 15:48:07.625000
627,18.4,2022-10-26 15:48:07.640625
628,13.12,2022-10-26 15:48:07.656250
629,8.76,2022-10-26 15:48:07.671875
630,5.32,2022-10-26 15:48:07.687500
631,2.59,2022-10-26 15:48:07.703125
632,0.22,2022-10-26 15:48:07.718750
633,-2.16,2022-10-26 15:48:07.734375
634,-4.79,2022-10-26 15:48:07.750000
635,-7.76,2022-10-26 15:48:07.765625
636,-10.97,2022-10-26 15:48:07.781250
637,-14.22,2022-10-26 15:48:07.796875
638,-17.31,2022-10-26 15:48:07.812500
639,-20.15,2022-10-26 15:48:07.828125
640,-22.77,2022-10-26 15:48:07.843750
641,-25.33,2022-10-26 15:48:07.859375
642,-28.05,2022-10-26 15:48:07.875000
643,-31.01,2022-10-26 15:48:07.890625
644,-34.19,2022-10-26 15:48:07.906250
645,-37.36,2022-10-26 15:48:07.921875
646,-40.25,2022-10-26 15:48:07.937500
647,-42.71,2022-10-26 15:48:07.953125
648,-44.83,2022-10-26 15:48:07.968750
649,-46.98,2022-10-26 15:48:07.984375
650,-49.64,2022-10-26 15:48:08.000000
651,-53.25,2022-10-26 15:48:08.015625
652,-57.85,2022-10-26 15:48:08.031250
653,-62.97,2022-10-26 15:48:08.046875
654,-67.56,2022-10-26 15:48:08.062500
655,-70.21,2022-10-26 15:48:08.078125
656,-69.51,2022-10-26 15:48:08.093750
657,-64.42,2022-10-26 15:48:08.109375
658,-54.68,2022-10-26 15:48:08.125000
659,-40.85,2022-10-26 15:48:08.140625
660,-24.28,2022-10-26 15:48:08.156250
661,-6.75,2022-10-26 15:48:08.171875
662,9.89,2022-10-26 15:48:08.187500
663,24.12,2022-10-26 15:48:08.203125
664,34.98,2022-10-26 15:48:08.218750
665,42.12,2022-10-26 15:48:08.234375
666,45.7,2022-10-26 15:48:08.250000
667,46.23,2022-10-26 15:48:08.265625
668,44.39,2022-10-26 15:48:08.281250
669,40.9,2022-10-26 15:48:08.296875
670,36.44,2022-10-26 15:48:08.312500
671,31.65,2022-10-26 15:48:08.328125
672,27.14,2022-10-26 15:48:08.343750
673,23.42,2022-10-26 15:48:08.359375
674,20.9,2022-10-26 15:48:08.375000
675,19.74,2022-10-26 15:48:08.390625
676,19.85,2022-10-26 15:48:08.406250
677,20.9,2022-10-26 15:48:08.421875
678,22.53,2022-10-26 15:48:08.437500
679,24.42,2022-10-26 15:48:08.453125
680,26.41,2022-10-26 15:48:08.468750
681,28.45,2022-10-26 15:48:08.484375
682,30.5,2022-10-26 15:48:08.500000
683,32.41,2022-10-26 15:48:08.515625
684,33.88,2022-10-26 15:48:08.531250
685,34.56,2022-10-26 15:48:08.546875
686,34.17,2022-10-26 15:48:08.562500
687,32.65,2022-10-26 15:48:08.578125
688,30.18,2022-10-26 15:48:08.593750
689,27.15,2022-10-26 15:48:08.609375
690,23.95,2022-10-26 15:48:08.625000
691,20.9,2022-10-26 15:48:08.640625
692,18.1,2022-10-26 15:48:08.656250
693,15.51,2022-10-26 15:48:08.671875
694,13.0,2022-10-26 15:48:08.687500
695,10.42,2022-10-26 15:48:08.703125
696,7.76,2022-10-26 15:48:08.718750
697,5.09,2022-10-26 15:48:08.734375
698,2.54,2022-10-26 15:48:08.750000
699,0.26,2022-10-26 15:48:08.765625
700,-1.68,2022-10-26 15:48:08.781250
701,-3.29,2022-10-26 15:48:08.796875
702,-4.64,2022-10-26 15:48:08.812500
703,-5.87,2022-10-26 15:48:08.828125
704,-7.13,2022-10-26 15:48:08.843750
705,-8.6,2022-10-26 15:48:08.859375
706,-10.39,2022-10-26 15:48:08.875000
707,-12.6,2022-10-26 15:48:08.890625
708,-15.17,2022-10-26 15:48:08.906250
709,-17.98,2022-10-26 15:48:08.921875
710,-20.84,2022-10-26 15:48:08.937500
711,-23.6,2022-10-26 15:48:08.953125
712,-26.23,2022-10-26 15:48:08.968750
713,-28.85,2022-10-26 15:48:08.984375
714,-31.73,2022-10-26 15:48:09.000000
715,-35.15,2022-10-26 15:48:09.015625
716,-39.36,2022-10-26 15:48:09.031250
717,-44.37,2022-10-26 15:48:09.046875
718,-49.89,2022-10-26 15:48:09.062500
719,-55.15,2022-10-26 15:48:09.078125
720,-59.04,2022-10-26 15:48:09.093750
721,-60.2,2022-10-26 15:48:09.109375
722,-57.41,2022-10-26 15:48:09.125000
723,-49.97,2022-10-26 15:48:09.140625
724,-37.99,2022-10-26 15:48:09.156250
725,-22.53,2022-10-26 15:48:09.171875
726,-5.28,2022-10-26 15:48:09.187500
727,11.78,2022-10-26 15:48:09.203125
728,26.95,2022-10-26 15:48:09.218750
729,39.1,2022-10-26 15:48:09.234375
730,47.72,2022-10-26 15:48:09.250000
731,52.77,2022-10-26 15:48:09.265625
732,54.47,2022-10-26 15:48:09.281250
733,53.17,2022-10-26 15:48:09.296875
734,49.34,2022-10-26 15:48:09.312500
735,43.6,2022-10-26 15:48:09.328125
736,36.76,2022-10-26 15:48:09.343750
737,29.77,2022-10-26 15:48:09.359375
738,23.48,2022-10-26 15:48:09.375000
739,18.53,2022-10-26 15:48:09.390625
740,15.14,2022-10-26 15:48:09.406250
741,13.24,2022-10-26 15:48:09.421875
742,12.56,2022-10-26 15:48:09.437500
743,12.86,2022-10-26 15:48:09.453125
744,13.96,2022-10-26 15:48:09.468750
745,15.73,2022-10-26 15:48:09.484375
746,18.01,2022-10-26 15:48:09.500000
747,20.49,2022-10-26 15:48:09.515625
748,22.72,2022-10-26 15:48:09.531250
749,24.24,2022-10-26 15:48:09.546875
750,24.64,2022-10-26 15:48:09.562500
751,23.71,2022-10-26 15:48:09.578125
752,21.5,2022-10-26 15:48:09.593750
753,18.27,2022-10-26 15:48:09.609375
754,14.39,2022-10-26 15:48:09.625000
755,10.27,2022-10-26 15:48:09.640625
756,6.22,2022-10-26 15:48:09.656250
757,2.44,2022-10-26 15:48:09.671875
758,-1.02,2022-10-26 15:48:09.687500
759,-4.23,2022-10-26 15:48:09.703125
760,-7.36,2022-10-26 15:48:09.718750
761,-10.56,2022-10-26 15:48:09.734375
762,-13.88,2022-10-26 15:48:09.750000
763,-17.28,2022-10-26 15:48:09.765625
764,-20.53,2022-10-26 15:48:09.781250
765,-23.4,2022-10-26 15:48:09.796875
766,-25.73,2022-10-26 15:48:09.812500
767,-27.59,2022-10-26 15:48:09.828125
768,-29.26,2022-10-26 15:48:09.843750
769,-31.16,2022-10-26 15:48:09.859375
770,-33.64,2022-10-26 15:48:09.875000
771,-36.81,2022-10-26 15:48:09.890625
772,-40.43,2022-10-26 15:48:09.906250
773,-44.07,2022-10-26 15:48:09.921875
774,-47.23,2022-10-26 15:48:09.937500
775,-49.56,2022-10-26 15:48:09.953125
776,-51.04,2022-10-26 15:48:09.968750
777,-51.89,2022-10-26 15:48:09.984375
778,-52.57,2022-10-26 15:48:10.000000
779,-53.61,2022-10-26 15:48:10.015625
780,-55.57,2022-10-26 15:48:10.031250
781,-58.84,2022-10-26 15:48:10.046875
782,-63.47,2022-10-26 15:48:10.062500
783,-68.92,2022-10-26 15:48:10.078125
784,-73.9,2022-10-26 15:48:10.093750
785,-76.58,2022-10-26 15:48:10.109375
786,-75.06,2022-10-26 15:48:10.125000
787,-67.96,2022-10-26 15:48:10.140625
788,-54.92,2022-10-26 15:48:10.156250
789,-36.8,2022-10-26 15:48:10.171875
790,-15.39,2022-10-26 15:48:10.187500
791,7.03,2022-10-26 15:48:10.203125
792,28.28,2022-10-26 15:48:10.218750
793,46.64,2022-10-26 15:48:10.234375
794,61.01,2022-10-26 15:48:10.250000
795,70.87,2022-10-26 15:48:10.265625
796,76.24,2022-10-26 15:48:10.281250
797,77.53,2022-10-26 15:48:10.296875
798,75.47,2022-10-26 15:48:10.312500
799,70.97,2022-10-26 15:48:10.328125
800,65.0,2022-10-26 15:48:10.343750
801,58.5,2022-10-26 15:48:10.359375
802,52.24,2022-10-26 15:48:10.375000
803,46.86,2022-10-26 15:48:10.390625
804,42.8,2022-10-26 15:48:10.406250
805,40.24,2022-10-26 15:48:10.421875
806,39.1,2022-10-26 15:48:10.437500
807,39.1,2022-10-26 15:48:10.453125
808,39.91,2022-10-26 15:48:10.468750
809,41.26,2022-10-26 15:48:10.484375
810,42.99,2022-10-26 15:48:10.500000
811,45.03,2022-10-26 15:48:10.515625
812,47.21,2022-10-26 15:48:10.531250
813,49.14,2022-10-26 15:48:10.546875
814,50.26,2022-10-26 15:48:10.562500
815,49.93,2022-10-26 15:48:10.578125
816,47.75,2022-10-26 15:48:10.593750
817,43.7,2022-10-26 15:48:10.609375
818,38.2,2022-10-26 15:48:10.625000
819,31.96,2022-10-26 15:48:10.640625
820,25.65,2022-10-26 15:48:10.656250
821,19.75,2022-10-26 15:48:10.671875
822,14.34,2022-10-26 15:48:10.687500
823,9.23,2022-10-26 15:48:10.703125
824,4.05,2022-10-26 15:48:10.718750
825,-1.55,2022-10-26 15:48:10.734375
826,-7.78,2022-10-26 15:48:10.750000
827,-14.6,2022-10-26 15:48:10.765625
828,-21.7,2022-10-26 15:48:10.781250
829,-28.63,2022-10-26 15:48:10.796875
830,-34.87,2022-10-26 15:48:10.812500
831,-40.08,2022-10-26 15:48:10.828125
832,-44.25,2022-10-26 15:48:10.843750
833,-47.69,2022-10-26 15:48:10.859375
834,-50.87,2022-10-26 15:48:10.875000
835,-54.26,2022-10-26 15:48:10.890625
836,-58.01,2022-10-26 15:48:10.906250
837,-61.93,2022-10-26 15:48:10.921875
838,-65.59,2022-10-26 15:48:10.937500
839,-68.58,2022-10-26 15:48:10.953125
840,-70.73,2022-10-26 15:48:10.968750
841,-72.26,2022-10-26 15:48:10.984375
842,-73.67,2022-10-26 15:48:11.000000
843,-75.63,2022-10-26 15:48:11.015625
844,-78.76,2022-10-26 15:48:11.031250
845,-83.46,2022-10-26 15:48:11.046875
846,-89.64,2022-10-26 15:48:11.062500
847,-96.58,2022-10-26 15:48:11.078125
848,-102.75,2022-10-26 15:48:11.093750
849,-105.99,2022-10-26 15:48:11.109375
850,-104.02,2022-10-26 15:48:11.125000
851,-95.24,2022-10-26 15:48:11.140625
852,-79.32,2022-10-26 15:48:11.156250
853,-57.56,2022-10-26 15:48:11.171875
854,-32.6,2022-10-26 15:48:11.187500
855,-7.56,2022-10-26 15:48:11.203125
856,14.73,2022-10-26 15:48:11.218750
857,32.48,2022-10-26 15:48:11.234375
858,45.0,2022-10-26 15:48:11.250000
859,52.45,2022-10-26 15:48:11.265625
860,55.37,2022-10-26 15:48:11.281250
861,54.33,2022-10-26 15:48:11.296875
862,49.96,2022-10-26 15:48:11.312500
863,42.99,2022-10-26 15:48:11.328125
864,34.44,2022-10-26 15:48:11.343750
865,25.58,2022-10-26 15:48:11.359375
866,17.66,2022-10-26 15:48:11.375000
867,11.66,2022-10-26 15:48:11.390625
868,8.04,2022-10-26 15:48:11.406250
869,6.73,2022-10-26 15:48:11.421875
870,7.29,2022-10-26 15:48:11.437500
871,9.16,2022-10-26 15:48:11.453125
872,11.89,2022-10-26 15:48:11.468750
873,15.17,2022-10-26 15:48:11.484375
874,18.82,2022-10-26 15:48:11.500000
875,22.63,2022-10-26 15:48:11.515625
876,26.28,2022-10-26 15:48:11.531250
877,29.29,2022-10-26 15:48:11.546875
878,31.22,2022-10-26 15:48:11.562500
879,31.68,2022-10-26 15:48:11.578125
880,30.57,2022-10-26 15:48:11.593750
881,28.02,2022-10-26 15:48:11.609375
882,24.36,2022-10-26 15:48:11.625000
883,19.98,2022-10-26 15:48:11.640625
884,15.21,2022-10-26 15:48:11.656250
885,10.28,2022-10-26 15:48:11.671875
886,5.38,2022-10-26 15:48:11.687500
887,0.63,2022-10-26 15:48:11.703125
888,-3.8,2022-10-26 15:48:11.718750
889,-7.77,2022-10-26 15:48:11.734375
890,-11.2,2022-10-26 15:48:11.750000
891,-14.12,2022-10-26 15:48:11.765625
892,-16.63,2022-10-26 15:48:11.781250
893,-18.94,2022-10-26 15:48:11.796875
894,-21.2,2022-10-26 15:48:11.812500
895,-23.47,2022-10-26 15:48:11.828125
896,-25.69,2022-10-26 15:48:11.843750
897,-27.72,2022-10-26 15:48:11.859375
898,-29.39,2022-10-26 15:48:11.875000
899,-30.62,2022-10-26 15:48:11.890625
900,-31.49,2022-10-26 15:48:11.906250
901,-32.23,2022-10-26 15:48:11.921875
902,-33.21,2022-10-26 15:48:11.937500
903,-34.89,2022-10-26 15:48:11.953125
904,-37.66,2022-10-26 15:48:11.968750
905,-41.71,2022-10-26 15:48:11.984375
906,-46.76,2022-10-26 15:48:12.000000
907,-51.96,2022-10-26 15:48:12.015625
908,-55.85,2022-10-26 15:48:12.031250
909,-56.71,2022-10-26 15:48:12.046875
910,-53.01,2022-10-26 15:48:12.062500
911,-43.97,2022-10-26 15:48:12.078125
912,-29.92,2022-10-26 15:48:12.093750
913,-12.24,2022-10-26 15:48:12.109375
914,7.03,2022-10-26 15:48:12.125000
915,25.76,2022-10-26 15:48:12.140625
916,42.26,2022-10-26 15:48:12.156250
917,55.43,2022-10-26 15:48:12.171875
918,64.71,2022-10-26 15:48:12.187500
919,69.9,2022-10-26 15:48:12.203125
920,70.95,2022-10-26 15:48:12.218750
921,68.04,2022-10-26 15:48:12.234375
922,61.73,2022-10-26 15:48:12.250000
923,52.99,2022-10-26 15:48:12.265625
924,43.14,2022-10-26 15:48:12.281250
925,33.59,2022-10-26 15:48:12.296875
926,25.5,2022-10-26 15:48:12.312500
927,19.59,2022-10-26 15:48:12.328125
928,16.05,2022-10-26 15:48:12.343750
929,14.69,2022-10-26 15:48:12.359375
930,15.09,2022-10-26 15:48:12.375000
931,16.82,2022-10-26 15:48:12.390625
932,19.44,2022-10-26 15:48:12.406250
933,22.51,2022-10-26 15:48:12.421875
934,25.57,2022-10-26 15:48:12.437500
935,28.12,2022-10-26 15:48:12.453125
936,29.65,2022-10-26 15:48:12.468750
937,29.76,2022-10-26 15:48:12.484375
938,28.24,2022-10-26 15:48:12.500000
939,25.18,2022-10-26 15:48:12.515625
940,20.93,2022-10-26 15:48:12.531250
941,16.01,2022-10-26 15:48:12.546875
942,10.96,2022-10-26 15:48:12.562500
943,6.11,2022-10-26 15:48:12.578125
944,1.57,2022-10-26 15:48:12.593750
945,-2.84,2022-10-26 15:48:12.609375
946,-7.37,2022-10-26 15:48:12.625000
947,-12.26,2022-10-26 15:48:12.640625
948,-17.53,2022-10-26 15:48:12.656250
949,-22.98,2022-10-26 15:48:12.671875
950,-28.2,2022-10-26 15:48:12.687500
951,-32.77,2022-10-26 15:48:12.703125
952,-36.45,2022-10-26 15:48:12.718750
953,-39.3,2022-10-26 15:48:12.734375
954,-41.73,2022-10-26 15:48:12.750000
955,-44.42,2022-10-26 15:48:12.765625
956,-48.1,2022-10-26 15:48:12.781250
957,-53.22,2022-10-26 15:48:12.796875
958,-59.64,2022-10-26 15:48:12.812500
959,-66.37,2022-10-26 15:48:12.828125
960,-71.66,2022-10-26 15:48:12.843750
961,-73.39,2022-10-26 15:48:12.859375
962,-69.7,2022-10-26 15:48:12.875000
963,-59.64,2022-10-26 15:48:12.890625
964,-43.58,2022-10-26 15:48:12.906250
965,-23.14,2022-10-26 15:48:12.921875
966,-0.76,2022-10-26 15:48:12.937500
967,21.02,2022-10-26 15:48:12.953125
968,40.17,2022-10-26 15:48:12.968750
969,55.42,2022-10-26 15:48:12.984375
970,66.27,2022-10-26 15:48:13.000000
971,72.69,2022-10-26 15:48:13.015625
972,74.85,2022-10-26 15:48:13.031250
973,72.97,2022-10-26 15:48:13.046875
974,67.44,2022-10-26 15:48:13.062500
975,58.94,2022-10-26 15:48:13.078125
976,48.51,2022-10-26 15:48:13.093750
977,37.48,2022-10-26 15:48:13.109375
978,27.21,2022-10-26 15:48:13.125000
979,18.81,2022-10-26 15:48:13.140625
980,12.92,2022-10-26 15:48:13.156250
981,9.65,2022-10-26 15:48:13.171875
982,8.68,2022-10-26 15:48:13.187500
983,9.42,2022-10-26 15:48:13.203125
984,11.28,2022-10-26 15:48:13.218750
985,13.79,2022-10-26 15:48:13.234375
986,16.59,2022-10-26 15:48:13.250000
987,19.43,2022-10-26 15:48:13.265625
988,21.96,2022-10-26 15:48:13.281250
989,23.76,2022-10-26 15:48:13.296875
990,24.27,2022-10-26 15:48:13.312500
991,23.03,2022-10-26 15:48:13.328125
992,19.8,2022-10-26 15:48:13.343750
993,14.78,2022-10-26 15:48:13.359375
994,8.61,2022-10-26 15:48:13.375000
995,2.16,2022-10-26 15:48:13.390625
996,-3.76,2022-10-26 15:48:13.406250
997,-8.7,2022-10-26 15:48:13.421875
998,-12.7,2022-10-26 15:48:13.437500
999,-16.28,2022-10-26 15:48:13.453125
1000,-20.11,2022-10-26 15:48:13.468750
1001,-24.72,2022-10-26 15:48:13.484375
1002,-30.21,2022-10-26 15:48:13.500000
1003,-36.2,2022-10-26 15:48:13.515625
1004,-41.97,2022-10-26 15:48:13.531250
1005,-46.77,2022-10-26 15:48:13.546875
1006,-50.13,2022-10-26 15:48:13.562500
1007,-52.06,2022-10-26 15:48:13.578125
1008,-53.04,2022-10-26 15:48:13.593750
1009,-53.9,2022-10-26 15:48:13.609375
1010,-55.52,2022-10-26 15:48:13.625000
1011,-58.64,2022-10-26 15:48:13.640625
1012,-63.61,2022-10-26 15:48:13.656250
1013,-70.12,2022-10-26 15:48:13.671875
1014,-77.11,2022-10-26 15:48:13.687500
1015,-82.74,2022-10-26 15:48:13.703125
1016,-84.73,2022-10-26 15:48:13.718750
1017,-80.96,2022-10-26 15:48:13.734375
1018,-70.23,2022-10-26 15:48:13.750000
1019,-52.74,2022-10-26 15:48:13.765625
1020,-30.25,2022-10-26 15:48:13.781250
1021,-5.57,2022-10-26 15:48:13.796875
1022,18.34,2022-10-26 15:48:13.812500
1023,39.05,2022-10-26 15:48:13.828125
1024,55.21,2022-10-26 15:48:13.843750
1025,66.39,2022-10-26 15:48:13.859375
1026,72.82,2022-10-26 15:48:13.875000
1027,74.92,2022-10-26 15:48:13.890625
1028,73.21,2022-10-26 15:48:13.906250
1029,68.32,2022-10-26 15:48:13.921875
1030,61.11,2022-10-26 15:48:13.937500
1031,52.66,2022-10-26 15:48:13.953125
1032,44.14,2022-10-26 15:48:13.968750
1033,36.56,2022-10-26 15:48:13.984375
1034,30.59,2022-10-26 15:48:14.000000
1035,26.51,2022-10-26 15:48:14.015625
1036,24.3,2022-10-26 15:48:14.031250
1037,23.73,2022-10-26 15:48:14.046875
1038,24.53,2022-10-26 15:48:14.062500
1039,26.4,2022-10-26 15:48:14.078125
1040,29.04,2022-10-26 15:48:14.093750
1041,32.08,2022-10-26 15:48:14.109375
1042,35.08,2022-10-26 15:48:14.125000
1043,37.56,2022-10-26 15:48:14.140625
1044,39.01,2022-10-26 15:48:14.156250
1045,39.01,2022-10-26 15:48:14.171875
1046,37.3,2022-10-26 15:48:14.187500
1047,33.91,2022-10-26 15:48:14.203125
1048,29.18,2022-10-26 15:48:14.218750
1049,23.68,2022-10-26 15:48:14.234375
1050,18.02,2022-10-26 15:48:14.250000
1051,12.67,2022-10-26 15:48:14.265625
1052,7.78,2022-10-26 15:48:14.281250
1053,3.2,2022-10-26 15:48:14.296875
1054,-1.39,2022-10-26 15:48:14.312500
1055,-6.24,2022-10-26 15:48:14.328125
1056,-11.34,2022-10-26 15:48:14.343750
1057,-16.41,2022-10-26 15:48:14.359375
1058,-20.99,2022-10-26 15:48:14.375000
1059,-24.71,2022-10-26 15:48:14.390625
1060,-27.49,2022-10-26 15:48:14.406250
1061,-29.57,2022-10-26 15:48:14.421875
1062,-31.47,2022-10-26 15:48:14.437500
1063,-33.69,2022-10-26 15:48:14.453125
1064,-36.52,2022-10-26 15:48:14.468750
1065,-39.92,2022-10-26 15:48:14.484375
1066,-43.6,2022-10-26 15:48:14.500000
1067,-47.15,2022-10-26 15:48:14.515625
1068,-50.26,2022-10-26 15:48:14.531250
1069,-52.87,2022-10-26 15:48:14.546875
1070,-55.16,2022-10-26 15:48:14.562500
1071,-57.54,2022-10-26 15:48:14.578125
1072,-60.63,2022-10-26 15:48:14.593750
1073,-65.03,2022-10-26 15:48:14.609375
1074,-71.12,2022-10-26 15:48:14.625000
1075,-78.66,2022-10-26 15:48:14.640625
1076,-86.58,2022-10-26 15:48:14.656250
1077,-92.85,2022-10-26 15:48:14.671875
1078,-94.94,2022-10-26 15:48:14.687500
1079,-90.51,2022-10-26 15:48:14.703125
1080,-78.33,2022-10-26 15:48:14.718750
1081,-58.84,2022-10-26 15:48:14.734375
1082,-34.1,2022-10-26 15:48:14.750000
1083,-7.2,2022-10-26 15:48:14.765625
1084,18.68,2022-10-26 15:48:14.781250
1085,41.05,2022-10-26 15:48:14.796875
1086,58.52,2022-10-26 15:48:14.812500
1087,70.64,2022-10-26 15:48:14.828125
1088,77.59,2022-10-26 15:48:14.843750
1089,79.79,2022-10-26 15:48:14.859375
1090,77.83,2022-10-26 15:48:14.875000
1091,72.52,2022-10-26 15:48:14.890625
1092,64.96,2022-10-26 15:48:14.906250
1093,56.5,2022-10-26 15:48:14.921875
1094,48.48,2022-10-26 15:48:14.937500
1095,41.94,2022-10-26 15:48:14.953125
1096,37.44,2022-10-26 15:48:14.968750
1097,35.08,2022-10-26 15:48:14.984375
1098,34.61,2022-10-26 15:48:15.000000
1099,35.65,2022-10-26 15:48:15.015625
1100,37.9,2022-10-26 15:48:15.031250
1101,41.06,2022-10-26 15:48:15.046875
1102,44.77,2022-10-26 15:48:15.062500
1103,48.58,2022-10-26 15:48:15.078125
1104,51.89,2022-10-26 15:48:15.093750
1105,54.1,2022-10-26 15:48:15.109375
1106,54.78,2022-10-26 15:48:15.125000
1107,53.85,2022-10-26 15:48:15.140625
1108,51.56,2022-10-26 15:48:15.156250
1109,48.46,2022-10-26 15:48:15.171875
1110,45.07,2022-10-26 15:48:15.187500
1111,41.8,2022-10-26 15:48:15.203125
1112,38.8,2022-10-26 15:48:15.218750
1113,36.01,2022-10-26 15:48:15.234375
1114,33.28,2022-10-26 15:48:15.250000
1115,30.56,2022-10-26 15:48:15.265625
1116,28.02,2022-10-26 15:48:15.281250
1117,26.03,2022-10-26 15:48:15.296875
1118,25.03,2022-10-26 15:48:15.312500
1119,25.3,2022-10-26 15:48:15.328125
1120,26.84,2022-10-26 15:48:15.343750
1121,29.32,2022-10-26 15:48:15.359375
1122,32.25,2022-10-26 15:48:15.375000
1123,35.18,2022-10-26 15:48:15.390625
1124,37.97,2022-10-26 15:48:15.406250
1125,40.9,2022-10-26 15:48:15.421875
1126,44.53,2022-10-26 15:48:15.437500
1127,49.46,2022-10-26 15:48:15.453125
1128,56.01,2022-10-26 15:48:15.468750
1129,64.01,2022-10-26 15:48:15.484375
1130,72.85,2022-10-26 15:48:15.500000
1131,81.63,2022-10-26 15:48:15.515625
1132,89.57,2022-10-26 15:48:15.531250
1133,96.15,2022-10-26 15:48:15.546875
1134,101.39,2022-10-26 15:48:15.562500
1135,105.96,2022-10-26 15:48:15.578125
1136,111.26,2022-10-26 15:48:15.593750
1137,119.34,2022-10-26 15:48:15.609375
1138,132.5,2022-10-26 15:48:15.625000
1139,152.47,2022-10-26 15:48:15.640625
1140,179.39,2022-10-26 15:48:15.656250
1141,211.08,2022-10-26 15:48:15.671875
1142,243.0,2022-10-26 15:48:15.687500
1143,269.33,2022-10-26 15:48:15.703125
1144,284.69,2022-10-26 15:48:15.718750
1145,285.91,2022-10-26 15:48:15.734375
1146,272.95,2022-10-26 15:48:15.750000
1147,248.52,2022-10-26 15:48:15.765625
1148,216.66,2022-10-26 15:48:15.781250
1149,181.09,2022-10-26 15:48:15.796875
1150,144.12,2022-10-26 15:48:15.812500
1151,106.7,2022-10-26 15:48:15.828125
1152,69.2,2022-10-26 15:48:15.843750
1153,32.36,2022-10-26 15:48:15.859375
1154,-2.25,2022-10-26 15:48:15.875000
1155,-32.67,2022-10-26 15:48:15.890625
1156,-57.39,2022-10-26 15:48:15.906250
1157,-76.05,2022-10-26 15:48:15.921875
1158,-89.65,2022-10-26 15:48:15.937500
1159,-99.92,2022-10-26 15:48:15.953125
1160,-108.51,2022-10-26 15:48:15.968750
1161,-116.28,2022-10-26 15:48:15.984375
1162,-123.19,2022-10-26 15:48:16.000000
1163,-128.73,2022-10-26 15:48:16.015625
1164,-132.51,2022-10-26 15:48:16.031250
1165,-134.63,2022-10-26 15:48:16.046875
1166,-135.52,2022-10-26 15:48:16.062500
1167,-135.5,2022-10-26 15:48:16.078125
1168,-134.47,2022-10-26 15:48:16.093750
1169,-131.86,2022-10-26 15:48:16.109375
1170,-127.02,2022-10-26 15:48:16.125000
1171,-119.67,2022-10-26 15:48:16.140625
1172,-110.17,2022-10-26 15:48:16.156250
1173,-99.33,2022-10-26 15:48:16.171875
1174,-87.99,2022-10-26 15:48:16.187500
1175,-76.53,2022-10-26 15:48:16.203125
1176,-64.84,2022-10-26 15:48:16.218750
1177,-52.78,2022-10-26 15:48:16.234375
1178,-40.9,2022-10-26 15:48:16.250000
1179,-30.88,2022-10-26 15:48:16.265625
1180,-25.23,2022-10-26 15:48:16.281250
1181,-26.24,2022-10-26 15:48:16.296875
1182,-34.71,2022-10-26 15:48:16.312500
1183,-49.29,2022-10-26 15:48:16.328125
1184,-66.8,2022-10-26 15:48:16.343750
1185,-83.76,2022-10-26 15:48:16.359375
1186,-97.26,2022-10-26 15:48:16.375000
1187,-105.86,2022-10-26 15:48:16.390625
1188,-109.93,2022-10-26 15:48:16.406250
1189,-111.35,2022-10-26 15:48:16.421875
1190,-112.58,2022-10-26 15:48:16.437500
1191,-115.76,2022-10-26 15:48:16.453125
1192,-122.0,2022-10-26 15:48:16.468750
1193,-130.97,2022-10-26 15:48:16.484375
1194,-141.02,2022-10-26 15:48:16.500000
1195,-148.87,2022-10-26 15:48:16.515625
1196,-150.25,2022-10-26 15:48:16.531250
1197,-141.49,2022-10-26 15:48:16.546875
1198,-121.11,2022-10-26 15:48:16.562500
1199,-90.66,2022-10-26 15:48:16.578125
1200,-54.48,2022-10-26 15:48:16.593750
1201,-18.55,2022-10-26 15:48:16.609375
1202,11.08,2022-10-26 15:48:16.625000
1203,28.98,2022-10-26 15:48:16.640625
1204,32.89,2022-10-26 15:48:16.656250
1205,24.44,2022-10-26 15:48:16.671875
1206,7.91,2022-10-26 15:48:16.687500
1207,-12.03,2022-10-26 15:48:16.703125
1208,-32.24,2022-10-26 15:48:16.718750
1209,-51.9,2022-10-26 15:48:16.734375
1210,-72.07,2022-10-26 15:48:16.750000
1211,-93.93,2022-10-26 15:48:16.765625
1212,-119.46,2022-10-26 15:48:16.781250
1213,-146.67,2022-10-26 15:48:16.796875
1214,-169.87,2022-10-26 15:48:16.812500
1215,-183.5,2022-10-26 15:48:16.828125
1216,-186.53,2022-10-26 15:48:16.843750
1217,-183.35,2022-10-26 15:48:16.859375
1218,-181.28,2022-10-26 15:48:16.875000
1219,-186.64,2022-10-26 15:48:16.890625
1220,-201.86,2022-10-26 15:48:16.906250
1221,-229.76,2022-10-26 15:48:16.921875
1222,-267.0,2022-10-26 15:48:16.937500
1223,-304.92,2022-10-26 15:48:16.953125
1224,-334.12,2022-10-26 15:48:16.968750
1225,-349.01,2022-10-26 15:48:16.984375
1226,-347.8,2022-10-26 15:48:17.000000
1227,-330.32,2022-10-26 15:48:17.015625
1228,-297.26,2022-10-26 15:48:17.031250
1229,-250.95,2022-10-26 15:48:17.046875
1230,-204.88,2022-10-26 15:48:17.062500
1231,-170.97,2022-10-26 15:48:17.078125
1232,-154.9,2022-10-26 15:48:17.093750
1233,-156.9,2022-10-26 15:48:17.109375
1234,-175.14,2022-10-26 15:48:17.125000
1235,-205.8,2022-10-26 15:48:17.140625
1236,-242.79,2022-10-26 15:48:17.156250
1237,-279.52,2022-10-26 15:48:17.171875
1238,-311.41,2022-10-26 15:48:17.187500
1239,-347.57,2022-10-26 15:48:17.203125
1240,-393.19,2022-10-26 15:48:17.218750
1241,-443.37,2022-10-26 15:48:17.234375
1242,-486.8,2022-10-26 15:48:17.250000
1243,-514.17,2022-10-26 15:48:17.265625
1244,-521.34,2022-10-26 15:48:17.281250
1245,-509.12,2022-10-26 15:48:17.296875
1246,-482.1,2022-10-26 15:48:17.312500
1247,-381.78,2022-10-26 15:48:17.328125
1248,-200.53,2022-10-26 15:48:17.343750
1249,14.98,2022-10-26 15:48:17.359375
1250,203.99,2022-10-26 15:48:17.375000
1251,338.1,2022-10-26 15:48:17.390625
1252,420.82,2022-10-26 15:48:17.406250
1253,466.98,2022-10-26 15:48:17.421875
1254,489.63,2022-10-26 15:48:17.437500
1255,497.1,2022-10-26 15:48:17.453125
1256,494.66,2022-10-26 15:48:17.468750
1257,475.74,2022-10-26 15:48:17.484375
1258,439.48,2022-10-26 15:48:17.500000
1259,394.47,2022-10-26 15:48:17.515625
1260,352.84,2022-10-26 15:48:17.531250
1261,321.32,2022-10-26 15:48:17.546875
1262,300.43,2022-10-26 15:48:17.562500
1263,288.06,2022-10-26 15:48:17.578125
1264,280.2,2022-10-26 15:48:17.593750
1265,274.28,2022-10-26 15:48:17.609375
1266,261.32,2022-10-26 15:48:17.625000
1267,238.12,2022-10-26 15:48:17.640625
1268,209.41,2022-10-26 15:48:17.656250
1269,183.17,2022-10-26 15:48:17.671875
1270,163.59,2022-10-26 15:48:17.687500
1271,151.03,2022-10-26 15:48:17.703125
1272,143.43,2022-10-26 15:48:17.718750
1273,138.75,2022-10-26 15:48:17.734375
1274,136.27,2022-10-26 15:48:17.750000
1275,131.53,2022-10-26 15:48:17.765625
1276,123.93,2022-10-26 15:48:17.781250
1277,118.05,2022-10-26 15:48:17.796875
1278,121.07,2022-10-26 15:48:17.812500
1279,131.79,2022-10-26 15:48:17.828125
1280,147.48,2022-10-26 15:48:17.843750
1281,163.44,2022-10-26 15:48:17.859375
1282,174.97,2022-10-26 15:48:17.875000
1283,179.16,2022-10-26 15:48:17.890625
1284,173.07,2022-10-26 15:48:17.906250
1285,157.28,2022-10-26 15:48:17.921875
1286,135.75,2022-10-26 15:48:17.937500
1287,113.98,2022-10-26 15:48:17.953125
1288,94.93,2022-10-26 15:48:17.968750
1289,79.2,2022-10-26 15:48:17.984375
1290,65.35,2022-10-26 15:48:18.000000
1291,51.96,2022-10-26 15:48:18.015625
1292,39.04,2022-10-26 15:48:18.031250
1293,26.86,2022-10-26 15:48:18.046875
1294,16.35,2022-10-26 15:48:18.062500
1295,8.35,2022-10-26 15:48:18.078125
1296,4.21,2022-10-26 15:48:18.093750
1297,3.24,2022-10-26 15:48:18.109375
1298,3.43,2022-10-26 15:48:18.125000
1299,1.8,2022-10-26 15:48:18.140625
1300,-3.59,2022-10-26 15:48:18.156250
1301,-12.37,2022-10-26 15:48:18.171875
1302,-22.04,2022-10-26 15:48:18.187500
1303,-28.76,2022-10-26 15:48:18.203125
1304,-28.42,2022-10-26 15:48:18.218750
1305,-15.35,2022-10-26 15:48:18.234375
1306,13.27,2022-10-26 15:48:18.250000
1307,55.82,2022-10-26 15:48:18.265625
1308,105.76,2022-10-26 15:48:18.281250
1309,154.28,2022-10-26 15:48:18.296875
1310,193.34,2022-10-26 15:48:18.312500
1311,217.71,2022-10-26 15:48:18.328125
1312,225.88,2022-10-26 15:48:18.343750
1313,219.88,2022-10-26 15:48:18.359375
1314,207.27,2022-10-26 15:48:18.375000
1315,195.42,2022-10-26 15:48:18.390625
1316,188.79,2022-10-26 15:48:18.406250
1317,188.19,2022-10-26 15:48:18.421875
1318,193.13,2022-10-26 15:48:18.437500
1319,203.64,2022-10-26 15:48:18.453125
1320,220.37,2022-10-26 15:48:18.468750
1321,243.53,2022-10-26 15:48:18.484375
1322,251.65,2022-10-26 15:48:18.500000
1323,230.83,2022-10-26 15:48:18.515625
1324,181.13,2022-10-26 15:48:18.531250
1325,115.64,2022-10-26 15:48:18.546875
1326,48.86,2022-10-26 15:48:18.562500
1327,-10.49,2022-10-26 15:48:18.578125
1328,-58.95,2022-10-26 15:48:18.593750
1329,-96.0,2022-10-26 15:48:18.609375
1330,-122.93,2022-10-26 15:48:18.625000
1331,-142.14,2022-10-26 15:48:18.640625
1332,-153.31,2022-10-26 15:48:18.656250
1333,-156.74,2022-10-26 15:48:18.671875
1334,-154.32,2022-10-26 15:48:18.687500
1335,-149.31,2022-10-26 15:48:18.703125
1336,-144.52,2022-10-26 15:48:18.718750
1337,-141.26,2022-10-26 15:48:18.734375
1338,-139.52,2022-10-26 15:48:18.750000
1339,-139.0,2022-10-26 15:48:18.765625
1340,-139.44,2022-10-26 15:48:18.781250
1341,-138.3,2022-10-26 15:48:18.796875
1342,-133.78,2022-10-26 15:48:18.812500
1343,-125.89,2022-10-26 15:48:18.828125
1344,-116.42,2022-10-26 15:48:18.843750
1345,-107.43,2022-10-26 15:48:18.859375
1346,-100.13,2022-10-26 15:48:18.875000
1347,-94.69,2022-10-26 15:48:18.890625
1348,-91.09,2022-10-26 15:48:18.906250
1349,-88.87,2022-10-26 15:48:18.921875
1350,-86.0,2022-10-26 15:48:18.937500
1351,-80.92,2022-10-26 15:48:18.953125
1352,-73.26,2022-10-26 15:48:18.968750
1353,-64.02,2022-10-26 15:48:18.984375
1354,-54.57,2022-10-26 15:48:19.000000
1355,-46.02,2022-10-26 15:48:19.015625
1356,-38.74,2022-10-26 15:48:19.031250
1357,-32.88,2022-10-26 15:48:19.046875
1358,-28.31,2022-10-26 15:48:19.062500
1359,-23.84,2022-10-26 15:48:19.078125
1360,-18.27,2022-10-26 15:48:19.093750
1361,-10.98,2022-10-26 15:48:19.109375
1362,-2.33,2022-10-26 15:48:19.125000
1363,6.92,2022-10-26 15:48:19.140625
1364,15.84,2022-10-26 15:48:19.156250
1365,24.18,2022-10-26 15:48:19.171875
1366,31.69,2022-10-26 15:48:19.187500
1367,38.18,2022-10-26 15:48:19.203125
1368,43.74,2022-10-26 15:48:19.218750
1369,48.32,2022-10-26 15:48:19.234375
1370,51.77,2022-10-26 15:48:19.250000
1371,53.78,2022-10-26 15:48:19.265625
1372,54.4,2022-10-26 15:48:19.281250
1373,50.72,2022-10-26 15:48:19.296875
1374,42.58,2022-10-26 15:48:19.312500
1375,31.04,2022-10-26 15:48:19.328125
1376,17.75,2022-10-26 15:48:19.343750
1377,4.26,2022-10-26 15:48:19.359375
1378,-8.24,2022-10-26 15:48:19.375000
1379,-18.53,2022-10-26 15:48:19.390625
1380,-26.56,2022-10-26 15:48:19.406250
1381,-32.13,2022-10-26 15:48:19.421875
1382,-35.05,2022-10-26 15:48:19.437500
1383,-35.07,2022-10-26 15:48:19.453125
1384,-32.63,2022-10-26 15:48:19.468750
1385,-28.71,2022-10-26 15:48:19.484375
1386,-24.14,2022-10-26 15:48:19.500000
1387,-19.85,2022-10-26 15:48:19.515625
1388,-16.38,2022-10-26 15:48:19.531250
1389,-13.84,2022-10-26 15:48:19.546875
1390,-11.88,2022-10-26 15:48:19.562500
1391,-10.13,2022-10-26 15:48:19.578125
1392,-7.99,2022-10-26 15:48:19.593750
1393,-5.3,2022-10-26 15:48:19.609375
1394,-2.21,2022-10-26 15:48:19.625000
1395,0.98,2022-10-26 15:48:19.640625
1396,4.0,2022-10-26 15:48:19.656250
1397,6.67,2022-10-26 15:48:19.671875
1398,8.94,2022-10-26 15:48:19.687500
1399,10.93,2022-10-26 15:48:19.703125
1400,12.73,2022-10-26 15:48:19.718750
1401,14.58,2022-10-26 15:48:19.734375
1402,16.43,2022-10-26 15:48:19.750000
1403,17.92,2022-10-26 15:48:19.765625
1404,18.4,2022-10-26 15:48:19.781250
1405,17.13,2022-10-26 15:48:19.796875
1406,13.58,2022-10-26 15:48:19.812500
1407,7.64,2022-10-26 15:48:19.828125
1408,-0.05,2022-10-26 15:48:19.843750
1409,-8.22,2022-10-26 15:48:19.859375
1410,-15.04,2022-10-26 15:48:19.875000
1411,-18.71,2022-10-26 15:48:19.890625
1412,-18.02,2022-10-26 15:48:19.906250
1413,-12.66,2022-10-26 15:48:19.921875
1414,-3.42,2022-10-26 15:48:19.937500
1415,8.09,2022-10-26 15:48:19.953125
1416,19.89,2022-10-26 15:48:19.968750
1417,30.23,2022-10-26 15:48:19.984375
1418,37.94,2022-10-26 15:48:20.000000
1419,42.65,2022-10-26 15:48:20.015625
1420,44.57,2022-10-26 15:48:20.031250
1421,44.28,2022-10-26 15:48:20.046875
1422,42.49,2022-10-26 15:48:20.062500
1423,39.87,2022-10-26 15:48:20.078125
1424,37.0,2022-10-26 15:48:20.093750
1425,34.31,2022-10-26 15:48:20.109375
1426,31.97,2022-10-26 15:48:20.125000
1427,29.84,2022-10-26 15:48:20.140625
1428,27.44,2022-10-26 15:48:20.156250
1429,24.19,2022-10-26 15:48:20.171875
1430,19.75,2022-10-26 15:48:20.187500
1431,14.27,2022-10-26 15:48:20.203125
1432,8.48,2022-10-26 15:48:20.218750
1433,3.41,2022-10-26 15:48:20.234375
1434,0.1,2022-10-26 15:48:20.250000
1435,-0.82,2022-10-26 15:48:20.265625
1436,0.57,2022-10-26 15:48:20.281250
1437,3.56,2022-10-26 15:48:20.296875
1438,7.04,2022-10-26 15:48:20.312500
1439,9.77,2022-10-26 15:48:20.328125
1440,10.83,2022-10-26 15:48:20.343750
1441,9.74,2022-10-26 15:48:20.359375
1442,6.5,2022-10-26 15:48:20.375000
1443,1.64,2022-10-26 15:48:20.390625
1444,-4.01,2022-10-26 15:48:20.406250
1445,-9.53,2022-10-26 15:48:20.421875
1446,-14.21,2022-10-26 15:48:20.437500
1447,-17.69,2022-10-26 15:48:20.453125
1448,-20.12,2022-10-26 15:48:20.468750
1449,-22.05,2022-10-26 15:48:20.484375
1450,-24.25,2022-10-26 15:48:20.500000
1451,-27.64,2022-10-26 15:48:20.515625
1452,-32.71,2022-10-26 15:48:20.531250
1453,-39.31,2022-10-26 15:48:20.546875
1454,-46.56,2022-10-26 15:48:20.562500
1455,-53.13,2022-10-26 15:48:20.578125
1456,-57.52,2022-10-26 15:48:20.593750
1457,-58.53,2022-10-26 15:48:20.609375
1458,-55.51,2022-10-26 15:48:20.625000
1459,-48.53,2022-10-26 15:48:20.640625
1460,-38.69,2022-10-26 15:48:20.656250
1461,-27.26,2022-10-26 15:48:20.671875
1462,-15.37,2022-10-26 15:48:20.687500
1463,-3.97,2022-10-26 15:48:20.703125
1464,6.16,2022-10-26 15:48:20.718750
1465,14.32,2022-10-26 15:48:20.734375
1466,20.0,2022-10-26 15:48:20.750000
1467,22.97,2022-10-26 15:48:20.765625
1468,23.33,2022-10-26 15:48:20.781250
1469,21.0,2022-10-26 15:48:20.796875
1470,16.42,2022-10-26 15:48:20.812500
1471,10.34,2022-10-26 15:48:20.828125
1472,3.5,2022-10-26 15:48:20.843750
1473,-3.79,2022-10-26 15:48:20.859375
1474,-11.51,2022-10-26 15:48:20.875000
1475,-19.66,2022-10-26 15:48:20.890625
1476,-27.87,2022-10-26 15:48:20.906250
1477,-35.29,2022-10-26 15:48:20.921875
1478,-41.47,2022-10-26 15:48:20.937500
1479,-45.48,2022-10-26 15:48:20.953125
1480,-46.44,2022-10-26 15:48:20.968750
1481,-43.87,2022-10-26 15:48:20.984375
1482,-38.11,2022-10-26 15:48:21.000000
1483,-30.34,2022-10-26 15:48:21.015625
1484,-22.36,2022-10-26 15:48:21.031250
1485,-16.36,2022-10-26 15:48:21.046875
1486,-10.01,2022-10-26 15:48:21.062500
1487,-3.79,2022-10-26 15:48:21.078125
1488,0.34,2022-10-26 15:48:21.093750
1489,0.7,2022-10-26 15:48:21.109375
1490,-2.05,2022-10-26 15:48:21.125000
1491,-5.5,2022-10-26 15:48:21.140625
1492,-7.29,2022-10-26 15:48:21.156250
1493,-6.28,2022-10-26 15:48:21.171875
1494,-2.69,2022-10-26 15:48:21.187500
1495,2.45,2022-10-26 15:48:21.203125
1496,7.31,2022-10-26 15:48:21.218750
1497,11.01,2022-10-26 15:48:21.234375
1498,13.25,2022-10-26 15:48:21.250000
1499,14.23,2022-10-26 15:48:21.265625
1500,14.09,2022-10-26 15:48:21.281250
1501,12.81,2022-10-26 15:48:21.296875
1502,10.46,2022-10-26 15:48:21.312500
1503,7.42,2022-10-26 15:48:21.328125
1504,4.3,2022-10-26 15:48:21.343750
1505,0.12,2022-10-26 15:48:21.359375
1506,-4.43,2022-10-26 15:48:21.375000
1507,-9.21,2022-10-26 15:48:21.390625
1508,-14.4,2022-10-26 15:48:21.406250
1509,-20.55,2022-10-26 15:48:21.421875
1510,-28.35,2022-10-26 15:48:21.437500
1511,-38.07,2022-10-26 15:48:21.453125
1512,-49.02,2022-10-26 15:48:21.468750
1513,-59.35,2022-10-26 15:48:21.484375
1514,-66.71,2022-10-26 15:48:21.500000
1515,-68.49,2022-10-26 15:48:21.515625
1516,-63.46,2022-10-26 15:48:21.531250
1517,-52.17,2022-10-26 15:48:21.546875
1518,-37.14,2022-10-26 15:48:21.562500
1519,-21.96,2022-10-26 15:48:21.578125
1520,-9.85,2022-10-26 15:48:21.593750
1521,-2.55,2022-10-26 15:48:21.609375
1522,0.03,2022-10-26 15:48:21.625000
1523,-1.04,2022-10-26 15:48:21.640625
1524,-3.12,2022-10-26 15:48:21.656250
1525,-4.84,2022-10-26 15:48:21.671875
1526,-5.64,2022-10-26 15:48:21.687500
1527,-5.71,2022-10-26 15:48:21.703125
1528,-5.69,2022-10-26 15:48:21.718750
1529,-6.14,2022-10-26 15:48:21.734375
1530,-7.31,2022-10-26 15:48:21.750000
1531,-9.14,2022-10-26 15:48:21.765625
1532,-11.35,2022-10-26 15:48:21.781250
1533,-13.26,2022-10-26 15:48:21.796875
1534,-14.33,2022-10-26 15:48:21.812500
1535,-13.94,2022-10-26 15:48:21.828125
1536,-11.79,2022-10-26 15:48:21.843750
1537,-8.16,2022-10-26 15:48:21.859375
1538,-3.91,2022-10-26 15:48:21.875000
1539,-0.33,2022-10-26 15:48:21.890625
1540,1.36,2022-10-26 15:48:21.906250
1541,0.45,2022-10-26 15:48:21.921875
1542,-2.89,2022-10-26 15:48:21.937500
1543,-7.9,2022-10-26 15:48:21.953125
1544,-13.53,2022-10-26 15:48:21.968750
1545,-18.58,2022-10-26 15:48:21.984375
1546,-22.02,2022-10-26 15:48:22.000000
1547,-23.3,2022-10-26 15:48:22.015625
1548,-22.63,2022-10-26 15:48:22.031250
1549,-20.88,2022-10-26 15:48:22.046875
1550,-19.22,2022-10-26 15:48:22.062500
1551,-18.6,2022-10-26 15:48:22.078125
1552,-19.3,2022-10-26 15:48:22.093750
1553,-20.55,2022-10-26 15:48:22.109375
1554,-20.1,2022-10-26 15:48:22.125000
1555,-14.63,2022-10-26 15:48:22.140625
1556,-0.93,2022-10-26 15:48:22.156250
1557,22.53,2022-10-26 15:48:22.171875
1558,54.55,2022-10-26 15:48:22.187500
1559,91.38,2022-10-26 15:48:22.203125
1560,127.78,2022-10-26 15:48:22.218750
1561,158.72,2022-10-26 15:48:22.234375
1562,180.35,2022-10-26 15:48:22.250000
1563,191.45,2022-10-26 15:48:22.265625
1564,193.33,2022-10-26 15:48:22.281250
1565,188.55,2022-10-26 15:48:22.296875
1566,179.42,2022-10-26 15:48:22.312500
1567,167.39,2022-10-26 15:48:22.328125
1568,153.4,2022-10-26 15:48:22.343750
1569,138.59,2022-10-26 15:48:22.359375
1570,124.52,2022-10-26 15:48:22.375000
1571,111.45,2022-10-26 15:48:22.390625
1572,99.9,2022-10-26 15:48:22.406250
1573,91.18,2022-10-26 15:48:22.421875
1574,86.54,2022-10-26 15:48:22.437500
1575,86.01,2022-10-26 15:48:22.453125
1576,88.47,2022-10-26 15:48:22.468750
1577,92.61,2022-10-26 15:48:22.484375
1578,97.59,2022-10-26 15:48:22.500000
1579,103.17,2022-10-26 15:48:22.515625
1580,106.53,2022-10-26 15:48:22.531250
1581,106.75,2022-10-26 15:48:22.546875
1582,106.67,2022-10-26 15:48:22.562500
1583,110.99,2022-10-26 15:48:22.578125
1584,122.42,2022-10-26 15:48:22.593750
1585,139.82,2022-10-26 15:48:22.609375
1586,158.84,2022-10-26 15:48:22.625000
1587,173.45,2022-10-26 15:48:22.640625
1588,177.97,2022-10-26 15:48:22.656250
1589,164.07,2022-10-26 15:48:22.671875
1590,129.16,2022-10-26 15:48:22.687500
1591,79.33,2022-10-26 15:48:22.703125
1592,25.39,2022-10-26 15:48:22.718750
1593,-24.11,2022-10-26 15:48:22.734375
1594,-66.03,2022-10-26 15:48:22.750000
1595,-101.54,2022-10-26 15:48:22.765625
1596,-133.87,2022-10-26 15:48:22.781250
1597,-166.45,2022-10-26 15:48:22.796875
1598,-208.45,2022-10-26 15:48:22.812500
1599,-265.36,2022-10-26 15:48:22.828125
1600,-334.96,2022-10-26 15:48:22.843750
1601,-409.79,2022-10-26 15:48:22.859375
1602,-482.5,2022-10-26 15:48:22.875000
1603,-546.97,2022-10-26 15:48:22.890625
1604,-596.79,2022-10-26 15:48:22.906250
1605,-625.59,2022-10-26 15:48:22.921875
1606,-588.09,2022-10-26 15:48:22.937500
1607,-469.14,2022-10-26 15:48:22.953125
1608,-300.74,2022-10-26 15:48:22.968750
1609,-136.68,2022-10-26 15:48:22.984375
1610,-10.88,2022-10-26 15:48:23.000000
1611,71.01,2022-10-26 15:48:23.015625
1612,118.43,2022-10-26 15:48:23.031250
1613,144.0,2022-10-26 15:48:23.046875
1614,157.73,2022-10-26 15:48:23.062500
1615,164.83,2022-10-26 15:48:23.078125
1616,160.48,2022-10-26 15:48:23.093750
1617,142.22,2022-10-26 15:48:23.109375
1618,115.32,2022-10-26 15:48:23.125000
1619,89.64,2022-10-26 15:48:23.140625
1620,72.03,2022-10-26 15:48:23.156250
1621,63.37,2022-10-26 15:48:23.171875
1622,62.08,2022-10-26 15:48:23.187500
1623,64.53,2022-10-26 15:48:23.203125
1624,67.25,2022-10-26 15:48:23.218750
1625,63.32,2022-10-26 15:48:23.234375
1626,49.95,2022-10-26 15:48:23.250000
1627,31.17,2022-10-26 15:48:23.265625
1628,14.61,2022-10-26 15:48:23.281250
1629,5.59,2022-10-26 15:48:23.296875
1630,5.0,2022-10-26 15:48:23.312500
1631,10.74,2022-10-26 15:48:23.328125
1632,19.48,2022-10-26 15:48:23.343750
1633,28.32,2022-10-26 15:48:23.359375
1634,32.48,2022-10-26 15:48:23.375000
1635,29.89,2022-10-26 15:48:23.390625
1636,22.74,2022-10-26 15:48:23.406250
1637,15.47,2022-10-26 15:48:23.421875
1638,11.13,2022-10-26 15:48:23.437500
1639,10.16,2022-10-26 15:48:23.453125
1640,11.37,2022-10-26 15:48:23.468750
1641,12.82,2022-10-26 15:48:23.484375
1642,12.89,2022-10-26 15:48:23.500000
1643,9.1,2022-10-26 15:48:23.515625
1644,0.4,2022-10-26 15:48:23.531250
1645,-12.0,2022-10-26 15:48:23.546875
1646,-25.52,2022-10-26 15:48:23.562500
1647,-37.99,2022-10-26 15:48:23.578125
1648,-48.25,2022-10-26 15:48:23.593750
1649,-55.84,2022-10-26 15:48:23.609375
1650,-60.73,2022-10-26 15:48:23.625000
1651,-62.91,2022-10-26 15:48:23.640625
1652,-62.86,2022-10-26 15:48:23.656250
1653,-60.78,2022-10-26 15:48:23.671875
1654,-56.37,2022-10-26 15:48:23.687500
1655,-49.24,2022-10-26 15:48:23.703125
1656,-39.51,2022-10-26 15:48:23.718750
1657,-27.97,2022-10-26 15:48:23.734375
1658,-15.73,2022-10-26 15:48:23.750000
1659,-3.96,2022-10-26 15:48:23.765625
1660,6.4,2022-10-26 15:48:23.781250
1661,14.78,2022-10-26 15:48:23.796875
1662,20.85,2022-10-26 15:48:23.812500
1663,24.51,2022-10-26 15:48:23.828125
1664,25.83,2022-10-26 15:48:23.843750
1665,25.15,2022-10-26 15:48:23.859375
1666,23.2,2022-10-26 15:48:23.875000
1667,20.93,2022-10-26 15:48:23.890625
1668,19.29,2022-10-26 15:48:23.906250
1669,18.87,2022-10-26 15:48:23.921875
1670,19.68,2022-10-26 15:48:23.937500
1671,21.18,2022-10-26 15:48:23.953125
1672,22.71,2022-10-26 15:48:23.968750
1673,23.85,2022-10-26 15:48:23.984375
1674,24.75,2022-10-26 15:48:24.000000
1675,26.04,2022-10-26 15:48:24.015625
1676,28.47,2022-10-26 15:48:24.031250
1677,32.41,2022-10-26 15:48:24.046875
1678,37.54,2022-10-26 15:48:24.062500
1679,42.89,2022-10-26 15:48:24.078125
1680,47.24,2022-10-26 15:48:24.093750
1681,49.6,2022-10-26 15:48:24.109375
1682,49.62,2022-10-26 15:48:24.125000
1683,47.59,2022-10-26 15:48:24.140625
1684,44.16,2022-10-26 15:48:24.156250
1685,39.95,2022-10-26 15:48:24.171875
1686,35.22,2022-10-26 15:48:24.187500
1687,29.83,2022-10-26 15:48:24.203125
1688,23.47,2022-10-26 15:48:24.218750
1689,15.98,2022-10-26 15:48:24.234375
1690,7.59,2022-10-26 15:48:24.250000
1691,-1.14,2022-10-26 15:48:24.265625
1692,-9.57,2022-10-26 15:48:24.281250
1693,-17.31,2022-10-26 15:48:24.296875
1694,-24.4,2022-10-26 15:48:24.312500
1695,-31.17,2022-10-26 15:48:24.328125
1696,-37.96,2022-10-26 15:48:24.343750
1697,-44.87,2022-10-26 15:48:24.359375
1698,-51.65,2022-10-26 15:48:24.375000
1699,-57.91,2022-10-26 15:48:24.390625
1700,-63.39,2022-10-26 15:48:24.406250
1701,-68.01,2022-10-26 15:48:24.421875
1702,-71.69,2022-10-26 15:48:24.437500
1703,-74.04,2022-10-26 15:48:24.453125
1704,-74.22,2022-10-26 15:48:24.468750
1705,-71.17,2022-10-26 15:48:24.484375
1706,-64.21,2022-10-26 15:48:24.500000
1707,-53.55,2022-10-26 15:48:24.515625
1708,-40.5,2022-10-26 15:48:24.531250
1709,-27.1,2022-10-26 15:48:24.546875
1710,-15.37,2022-10-26 15:48:24.562500
1711,-6.62,2022-10-26 15:48:24.578125
1712,-1.08,2022-10-26 15:48:24.593750
1713,1.86,2022-10-26 15:48:24.609375
1714,3.18,2022-10-26 15:48:24.625000
1715,3.7,2022-10-26 15:48:24.640625
1716,3.89,2022-10-26 15:48:24.656250
1717,3.96,2022-10-26 15:48:24.671875
1718,4.04,2022-10-26 15:48:24.687500
1719,4.31,2022-10-26 15:48:24.703125
1720,4.92,2022-10-26 15:48:24.718750
1721,5.86,2022-10-26 15:48:24.734375
1722,7.02,2022-10-26 15:48:24.750000
1723,8.22,2022-10-26 15:48:24.765625
1724,9.45,2022-10-26 15:48:24.781250
1725,10.92,2022-10-26 15:48:24.796875
1726,12.94,2022-10-26 15:48:24.812500
1727,15.76,2022-10-26 15:48:24.828125
1728,19.29,2022-10-26 15:48:24.843750
1729,23.18,2022-10-26 15:48:24.859375
1730,26.9,2022-10-26 15:48:24.875000
1731,29.96,2022-10-26 15:48:24.890625
1732,32.0,2022-10-26 15:48:24.906250
1733,32.83,2022-10-26 15:48:24.921875
1734,32.28,2022-10-26 15:48:24.937500
1735,30.22,2022-10-26 15:48:24.953125
1736,26.62,2022-10-26 15:48:24.968750
1737,21.69,2022-10-26 15:48:24.984375
1738,15.91,2022-10-26 15:48:25.000000
1739,9.99,2022-10-26 15:48:25.015625
1740,4.62,2022-10-26 15:48:25.031250
1741,0.11,2022-10-26 15:48:25.046875
1742,-3.7,2022-10-26 15:48:25.062500
1743,-7.43,2022-10-26 15:48:25.078125
1744,-11.7,2022-10-26 15:48:25.093750
1745,-16.61,2022-10-26 15:48:25.109375
1746,-21.41,2022-10-26 15:48:25.125000
1747,-24.57,2022-10-26 15:48:25.140625
1748,-24.3,2022-10-26 15:48:25.156250
1749,-19.24,2022-10-26 15:48:25.171875
1750,-9.12,2022-10-26 15:48:25.187500
1751,4.99,2022-10-26 15:48:25.203125
1752,21.01,2022-10-26 15:48:25.218750
1753,36.48,2022-10-26 15:48:25.234375
1754,49.47,2022-10-26 15:48:25.250000
1755,59.05,2022-10-26 15:48:25.265625
1756,65.3,2022-10-26 15:48:25.281250
1757,69.0,2022-10-26 15:48:25.296875
1758,71.13,2022-10-26 15:48:25.312500
1759,72.41,2022-10-26 15:48:25.328125
1760,73.12,2022-10-26 15:48:25.343750
1761,73.09,2022-10-26 15:48:25.359375
1762,72.0,2022-10-26 15:48:25.375000
1763,69.74,2022-10-26 15:48:25.390625
1764,66.69,2022-10-26 15:48:25.406250
1765,63.53,2022-10-26 15:48:25.421875
1766,61.01,2022-10-26 15:48:25.437500
1767,59.9,2022-10-26 15:48:25.453125
1768,60.62,2022-10-26 15:48:25.468750
1769,63.06,2022-10-26 15:48:25.484375
1770,66.48,2022-10-26 15:48:25.500000
1771,69.77,2022-10-26 15:48:25.515625
1772,71.7,2022-10-26 15:48:25.531250
1773,71.45,2022-10-26 15:48:25.546875
1774,68.26,2022-10-26 15:48:25.562500
1775,61.71,2022-10-26 15:48:25.578125
1776,52.48,2022-10-26 15:48:25.593750
1777,42.63,2022-10-26 15:48:25.609375
1778,35.23,2022-10-26 15:48:25.625000
1779,33.51,2022-10-26 15:48:25.640625
1780,39.54,2022-10-26 15:48:25.656250
1781,53.12,2022-10-26 15:48:25.671875
1782,71.61,2022-10-26 15:48:25.687500
1783,89.86,2022-10-26 15:48:25.703125
1784,102.01,2022-10-26 15:48:25.718750
1785,104.3,2022-10-26 15:48:25.734375
1786,96.76,2022-10-26 15:48:25.750000
1787,82.78,2022-10-26 15:48:25.765625
1788,67.35,2022-10-26 15:48:25.781250
1789,54.93,2022-10-26 15:48:25.796875
1790,47.71,2022-10-26 15:48:25.812500
1791,45.57,2022-10-26 15:48:25.828125
1792,45.89,2022-10-26 15:48:25.843750
1793,44.65,2022-10-26 15:48:25.859375
1794,38.94,2022-10-26 15:48:25.875000
1795,27.8,2022-10-26 15:48:25.890625
1796,11.77,2022-10-26 15:48:25.906250
1797,-7.85,2022-10-26 15:48:25.921875
1798,-29.68,2022-10-26 15:48:25.937500
1799,-54.86,2022-10-26 15:48:25.953125
1800,-79.54,2022-10-26 15:48:25.968750
1801,-98.19,2022-10-26 15:48:25.984375
1802,-108.63,2022-10-26 15:48:26.000000
1803,-112.17,2022-10-26 15:48:26.015625
1804,-111.06,2022-10-26 15:48:26.031250
1805,-106.99,2022-10-26 15:48:26.046875
1806,-101.18,2022-10-26 15:48:26.062500
1807,-94.87,2022-10-26 15:48:26.078125
1808,-89.27,2022-10-26 15:48:26.093750
1809,-86.46,2022-10-26 15:48:26.109375
1810,-85.55,2022-10-26 15:48:26.125000
1811,-85.26,2022-10-26 15:48:26.140625
1812,-83.34,2022-10-26 15:48:26.156250
1813,-77.53,2022-10-26 15:48:26.171875
1814,-66.9,2022-10-26 15:48:26.187500
1815,-52.58,2022-10-26 15:48:26.203125
1816,-37.17,2022-10-26 15:48:26.218750
1817,-23.64,2022-10-26 15:48:26.234375
1818,-13.98,2022-10-26 15:48:26.250000
1819,-7.84,2022-10-26 15:48:26.265625
1820,-5.73,2022-10-26 15:48:26.281250
1821,-7.44,2022-10-26 15:48:26.296875
1822,-12.27,2022-10-26 15:48:26.312500
1823,-19.4,2022-10-26 15:48:26.328125
1824,-27.89,2022-10-26 15:48:26.343750
1825,-36.39,2022-10-26 15:48:26.359375
1826,-43.16,2022-10-26 15:48:26.375000
1827,-46.35,2022-10-26 15:48:26.390625
1828,-45.02,2022-10-26 15:48:26.406250
1829,-40.19,2022-10-26 15:48:26.421875
1830,-33.67,2022-10-26 15:48:26.437500
1831,-27.37,2022-10-26 15:48:26.453125
1832,-22.7,2022-10-26 15:48:26.468750
1833,-20.18,2022-10-26 15:48:26.484375
1834,-19.38,2022-10-26 15:48:26.500000
1835,-19.49,2022-10-26 15:48:26.515625
1836,-19.77,2022-10-26 15:48:26.531250
1837,-20.04,2022-10-26 15:48:26.546875
1838,-21.1,2022-10-26 15:48:26.562500
1839,-23.65,2022-10-26 15:48:26.578125
1840,-27.84,2022-10-26 15:48:26.593750
1841,-33.04,2022-10-26 15:48:26.609375
1842,-38.07,2022-10-26 15:48:26.625000
1843,-41.64,2022-10-26 15:48:26.640625
1844,-42.88,2022-10-26 15:48:26.656250
1845,-41.74,2022-10-26 15:48:26.671875
1846,-38.89,2022-10-26 15:48:26.687500
1847,-35.61,2022-10-26 15:48:26.703125
1848,-32.92,2022-10-26 15:48:26.718750
1849,-31.23,2022-10-26 15:48:26.734375
1850,-30.16,2022-10-26 15:48:26.750000
1851,-28.73,2022-10-26 15:48:26.765625
1852,-25.52,2022-10-26 15:48:26.781250
1853,-19.12,2022-10-26 15:48:26.796875
1854,-8.43,2022-10-26 15:48:26.812500
1855,6.87,2022-10-26 15:48:26.828125
1856,25.87,2022-10-26 15:48:26.843750
1857,46.41,2022-10-26 15:48:26.859375
1858,65.51,2022-10-26 15:48:26.875000
1859,80.07,2022-10-26 15:48:26.890625
1860,87.86,2022-10-26 15:48:26.906250
1861,88.11,2022-10-26 15:48:26.921875
1862,81.44,2022-10-26 15:48:26.937500
1863,69.35,2022-10-26 15:48:26.953125
1864,53.43,2022-10-26 15:48:26.968750
1865,34.89,2022-10-26 15:48:26.984375
1866,14.5,2022-10-26 15:48:27.000000
1867,-6.99,2022-10-26 15:48:27.015625
1868,-28.63,2022-10-26 15:48:27.031250
1869,-49.13,2022-10-26 15:48:27.046875
1870,-67.11,2022-10-26 15:48:27.062500
1871,-81.48,2022-10-26 15:48:27.078125
1872,-91.73,2022-10-26 15:48:27.093750
1873,-97.88,2022-10-26 15:48:27.109375
1874,-100.34,2022-10-26 15:48:27.125000
1875,-99.5,2022-10-26 15:48:27.140625
1876,-95.62,2022-10-26 15:48:27.156250
1877,-88.77,2022-10-26 15:48:27.171875
1878,-79.0,2022-10-26 15:48:27.187500
1879,-66.69,2022-10-26 15:48:27.203125
1880,-52.75,2022-10-26 15:48:27.218750
1881,-38.73,2022-10-26 15:48:27.234375
1882,-26.6,2022-10-26 15:48:27.250000
1883,-18.15,2022-10-26 15:48:27.265625
1884,-14.33,2022-10-26 15:48:27.281250
1885,-14.71,2022-10-26 15:48:27.296875
1886,-17.52,2022-10-26 15:48:27.312500
1887,-20.18,2022-10-26 15:48:27.328125
1888,-20.22,2022-10-26 15:48:27.343750
1889,-16.16,2022-10-26 15:48:27.359375
1890,-7.98,2022-10-26 15:48:27.375000
1891,2.93,2022-10-26 15:48:27.390625
1892,14.42,2022-10-26 15:48:27.406250
1893,24.29,2022-10-26 15:48:27.421875
1894,31.04,2022-10-26 15:48:27.437500
1895,34.19,2022-10-26 15:48:27.453125
1896,34.16,2022-10-26 15:48:27.468750
1897,31.85,2022-10-26 15:48:27.484375
1898,28.04,2022-10-26 15:48:27.500000
1899,23.11,2022-10-26 15:48:27.515625
1900,17.09,2022-10-26 15:48:27.531250
1901,10.21,2022-10-26 15:48:27.546875
1902,3.36,2022-10-26 15:48:27.562500
1903,-1.71,2022-10-26 15:48:27.578125
1904,-2.72,2022-10-26 15:48:27.593750
1905,2.26,2022-10-26 15:48:27.609375
1906,13.96,2022-10-26 15:48:27.625000
1907,31.45,2022-10-26 15:48:27.640625
1908,52.23,2022-10-26 15:48:27.656250
1909,72.97,2022-10-26 15:48:27.671875
1910,90.54,2022-10-26 15:48:27.687500
1911,102.67,2022-10-26 15:48:27.703125
1912,108.4,2022-10-26 15:48:27.718750
1913,107.95,2022-10-26 15:48:27.734375
1914,102.29,2022-10-26 15:48:27.750000
1915,92.65,2022-10-26 15:48:27.765625
1916,80.13,2022-10-26 15:48:27.781250
1917,65.61,2022-10-26 15:48:27.796875
1918,49.89,2022-10-26 15:48:27.812500
1919,33.82,2022-10-26 15:48:27.828125
1920,18.53,2022-10-26 15:48:27.843750
1921,5.29,2022-10-26 15:48:27.859375
1922,-4.85,2022-10-26 15:48:27.875000
1923,-11.44,2022-10-26 15:48:27.890625
1924,-14.9,2022-10-26 15:48:27.906250
1925,-16.39,2022-10-26 15:48:27.921875
1926,-17.35,2022-10-26 15:48:27.937500
1927,-18.9,2022-10-26 15:48:27.953125
1928,-21.46,2022-10-26 15:48:27.968750
1929,-24.73,2022-10-26 15:48:27.984375
1930,-27.98,2022-10-26 15:48:28.000000
1931,-30.62,2022-10-26 15:48:28.015625
1932,-32.55,2022-10-26 15:48:28.031250
1933,-34.22,2022-10-26 15:48:28.046875
1934,-36.46,2022-10-26 15:48:28.062500
1935,-40.06,2022-10-26 15:48:28.078125
1936,-45.39,2022-10-26 15:48:28.093750
1937,-52.14,2022-10-26 15:48:28.109375
1938,-59.44,2022-10-26 15:48:28.125000
1939,-66.08,2022-10-26 15:48:28.140625
1940,-71.0,2022-10-26 15:48:28.156250
1941,-73.71,2022-10-26 15:48:28.171875
1942,-74.49,2022-10-26 15:48:28.187500
1943,-74.38,2022-10-26 15:48:28.203125
1944,-74.88,2022-10-26 15:48:28.218750
1945,-77.4,2022-10-26 15:48:28.234375
1946,-82.87,2022-10-26 15:48:28.250000
1947,-91.44,2022-10-26 15:48:28.265625
1948,-102.41,2022-10-26 15:48:28.281250
1949,-114.41,2022-10-26 15:48:28.296875
1950,-125.48,2022-10-26 15:48:28.312500
1951,-133.23,2022-10-26 15:48:28.328125
1952,-135.11,2022-10-26 15:48:28.343750
1953,-128.68,2022-10-26 15:48:28.359375
1954,-112.27,2022-10-26 15:48:28.375000
1955,-85.66,2022-10-26 15:48:28.390625
1956,-50.51,2022-10-26 15:48:28.406250
1957,-10.28,2022-10-26 15:48:28.421875
1958,30.5,2022-10-26 15:48:28.437500
1959,67.36,2022-10-26 15:48:28.453125
1960,97.0,2022-10-26 15:48:28.468750
1961,117.83,2022-10-26 15:48:28.484375
1962,129.91,2022-10-26 15:48:28.500000
1963,134.41,2022-10-26 15:48:28.515625
1964,132.79,2022-10-26 15:48:28.531250
1965,126.42,2022-10-26 15:48:28.546875
1966,116.42,2022-10-26 15:48:28.562500
1967,103.83,2022-10-26 15:48:28.578125
1968,89.69,2022-10-26 15:48:28.593750
1969,75.07,2022-10-26 15:48:28.609375
1970,60.85,2022-10-26 15:48:28.625000
1971,47.55,2022-10-26 15:48:28.640625
1972,35.3,2022-10-26 15:48:28.656250
1973,24.08,2022-10-26 15:48:28.671875
1974,13.91,2022-10-26 15:48:28.687500
1975,4.98,2022-10-26 15:48:28.703125
1976,-2.39,2022-10-26 15:48:28.718750
1977,-8.04,2022-10-26 15:48:28.734375
1978,-12.16,2022-10-26 15:48:28.750000
1979,-15.29,2022-10-26 15:48:28.765625
1980,-18.17,2022-10-26 15:48:28.781250
1981,-21.44,2022-10-26 15:48:28.796875
1982,-25.45,2022-10-26 15:48:28.812500
1983,-30.24,2022-10-26 15:48:28.828125
1984,-35.74,2022-10-26 15:48:28.843750
1985,-41.96,2022-10-26 15:48:28.859375
1986,-49.1,2022-10-26 15:48:28.875000
1987,-57.46,2022-10-26 15:48:28.890625
1988,-67.22,2022-10-26 15:48:28.906250
1989,-78.21,2022-10-26 15:48:28.921875
1990,-89.79,2022-10-26 15:48:28.937500
1991,-100.99,2022-10-26 15:48:28.953125
1992,-110.66,2022-10-26 15:48:28.968750
1993,-117.8,2022-10-26 15:48:28.984375
1994,-121.74,2022-10-26 15:48:29.000000
1995,-122.29,2022-10-26 15:48:29.015625
1996,-119.72,2022-10-26 15:48:29.031250
1997,-114.77,2022-10-26 15:48:29.046875
1998,-108.49,2022-10-26 15:48:29.062500
1999,-102.01,2022-10-26 15:48:29.078125
2000,-96.18,2022-10-26 15:48:29.093750
2001,-91.31,2022-10-26 15:48:29.109375
2002,-86.94,2022-10-26 15:48:29.125000
2003,-81.89,2022-10-26 15:48:29.140625
2004,-74.62,2022-10-26 15:48:29.156250
2005,-63.64,2022-10-26 15:48:29.171875
2006,-48.08,2022-10-26 15:48:29.187500
2007,-27.92,2022-10-26 15:48:29.203125
2008,-3.97,2022-10-26 15:48:29.218750
2009,22.4,2022-10-26 15:48:29.234375
2010,49.62,2022-10-26 15:48:29.250000
2011,76.16,2022-10-26 15:48:29.265625
2012,100.64,2022-10-26 15:48:29.281250
2013,121.8,2022-10-26 15:48:29.296875
2014,138.48,2022-10-26 15:48:29.312500
2015,149.69,2022-10-26 15:48:29.328125
2016,154.91,2022-10-26 15:48:29.343750
2017,154.31,2022-10-26 15:48:29.359375
2018,148.81,2022-10-26 15:48:29.375000
2019,140.0,2022-10-26 15:48:29.390625
2020,129.66,2022-10-26 15:48:29.406250
2021,119.36,2022-10-26 15:48:29.421875
2022,110.14,2022-10-26 15:48:29.437500
2023,102.42,2022-10-26 15:48:29.453125
2024,96.17,2022-10-26 15:48:29.468750
2025,91.27,2022-10-26 15:48:29.484375
2026,87.61,2022-10-26 15:48:29.500000
2027,85.17,2022-10-26 15:48:29.515625
2028,83.86,2022-10-26 15:48:29.531250
2029,83.37,2022-10-26 15:48:29.546875
2030,83.16,2022-10-26 15:48:29.562500
2031,82.54,2022-10-26 15:48:29.578125
2032,80.89,2022-10-26 15:48:29.593750
2033,77.87,2022-10-26 15:48:29.609375
2034,73.49,2022-10-26 15:48:29.625000
2035,68.04,2022-10-26 15:48:29.640625
2036,61.95,2022-10-26 15:48:29.656250
2037,55.62,2022-10-26 15:48:29.671875
2038,49.29,2022-10-26 15:48:29.687500
2039,43.02,2022-10-26 15:48:29.703125
2040,36.75,2022-10-26 15:48:29.718750
2041,30.33,2022-10-26 15:48:29.734375
2042,23.64,2022-10-26 15:48:29.750000
2043,16.65,2022-10-26 15:48:29.765625
2044,9.47,2022-10-26 15:48:29.781250
2045,2.35,2022-10-26 15:48:29.796875
2046,-4.44,2022-10-26 15:48:29.812500
2047,-10.63,2022-10-26 15:48:29.828125
2048,-16.12,2022-10-26 15:48:29.843750
2049,-20.97,2022-10-26 15:48:29.859375
2050,-25.46,2022-10-26 15:48:29.875000
2051,-30.05,2022-10-26 15:48:29.890625
2052,-35.19,2022-10-26 15:48:29.906250
2053,-41.21,2022-10-26 15:48:29.921875
2054,-48.06,2022-10-26 15:48:29.937500
2055,-55.1,2022-10-26 15:48:29.953125
2056,-61.09,2022-10-26 15:48:29.968750
2057,-64.38,2022-10-26 15:48:29.984375
2058,-63.31,2022-10-26 15:48:30.000000
2059,-56.76,2022-10-26 15:48:30.015625
2060,-44.54,2022-10-26 15:48:30.031250
2061,-27.55,2022-10-26 15:48:30.046875
2062,-7.53,2022-10-26 15:48:30.062500
2063,13.35,2022-10-26 15:48:30.078125
2064,33.01,2022-10-26 15:48:30.093750
2065,49.83,2022-10-26 15:48:30.109375
2066,62.73,2022-10-26 15:48:30.125000
2067,71.15,2022-10-26 15:48:30.140625
2068,74.95,2022-10-26 15:48:30.156250
2069,74.36,2022-10-26 15:48:30.171875
2070,69.94,2022-10-26 15:48:30.187500
2071,62.64,2022-10-26 15:48:30.203125
2072,53.67,2022-10-26 15:48:30.218750
2073,44.35,2022-10-26 15:48:30.234375
2074,35.86,2022-10-26 15:48:30.250000
2075,29.03,2022-10-26 15:48:30.265625
2076,24.31,2022-10-26 15:48:30.281250
2077,21.74,2022-10-26 15:48:30.296875
2078,21.12,2022-10-26 15:48:30.312500
2079,22.12,2022-10-26 15:48:30.328125
2080,24.35,2022-10-26 15:48:30.343750
2081,27.35,2022-10-26 15:48:30.359375
2082,30.64,2022-10-26 15:48:30.375000
2083,33.66,2022-10-26 15:48:30.390625
2084,35.91,2022-10-26 15:48:30.406250
2085,37.02,2022-10-26 15:48:30.421875
2086,36.83,2022-10-26 15:48:30.437500
2087,35.44,2022-10-26 15:48:30.453125
2088,33.13,2022-10-26 15:48:30.468750
2089,30.2,2022-10-26 15:48:30.484375
2090,26.93,2022-10-26 15:48:30.500000
2091,23.47,2022-10-26 15:48:30.515625
2092,19.79,2022-10-26 15:48:30.531250
2093,15.8,2022-10-26 15:48:30.546875
2094,11.41,2022-10-26 15:48:30.562500
2095,6.59,2022-10-26 15:48:30.578125
2096,1.47,2022-10-26 15:48:30.593750
2097,-3.73,2022-10-26 15:48:30.609375
2098,-8.7,2022-10-26 15:48:30.625000
2099,-13.21,2022-10-26 15:48:30.640625
2100,-17.14,2022-10-26 15:48:30.656250
2101,-20.64,2022-10-26 15:48:30.671875
2102,-24.08,2022-10-26 15:48:30.687500
2103,-27.98,2022-10-26 15:48:30.703125
2104,-32.82,2022-10-26 15:48:30.718750
2105,-38.74,2022-10-26 15:48:30.734375
2106,-45.3,2022-10-26 15:48:30.750000
2107,-51.46,2022-10-26 15:48:30.765625
2108,-55.6,2022-10-26 15:48:30.781250
2109,-56.02,2022-10-26 15:48:30.796875
2110,-51.38,2022-10-26 15:48:30.812500
2111,-41.22,2022-10-26 15:48:30.828125
2112,-26.15,2022-10-26 15:48:30.843750
2113,-7.75,2022-10-26 15:48:30.859375
2114,11.82,2022-10-26 15:48:30.875000
2115,30.34,2022-10-26 15:48:30.890625
2116,46.01,2022-10-26 15:48:30.906250
2117,57.67,2022-10-26 15:48:30.921875
2118,64.78,2022-10-26 15:48:30.937500
2119,67.35,2022-10-26 15:48:30.953125
2120,65.76,2022-10-26 15:48:30.968750
2121,60.63,2022-10-26 15:48:30.984375
2122,52.8,2022-10-26 15:48:31.000000
2123,43.27,2022-10-26 15:48:31.015625
2124,33.14,2022-10-26 15:48:31.031250
2125,23.53,2022-10-26 15:48:31.046875
2126,15.4,2022-10-26 15:48:31.062500
2127,9.44,2022-10-26 15:48:31.078125
2128,5.97,2022-10-26 15:48:31.093750
2129,4.89,2022-10-26 15:48:31.109375
2130,5.8,2022-10-26 15:48:31.125000
2131,8.06,2022-10-26 15:48:31.140625
2132,10.99,2022-10-26 15:48:31.156250
2133,13.94,2022-10-26 15:48:31.171875
2134,16.36,2022-10-26 15:48:31.187500
2135,17.83,2022-10-26 15:48:31.203125
2136,18.06,2022-10-26 15:48:31.218750
2137,16.92,2022-10-26 15:48:31.234375
2138,14.47,2022-10-26 15:48:31.250000
2139,10.9,2022-10-26 15:48:31.265625
2140,6.55,2022-10-26 15:48:31.281250
2141,1.7,2022-10-26 15:48:31.296875
2142,-3.43,2022-10-26 15:48:31.312500
2143,-8.74,2022-10-26 15:48:31.328125
2144,-14.23,2022-10-26 15:48:31.343750
2145,-19.89,2022-10-26 15:48:31.359375
2146,-25.62,2022-10-26 15:48:31.375000
2147,-31.29,2022-10-26 15:48:31.390625
2148,-36.72,2022-10-26 15:48:31.406250
2149,-41.82,2022-10-26 15:48:31.421875
2150,-46.63,2022-10-26 15:48:31.437500
2151,-51.39,2022-10-26 15:48:31.453125
2152,-56.46,2022-10-26 15:48:31.468750
2153,-62.29,2022-10-26 15:48:31.484375
2154,-69.11,2022-10-26 15:48:31.500000
2155,-76.72,2022-10-26 15:48:31.515625
2156,-84.23,2022-10-26 15:48:31.531250
2157,-90.08,2022-10-26 15:48:31.546875
2158,-92.36,2022-10-26 15:48:31.562500
2159,-89.28,2022-10-26 15:48:31.578125
2160,-79.85,2022-10-26 15:48:31.593750
2161,-64.19,2022-10-26 15:48:31.609375
2162,-43.64,2022-10-26 15:48:31.625000
2163,-20.41,2022-10-26 15:48:31.640625
2164,2.94,2022-10-26 15:48:31.656250
2165,24.11,2022-10-26 15:48:31.671875
2166,41.46,2022-10-26 15:48:31.687500
2167,54.12,2022-10-26 15:48:31.703125
2168,61.98,2022-10-26 15:48:31.718750
2169,65.39,2022-10-26 15:48:31.734375
2170,64.98,2022-10-26 15:48:31.750000
2171,61.51,2022-10-26 15:48:31.765625
2172,55.81,2022-10-26 15:48:31.781250
2173,48.76,2022-10-26 15:48:31.796875
2174,41.31,2022-10-26 15:48:31.812500
2175,34.35,2022-10-26 15:48:31.828125
2176,28.59,2022-10-26 15:48:31.843750
2177,24.4,2022-10-26 15:48:31.859375
2178,21.83,2022-10-26 15:48:31.875000
2179,20.68,2022-10-26 15:48:31.890625
2180,20.68,2022-10-26 15:48:31.906250
2181,21.6,2022-10-26 15:48:31.921875
2182,23.27,2022-10-26 15:48:31.937500
2183,25.5,2022-10-26 15:48:31.953125
2184,27.97,2022-10-26 15:48:31.968750
2185,30.14,2022-10-26 15:48:31.984375
2186,31.37,2022-10-26 15:48:32.000000
2187,31.08,2022-10-26 15:48:32.015625
2188,28.93,2022-10-26 15:48:32.031250
2189,24.97,2022-10-26 15:48:32.046875
2190,19.61,2022-10-26 15:48:32.062500
2191,13.52,2022-10-26 15:48:32.078125
2192,7.43,2022-10-26 15:48:32.093750
2193,1.82,2022-10-26 15:48:32.109375
2194,-3.16,2022-10-26 15:48:32.125000
2195,-7.76,2022-10-26 15:48:32.140625
2196,-12.43,2022-10-26 15:48:32.156250
2197,-17.58,2022-10-26 15:48:32.171875
2198,-23.38,2022-10-26 15:48:32.187500
2199,-29.63,2022-10-26 15:48:32.203125
2200,-35.88,2022-10-26 15:48:32.218750
2201,-41.64,2022-10-26 15:48:32.234375
2202,-46.56,2022-10-26 15:48:32.250000
2203,-50.67,2022-10-26 15:48:32.265625
2204,-54.34,2022-10-26 15:48:32.281250
2205,-58.23,2022-10-26 15:48:32.296875
2206,-63.03,2022-10-26 15:48:32.312500
2207,-69.19,2022-10-26 15:48:32.328125
2208,-76.63,2022-10-26 15:48:32.343750
2209,-84.57,2022-10-26 15:48:32.359375
2210,-91.51,2022-10-26 15:48:32.375000
2211,-95.48,2022-10-26 15:48:32.390625
2212,-94.56,2022-10-26 15:48:32.406250
2213,-87.42,2022-10-26 15:48:32.421875
2214,-73.81,2022-10-26 15:48:32.437500
2215,-54.75,2022-10-26 15:48:32.453125
2216,-32.29,2022-10-26 15:48:32.468750
2217,-9.01,2022-10-26 15:48:32.484375
2218,12.6,2022-10-26 15:48:32.500000
2219,30.69,2022-10-26 15:48:32.515625
2220,44.24,2022-10-26 15:48:32.531250
2221,53.07,2022-10-26 15:48:32.546875
2222,57.58,2022-10-26 15:48:32.562500
2223,58.46,2022-10-26 15:48:32.578125
2224,56.47,2022-10-26 15:48:32.593750
2225,52.39,2022-10-26 15:48:32.609375
2226,46.99,2022-10-26 15:48:32.625000
2227,41.05,2022-10-26 15:48:32.640625
2228,35.29,2022-10-26 15:48:32.656250
2229,30.26,2022-10-26 15:48:32.671875
2230,26.28,2022-10-26 15:48:32.687500
2231,23.43,2022-10-26 15:48:32.703125
2232,21.61,2022-10-26 15:48:32.718750
2233,20.68,2022-10-26 15:48:32.734375
2234,20.53,2022-10-26 15:48:32.750000
2235,21.11,2022-10-26 15:48:32.765625
2236,22.3,2022-10-26 15:48:32.781250
2237,23.83,2022-10-26 15:48:32.796875
2238,25.25,2022-10-26 15:48:32.812500
2239,26.05,2022-10-26 15:48:32.828125
2240,25.86,2022-10-26 15:48:32.843750
2241,24.56,2022-10-26 15:48:32.859375
2242,22.27,2022-10-26 15:48:32.875000
2243,19.29,2022-10-26 15:48:32.890625
2244,15.88,2022-10-26 15:48:32.906250
2245,12.18,2022-10-26 15:48:32.921875
2246,8.18,2022-10-26 15:48:32.937500
2247,3.86,2022-10-26 15:48:32.953125
2248,-0.77,2022-10-26 15:48:32.968750
2249,-5.56,2022-10-26 15:48:32.984375
2250,-10.34,2022-10-26 15:48:33.000000
2251,-14.95,2022-10-26 15:48:33.015625
2252,-19.33,2022-10-26 15:48:33.031250
2253,-23.55,2022-10-26 15:48:33.046875
2254,-27.69,2022-10-26 15:48:33.062500
2255,-31.84,2022-10-26 15:48:33.078125
2256,-35.97,2022-10-26 15:48:33.093750
2257,-39.98,2022-10-26 15:48:33.109375
2258,-43.69,2022-10-26 15:48:33.125000
2259,-46.9,2022-10-26 15:48:33.140625
2260,-49.52,2022-10-26 15:48:33.156250
2261,-51.58,2022-10-26 15:48:33.171875
2262,-53.32,2022-10-26 15:48:33.187500
2263,-55.14,2022-10-26 15:48:33.203125
2264,-57.55,2022-10-26 15:48:33.218750
2265,-61.02,2022-10-26 15:48:33.234375
2266,-65.83,2022-10-26 15:48:33.250000
2267,-71.88,2022-10-26 15:48:33.265625
2268,-78.52,2022-10-26 15:48:33.281250
2269,-84.5,2022-10-26 15:48:33.296875
2270,-88.17,2022-10-26 15:48:33.312500
2271,-87.73,2022-10-26 15:48:33.328125
2272,-81.81,2022-10-26 15:48:33.343750
2273,-69.89,2022-10-26 15:48:33.359375
2274,-52.6,2022-10-26 15:48:33.375000
2275,-31.6,2022-10-26 15:48:33.390625
2276,-9.27,2022-10-26 15:48:33.406250
2277,12.01,2022-10-26 15:48:33.421875
2278,30.27,2022-10-26 15:48:33.437500
2279,44.36,2022-10-26 15:48:33.453125
2280,53.88,2022-10-26 15:48:33.468750
2281,59.03,2022-10-26 15:48:33.484375
2282,60.38,2022-10-26 15:48:33.500000
2283,58.66,2022-10-26 15:48:33.515625
2284,54.73,2022-10-26 15:48:33.531250
2285,49.56,2022-10-26 15:48:33.546875
2286,44.1,2022-10-26 15:48:33.562500
2287,39.31,2022-10-26 15:48:33.578125
2288,35.92,2022-10-26 15:48:33.593750
2289,34.35,2022-10-26 15:48:33.609375
2290,34.65,2022-10-26 15:48:33.625000
2291,36.55,2022-10-26 15:48:33.640625
2292,39.6,2022-10-26 15:48:33.656250
2293,43.26,2022-10-26 15:48:33.671875
2294,47.1,2022-10-26 15:48:33.687500
2295,50.76,2022-10-26 15:48:33.703125
2296,53.99,2022-10-26 15:48:33.718750
2297,56.56,2022-10-26 15:48:33.734375
2298,58.2,2022-10-26 15:48:33.750000
2299,58.68,2022-10-26 15:48:33.765625
2300,57.84,2022-10-26 15:48:33.781250
2301,55.68,2022-10-26 15:48:33.796875
2302,52.41,2022-10-26 15:48:33.812500
2303,48.39,2022-10-26 15:48:33.828125
2304,44.06,2022-10-26 15:48:33.843750
2305,39.77,2022-10-26 15:48:33.859375
2306,35.71,2022-10-26 15:48:33.875000
2307,31.86,2022-10-26 15:48:33.890625
2308,28.07,2022-10-26 15:48:33.906250
2309,24.16,2022-10-26 15:48:33.921875
2310,20.04,2022-10-26 15:48:33.937500
2311,15.82,2022-10-26 15:48:33.953125
2312,11.75,2022-10-26 15:48:33.968750
2313,8.09,2022-10-26 15:48:33.984375
2314,4.98,2022-10-26 15:48:34.000000
2315,2.32,2022-10-26 15:48:34.015625
2316,-0.27,2022-10-26 15:48:34.031250
2317,-3.17,2022-10-26 15:48:34.046875
2318,-6.66,2022-10-26 15:48:34.062500
2319,-10.72,2022-10-26 15:48:34.078125
2320,-15.05,2022-10-26 15:48:34.093750
2321,-19.27,2022-10-26 15:48:34.109375
2322,-23.09,2022-10-26 15:48:34.125000
2323,-26.51,2022-10-26 15:48:34.140625
2324,-29.84,2022-10-26 15:48:34.156250
2325,-33.52,2022-10-26 15:48:34.171875
2326,-38.04,2022-10-26 15:48:34.187500
2327,-43.72,2022-10-26 15:48:34.203125
2328,-50.57,2022-10-26 15:48:34.218750
2329,-58.12,2022-10-26 15:48:34.234375
2330,-65.33,2022-10-26 15:48:34.250000
2331,-70.59,2022-10-26 15:48:34.265625
2332,-72.08,2022-10-26 15:48:34.281250
2333,-68.17,2022-10-26 15:48:34.296875
2334,-58.05,2022-10-26 15:48:34.312500
2335,-42.09,2022-10-26 15:48:34.328125
2336,-21.86,2022-10-26 15:48:34.343750
2337,0.3,2022-10-26 15:48:34.359375
2338,21.81,2022-10-26 15:48:34.375000
2339,40.56,2022-10-26 15:48:34.390625
2340,55.16,2022-10-26 15:48:34.406250
2341,65.08,2022-10-26 15:48:34.421875
2342,70.43,2022-10-26 15:48:34.437500
2343,71.7,2022-10-26 15:48:34.453125
2344,69.62,2022-10-26 15:48:34.468750
2345,65.05,2022-10-26 15:48:34.484375
2346,58.91,2022-10-26 15:48:34.500000
2347,52.19,2022-10-26 15:48:34.515625
2348,45.83,2022-10-26 15:48:34.531250
2349,40.61,2022-10-26 15:48:34.546875
2350,37.0,2022-10-26 15:48:34.562500
2351,35.12,2022-10-26 15:48:34.578125
2352,34.77,2022-10-26 15:48:34.593750
2353,35.47,2022-10-26 15:48:34.609375
2354,36.7,2022-10-26 15:48:34.625000
2355,37.99,2022-10-26 15:48:34.640625
2356,39.01,2022-10-26 15:48:34.656250
2357,39.58,2022-10-26 15:48:34.671875
2358,39.56,2022-10-26 15:48:34.687500
2359,38.82,2022-10-26 15:48:34.703125
2360,37.22,2022-10-26 15:48:34.718750
2361,34.62,2022-10-26 15:48:34.734375
2362,30.99,2022-10-26 15:48:34.750000
2363,26.45,2022-10-26 15:48:34.765625
2364,21.28,2022-10-26 15:48:34.781250
2365,15.89,2022-10-26 15:48:34.796875
2366,10.7,2022-10-26 15:48:34.812500
2367,6.04,2022-10-26 15:48:34.828125
2368,2.1,2022-10-26 15:48:34.843750
2369,-1.13,2022-10-26 15:48:34.859375
2370,-3.81,2022-10-26 15:48:34.875000
2371,-6.18,2022-10-26 15:48:34.890625
2372,-8.48,2022-10-26 15:48:34.906250
2373,-10.86,2022-10-26 15:48:34.921875
2374,-13.37,2022-10-26 15:48:34.937500
2375,-15.97,2022-10-26 15:48:34.953125
2376,-18.55,2022-10-26 15:48:34.968750
2377,-21.02,2022-10-26 15:48:34.984375
2378,-23.31,2022-10-26 15:48:35.000000
2379,-25.41,2022-10-26 15:48:35.015625
2380,-27.4,2022-10-26 15:48:35.031250
2381,-29.43,2022-10-26 15:48:35.046875
2382,-31.76,2022-10-26 15:48:35.062500
2383,-34.58,2022-10-26 15:48:35.078125
2384,-38.0,2022-10-26 15:48:35.093750
2385,-41.92,2022-10-26 15:48:35.109375
2386,-46.05,2022-10-26 15:48:35.125000
2387,-50.04,2022-10-26 15:48:35.140625
2388,-53.61,2022-10-26 15:48:35.156250
2389,-56.65,2022-10-26 15:48:35.171875
2390,-59.33,2022-10-26 15:48:35.187500
2391,-62.03,2022-10-26 15:48:35.203125
2392,-65.26,2022-10-26 15:48:35.218750
2393,-69.55,2022-10-26 15:48:35.234375
2394,-75.22,2022-10-26 15:48:35.250000
2395,-82.22,2022-10-26 15:48:35.265625
2396,-89.86,2022-10-26 15:48:35.281250
2397,-96.74,2022-10-26 15:48:35.296875
2398,-100.89,2022-10-26 15:48:35.312500
2399,-100.26,2022-10-26 15:48:35.328125
2400,-93.29,2022-10-26 15:48:35.343750
2401,-79.58,2022-10-26 15:48:35.359375
2402,-60.09,2022-10-26 15:48:35.375000
2403,-37.0,2022-10-26 15:48:35.390625
2404,-13.12,2022-10-26 15:48:35.406250
2405,8.89,2022-10-26 15:48:35.421875
2406,27.08,2022-10-26 15:48:35.437500
2407,40.52,2022-10-26 15:48:35.453125
2408,49.2,2022-10-26 15:48:35.468750
2409,53.71,2022-10-26 15:48:35.484375
2410,54.88,2022-10-26 15:48:35.500000
2411,53.53,2022-10-26 15:48:35.515625
2412,50.4,2022-10-26 15:48:35.531250
2413,46.17,2022-10-26 15:48:35.546875
2414,41.5,2022-10-26 15:48:35.562500
2415,37.03,2022-10-26 15:48:35.578125
2416,33.31,2022-10-26 15:48:35.593750
2417,30.7,2022-10-26 15:48:35.609375
2418,29.35,2022-10-26 15:48:35.625000
2419,29.15,2022-10-26 15:48:35.640625
2420,29.84,2022-10-26 15:48:35.656250
2421,31.09,2022-10-26 15:48:35.671875
2422,32.59,2022-10-26 15:48:35.687500
2423,34.09,2022-10-26 15:48:35.703125
2424,35.42,2022-10-26 15:48:35.718750
2425,36.46,2022-10-26 15:48:35.734375
2426,37.08,2022-10-26 15:48:35.750000
2427,37.07,2022-10-26 15:48:35.765625
2428,36.19,2022-10-26 15:48:35.781250
2429,34.23,2022-10-26 15:48:35.796875
2430,31.13,2022-10-26 15:48:35.812500
2431,27.06,2022-10-26 15:48:35.828125
2432,22.46,2022-10-26 15:48:35.843750
2433,17.89,2022-10-26 15:48:35.859375
2434,13.88,2022-10-26 15:48:35.875000
2435,10.72,2022-10-26 15:48:35.890625
2436,8.39,2022-10-26 15:48:35.906250
2437,6.54,2022-10-26 15:48:35.921875
2438,4.77,2022-10-26 15:48:35.937500
2439,2.78,2022-10-26 15:48:35.953125
2440,0.51,2022-10-26 15:48:35.968750
2441,-1.84,2022-10-26 15:48:35.984375
2442,-4.0,2022-10-26 15:48:36.000000
2443,-5.72,2022-10-26 15:48:36.015625
2444,-6.98,2022-10-26 15:48:36.031250
2445,-7.91,2022-10-26 15:48:36.046875
2446,-8.8,2022-10-26 15:48:36.062500
2447,-9.94,2022-10-26 15:48:36.078125
2448,-11.52,2022-10-26 15:48:36.093750
2449,-13.61,2022-10-26 15:48:36.109375
2450,-16.11,2022-10-26 15:48:36.125000
2451,-18.81,2022-10-26 15:48:36.140625
2452,-21.43,2022-10-26 15:48:36.156250
2453,-23.77,2022-10-26 15:48:36.171875
2454,-25.78,2022-10-26 15:48:36.187500
2455,-27.63,2022-10-26 15:48:36.203125
2456,-29.66,2022-10-26 15:48:36.218750
2457,-32.22,2022-10-26 15:48:36.234375
2458,-35.51,2022-10-26 15:48:36.250000
2459,-39.45,2022-10-26 15:48:36.265625
2460,-43.73,2022-10-26 15:48:36.281250
2461,-47.91,2022-10-26 15:48:36.296875
2462,-51.63,2022-10-26 15:48:36.312500
2463,-54.8,2022-10-26 15:48:36.328125
2464,-57.56,2022-10-26 15:48:36.343750
2465,-60.31,2022-10-26 15:48:36.359375
2466,-63.48,2022-10-26 15:48:36.375000
2467,-67.51,2022-10-26 15:48:36.390625
2468,-72.59,2022-10-26 15:48:36.406250
2469,-78.61,2022-10-26 15:48:36.421875
2470,-84.89,2022-10-26 15:48:36.437500
2471,-90.18,2022-10-26 15:48:36.453125
2472,-92.78,2022-10-26 15:48:36.468750
2473,-90.91,2022-10-26 15:48:36.484375
2474,-83.27,2022-10-26 15:48:36.500000
2475,-69.57,2022-10-26 15:48:36.515625
2476,-50.73,2022-10-26 15:48:36.531250
2477,-28.75,2022-10-26 15:48:36.546875
2478,-6.13,2022-10-26 15:48:36.562500
2479,14.74,2022-10-26 15:48:36.578125
2480,32.11,2022-10-26 15:48:36.593750
2481,45.08,2022-10-26 15:48:36.609375
2482,53.56,2022-10-26 15:48:36.625000
2483,57.94,2022-10-26 15:48:36.640625
2484,58.88,2022-10-26 15:48:36.656250
2485,57.07,2022-10-26 15:48:36.671875
2486,53.29,2022-10-26 15:48:36.687500
2487,48.34,2022-10-26 15:48:36.703125
2488,43.1,2022-10-26 15:48:36.718750
2489,38.44,2022-10-26 15:48:36.734375
2490,35.09,2022-10-26 15:48:36.750000
2491,33.49,2022-10-26 15:48:36.765625
2492,33.75,2022-10-26 15:48:36.781250
2493,35.66,2022-10-26 15:48:36.796875
2494,38.78,2022-10-26 15:48:36.812500
2495,42.58,2022-10-26 15:48:36.828125
2496,46.56,2022-10-26 15:48:36.843750
2497,50.27,2022-10-26 15:48:36.859375
2498,53.42,2022-10-26 15:48:36.875000
2499,55.79,2022-10-26 15:48:36.890625
2500,57.23,2022-10-26 15:48:36.906250
2501,57.67,2022-10-26 15:48:36.921875
2502,57.03,2022-10-26 15:48:36.937500
2503,55.29,2022-10-26 15:48:36.953125
2504,52.52,2022-10-26 15:48:36.968750
2505,48.89,2022-10-26 15:48:36.984375
2506,44.71,2022-10-26 15:48:37.000000
2507,40.34,2022-10-26 15:48:37.015625
2508,36.09,2022-10-26 15:48:37.031250
2509,32.12,2022-10-26 15:48:37.046875
2510,28.42,2022-10-26 15:48:37.062500
2511,24.88,2022-10-26 15:48:37.078125
2512,21.37,2022-10-26 15:48:37.093750
2513,17.78,2022-10-26 15:48:37.109375
2514,14.12,2022-10-26 15:48:37.125000
2515,10.4,2022-10-26 15:48:37.140625
2516,6.67,2022-10-26 15:48:37.156250
2517,3.01,2022-10-26 15:48:37.171875
2518,-0.5,2022-10-26 15:48:37.187500
2519,-3.74,2022-10-26 15:48:37.203125
2520,-6.64,2022-10-26 15:48:37.218750
2521,-9.24,2022-10-26 15:48:37.234375
2522,-11.73,2022-10-26 15:48:37.250000
2523,-14.4,2022-10-26 15:48:37.265625
2524,-17.54,2022-10-26 15:48:37.281250
2525,-21.27,2022-10-26 15:48:37.296875
2526,-25.49,2022-10-26 15:48:37.312500
2527,-29.89,2022-10-26 15:48:37.328125
2528,-34.16,2022-10-26 15:48:37.343750
2529,-38.1,2022-10-26 15:48:37.359375
2530,-41.78,2022-10-26 15:48:37.375000
2531,-45.49,2022-10-26 15:48:37.390625
2532,-49.6,2022-10-26 15:48:37.406250
2533,-54.48,2022-10-26 15:48:37.421875
2534,-60.28,2022-10-26 15:48:37.437500
2535,-66.9,2022-10-26 15:48:37.453125
2536,-73.8,2022-10-26 15:48:37.468750
2537,-80.03,2022-10-26 15:48:37.484375
2538,-84.18,2022-10-26 15:48:37.500000
2539,-84.64,2022-10-26 15:48:37.515625
2540,-79.97,2022-10-26 15:48:37.531250
2541,-69.38,2022-10-26 15:48:37.546875
2542,-53.15,2022-10-26 15:48:37.562500
2543,-32.72,2022-10-26 15:48:37.578125
2544,-10.42,2022-10-26 15:48:37.593750
2545,11.14,2022-10-26 15:48:37.609375
2546,29.74,2022-10-26 15:48:37.625000
2547,43.96,2022-10-26 15:48:37.640625
2548,53.36,2022-10-26 15:48:37.656250
2549,58.23,2022-10-26 15:48:37.671875
2550,59.28,2022-10-26 15:48:37.687500
2551,57.35,2022-10-26 15:48:37.703125
2552,53.31,2022-10-26 15:48:37.718750
2553,48.01,2022-10-26 15:48:37.734375
2554,42.37,2022-10-26 15:48:37.750000
2555,37.21,2022-10-26 15:48:37.765625
2556,33.19,2022-10-26 15:48:37.781250
2557,30.68,2022-10-26 15:48:37.796875
2558,29.69,2022-10-26 15:48:37.812500
2559,29.95,2022-10-26 15:48:37.828125
2560,31.08,2022-10-26 15:48:37.843750
2561,32.71,2022-10-26 15:48:37.859375
2562,34.56,2022-10-26 15:48:37.875000
2563,36.42,2022-10-26 15:48:37.890625
2564,38.13,2022-10-26 15:48:37.906250
2565,39.51,2022-10-26 15:48:37.921875
2566,40.34,2022-10-26 15:48:37.937500
2567,40.38,2022-10-26 15:48:37.953125
2568,39.44,2022-10-26 15:48:37.968750
2569,37.46,2022-10-26 15:48:37.984375
2570,34.49,2022-10-26 15:48:38.000000
2571,30.74,2022-10-26 15:48:38.015625
2572,26.52,2022-10-26 15:48:38.031250
2573,22.18,2022-10-26 15:48:38.046875
2574,18.01,2022-10-26 15:48:38.062500
2575,14.18,2022-10-26 15:48:38.078125
2576,10.75,2022-10-26 15:48:38.093750
2577,7.72,2022-10-26 15:48:38.109375
2578,5.07,2022-10-26 15:48:38.125000
2579,2.74,2022-10-26 15:48:38.140625
2580,0.65,2022-10-26 15:48:38.156250
2581,-1.32,2022-10-26 15:48:38.171875
2582,-3.35,2022-10-26 15:48:38.187500
2583,-5.61,2022-10-26 15:48:38.203125
2584,-8.2,2022-10-26 15:48:38.218750
2585,-11.04,2022-10-26 15:48:38.234375
2586,-13.92,2022-10-26 15:48:38.250000
2587,-16.56,2022-10-26 15:48:38.265625
2588,-18.79,2022-10-26 15:48:38.281250
2589,-20.66,2022-10-26 15:48:38.296875
2590,-22.44,2022-10-26 15:48:38.312500
2591,-24.55,2022-10-26 15:48:38.328125
2592,-27.37,2022-10-26 15:48:38.343750
2593,-31.08,2022-10-26 15:48:38.359375
2594,-35.59,2022-10-26 15:48:38.375000
2595,-40.58,2022-10-26 15:48:38.390625
2596,-45.66,2022-10-26 15:48:38.406250
2597,-50.46,2022-10-26 15:48:38.421875
2598,-54.81,2022-10-26 15:48:38.437500
2599,-58.73,2022-10-26 15:48:38.453125
2600,-62.43,2022-10-26 15:48:38.468750
2601,-66.31,2022-10-26 15:48:38.484375
2602,-70.88,2022-10-26 15:48:38.500000
2603,-76.54,2022-10-26 15:48:38.515625
2604,-83.38,2022-10-26 15:48:38.531250
2605,-90.87,2022-10-26 15:48:38.546875
2606,-97.75,2022-10-26 15:48:38.562500
2607,-102.08,2022-10-26 15:48:38.578125
2608,-101.77,2022-10-26 15:48:38.593750
2609,-95.13,2022-10-26 15:48:38.609375
2610,-81.57,2022-10-26 15:48:38.625000
2611,-61.87,2022-10-26 15:48:38.640625
2612,-38.09,2022-10-26 15:48:38.656250
2613,-13.0,2022-10-26 15:48:38.671875
2614,10.62,2022-10-26 15:48:38.687500
2615,30.68,2022-10-26 15:48:38.703125
2616,46.02,2022-10-26 15:48:38.718750
2617,56.39,2022-10-26 15:48:38.734375
2618,62.2,2022-10-26 15:48:38.750000
2619,64.14,2022-10-26 15:48:38.765625
2620,63.0,2022-10-26 15:48:38.781250
2621,59.58,2022-10-26 15:48:38.796875
2622,54.71,2022-10-26 15:48:38.812500
2623,49.22,2022-10-26 15:48:38.828125
2624,43.92,2022-10-26 15:48:38.843750
2625,39.46,2022-10-26 15:48:38.859375
2626,36.29,2022-10-26 15:48:38.875000
2627,34.54,2022-10-26 15:48:38.890625
2628,34.11,2022-10-26 15:48:38.906250
2629,34.7,2022-10-26 15:48:38.921875
2630,35.93,2022-10-26 15:48:38.937500
2631,37.44,2022-10-26 15:48:38.953125
2632,38.94,2022-10-26 15:48:38.968750
2633,40.23,2022-10-26 15:48:38.984375
2634,41.21,2022-10-26 15:48:39.000000
2635,41.8,2022-10-26 15:48:39.015625
2636,41.89,2022-10-26 15:48:39.031250
2637,41.3,2022-10-26 15:48:39.046875
2638,39.88,2022-10-26 15:48:39.062500
2639,37.54,2022-10-26 15:48:39.078125
2640,34.4,2022-10-26 15:48:39.093750
2641,30.73,2022-10-26 15:48:39.109375
2642,26.88,2022-10-26 15:48:39.125000
2643,23.14,2022-10-26 15:48:39.140625
2644,19.64,2022-10-26 15:48:39.156250
2645,16.36,2022-10-26 15:48:39.171875
2646,13.17,2022-10-26 15:48:39.187500
2647,9.99,2022-10-26 15:48:39.203125
2648,6.81,2022-10-26 15:48:39.218750
2649,3.72,2022-10-26 15:48:39.234375
2650,0.88,2022-10-26 15:48:39.250000
2651,-1.57,2022-10-26 15:48:39.265625
2652,-3.59,2022-10-26 15:48:39.281250
2653,-5.23,2022-10-26 15:48:39.296875
2654,-6.64,2022-10-26 15:48:39.312500
2655,-8.07,2022-10-26 15:48:39.328125
2656,-9.73,2022-10-26 15:48:39.343750
2657,-11.74,2022-10-26 15:48:39.359375
2658,-14.1,2022-10-26 15:48:39.375000
2659,-16.65,2022-10-26 15:48:39.390625
2660,-19.18,2022-10-26 15:48:39.406250
2661,-21.57,2022-10-26 15:48:39.421875
2662,-23.85,2022-10-26 15:48:39.437500
2663,-26.23,2022-10-26 15:48:39.453125
2664,-29.02,2022-10-26 15:48:39.468750
2665,-32.42,2022-10-26 15:48:39.484375
2666,-36.47,2022-10-26 15:48:39.500000
2667,-40.98,2022-10-26 15:48:39.515625
2668,-45.64,2022-10-26 15:48:39.531250
2669,-50.13,2022-10-26 15:48:39.546875
2670,-54.24,2022-10-26 15:48:39.562500
2671,-58.0,2022-10-26 15:48:39.578125
2672,-61.66,2022-10-26 15:48:39.593750
2673,-65.65,2022-10-26 15:48:39.609375
2674,-70.43,2022-10-26 15:48:39.625000
2675,-76.34,2022-10-26 15:48:39.640625
2676,-83.29,2022-10-26 15:48:39.656250
2677,-90.56,2022-10-26 15:48:39.671875
2678,-96.77,2022-10-26 15:48:39.687500
2679,-99.98,2022-10-26 15:48:39.703125
2680,-98.28,2022-10-26 15:48:39.718750
2681,-90.31,2022-10-26 15:48:39.734375
2682,-75.81,2022-10-26 15:48:39.750000
2683,-55.75,2022-10-26 15:48:39.765625
2684,-32.21,2022-10-26 15:48:39.781250
2685,-7.81,2022-10-26 15:48:39.796875
2686,14.91,2022-10-26 15:48:39.812500
2687,33.97,2022-10-26 15:48:39.828125
2688,48.2,2022-10-26 15:48:39.843750
2689,57.28,2022-10-26 15:48:39.859375
2690,61.49,2022-10-26 15:48:39.875000
2691,61.55,2022-10-26 15:48:39.890625
2692,58.36,2022-10-26 15:48:39.906250
2693,52.92,2022-10-26 15:48:39.921875
2694,46.23,2022-10-26 15:48:39.937500
2695,39.24,2022-10-26 15:48:39.953125
2696,32.84,2022-10-26 15:48:39.968750
2697,27.75,2022-10-26 15:48:39.984375
2698,24.43,2022-10-26 15:48:40.000000
2699,23.04,2022-10-26 15:48:40.015625
2700,23.38,2022-10-26 15:48:40.031250
2701,25.01,2022-10-26 15:48:40.046875
2702,27.36,2022-10-26 15:48:40.062500
2703,29.95,2022-10-26 15:48:40.078125
2704,32.42,2022-10-26 15:48:40.093750
2705,34.6,2022-10-26 15:48:40.109375
2706,36.4,2022-10-26 15:48:40.125000
2707,37.68,2022-10-26 15:48:40.140625
2708,38.28,2022-10-26 15:48:40.156250
2709,37.99,2022-10-26 15:48:40.171875
2710,36.61,2022-10-26 15:48:40.187500
2711,34.1,2022-10-26 15:48:40.203125
2712,30.6,2022-10-26 15:48:40.218750
2713,26.41,2022-10-26 15:48:40.234375
2714,21.93,2022-10-26 15:48:40.250000
2715,17.59,2022-10-26 15:48:40.265625
2716,13.72,2022-10-26 15:48:40.281250
2717,10.51,2022-10-26 15:48:40.296875
2718,7.95,2022-10-26 15:48:40.312500
2719,5.86,2022-10-26 15:48:40.328125
2720,3.94,2022-10-26 15:48:40.343750
2721,1.92,2022-10-26 15:48:40.359375
2722,-0.33,2022-10-26 15:48:40.375000
2723,-2.71,2022-10-26 15:48:40.390625
2724,-4.96,2022-10-26 15:48:40.406250
2725,-6.8,2022-10-26 15:48:40.421875
2726,-8.1,2022-10-26 15:48:40.437500
2727,-8.93,2022-10-26 15:48:40.453125
2728,-9.57,2022-10-26 15:48:40.468750
2729,-10.37,2022-10-26 15:48:40.484375
2730,-11.58,2022-10-26 15:48:40.500000
2731,-13.31,2022-10-26 15:48:40.515625
2732,-15.52,2022-10-26 15:48:40.531250
2733,-18.05,2022-10-26 15:48:40.546875
2734,-20.73,2022-10-26 15:48:40.562500
2735,-23.45,2022-10-26 15:48:40.578125
2736,-26.1,2022-10-26 15:48:40.593750
2737,-28.59,2022-10-26 15:48:40.609375
2738,-30.9,2022-10-26 15:48:40.625000
2739,-33.16,2022-10-26 15:48:40.640625
2740,-35.69,2022-10-26 15:48:40.656250
2741,-38.94,2022-10-26 15:48:40.671875
2742,-43.29,2022-10-26 15:48:40.687500
2743,-48.74,2022-10-26 15:48:40.703125
2744,-54.65,2022-10-26 15:48:40.718750
2745,-59.69,2022-10-26 15:48:40.734375
2746,-62.11,2022-10-26 15:48:40.750000
2747,-60.25,2022-10-26 15:48:40.765625
2748,-53.04,2022-10-26 15:48:40.781250
2749,-40.38,2022-10-26 15:48:40.796875
2750,-23.23,2022-10-26 15:48:40.812500
2751,-3.33,2022-10-26 15:48:40.828125
2752,17.25,2022-10-26 15:48:40.843750
2753,36.51,2022-10-26 15:48:40.859375
2754,52.86,2022-10-26 15:48:40.875000
2755,65.2,2022-10-26 15:48:40.890625
2756,72.95,2022-10-26 15:48:40.906250
2757,76.0,2022-10-26 15:48:40.921875
2758,74.69,2022-10-26 15:48:40.937500
2759,69.75,2022-10-26 15:48:40.953125
2760,62.23,2022-10-26 15:48:40.968750
2761,53.38,2022-10-26 15:48:40.984375
2762,44.47,2022-10-26 15:48:41.000000
2763,36.62,2022-10-26 15:48:41.015625
2764,30.61,2022-10-26 15:48:41.031250
2765,26.82,2022-10-26 15:48:41.046875
2766,25.25,2022-10-26 15:48:41.062500
2767,25.57,2022-10-26 15:48:41.078125
2768,27.3,2022-10-26 15:48:41.093750
2769,29.9,2022-10-26 15:48:41.109375
2770,32.86,2022-10-26 15:48:41.125000
2771,35.8,2022-10-26 15:48:41.140625
2772,38.37,2022-10-26 15:48:41.156250
2773,40.25,2022-10-26 15:48:41.171875
2774,41.08,2022-10-26 15:48:41.187500
2775,40.56,2022-10-26 15:48:41.203125
2776,38.5,2022-10-26 15:48:41.218750
2777,34.97,2022-10-26 15:48:41.234375
2778,30.33,2022-10-26 15:48:41.250000
2779,25.12,2022-10-26 15:48:41.265625
2780,19.91,2022-10-26 15:48:41.281250
2781,15.05,2022-10-26 15:48:41.296875
2782,10.63,2022-10-26 15:48:41.312500
2783,6.43,2022-10-26 15:48:41.328125
2784,2.13,2022-10-26 15:48:41.343750
2785,-2.5,2022-10-26 15:48:41.359375
2786,-7.45,2022-10-26 15:48:41.375000
2787,-12.47,2022-10-26 15:48:41.390625
2788,-17.18,2022-10-26 15:48:41.406250
2789,-21.27,2022-10-26 15:48:41.421875
2790,-24.66,2022-10-26 15:48:41.437500
2791,-27.53,2022-10-26 15:48:41.453125
2792,-30.25,2022-10-26 15:48:41.468750
2793,-33.24,2022-10-26 15:48:41.484375
2794,-36.79,2022-10-26 15:48:41.500000
2795,-40.97,2022-10-26 15:48:41.515625
2796,-45.6,2022-10-26 15:48:41.531250
2797,-50.35,2022-10-26 15:48:41.546875
2798,-54.85,2022-10-26 15:48:41.562500
2799,-58.94,2022-10-26 15:48:41.578125
2800,-62.71,2022-10-26 15:48:41.593750
2801,-66.6,2022-10-26 15:48:41.609375
2802,-71.24,2022-10-26 15:48:41.625000
2803,-77.18,2022-10-26 15:48:41.640625
2804,-84.64,2022-10-26 15:48:41.656250
2805,-93.18,2022-10-26 15:48:41.671875
2806,-101.61,2022-10-26 15:48:41.687500
2807,-108.15,2022-10-26 15:48:41.703125
2808,-110.81,2022-10-26 15:48:41.718750
2809,-107.97,2022-10-26 15:48:41.734375
2810,-98.87,2022-10-26 15:48:41.750000
2811,-83.91,2022-10-26 15:48:41.765625
2812,-64.6,2022-10-26 15:48:41.781250
2813,-43.18,2022-10-26 15:48:41.796875
2814,-22.12,2022-10-26 15:48:41.812500
2815,-3.59,2022-10-26 15:48:41.828125
2816,10.99,2022-10-26 15:48:41.843750
2817,21.11,2022-10-26 15:48:41.859375
2818,27.16,2022-10-26 15:48:41.875000
2819,30.18,2022-10-26 15:48:41.890625
2820,31.56,2022-10-26 15:48:41.906250
2821,32.63,2022-10-26 15:48:41.921875
2822,34.39,2022-10-26 15:48:41.937500
2823,37.27,2022-10-26 15:48:41.953125
2824,41.18,2022-10-26 15:48:41.968750
2825,45.67,2022-10-26 15:48:41.984375
2826,50.21,2022-10-26 15:48:42.000000
2827,54.37,2022-10-26 15:48:42.015625
2828,57.99,2022-10-26 15:48:42.031250
2829,61.09,2022-10-26 15:48:42.046875
2830,63.78,2022-10-26 15:48:42.062500
2831,66.21,2022-10-26 15:48:42.078125
2832,68.52,2022-10-26 15:48:42.093750
2833,70.91,2022-10-26 15:48:42.109375
2834,73.58,2022-10-26 15:48:42.125000
2835,76.7,2022-10-26 15:48:42.140625
2836,80.21,2022-10-26 15:48:42.156250
2837,83.76,2022-10-26 15:48:42.171875
2838,86.65,2022-10-26 15:48:42.187500
2839,88.01,2022-10-26 15:48:42.203125
2840,87.07,2022-10-26 15:48:42.218750
2841,83.47,2022-10-26 15:48:42.234375
2842,77.42,2022-10-26 15:48:42.250000
2843,69.62,2022-10-26 15:48:42.265625
2844,61.02,2022-10-26 15:48:42.281250
2845,52.51,2022-10-26 15:48:42.296875
2846,44.61,2022-10-26 15:48:42.312500
2847,37.42,2022-10-26 15:48:42.328125
2848,30.69,2022-10-26 15:48:42.343750
2849,24.08,2022-10-26 15:48:42.359375
2850,17.43,2022-10-26 15:48:42.375000
2851,10.8,2022-10-26 15:48:42.390625
2852,4.47,2022-10-26 15:48:42.406250
2853,-1.27,2022-10-26 15:48:42.421875
2854,-6.37,2022-10-26 15:48:42.437500
2855,-11.07,2022-10-26 15:48:42.453125
2856,-15.86,2022-10-26 15:48:42.468750
2857,-21.23,2022-10-26 15:48:42.484375
2858,-27.47,2022-10-26 15:48:42.500000
2859,-34.5,2022-10-26 15:48:42.515625
2860,-41.94,2022-10-26 15:48:42.531250
2861,-49.24,2022-10-26 15:48:42.546875
2862,-55.89,2022-10-26 15:48:42.562500
2863,-61.58,2022-10-26 15:48:42.578125
2864,-66.29,2022-10-26 15:48:42.593750
2865,-70.27,2022-10-26 15:48:42.609375
2866,-73.99,2022-10-26 15:48:42.625000
2867,-78.13,2022-10-26 15:48:42.640625
2868,-83.34,2022-10-26 15:48:42.656250
2869,-90.02,2022-10-26 15:48:42.671875
2870,-98.03,2022-10-26 15:48:42.687500
2871,-106.43,2022-10-26 15:48:42.703125
2872,-113.54,2022-10-26 15:48:42.718750
2873,-117.22,2022-10-26 15:48:42.734375
2874,-115.45,2022-10-26 15:48:42.750000
2875,-106.91,2022-10-26 15:48:42.765625
2876,-91.46,2022-10-26 15:48:42.781250
2877,-70.23,2022-10-26 15:48:42.796875
2878,-45.4,2022-10-26 15:48:42.812500
2879,-19.71,2022-10-26 15:48:42.828125
2880,4.17,2022-10-26 15:48:42.843750
2881,24.14,2022-10-26 15:48:42.859375
2882,39.0,2022-10-26 15:48:42.875000
2883,48.5,2022-10-26 15:48:42.890625
2884,53.16,2022-10-26 15:48:42.906250
2885,53.94,2022-10-26 15:48:42.921875
2886,51.88,2022-10-26 15:48:42.937500
2887,47.98,2022-10-26 15:48:42.953125
2888,43.04,2022-10-26 15:48:42.968750
2889,37.74,2022-10-26 15:48:42.984375
2890,32.72,2022-10-26 15:48:43.000000
2891,28.53,2022-10-26 15:48:43.015625
2892,25.57,2022-10-26 15:48:43.031250
2893,24.05,2022-10-26 15:48:43.046875
2894,23.9,2022-10-26 15:48:43.062500
2895,24.86,2022-10-26 15:48:43.078125
2896,26.58,2022-10-26 15:48:43.093750
2897,28.73,2022-10-26 15:48:43.109375
2898,31.02,2022-10-26 15:48:43.125000
2899,33.19,2022-10-26 15:48:43.140625
2900,34.99,2022-10-26 15:48:43.156250
2901,36.13,2022-10-26 15:48:43.171875
2902,36.35,2022-10-26 15:48:43.187500
2903,35.48,2022-10-26 15:48:43.203125
2904,33.49,2022-10-26 15:48:43.218750
2905,30.5,2022-10-26 15:48:43.234375
2906,26.75,2022-10-26 15:48:43.250000
2907,22.48,2022-10-26 15:48:43.265625
2908,17.9,2022-10-26 15:48:43.281250
2909,13.18,2022-10-26 15:48:43.296875
2910,8.46,2022-10-26 15:48:43.312500
2911,3.9,2022-10-26 15:48:43.328125
2912,-0.33,2022-10-26 15:48:43.343750
2913,-4.05,2022-10-26 15:48:43.359375
2914,-7.17,2022-10-26 15:48:43.375000
2915,-9.72,2022-10-26 15:48:43.390625
2916,-11.85,2022-10-26 15:48:43.406250
2917,-13.81,2022-10-26 15:48:43.421875
2918,-15.81,2022-10-26 15:48:43.437500
2919,-18.03,2022-10-26 15:48:43.453125
2920,-20.46,2022-10-26 15:48:43.468750
2921,-22.96,2022-10-26 15:48:43.484375
2922,-25.28,2022-10-26 15:48:43.500000
2923,-27.22,2022-10-26 15:48:43.515625
2924,-28.69,2022-10-26 15:48:43.531250
2925,-29.79,2022-10-26 15:48:43.546875
2926,-30.87,2022-10-26 15:48:43.562500
2927,-32.42,2022-10-26 15:48:43.578125
2928,-34.96,2022-10-26 15:48:43.593750
2929,-38.77,2022-10-26 15:48:43.609375
2930,-43.69,2022-10-26 15:48:43.625000
2931,-48.98,2022-10-26 15:48:43.640625
2932,-53.27,2022-10-26 15:48:43.656250
2933,-54.81,2022-10-26 15:48:43.671875
2934,-51.91,2022-10-26 15:48:43.687500
2935,-43.36,2022-10-26 15:48:43.703125
2936,-28.94,2022-10-26 15:48:43.718750
2937,-9.5,2022-10-26 15:48:43.734375
2938,13.2,2022-10-26 15:48:43.750000
2939,36.99,2022-10-26 15:48:43.765625
2940,59.78,2022-10-26 15:48:43.781250
2941,80.01,2022-10-26 15:48:43.796875
2942,96.76,2022-10-26 15:48:43.812500
2943,109.63,2022-10-26 15:48:43.828125
2944,118.56,2022-10-26 15:48:43.843750
2945,123.68,2022-10-26 15:48:43.859375
2946,125.37,2022-10-26 15:48:43.875000
2947,124.4,2022-10-26 15:48:43.890625
2948,121.97,2022-10-26 15:48:43.906250
2949,119.64,2022-10-26 15:48:43.921875
2950,118.97,2022-10-26 15:48:43.937500
2951,121.13,2022-10-26 15:48:43.953125
2952,126.56,2022-10-26 15:48:43.968750
2953,134.89,2022-10-26 15:48:43.984375
2954,145.21,2022-10-26 15:48:44.000000
2955,156.43,2022-10-26 15:48:44.015625
2956,167.69,2022-10-26 15:48:44.031250
2957,178.65,2022-10-26 15:48:44.046875
2958,189.48,2022-10-26 15:48:44.062500
2959,200.78,2022-10-26 15:48:44.078125
2960,213.22,2022-10-26 15:48:44.093750
2961,227.11,2022-10-26 15:48:44.109375
2962,242.02,2022-10-26 15:48:44.125000
2963,256.64,2022-10-26 15:48:44.140625
2964,268.83,2022-10-26 15:48:44.156250
2965,276.19,2022-10-26 15:48:44.171875
2966,276.73,2022-10-26 15:48:44.187500
2967,269.52,2022-10-26 15:48:44.203125
2968,254.95,2022-10-26 15:48:44.218750
2969,234.52,2022-10-26 15:48:44.234375
2970,210.2,2022-10-26 15:48:44.250000
2971,183.7,2022-10-26 15:48:44.265625
2972,156.04,2022-10-26 15:48:44.281250
2973,127.52,2022-10-26 15:48:44.296875
2974,98.1,2022-10-26 15:48:44.312500
2975,67.9,2022-10-26 15:48:44.328125
2976,37.5,2022-10-26 15:48:44.343750
2977,7.85,2022-10-26 15:48:44.359375
2978,-20.11,2022-10-26 15:48:44.375000
2979,-45.89,2022-10-26 15:48:44.390625
2980,-69.78,2022-10-26 15:48:44.406250
2981,-92.77,2022-10-26 15:48:44.421875
2982,-116.44,2022-10-26 15:48:44.437500
2983,-142.56,2022-10-26 15:48:44.453125
2984,-172.75,2022-10-26 15:48:44.468750
2985,-207.96,2022-10-26 15:48:44.484375
2986,-247.82,2022-10-26 15:48:44.500000
2987,-290.06,2022-10-26 15:48:44.515625
2988,-330.56,2022-10-26 15:48:44.531250
2989,-363.95,2022-10-26 15:48:44.546875
2990,-385.1,2022-10-26 15:48:44.562500
2991,-390.78,2022-10-26 15:48:44.578125
2992,-380.87,2022-10-26 15:48:44.593750
2993,-358.48,2022-10-26 15:48:44.609375
2994,-328.88,2022-10-26 15:48:44.625000
2995,-297.81,2022-10-26 15:48:44.640625
2996,-269.8,2022-10-26 15:48:44.656250
2997,-247.34,2022-10-26 15:48:44.671875
2998,-230.91,2022-10-26 15:48:44.687500
2999,-219.81,2022-10-26 15:48:44.703125
3000,-212.88,2022-10-26 15:48:44.718750
3001,-209.06,2022-10-26 15:48:44.734375
3002,-207.35,2022-10-26 15:48:44.750000
3003,-206.58,2022-10-26 15:48:44.765625
3004,-205.34,2022-10-26 15:48:44.781250
3005,-202.03,2022-10-26 15:48:44.796875
3006,-195.4,2022-10-26 15:48:44.812500
3007,-184.82,2022-10-26 15:48:44.828125
3008,-170.64,2022-10-26 15:48:44.843750
3009,-154.02,2022-10-26 15:48:44.859375
3010,-136.51,2022-10-26 15:48:44.875000
3011,-119.52,2022-10-26 15:48:44.890625
3012,-103.97,2022-10-26 15:48:44.906250
3013,-90.19,2022-10-26 15:48:44.921875
3014,-78.14,2022-10-26 15:48:44.937500
3015,-67.65,2022-10-26 15:48:44.953125
3016,-58.61,2022-10-26 15:48:44.968750
3017,-50.93,2022-10-26 15:48:44.984375
3018,-44.46,2022-10-26 15:48:45.000000
3019,-38.87,2022-10-26 15:48:45.015625
3020,-33.74,2022-10-26 15:48:45.031250
3021,-28.78,2022-10-26 15:48:45.046875
3022,-24.0,2022-10-26 15:48:45.062500
3023,-19.72,2022-10-26 15:48:45.078125
3024,-16.37,2022-10-26 15:48:45.093750
3025,-14.23,2022-10-26 15:48:45.109375
3026,-13.12,2022-10-26 15:48:45.125000
3027,-12.53,2022-10-26 15:48:45.140625
3028,-11.75,2022-10-26 15:48:45.156250
3029,-10.35,2022-10-26 15:48:45.171875
3030,-8.35,2022-10-26 15:48:45.187500
3031,-6.26,2022-10-26 15:48:45.203125
3032,-4.85,2022-10-26 15:48:45.218750
3033,-4.7,2022-10-26 15:48:45.234375
3034,-5.99,2022-10-26 15:48:45.250000
3035,-8.36,2022-10-26 15:48:45.265625
3036,-11.1,2022-10-26 15:48:45.281250
3037,-13.41,2022-10-26 15:48:45.296875
3038,-14.75,2022-10-26 15:48:45.312500
3039,-15.06,2022-10-26 15:48:45.328125
3040,-14.73,2022-10-26 15:48:45.343750
3041,-14.49,2022-10-26 15:48:45.359375
3042,-15.19,2022-10-26 15:48:45.375000
3043,-17.54,2022-10-26 15:48:45.390625
3044,-21.99,2022-10-26 15:48:45.406250
3045,-28.7,2022-10-26 15:48:45.421875
3046,-37.43,2022-10-26 15:48:45.437500
3047,-47.5,2022-10-26 15:48:45.453125
3048,-57.66,2022-10-26 15:48:45.468750
3049,-66.1,2022-10-26 15:48:45.484375
3050,-70.62,2022-10-26 15:48:45.500000
3051,-69.09,2022-10-26 15:48:45.515625
3052,-60.08,2022-10-26 15:48:45.531250
3053,-43.46,2022-10-26 15:48:45.546875
3054,-20.56,2022-10-26 15:48:45.562500
3055,6.02,2022-10-26 15:48:45.578125
3056,33.17,2022-10-26 15:48:45.593750
3057,58.13,2022-10-26 15:48:45.609375
3058,79.07,2022-10-26 15:48:45.625000
3059,95.33,2022-10-26 15:48:45.640625
3060,107.12,2022-10-26 15:48:45.656250
3061,115.01,2022-10-26 15:48:45.671875
3062,119.53,2022-10-26 15:48:45.687500
3063,121.03,2022-10-26 15:48:45.703125
3064,119.79,2022-10-26 15:48:45.718750
3065,116.27,2022-10-26 15:48:45.734375
3066,111.24,2022-10-26 15:48:45.750000
3067,105.72,2022-10-26 15:48:45.765625
3068,100.72,2022-10-26 15:48:45.781250
3069,96.93,2022-10-26 15:48:45.796875
3070,94.62,2022-10-26 15:48:45.812500
3071,93.63,2022-10-26 15:48:45.828125
3072,93.56,2022-10-26 15:48:45.843750
3073,93.92,2022-10-26 15:48:45.859375
3074,94.31,2022-10-26 15:48:45.875000
3075,94.4,2022-10-26 15:48:45.890625
3076,93.99,2022-10-26 15:48:45.906250
3077,92.91,2022-10-26 15:48:45.921875
3078,91.05,2022-10-26 15:48:45.937500
3079,88.31,2022-10-26 15:48:45.953125
3080,84.65,2022-10-26 15:48:45.968750
3081,80.09,2022-10-26 15:48:45.984375
3082,74.72,2022-10-26 15:48:46.000000
3083,68.71,2022-10-26 15:48:46.015625
3084,62.28,2022-10-26 15:48:46.031250
3085,55.63,2022-10-26 15:48:46.046875
3086,49.01,2022-10-26 15:48:46.062500
3087,42.6,2022-10-26 15:48:46.078125
3088,36.51,2022-10-26 15:48:46.093750
3089,30.75,2022-10-26 15:48:46.109375
3090,25.25,2022-10-26 15:48:46.125000
3091,19.84,2022-10-26 15:48:46.140625
3092,14.4,2022-10-26 15:48:46.156250
3093,8.88,2022-10-26 15:48:46.171875
3094,3.36,2022-10-26 15:48:46.187500
3095,-1.99,2022-10-26 15:48:46.203125
3096,-6.99,2022-10-26 15:48:46.218750
3097,-11.57,2022-10-26 15:48:46.234375
3098,-15.83,2022-10-26 15:48:46.250000
3099,-20.12,2022-10-26 15:48:46.265625
3100,-24.89,2022-10-26 15:48:46.281250
3101,-30.63,2022-10-26 15:48:46.296875
3102,-37.65,2022-10-26 15:48:46.312500
3103,-45.96,2022-10-26 15:48:46.328125
3104,-55.09,2022-10-26 15:48:46.343750
3105,-64.05,2022-10-26 15:48:46.359375
3106,-71.35,2022-10-26 15:48:46.375000
3107,-75.22,2022-10-26 15:48:46.390625
3108,-74.08,2022-10-26 15:48:46.406250
3109,-66.95,2022-10-26 15:48:46.421875
3110,-53.81,2022-10-26 15:48:46.437500
3111,-35.69,2022-10-26 15:48:46.453125
3112,-14.49,2022-10-26 15:48:46.468750
3113,7.49,2022-10-26 15:48:46.484375
3114,28.09,2022-10-26 15:48:46.500000
3115,45.67,2022-10-26 15:48:46.515625
3116,59.32,2022-10-26 15:48:46.531250
3117,68.78,2022-10-26 15:48:46.546875
3118,74.2,2022-10-26 15:48:46.562500
3119,75.91,2022-10-26 15:48:46.578125
3120,74.33,2022-10-26 15:48:46.593750
3121,70.04,2022-10-26 15:48:46.609375
3122,63.85,2022-10-26 15:48:46.625000
3123,56.85,2022-10-26 15:48:46.640625
3124,50.27,2022-10-26 15:48:46.656250
3125,45.17,2022-10-26 15:48:46.671875
3126,42.21,2022-10-26 15:48:46.687500
3127,41.47,2022-10-26 15:48:46.703125
3128,42.63,2022-10-26 15:48:46.718750
3129,45.17,2022-10-26 15:48:46.734375
3130,48.58,2022-10-26 15:48:46.750000
3131,52.55,2022-10-26 15:48:46.765625
3132,56.77,2022-10-26 15:48:46.781250
3133,60.82,2022-10-26 15:48:46.796875
3134,64.06,2022-10-26 15:48:46.812500
3135,65.69,2022-10-26 15:48:46.828125
3136,64.96,2022-10-26 15:48:46.843750
3137,61.42,2022-10-26 15:48:46.859375
3138,55.13,2022-10-26 15:48:46.875000
3139,46.7,2022-10-26 15:48:46.890625
3140,37.22,2022-10-26 15:48:46.906250
3141,27.98,2022-10-26 15:48:46.921875
3142,20.12,2022-10-26 15:48:46.937500
3143,14.3,2022-10-26 15:48:46.953125
3144,10.48,2022-10-26 15:48:46.968750
3145,8.04,2022-10-26 15:48:46.984375
3146,5.98,2022-10-26 15:48:47.000000
3147,3.4,2022-10-26 15:48:47.015625
3148,-0.13,2022-10-26 15:48:47.031250
3149,-4.49,2022-10-26 15:48:47.046875
3150,-9.1,2022-10-26 15:48:47.062500
