,BVP,time
0,57.22,2022-10-28 10:25:03.921875
1,-6.15,2022-10-28 10:25:03.937500
2,-88.9,2022-10-28 10:25:03.953125
3,-186.01,2022-10-28 10:25:03.968750
4,-290.74,2022-10-28 10:25:03.984375
5,-397.23,2022-10-28 10:25:04.000000
6,-498.48,2022-10-28 10:25:04.015625
7,-589.0,2022-10-28 10:25:04.031250
8,-631.24,2022-10-28 10:25:04.046875
9,-595.96,2022-10-28 10:25:04.062500
10,-481.65,2022-10-28 10:25:04.078125
11,-319.11,2022-10-28 10:25:04.093750
12,-148.97,2022-10-28 10:25:04.109375
13,1.19,2022-10-28 10:25:04.125000
14,111.94,2022-10-28 10:25:04.140625
15,192.87,2022-10-28 10:25:04.156250
16,250.29,2022-10-28 10:25:04.171875
17,285.72,2022-10-28 10:25:04.187500
18,293.47,2022-10-28 10:25:04.203125
19,268.94,2022-10-28 10:25:04.218750
20,215.87,2022-10-28 10:25:04.234375
21,146.53,2022-10-28 10:25:04.250000
22,77.01,2022-10-28 10:25:04.265625
23,19.68,2022-10-28 10:25:04.281250
24,-19.03,2022-10-28 10:25:04.296875
25,-42.24,2022-10-28 10:25:04.312500
26,-56.38,2022-10-28 10:25:04.328125
27,-71.71,2022-10-28 10:25:04.343750
28,-96.49,2022-10-28 10:25:04.359375
29,-133.95,2022-10-28 10:25:04.375000
30,-181.7,2022-10-28 10:25:04.390625
31,-233.98,2022-10-28 10:25:04.406250
32,-284.02,2022-10-28 10:25:04.421875
33,-323.68,2022-10-28 10:25:04.437500
34,-346.97,2022-10-28 10:25:04.453125
35,-349.19,2022-10-28 10:25:04.468750
36,-331.1,2022-10-28 10:25:04.484375
37,-298.0,2022-10-28 10:25:04.500000
38,-257.41,2022-10-28 10:25:04.515625
39,-216.11,2022-10-28 10:25:04.531250
40,-178.51,2022-10-28 10:25:04.546875
41,-146.52,2022-10-28 10:25:04.562500
42,-119.39,2022-10-28 10:25:04.578125
43,-96.69,2022-10-28 10:25:04.593750
44,-77.94,2022-10-28 10:25:04.609375
45,-64.09,2022-10-28 10:25:04.625000
46,-56.0,2022-10-28 10:25:04.640625
47,-52.77,2022-10-28 10:25:04.656250
48,-51.35,2022-10-28 10:25:04.671875
49,-47.75,2022-10-28 10:25:04.687500
50,-39.21,2022-10-28 10:25:04.703125
51,-25.09,2022-10-28 10:25:04.718750
52,-7.69,2022-10-28 10:25:04.734375
53,9.51,2022-10-28 10:25:04.750000
54,22.85,2022-10-28 10:25:04.765625
55,30.08,2022-10-28 10:25:04.781250
56,31.41,2022-10-28 10:25:04.796875
57,28.56,2022-10-28 10:25:04.812500
58,24.61,2022-10-28 10:25:04.828125
59,22.37,2022-10-28 10:25:04.843750
60,23.57,2022-10-28 10:25:04.859375
61,28.21,2022-10-28 10:25:04.875000
62,35.08,2022-10-28 10:25:04.890625
63,42.43,2022-10-28 10:25:04.906250
64,48.6,2022-10-28 10:25:04.921875
65,52.9,2022-10-28 10:25:04.937500
66,54.8,2022-10-28 10:25:04.953125
67,54.62,2022-10-28 10:25:04.968750
68,52.67,2022-10-28 10:25:04.984375
69,49.01,2022-10-28 10:25:05.000000
70,43.45,2022-10-28 10:25:05.015625
71,35.75,2022-10-28 10:25:05.031250
72,25.94,2022-10-28 10:25:05.046875
73,14.45,2022-10-28 10:25:05.062500
74,2.61,2022-10-28 10:25:05.078125
75,-9.59,2022-10-28 10:25:05.093750
76,-21.61,2022-10-28 10:25:05.109375
77,-33.33,2022-10-28 10:25:05.125000
78,-44.9,2022-10-28 10:25:05.140625
79,-56.58,2022-10-28 10:25:05.156250
80,-68.49,2022-10-28 10:25:05.171875
81,-80.52,2022-10-28 10:25:05.187500
82,-92.2,2022-10-28 10:25:05.203125
83,-101.38,2022-10-28 10:25:05.218750
84,-109.58,2022-10-28 10:25:05.234375
85,-116.78,2022-10-28 10:25:05.250000
86,-123.14,2022-10-28 10:25:05.265625
87,-128.82,2022-10-28 10:25:05.281250
88,-133.5,2022-10-28 10:25:05.296875
89,-136.3,2022-10-28 10:25:05.312500
90,-136.14,2022-10-28 10:25:05.328125
91,-132.22,2022-10-28 10:25:05.343750
92,-121.05,2022-10-28 10:25:05.359375
93,-106.84,2022-10-28 10:25:05.375000
94,-89.35,2022-10-28 10:25:05.390625
95,-67.26,2022-10-28 10:25:05.406250
96,-37.88,2022-10-28 10:25:05.421875
97,2.15,2022-10-28 10:25:05.437500
98,55.6,2022-10-28 10:25:05.453125
99,123.45,2022-10-28 10:25:05.468750
100,204.38,2022-10-28 10:25:05.484375
101,300.47,2022-10-28 10:25:05.500000
102,401.47,2022-10-28 10:25:05.515625
103,503.65,2022-10-28 10:25:05.531250
104,603.9,2022-10-28 10:25:05.546875
105,699.44,2022-10-28 10:25:05.562500
106,787.38,2022-10-28 10:25:05.578125
107,864.53,2022-10-28 10:25:05.593750
108,927.97,2022-10-28 10:25:05.609375
109,975.81,2022-10-28 10:25:05.625000
110,1014.55,2022-10-28 10:25:05.640625
111,1036.78,2022-10-28 10:25:05.656250
112,1043.4,2022-10-28 10:25:05.671875
113,1034.11,2022-10-28 10:25:05.687500
114,1007.01,2022-10-28 10:25:05.703125
115,959.46,2022-10-28 10:25:05.718750
116,889.71,2022-10-28 10:25:05.734375
117,798.68,2022-10-28 10:25:05.750000
118,647.36,2022-10-28 10:25:05.765625
119,501.56,2022-10-28 10:25:05.781250
120,359.14,2022-10-28 10:25:05.796875
121,225.66,2022-10-28 10:25:05.812500
122,104.25,2022-10-28 10:25:05.828125
123,-4.24,2022-10-28 10:25:05.843750
124,-100.35,2022-10-28 10:25:05.859375
125,-184.99,2022-10-28 10:25:05.875000
126,-258.79,2022-10-28 10:25:05.890625
127,-322.02,2022-10-28 10:25:05.906250
128,-368.01,2022-10-28 10:25:05.921875
129,-405.2,2022-10-28 10:25:05.937500
130,-434.0,2022-10-28 10:25:05.953125
131,-455.08,2022-10-28 10:25:05.968750
132,-469.45,2022-10-28 10:25:05.984375
133,-478.4,2022-10-28 10:25:06.000000
134,-483.31,2022-10-28 10:25:06.015625
135,-485.52,2022-10-28 10:25:06.031250
136,-485.95,2022-10-28 10:25:06.046875
137,-479.76,2022-10-28 10:25:06.062500
138,-473.32,2022-10-28 10:25:06.078125
139,-466.58,2022-10-28 10:25:06.093750
140,-459.8,2022-10-28 10:25:06.109375
141,-453.82,2022-10-28 10:25:06.125000
142,-450.0,2022-10-28 10:25:06.140625
143,-450.08,2022-10-28 10:25:06.156250
144,-456.05,2022-10-28 10:25:06.171875
145,-470.13,2022-10-28 10:25:06.187500
146,-491.06,2022-10-28 10:25:06.203125
147,-523.73,2022-10-28 10:25:06.218750
148,-566.48,2022-10-28 10:25:06.234375
149,-614.16,2022-10-28 10:25:06.250000
150,-658.35,2022-10-28 10:25:06.265625
151,-689.3,2022-10-28 10:25:06.281250
152,-699.19,2022-10-28 10:25:06.296875
153,-684.92,2022-10-28 10:25:06.312500
154,-649.14,2022-10-28 10:25:06.328125
155,-597.32,2022-10-28 10:25:06.343750
156,-539.98,2022-10-28 10:25:06.359375
157,-483.96,2022-10-28 10:25:06.375000
158,-432.77,2022-10-28 10:25:06.390625
159,-386.88,2022-10-28 10:25:06.406250
160,-345.39,2022-10-28 10:25:06.421875
161,-307.59,2022-10-28 10:25:06.437500
162,-273.63,2022-10-28 10:25:06.453125
163,-244.01,2022-10-28 10:25:06.468750
164,-218.14,2022-10-28 10:25:06.484375
165,-195.65,2022-10-28 10:25:06.500000
166,-174.78,2022-10-28 10:25:06.515625
167,-154.0,2022-10-28 10:25:06.531250
168,-132.76,2022-10-28 10:25:06.546875
169,-111.69,2022-10-28 10:25:06.562500
170,-92.35,2022-10-28 10:25:06.578125
171,-76.27,2022-10-28 10:25:06.593750
172,-64.18,2022-10-28 10:25:06.609375
173,-55.69,2022-10-28 10:25:06.625000
174,-49.45,2022-10-28 10:25:06.640625
175,-43.73,2022-10-28 10:25:06.656250
176,-37.19,2022-10-28 10:25:06.671875
177,-29.34,2022-10-28 10:25:06.687500
178,-20.67,2022-10-28 10:25:06.703125
179,-12.27,2022-10-28 10:25:06.718750
180,-5.24,2022-10-28 10:25:06.734375
181,-0.17,2022-10-28 10:25:06.750000
182,3.15,2022-10-28 10:25:06.765625
183,5.56,2022-10-28 10:25:06.781250
184,8.16,2022-10-28 10:25:06.796875
185,11.79,2022-10-28 10:25:06.812500
186,16.68,2022-10-28 10:25:06.828125
187,22.4,2022-10-28 10:25:06.843750
188,28.1,2022-10-28 10:25:06.859375
189,32.95,2022-10-28 10:25:06.875000
190,36.49,2022-10-28 10:25:06.890625
191,38.87,2022-10-28 10:25:06.906250
192,40.75,2022-10-28 10:25:06.921875
193,43.03,2022-10-28 10:25:06.937500
194,46.41,2022-10-28 10:25:06.953125
195,51.13,2022-10-28 10:25:06.968750
196,56.92,2022-10-28 10:25:06.984375
197,63.09,2022-10-28 10:25:07.000000
198,68.96,2022-10-28 10:25:07.015625
199,74.18,2022-10-28 10:25:07.031250
200,78.97,2022-10-28 10:25:07.046875
201,84.03,2022-10-28 10:25:07.062500
202,90.26,2022-10-28 10:25:07.078125
203,98.4,2022-10-28 10:25:07.093750
204,108.7,2022-10-28 10:25:07.109375
205,120.81,2022-10-28 10:25:07.125000
206,133.99,2022-10-28 10:25:07.140625
207,147.43,2022-10-28 10:25:07.156250
208,160.66,2022-10-28 10:25:07.171875
209,173.69,2022-10-28 10:25:07.187500
210,186.99,2022-10-28 10:25:07.203125
211,201.28,2022-10-28 10:25:07.218750
212,217.32,2022-10-28 10:25:07.234375
213,235.71,2022-10-28 10:25:07.250000
214,256.69,2022-10-28 10:25:07.265625
215,279.94,2022-10-28 10:25:07.281250
216,304.23,2022-10-28 10:25:07.296875
217,327.33,2022-10-28 10:25:07.312500
218,346.24,2022-10-28 10:25:07.328125
219,357.93,2022-10-28 10:25:07.343750
220,360.4,2022-10-28 10:25:07.359375
221,353.49,2022-10-28 10:25:07.375000
222,339.05,2022-10-28 10:25:07.390625
223,320.21,2022-10-28 10:25:07.406250
224,300.16,2022-10-28 10:25:07.421875
225,280.89,2022-10-28 10:25:07.437500
226,262.74,2022-10-28 10:25:07.453125
227,244.84,2022-10-28 10:25:07.468750
228,226.07,2022-10-28 10:25:07.484375
229,206.15,2022-10-28 10:25:07.500000
230,185.9,2022-10-28 10:25:07.515625
231,166.89,2022-10-28 10:25:07.531250
232,150.46,2022-10-28 10:25:07.546875
233,137.02,2022-10-28 10:25:07.562500
234,125.83,2022-10-28 10:25:07.578125
235,115.45,2022-10-28 10:25:07.593750
236,104.58,2022-10-28 10:25:07.609375
237,92.74,2022-10-28 10:25:07.625000
238,80.46,2022-10-28 10:25:07.640625
239,68.98,2022-10-28 10:25:07.656250
240,59.5,2022-10-28 10:25:07.671875
241,52.6,2022-10-28 10:25:07.687500
242,47.89,2022-10-28 10:25:07.703125
243,44.21,2022-10-28 10:25:07.718750
244,40.08,2022-10-28 10:25:07.734375
245,34.38,2022-10-28 10:25:07.750000
246,26.62,2022-10-28 10:25:07.765625
247,17.04,2022-10-28 10:25:07.781250
248,6.27,2022-10-28 10:25:07.796875
249,-5.0,2022-10-28 10:25:07.812500
250,-16.41,2022-10-28 10:25:07.828125
251,-27.95,2022-10-28 10:25:07.843750
252,-39.89,2022-10-28 10:25:07.859375
253,-52.54,2022-10-28 10:25:07.875000
254,-66.22,2022-10-28 10:25:07.890625
255,-81.15,2022-10-28 10:25:07.906250
256,-97.5,2022-10-28 10:25:07.921875
257,-115.24,2022-10-28 10:25:07.937500
258,-133.87,2022-10-28 10:25:07.953125
259,-152.05,2022-10-28 10:25:07.968750
260,-167.57,2022-10-28 10:25:07.984375
261,-177.69,2022-10-28 10:25:08.000000
262,-179.88,2022-10-28 10:25:08.015625
263,-172.63,2022-10-28 10:25:08.031250
264,-156.03,2022-10-28 10:25:08.046875
265,-131.86,2022-10-28 10:25:08.062500
266,-103.1,2022-10-28 10:25:08.078125
267,-73.22,2022-10-28 10:25:08.093750
268,-45.38,2022-10-28 10:25:08.109375
269,-21.87,2022-10-28 10:25:08.125000
270,-3.82,2022-10-28 10:25:08.140625
271,8.76,2022-10-28 10:25:08.156250
272,16.7,2022-10-28 10:25:08.171875
273,21.18,2022-10-28 10:25:08.187500
274,23.24,2022-10-28 10:25:08.203125
275,23.43,2022-10-28 10:25:08.218750
276,21.77,2022-10-28 10:25:08.234375
277,18.09,2022-10-28 10:25:08.250000
278,12.45,2022-10-28 10:25:08.265625
279,5.41,2022-10-28 10:25:08.281250
280,-2.07,2022-10-28 10:25:08.296875
281,-8.99,2022-10-28 10:25:08.312500
282,-14.8,2022-10-28 10:25:08.328125
283,-19.56,2022-10-28 10:25:08.343750
284,-24.01,2022-10-28 10:25:08.359375
285,-29.13,2022-10-28 10:25:08.375000
286,-35.93,2022-10-28 10:25:08.390625
287,-45.09,2022-10-28 10:25:08.406250
288,-56.91,2022-10-28 10:25:08.421875
289,-71.3,2022-10-28 10:25:08.437500
290,-87.86,2022-10-28 10:25:08.453125
291,-106.07,2022-10-28 10:25:08.468750
292,-125.43,2022-10-28 10:25:08.484375
293,-145.53,2022-10-28 10:25:08.500000
294,-166.07,2022-10-28 10:25:08.515625
295,-186.54,2022-10-28 10:25:08.531250
296,-206.32,2022-10-28 10:25:08.546875
297,-224.76,2022-10-28 10:25:08.562500
298,-241.68,2022-10-28 10:25:08.578125
299,-257.63,2022-10-28 10:25:08.593750
300,-273.63,2022-10-28 10:25:08.609375
301,-290.25,2022-10-28 10:25:08.625000
302,-306.61,2022-10-28 10:25:08.640625
303,-320.12,2022-10-28 10:25:08.656250
304,-327.3,2022-10-28 10:25:08.671875
305,-325.46,2022-10-28 10:25:08.687500
306,-314.13,2022-10-28 10:25:08.703125
307,-295.31,2022-10-28 10:25:08.718750
308,-272.25,2022-10-28 10:25:08.734375
309,-247.49,2022-10-28 10:25:08.750000
310,-221.5,2022-10-28 10:25:08.765625
311,-192.61,2022-10-28 10:25:08.781250
312,-158.36,2022-10-28 10:25:08.796875
313,-117.28,2022-10-28 10:25:08.812500
314,-69.96,2022-10-28 10:25:08.828125
315,-18.79,2022-10-28 10:25:08.843750
316,33.26,2022-10-28 10:25:08.859375
317,84.0,2022-10-28 10:25:08.875000
318,132.76,2022-10-28 10:25:08.890625
319,180.17,2022-10-28 10:25:08.906250
320,227.42,2022-10-28 10:25:08.921875
321,275.62,2022-10-28 10:25:08.937500
322,325.42,2022-10-28 10:25:08.953125
323,376.88,2022-10-28 10:25:08.968750
324,429.27,2022-10-28 10:25:08.984375
325,480.85,2022-10-28 10:25:09.000000
326,528.63,2022-10-28 10:25:09.015625
327,568.72,2022-10-28 10:25:09.031250
328,597.08,2022-10-28 10:25:09.046875
329,610.76,2022-10-28 10:25:09.062500
330,608.9,2022-10-28 10:25:09.078125
331,593.11,2022-10-28 10:25:09.093750
332,566.84,2022-10-28 10:25:09.109375
333,534.25,2022-10-28 10:25:09.125000
334,499.17,2022-10-28 10:25:09.140625
335,464.62,2022-10-28 10:25:09.156250
336,432.76,2022-10-28 10:25:09.171875
337,405.05,2022-10-28 10:25:09.187500
338,382.23,2022-10-28 10:25:09.203125
339,363.89,2022-10-28 10:25:09.218750
340,348.28,2022-10-28 10:25:09.234375
341,332.57,2022-10-28 10:25:09.250000
342,313.67,2022-10-28 10:25:09.265625
343,289.3,2022-10-28 10:25:09.281250
344,258.59,2022-10-28 10:25:09.296875
345,222.01,2022-10-28 10:25:09.312500
346,180.95,2022-10-28 10:25:09.328125
347,137.3,2022-10-28 10:25:09.343750
348,93.19,2022-10-28 10:25:09.359375
349,51.22,2022-10-28 10:25:09.375000
350,14.24,2022-10-28 10:25:09.390625
351,-15.17,2022-10-28 10:25:09.406250
352,-35.75,2022-10-28 10:25:09.421875
353,-48.31,2022-10-28 10:25:09.437500
354,-55.67,2022-10-28 10:25:09.453125
355,-61.56,2022-10-28 10:25:09.468750
356,-69.07,2022-10-28 10:25:09.484375
357,-79.24,2022-10-28 10:25:09.500000
358,-90.66,2022-10-28 10:25:09.515625
359,-100.3,2022-10-28 10:25:09.531250
360,-105.12,2022-10-28 10:25:09.546875
361,-103.7,2022-10-28 10:25:09.562500
362,-97.04,2022-10-28 10:25:09.578125
363,-88.11,2022-10-28 10:25:09.593750
364,-80.34,2022-10-28 10:25:09.609375
365,-75.78,2022-10-28 10:25:09.625000
366,-73.86,2022-10-28 10:25:09.640625
367,-71.5,2022-10-28 10:25:09.656250
368,-64.73,2022-10-28 10:25:09.671875
369,-50.79,2022-10-28 10:25:09.687500
370,-29.72,2022-10-28 10:25:09.703125
371,-4.5,2022-10-28 10:25:09.718750
372,20.31,2022-10-28 10:25:09.734375
373,40.73,2022-10-28 10:25:09.750000
374,54.92,2022-10-28 10:25:09.765625
375,63.49,2022-10-28 10:25:09.781250
376,68.67,2022-10-28 10:25:09.796875
377,72.71,2022-10-28 10:25:09.812500
378,77.03,2022-10-28 10:25:09.828125
379,81.99,2022-10-28 10:25:09.843750
380,87.49,2022-10-28 10:25:09.859375
381,93.68,2022-10-28 10:25:09.875000
382,101.17,2022-10-28 10:25:09.890625
383,110.64,2022-10-28 10:25:09.906250
384,122.16,2022-10-28 10:25:09.921875
385,134.62,2022-10-28 10:25:09.937500
386,145.84,2022-10-28 10:25:09.953125
387,153.13,2022-10-28 10:25:09.968750
388,154.19,2022-10-28 10:25:09.984375
389,147.82,2022-10-28 10:25:10.000000
390,134.23,2022-10-28 10:25:10.015625
391,114.84,2022-10-28 10:25:10.031250
392,91.87,2022-10-28 10:25:10.046875
393,67.64,2022-10-28 10:25:10.062500
394,44.17,2022-10-28 10:25:10.078125
395,22.77,2022-10-28 10:25:10.093750
396,4.05,2022-10-28 10:25:10.109375
397,-11.99,2022-10-28 10:25:10.125000
398,-25.72,2022-10-28 10:25:10.140625
399,-37.58,2022-10-28 10:25:10.156250
400,-47.92,2022-10-28 10:25:10.171875
401,-56.87,2022-10-28 10:25:10.187500
402,-64.42,2022-10-28 10:25:10.203125
403,-70.51,2022-10-28 10:25:10.218750
404,-75.07,2022-10-28 10:25:10.234375
405,-78.03,2022-10-28 10:25:10.250000
406,-79.23,2022-10-28 10:25:10.265625
407,-78.35,2022-10-28 10:25:10.281250
408,-74.93,2022-10-28 10:25:10.296875
409,-68.57,2022-10-28 10:25:10.312500
410,-59.2,2022-10-28 10:25:10.328125
411,-47.27,2022-10-28 10:25:10.343750
412,-33.79,2022-10-28 10:25:10.359375
413,-20.15,2022-10-28 10:25:10.375000
414,-7.63,2022-10-28 10:25:10.390625
415,2.92,2022-10-28 10:25:10.406250
416,11.36,2022-10-28 10:25:10.421875
417,18.09,2022-10-28 10:25:10.437500
418,23.82,2022-10-28 10:25:10.453125
419,29.01,2022-10-28 10:25:10.468750
420,33.64,2022-10-28 10:25:10.484375
421,37.17,2022-10-28 10:25:10.500000
422,38.82,2022-10-28 10:25:10.515625
423,38.02,2022-10-28 10:25:10.531250
424,34.69,2022-10-28 10:25:10.546875
425,29.31,2022-10-28 10:25:10.562500
426,22.72,2022-10-28 10:25:10.578125
427,15.75,2022-10-28 10:25:10.593750
428,8.94,2022-10-28 10:25:10.609375
429,2.52,2022-10-28 10:25:10.625000
430,-3.42,2022-10-28 10:25:10.640625
431,-8.75,2022-10-28 10:25:10.656250
432,-13.27,2022-10-28 10:25:10.671875
433,-16.85,2022-10-28 10:25:10.687500
434,-19.66,2022-10-28 10:25:10.703125
435,-22.26,2022-10-28 10:25:10.718750
436,-25.39,2022-10-28 10:25:10.734375
437,-29.57,2022-10-28 10:25:10.750000
438,-34.72,2022-10-28 10:25:10.765625
439,-40.08,2022-10-28 10:25:10.781250
440,-44.54,2022-10-28 10:25:10.796875
441,-47.09,2022-10-28 10:25:10.812500
442,-47.3,2022-10-28 10:25:10.828125
443,-45.39,2022-10-28 10:25:10.843750
444,-42.03,2022-10-28 10:25:10.859375
445,-37.99,2022-10-28 10:25:10.875000
446,-33.85,2022-10-28 10:25:10.890625
447,-29.86,2022-10-28 10:25:10.906250
448,-25.95,2022-10-28 10:25:10.921875
449,-21.81,2022-10-28 10:25:10.937500
450,-16.93,2022-10-28 10:25:10.953125
451,-10.7,2022-10-28 10:25:10.968750
452,-2.44,2022-10-28 10:25:10.984375
453,8.57,2022-10-28 10:25:11.000000
454,22.98,2022-10-28 10:25:11.015625
455,41.23,2022-10-28 10:25:11.031250
456,63.25,2022-10-28 10:25:11.046875
457,88.28,2022-10-28 10:25:11.062500
458,114.91,2022-10-28 10:25:11.078125
459,141.47,2022-10-28 10:25:11.093750
460,166.48,2022-10-28 10:25:11.109375
461,189.02,2022-10-28 10:25:11.125000
462,208.54,2022-10-28 10:25:11.140625
463,224.51,2022-10-28 10:25:11.156250
464,235.8,2022-10-28 10:25:11.171875
465,240.65,2022-10-28 10:25:11.187500
466,237.1,2022-10-28 10:25:11.203125
467,223.84,2022-10-28 10:25:11.218750
468,200.74,2022-10-28 10:25:11.234375
469,168.94,2022-10-28 10:25:11.250000
470,130.35,2022-10-28 10:25:11.265625
471,87.2,2022-10-28 10:25:11.281250
472,42.11,2022-10-28 10:25:11.296875
473,-1.66,2022-10-28 10:25:11.312500
474,-40.21,2022-10-28 10:25:11.328125
475,-69.74,2022-10-28 10:25:11.343750
476,-88.1,2022-10-28 10:25:11.359375
477,-95.99,2022-10-28 10:25:11.375000
478,-97.23,2022-10-28 10:25:11.390625
479,-97.31,2022-10-28 10:25:11.406250
480,-101.03,2022-10-28 10:25:11.421875
481,-110.51,2022-10-28 10:25:11.437500
482,-124.47,2022-10-28 10:25:11.453125
483,-139.35,2022-10-28 10:25:11.468750
484,-151.26,2022-10-28 10:25:11.484375
485,-157.8,2022-10-28 10:25:11.500000
486,-158.55,2022-10-28 10:25:11.515625
487,-154.67,2022-10-28 10:25:11.531250
488,-147.93,2022-10-28 10:25:11.546875
489,-140.07,2022-10-28 10:25:11.562500
490,-132.5,2022-10-28 10:25:11.578125
491,-126.2,2022-10-28 10:25:11.593750
492,-121.35,2022-10-28 10:25:11.609375
493,-116.95,2022-10-28 10:25:11.625000
494,-110.95,2022-10-28 10:25:11.640625
495,-101.15,2022-10-28 10:25:11.656250
496,-86.5,2022-10-28 10:25:11.671875
497,-68.12,2022-10-28 10:25:11.687500
498,-49.01,2022-10-28 10:25:11.703125
499,-32.56,2022-10-28 10:25:11.718750
500,-20.45,2022-10-28 10:25:11.734375
501,-11.23,2022-10-28 10:25:11.750000
502,-0.5,2022-10-28 10:25:11.765625
503,17.1,2022-10-28 10:25:11.781250
504,45.24,2022-10-28 10:25:11.796875
505,83.72,2022-10-28 10:25:11.812500
506,127.99,2022-10-28 10:25:11.828125
507,170.42,2022-10-28 10:25:11.843750
508,202.88,2022-10-28 10:25:11.859375
509,219.3,2022-10-28 10:25:11.875000
510,217.32,2022-10-28 10:25:11.890625
511,198.4,2022-10-28 10:25:11.906250
512,166.62,2022-10-28 10:25:11.921875
513,126.76,2022-10-28 10:25:11.937500
514,82.81,2022-10-28 10:25:11.953125
515,37.09,2022-10-28 10:25:11.968750
516,-9.41,2022-10-28 10:25:11.984375
517,-56.47,2022-10-28 10:25:12.000000
518,-104.28,2022-10-28 10:25:12.015625
519,-153.46,2022-10-28 10:25:12.031250
520,-205.12,2022-10-28 10:25:12.046875
521,-260.24,2022-10-28 10:25:12.062500
522,-318.29,2022-10-28 10:25:12.078125
523,-376.1,2022-10-28 10:25:12.093750
524,-427.68,2022-10-28 10:25:12.109375
525,-465.95,2022-10-28 10:25:12.125000
526,-485.6,2022-10-28 10:25:12.140625
527,-485.46,2022-10-28 10:25:12.156250
528,-469.36,2022-10-28 10:25:12.171875
529,-444.57,2022-10-28 10:25:12.187500
530,-419.07,2022-10-28 10:25:12.203125
531,-398.89,2022-10-28 10:25:12.218750
532,-386.9,2022-10-28 10:25:12.234375
533,-382.92,2022-10-28 10:25:12.250000
534,-384.71,2022-10-28 10:25:12.265625
535,-388.69,2022-10-28 10:25:12.281250
536,-390.34,2022-10-28 10:25:12.296875
537,-384.6,2022-10-28 10:25:12.312500
538,-366.84,2022-10-28 10:25:12.328125
539,-334.41,2022-10-28 10:25:12.343750
540,-288.07,2022-10-28 10:25:12.359375
541,-232.4,2022-10-28 10:25:12.375000
542,-174.58,2022-10-28 10:25:12.390625
543,-121.79,2022-10-28 10:25:12.406250
544,-78.74,2022-10-28 10:25:12.421875
545,-45.97,2022-10-28 10:25:12.437500
546,-20.07,2022-10-28 10:25:12.453125
547,4.43,2022-10-28 10:25:12.468750
548,32.53,2022-10-28 10:25:12.484375
549,66.64,2022-10-28 10:25:12.500000
550,105.72,2022-10-28 10:25:12.515625
551,145.89,2022-10-28 10:25:12.531250
552,182.33,2022-10-28 10:25:12.546875
553,211.23,2022-10-28 10:25:12.562500
554,231.22,2022-10-28 10:25:12.578125
555,243.36,2022-10-28 10:25:12.593750
556,250.28,2022-10-28 10:25:12.609375
557,254.63,2022-10-28 10:25:12.625000
558,258.04,2022-10-28 10:25:12.640625
559,260.77,2022-10-28 10:25:12.656250
560,262.08,2022-10-28 10:25:12.671875
561,261.06,2022-10-28 10:25:12.687500
562,257.16,2022-10-28 10:25:12.703125
563,250.38,2022-10-28 10:25:12.718750
564,240.98,2022-10-28 10:25:12.734375
565,229.16,2022-10-28 10:25:12.750000
566,214.87,2022-10-28 10:25:12.765625
567,197.94,2022-10-28 10:25:12.781250
568,178.27,2022-10-28 10:25:12.796875
569,156.11,2022-10-28 10:25:12.812500
570,132.18,2022-10-28 10:25:12.828125
571,107.65,2022-10-28 10:25:12.843750
572,84.01,2022-10-28 10:25:12.859375
573,62.66,2022-10-28 10:25:12.875000
574,44.48,2022-10-28 10:25:12.890625
575,29.15,2022-10-28 10:25:12.906250
576,15.0,2022-10-28 10:25:12.921875
577,-0.78,2022-10-28 10:25:12.937500
578,-21.13,2022-10-28 10:25:12.953125
579,-47.9,2022-10-28 10:25:12.968750
580,-80.9,2022-10-28 10:25:12.984375
581,-117.7,2022-10-28 10:25:13.000000
582,-154.57,2022-10-28 10:25:13.015625
583,-187.89,2022-10-28 10:25:13.031250
584,-215.47,2022-10-28 10:25:13.046875
585,-237.04,2022-10-28 10:25:13.062500
586,-253.53,2022-10-28 10:25:13.078125
587,-266.03,2022-10-28 10:25:13.093750
588,-274.74,2022-10-28 10:25:13.109375
589,-278.78,2022-10-28 10:25:13.125000
590,-276.86,2022-10-28 10:25:13.140625
591,-268.47,2022-10-28 10:25:13.156250
592,-254.87,2022-10-28 10:25:13.171875
593,-239.44,2022-10-28 10:25:13.187500
594,-227.11,2022-10-28 10:25:13.203125
595,-222.92,2022-10-28 10:25:13.218750
596,-230.27,2022-10-28 10:25:13.234375
597,-249.4,2022-10-28 10:25:13.250000
598,-276.66,2022-10-28 10:25:13.265625
599,-305.12,2022-10-28 10:25:13.281250
600,-326.34,2022-10-28 10:25:13.296875
601,-332.81,2022-10-28 10:25:13.312500
602,-320.09,2022-10-28 10:25:13.328125
603,-287.75,2022-10-28 10:25:13.343750
604,-238.96,2022-10-28 10:25:13.359375
605,-179.09,2022-10-28 10:25:13.375000
606,-114.06,2022-10-28 10:25:13.390625
607,-49.24,2022-10-28 10:25:13.406250
608,10.98,2022-10-28 10:25:13.421875
609,63.16,2022-10-28 10:25:13.437500
610,104.9,2022-10-28 10:25:13.453125
611,135.33,2022-10-28 10:25:13.468750
612,155.61,2022-10-28 10:25:13.484375
613,169.01,2022-10-28 10:25:13.500000
614,179.95,2022-10-28 10:25:13.515625
615,192.2,2022-10-28 10:25:13.531250
616,207.27,2022-10-28 10:25:13.546875
617,223.7,2022-10-28 10:25:13.562500
618,237.9,2022-10-28 10:25:13.578125
619,246.02,2022-10-28 10:25:13.593750
620,245.86,2022-10-28 10:25:13.609375
621,237.83,2022-10-28 10:25:13.625000
622,224.53,2022-10-28 10:25:13.640625
623,209.18,2022-10-28 10:25:13.656250
624,193.98,2022-10-28 10:25:13.671875
625,179.27,2022-10-28 10:25:13.687500
626,163.83,2022-10-28 10:25:13.703125
627,146.03,2022-10-28 10:25:13.718750
628,125.16,2022-10-28 10:25:13.734375
629,101.9,2022-10-28 10:25:13.750000
630,77.89,2022-10-28 10:25:13.765625
631,54.71,2022-10-28 10:25:13.781250
632,32.88,2022-10-28 10:25:13.796875
633,11.6,2022-10-28 10:25:13.812500
634,-10.55,2022-10-28 10:25:13.828125
635,-34.17,2022-10-28 10:25:13.843750
636,-57.77,2022-10-28 10:25:13.859375
637,-77.32,2022-10-28 10:25:13.875000
638,-87.17,2022-10-28 10:25:13.890625
639,-82.0,2022-10-28 10:25:13.906250
640,-58.96,2022-10-28 10:25:13.921875
641,-18.84,2022-10-28 10:25:13.937500
642,34.09,2022-10-28 10:25:13.953125
643,93.82,2022-10-28 10:25:13.968750
644,154.51,2022-10-28 10:25:13.984375
645,212.28,2022-10-28 10:25:14.000000
646,265.55,2022-10-28 10:25:14.015625
647,314.42,2022-10-28 10:25:14.031250
648,359.37,2022-10-28 10:25:14.046875
649,400.08,2022-10-28 10:25:14.062500
650,435.13,2022-10-28 10:25:14.078125
651,462.19,2022-10-28 10:25:14.093750
652,478.75,2022-10-28 10:25:14.109375
653,482.93,2022-10-28 10:25:14.125000
654,474.02,2022-10-28 10:25:14.140625
655,452.7,2022-10-28 10:25:14.156250
656,420.84,2022-10-28 10:25:14.171875
657,381.06,2022-10-28 10:25:14.187500
658,336.07,2022-10-28 10:25:14.203125
659,288.2,2022-10-28 10:25:14.218750
660,239.07,2022-10-28 10:25:14.234375
661,189.62,2022-10-28 10:25:14.250000
662,140.25,2022-10-28 10:25:14.265625
663,91.12,2022-10-28 10:25:14.281250
664,42.56,2022-10-28 10:25:14.296875
665,-4.3,2022-10-28 10:25:14.312500
666,-47.32,2022-10-28 10:25:14.328125
667,-83.32,2022-10-28 10:25:14.343750
668,-108.87,2022-10-28 10:25:14.359375
669,-121.65,2022-10-28 10:25:14.375000
670,-121.6,2022-10-28 10:25:14.390625
671,-111.62,2022-10-28 10:25:14.406250
672,-96.95,2022-10-28 10:25:14.421875
673,-83.46,2022-10-28 10:25:14.437500
674,-75.56,2022-10-28 10:25:14.453125
675,-74.78,2022-10-28 10:25:14.468750
676,-79.77,2022-10-28 10:25:14.484375
677,-87.51,2022-10-28 10:25:14.500000
678,-95.02,2022-10-28 10:25:14.515625
679,-100.4,2022-10-28 10:25:14.531250
680,-103.06,2022-10-28 10:25:14.546875
681,-102.98,2022-10-28 10:25:14.562500
682,-100.03,2022-10-28 10:25:14.578125
683,-93.97,2022-10-28 10:25:14.593750
684,-85.04,2022-10-28 10:25:14.609375
685,-74.67,2022-10-28 10:25:14.625000
686,-65.51,2022-10-28 10:25:14.640625
687,-60.56,2022-10-28 10:25:14.656250
688,-61.73,2022-10-28 10:25:14.671875
689,-68.82,2022-10-28 10:25:14.687500
690,-79.68,2022-10-28 10:25:14.703125
691,-91.37,2022-10-28 10:25:14.718750
692,-101.7,2022-10-28 10:25:14.734375
693,-110.08,2022-10-28 10:25:14.750000
694,-117.31,2022-10-28 10:25:14.765625
695,-124.56,2022-10-28 10:25:14.781250
696,-132.24,2022-10-28 10:25:14.796875
697,-139.62,2022-10-28 10:25:14.812500
698,-145.09,2022-10-28 10:25:14.828125
699,-146.86,2022-10-28 10:25:14.843750
700,-143.66,2022-10-28 10:25:14.859375
701,-134.98,2022-10-28 10:25:14.875000
702,-121.03,2022-10-28 10:25:14.890625
703,-102.77,2022-10-28 10:25:14.906250
704,-81.9,2022-10-28 10:25:14.921875
705,-61.05,2022-10-28 10:25:14.937500
706,-43.54,2022-10-28 10:25:14.953125
707,-32.55,2022-10-28 10:25:14.968750
708,-30.02,2022-10-28 10:25:14.984375
709,-35.69,2022-10-28 10:25:15.000000
710,-47.01,2022-10-28 10:25:15.015625
711,-59.98,2022-10-28 10:25:15.031250
712,-70.6,2022-10-28 10:25:15.046875
713,-76.14,2022-10-28 10:25:15.062500
714,-75.58,2022-10-28 10:25:15.078125
715,-69.24,2022-10-28 10:25:15.093750
716,-57.79,2022-10-28 10:25:15.109375
717,-41.66,2022-10-28 10:25:15.125000
718,-21.1,2022-10-28 10:25:15.140625
719,3.01,2022-10-28 10:25:15.156250
720,28.31,2022-10-28 10:25:15.171875
721,50.8,2022-10-28 10:25:15.187500
722,65.66,2022-10-28 10:25:15.203125
723,69.03,2022-10-28 10:25:15.218750
724,59.39,2022-10-28 10:25:15.234375
725,38.34,2022-10-28 10:25:15.250000
726,10.13,2022-10-28 10:25:15.265625
727,-19.59,2022-10-28 10:25:15.281250
728,-45.25,2022-10-28 10:25:15.296875
729,-62.68,2022-10-28 10:25:15.312500
730,-69.9,2022-10-28 10:25:15.328125
731,-67.47,2022-10-28 10:25:15.343750
732,-58.15,2022-10-28 10:25:15.359375
733,-46.03,2022-10-28 10:25:15.375000
734,-35.13,2022-10-28 10:25:15.390625
735,-28.13,2022-10-28 10:25:15.406250
736,-25.71,2022-10-28 10:25:15.421875
737,-26.85,2022-10-28 10:25:15.437500
738,-29.8,2022-10-28 10:25:15.453125
739,-33.08,2022-10-28 10:25:15.468750
740,-35.68,2022-10-28 10:25:15.484375
741,-36.72,2022-10-28 10:25:15.500000
742,-34.71,2022-10-28 10:25:15.515625
743,-27.5,2022-10-28 10:25:15.531250
744,-13.04,2022-10-28 10:25:15.546875
745,9.32,2022-10-28 10:25:15.562500
746,38.03,2022-10-28 10:25:15.578125
747,69.6,2022-10-28 10:25:15.593750
748,99.95,2022-10-28 10:25:15.609375
749,125.94,2022-10-28 10:25:15.625000
750,146.28,2022-10-28 10:25:15.640625
751,161.31,2022-10-28 10:25:15.656250
752,171.99,2022-10-28 10:25:15.671875
753,178.75,2022-10-28 10:25:15.687500
754,181.0,2022-10-28 10:25:15.703125
755,177.42,2022-10-28 10:25:15.718750
756,166.85,2022-10-28 10:25:15.734375
757,149.11,2022-10-28 10:25:15.750000
758,125.58,2022-10-28 10:25:15.765625
759,99.05,2022-10-28 10:25:15.781250
760,73.12,2022-10-28 10:25:15.796875
761,51.22,2022-10-28 10:25:15.812500
762,35.64,2022-10-28 10:25:15.828125
763,26.87,2022-10-28 10:25:15.843750
764,23.56,2022-10-28 10:25:15.859375
765,23.22,2022-10-28 10:25:15.875000
766,23.28,2022-10-28 10:25:15.890625
767,22.13,2022-10-28 10:25:15.906250
768,19.59,2022-10-28 10:25:15.921875
769,16.74,2022-10-28 10:25:15.937500
770,15.19,2022-10-28 10:25:15.953125
771,16.29,2022-10-28 10:25:15.968750
772,20.56,2022-10-28 10:25:15.984375
773,27.63,2022-10-28 10:25:16.000000
774,36.33,2022-10-28 10:25:16.015625
775,45.01,2022-10-28 10:25:16.031250
776,51.89,2022-10-28 10:25:16.046875
777,55.39,2022-10-28 10:25:16.062500
778,54.7,2022-10-28 10:25:16.078125
779,50.16,2022-10-28 10:25:16.093750
780,43.34,2022-10-28 10:25:16.109375
781,36.45,2022-10-28 10:25:16.125000
782,31.16,2022-10-28 10:25:16.140625
783,27.4,2022-10-28 10:25:16.156250
784,22.78,2022-10-28 10:25:16.171875
785,13.19,2022-10-28 10:25:16.187500
786,-5.5,2022-10-28 10:25:16.203125
787,-35.34,2022-10-28 10:25:16.218750
788,-74.97,2022-10-28 10:25:16.234375
789,-119.83,2022-10-28 10:25:16.250000
790,-163.63,2022-10-28 10:25:16.265625
791,-200.61,2022-10-28 10:25:16.281250
792,-227.16,2022-10-28 10:25:16.296875
793,-242.33,2022-10-28 10:25:16.312500
794,-247.18,2022-10-28 10:25:16.328125
795,-243.54,2022-10-28 10:25:16.343750
796,-233.21,2022-10-28 10:25:16.359375
797,-217.65,2022-10-28 10:25:16.375000
798,-198.37,2022-10-28 10:25:16.390625
799,-177.57,2022-10-28 10:25:16.406250
800,-158.3,2022-10-28 10:25:16.421875
801,-144.29,2022-10-28 10:25:16.437500
802,-138.88,2022-10-28 10:25:16.453125
803,-143.95,2022-10-28 10:25:16.468750
804,-158.85,2022-10-28 10:25:16.484375
805,-180.13,2022-10-28 10:25:16.500000
806,-202.1,2022-10-28 10:25:16.515625
807,-218.26,2022-10-28 10:25:16.531250
808,-222.95,2022-10-28 10:25:16.546875
809,-212.87,2022-10-28 10:25:16.562500
810,-187.92,2022-10-28 10:25:16.578125
811,-151.07,2022-10-28 10:25:16.593750
812,-107.66,2022-10-28 10:25:16.609375
813,-63.8,2022-10-28 10:25:16.625000
814,-24.81,2022-10-28 10:25:16.640625
815,6.17,2022-10-28 10:25:16.656250
816,28.72,2022-10-28 10:25:16.671875
817,44.65,2022-10-28 10:25:16.687500
818,56.62,2022-10-28 10:25:16.703125
819,66.69,2022-10-28 10:25:16.718750
820,75.51,2022-10-28 10:25:16.734375
821,82.42,2022-10-28 10:25:16.750000
822,86.48,2022-10-28 10:25:16.765625
823,87.74,2022-10-28 10:25:16.781250
824,87.92,2022-10-28 10:25:16.796875
825,89.87,2022-10-28 10:25:16.812500
826,96.38,2022-10-28 10:25:16.828125
827,108.76,2022-10-28 10:25:16.843750
828,125.67,2022-10-28 10:25:16.859375
829,143.58,2022-10-28 10:25:16.875000
830,158.07,2022-10-28 10:25:16.890625
831,165.78,2022-10-28 10:25:16.906250
832,165.89,2022-10-28 10:25:16.921875
833,160.38,2022-10-28 10:25:16.937500
834,153.07,2022-10-28 10:25:16.953125
835,147.62,2022-10-28 10:25:16.968750
836,145.65,2022-10-28 10:25:16.984375
837,145.74,2022-10-28 10:25:17.000000
838,143.65,2022-10-28 10:25:17.015625
839,133.82,2022-10-28 10:25:17.031250
840,111.29,2022-10-28 10:25:17.046875
841,73.18,2022-10-28 10:25:17.062500
842,19.4,2022-10-28 10:25:17.078125
843,-47.42,2022-10-28 10:25:17.093750
844,-122.38,2022-10-28 10:25:17.109375
845,-198.93,2022-10-28 10:25:17.125000
846,-269.52,2022-10-28 10:25:17.140625
847,-326.74,2022-10-28 10:25:17.156250
848,-364.7,2022-10-28 10:25:17.171875
849,-380.34,2022-10-28 10:25:17.187500
850,-374.16,2022-10-28 10:25:17.203125
851,-349.88,2022-10-28 10:25:17.218750
852,-313.17,2022-10-28 10:25:17.234375
853,-269.94,2022-10-28 10:25:17.250000
854,-225.01,2022-10-28 10:25:17.265625
855,-181.09,2022-10-28 10:25:17.281250
856,-138.88,2022-10-28 10:25:17.296875
857,-97.8,2022-10-28 10:25:17.312500
858,-57.13,2022-10-28 10:25:17.328125
859,-17.12,2022-10-28 10:25:17.343750
860,20.45,2022-10-28 10:25:17.359375
861,52.35,2022-10-28 10:25:17.375000
862,74.94,2022-10-28 10:25:17.390625
863,85.5,2022-10-28 10:25:17.406250
864,83.48,2022-10-28 10:25:17.421875
865,70.99,2022-10-28 10:25:17.437500
866,52.28,2022-10-28 10:25:17.453125
867,32.14,2022-10-28 10:25:17.468750
868,14.4,2022-10-28 10:25:17.484375
869,0.82,2022-10-28 10:25:17.500000
870,-8.88,2022-10-28 10:25:17.515625
871,-16.1,2022-10-28 10:25:17.531250
872,-22.2,2022-10-28 10:25:17.546875
873,-27.76,2022-10-28 10:25:17.562500
874,-32.56,2022-10-28 10:25:17.578125
875,-36.09,2022-10-28 10:25:17.593750
876,-38.12,2022-10-28 10:25:17.609375
877,-38.98,2022-10-28 10:25:17.625000
878,-39.3,2022-10-28 10:25:17.640625
879,-39.44,2022-10-28 10:25:17.656250
880,-39.04,2022-10-28 10:25:17.671875
881,-36.96,2022-10-28 10:25:17.687500
882,-31.76,2022-10-28 10:25:17.703125
883,-22.61,2022-10-28 10:25:17.718750
884,-9.99,2022-10-28 10:25:17.734375
885,4.29,2022-10-28 10:25:17.750000
886,17.77,2022-10-28 10:25:17.765625
887,28.43,2022-10-28 10:25:17.781250
888,35.59,2022-10-28 10:25:17.796875
889,40.16,2022-10-28 10:25:17.812500
890,44.06,2022-10-28 10:25:17.828125
891,49.22,2022-10-28 10:25:17.843750
892,56.66,2022-10-28 10:25:17.859375
893,66.22,2022-10-28 10:25:17.875000
894,76.96,2022-10-28 10:25:17.890625
895,87.78,2022-10-28 10:25:17.906250
896,97.9,2022-10-28 10:25:17.921875
897,106.96,2022-10-28 10:25:17.937500
898,114.78,2022-10-28 10:25:17.953125
899,121.12,2022-10-28 10:25:17.968750
900,125.6,2022-10-28 10:25:17.984375
901,127.81,2022-10-28 10:25:18.000000
902,127.4,2022-10-28 10:25:18.015625
903,124.02,2022-10-28 10:25:18.031250
904,117.15,2022-10-28 10:25:18.046875
905,106.17,2022-10-28 10:25:18.062500
906,90.5,2022-10-28 10:25:18.078125
907,70.44,2022-10-28 10:25:18.093750
908,47.59,2022-10-28 10:25:18.109375
909,25.07,2022-10-28 10:25:18.125000
910,6.57,2022-10-28 10:25:18.140625
911,-4.94,2022-10-28 10:25:18.156250
912,-8.49,2022-10-28 10:25:18.171875
913,-5.45,2022-10-28 10:25:18.187500
914,1.28,2022-10-28 10:25:18.203125
915,8.67,2022-10-28 10:25:18.218750
916,14.9,2022-10-28 10:25:18.234375
917,19.83,2022-10-28 10:25:18.250000
918,24.51,2022-10-28 10:25:18.265625
919,30.12,2022-10-28 10:25:18.281250
920,37.09,2022-10-28 10:25:18.296875
921,44.85,2022-10-28 10:25:18.312500
922,52.25,2022-10-28 10:25:18.328125
923,58.19,2022-10-28 10:25:18.343750
924,62.0,2022-10-28 10:25:18.359375
925,63.56,2022-10-28 10:25:18.375000
926,63.04,2022-10-28 10:25:18.390625
927,60.68,2022-10-28 10:25:18.406250
928,56.81,2022-10-28 10:25:18.421875
929,51.88,2022-10-28 10:25:18.437500
930,46.49,2022-10-28 10:25:18.453125
931,41.2,2022-10-28 10:25:18.468750
932,36.33,2022-10-28 10:25:18.484375
933,31.74,2022-10-28 10:25:18.500000
934,26.86,2022-10-28 10:25:18.515625
935,20.89,2022-10-28 10:25:18.531250
936,13.05,2022-10-28 10:25:18.546875
937,3.01,2022-10-28 10:25:18.562500
938,-9.07,2022-10-28 10:25:18.578125
939,-22.51,2022-10-28 10:25:18.593750
940,-36.38,2022-10-28 10:25:18.609375
941,-49.78,2022-10-28 10:25:18.625000
942,-62.07,2022-10-28 10:25:18.640625
943,-72.91,2022-10-28 10:25:18.656250
944,-82.1,2022-10-28 10:25:18.671875
945,-89.5,2022-10-28 10:25:18.687500
946,-94.94,2022-10-28 10:25:18.703125
947,-98.38,2022-10-28 10:25:18.718750
948,-100.16,2022-10-28 10:25:18.734375
949,-101.05,2022-10-28 10:25:18.750000
950,-102.19,2022-10-28 10:25:18.765625
951,-104.66,2022-10-28 10:25:18.781250
952,-109.1,2022-10-28 10:25:18.796875
953,-115.38,2022-10-28 10:25:18.812500
954,-122.69,2022-10-28 10:25:18.828125
955,-129.83,2022-10-28 10:25:18.843750
956,-135.78,2022-10-28 10:25:18.859375
957,-140.15,2022-10-28 10:25:18.875000
958,-143.31,2022-10-28 10:25:18.890625
959,-146.2,2022-10-28 10:25:18.906250
960,-149.96,2022-10-28 10:25:18.921875
961,-155.37,2022-10-28 10:25:18.937500
962,-162.56,2022-10-28 10:25:18.953125
963,-170.91,2022-10-28 10:25:18.968750
964,-179.13,2022-10-28 10:25:18.984375
965,-185.4,2022-10-28 10:25:19.000000
966,-187.46,2022-10-28 10:25:19.015625
967,-182.79,2022-10-28 10:25:19.031250
968,-168.96,2022-10-28 10:25:19.046875
969,-144.25,2022-10-28 10:25:19.062500
970,-108.51,2022-10-28 10:25:19.078125
971,-63.85,2022-10-28 10:25:19.093750
972,-14.48,2022-10-28 10:25:19.109375
973,34.11,2022-10-28 10:25:19.125000
974,76.62,2022-10-28 10:25:19.140625
975,109.44,2022-10-28 10:25:19.156250
976,131.33,2022-10-28 10:25:19.171875
977,143.21,2022-10-28 10:25:19.187500
978,147.26,2022-10-28 10:25:19.203125
979,146.02,2022-10-28 10:25:19.218750
980,141.98,2022-10-28 10:25:19.234375
981,137.54,2022-10-28 10:25:19.250000
982,135.17,2022-10-28 10:25:19.265625
983,137.19,2022-10-28 10:25:19.281250
984,144.96,2022-10-28 10:25:19.296875
985,158.2,2022-10-28 10:25:19.312500
986,174.68,2022-10-28 10:25:19.328125
987,190.94,2022-10-28 10:25:19.343750
988,203.53,2022-10-28 10:25:19.359375
989,210.41,2022-10-28 10:25:19.375000
990,211.61,2022-10-28 10:25:19.390625
991,208.97,2022-10-28 10:25:19.406250
992,204.87,2022-10-28 10:25:19.421875
993,200.96,2022-10-28 10:25:19.437500
994,197.24,2022-10-28 10:25:19.453125
995,191.85,2022-10-28 10:25:19.468750
996,181.95,2022-10-28 10:25:19.484375
997,164.97,2022-10-28 10:25:19.500000
998,139.92,2022-10-28 10:25:19.515625
999,108.35,2022-10-28 10:25:19.531250
1000,74.29,2022-10-28 10:25:19.546875
1001,43.42,2022-10-28 10:25:19.562500
1002,21.62,2022-10-28 10:25:19.578125
1003,13.31,2022-10-28 10:25:19.593750
1004,20.11,2022-10-28 10:25:19.609375
1005,40.22,2022-10-28 10:25:19.625000
1006,68.66,2022-10-28 10:25:19.640625
1007,98.4,2022-10-28 10:25:19.656250
1008,122.15,2022-10-28 10:25:19.671875
1009,134.49,2022-10-28 10:25:19.687500
1010,133.58,2022-10-28 10:25:19.703125
1011,121.87,2022-10-28 10:25:19.718750
1012,105.43,2022-10-28 10:25:19.734375
1013,91.97,2022-10-28 10:25:19.750000
1014,88.06,2022-10-28 10:25:19.765625
1015,96.79,2022-10-28 10:25:19.781250
1016,116.62,2022-10-28 10:25:19.796875
1017,141.75,2022-10-28 10:25:19.812500
1018,163.96,2022-10-28 10:25:19.828125
1019,175.13,2022-10-28 10:25:19.843750
1020,169.82,2022-10-28 10:25:19.859375
1021,147.09,2022-10-28 10:25:19.875000
1022,111.1,2022-10-28 10:25:19.890625
1023,70.03,2022-10-28 10:25:19.906250
1024,33.71,2022-10-28 10:25:19.921875
1025,10.48,2022-10-28 10:25:19.937500
1026,4.61,2022-10-28 10:25:19.953125
1027,15.14,2022-10-28 10:25:19.968750
1028,36.44,2022-10-28 10:25:19.984375
1029,60.06,2022-10-28 10:25:20.000000
1030,77.2,2022-10-28 10:25:20.015625
1031,80.98,2022-10-28 10:25:20.031250
1032,68.14,2022-10-28 10:25:20.046875
1033,39.94,2022-10-28 10:25:20.062500
1034,2.08,2022-10-28 10:25:20.078125
1035,-36.63,2022-10-28 10:25:20.093750
1036,-66.65,2022-10-28 10:25:20.109375
1037,-80.79,2022-10-28 10:25:20.125000
1038,-76.67,2022-10-28 10:25:20.140625
1039,-57.5,2022-10-28 10:25:20.156250
1040,-30.76,2022-10-28 10:25:20.171875
1041,-5.43,2022-10-28 10:25:20.187500
1042,11.15,2022-10-28 10:25:20.203125
1043,15.28,2022-10-28 10:25:20.218750
1044,7.25,2022-10-28 10:25:20.234375
1045,-9.39,2022-10-28 10:25:20.250000
1046,-29.4,2022-10-28 10:25:20.265625
1047,-47.49,2022-10-28 10:25:20.281250
1048,-59.82,2022-10-28 10:25:20.296875
1049,-65.12,2022-10-28 10:25:20.312500
1050,-64.96,2022-10-28 10:25:20.328125
1051,-62.89,2022-10-28 10:25:20.343750
1052,-62.71,2022-10-28 10:25:20.359375
1053,-66.62,2022-10-28 10:25:20.375000
1054,-74.41,2022-10-28 10:25:20.390625
1055,-83.94,2022-10-28 10:25:20.406250
1056,-92.61,2022-10-28 10:25:20.421875
1057,-98.87,2022-10-28 10:25:20.437500
1058,-102.77,2022-10-28 10:25:20.453125
1059,-105.06,2022-10-28 10:25:20.468750
1060,-106.04,2022-10-28 10:25:20.484375
1061,-104.72,2022-10-28 10:25:20.500000
1062,-99.23,2022-10-28 10:25:20.515625
1063,-88.15,2022-10-28 10:25:20.531250
1064,-72.0,2022-10-28 10:25:20.546875
1065,-53.84,2022-10-28 10:25:20.562500
1066,-38.44,2022-10-28 10:25:20.578125
1067,-30.53,2022-10-28 10:25:20.593750
1068,-32.78,2022-10-28 10:25:20.609375
1069,-44.67,2022-10-28 10:25:20.625000
1070,-62.8,2022-10-28 10:25:20.640625
1071,-82.23,2022-10-28 10:25:20.656250
1072,-98.3,2022-10-28 10:25:20.671875
1073,-108.11,2022-10-28 10:25:20.687500
1074,-110.89,2022-10-28 10:25:20.703125
1075,-107.55,2022-10-28 10:25:20.718750
1076,-99.81,2022-10-28 10:25:20.734375
1077,-89.62,2022-10-28 10:25:20.750000
1078,-79.01,2022-10-28 10:25:20.765625
1079,-70.4,2022-10-28 10:25:20.781250
1080,-66.63,2022-10-28 10:25:20.796875
1081,-70.64,2022-10-28 10:25:20.812500
1082,-84.32,2022-10-28 10:25:20.828125
1083,-107.2,2022-10-28 10:25:20.843750
1084,-135.72,2022-10-28 10:25:20.859375
1085,-163.8,2022-10-28 10:25:20.875000
1086,-184.9,2022-10-28 10:25:20.890625
1087,-194.95,2022-10-28 10:25:20.906250
1088,-194.83,2022-10-28 10:25:20.921875
1089,-190.77,2022-10-28 10:25:20.937500
1090,-192.05,2022-10-28 10:25:20.953125
1091,-206.56,2022-10-28 10:25:20.968750
1092,-236.25,2022-10-28 10:25:20.984375
1093,-275.06,2022-10-28 10:25:21.000000
1094,-310.63,2022-10-28 10:25:21.015625
1095,-329.32,2022-10-28 10:25:21.031250
1096,-322.09,2022-10-28 10:25:21.046875
1097,-288.4,2022-10-28 10:25:21.062500
1098,-236.05,2022-10-28 10:25:21.078125
1099,-177.7,2022-10-28 10:25:21.093750
1100,-125.51,2022-10-28 10:25:21.109375
1101,-87.13,2022-10-28 10:25:21.125000
1102,-64.14,2022-10-28 10:25:21.140625
1103,-53.44,2022-10-28 10:25:21.156250
1104,-50.07,2022-10-28 10:25:21.171875
1105,-49.71,2022-10-28 10:25:21.187500
1106,-49.78,2022-10-28 10:25:21.203125
1107,-49.0,2022-10-28 10:25:21.218750
1108,-46.07,2022-10-28 10:25:21.234375
1109,-38.85,2022-10-28 10:25:21.250000
1110,-24.44,2022-10-28 10:25:21.265625
1111,-0.32,2022-10-28 10:25:21.281250
1112,34.43,2022-10-28 10:25:21.296875
1113,78.5,2022-10-28 10:25:21.312500
1114,128.7,2022-10-28 10:25:21.328125
1115,180.91,2022-10-28 10:25:21.343750
1116,231.11,2022-10-28 10:25:21.359375
1117,275.96,2022-10-28 10:25:21.375000
1118,312.76,2022-10-28 10:25:21.390625
1119,339.38,2022-10-28 10:25:21.406250
1120,354.25,2022-10-28 10:25:21.421875
1121,356.68,2022-10-28 10:25:21.437500
1122,347.05,2022-10-28 10:25:21.453125
1123,326.78,2022-10-28 10:25:21.468750
1124,297.76,2022-10-28 10:25:21.484375
1125,261.88,2022-10-28 10:25:21.500000
1126,220.92,2022-10-28 10:25:21.515625
1127,176.98,2022-10-28 10:25:21.531250
1128,133.0,2022-10-28 10:25:21.546875
1129,92.75,2022-10-28 10:25:21.562500
1130,60.08,2022-10-28 10:25:21.578125
1131,37.65,2022-10-28 10:25:21.593750
1132,25.75,2022-10-28 10:25:21.609375
1133,22.17,2022-10-28 10:25:21.625000
1134,23.14,2022-10-28 10:25:21.640625
1135,24.88,2022-10-28 10:25:21.656250
1136,25.01,2022-10-28 10:25:21.671875
1137,23.06,2022-10-28 10:25:21.687500
1138,20.11,2022-10-28 10:25:21.703125
1139,17.73,2022-10-28 10:25:21.718750
1140,16.86,2022-10-28 10:25:21.734375
1141,17.3,2022-10-28 10:25:21.750000
1142,17.87,2022-10-28 10:25:21.765625
1143,17.12,2022-10-28 10:25:21.781250
1144,14.12,2022-10-28 10:25:21.796875
1145,9.01,2022-10-28 10:25:21.812500
1146,3.0,2022-10-28 10:25:21.828125
1147,-2.11,2022-10-28 10:25:21.843750
1148,-4.61,2022-10-28 10:25:21.859375
1149,-3.61,2022-10-28 10:25:21.875000
1150,0.62,2022-10-28 10:25:21.890625
1151,6.68,2022-10-28 10:25:21.906250
1152,12.46,2022-10-28 10:25:21.921875
1153,15.88,2022-10-28 10:25:21.937500
1154,15.55,2022-10-28 10:25:21.953125
1155,11.24,2022-10-28 10:25:21.968750
1156,3.97,2022-10-28 10:25:21.984375
1157,-4.47,2022-10-28 10:25:22.000000
1158,-12.08,2022-10-28 10:25:22.015625
1159,-17.44,2022-10-28 10:25:22.031250
1160,-20.13,2022-10-28 10:25:22.046875
1161,-21.07,2022-10-28 10:25:22.062500
1162,-22.18,2022-10-28 10:25:22.078125
1163,-25.78,2022-10-28 10:25:22.093750
1164,-33.66,2022-10-28 10:25:22.109375
1165,-46.22,2022-10-28 10:25:22.125000
1166,-62.16,2022-10-28 10:25:22.140625
1167,-78.84,2022-10-28 10:25:22.156250
1168,-93.27,2022-10-28 10:25:22.171875
1169,-102.97,2022-10-28 10:25:22.187500
1170,-106.62,2022-10-28 10:25:22.203125
1171,-103.92,2022-10-28 10:25:22.218750
1172,-95.25,2022-10-28 10:25:22.234375
1173,-81.28,2022-10-28 10:25:22.250000
1174,-63.11,2022-10-28 10:25:22.265625
1175,-42.53,2022-10-28 10:25:22.281250
1176,-22.16,2022-10-28 10:25:22.296875
1177,-5.14,2022-10-28 10:25:22.312500
1178,5.92,2022-10-28 10:25:22.328125
1179,9.86,2022-10-28 10:25:22.343750
1180,7.55,2022-10-28 10:25:22.359375
1181,1.36,2022-10-28 10:25:22.375000
1182,-5.81,2022-10-28 10:25:22.390625
1183,-11.74,2022-10-28 10:25:22.406250
1184,-15.3,2022-10-28 10:25:22.421875
1185,-16.41,2022-10-28 10:25:22.437500
1186,-15.46,2022-10-28 10:25:22.453125
1187,-12.87,2022-10-28 10:25:22.468750
1188,-9.05,2022-10-28 10:25:22.484375
1189,-4.56,2022-10-28 10:25:22.500000
1190,-0.19,2022-10-28 10:25:22.515625
1191,3.15,2022-10-28 10:25:22.531250
1192,4.81,2022-10-28 10:25:22.546875
1193,4.67,2022-10-28 10:25:22.562500
1194,3.12,2022-10-28 10:25:22.578125
1195,0.71,2022-10-28 10:25:22.593750
1196,-2.15,2022-10-28 10:25:22.609375
1197,-5.38,2022-10-28 10:25:22.625000
1198,-9.07,2022-10-28 10:25:22.640625
1199,-13.22,2022-10-28 10:25:22.656250
1200,-17.52,2022-10-28 10:25:22.671875
1201,-21.35,2022-10-28 10:25:22.687500
1202,-24.04,2022-10-28 10:25:22.703125
1203,-25.16,2022-10-28 10:25:22.718750
1204,-24.69,2022-10-28 10:25:22.734375
1205,-22.88,2022-10-28 10:25:22.750000
1206,-20.16,2022-10-28 10:25:22.765625
1207,-16.79,2022-10-28 10:25:22.781250
1208,-12.94,2022-10-28 10:25:22.796875
1209,-8.64,2022-10-28 10:25:22.812500
1210,-4.08,2022-10-28 10:25:22.828125
1211,0.37,2022-10-28 10:25:22.843750
1212,4.19,2022-10-28 10:25:22.859375
1213,6.93,2022-10-28 10:25:22.875000
1214,8.41,2022-10-28 10:25:22.890625
1215,8.81,2022-10-28 10:25:22.906250
1216,8.66,2022-10-28 10:25:22.921875
1217,8.53,2022-10-28 10:25:22.937500
1218,8.8,2022-10-28 10:25:22.953125
1219,9.42,2022-10-28 10:25:22.968750
1220,10.01,2022-10-28 10:25:22.984375
1221,10.04,2022-10-28 10:25:23.000000
1222,9.19,2022-10-28 10:25:23.015625
1223,7.44,2022-10-28 10:25:23.031250
1224,5.17,2022-10-28 10:25:23.046875
1225,2.8,2022-10-28 10:25:23.062500
1226,0.68,2022-10-28 10:25:23.078125
1227,-1.24,2022-10-28 10:25:23.093750
1228,-3.27,2022-10-28 10:25:23.109375
1229,-5.93,2022-10-28 10:25:23.125000
1230,-9.69,2022-10-28 10:25:23.140625
1231,-14.89,2022-10-28 10:25:23.156250
1232,-21.58,2022-10-28 10:25:23.171875
1233,-29.52,2022-10-28 10:25:23.187500
1234,-38.06,2022-10-28 10:25:23.203125
1235,-46.11,2022-10-28 10:25:23.218750
1236,-52.22,2022-10-28 10:25:23.234375
1237,-54.8,2022-10-28 10:25:23.250000
1238,-52.58,2022-10-28 10:25:23.265625
1239,-45.11,2022-10-28 10:25:23.281250
1240,-33.05,2022-10-28 10:25:23.296875
1241,-17.96,2022-10-28 10:25:23.312500
1242,-1.91,2022-10-28 10:25:23.328125
1243,13.36,2022-10-28 10:25:23.343750
1244,26.78,2022-10-28 10:25:23.359375
1245,38.14,2022-10-28 10:25:23.375000
1246,47.73,2022-10-28 10:25:23.390625
1247,55.87,2022-10-28 10:25:23.406250
1248,62.58,2022-10-28 10:25:23.421875
1249,67.55,2022-10-28 10:25:23.437500
1250,70.4,2022-10-28 10:25:23.453125
1251,71.08,2022-10-28 10:25:23.468750
1252,70.12,2022-10-28 10:25:23.484375
1253,68.6,2022-10-28 10:25:23.500000
1254,67.79,2022-10-28 10:25:23.515625
1255,68.61,2022-10-28 10:25:23.531250
1256,71.27,2022-10-28 10:25:23.546875
1257,75.2,2022-10-28 10:25:23.562500
1258,79.3,2022-10-28 10:25:23.578125
1259,82.47,2022-10-28 10:25:23.593750
1260,84.04,2022-10-28 10:25:23.609375
1261,84.04,2022-10-28 10:25:23.625000
1262,83.14,2022-10-28 10:25:23.640625
1263,82.26,2022-10-28 10:25:23.656250
1264,82.2,2022-10-28 10:25:23.671875
1265,83.21,2022-10-28 10:25:23.687500
1266,84.9,2022-10-28 10:25:23.703125
1267,86.2,2022-10-28 10:25:23.718750
1268,85.49,2022-10-28 10:25:23.734375
1269,80.78,2022-10-28 10:25:23.750000
1270,70.01,2022-10-28 10:25:23.765625
1271,51.59,2022-10-28 10:25:23.781250
1272,25.06,2022-10-28 10:25:23.796875
1273,-8.47,2022-10-28 10:25:23.812500
1274,-46.46,2022-10-28 10:25:23.828125
1275,-85.76,2022-10-28 10:25:23.843750
1276,-123.84,2022-10-28 10:25:23.859375
1277,-159.76,2022-10-28 10:25:23.875000
1278,-194.26,2022-10-28 10:25:23.890625
1279,-228.94,2022-10-28 10:25:23.906250
1280,-264.77,2022-10-28 10:25:23.921875
1281,-300.96,2022-10-28 10:25:23.937500
1282,-334.88,2022-10-28 10:25:23.953125
1283,-363.03,2022-10-28 10:25:23.968750
1284,-382.64,2022-10-28 10:25:23.984375
1285,-392.99,2022-10-28 10:25:24.000000
1286,-395.56,2022-10-28 10:25:24.015625
1287,-393.11,2022-10-28 10:25:24.031250
1288,-388.14,2022-10-28 10:25:24.046875
1289,-381.69,2022-10-28 10:25:24.062500
1290,-372.94,2022-10-28 10:25:24.078125
1291,-359.86,2022-10-28 10:25:24.093750
1292,-340.33,2022-10-28 10:25:24.109375
1293,-313.16,2022-10-28 10:25:24.125000
1294,-278.62,2022-10-28 10:25:24.140625
1295,-238.29,2022-10-28 10:25:24.156250
1296,-194.44,2022-10-28 10:25:24.171875
1297,-149.34,2022-10-28 10:25:24.187500
1298,-104.86,2022-10-28 10:25:24.203125
1299,-62.3,2022-10-28 10:25:24.218750
1300,-22.64,2022-10-28 10:25:24.234375
1301,13.14,2022-10-28 10:25:24.250000
1302,44.09,2022-10-28 10:25:24.265625
1303,69.48,2022-10-28 10:25:24.281250
1304,89.21,2022-10-28 10:25:24.296875
1305,104.12,2022-10-28 10:25:24.312500
1306,115.78,2022-10-28 10:25:24.328125
1307,125.95,2022-10-28 10:25:24.343750
1308,135.7,2022-10-28 10:25:24.359375
1309,145.05,2022-10-28 10:25:24.375000
1310,153.15,2022-10-28 10:25:24.390625
1311,159.09,2022-10-28 10:25:24.406250
1312,162.86,2022-10-28 10:25:24.421875
1313,165.69,2022-10-28 10:25:24.437500
1314,169.69,2022-10-28 10:25:24.453125
1315,176.97,2022-10-28 10:25:24.468750
1316,188.61,2022-10-28 10:25:24.484375
1317,204.2,2022-10-28 10:25:24.500000
1318,221.98,2022-10-28 10:25:24.515625
1319,239.61,2022-10-28 10:25:24.531250
1320,255.01,2022-10-28 10:25:24.546875
1321,267.06,2022-10-28 10:25:24.562500
1322,275.89,2022-10-28 10:25:24.578125
1323,282.6,2022-10-28 10:25:24.593750
1324,288.66,2022-10-28 10:25:24.609375
1325,295.06,2022-10-28 10:25:24.625000
1326,301.6,2022-10-28 10:25:24.640625
1327,306.58,2022-10-28 10:25:24.656250
1328,307.14,2022-10-28 10:25:24.671875
1329,300.24,2022-10-28 10:25:24.687500
1330,283.73,2022-10-28 10:25:24.703125
1331,257.21,2022-10-28 10:25:24.718750
1332,222.18,2022-10-28 10:25:24.734375
1333,181.42,2022-10-28 10:25:24.750000
1334,138.16,2022-10-28 10:25:24.765625
1335,95.14,2022-10-28 10:25:24.781250
1336,54.34,2022-10-28 10:25:24.796875
1337,16.99,2022-10-28 10:25:24.812500
1338,-16.09,2022-10-28 10:25:24.828125
1339,-44.12,2022-10-28 10:25:24.843750
1340,-66.17,2022-10-28 10:25:24.859375
1341,-81.09,2022-10-28 10:25:24.875000
1342,-87.7,2022-10-28 10:25:24.890625
1343,-85.16,2022-10-28 10:25:24.906250
1344,-73.37,2022-10-28 10:25:24.921875
1345,-53.3,2022-10-28 10:25:24.937500
1346,-26.96,2022-10-28 10:25:24.953125
1347,3.01,2022-10-28 10:25:24.968750
1348,34.04,2022-10-28 10:25:24.984375
1349,64.27,2022-10-28 10:25:25.000000
1350,92.71,2022-10-28 10:25:25.015625
1351,118.79,2022-10-28 10:25:25.031250
1352,141.44,2022-10-28 10:25:25.046875
1353,158.48,2022-10-28 10:25:25.062500
1354,166.69,2022-10-28 10:25:25.078125
1355,163.03,2022-10-28 10:25:25.093750
1356,146.19,2022-10-28 10:25:25.109375
1357,117.78,2022-10-28 10:25:25.125000
1358,82.42,2022-10-28 10:25:25.140625
1359,46.38,2022-10-28 10:25:25.156250
1360,15.51,2022-10-28 10:25:25.171875
1361,-6.66,2022-10-28 10:25:25.187500
1362,-19.74,2022-10-28 10:25:25.203125
1363,-25.99,2022-10-28 10:25:25.218750
1364,-28.8,2022-10-28 10:25:25.234375
1365,-31.11,2022-10-28 10:25:25.250000
1366,-34.45,2022-10-28 10:25:25.265625
1367,-38.89,2022-10-28 10:25:25.281250
1368,-43.83,2022-10-28 10:25:25.296875
1369,-48.95,2022-10-28 10:25:25.312500
1370,-54.72,2022-10-28 10:25:25.328125
1371,-62.25,2022-10-28 10:25:25.343750
1372,-72.62,2022-10-28 10:25:25.359375
1373,-86.14,2022-10-28 10:25:25.375000
1374,-101.97,2022-10-28 10:25:25.390625
1375,-118.38,2022-10-28 10:25:25.406250
1376,-133.54,2022-10-28 10:25:25.421875
1377,-146.37,2022-10-28 10:25:25.437500
1378,-156.99,2022-10-28 10:25:25.453125
1379,-166.5,2022-10-28 10:25:25.468750
1380,-176.07,2022-10-28 10:25:25.484375
1381,-185.96,2022-10-28 10:25:25.500000
1382,-194.99,2022-10-28 10:25:25.515625
1383,-200.81,2022-10-28 10:25:25.531250
1384,-201.01,2022-10-28 10:25:25.546875
1385,-194.29,2022-10-28 10:25:25.562500
1386,-181.38,2022-10-28 10:25:25.578125
1387,-164.82,2022-10-28 10:25:25.593750
1388,-147.98,2022-10-28 10:25:25.609375
1389,-133.53,2022-10-28 10:25:25.625000
1390,-122.39,2022-10-28 10:25:25.640625
1391,-113.47,2022-10-28 10:25:25.656250
1392,-104.38,2022-10-28 10:25:25.671875
1393,-92.63,2022-10-28 10:25:25.687500
1394,-76.73,2022-10-28 10:25:25.703125
1395,-56.69,2022-10-28 10:25:25.718750
1396,-33.77,2022-10-28 10:25:25.734375
1397,-9.87,2022-10-28 10:25:25.750000
1398,13.14,2022-10-28 10:25:25.765625
1399,33.82,2022-10-28 10:25:25.781250
1400,51.25,2022-10-28 10:25:25.796875
1401,64.95,2022-10-28 10:25:25.812500
1402,74.76,2022-10-28 10:25:25.828125
1403,80.72,2022-10-28 10:25:25.843750
1404,83.07,2022-10-28 10:25:25.859375
1405,82.26,2022-10-28 10:25:25.875000
1406,78.9,2022-10-28 10:25:25.890625
1407,73.72,2022-10-28 10:25:25.906250
1408,67.38,2022-10-28 10:25:25.921875
1409,60.37,2022-10-28 10:25:25.937500
1410,52.88,2022-10-28 10:25:25.953125
1411,44.78,2022-10-28 10:25:25.968750
1412,35.83,2022-10-28 10:25:25.984375
1413,25.91,2022-10-28 10:25:26.000000
1414,15.4,2022-10-28 10:25:26.015625
1415,5.41,2022-10-28 10:25:26.031250
1416,-2.46,2022-10-28 10:25:26.046875
1417,-6.56,2022-10-28 10:25:26.062500
1418,-5.94,2022-10-28 10:25:26.078125
1419,-0.84,2022-10-28 10:25:26.093750
1420,7.25,2022-10-28 10:25:26.109375
1421,16.14,2022-10-28 10:25:26.125000
1422,23.8,2022-10-28 10:25:26.140625
1423,29.14,2022-10-28 10:25:26.156250
1424,32.33,2022-10-28 10:25:26.171875
1425,34.55,2022-10-28 10:25:26.187500
1426,37.38,2022-10-28 10:25:26.203125
1427,42.14,2022-10-28 10:25:26.218750
1428,49.55,2022-10-28 10:25:26.234375
1429,59.76,2022-10-28 10:25:26.250000
1430,72.46,2022-10-28 10:25:26.265625
1431,87.08,2022-10-28 10:25:26.281250
1432,102.9,2022-10-28 10:25:26.296875
1433,119.09,2022-10-28 10:25:26.312500
1434,134.95,2022-10-28 10:25:26.328125
1435,150.04,2022-10-28 10:25:26.343750
1436,164.29,2022-10-28 10:25:26.359375
1437,177.72,2022-10-28 10:25:26.375000
1438,190.07,2022-10-28 10:25:26.390625
1439,200.35,2022-10-28 10:25:26.406250
1440,207.01,2022-10-28 10:25:26.421875
1441,208.42,2022-10-28 10:25:26.437500
1442,203.54,2022-10-28 10:25:26.453125
1443,192.47,2022-10-28 10:25:26.468750
1444,176.26,2022-10-28 10:25:26.484375
1445,156.35,2022-10-28 10:25:26.500000
1446,133.93,2022-10-28 10:25:26.515625
1447,109.52,2022-10-28 10:25:26.531250
1448,83.12,2022-10-28 10:25:26.546875
1449,54.51,2022-10-28 10:25:26.562500
1450,23.65,2022-10-28 10:25:26.578125
1451,-9.14,2022-10-28 10:25:26.593750
1452,-43.13,2022-10-28 10:25:26.609375
1453,-77.27,2022-10-28 10:25:26.625000
1454,-110.1,2022-10-28 10:25:26.640625
1455,-139.86,2022-10-28 10:25:26.656250
1456,-164.68,2022-10-28 10:25:26.671875
1457,-182.96,2022-10-28 10:25:26.687500
1458,-193.67,2022-10-28 10:25:26.703125
1459,-196.6,2022-10-28 10:25:26.718750
1460,-192.09,2022-10-28 10:25:26.734375
1461,-180.88,2022-10-28 10:25:26.750000
1462,-163.85,2022-10-28 10:25:26.765625
1463,-142.08,2022-10-28 10:25:26.781250
1464,-116.91,2022-10-28 10:25:26.796875
1465,-90.0,2022-10-28 10:25:26.812500
1466,-63.09,2022-10-28 10:25:26.828125
1467,-37.76,2022-10-28 10:25:26.843750
1468,-15.12,2022-10-28 10:25:26.859375
1469,4.3,2022-10-28 10:25:26.875000
1470,20.51,2022-10-28 10:25:26.890625
1471,33.77,2022-10-28 10:25:26.906250
1472,44.59,2022-10-28 10:25:26.921875
1473,53.47,2022-10-28 10:25:26.937500
1474,60.78,2022-10-28 10:25:26.953125
1475,66.68,2022-10-28 10:25:26.968750
1476,71.05,2022-10-28 10:25:26.984375
1477,73.61,2022-10-28 10:25:27.000000
1478,74.18,2022-10-28 10:25:27.015625
1479,72.95,2022-10-28 10:25:27.031250
1480,70.5,2022-10-28 10:25:27.046875
1481,67.57,2022-10-28 10:25:27.062500
1482,64.52,2022-10-28 10:25:27.078125
1483,61.12,2022-10-28 10:25:27.093750
1484,56.6,2022-10-28 10:25:27.109375
1485,50.12,2022-10-28 10:25:27.125000
1486,41.39,2022-10-28 10:25:27.140625
1487,31.08,2022-10-28 10:25:27.156250
1488,20.54,2022-10-28 10:25:27.171875
1489,11.31,2022-10-28 10:25:27.187500
1490,4.32,2022-10-28 10:25:27.203125
1491,-0.49,2022-10-28 10:25:27.218750
1492,-4.17,2022-10-28 10:25:27.234375
1493,-8.23,2022-10-28 10:25:27.250000
1494,-13.99,2022-10-28 10:25:27.265625
1495,-22.05,2022-10-28 10:25:27.281250
1496,-32.08,2022-10-28 10:25:27.296875
1497,-42.99,2022-10-28 10:25:27.312500
1498,-53.31,2022-10-28 10:25:27.328125
1499,-61.67,2022-10-28 10:25:27.343750
1500,-67.2,2022-10-28 10:25:27.359375
1501,-69.62,2022-10-28 10:25:27.375000
1502,-69.16,2022-10-28 10:25:27.390625
1503,-66.34,2022-10-28 10:25:27.406250
1504,-61.68,2022-10-28 10:25:27.421875
1505,-55.62,2022-10-28 10:25:27.437500
1506,-48.59,2022-10-28 10:25:27.453125
1507,-41.13,2022-10-28 10:25:27.468750
1508,-33.88,2022-10-28 10:25:27.484375
1509,-27.51,2022-10-28 10:25:27.500000
1510,-22.37,2022-10-28 10:25:27.515625
1511,-18.29,2022-10-28 10:25:27.531250
1512,-14.59,2022-10-28 10:25:27.546875
1513,-10.39,2022-10-28 10:25:27.562500
1514,-5.13,2022-10-28 10:25:27.578125
1515,1.13,2022-10-28 10:25:27.593750
1516,7.69,2022-10-28 10:25:27.609375
1517,13.58,2022-10-28 10:25:27.625000
1518,18.14,2022-10-28 10:25:27.640625
1519,21.34,2022-10-28 10:25:27.656250
1520,23.76,2022-10-28 10:25:27.671875
1521,26.24,2022-10-28 10:25:27.687500
1522,29.32,2022-10-28 10:25:27.703125
1523,33.03,2022-10-28 10:25:27.718750
1524,36.92,2022-10-28 10:25:27.734375
1525,40.53,2022-10-28 10:25:27.750000
1526,43.83,2022-10-28 10:25:27.765625
1527,47.33,2022-10-28 10:25:27.781250
1528,51.74,2022-10-28 10:25:27.796875
1529,57.46,2022-10-28 10:25:27.812500
1530,64.0,2022-10-28 10:25:27.828125
1531,69.92,2022-10-28 10:25:27.843750
1532,73.31,2022-10-28 10:25:27.859375
1533,72.49,2022-10-28 10:25:27.875000
1534,66.73,2022-10-28 10:25:27.890625
1535,56.44,2022-10-28 10:25:27.906250
1536,42.86,2022-10-28 10:25:27.921875
1537,27.55,2022-10-28 10:25:27.937500
1538,11.9,2022-10-28 10:25:27.953125
1539,-3.06,2022-10-28 10:25:27.968750
1540,-16.76,2022-10-28 10:25:27.984375
1541,-29.01,2022-10-28 10:25:28.000000
1542,-40.07,2022-10-28 10:25:28.015625
1543,-50.63,2022-10-28 10:25:28.031250
1544,-61.65,2022-10-28 10:25:28.046875
1545,-73.79,2022-10-28 10:25:28.062500
1546,-86.93,2022-10-28 10:25:28.078125
1547,-99.88,2022-10-28 10:25:28.093750
1548,-110.63,2022-10-28 10:25:28.109375
1549,-117.31,2022-10-28 10:25:28.125000
1550,-119.23,2022-10-28 10:25:28.140625
1551,-117.58,2022-10-28 10:25:28.156250
1552,-115.2,2022-10-28 10:25:28.171875
1553,-115.52,2022-10-28 10:25:28.187500
1554,-121.14,2022-10-28 10:25:28.203125
1555,-132.66,2022-10-28 10:25:28.218750
1556,-148.34,2022-10-28 10:25:28.234375
1557,-164.76,2022-10-28 10:25:28.250000
1558,-177.94,2022-10-28 10:25:28.265625
1559,-184.66,2022-10-28 10:25:28.281250
1560,-183.28,2022-10-28 10:25:28.296875
1561,-173.9,2022-10-28 10:25:28.312500
1562,-157.9,2022-10-28 10:25:28.328125
1563,-137.15,2022-10-28 10:25:28.343750
1564,-113.44,2022-10-28 10:25:28.359375
1565,-88.21,2022-10-28 10:25:28.375000
1566,-62.65,2022-10-28 10:25:28.390625
1567,-37.82,2022-10-28 10:25:28.406250
1568,-14.6,2022-10-28 10:25:28.421875
1569,6.47,2022-10-28 10:25:28.437500
1570,25.36,2022-10-28 10:25:28.453125
1571,42.44,2022-10-28 10:25:28.468750
1572,58.18,2022-10-28 10:25:28.484375
1573,72.92,2022-10-28 10:25:28.500000
1574,86.78,2022-10-28 10:25:28.515625
1575,99.93,2022-10-28 10:25:28.531250
1576,112.81,2022-10-28 10:25:28.546875
1577,126.16,2022-10-28 10:25:28.562500
1578,140.6,2022-10-28 10:25:28.578125
1579,156.14,2022-10-28 10:25:28.593750
1580,171.79,2022-10-28 10:25:28.609375
1581,185.75,2022-10-28 10:25:28.625000
1582,195.87,2022-10-28 10:25:28.640625
1583,200.12,2022-10-28 10:25:28.656250
1584,196.88,2022-10-28 10:25:28.671875
1585,184.75,2022-10-28 10:25:28.687500
1586,162.66,2022-10-28 10:25:28.703125
1587,130.27,2022-10-28 10:25:28.718750
1588,88.88,2022-10-28 10:25:28.734375
1589,42.11,2022-10-28 10:25:28.750000
1590,-4.3,2022-10-28 10:25:28.765625
1591,-43.75,2022-10-28 10:25:28.781250
1592,-70.92,2022-10-28 10:25:28.796875
1593,-83.46,2022-10-28 10:25:28.812500
1594,-82.54,2022-10-28 10:25:28.828125
1595,-72.1,2022-10-28 10:25:28.843750
1596,-56.96,2022-10-28 10:25:28.859375
1597,-41.13,2022-10-28 10:25:28.875000
1598,-26.75,2022-10-28 10:25:28.890625
1599,-14.26,2022-10-28 10:25:28.906250
1600,-3.11,2022-10-28 10:25:28.921875
1601,7.39,2022-10-28 10:25:28.937500
1602,17.59,2022-10-28 10:25:28.953125
1603,27.57,2022-10-28 10:25:28.968750
1604,37.24,2022-10-28 10:25:28.984375
1605,46.46,2022-10-28 10:25:29.000000
1606,54.91,2022-10-28 10:25:29.015625
1607,62.04,2022-10-28 10:25:29.031250
1608,67.15,2022-10-28 10:25:29.046875
1609,69.7,2022-10-28 10:25:29.062500
1610,69.67,2022-10-28 10:25:29.078125
1611,67.72,2022-10-28 10:25:29.093750
1612,64.97,2022-10-28 10:25:29.109375
1613,62.51,2022-10-28 10:25:29.125000
1614,60.96,2022-10-28 10:25:29.140625
1615,60.16,2022-10-28 10:25:29.156250
1616,59.23,2022-10-28 10:25:29.171875
1617,56.89,2022-10-28 10:25:29.187500
1618,51.9,2022-10-28 10:25:29.203125
1619,43.54,2022-10-28 10:25:29.218750
1620,31.9,2022-10-28 10:25:29.234375
1621,18.03,2022-10-28 10:25:29.250000
1622,3.74,2022-10-28 10:25:29.265625
1623,-8.79,2022-10-28 10:25:29.281250
1624,-17.68,2022-10-28 10:25:29.296875
1625,-21.96,2022-10-28 10:25:29.312500
1626,-21.97,2022-10-28 10:25:29.328125
1627,-19.32,2022-10-28 10:25:29.343750
1628,-16.36,2022-10-28 10:25:29.359375
1629,-15.33,2022-10-28 10:25:29.375000
1630,-17.61,2022-10-28 10:25:29.390625
1631,-23.25,2022-10-28 10:25:29.406250
1632,-31.04,2022-10-28 10:25:29.421875
1633,-39.0,2022-10-28 10:25:29.437500
1634,-45.25,2022-10-28 10:25:29.453125
1635,-48.66,2022-10-28 10:25:29.468750
1636,-49.22,2022-10-28 10:25:29.484375
1637,-47.78,2022-10-28 10:25:29.500000
1638,-45.39,2022-10-28 10:25:29.515625
1639,-42.56,2022-10-28 10:25:29.531250
1640,-38.88,2022-10-28 10:25:29.546875
1641,-33.41,2022-10-28 10:25:29.562500
1642,-25.46,2022-10-28 10:25:29.578125
1643,-15.38,2022-10-28 10:25:29.593750
1644,-4.82,2022-10-28 10:25:29.609375
1645,3.79,2022-10-28 10:25:29.625000
1646,8.22,2022-10-28 10:25:29.640625
1647,7.36,2022-10-28 10:25:29.656250
1648,1.49,2022-10-28 10:25:29.671875
1649,-8.04,2022-10-28 10:25:29.687500
1650,-19.61,2022-10-28 10:25:29.703125
1651,-31.89,2022-10-28 10:25:29.718750
1652,-43.98,2022-10-28 10:25:29.734375
1653,-55.17,2022-10-28 10:25:29.750000
1654,-64.68,2022-10-28 10:25:29.765625
1655,-71.63,2022-10-28 10:25:29.781250
1656,-75.33,2022-10-28 10:25:29.796875
1657,-75.6,2022-10-28 10:25:29.812500
1658,-72.83,2022-10-28 10:25:29.828125
1659,-67.83,2022-10-28 10:25:29.843750
1660,-61.5,2022-10-28 10:25:29.859375
1661,-54.77,2022-10-28 10:25:29.875000
1662,-48.69,2022-10-28 10:25:29.890625
1663,-44.47,2022-10-28 10:25:29.906250
1664,-43.18,2022-10-28 10:25:29.921875
1665,-45.37,2022-10-28 10:25:29.937500
1666,-50.58,2022-10-28 10:25:29.953125
1667,-57.29,2022-10-28 10:25:29.968750
1668,-63.51,2022-10-28 10:25:29.984375
1669,-67.53,2022-10-28 10:25:30.000000
1670,-68.72,2022-10-28 10:25:30.015625
1671,-67.67,2022-10-28 10:25:30.031250
1672,-65.78,2022-10-28 10:25:30.046875
1673,-64.81,2022-10-28 10:25:30.062500
1674,-66.34,2022-10-28 10:25:30.078125
1675,-71.49,2022-10-28 10:25:30.093750
1676,-80.73,2022-10-28 10:25:30.109375
1677,-93.74,2022-10-28 10:25:30.125000
1678,-109.29,2022-10-28 10:25:30.140625
1679,-125.39,2022-10-28 10:25:30.156250
1680,-139.97,2022-10-28 10:25:30.171875
1681,-151.83,2022-10-28 10:25:30.187500
1682,-161.31,2022-10-28 10:25:30.203125
1683,-170.23,2022-10-28 10:25:30.218750
1684,-181.0,2022-10-28 10:25:30.234375
1685,-195.25,2022-10-28 10:25:30.250000
1686,-212.86,2022-10-28 10:25:30.265625
1687,-231.68,2022-10-28 10:25:30.281250
1688,-248.36,2022-10-28 10:25:30.296875
1689,-259.38,2022-10-28 10:25:30.312500
1690,-261.91,2022-10-28 10:25:30.328125
1691,-254.16,2022-10-28 10:25:30.343750
1692,-235.16,2022-10-28 10:25:30.359375
1693,-204.64,2022-10-28 10:25:30.375000
1694,-162.86,2022-10-28 10:25:30.390625
1695,-110.67,2022-10-28 10:25:30.406250
1696,-49.24,2022-10-28 10:25:30.421875
1697,20.03,2022-10-28 10:25:30.437500
1698,95.76,2022-10-28 10:25:30.453125
1699,176.19,2022-10-28 10:25:30.468750
1700,258.69,2022-10-28 10:25:30.484375
1701,339.0,2022-10-28 10:25:30.500000
1702,411.25,2022-10-28 10:25:30.515625
1703,468.7,2022-10-28 10:25:30.531250
1704,505.46,2022-10-28 10:25:30.546875
1705,518.6,2022-10-28 10:25:30.562500
1706,509.5,2022-10-28 10:25:30.578125
1707,483.86,2022-10-28 10:25:30.593750
1708,450.12,2022-10-28 10:25:30.609375
1709,416.86,2022-10-28 10:25:30.625000
1710,390.36,2022-10-28 10:25:30.640625
1711,373.34,2022-10-28 10:25:30.656250
1712,365.17,2022-10-28 10:25:30.671875
1713,363.15,2022-10-28 10:25:30.687500
1714,364.18,2022-10-28 10:25:30.703125
1715,365.74,2022-10-28 10:25:30.718750
1716,366.1,2022-10-28 10:25:30.734375
1717,363.81,2022-10-28 10:25:30.750000
1718,357.05,2022-10-28 10:25:30.765625
1719,343.71,2022-10-28 10:25:30.781250
1720,321.93,2022-10-28 10:25:30.796875
1721,291.01,2022-10-28 10:25:30.812500
1722,251.93,2022-10-28 10:25:30.828125
1723,207.03,2022-10-28 10:25:30.843750
1724,158.9,2022-10-28 10:25:30.859375
1725,109.3,2022-10-28 10:25:30.875000
1726,58.45,2022-10-28 10:25:30.890625
1727,5.45,2022-10-28 10:25:30.906250
1728,-50.45,2022-10-28 10:25:30.921875
1729,-108.42,2022-10-28 10:25:30.937500
1730,-165.52,2022-10-28 10:25:30.953125
1731,-217.14,2022-10-28 10:25:30.968750
1732,-258.58,2022-10-28 10:25:30.984375
1733,-286.54,2022-10-28 10:25:31.000000
1734,-299.82,2022-10-28 10:25:31.015625
1735,-298.85,2022-10-28 10:25:31.031250
1736,-284.54,2022-10-28 10:25:31.046875
1737,-257.57,2022-10-28 10:25:31.062500
1738,-218.84,2022-10-28 10:25:31.078125
1739,-170.83,2022-10-28 10:25:31.093750
1740,-118.88,2022-10-28 10:25:31.109375
1741,-71.0,2022-10-28 10:25:31.125000
1742,-35.93,2022-10-28 10:25:31.140625
1743,-19.89,2022-10-28 10:25:31.156250
1744,-24.07,2022-10-28 10:25:31.171875
1745,-44.11,2022-10-28 10:25:31.187500
1746,-72.04,2022-10-28 10:25:31.203125
1747,-99.57,2022-10-28 10:25:31.218750
1748,-121.06,2022-10-28 10:25:31.234375
1749,-135.18,2022-10-28 10:25:31.250000
1750,-144.25,2022-10-28 10:25:31.265625
1751,-152.14,2022-10-28 10:25:31.281250
1752,-161.91,2022-10-28 10:25:31.296875
1753,-174.2,2022-10-28 10:25:31.312500
1754,-187.02,2022-10-28 10:25:31.328125
1755,-197.23,2022-10-28 10:25:31.343750
1756,-202.49,2022-10-28 10:25:31.359375
1757,-202.63,2022-10-28 10:25:31.375000
1758,-199.73,2022-10-28 10:25:31.390625
1759,-196.8,2022-10-28 10:25:31.406250
1760,-195.98,2022-10-28 10:25:31.421875
1761,-197.16,2022-10-28 10:25:31.437500
1762,-198.22,2022-10-28 10:25:31.453125
1763,-196.33,2022-10-28 10:25:31.468750
1764,-189.69,2022-10-28 10:25:31.484375
1765,-178.31,2022-10-28 10:25:31.500000
1766,-163.44,2022-10-28 10:25:31.515625
1767,-145.9,2022-10-28 10:25:31.531250
1768,-124.76,2022-10-28 10:25:31.546875
1769,-97.25,2022-10-28 10:25:31.562500
1770,-60.31,2022-10-28 10:25:31.578125
1771,-12.44,2022-10-28 10:25:31.593750
1772,45.23,2022-10-28 10:25:31.609375
1773,109.64,2022-10-28 10:25:31.625000
1774,177.38,2022-10-28 10:25:31.640625
1775,246.29,2022-10-28 10:25:31.656250
1776,315.35,2022-10-28 10:25:31.671875
1777,383.23,2022-10-28 10:25:31.687500
1778,446.27,2022-10-28 10:25:31.703125
1779,497.75,2022-10-28 10:25:31.718750
1780,529.17,2022-10-28 10:25:31.734375
1781,533.26,2022-10-28 10:25:31.750000
1782,507.32,2022-10-28 10:25:31.765625
1783,455.07,2022-10-28 10:25:31.781250
1784,385.75,2022-10-28 10:25:31.796875
1785,310.91,2022-10-28 10:25:31.812500
1786,240.36,2022-10-28 10:25:31.828125
1787,179.15,2022-10-28 10:25:31.843750
1788,126.88,2022-10-28 10:25:31.859375
1789,79.41,2022-10-28 10:25:31.875000
1790,31.75,2022-10-28 10:25:31.890625
1791,-19.38,2022-10-28 10:25:31.906250
1792,-74.56,2022-10-28 10:25:31.921875
1793,-132.15,2022-10-28 10:25:31.937500
1794,-189.55,2022-10-28 10:25:31.953125
1795,-244.32,2022-10-28 10:25:31.968750
1796,-294.33,2022-10-28 10:25:31.984375
1797,-337.42,2022-10-28 10:25:32.000000
1798,-371.27,2022-10-28 10:25:32.015625
1799,-393.43,2022-10-28 10:25:32.031250
1800,-402.3,2022-10-28 10:25:32.046875
1801,-397.85,2022-10-28 10:25:32.062500
1802,-381.8,2022-10-28 10:25:32.078125
1803,-357.03,2022-10-28 10:25:32.093750
1804,-326.63,2022-10-28 10:25:32.109375
1805,-293.18,2022-10-28 10:25:32.125000
1806,-258.49,2022-10-28 10:25:32.140625
1807,-223.65,2022-10-28 10:25:32.156250
1808,-189.23,2022-10-28 10:25:32.171875
1809,-155.11,2022-10-28 10:25:32.187500
1810,-120.49,2022-10-28 10:25:32.203125
1811,-84.27,2022-10-28 10:25:32.218750
1812,-45.79,2022-10-28 10:25:32.234375
1813,-5.53,2022-10-28 10:25:32.250000
1814,34.57,2022-10-28 10:25:32.265625
1815,71.8,2022-10-28 10:25:32.281250
1816,103.83,2022-10-28 10:25:32.296875
1817,129.63,2022-10-28 10:25:32.312500
1818,149.73,2022-10-28 10:25:32.328125
1819,165.55,2022-10-28 10:25:32.343750
1820,178.51,2022-10-28 10:25:32.359375
1821,189.33,2022-10-28 10:25:32.375000
1822,197.98,2022-10-28 10:25:32.390625
1823,204.07,2022-10-28 10:25:32.406250
1824,207.33,2022-10-28 10:25:32.421875
1825,207.83,2022-10-28 10:25:32.437500
1826,205.89,2022-10-28 10:25:32.453125
1827,202.02,2022-10-28 10:25:32.468750
1828,196.76,2022-10-28 10:25:32.484375
1829,190.73,2022-10-28 10:25:32.500000
1830,184.57,2022-10-28 10:25:32.515625
1831,178.84,2022-10-28 10:25:32.531250
1832,173.73,2022-10-28 10:25:32.546875
1833,168.84,2022-10-28 10:25:32.562500
1834,163.25,2022-10-28 10:25:32.578125
1835,155.94,2022-10-28 10:25:32.593750
1836,146.25,2022-10-28 10:25:32.609375
1837,134.23,2022-10-28 10:25:32.625000
1838,120.62,2022-10-28 10:25:32.640625
1839,106.47,2022-10-28 10:25:32.656250
1840,92.6,2022-10-28 10:25:32.671875
1841,79.27,2022-10-28 10:25:32.687500
1842,66.12,2022-10-28 10:25:32.703125
1843,52.5,2022-10-28 10:25:32.718750
1844,37.89,2022-10-28 10:25:32.734375
1845,22.28,2022-10-28 10:25:32.750000
1846,6.29,2022-10-28 10:25:32.765625
1847,-9.11,2022-10-28 10:25:32.781250
1848,-23.07,2022-10-28 10:25:32.796875
1849,-35.4,2022-10-28 10:25:32.812500
1850,-46.68,2022-10-28 10:25:32.828125
1851,-58.06,2022-10-28 10:25:32.843750
1852,-70.58,2022-10-28 10:25:32.859375
1853,-84.59,2022-10-28 10:25:32.875000
1854,-99.44,2022-10-28 10:25:32.890625
1855,-113.76,2022-10-28 10:25:32.906250
1856,-126.13,2022-10-28 10:25:32.921875
1857,-135.86,2022-10-28 10:25:32.937500
1858,-143.37,2022-10-28 10:25:32.953125
1859,-149.99,2022-10-28 10:25:32.968750
1860,-157.28,2022-10-28 10:25:32.984375
1861,-166.2,2022-10-28 10:25:33.000000
1862,-176.61,2022-10-28 10:25:33.015625
1863,-187.42,2022-10-28 10:25:33.031250
1864,-197.11,2022-10-28 10:25:33.046875
1865,-204.57,2022-10-28 10:25:33.062500
1866,-209.47,2022-10-28 10:25:33.078125
1867,-212.17,2022-10-28 10:25:33.093750
1868,-213.07,2022-10-28 10:25:33.109375
1869,-212.11,2022-10-28 10:25:33.125000
1870,-208.49,2022-10-28 10:25:33.140625
1871,-201.04,2022-10-28 10:25:33.156250
1872,-189.16,2022-10-28 10:25:33.171875
1873,-173.36,2022-10-28 10:25:33.187500
1874,-155.42,2022-10-28 10:25:33.203125
1875,-137.77,2022-10-28 10:25:33.218750
1876,-122.77,2022-10-28 10:25:33.234375
1877,-112.33,2022-10-28 10:25:33.250000
1878,-107.98,2022-10-28 10:25:33.265625
1879,-111.2,2022-10-28 10:25:33.281250
1880,-123.22,2022-10-28 10:25:33.296875
1881,-144.08,2022-10-28 10:25:33.312500
1882,-171.15,2022-10-28 10:25:33.328125
1883,-198.28,2022-10-28 10:25:33.343750
1884,-216.33,2022-10-28 10:25:33.359375
1885,-215.88,2022-10-28 10:25:33.375000
1886,-190.98,2022-10-28 10:25:33.390625
1887,-142.17,2022-10-28 10:25:33.406250
1888,-77.02,2022-10-28 10:25:33.421875
1889,-7.42,2022-10-28 10:25:33.437500
1890,54.93,2022-10-28 10:25:33.453125
1891,102.76,2022-10-28 10:25:33.468750
1892,134.82,2022-10-28 10:25:33.484375
1893,154.62,2022-10-28 10:25:33.500000
1894,167.34,2022-10-28 10:25:33.515625
1895,177.02,2022-10-28 10:25:33.531250
1896,185.71,2022-10-28 10:25:33.546875
1897,194.34,2022-10-28 10:25:33.562500
1898,204.1,2022-10-28 10:25:33.578125
1899,217.02,2022-10-28 10:25:33.593750
1900,235.02,2022-10-28 10:25:33.609375
1901,258.11,2022-10-28 10:25:33.625000
1902,283.49,2022-10-28 10:25:33.640625
1903,306.09,2022-10-28 10:25:33.656250
1904,320.55,2022-10-28 10:25:33.671875
1905,323.39,2022-10-28 10:25:33.687500
1906,314.05,2022-10-28 10:25:33.703125
1907,294.47,2022-10-28 10:25:33.718750
1908,267.79,2022-10-28 10:25:33.734375
1909,237.2,2022-10-28 10:25:33.750000
1910,205.37,2022-10-28 10:25:33.765625
1911,174.48,2022-10-28 10:25:33.781250
1912,146.3,2022-10-28 10:25:33.796875
1913,122.12,2022-10-28 10:25:33.812500
1914,102.41,2022-10-28 10:25:33.828125
1915,86.67,2022-10-28 10:25:33.843750
1916,73.65,2022-10-28 10:25:33.859375
1917,61.95,2022-10-28 10:25:33.875000
1918,50.54,2022-10-28 10:25:33.890625
1919,38.94,2022-10-28 10:25:33.906250
1920,27.05,2022-10-28 10:25:33.921875
1921,14.82,2022-10-28 10:25:33.937500
1922,2.05,2022-10-28 10:25:33.953125
1923,-11.34,2022-10-28 10:25:33.968750
1924,-24.97,2022-10-28 10:25:33.984375
1925,-37.7,2022-10-28 10:25:34.000000
1926,-47.87,2022-10-28 10:25:34.015625
1927,-53.89,2022-10-28 10:25:34.031250
1928,-55.09,2022-10-28 10:25:34.046875
1929,-52.16,2022-10-28 10:25:34.062500
1930,-47.01,2022-10-28 10:25:34.078125
1931,-42.04,2022-10-28 10:25:34.093750
1932,-39.28,2022-10-28 10:25:34.109375
1933,-39.58,2022-10-28 10:25:34.125000
1934,-42.49,2022-10-28 10:25:34.140625
1935,-46.64,2022-10-28 10:25:34.156250
1936,-50.5,2022-10-28 10:25:34.171875
1937,-53.05,2022-10-28 10:25:34.187500
1938,-54.12,2022-10-28 10:25:34.203125
1939,-54.19,2022-10-28 10:25:34.218750
1940,-53.96,2022-10-28 10:25:34.234375
1941,-53.81,2022-10-28 10:25:34.250000
1942,-53.7,2022-10-28 10:25:34.265625
1943,-53.21,2022-10-28 10:25:34.281250
1944,-51.85,2022-10-28 10:25:34.296875
1945,-49.25,2022-10-28 10:25:34.312500
1946,-45.15,2022-10-28 10:25:34.328125
1947,-39.33,2022-10-28 10:25:34.343750
1948,-31.63,2022-10-28 10:25:34.359375
1949,-22.39,2022-10-28 10:25:34.375000
1950,-12.9,2022-10-28 10:25:34.390625
1951,-5.61,2022-10-28 10:25:34.406250
1952,-3.59,2022-10-28 10:25:34.421875
1953,-9.53,2022-10-28 10:25:34.437500
1954,-24.36,2022-10-28 10:25:34.453125
1955,-46.52,2022-10-28 10:25:34.468750
1956,-72.22,2022-10-28 10:25:34.484375
1957,-96.55,2022-10-28 10:25:34.500000
1958,-114.99,2022-10-28 10:25:34.515625
1959,-124.68,2022-10-28 10:25:34.531250
1960,-124.87,2022-10-28 10:25:34.546875
1961,-116.76,2022-10-28 10:25:34.562500
1962,-102.97,2022-10-28 10:25:34.578125
1963,-87.11,2022-10-28 10:25:34.593750
1964,-73.42,2022-10-28 10:25:34.609375
1965,-66.33,2022-10-28 10:25:34.625000
1966,-69.4,2022-10-28 10:25:34.640625
1967,-84.15,2022-10-28 10:25:34.656250
1968,-109.09,2022-10-28 10:25:34.671875
1969,-139.58,2022-10-28 10:25:34.687500
1970,-168.91,2022-10-28 10:25:34.703125
1971,-190.31,2022-10-28 10:25:34.718750
1972,-198.98,2022-10-28 10:25:34.734375
1973,-193.43,2022-10-28 10:25:34.750000
1974,-175.66,2022-10-28 10:25:34.765625
1975,-150.08,2022-10-28 10:25:34.781250
1976,-121.86,2022-10-28 10:25:34.796875
1977,-95.28,2022-10-28 10:25:34.812500
1978,-72.88,2022-10-28 10:25:34.828125
1979,-55.41,2022-10-28 10:25:34.843750
1980,-42.61,2022-10-28 10:25:34.859375
1981,-34.04,2022-10-28 10:25:34.875000
1982,-29.47,2022-10-28 10:25:34.890625
1983,-28.87,2022-10-28 10:25:34.906250
1984,-31.95,2022-10-28 10:25:34.921875
1985,-37.84,2022-10-28 10:25:34.937500
1986,-45.14,2022-10-28 10:25:34.953125
1987,-52.34,2022-10-28 10:25:34.968750
1988,-58.37,2022-10-28 10:25:34.984375
1989,-62.78,2022-10-28 10:25:35.000000
1990,-65.53,2022-10-28 10:25:35.015625
1991,-66.48,2022-10-28 10:25:35.031250
1992,-65.04,2022-10-28 10:25:35.046875
1993,-60.37,2022-10-28 10:25:35.062500
1994,-52.01,2022-10-28 10:25:35.078125
1995,-40.61,2022-10-28 10:25:35.093750
1996,-28.22,2022-10-28 10:25:35.109375
1997,-18.03,2022-10-28 10:25:35.125000
1998,-13.27,2022-10-28 10:25:35.140625
1999,-15.74,2022-10-28 10:25:35.156250
2000,-24.53,2022-10-28 10:25:35.171875
2001,-35.6,2022-10-28 10:25:35.187500
2002,-42.45,2022-10-28 10:25:35.203125
2003,-38.05,2022-10-28 10:25:35.218750
2004,-17.37,2022-10-28 10:25:35.234375
2005,20.51,2022-10-28 10:25:35.250000
2006,71.44,2022-10-28 10:25:35.265625
2007,127.17,2022-10-28 10:25:35.281250
2008,177.78,2022-10-28 10:25:35.296875
2009,214.61,2022-10-28 10:25:35.312500
2010,232.75,2022-10-28 10:25:35.328125
2011,231.91,2022-10-28 10:25:35.343750
2012,215.83,2022-10-28 10:25:35.359375
2013,190.44,2022-10-28 10:25:35.375000
2014,161.86,2022-10-28 10:25:35.390625
2015,134.78,2022-10-28 10:25:35.406250
2016,111.83,2022-10-28 10:25:35.421875
2017,93.71,2022-10-28 10:25:35.437500
2018,79.86,2022-10-28 10:25:35.453125
2019,69.15,2022-10-28 10:25:35.468750
2020,60.33,2022-10-28 10:25:35.484375
2021,52.23,2022-10-28 10:25:35.500000
2022,43.7,2022-10-28 10:25:35.515625
2023,33.77,2022-10-28 10:25:35.531250
2024,21.96,2022-10-28 10:25:35.546875
2025,8.69,2022-10-28 10:25:35.562500
2026,-4.64,2022-10-28 10:25:35.578125
2027,-15.85,2022-10-28 10:25:35.593750
2028,-22.76,2022-10-28 10:25:35.609375
2029,-24.15,2022-10-28 10:25:35.625000
2030,-20.44,2022-10-28 10:25:35.640625
2031,-13.78,2022-10-28 10:25:35.656250
2032,-7.43,2022-10-28 10:25:35.671875
2033,-4.65,2022-10-28 10:25:35.687500
2034,-7.34,2022-10-28 10:25:35.703125
2035,-15.33,2022-10-28 10:25:35.718750
2036,-26.35,2022-10-28 10:25:35.734375
2037,-36.92,2022-10-28 10:25:35.750000
2038,-43.67,2022-10-28 10:25:35.765625
2039,-44.68,2022-10-28 10:25:35.781250
2040,-40.03,2022-10-28 10:25:35.796875
2041,-31.6,2022-10-28 10:25:35.812500
2042,-22.01,2022-10-28 10:25:35.828125
2043,-13.5,2022-10-28 10:25:35.843750
2044,-7.11,2022-10-28 10:25:35.859375
2045,-2.61,2022-10-28 10:25:35.875000
2046,1.02,2022-10-28 10:25:35.890625
2047,4.88,2022-10-28 10:25:35.906250
2048,9.57,2022-10-28 10:25:35.921875
2049,15.0,2022-10-28 10:25:35.937500
2050,20.48,2022-10-28 10:25:35.953125
2051,25.16,2022-10-28 10:25:35.968750
2052,28.43,2022-10-28 10:25:35.984375
2053,30.21,2022-10-28 10:25:36.000000
2054,30.92,2022-10-28 10:25:36.015625
2055,31.25,2022-10-28 10:25:36.031250
2056,31.81,2022-10-28 10:25:36.046875
2057,32.87,2022-10-28 10:25:36.062500
2058,34.32,2022-10-28 10:25:36.078125
2059,35.85,2022-10-28 10:25:36.093750
2060,37.22,2022-10-28 10:25:36.109375
2061,38.4,2022-10-28 10:25:36.125000
2062,39.47,2022-10-28 10:25:36.140625
2063,40.47,2022-10-28 10:25:36.156250
2064,41.17,2022-10-28 10:25:36.171875
2065,41.15,2022-10-28 10:25:36.187500
2066,39.92,2022-10-28 10:25:36.203125
2067,37.23,2022-10-28 10:25:36.218750
2068,33.17,2022-10-28 10:25:36.234375
2069,28.1,2022-10-28 10:25:36.250000
2070,22.49,2022-10-28 10:25:36.265625
2071,16.7,2022-10-28 10:25:36.281250
2072,10.85,2022-10-28 10:25:36.296875
2073,4.83,2022-10-28 10:25:36.312500
2074,-1.58,2022-10-28 10:25:36.328125
2075,-8.47,2022-10-28 10:25:36.343750
2076,-15.69,2022-10-28 10:25:36.359375
2077,-22.73,2022-10-28 10:25:36.375000
2078,-28.78,2022-10-28 10:25:36.390625
2079,-32.84,2022-10-28 10:25:36.406250
2080,-34.0,2022-10-28 10:25:36.421875
2081,-31.62,2022-10-28 10:25:36.437500
2082,-25.55,2022-10-28 10:25:36.453125
2083,-16.21,2022-10-28 10:25:36.468750
2084,-4.71,2022-10-28 10:25:36.484375
2085,7.26,2022-10-28 10:25:36.500000
2086,17.58,2022-10-28 10:25:36.515625
2087,24.16,2022-10-28 10:25:36.531250
2088,25.38,2022-10-28 10:25:36.546875
2089,20.6,2022-10-28 10:25:36.562500
2090,10.39,2022-10-28 10:25:36.578125
2091,-3.6,2022-10-28 10:25:36.593750
2092,-19.04,2022-10-28 10:25:36.609375
2093,-33.46,2022-10-28 10:25:36.625000
2094,-44.78,2022-10-28 10:25:36.640625
2095,-51.63,2022-10-28 10:25:36.656250
2096,-53.43,2022-10-28 10:25:36.671875
2097,-50.42,2022-10-28 10:25:36.687500
2098,-43.45,2022-10-28 10:25:36.703125
2099,-33.84,2022-10-28 10:25:36.718750
2100,-23.04,2022-10-28 10:25:36.734375
2101,-12.35,2022-10-28 10:25:36.750000
2102,-2.77,2022-10-28 10:25:36.765625
2103,5.2,2022-10-28 10:25:36.781250
2104,11.44,2022-10-28 10:25:36.796875
2105,16.14,2022-10-28 10:25:36.812500
2106,19.59,2022-10-28 10:25:36.828125
2107,22.13,2022-10-28 10:25:36.843750
2108,23.94,2022-10-28 10:25:36.859375
2109,25.08,2022-10-28 10:25:36.875000
2110,25.45,2022-10-28 10:25:36.890625
2111,24.97,2022-10-28 10:25:36.906250
2112,23.65,2022-10-28 10:25:36.921875
2113,21.78,2022-10-28 10:25:36.937500
2114,19.9,2022-10-28 10:25:36.953125
2115,18.67,2022-10-28 10:25:36.968750
2116,18.55,2022-10-28 10:25:36.984375
2117,19.66,2022-10-28 10:25:37.000000
2118,21.66,2022-10-28 10:25:37.015625
2119,23.9,2022-10-28 10:25:37.031250
2120,25.73,2022-10-28 10:25:37.046875
2121,26.67,2022-10-28 10:25:37.062500
2122,26.55,2022-10-28 10:25:37.078125
2123,25.45,2022-10-28 10:25:37.093750
2124,23.64,2022-10-28 10:25:37.109375
2125,21.46,2022-10-28 10:25:37.125000
2126,19.3,2022-10-28 10:25:37.140625
2127,17.57,2022-10-28 10:25:37.156250
2128,16.6,2022-10-28 10:25:37.171875
2129,16.49,2022-10-28 10:25:37.187500
2130,17.12,2022-10-28 10:25:37.203125
2131,18.16,2022-10-28 10:25:37.218750
2132,19.19,2022-10-28 10:25:37.234375
2133,19.9,2022-10-28 10:25:37.250000
2134,20.14,2022-10-28 10:25:37.265625
2135,19.95,2022-10-28 10:25:37.281250
2136,19.44,2022-10-28 10:25:37.296875
2137,18.75,2022-10-28 10:25:37.312500
2138,18.03,2022-10-28 10:25:37.328125
2139,17.48,2022-10-28 10:25:37.343750
2140,17.32,2022-10-28 10:25:37.359375
2141,17.68,2022-10-28 10:25:37.375000
2142,18.44,2022-10-28 10:25:37.390625
2143,19.15,2022-10-28 10:25:37.406250
2144,19.1,2022-10-28 10:25:37.421875
2145,17.57,2022-10-28 10:25:37.437500
2146,14.05,2022-10-28 10:25:37.453125
2147,8.49,2022-10-28 10:25:37.468750
2148,1.31,2022-10-28 10:25:37.484375
2149,-6.57,2022-10-28 10:25:37.500000
2150,-14.03,2022-10-28 10:25:37.515625
2151,-19.83,2022-10-28 10:25:37.531250
2152,-22.97,2022-10-28 10:25:37.546875
2153,-22.77,2022-10-28 10:25:37.562500
2154,-19.08,2022-10-28 10:25:37.578125
2155,-12.48,2022-10-28 10:25:37.593750
2156,-4.27,2022-10-28 10:25:37.609375
2157,3.62,2022-10-28 10:25:37.625000
2158,9.0,2022-10-28 10:25:37.640625
2159,10.01,2022-10-28 10:25:37.656250
2160,5.65,2022-10-28 10:25:37.671875
2161,-3.92,2022-10-28 10:25:37.687500
2162,-17.39,2022-10-28 10:25:37.703125
2163,-32.75,2022-10-28 10:25:37.718750
2164,-47.92,2022-10-28 10:25:37.734375
2165,-61.16,2022-10-28 10:25:37.750000
2166,-71.38,2022-10-28 10:25:37.765625
2167,-78.01,2022-10-28 10:25:37.781250
2168,-80.91,2022-10-28 10:25:37.796875
2169,-80.18,2022-10-28 10:25:37.812500
2170,-76.15,2022-10-28 10:25:37.828125
2171,-69.46,2022-10-28 10:25:37.843750
2172,-61.06,2022-10-28 10:25:37.859375
2173,-52.02,2022-10-28 10:25:37.875000
2174,-43.37,2022-10-28 10:25:37.890625
2175,-35.82,2022-10-28 10:25:37.906250
2176,-29.68,2022-10-28 10:25:37.921875
2177,-24.98,2022-10-28 10:25:37.937500
2178,-21.54,2022-10-28 10:25:37.953125
2179,-19.1,2022-10-28 10:25:37.968750
2180,-17.4,2022-10-28 10:25:37.984375
2181,-16.25,2022-10-28 10:25:38.000000
2182,-15.52,2022-10-28 10:25:38.015625
2183,-15.18,2022-10-28 10:25:38.031250
2184,-15.23,2022-10-28 10:25:38.046875
2185,-15.67,2022-10-28 10:25:38.062500
2186,-16.39,2022-10-28 10:25:38.078125
2187,-17.17,2022-10-28 10:25:38.093750
2188,-17.73,2022-10-28 10:25:38.109375
2189,-17.81,2022-10-28 10:25:38.125000
2190,-17.35,2022-10-28 10:25:38.140625
2191,-16.54,2022-10-28 10:25:38.156250
2192,-15.82,2022-10-28 10:25:38.171875
2193,-15.77,2022-10-28 10:25:38.187500
2194,-16.87,2022-10-28 10:25:38.203125
2195,-19.31,2022-10-28 10:25:38.218750
2196,-22.83,2022-10-28 10:25:38.234375
2197,-26.79,2022-10-28 10:25:38.250000
2198,-30.45,2022-10-28 10:25:38.265625
2199,-33.29,2022-10-28 10:25:38.281250
2200,-35.19,2022-10-28 10:25:38.296875
2201,-36.48,2022-10-28 10:25:38.312500
2202,-37.7,2022-10-28 10:25:38.328125
2203,-39.37,2022-10-28 10:25:38.343750
2204,-41.77,2022-10-28 10:25:38.359375
2205,-44.85,2022-10-28 10:25:38.375000
2206,-48.24,2022-10-28 10:25:38.390625
2207,-51.3,2022-10-28 10:25:38.406250
2208,-53.23,2022-10-28 10:25:38.421875
2209,-53.19,2022-10-28 10:25:38.437500
2210,-50.47,2022-10-28 10:25:38.453125
2211,-44.76,2022-10-28 10:25:38.468750
2212,-36.32,2022-10-28 10:25:38.484375
2213,-26.04,2022-10-28 10:25:38.500000
2214,-15.18,2022-10-28 10:25:38.515625
2215,-4.93,2022-10-28 10:25:38.531250
2216,3.89,2022-10-28 10:25:38.546875
2217,11.06,2022-10-28 10:25:38.562500
2218,16.74,2022-10-28 10:25:38.578125
2219,21.18,2022-10-28 10:25:38.593750
2220,24.4,2022-10-28 10:25:38.609375
2221,26.19,2022-10-28 10:25:38.625000
2222,26.28,2022-10-28 10:25:38.640625
2223,24.68,2022-10-28 10:25:38.656250
2224,21.85,2022-10-28 10:25:38.671875
2225,18.69,2022-10-28 10:25:38.687500
2226,16.18,2022-10-28 10:25:38.703125
2227,14.94,2022-10-28 10:25:38.718750
2228,15.05,2022-10-28 10:25:38.734375
2229,15.98,2022-10-28 10:25:38.750000
2230,16.89,2022-10-28 10:25:38.765625
2231,17.05,2022-10-28 10:25:38.781250
2232,16.18,2022-10-28 10:25:38.796875
2233,14.48,2022-10-28 10:25:38.812500
2234,12.5,2022-10-28 10:25:38.828125
2235,10.84,2022-10-28 10:25:38.843750
2236,9.87,2022-10-28 10:25:38.859375
2237,9.63,2022-10-28 10:25:38.875000
2238,9.87,2022-10-28 10:25:38.890625
2239,10.24,2022-10-28 10:25:38.906250
2240,10.46,2022-10-28 10:25:38.921875
2241,10.45,2022-10-28 10:25:38.937500
2242,10.29,2022-10-28 10:25:38.953125
2243,10.18,2022-10-28 10:25:38.968750
2244,10.32,2022-10-28 10:25:38.984375
2245,10.81,2022-10-28 10:25:39.000000
2246,11.71,2022-10-28 10:25:39.015625
2247,13.04,2022-10-28 10:25:39.031250
2248,14.76,2022-10-28 10:25:39.046875
2249,16.76,2022-10-28 10:25:39.062500
2250,18.85,2022-10-28 10:25:39.078125
2251,20.73,2022-10-28 10:25:39.093750
2252,22.03,2022-10-28 10:25:39.109375
2253,22.46,2022-10-28 10:25:39.125000
2254,21.88,2022-10-28 10:25:39.140625
2255,20.28,2022-10-28 10:25:39.156250
2256,17.82,2022-10-28 10:25:39.171875
2257,14.6,2022-10-28 10:25:39.187500
2258,10.7,2022-10-28 10:25:39.203125
2259,6.06,2022-10-28 10:25:39.218750
2260,0.67,2022-10-28 10:25:39.234375
2261,-5.38,2022-10-28 10:25:39.250000
2262,-11.75,2022-10-28 10:25:39.265625
2263,-17.83,2022-10-28 10:25:39.281250
2264,-22.82,2022-10-28 10:25:39.296875
2265,-25.9,2022-10-28 10:25:39.312500
2266,-26.38,2022-10-28 10:25:39.328125
2267,-23.89,2022-10-28 10:25:39.343750
2268,-18.49,2022-10-28 10:25:39.359375
2269,-10.65,2022-10-28 10:25:39.375000
2270,-1.19,2022-10-28 10:25:39.390625
2271,8.87,2022-10-28 10:25:39.406250
2272,18.47,2022-10-28 10:25:39.421875
2273,26.71,2022-10-28 10:25:39.437500
2274,32.92,2022-10-28 10:25:39.453125
2275,36.79,2022-10-28 10:25:39.468750
2276,38.33,2022-10-28 10:25:39.484375
2277,37.9,2022-10-28 10:25:39.500000
2278,36.08,2022-10-28 10:25:39.515625
2279,33.52,2022-10-28 10:25:39.531250
2280,30.79,2022-10-28 10:25:39.546875
2281,28.3,2022-10-28 10:25:39.562500
2282,26.23,2022-10-28 10:25:39.578125
2283,24.64,2022-10-28 10:25:39.593750
2284,23.54,2022-10-28 10:25:39.609375
2285,23.01,2022-10-28 10:25:39.625000
2286,23.23,2022-10-28 10:25:39.640625
2287,24.45,2022-10-28 10:25:39.656250
2288,26.89,2022-10-28 10:25:39.671875
2289,30.71,2022-10-28 10:25:39.687500
2290,35.88,2022-10-28 10:25:39.703125
2291,42.19,2022-10-28 10:25:39.718750
2292,49.22,2022-10-28 10:25:39.734375
2293,56.31,2022-10-28 10:25:39.750000
2294,62.65,2022-10-28 10:25:39.765625
2295,67.35,2022-10-28 10:25:39.781250
2296,69.63,2022-10-28 10:25:39.796875
2297,69.01,2022-10-28 10:25:39.812500
2298,65.43,2022-10-28 10:25:39.828125
2299,59.22,2022-10-28 10:25:39.843750
2300,50.97,2022-10-28 10:25:39.859375
2301,41.33,2022-10-28 10:25:39.875000
2302,30.87,2022-10-28 10:25:39.890625
2303,20.01,2022-10-28 10:25:39.906250
2304,9.12,2022-10-28 10:25:39.921875
2305,-1.39,2022-10-28 10:25:39.937500
2306,-11.06,2022-10-28 10:25:39.953125
2307,-19.45,2022-10-28 10:25:39.968750
2308,-26.35,2022-10-28 10:25:39.984375
2309,-31.84,2022-10-28 10:25:40.000000
2310,-36.34,2022-10-28 10:25:40.015625
2311,-40.4,2022-10-28 10:25:40.031250
2312,-44.49,2022-10-28 10:25:40.046875
2313,-48.77,2022-10-28 10:25:40.062500
2314,-53.07,2022-10-28 10:25:40.078125
2315,-56.97,2022-10-28 10:25:40.093750
2316,-59.87,2022-10-28 10:25:40.109375
2317,-61.2,2022-10-28 10:25:40.125000
2318,-60.5,2022-10-28 10:25:40.140625
2319,-57.49,2022-10-28 10:25:40.156250
2320,-52.22,2022-10-28 10:25:40.171875
2321,-44.99,2022-10-28 10:25:40.187500
2322,-36.43,2022-10-28 10:25:40.203125
2323,-27.27,2022-10-28 10:25:40.218750
2324,-18.25,2022-10-28 10:25:40.234375
2325,-9.96,2022-10-28 10:25:40.250000
2326,-2.81,2022-10-28 10:25:40.265625
2327,2.95,2022-10-28 10:25:40.281250
2328,7.2,2022-10-28 10:25:40.296875
2329,9.83,2022-10-28 10:25:40.312500
2330,10.85,2022-10-28 10:25:40.328125
2331,10.35,2022-10-28 10:25:40.343750
2332,8.62,2022-10-28 10:25:40.359375
2333,6.17,2022-10-28 10:25:40.375000
2334,3.61,2022-10-28 10:25:40.390625
2335,1.55,2022-10-28 10:25:40.406250
2336,0.4,2022-10-28 10:25:40.421875
2337,0.35,2022-10-28 10:25:40.437500
2338,1.35,2022-10-28 10:25:40.453125
2339,3.19,2022-10-28 10:25:40.468750
2340,5.62,2022-10-28 10:25:40.484375
2341,8.39,2022-10-28 10:25:40.500000
2342,11.3,2022-10-28 10:25:40.515625
2343,14.1,2022-10-28 10:25:40.531250
2344,16.62,2022-10-28 10:25:40.546875
2345,18.71,2022-10-28 10:25:40.562500
2346,20.27,2022-10-28 10:25:40.578125
2347,21.3,2022-10-28 10:25:40.593750
2348,21.79,2022-10-28 10:25:40.609375
2349,21.73,2022-10-28 10:25:40.625000
2350,20.99,2022-10-28 10:25:40.640625
2351,19.49,2022-10-28 10:25:40.656250
2352,17.25,2022-10-28 10:25:40.671875
2353,14.5,2022-10-28 10:25:40.687500
2354,11.65,2022-10-28 10:25:40.703125
2355,9.08,2022-10-28 10:25:40.718750
2356,6.99,2022-10-28 10:25:40.734375
2357,5.28,2022-10-28 10:25:40.750000
2358,3.62,2022-10-28 10:25:40.765625
2359,1.62,2022-10-28 10:25:40.781250
2360,-0.92,2022-10-28 10:25:40.796875
2361,-4.04,2022-10-28 10:25:40.812500
2362,-7.55,2022-10-28 10:25:40.828125
2363,-11.28,2022-10-28 10:25:40.843750
2364,-15.12,2022-10-28 10:25:40.859375
2365,-19.15,2022-10-28 10:25:40.875000
2366,-23.41,2022-10-28 10:25:40.890625
2367,-27.79,2022-10-28 10:25:40.906250
2368,-31.87,2022-10-28 10:25:40.921875
2369,-34.94,2022-10-28 10:25:40.937500
2370,-36.16,2022-10-28 10:25:40.953125
2371,-34.86,2022-10-28 10:25:40.968750
2372,-30.76,2022-10-28 10:25:40.984375
2373,-24.08,2022-10-28 10:25:41.000000
2374,-15.5,2022-10-28 10:25:41.015625
2375,-5.93,2022-10-28 10:25:41.031250
2376,3.69,2022-10-28 10:25:41.046875
2377,12.58,2022-10-28 10:25:41.062500
2378,20.24,2022-10-28 10:25:41.078125
2379,26.44,2022-10-28 10:25:41.093750
2380,31.17,2022-10-28 10:25:41.109375
2381,34.53,2022-10-28 10:25:41.125000
2382,36.62,2022-10-28 10:25:41.140625
2383,37.53,2022-10-28 10:25:41.156250
2384,37.33,2022-10-28 10:25:41.171875
2385,36.2,2022-10-28 10:25:41.187500
2386,34.46,2022-10-28 10:25:41.203125
2387,32.64,2022-10-28 10:25:41.218750
2388,31.29,2022-10-28 10:25:41.234375
2389,30.86,2022-10-28 10:25:41.250000
2390,31.51,2022-10-28 10:25:41.265625
2391,33.06,2022-10-28 10:25:41.281250
2392,35.13,2022-10-28 10:25:41.296875
2393,37.24,2022-10-28 10:25:41.312500
2394,39.07,2022-10-28 10:25:41.328125
2395,40.4,2022-10-28 10:25:41.343750
2396,41.16,2022-10-28 10:25:41.359375
2397,41.3,2022-10-28 10:25:41.375000
2398,40.72,2022-10-28 10:25:41.390625
2399,39.33,2022-10-28 10:25:41.406250
2400,37.09,2022-10-28 10:25:41.421875
2401,34.07,2022-10-28 10:25:41.437500
2402,30.48,2022-10-28 10:25:41.453125
2403,26.7,2022-10-28 10:25:41.468750
2404,23.07,2022-10-28 10:25:41.484375
2405,19.89,2022-10-28 10:25:41.500000
2406,17.21,2022-10-28 10:25:41.515625
2407,14.82,2022-10-28 10:25:41.531250
2408,12.35,2022-10-28 10:25:41.546875
2409,9.4,2022-10-28 10:25:41.562500
2410,5.75,2022-10-28 10:25:41.578125
2411,1.5,2022-10-28 10:25:41.593750
2412,-2.96,2022-10-28 10:25:41.609375
2413,-7.1,2022-10-28 10:25:41.625000
2414,-10.48,2022-10-28 10:25:41.640625
2415,-12.99,2022-10-28 10:25:41.656250
2416,-14.94,2022-10-28 10:25:41.671875
2417,-16.9,2022-10-28 10:25:41.687500
2418,-19.53,2022-10-28 10:25:41.703125
2419,-23.26,2022-10-28 10:25:41.718750
2420,-28.08,2022-10-28 10:25:41.734375
2421,-33.47,2022-10-28 10:25:41.750000
2422,-38.53,2022-10-28 10:25:41.765625
2423,-42.18,2022-10-28 10:25:41.781250
2424,-43.43,2022-10-28 10:25:41.796875
2425,-41.66,2022-10-28 10:25:41.812500
2426,-36.77,2022-10-28 10:25:41.828125
2427,-29.18,2022-10-28 10:25:41.843750
2428,-19.79,2022-10-28 10:25:41.859375
2429,-9.77,2022-10-28 10:25:41.875000
2430,-0.26,2022-10-28 10:25:41.890625
2431,7.8,2022-10-28 10:25:41.906250
2432,13.9,2022-10-28 10:25:41.921875
2433,17.91,2022-10-28 10:25:41.937500
2434,20.07,2022-10-28 10:25:41.953125
2435,20.77,2022-10-28 10:25:41.968750
2436,20.45,2022-10-28 10:25:41.984375
2437,19.5,2022-10-28 10:25:42.000000
2438,18.23,2022-10-28 10:25:42.015625
2439,16.93,2022-10-28 10:25:42.031250
2440,15.84,2022-10-28 10:25:42.046875
2441,15.15,2022-10-28 10:25:42.062500
2442,14.97,2022-10-28 10:25:42.078125
2443,15.32,2022-10-28 10:25:42.093750
2444,16.09,2022-10-28 10:25:42.109375
2445,17.1,2022-10-28 10:25:42.125000
2446,18.2,2022-10-28 10:25:42.140625
2447,19.22,2022-10-28 10:25:42.156250
2448,20.11,2022-10-28 10:25:42.171875
2449,20.8,2022-10-28 10:25:42.187500
2450,21.21,2022-10-28 10:25:42.203125
2451,21.21,2022-10-28 10:25:42.218750
2452,20.62,2022-10-28 10:25:42.234375
2453,19.33,2022-10-28 10:25:42.250000
2454,17.33,2022-10-28 10:25:42.265625
2455,14.8,2022-10-28 10:25:42.281250
2456,12.04,2022-10-28 10:25:42.296875
2457,9.38,2022-10-28 10:25:42.312500
2458,7.1,2022-10-28 10:25:42.328125
2459,5.28,2022-10-28 10:25:42.343750
2460,3.86,2022-10-28 10:25:42.359375
2461,2.63,2022-10-28 10:25:42.375000
2462,1.32,2022-10-28 10:25:42.390625
2463,-0.29,2022-10-28 10:25:42.406250
2464,-2.32,2022-10-28 10:25:42.421875
2465,-4.73,2022-10-28 10:25:42.437500
2466,-7.33,2022-10-28 10:25:42.453125
2467,-9.92,2022-10-28 10:25:42.468750
2468,-12.3,2022-10-28 10:25:42.484375
2469,-14.46,2022-10-28 10:25:42.500000
2470,-16.56,2022-10-28 10:25:42.515625
2471,-18.85,2022-10-28 10:25:42.531250
2472,-21.65,2022-10-28 10:25:42.546875
2473,-25.17,2022-10-28 10:25:42.562500
2474,-29.33,2022-10-28 10:25:42.578125
2475,-33.79,2022-10-28 10:25:42.593750
2476,-37.93,2022-10-28 10:25:42.609375
2477,-40.96,2022-10-28 10:25:42.625000
2478,-42.1,2022-10-28 10:25:42.640625
2479,-40.82,2022-10-28 10:25:42.656250
2480,-36.94,2022-10-28 10:25:42.671875
2481,-30.76,2022-10-28 10:25:42.687500
2482,-22.94,2022-10-28 10:25:42.703125
2483,-14.38,2022-10-28 10:25:42.718750
2484,-5.94,2022-10-28 10:25:42.734375
2485,1.68,2022-10-28 10:25:42.750000
2486,8.01,2022-10-28 10:25:42.765625
2487,12.83,2022-10-28 10:25:42.781250
2488,16.07,2022-10-28 10:25:42.796875
2489,17.73,2022-10-28 10:25:42.812500
2490,17.86,2022-10-28 10:25:42.828125
2491,16.59,2022-10-28 10:25:42.843750
2492,14.23,2022-10-28 10:25:42.859375
2493,11.26,2022-10-28 10:25:42.875000
2494,8.28,2022-10-28 10:25:42.890625
2495,5.83,2022-10-28 10:25:42.906250
2496,4.31,2022-10-28 10:25:42.921875
2497,3.77,2022-10-28 10:25:42.937500
2498,4.03,2022-10-28 10:25:42.953125
2499,4.72,2022-10-28 10:25:42.968750
2500,5.5,2022-10-28 10:25:42.984375
2501,6.11,2022-10-28 10:25:43.000000
2502,6.41,2022-10-28 10:25:43.015625
2503,6.36,2022-10-28 10:25:43.031250
2504,5.92,2022-10-28 10:25:43.046875
2505,5.02,2022-10-28 10:25:43.062500
2506,3.58,2022-10-28 10:25:43.078125
2507,1.57,2022-10-28 10:25:43.093750
2508,-0.95,2022-10-28 10:25:43.109375
2509,-3.76,2022-10-28 10:25:43.125000
2510,-6.56,2022-10-28 10:25:43.140625
2511,-9.09,2022-10-28 10:25:43.156250
2512,-11.2,2022-10-28 10:25:43.171875
2513,-13.02,2022-10-28 10:25:43.187500
2514,-14.95,2022-10-28 10:25:43.203125
2515,-17.48,2022-10-28 10:25:43.218750
2516,-21.0,2022-10-28 10:25:43.234375
2517,-25.53,2022-10-28 10:25:43.250000
2518,-30.72,2022-10-28 10:25:43.265625
2519,-35.92,2022-10-28 10:25:43.281250
2520,-40.58,2022-10-28 10:25:43.296875
2521,-44.48,2022-10-28 10:25:43.312500
2522,-47.9,2022-10-28 10:25:43.328125
2523,-51.56,2022-10-28 10:25:43.343750
2524,-56.26,2022-10-28 10:25:43.359375
2525,-62.55,2022-10-28 10:25:43.375000
2526,-70.43,2022-10-28 10:25:43.390625
2527,-79.23,2022-10-28 10:25:43.406250
2528,-87.61,2022-10-28 10:25:43.421875
2529,-93.82,2022-10-28 10:25:43.437500
2530,-96.14,2022-10-28 10:25:43.453125
2531,-93.34,2022-10-28 10:25:43.468750
2532,-85.11,2022-10-28 10:25:43.484375
2533,-72.26,2022-10-28 10:25:43.500000
2534,-56.54,2022-10-28 10:25:43.515625
2535,-40.09,2022-10-28 10:25:43.531250
2536,-24.81,2022-10-28 10:25:43.546875
2537,-11.7,2022-10-28 10:25:43.562500
2538,-0.67,2022-10-28 10:25:43.578125
2539,9.25,2022-10-28 10:25:43.593750
2540,19.33,2022-10-28 10:25:43.609375
2541,30.39,2022-10-28 10:25:43.625000
2542,42.31,2022-10-28 10:25:43.640625
2543,53.95,2022-10-28 10:25:43.656250
2544,63.55,2022-10-28 10:25:43.671875
2545,69.47,2022-10-28 10:25:43.687500
2546,70.9,2022-10-28 10:25:43.703125
2547,68.2,2022-10-28 10:25:43.718750
2548,62.77,2022-10-28 10:25:43.734375
2549,56.39,2022-10-28 10:25:43.750000
2550,50.5,2022-10-28 10:25:43.765625
2551,45.68,2022-10-28 10:25:43.781250
2552,41.64,2022-10-28 10:25:43.796875
2553,37.6,2022-10-28 10:25:43.812500
2554,32.89,2022-10-28 10:25:43.828125
2555,27.29,2022-10-28 10:25:43.843750
2556,21.09,2022-10-28 10:25:43.859375
2557,14.75,2022-10-28 10:25:43.875000
2558,8.58,2022-10-28 10:25:43.890625
2559,2.57,2022-10-28 10:25:43.906250
2560,-3.43,2022-10-28 10:25:43.921875
2561,-9.41,2022-10-28 10:25:43.937500
2562,-15.12,2022-10-28 10:25:43.953125
2563,-20.04,2022-10-28 10:25:43.968750
2564,-23.63,2022-10-28 10:25:43.984375
2565,-25.45,2022-10-28 10:25:44.000000
2566,-25.07,2022-10-28 10:25:44.015625
2567,-21.88,2022-10-28 10:25:44.031250
2568,-14.93,2022-10-28 10:25:44.046875
2569,-3.09,2022-10-28 10:25:44.062500
2570,14.45,2022-10-28 10:25:44.078125
2571,37.53,2022-10-28 10:25:44.093750
2572,64.61,2022-10-28 10:25:44.109375
2573,92.96,2022-10-28 10:25:44.125000
2574,119.38,2022-10-28 10:25:44.140625
2575,141.2,2022-10-28 10:25:44.156250
2576,157.02,2022-10-28 10:25:44.171875
2577,166.8,2022-10-28 10:25:44.187500
2578,171.35,2022-10-28 10:25:44.203125
2579,171.51,2022-10-28 10:25:44.218750
2580,167.61,2022-10-28 10:25:44.234375
2581,159.42,2022-10-28 10:25:44.250000
2582,146.6,2022-10-28 10:25:44.265625
2583,129.31,2022-10-28 10:25:44.281250
2584,108.6,2022-10-28 10:25:44.296875
2585,86.37,2022-10-28 10:25:44.312500
2586,64.9,2022-10-28 10:25:44.328125
2587,46.16,2022-10-28 10:25:44.343750
2588,31.39,2022-10-28 10:25:44.359375
2589,20.89,2022-10-28 10:25:44.375000
2590,14.15,2022-10-28 10:25:44.390625
2591,10.04,2022-10-28 10:25:44.406250
2592,7.13,2022-10-28 10:25:44.421875
2593,4.03,2022-10-28 10:25:44.437500
2594,-0.39,2022-10-28 10:25:44.453125
2595,-6.66,2022-10-28 10:25:44.468750
2596,-14.68,2022-10-28 10:25:44.484375
2597,-23.71,2022-10-28 10:25:44.500000
2598,-32.69,2022-10-28 10:25:44.515625
2599,-40.61,2022-10-28 10:25:44.531250
2600,-46.77,2022-10-28 10:25:44.546875
2601,-50.92,2022-10-28 10:25:44.562500
2602,-53.14,2022-10-28 10:25:44.578125
2603,-53.77,2022-10-28 10:25:44.593750
2604,-53.18,2022-10-28 10:25:44.609375
2605,-51.78,2022-10-28 10:25:44.625000
2606,-49.99,2022-10-28 10:25:44.640625
2607,-48.23,2022-10-28 10:25:44.656250
2608,-46.86,2022-10-28 10:25:44.671875
2609,-46.12,2022-10-28 10:25:44.687500
2610,-46.01,2022-10-28 10:25:44.703125
2611,-46.31,2022-10-28 10:25:44.718750
2612,-46.66,2022-10-28 10:25:44.734375
2613,-46.71,2022-10-28 10:25:44.750000
2614,-46.26,2022-10-28 10:25:44.765625
2615,-45.36,2022-10-28 10:25:44.781250
2616,-44.27,2022-10-28 10:25:44.796875
2617,-43.29,2022-10-28 10:25:44.812500
2618,-42.6,2022-10-28 10:25:44.828125
2619,-42.17,2022-10-28 10:25:44.843750
2620,-41.74,2022-10-28 10:25:44.859375
2621,-40.99,2022-10-28 10:25:44.875000
2622,-39.71,2022-10-28 10:25:44.890625
2623,-37.9,2022-10-28 10:25:44.906250
2624,-35.81,2022-10-28 10:25:44.921875
2625,-33.75,2022-10-28 10:25:44.937500
2626,-31.97,2022-10-28 10:25:44.953125
2627,-30.51,2022-10-28 10:25:44.968750
2628,-29.25,2022-10-28 10:25:44.984375
2629,-28.03,2022-10-28 10:25:45.000000
2630,-26.73,2022-10-28 10:25:45.015625
2631,-25.37,2022-10-28 10:25:45.031250
2632,-24.09,2022-10-28 10:25:45.046875
2633,-23.0,2022-10-28 10:25:45.062500
2634,-22.2,2022-10-28 10:25:45.078125
2635,-21.71,2022-10-28 10:25:45.093750
2636,-21.56,2022-10-28 10:25:45.109375
2637,-21.85,2022-10-28 10:25:45.125000
2638,-22.74,2022-10-28 10:25:45.140625
2639,-24.35,2022-10-28 10:25:45.156250
2640,-26.72,2022-10-28 10:25:45.171875
2641,-29.65,2022-10-28 10:25:45.187500
2642,-32.77,2022-10-28 10:25:45.203125
2643,-35.65,2022-10-28 10:25:45.218750
2644,-38.02,2022-10-28 10:25:45.234375
2645,-39.86,2022-10-28 10:25:45.250000
2646,-41.47,2022-10-28 10:25:45.265625
2647,-43.33,2022-10-28 10:25:45.281250
2648,-45.96,2022-10-28 10:25:45.296875
2649,-49.77,2022-10-28 10:25:45.312500
2650,-54.9,2022-10-28 10:25:45.328125
2651,-61.18,2022-10-28 10:25:45.343750
2652,-68.13,2022-10-28 10:25:45.359375
2653,-74.92,2022-10-28 10:25:45.375000
2654,-80.52,2022-10-28 10:25:45.390625
2655,-83.83,2022-10-28 10:25:45.406250
2656,-84.01,2022-10-28 10:25:45.421875
2657,-80.65,2022-10-28 10:25:45.437500
2658,-74.03,2022-10-28 10:25:45.453125
2659,-64.97,2022-10-28 10:25:45.468750
2660,-54.6,2022-10-28 10:25:45.484375
2661,-44.0,2022-10-28 10:25:45.500000
2662,-33.93,2022-10-28 10:25:45.515625
2663,-24.69,2022-10-28 10:25:45.531250
2664,-16.24,2022-10-28 10:25:45.546875
2665,-8.38,2022-10-28 10:25:45.562500
2666,-0.91,2022-10-28 10:25:45.578125
2667,6.17,2022-10-28 10:25:45.593750
2668,12.79,2022-10-28 10:25:45.609375
2669,18.75,2022-10-28 10:25:45.625000
2670,23.94,2022-10-28 10:25:45.640625
2671,28.42,2022-10-28 10:25:45.656250
2672,32.4,2022-10-28 10:25:45.671875
2673,36.22,2022-10-28 10:25:45.687500
2674,40.19,2022-10-28 10:25:45.703125
2675,44.5,2022-10-28 10:25:45.718750
2676,49.12,2022-10-28 10:25:45.734375
2677,53.86,2022-10-28 10:25:45.750000
2678,58.5,2022-10-28 10:25:45.765625
2679,62.77,2022-10-28 10:25:45.781250
2680,66.47,2022-10-28 10:25:45.796875
2681,69.37,2022-10-28 10:25:45.812500
2682,71.24,2022-10-28 10:25:45.828125
2683,71.84,2022-10-28 10:25:45.843750
2684,71.02,2022-10-28 10:25:45.859375
2685,68.8,2022-10-28 10:25:45.875000
2686,65.35,2022-10-28 10:25:45.890625
2687,60.95,2022-10-28 10:25:45.906250
2688,55.85,2022-10-28 10:25:45.921875
2689,50.22,2022-10-28 10:25:45.937500
2690,44.19,2022-10-28 10:25:45.953125
2691,37.85,2022-10-28 10:25:45.968750
2692,31.36,2022-10-28 10:25:45.984375
2693,24.91,2022-10-28 10:25:46.000000
2694,18.66,2022-10-28 10:25:46.015625
2695,12.68,2022-10-28 10:25:46.031250
2696,7.06,2022-10-28 10:25:46.046875
2697,1.9,2022-10-28 10:25:46.062500
2698,-2.56,2022-10-28 10:25:46.078125
2699,-6.05,2022-10-28 10:25:46.093750
2700,-8.29,2022-10-28 10:25:46.109375
2701,-9.18,2022-10-28 10:25:46.125000
2702,-8.7,2022-10-28 10:25:46.140625
2703,-6.92,2022-10-28 10:25:46.156250
2704,-3.8,2022-10-28 10:25:46.171875
2705,0.78,2022-10-28 10:25:46.187500
2706,6.93,2022-10-28 10:25:46.203125
2707,14.56,2022-10-28 10:25:46.218750
2708,23.15,2022-10-28 10:25:46.234375
2709,31.83,2022-10-28 10:25:46.250000
2710,39.5,2022-10-28 10:25:46.265625
2711,45.15,2022-10-28 10:25:46.281250
2712,48.13,2022-10-28 10:25:46.296875
2713,48.24,2022-10-28 10:25:46.312500
2714,45.7,2022-10-28 10:25:46.328125
2715,40.97,2022-10-28 10:25:46.343750
2716,34.62,2022-10-28 10:25:46.359375
2717,27.13,2022-10-28 10:25:46.375000
2718,18.88,2022-10-28 10:25:46.390625
2719,10.06,2022-10-28 10:25:46.406250
2720,0.71,2022-10-28 10:25:46.421875
2721,-9.27,2022-10-28 10:25:46.437500
2722,-19.97,2022-10-28 10:25:46.453125
2723,-31.35,2022-10-28 10:25:46.468750
2724,-42.95,2022-10-28 10:25:46.484375
2725,-53.8,2022-10-28 10:25:46.500000
2726,-62.47,2022-10-28 10:25:46.515625
2727,-67.38,2022-10-28 10:25:46.531250
2728,-67.26,2022-10-28 10:25:46.546875
2729,-61.62,2022-10-28 10:25:46.562500
2730,-50.99,2022-10-28 10:25:46.578125
2731,-36.82,2022-10-28 10:25:46.593750
2732,-20.98,2022-10-28 10:25:46.609375
2733,-5.31,2022-10-28 10:25:46.625000
2734,8.91,2022-10-28 10:25:46.640625
2735,20.98,2022-10-28 10:25:46.656250
2736,30.68,2022-10-28 10:25:46.671875
2737,37.95,2022-10-28 10:25:46.687500
2738,42.71,2022-10-28 10:25:46.703125
2739,44.79,2022-10-28 10:25:46.718750
2740,44.11,2022-10-28 10:25:46.734375
2741,40.83,2022-10-28 10:25:46.750000
2742,35.44,2022-10-28 10:25:46.765625
2743,28.75,2022-10-28 10:25:46.781250
2744,21.68,2022-10-28 10:25:46.796875
2745,15.07,2022-10-28 10:25:46.812500
2746,9.54,2022-10-28 10:25:46.828125
2747,5.4,2022-10-28 10:25:46.843750
2748,2.67,2022-10-28 10:25:46.859375
2749,1.18,2022-10-28 10:25:46.875000
2750,0.67,2022-10-28 10:25:46.890625
2751,0.85,2022-10-28 10:25:46.906250
2752,1.49,2022-10-28 10:25:46.921875
2753,2.43,2022-10-28 10:25:46.937500
2754,3.53,2022-10-28 10:25:46.953125
2755,4.61,2022-10-28 10:25:46.968750
2756,5.52,2022-10-28 10:25:46.984375
2757,6.1,2022-10-28 10:25:47.000000
2758,6.22,2022-10-28 10:25:47.015625
2759,5.88,2022-10-28 10:25:47.031250
2760,5.12,2022-10-28 10:25:47.046875
2761,4.03,2022-10-28 10:25:47.062500
2762,2.69,2022-10-28 10:25:47.078125
2763,1.23,2022-10-28 10:25:47.093750
2764,-0.31,2022-10-28 10:25:47.109375
2765,-1.81,2022-10-28 10:25:47.125000
2766,-3.21,2022-10-28 10:25:47.140625
2767,-4.47,2022-10-28 10:25:47.156250
2768,-5.58,2022-10-28 10:25:47.171875
2769,-6.64,2022-10-28 10:25:47.187500
2770,-7.74,2022-10-28 10:25:47.203125
2771,-8.98,2022-10-28 10:25:47.218750
2772,-10.35,2022-10-28 10:25:47.234375
2773,-11.79,2022-10-28 10:25:47.250000
2774,-13.17,2022-10-28 10:25:47.265625
2775,-14.39,2022-10-28 10:25:47.281250
2776,-15.41,2022-10-28 10:25:47.296875
2777,-16.22,2022-10-28 10:25:47.312500
2778,-16.92,2022-10-28 10:25:47.328125
2779,-17.63,2022-10-28 10:25:47.343750
2780,-18.48,2022-10-28 10:25:47.359375
2781,-19.6,2022-10-28 10:25:47.375000
2782,-21.05,2022-10-28 10:25:47.390625
2783,-22.79,2022-10-28 10:25:47.406250
2784,-24.67,2022-10-28 10:25:47.421875
2785,-26.5,2022-10-28 10:25:47.437500
2786,-28.15,2022-10-28 10:25:47.453125
2787,-29.7,2022-10-28 10:25:47.468750
2788,-31.43,2022-10-28 10:25:47.484375
2789,-33.83,2022-10-28 10:25:47.500000
2790,-37.41,2022-10-28 10:25:47.515625
2791,-42.43,2022-10-28 10:25:47.531250
2792,-48.79,2022-10-28 10:25:47.546875
2793,-55.84,2022-10-28 10:25:47.562500
2794,-62.5,2022-10-28 10:25:47.578125
2795,-67.41,2022-10-28 10:25:47.593750
2796,-69.31,2022-10-28 10:25:47.609375
2797,-67.38,2022-10-28 10:25:47.625000
2798,-61.47,2022-10-28 10:25:47.640625
2799,-52.24,2022-10-28 10:25:47.656250
2800,-40.9,2022-10-28 10:25:47.671875
2801,-28.9,2022-10-28 10:25:47.687500
2802,-17.46,2022-10-28 10:25:47.703125
2803,-7.36,2022-10-28 10:25:47.718750
2804,1.14,2022-10-28 10:25:47.734375
2805,8.07,2022-10-28 10:25:47.750000
2806,13.55,2022-10-28 10:25:47.765625
2807,17.6,2022-10-28 10:25:47.781250
2808,20.16,2022-10-28 10:25:47.796875
2809,21.25,2022-10-28 10:25:47.812500
2810,21.1,2022-10-28 10:25:47.828125
2811,20.16,2022-10-28 10:25:47.843750
2812,19.01,2022-10-28 10:25:47.859375
2813,18.17,2022-10-28 10:25:47.875000
2814,17.87,2022-10-28 10:25:47.890625
2815,18.11,2022-10-28 10:25:47.906250
2816,18.73,2022-10-28 10:25:47.921875
2817,19.57,2022-10-28 10:25:47.937500
2818,20.6,2022-10-28 10:25:47.953125
2819,21.87,2022-10-28 10:25:47.968750
2820,23.43,2022-10-28 10:25:47.984375
2821,25.22,2022-10-28 10:25:48.000000
2822,27.03,2022-10-28 10:25:48.015625
2823,28.48,2022-10-28 10:25:48.031250
2824,29.22,2022-10-28 10:25:48.046875
2825,28.92,2022-10-28 10:25:48.062500
2826,27.45,2022-10-28 10:25:48.078125
2827,24.9,2022-10-28 10:25:48.093750
2828,21.55,2022-10-28 10:25:48.109375
2829,17.9,2022-10-28 10:25:48.125000
2830,14.42,2022-10-28 10:25:48.140625
2831,11.51,2022-10-28 10:25:48.156250
2832,9.27,2022-10-28 10:25:48.171875
2833,7.55,2022-10-28 10:25:48.187500
2834,6.0,2022-10-28 10:25:48.203125
2835,4.26,2022-10-28 10:25:48.218750
2836,2.13,2022-10-28 10:25:48.234375
2837,-0.4,2022-10-28 10:25:48.250000
2838,-3.19,2022-10-28 10:25:48.265625
2839,-6.07,2022-10-28 10:25:48.281250
2840,-8.94,2022-10-28 10:25:48.296875
2841,-11.76,2022-10-28 10:25:48.312500
2842,-14.56,2022-10-28 10:25:48.328125
2843,-17.35,2022-10-28 10:25:48.343750
2844,-20.11,2022-10-28 10:25:48.359375
2845,-22.76,2022-10-28 10:25:48.375000
2846,-25.24,2022-10-28 10:25:48.390625
2847,-27.49,2022-10-28 10:25:48.406250
2848,-29.54,2022-10-28 10:25:48.421875
2849,-31.5,2022-10-28 10:25:48.437500
2850,-33.57,2022-10-28 10:25:48.453125
2851,-36.07,2022-10-28 10:25:48.468750
2852,-39.36,2022-10-28 10:25:48.484375
2853,-43.67,2022-10-28 10:25:48.500000
2854,-49.06,2022-10-28 10:25:48.515625
2855,-55.17,2022-10-28 10:25:48.531250
2856,-61.2,2022-10-28 10:25:48.546875
2857,-65.97,2022-10-28 10:25:48.562500
2858,-68.11,2022-10-28 10:25:48.578125
2859,-66.45,2022-10-28 10:25:48.593750
2860,-60.44,2022-10-28 10:25:48.609375
2861,-50.39,2022-10-28 10:25:48.625000
2862,-37.45,2022-10-28 10:25:48.640625
2863,-23.28,2022-10-28 10:25:48.656250
2864,-9.57,2022-10-28 10:25:48.671875
2865,2.48,2022-10-28 10:25:48.687500
2866,12.33,2022-10-28 10:25:48.703125
2867,20.02,2022-10-28 10:25:48.718750
2868,25.92,2022-10-28 10:25:48.734375
2869,30.33,2022-10-28 10:25:48.750000
2870,33.38,2022-10-28 10:25:48.765625
2871,35.02,2022-10-28 10:25:48.781250
2872,35.25,2022-10-28 10:25:48.796875
2873,34.21,2022-10-28 10:25:48.812500
2874,32.33,2022-10-28 10:25:48.828125
2875,30.18,2022-10-28 10:25:48.843750
2876,28.33,2022-10-28 10:25:48.859375
2877,27.16,2022-10-28 10:25:48.875000
2878,26.78,2022-10-28 10:25:48.890625
2879,27.08,2022-10-28 10:25:48.906250
2880,27.8,2022-10-28 10:25:48.921875
2881,28.66,2022-10-28 10:25:48.937500
2882,29.42,2022-10-28 10:25:48.953125
2883,29.9,2022-10-28 10:25:48.968750
2884,29.97,2022-10-28 10:25:48.984375
2885,29.51,2022-10-28 10:25:49.000000
2886,28.43,2022-10-28 10:25:49.015625
2887,26.68,2022-10-28 10:25:49.031250
2888,24.27,2022-10-28 10:25:49.046875
2889,21.34,2022-10-28 10:25:49.062500
2890,18.17,2022-10-28 10:25:49.078125
2891,15.11,2022-10-28 10:25:49.093750
2892,12.51,2022-10-28 10:25:49.109375
2893,10.6,2022-10-28 10:25:49.125000
2894,9.38,2022-10-28 10:25:49.140625
2895,8.63,2022-10-28 10:25:49.156250
2896,7.98,2022-10-28 10:25:49.171875
2897,7.05,2022-10-28 10:25:49.187500
2898,5.61,2022-10-28 10:25:49.203125
2899,3.64,2022-10-28 10:25:49.218750
2900,1.28,2022-10-28 10:25:49.234375
2901,-1.33,2022-10-28 10:25:49.250000
2902,-4.1,2022-10-28 10:25:49.265625
2903,-7.09,2022-10-28 10:25:49.281250
2904,-10.4,2022-10-28 10:25:49.296875
2905,-14.09,2022-10-28 10:25:49.312500
2906,-18.09,2022-10-28 10:25:49.328125
2907,-22.19,2022-10-28 10:25:49.343750
2908,-26.06,2022-10-28 10:25:49.359375
2909,-29.49,2022-10-28 10:25:49.375000
2910,-32.38,2022-10-28 10:25:49.390625
2911,-34.87,2022-10-28 10:25:49.406250
2912,-37.3,2022-10-28 10:25:49.421875
2913,-40.08,2022-10-28 10:25:49.437500
2914,-43.66,2022-10-28 10:25:49.453125
2915,-48.37,2022-10-28 10:25:49.468750
2916,-54.27,2022-10-28 10:25:49.484375
2917,-60.93,2022-10-28 10:25:49.500000
2918,-67.41,2022-10-28 10:25:49.515625
2919,-72.33,2022-10-28 10:25:49.531250
2920,-74.16,2022-10-28 10:25:49.546875
2921,-71.75,2022-10-28 10:25:49.562500
2922,-64.67,2022-10-28 10:25:49.578125
2923,-53.52,2022-10-28 10:25:49.593750
2924,-39.73,2022-10-28 10:25:49.609375
2925,-25.13,2022-10-28 10:25:49.625000
2926,-11.4,2022-10-28 10:25:49.640625
2927,0.37,2022-10-28 10:25:49.656250
2928,9.8,2022-10-28 10:25:49.671875
2929,17.06,2022-10-28 10:25:49.687500
2930,22.58,2022-10-28 10:25:49.703125
2931,26.73,2022-10-28 10:25:49.718750
2932,29.83,2022-10-28 10:25:49.734375
2933,32.08,2022-10-28 10:25:49.750000
2934,33.69,2022-10-28 10:25:49.765625
2935,34.91,2022-10-28 10:25:49.781250
2936,36.0,2022-10-28 10:25:49.796875
2937,37.16,2022-10-28 10:25:49.812500
2938,38.48,2022-10-28 10:25:49.828125
2939,39.93,2022-10-28 10:25:49.843750
2940,41.45,2022-10-28 10:25:49.859375
2941,42.98,2022-10-28 10:25:49.875000
2942,44.56,2022-10-28 10:25:49.890625
2943,46.28,2022-10-28 10:25:49.906250
2944,48.26,2022-10-28 10:25:49.921875
2945,50.53,2022-10-28 10:25:49.937500
2946,52.97,2022-10-28 10:25:49.953125
2947,55.3,2022-10-28 10:25:49.968750
2948,57.12,2022-10-28 10:25:49.984375
2949,58.06,2022-10-28 10:25:50.000000
2950,57.88,2022-10-28 10:25:50.015625
2951,56.61,2022-10-28 10:25:50.031250
2952,54.44,2022-10-28 10:25:50.046875
2953,51.69,2022-10-28 10:25:50.062500
2954,48.61,2022-10-28 10:25:50.078125
2955,45.3,2022-10-28 10:25:50.093750
2956,41.7,2022-10-28 10:25:50.109375
2957,37.75,2022-10-28 10:25:50.125000
2958,33.45,2022-10-28 10:25:50.140625
2959,28.92,2022-10-28 10:25:50.156250
2960,24.44,2022-10-28 10:25:50.171875
2961,20.31,2022-10-28 10:25:50.187500
2962,16.73,2022-10-28 10:25:50.203125
2963,13.75,2022-10-28 10:25:50.218750
2964,11.28,2022-10-28 10:25:50.234375
2965,9.03,2022-10-28 10:25:50.250000
2966,6.72,2022-10-28 10:25:50.265625
2967,4.15,2022-10-28 10:25:50.281250
2968,1.24,2022-10-28 10:25:50.296875
2969,-1.93,2022-10-28 10:25:50.312500
2970,-5.18,2022-10-28 10:25:50.328125
2971,-8.36,2022-10-28 10:25:50.343750
2972,-11.38,2022-10-28 10:25:50.359375
2973,-14.23,2022-10-28 10:25:50.375000
2974,-16.99,2022-10-28 10:25:50.390625
2975,-19.76,2022-10-28 10:25:50.406250
2976,-22.75,2022-10-28 10:25:50.421875
2977,-26.22,2022-10-28 10:25:50.437500
2978,-30.47,2022-10-28 10:25:50.453125
2979,-35.7,2022-10-28 10:25:50.468750
2980,-41.82,2022-10-28 10:25:50.484375
2981,-48.28,2022-10-28 10:25:50.500000
2982,-54.05,2022-10-28 10:25:50.515625
2983,-57.84,2022-10-28 10:25:50.531250
2984,-58.58,2022-10-28 10:25:50.546875
2985,-55.72,2022-10-28 10:25:50.562500
2986,-49.53,2022-10-28 10:25:50.578125
2987,-40.98,2022-10-28 10:25:50.593750
2988,-31.4,2022-10-28 10:25:50.609375
2989,-22.08,2022-10-28 10:25:50.625000
2990,-13.92,2022-10-28 10:25:50.640625
2991,-7.36,2022-10-28 10:25:50.656250
2992,-2.39,2022-10-28 10:25:50.671875
2993,1.26,2022-10-28 10:25:50.687500
2994,3.91,2022-10-28 10:25:50.703125
2995,5.88,2022-10-28 10:25:50.718750
2996,7.35,2022-10-28 10:25:50.734375
2997,8.44,2022-10-28 10:25:50.750000
2998,9.21,2022-10-28 10:25:50.765625
2999,9.69,2022-10-28 10:25:50.781250
3000,9.94,2022-10-28 10:25:50.796875
3001,10.05,2022-10-28 10:25:50.812500
3002,10.14,2022-10-28 10:25:50.828125
3003,10.35,2022-10-28 10:25:50.843750
3004,10.81,2022-10-28 10:25:50.859375
3005,11.59,2022-10-28 10:25:50.875000
3006,12.7,2022-10-28 10:25:50.890625
3007,14.11,2022-10-28 10:25:50.906250
3008,15.75,2022-10-28 10:25:50.921875
3009,17.48,2022-10-28 10:25:50.937500
3010,19.15,2022-10-28 10:25:50.953125
3011,20.53,2022-10-28 10:25:50.968750
3012,21.39,2022-10-28 10:25:50.984375
3013,21.61,2022-10-28 10:25:51.000000
3014,21.17,2022-10-28 10:25:51.015625
3015,20.27,2022-10-28 10:25:51.031250
3016,19.19,2022-10-28 10:25:51.046875
3017,18.25,2022-10-28 10:25:51.062500
3018,17.56,2022-10-28 10:25:51.078125
3019,17.01,2022-10-28 10:25:51.093750
3020,16.27,2022-10-28 10:25:51.109375
3021,14.91,2022-10-28 10:25:51.125000
3022,12.63,2022-10-28 10:25:51.140625
3023,9.39,2022-10-28 10:25:51.156250
3024,5.46,2022-10-28 10:25:51.171875
3025,1.29,2022-10-28 10:25:51.187500
3026,-2.63,2022-10-28 10:25:51.203125
3027,-5.98,2022-10-28 10:25:51.218750
3028,-8.67,2022-10-28 10:25:51.234375
3029,-10.87,2022-10-28 10:25:51.250000
3030,-12.96,2022-10-28 10:25:51.265625
3031,-15.37,2022-10-28 10:25:51.281250
3032,-18.55,2022-10-28 10:25:51.296875
3033,-22.78,2022-10-28 10:25:51.312500
3034,-28.03,2022-10-28 10:25:51.328125
3035,-33.77,2022-10-28 10:25:51.343750
3036,-39.05,2022-10-28 10:25:51.359375
3037,-42.61,2022-10-28 10:25:51.375000
3038,-43.26,2022-10-28 10:25:51.390625
3039,-40.39,2022-10-28 10:25:51.406250
3040,-34.17,2022-10-28 10:25:51.421875
3041,-25.55,2022-10-28 10:25:51.437500
3042,-15.89,2022-10-28 10:25:51.453125
3043,-6.48,2022-10-28 10:25:51.468750
3044,1.89,2022-10-28 10:25:51.484375
3045,9.0,2022-10-28 10:25:51.500000
3046,15.06,2022-10-28 10:25:51.515625
3047,20.36,2022-10-28 10:25:51.531250
3048,25.07,2022-10-28 10:25:51.546875
3049,29.15,2022-10-28 10:25:51.562500
3050,32.42,2022-10-28 10:25:51.578125
3051,34.78,2022-10-28 10:25:51.593750
3052,36.29,2022-10-28 10:25:51.609375
3053,37.15,2022-10-28 10:25:51.625000
3054,37.61,2022-10-28 10:25:51.640625
3055,37.94,2022-10-28 10:25:51.656250
3056,38.31,2022-10-28 10:25:51.671875
3057,38.81,2022-10-28 10:25:51.687500
3058,39.45,2022-10-28 10:25:51.703125
3059,40.16,2022-10-28 10:25:51.718750
3060,40.89,2022-10-28 10:25:51.734375
3061,41.58,2022-10-28 10:25:51.750000
3062,42.15,2022-10-28 10:25:51.765625
3063,42.54,2022-10-28 10:25:51.781250
3064,42.6,2022-10-28 10:25:51.796875
3065,42.18,2022-10-28 10:25:51.812500
3066,41.12,2022-10-28 10:25:51.828125
3067,39.34,2022-10-28 10:25:51.843750
3068,36.87,2022-10-28 10:25:51.859375
3069,33.79,2022-10-28 10:25:51.875000
3070,30.25,2022-10-28 10:25:51.890625
3071,26.3,2022-10-28 10:25:51.906250
3072,21.95,2022-10-28 10:25:51.921875
3073,17.04,2022-10-28 10:25:51.937500
3074,11.38,2022-10-28 10:25:51.953125
3075,4.77,2022-10-28 10:25:51.968750
3076,-2.9,2022-10-28 10:25:51.984375
3077,-11.44,2022-10-28 10:25:52.000000
3078,-20.44,2022-10-28 10:25:52.015625
3079,-29.24,2022-10-28 10:25:52.031250
3080,-37.17,2022-10-28 10:25:52.046875
3081,-43.76,2022-10-28 10:25:52.062500
3082,-48.9,2022-10-28 10:25:52.078125
3083,-52.82,2022-10-28 10:25:52.093750
3084,-56.05,2022-10-28 10:25:52.109375
3085,-59.18,2022-10-28 10:25:52.125000
3086,-62.71,2022-10-28 10:25:52.140625
3087,-66.98,2022-10-28 10:25:52.156250
3088,-72.07,2022-10-28 10:25:52.171875
3089,-77.78,2022-10-28 10:25:52.187500
3090,-83.55,2022-10-28 10:25:52.203125
3091,-88.45,2022-10-28 10:25:52.218750
3092,-91.35,2022-10-28 10:25:52.234375
3093,-91.19,2022-10-28 10:25:52.250000
3094,-87.41,2022-10-28 10:25:52.265625
3095,-80.15,2022-10-28 10:25:52.281250
3096,-70.27,2022-10-28 10:25:52.296875
3097,-59.08,2022-10-28 10:25:52.312500
3098,-47.93,2022-10-28 10:25:52.328125
3099,-37.79,2022-10-28 10:25:52.343750
3100,-29.15,2022-10-28 10:25:52.359375
3101,-22.01,2022-10-28 10:25:52.375000
3102,-16.19,2022-10-28 10:25:52.390625
3103,-11.48,2022-10-28 10:25:52.406250
3104,-7.79,2022-10-28 10:25:52.421875
3105,-5.05,2022-10-28 10:25:52.437500
3106,-3.12,2022-10-28 10:25:52.453125
3107,-1.77,2022-10-28 10:25:52.468750
3108,-0.64,2022-10-28 10:25:52.484375
3109,0.55,2022-10-28 10:25:52.500000
3110,2.03,2022-10-28 10:25:52.515625
3111,3.84,2022-10-28 10:25:52.531250
3112,5.94,2022-10-28 10:25:52.546875
3113,8.22,2022-10-28 10:25:52.562500
3114,10.53,2022-10-28 10:25:52.578125
3115,12.72,2022-10-28 10:25:52.593750
3116,14.6,2022-10-28 10:25:52.609375
3117,15.92,2022-10-28 10:25:52.625000
3118,16.4,2022-10-28 10:25:52.640625
3119,15.87,2022-10-28 10:25:52.656250
3120,14.27,2022-10-28 10:25:52.671875
3121,11.75,2022-10-28 10:25:52.687500
3122,8.61,2022-10-28 10:25:52.703125
3123,5.19,2022-10-28 10:25:52.718750
3124,1.74,2022-10-28 10:25:52.734375
3125,-1.61,2022-10-28 10:25:52.750000
3126,-4.92,2022-10-28 10:25:52.765625
3127,-8.36,2022-10-28 10:25:52.781250
3128,-12.05,2022-10-28 10:25:52.796875
3129,-16.0,2022-10-28 10:25:52.812500
3130,-19.99,2022-10-28 10:25:52.828125
3131,-23.67,2022-10-28 10:25:52.843750
3132,-26.71,2022-10-28 10:25:52.859375
3133,-28.89,2022-10-28 10:25:52.875000
3134,-30.28,2022-10-28 10:25:52.890625
3135,-31.12,2022-10-28 10:25:52.906250
3136,-31.79,2022-10-28 10:25:52.921875
3137,-32.64,2022-10-28 10:25:52.937500
3138,-33.97,2022-10-28 10:25:52.953125
