,BVP,time
0,-20.18,2021-12-17 16:42:23.125000
1,-22.91,2021-12-17 16:42:23.140625
2,-25.21,2021-12-17 16:42:23.156250
3,-27.2,2021-12-17 16:42:23.171875
4,-28.95,2021-12-17 16:42:23.187500
5,-30.5,2021-12-17 16:42:23.203125
6,-31.76,2021-12-17 16:42:23.218750
7,-32.69,2021-12-17 16:42:23.234375
8,-33.22,2021-12-17 16:42:23.250000
9,-33.39,2021-12-17 16:42:23.265625
10,-33.32,2021-12-17 16:42:23.281250
11,-33.08,2021-12-17 16:42:23.296875
12,-32.57,2021-12-17 16:42:23.312500
13,-31.65,2021-12-17 16:42:23.328125
14,-30.1,2021-12-17 16:42:23.343750
15,-27.77,2021-12-17 16:42:23.359375
16,-24.7,2021-12-17 16:42:23.375000
17,-21.02,2021-12-17 16:42:23.390625
18,-16.99,2021-12-17 16:42:23.406250
19,-12.96,2021-12-17 16:42:23.421875
20,-9.24,2021-12-17 16:42:23.437500
21,-6.1,2021-12-17 16:42:23.453125
22,-3.72,2021-12-17 16:42:23.468750
23,-2.12,2021-12-17 16:42:23.484375
24,-1.17,2021-12-17 16:42:23.500000
25,-0.53,2021-12-17 16:42:23.515625
26,0.18,2021-12-17 16:42:23.531250
27,1.25,2021-12-17 16:42:23.546875
28,2.62,2021-12-17 16:42:23.562500
29,3.97,2021-12-17 16:42:23.578125
30,4.67,2021-12-17 16:42:23.593750
31,4.11,2021-12-17 16:42:23.609375
32,1.94,2021-12-17 16:42:23.625000
33,-1.83,2021-12-17 16:42:23.640625
34,-6.85,2021-12-17 16:42:23.656250
35,-12.57,2021-12-17 16:42:23.671875
36,-18.48,2021-12-17 16:42:23.687500
37,-24.31,2021-12-17 16:42:23.703125
38,-29.87,2021-12-17 16:42:23.718750
39,-35.12,2021-12-17 16:42:23.734375
40,-39.86,2021-12-17 16:42:23.750000
41,-43.73,2021-12-17 16:42:23.765625
42,-46.33,2021-12-17 16:42:23.781250
43,-47.3,2021-12-17 16:42:23.796875
44,-46.52,2021-12-17 16:42:23.812500
45,-44.12,2021-12-17 16:42:23.828125
46,-40.4,2021-12-17 16:42:23.843750
47,-35.61,2021-12-17 16:42:23.859375
48,-30.01,2021-12-17 16:42:23.875000
49,-23.71,2021-12-17 16:42:23.890625
50,-16.96,2021-12-17 16:42:23.906250
51,-10.14,2021-12-17 16:42:23.921875
52,-3.85,2021-12-17 16:42:23.937500
53,1.26,2021-12-17 16:42:23.953125
54,4.61,2021-12-17 16:42:23.968750
55,5.9,2021-12-17 16:42:23.984375
56,5.2,2021-12-17 16:42:24.000000
57,2.94,2021-12-17 16:42:24.015625
58,-0.16,2021-12-17 16:42:24.031250
59,-3.24,2021-12-17 16:42:24.046875
60,-5.49,2021-12-17 16:42:24.062500
61,-6.36,2021-12-17 16:42:24.078125
62,-5.69,2021-12-17 16:42:24.093750
63,-3.77,2021-12-17 16:42:24.109375
64,-1.25,2021-12-17 16:42:24.125000
65,1.19,2021-12-17 16:42:24.140625
66,2.99,2021-12-17 16:42:24.156250
67,3.99,2021-12-17 16:42:24.171875
68,4.4,2021-12-17 16:42:24.187500
69,4.59,2021-12-17 16:42:24.203125
70,4.92,2021-12-17 16:42:24.218750
71,5.48,2021-12-17 16:42:24.234375
72,6.11,2021-12-17 16:42:24.250000
73,6.49,2021-12-17 16:42:24.265625
74,6.27,2021-12-17 16:42:24.281250
75,5.21,2021-12-17 16:42:24.296875
76,3.38,2021-12-17 16:42:24.312500
77,1.25,2021-12-17 16:42:24.328125
78,-0.36,2021-12-17 16:42:24.343750
79,-0.5,2021-12-17 16:42:24.359375
80,1.47,2021-12-17 16:42:24.375000
81,5.42,2021-12-17 16:42:24.390625
82,10.15,2021-12-17 16:42:24.406250
83,13.59,2021-12-17 16:42:24.421875
84,13.63,2021-12-17 16:42:24.437500
85,9.26,2021-12-17 16:42:24.453125
86,1.39,2021-12-17 16:42:24.468750
87,-7.07,2021-12-17 16:42:24.484375
88,-12.23,2021-12-17 16:42:24.500000
89,-10.88,2021-12-17 16:42:24.515625
90,-1.83,2021-12-17 16:42:24.531250
91,13.5,2021-12-17 16:42:24.546875
92,31.72,2021-12-17 16:42:24.562500
93,48.67,2021-12-17 16:42:24.578125
94,60.89,2021-12-17 16:42:24.593750
95,66.41,2021-12-17 16:42:24.609375
96,65.01,2021-12-17 16:42:24.625000
97,58.12,2021-12-17 16:42:24.640625
98,48.44,2021-12-17 16:42:24.656250
99,39.8,2021-12-17 16:42:24.671875
100,36.4,2021-12-17 16:42:24.687500
101,41.89,2021-12-17 16:42:24.703125
102,58.02,2021-12-17 16:42:24.718750
103,83.83,2021-12-17 16:42:24.734375
104,115.95,2021-12-17 16:42:24.750000
105,149.59,2021-12-17 16:42:24.765625
106,180.12,2021-12-17 16:42:24.781250
107,204.14,2021-12-17 16:42:24.796875
108,219.67,2021-12-17 16:42:24.812500
109,225.61,2021-12-17 16:42:24.828125
110,221.22,2021-12-17 16:42:24.843750
111,206.1,2021-12-17 16:42:24.859375
112,180.8,2021-12-17 16:42:24.875000
113,147.67,2021-12-17 16:42:24.890625
114,110.85,2021-12-17 16:42:24.906250
115,75.37,2021-12-17 16:42:24.921875
116,45.76,2021-12-17 16:42:24.937500
117,24.62,2021-12-17 16:42:24.953125
118,11.92,2021-12-17 16:42:24.968750
119,5.36,2021-12-17 16:42:24.984375
120,1.46,2021-12-17 16:42:25.000000
121,-3.2,2021-12-17 16:42:25.015625
122,-10.91,2021-12-17 16:42:25.031250
123,-22.47,2021-12-17 16:42:25.046875
124,-37.36,2021-12-17 16:42:25.062500
125,-53.95,2021-12-17 16:42:25.078125
126,-70.17,2021-12-17 16:42:25.093750
127,-84.34,2021-12-17 16:42:25.109375
128,-95.68,2021-12-17 16:42:25.125000
129,-104.63,2021-12-17 16:42:25.140625
130,-112.2,2021-12-17 16:42:25.156250
131,-118.97,2021-12-17 16:42:25.171875
132,-124.63,2021-12-17 16:42:25.187500
133,-128.38,2021-12-17 16:42:25.203125
134,-128.88,2021-12-17 16:42:25.218750
135,-125.12,2021-12-17 16:42:25.234375
136,-117.28,2021-12-17 16:42:25.250000
137,-107.02,2021-12-17 16:42:25.265625
138,-97.28,2021-12-17 16:42:25.281250
139,-91.0,2021-12-17 16:42:25.296875
140,-89.66,2021-12-17 16:42:25.312500
141,-93.38,2021-12-17 16:42:25.328125
142,-102.42,2021-12-17 16:42:25.343750
143,-116.67,2021-12-17 16:42:25.359375
144,-135.81,2021-12-17 16:42:25.375000
145,-159.01,2021-12-17 16:42:25.390625
146,-184.5,2021-12-17 16:42:25.406250
147,-209.48,2021-12-17 16:42:25.421875
148,-230.48,2021-12-17 16:42:25.437500
149,-243.52,2021-12-17 16:42:25.453125
150,-246.5,2021-12-17 16:42:25.468750
151,-241.86,2021-12-17 16:42:25.484375
152,-233.86,2021-12-17 16:42:25.500000
153,-226.76,2021-12-17 16:42:25.515625
154,-222.67,2021-12-17 16:42:25.531250
155,-220.73,2021-12-17 16:42:25.546875
156,-218.21,2021-12-17 16:42:25.562500
157,-212.38,2021-12-17 16:42:25.578125
158,-201.59,2021-12-17 16:42:25.593750
159,-188.28,2021-12-17 16:42:25.609375
160,-180.66,2021-12-17 16:42:25.625000
161,-187.58,2021-12-17 16:42:25.640625
162,-215.08,2021-12-17 16:42:25.656250
163,-263.48,2021-12-17 16:42:25.671875
164,-327.17,2021-12-17 16:42:25.687500
165,-396.89,2021-12-17 16:42:25.703125
166,-463.08,2021-12-17 16:42:25.718750
167,-517.38,2021-12-17 16:42:25.734375
168,-535.29,2021-12-17 16:42:25.750000
169,-500.49,2021-12-17 16:42:25.765625
170,-409.5,2021-12-17 16:42:25.781250
171,-276.04,2021-12-17 16:42:25.796875
172,-124.84,2021-12-17 16:42:25.812500
173,20.78,2021-12-17 16:42:25.828125
174,147.1,2021-12-17 16:42:25.843750
175,243.69,2021-12-17 16:42:25.859375
176,318.96,2021-12-17 16:42:25.875000
177,380.18,2021-12-17 16:42:25.890625
178,427.76,2021-12-17 16:42:25.906250
179,459.29,2021-12-17 16:42:25.921875
180,472.14,2021-12-17 16:42:25.937500
181,465.81,2021-12-17 16:42:25.953125
182,441.77,2021-12-17 16:42:25.968750
183,403.89,2021-12-17 16:42:25.984375
184,358.07,2021-12-17 16:42:26.000000
185,313.67,2021-12-17 16:42:26.015625
186,280.16,2021-12-17 16:42:26.031250
187,264.69,2021-12-17 16:42:26.046875
188,271.63,2021-12-17 16:42:26.062500
189,300.01,2021-12-17 16:42:26.078125
190,342.56,2021-12-17 16:42:26.093750
191,386.97,2021-12-17 16:42:26.109375
192,419.34,2021-12-17 16:42:26.125000
193,428.83,2021-12-17 16:42:26.140625
194,412.49,2021-12-17 16:42:26.156250
195,374.01,2021-12-17 16:42:26.171875
196,320.99,2021-12-17 16:42:26.187500
197,262.1,2021-12-17 16:42:26.203125
198,203.59,2021-12-17 16:42:26.218750
199,148.16,2021-12-17 16:42:26.234375
200,95.96,2021-12-17 16:42:26.250000
201,46.68,2021-12-17 16:42:26.265625
202,1.0,2021-12-17 16:42:26.281250
203,-38.39,2021-12-17 16:42:26.296875
204,-69.37,2021-12-17 16:42:26.312500
205,-91.79,2021-12-17 16:42:26.328125
206,-107.86,2021-12-17 16:42:26.343750
207,-121.5,2021-12-17 16:42:26.359375
208,-136.78,2021-12-17 16:42:26.375000
209,-156.27,2021-12-17 16:42:26.390625
210,-180.48,2021-12-17 16:42:26.406250
211,-208.39,2021-12-17 16:42:26.421875
212,-237.84,2021-12-17 16:42:26.437500
213,-266.61,2021-12-17 16:42:26.453125
214,-291.71,2021-12-17 16:42:26.468750
215,-308.85,2021-12-17 16:42:26.484375
216,-312.71,2021-12-17 16:42:26.500000
217,-298.7,2021-12-17 16:42:26.515625
218,-265.21,2021-12-17 16:42:26.531250
219,-215.33,2021-12-17 16:42:26.546875
220,-156.89,2021-12-17 16:42:26.562500
221,-100.31,2021-12-17 16:42:26.578125
222,-55.72,2021-12-17 16:42:26.593750
223,-29.82,2021-12-17 16:42:26.609375
224,-24.48,2021-12-17 16:42:26.625000
225,-36.87,2021-12-17 16:42:26.640625
226,-61.12,2021-12-17 16:42:26.656250
227,-90.39,2021-12-17 16:42:26.671875
228,-118.72,2021-12-17 16:42:26.687500
229,-141.94,2021-12-17 16:42:26.703125
230,-157.77,2021-12-17 16:42:26.718750
231,-165.0,2021-12-17 16:42:26.734375
232,-162.59,2021-12-17 16:42:26.750000
233,-149.02,2021-12-17 16:42:26.765625
234,-122.72,2021-12-17 16:42:26.781250
235,-83.51,2021-12-17 16:42:26.796875
236,-34.48,2021-12-17 16:42:26.812500
237,17.51,2021-12-17 16:42:26.828125
238,63.12,2021-12-17 16:42:26.843750
239,93.69,2021-12-17 16:42:26.859375
240,104.47,2021-12-17 16:42:26.875000
241,95.88,2021-12-17 16:42:26.890625
242,72.48,2021-12-17 16:42:26.906250
243,40.03,2021-12-17 16:42:26.921875
244,2.51,2021-12-17 16:42:26.937500
245,-38.61,2021-12-17 16:42:26.953125
246,-82.89,2021-12-17 16:42:26.968750
247,-128.27,2021-12-17 16:42:26.984375
248,-169.41,2021-12-17 16:42:27.000000
249,-198.54,2021-12-17 16:42:27.015625
250,-208.58,2021-12-17 16:42:27.031250
251,-196.67,2021-12-17 16:42:27.046875
252,-165.99,2021-12-17 16:42:27.062500
253,-124.45,2021-12-17 16:42:27.078125
254,-81.13,2021-12-17 16:42:27.093750
255,-42.32,2021-12-17 16:42:27.109375
256,-9.66,2021-12-17 16:42:27.125000
257,19.08,2021-12-17 16:42:27.140625
258,47.51,2021-12-17 16:42:27.156250
259,77.94,2021-12-17 16:42:27.171875
260,110.1,2021-12-17 16:42:27.187500
261,141.28,2021-12-17 16:42:27.203125
262,167.34,2021-12-17 16:42:27.218750
263,183.31,2021-12-17 16:42:27.234375
264,184.05,2021-12-17 16:42:27.250000
265,165.35,2021-12-17 16:42:27.265625
266,125.73,2021-12-17 16:42:27.281250
267,68.2,2021-12-17 16:42:27.296875
268,0.88,2021-12-17 16:42:27.312500
269,-64.15,2021-12-17 16:42:27.328125
270,-114.26,2021-12-17 16:42:27.343750
271,-140.4,2021-12-17 16:42:27.359375
272,-140.61,2021-12-17 16:42:27.375000
273,-120.07,2021-12-17 16:42:27.390625
274,-88.05,2021-12-17 16:42:27.406250
275,-53.18,2021-12-17 16:42:27.421875
276,-19.98,2021-12-17 16:42:27.437500
277,11.73,2021-12-17 16:42:27.453125
278,44.98,2021-12-17 16:42:27.468750
279,82.71,2021-12-17 16:42:27.484375
280,125.18,2021-12-17 16:42:27.500000
281,168.33,2021-12-17 16:42:27.515625
282,205.33,2021-12-17 16:42:27.531250
283,229.6,2021-12-17 16:42:27.546875
284,237.81,2021-12-17 16:42:27.562500
285,230.89,2021-12-17 16:42:27.578125
286,212.98,2021-12-17 16:42:27.593750
287,189.73,2021-12-17 16:42:27.609375
288,166.53,2021-12-17 16:42:27.625000
289,146.87,2021-12-17 16:42:27.640625
290,130.56,2021-12-17 16:42:27.656250
291,114.12,2021-12-17 16:42:27.671875
292,92.76,2021-12-17 16:42:27.687500
293,63.04,2021-12-17 16:42:27.703125
294,24.49,2021-12-17 16:42:27.718750
295,-20.33,2021-12-17 16:42:27.734375
296,-66.89,2021-12-17 16:42:27.750000
297,-110.21,2021-12-17 16:42:27.765625
298,-140.8,2021-12-17 16:42:27.781250
299,-149.92,2021-12-17 16:42:27.796875
300,-134.53,2021-12-17 16:42:27.812500
301,-99.86,2021-12-17 16:42:27.828125
302,-55.82,2021-12-17 16:42:27.843750
303,-10.13,2021-12-17 16:42:27.859375
304,34.08,2021-12-17 16:42:27.875000
305,76.28,2021-12-17 16:42:27.890625
306,115.6,2021-12-17 16:42:27.906250
307,149.89,2021-12-17 16:42:27.921875
308,176.0,2021-12-17 16:42:27.937500
309,190.24,2021-12-17 16:42:27.953125
310,191.38,2021-12-17 16:42:27.968750
311,181.71,2021-12-17 16:42:27.984375
312,166.03,2021-12-17 16:42:28.000000
313,148.73,2021-12-17 16:42:28.015625
314,131.82,2021-12-17 16:42:28.031250
315,114.38,2021-12-17 16:42:28.046875
316,92.95,2021-12-17 16:42:28.062500
317,64.22,2021-12-17 16:42:28.078125
318,26.03,2021-12-17 16:42:28.093750
319,-21.36,2021-12-17 16:42:28.109375
320,-75.36,2021-12-17 16:42:28.125000
321,-132.11,2021-12-17 16:42:28.140625
322,-187.68,2021-12-17 16:42:28.156250
323,-238.38,2021-12-17 16:42:28.171875
324,-280.6,2021-12-17 16:42:28.187500
325,-311.35,2021-12-17 16:42:28.203125
326,-329.92,2021-12-17 16:42:28.218750
327,-338.97,2021-12-17 16:42:28.234375
328,-343.51,2021-12-17 16:42:28.250000
329,-348.31,2021-12-17 16:42:28.265625
330,-355.26,2021-12-17 16:42:28.281250
331,-362.51,2021-12-17 16:42:28.296875
332,-365.53,2021-12-17 16:42:28.312500
333,-360.03,2021-12-17 16:42:28.328125
334,-344.52,2021-12-17 16:42:28.343750
335,-321.97,2021-12-17 16:42:28.359375
336,-298.59,2021-12-17 16:42:28.375000
337,-280.34,2021-12-17 16:42:28.390625
338,-269.46,2021-12-17 16:42:28.406250
339,-263.56,2021-12-17 16:42:28.421875
340,-257.52,2021-12-17 16:42:28.437500
341,-246.61,2021-12-17 16:42:28.453125
342,-228.81,2021-12-17 16:42:28.468750
343,-204.25,2021-12-17 16:42:28.484375
344,-175.27,2021-12-17 16:42:28.500000
345,-145.21,2021-12-17 16:42:28.515625
346,-116.98,2021-12-17 16:42:28.531250
347,-91.57,2021-12-17 16:42:28.546875
348,-67.69,2021-12-17 16:42:28.562500
349,-42.91,2021-12-17 16:42:28.578125
350,-15.18,2021-12-17 16:42:28.593750
351,15.93,2021-12-17 16:42:28.609375
352,51.11,2021-12-17 16:42:28.625000
353,89.07,2021-12-17 16:42:28.640625
354,126.64,2021-12-17 16:42:28.656250
355,159.86,2021-12-17 16:42:28.671875
356,186.14,2021-12-17 16:42:28.687500
357,205.66,2021-12-17 16:42:28.703125
358,220.82,2021-12-17 16:42:28.718750
359,235.22,2021-12-17 16:42:28.734375
360,252.36,2021-12-17 16:42:28.750000
361,278.7,2021-12-17 16:42:28.765625
362,318.52,2021-12-17 16:42:28.781250
363,371.4,2021-12-17 16:42:28.796875
364,430.56,2021-12-17 16:42:28.812500
365,484.72,2021-12-17 16:42:28.828125
366,521.64,2021-12-17 16:42:28.843750
367,532.41,2021-12-17 16:42:28.859375
368,515.07,2021-12-17 16:42:28.875000
369,476.3,2021-12-17 16:42:28.890625
370,434.74,2021-12-17 16:42:28.906250
371,410.05,2021-12-17 16:42:28.921875
372,414.84,2021-12-17 16:42:28.937500
373,449.31,2021-12-17 16:42:28.953125
374,503.38,2021-12-17 16:42:28.968750
375,562.76,2021-12-17 16:42:28.984375
376,615.19,2021-12-17 16:42:29.000000
377,653.81,2021-12-17 16:42:29.015625
378,645.78,2021-12-17 16:42:29.031250
379,574.04,2021-12-17 16:42:29.046875
380,442.43,2021-12-17 16:42:29.062500
381,275.03,2021-12-17 16:42:29.078125
382,100.61,2021-12-17 16:42:29.093750
383,-61.01,2021-12-17 16:42:29.109375
384,-201.12,2021-12-17 16:42:29.125000
385,-317.47,2021-12-17 16:42:29.140625
386,-410.41,2021-12-17 16:42:29.156250
387,-481.71,2021-12-17 16:42:29.171875
388,-528.84,2021-12-17 16:42:29.187500
389,-553.97,2021-12-17 16:42:29.203125
390,-561.7,2021-12-17 16:42:29.218750
391,-558.97,2021-12-17 16:42:29.234375
392,-552.4,2021-12-17 16:42:29.250000
393,-545.56,2021-12-17 16:42:29.265625
394,-538.55,2021-12-17 16:42:29.281250
395,-529.27,2021-12-17 16:42:29.296875
396,-515.39,2021-12-17 16:42:29.312500
397,-491.56,2021-12-17 16:42:29.328125
398,-454.52,2021-12-17 16:42:29.343750
399,-405.38,2021-12-17 16:42:29.359375
400,-349.2,2021-12-17 16:42:29.375000
401,-292.36,2021-12-17 16:42:29.390625
402,-239.88,2021-12-17 16:42:29.406250
403,-194.31,2021-12-17 16:42:29.421875
404,-155.88,2021-12-17 16:42:29.437500
405,-123.44,2021-12-17 16:42:29.453125
406,-92.92,2021-12-17 16:42:29.468750
407,-61.26,2021-12-17 16:42:29.484375
408,-27.52,2021-12-17 16:42:29.500000
409,6.68,2021-12-17 16:42:29.515625
410,38.48,2021-12-17 16:42:29.531250
411,65.5,2021-12-17 16:42:29.546875
412,86.79,2021-12-17 16:42:29.562500
413,103.02,2021-12-17 16:42:29.578125
414,116.2,2021-12-17 16:42:29.593750
415,130.22,2021-12-17 16:42:29.609375
416,148.54,2021-12-17 16:42:29.625000
417,173.71,2021-12-17 16:42:29.640625
418,207.12,2021-12-17 16:42:29.656250
419,249.34,2021-12-17 16:42:29.671875
420,299.64,2021-12-17 16:42:29.687500
421,355.35,2021-12-17 16:42:29.703125
422,411.17,2021-12-17 16:42:29.718750
423,459.61,2021-12-17 16:42:29.734375
424,493.56,2021-12-17 16:42:29.750000
425,507.98,2021-12-17 16:42:29.765625
426,502.37,2021-12-17 16:42:29.781250
427,481.16,2021-12-17 16:42:29.796875
428,452.02,2021-12-17 16:42:29.812500
429,422.17,2021-12-17 16:42:29.828125
430,396.26,2021-12-17 16:42:29.843750
431,375.58,2021-12-17 16:42:29.859375
432,359.1,2021-12-17 16:42:29.875000
433,345.76,2021-12-17 16:42:29.890625
434,334.11,2021-12-17 16:42:29.906250
435,323.43,2021-12-17 16:42:29.921875
436,313.72,2021-12-17 16:42:29.937500
437,304.56,2021-12-17 16:42:29.953125
438,293.52,2021-12-17 16:42:29.968750
439,278.22,2021-12-17 16:42:29.984375
440,257.87,2021-12-17 16:42:30.000000
441,234.01,2021-12-17 16:42:30.015625
442,211.17,2021-12-17 16:42:30.031250
443,191.92,2021-12-17 16:42:30.046875
444,177.15,2021-12-17 16:42:30.062500
445,166.48,2021-12-17 16:42:30.078125
446,157.85,2021-12-17 16:42:30.093750
447,146.21,2021-12-17 16:42:30.109375
448,126.72,2021-12-17 16:42:30.125000
449,96.85,2021-12-17 16:42:30.140625
450,57.31,2021-12-17 16:42:30.156250
451,13.06,2021-12-17 16:42:30.171875
452,-33.77,2021-12-17 16:42:30.187500
453,-82.72,2021-12-17 16:42:30.203125
454,-133.6,2021-12-17 16:42:30.218750
455,-187.13,2021-12-17 16:42:30.234375
456,-246.4,2021-12-17 16:42:30.250000
457,-313.59,2021-12-17 16:42:30.265625
458,-387.87,2021-12-17 16:42:30.281250
459,-464.82,2021-12-17 16:42:30.296875
460,-535.53,2021-12-17 16:42:30.312500
461,-595.5,2021-12-17 16:42:30.328125
462,-643.0,2021-12-17 16:42:30.343750
463,-675.95,2021-12-17 16:42:30.359375
464,-674.15,2021-12-17 16:42:30.375000
465,-622.57,2021-12-17 16:42:30.390625
466,-520.45,2021-12-17 16:42:30.406250
467,-384.81,2021-12-17 16:42:30.421875
468,-256.87,2021-12-17 16:42:30.437500
469,-145.75,2021-12-17 16:42:30.453125
470,-51.84,2021-12-17 16:42:30.468750
471,25.2,2021-12-17 16:42:30.484375
472,90.52,2021-12-17 16:42:30.500000
473,143.78,2021-12-17 16:42:30.515625
474,181.28,2021-12-17 16:42:30.531250
475,199.22,2021-12-17 16:42:30.546875
476,195.91,2021-12-17 16:42:30.562500
477,172.66,2021-12-17 16:42:30.578125
478,135.67,2021-12-17 16:42:30.593750
479,88.15,2021-12-17 16:42:30.609375
480,30.85,2021-12-17 16:42:30.625000
481,-31.86,2021-12-17 16:42:30.640625
482,-99.03,2021-12-17 16:42:30.656250
483,-172.8,2021-12-17 16:42:30.671875
484,-255.7,2021-12-17 16:42:30.687500
485,-347.58,2021-12-17 16:42:30.703125
486,-443.2,2021-12-17 16:42:30.718750
487,-530.28,2021-12-17 16:42:30.734375
488,-596.72,2021-12-17 16:42:30.750000
489,-634.77,2021-12-17 16:42:30.765625
490,-637.21,2021-12-17 16:42:30.781250
491,-607.1,2021-12-17 16:42:30.796875
492,-554.45,2021-12-17 16:42:30.812500
493,-490.83,2021-12-17 16:42:30.828125
494,-424.27,2021-12-17 16:42:30.843750
495,-356.78,2021-12-17 16:42:30.859375
496,-285.0,2021-12-17 16:42:30.875000
497,-194.11,2021-12-17 16:42:30.890625
498,-105.4,2021-12-17 16:42:30.906250
499,-21.87,2021-12-17 16:42:30.921875
500,49.53,2021-12-17 16:42:30.937500
501,106.02,2021-12-17 16:42:30.953125
502,152.02,2021-12-17 16:42:30.968750
503,196.61,2021-12-17 16:42:30.984375
504,246.81,2021-12-17 16:42:31.000000
505,302.4,2021-12-17 16:42:31.015625
506,355.71,2021-12-17 16:42:31.031250
507,393.62,2021-12-17 16:42:31.046875
508,412.07,2021-12-17 16:42:31.062500
509,412.98,2021-12-17 16:42:31.078125
510,406.76,2021-12-17 16:42:31.093750
511,406.48,2021-12-17 16:42:31.109375
512,420.42,2021-12-17 16:42:31.125000
513,447.48,2021-12-17 16:42:31.140625
514,466.08,2021-12-17 16:42:31.156250
515,455.35,2021-12-17 16:42:31.171875
516,404.52,2021-12-17 16:42:31.187500
517,324.97,2021-12-17 16:42:31.203125
518,236.8,2021-12-17 16:42:31.218750
519,158.08,2021-12-17 16:42:31.234375
520,96.59,2021-12-17 16:42:31.250000
521,50.67,2021-12-17 16:42:31.265625
522,14.05,2021-12-17 16:42:31.281250
523,-19.12,2021-12-17 16:42:31.296875
524,-49.7,2021-12-17 16:42:31.312500
525,-76.33,2021-12-17 16:42:31.328125
526,-94.96,2021-12-17 16:42:31.343750
527,-105.47,2021-12-17 16:42:31.359375
528,-110.55,2021-12-17 16:42:31.375000
529,-114.94,2021-12-17 16:42:31.390625
530,-123.17,2021-12-17 16:42:31.406250
531,-138.06,2021-12-17 16:42:31.421875
532,-159.66,2021-12-17 16:42:31.437500
533,-184.09,2021-12-17 16:42:31.453125
534,-206.36,2021-12-17 16:42:31.468750
535,-221.13,2021-12-17 16:42:31.484375
536,-227.41,2021-12-17 16:42:31.500000
537,-225.69,2021-12-17 16:42:31.515625
538,-218.39,2021-12-17 16:42:31.531250
539,-208.55,2021-12-17 16:42:31.546875
540,-198.83,2021-12-17 16:42:31.562500
541,-190.6,2021-12-17 16:42:31.578125
542,-183.01,2021-12-17 16:42:31.593750
543,-174.5,2021-12-17 16:42:31.609375
544,-163.62,2021-12-17 16:42:31.625000
545,-150.6,2021-12-17 16:42:31.640625
546,-136.76,2021-12-17 16:42:31.656250
547,-124.26,2021-12-17 16:42:31.671875
548,-115.1,2021-12-17 16:42:31.687500
549,-110.62,2021-12-17 16:42:31.703125
550,-110.7,2021-12-17 16:42:31.718750
551,-113.67,2021-12-17 16:42:31.734375
552,-117.13,2021-12-17 16:42:31.750000
553,-118.86,2021-12-17 16:42:31.765625
554,-117.55,2021-12-17 16:42:31.781250
555,-112.41,2021-12-17 16:42:31.796875
556,-103.69,2021-12-17 16:42:31.812500
557,-91.79,2021-12-17 16:42:31.828125
558,-80.72,2021-12-17 16:42:31.843750
559,-72.81,2021-12-17 16:42:31.859375
560,-68.52,2021-12-17 16:42:31.875000
561,-66.77,2021-12-17 16:42:31.890625
562,-65.86,2021-12-17 16:42:31.906250
563,-64.21,2021-12-17 16:42:31.921875
564,-59.92,2021-12-17 16:42:31.937500
565,-52.74,2021-12-17 16:42:31.953125
566,-44.13,2021-12-17 16:42:31.968750
567,-36.75,2021-12-17 16:42:31.984375
568,-33.53,2021-12-17 16:42:32.000000
569,-34.79,2021-12-17 16:42:32.015625
570,-38.55,2021-12-17 16:42:32.031250
571,-41.6,2021-12-17 16:42:32.046875
572,-40.63,2021-12-17 16:42:32.062500
573,-31.41,2021-12-17 16:42:32.078125
574,-12.39,2021-12-17 16:42:32.093750
575,14.73,2021-12-17 16:42:32.109375
576,45.78,2021-12-17 16:42:32.125000
577,74.58,2021-12-17 16:42:32.140625
578,99.37,2021-12-17 16:42:32.156250
579,121.61,2021-12-17 16:42:32.171875
580,144.48,2021-12-17 16:42:32.187500
581,172.06,2021-12-17 16:42:32.203125
582,211.3,2021-12-17 16:42:32.218750
583,266.76,2021-12-17 16:42:32.234375
584,338.54,2021-12-17 16:42:32.250000
585,420.84,2021-12-17 16:42:32.265625
586,499.75,2021-12-17 16:42:32.281250
587,562.83,2021-12-17 16:42:32.296875
588,600.02,2021-12-17 16:42:32.312500
589,606.2,2021-12-17 16:42:32.328125
590,584.91,2021-12-17 16:42:32.343750
591,552.24,2021-12-17 16:42:32.359375
592,527.78,2021-12-17 16:42:32.375000
593,526.99,2021-12-17 16:42:32.390625
594,554.83,2021-12-17 16:42:32.406250
595,600.8,2021-12-17 16:42:32.421875
596,652.4,2021-12-17 16:42:32.437500
597,697.66,2021-12-17 16:42:32.453125
598,728.62,2021-12-17 16:42:32.468750
599,713.8,2021-12-17 16:42:32.484375
600,638.29,2021-12-17 16:42:32.500000
601,506.0,2021-12-17 16:42:32.515625
602,338.45,2021-12-17 16:42:32.531250
603,190.2,2021-12-17 16:42:32.546875
604,70.74,2021-12-17 16:42:32.562500
605,-23.91,2021-12-17 16:42:32.578125
606,-98.35,2021-12-17 16:42:32.593750
607,-161.25,2021-12-17 16:42:32.609375
608,-212.62,2021-12-17 16:42:32.625000
609,-246.5,2021-12-17 16:42:32.640625
610,-259.12,2021-12-17 16:42:32.656250
611,-251.19,2021-12-17 16:42:32.671875
612,-227.82,2021-12-17 16:42:32.687500
613,-200.34,2021-12-17 16:42:32.703125
614,-175.31,2021-12-17 16:42:32.718750
615,-157.56,2021-12-17 16:42:32.734375
616,-151.9,2021-12-17 16:42:32.750000
617,-161.51,2021-12-17 16:42:32.765625
618,-184.68,2021-12-17 16:42:32.781250
619,-217.61,2021-12-17 16:42:32.796875
620,-255.34,2021-12-17 16:42:32.812500
621,-295.06,2021-12-17 16:42:32.828125
622,-333.78,2021-12-17 16:42:32.843750
623,-363.66,2021-12-17 16:42:32.859375
624,-378.81,2021-12-17 16:42:32.875000
625,-378.75,2021-12-17 16:42:32.890625
626,-365.93,2021-12-17 16:42:32.906250
627,-341.68,2021-12-17 16:42:32.921875
628,-307.29,2021-12-17 16:42:32.937500
629,-265.09,2021-12-17 16:42:32.953125
630,-219.57,2021-12-17 16:42:32.968750
631,-178.22,2021-12-17 16:42:32.984375
632,-145.4,2021-12-17 16:42:33.000000
633,-122.21,2021-12-17 16:42:33.015625
634,-106.95,2021-12-17 16:42:33.031250
635,-95.22,2021-12-17 16:42:33.046875
636,-81.37,2021-12-17 16:42:33.062500
637,-61.91,2021-12-17 16:42:33.078125
638,-36.74,2021-12-17 16:42:33.093750
639,-9.0,2021-12-17 16:42:33.109375
640,15.81,2021-12-17 16:42:33.125000
641,34.64,2021-12-17 16:42:33.140625
642,45.92,2021-12-17 16:42:33.156250
643,50.07,2021-12-17 16:42:33.171875
644,49.34,2021-12-17 16:42:33.187500
645,46.6,2021-12-17 16:42:33.203125
646,43.44,2021-12-17 16:42:33.218750
647,39.36,2021-12-17 16:42:33.234375
648,32.13,2021-12-17 16:42:33.250000
649,18.58,2021-12-17 16:42:33.265625
650,-3.8,2021-12-17 16:42:33.281250
651,-35.88,2021-12-17 16:42:33.296875
652,-76.24,2021-12-17 16:42:33.312500
653,-120.12,2021-12-17 16:42:33.328125
654,-160.6,2021-12-17 16:42:33.343750
655,-189.7,2021-12-17 16:42:33.359375
656,-200.5,2021-12-17 16:42:33.375000
657,-189.94,2021-12-17 16:42:33.390625
658,-160.45,2021-12-17 16:42:33.406250
659,-122.35,2021-12-17 16:42:33.421875
660,-83.07,2021-12-17 16:42:33.437500
661,-48.47,2021-12-17 16:42:33.453125
662,-20.85,2021-12-17 16:42:33.468750
663,1.09,2021-12-17 16:42:33.484375
664,20.63,2021-12-17 16:42:33.500000
665,40.6,2021-12-17 16:42:33.515625
666,61.23,2021-12-17 16:42:33.531250
667,80.17,2021-12-17 16:42:33.546875
668,94.11,2021-12-17 16:42:33.562500
669,101.51,2021-12-17 16:42:33.578125
670,103.03,2021-12-17 16:42:33.593750
671,101.47,2021-12-17 16:42:33.609375
672,100.23,2021-12-17 16:42:33.625000
673,101.96,2021-12-17 16:42:33.640625
674,108.0,2021-12-17 16:42:33.656250
675,116.3,2021-12-17 16:42:33.671875
676,123.3,2021-12-17 16:42:33.687500
677,123.93,2021-12-17 16:42:33.703125
678,112.94,2021-12-17 16:42:33.718750
679,85.71,2021-12-17 16:42:33.734375
680,40.23,2021-12-17 16:42:33.750000
681,-21.68,2021-12-17 16:42:33.765625
682,-94.26,2021-12-17 16:42:33.781250
683,-166.61,2021-12-17 16:42:33.796875
684,-224.28,2021-12-17 16:42:33.812500
685,-255.03,2021-12-17 16:42:33.828125
686,-254.88,2021-12-17 16:42:33.843750
687,-229.03,2021-12-17 16:42:33.859375
688,-187.86,2021-12-17 16:42:33.875000
689,-140.94,2021-12-17 16:42:33.890625
690,-94.04,2021-12-17 16:42:33.906250
691,-49.71,2021-12-17 16:42:33.921875
692,-8.56,2021-12-17 16:42:33.937500
693,28.46,2021-12-17 16:42:33.953125
694,59.94,2021-12-17 16:42:33.968750
695,84.65,2021-12-17 16:42:33.984375
696,102.64,2021-12-17 16:42:34.000000
697,115.11,2021-12-17 16:42:34.015625
698,123.97,2021-12-17 16:42:34.031250
699,132.02,2021-12-17 16:42:34.046875
700,139.64,2021-12-17 16:42:34.062500
701,146.1,2021-12-17 16:42:34.078125
702,149.6,2021-12-17 16:42:34.093750
703,147.84,2021-12-17 16:42:34.109375
704,138.82,2021-12-17 16:42:34.125000
705,121.53,2021-12-17 16:42:34.140625
706,96.22,2021-12-17 16:42:34.156250
707,64.22,2021-12-17 16:42:34.171875
708,27.22,2021-12-17 16:42:34.187500
709,-13.28,2021-12-17 16:42:34.203125
710,-54.63,2021-12-17 16:42:34.218750
711,-95.17,2021-12-17 16:42:34.234375
712,-133.39,2021-12-17 16:42:34.250000
713,-166.49,2021-12-17 16:42:34.265625
714,-189.59,2021-12-17 16:42:34.281250
715,-196.75,2021-12-17 16:42:34.296875
716,-183.93,2021-12-17 16:42:34.312500
717,-151.82,2021-12-17 16:42:34.328125
718,-106.83,2021-12-17 16:42:34.343750
719,-58.9,2021-12-17 16:42:34.359375
720,-18.17,2021-12-17 16:42:34.375000
721,9.07,2021-12-17 16:42:34.390625
722,22.03,2021-12-17 16:42:34.406250
723,24.36,2021-12-17 16:42:34.421875
724,21.51,2021-12-17 16:42:34.437500
725,17.64,2021-12-17 16:42:34.453125
726,14.27,2021-12-17 16:42:34.468750
727,10.86,2021-12-17 16:42:34.484375
728,6.53,2021-12-17 16:42:34.500000
729,0.99,2021-12-17 16:42:34.515625
730,-4.94,2021-12-17 16:42:34.531250
731,-10.15,2021-12-17 16:42:34.546875
732,-14.17,2021-12-17 16:42:34.562500
733,-17.54,2021-12-17 16:42:34.578125
734,-21.49,2021-12-17 16:42:34.593750
735,-27.39,2021-12-17 16:42:34.609375
736,-35.67,2021-12-17 16:42:34.625000
737,-45.39,2021-12-17 16:42:34.640625
738,-55.19,2021-12-17 16:42:34.656250
739,-61.92,2021-12-17 16:42:34.671875
740,-62.48,2021-12-17 16:42:34.687500
741,-54.69,2021-12-17 16:42:34.703125
742,-37.9,2021-12-17 16:42:34.718750
743,-13.11,2021-12-17 16:42:34.734375
744,17.31,2021-12-17 16:42:34.750000
745,50.5,2021-12-17 16:42:34.765625
746,83.96,2021-12-17 16:42:34.781250
747,115.57,2021-12-17 16:42:34.796875
748,144.38,2021-12-17 16:42:34.812500
749,169.98,2021-12-17 16:42:34.828125
750,192.23,2021-12-17 16:42:34.843750
751,211.06,2021-12-17 16:42:34.859375
752,226.67,2021-12-17 16:42:34.875000
753,239.81,2021-12-17 16:42:34.890625
754,251.66,2021-12-17 16:42:34.906250
755,262.86,2021-12-17 16:42:34.921875
756,271.86,2021-12-17 16:42:34.937500
757,274.93,2021-12-17 16:42:34.953125
758,266.91,2021-12-17 16:42:34.968750
759,243.45,2021-12-17 16:42:34.984375
760,203.7,2021-12-17 16:42:35.000000
761,151.54,2021-12-17 16:42:35.015625
762,94.81,2021-12-17 16:42:35.031250
763,42.58,2021-12-17 16:42:35.046875
764,1.95,2021-12-17 16:42:35.062500
765,-24.63,2021-12-17 16:42:35.078125
766,-38.71,2021-12-17 16:42:35.093750
767,-44.38,2021-12-17 16:42:35.109375
768,-46.06,2021-12-17 16:42:35.125000
769,-46.93,2021-12-17 16:42:35.140625
770,-48.88,2021-12-17 16:42:35.156250
771,-53.3,2021-12-17 16:42:35.171875
772,-61.95,2021-12-17 16:42:35.187500
773,-73.86,2021-12-17 16:42:35.203125
774,-88.9,2021-12-17 16:42:35.218750
775,-105.77,2021-12-17 16:42:35.234375
776,-121.95,2021-12-17 16:42:35.250000
777,-134.28,2021-12-17 16:42:35.265625
778,-140.13,2021-12-17 16:42:35.281250
779,-138.78,2021-12-17 16:42:35.296875
780,-131.8,2021-12-17 16:42:35.312500
781,-122.35,2021-12-17 16:42:35.328125
782,-113.53,2021-12-17 16:42:35.343750
783,-107.3,2021-12-17 16:42:35.359375
784,-103.17,2021-12-17 16:42:35.375000
785,-98.97,2021-12-17 16:42:35.390625
786,-92.3,2021-12-17 16:42:35.406250
787,-82.3,2021-12-17 16:42:35.421875
788,-70.35,2021-12-17 16:42:35.437500
789,-59.47,2021-12-17 16:42:35.453125
790,-52.89,2021-12-17 16:42:35.468750
791,-52.23,2021-12-17 16:42:35.484375
792,-57.0,2021-12-17 16:42:35.500000
793,-64.41,2021-12-17 16:42:35.515625
794,-70.74,2021-12-17 16:42:35.531250
795,-73.0,2021-12-17 16:42:35.546875
796,-70.17,2021-12-17 16:42:35.562500
797,-63.55,2021-12-17 16:42:35.578125
798,-55.96,2021-12-17 16:42:35.593750
799,-50.38,2021-12-17 16:42:35.609375
800,-48.83,2021-12-17 16:42:35.625000
801,-51.96,2021-12-17 16:42:35.640625
802,-58.93,2021-12-17 16:42:35.656250
803,-68.0,2021-12-17 16:42:35.671875
804,-77.31,2021-12-17 16:42:35.687500
805,-85.28,2021-12-17 16:42:35.703125
806,-90.7,2021-12-17 16:42:35.718750
807,-92.68,2021-12-17 16:42:35.734375
808,-90.57,2021-12-17 16:42:35.750000
809,-84.06,2021-12-17 16:42:35.765625
810,-73.53,2021-12-17 16:42:35.781250
811,-59.96,2021-12-17 16:42:35.796875
812,-44.85,2021-12-17 16:42:35.812500
813,-29.95,2021-12-17 16:42:35.828125
814,-16.74,2021-12-17 16:42:35.843750
815,-6.16,2021-12-17 16:42:35.859375
816,1.7,2021-12-17 16:42:35.875000
817,7.38,2021-12-17 16:42:35.890625
818,11.72,2021-12-17 16:42:35.906250
819,15.4,2021-12-17 16:42:35.921875
820,18.64,2021-12-17 16:42:35.937500
821,21.28,2021-12-17 16:42:35.953125
822,22.91,2021-12-17 16:42:35.968750
823,23.26,2021-12-17 16:42:35.984375
824,22.35,2021-12-17 16:42:36.000000
825,20.62,2021-12-17 16:42:36.015625
826,18.73,2021-12-17 16:42:36.031250
827,17.41,2021-12-17 16:42:36.046875
828,17.13,2021-12-17 16:42:36.062500
829,17.98,2021-12-17 16:42:36.078125
830,19.5,2021-12-17 16:42:36.093750
831,20.74,2021-12-17 16:42:36.109375
832,20.54,2021-12-17 16:42:36.125000
833,17.93,2021-12-17 16:42:36.140625
834,12.55,2021-12-17 16:42:36.156250
835,4.88,2021-12-17 16:42:36.171875
836,-3.93,2021-12-17 16:42:36.187500
837,-12.65,2021-12-17 16:42:36.203125
838,-20.44,2021-12-17 16:42:36.218750
839,-27.26,2021-12-17 16:42:36.234375
840,-33.64,2021-12-17 16:42:36.250000
841,-40.32,2021-12-17 16:42:36.265625
842,-47.78,2021-12-17 16:42:36.281250
843,-56.1,2021-12-17 16:42:36.296875
844,-65.03,2021-12-17 16:42:36.312500
845,-74.16,2021-12-17 16:42:36.328125
846,-83.15,2021-12-17 16:42:36.343750
847,-91.83,2021-12-17 16:42:36.359375
848,-99.96,2021-12-17 16:42:36.375000
849,-107.25,2021-12-17 16:42:36.390625
850,-113.21,2021-12-17 16:42:36.406250
851,-117.07,2021-12-17 16:42:36.421875
852,-118.12,2021-12-17 16:42:36.437500
853,-115.95,2021-12-17 16:42:36.453125
854,-110.73,2021-12-17 16:42:36.468750
855,-103.19,2021-12-17 16:42:36.484375
856,-94.36,2021-12-17 16:42:36.500000
857,-85.42,2021-12-17 16:42:36.515625
858,-77.51,2021-12-17 16:42:36.531250
859,-71.87,2021-12-17 16:42:36.546875
860,-69.83,2021-12-17 16:42:36.562500
861,-72.6,2021-12-17 16:42:36.578125
862,-80.34,2021-12-17 16:42:36.593750
863,-91.39,2021-12-17 16:42:36.609375
864,-101.88,2021-12-17 16:42:36.625000
865,-106.42,2021-12-17 16:42:36.640625
866,-99.93,2021-12-17 16:42:36.656250
867,-79.58,2021-12-17 16:42:36.671875
868,-46.18,2021-12-17 16:42:36.687500
869,-4.06,2021-12-17 16:42:36.703125
870,40.55,2021-12-17 16:42:36.718750
871,81.75,2021-12-17 16:42:36.734375
872,115.82,2021-12-17 16:42:36.750000
873,141.93,2021-12-17 16:42:36.765625
874,161.51,2021-12-17 16:42:36.781250
875,176.96,2021-12-17 16:42:36.796875
876,190.52,2021-12-17 16:42:36.812500
877,203.59,2021-12-17 16:42:36.828125
878,216.59,2021-12-17 16:42:36.843750
879,229.06,2021-12-17 16:42:36.859375
880,240.01,2021-12-17 16:42:36.875000
881,248.12,2021-12-17 16:42:36.890625
882,251.98,2021-12-17 16:42:36.906250
883,250.44,2021-12-17 16:42:36.921875
884,242.65,2021-12-17 16:42:36.937500
885,228.39,2021-12-17 16:42:36.953125
886,208.02,2021-12-17 16:42:36.968750
887,182.6,2021-12-17 16:42:36.984375
888,153.78,2021-12-17 16:42:37.000000
889,123.58,2021-12-17 16:42:37.015625
890,94.35,2021-12-17 16:42:37.031250
891,68.35,2021-12-17 16:42:37.046875
892,47.42,2021-12-17 16:42:37.062500
893,32.44,2021-12-17 16:42:37.078125
894,23.16,2021-12-17 16:42:37.093750
895,18.12,2021-12-17 16:42:37.109375
896,15.12,2021-12-17 16:42:37.125000
897,11.87,2021-12-17 16:42:37.140625
898,6.58,2021-12-17 16:42:37.156250
899,-1.6,2021-12-17 16:42:37.171875
900,-12.34,2021-12-17 16:42:37.187500
901,-24.28,2021-12-17 16:42:37.203125
902,-35.43,2021-12-17 16:42:37.218750
903,-43.8,2021-12-17 16:42:37.234375
904,-48.21,2021-12-17 16:42:37.250000
905,-48.75,2021-12-17 16:42:37.265625
906,-46.66,2021-12-17 16:42:37.281250
907,-43.86,2021-12-17 16:42:37.296875
908,-41.95,2021-12-17 16:42:37.312500
909,-41.5,2021-12-17 16:42:37.328125
910,-41.75,2021-12-17 16:42:37.343750
911,-40.87,2021-12-17 16:42:37.359375
912,-36.75,2021-12-17 16:42:37.375000
913,-27.81,2021-12-17 16:42:37.390625
914,-13.62,2021-12-17 16:42:37.406250
915,4.97,2021-12-17 16:42:37.421875
916,25.94,2021-12-17 16:42:37.437500
917,46.69,2021-12-17 16:42:37.453125
918,64.46,2021-12-17 16:42:37.468750
919,77.02,2021-12-17 16:42:37.484375
920,83.05,2021-12-17 16:42:37.500000
921,82.32,2021-12-17 16:42:37.515625
922,75.66,2021-12-17 16:42:37.531250
923,64.6,2021-12-17 16:42:37.546875
924,51.15,2021-12-17 16:42:37.562500
925,37.25,2021-12-17 16:42:37.578125
926,24.71,2021-12-17 16:42:37.593750
927,14.86,2021-12-17 16:42:37.609375
928,8.57,2021-12-17 16:42:37.625000
929,6.18,2021-12-17 16:42:37.640625
930,7.51,2021-12-17 16:42:37.656250
931,11.94,2021-12-17 16:42:37.671875
932,18.47,2021-12-17 16:42:37.687500
933,26.05,2021-12-17 16:42:37.703125
934,33.6,2021-12-17 16:42:37.718750
935,40.31,2021-12-17 16:42:37.734375
936,45.66,2021-12-17 16:42:37.750000
937,49.34,2021-12-17 16:42:37.765625
938,51.23,2021-12-17 16:42:37.781250
939,51.13,2021-12-17 16:42:37.796875
940,48.77,2021-12-17 16:42:37.812500
941,43.95,2021-12-17 16:42:37.828125
942,36.69,2021-12-17 16:42:37.843750
943,27.44,2021-12-17 16:42:37.859375
944,17.02,2021-12-17 16:42:37.875000
945,6.47,2021-12-17 16:42:37.890625
946,-3.4,2021-12-17 16:42:37.906250
947,-12.21,2021-12-17 16:42:37.921875
948,-20.04,2021-12-17 16:42:37.937500
949,-27.14,2021-12-17 16:42:37.953125
950,-33.69,2021-12-17 16:42:37.968750
951,-39.53,2021-12-17 16:42:37.984375
952,-44.36,2021-12-17 16:42:38.000000
953,-47.89,2021-12-17 16:42:38.015625
954,-50.1,2021-12-17 16:42:38.031250
955,-51.34,2021-12-17 16:42:38.046875
956,-52.21,2021-12-17 16:42:38.062500
957,-53.41,2021-12-17 16:42:38.078125
958,-55.4,2021-12-17 16:42:38.093750
959,-58.29,2021-12-17 16:42:38.109375
960,-61.75,2021-12-17 16:42:38.125000
961,-65.13,2021-12-17 16:42:38.140625
962,-67.81,2021-12-17 16:42:38.156250
963,-69.45,2021-12-17 16:42:38.171875
964,-70.17,2021-12-17 16:42:38.187500
965,-70.23,2021-12-17 16:42:38.203125
966,-69.73,2021-12-17 16:42:38.218750
967,-68.3,2021-12-17 16:42:38.234375
968,-65.12,2021-12-17 16:42:38.250000
969,-59.5,2021-12-17 16:42:38.265625
970,-51.4,2021-12-17 16:42:38.281250
971,-41.82,2021-12-17 16:42:38.296875
972,-32.45,2021-12-17 16:42:38.312500
973,-25.01,2021-12-17 16:42:38.328125
974,-20.42,2021-12-17 16:42:38.343750
975,-18.41,2021-12-17 16:42:38.359375
976,-17.73,2021-12-17 16:42:38.375000
977,-16.9,2021-12-17 16:42:38.390625
978,-14.93,2021-12-17 16:42:38.406250
979,-11.68,2021-12-17 16:42:38.421875
980,-7.77,2021-12-17 16:42:38.437500
981,-4.12,2021-12-17 16:42:38.453125
982,-1.43,2021-12-17 16:42:38.468750
983,0.03,2021-12-17 16:42:38.484375
984,0.5,2021-12-17 16:42:38.500000
985,0.44,2021-12-17 16:42:38.515625
986,0.29,2021-12-17 16:42:38.531250
987,0.26,2021-12-17 16:42:38.546875
988,0.34,2021-12-17 16:42:38.562500
989,0.31,2021-12-17 16:42:38.578125
990,-0.05,2021-12-17 16:42:38.593750
991,-0.76,2021-12-17 16:42:38.609375
992,-1.71,2021-12-17 16:42:38.625000
993,-2.63,2021-12-17 16:42:38.640625
994,-3.26,2021-12-17 16:42:38.656250
995,-3.31,2021-12-17 16:42:38.671875
996,-2.63,2021-12-17 16:42:38.687500
997,-1.08,2021-12-17 16:42:38.703125
998,1.29,2021-12-17 16:42:38.718750
999,4.18,2021-12-17 16:42:38.734375
1000,7.09,2021-12-17 16:42:38.750000
1001,9.36,2021-12-17 16:42:38.765625
1002,10.46,2021-12-17 16:42:38.781250
1003,10.22,2021-12-17 16:42:38.796875
1004,8.9,2021-12-17 16:42:38.812500
1005,7.04,2021-12-17 16:42:38.828125
1006,5.25,2021-12-17 16:42:38.843750
1007,3.91,2021-12-17 16:42:38.859375
1008,3.0,2021-12-17 16:42:38.875000
1009,2.22,2021-12-17 16:42:38.890625
1010,1.0,2021-12-17 16:42:38.906250
1011,-1.32,2021-12-17 16:42:38.921875
1012,-5.27,2021-12-17 16:42:38.937500
1013,-11.02,2021-12-17 16:42:38.953125
1014,-18.02,2021-12-17 16:42:38.968750
1015,-24.9,2021-12-17 16:42:38.984375
1016,-29.67,2021-12-17 16:42:39.000000
1017,-30.31,2021-12-17 16:42:39.015625
1018,-25.69,2021-12-17 16:42:39.031250
1019,-16.19,2021-12-17 16:42:39.046875
1020,-3.77,2021-12-17 16:42:39.062500
1021,8.7,2021-12-17 16:42:39.078125
1022,18.47,2021-12-17 16:42:39.093750
1023,23.93,2021-12-17 16:42:39.109375
1024,25.05,2021-12-17 16:42:39.125000
1025,23.09,2021-12-17 16:42:39.140625
1026,19.86,2021-12-17 16:42:39.156250
1027,16.89,2021-12-17 16:42:39.171875
1028,14.94,2021-12-17 16:42:39.187500
1029,14.04,2021-12-17 16:42:39.203125
1030,13.84,2021-12-17 16:42:39.218750
1031,14.01,2021-12-17 16:42:39.234375
1032,14.43,2021-12-17 16:42:39.250000
1033,15.14,2021-12-17 16:42:39.265625
1034,16.1,2021-12-17 16:42:39.281250
1035,17.1,2021-12-17 16:42:39.296875
1036,17.65,2021-12-17 16:42:39.312500
1037,17.16,2021-12-17 16:42:39.328125
1038,15.26,2021-12-17 16:42:39.343750
1039,11.99,2021-12-17 16:42:39.359375
1040,7.8,2021-12-17 16:42:39.375000
1041,3.45,2021-12-17 16:42:39.390625
1042,-0.35,2021-12-17 16:42:39.406250
1043,-3.15,2021-12-17 16:42:39.421875
1044,-4.91,2021-12-17 16:42:39.437500
1045,-5.91,2021-12-17 16:42:39.453125
1046,-6.54,2021-12-17 16:42:39.468750
1047,-7.12,2021-12-17 16:42:39.484375
1048,-7.8,2021-12-17 16:42:39.500000
1049,-8.57,2021-12-17 16:42:39.515625
1050,-9.31,2021-12-17 16:42:39.531250
1051,-9.95,2021-12-17 16:42:39.546875
1052,-10.54,2021-12-17 16:42:39.562500
1053,-11.17,2021-12-17 16:42:39.578125
1054,-11.97,2021-12-17 16:42:39.593750
1055,-13.04,2021-12-17 16:42:39.609375
1056,-14.39,2021-12-17 16:42:39.625000
1057,-15.93,2021-12-17 16:42:39.640625
1058,-17.47,2021-12-17 16:42:39.656250
1059,-18.77,2021-12-17 16:42:39.671875
1060,-19.7,2021-12-17 16:42:39.687500
1061,-20.3,2021-12-17 16:42:39.703125
1062,-20.91,2021-12-17 16:42:39.718750
1063,-22.21,2021-12-17 16:42:39.734375
1064,-24.89,2021-12-17 16:42:39.750000
1065,-29.28,2021-12-17 16:42:39.765625
1066,-34.92,2021-12-17 16:42:39.781250
1067,-40.3,2021-12-17 16:42:39.796875
1068,-43.22,2021-12-17 16:42:39.812500
1069,-41.5,2021-12-17 16:42:39.828125
1070,-33.87,2021-12-17 16:42:39.843750
1071,-20.62,2021-12-17 16:42:39.859375
1072,-3.66,2021-12-17 16:42:39.875000
1073,14.1,2021-12-17 16:42:39.890625
1074,29.71,2021-12-17 16:42:39.906250
1075,41.04,2021-12-17 16:42:39.921875
1076,47.3,2021-12-17 16:42:39.937500
1077,48.94,2021-12-17 16:42:39.953125
1078,47.06,2021-12-17 16:42:39.968750
1079,42.95,2021-12-17 16:42:39.984375
1080,37.74,2021-12-17 16:42:40.000000
1081,32.26,2021-12-17 16:42:40.015625
1082,27.21,2021-12-17 16:42:40.031250
1083,23.26,2021-12-17 16:42:40.046875
1084,20.94,2021-12-17 16:42:40.062500
1085,20.51,2021-12-17 16:42:40.078125
1086,21.81,2021-12-17 16:42:40.093750
1087,24.24,2021-12-17 16:42:40.109375
1088,26.91,2021-12-17 16:42:40.125000
1089,29.01,2021-12-17 16:42:40.140625
1090,30.01,2021-12-17 16:42:40.156250
1091,29.81,2021-12-17 16:42:40.171875
1092,28.5,2021-12-17 16:42:40.187500
1093,26.19,2021-12-17 16:42:40.203125
1094,22.79,2021-12-17 16:42:40.218750
1095,18.05,2021-12-17 16:42:40.234375
1096,11.72,2021-12-17 16:42:40.250000
1097,3.83,2021-12-17 16:42:40.265625
1098,-5.19,2021-12-17 16:42:40.281250
1099,-14.48,2021-12-17 16:42:40.296875
1100,-22.91,2021-12-17 16:42:40.312500
1101,-29.56,2021-12-17 16:42:40.328125
1102,-33.8,2021-12-17 16:42:40.343750
1103,-35.48,2021-12-17 16:42:40.359375
1104,-34.87,2021-12-17 16:42:40.375000
1105,-32.44,2021-12-17 16:42:40.390625
1106,-28.68,2021-12-17 16:42:40.406250
1107,-24.1,2021-12-17 16:42:40.421875
1108,-19.24,2021-12-17 16:42:40.437500
1109,-14.7,2021-12-17 16:42:40.453125
1110,-11.17,2021-12-17 16:42:40.468750
1111,-9.31,2021-12-17 16:42:40.484375
1112,-9.49,2021-12-17 16:42:40.500000
1113,-11.66,2021-12-17 16:42:40.515625
1114,-15.16,2021-12-17 16:42:40.531250
1115,-18.89,2021-12-17 16:42:40.546875
1116,-21.66,2021-12-17 16:42:40.562500
1117,-22.7,2021-12-17 16:42:40.578125
1118,-22.03,2021-12-17 16:42:40.593750
1119,-20.42,2021-12-17 16:42:40.609375
1120,-18.99,2021-12-17 16:42:40.625000
1121,-18.82,2021-12-17 16:42:40.640625
1122,-20.44,2021-12-17 16:42:40.656250
1123,-23.76,2021-12-17 16:42:40.671875
1124,-28.28,2021-12-17 16:42:40.687500
1125,-33.22,2021-12-17 16:42:40.703125
1126,-37.71,2021-12-17 16:42:40.718750
1127,-40.7,2021-12-17 16:42:40.734375
1128,-40.92,2021-12-17 16:42:40.750000
1129,-37.04,2021-12-17 16:42:40.765625
1130,-28.21,2021-12-17 16:42:40.781250
1131,-14.77,2021-12-17 16:42:40.796875
1132,1.66,2021-12-17 16:42:40.812500
1133,18.35,2021-12-17 16:42:40.828125
1134,32.43,2021-12-17 16:42:40.843750
1135,41.88,2021-12-17 16:42:40.859375
1136,46.1,2021-12-17 16:42:40.875000
1137,45.87,2021-12-17 16:42:40.890625
1138,42.76,2021-12-17 16:42:40.906250
1139,38.37,2021-12-17 16:42:40.921875
1140,33.79,2021-12-17 16:42:40.937500
1141,29.54,2021-12-17 16:42:40.953125
1142,25.85,2021-12-17 16:42:40.968750
1143,22.84,2021-12-17 16:42:40.984375
1144,20.84,2021-12-17 16:42:41.000000
1145,20.23,2021-12-17 16:42:41.015625
1146,21.2,2021-12-17 16:42:41.031250
1147,23.52,2021-12-17 16:42:41.046875
1148,26.5,2021-12-17 16:42:41.062500
1149,29.0,2021-12-17 16:42:41.078125
1150,29.78,2021-12-17 16:42:41.093750
1151,27.84,2021-12-17 16:42:41.109375
1152,22.84,2021-12-17 16:42:41.125000
1153,15.3,2021-12-17 16:42:41.140625
1154,6.51,2021-12-17 16:42:41.156250
1155,-1.9,2021-12-17 16:42:41.171875
1156,-8.59,2021-12-17 16:42:41.187500
1157,-12.88,2021-12-17 16:42:41.203125
1158,-14.88,2021-12-17 16:42:41.218750
1159,-15.24,2021-12-17 16:42:41.234375
1160,-14.76,2021-12-17 16:42:41.250000
1161,-14.02,2021-12-17 16:42:41.265625
1162,-13.11,2021-12-17 16:42:41.281250
1163,-11.89,2021-12-17 16:42:41.296875
1164,-10.17,2021-12-17 16:42:41.312500
1165,-8.03,2021-12-17 16:42:41.328125
1166,-5.85,2021-12-17 16:42:41.343750
1167,-4.17,2021-12-17 16:42:41.359375
1168,-3.32,2021-12-17 16:42:41.375000
1169,-3.24,2021-12-17 16:42:41.390625
1170,-3.52,2021-12-17 16:42:41.406250
1171,-3.48,2021-12-17 16:42:41.421875
1172,-2.55,2021-12-17 16:42:41.437500
1173,-0.59,2021-12-17 16:42:41.453125
1174,2.01,2021-12-17 16:42:41.468750
1175,4.31,2021-12-17 16:42:41.484375
1176,5.09,2021-12-17 16:42:41.500000
1177,3.25,2021-12-17 16:42:41.515625
1178,-1.63,2021-12-17 16:42:41.531250
1179,-9.18,2021-12-17 16:42:41.546875
1180,-18.14,2021-12-17 16:42:41.562500
1181,-26.94,2021-12-17 16:42:41.578125
1182,-34.2,2021-12-17 16:42:41.593750
1183,-39.19,2021-12-17 16:42:41.609375
1184,-41.95,2021-12-17 16:42:41.625000
1185,-43.08,2021-12-17 16:42:41.640625
1186,-43.33,2021-12-17 16:42:41.656250
1187,-43.27,2021-12-17 16:42:41.671875
1188,-43.26,2021-12-17 16:42:41.687500
1189,-43.4,2021-12-17 16:42:41.703125
1190,-43.59,2021-12-17 16:42:41.718750
1191,-43.48,2021-12-17 16:42:41.734375
1192,-42.32,2021-12-17 16:42:41.750000
1193,-39.17,2021-12-17 16:42:41.765625
1194,-33.08,2021-12-17 16:42:41.781250
1195,-23.74,2021-12-17 16:42:41.796875
1196,-11.74,2021-12-17 16:42:41.812500
1197,1.31,2021-12-17 16:42:41.828125
1198,13.34,2021-12-17 16:42:41.843750
1199,22.4,2021-12-17 16:42:41.859375
1200,27.4,2021-12-17 16:42:41.875000
1201,28.43,2021-12-17 16:42:41.890625
1202,26.44,2021-12-17 16:42:41.906250
1203,22.83,2021-12-17 16:42:41.921875
1204,18.78,2021-12-17 16:42:41.937500
1205,15.01,2021-12-17 16:42:41.953125
1206,11.73,2021-12-17 16:42:41.968750
1207,8.83,2021-12-17 16:42:41.984375
1208,6.04,2021-12-17 16:42:42.000000
1209,3.12,2021-12-17 16:42:42.015625
1210,-0.13,2021-12-17 16:42:42.031250
1211,-3.87,2021-12-17 16:42:42.046875
1212,-8.17,2021-12-17 16:42:42.062500
1213,-12.82,2021-12-17 16:42:42.078125
1214,-17.2,2021-12-17 16:42:42.093750
1215,-20.23,2021-12-17 16:42:42.109375
1216,-20.82,2021-12-17 16:42:42.125000
1217,-18.3,2021-12-17 16:42:42.140625
1218,-13.01,2021-12-17 16:42:42.156250
1219,-6.29,2021-12-17 16:42:42.171875
1220,-0.07,2021-12-17 16:42:42.187500
1221,4.06,2021-12-17 16:42:42.203125
1222,5.58,2021-12-17 16:42:42.218750
1223,5.26,2021-12-17 16:42:42.234375
1224,4.78,2021-12-17 16:42:42.250000
1225,5.77,2021-12-17 16:42:42.265625
1226,9.03,2021-12-17 16:42:42.281250
1227,14.23,2021-12-17 16:42:42.296875
1228,20.3,2021-12-17 16:42:42.312500
1229,26.28,2021-12-17 16:42:42.328125
1230,31.82,2021-12-17 16:42:42.343750
1231,37.28,2021-12-17 16:42:42.359375
1232,43.15,2021-12-17 16:42:42.375000
1233,49.37,2021-12-17 16:42:42.390625
1234,55.1,2021-12-17 16:42:42.406250
1235,58.97,2021-12-17 16:42:42.421875
1236,59.73,2021-12-17 16:42:42.437500
1237,56.86,2021-12-17 16:42:42.453125
1238,50.66,2021-12-17 16:42:42.468750
1239,41.98,2021-12-17 16:42:42.484375
1240,31.63,2021-12-17 16:42:42.500000
1241,20.18,2021-12-17 16:42:42.515625
1242,7.91,2021-12-17 16:42:42.531250
1243,-4.74,2021-12-17 16:42:42.546875
1244,-17.14,2021-12-17 16:42:42.562500
1245,-28.35,2021-12-17 16:42:42.578125
1246,-37.54,2021-12-17 16:42:42.593750
1247,-44.18,2021-12-17 16:42:42.609375
1248,-48.2,2021-12-17 16:42:42.625000
1249,-49.9,2021-12-17 16:42:42.640625
1250,-49.67,2021-12-17 16:42:42.656250
1251,-47.96,2021-12-17 16:42:42.671875
1252,-45.3,2021-12-17 16:42:42.687500
1253,-42.48,2021-12-17 16:42:42.703125
1254,-40.35,2021-12-17 16:42:42.718750
1255,-39.56,2021-12-17 16:42:42.734375
1256,-40.09,2021-12-17 16:42:42.750000
1257,-40.99,2021-12-17 16:42:42.765625
1258,-40.53,2021-12-17 16:42:42.781250
1259,-36.82,2021-12-17 16:42:42.796875
1260,-28.68,2021-12-17 16:42:42.812500
1261,-16.26,2021-12-17 16:42:42.828125
1262,-1.18,2021-12-17 16:42:42.843750
1263,14.13,2021-12-17 16:42:42.859375
1264,27.25,2021-12-17 16:42:42.875000
1265,36.6,2021-12-17 16:42:42.890625
1266,41.89,2021-12-17 16:42:42.906250
1267,43.84,2021-12-17 16:42:42.921875
1268,43.73,2021-12-17 16:42:42.937500
1269,42.75,2021-12-17 16:42:42.953125
1270,41.78,2021-12-17 16:42:42.968750
1271,41.21,2021-12-17 16:42:42.984375
1272,41.14,2021-12-17 16:42:43.000000
1273,41.45,2021-12-17 16:42:43.015625
1274,41.89,2021-12-17 16:42:43.031250
1275,42.13,2021-12-17 16:42:43.046875
1276,41.71,2021-12-17 16:42:43.062500
1277,40.13,2021-12-17 16:42:43.078125
1278,36.95,2021-12-17 16:42:43.093750
1279,31.93,2021-12-17 16:42:43.109375
1280,25.09,2021-12-17 16:42:43.125000
1281,16.76,2021-12-17 16:42:43.140625
1282,7.55,2021-12-17 16:42:43.156250
1283,-1.78,2021-12-17 16:42:43.171875
1284,-10.34,2021-12-17 16:42:43.187500
1285,-17.28,2021-12-17 16:42:43.203125
1286,-21.94,2021-12-17 16:42:43.218750
1287,-23.93,2021-12-17 16:42:43.234375
1288,-23.31,2021-12-17 16:42:43.250000
1289,-20.55,2021-12-17 16:42:43.265625
1290,-16.39,2021-12-17 16:42:43.281250
1291,-11.75,2021-12-17 16:42:43.296875
1292,-7.41,2021-12-17 16:42:43.312500
1293,-3.91,2021-12-17 16:42:43.328125
1294,-1.5,2021-12-17 16:42:43.343750
1295,-0.24,2021-12-17 16:42:43.359375
1296,-0.04,2021-12-17 16:42:43.375000
1297,-0.84,2021-12-17 16:42:43.390625
1298,-2.49,2021-12-17 16:42:43.406250
1299,-4.65,2021-12-17 16:42:43.421875
1300,-6.88,2021-12-17 16:42:43.437500
1301,-8.6,2021-12-17 16:42:43.453125
1302,-9.43,2021-12-17 16:42:43.468750
1303,-9.35,2021-12-17 16:42:43.484375
1304,-8.89,2021-12-17 16:42:43.500000
1305,-8.92,2021-12-17 16:42:43.515625
1306,-10.37,2021-12-17 16:42:43.531250
1307,-13.82,2021-12-17 16:42:43.546875
1308,-19.1,2021-12-17 16:42:43.562500
1309,-25.3,2021-12-17 16:42:43.578125
1310,-31.08,2021-12-17 16:42:43.593750
1311,-35.16,2021-12-17 16:42:43.609375
1312,-36.76,2021-12-17 16:42:43.625000
1313,-35.97,2021-12-17 16:42:43.640625
1314,-33.55,2021-12-17 16:42:43.656250
1315,-30.76,2021-12-17 16:42:43.671875
1316,-28.9,2021-12-17 16:42:43.687500
1317,-28.82,2021-12-17 16:42:43.703125
1318,-30.6,2021-12-17 16:42:43.718750
1319,-33.29,2021-12-17 16:42:43.734375
1320,-35.17,2021-12-17 16:42:43.750000
1321,-34.08,2021-12-17 16:42:43.765625
1322,-28.24,2021-12-17 16:42:43.781250
1323,-17.03,2021-12-17 16:42:43.796875
1324,-1.47,2021-12-17 16:42:43.812500
1325,15.86,2021-12-17 16:42:43.828125
1326,31.74,2021-12-17 16:42:43.843750
1327,43.38,2021-12-17 16:42:43.859375
1328,49.48,2021-12-17 16:42:43.875000
1329,50.38,2021-12-17 16:42:43.890625
1330,47.65,2021-12-17 16:42:43.906250
1331,43.26,2021-12-17 16:42:43.921875
1332,38.61,2021-12-17 16:42:43.937500
1333,34.26,2021-12-17 16:42:43.953125
1334,29.96,2021-12-17 16:42:43.968750
1335,25.21,2021-12-17 16:42:43.984375
1336,19.76,2021-12-17 16:42:44.000000
1337,13.84,2021-12-17 16:42:44.015625
1338,8.14,2021-12-17 16:42:44.031250
1339,3.47,2021-12-17 16:42:44.046875
1340,0.42,2021-12-17 16:42:44.062500
1341,-0.89,2021-12-17 16:42:44.078125
1342,-0.81,2021-12-17 16:42:44.093750
1343,-0.06,2021-12-17 16:42:44.109375
1344,0.6,2021-12-17 16:42:44.125000
1345,0.58,2021-12-17 16:42:44.140625
1346,-0.46,2021-12-17 16:42:44.156250
1347,-2.52,2021-12-17 16:42:44.171875
1348,-5.41,2021-12-17 16:42:44.187500
1349,-8.73,2021-12-17 16:42:44.203125
1350,-12.05,2021-12-17 16:42:44.218750
1351,-14.9,2021-12-17 16:42:44.234375
1352,-16.93,2021-12-17 16:42:44.250000
1353,-18.03,2021-12-17 16:42:44.265625
1354,-18.26,2021-12-17 16:42:44.281250
1355,-17.84,2021-12-17 16:42:44.296875
1356,-17.0,2021-12-17 16:42:44.312500
1357,-15.92,2021-12-17 16:42:44.328125
1358,-14.65,2021-12-17 16:42:44.343750
1359,-13.05,2021-12-17 16:42:44.359375
1360,-10.84,2021-12-17 16:42:44.375000
1361,-7.62,2021-12-17 16:42:44.390625
1362,-3.11,2021-12-17 16:42:44.406250
1363,2.8,2021-12-17 16:42:44.421875
1364,9.9,2021-12-17 16:42:44.437500
1365,17.63,2021-12-17 16:42:44.453125
1366,25.16,2021-12-17 16:42:44.468750
1367,31.5,2021-12-17 16:42:44.484375
1368,35.81,2021-12-17 16:42:44.500000
1369,37.41,2021-12-17 16:42:44.515625
1370,35.93,2021-12-17 16:42:44.531250
1371,31.27,2021-12-17 16:42:44.546875
1372,23.69,2021-12-17 16:42:44.562500
1373,13.88,2021-12-17 16:42:44.578125
1374,2.96,2021-12-17 16:42:44.593750
1375,-7.66,2021-12-17 16:42:44.609375
1376,-16.58,2021-12-17 16:42:44.625000
1377,-22.69,2021-12-17 16:42:44.640625
1378,-25.56,2021-12-17 16:42:44.656250
1379,-25.5,2021-12-17 16:42:44.671875
1380,-23.5,2021-12-17 16:42:44.687500
1381,-20.91,2021-12-17 16:42:44.703125
1382,-19.1,2021-12-17 16:42:44.718750
1383,-19.0,2021-12-17 16:42:44.734375
1384,-20.72,2021-12-17 16:42:44.750000
1385,-23.54,2021-12-17 16:42:44.765625
1386,-26.13,2021-12-17 16:42:44.781250
1387,-27.08,2021-12-17 16:42:44.796875
1388,-25.54,2021-12-17 16:42:44.812500
1389,-21.64,2021-12-17 16:42:44.828125
1390,-16.41,2021-12-17 16:42:44.843750
1391,-11.33,2021-12-17 16:42:44.859375
1392,-7.68,2021-12-17 16:42:44.875000
1393,-5.94,2021-12-17 16:42:44.890625
1394,-5.81,2021-12-17 16:42:44.906250
1395,-6.57,2021-12-17 16:42:44.921875
1396,-7.57,2021-12-17 16:42:44.937500
1397,-8.8,2021-12-17 16:42:44.953125
1398,-10.78,2021-12-17 16:42:44.968750
1399,-14.39,2021-12-17 16:42:44.984375
1400,-20.25,2021-12-17 16:42:45.000000
1401,-28.23,2021-12-17 16:42:45.015625
1402,-37.3,2021-12-17 16:42:45.031250
1403,-45.74,2021-12-17 16:42:45.046875
1404,-51.6,2021-12-17 16:42:45.062500
1405,-53.39,2021-12-17 16:42:45.078125
1406,-50.6,2021-12-17 16:42:45.093750
1407,-44.02,2021-12-17 16:42:45.109375
1408,-35.5,2021-12-17 16:42:45.125000
1409,-27.27,2021-12-17 16:42:45.140625
1410,-21.1,2021-12-17 16:42:45.156250
1411,-17.79,2021-12-17 16:42:45.171875
1412,-16.94,2021-12-17 16:42:45.187500
1413,-17.43,2021-12-17 16:42:45.203125
1414,-18.08,2021-12-17 16:42:45.218750
1415,-18.33,2021-12-17 16:42:45.234375
1416,-18.34,2021-12-17 16:42:45.250000
1417,-18.69,2021-12-17 16:42:45.265625
1418,-19.82,2021-12-17 16:42:45.281250
1419,-21.77,2021-12-17 16:42:45.296875
1420,-24.27,2021-12-17 16:42:45.312500
1421,-27.05,2021-12-17 16:42:45.328125
1422,-30.14,2021-12-17 16:42:45.343750
1423,-33.72,2021-12-17 16:42:45.359375
1424,-37.72,2021-12-17 16:42:45.375000
1425,-41.46,2021-12-17 16:42:45.390625
1426,-43.61,2021-12-17 16:42:45.406250
1427,-42.72,2021-12-17 16:42:45.421875
1428,-38.0,2021-12-17 16:42:45.437500
1429,-29.86,2021-12-17 16:42:45.453125
1430,-19.74,2021-12-17 16:42:45.468750
1431,-9.51,2021-12-17 16:42:45.484375
1432,-0.66,2021-12-17 16:42:45.500000
1433,6.29,2021-12-17 16:42:45.515625
1434,11.61,2021-12-17 16:42:45.531250
1435,15.79,2021-12-17 16:42:45.546875
1436,18.98,2021-12-17 16:42:45.562500
1437,20.64,2021-12-17 16:42:45.578125
1438,19.87,2021-12-17 16:42:45.593750
1439,16.08,2021-12-17 16:42:45.609375
1440,9.69,2021-12-17 16:42:45.625000
1441,2.39,2021-12-17 16:42:45.640625
1442,-2.94,2021-12-17 16:42:45.656250
1443,-3.13,2021-12-17 16:42:45.671875
1444,4.36,2021-12-17 16:42:45.687500
1445,20.55,2021-12-17 16:42:45.703125
1446,44.6,2021-12-17 16:42:45.718750
1447,74.11,2021-12-17 16:42:45.734375
1448,105.9,2021-12-17 16:42:45.750000
1449,136.8,2021-12-17 16:42:45.765625
1450,164.24,2021-12-17 16:42:45.781250
1451,186.26,2021-12-17 16:42:45.796875
1452,201.27,2021-12-17 16:42:45.812500
1453,208.01,2021-12-17 16:42:45.828125
1454,205.66,2021-12-17 16:42:45.843750
1455,194.42,2021-12-17 16:42:45.859375
1456,175.88,2021-12-17 16:42:45.875000
1457,152.93,2021-12-17 16:42:45.890625
1458,129.07,2021-12-17 16:42:45.906250
1459,107.33,2021-12-17 16:42:45.921875
1460,89.46,2021-12-17 16:42:45.937500
1461,75.58,2021-12-17 16:42:45.953125
1462,64.65,2021-12-17 16:42:45.968750
1463,55.23,2021-12-17 16:42:45.984375
1464,46.24,2021-12-17 16:42:46.000000
1465,37.42,2021-12-17 16:42:46.015625
1466,29.09,2021-12-17 16:42:46.031250
1467,21.73,2021-12-17 16:42:46.046875
1468,15.64,2021-12-17 16:42:46.062500
1469,10.7,2021-12-17 16:42:46.078125
1470,6.6,2021-12-17 16:42:46.093750
1471,2.98,2021-12-17 16:42:46.109375
1472,-0.34,2021-12-17 16:42:46.125000
1473,-3.36,2021-12-17 16:42:46.140625
1474,-5.95,2021-12-17 16:42:46.156250
1475,-8.0,2021-12-17 16:42:46.171875
1476,-9.47,2021-12-17 16:42:46.187500
1477,-10.4,2021-12-17 16:42:46.203125
1478,-10.82,2021-12-17 16:42:46.218750
1479,-10.8,2021-12-17 16:42:46.234375
1480,-10.5,2021-12-17 16:42:46.250000
1481,-10.18,2021-12-17 16:42:46.265625
1482,-10.08,2021-12-17 16:42:46.281250
1483,-10.43,2021-12-17 16:42:46.296875
1484,-11.33,2021-12-17 16:42:46.312500
1485,-12.74,2021-12-17 16:42:46.328125
1486,-14.62,2021-12-17 16:42:46.343750
1487,-16.88,2021-12-17 16:42:46.359375
1488,-19.44,2021-12-17 16:42:46.375000
1489,-22.19,2021-12-17 16:42:46.390625
1490,-24.87,2021-12-17 16:42:46.406250
1491,-27.12,2021-12-17 16:42:46.421875
1492,-28.6,2021-12-17 16:42:46.437500
1493,-29.19,2021-12-17 16:42:46.453125
1494,-29.05,2021-12-17 16:42:46.468750
1495,-28.68,2021-12-17 16:42:46.484375
1496,-28.52,2021-12-17 16:42:46.500000
1497,-28.89,2021-12-17 16:42:46.515625
1498,-29.76,2021-12-17 16:42:46.531250
1499,-30.85,2021-12-17 16:42:46.546875
1500,-31.81,2021-12-17 16:42:46.562500
1501,-32.38,2021-12-17 16:42:46.578125
1502,-32.48,2021-12-17 16:42:46.593750
1503,-32.3,2021-12-17 16:42:46.609375
1504,-32.16,2021-12-17 16:42:46.625000
1505,-32.39,2021-12-17 16:42:46.640625
1506,-33.3,2021-12-17 16:42:46.656250
1507,-35.03,2021-12-17 16:42:46.671875
1508,-37.37,2021-12-17 16:42:46.687500
1509,-39.87,2021-12-17 16:42:46.703125
1510,-41.86,2021-12-17 16:42:46.718750
1511,-42.6,2021-12-17 16:42:46.734375
1512,-41.67,2021-12-17 16:42:46.750000
1513,-39.13,2021-12-17 16:42:46.765625
1514,-35.59,2021-12-17 16:42:46.781250
1515,-32.06,2021-12-17 16:42:46.796875
1516,-29.67,2021-12-17 16:42:46.812500
1517,-29.26,2021-12-17 16:42:46.828125
1518,-31.05,2021-12-17 16:42:46.843750
1519,-34.44,2021-12-17 16:42:46.859375
1520,-37.97,2021-12-17 16:42:46.875000
1521,-39.76,2021-12-17 16:42:46.890625
1522,-38.06,2021-12-17 16:42:46.906250
1523,-31.96,2021-12-17 16:42:46.921875
1524,-21.77,2021-12-17 16:42:46.937500
1525,-9.1,2021-12-17 16:42:46.953125
1526,3.68,2021-12-17 16:42:46.968750
1527,14.13,2021-12-17 16:42:46.984375
1528,20.69,2021-12-17 16:42:47.000000
1529,23.01,2021-12-17 16:42:47.015625
1530,22.05,2021-12-17 16:42:47.031250
1531,19.46,2021-12-17 16:42:47.046875
1532,16.94,2021-12-17 16:42:47.062500
1533,15.6,2021-12-17 16:42:47.078125
1534,15.84,2021-12-17 16:42:47.093750
1535,17.31,2021-12-17 16:42:47.109375
1536,19.36,2021-12-17 16:42:47.125000
1537,21.4,2021-12-17 16:42:47.140625
1538,23.11,2021-12-17 16:42:47.156250
1539,24.49,2021-12-17 16:42:47.171875
1540,25.67,2021-12-17 16:42:47.187500
1541,26.66,2021-12-17 16:42:47.203125
1542,27.2,2021-12-17 16:42:47.218750
1543,26.92,2021-12-17 16:42:47.234375
1544,25.47,2021-12-17 16:42:47.250000
1545,22.74,2021-12-17 16:42:47.265625
1546,18.97,2021-12-17 16:42:47.281250
1547,14.64,2021-12-17 16:42:47.296875
1548,10.29,2021-12-17 16:42:47.312500
1549,6.34,2021-12-17 16:42:47.328125
1550,3.04,2021-12-17 16:42:47.343750
1551,0.42,2021-12-17 16:42:47.359375
1552,-1.53,2021-12-17 16:42:47.375000
1553,-2.8,2021-12-17 16:42:47.390625
1554,-3.32,2021-12-17 16:42:47.406250
1555,-3.1,2021-12-17 16:42:47.421875
1556,-2.32,2021-12-17 16:42:47.437500
1557,-1.38,2021-12-17 16:42:47.453125
1558,-0.72,2021-12-17 16:42:47.468750
1559,-0.7,2021-12-17 16:42:47.484375
1560,-1.34,2021-12-17 16:42:47.500000
1561,-2.37,2021-12-17 16:42:47.515625
1562,-3.29,2021-12-17 16:42:47.531250
1563,-3.73,2021-12-17 16:42:47.546875
1564,-3.5,2021-12-17 16:42:47.562500
1565,-2.81,2021-12-17 16:42:47.578125
1566,-2.04,2021-12-17 16:42:47.593750
1567,-1.61,2021-12-17 16:42:47.609375
1568,-1.73,2021-12-17 16:42:47.625000
1569,-2.31,2021-12-17 16:42:47.640625
1570,-3.07,2021-12-17 16:42:47.656250
1571,-3.68,2021-12-17 16:42:47.671875
1572,-3.99,2021-12-17 16:42:47.687500
1573,-3.98,2021-12-17 16:42:47.703125
1574,-3.81,2021-12-17 16:42:47.718750
1575,-3.59,2021-12-17 16:42:47.734375
1576,-3.39,2021-12-17 16:42:47.750000
1577,-3.18,2021-12-17 16:42:47.765625
1578,-2.9,2021-12-17 16:42:47.781250
1579,-2.54,2021-12-17 16:42:47.796875
1580,-2.23,2021-12-17 16:42:47.812500
1581,-2.2,2021-12-17 16:42:47.828125
1582,-2.67,2021-12-17 16:42:47.843750
1583,-3.75,2021-12-17 16:42:47.859375
1584,-5.45,2021-12-17 16:42:47.875000
1585,-7.74,2021-12-17 16:42:47.890625
1586,-10.57,2021-12-17 16:42:47.906250
1587,-13.78,2021-12-17 16:42:47.921875
1588,-17.09,2021-12-17 16:42:47.937500
1589,-20.05,2021-12-17 16:42:47.953125
1590,-22.21,2021-12-17 16:42:47.968750
1591,-23.37,2021-12-17 16:42:47.984375
1592,-23.79,2021-12-17 16:42:48.000000
1593,-24.06,2021-12-17 16:42:48.015625
1594,-24.92,2021-12-17 16:42:48.031250
1595,-26.87,2021-12-17 16:42:48.046875
1596,-29.93,2021-12-17 16:42:48.062500
1597,-33.59,2021-12-17 16:42:48.078125
1598,-36.95,2021-12-17 16:42:48.093750
1599,-38.99,2021-12-17 16:42:48.109375
1600,-38.81,2021-12-17 16:42:48.125000
1601,-35.85,2021-12-17 16:42:48.140625
1602,-29.99,2021-12-17 16:42:48.156250
1603,-21.67,2021-12-17 16:42:48.171875
1604,-11.89,2021-12-17 16:42:48.187500
1605,-2.03,2021-12-17 16:42:48.203125
1606,6.46,2021-12-17 16:42:48.218750
1607,12.56,2021-12-17 16:42:48.234375
1608,16.01,2021-12-17 16:42:48.250000
1609,17.34,2021-12-17 16:42:48.265625
1610,17.6,2021-12-17 16:42:48.281250
1611,17.88,2021-12-17 16:42:48.296875
1612,18.84,2021-12-17 16:42:48.312500
1613,20.54,2021-12-17 16:42:48.328125
1614,22.59,2021-12-17 16:42:48.343750
1615,24.4,2021-12-17 16:42:48.359375
1616,25.58,2021-12-17 16:42:48.375000
1617,26.09,2021-12-17 16:42:48.390625
1618,26.12,2021-12-17 16:42:48.406250
1619,25.88,2021-12-17 16:42:48.421875
1620,25.44,2021-12-17 16:42:48.437500
1621,24.65,2021-12-17 16:42:48.453125
1622,23.23,2021-12-17 16:42:48.468750
1623,21.08,2021-12-17 16:42:48.484375
1624,18.32,2021-12-17 16:42:48.500000
1625,15.48,2021-12-17 16:42:48.515625
1626,13.17,2021-12-17 16:42:48.531250
1627,11.91,2021-12-17 16:42:48.546875
1628,11.79,2021-12-17 16:42:48.562500
1629,12.53,2021-12-17 16:42:48.578125
1630,13.5,2021-12-17 16:42:48.593750
1631,14.03,2021-12-17 16:42:48.609375
1632,13.74,2021-12-17 16:42:48.625000
1633,12.55,2021-12-17 16:42:48.640625
1634,10.86,2021-12-17 16:42:48.656250
1635,9.28,2021-12-17 16:42:48.671875
1636,8.39,2021-12-17 16:42:48.687500
1637,8.55,2021-12-17 16:42:48.703125
1638,9.67,2021-12-17 16:42:48.718750
1639,11.29,2021-12-17 16:42:48.734375
1640,12.7,2021-12-17 16:42:48.750000
1641,13.18,2021-12-17 16:42:48.765625
1642,12.24,2021-12-17 16:42:48.781250
1643,9.76,2021-12-17 16:42:48.796875
1644,6.07,2021-12-17 16:42:48.812500
1645,1.73,2021-12-17 16:42:48.828125
1646,-2.6,2021-12-17 16:42:48.843750
1647,-6.52,2021-12-17 16:42:48.859375
1648,-9.92,2021-12-17 16:42:48.875000
1649,-12.91,2021-12-17 16:42:48.890625
1650,-15.65,2021-12-17 16:42:48.906250
1651,-18.18,2021-12-17 16:42:48.921875
1652,-20.38,2021-12-17 16:42:48.937500
1653,-22.1,2021-12-17 16:42:48.953125
1654,-23.32,2021-12-17 16:42:48.968750
1655,-24.18,2021-12-17 16:42:48.984375
1656,-24.99,2021-12-17 16:42:49.000000
1657,-25.91,2021-12-17 16:42:49.015625
1658,-26.92,2021-12-17 16:42:49.031250
1659,-27.74,2021-12-17 16:42:49.046875
1660,-28.1,2021-12-17 16:42:49.062500
1661,-28.04,2021-12-17 16:42:49.078125
1662,-27.97,2021-12-17 16:42:49.093750
1663,-28.69,2021-12-17 16:42:49.109375
1664,-30.88,2021-12-17 16:42:49.125000
1665,-34.89,2021-12-17 16:42:49.140625
1666,-40.37,2021-12-17 16:42:49.156250
1667,-46.48,2021-12-17 16:42:49.171875
1668,-52.15,2021-12-17 16:42:49.187500
1669,-56.58,2021-12-17 16:42:49.203125
1670,-59.5,2021-12-17 16:42:49.218750
1671,-61.27,2021-12-17 16:42:49.234375
1672,-62.65,2021-12-17 16:42:49.250000
1673,-64.48,2021-12-17 16:42:49.265625
1674,-67.39,2021-12-17 16:42:49.281250
1675,-71.48,2021-12-17 16:42:49.296875
1676,-76.31,2021-12-17 16:42:49.312500
1677,-80.89,2021-12-17 16:42:49.328125
1678,-83.98,2021-12-17 16:42:49.343750
1679,-84.38,2021-12-17 16:42:49.359375
1680,-81.42,2021-12-17 16:42:49.375000
1681,-75.26,2021-12-17 16:42:49.390625
1682,-67.03,2021-12-17 16:42:49.406250
1683,-58.52,2021-12-17 16:42:49.421875
1684,-51.53,2021-12-17 16:42:49.437500
1685,-47.23,2021-12-17 16:42:49.453125
1686,-45.73,2021-12-17 16:42:49.468750
1687,-46.04,2021-12-17 16:42:49.484375
1688,-46.64,2021-12-17 16:42:49.500000
1689,-46.24,2021-12-17 16:42:49.515625
1690,-44.28,2021-12-17 16:42:49.531250
1691,-41.09,2021-12-17 16:42:49.546875
1692,-37.52,2021-12-17 16:42:49.562500
1693,-34.27,2021-12-17 16:42:49.578125
1694,-31.12,2021-12-17 16:42:49.593750
1695,-26.7,2021-12-17 16:42:49.609375
1696,-18.56,2021-12-17 16:42:49.625000
1697,-3.75,2021-12-17 16:42:49.640625
1698,20.39,2021-12-17 16:42:49.656250
1699,55.22,2021-12-17 16:42:49.671875
1700,99.71,2021-12-17 16:42:49.687500
1701,149.97,2021-12-17 16:42:49.703125
1702,199.62,2021-12-17 16:42:49.718750
1703,241.26,2021-12-17 16:42:49.734375
1704,268.64,2021-12-17 16:42:49.750000
1705,278.6,2021-12-17 16:42:49.765625
1706,271.9,2021-12-17 16:42:49.781250
1707,252.61,2021-12-17 16:42:49.796875
1708,226.4,2021-12-17 16:42:49.812500
1709,198.41,2021-12-17 16:42:49.828125
1710,171.91,2021-12-17 16:42:49.843750
1711,148.11,2021-12-17 16:42:49.859375
1712,126.69,2021-12-17 16:42:49.875000
1713,106.85,2021-12-17 16:42:49.890625
1714,88.04,2021-12-17 16:42:49.906250
1715,70.2,2021-12-17 16:42:49.921875
1716,54.11,2021-12-17 16:42:49.937500
1717,41.51,2021-12-17 16:42:49.953125
1718,35.18,2021-12-17 16:42:49.968750
1719,38.69,2021-12-17 16:42:49.984375
1720,55.76,2021-12-17 16:42:50.000000
1721,89.21,2021-12-17 16:42:50.015625
1722,139.55,2021-12-17 16:42:50.031250
1723,203.78,2021-12-17 16:42:50.046875
1724,274.82,2021-12-17 16:42:50.062500
1725,341.9,2021-12-17 16:42:50.078125
1726,392.78,2021-12-17 16:42:50.093750
1727,417.06,2021-12-17 16:42:50.109375
1728,409.42,2021-12-17 16:42:50.125000
1729,371.61,2021-12-17 16:42:50.140625
1730,311.93,2021-12-17 16:42:50.156250
1731,242.29,2021-12-17 16:42:50.171875
1732,173.93,2021-12-17 16:42:50.187500
1733,114.0,2021-12-17 16:42:50.203125
1734,64.25,2021-12-17 16:42:50.218750
1735,22.21,2021-12-17 16:42:50.234375
1736,-16.1,2021-12-17 16:42:50.250000
1737,-53.67,2021-12-17 16:42:50.265625
1738,-91.37,2021-12-17 16:42:50.281250
1739,-128.65,2021-12-17 16:42:50.296875
1740,-164.54,2021-12-17 16:42:50.312500
1741,-198.85,2021-12-17 16:42:50.328125
1742,-232.25,2021-12-17 16:42:50.343750
1743,-265.69,2021-12-17 16:42:50.359375
1744,-299.9,2021-12-17 16:42:50.375000
1745,-335.23,2021-12-17 16:42:50.390625
1746,-372.08,2021-12-17 16:42:50.406250
1747,-411.21,2021-12-17 16:42:50.421875
1748,-453.27,2021-12-17 16:42:50.437500
1749,-497.39,2021-12-17 16:42:50.453125
1750,-540.19,2021-12-17 16:42:50.468750
1751,-575.55,2021-12-17 16:42:50.484375
1752,-596.37,2021-12-17 16:42:50.500000
1753,-597.38,2021-12-17 16:42:50.515625
1754,-577.66,2021-12-17 16:42:50.531250
1755,-541.47,2021-12-17 16:42:50.546875
1756,-496.75,2021-12-17 16:42:50.562500
1757,-452.12,2021-12-17 16:42:50.578125
1758,-413.94,2021-12-17 16:42:50.593750
1759,-384.83,2021-12-17 16:42:50.609375
1760,-364.14,2021-12-17 16:42:50.625000
1761,-349.71,2021-12-17 16:42:50.640625
1762,-339.39,2021-12-17 16:42:50.656250
1763,-331.76,2021-12-17 16:42:50.671875
1764,-325.84,2021-12-17 16:42:50.687500
1765,-320.43,2021-12-17 16:42:50.703125
1766,-313.94,2021-12-17 16:42:50.718750
1767,-304.72,2021-12-17 16:42:50.734375
1768,-291.71,2021-12-17 16:42:50.750000
1769,-274.76,2021-12-17 16:42:50.765625
1770,-254.52,2021-12-17 16:42:50.781250
1771,-232.17,2021-12-17 16:42:50.796875
1772,-208.63,2021-12-17 16:42:50.812500
1773,-184.34,2021-12-17 16:42:50.828125
1774,-159.15,2021-12-17 16:42:50.843750
1775,-132.58,2021-12-17 16:42:50.859375
1776,-104.1,2021-12-17 16:42:50.875000
1777,-73.54,2021-12-17 16:42:50.890625
1778,-41.05,2021-12-17 16:42:50.906250
1779,-7.2,2021-12-17 16:42:50.921875
1780,27.17,2021-12-17 16:42:50.937500
1781,61.23,2021-12-17 16:42:50.953125
1782,94.16,2021-12-17 16:42:50.968750
1783,125.32,2021-12-17 16:42:50.984375
1784,154.44,2021-12-17 16:42:51.000000
1785,181.65,2021-12-17 16:42:51.015625
1786,207.47,2021-12-17 16:42:51.031250
1787,232.68,2021-12-17 16:42:51.046875
1788,258.06,2021-12-17 16:42:51.062500
1789,284.05,2021-12-17 16:42:51.078125
1790,310.94,2021-12-17 16:42:51.093750
1791,338.97,2021-12-17 16:42:51.109375
1792,368.6,2021-12-17 16:42:51.125000
1793,400.34,2021-12-17 16:42:51.140625
1794,433.92,2021-12-17 16:42:51.156250
1795,467.49,2021-12-17 16:42:51.171875
1796,497.35,2021-12-17 16:42:51.187500
1797,518.69,2021-12-17 16:42:51.203125
1798,527.22,2021-12-17 16:42:51.218750
1799,520.95,2021-12-17 16:42:51.234375
1800,500.9,2021-12-17 16:42:51.250000
1801,470.38,2021-12-17 16:42:51.265625
1802,433.12,2021-12-17 16:42:51.281250
1803,391.59,2021-12-17 16:42:51.296875
1804,346.46,2021-12-17 16:42:51.312500
1805,297.61,2021-12-17 16:42:51.328125
1806,245.77,2021-12-17 16:42:51.343750
1807,193.71,2021-12-17 16:42:51.359375
1808,145.97,2021-12-17 16:42:51.375000
1809,107.14,2021-12-17 16:42:51.390625
1810,79.97,2021-12-17 16:42:51.406250
1811,64.18,2021-12-17 16:42:51.421875
1812,56.96,2021-12-17 16:42:51.437500
1813,54.48,2021-12-17 16:42:51.453125
1814,53.72,2021-12-17 16:42:51.468750
1815,53.34,2021-12-17 16:42:51.484375
1816,53.55,2021-12-17 16:42:51.500000
1817,55.01,2021-12-17 16:42:51.515625
1818,57.56,2021-12-17 16:42:51.531250
1819,59.62,2021-12-17 16:42:51.546875
1820,58.75,2021-12-17 16:42:51.562500
1821,52.68,2021-12-17 16:42:51.578125
1822,40.72,2021-12-17 16:42:51.593750
1823,24.36,2021-12-17 16:42:51.609375
1824,6.99,2021-12-17 16:42:51.625000
1825,-7.31,2021-12-17 16:42:51.640625
1826,-15.35,2021-12-17 16:42:51.656250
1827,-15.96,2021-12-17 16:42:51.671875
1828,-10.3,2021-12-17 16:42:51.687500
1829,-1.02,2021-12-17 16:42:51.703125
1830,9.06,2021-12-17 16:42:51.718750
1831,17.91,2021-12-17 16:42:51.734375
1832,24.69,2021-12-17 16:42:51.750000
1833,29.57,2021-12-17 16:42:51.765625
1834,33.32,2021-12-17 16:42:51.781250
1835,36.95,2021-12-17 16:42:51.796875
1836,41.63,2021-12-17 16:42:51.812500
1837,48.76,2021-12-17 16:42:51.828125
1838,59.67,2021-12-17 16:42:51.843750
1839,75.63,2021-12-17 16:42:51.859375
1840,96.79,2021-12-17 16:42:51.875000
1841,121.95,2021-12-17 16:42:51.890625
1842,148.67,2021-12-17 16:42:51.906250
1843,174.13,2021-12-17 16:42:51.921875
1844,195.99,2021-12-17 16:42:51.937500
1845,212.88,2021-12-17 16:42:51.953125
1846,224.52,2021-12-17 16:42:51.968750
1847,231.47,2021-12-17 16:42:51.984375
1848,235.28,2021-12-17 16:42:52.000000
1849,237.16,2021-12-17 16:42:52.015625
1850,237.2,2021-12-17 16:42:52.031250
1851,234.15,2021-12-17 16:42:52.046875
1852,225.63,2021-12-17 16:42:52.062500
1853,208.94,2021-12-17 16:42:52.078125
1854,182.15,2021-12-17 16:42:52.093750
1855,145.17,2021-12-17 16:42:52.109375
1856,100.45,2021-12-17 16:42:52.125000
1857,53.6,2021-12-17 16:42:52.140625
1858,10.99,2021-12-17 16:42:52.156250
1859,-22.32,2021-12-17 16:42:52.171875
1860,-43.59,2021-12-17 16:42:52.187500
1861,-52.71,2021-12-17 16:42:52.203125
1862,-51.4,2021-12-17 16:42:52.218750
1863,-42.45,2021-12-17 16:42:52.234375
1864,-29.0,2021-12-17 16:42:52.250000
1865,-14.11,2021-12-17 16:42:52.265625
1866,0.31,2021-12-17 16:42:52.281250
1867,12.19,2021-12-17 16:42:52.296875
1868,18.57,2021-12-17 16:42:52.312500
1869,16.63,2021-12-17 16:42:52.328125
1870,4.34,2021-12-17 16:42:52.343750
1871,-18.65,2021-12-17 16:42:52.359375
1872,-50.88,2021-12-17 16:42:52.375000
1873,-89.46,2021-12-17 16:42:52.390625
1874,-136.72,2021-12-17 16:42:52.406250
1875,-189.47,2021-12-17 16:42:52.421875
1876,-240.06,2021-12-17 16:42:52.437500
1877,-279.62,2021-12-17 16:42:52.453125
1878,-301.18,2021-12-17 16:42:52.468750
1879,-302.93,2021-12-17 16:42:52.484375
1880,-287.54,2021-12-17 16:42:52.500000
1881,-260.13,2021-12-17 16:42:52.515625
1882,-226.27,2021-12-17 16:42:52.531250
1883,-190.63,2021-12-17 16:42:52.546875
1884,-155.53,2021-12-17 16:42:52.562500
1885,-120.73,2021-12-17 16:42:52.578125
1886,-87.43,2021-12-17 16:42:52.593750
1887,-57.78,2021-12-17 16:42:52.609375
1888,-35.3,2021-12-17 16:42:52.625000
1889,-23.31,2021-12-17 16:42:52.640625
1890,-24.26,2021-12-17 16:42:52.656250
1891,-39.43,2021-12-17 16:42:52.671875
1892,-69.05,2021-12-17 16:42:52.687500
1893,-114.45,2021-12-17 16:42:52.703125
1894,-172.3,2021-12-17 16:42:52.718750
1895,-237.39,2021-12-17 16:42:52.734375
1896,-302.2,2021-12-17 16:42:52.750000
1897,-358.29,2021-12-17 16:42:52.765625
1898,-397.11,2021-12-17 16:42:52.781250
1899,-412.76,2021-12-17 16:42:52.796875
1900,-404.73,2021-12-17 16:42:52.812500
1901,-378.42,2021-12-17 16:42:52.828125
1902,-343.02,2021-12-17 16:42:52.843750
1903,-308.05,2021-12-17 16:42:52.859375
1904,-282.81,2021-12-17 16:42:52.875000
1905,-268.02,2021-12-17 16:42:52.890625
1906,-261.16,2021-12-17 16:42:52.906250
1907,-258.33,2021-12-17 16:42:52.921875
1908,-256.35,2021-12-17 16:42:52.937500
1909,-253.91,2021-12-17 16:42:52.953125
1910,-250.71,2021-12-17 16:42:52.968750
1911,-246.44,2021-12-17 16:42:52.984375
1912,-240.02,2021-12-17 16:42:53.000000
1913,-230.48,2021-12-17 16:42:53.015625
1914,-217.0,2021-12-17 16:42:53.031250
1915,-200.24,2021-12-17 16:42:53.046875
1916,-181.58,2021-12-17 16:42:53.062500
1917,-162.32,2021-12-17 16:42:53.078125
1918,-145.13,2021-12-17 16:42:53.093750
1919,-131.19,2021-12-17 16:42:53.109375
1920,-120.14,2021-12-17 16:42:53.125000
1921,-110.34,2021-12-17 16:42:53.140625
1922,-100.15,2021-12-17 16:42:53.156250
1923,-88.24,2021-12-17 16:42:53.171875
1924,-74.67,2021-12-17 16:42:53.187500
1925,-60.4,2021-12-17 16:42:53.203125
1926,-46.88,2021-12-17 16:42:53.218750
1927,-35.61,2021-12-17 16:42:53.234375
1928,-27.31,2021-12-17 16:42:53.250000
1929,-21.86,2021-12-17 16:42:53.265625
1930,-18.26,2021-12-17 16:42:53.281250
1931,-15.2,2021-12-17 16:42:53.296875
1932,-11.15,2021-12-17 16:42:53.312500
1933,-5.11,2021-12-17 16:42:53.328125
1934,3.54,2021-12-17 16:42:53.343750
1935,15.03,2021-12-17 16:42:53.359375
1936,29.11,2021-12-17 16:42:53.375000
1937,45.53,2021-12-17 16:42:53.390625
1938,63.77,2021-12-17 16:42:53.406250
1939,83.26,2021-12-17 16:42:53.421875
1940,103.39,2021-12-17 16:42:53.437500
1941,123.72,2021-12-17 16:42:53.453125
1942,143.88,2021-12-17 16:42:53.468750
1943,163.77,2021-12-17 16:42:53.484375
1944,183.51,2021-12-17 16:42:53.500000
1945,203.09,2021-12-17 16:42:53.515625
1946,222.35,2021-12-17 16:42:53.531250
1947,240.42,2021-12-17 16:42:53.546875
1948,255.83,2021-12-17 16:42:53.562500
1949,266.7,2021-12-17 16:42:53.578125
1950,271.62,2021-12-17 16:42:53.593750
1951,270.44,2021-12-17 16:42:53.609375
1952,265.38,2021-12-17 16:42:53.625000
1953,260.83,2021-12-17 16:42:53.640625
1954,262.09,2021-12-17 16:42:53.656250
1955,272.85,2021-12-17 16:42:53.671875
1956,292.63,2021-12-17 16:42:53.687500
1957,315.91,2021-12-17 16:42:53.703125
1958,333.34,2021-12-17 16:42:53.718750
1959,335.3,2021-12-17 16:42:53.734375
1960,315.34,2021-12-17 16:42:53.750000
1961,273.03,2021-12-17 16:42:53.765625
1962,214.44,2021-12-17 16:42:53.781250
1963,150.45,2021-12-17 16:42:53.796875
1964,93.84,2021-12-17 16:42:53.812500
1965,56.19,2021-12-17 16:42:53.828125
1966,45.51,2021-12-17 16:42:53.843750
1967,64.9,2021-12-17 16:42:53.859375
1968,111.6,2021-12-17 16:42:53.875000
1969,177.19,2021-12-17 16:42:53.890625
1970,248.93,2021-12-17 16:42:53.906250
1971,312.33,2021-12-17 16:42:53.921875
1972,354.68,2021-12-17 16:42:53.937500
1973,368.4,2021-12-17 16:42:53.953125
1974,352.8,2021-12-17 16:42:53.968750
1975,313.68,2021-12-17 16:42:53.984375
1976,260.66,2021-12-17 16:42:54.000000
1977,203.52,2021-12-17 16:42:54.015625
1978,148.81,2021-12-17 16:42:54.031250
1979,98.28,2021-12-17 16:42:54.046875
1980,50.0,2021-12-17 16:42:54.062500
1981,1.33,2021-12-17 16:42:54.078125
1982,-47.8,2021-12-17 16:42:54.093750
1983,-93.5,2021-12-17 16:42:54.109375
1984,-129.21,2021-12-17 16:42:54.125000
1985,-149.4,2021-12-17 16:42:54.140625
1986,-152.54,2021-12-17 16:42:54.156250
1987,-142.07,2021-12-17 16:42:54.171875
1988,-124.62,2021-12-17 16:42:54.187500
1989,-106.45,2021-12-17 16:42:54.203125
1990,-90.78,2021-12-17 16:42:54.218750
1991,-77.24,2021-12-17 16:42:54.234375
1992,-64.09,2021-12-17 16:42:54.250000
1993,-50.87,2021-12-17 16:42:54.265625
1994,-39.92,2021-12-17 16:42:54.281250
1995,-35.16,2021-12-17 16:42:54.296875
1996,-39.52,2021-12-17 16:42:54.312500
1997,-52.59,2021-12-17 16:42:54.328125
1998,-70.25,2021-12-17 16:42:54.343750
1999,-86.33,2021-12-17 16:42:54.359375
2000,-95.48,2021-12-17 16:42:54.375000
2001,-95.37,2021-12-17 16:42:54.390625
2002,-87.23,2021-12-17 16:42:54.406250
2003,-74.72,2021-12-17 16:42:54.421875
2004,-62.05,2021-12-17 16:42:54.437500
2005,-52.18,2021-12-17 16:42:54.453125
2006,-45.98,2021-12-17 16:42:54.468750
2007,-42.43,2021-12-17 16:42:54.484375
2008,-39.48,2021-12-17 16:42:54.500000
2009,-35.36,2021-12-17 16:42:54.515625
2010,-29.31,2021-12-17 16:42:54.531250
2011,-21.82,2021-12-17 16:42:54.546875
2012,-14.17,2021-12-17 16:42:54.562500
2013,-7.75,2021-12-17 16:42:54.578125
2014,-3.35,2021-12-17 16:42:54.593750
2015,-0.79,2021-12-17 16:42:54.609375
2016,0.97,2021-12-17 16:42:54.625000
2017,3.58,2021-12-17 16:42:54.640625
2018,8.5,2021-12-17 16:42:54.656250
2019,16.56,2021-12-17 16:42:54.671875
2020,27.58,2021-12-17 16:42:54.687500
2021,40.14,2021-12-17 16:42:54.703125
2022,51.99,2021-12-17 16:42:54.718750
2023,60.63,2021-12-17 16:42:54.734375
2024,64.15,2021-12-17 16:42:54.750000
2025,61.94,2021-12-17 16:42:54.765625
2026,54.91,2021-12-17 16:42:54.781250
2027,45.03,2021-12-17 16:42:54.796875
2028,34.57,2021-12-17 16:42:54.812500
2029,25.32,2021-12-17 16:42:54.828125
2030,17.95,2021-12-17 16:42:54.843750
2031,12.12,2021-12-17 16:42:54.859375
2032,6.97,2021-12-17 16:42:54.875000
2033,1.74,2021-12-17 16:42:54.890625
2034,-3.86,2021-12-17 16:42:54.906250
2035,-9.5,2021-12-17 16:42:54.921875
2036,-14.62,2021-12-17 16:42:54.937500
2037,-18.7,2021-12-17 16:42:54.953125
2038,-21.45,2021-12-17 16:42:54.968750
2039,-22.93,2021-12-17 16:42:54.984375
2040,-23.23,2021-12-17 16:42:55.000000
2041,-22.38,2021-12-17 16:42:55.015625
2042,-20.37,2021-12-17 16:42:55.031250
2043,-17.35,2021-12-17 16:42:55.046875
2044,-13.72,2021-12-17 16:42:55.062500
2045,-10.23,2021-12-17 16:42:55.078125
2046,-7.69,2021-12-17 16:42:55.093750
2047,-6.66,2021-12-17 16:42:55.109375
2048,-7.36,2021-12-17 16:42:55.125000
2049,-9.47,2021-12-17 16:42:55.140625
2050,-12.29,2021-12-17 16:42:55.156250
2051,-15.08,2021-12-17 16:42:55.171875
2052,-17.28,2021-12-17 16:42:55.187500
2053,-18.57,2021-12-17 16:42:55.203125
2054,-18.99,2021-12-17 16:42:55.218750
2055,-18.82,2021-12-17 16:42:55.234375
2056,-18.38,2021-12-17 16:42:55.250000
2057,-18.0,2021-12-17 16:42:55.265625
2058,-17.84,2021-12-17 16:42:55.281250
2059,-17.82,2021-12-17 16:42:55.296875
2060,-17.82,2021-12-17 16:42:55.312500
2061,-17.67,2021-12-17 16:42:55.328125
2062,-17.25,2021-12-17 16:42:55.343750
2063,-16.61,2021-12-17 16:42:55.359375
2064,-15.9,2021-12-17 16:42:55.375000
2065,-15.29,2021-12-17 16:42:55.390625
2066,-14.92,2021-12-17 16:42:55.406250
2067,-14.84,2021-12-17 16:42:55.421875
2068,-14.98,2021-12-17 16:42:55.437500
2069,-15.19,2021-12-17 16:42:55.453125
2070,-15.26,2021-12-17 16:42:55.468750
2071,-14.98,2021-12-17 16:42:55.484375
2072,-14.27,2021-12-17 16:42:55.500000
2073,-13.19,2021-12-17 16:42:55.515625
2074,-11.92,2021-12-17 16:42:55.531250
2075,-10.75,2021-12-17 16:42:55.546875
2076,-9.83,2021-12-17 16:42:55.562500
2077,-9.24,2021-12-17 16:42:55.578125
2078,-8.85,2021-12-17 16:42:55.593750
2079,-8.37,2021-12-17 16:42:55.609375
2080,-7.55,2021-12-17 16:42:55.625000
2081,-6.31,2021-12-17 16:42:55.640625
2082,-4.81,2021-12-17 16:42:55.656250
2083,-3.31,2021-12-17 16:42:55.671875
2084,-2.1,2021-12-17 16:42:55.687500
2085,-1.33,2021-12-17 16:42:55.703125
2086,-1.01,2021-12-17 16:42:55.718750
2087,-1.1,2021-12-17 16:42:55.734375
2088,-1.52,2021-12-17 16:42:55.750000
2089,-2.22,2021-12-17 16:42:55.765625
2090,-3.21,2021-12-17 16:42:55.781250
2091,-4.36,2021-12-17 16:42:55.796875
2092,-5.44,2021-12-17 16:42:55.812500
2093,-6.13,2021-12-17 16:42:55.828125
2094,-6.14,2021-12-17 16:42:55.843750
2095,-5.37,2021-12-17 16:42:55.859375
2096,-4.08,2021-12-17 16:42:55.875000
2097,-2.74,2021-12-17 16:42:55.890625
2098,-1.88,2021-12-17 16:42:55.906250
2099,-1.86,2021-12-17 16:42:55.921875
2100,-2.73,2021-12-17 16:42:55.937500
2101,-4.25,2021-12-17 16:42:55.953125
2102,-6.01,2021-12-17 16:42:55.968750
2103,-7.61,2021-12-17 16:42:55.984375
2104,-8.81,2021-12-17 16:42:56.000000
2105,-9.6,2021-12-17 16:42:56.015625
2106,-10.16,2021-12-17 16:42:56.031250
2107,-10.68,2021-12-17 16:42:56.046875
2108,-11.26,2021-12-17 16:42:56.062500
2109,-11.86,2021-12-17 16:42:56.078125
2110,-12.36,2021-12-17 16:42:56.093750
2111,-12.64,2021-12-17 16:42:56.109375
2112,-12.66,2021-12-17 16:42:56.125000
2113,-12.52,2021-12-17 16:42:56.140625
2114,-12.38,2021-12-17 16:42:56.156250
2115,-12.37,2021-12-17 16:42:56.171875
2116,-12.61,2021-12-17 16:42:56.187500
2117,-13.16,2021-12-17 16:42:56.203125
2118,-13.99,2021-12-17 16:42:56.218750
2119,-15.16,2021-12-17 16:42:56.234375
2120,-16.62,2021-12-17 16:42:56.250000
2121,-18.25,2021-12-17 16:42:56.265625
2122,-19.72,2021-12-17 16:42:56.281250
2123,-20.55,2021-12-17 16:42:56.296875
2124,-20.3,2021-12-17 16:42:56.312500
2125,-18.81,2021-12-17 16:42:56.328125
2126,-16.38,2021-12-17 16:42:56.343750
2127,-13.59,2021-12-17 16:42:56.359375
2128,-11.21,2021-12-17 16:42:56.375000
2129,-9.76,2021-12-17 16:42:56.390625
2130,-9.35,2021-12-17 16:42:56.406250
2131,-9.67,2021-12-17 16:42:56.421875
2132,-10.16,2021-12-17 16:42:56.437500
2133,-10.33,2021-12-17 16:42:56.453125
2134,-9.92,2021-12-17 16:42:56.468750
2135,-8.96,2021-12-17 16:42:56.484375
2136,-7.67,2021-12-17 16:42:56.500000
2137,-6.37,2021-12-17 16:42:56.515625
2138,-5.2,2021-12-17 16:42:56.531250
2139,-4.26,2021-12-17 16:42:56.546875
2140,-3.56,2021-12-17 16:42:56.562500
2141,-3.05,2021-12-17 16:42:56.578125
2142,-2.67,2021-12-17 16:42:56.593750
2143,-2.33,2021-12-17 16:42:56.609375
2144,-1.91,2021-12-17 16:42:56.625000
2145,-1.31,2021-12-17 16:42:56.640625
2146,-0.57,2021-12-17 16:42:56.656250
2147,0.31,2021-12-17 16:42:56.671875
2148,1.26,2021-12-17 16:42:56.687500
2149,2.26,2021-12-17 16:42:56.703125
2150,3.37,2021-12-17 16:42:56.718750
2151,4.64,2021-12-17 16:42:56.734375
2152,6.14,2021-12-17 16:42:56.750000
2153,7.81,2021-12-17 16:42:56.765625
2154,9.46,2021-12-17 16:42:56.781250
2155,10.85,2021-12-17 16:42:56.796875
2156,11.86,2021-12-17 16:42:56.812500
2157,12.52,2021-12-17 16:42:56.828125
2158,12.95,2021-12-17 16:42:56.843750
2159,13.28,2021-12-17 16:42:56.859375
2160,13.46,2021-12-17 16:42:56.875000
2161,13.35,2021-12-17 16:42:56.890625
2162,12.77,2021-12-17 16:42:56.906250
2163,11.7,2021-12-17 16:42:56.921875
2164,10.34,2021-12-17 16:42:56.937500
2165,9.02,2021-12-17 16:42:56.953125
2166,8.02,2021-12-17 16:42:56.968750
2167,7.45,2021-12-17 16:42:56.984375
2168,7.14,2021-12-17 16:42:57.000000
2169,6.81,2021-12-17 16:42:57.015625
2170,6.28,2021-12-17 16:42:57.031250
2171,5.5,2021-12-17 16:42:57.046875
2172,4.56,2021-12-17 16:42:57.062500
2173,3.63,2021-12-17 16:42:57.078125
2174,2.82,2021-12-17 16:42:57.093750
2175,2.12,2021-12-17 16:42:57.109375
2176,1.4,2021-12-17 16:42:57.125000
2177,0.54,2021-12-17 16:42:57.140625
2178,-0.55,2021-12-17 16:42:57.156250
2179,-1.83,2021-12-17 16:42:57.171875
2180,-3.19,2021-12-17 16:42:57.187500
2181,-4.46,2021-12-17 16:42:57.203125
2182,-5.49,2021-12-17 16:42:57.218750
2183,-6.22,2021-12-17 16:42:57.234375
2184,-6.72,2021-12-17 16:42:57.250000
2185,-7.25,2021-12-17 16:42:57.265625
2186,-8.04,2021-12-17 16:42:57.281250
2187,-9.19,2021-12-17 16:42:57.296875
2188,-10.64,2021-12-17 16:42:57.312500
2189,-12.12,2021-12-17 16:42:57.328125
2190,-13.34,2021-12-17 16:42:57.343750
2191,-14.07,2021-12-17 16:42:57.359375
2192,-14.32,2021-12-17 16:42:57.375000
2193,-14.24,2021-12-17 16:42:57.390625
2194,-14.05,2021-12-17 16:42:57.406250
2195,-13.97,2021-12-17 16:42:57.421875
2196,-14.12,2021-12-17 16:42:57.437500
2197,-14.61,2021-12-17 16:42:57.453125
2198,-15.49,2021-12-17 16:42:57.468750
2199,-16.74,2021-12-17 16:42:57.484375
2200,-18.15,2021-12-17 16:42:57.500000
2201,-19.39,2021-12-17 16:42:57.515625
2202,-19.96,2021-12-17 16:42:57.531250
2203,-19.46,2021-12-17 16:42:57.546875
2204,-17.72,2021-12-17 16:42:57.562500
2205,-15.0,2021-12-17 16:42:57.578125
2206,-11.88,2021-12-17 16:42:57.593750
2207,-9.05,2021-12-17 16:42:57.609375
2208,-7.03,2021-12-17 16:42:57.625000
2209,-5.97,2021-12-17 16:42:57.640625
2210,-5.69,2021-12-17 16:42:57.656250
2211,-5.75,2021-12-17 16:42:57.671875
2212,-5.71,2021-12-17 16:42:57.687500
2213,-5.33,2021-12-17 16:42:57.703125
2214,-4.59,2021-12-17 16:42:57.718750
2215,-3.64,2021-12-17 16:42:57.734375
2216,-2.7,2021-12-17 16:42:57.750000
2217,-1.95,2021-12-17 16:42:57.765625
2218,-1.4,2021-12-17 16:42:57.781250
2219,-1.0,2021-12-17 16:42:57.796875
2220,-0.68,2021-12-17 16:42:57.812500
2221,-0.37,2021-12-17 16:42:57.828125
2222,-0.14,2021-12-17 16:42:57.843750
2223,-0.13,2021-12-17 16:42:57.859375
2224,-0.46,2021-12-17 16:42:57.875000
2225,-1.18,2021-12-17 16:42:57.890625
2226,-2.18,2021-12-17 16:42:57.906250
2227,-3.17,2021-12-17 16:42:57.921875
2228,-3.82,2021-12-17 16:42:57.937500
2229,-3.86,2021-12-17 16:42:57.953125
2230,-3.17,2021-12-17 16:42:57.968750
2231,-1.85,2021-12-17 16:42:57.984375
2232,-0.19,2021-12-17 16:42:58.000000
2233,1.47,2021-12-17 16:42:58.015625
2234,2.84,2021-12-17 16:42:58.031250
2235,3.76,2021-12-17 16:42:58.046875
2236,4.25,2021-12-17 16:42:58.062500
2237,4.43,2021-12-17 16:42:58.078125
2238,4.61,2021-12-17 16:42:58.093750
2239,5.02,2021-12-17 16:42:58.109375
2240,5.75,2021-12-17 16:42:58.125000
2241,6.69,2021-12-17 16:42:58.140625
2242,7.63,2021-12-17 16:42:58.156250
2243,8.31,2021-12-17 16:42:58.171875
2244,8.6,2021-12-17 16:42:58.187500
2245,8.54,2021-12-17 16:42:58.203125
2246,8.36,2021-12-17 16:42:58.218750
2247,8.3,2021-12-17 16:42:58.234375
2248,8.5,2021-12-17 16:42:58.250000
2249,8.94,2021-12-17 16:42:58.265625
2250,9.47,2021-12-17 16:42:58.281250
2251,9.94,2021-12-17 16:42:58.296875
2252,10.23,2021-12-17 16:42:58.312500
2253,10.29,2021-12-17 16:42:58.328125
2254,10.09,2021-12-17 16:42:58.343750
2255,9.56,2021-12-17 16:42:58.359375
2256,8.62,2021-12-17 16:42:58.375000
2257,7.27,2021-12-17 16:42:58.390625
2258,5.54,2021-12-17 16:42:58.406250
2259,3.66,2021-12-17 16:42:58.421875
2260,1.85,2021-12-17 16:42:58.437500
2261,0.32,2021-12-17 16:42:58.453125
2262,-0.88,2021-12-17 16:42:58.468750
2263,-1.82,2021-12-17 16:42:58.484375
2264,-2.69,2021-12-17 16:42:58.500000
2265,-3.65,2021-12-17 16:42:58.515625
2266,-4.72,2021-12-17 16:42:58.531250
2267,-5.81,2021-12-17 16:42:58.546875
2268,-6.76,2021-12-17 16:42:58.562500
2269,-7.46,2021-12-17 16:42:58.578125
2270,-7.95,2021-12-17 16:42:58.593750
2271,-8.41,2021-12-17 16:42:58.609375
2272,-9.03,2021-12-17 16:42:58.625000
2273,-9.92,2021-12-17 16:42:58.640625
2274,-11.03,2021-12-17 16:42:58.656250
2275,-12.16,2021-12-17 16:42:58.671875
2276,-13.04,2021-12-17 16:42:58.687500
2277,-13.51,2021-12-17 16:42:58.703125
2278,-13.49,2021-12-17 16:42:58.718750
2279,-12.92,2021-12-17 16:42:58.734375
2280,-11.8,2021-12-17 16:42:58.750000
2281,-10.14,2021-12-17 16:42:58.765625
2282,-7.96,2021-12-17 16:42:58.781250
2283,-5.37,2021-12-17 16:42:58.796875
2284,-2.62,2021-12-17 16:42:58.812500
2285,0.05,2021-12-17 16:42:58.828125
2286,2.38,2021-12-17 16:42:58.843750
2287,4.28,2021-12-17 16:42:58.859375
2288,5.84,2021-12-17 16:42:58.875000
2289,7.19,2021-12-17 16:42:58.890625
2290,8.4,2021-12-17 16:42:58.906250
2291,9.42,2021-12-17 16:42:58.921875
2292,10.06,2021-12-17 16:42:58.937500
2293,10.09,2021-12-17 16:42:58.953125
2294,9.36,2021-12-17 16:42:58.968750
2295,7.94,2021-12-17 16:42:58.984375
2296,6.17,2021-12-17 16:42:59.000000
2297,4.54,2021-12-17 16:42:59.015625
2298,3.52,2021-12-17 16:42:59.031250
2299,3.33,2021-12-17 16:42:59.046875
2300,3.91,2021-12-17 16:42:59.062500
2301,4.93,2021-12-17 16:42:59.078125
2302,5.96,2021-12-17 16:42:59.093750
2303,6.71,2021-12-17 16:42:59.109375
2304,7.08,2021-12-17 16:42:59.125000
2305,7.16,2021-12-17 16:42:59.140625
2306,7.11,2021-12-17 16:42:59.156250
2307,6.93,2021-12-17 16:42:59.171875
2308,6.47,2021-12-17 16:42:59.187500
2309,5.49,2021-12-17 16:42:59.203125
2310,3.87,2021-12-17 16:42:59.218750
2311,1.65,2021-12-17 16:42:59.234375
2312,-0.92,2021-12-17 16:42:59.250000
2313,-3.53,2021-12-17 16:42:59.265625
2314,-5.88,2021-12-17 16:42:59.281250
2315,-7.76,2021-12-17 16:42:59.296875
2316,-9.05,2021-12-17 16:42:59.312500
2317,-9.62,2021-12-17 16:42:59.328125
2318,-9.41,2021-12-17 16:42:59.343750
2319,-8.43,2021-12-17 16:42:59.359375
2320,-6.87,2021-12-17 16:42:59.375000
2321,-5.06,2021-12-17 16:42:59.390625
2322,-3.39,2021-12-17 16:42:59.406250
2323,-2.12,2021-12-17 16:42:59.421875
2324,-1.31,2021-12-17 16:42:59.437500
2325,-0.87,2021-12-17 16:42:59.453125
2326,-0.56,2021-12-17 16:42:59.468750
2327,-0.22,2021-12-17 16:42:59.484375
2328,0.22,2021-12-17 16:42:59.500000
2329,0.73,2021-12-17 16:42:59.515625
2330,1.25,2021-12-17 16:42:59.531250
2331,1.68,2021-12-17 16:42:59.546875
2332,1.99,2021-12-17 16:42:59.562500
2333,2.18,2021-12-17 16:42:59.578125
2334,2.23,2021-12-17 16:42:59.593750
2335,2.14,2021-12-17 16:42:59.609375
2336,1.89,2021-12-17 16:42:59.625000
2337,1.47,2021-12-17 16:42:59.640625
2338,0.9,2021-12-17 16:42:59.656250
2339,0.25,2021-12-17 16:42:59.671875
2340,-0.41,2021-12-17 16:42:59.687500
2341,-1.07,2021-12-17 16:42:59.703125
2342,-1.8,2021-12-17 16:42:59.718750
2343,-2.69,2021-12-17 16:42:59.734375
2344,-3.77,2021-12-17 16:42:59.750000
2345,-5.05,2021-12-17 16:42:59.765625
2346,-6.39,2021-12-17 16:42:59.781250
2347,-7.66,2021-12-17 16:42:59.796875
2348,-8.73,2021-12-17 16:42:59.812500
2349,-9.56,2021-12-17 16:42:59.828125
2350,-10.25,2021-12-17 16:42:59.843750
2351,-10.86,2021-12-17 16:42:59.859375
2352,-11.52,2021-12-17 16:42:59.875000
2353,-12.21,2021-12-17 16:42:59.890625
2354,-13.02,2021-12-17 16:42:59.906250
2355,-13.93,2021-12-17 16:42:59.921875
2356,-14.9,2021-12-17 16:42:59.937500
2357,-15.72,2021-12-17 16:42:59.953125
2358,-16.05,2021-12-17 16:42:59.968750
2359,-15.48,2021-12-17 16:42:59.984375
2360,-13.66,2021-12-17 16:43:00.000000
2361,-10.6,2021-12-17 16:43:00.015625
2362,-6.65,2021-12-17 16:43:00.031250
2363,-2.56,2021-12-17 16:43:00.046875
2364,0.95,2021-12-17 16:43:00.062500
2365,3.3,2021-12-17 16:43:00.078125
2366,4.37,2021-12-17 16:43:00.093750
2367,4.43,2021-12-17 16:43:00.109375
2368,3.99,2021-12-17 16:43:00.125000
2369,3.58,2021-12-17 16:43:00.140625
2370,3.51,2021-12-17 16:43:00.156250
2371,3.9,2021-12-17 16:43:00.171875
2372,4.64,2021-12-17 16:43:00.187500
2373,5.56,2021-12-17 16:43:00.203125
2374,6.45,2021-12-17 16:43:00.218750
2375,7.18,2021-12-17 16:43:00.234375
2376,7.73,2021-12-17 16:43:00.250000
2377,8.13,2021-12-17 16:43:00.265625
2378,8.45,2021-12-17 16:43:00.281250
2379,8.7,2021-12-17 16:43:00.296875
2380,8.8,2021-12-17 16:43:00.312500
2381,8.62,2021-12-17 16:43:00.328125
2382,8.03,2021-12-17 16:43:00.343750
2383,6.99,2021-12-17 16:43:00.359375
2384,5.66,2021-12-17 16:43:00.375000
2385,4.34,2021-12-17 16:43:00.390625
2386,3.39,2021-12-17 16:43:00.406250
2387,3.0,2021-12-17 16:43:00.421875
2388,3.14,2021-12-17 16:43:00.437500
2389,3.58,2021-12-17 16:43:00.453125
2390,4.05,2021-12-17 16:43:00.468750
2391,4.33,2021-12-17 16:43:00.484375
2392,4.42,2021-12-17 16:43:00.500000
2393,4.44,2021-12-17 16:43:00.515625
2394,4.6,2021-12-17 16:43:00.531250
2395,5.01,2021-12-17 16:43:00.546875
2396,5.65,2021-12-17 16:43:00.562500
2397,6.35,2021-12-17 16:43:00.578125
2398,6.86,2021-12-17 16:43:00.593750
2399,7.02,2021-12-17 16:43:00.609375
2400,6.7,2021-12-17 16:43:00.625000
2401,5.95,2021-12-17 16:43:00.640625
2402,4.89,2021-12-17 16:43:00.656250
2403,3.7,2021-12-17 16:43:00.671875
2404,2.5,2021-12-17 16:43:00.687500
2405,1.37,2021-12-17 16:43:00.703125
2406,0.31,2021-12-17 16:43:00.718750
2407,-0.72,2021-12-17 16:43:00.734375
2408,-1.66,2021-12-17 16:43:00.750000
2409,-2.47,2021-12-17 16:43:00.765625
2410,-3.09,2021-12-17 16:43:00.781250
2411,-3.44,2021-12-17 16:43:00.796875
2412,-3.52,2021-12-17 16:43:00.812500
2413,-3.4,2021-12-17 16:43:00.828125
2414,-3.19,2021-12-17 16:43:00.843750
2415,-3.06,2021-12-17 16:43:00.859375
2416,-3.11,2021-12-17 16:43:00.875000
2417,-3.39,2021-12-17 16:43:00.890625
2418,-3.87,2021-12-17 16:43:00.906250
2419,-4.42,2021-12-17 16:43:00.921875
2420,-4.82,2021-12-17 16:43:00.937500
2421,-4.92,2021-12-17 16:43:00.953125
2422,-4.61,2021-12-17 16:43:00.968750
2423,-3.98,2021-12-17 16:43:00.984375
2424,-3.25,2021-12-17 16:43:01.000000
2425,-2.65,2021-12-17 16:43:01.015625
2426,-2.37,2021-12-17 16:43:01.031250
2427,-2.42,2021-12-17 16:43:01.046875
2428,-2.68,2021-12-17 16:43:01.062500
2429,-3.02,2021-12-17 16:43:01.078125
2430,-3.4,2021-12-17 16:43:01.093750
2431,-3.79,2021-12-17 16:43:01.109375
2432,-4.3,2021-12-17 16:43:01.125000
2433,-5.06,2021-12-17 16:43:01.140625
2434,-6.13,2021-12-17 16:43:01.156250
2435,-7.61,2021-12-17 16:43:01.171875
2436,-9.45,2021-12-17 16:43:01.187500
2437,-11.51,2021-12-17 16:43:01.203125
2438,-13.44,2021-12-17 16:43:01.218750
2439,-14.77,2021-12-17 16:43:01.234375
2440,-14.96,2021-12-17 16:43:01.250000
2441,-13.63,2021-12-17 16:43:01.265625
2442,-10.79,2021-12-17 16:43:01.281250
2443,-6.84,2021-12-17 16:43:01.296875
2444,-2.52,2021-12-17 16:43:01.312500
2445,1.44,2021-12-17 16:43:01.328125
2446,4.55,2021-12-17 16:43:01.343750
2447,6.68,2021-12-17 16:43:01.359375
2448,8.05,2021-12-17 16:43:01.375000
2449,9.01,2021-12-17 16:43:01.390625
2450,9.91,2021-12-17 16:43:01.406250
2451,10.94,2021-12-17 16:43:01.421875
2452,12.22,2021-12-17 16:43:01.437500
2453,13.7,2021-12-17 16:43:01.453125
2454,15.23,2021-12-17 16:43:01.468750
2455,16.53,2021-12-17 16:43:01.484375
2456,17.24,2021-12-17 16:43:01.500000
2457,17.04,2021-12-17 16:43:01.515625
2458,15.78,2021-12-17 16:43:01.531250
2459,13.64,2021-12-17 16:43:01.546875
2460,11.06,2021-12-17 16:43:01.562500
2461,8.55,2021-12-17 16:43:01.578125
2462,6.48,2021-12-17 16:43:01.593750
2463,4.95,2021-12-17 16:43:01.609375
2464,3.84,2021-12-17 16:43:01.625000
2465,2.98,2021-12-17 16:43:01.640625
2466,2.36,2021-12-17 16:43:01.656250
2467,2.1,2021-12-17 16:43:01.671875
2468,2.39,2021-12-17 16:43:01.687500
2469,3.23,2021-12-17 16:43:01.703125
2470,4.38,2021-12-17 16:43:01.718750
2471,5.39,2021-12-17 16:43:01.734375
2472,5.91,2021-12-17 16:43:01.750000
2473,5.87,2021-12-17 16:43:01.765625
2474,5.48,2021-12-17 16:43:01.781250
2475,5.18,2021-12-17 16:43:01.796875
2476,5.26,2021-12-17 16:43:01.812500
2477,5.8,2021-12-17 16:43:01.828125
2478,6.55,2021-12-17 16:43:01.843750
2479,7.14,2021-12-17 16:43:01.859375
2480,7.25,2021-12-17 16:43:01.875000
2481,6.82,2021-12-17 16:43:01.890625
2482,5.98,2021-12-17 16:43:01.906250
2483,4.95,2021-12-17 16:43:01.921875
2484,3.92,2021-12-17 16:43:01.937500
2485,2.95,2021-12-17 16:43:01.953125
2486,2.01,2021-12-17 16:43:01.968750
2487,1.13,2021-12-17 16:43:01.984375
2488,0.28,2021-12-17 16:43:02.000000
2489,-0.48,2021-12-17 16:43:02.015625
2490,-1.13,2021-12-17 16:43:02.031250
2491,-1.7,2021-12-17 16:43:02.046875
2492,-2.21,2021-12-17 16:43:02.062500
2493,-2.71,2021-12-17 16:43:02.078125
2494,-3.19,2021-12-17 16:43:02.093750
2495,-3.6,2021-12-17 16:43:02.109375
2496,-3.84,2021-12-17 16:43:02.125000
2497,-3.85,2021-12-17 16:43:02.140625
2498,-3.67,2021-12-17 16:43:02.156250
2499,-3.44,2021-12-17 16:43:02.171875
2500,-3.37,2021-12-17 16:43:02.187500
2501,-3.6,2021-12-17 16:43:02.203125
2502,-4.12,2021-12-17 16:43:02.218750
2503,-4.79,2021-12-17 16:43:02.234375
2504,-5.39,2021-12-17 16:43:02.250000
2505,-5.67,2021-12-17 16:43:02.265625
2506,-5.58,2021-12-17 16:43:02.281250
2507,-5.14,2021-12-17 16:43:02.296875
2508,-4.47,2021-12-17 16:43:02.312500
2509,-3.7,2021-12-17 16:43:02.328125
2510,-2.89,2021-12-17 16:43:02.343750
2511,-2.18,2021-12-17 16:43:02.359375
2512,-1.77,2021-12-17 16:43:02.375000
2513,-1.95,2021-12-17 16:43:02.390625
2514,-2.87,2021-12-17 16:43:02.406250
2515,-4.49,2021-12-17 16:43:02.421875
2516,-6.44,2021-12-17 16:43:02.437500
2517,-8.16,2021-12-17 16:43:02.453125
2518,-9.17,2021-12-17 16:43:02.468750
2519,-9.2,2021-12-17 16:43:02.484375
2520,-8.37,2021-12-17 16:43:02.500000
2521,-7.05,2021-12-17 16:43:02.515625
2522,-5.72,2021-12-17 16:43:02.531250
2523,-4.66,2021-12-17 16:43:02.546875
2524,-3.99,2021-12-17 16:43:02.562500
2525,-3.67,2021-12-17 16:43:02.578125
2526,-3.62,2021-12-17 16:43:02.593750
2527,-3.84,2021-12-17 16:43:02.609375
2528,-4.36,2021-12-17 16:43:02.625000
2529,-5.15,2021-12-17 16:43:02.640625
2530,-6.03,2021-12-17 16:43:02.656250
2531,-6.77,2021-12-17 16:43:02.671875
2532,-7.08,2021-12-17 16:43:02.687500
2533,-6.86,2021-12-17 16:43:02.703125
2534,-6.21,2021-12-17 16:43:02.718750
2535,-5.43,2021-12-17 16:43:02.734375
2536,-4.83,2021-12-17 16:43:02.750000
2537,-4.57,2021-12-17 16:43:02.765625
2538,-4.53,2021-12-17 16:43:02.781250
2539,-4.47,2021-12-17 16:43:02.796875
2540,-4.16,2021-12-17 16:43:02.812500
2541,-3.54,2021-12-17 16:43:02.828125
2542,-2.7,2021-12-17 16:43:02.843750
2543,-1.82,2021-12-17 16:43:02.859375
2544,-0.97,2021-12-17 16:43:02.875000
2545,-0.18,2021-12-17 16:43:02.890625
2546,0.58,2021-12-17 16:43:02.906250
2547,1.25,2021-12-17 16:43:02.921875
2548,1.68,2021-12-17 16:43:02.937500
2549,1.69,2021-12-17 16:43:02.953125
2550,1.29,2021-12-17 16:43:02.968750
2551,0.67,2021-12-17 16:43:02.984375
2552,0.15,2021-12-17 16:43:03.000000
2553,0.01,2021-12-17 16:43:03.015625
2554,0.25,2021-12-17 16:43:03.031250
2555,0.58,2021-12-17 16:43:03.046875
2556,0.6,2021-12-17 16:43:03.062500
2557,0.08,2021-12-17 16:43:03.078125
2558,-0.97,2021-12-17 16:43:03.093750
2559,-2.21,2021-12-17 16:43:03.109375
2560,-3.22,2021-12-17 16:43:03.125000
2561,-3.78,2021-12-17 16:43:03.140625
2562,-3.84,2021-12-17 16:43:03.156250
2563,-3.56,2021-12-17 16:43:03.171875
2564,-3.12,2021-12-17 16:43:03.187500
2565,-2.55,2021-12-17 16:43:03.203125
2566,-1.74,2021-12-17 16:43:03.218750
2567,-0.58,2021-12-17 16:43:03.234375
2568,0.98,2021-12-17 16:43:03.250000
2569,2.81,2021-12-17 16:43:03.265625
2570,4.61,2021-12-17 16:43:03.281250
2571,6.09,2021-12-17 16:43:03.296875
2572,7.05,2021-12-17 16:43:03.312500
2573,7.51,2021-12-17 16:43:03.328125
2574,7.59,2021-12-17 16:43:03.343750
2575,7.47,2021-12-17 16:43:03.359375
2576,7.25,2021-12-17 16:43:03.375000
2577,7.0,2021-12-17 16:43:03.390625
2578,6.69,2021-12-17 16:43:03.406250
2579,6.3,2021-12-17 16:43:03.421875
2580,5.8,2021-12-17 16:43:03.437500
2581,5.13,2021-12-17 16:43:03.453125
2582,4.22,2021-12-17 16:43:03.468750
2583,3.02,2021-12-17 16:43:03.484375
2584,1.53,2021-12-17 16:43:03.500000
2585,-0.18,2021-12-17 16:43:03.515625
2586,-1.89,2021-12-17 16:43:03.531250
2587,-3.35,2021-12-17 16:43:03.546875
2588,-4.41,2021-12-17 16:43:03.562500
2589,-5.13,2021-12-17 16:43:03.578125
2590,-5.78,2021-12-17 16:43:03.593750
2591,-6.7,2021-12-17 16:43:03.609375
2592,-8.23,2021-12-17 16:43:03.625000
2593,-10.43,2021-12-17 16:43:03.640625
2594,-13.13,2021-12-17 16:43:03.656250
2595,-15.87,2021-12-17 16:43:03.671875
2596,-18.06,2021-12-17 16:43:03.687500
2597,-19.16,2021-12-17 16:43:03.703125
2598,-18.75,2021-12-17 16:43:03.718750
2599,-16.81,2021-12-17 16:43:03.734375
2600,-13.54,2021-12-17 16:43:03.750000
2601,-9.51,2021-12-17 16:43:03.765625
2602,-5.43,2021-12-17 16:43:03.781250
2603,-1.94,2021-12-17 16:43:03.796875
2604,0.47,2021-12-17 16:43:03.812500
2605,1.7,2021-12-17 16:43:03.828125
2606,1.92,2021-12-17 16:43:03.843750
2607,1.54,2021-12-17 16:43:03.859375
2608,0.97,2021-12-17 16:43:03.875000
2609,0.53,2021-12-17 16:43:03.890625
2610,0.35,2021-12-17 16:43:03.906250
2611,0.45,2021-12-17 16:43:03.921875
2612,0.68,2021-12-17 16:43:03.937500
2613,0.88,2021-12-17 16:43:03.953125
2614,0.93,2021-12-17 16:43:03.968750
2615,0.75,2021-12-17 16:43:03.984375
2616,0.34,2021-12-17 16:43:04.000000
2617,-0.25,2021-12-17 16:43:04.015625
2618,-0.97,2021-12-17 16:43:04.031250
2619,-1.82,2021-12-17 16:43:04.046875
2620,-2.7,2021-12-17 16:43:04.062500
2621,-3.51,2021-12-17 16:43:04.078125
2622,-4.11,2021-12-17 16:43:04.093750
2623,-4.36,2021-12-17 16:43:04.109375
2624,-4.23,2021-12-17 16:43:04.125000
2625,-3.84,2021-12-17 16:43:04.140625
2626,-3.4,2021-12-17 16:43:04.156250
2627,-3.16,2021-12-17 16:43:04.171875
2628,-3.3,2021-12-17 16:43:04.187500
2629,-3.77,2021-12-17 16:43:04.203125
2630,-4.38,2021-12-17 16:43:04.218750
2631,-4.92,2021-12-17 16:43:04.234375
2632,-5.18,2021-12-17 16:43:04.250000
2633,-5.05,2021-12-17 16:43:04.265625
2634,-4.42,2021-12-17 16:43:04.281250
2635,-3.22,2021-12-17 16:43:04.296875
2636,-1.48,2021-12-17 16:43:04.312500
2637,0.64,2021-12-17 16:43:04.328125
2638,2.85,2021-12-17 16:43:04.343750
2639,4.85,2021-12-17 16:43:04.359375
2640,6.35,2021-12-17 16:43:04.375000
2641,7.32,2021-12-17 16:43:04.390625
2642,7.81,2021-12-17 16:43:04.406250
2643,8.0,2021-12-17 16:43:04.421875
2644,8.04,2021-12-17 16:43:04.437500
2645,7.97,2021-12-17 16:43:04.453125
2646,7.81,2021-12-17 16:43:04.468750
2647,7.65,2021-12-17 16:43:04.484375
2648,7.71,2021-12-17 16:43:04.500000
2649,8.2,2021-12-17 16:43:04.515625
2650,9.27,2021-12-17 16:43:04.531250
2651,10.71,2021-12-17 16:43:04.546875
2652,12.02,2021-12-17 16:43:04.562500
2653,12.65,2021-12-17 16:43:04.578125
2654,12.21,2021-12-17 16:43:04.593750
2655,10.68,2021-12-17 16:43:04.609375
2656,8.45,2021-12-17 16:43:04.625000
2657,6.14,2021-12-17 16:43:04.640625
2658,4.25,2021-12-17 16:43:04.656250
2659,3.07,2021-12-17 16:43:04.671875
2660,2.46,2021-12-17 16:43:04.687500
2661,2.02,2021-12-17 16:43:04.703125
2662,1.37,2021-12-17 16:43:04.718750
2663,0.32,2021-12-17 16:43:04.734375
2664,-1.06,2021-12-17 16:43:04.750000
2665,-2.58,2021-12-17 16:43:04.765625
2666,-4.03,2021-12-17 16:43:04.781250
2667,-5.32,2021-12-17 16:43:04.796875
2668,-6.46,2021-12-17 16:43:04.812500
2669,-7.45,2021-12-17 16:43:04.828125
2670,-8.32,2021-12-17 16:43:04.843750
2671,-9.0,2021-12-17 16:43:04.859375
2672,-9.49,2021-12-17 16:43:04.875000
2673,-9.79,2021-12-17 16:43:04.890625
2674,-10.05,2021-12-17 16:43:04.906250
2675,-10.3,2021-12-17 16:43:04.921875
2676,-10.41,2021-12-17 16:43:04.937500
2677,-10.11,2021-12-17 16:43:04.953125
2678,-9.07,2021-12-17 16:43:04.968750
2679,-7.27,2021-12-17 16:43:04.984375
2680,-5.11,2021-12-17 16:43:05.000000
2681,-3.3,2021-12-17 16:43:05.015625
2682,-2.51,2021-12-17 16:43:05.031250
2683,-2.97,2021-12-17 16:43:05.046875
2684,-4.33,2021-12-17 16:43:05.062500
2685,-5.84,2021-12-17 16:43:05.078125
2686,-6.73,2021-12-17 16:43:05.093750
2687,-6.63,2021-12-17 16:43:05.109375
2688,-5.64,2021-12-17 16:43:05.125000
2689,-4.17,2021-12-17 16:43:05.140625
2690,-2.69,2021-12-17 16:43:05.156250
2691,-1.41,2021-12-17 16:43:05.171875
2692,-0.31,2021-12-17 16:43:05.187500
2693,0.75,2021-12-17 16:43:05.203125
2694,1.78,2021-12-17 16:43:05.218750
2695,2.72,2021-12-17 16:43:05.234375
2696,3.38,2021-12-17 16:43:05.250000
2697,3.67,2021-12-17 16:43:05.265625
2698,3.58,2021-12-17 16:43:05.281250
2699,3.26,2021-12-17 16:43:05.296875
2700,2.92,2021-12-17 16:43:05.312500
2701,2.72,2021-12-17 16:43:05.328125
2702,2.81,2021-12-17 16:43:05.343750
2703,3.19,2021-12-17 16:43:05.359375
2704,3.76,2021-12-17 16:43:05.375000
2705,4.4,2021-12-17 16:43:05.390625
2706,4.93,2021-12-17 16:43:05.406250
2707,5.26,2021-12-17 16:43:05.421875
2708,5.43,2021-12-17 16:43:05.437500
2709,5.56,2021-12-17 16:43:05.453125
2710,5.73,2021-12-17 16:43:05.468750
2711,6.01,2021-12-17 16:43:05.484375
2712,6.33,2021-12-17 16:43:05.500000
2713,6.59,2021-12-17 16:43:05.515625
2714,6.64,2021-12-17 16:43:05.531250
2715,6.38,2021-12-17 16:43:05.546875
2716,5.72,2021-12-17 16:43:05.562500
2717,4.68,2021-12-17 16:43:05.578125
2718,3.33,2021-12-17 16:43:05.593750
2719,1.8,2021-12-17 16:43:05.609375
2720,0.26,2021-12-17 16:43:05.625000
2721,-1.07,2021-12-17 16:43:05.640625
2722,-2.0,2021-12-17 16:43:05.656250
2723,-2.4,2021-12-17 16:43:05.671875
2724,-2.24,2021-12-17 16:43:05.687500
2725,-1.58,2021-12-17 16:43:05.703125
2726,-0.57,2021-12-17 16:43:05.718750
2727,0.6,2021-12-17 16:43:05.734375
2728,1.68,2021-12-17 16:43:05.750000
2729,2.48,2021-12-17 16:43:05.765625
2730,2.83,2021-12-17 16:43:05.781250
2731,2.66,2021-12-17 16:43:05.796875
2732,1.97,2021-12-17 16:43:05.812500
2733,0.86,2021-12-17 16:43:05.828125
2734,-0.54,2021-12-17 16:43:05.843750
2735,-2.11,2021-12-17 16:43:05.859375
2736,-3.64,2021-12-17 16:43:05.875000
2737,-4.99,2021-12-17 16:43:05.890625
2738,-6.02,2021-12-17 16:43:05.906250
2739,-6.74,2021-12-17 16:43:05.921875
2740,-7.28,2021-12-17 16:43:05.937500
2741,-7.83,2021-12-17 16:43:05.953125
2742,-8.59,2021-12-17 16:43:05.968750
2743,-9.61,2021-12-17 16:43:05.984375
2744,-10.72,2021-12-17 16:43:06.000000
2745,-11.53,2021-12-17 16:43:06.015625
2746,-11.64,2021-12-17 16:43:06.031250
2747,-10.77,2021-12-17 16:43:06.046875
2748,-9.0,2021-12-17 16:43:06.062500
2749,-6.69,2021-12-17 16:43:06.078125
2750,-4.34,2021-12-17 16:43:06.093750
2751,-2.41,2021-12-17 16:43:06.109375
2752,-1.15,2021-12-17 16:43:06.125000
2753,-0.53,2021-12-17 16:43:06.140625
2754,-0.33,2021-12-17 16:43:06.156250
2755,-0.31,2021-12-17 16:43:06.171875
2756,-0.23,2021-12-17 16:43:06.187500
2757,0.05,2021-12-17 16:43:06.203125
2758,0.57,2021-12-17 16:43:06.218750
2759,1.31,2021-12-17 16:43:06.234375
2760,2.19,2021-12-17 16:43:06.250000
2761,3.08,2021-12-17 16:43:06.265625
2762,3.82,2021-12-17 16:43:06.281250
2763,4.31,2021-12-17 16:43:06.296875
2764,4.46,2021-12-17 16:43:06.312500
2765,4.36,2021-12-17 16:43:06.328125
2766,4.17,2021-12-17 16:43:06.343750
2767,4.02,2021-12-17 16:43:06.359375
2768,3.96,2021-12-17 16:43:06.375000
2769,3.89,2021-12-17 16:43:06.390625
2770,3.68,2021-12-17 16:43:06.406250
2771,3.26,2021-12-17 16:43:06.421875
2772,2.67,2021-12-17 16:43:06.437500
2773,2.06,2021-12-17 16:43:06.453125
2774,1.62,2021-12-17 16:43:06.468750
2775,1.48,2021-12-17 16:43:06.484375
2776,1.59,2021-12-17 16:43:06.500000
2777,1.82,2021-12-17 16:43:06.515625
2778,1.97,2021-12-17 16:43:06.531250
2779,1.96,2021-12-17 16:43:06.546875
2780,1.76,2021-12-17 16:43:06.562500
2781,1.47,2021-12-17 16:43:06.578125
2782,1.2,2021-12-17 16:43:06.593750
2783,1.07,2021-12-17 16:43:06.609375
2784,1.1,2021-12-17 16:43:06.625000
2785,1.28,2021-12-17 16:43:06.640625
2786,1.53,2021-12-17 16:43:06.656250
2787,1.74,2021-12-17 16:43:06.671875
2788,1.8,2021-12-17 16:43:06.687500
2789,1.59,2021-12-17 16:43:06.703125
2790,1.09,2021-12-17 16:43:06.718750
2791,0.34,2021-12-17 16:43:06.734375
2792,-0.54,2021-12-17 16:43:06.750000
2793,-1.46,2021-12-17 16:43:06.765625
2794,-2.4,2021-12-17 16:43:06.781250
2795,-3.4,2021-12-17 16:43:06.796875
2796,-4.51,2021-12-17 16:43:06.812500
2797,-5.73,2021-12-17 16:43:06.828125
2798,-6.93,2021-12-17 16:43:06.843750
2799,-7.9,2021-12-17 16:43:06.859375
2800,-8.45,2021-12-17 16:43:06.875000
2801,-8.47,2021-12-17 16:43:06.890625
2802,-8.11,2021-12-17 16:43:06.906250
2803,-7.63,2021-12-17 16:43:06.921875
2804,-7.33,2021-12-17 16:43:06.937500
2805,-7.44,2021-12-17 16:43:06.953125
2806,-7.94,2021-12-17 16:43:06.968750
2807,-8.67,2021-12-17 16:43:06.984375
2808,-9.43,2021-12-17 16:43:07.000000
2809,-10.02,2021-12-17 16:43:07.015625
2810,-10.4,2021-12-17 16:43:07.031250
2811,-10.65,2021-12-17 16:43:07.046875
2812,-10.91,2021-12-17 16:43:07.062500
2813,-11.29,2021-12-17 16:43:07.078125
2814,-11.8,2021-12-17 16:43:07.093750
2815,-12.31,2021-12-17 16:43:07.109375
2816,-12.58,2021-12-17 16:43:07.125000
2817,-12.36,2021-12-17 16:43:07.140625
2818,-11.5,2021-12-17 16:43:07.156250
2819,-9.94,2021-12-17 16:43:07.171875
2820,-7.75,2021-12-17 16:43:07.187500
2821,-5.11,2021-12-17 16:43:07.203125
2822,-2.3,2021-12-17 16:43:07.218750
2823,0.32,2021-12-17 16:43:07.234375
2824,2.43,2021-12-17 16:43:07.250000
2825,3.82,2021-12-17 16:43:07.265625
2826,4.48,2021-12-17 16:43:07.281250
2827,4.58,2021-12-17 16:43:07.296875
2828,4.46,2021-12-17 16:43:07.312500
2829,4.48,2021-12-17 16:43:07.328125
2830,4.88,2021-12-17 16:43:07.343750
2831,5.68,2021-12-17 16:43:07.359375
2832,6.69,2021-12-17 16:43:07.375000
2833,7.67,2021-12-17 16:43:07.390625
2834,8.48,2021-12-17 16:43:07.406250
2835,9.17,2021-12-17 16:43:07.421875
2836,9.85,2021-12-17 16:43:07.437500
2837,10.66,2021-12-17 16:43:07.453125
2838,11.58,2021-12-17 16:43:07.468750
2839,12.46,2021-12-17 16:43:07.484375
2840,13.05,2021-12-17 16:43:07.500000
2841,13.1,2021-12-17 16:43:07.515625
2842,12.51,2021-12-17 16:43:07.531250
2843,11.34,2021-12-17 16:43:07.546875
2844,9.83,2021-12-17 16:43:07.562500
2845,8.26,2021-12-17 16:43:07.578125
2846,6.91,2021-12-17 16:43:07.593750
2847,5.92,2021-12-17 16:43:07.609375
2848,5.3,2021-12-17 16:43:07.625000
2849,4.94,2021-12-17 16:43:07.640625
2850,4.69,2021-12-17 16:43:07.656250
2851,4.39,2021-12-17 16:43:07.671875
2852,3.98,2021-12-17 16:43:07.687500
2853,3.47,2021-12-17 16:43:07.703125
2854,2.89,2021-12-17 16:43:07.718750
2855,2.36,2021-12-17 16:43:07.734375
2856,1.89,2021-12-17 16:43:07.750000
2857,1.41,2021-12-17 16:43:07.765625
2858,0.85,2021-12-17 16:43:07.781250
2859,0.2,2021-12-17 16:43:07.796875
2860,-0.49,2021-12-17 16:43:07.812500
2861,-1.06,2021-12-17 16:43:07.828125
2862,-1.35,2021-12-17 16:43:07.843750
2863,-1.3,2021-12-17 16:43:07.859375
2864,-0.97,2021-12-17 16:43:07.875000
2865,-0.57,2021-12-17 16:43:07.890625
2866,-0.33,2021-12-17 16:43:07.906250
2867,-0.33,2021-12-17 16:43:07.921875
2868,-0.57,2021-12-17 16:43:07.937500
2869,-0.95,2021-12-17 16:43:07.953125
2870,-1.38,2021-12-17 16:43:07.968750
2871,-1.85,2021-12-17 16:43:07.984375
2872,-2.4,2021-12-17 16:43:08.000000
2873,-3.02,2021-12-17 16:43:08.015625
2874,-3.65,2021-12-17 16:43:08.031250
2875,-4.15,2021-12-17 16:43:08.046875
2876,-4.41,2021-12-17 16:43:08.062500
2877,-4.44,2021-12-17 16:43:08.078125
2878,-4.41,2021-12-17 16:43:08.093750
2879,-4.45,2021-12-17 16:43:08.109375
2880,-4.63,2021-12-17 16:43:08.125000
2881,-4.81,2021-12-17 16:43:08.140625
2882,-4.7,2021-12-17 16:43:08.156250
2883,-4.01,2021-12-17 16:43:08.171875
2884,-2.64,2021-12-17 16:43:08.187500
2885,-0.7,2021-12-17 16:43:08.203125
2886,1.36,2021-12-17 16:43:08.218750
2887,3.04,2021-12-17 16:43:08.234375
2888,4.03,2021-12-17 16:43:08.250000
2889,4.27,2021-12-17 16:43:08.265625
2890,4.01,2021-12-17 16:43:08.281250
2891,3.64,2021-12-17 16:43:08.296875
2892,3.55,2021-12-17 16:43:08.312500
2893,3.92,2021-12-17 16:43:08.328125
2894,4.71,2021-12-17 16:43:08.343750
2895,5.7,2021-12-17 16:43:08.359375
2896,6.64,2021-12-17 16:43:08.375000
2897,7.38,2021-12-17 16:43:08.390625
2898,7.87,2021-12-17 16:43:08.406250
2899,8.14,2021-12-17 16:43:08.421875
2900,8.26,2021-12-17 16:43:08.437500
2901,8.3,2021-12-17 16:43:08.453125
2902,8.27,2021-12-17 16:43:08.468750
2903,8.17,2021-12-17 16:43:08.484375
2904,7.96,2021-12-17 16:43:08.500000
2905,7.62,2021-12-17 16:43:08.515625
2906,7.14,2021-12-17 16:43:08.531250
2907,6.58,2021-12-17 16:43:08.546875
2908,5.97,2021-12-17 16:43:08.562500
2909,5.38,2021-12-17 16:43:08.578125
2910,4.86,2021-12-17 16:43:08.593750
2911,4.39,2021-12-17 16:43:08.609375
2912,3.97,2021-12-17 16:43:08.625000
2913,3.56,2021-12-17 16:43:08.640625
2914,3.16,2021-12-17 16:43:08.656250
2915,2.81,2021-12-17 16:43:08.671875
2916,2.55,2021-12-17 16:43:08.687500
2917,2.39,2021-12-17 16:43:08.703125
2918,2.31,2021-12-17 16:43:08.718750
2919,2.17,2021-12-17 16:43:08.734375
2920,1.87,2021-12-17 16:43:08.750000
2921,1.34,2021-12-17 16:43:08.765625
2922,0.65,2021-12-17 16:43:08.781250
2923,-0.08,2021-12-17 16:43:08.796875
2924,-0.67,2021-12-17 16:43:08.812500
2925,-0.94,2021-12-17 16:43:08.828125
2926,-0.78,2021-12-17 16:43:08.843750
2927,-0.17,2021-12-17 16:43:08.859375
2928,0.78,2021-12-17 16:43:08.875000
2929,1.84,2021-12-17 16:43:08.890625
2930,2.73,2021-12-17 16:43:08.906250
2931,3.25,2021-12-17 16:43:08.921875
2932,3.33,2021-12-17 16:43:08.937500
2933,3.08,2021-12-17 16:43:08.953125
2934,2.69,2021-12-17 16:43:08.968750
2935,2.34,2021-12-17 16:43:08.984375
2936,2.12,2021-12-17 16:43:09.000000
2937,1.96,2021-12-17 16:43:09.015625
2938,1.73,2021-12-17 16:43:09.031250
2939,1.34,2021-12-17 16:43:09.046875
2940,0.78,2021-12-17 16:43:09.062500
2941,0.11,2021-12-17 16:43:09.078125
2942,-0.56,2021-12-17 16:43:09.093750
2943,-1.14,2021-12-17 16:43:09.109375
2944,-1.6,2021-12-17 16:43:09.125000
2945,-1.97,2021-12-17 16:43:09.140625
2946,-2.25,2021-12-17 16:43:09.156250
2947,-2.53,2021-12-17 16:43:09.171875
2948,-2.81,2021-12-17 16:43:09.187500
2949,-3.18,2021-12-17 16:43:09.203125
2950,-3.66,2021-12-17 16:43:09.218750
2951,-4.28,2021-12-17 16:43:09.234375
2952,-5.0,2021-12-17 16:43:09.250000
2953,-5.79,2021-12-17 16:43:09.265625
2954,-6.69,2021-12-17 16:43:09.281250
2955,-7.72,2021-12-17 16:43:09.296875
2956,-8.86,2021-12-17 16:43:09.312500
2957,-9.96,2021-12-17 16:43:09.328125
2958,-10.79,2021-12-17 16:43:09.343750
2959,-10.99,2021-12-17 16:43:09.359375
2960,-10.33,2021-12-17 16:43:09.375000
2961,-8.79,2021-12-17 16:43:09.390625
2962,-6.53,2021-12-17 16:43:09.406250
2963,-3.97,2021-12-17 16:43:09.421875
2964,-1.53,2021-12-17 16:43:09.437500
2965,0.4,2021-12-17 16:43:09.453125
2966,1.65,2021-12-17 16:43:09.468750
2967,2.27,2021-12-17 16:43:09.484375
2968,2.48,2021-12-17 16:43:09.500000
2969,2.54,2021-12-17 16:43:09.515625
2970,2.67,2021-12-17 16:43:09.531250
2971,3.0,2021-12-17 16:43:09.546875
2972,3.5,2021-12-17 16:43:09.562500
2973,4.03,2021-12-17 16:43:09.578125
2974,4.45,2021-12-17 16:43:09.593750
2975,4.57,2021-12-17 16:43:09.609375
2976,4.38,2021-12-17 16:43:09.625000
2977,3.94,2021-12-17 16:43:09.640625
2978,3.36,2021-12-17 16:43:09.656250
2979,2.76,2021-12-17 16:43:09.671875
2980,2.28,2021-12-17 16:43:09.687500
2981,2.03,2021-12-17 16:43:09.703125
2982,2.11,2021-12-17 16:43:09.718750
2983,2.59,2021-12-17 16:43:09.734375
2984,3.43,2021-12-17 16:43:09.750000
2985,4.55,2021-12-17 16:43:09.765625
2986,5.74,2021-12-17 16:43:09.781250
2987,6.76,2021-12-17 16:43:09.796875
2988,7.4,2021-12-17 16:43:09.812500
2989,7.57,2021-12-17 16:43:09.828125
2990,7.31,2021-12-17 16:43:09.843750
2991,6.7,2021-12-17 16:43:09.859375
2992,5.95,2021-12-17 16:43:09.875000
2993,5.16,2021-12-17 16:43:09.890625
2994,4.48,2021-12-17 16:43:09.906250
2995,3.98,2021-12-17 16:43:09.921875
2996,3.65,2021-12-17 16:43:09.937500
2997,3.48,2021-12-17 16:43:09.953125
2998,3.39,2021-12-17 16:43:09.968750
2999,3.29,2021-12-17 16:43:09.984375
3000,3.15,2021-12-17 16:43:10.000000
3001,3.0,2021-12-17 16:43:10.015625
3002,2.86,2021-12-17 16:43:10.031250
3003,2.77,2021-12-17 16:43:10.046875
3004,2.78,2021-12-17 16:43:10.062500
3005,2.84,2021-12-17 16:43:10.078125
3006,2.96,2021-12-17 16:43:10.093750
3007,3.12,2021-12-17 16:43:10.109375
3008,3.32,2021-12-17 16:43:10.125000
3009,3.54,2021-12-17 16:43:10.140625
3010,3.74,2021-12-17 16:43:10.156250
3011,3.8,2021-12-17 16:43:10.171875
3012,3.61,2021-12-17 16:43:10.187500
3013,3.18,2021-12-17 16:43:10.203125
3014,2.56,2021-12-17 16:43:10.218750
3015,1.91,2021-12-17 16:43:10.234375
3016,1.33,2021-12-17 16:43:10.250000
3017,0.86,2021-12-17 16:43:10.265625
3018,0.4,2021-12-17 16:43:10.281250
3019,-0.14,2021-12-17 16:43:10.296875
3020,-0.78,2021-12-17 16:43:10.312500
3021,-1.43,2021-12-17 16:43:10.328125
3022,-1.87,2021-12-17 16:43:10.343750
3023,-1.97,2021-12-17 16:43:10.359375
3024,-1.75,2021-12-17 16:43:10.375000
3025,-1.41,2021-12-17 16:43:10.390625
3026,-1.26,2021-12-17 16:43:10.406250
3027,-1.55,2021-12-17 16:43:10.421875
3028,-2.27,2021-12-17 16:43:10.437500
3029,-3.32,2021-12-17 16:43:10.453125
3030,-4.45,2021-12-17 16:43:10.468750
3031,-5.58,2021-12-17 16:43:10.484375
3032,-6.68,2021-12-17 16:43:10.500000
3033,-7.82,2021-12-17 16:43:10.515625
3034,-8.97,2021-12-17 16:43:10.531250
3035,-9.96,2021-12-17 16:43:10.546875
3036,-10.43,2021-12-17 16:43:10.562500
3037,-10.02,2021-12-17 16:43:10.578125
3038,-8.63,2021-12-17 16:43:10.593750
3039,-6.41,2021-12-17 16:43:10.609375
3040,-3.83,2021-12-17 16:43:10.625000
3041,-1.42,2021-12-17 16:43:10.640625
3042,0.36,2021-12-17 16:43:10.656250
3043,1.31,2021-12-17 16:43:10.671875
3044,1.5,2021-12-17 16:43:10.687500
3045,1.2,2021-12-17 16:43:10.703125
3046,0.8,2021-12-17 16:43:10.718750
3047,0.61,2021-12-17 16:43:10.734375
3048,0.81,2021-12-17 16:43:10.750000
3049,1.38,2021-12-17 16:43:10.765625
3050,2.15,2021-12-17 16:43:10.781250
3051,2.89,2021-12-17 16:43:10.796875
3052,3.4,2021-12-17 16:43:10.812500
3053,3.6,2021-12-17 16:43:10.828125
3054,3.53,2021-12-17 16:43:10.843750
3055,3.36,2021-12-17 16:43:10.859375
3056,3.18,2021-12-17 16:43:10.875000
3057,3.08,2021-12-17 16:43:10.890625
3058,3.01,2021-12-17 16:43:10.906250
3059,2.87,2021-12-17 16:43:10.921875
3060,2.61,2021-12-17 16:43:10.937500
3061,2.25,2021-12-17 16:43:10.953125
3062,1.93,2021-12-17 16:43:10.968750
3063,1.76,2021-12-17 16:43:10.984375
3064,1.83,2021-12-17 16:43:11.000000
3065,2.03,2021-12-17 16:43:11.015625
3066,2.21,2021-12-17 16:43:11.031250
3067,2.2,2021-12-17 16:43:11.046875
3068,1.98,2021-12-17 16:43:11.062500
3069,1.69,2021-12-17 16:43:11.078125
3070,1.52,2021-12-17 16:43:11.093750
3071,1.65,2021-12-17 16:43:11.109375
3072,2.11,2021-12-17 16:43:11.125000
3073,2.8,2021-12-17 16:43:11.140625
3074,3.54,2021-12-17 16:43:11.156250
3075,4.14,2021-12-17 16:43:11.171875
3076,4.48,2021-12-17 16:43:11.187500
3077,4.54,2021-12-17 16:43:11.203125
3078,4.38,2021-12-17 16:43:11.218750
3079,4.02,2021-12-17 16:43:11.234375
3080,3.53,2021-12-17 16:43:11.250000
3081,2.95,2021-12-17 16:43:11.265625
3082,2.33,2021-12-17 16:43:11.281250
3083,1.69,2021-12-17 16:43:11.296875
3084,1.05,2021-12-17 16:43:11.312500
3085,0.44,2021-12-17 16:43:11.328125
3086,-0.13,2021-12-17 16:43:11.343750
3087,-0.6,2021-12-17 16:43:11.359375
3088,-0.94,2021-12-17 16:43:11.375000
3089,-1.12,2021-12-17 16:43:11.390625
3090,-1.17,2021-12-17 16:43:11.406250
3091,-1.15,2021-12-17 16:43:11.421875
3092,-1.11,2021-12-17 16:43:11.437500
3093,-1.09,2021-12-17 16:43:11.453125
3094,-1.11,2021-12-17 16:43:11.468750
3095,-1.18,2021-12-17 16:43:11.484375
3096,-1.3,2021-12-17 16:43:11.500000
3097,-1.49,2021-12-17 16:43:11.515625
3098,-1.75,2021-12-17 16:43:11.531250
3099,-2.06,2021-12-17 16:43:11.546875
3100,-2.41,2021-12-17 16:43:11.562500
3101,-2.75,2021-12-17 16:43:11.578125
3102,-3.1,2021-12-17 16:43:11.593750
3103,-3.51,2021-12-17 16:43:11.609375
3104,-4.1,2021-12-17 16:43:11.625000
3105,-4.86,2021-12-17 16:43:11.640625
3106,-5.8,2021-12-17 16:43:11.656250
3107,-6.78,2021-12-17 16:43:11.671875
3108,-7.67,2021-12-17 16:43:11.687500
3109,-8.42,2021-12-17 16:43:11.703125
3110,-8.97,2021-12-17 16:43:11.718750
3111,-9.33,2021-12-17 16:43:11.734375
3112,-9.49,2021-12-17 16:43:11.750000
3113,-9.38,2021-12-17 16:43:11.765625
3114,-8.85,2021-12-17 16:43:11.781250
3115,-7.83,2021-12-17 16:43:11.796875
3116,-6.29,2021-12-17 16:43:11.812500
3117,-4.48,2021-12-17 16:43:11.828125
3118,-2.78,2021-12-17 16:43:11.843750
3119,-1.59,2021-12-17 16:43:11.859375
3120,-1.17,2021-12-17 16:43:11.875000
3121,-1.52,2021-12-17 16:43:11.890625
3122,-2.32,2021-12-17 16:43:11.906250
3123,-3.14,2021-12-17 16:43:11.921875
3124,-3.6,2021-12-17 16:43:11.937500
3125,-3.52,2021-12-17 16:43:11.953125
3126,-2.94,2021-12-17 16:43:11.968750
3127,-2.02,2021-12-17 16:43:11.984375
3128,-0.98,2021-12-17 16:43:12.000000
3129,0.08,2021-12-17 16:43:12.015625
3130,1.16,2021-12-17 16:43:12.031250
3131,2.24,2021-12-17 16:43:12.046875
3132,3.23,2021-12-17 16:43:12.062500
3133,3.98,2021-12-17 16:43:12.078125
3134,4.37,2021-12-17 16:43:12.093750
3135,4.36,2021-12-17 16:43:12.109375
3136,4.01,2021-12-17 16:43:12.125000
3137,3.49,2021-12-17 16:43:12.140625
3138,2.88,2021-12-17 16:43:12.156250
3139,2.31,2021-12-17 16:43:12.171875
3140,1.75,2021-12-17 16:43:12.187500
3141,1.18,2021-12-17 16:43:12.203125
3142,0.57,2021-12-17 16:43:12.218750
3143,-0.03,2021-12-17 16:43:12.234375
3144,-0.56,2021-12-17 16:43:12.250000
3145,-0.95,2021-12-17 16:43:12.265625
3146,-1.23,2021-12-17 16:43:12.281250
3147,-1.46,2021-12-17 16:43:12.296875
3148,-1.66,2021-12-17 16:43:12.312500
3149,-1.83,2021-12-17 16:43:12.328125
3150,-1.8,2021-12-17 16:43:12.343750
3151,-1.41,2021-12-17 16:43:12.359375
3152,-0.55,2021-12-17 16:43:12.375000
3153,0.73,2021-12-17 16:43:12.390625
3154,2.17,2021-12-17 16:43:12.406250
3155,3.45,2021-12-17 16:43:12.421875
3156,4.3,2021-12-17 16:43:12.437500
3157,4.63,2021-12-17 16:43:12.453125
3158,4.51,2021-12-17 16:43:12.468750
3159,4.13,2021-12-17 16:43:12.484375
3160,3.69,2021-12-17 16:43:12.500000
3161,3.25,2021-12-17 16:43:12.515625
3162,2.77,2021-12-17 16:43:12.531250
3163,2.16,2021-12-17 16:43:12.546875
3164,1.38,2021-12-17 16:43:12.562500
