,BVP,time
0,-159.4,2022-08-17 13:53:55.453125
1,-148.23,2022-08-17 13:53:55.468750
2,-135.07,2022-08-17 13:53:55.484375
3,-119.77,2022-08-17 13:53:55.500000
4,-101.73,2022-08-17 13:53:55.515625
5,-79.74,2022-08-17 13:53:55.531250
6,-52.52,2022-08-17 13:53:55.546875
7,-19.74,2022-08-17 13:53:55.562500
8,17.2,2022-08-17 13:53:55.578125
9,55.1,2022-08-17 13:53:55.593750
10,89.89,2022-08-17 13:53:55.609375
11,118.1,2022-08-17 13:53:55.625000
12,138.14,2022-08-17 13:53:55.640625
13,150.56,2022-08-17 13:53:55.656250
14,157.4,2022-08-17 13:53:55.671875
15,160.8,2022-08-17 13:53:55.687500
16,161.97,2022-08-17 13:53:55.703125
17,160.86,2022-08-17 13:53:55.718750
18,156.61,2022-08-17 13:53:55.734375
19,148.47,2022-08-17 13:53:55.750000
20,136.37,2022-08-17 13:53:55.765625
21,120.97,2022-08-17 13:53:55.781250
22,103.2,2022-08-17 13:53:55.796875
23,83.78,2022-08-17 13:53:55.812500
24,63.12,2022-08-17 13:53:55.828125
25,41.61,2022-08-17 13:53:55.843750
26,19.98,2022-08-17 13:53:55.859375
27,-0.55,2022-08-17 13:53:55.875000
28,-18.59,2022-08-17 13:53:55.890625
29,-33.09,2022-08-17 13:53:55.906250
30,-43.78,2022-08-17 13:53:55.921875
31,-51.16,2022-08-17 13:53:55.937500
32,-55.91,2022-08-17 13:53:55.953125
33,-58.25,2022-08-17 13:53:55.968750
34,-57.93,2022-08-17 13:53:55.984375
35,-54.56,2022-08-17 13:53:56.000000
36,-48.1,2022-08-17 13:53:56.015625
37,-39.0,2022-08-17 13:53:56.031250
38,-28.11,2022-08-17 13:53:56.046875
39,-16.42,2022-08-17 13:53:56.062500
40,-4.94,2022-08-17 13:53:56.078125
41,5.65,2022-08-17 13:53:56.093750
42,14.96,2022-08-17 13:53:56.109375
43,22.85,2022-08-17 13:53:56.125000
44,29.23,2022-08-17 13:53:56.140625
45,34.22,2022-08-17 13:53:56.156250
46,38.22,2022-08-17 13:53:56.171875
47,41.81,2022-08-17 13:53:56.187500
48,45.27,2022-08-17 13:53:56.203125
49,47.69,2022-08-17 13:53:56.218750
50,47.94,2022-08-17 13:53:56.234375
51,45.45,2022-08-17 13:53:56.250000
52,40.86,2022-08-17 13:53:56.265625
53,35.85,2022-08-17 13:53:56.281250
54,32.34,2022-08-17 13:53:56.296875
55,31.71,2022-08-17 13:53:56.312500
56,34.1,2022-08-17 13:53:56.328125
57,38.22,2022-08-17 13:53:56.343750
58,40.74,2022-08-17 13:53:56.359375
59,39.31,2022-08-17 13:53:56.375000
60,33.96,2022-08-17 13:53:56.390625
61,26.67,2022-08-17 13:53:56.406250
62,19.62,2022-08-17 13:53:56.421875
63,13.84,2022-08-17 13:53:56.437500
64,9.24,2022-08-17 13:53:56.453125
65,5.56,2022-08-17 13:53:56.468750
66,2.67,2022-08-17 13:53:56.484375
67,-2.03,2022-08-17 13:53:56.500000
68,-9.84,2022-08-17 13:53:56.515625
69,-20.33,2022-08-17 13:53:56.531250
70,-32.34,2022-08-17 13:53:56.546875
71,-45.91,2022-08-17 13:53:56.562500
72,-62.6,2022-08-17 13:53:56.578125
73,-84.08,2022-08-17 13:53:56.593750
74,-110.28,2022-08-17 13:53:56.609375
75,-140.07,2022-08-17 13:53:56.625000
76,-176.15,2022-08-17 13:53:56.640625
77,-219.2,2022-08-17 13:53:56.656250
78,-266.3,2022-08-17 13:53:56.671875
79,-311.82,2022-08-17 13:53:56.687500
80,-350.57,2022-08-17 13:53:56.703125
81,-379.8,2022-08-17 13:53:56.718750
82,-398.39,2022-08-17 13:53:56.734375
83,-405.05,2022-08-17 13:53:56.750000
84,-399.72,2022-08-17 13:53:56.765625
85,-389.3,2022-08-17 13:53:56.781250
86,-379.36,2022-08-17 13:53:56.796875
87,-371.2,2022-08-17 13:53:56.812500
88,-362.66,2022-08-17 13:53:56.828125
89,-352.13,2022-08-17 13:53:56.843750
90,-341.13,2022-08-17 13:53:56.859375
91,-332.8,2022-08-17 13:53:56.875000
92,-328.49,2022-08-17 13:53:56.890625
93,-289.48,2022-08-17 13:53:56.906250
94,-198.98,2022-08-17 13:53:56.921875
95,-69.85,2022-08-17 13:53:56.937500
96,65.21,2022-08-17 13:53:56.953125
97,179.18,2022-08-17 13:53:56.968750
98,261.0,2022-08-17 13:53:56.984375
99,309.65,2022-08-17 13:53:57.000000
100,324.79,2022-08-17 13:53:57.015625
101,318.82,2022-08-17 13:53:57.031250
102,302.85,2022-08-17 13:53:57.046875
103,280.81,2022-08-17 13:53:57.062500
104,256.64,2022-08-17 13:53:57.078125
105,236.24,2022-08-17 13:53:57.093750
106,225.36,2022-08-17 13:53:57.109375
107,229.27,2022-08-17 13:53:57.125000
108,247.0,2022-08-17 13:53:57.140625
109,266.84,2022-08-17 13:53:57.156250
110,276.11,2022-08-17 13:53:57.171875
111,268.26,2022-08-17 13:53:57.187500
112,243.85,2022-08-17 13:53:57.203125
113,207.29,2022-08-17 13:53:57.218750
114,164.29,2022-08-17 13:53:57.234375
115,120.19,2022-08-17 13:53:57.250000
116,79.29,2022-08-17 13:53:57.265625
117,42.87,2022-08-17 13:53:57.281250
118,10.85,2022-08-17 13:53:57.296875
119,-15.13,2022-08-17 13:53:57.312500
120,-33.59,2022-08-17 13:53:57.328125
121,-46.9,2022-08-17 13:53:57.343750
122,-58.7,2022-08-17 13:53:57.359375
123,-71.54,2022-08-17 13:53:57.375000
124,-86.39,2022-08-17 13:53:57.390625
125,-103.47,2022-08-17 13:53:57.406250
126,-123.33,2022-08-17 13:53:57.421875
127,-145.81,2022-08-17 13:53:57.437500
128,-168.22,2022-08-17 13:53:57.453125
129,-186.84,2022-08-17 13:53:57.468750
130,-199.33,2022-08-17 13:53:57.484375
131,-204.22,2022-08-17 13:53:57.500000
132,-200.4,2022-08-17 13:53:57.515625
133,-187.48,2022-08-17 13:53:57.531250
134,-166.69,2022-08-17 13:53:57.546875
135,-141.45,2022-08-17 13:53:57.562500
136,-115.87,2022-08-17 13:53:57.578125
137,-92.6,2022-08-17 13:53:57.593750
138,-72.8,2022-08-17 13:53:57.609375
139,-56.93,2022-08-17 13:53:57.625000
140,-44.97,2022-08-17 13:53:57.640625
141,-36.25,2022-08-17 13:53:57.656250
142,-29.66,2022-08-17 13:53:57.671875
143,-23.89,2022-08-17 13:53:57.687500
144,-17.9,2022-08-17 13:53:57.703125
145,-10.75,2022-08-17 13:53:57.718750
146,-1.29,2022-08-17 13:53:57.734375
147,11.2,2022-08-17 13:53:57.750000
148,26.83,2022-08-17 13:53:57.765625
149,45.06,2022-08-17 13:53:57.781250
150,65.45,2022-08-17 13:53:57.796875
151,88.08,2022-08-17 13:53:57.812500
152,113.58,2022-08-17 13:53:57.828125
153,142.26,2022-08-17 13:53:57.843750
154,173.35,2022-08-17 13:53:57.859375
155,204.67,2022-08-17 13:53:57.875000
156,232.79,2022-08-17 13:53:57.890625
157,253.93,2022-08-17 13:53:57.906250
158,265.04,2022-08-17 13:53:57.921875
159,264.74,2022-08-17 13:53:57.937500
160,253.6,2022-08-17 13:53:57.953125
161,233.83,2022-08-17 13:53:57.968750
162,208.7,2022-08-17 13:53:57.984375
163,181.95,2022-08-17 13:53:58.000000
164,157.26,2022-08-17 13:53:58.015625
165,137.49,2022-08-17 13:53:58.031250
166,123.91,2022-08-17 13:53:58.046875
167,115.61,2022-08-17 13:53:58.062500
168,109.78,2022-08-17 13:53:58.078125
169,102.83,2022-08-17 13:53:58.093750
170,92.14,2022-08-17 13:53:58.109375
171,77.38,2022-08-17 13:53:58.125000
172,60.64,2022-08-17 13:53:58.140625
173,45.24,2022-08-17 13:53:58.156250
174,33.86,2022-08-17 13:53:58.171875
175,27.31,2022-08-17 13:53:58.187500
176,24.6,2022-08-17 13:53:58.203125
177,24.18,2022-08-17 13:53:58.218750
178,25.35,2022-08-17 13:53:58.234375
179,28.86,2022-08-17 13:53:58.250000
180,36.23,2022-08-17 13:53:58.265625
181,48.48,2022-08-17 13:53:58.281250
182,64.94,2022-08-17 13:53:58.296875
183,83.1,2022-08-17 13:53:58.312500
184,99.44,2022-08-17 13:53:58.328125
185,110.84,2022-08-17 13:53:58.343750
186,115.76,2022-08-17 13:53:58.359375
187,114.56,2022-08-17 13:53:58.375000
188,109.06,2022-08-17 13:53:58.390625
189,101.61,2022-08-17 13:53:58.406250
190,94.22,2022-08-17 13:53:58.421875
191,87.9,2022-08-17 13:53:58.437500
192,82.55,2022-08-17 13:53:58.453125
193,77.1,2022-08-17 13:53:58.468750
194,70.04,2022-08-17 13:53:58.484375
195,60.13,2022-08-17 13:53:58.500000
196,47.04,2022-08-17 13:53:58.515625
197,31.71,2022-08-17 13:53:58.531250
198,16.14,2022-08-17 13:53:58.546875
199,2.68,2022-08-17 13:53:58.562500
200,-6.86,2022-08-17 13:53:58.578125
201,-11.81,2022-08-17 13:53:58.593750
202,-12.84,2022-08-17 13:53:58.609375
203,-11.37,2022-08-17 13:53:58.625000
204,-8.83,2022-08-17 13:53:58.640625
205,-6.17,2022-08-17 13:53:58.656250
206,-3.59,2022-08-17 13:53:58.671875
207,-0.9,2022-08-17 13:53:58.687500
208,2.05,2022-08-17 13:53:58.703125
209,5.12,2022-08-17 13:53:58.718750
210,7.92,2022-08-17 13:53:58.734375
211,10.1,2022-08-17 13:53:58.750000
212,11.72,2022-08-17 13:53:58.765625
213,13.24,2022-08-17 13:53:58.781250
214,15.39,2022-08-17 13:53:58.796875
215,18.7,2022-08-17 13:53:58.812500
216,23.14,2022-08-17 13:53:58.828125
217,28.01,2022-08-17 13:53:58.843750
218,32.15,2022-08-17 13:53:58.859375
219,34.41,2022-08-17 13:53:58.875000
220,34.05,2022-08-17 13:53:58.890625
221,31.09,2022-08-17 13:53:58.906250
222,26.26,2022-08-17 13:53:58.921875
223,20.75,2022-08-17 13:53:58.937500
224,15.72,2022-08-17 13:53:58.953125
225,11.81,2022-08-17 13:53:58.968750
226,8.91,2022-08-17 13:53:58.984375
227,6.24,2022-08-17 13:53:59.000000
228,2.8,2022-08-17 13:53:59.015625
229,-2.21,2022-08-17 13:53:59.031250
230,-8.98,2022-08-17 13:53:59.046875
231,-17.15,2022-08-17 13:53:59.062500
232,-26.06,2022-08-17 13:53:59.078125
233,-35.1,2022-08-17 13:53:59.093750
234,-43.98,2022-08-17 13:53:59.109375
235,-52.66,2022-08-17 13:53:59.125000
236,-61.23,2022-08-17 13:53:59.140625
237,-69.67,2022-08-17 13:53:59.156250
238,-77.87,2022-08-17 13:53:59.171875
239,-85.7,2022-08-17 13:53:59.187500
240,-93.2,2022-08-17 13:53:59.203125
241,-100.54,2022-08-17 13:53:59.218750
242,-107.85,2022-08-17 13:53:59.234375
243,-114.92,2022-08-17 13:53:59.250000
244,-121.06,2022-08-17 13:53:59.265625
245,-125.17,2022-08-17 13:53:59.281250
246,-126.14,2022-08-17 13:53:59.296875
247,-123.25,2022-08-17 13:53:59.312500
248,-116.48,2022-08-17 13:53:59.328125
249,-106.44,2022-08-17 13:53:59.343750
250,-94.11,2022-08-17 13:53:59.359375
251,-80.51,2022-08-17 13:53:59.375000
252,-66.47,2022-08-17 13:53:59.390625
253,-52.59,2022-08-17 13:53:59.406250
254,-39.32,2022-08-17 13:53:59.421875
255,-27.05,2022-08-17 13:53:59.437500
256,-16.15,2022-08-17 13:53:59.453125
257,-6.92,2022-08-17 13:53:59.468750
258,0.49,2022-08-17 13:53:59.484375
259,6.12,2022-08-17 13:53:59.500000
260,10.18,2022-08-17 13:53:59.515625
261,13.1,2022-08-17 13:53:59.531250
262,15.34,2022-08-17 13:53:59.546875
263,17.33,2022-08-17 13:53:59.562500
264,19.39,2022-08-17 13:53:59.578125
265,21.58,2022-08-17 13:53:59.593750
266,23.78,2022-08-17 13:53:59.609375
267,25.73,2022-08-17 13:53:59.625000
268,27.12,2022-08-17 13:53:59.640625
269,27.78,2022-08-17 13:53:59.656250
270,27.61,2022-08-17 13:53:59.671875
271,26.69,2022-08-17 13:53:59.687500
272,25.12,2022-08-17 13:53:59.703125
273,23.05,2022-08-17 13:53:59.718750
274,20.68,2022-08-17 13:53:59.734375
275,18.21,2022-08-17 13:53:59.750000
276,15.86,2022-08-17 13:53:59.765625
277,13.77,2022-08-17 13:53:59.781250
278,11.97,2022-08-17 13:53:59.796875
279,10.29,2022-08-17 13:53:59.812500
280,8.42,2022-08-17 13:53:59.828125
281,6.02,2022-08-17 13:53:59.843750
282,2.9,2022-08-17 13:53:59.859375
283,-0.88,2022-08-17 13:53:59.875000
284,-4.99,2022-08-17 13:53:59.890625
285,-8.86,2022-08-17 13:53:59.906250
286,-11.94,2022-08-17 13:53:59.921875
287,-13.9,2022-08-17 13:53:59.937500
288,-14.76,2022-08-17 13:53:59.953125
289,-14.84,2022-08-17 13:53:59.968750
290,-14.66,2022-08-17 13:53:59.984375
291,-14.66,2022-08-17 13:54:00.000000
292,-15.08,2022-08-17 13:54:00.015625
293,-15.93,2022-08-17 13:54:00.031250
294,-17.03,2022-08-17 13:54:00.046875
295,-18.14,2022-08-17 13:54:00.062500
296,-19.1,2022-08-17 13:54:00.078125
297,-19.92,2022-08-17 13:54:00.093750
298,-20.76,2022-08-17 13:54:00.109375
299,-21.75,2022-08-17 13:54:00.125000
300,-22.9,2022-08-17 13:54:00.140625
301,-23.86,2022-08-17 13:54:00.156250
302,-23.93,2022-08-17 13:54:00.171875
303,-22.26,2022-08-17 13:54:00.187500
304,-18.09,2022-08-17 13:54:00.203125
305,-11.09,2022-08-17 13:54:00.218750
306,-1.49,2022-08-17 13:54:00.234375
307,10.0,2022-08-17 13:54:00.250000
308,22.41,2022-08-17 13:54:00.265625
309,34.8,2022-08-17 13:54:00.281250
310,46.38,2022-08-17 13:54:00.296875
311,56.63,2022-08-17 13:54:00.312500
312,65.24,2022-08-17 13:54:00.328125
313,72.07,2022-08-17 13:54:00.343750
314,77.14,2022-08-17 13:54:00.359375
315,80.62,2022-08-17 13:54:00.375000
316,82.78,2022-08-17 13:54:00.390625
317,83.88,2022-08-17 13:54:00.406250
318,84.13,2022-08-17 13:54:00.421875
319,83.72,2022-08-17 13:54:00.437500
320,82.83,2022-08-17 13:54:00.453125
321,81.79,2022-08-17 13:54:00.468750
322,80.95,2022-08-17 13:54:00.484375
323,80.67,2022-08-17 13:54:00.500000
324,81.11,2022-08-17 13:54:00.515625
325,82.22,2022-08-17 13:54:00.531250
326,83.77,2022-08-17 13:54:00.546875
327,85.48,2022-08-17 13:54:00.562500
328,87.18,2022-08-17 13:54:00.578125
329,88.91,2022-08-17 13:54:00.593750
330,90.88,2022-08-17 13:54:00.609375
331,93.29,2022-08-17 13:54:00.625000
332,96.21,2022-08-17 13:54:00.640625
333,99.38,2022-08-17 13:54:00.656250
334,102.36,2022-08-17 13:54:00.671875
335,104.68,2022-08-17 13:54:00.687500
336,106.04,2022-08-17 13:54:00.703125
337,106.23,2022-08-17 13:54:00.718750
338,105.19,2022-08-17 13:54:00.734375
339,102.8,2022-08-17 13:54:00.750000
340,99.09,2022-08-17 13:54:00.765625
341,94.53,2022-08-17 13:54:00.781250
342,90.46,2022-08-17 13:54:00.796875
343,89.09,2022-08-17 13:54:00.812500
344,92.63,2022-08-17 13:54:00.828125
345,101.95,2022-08-17 13:54:00.843750
346,115.36,2022-08-17 13:54:00.859375
347,128.47,2022-08-17 13:54:00.875000
348,135.31,2022-08-17 13:54:00.890625
349,130.46,2022-08-17 13:54:00.906250
350,110.97,2022-08-17 13:54:00.921875
351,77.17,2022-08-17 13:54:00.937500
352,32.23,2022-08-17 13:54:00.953125
353,-19.21,2022-08-17 13:54:00.968750
354,-72.37,2022-08-17 13:54:00.984375
355,-123.02,2022-08-17 13:54:01.000000
356,-167.63,2022-08-17 13:54:01.015625
357,-203.24,2022-08-17 13:54:01.031250
358,-227.87,2022-08-17 13:54:01.046875
359,-241.07,2022-08-17 13:54:01.062500
360,-244.49,2022-08-17 13:54:01.078125
361,-241.59,2022-08-17 13:54:01.093750
362,-236.61,2022-08-17 13:54:01.109375
363,-232.94,2022-08-17 13:54:01.125000
364,-231.84,2022-08-17 13:54:01.140625
365,-231.98,2022-08-17 13:54:01.156250
366,-230.14,2022-08-17 13:54:01.171875
367,-222.42,2022-08-17 13:54:01.187500
368,-205.83,2022-08-17 13:54:01.203125
369,-179.35,2022-08-17 13:54:01.218750
370,-144.33,2022-08-17 13:54:01.234375
371,-104.25,2022-08-17 13:54:01.250000
372,-63.81,2022-08-17 13:54:01.265625
373,-27.85,2022-08-17 13:54:01.281250
374,-0.23,2022-08-17 13:54:01.296875
375,17.03,2022-08-17 13:54:01.312500
376,24.18,2022-08-17 13:54:01.328125
377,23.52,2022-08-17 13:54:01.343750
378,18.7,2022-08-17 13:54:01.359375
379,13.58,2022-08-17 13:54:01.375000
380,11.16,2022-08-17 13:54:01.390625
381,12.85,2022-08-17 13:54:01.406250
382,18.4,2022-08-17 13:54:01.421875
383,26.4,2022-08-17 13:54:01.437500
384,34.96,2022-08-17 13:54:01.453125
385,42.55,2022-08-17 13:54:01.468750
386,48.21,2022-08-17 13:54:01.484375
387,51.62,2022-08-17 13:54:01.500000
388,52.9,2022-08-17 13:54:01.515625
389,52.43,2022-08-17 13:54:01.531250
390,50.87,2022-08-17 13:54:01.546875
391,49.11,2022-08-17 13:54:01.562500
392,48.2,2022-08-17 13:54:01.578125
393,48.9,2022-08-17 13:54:01.593750
394,51.26,2022-08-17 13:54:01.609375
395,54.33,2022-08-17 13:54:01.625000
396,56.3,2022-08-17 13:54:01.640625
397,55.21,2022-08-17 13:54:01.656250
398,49.84,2022-08-17 13:54:01.671875
399,40.47,2022-08-17 13:54:01.687500
400,28.92,2022-08-17 13:54:01.703125
401,17.81,2022-08-17 13:54:01.718750
402,9.36,2022-08-17 13:54:01.734375
403,4.27,2022-08-17 13:54:01.750000
404,1.34,2022-08-17 13:54:01.765625
405,-1.93,2022-08-17 13:54:01.781250
406,-8.13,2022-08-17 13:54:01.796875
407,-18.61,2022-08-17 13:54:01.812500
408,-32.92,2022-08-17 13:54:01.828125
409,-49.16,2022-08-17 13:54:01.843750
410,-64.91,2022-08-17 13:54:01.859375
411,-78.26,2022-08-17 13:54:01.875000
412,-88.29,2022-08-17 13:54:01.890625
413,-94.87,2022-08-17 13:54:01.906250
414,-98.05,2022-08-17 13:54:01.921875
415,-97.65,2022-08-17 13:54:01.937500
416,-93.26,2022-08-17 13:54:01.953125
417,-84.63,2022-08-17 13:54:01.968750
418,-72.19,2022-08-17 13:54:01.984375
419,-57.27,2022-08-17 13:54:02.000000
420,-41.73,2022-08-17 13:54:02.015625
421,-27.33,2022-08-17 13:54:02.031250
422,-15.11,2022-08-17 13:54:02.046875
423,-5.04,2022-08-17 13:54:02.062500
424,3.7,2022-08-17 13:54:02.078125
425,12.18,2022-08-17 13:54:02.093750
426,21.14,2022-08-17 13:54:02.109375
427,30.58,2022-08-17 13:54:02.125000
428,39.8,2022-08-17 13:54:02.140625
429,47.73,2022-08-17 13:54:02.156250
430,53.41,2022-08-17 13:54:02.171875
431,56.43,2022-08-17 13:54:02.187500
432,57.07,2022-08-17 13:54:02.203125
433,56.09,2022-08-17 13:54:02.218750
434,54.42,2022-08-17 13:54:02.234375
435,52.75,2022-08-17 13:54:02.250000
436,51.35,2022-08-17 13:54:02.265625
437,50.08,2022-08-17 13:54:02.281250
438,48.71,2022-08-17 13:54:02.296875
439,46.99,2022-08-17 13:54:02.312500
440,44.85,2022-08-17 13:54:02.328125
441,42.25,2022-08-17 13:54:02.343750
442,39.16,2022-08-17 13:54:02.359375
443,35.48,2022-08-17 13:54:02.375000
444,31.16,2022-08-17 13:54:02.390625
445,26.32,2022-08-17 13:54:02.406250
446,21.33,2022-08-17 13:54:02.421875
447,16.69,2022-08-17 13:54:02.437500
448,12.84,2022-08-17 13:54:02.453125
449,10.01,2022-08-17 13:54:02.468750
450,8.11,2022-08-17 13:54:02.484375
451,6.89,2022-08-17 13:54:02.500000
452,6.04,2022-08-17 13:54:02.515625
453,5.4,2022-08-17 13:54:02.531250
454,4.91,2022-08-17 13:54:02.546875
455,4.56,2022-08-17 13:54:02.562500
456,4.3,2022-08-17 13:54:02.578125
457,3.97,2022-08-17 13:54:02.593750
458,3.28,2022-08-17 13:54:02.609375
459,1.99,2022-08-17 13:54:02.625000
460,-0.09,2022-08-17 13:54:02.640625
461,-2.96,2022-08-17 13:54:02.656250
462,-6.5,2022-08-17 13:54:02.671875
463,-10.58,2022-08-17 13:54:02.687500
464,-15.07,2022-08-17 13:54:02.703125
465,-19.79,2022-08-17 13:54:02.718750
466,-24.42,2022-08-17 13:54:02.734375
467,-28.43,2022-08-17 13:54:02.750000
468,-31.16,2022-08-17 13:54:02.765625
469,-31.94,2022-08-17 13:54:02.781250
470,-30.46,2022-08-17 13:54:02.796875
471,-26.83,2022-08-17 13:54:02.812500
472,-21.62,2022-08-17 13:54:02.828125
473,-15.6,2022-08-17 13:54:02.843750
474,-9.46,2022-08-17 13:54:02.859375
475,-3.61,2022-08-17 13:54:02.875000
476,1.81,2022-08-17 13:54:02.890625
477,6.77,2022-08-17 13:54:02.906250
478,11.21,2022-08-17 13:54:02.921875
479,14.94,2022-08-17 13:54:02.937500
480,17.8,2022-08-17 13:54:02.953125
481,19.76,2022-08-17 13:54:02.968750
482,20.96,2022-08-17 13:54:02.984375
483,21.71,2022-08-17 13:54:03.000000
484,22.28,2022-08-17 13:54:03.015625
485,22.84,2022-08-17 13:54:03.031250
486,23.46,2022-08-17 13:54:03.046875
487,24.2,2022-08-17 13:54:03.062500
488,25.18,2022-08-17 13:54:03.078125
489,26.51,2022-08-17 13:54:03.093750
490,28.2,2022-08-17 13:54:03.109375
491,29.95,2022-08-17 13:54:03.125000
492,31.21,2022-08-17 13:54:03.140625
493,31.27,2022-08-17 13:54:03.156250
494,29.6,2022-08-17 13:54:03.171875
495,26.18,2022-08-17 13:54:03.187500
496,21.6,2022-08-17 13:54:03.203125
497,16.98,2022-08-17 13:54:03.218750
498,13.52,2022-08-17 13:54:03.234375
499,12.1,2022-08-17 13:54:03.250000
500,12.86,2022-08-17 13:54:03.265625
501,15.19,2022-08-17 13:54:03.281250
502,17.97,2022-08-17 13:54:03.296875
503,20.09,2022-08-17 13:54:03.312500
504,20.85,2022-08-17 13:54:03.328125
505,20.28,2022-08-17 13:54:03.343750
506,19.06,2022-08-17 13:54:03.359375
507,18.24,2022-08-17 13:54:03.375000
508,18.76,2022-08-17 13:54:03.390625
509,21.16,2022-08-17 13:54:03.406250
510,25.41,2022-08-17 13:54:03.421875
511,30.95,2022-08-17 13:54:03.437500
512,36.84,2022-08-17 13:54:03.453125
513,41.92,2022-08-17 13:54:03.468750
514,44.96,2022-08-17 13:54:03.484375
515,44.96,2022-08-17 13:54:03.500000
516,41.45,2022-08-17 13:54:03.515625
517,34.68,2022-08-17 13:54:03.531250
518,25.59,2022-08-17 13:54:03.546875
519,15.56,2022-08-17 13:54:03.562500
520,5.94,2022-08-17 13:54:03.578125
521,-2.28,2022-08-17 13:54:03.593750
522,-8.58,2022-08-17 13:54:03.609375
523,-12.77,2022-08-17 13:54:03.625000
524,-14.71,2022-08-17 13:54:03.640625
525,-14.15,2022-08-17 13:54:03.656250
526,-10.79,2022-08-17 13:54:03.671875
527,-4.55,2022-08-17 13:54:03.687500
528,4.18,2022-08-17 13:54:03.703125
529,14.42,2022-08-17 13:54:03.718750
530,24.58,2022-08-17 13:54:03.734375
531,32.59,2022-08-17 13:54:03.750000
532,36.1,2022-08-17 13:54:03.765625
533,32.94,2022-08-17 13:54:03.781250
534,21.77,2022-08-17 13:54:03.796875
535,2.88,2022-08-17 13:54:03.812500
536,-21.18,2022-08-17 13:54:03.828125
537,-45.81,2022-08-17 13:54:03.843750
538,-65.33,2022-08-17 13:54:03.859375
539,-74.69,2022-08-17 13:54:03.875000
540,-71.18,2022-08-17 13:54:03.890625
541,-55.27,2022-08-17 13:54:03.906250
542,-30.22,2022-08-17 13:54:03.921875
543,-0.58,2022-08-17 13:54:03.937500
544,29.41,2022-08-17 13:54:03.953125
545,56.75,2022-08-17 13:54:03.968750
546,79.62,2022-08-17 13:54:03.984375
547,96.46,2022-08-17 13:54:04.000000
548,105.27,2022-08-17 13:54:04.015625
549,103.58,2022-08-17 13:54:04.031250
550,89.44,2022-08-17 13:54:04.046875
551,62.7,2022-08-17 13:54:04.062500
552,25.89,2022-08-17 13:54:04.078125
553,-16.07,2022-08-17 13:54:04.093750
554,-57.12,2022-08-17 13:54:04.109375
555,-91.83,2022-08-17 13:54:04.125000
556,-116.78,2022-08-17 13:54:04.140625
557,-130.97,2022-08-17 13:54:04.156250
558,-135.35,2022-08-17 13:54:04.171875
559,-131.94,2022-08-17 13:54:04.187500
560,-123.04,2022-08-17 13:54:04.203125
561,-110.8,2022-08-17 13:54:04.218750
562,-97.23,2022-08-17 13:54:04.234375
563,-84.39,2022-08-17 13:54:04.250000
564,-74.29,2022-08-17 13:54:04.265625
565,-68.68,2022-08-17 13:54:04.281250
566,-68.31,2022-08-17 13:54:04.296875
567,-72.38,2022-08-17 13:54:04.312500
568,-78.13,2022-08-17 13:54:04.328125
569,-81.47,2022-08-17 13:54:04.343750
570,-78.32,2022-08-17 13:54:04.359375
571,-66.3,2022-08-17 13:54:04.375000
572,-46.05,2022-08-17 13:54:04.390625
573,-21.32,2022-08-17 13:54:04.406250
574,2.22,2022-08-17 13:54:04.421875
575,19.22,2022-08-17 13:54:04.437500
576,26.63,2022-08-17 13:54:04.453125
577,24.7,2022-08-17 13:54:04.468750
578,16.42,2022-08-17 13:54:04.484375
579,6.01,2022-08-17 13:54:04.500000
580,-2.97,2022-08-17 13:54:04.515625
581,-8.67,2022-08-17 13:54:04.531250
582,-11.08,2022-08-17 13:54:04.546875
583,-11.31,2022-08-17 13:54:04.562500
584,-10.52,2022-08-17 13:54:04.578125
585,-9.31,2022-08-17 13:54:04.593750
586,-7.53,2022-08-17 13:54:04.609375
587,-4.7,2022-08-17 13:54:04.625000
588,-0.56,2022-08-17 13:54:04.640625
589,4.54,2022-08-17 13:54:04.656250
590,9.73,2022-08-17 13:54:04.671875
591,13.9,2022-08-17 13:54:04.687500
592,16.29,2022-08-17 13:54:04.703125
593,16.8,2022-08-17 13:54:04.718750
594,16.12,2022-08-17 13:54:04.734375
595,15.32,2022-08-17 13:54:04.750000
596,15.38,2022-08-17 13:54:04.765625
597,16.78,2022-08-17 13:54:04.781250
598,19.39,2022-08-17 13:54:04.796875
599,22.68,2022-08-17 13:54:04.812500
600,26.25,2022-08-17 13:54:04.828125
601,30.08,2022-08-17 13:54:04.843750
602,34.52,2022-08-17 13:54:04.859375
603,39.97,2022-08-17 13:54:04.875000
604,46.41,2022-08-17 13:54:04.890625
605,53.18,2022-08-17 13:54:04.906250
606,59.12,2022-08-17 13:54:04.921875
607,63.03,2022-08-17 13:54:04.937500
608,64.29,2022-08-17 13:54:04.953125
609,63.16,2022-08-17 13:54:04.968750
610,60.66,2022-08-17 13:54:04.984375
611,58.04,2022-08-17 13:54:05.000000
612,56.19,2022-08-17 13:54:05.015625
613,55.37,2022-08-17 13:54:05.031250
614,55.36,2022-08-17 13:54:05.046875
615,55.88,2022-08-17 13:54:05.062500
616,56.97,2022-08-17 13:54:05.078125
617,58.93,2022-08-17 13:54:05.093750
618,61.94,2022-08-17 13:54:05.109375
619,65.59,2022-08-17 13:54:05.125000
620,68.92,2022-08-17 13:54:05.140625
621,70.7,2022-08-17 13:54:05.156250
622,70.21,2022-08-17 13:54:05.171875
623,67.62,2022-08-17 13:54:05.187500
624,63.91,2022-08-17 13:54:05.203125
625,60.2,2022-08-17 13:54:05.218750
626,57.06,2022-08-17 13:54:05.234375
627,54.2,2022-08-17 13:54:05.250000
628,50.67,2022-08-17 13:54:05.265625
629,45.49,2022-08-17 13:54:05.281250
630,38.26,2022-08-17 13:54:05.296875
631,29.34,2022-08-17 13:54:05.312500
632,19.57,2022-08-17 13:54:05.328125
633,9.78,2022-08-17 13:54:05.343750
634,0.4,2022-08-17 13:54:05.359375
635,-8.63,2022-08-17 13:54:05.375000
636,-17.67,2022-08-17 13:54:05.390625
637,-27.12,2022-08-17 13:54:05.406250
638,-37.21,2022-08-17 13:54:05.421875
639,-47.83,2022-08-17 13:54:05.437500
640,-58.62,2022-08-17 13:54:05.453125
641,-68.91,2022-08-17 13:54:05.468750
642,-77.99,2022-08-17 13:54:05.484375
643,-85.44,2022-08-17 13:54:05.500000
644,-91.39,2022-08-17 13:54:05.515625
645,-96.82,2022-08-17 13:54:05.531250
646,-103.37,2022-08-17 13:54:05.546875
647,-113.2,2022-08-17 13:54:05.562500
648,-128.62,2022-08-17 13:54:05.578125
649,-151.75,2022-08-17 13:54:05.593750
650,-183.97,2022-08-17 13:54:05.609375
651,-225.2,2022-08-17 13:54:05.625000
652,-273.06,2022-08-17 13:54:05.640625
653,-322.53,2022-08-17 13:54:05.656250
654,-366.52,2022-08-17 13:54:05.671875
655,-397.44,2022-08-17 13:54:05.687500
656,-409.35,2022-08-17 13:54:05.703125
657,-399.91,2022-08-17 13:54:05.718750
658,-371.01,2022-08-17 13:54:05.734375
659,-327.85,2022-08-17 13:54:05.750000
660,-276.86,2022-08-17 13:54:05.765625
661,-223.54,2022-08-17 13:54:05.781250
662,-171.12,2022-08-17 13:54:05.796875
663,-120.63,2022-08-17 13:54:05.812500
664,-71.84,2022-08-17 13:54:05.828125
665,-24.44,2022-08-17 13:54:05.843750
666,21.23,2022-08-17 13:54:05.859375
667,64.27,2022-08-17 13:54:05.875000
668,103.72,2022-08-17 13:54:05.890625
669,138.96,2022-08-17 13:54:05.906250
670,169.81,2022-08-17 13:54:05.921875
671,196.26,2022-08-17 13:54:05.937500
672,217.93,2022-08-17 13:54:05.953125
673,234.0,2022-08-17 13:54:05.968750
674,243.4,2022-08-17 13:54:05.984375
675,245.33,2022-08-17 13:54:06.000000
676,239.58,2022-08-17 13:54:06.015625
677,226.35,2022-08-17 13:54:06.031250
678,205.73,2022-08-17 13:54:06.046875
679,177.28,2022-08-17 13:54:06.062500
680,140.19,2022-08-17 13:54:06.078125
681,94.14,2022-08-17 13:54:06.093750
682,40.65,2022-08-17 13:54:06.109375
683,-16.31,2022-08-17 13:54:06.125000
684,-70.71,2022-08-17 13:54:06.140625
685,-116.19,2022-08-17 13:54:06.156250
686,-148.05,2022-08-17 13:54:06.171875
687,-164.7,2022-08-17 13:54:06.187500
688,-167.57,2022-08-17 13:54:06.203125
689,-159.85,2022-08-17 13:54:06.218750
690,-144.73,2022-08-17 13:54:06.234375
691,-124.51,2022-08-17 13:54:06.250000
692,-100.77,2022-08-17 13:54:06.265625
693,-75.24,2022-08-17 13:54:06.281250
694,-50.55,2022-08-17 13:54:06.296875
695,-29.91,2022-08-17 13:54:06.312500
696,-15.9,2022-08-17 13:54:06.328125
697,-9.08,2022-08-17 13:54:06.343750
698,-7.46,2022-08-17 13:54:06.359375
699,-7.24,2022-08-17 13:54:06.375000
700,-4.44,2022-08-17 13:54:06.390625
701,3.17,2022-08-17 13:54:06.406250
702,15.28,2022-08-17 13:54:06.421875
703,29.36,2022-08-17 13:54:06.437500
704,42.0,2022-08-17 13:54:06.453125
705,50.42,2022-08-17 13:54:06.468750
706,53.34,2022-08-17 13:54:06.484375
707,51.12,2022-08-17 13:54:06.500000
708,45.07,2022-08-17 13:54:06.515625
709,36.74,2022-08-17 13:54:06.531250
710,27.6,2022-08-17 13:54:06.546875
711,19.03,2022-08-17 13:54:06.562500
712,12.44,2022-08-17 13:54:06.578125
713,9.32,2022-08-17 13:54:06.593750
714,10.74,2022-08-17 13:54:06.609375
715,16.88,2022-08-17 13:54:06.625000
716,26.7,2022-08-17 13:54:06.640625
717,38.13,2022-08-17 13:54:06.656250
718,48.84,2022-08-17 13:54:06.671875
719,57.08,2022-08-17 13:54:06.687500
720,62.26,2022-08-17 13:54:06.703125
721,64.94,2022-08-17 13:54:06.718750
722,66.22,2022-08-17 13:54:06.734375
723,67.01,2022-08-17 13:54:06.750000
724,67.62,2022-08-17 13:54:06.765625
725,67.8,2022-08-17 13:54:06.781250
726,67.11,2022-08-17 13:54:06.796875
727,65.39,2022-08-17 13:54:06.812500
728,62.82,2022-08-17 13:54:06.828125
729,59.79,2022-08-17 13:54:06.843750
730,56.61,2022-08-17 13:54:06.859375
731,53.33,2022-08-17 13:54:06.875000
732,49.78,2022-08-17 13:54:06.890625
733,45.77,2022-08-17 13:54:06.906250
734,41.29,2022-08-17 13:54:06.921875
735,36.65,2022-08-17 13:54:06.937500
736,32.32,2022-08-17 13:54:06.953125
737,28.77,2022-08-17 13:54:06.968750
738,26.25,2022-08-17 13:54:06.984375
739,24.72,2022-08-17 13:54:07.000000
740,23.83,2022-08-17 13:54:07.015625
741,23.17,2022-08-17 13:54:07.031250
742,22.42,2022-08-17 13:54:07.046875
743,21.43,2022-08-17 13:54:07.062500
744,20.28,2022-08-17 13:54:07.078125
745,19.12,2022-08-17 13:54:07.093750
746,18.03,2022-08-17 13:54:07.109375
747,16.99,2022-08-17 13:54:07.125000
748,15.83,2022-08-17 13:54:07.140625
749,14.37,2022-08-17 13:54:07.156250
750,12.56,2022-08-17 13:54:07.171875
751,10.57,2022-08-17 13:54:07.187500
752,8.66,2022-08-17 13:54:07.203125
753,7.04,2022-08-17 13:54:07.218750
754,5.69,2022-08-17 13:54:07.234375
755,4.36,2022-08-17 13:54:07.250000
756,2.77,2022-08-17 13:54:07.265625
757,0.95,2022-08-17 13:54:07.281250
758,-0.48,2022-08-17 13:54:07.296875
759,-0.29,2022-08-17 13:54:07.312500
760,2.94,2022-08-17 13:54:07.328125
761,10.32,2022-08-17 13:54:07.343750
762,22.2,2022-08-17 13:54:07.359375
763,38.14,2022-08-17 13:54:07.375000
764,57.19,2022-08-17 13:54:07.390625
765,78.46,2022-08-17 13:54:07.406250
766,101.39,2022-08-17 13:54:07.421875
767,125.61,2022-08-17 13:54:07.437500
768,150.43,2022-08-17 13:54:07.453125
769,174.46,2022-08-17 13:54:07.468750
770,195.84,2022-08-17 13:54:07.484375
771,212.78,2022-08-17 13:54:07.500000
772,224.46,2022-08-17 13:54:07.515625
773,231.34,2022-08-17 13:54:07.531250
774,234.73,2022-08-17 13:54:07.546875
775,235.87,2022-08-17 13:54:07.562500
776,235.11,2022-08-17 13:54:07.578125
777,231.62,2022-08-17 13:54:07.593750
778,223.99,2022-08-17 13:54:07.609375
779,211.08,2022-08-17 13:54:07.625000
780,192.75,2022-08-17 13:54:07.640625
781,169.68,2022-08-17 13:54:07.656250
782,142.72,2022-08-17 13:54:07.671875
783,112.24,2022-08-17 13:54:07.687500
784,78.07,2022-08-17 13:54:07.703125
785,40.22,2022-08-17 13:54:07.718750
786,-0.03,2022-08-17 13:54:07.734375
787,-39.65,2022-08-17 13:54:07.750000
788,-74.3,2022-08-17 13:54:07.765625
789,-99.86,2022-08-17 13:54:07.781250
790,-114.08,2022-08-17 13:54:07.796875
791,-117.69,2022-08-17 13:54:07.812500
792,-114.09,2022-08-17 13:54:07.828125
793,-107.87,2022-08-17 13:54:07.843750
794,-102.84,2022-08-17 13:54:07.859375
795,-100.65,2022-08-17 13:54:07.875000
796,-100.61,2022-08-17 13:54:07.890625
797,-100.86,2022-08-17 13:54:07.906250
798,-99.96,2022-08-17 13:54:07.921875
799,-98.01,2022-08-17 13:54:07.937500
800,-96.72,2022-08-17 13:54:07.953125
801,-98.32,2022-08-17 13:54:07.968750
802,-104.32,2022-08-17 13:54:07.984375
803,-114.78,2022-08-17 13:54:08.000000
804,-128.57,2022-08-17 13:54:08.015625
805,-144.14,2022-08-17 13:54:08.031250
806,-160.16,2022-08-17 13:54:08.046875
807,-175.66,2022-08-17 13:54:08.062500
808,-189.43,2022-08-17 13:54:08.078125
809,-199.59,2022-08-17 13:54:08.093750
810,-203.6,2022-08-17 13:54:08.109375
811,-199.13,2022-08-17 13:54:08.125000
812,-185.13,2022-08-17 13:54:08.140625
813,-162.63,2022-08-17 13:54:08.156250
814,-134.55,2022-08-17 13:54:08.171875
815,-104.8,2022-08-17 13:54:08.187500
816,-77.01,2022-08-17 13:54:08.203125
817,-53.57,2022-08-17 13:54:08.218750
818,-35.38,2022-08-17 13:54:08.234375
819,-22.12,2022-08-17 13:54:08.250000
820,-12.88,2022-08-17 13:54:08.265625
821,-6.57,2022-08-17 13:54:08.281250
822,-2.19,2022-08-17 13:54:08.296875
823,1.07,2022-08-17 13:54:08.312500
824,3.77,2022-08-17 13:54:08.328125
825,6.17,2022-08-17 13:54:08.343750
826,8.27,2022-08-17 13:54:08.359375
827,9.83,2022-08-17 13:54:08.375000
828,10.6,2022-08-17 13:54:08.390625
829,10.51,2022-08-17 13:54:08.406250
830,9.76,2022-08-17 13:54:08.421875
831,8.89,2022-08-17 13:54:08.437500
832,8.53,2022-08-17 13:54:08.453125
833,9.13,2022-08-17 13:54:08.468750
834,10.76,2022-08-17 13:54:08.484375
835,13.03,2022-08-17 13:54:08.500000
836,15.25,2022-08-17 13:54:08.515625
837,16.77,2022-08-17 13:54:08.531250
838,17.25,2022-08-17 13:54:08.546875
839,16.8,2022-08-17 13:54:08.562500
840,15.79,2022-08-17 13:54:08.578125
841,14.62,2022-08-17 13:54:08.593750
842,13.48,2022-08-17 13:54:08.609375
843,12.27,2022-08-17 13:54:08.625000
844,10.65,2022-08-17 13:54:08.640625
845,8.28,2022-08-17 13:54:08.656250
846,4.99,2022-08-17 13:54:08.671875
847,0.97,2022-08-17 13:54:08.687500
848,-3.3,2022-08-17 13:54:08.703125
849,-7.1,2022-08-17 13:54:08.718750
850,-9.81,2022-08-17 13:54:08.734375
851,-11.14,2022-08-17 13:54:08.750000
852,-11.34,2022-08-17 13:54:08.765625
853,-11.12,2022-08-17 13:54:08.781250
854,-11.36,2022-08-17 13:54:08.796875
855,-12.62,2022-08-17 13:54:08.812500
856,-14.76,2022-08-17 13:54:08.828125
857,-16.78,2022-08-17 13:54:08.843750
858,-17.08,2022-08-17 13:54:08.859375
859,-14.06,2022-08-17 13:54:08.875000
860,-6.69,2022-08-17 13:54:08.890625
861,5.03,2022-08-17 13:54:08.906250
862,20.03,2022-08-17 13:54:08.921875
863,36.5,2022-08-17 13:54:08.937500
864,52.37,2022-08-17 13:54:08.953125
865,65.9,2022-08-17 13:54:08.968750
866,75.99,2022-08-17 13:54:08.984375
867,82.3,2022-08-17 13:54:09.000000
868,85.08,2022-08-17 13:54:09.015625
869,84.98,2022-08-17 13:54:09.031250
870,82.83,2022-08-17 13:54:09.046875
871,79.42,2022-08-17 13:54:09.062500
872,75.31,2022-08-17 13:54:09.078125
873,70.64,2022-08-17 13:54:09.093750
874,64.89,2022-08-17 13:54:09.109375
875,57.13,2022-08-17 13:54:09.125000
876,46.43,2022-08-17 13:54:09.140625
877,32.67,2022-08-17 13:54:09.156250
878,17.08,2022-08-17 13:54:09.171875
879,2.13,2022-08-17 13:54:09.187500
880,-9.33,2022-08-17 13:54:09.203125
881,-15.38,2022-08-17 13:54:09.218750
882,-16.1,2022-08-17 13:54:09.234375
883,-13.71,2022-08-17 13:54:09.250000
884,-11.55,2022-08-17 13:54:09.265625
885,-12.45,2022-08-17 13:54:09.281250
886,-17.4,2022-08-17 13:54:09.296875
887,-25.14,2022-08-17 13:54:09.312500
888,-33.03,2022-08-17 13:54:09.328125
889,-38.47,2022-08-17 13:54:09.343750
890,-40.13,2022-08-17 13:54:09.359375
891,-38.32,2022-08-17 13:54:09.375000
892,-34.39,2022-08-17 13:54:09.390625
893,-29.77,2022-08-17 13:54:09.406250
894,-25.28,2022-08-17 13:54:09.421875
895,-20.93,2022-08-17 13:54:09.437500
896,-16.46,2022-08-17 13:54:09.453125
897,-11.93,2022-08-17 13:54:09.468750
898,-7.96,2022-08-17 13:54:09.484375
899,-5.63,2022-08-17 13:54:09.500000
900,-6.05,2022-08-17 13:54:09.515625
901,-9.9,2022-08-17 13:54:09.531250
902,-17.29,2022-08-17 13:54:09.546875
903,-27.79,2022-08-17 13:54:09.562500
904,-40.41,2022-08-17 13:54:09.578125
905,-53.76,2022-08-17 13:54:09.593750
906,-66.01,2022-08-17 13:54:09.609375
907,-75.16,2022-08-17 13:54:09.625000
908,-79.54,2022-08-17 13:54:09.640625
909,-78.28,2022-08-17 13:54:09.656250
910,-71.72,2022-08-17 13:54:09.671875
911,-61.35,2022-08-17 13:54:09.687500
912,-49.2,2022-08-17 13:54:09.703125
913,-37.21,2022-08-17 13:54:09.718750
914,-26.59,2022-08-17 13:54:09.734375
915,-17.78,2022-08-17 13:54:09.750000
916,-10.73,2022-08-17 13:54:09.765625
917,-5.3,2022-08-17 13:54:09.781250
918,-1.51,2022-08-17 13:54:09.796875
919,0.51,2022-08-17 13:54:09.812500
920,0.82,2022-08-17 13:54:09.828125
921,-0.18,2022-08-17 13:54:09.843750
922,-1.78,2022-08-17 13:54:09.859375
923,-3.29,2022-08-17 13:54:09.875000
924,-4.29,2022-08-17 13:54:09.890625
925,-4.85,2022-08-17 13:54:09.906250
926,-5.42,2022-08-17 13:54:09.921875
927,-6.47,2022-08-17 13:54:09.937500
928,-8.24,2022-08-17 13:54:09.953125
929,-10.61,2022-08-17 13:54:09.968750
930,-13.12,2022-08-17 13:54:09.984375
931,-15.23,2022-08-17 13:54:10.000000
932,-16.51,2022-08-17 13:54:10.015625
933,-16.76,2022-08-17 13:54:10.031250
934,-16.05,2022-08-17 13:54:10.046875
935,-14.68,2022-08-17 13:54:10.062500
936,-13.04,2022-08-17 13:54:10.078125
937,-11.55,2022-08-17 13:54:10.093750
938,-10.57,2022-08-17 13:54:10.109375
939,-10.32,2022-08-17 13:54:10.125000
940,-10.89,2022-08-17 13:54:10.140625
941,-12.2,2022-08-17 13:54:10.156250
942,-14.07,2022-08-17 13:54:10.171875
943,-16.28,2022-08-17 13:54:10.187500
944,-18.65,2022-08-17 13:54:10.203125
945,-21.03,2022-08-17 13:54:10.218750
946,-23.33,2022-08-17 13:54:10.234375
947,-25.49,2022-08-17 13:54:10.250000
948,-27.44,2022-08-17 13:54:10.265625
949,-29.16,2022-08-17 13:54:10.281250
950,-30.59,2022-08-17 13:54:10.296875
951,-31.64,2022-08-17 13:54:10.312500
952,-32.12,2022-08-17 13:54:10.328125
953,-31.81,2022-08-17 13:54:10.343750
954,-30.48,2022-08-17 13:54:10.359375
955,-27.97,2022-08-17 13:54:10.375000
956,-24.2,2022-08-17 13:54:10.390625
957,-19.19,2022-08-17 13:54:10.406250
958,-13.09,2022-08-17 13:54:10.421875
959,-6.07,2022-08-17 13:54:10.437500
960,1.59,2022-08-17 13:54:10.453125
961,9.58,2022-08-17 13:54:10.468750
962,17.5,2022-08-17 13:54:10.484375
963,24.88,2022-08-17 13:54:10.500000
964,31.35,2022-08-17 13:54:10.515625
965,36.66,2022-08-17 13:54:10.531250
966,40.78,2022-08-17 13:54:10.546875
967,43.86,2022-08-17 13:54:10.562500
968,46.17,2022-08-17 13:54:10.578125
969,47.96,2022-08-17 13:54:10.593750
970,49.31,2022-08-17 13:54:10.609375
971,50.19,2022-08-17 13:54:10.625000
972,50.38,2022-08-17 13:54:10.640625
973,49.7,2022-08-17 13:54:10.656250
974,48.05,2022-08-17 13:54:10.671875
975,45.48,2022-08-17 13:54:10.687500
976,42.24,2022-08-17 13:54:10.703125
977,38.7,2022-08-17 13:54:10.718750
978,35.27,2022-08-17 13:54:10.734375
979,32.28,2022-08-17 13:54:10.750000
980,29.92,2022-08-17 13:54:10.765625
981,28.2,2022-08-17 13:54:10.781250
982,26.92,2022-08-17 13:54:10.796875
983,25.78,2022-08-17 13:54:10.812500
984,24.44,2022-08-17 13:54:10.828125
985,22.64,2022-08-17 13:54:10.843750
986,20.3,2022-08-17 13:54:10.859375
987,17.51,2022-08-17 13:54:10.875000
988,14.47,2022-08-17 13:54:10.890625
989,11.42,2022-08-17 13:54:10.906250
990,8.46,2022-08-17 13:54:10.921875
991,5.54,2022-08-17 13:54:10.937500
992,2.41,2022-08-17 13:54:10.953125
993,-1.23,2022-08-17 13:54:10.968750
994,-5.55,2022-08-17 13:54:10.984375
995,-10.58,2022-08-17 13:54:11.000000
996,-16.11,2022-08-17 13:54:11.015625
997,-21.92,2022-08-17 13:54:11.031250
998,-27.74,2022-08-17 13:54:11.046875
999,-33.39,2022-08-17 13:54:11.062500
1000,-38.67,2022-08-17 13:54:11.078125
1001,-43.26,2022-08-17 13:54:11.093750
1002,-46.71,2022-08-17 13:54:11.109375
1003,-48.42,2022-08-17 13:54:11.125000
1004,-47.87,2022-08-17 13:54:11.140625
1005,-44.81,2022-08-17 13:54:11.156250
1006,-39.42,2022-08-17 13:54:11.171875
1007,-32.28,2022-08-17 13:54:11.187500
1008,-24.24,2022-08-17 13:54:11.203125
1009,-16.26,2022-08-17 13:54:11.218750
1010,-9.22,2022-08-17 13:54:11.234375
1011,-3.79,2022-08-17 13:54:11.250000
1012,-0.38,2022-08-17 13:54:11.265625
1013,0.89,2022-08-17 13:54:11.281250
1014,0.16,2022-08-17 13:54:11.296875
1015,-2.18,2022-08-17 13:54:11.312500
1016,-5.68,2022-08-17 13:54:11.328125
1017,-9.86,2022-08-17 13:54:11.343750
1018,-14.36,2022-08-17 13:54:11.359375
1019,-18.88,2022-08-17 13:54:11.375000
1020,-23.21,2022-08-17 13:54:11.390625
1021,-27.1,2022-08-17 13:54:11.406250
1022,-30.31,2022-08-17 13:54:11.421875
1023,-32.61,2022-08-17 13:54:11.437500
1024,-33.85,2022-08-17 13:54:11.453125
1025,-34.07,2022-08-17 13:54:11.468750
1026,-33.42,2022-08-17 13:54:11.484375
1027,-32.12,2022-08-17 13:54:11.500000
1028,-30.34,2022-08-17 13:54:11.515625
1029,-28.19,2022-08-17 13:54:11.531250
1030,-25.81,2022-08-17 13:54:11.546875
1031,-23.47,2022-08-17 13:54:11.562500
1032,-21.61,2022-08-17 13:54:11.578125
1033,-20.73,2022-08-17 13:54:11.593750
1034,-21.11,2022-08-17 13:54:11.609375
1035,-22.61,2022-08-17 13:54:11.625000
1036,-24.57,2022-08-17 13:54:11.640625
1037,-26.07,2022-08-17 13:54:11.656250
1038,-26.24,2022-08-17 13:54:11.671875
1039,-24.64,2022-08-17 13:54:11.687500
1040,-21.42,2022-08-17 13:54:11.703125
1041,-17.24,2022-08-17 13:54:11.718750
1042,-12.85,2022-08-17 13:54:11.734375
1043,-8.89,2022-08-17 13:54:11.750000
1044,-5.67,2022-08-17 13:54:11.765625
1045,-3.17,2022-08-17 13:54:11.781250
1046,-1.16,2022-08-17 13:54:11.796875
1047,0.7,2022-08-17 13:54:11.812500
1048,2.84,2022-08-17 13:54:11.828125
1049,5.76,2022-08-17 13:54:11.843750
1050,9.96,2022-08-17 13:54:11.859375
1051,15.77,2022-08-17 13:54:11.875000
1052,23.22,2022-08-17 13:54:11.890625
1053,31.96,2022-08-17 13:54:11.906250
1054,41.31,2022-08-17 13:54:11.921875
1055,50.41,2022-08-17 13:54:11.937500
1056,58.41,2022-08-17 13:54:11.953125
1057,64.65,2022-08-17 13:54:11.968750
1058,68.7,2022-08-17 13:54:11.984375
1059,70.41,2022-08-17 13:54:12.000000
1060,69.93,2022-08-17 13:54:12.015625
1061,67.75,2022-08-17 13:54:12.031250
1062,64.59,2022-08-17 13:54:12.046875
1063,61.32,2022-08-17 13:54:12.062500
1064,58.66,2022-08-17 13:54:12.078125
1065,56.98,2022-08-17 13:54:12.093750
1066,56.14,2022-08-17 13:54:12.109375
1067,55.66,2022-08-17 13:54:12.125000
1068,54.93,2022-08-17 13:54:12.140625
1069,53.6,2022-08-17 13:54:12.156250
1070,51.74,2022-08-17 13:54:12.171875
1071,49.86,2022-08-17 13:54:12.187500
1072,48.71,2022-08-17 13:54:12.203125
1073,48.94,2022-08-17 13:54:12.218750
1074,50.95,2022-08-17 13:54:12.234375
1075,54.69,2022-08-17 13:54:12.250000
1076,59.73,2022-08-17 13:54:12.265625
1077,65.3,2022-08-17 13:54:12.281250
1078,70.44,2022-08-17 13:54:12.296875
1079,74.13,2022-08-17 13:54:12.312500
1080,75.51,2022-08-17 13:54:12.328125
1081,74.22,2022-08-17 13:54:12.343750
1082,70.59,2022-08-17 13:54:12.359375
1083,65.72,2022-08-17 13:54:12.375000
1084,61.21,2022-08-17 13:54:12.390625
1085,58.74,2022-08-17 13:54:12.406250
1086,59.43,2022-08-17 13:54:12.421875
1087,63.3,2022-08-17 13:54:12.437500
1088,69.07,2022-08-17 13:54:12.453125
1089,74.52,2022-08-17 13:54:12.468750
1090,77.26,2022-08-17 13:54:12.484375
1091,75.71,2022-08-17 13:54:12.500000
1092,69.76,2022-08-17 13:54:12.515625
1093,60.75,2022-08-17 13:54:12.531250
1094,50.9,2022-08-17 13:54:12.546875
1095,42.3,2022-08-17 13:54:12.562500
1096,36.13,2022-08-17 13:54:12.578125
1097,32.34,2022-08-17 13:54:12.593750
1098,30.07,2022-08-17 13:54:12.609375
1099,28.29,2022-08-17 13:54:12.625000
1100,26.3,2022-08-17 13:54:12.640625
1101,23.78,2022-08-17 13:54:12.656250
1102,20.39,2022-08-17 13:54:12.671875
1103,15.39,2022-08-17 13:54:12.687500
1104,7.64,2022-08-17 13:54:12.703125
1105,-3.87,2022-08-17 13:54:12.718750
1106,-19.32,2022-08-17 13:54:12.734375
1107,-37.58,2022-08-17 13:54:12.750000
1108,-56.55,2022-08-17 13:54:12.765625
1109,-74.11,2022-08-17 13:54:12.781250
1110,-89.12,2022-08-17 13:54:12.796875
1111,-101.92,2022-08-17 13:54:12.812500
1112,-113.96,2022-08-17 13:54:12.828125
1113,-126.84,2022-08-17 13:54:12.843750
1114,-141.26,2022-08-17 13:54:12.859375
1115,-156.55,2022-08-17 13:54:12.875000
1116,-171.1,2022-08-17 13:54:12.890625
1117,-183.2,2022-08-17 13:54:12.906250
1118,-191.76,2022-08-17 13:54:12.921875
1119,-196.51,2022-08-17 13:54:12.937500
1120,-197.43,2022-08-17 13:54:12.953125
1121,-194.28,2022-08-17 13:54:12.968750
1122,-186.36,2022-08-17 13:54:12.984375
1123,-172.88,2022-08-17 13:54:13.000000
1124,-153.65,2022-08-17 13:54:13.015625
1125,-129.55,2022-08-17 13:54:13.031250
1126,-102.4,2022-08-17 13:54:13.046875
1127,-74.26,2022-08-17 13:54:13.062500
1128,-46.63,2022-08-17 13:54:13.078125
1129,-20.09,2022-08-17 13:54:13.093750
1130,5.53,2022-08-17 13:54:13.109375
1131,30.47,2022-08-17 13:54:13.125000
1132,54.34,2022-08-17 13:54:13.140625
1133,75.96,2022-08-17 13:54:13.156250
1134,93.64,2022-08-17 13:54:13.171875
1135,105.91,2022-08-17 13:54:13.187500
1136,112.14,2022-08-17 13:54:13.203125
1137,112.88,2022-08-17 13:54:13.218750
1138,109.69,2022-08-17 13:54:13.234375
1139,104.75,2022-08-17 13:54:13.250000
1140,100.29,2022-08-17 13:54:13.265625
1141,98.16,2022-08-17 13:54:13.281250
1142,99.36,2022-08-17 13:54:13.296875
1143,103.91,2022-08-17 13:54:13.312500
1144,110.85,2022-08-17 13:54:13.328125
1145,118.53,2022-08-17 13:54:13.343750
1146,125.15,2022-08-17 13:54:13.359375
1147,129.35,2022-08-17 13:54:13.375000
1148,130.72,2022-08-17 13:54:13.390625
1149,129.87,2022-08-17 13:54:13.406250
1150,128.12,2022-08-17 13:54:13.421875
1151,126.85,2022-08-17 13:54:13.437500
1152,126.82,2022-08-17 13:54:13.453125
1153,127.88,2022-08-17 13:54:13.468750
1154,129.05,2022-08-17 13:54:13.484375
1155,129.08,2022-08-17 13:54:13.500000
1156,127.04,2022-08-17 13:54:13.515625
1157,122.82,2022-08-17 13:54:13.531250
1158,117.24,2022-08-17 13:54:13.546875
1159,111.79,2022-08-17 13:54:13.562500
1160,108.14,2022-08-17 13:54:13.578125
1161,107.63,2022-08-17 13:54:13.593750
1162,110.85,2022-08-17 13:54:13.609375
1163,117.43,2022-08-17 13:54:13.625000
1164,126.29,2022-08-17 13:54:13.640625
1165,135.96,2022-08-17 13:54:13.656250
1166,145.18,2022-08-17 13:54:13.671875
1167,153.29,2022-08-17 13:54:13.687500
1168,160.5,2022-08-17 13:54:13.703125
1169,167.71,2022-08-17 13:54:13.718750
1170,176.1,2022-08-17 13:54:13.734375
1171,186.49,2022-08-17 13:54:13.750000
1172,198.76,2022-08-17 13:54:13.765625
1173,211.54,2022-08-17 13:54:13.781250
1174,222.41,2022-08-17 13:54:13.796875
1175,228.42,2022-08-17 13:54:13.812500
1176,227.04,2022-08-17 13:54:13.828125
1177,217.09,2022-08-17 13:54:13.843750
1178,199.34,2022-08-17 13:54:13.859375
1179,176.56,2022-08-17 13:54:13.875000
1180,152.92,2022-08-17 13:54:13.890625
1181,132.64,2022-08-17 13:54:13.906250
1182,118.58,2022-08-17 13:54:13.921875
1183,111.27,2022-08-17 13:54:13.937500
1184,108.81,2022-08-17 13:54:13.953125
1185,107.78,2022-08-17 13:54:13.968750
1186,104.77,2022-08-17 13:54:13.984375
1187,97.73,2022-08-17 13:54:14.000000
1188,86.59,2022-08-17 13:54:14.015625
1189,72.92,2022-08-17 13:54:14.031250
1190,58.91,2022-08-17 13:54:14.046875
1191,46.23,2022-08-17 13:54:14.062500
1192,35.49,2022-08-17 13:54:14.078125
1193,26.3,2022-08-17 13:54:14.093750
1194,17.91,2022-08-17 13:54:14.109375
1195,9.79,2022-08-17 13:54:14.125000
1196,1.85,2022-08-17 13:54:14.140625
1197,-5.72,2022-08-17 13:54:14.156250
1198,-12.95,2022-08-17 13:54:14.171875
1199,-20.35,2022-08-17 13:54:14.187500
1200,-28.92,2022-08-17 13:54:14.203125
1201,-39.72,2022-08-17 13:54:14.218750
1202,-53.5,2022-08-17 13:54:14.234375
1203,-70.42,2022-08-17 13:54:14.250000
1204,-90.25,2022-08-17 13:54:14.265625
1205,-112.72,2022-08-17 13:54:14.281250
1206,-137.71,2022-08-17 13:54:14.296875
1207,-164.99,2022-08-17 13:54:14.312500
1208,-193.65,2022-08-17 13:54:14.328125
1209,-221.56,2022-08-17 13:54:14.343750
1210,-245.52,2022-08-17 13:54:14.359375
1211,-262.04,2022-08-17 13:54:14.375000
1212,-268.7,2022-08-17 13:54:14.390625
1213,-265.16,2022-08-17 13:54:14.406250
1214,-253.41,2022-08-17 13:54:14.421875
1215,-237.02,2022-08-17 13:54:14.437500
1216,-219.74,2022-08-17 13:54:14.453125
1217,-204.39,2022-08-17 13:54:14.468750
1218,-192.23,2022-08-17 13:54:14.484375
1219,-183.21,2022-08-17 13:54:14.500000
1220,-176.58,2022-08-17 13:54:14.515625
1221,-171.52,2022-08-17 13:54:14.531250
1222,-167.4,2022-08-17 13:54:14.546875
1223,-163.7,2022-08-17 13:54:14.562500
1224,-159.96,2022-08-17 13:54:14.578125
1225,-155.71,2022-08-17 13:54:14.593750
1226,-150.68,2022-08-17 13:54:14.609375
1227,-144.99,2022-08-17 13:54:14.625000
1228,-139.16,2022-08-17 13:54:14.640625
1229,-133.92,2022-08-17 13:54:14.656250
1230,-129.91,2022-08-17 13:54:14.671875
1231,-127.21,2022-08-17 13:54:14.687500
1232,-125.18,2022-08-17 13:54:14.703125
1233,-122.54,2022-08-17 13:54:14.718750
1234,-117.81,2022-08-17 13:54:14.734375
1235,-109.97,2022-08-17 13:54:14.750000
1236,-98.97,2022-08-17 13:54:14.765625
1237,-85.8,2022-08-17 13:54:14.781250
1238,-72.15,2022-08-17 13:54:14.796875
1239,-59.82,2022-08-17 13:54:14.812500
1240,-50.09,2022-08-17 13:54:14.828125
1241,-43.44,2022-08-17 13:54:14.843750
1242,-39.67,2022-08-17 13:54:14.859375
1243,-38.17,2022-08-17 13:54:14.875000
1244,-38.3,2022-08-17 13:54:14.890625
1245,-39.44,2022-08-17 13:54:14.906250
1246,-41.0,2022-08-17 13:54:14.921875
1247,-42.35,2022-08-17 13:54:14.937500
1248,-42.9,2022-08-17 13:54:14.953125
1249,-42.25,2022-08-17 13:54:14.968750
1250,-40.43,2022-08-17 13:54:14.984375
1251,-37.86,2022-08-17 13:54:15.000000
1252,-35.25,2022-08-17 13:54:15.015625
1253,-33.24,2022-08-17 13:54:15.031250
1254,-32.18,2022-08-17 13:54:15.046875
1255,-32.01,2022-08-17 13:54:15.062500
1256,-32.42,2022-08-17 13:54:15.078125
1257,-33.08,2022-08-17 13:54:15.093750
1258,-33.84,2022-08-17 13:54:15.109375
1259,-34.85,2022-08-17 13:54:15.125000
1260,-36.39,2022-08-17 13:54:15.140625
1261,-38.78,2022-08-17 13:54:15.156250
1262,-42.19,2022-08-17 13:54:15.171875
1263,-46.58,2022-08-17 13:54:15.187500
1264,-51.74,2022-08-17 13:54:15.203125
1265,-57.28,2022-08-17 13:54:15.218750
1266,-62.75,2022-08-17 13:54:15.234375
1267,-67.78,2022-08-17 13:54:15.250000
1268,-72.15,2022-08-17 13:54:15.265625
1269,-75.89,2022-08-17 13:54:15.281250
1270,-79.14,2022-08-17 13:54:15.296875
1271,-81.93,2022-08-17 13:54:15.312500
1272,-84.02,2022-08-17 13:54:15.328125
1273,-84.81,2022-08-17 13:54:15.343750
1274,-83.57,2022-08-17 13:54:15.359375
1275,-79.78,2022-08-17 13:54:15.375000
1276,-73.46,2022-08-17 13:54:15.390625
1277,-65.12,2022-08-17 13:54:15.406250
1278,-55.52,2022-08-17 13:54:15.421875
1279,-45.29,2022-08-17 13:54:15.437500
1280,-34.66,2022-08-17 13:54:15.453125
1281,-23.58,2022-08-17 13:54:15.468750
1282,-12.04,2022-08-17 13:54:15.484375
1283,-0.46,2022-08-17 13:54:15.500000
1284,10.2,2022-08-17 13:54:15.515625
1285,18.64,2022-08-17 13:54:15.531250
1286,23.66,2022-08-17 13:54:15.546875
1287,24.56,2022-08-17 13:54:15.562500
1288,21.44,2022-08-17 13:54:15.578125
1289,15.18,2022-08-17 13:54:15.593750
1290,7.13,2022-08-17 13:54:15.609375
1291,-1.21,2022-08-17 13:54:15.625000
1292,-8.57,2022-08-17 13:54:15.640625
1293,-14.14,2022-08-17 13:54:15.656250
1294,-17.56,2022-08-17 13:54:15.671875
1295,-18.86,2022-08-17 13:54:15.687500
1296,-18.29,2022-08-17 13:54:15.703125
1297,-16.18,2022-08-17 13:54:15.718750
1298,-13.0,2022-08-17 13:54:15.734375
1299,-9.31,2022-08-17 13:54:15.750000
1300,-5.84,2022-08-17 13:54:15.765625
1301,-3.37,2022-08-17 13:54:15.781250
1302,-2.5,2022-08-17 13:54:15.796875
1303,-3.42,2022-08-17 13:54:15.812500
1304,-5.84,2022-08-17 13:54:15.828125
1305,-9.06,2022-08-17 13:54:15.843750
1306,-12.27,2022-08-17 13:54:15.859375
1307,-14.82,2022-08-17 13:54:15.875000
1308,-16.41,2022-08-17 13:54:15.890625
1309,-17.14,2022-08-17 13:54:15.906250
1310,-17.32,2022-08-17 13:54:15.921875
1311,-17.34,2022-08-17 13:54:15.937500
1312,-17.49,2022-08-17 13:54:15.953125
1313,-17.85,2022-08-17 13:54:15.968750
1314,-18.35,2022-08-17 13:54:15.984375
1315,-18.83,2022-08-17 13:54:16.000000
1316,-19.18,2022-08-17 13:54:16.015625
1317,-19.43,2022-08-17 13:54:16.031250
1318,-19.89,2022-08-17 13:54:16.046875
1319,-20.95,2022-08-17 13:54:16.062500
1320,-23.04,2022-08-17 13:54:16.078125
1321,-26.29,2022-08-17 13:54:16.093750
1322,-30.44,2022-08-17 13:54:16.109375
1323,-34.86,2022-08-17 13:54:16.125000
1324,-38.62,2022-08-17 13:54:16.140625
1325,-40.88,2022-08-17 13:54:16.156250
1326,-41.02,2022-08-17 13:54:16.171875
1327,-38.82,2022-08-17 13:54:16.187500
1328,-34.42,2022-08-17 13:54:16.203125
1329,-28.29,2022-08-17 13:54:16.218750
1330,-21.07,2022-08-17 13:54:16.234375
1331,-13.38,2022-08-17 13:54:16.250000
1332,-5.79,2022-08-17 13:54:16.265625
1333,1.32,2022-08-17 13:54:16.281250
1334,7.77,2022-08-17 13:54:16.296875
1335,13.55,2022-08-17 13:54:16.312500
1336,18.7,2022-08-17 13:54:16.328125
1337,23.17,2022-08-17 13:54:16.343750
1338,26.73,2022-08-17 13:54:16.359375
1339,29.1,2022-08-17 13:54:16.375000
1340,30.01,2022-08-17 13:54:16.390625
1341,29.41,2022-08-17 13:54:16.406250
1342,27.58,2022-08-17 13:54:16.421875
1343,25.09,2022-08-17 13:54:16.437500
1344,22.7,2022-08-17 13:54:16.453125
1345,21.08,2022-08-17 13:54:16.468750
1346,20.68,2022-08-17 13:54:16.484375
1347,21.61,2022-08-17 13:54:16.500000
1348,23.67,2022-08-17 13:54:16.515625
1349,26.46,2022-08-17 13:54:16.531250
1350,29.5,2022-08-17 13:54:16.546875
1351,32.35,2022-08-17 13:54:16.562500
1352,34.67,2022-08-17 13:54:16.578125
1353,36.29,2022-08-17 13:54:16.593750
1354,37.13,2022-08-17 13:54:16.609375
1355,37.16,2022-08-17 13:54:16.625000
1356,36.32,2022-08-17 13:54:16.640625
1357,34.6,2022-08-17 13:54:16.656250
1358,32.03,2022-08-17 13:54:16.671875
1359,28.78,2022-08-17 13:54:16.687500
1360,25.16,2022-08-17 13:54:16.703125
1361,21.48,2022-08-17 13:54:16.718750
1362,17.97,2022-08-17 13:54:16.734375
1363,14.66,2022-08-17 13:54:16.750000
1364,11.42,2022-08-17 13:54:16.765625
1365,8.01,2022-08-17 13:54:16.781250
1366,4.29,2022-08-17 13:54:16.796875
1367,0.2,2022-08-17 13:54:16.812500
1368,-4.23,2022-08-17 13:54:16.828125
1369,-8.99,2022-08-17 13:54:16.843750
1370,-14.14,2022-08-17 13:54:16.859375
1371,-19.65,2022-08-17 13:54:16.875000
1372,-25.24,2022-08-17 13:54:16.890625
1373,-30.27,2022-08-17 13:54:16.906250
1374,-33.85,2022-08-17 13:54:16.921875
1375,-35.18,2022-08-17 13:54:16.937500
1376,-33.87,2022-08-17 13:54:16.953125
1377,-30.18,2022-08-17 13:54:16.968750
1378,-24.91,2022-08-17 13:54:16.984375
1379,-19.1,2022-08-17 13:54:17.000000
1380,-13.67,2022-08-17 13:54:17.015625
1381,-9.11,2022-08-17 13:54:17.031250
1382,-5.46,2022-08-17 13:54:17.046875
1383,-2.44,2022-08-17 13:54:17.062500
1384,0.38,2022-08-17 13:54:17.078125
1385,3.3,2022-08-17 13:54:17.093750
1386,6.36,2022-08-17 13:54:17.109375
1387,9.35,2022-08-17 13:54:17.125000
1388,11.87,2022-08-17 13:54:17.140625
1389,13.48,2022-08-17 13:54:17.156250
1390,13.93,2022-08-17 13:54:17.171875
1391,13.21,2022-08-17 13:54:17.187500
1392,11.59,2022-08-17 13:54:17.203125
1393,9.49,2022-08-17 13:54:17.218750
1394,7.32,2022-08-17 13:54:17.234375
1395,5.39,2022-08-17 13:54:17.250000
1396,3.9,2022-08-17 13:54:17.265625
1397,3.01,2022-08-17 13:54:17.281250
1398,2.82,2022-08-17 13:54:17.296875
1399,3.35,2022-08-17 13:54:17.312500
1400,4.42,2022-08-17 13:54:17.328125
1401,5.6,2022-08-17 13:54:17.343750
1402,6.31,2022-08-17 13:54:17.359375
1403,6.02,2022-08-17 13:54:17.375000
1404,4.47,2022-08-17 13:54:17.390625
1405,1.77,2022-08-17 13:54:17.406250
1406,-1.66,2022-08-17 13:54:17.421875
1407,-5.32,2022-08-17 13:54:17.437500
1408,-8.87,2022-08-17 13:54:17.453125
1409,-12.26,2022-08-17 13:54:17.468750
1410,-15.73,2022-08-17 13:54:17.484375
1411,-19.57,2022-08-17 13:54:17.500000
1412,-24.03,2022-08-17 13:54:17.515625
1413,-29.1,2022-08-17 13:54:17.531250
1414,-34.48,2022-08-17 13:54:17.546875
1415,-39.75,2022-08-17 13:54:17.562500
1416,-44.47,2022-08-17 13:54:17.578125
1417,-48.35,2022-08-17 13:54:17.593750
1418,-51.38,2022-08-17 13:54:17.609375
1419,-53.88,2022-08-17 13:54:17.625000
1420,-56.29,2022-08-17 13:54:17.640625
1421,-59.11,2022-08-17 13:54:17.656250
1422,-62.48,2022-08-17 13:54:17.671875
1423,-66.04,2022-08-17 13:54:17.687500
1424,-68.82,2022-08-17 13:54:17.703125
1425,-69.45,2022-08-17 13:54:17.718750
1426,-66.56,2022-08-17 13:54:17.734375
1427,-59.24,2022-08-17 13:54:17.750000
1428,-47.38,2022-08-17 13:54:17.765625
1429,-31.71,2022-08-17 13:54:17.781250
1430,-13.51,2022-08-17 13:54:17.796875
1431,5.75,2022-08-17 13:54:17.812500
1432,24.82,2022-08-17 13:54:17.828125
1433,42.92,2022-08-17 13:54:17.843750
1434,59.61,2022-08-17 13:54:17.859375
1435,74.72,2022-08-17 13:54:17.875000
1436,88.19,2022-08-17 13:54:17.890625
1437,99.96,2022-08-17 13:54:17.906250
1438,110.01,2022-08-17 13:54:17.921875
1439,118.35,2022-08-17 13:54:17.937500
1440,125.07,2022-08-17 13:54:17.953125
1441,130.35,2022-08-17 13:54:17.968750
1442,134.44,2022-08-17 13:54:17.984375
1443,137.63,2022-08-17 13:54:18.000000
1444,140.18,2022-08-17 13:54:18.015625
1445,142.28,2022-08-17 13:54:18.031250
1446,143.95,2022-08-17 13:54:18.046875
1447,145.06,2022-08-17 13:54:18.062500
1448,145.34,2022-08-17 13:54:18.078125
1449,144.49,2022-08-17 13:54:18.093750
1450,142.29,2022-08-17 13:54:18.109375
1451,138.6,2022-08-17 13:54:18.125000
1452,133.38,2022-08-17 13:54:18.140625
1453,126.63,2022-08-17 13:54:18.156250
1454,118.41,2022-08-17 13:54:18.171875
1455,108.73,2022-08-17 13:54:18.187500
1456,97.61,2022-08-17 13:54:18.203125
1457,85.04,2022-08-17 13:54:18.218750
1458,71.0,2022-08-17 13:54:18.234375
1459,55.6,2022-08-17 13:54:18.250000
1460,39.15,2022-08-17 13:54:18.265625
1461,22.29,2022-08-17 13:54:18.281250
1462,5.95,2022-08-17 13:54:18.296875
1463,-8.79,2022-08-17 13:54:18.312500
1464,-21.07,2022-08-17 13:54:18.328125
1465,-30.49,2022-08-17 13:54:18.343750
1466,-37.32,2022-08-17 13:54:18.359375
1467,-42.35,2022-08-17 13:54:18.375000
1468,-46.51,2022-08-17 13:54:18.390625
1469,-50.61,2022-08-17 13:54:18.406250
1470,-55.07,2022-08-17 13:54:18.421875
1471,-59.97,2022-08-17 13:54:18.437500
1472,-65.2,2022-08-17 13:54:18.453125
1473,-70.54,2022-08-17 13:54:18.468750
1474,-75.67,2022-08-17 13:54:18.484375
1475,-80.06,2022-08-17 13:54:18.500000
1476,-82.89,2022-08-17 13:54:18.515625
1477,-83.19,2022-08-17 13:54:18.531250
1478,-80.06,2022-08-17 13:54:18.546875
1479,-73.1,2022-08-17 13:54:18.562500
1480,-62.57,2022-08-17 13:54:18.578125
1481,-49.42,2022-08-17 13:54:18.593750
1482,-34.99,2022-08-17 13:54:18.609375
1483,-20.72,2022-08-17 13:54:18.625000
1484,-7.71,2022-08-17 13:54:18.640625
1485,3.37,2022-08-17 13:54:18.656250
1486,12.28,2022-08-17 13:54:18.671875
1487,19.1,2022-08-17 13:54:18.687500
1488,24.05,2022-08-17 13:54:18.703125
1489,27.32,2022-08-17 13:54:18.718750
1490,29.05,2022-08-17 13:54:18.734375
1491,29.37,2022-08-17 13:54:18.750000
1492,28.46,2022-08-17 13:54:18.765625
1493,26.64,2022-08-17 13:54:18.781250
1494,24.35,2022-08-17 13:54:18.796875
1495,22.06,2022-08-17 13:54:18.812500
1496,20.08,2022-08-17 13:54:18.828125
1497,18.51,2022-08-17 13:54:18.843750
1498,17.22,2022-08-17 13:54:18.859375
1499,16.03,2022-08-17 13:54:18.875000
1500,14.83,2022-08-17 13:54:18.890625
1501,13.77,2022-08-17 13:54:18.906250
1502,13.11,2022-08-17 13:54:18.921875
1503,13.04,2022-08-17 13:54:18.937500
1504,13.56,2022-08-17 13:54:18.953125
1505,14.39,2022-08-17 13:54:18.968750
1506,15.04,2022-08-17 13:54:18.984375
1507,15.14,2022-08-17 13:54:19.000000
1508,14.54,2022-08-17 13:54:19.015625
1509,13.39,2022-08-17 13:54:19.031250
1510,12.01,2022-08-17 13:54:19.046875
1511,10.66,2022-08-17 13:54:19.062500
1512,9.32,2022-08-17 13:54:19.078125
1513,7.74,2022-08-17 13:54:19.093750
1514,5.46,2022-08-17 13:54:19.109375
1515,2.1,2022-08-17 13:54:19.125000
1516,-2.44,2022-08-17 13:54:19.140625
1517,-7.9,2022-08-17 13:54:19.156250
1518,-13.72,2022-08-17 13:54:19.171875
1519,-19.23,2022-08-17 13:54:19.187500
1520,-23.89,2022-08-17 13:54:19.203125
1521,-27.52,2022-08-17 13:54:19.218750
1522,-30.34,2022-08-17 13:54:19.234375
1523,-32.89,2022-08-17 13:54:19.250000
1524,-35.84,2022-08-17 13:54:19.265625
1525,-39.65,2022-08-17 13:54:19.281250
1526,-44.42,2022-08-17 13:54:19.296875
1527,-49.78,2022-08-17 13:54:19.312500
1528,-54.9,2022-08-17 13:54:19.328125
1529,-58.74,2022-08-17 13:54:19.343750
1530,-60.28,2022-08-17 13:54:19.359375
1531,-58.74,2022-08-17 13:54:19.375000
1532,-53.75,2022-08-17 13:54:19.390625
1533,-45.44,2022-08-17 13:54:19.406250
1534,-34.44,2022-08-17 13:54:19.421875
1535,-21.82,2022-08-17 13:54:19.437500
1536,-8.85,2022-08-17 13:54:19.453125
1537,3.2,2022-08-17 13:54:19.468750
1538,13.36,2022-08-17 13:54:19.484375
1539,21.14,2022-08-17 13:54:19.500000
1540,26.6,2022-08-17 13:54:19.515625
1541,30.16,2022-08-17 13:54:19.531250
1542,32.37,2022-08-17 13:54:19.546875
1543,33.65,2022-08-17 13:54:19.562500
1544,34.18,2022-08-17 13:54:19.578125
1545,34.0,2022-08-17 13:54:19.593750
1546,33.13,2022-08-17 13:54:19.609375
1547,31.77,2022-08-17 13:54:19.625000
1548,30.28,2022-08-17 13:54:19.640625
1549,29.01,2022-08-17 13:54:19.656250
1550,28.19,2022-08-17 13:54:19.671875
1551,27.8,2022-08-17 13:54:19.687500
1552,27.67,2022-08-17 13:54:19.703125
1553,27.62,2022-08-17 13:54:19.718750
1554,27.61,2022-08-17 13:54:19.734375
1555,27.7,2022-08-17 13:54:19.750000
1556,27.95,2022-08-17 13:54:19.765625
1557,28.34,2022-08-17 13:54:19.781250
1558,28.7,2022-08-17 13:54:19.796875
1559,28.79,2022-08-17 13:54:19.812500
1560,28.41,2022-08-17 13:54:19.828125
1561,27.46,2022-08-17 13:54:19.843750
1562,26.01,2022-08-17 13:54:19.859375
1563,24.14,2022-08-17 13:54:19.875000
1564,21.94,2022-08-17 13:54:19.890625
1565,19.49,2022-08-17 13:54:19.906250
1566,16.86,2022-08-17 13:54:19.921875
1567,14.15,2022-08-17 13:54:19.937500
1568,11.5,2022-08-17 13:54:19.953125
1569,9.04,2022-08-17 13:54:19.968750
1570,6.79,2022-08-17 13:54:19.984375
1571,4.64,2022-08-17 13:54:20.000000
1572,2.41,2022-08-17 13:54:20.015625
1573,-0.09,2022-08-17 13:54:20.031250
1574,-2.93,2022-08-17 13:54:20.046875
1575,-6.02,2022-08-17 13:54:20.062500
1576,-9.09,2022-08-17 13:54:20.078125
1577,-11.84,2022-08-17 13:54:20.093750
1578,-14.08,2022-08-17 13:54:20.109375
1579,-15.83,2022-08-17 13:54:20.125000
1580,-17.39,2022-08-17 13:54:20.140625
1581,-19.31,2022-08-17 13:54:20.156250
1582,-22.2,2022-08-17 13:54:20.171875
1583,-26.54,2022-08-17 13:54:20.187500
1584,-32.39,2022-08-17 13:54:20.203125
1585,-39.21,2022-08-17 13:54:20.218750
1586,-45.9,2022-08-17 13:54:20.234375
1587,-50.96,2022-08-17 13:54:20.250000
1588,-53.01,2022-08-17 13:54:20.265625
1589,-51.14,2022-08-17 13:54:20.281250
1590,-45.31,2022-08-17 13:54:20.296875
1591,-36.24,2022-08-17 13:54:20.312500
1592,-25.2,2022-08-17 13:54:20.328125
1593,-13.5,2022-08-17 13:54:20.343750
1594,-2.13,2022-08-17 13:54:20.359375
1595,8.35,2022-08-17 13:54:20.375000
1596,17.84,2022-08-17 13:54:20.390625
1597,26.51,2022-08-17 13:54:20.406250
1598,34.7,2022-08-17 13:54:20.421875
1599,42.88,2022-08-17 13:54:20.437500
1600,51.4,2022-08-17 13:54:20.453125
1601,60.19,2022-08-17 13:54:20.468750
1602,68.36,2022-08-17 13:54:20.484375
1603,74.26,2022-08-17 13:54:20.500000
1604,75.91,2022-08-17 13:54:20.515625
1605,72.0,2022-08-17 13:54:20.531250
1606,62.68,2022-08-17 13:54:20.546875
1607,49.73,2022-08-17 13:54:20.562500
1608,35.91,2022-08-17 13:54:20.578125
1609,23.86,2022-08-17 13:54:20.593750
1610,15.04,2022-08-17 13:54:20.609375
1611,9.45,2022-08-17 13:54:20.625000
1612,6.09,2022-08-17 13:54:20.640625
1613,3.85,2022-08-17 13:54:20.656250
1614,2.24,2022-08-17 13:54:20.671875
1615,1.35,2022-08-17 13:54:20.687500
1616,1.5,2022-08-17 13:54:20.703125
1617,2.62,2022-08-17 13:54:20.718750
1618,4.16,2022-08-17 13:54:20.734375
1619,5.3,2022-08-17 13:54:20.750000
1620,5.5,2022-08-17 13:54:20.765625
1621,4.88,2022-08-17 13:54:20.781250
1622,4.05,2022-08-17 13:54:20.796875
1623,3.78,2022-08-17 13:54:20.812500
1624,4.5,2022-08-17 13:54:20.828125
1625,6.08,2022-08-17 13:54:20.843750
1626,7.92,2022-08-17 13:54:20.859375
1627,9.3,2022-08-17 13:54:20.875000
1628,9.68,2022-08-17 13:54:20.890625
1629,8.98,2022-08-17 13:54:20.906250
1630,7.44,2022-08-17 13:54:20.921875
1631,5.48,2022-08-17 13:54:20.937500
1632,3.36,2022-08-17 13:54:20.953125
1633,0.96,2022-08-17 13:54:20.968750
1634,-2.2,2022-08-17 13:54:20.984375
1635,-6.89,2022-08-17 13:54:21.000000
1636,-13.75,2022-08-17 13:54:21.015625
1637,-23.04,2022-08-17 13:54:21.031250
1638,-34.33,2022-08-17 13:54:21.046875
1639,-46.44,2022-08-17 13:54:21.062500
1640,-57.65,2022-08-17 13:54:21.078125
1641,-66.06,2022-08-17 13:54:21.093750
1642,-70.02,2022-08-17 13:54:21.109375
1643,-68.54,2022-08-17 13:54:21.125000
1644,-61.5,2022-08-17 13:54:21.140625
1645,-49.76,2022-08-17 13:54:21.156250
1646,-34.86,2022-08-17 13:54:21.171875
1647,-18.74,2022-08-17 13:54:21.187500
1648,-3.25,2022-08-17 13:54:21.203125
1649,10.16,2022-08-17 13:54:21.218750
1650,20.7,2022-08-17 13:54:21.234375
1651,28.16,2022-08-17 13:54:21.250000
1652,32.73,2022-08-17 13:54:21.265625
1653,34.79,2022-08-17 13:54:21.281250
1654,34.78,2022-08-17 13:54:21.296875
1655,33.16,2022-08-17 13:54:21.312500
1656,30.47,2022-08-17 13:54:21.328125
1657,27.34,2022-08-17 13:54:21.343750
1658,24.35,2022-08-17 13:54:21.359375
1659,21.93,2022-08-17 13:54:21.375000
1660,20.22,2022-08-17 13:54:21.390625
1661,19.18,2022-08-17 13:54:21.406250
1662,18.63,2022-08-17 13:54:21.421875
1663,18.44,2022-08-17 13:54:21.437500
1664,18.58,2022-08-17 13:54:21.453125
1665,19.12,2022-08-17 13:54:21.468750
1666,20.03,2022-08-17 13:54:21.484375
1667,21.15,2022-08-17 13:54:21.500000
1668,22.15,2022-08-17 13:54:21.515625
1669,22.59,2022-08-17 13:54:21.531250
1670,22.1,2022-08-17 13:54:21.546875
1671,20.53,2022-08-17 13:54:21.562500
1672,18.03,2022-08-17 13:54:21.578125
1673,15.03,2022-08-17 13:54:21.593750
1674,12.05,2022-08-17 13:54:21.609375
1675,9.57,2022-08-17 13:54:21.625000
1676,7.77,2022-08-17 13:54:21.640625
1677,6.57,2022-08-17 13:54:21.656250
1678,5.61,2022-08-17 13:54:21.671875
1679,4.5,2022-08-17 13:54:21.687500
1680,2.98,2022-08-17 13:54:21.703125
1681,1.02,2022-08-17 13:54:21.718750
1682,-1.2,2022-08-17 13:54:21.734375
1683,-3.41,2022-08-17 13:54:21.750000
1684,-5.36,2022-08-17 13:54:21.765625
1685,-6.9,2022-08-17 13:54:21.781250
1686,-8.04,2022-08-17 13:54:21.796875
1687,-8.87,2022-08-17 13:54:21.812500
1688,-9.61,2022-08-17 13:54:21.828125
1689,-10.51,2022-08-17 13:54:21.843750
1690,-11.86,2022-08-17 13:54:21.859375
1691,-13.91,2022-08-17 13:54:21.875000
1692,-16.92,2022-08-17 13:54:21.890625
1693,-21.05,2022-08-17 13:54:21.906250
1694,-26.3,2022-08-17 13:54:21.921875
1695,-32.43,2022-08-17 13:54:21.937500
1696,-38.81,2022-08-17 13:54:21.953125
1697,-44.38,2022-08-17 13:54:21.968750
1698,-47.92,2022-08-17 13:54:21.984375
1699,-48.36,2022-08-17 13:54:22.000000
1700,-45.22,2022-08-17 13:54:22.015625
1701,-38.82,2022-08-17 13:54:22.031250
1702,-30.15,2022-08-17 13:54:22.046875
1703,-20.57,2022-08-17 13:54:22.062500
1704,-11.24,2022-08-17 13:54:22.078125
1705,-2.9,2022-08-17 13:54:22.093750
1706,4.24,2022-08-17 13:54:22.109375
1707,10.3,2022-08-17 13:54:22.125000
1708,15.4,2022-08-17 13:54:22.140625
1709,19.55,2022-08-17 13:54:22.156250
1710,22.64,2022-08-17 13:54:22.171875
1711,24.56,2022-08-17 13:54:22.187500
1712,25.34,2022-08-17 13:54:22.203125
1713,25.19,2022-08-17 13:54:22.218750
1714,24.39,2022-08-17 13:54:22.234375
1715,23.26,2022-08-17 13:54:22.250000
1716,22.03,2022-08-17 13:54:22.265625
1717,20.87,2022-08-17 13:54:22.281250
1718,19.86,2022-08-17 13:54:22.296875
1719,19.07,2022-08-17 13:54:22.312500
1720,18.55,2022-08-17 13:54:22.328125
1721,18.4,2022-08-17 13:54:22.343750
1722,18.77,2022-08-17 13:54:22.359375
1723,19.71,2022-08-17 13:54:22.375000
1724,21.17,2022-08-17 13:54:22.390625
1725,22.87,2022-08-17 13:54:22.406250
1726,24.42,2022-08-17 13:54:22.421875
1727,25.4,2022-08-17 13:54:22.437500
1728,25.51,2022-08-17 13:54:22.453125
1729,24.71,2022-08-17 13:54:22.468750
1730,23.12,2022-08-17 13:54:22.484375
1731,21.01,2022-08-17 13:54:22.500000
1732,18.65,2022-08-17 13:54:22.515625
1733,16.24,2022-08-17 13:54:22.531250
1734,13.88,2022-08-17 13:54:22.546875
1735,11.63,2022-08-17 13:54:22.562500
1736,9.48,2022-08-17 13:54:22.578125
1737,7.45,2022-08-17 13:54:22.593750
1738,5.49,2022-08-17 13:54:22.609375
1739,3.55,2022-08-17 13:54:22.625000
1740,1.52,2022-08-17 13:54:22.640625
1741,-0.65,2022-08-17 13:54:22.656250
1742,-2.92,2022-08-17 13:54:22.671875
1743,-5.15,2022-08-17 13:54:22.687500
1744,-7.15,2022-08-17 13:54:22.703125
1745,-8.73,2022-08-17 13:54:22.718750
1746,-9.94,2022-08-17 13:54:22.734375
1747,-11.01,2022-08-17 13:54:22.750000
1748,-12.41,2022-08-17 13:54:22.765625
1749,-14.69,2022-08-17 13:54:22.781250
1750,-18.2,2022-08-17 13:54:22.796875
1751,-22.94,2022-08-17 13:54:22.812500
1752,-28.43,2022-08-17 13:54:22.828125
1753,-33.83,2022-08-17 13:54:22.843750
1754,-38.1,2022-08-17 13:54:22.859375
1755,-40.32,2022-08-17 13:54:22.875000
1756,-39.92,2022-08-17 13:54:22.890625
1757,-36.8,2022-08-17 13:54:22.906250
1758,-31.37,2022-08-17 13:54:22.921875
1759,-24.39,2022-08-17 13:54:22.937500
1760,-16.76,2022-08-17 13:54:22.953125
1761,-9.29,2022-08-17 13:54:22.968750
1762,-2.53,2022-08-17 13:54:22.984375
1763,3.27,2022-08-17 13:54:23.000000
1764,8.1,2022-08-17 13:54:23.015625
1765,12.01,2022-08-17 13:54:23.031250
1766,15.03,2022-08-17 13:54:23.046875
1767,17.06,2022-08-17 13:54:23.062500
1768,17.98,2022-08-17 13:54:23.078125
1769,17.75,2022-08-17 13:54:23.093750
1770,16.52,2022-08-17 13:54:23.109375
1771,14.66,2022-08-17 13:54:23.125000
1772,12.66,2022-08-17 13:54:23.140625
1773,10.94,2022-08-17 13:54:23.156250
1774,9.74,2022-08-17 13:54:23.171875
1775,9.04,2022-08-17 13:54:23.187500
1776,8.65,2022-08-17 13:54:23.203125
1777,8.39,2022-08-17 13:54:23.218750
1778,8.18,2022-08-17 13:54:23.234375
1779,8.09,2022-08-17 13:54:23.250000
1780,8.29,2022-08-17 13:54:23.265625
1781,8.87,2022-08-17 13:54:23.281250
1782,9.75,2022-08-17 13:54:23.296875
1783,10.7,2022-08-17 13:54:23.312500
1784,11.39,2022-08-17 13:54:23.328125
1785,11.54,2022-08-17 13:54:23.343750
1786,11.03,2022-08-17 13:54:23.359375
1787,9.94,2022-08-17 13:54:23.375000
1788,8.46,2022-08-17 13:54:23.390625
1789,6.76,2022-08-17 13:54:23.406250
1790,4.93,2022-08-17 13:54:23.421875
1791,2.88,2022-08-17 13:54:23.437500
1792,0.49,2022-08-17 13:54:23.453125
1793,-2.34,2022-08-17 13:54:23.468750
1794,-5.55,2022-08-17 13:54:23.484375
1795,-8.91,2022-08-17 13:54:23.500000
1796,-12.11,2022-08-17 13:54:23.515625
1797,-14.87,2022-08-17 13:54:23.531250
1798,-17.12,2022-08-17 13:54:23.546875
1799,-18.97,2022-08-17 13:54:23.562500
1800,-20.7,2022-08-17 13:54:23.578125
1801,-22.6,2022-08-17 13:54:23.593750
1802,-24.89,2022-08-17 13:54:23.609375
1803,-27.65,2022-08-17 13:54:23.625000
1804,-30.9,2022-08-17 13:54:23.640625
1805,-34.62,2022-08-17 13:54:23.656250
1806,-38.73,2022-08-17 13:54:23.671875
1807,-42.99,2022-08-17 13:54:23.687500
1808,-46.85,2022-08-17 13:54:23.703125
1809,-49.46,2022-08-17 13:54:23.718750
1810,-49.87,2022-08-17 13:54:23.734375
1811,-47.4,2022-08-17 13:54:23.750000
1812,-41.96,2022-08-17 13:54:23.765625
1813,-34.18,2022-08-17 13:54:23.781250
1814,-25.25,2022-08-17 13:54:23.796875
1815,-16.52,2022-08-17 13:54:23.812500
1816,-9.02,2022-08-17 13:54:23.828125
1817,-3.17,2022-08-17 13:54:23.843750
1818,1.17,2022-08-17 13:54:23.859375
1819,4.45,2022-08-17 13:54:23.875000
1820,7.12,2022-08-17 13:54:23.890625
1821,9.4,2022-08-17 13:54:23.906250
1822,11.28,2022-08-17 13:54:23.921875
1823,12.61,2022-08-17 13:54:23.937500
1824,13.29,2022-08-17 13:54:23.953125
1825,13.32,2022-08-17 13:54:23.968750
1826,12.8,2022-08-17 13:54:23.984375
1827,11.86,2022-08-17 13:54:24.000000
1828,10.61,2022-08-17 13:54:24.015625
1829,9.12,2022-08-17 13:54:24.031250
1830,7.49,2022-08-17 13:54:24.046875
1831,5.81,2022-08-17 13:54:24.062500
1832,4.23,2022-08-17 13:54:24.078125
1833,2.96,2022-08-17 13:54:24.093750
1834,2.23,2022-08-17 13:54:24.109375
1835,2.19,2022-08-17 13:54:24.125000
1836,2.93,2022-08-17 13:54:24.140625
1837,4.31,2022-08-17 13:54:24.156250
1838,6.05,2022-08-17 13:54:24.171875
1839,7.68,2022-08-17 13:54:24.187500
1840,8.74,2022-08-17 13:54:24.203125
1841,8.91,2022-08-17 13:54:24.218750
1842,8.2,2022-08-17 13:54:24.234375
1843,6.92,2022-08-17 13:54:24.250000
1844,5.55,2022-08-17 13:54:24.265625
1845,4.59,2022-08-17 13:54:24.281250
1846,4.33,2022-08-17 13:54:24.296875
1847,4.78,2022-08-17 13:54:24.312500
1848,5.71,2022-08-17 13:54:24.328125
1849,6.76,2022-08-17 13:54:24.343750
1850,7.56,2022-08-17 13:54:24.359375
1851,7.86,2022-08-17 13:54:24.375000
1852,7.5,2022-08-17 13:54:24.390625
1853,6.51,2022-08-17 13:54:24.406250
1854,5.07,2022-08-17 13:54:24.421875
1855,3.44,2022-08-17 13:54:24.437500
1856,1.9,2022-08-17 13:54:24.453125
1857,0.62,2022-08-17 13:54:24.468750
1858,-0.4,2022-08-17 13:54:24.484375
1859,-1.41,2022-08-17 13:54:24.500000
1860,-2.79,2022-08-17 13:54:24.515625
1861,-4.97,2022-08-17 13:54:24.531250
1862,-8.21,2022-08-17 13:54:24.546875
1863,-12.4,2022-08-17 13:54:24.562500
1864,-17.03,2022-08-17 13:54:24.578125
1865,-21.14,2022-08-17 13:54:24.593750
1866,-23.58,2022-08-17 13:54:24.609375
1867,-23.33,2022-08-17 13:54:24.625000
1868,-19.83,2022-08-17 13:54:24.640625
1869,-13.24,2022-08-17 13:54:24.656250
1870,-4.39,2022-08-17 13:54:24.671875
1871,5.52,2022-08-17 13:54:24.687500
1872,15.28,2022-08-17 13:54:24.703125
1873,24.12,2022-08-17 13:54:24.718750
1874,31.75,2022-08-17 13:54:24.734375
1875,38.33,2022-08-17 13:54:24.750000
1876,44.12,2022-08-17 13:54:24.765625
1877,49.26,2022-08-17 13:54:24.781250
1878,53.72,2022-08-17 13:54:24.796875
1879,57.32,2022-08-17 13:54:24.812500
1880,59.95,2022-08-17 13:54:24.828125
1881,61.74,2022-08-17 13:54:24.843750
1882,63.04,2022-08-17 13:54:24.859375
1883,64.39,2022-08-17 13:54:24.875000
1884,66.28,2022-08-17 13:54:24.890625
1885,68.98,2022-08-17 13:54:24.906250
1886,72.4,2022-08-17 13:54:24.921875
1887,76.14,2022-08-17 13:54:24.937500
1888,79.64,2022-08-17 13:54:24.953125
1889,82.43,2022-08-17 13:54:24.968750
1890,84.29,2022-08-17 13:54:24.984375
1891,85.38,2022-08-17 13:54:25.000000
1892,86.16,2022-08-17 13:54:25.015625
1893,87.19,2022-08-17 13:54:25.031250
1894,89.03,2022-08-17 13:54:25.046875
1895,91.98,2022-08-17 13:54:25.062500
1896,95.94,2022-08-17 13:54:25.078125
1897,100.2,2022-08-17 13:54:25.093750
1898,103.41,2022-08-17 13:54:25.109375
1899,103.71,2022-08-17 13:54:25.125000
1900,99.18,2022-08-17 13:54:25.140625
1901,88.5,2022-08-17 13:54:25.156250
1902,71.53,2022-08-17 13:54:25.171875
1903,49.52,2022-08-17 13:54:25.187500
1904,24.89,2022-08-17 13:54:25.203125
1905,0.44,2022-08-17 13:54:25.218750
1906,-21.44,2022-08-17 13:54:25.234375
1907,-39.3,2022-08-17 13:54:25.250000
1908,-52.79,2022-08-17 13:54:25.265625
1909,-62.29,2022-08-17 13:54:25.281250
1910,-68.41,2022-08-17 13:54:25.296875
1911,-71.64,2022-08-17 13:54:25.312500
1912,-72.23,2022-08-17 13:54:25.328125
1913,-70.23,2022-08-17 13:54:25.343750
1914,-65.74,2022-08-17 13:54:25.359375
1915,-59.02,2022-08-17 13:54:25.375000
1916,-50.56,2022-08-17 13:54:25.390625
1917,-41.15,2022-08-17 13:54:25.406250
1918,-31.77,2022-08-17 13:54:25.421875
1919,-23.51,2022-08-17 13:54:25.437500
1920,-17.32,2022-08-17 13:54:25.453125
1921,-13.75,2022-08-17 13:54:25.468750
1922,-12.83,2022-08-17 13:54:25.484375
1923,-13.92,2022-08-17 13:54:25.500000
1924,-15.9,2022-08-17 13:54:25.515625
1925,-17.51,2022-08-17 13:54:25.531250
1926,-17.62,2022-08-17 13:54:25.546875
1927,-15.62,2022-08-17 13:54:25.562500
1928,-11.63,2022-08-17 13:54:25.578125
1929,-6.67,2022-08-17 13:54:25.593750
1930,-2.51,2022-08-17 13:54:25.609375
1931,-1.33,2022-08-17 13:54:25.625000
1932,-5.01,2022-08-17 13:54:25.640625
1933,-14.38,2022-08-17 13:54:25.656250
1934,-28.78,2022-08-17 13:54:25.671875
1935,-46.15,2022-08-17 13:54:25.687500
1936,-63.64,2022-08-17 13:54:25.703125
1937,-78.76,2022-08-17 13:54:25.718750
1938,-90.16,2022-08-17 13:54:25.734375
1939,-97.97,2022-08-17 13:54:25.750000
1940,-103.46,2022-08-17 13:54:25.765625
1941,-108.22,2022-08-17 13:54:25.781250
1942,-113.35,2022-08-17 13:54:25.796875
1943,-118.97,2022-08-17 13:54:25.812500
1944,-124.24,2022-08-17 13:54:25.828125
1945,-127.86,2022-08-17 13:54:25.843750
1946,-128.62,2022-08-17 13:54:25.859375
1947,-125.89,2022-08-17 13:54:25.875000
1948,-119.75,2022-08-17 13:54:25.890625
1949,-110.82,2022-08-17 13:54:25.906250
1950,-99.96,2022-08-17 13:54:25.921875
1951,-87.97,2022-08-17 13:54:25.937500
1952,-75.45,2022-08-17 13:54:25.953125
1953,-62.86,2022-08-17 13:54:25.968750
1954,-50.78,2022-08-17 13:54:25.984375
1955,-39.93,2022-08-17 13:54:26.000000
1956,-31.09,2022-08-17 13:54:26.015625
1957,-24.79,2022-08-17 13:54:26.031250
1958,-20.96,2022-08-17 13:54:26.046875
1959,-18.85,2022-08-17 13:54:26.062500
1960,-17.33,2022-08-17 13:54:26.078125
1961,-15.37,2022-08-17 13:54:26.093750
1962,-12.56,2022-08-17 13:54:26.109375
1963,-9.2,2022-08-17 13:54:26.125000
1964,-6.12,2022-08-17 13:54:26.140625
1965,-4.18,2022-08-17 13:54:26.156250
1966,-3.8,2022-08-17 13:54:26.171875
1967,-4.85,2022-08-17 13:54:26.187500
1968,-6.73,2022-08-17 13:54:26.203125
1969,-8.78,2022-08-17 13:54:26.218750
1970,-10.56,2022-08-17 13:54:26.234375
1971,-12.04,2022-08-17 13:54:26.250000
1972,-13.49,2022-08-17 13:54:26.265625
1973,-15.22,2022-08-17 13:54:26.281250
1974,-17.42,2022-08-17 13:54:26.296875
1975,-20.01,2022-08-17 13:54:26.312500
1976,-22.7,2022-08-17 13:54:26.328125
1977,-25.05,2022-08-17 13:54:26.343750
1978,-26.6,2022-08-17 13:54:26.359375
1979,-26.96,2022-08-17 13:54:26.375000
1980,-25.86,2022-08-17 13:54:26.390625
1981,-23.16,2022-08-17 13:54:26.406250
1982,-18.81,2022-08-17 13:54:26.421875
1983,-13.0,2022-08-17 13:54:26.437500
1984,-6.0,2022-08-17 13:54:26.453125
1985,1.75,2022-08-17 13:54:26.468750
1986,9.68,2022-08-17 13:54:26.484375
1987,17.22,2022-08-17 13:54:26.500000
1988,23.85,2022-08-17 13:54:26.515625
1989,29.24,2022-08-17 13:54:26.531250
1990,33.22,2022-08-17 13:54:26.546875
1991,35.84,2022-08-17 13:54:26.562500
1992,37.21,2022-08-17 13:54:26.578125
1993,37.49,2022-08-17 13:54:26.593750
1994,36.88,2022-08-17 13:54:26.609375
1995,35.6,2022-08-17 13:54:26.625000
1996,33.99,2022-08-17 13:54:26.640625
1997,32.43,2022-08-17 13:54:26.656250
1998,31.24,2022-08-17 13:54:26.671875
1999,30.6,2022-08-17 13:54:26.687500
2000,30.46,2022-08-17 13:54:26.703125
2001,30.62,2022-08-17 13:54:26.718750
2002,30.96,2022-08-17 13:54:26.734375
2003,31.42,2022-08-17 13:54:26.750000
2004,32.1,2022-08-17 13:54:26.765625
2005,33.03,2022-08-17 13:54:26.781250
2006,34.08,2022-08-17 13:54:26.796875
2007,34.88,2022-08-17 13:54:26.812500
2008,34.99,2022-08-17 13:54:26.828125
2009,34.14,2022-08-17 13:54:26.843750
2010,32.38,2022-08-17 13:54:26.859375
2011,30.06,2022-08-17 13:54:26.875000
2012,27.72,2022-08-17 13:54:26.890625
2013,25.72,2022-08-17 13:54:26.906250
2014,24.15,2022-08-17 13:54:26.921875
2015,22.8,2022-08-17 13:54:26.937500
2016,21.3,2022-08-17 13:54:26.953125
2017,19.43,2022-08-17 13:54:26.968750
2018,17.15,2022-08-17 13:54:26.984375
2019,14.61,2022-08-17 13:54:27.000000
2020,12.04,2022-08-17 13:54:27.015625
2021,9.56,2022-08-17 13:54:27.031250
2022,7.2,2022-08-17 13:54:27.046875
2023,4.87,2022-08-17 13:54:27.062500
2024,2.58,2022-08-17 13:54:27.078125
2025,0.43,2022-08-17 13:54:27.093750
2026,-1.41,2022-08-17 13:54:27.109375
2027,-2.78,2022-08-17 13:54:27.125000
2028,-3.71,2022-08-17 13:54:27.140625
2029,-4.38,2022-08-17 13:54:27.156250
2030,-5.14,2022-08-17 13:54:27.171875
2031,-6.38,2022-08-17 13:54:27.187500
2032,-8.39,2022-08-17 13:54:27.203125
2033,-11.25,2022-08-17 13:54:27.218750
2034,-14.85,2022-08-17 13:54:27.234375
2035,-18.87,2022-08-17 13:54:27.250000
2036,-22.83,2022-08-17 13:54:27.265625
2037,-26.2,2022-08-17 13:54:27.281250
2038,-28.47,2022-08-17 13:54:27.296875
2039,-29.26,2022-08-17 13:54:27.312500
2040,-28.41,2022-08-17 13:54:27.328125
2041,-26.01,2022-08-17 13:54:27.343750
2042,-22.3,2022-08-17 13:54:27.359375
2043,-17.62,2022-08-17 13:54:27.375000
2044,-12.28,2022-08-17 13:54:27.390625
2045,-6.53,2022-08-17 13:54:27.406250
2046,-0.56,2022-08-17 13:54:27.421875
2047,5.41,2022-08-17 13:54:27.437500
2048,11.17,2022-08-17 13:54:27.453125
2049,16.48,2022-08-17 13:54:27.468750
2050,21.13,2022-08-17 13:54:27.484375
2051,24.99,2022-08-17 13:54:27.500000
2052,28.06,2022-08-17 13:54:27.515625
2053,30.46,2022-08-17 13:54:27.531250
2054,32.45,2022-08-17 13:54:27.546875
2055,34.39,2022-08-17 13:54:27.562500
2056,36.69,2022-08-17 13:54:27.578125
2057,39.72,2022-08-17 13:54:27.593750
2058,43.74,2022-08-17 13:54:27.609375
2059,48.79,2022-08-17 13:54:27.625000
2060,54.66,2022-08-17 13:54:27.640625
2061,60.91,2022-08-17 13:54:27.656250
2062,67.01,2022-08-17 13:54:27.671875
2063,72.36,2022-08-17 13:54:27.687500
2064,76.44,2022-08-17 13:54:27.703125
2065,78.83,2022-08-17 13:54:27.718750
2066,79.17,2022-08-17 13:54:27.734375
2067,77.24,2022-08-17 13:54:27.750000
2068,73.09,2022-08-17 13:54:27.765625
2069,67.16,2022-08-17 13:54:27.781250
2070,60.28,2022-08-17 13:54:27.796875
2071,53.56,2022-08-17 13:54:27.812500
2072,47.99,2022-08-17 13:54:27.828125
2073,44.03,2022-08-17 13:54:27.843750
2074,41.35,2022-08-17 13:54:27.859375
2075,38.86,2022-08-17 13:54:27.875000
2076,35.03,2022-08-17 13:54:27.890625
2077,28.5,2022-08-17 13:54:27.906250
2078,18.61,2022-08-17 13:54:27.921875
2079,5.74,2022-08-17 13:54:27.937500
2080,-8.82,2022-08-17 13:54:27.953125
2081,-23.43,2022-08-17 13:54:27.968750
2082,-36.61,2022-08-17 13:54:27.984375
2083,-47.62,2022-08-17 13:54:28.000000
2084,-56.52,2022-08-17 13:54:28.015625
2085,-63.9,2022-08-17 13:54:28.031250
2086,-70.47,2022-08-17 13:54:28.046875
2087,-76.61,2022-08-17 13:54:28.062500
2088,-82.28,2022-08-17 13:54:28.078125
2089,-87.17,2022-08-17 13:54:28.093750
2090,-90.93,2022-08-17 13:54:28.109375
2091,-93.34,2022-08-17 13:54:28.125000
2092,-94.34,2022-08-17 13:54:28.140625
2093,-93.76,2022-08-17 13:54:28.156250
2094,-91.2,2022-08-17 13:54:28.171875
2095,-86.1,2022-08-17 13:54:28.187500
2096,-77.97,2022-08-17 13:54:28.203125
2097,-66.72,2022-08-17 13:54:28.218750
2098,-52.87,2022-08-17 13:54:28.234375
2099,-37.44,2022-08-17 13:54:28.250000
2100,-21.59,2022-08-17 13:54:28.265625
2101,-6.28,2022-08-17 13:54:28.281250
2102,7.99,2022-08-17 13:54:28.296875
2103,21.18,2022-08-17 13:54:28.312500
2104,33.53,2022-08-17 13:54:28.328125
2105,45.19,2022-08-17 13:54:28.343750
2106,56.13,2022-08-17 13:54:28.359375
2107,66.04,2022-08-17 13:54:28.375000
2108,74.47,2022-08-17 13:54:28.390625
2109,81.04,2022-08-17 13:54:28.406250
2110,85.57,2022-08-17 13:54:28.421875
2111,88.23,2022-08-17 13:54:28.437500
2112,89.53,2022-08-17 13:54:28.453125
2113,90.21,2022-08-17 13:54:28.468750
2114,91.02,2022-08-17 13:54:28.484375
2115,92.52,2022-08-17 13:54:28.500000
2116,94.85,2022-08-17 13:54:28.515625
2117,97.67,2022-08-17 13:54:28.531250
2118,100.23,2022-08-17 13:54:28.546875
2119,101.54,2022-08-17 13:54:28.562500
2120,100.65,2022-08-17 13:54:28.578125
2121,96.88,2022-08-17 13:54:28.593750
2122,89.97,2022-08-17 13:54:28.609375
2123,80.18,2022-08-17 13:54:28.625000
2124,68.26,2022-08-17 13:54:28.640625
2125,55.24,2022-08-17 13:54:28.656250
2126,42.2,2022-08-17 13:54:28.671875
2127,30.03,2022-08-17 13:54:28.687500
2128,19.16,2022-08-17 13:54:28.703125
2129,9.55,2022-08-17 13:54:28.718750
2130,0.75,2022-08-17 13:54:28.734375
2131,-7.82,2022-08-17 13:54:28.750000
2132,-16.64,2022-08-17 13:54:28.765625
2133,-25.83,2022-08-17 13:54:28.781250
2134,-35.1,2022-08-17 13:54:28.796875
2135,-43.89,2022-08-17 13:54:28.812500
2136,-51.62,2022-08-17 13:54:28.828125
2137,-57.87,2022-08-17 13:54:28.843750
2138,-62.54,2022-08-17 13:54:28.859375
2139,-65.8,2022-08-17 13:54:28.875000
2140,-68.04,2022-08-17 13:54:28.890625
2141,-69.67,2022-08-17 13:54:28.906250
2142,-71.02,2022-08-17 13:54:28.921875
2143,-72.35,2022-08-17 13:54:28.937500
2144,-73.8,2022-08-17 13:54:28.953125
2145,-75.42,2022-08-17 13:54:28.968750
2146,-77.2,2022-08-17 13:54:28.984375
2147,-78.99,2022-08-17 13:54:29.000000
2148,-80.46,2022-08-17 13:54:29.015625
2149,-81.16,2022-08-17 13:54:29.031250
2150,-80.51,2022-08-17 13:54:29.046875
2151,-78.08,2022-08-17 13:54:29.062500
2152,-73.64,2022-08-17 13:54:29.078125
2153,-67.39,2022-08-17 13:54:29.093750
2154,-59.85,2022-08-17 13:54:29.109375
2155,-51.8,2022-08-17 13:54:29.125000
2156,-43.97,2022-08-17 13:54:29.140625
2157,-36.88,2022-08-17 13:54:29.156250
2158,-30.66,2022-08-17 13:54:29.171875
2159,-25.19,2022-08-17 13:54:29.187500
2160,-20.28,2022-08-17 13:54:29.203125
2161,-15.82,2022-08-17 13:54:29.218750
2162,-11.96,2022-08-17 13:54:29.234375
2163,-8.98,2022-08-17 13:54:29.250000
2164,-7.09,2022-08-17 13:54:29.265625
2165,-6.23,2022-08-17 13:54:29.281250
2166,-6.02,2022-08-17 13:54:29.296875
2167,-5.78,2022-08-17 13:54:29.312500
2168,-4.85,2022-08-17 13:54:29.328125
2169,-2.8,2022-08-17 13:54:29.343750
2170,0.41,2022-08-17 13:54:29.359375
2171,4.5,2022-08-17 13:54:29.375000
2172,9.05,2022-08-17 13:54:29.390625
2173,13.74,2022-08-17 13:54:29.406250
2174,18.44,2022-08-17 13:54:29.421875
2175,23.19,2022-08-17 13:54:29.437500
2176,28.06,2022-08-17 13:54:29.453125
2177,32.93,2022-08-17 13:54:29.468750
2178,37.47,2022-08-17 13:54:29.484375
2179,41.12,2022-08-17 13:54:29.500000
2180,43.28,2022-08-17 13:54:29.515625
2181,43.55,2022-08-17 13:54:29.531250
2182,41.85,2022-08-17 13:54:29.546875
2183,38.46,2022-08-17 13:54:29.562500
2184,33.99,2022-08-17 13:54:29.578125
2185,29.13,2022-08-17 13:54:29.593750
2186,24.4,2022-08-17 13:54:29.609375
2187,20.0,2022-08-17 13:54:29.625000
2188,15.71,2022-08-17 13:54:29.640625
2189,11.04,2022-08-17 13:54:29.656250
2190,5.48,2022-08-17 13:54:29.671875
2191,-1.16,2022-08-17 13:54:29.687500
2192,-8.61,2022-08-17 13:54:29.703125
2193,-16.19,2022-08-17 13:54:29.718750
2194,-23.12,2022-08-17 13:54:29.734375
2195,-28.87,2022-08-17 13:54:29.750000
2196,-33.38,2022-08-17 13:54:29.765625
2197,-37.05,2022-08-17 13:54:29.781250
2198,-40.46,2022-08-17 13:54:29.796875
2199,-44.1,2022-08-17 13:54:29.812500
2200,-48.13,2022-08-17 13:54:29.828125
2201,-52.38,2022-08-17 13:54:29.843750
2202,-56.42,2022-08-17 13:54:29.859375
2203,-59.67,2022-08-17 13:54:29.875000
2204,-61.44,2022-08-17 13:54:29.890625
2205,-60.94,2022-08-17 13:54:29.906250
2206,-57.46,2022-08-17 13:54:29.921875
2207,-50.61,2022-08-17 13:54:29.937500
2208,-40.62,2022-08-17 13:54:29.953125
2209,-28.51,2022-08-17 13:54:29.968750
2210,-15.88,2022-08-17 13:54:29.984375
2211,-4.41,2022-08-17 13:54:30.000000
2212,4.7,2022-08-17 13:54:30.015625
2213,11.06,2022-08-17 13:54:30.031250
2214,14.92,2022-08-17 13:54:30.046875
2215,16.63,2022-08-17 13:54:30.062500
2216,16.2,2022-08-17 13:54:30.078125
2217,13.26,2022-08-17 13:54:30.093750
2218,7.36,2022-08-17 13:54:30.109375
2219,-1.39,2022-08-17 13:54:30.125000
2220,-11.99,2022-08-17 13:54:30.140625
2221,-22.67,2022-08-17 13:54:30.156250
2222,-31.56,2022-08-17 13:54:30.171875
2223,-37.36,2022-08-17 13:54:30.187500
2224,-39.78,2022-08-17 13:54:30.203125
2225,-39.42,2022-08-17 13:54:30.218750
2226,-37.24,2022-08-17 13:54:30.234375
2227,-34.05,2022-08-17 13:54:30.250000
2228,-30.26,2022-08-17 13:54:30.265625
2229,-25.96,2022-08-17 13:54:30.281250
2230,-21.21,2022-08-17 13:54:30.296875
2231,-16.21,2022-08-17 13:54:30.312500
2232,-11.3,2022-08-17 13:54:30.328125
2233,-6.81,2022-08-17 13:54:30.343750
2234,-2.9,2022-08-17 13:54:30.359375
2235,0.37,2022-08-17 13:54:30.375000
2236,3.03,2022-08-17 13:54:30.390625
2237,5.11,2022-08-17 13:54:30.406250
2238,6.61,2022-08-17 13:54:30.421875
2239,7.62,2022-08-17 13:54:30.437500
2240,8.33,2022-08-17 13:54:30.453125
2241,8.92,2022-08-17 13:54:30.468750
2242,9.53,2022-08-17 13:54:30.484375
2243,10.06,2022-08-17 13:54:30.500000
2244,10.29,2022-08-17 13:54:30.515625
2245,10.01,2022-08-17 13:54:30.531250
2246,9.15,2022-08-17 13:54:30.546875
2247,7.88,2022-08-17 13:54:30.562500
2248,6.46,2022-08-17 13:54:30.578125
2249,5.1,2022-08-17 13:54:30.593750
2250,3.79,2022-08-17 13:54:30.609375
2251,2.29,2022-08-17 13:54:30.625000
2252,0.27,2022-08-17 13:54:30.640625
2253,-2.57,2022-08-17 13:54:30.656250
2254,-6.34,2022-08-17 13:54:30.671875
2255,-10.91,2022-08-17 13:54:30.687500
2256,-15.93,2022-08-17 13:54:30.703125
2257,-20.91,2022-08-17 13:54:30.718750
2258,-25.29,2022-08-17 13:54:30.734375
2259,-28.52,2022-08-17 13:54:30.750000
2260,-30.19,2022-08-17 13:54:30.765625
2261,-30.05,2022-08-17 13:54:30.781250
2262,-28.15,2022-08-17 13:54:30.796875
2263,-24.75,2022-08-17 13:54:30.812500
2264,-20.28,2022-08-17 13:54:30.828125
2265,-15.21,2022-08-17 13:54:30.843750
2266,-9.93,2022-08-17 13:54:30.859375
2267,-4.72,2022-08-17 13:54:30.875000
2268,0.22,2022-08-17 13:54:30.890625
2269,4.77,2022-08-17 13:54:30.906250
2270,8.79,2022-08-17 13:54:30.921875
2271,12.14,2022-08-17 13:54:30.937500
2272,14.76,2022-08-17 13:54:30.953125
2273,16.65,2022-08-17 13:54:30.968750
2274,18.01,2022-08-17 13:54:30.984375
2275,19.11,2022-08-17 13:54:31.000000
2276,20.28,2022-08-17 13:54:31.015625
2277,21.82,2022-08-17 13:54:31.031250
2278,23.88,2022-08-17 13:54:31.046875
2279,26.43,2022-08-17 13:54:31.062500
2280,29.23,2022-08-17 13:54:31.078125
2281,31.93,2022-08-17 13:54:31.093750
2282,34.18,2022-08-17 13:54:31.109375
2283,35.74,2022-08-17 13:54:31.125000
2284,36.58,2022-08-17 13:54:31.140625
2285,36.85,2022-08-17 13:54:31.156250
2286,36.81,2022-08-17 13:54:31.171875
2287,36.71,2022-08-17 13:54:31.187500
2288,36.63,2022-08-17 13:54:31.203125
2289,36.56,2022-08-17 13:54:31.218750
2290,36.37,2022-08-17 13:54:31.234375
2291,35.98,2022-08-17 13:54:31.250000
2292,35.31,2022-08-17 13:54:31.265625
2293,34.36,2022-08-17 13:54:31.281250
2294,33.16,2022-08-17 13:54:31.296875
2295,31.76,2022-08-17 13:54:31.312500
2296,30.26,2022-08-17 13:54:31.328125
2297,28.75,2022-08-17 13:54:31.343750
2298,27.36,2022-08-17 13:54:31.359375
2299,26.15,2022-08-17 13:54:31.375000
2300,25.14,2022-08-17 13:54:31.390625
2301,24.32,2022-08-17 13:54:31.406250
2302,23.72,2022-08-17 13:54:31.421875
2303,23.41,2022-08-17 13:54:31.437500
2304,23.52,2022-08-17 13:54:31.453125
2305,24.16,2022-08-17 13:54:31.468750
2306,25.31,2022-08-17 13:54:31.484375
2307,26.81,2022-08-17 13:54:31.500000
2308,28.41,2022-08-17 13:54:31.515625
2309,29.82,2022-08-17 13:54:31.531250
2310,30.84,2022-08-17 13:54:31.546875
2311,31.36,2022-08-17 13:54:31.562500
2312,31.45,2022-08-17 13:54:31.578125
2313,31.36,2022-08-17 13:54:31.593750
2314,31.63,2022-08-17 13:54:31.609375
2315,33.03,2022-08-17 13:54:31.625000
2316,36.36,2022-08-17 13:54:31.640625
2317,42.25,2022-08-17 13:54:31.656250
2318,50.84,2022-08-17 13:54:31.671875
2319,61.78,2022-08-17 13:54:31.687500
2320,74.3,2022-08-17 13:54:31.703125
2321,87.47,2022-08-17 13:54:31.718750
2322,100.4,2022-08-17 13:54:31.734375
2323,112.39,2022-08-17 13:54:31.750000
2324,122.78,2022-08-17 13:54:31.765625
2325,130.96,2022-08-17 13:54:31.781250
2326,136.27,2022-08-17 13:54:31.796875
2327,138.17,2022-08-17 13:54:31.812500
2328,136.37,2022-08-17 13:54:31.828125
2329,131.04,2022-08-17 13:54:31.843750
2330,122.76,2022-08-17 13:54:31.859375
2331,112.36,2022-08-17 13:54:31.875000
2332,100.71,2022-08-17 13:54:31.890625
2333,88.48,2022-08-17 13:54:31.906250
2334,76.16,2022-08-17 13:54:31.921875
2335,64.11,2022-08-17 13:54:31.937500
2336,52.68,2022-08-17 13:54:31.953125
2337,42.17,2022-08-17 13:54:31.968750
2338,32.82,2022-08-17 13:54:31.984375
2339,24.64,2022-08-17 13:54:32.000000
2340,17.52,2022-08-17 13:54:32.015625
2341,11.2,2022-08-17 13:54:32.031250
2342,5.45,2022-08-17 13:54:32.046875
2343,0.12,2022-08-17 13:54:32.062500
2344,-4.9,2022-08-17 13:54:32.078125
2345,-9.72,2022-08-17 13:54:32.093750
2346,-14.48,2022-08-17 13:54:32.109375
2347,-19.31,2022-08-17 13:54:32.125000
2348,-24.15,2022-08-17 13:54:32.140625
2349,-28.64,2022-08-17 13:54:32.156250
2350,-32.25,2022-08-17 13:54:32.171875
2351,-34.54,2022-08-17 13:54:32.187500
2352,-35.56,2022-08-17 13:54:32.203125
2353,-35.99,2022-08-17 13:54:32.218750
2354,-37.04,2022-08-17 13:54:32.234375
2355,-39.92,2022-08-17 13:54:32.250000
2356,-45.31,2022-08-17 13:54:32.265625
2357,-53.03,2022-08-17 13:54:32.281250
2358,-62.12,2022-08-17 13:54:32.296875
2359,-71.32,2022-08-17 13:54:32.312500
2360,-79.66,2022-08-17 13:54:32.328125
2361,-86.79,2022-08-17 13:54:32.343750
2362,-92.93,2022-08-17 13:54:32.359375
2363,-98.56,2022-08-17 13:54:32.375000
2364,-103.92,2022-08-17 13:54:32.390625
2365,-108.87,2022-08-17 13:54:32.406250
2366,-112.96,2022-08-17 13:54:32.421875
2367,-115.65,2022-08-17 13:54:32.437500
2368,-116.68,2022-08-17 13:54:32.453125
2369,-116.07,2022-08-17 13:54:32.468750
2370,-114.04,2022-08-17 13:54:32.484375
2371,-110.81,2022-08-17 13:54:32.500000
2372,-106.48,2022-08-17 13:54:32.515625
2373,-101.13,2022-08-17 13:54:32.531250
2374,-94.85,2022-08-17 13:54:32.546875
2375,-87.84,2022-08-17 13:54:32.562500
2376,-80.31,2022-08-17 13:54:32.578125
2377,-72.4,2022-08-17 13:54:32.593750
2378,-64.1,2022-08-17 13:54:32.609375
2379,-55.33,2022-08-17 13:54:32.625000
2380,-46.14,2022-08-17 13:54:32.640625
2381,-36.84,2022-08-17 13:54:32.656250
2382,-28.06,2022-08-17 13:54:32.671875
2383,-20.47,2022-08-17 13:54:32.687500
2384,-14.49,2022-08-17 13:54:32.703125
2385,-9.98,2022-08-17 13:54:32.718750
2386,-6.28,2022-08-17 13:54:32.734375
2387,-2.47,2022-08-17 13:54:32.750000
2388,2.19,2022-08-17 13:54:32.765625
2389,7.89,2022-08-17 13:54:32.781250
2390,14.23,2022-08-17 13:54:32.796875
2391,20.39,2022-08-17 13:54:32.812500
2392,25.58,2022-08-17 13:54:32.828125
2393,29.35,2022-08-17 13:54:32.843750
2394,31.67,2022-08-17 13:54:32.859375
2395,32.85,2022-08-17 13:54:32.875000
2396,33.36,2022-08-17 13:54:32.890625
2397,33.75,2022-08-17 13:54:32.906250
2398,34.67,2022-08-17 13:54:32.921875
2399,36.76,2022-08-17 13:54:32.937500
2400,40.36,2022-08-17 13:54:32.953125
2401,45.04,2022-08-17 13:54:32.968750
2402,49.26,2022-08-17 13:54:32.984375
2403,50.59,2022-08-17 13:54:33.000000
2404,46.53,2022-08-17 13:54:33.015625
2405,35.69,2022-08-17 13:54:33.031250
2406,18.65,2022-08-17 13:54:33.046875
2407,-1.98,2022-08-17 13:54:33.062500
2408,-22.48,2022-08-17 13:54:33.078125
2409,-39.43,2022-08-17 13:54:33.093750
2410,-50.95,2022-08-17 13:54:33.109375
2411,-57.08,2022-08-17 13:54:33.125000
2412,-59.25,2022-08-17 13:54:33.140625
2413,-59.23,2022-08-17 13:54:33.156250
2414,-58.18,2022-08-17 13:54:33.171875
2415,-56.3,2022-08-17 13:54:33.187500
2416,-53.18,2022-08-17 13:54:33.203125
2417,-48.41,2022-08-17 13:54:33.218750
2418,-42.16,2022-08-17 13:54:33.234375
2419,-35.3,2022-08-17 13:54:33.250000
2420,-29.14,2022-08-17 13:54:33.265625
2421,-24.78,2022-08-17 13:54:33.281250
2422,-22.53,2022-08-17 13:54:33.296875
2423,-21.58,2022-08-17 13:54:33.312500
2424,-20.13,2022-08-17 13:54:33.328125
2425,-16.04,2022-08-17 13:54:33.343750
2426,-7.68,2022-08-17 13:54:33.359375
2427,5.38,2022-08-17 13:54:33.375000
2428,22.15,2022-08-17 13:54:33.390625
2429,40.52,2022-08-17 13:54:33.406250
2430,58.09,2022-08-17 13:54:33.421875
2431,73.12,2022-08-17 13:54:33.437500
2432,85.05,2022-08-17 13:54:33.453125
2433,94.53,2022-08-17 13:54:33.468750
2434,102.67,2022-08-17 13:54:33.484375
2435,110.19,2022-08-17 13:54:33.500000
2436,116.71,2022-08-17 13:54:33.515625
2437,120.75,2022-08-17 13:54:33.531250
2438,120.33,2022-08-17 13:54:33.546875
2439,113.95,2022-08-17 13:54:33.562500
2440,101.5,2022-08-17 13:54:33.578125
2441,84.45,2022-08-17 13:54:33.593750
2442,65.49,2022-08-17 13:54:33.609375
2443,47.76,2022-08-17 13:54:33.625000
2444,33.97,2022-08-17 13:54:33.640625
2445,25.72,2022-08-17 13:54:33.656250
2446,23.32,2022-08-17 13:54:33.671875
2447,25.67,2022-08-17 13:54:33.687500
2448,30.6,2022-08-17 13:54:33.703125
2449,35.28,2022-08-17 13:54:33.718750
2450,36.97,2022-08-17 13:54:33.734375
2451,33.85,2022-08-17 13:54:33.750000
2452,25.62,2022-08-17 13:54:33.765625
2453,13.65,2022-08-17 13:54:33.781250
2454,0.33,2022-08-17 13:54:33.796875
2455,-11.91,2022-08-17 13:54:33.812500
2456,-21.58,2022-08-17 13:54:33.828125
2457,-28.62,2022-08-17 13:54:33.843750
2458,-34.04,2022-08-17 13:54:33.859375
2459,-39.11,2022-08-17 13:54:33.875000
2460,-44.61,2022-08-17 13:54:33.890625
2461,-50.43,2022-08-17 13:54:33.906250
2462,-55.8,2022-08-17 13:54:33.921875
2463,-59.82,2022-08-17 13:54:33.937500
2464,-61.91,2022-08-17 13:54:33.953125
2465,-61.9,2022-08-17 13:54:33.968750
2466,-59.83,2022-08-17 13:54:33.984375
2467,-55.77,2022-08-17 13:54:34.000000
2468,-49.76,2022-08-17 13:54:34.015625
2469,-42.04,2022-08-17 13:54:34.031250
2470,-33.32,2022-08-17 13:54:34.046875
2471,-24.9,2022-08-17 13:54:34.062500
2472,-18.2,2022-08-17 13:54:34.078125
2473,-14.18,2022-08-17 13:54:34.093750
2474,-12.75,2022-08-17 13:54:34.109375
2475,-12.78,2022-08-17 13:54:34.125000
2476,-12.69,2022-08-17 13:54:34.140625
2477,-11.47,2022-08-17 13:54:34.156250
2478,-9.38,2022-08-17 13:54:34.171875
2479,-8.08,2022-08-17 13:54:34.187500
2480,-9.83,2022-08-17 13:54:34.203125
2481,-16.36,2022-08-17 13:54:34.218750
2482,-27.91,2022-08-17 13:54:34.234375
2483,-42.98,2022-08-17 13:54:34.250000
2484,-58.9,2022-08-17 13:54:34.265625
2485,-72.96,2022-08-17 13:54:34.281250
2486,-83.37,2022-08-17 13:54:34.296875
2487,-89.65,2022-08-17 13:54:34.312500
2488,-92.44,2022-08-17 13:54:34.328125
2489,-92.8,2022-08-17 13:54:34.343750
2490,-91.56,2022-08-17 13:54:34.359375
2491,-89.09,2022-08-17 13:54:34.375000
2492,-85.41,2022-08-17 13:54:34.390625
2493,-80.54,2022-08-17 13:54:34.406250
2494,-74.82,2022-08-17 13:54:34.421875
2495,-68.89,2022-08-17 13:54:34.437500
2496,-63.44,2022-08-17 13:54:34.453125
2497,-58.9,2022-08-17 13:54:34.468750
2498,-55.15,2022-08-17 13:54:34.484375
2499,-51.56,2022-08-17 13:54:34.500000
2500,-47.24,2022-08-17 13:54:34.515625
2501,-41.31,2022-08-17 13:54:34.531250
2502,-33.15,2022-08-17 13:54:34.546875
2503,-22.5,2022-08-17 13:54:34.562500
2504,-9.42,2022-08-17 13:54:34.578125
2505,5.74,2022-08-17 13:54:34.593750
2506,22.51,2022-08-17 13:54:34.609375
2507,40.27,2022-08-17 13:54:34.625000
2508,58.48,2022-08-17 13:54:34.640625
2509,76.73,2022-08-17 13:54:34.656250
2510,94.89,2022-08-17 13:54:34.671875
2511,113.06,2022-08-17 13:54:34.687500
2512,131.42,2022-08-17 13:54:34.703125
2513,149.87,2022-08-17 13:54:34.718750
2514,167.83,2022-08-17 13:54:34.734375
2515,183.98,2022-08-17 13:54:34.750000
2516,196.31,2022-08-17 13:54:34.765625
2517,202.49,2022-08-17 13:54:34.781250
2518,200.44,2022-08-17 13:54:34.796875
2519,189.2,2022-08-17 13:54:34.812500
2520,169.49,2022-08-17 13:54:34.828125
2521,143.87,2022-08-17 13:54:34.843750
2522,116.04,2022-08-17 13:54:34.859375
2523,89.67,2022-08-17 13:54:34.875000
2524,67.2,2022-08-17 13:54:34.890625
2525,49.28,2022-08-17 13:54:34.906250
2526,35.15,2022-08-17 13:54:34.921875
2527,23.63,2022-08-17 13:54:34.937500
2528,13.97,2022-08-17 13:54:34.953125
2529,6.22,2022-08-17 13:54:34.968750
2530,0.8,2022-08-17 13:54:34.984375
2531,-2.34,2022-08-17 13:54:35.000000
2532,-4.05,2022-08-17 13:54:35.015625
2533,-5.57,2022-08-17 13:54:35.031250
2534,-7.61,2022-08-17 13:54:35.046875
2535,-9.71,2022-08-17 13:54:35.062500
2536,-10.33,2022-08-17 13:54:35.078125
2537,-7.56,2022-08-17 13:54:35.093750
2538,-0.09,2022-08-17 13:54:35.109375
2539,12.34,2022-08-17 13:54:35.125000
2540,28.91,2022-08-17 13:54:35.140625
2541,48.21,2022-08-17 13:54:35.156250
2542,68.47,2022-08-17 13:54:35.171875
2543,87.69,2022-08-17 13:54:35.187500
2544,103.63,2022-08-17 13:54:35.203125
2545,114.05,2022-08-17 13:54:35.218750
2546,117.26,2022-08-17 13:54:35.234375
2547,112.92,2022-08-17 13:54:35.250000
2548,102.38,2022-08-17 13:54:35.265625
2549,88.5,2022-08-17 13:54:35.281250
2550,74.82,2022-08-17 13:54:35.296875
2551,64.47,2022-08-17 13:54:35.312500
2552,59.3,2022-08-17 13:54:35.328125
2553,59.45,2022-08-17 13:54:35.343750
2554,63.58,2022-08-17 13:54:35.359375
2555,69.39,2022-08-17 13:54:35.375000
2556,74.4,2022-08-17 13:54:35.390625
2557,76.74,2022-08-17 13:54:35.406250
2558,75.75,2022-08-17 13:54:35.421875
2559,72.09,2022-08-17 13:54:35.437500
2560,67.1,2022-08-17 13:54:35.453125
2561,62.02,2022-08-17 13:54:35.468750
2562,57.35,2022-08-17 13:54:35.484375
2563,52.61,2022-08-17 13:54:35.500000
2564,46.9,2022-08-17 13:54:35.515625
2565,39.5,2022-08-17 13:54:35.531250
2566,30.22,2022-08-17 13:54:35.546875
2567,19.27,2022-08-17 13:54:35.562500
2568,6.65,2022-08-17 13:54:35.578125
2569,-8.66,2022-08-17 13:54:35.593750
2570,-28.75,2022-08-17 13:54:35.609375
2571,-55.73,2022-08-17 13:54:35.625000
2572,-89.97,2022-08-17 13:54:35.640625
2573,-128.47,2022-08-17 13:54:35.656250
2574,-164.85,2022-08-17 13:54:35.671875
2575,-191.31,2022-08-17 13:54:35.687500
2576,-201.74,2022-08-17 13:54:35.703125
2577,-194.63,2022-08-17 13:54:35.718750
2578,-174.01,2022-08-17 13:54:35.734375
2579,-147.88,2022-08-17 13:54:35.750000
2580,-124.95,2022-08-17 13:54:35.765625
2581,-111.44,2022-08-17 13:54:35.781250
2582,-109.44,2022-08-17 13:54:35.796875
2583,-117.5,2022-08-17 13:54:35.812500
2584,-132.56,2022-08-17 13:54:35.828125
2585,-152.03,2022-08-17 13:54:35.843750
2586,-174.73,2022-08-17 13:54:35.859375
2587,-200.35,2022-08-17 13:54:35.875000
2588,-228.34,2022-08-17 13:54:35.890625
2589,-256.83,2022-08-17 13:54:35.906250
2590,-282.41,2022-08-17 13:54:35.921875
2591,-300.72,2022-08-17 13:54:35.937500
2592,-307.56,2022-08-17 13:54:35.953125
2593,-299.95,2022-08-17 13:54:35.968750
2594,-276.97,2022-08-17 13:54:35.984375
2595,-240.54,2022-08-17 13:54:36.000000
2596,-195.05,2022-08-17 13:54:36.015625
2597,-146.34,2022-08-17 13:54:36.031250
2598,-100.11,2022-08-17 13:54:36.046875
2599,-60.31,2022-08-17 13:54:36.062500
2600,-28.45,2022-08-17 13:54:36.078125
2601,-3.97,2022-08-17 13:54:36.093750
2602,14.45,2022-08-17 13:54:36.109375
2603,27.35,2022-08-17 13:54:36.125000
2604,33.75,2022-08-17 13:54:36.140625
2605,31.61,2022-08-17 13:54:36.156250
2606,19.37,2022-08-17 13:54:36.171875
2607,-2.28,2022-08-17 13:54:36.187500
2608,-29.54,2022-08-17 13:54:36.203125
2609,-56.1,2022-08-17 13:54:36.218750
2610,-75.25,2022-08-17 13:54:36.234375
2611,-82.52,2022-08-17 13:54:36.250000
2612,-77.5,2022-08-17 13:54:36.265625
2613,-63.93,2022-08-17 13:54:36.281250
2614,-47.89,2022-08-17 13:54:36.296875
2615,-35.09,2022-08-17 13:54:36.312500
2616,-28.36,2022-08-17 13:54:36.328125
2617,-26.91,2022-08-17 13:54:36.343750
2618,-27.32,2022-08-17 13:54:36.359375
2619,-25.76,2022-08-17 13:54:36.375000
2620,-20.27,2022-08-17 13:54:36.390625
2621,-11.66,2022-08-17 13:54:36.406250
2622,-2.79,2022-08-17 13:54:36.421875
2623,3.16,2022-08-17 13:54:36.437500
2624,4.47,2022-08-17 13:54:36.453125
2625,1.61,2022-08-17 13:54:36.468750
2626,-3.3,2022-08-17 13:54:36.484375
2627,-7.86,2022-08-17 13:54:36.500000
2628,-10.69,2022-08-17 13:54:36.515625
2629,-11.96,2022-08-17 13:54:36.531250
2630,-13.01,2022-08-17 13:54:36.546875
2631,-15.25,2022-08-17 13:54:36.562500
2632,-19.21,2022-08-17 13:54:36.578125
2633,-24.16,2022-08-17 13:54:36.593750
2634,-28.49,2022-08-17 13:54:36.609375
2635,-30.71,2022-08-17 13:54:36.625000
2636,-30.27,2022-08-17 13:54:36.640625
2637,-27.92,2022-08-17 13:54:36.656250
2638,-25.41,2022-08-17 13:54:36.671875
2639,-24.63,2022-08-17 13:54:36.687500
2640,-26.79,2022-08-17 13:54:36.703125
2641,-31.86,2022-08-17 13:54:36.718750
2642,-38.64,2022-08-17 13:54:36.734375
2643,-45.32,2022-08-17 13:54:36.750000
2644,-50.16,2022-08-17 13:54:36.765625
2645,-52.07,2022-08-17 13:54:36.781250
2646,-50.86,2022-08-17 13:54:36.796875
2647,-46.99,2022-08-17 13:54:36.812500
2648,-41.29,2022-08-17 13:54:36.828125
2649,-34.55,2022-08-17 13:54:36.843750
2650,-27.33,2022-08-17 13:54:36.859375
2651,-19.9,2022-08-17 13:54:36.875000
2652,-12.32,2022-08-17 13:54:36.890625
2653,-4.64,2022-08-17 13:54:36.906250
2654,3.03,2022-08-17 13:54:36.921875
2655,10.47,2022-08-17 13:54:36.937500
2656,17.31,2022-08-17 13:54:36.953125
2657,23.12,2022-08-17 13:54:36.968750
2658,27.6,2022-08-17 13:54:36.984375
2659,30.6,2022-08-17 13:54:37.000000
2660,32.26,2022-08-17 13:54:37.015625
2661,32.89,2022-08-17 13:54:37.031250
2662,32.92,2022-08-17 13:54:37.046875
2663,32.73,2022-08-17 13:54:37.062500
2664,32.58,2022-08-17 13:54:37.078125
2665,32.59,2022-08-17 13:54:37.093750
2666,32.78,2022-08-17 13:54:37.109375
2667,33.17,2022-08-17 13:54:37.125000
2668,33.85,2022-08-17 13:54:37.140625
2669,34.93,2022-08-17 13:54:37.156250
2670,36.46,2022-08-17 13:54:37.171875
2671,38.3,2022-08-17 13:54:37.187500
2672,40.11,2022-08-17 13:54:37.203125
2673,41.41,2022-08-17 13:54:37.218750
2674,41.79,2022-08-17 13:54:37.234375
2675,41.02,2022-08-17 13:54:37.250000
2676,39.21,2022-08-17 13:54:37.265625
2677,36.7,2022-08-17 13:54:37.281250
2678,33.94,2022-08-17 13:54:37.296875
2679,31.24,2022-08-17 13:54:37.312500
2680,28.7,2022-08-17 13:54:37.328125
2681,26.19,2022-08-17 13:54:37.343750
2682,23.42,2022-08-17 13:54:37.359375
2683,20.17,2022-08-17 13:54:37.375000
2684,16.33,2022-08-17 13:54:37.390625
2685,11.97,2022-08-17 13:54:37.406250
2686,7.34,2022-08-17 13:54:37.421875
2687,2.72,2022-08-17 13:54:37.437500
2688,-1.65,2022-08-17 13:54:37.453125
2689,-5.69,2022-08-17 13:54:37.468750
2690,-9.43,2022-08-17 13:54:37.484375
2691,-13.07,2022-08-17 13:54:37.500000
2692,-16.83,2022-08-17 13:54:37.515625
2693,-20.96,2022-08-17 13:54:37.531250
2694,-25.61,2022-08-17 13:54:37.546875
2695,-30.75,2022-08-17 13:54:37.562500
2696,-36.02,2022-08-17 13:54:37.578125
2697,-40.73,2022-08-17 13:54:37.593750
2698,-43.91,2022-08-17 13:54:37.609375
2699,-44.61,2022-08-17 13:54:37.625000
2700,-42.17,2022-08-17 13:54:37.640625
2701,-36.46,2022-08-17 13:54:37.656250
2702,-27.98,2022-08-17 13:54:37.671875
2703,-17.69,2022-08-17 13:54:37.687500
2704,-6.65,2022-08-17 13:54:37.703125
2705,4.2,2022-08-17 13:54:37.718750
2706,14.28,2022-08-17 13:54:37.734375
2707,23.31,2022-08-17 13:54:37.750000
2708,31.2,2022-08-17 13:54:37.765625
2709,37.87,2022-08-17 13:54:37.781250
2710,43.2,2022-08-17 13:54:37.796875
2711,47.03,2022-08-17 13:54:37.812500
2712,49.27,2022-08-17 13:54:37.828125
2713,50.05,2022-08-17 13:54:37.843750
2714,49.69,2022-08-17 13:54:37.859375
2715,48.67,2022-08-17 13:54:37.875000
2716,47.43,2022-08-17 13:54:37.890625
2717,46.31,2022-08-17 13:54:37.906250
2718,45.42,2022-08-17 13:54:37.921875
2719,44.73,2022-08-17 13:54:37.937500
2720,44.16,2022-08-17 13:54:37.953125
2721,43.67,2022-08-17 13:54:37.968750
2722,43.3,2022-08-17 13:54:37.984375
2723,43.09,2022-08-17 13:54:38.000000
2724,43.1,2022-08-17 13:54:38.015625
2725,43.23,2022-08-17 13:54:38.031250
2726,43.34,2022-08-17 13:54:38.046875
2727,43.15,2022-08-17 13:54:38.062500
2728,42.44,2022-08-17 13:54:38.078125
2729,41.04,2022-08-17 13:54:38.093750
2730,38.92,2022-08-17 13:54:38.109375
2731,36.2,2022-08-17 13:54:38.125000
2732,33.15,2022-08-17 13:54:38.140625
2733,30.04,2022-08-17 13:54:38.156250
2734,27.12,2022-08-17 13:54:38.171875
2735,24.48,2022-08-17 13:54:38.187500
2736,22.02,2022-08-17 13:54:38.203125
2737,19.47,2022-08-17 13:54:38.218750
2738,16.55,2022-08-17 13:54:38.234375
2739,13.08,2022-08-17 13:54:38.250000
2740,9.06,2022-08-17 13:54:38.265625
2741,4.67,2022-08-17 13:54:38.281250
2742,0.18,2022-08-17 13:54:38.296875
2743,-4.18,2022-08-17 13:54:38.312500
2744,-8.32,2022-08-17 13:54:38.328125
2745,-12.27,2022-08-17 13:54:38.343750
2746,-16.16,2022-08-17 13:54:38.359375
2747,-20.15,2022-08-17 13:54:38.375000
2748,-24.44,2022-08-17 13:54:38.390625
2749,-29.22,2022-08-17 13:54:38.406250
2750,-34.59,2022-08-17 13:54:38.421875
2751,-40.47,2022-08-17 13:54:38.437500
2752,-46.47,2022-08-17 13:54:38.453125
2753,-51.82,2022-08-17 13:54:38.468750
2754,-55.51,2022-08-17 13:54:38.484375
2755,-56.52,2022-08-17 13:54:38.500000
2756,-54.18,2022-08-17 13:54:38.515625
2757,-48.39,2022-08-17 13:54:38.531250
2758,-39.72,2022-08-17 13:54:38.546875
2759,-29.14,2022-08-17 13:54:38.562500
2760,-17.83,2022-08-17 13:54:38.578125
2761,-6.76,2022-08-17 13:54:38.593750
2762,3.39,2022-08-17 13:54:38.609375
2763,12.28,2022-08-17 13:54:38.625000
2764,19.84,2022-08-17 13:54:38.640625
2765,26.13,2022-08-17 13:54:38.656250
2766,31.21,2022-08-17 13:54:38.671875
2767,35.09,2022-08-17 13:54:38.687500
2768,37.77,2022-08-17 13:54:38.703125
2769,39.26,2022-08-17 13:54:38.718750
2770,39.67,2022-08-17 13:54:38.734375
2771,39.2,2022-08-17 13:54:38.750000
2772,38.15,2022-08-17 13:54:38.765625
2773,36.94,2022-08-17 13:54:38.781250
2774,35.92,2022-08-17 13:54:38.796875
2775,35.39,2022-08-17 13:54:38.812500
2776,35.49,2022-08-17 13:54:38.828125
2777,36.17,2022-08-17 13:54:38.843750
2778,37.28,2022-08-17 13:54:38.859375
2779,38.58,2022-08-17 13:54:38.875000
2780,39.84,2022-08-17 13:54:38.890625
2781,40.86,2022-08-17 13:54:38.906250
2782,41.47,2022-08-17 13:54:38.921875
2783,41.56,2022-08-17 13:54:38.937500
2784,41.06,2022-08-17 13:54:38.953125
2785,39.99,2022-08-17 13:54:38.968750
2786,38.46,2022-08-17 13:54:38.984375
2787,36.61,2022-08-17 13:54:39.000000
2788,34.62,2022-08-17 13:54:39.015625
2789,32.58,2022-08-17 13:54:39.031250
2790,30.5,2022-08-17 13:54:39.046875
2791,28.31,2022-08-17 13:54:39.062500
2792,25.89,2022-08-17 13:54:39.078125
2793,23.24,2022-08-17 13:54:39.093750
2794,20.4,2022-08-17 13:54:39.109375
2795,17.55,2022-08-17 13:54:39.125000
2796,14.8,2022-08-17 13:54:39.140625
2797,12.24,2022-08-17 13:54:39.156250
2798,9.84,2022-08-17 13:54:39.171875
2799,7.5,2022-08-17 13:54:39.187500
2800,5.12,2022-08-17 13:54:39.203125
2801,2.61,2022-08-17 13:54:39.218750
2802,-0.08,2022-08-17 13:54:39.234375
2803,-2.94,2022-08-17 13:54:39.250000
2804,-5.89,2022-08-17 13:54:39.265625
2805,-8.82,2022-08-17 13:54:39.281250
2806,-11.58,2022-08-17 13:54:39.296875
2807,-14.07,2022-08-17 13:54:39.312500
2808,-16.32,2022-08-17 13:54:39.328125
2809,-18.56,2022-08-17 13:54:39.343750
2810,-21.14,2022-08-17 13:54:39.359375
2811,-24.42,2022-08-17 13:54:39.375000
2812,-28.48,2022-08-17 13:54:39.390625
2813,-33.02,2022-08-17 13:54:39.406250
2814,-37.31,2022-08-17 13:54:39.421875
2815,-40.32,2022-08-17 13:54:39.437500
2816,-41.09,2022-08-17 13:54:39.453125
2817,-38.99,2022-08-17 13:54:39.468750
2818,-34.03,2022-08-17 13:54:39.484375
2819,-26.78,2022-08-17 13:54:39.500000
2820,-18.23,2022-08-17 13:54:39.515625
2821,-9.43,2022-08-17 13:54:39.531250
2822,-1.2,2022-08-17 13:54:39.546875
2823,6.02,2022-08-17 13:54:39.562500
2824,12.05,2022-08-17 13:54:39.578125
2825,16.9,2022-08-17 13:54:39.593750
2826,20.58,2022-08-17 13:54:39.609375
2827,23.05,2022-08-17 13:54:39.625000
2828,24.32,2022-08-17 13:54:39.640625
2829,24.47,2022-08-17 13:54:39.656250
2830,23.74,2022-08-17 13:54:39.671875
2831,22.48,2022-08-17 13:54:39.687500
2832,21.07,2022-08-17 13:54:39.703125
2833,19.81,2022-08-17 13:54:39.718750
2834,18.89,2022-08-17 13:54:39.734375
2835,18.43,2022-08-17 13:54:39.750000
2836,18.45,2022-08-17 13:54:39.765625
2837,18.94,2022-08-17 13:54:39.781250
2838,19.85,2022-08-17 13:54:39.796875
2839,21.09,2022-08-17 13:54:39.812500
2840,22.58,2022-08-17 13:54:39.828125
2841,24.19,2022-08-17 13:54:39.843750
2842,25.8,2022-08-17 13:54:39.859375
2843,27.24,2022-08-17 13:54:39.875000
2844,28.3,2022-08-17 13:54:39.890625
2845,28.73,2022-08-17 13:54:39.906250
2846,28.39,2022-08-17 13:54:39.921875
2847,27.33,2022-08-17 13:54:39.937500
2848,25.74,2022-08-17 13:54:39.953125
2849,23.97,2022-08-17 13:54:39.968750
2850,22.28,2022-08-17 13:54:39.984375
2851,20.68,2022-08-17 13:54:40.000000
2852,19.0,2022-08-17 13:54:40.015625
2853,16.96,2022-08-17 13:54:40.031250
2854,14.42,2022-08-17 13:54:40.046875
2855,11.51,2022-08-17 13:54:40.062500
2856,8.58,2022-08-17 13:54:40.078125
2857,6.05,2022-08-17 13:54:40.093750
2858,4.16,2022-08-17 13:54:40.109375
2859,2.85,2022-08-17 13:54:40.125000
2860,1.82,2022-08-17 13:54:40.140625
2861,0.69,2022-08-17 13:54:40.156250
2862,-0.87,2022-08-17 13:54:40.171875
2863,-2.93,2022-08-17 13:54:40.187500
2864,-5.38,2022-08-17 13:54:40.203125
2865,-7.96,2022-08-17 13:54:40.218750
2866,-10.39,2022-08-17 13:54:40.234375
2867,-12.47,2022-08-17 13:54:40.250000
2868,-14.17,2022-08-17 13:54:40.265625
2869,-15.66,2022-08-17 13:54:40.281250
2870,-17.31,2022-08-17 13:54:40.296875
2871,-19.57,2022-08-17 13:54:40.312500
2872,-22.75,2022-08-17 13:54:40.328125
2873,-26.81,2022-08-17 13:54:40.343750
2874,-31.18,2022-08-17 13:54:40.359375
2875,-34.78,2022-08-17 13:54:40.375000
2876,-36.35,2022-08-17 13:54:40.390625
2877,-34.91,2022-08-17 13:54:40.406250
2878,-30.22,2022-08-17 13:54:40.421875
2879,-22.97,2022-08-17 13:54:40.437500
2880,-14.6,2022-08-17 13:54:40.453125
2881,-6.72,2022-08-17 13:54:40.468750
2882,-0.5,2022-08-17 13:54:40.484375
2883,3.84,2022-08-17 13:54:40.500000
2884,6.99,2022-08-17 13:54:40.515625
2885,10.12,2022-08-17 13:54:40.531250
2886,14.18,2022-08-17 13:54:40.546875
2887,19.35,2022-08-17 13:54:40.562500
2888,24.9,2022-08-17 13:54:40.578125
2889,29.61,2022-08-17 13:54:40.593750
2890,32.41,2022-08-17 13:54:40.609375
2891,33.11,2022-08-17 13:54:40.625000
2892,32.62,2022-08-17 13:54:40.640625
2893,32.78,2022-08-17 13:54:40.656250
2894,35.76,2022-08-17 13:54:40.671875
2895,43.5,2022-08-17 13:54:40.687500
2896,57.15,2022-08-17 13:54:40.703125
2897,76.7,2022-08-17 13:54:40.718750
2898,100.72,2022-08-17 13:54:40.734375
2899,126.22,2022-08-17 13:54:40.750000
2900,148.74,2022-08-17 13:54:40.765625
2901,163.22,2022-08-17 13:54:40.781250
2902,165.44,2022-08-17 13:54:40.796875
2903,153.81,2022-08-17 13:54:40.812500
2904,130.55,2022-08-17 13:54:40.828125
2905,101.26,2022-08-17 13:54:40.843750
2906,73.05,2022-08-17 13:54:40.859375
2907,51.65,2022-08-17 13:54:40.875000
2908,39.17,2022-08-17 13:54:40.890625
2909,33.52,2022-08-17 13:54:40.906250
2910,29.9,2022-08-17 13:54:40.921875
2911,23.43,2022-08-17 13:54:40.937500
2912,11.45,2022-08-17 13:54:40.953125
2913,-5.65,2022-08-17 13:54:40.968750
2914,-25.31,2022-08-17 13:54:40.984375
2915,-44.62,2022-08-17 13:54:41.000000
2916,-61.8,2022-08-17 13:54:41.015625
2917,-76.59,2022-08-17 13:54:41.031250
2918,-89.51,2022-08-17 13:54:41.046875
2919,-100.83,2022-08-17 13:54:41.062500
2920,-109.98,2022-08-17 13:54:41.078125
2921,-115.88,2022-08-17 13:54:41.093750
2922,-117.77,2022-08-17 13:54:41.109375
2923,-115.93,2022-08-17 13:54:41.125000
2924,-111.72,2022-08-17 13:54:41.140625
2925,-107.02,2022-08-17 13:54:41.156250
2926,-103.27,2022-08-17 13:54:41.171875
2927,-100.8,2022-08-17 13:54:41.187500
2928,-98.85,2022-08-17 13:54:41.203125
2929,-96.16,2022-08-17 13:54:41.218750
2930,-91.75,2022-08-17 13:54:41.234375
2931,-85.53,2022-08-17 13:54:41.250000
2932,-78.29,2022-08-17 13:54:41.265625
2933,-71.21,2022-08-17 13:54:41.281250
2934,-65.19,2022-08-17 13:54:41.296875
2935,-60.37,2022-08-17 13:54:41.312500
2936,-56.11,2022-08-17 13:54:41.328125
2937,-51.35,2022-08-17 13:54:41.343750
2938,-45.12,2022-08-17 13:54:41.359375
2939,-37.05,2022-08-17 13:54:41.375000
2940,-27.42,2022-08-17 13:54:41.390625
2941,-17.12,2022-08-17 13:54:41.406250
2942,-7.22,2022-08-17 13:54:41.421875
2943,1.35,2022-08-17 13:54:41.437500
2944,8.06,2022-08-17 13:54:41.453125
2945,12.82,2022-08-17 13:54:41.468750
2946,15.86,2022-08-17 13:54:41.484375
2947,17.59,2022-08-17 13:54:41.500000
2948,18.45,2022-08-17 13:54:41.515625
2949,18.87,2022-08-17 13:54:41.531250
2950,19.15,2022-08-17 13:54:41.546875
2951,19.55,2022-08-17 13:54:41.562500
2952,20.17,2022-08-17 13:54:41.578125
2953,21.0,2022-08-17 13:54:41.593750
2954,21.96,2022-08-17 13:54:41.609375
2955,22.9,2022-08-17 13:54:41.625000
2956,23.69,2022-08-17 13:54:41.640625
2957,24.27,2022-08-17 13:54:41.656250
2958,24.7,2022-08-17 13:54:41.671875
2959,25.12,2022-08-17 13:54:41.687500
2960,25.73,2022-08-17 13:54:41.703125
2961,26.61,2022-08-17 13:54:41.718750
2962,27.71,2022-08-17 13:54:41.734375
2963,28.78,2022-08-17 13:54:41.750000
2964,29.45,2022-08-17 13:54:41.765625
2965,29.47,2022-08-17 13:54:41.781250
2966,28.76,2022-08-17 13:54:41.796875
2967,27.47,2022-08-17 13:54:41.812500
2968,25.93,2022-08-17 13:54:41.828125
2969,24.44,2022-08-17 13:54:41.843750
2970,23.17,2022-08-17 13:54:41.859375
2971,22.06,2022-08-17 13:54:41.875000
2972,20.9,2022-08-17 13:54:41.890625
2973,19.43,2022-08-17 13:54:41.906250
2974,17.51,2022-08-17 13:54:41.921875
2975,15.16,2022-08-17 13:54:41.937500
2976,12.56,2022-08-17 13:54:41.953125
2977,9.96,2022-08-17 13:54:41.968750
2978,7.58,2022-08-17 13:54:41.984375
2979,5.5,2022-08-17 13:54:42.000000
2980,3.64,2022-08-17 13:54:42.015625
2981,1.78,2022-08-17 13:54:42.031250
2982,-0.38,2022-08-17 13:54:42.046875
2983,-3.02,2022-08-17 13:54:42.062500
2984,-6.08,2022-08-17 13:54:42.078125
2985,-9.24,2022-08-17 13:54:42.093750
2986,-11.96,2022-08-17 13:54:42.109375
2987,-13.71,2022-08-17 13:54:42.125000
2988,-14.22,2022-08-17 13:54:42.140625
2989,-13.56,2022-08-17 13:54:42.156250
2990,-12.08,2022-08-17 13:54:42.171875
2991,-10.13,2022-08-17 13:54:42.187500
2992,-7.91,2022-08-17 13:54:42.203125
2993,-5.26,2022-08-17 13:54:42.218750
2994,-1.81,2022-08-17 13:54:42.234375
2995,2.89,2022-08-17 13:54:42.250000
2996,9.15,2022-08-17 13:54:42.265625
2997,16.98,2022-08-17 13:54:42.281250
2998,26.06,2022-08-17 13:54:42.296875
2999,35.73,2022-08-17 13:54:42.312500
3000,45.03,2022-08-17 13:54:42.328125
3001,52.77,2022-08-17 13:54:42.343750
3002,57.79,2022-08-17 13:54:42.359375
3003,59.3,2022-08-17 13:54:42.375000
3004,57.31,2022-08-17 13:54:42.390625
3005,52.86,2022-08-17 13:54:42.406250
3006,47.91,2022-08-17 13:54:42.421875
3007,44.79,2022-08-17 13:54:42.437500
3008,45.36,2022-08-17 13:54:42.453125
3009,50.37,2022-08-17 13:54:42.468750
3010,59.21,2022-08-17 13:54:42.484375
3011,70.34,2022-08-17 13:54:42.500000
3012,82.18,2022-08-17 13:54:42.515625
3013,93.81,2022-08-17 13:54:42.531250
3014,105.49,2022-08-17 13:54:42.546875
3015,118.34,2022-08-17 13:54:42.562500
3016,133.61,2022-08-17 13:54:42.578125
3017,151.91,2022-08-17 13:54:42.593750
3018,172.71,2022-08-17 13:54:42.609375
3019,194.43,2022-08-17 13:54:42.625000
3020,214.95,2022-08-17 13:54:42.640625
3021,232.24,2022-08-17 13:54:42.656250
3022,244.92,2022-08-17 13:54:42.671875
3023,252.36,2022-08-17 13:54:42.687500
3024,254.61,2022-08-17 13:54:42.703125
3025,252.1,2022-08-17 13:54:42.718750
3026,245.35,2022-08-17 13:54:42.734375
3027,234.76,2022-08-17 13:54:42.750000
3028,220.57,2022-08-17 13:54:42.765625
3029,202.97,2022-08-17 13:54:42.781250
3030,182.23,2022-08-17 13:54:42.796875
3031,158.84,2022-08-17 13:54:42.812500
3032,133.63,2022-08-17 13:54:42.828125
3033,107.69,2022-08-17 13:54:42.843750
3034,82.14,2022-08-17 13:54:42.859375
3035,57.96,2022-08-17 13:54:42.875000
3036,35.77,2022-08-17 13:54:42.890625
3037,15.69,2022-08-17 13:54:42.906250
3038,-2.63,2022-08-17 13:54:42.921875
3039,-19.92,2022-08-17 13:54:42.937500
3040,-36.99,2022-08-17 13:54:42.953125
3041,-54.51,2022-08-17 13:54:42.968750
3042,-72.84,2022-08-17 13:54:42.984375
3043,-91.83,2022-08-17 13:54:43.000000
3044,-110.87,2022-08-17 13:54:43.015625
3045,-129.13,2022-08-17 13:54:43.031250
3046,-145.88,2022-08-17 13:54:43.046875
3047,-160.72,2022-08-17 13:54:43.062500
3048,-173.66,2022-08-17 13:54:43.078125
3049,-184.93,2022-08-17 13:54:43.093750
3050,-194.69,2022-08-17 13:54:43.109375
3051,-203.04,2022-08-17 13:54:43.125000
3052,-209.88,2022-08-17 13:54:43.140625
3053,-214.99,2022-08-17 13:54:43.156250
3054,-218.01,2022-08-17 13:54:43.171875
3055,-218.54,2022-08-17 13:54:43.187500
3056,-216.27,2022-08-17 13:54:43.203125
3057,-211.05,2022-08-17 13:54:43.218750
3058,-203.28,2022-08-17 13:54:43.234375
3059,-193.97,2022-08-17 13:54:43.250000
3060,-184.9,2022-08-17 13:54:43.265625
3061,-177.79,2022-08-17 13:54:43.281250
3062,-173.63,2022-08-17 13:54:43.296875
3063,-172.07,2022-08-17 13:54:43.312500
3064,-171.58,2022-08-17 13:54:43.328125
3065,-170.03,2022-08-17 13:54:43.343750
3066,-165.61,2022-08-17 13:54:43.359375
3067,-157.38,2022-08-17 13:54:43.375000
3068,-145.41,2022-08-17 13:54:43.390625
3069,-130.94,2022-08-17 13:54:43.406250
3070,-115.52,2022-08-17 13:54:43.421875
3071,-100.38,2022-08-17 13:54:43.437500
3072,-86.22,2022-08-17 13:54:43.453125
3073,-73.37,2022-08-17 13:54:43.468750
3074,-62.09,2022-08-17 13:54:43.484375
3075,-52.6,2022-08-17 13:54:43.500000
3076,-44.99,2022-08-17 13:54:43.515625
3077,-39.09,2022-08-17 13:54:43.531250
3078,-35.22,2022-08-17 13:54:43.546875
3079,-33.69,2022-08-17 13:54:43.562500
3080,-34.55,2022-08-17 13:54:43.578125
3081,-37.29,2022-08-17 13:54:43.593750
3082,-41.04,2022-08-17 13:54:43.609375
3083,-44.81,2022-08-17 13:54:43.625000
3084,-47.5,2022-08-17 13:54:43.640625
3085,-48.06,2022-08-17 13:54:43.656250
3086,-45.5,2022-08-17 13:54:43.671875
3087,-40.03,2022-08-17 13:54:43.687500
3088,-32.59,2022-08-17 13:54:43.703125
3089,-24.39,2022-08-17 13:54:43.718750
3090,-16.73,2022-08-17 13:54:43.734375
3091,-11.2,2022-08-17 13:54:43.750000
3092,-9.71,2022-08-17 13:54:43.765625
3093,-14.02,2022-08-17 13:54:43.781250
3094,-25.36,2022-08-17 13:54:43.796875
3095,-37.47,2022-08-17 13:54:43.812500
3096,-44.29,2022-08-17 13:54:43.828125
3097,-42.35,2022-08-17 13:54:43.843750
3098,-32.69,2022-08-17 13:54:43.859375
3099,-19.1,2022-08-17 13:54:43.875000
3100,-5.27,2022-08-17 13:54:43.890625
3101,6.47,2022-08-17 13:54:43.906250
3102,15.22,2022-08-17 13:54:43.921875
3103,20.63,2022-08-17 13:54:43.937500
3104,21.12,2022-08-17 13:54:43.953125
3105,17.06,2022-08-17 13:54:43.968750
3106,8.7,2022-08-17 13:54:43.984375
3107,-3.15,2022-08-17 13:54:44.000000
3108,-16.51,2022-08-17 13:54:44.015625
3109,-28.69,2022-08-17 13:54:44.031250
3110,-37.13,2022-08-17 13:54:44.046875
3111,-40.15,2022-08-17 13:54:44.062500
3112,-38.05,2022-08-17 13:54:44.078125
3113,-30.54,2022-08-17 13:54:44.093750
3114,-19.6,2022-08-17 13:54:44.109375
3115,-7.69,2022-08-17 13:54:44.125000
3116,4.03,2022-08-17 13:54:44.140625
3117,16.2,2022-08-17 13:54:44.156250
3118,29.77,2022-08-17 13:54:44.171875
3119,43.91,2022-08-17 13:54:44.187500
3120,59.49,2022-08-17 13:54:44.203125
3121,76.45,2022-08-17 13:54:44.218750
3122,91.34,2022-08-17 13:54:44.234375
3123,100.74,2022-08-17 13:54:44.250000
3124,102.46,2022-08-17 13:54:44.265625
3125,96.46,2022-08-17 13:54:44.281250
3126,84.66,2022-08-17 13:54:44.296875
3127,69.9,2022-08-17 13:54:44.312500
3128,54.86,2022-08-17 13:54:44.328125
3129,41.59,2022-08-17 13:54:44.343750
3130,30.76,2022-08-17 13:54:44.359375
3131,22.24,2022-08-17 13:54:44.375000
3132,15.78,2022-08-17 13:54:44.390625
3133,11.11,2022-08-17 13:54:44.406250
3134,8.15,2022-08-17 13:54:44.421875
3135,6.83,2022-08-17 13:54:44.437500
3136,6.88,2022-08-17 13:54:44.453125
3137,7.91,2022-08-17 13:54:44.468750
3138,9.69,2022-08-17 13:54:44.484375
3139,11.83,2022-08-17 13:54:44.500000
3140,14.04,2022-08-17 13:54:44.515625
3141,16.09,2022-08-17 13:54:44.531250
3142,17.65,2022-08-17 13:54:44.546875
3143,18.17,2022-08-17 13:54:44.562500
3144,17.0,2022-08-17 13:54:44.578125
3145,13.55,2022-08-17 13:54:44.593750
3146,7.57,2022-08-17 13:54:44.609375
3147,-0.62,2022-08-17 13:54:44.625000
3148,-10.34,2022-08-17 13:54:44.640625
3149,-20.53,2022-08-17 13:54:44.656250
3150,-29.67,2022-08-17 13:54:44.671875
3151,-36.17,2022-08-17 13:54:44.687500
3152,-38.82,2022-08-17 13:54:44.703125
3153,-37.17,2022-08-17 13:54:44.718750
3154,-31.99,2022-08-17 13:54:44.734375
3155,-25.18,2022-08-17 13:54:44.750000
3156,-19.33,2022-08-17 13:54:44.765625
3157,-17.01,2022-08-17 13:54:44.781250
