,BVP,time
0,-8.64,2021-12-17 16:11:54.562500
1,-11.93,2021-12-17 16:11:54.578125
2,-14.98,2021-12-17 16:11:54.593750
3,-17.34,2021-12-17 16:11:54.609375
4,-18.77,2021-12-17 16:11:54.625000
5,-19.27,2021-12-17 16:11:54.640625
6,-18.95,2021-12-17 16:11:54.656250
7,-17.94,2021-12-17 16:11:54.671875
8,-16.28,2021-12-17 16:11:54.687500
9,-13.98,2021-12-17 16:11:54.703125
10,-11.14,2021-12-17 16:11:54.718750
11,-8.0,2021-12-17 16:11:54.734375
12,-4.9,2021-12-17 16:11:54.750000
13,-2.23,2021-12-17 16:11:54.765625
14,-0.17,2021-12-17 16:11:54.781250
15,1.33,2021-12-17 16:11:54.796875
16,2.65,2021-12-17 16:11:54.812500
17,4.34,2021-12-17 16:11:54.828125
18,6.96,2021-12-17 16:11:54.843750
19,10.89,2021-12-17 16:11:54.859375
20,16.23,2021-12-17 16:11:54.875000
21,22.95,2021-12-17 16:11:54.890625
22,30.86,2021-12-17 16:11:54.906250
23,39.72,2021-12-17 16:11:54.921875
24,49.25,2021-12-17 16:11:54.937500
25,59.14,2021-12-17 16:11:54.953125
26,69.05,2021-12-17 16:11:54.968750
27,78.6,2021-12-17 16:11:54.984375
28,87.6,2021-12-17 16:11:55.000000
29,96.05,2021-12-17 16:11:55.015625
30,104.43,2021-12-17 16:11:55.031250
31,113.16,2021-12-17 16:11:55.046875
32,122.43,2021-12-17 16:11:55.062500
33,131.88,2021-12-17 16:11:55.078125
34,140.72,2021-12-17 16:11:55.093750
35,148.02,2021-12-17 16:11:55.109375
36,152.97,2021-12-17 16:11:55.125000
37,155.2,2021-12-17 16:11:55.140625
38,154.8,2021-12-17 16:11:55.156250
39,152.57,2021-12-17 16:11:55.171875
40,149.31,2021-12-17 16:11:55.187500
41,145.48,2021-12-17 16:11:55.203125
42,141.02,2021-12-17 16:11:55.218750
43,135.59,2021-12-17 16:11:55.234375
44,128.69,2021-12-17 16:11:55.250000
45,119.93,2021-12-17 16:11:55.265625
46,109.13,2021-12-17 16:11:55.281250
47,96.4,2021-12-17 16:11:55.296875
48,82.73,2021-12-17 16:11:55.312500
49,69.06,2021-12-17 16:11:55.328125
50,56.04,2021-12-17 16:11:55.343750
51,43.89,2021-12-17 16:11:55.359375
52,32.81,2021-12-17 16:11:55.375000
53,22.9,2021-12-17 16:11:55.390625
54,14.37,2021-12-17 16:11:55.406250
55,7.47,2021-12-17 16:11:55.421875
56,2.27,2021-12-17 16:11:55.437500
57,-0.52,2021-12-17 16:11:55.453125
58,-0.73,2021-12-17 16:11:55.468750
59,1.22,2021-12-17 16:11:55.484375
60,4.23,2021-12-17 16:11:55.500000
61,7.12,2021-12-17 16:11:55.515625
62,8.51,2021-12-17 16:11:55.531250
63,7.45,2021-12-17 16:11:55.546875
64,3.79,2021-12-17 16:11:55.562500
65,-7.02,2021-12-17 16:11:55.578125
66,-25.44,2021-12-17 16:11:55.593750
67,-48.09,2021-12-17 16:11:55.609375
68,-68.82,2021-12-17 16:11:55.625000
69,-82.31,2021-12-17 16:11:55.640625
70,-86.96,2021-12-17 16:11:55.656250
71,-85.76,2021-12-17 16:11:55.671875
72,-83.47,2021-12-17 16:11:55.687500
73,-83.65,2021-12-17 16:11:55.703125
74,-86.94,2021-12-17 16:11:55.718750
75,-90.34,2021-12-17 16:11:55.734375
76,-90.26,2021-12-17 16:11:55.750000
77,-84.14,2021-12-17 16:11:55.765625
78,-73.22,2021-12-17 16:11:55.781250
79,-60.88,2021-12-17 16:11:55.796875
80,-51.95,2021-12-17 16:11:55.812500
81,-50.39,2021-12-17 16:11:55.828125
82,-58.29,2021-12-17 16:11:55.843750
83,-75.73,2021-12-17 16:11:55.859375
84,-100.72,2021-12-17 16:11:55.875000
85,-130.61,2021-12-17 16:11:55.890625
86,-162.09,2021-12-17 16:11:55.906250
87,-191.67,2021-12-17 16:11:55.921875
88,-209.27,2021-12-17 16:11:55.937500
89,-206.53,2021-12-17 16:11:55.953125
90,-181.1,2021-12-17 16:11:55.968750
91,-139.75,2021-12-17 16:11:55.984375
92,-96.13,2021-12-17 16:11:56.000000
93,-63.91,2021-12-17 16:11:56.015625
94,-50.66,2021-12-17 16:11:56.031250
95,-54.71,2021-12-17 16:11:56.046875
96,-67.81,2021-12-17 16:11:56.062500
97,-79.75,2021-12-17 16:11:56.078125
98,-84.62,2021-12-17 16:11:56.093750
99,-82.22,2021-12-17 16:11:56.109375
100,-76.43,2021-12-17 16:11:56.125000
101,-71.34,2021-12-17 16:11:56.140625
102,-68.33,2021-12-17 16:11:56.156250
103,-67.42,2021-12-17 16:11:56.171875
104,-65.17,2021-12-17 16:11:56.187500
105,-59.69,2021-12-17 16:11:56.203125
106,-51.3,2021-12-17 16:11:56.218750
107,-42.53,2021-12-17 16:11:56.234375
108,-35.97,2021-12-17 16:11:56.250000
109,-32.72,2021-12-17 16:11:56.265625
110,-31.66,2021-12-17 16:11:56.281250
111,-30.18,2021-12-17 16:11:56.296875
112,-25.63,2021-12-17 16:11:56.312500
113,-16.38,2021-12-17 16:11:56.328125
114,-3.08,2021-12-17 16:11:56.343750
115,12.11,2021-12-17 16:11:56.359375
116,26.03,2021-12-17 16:11:56.375000
117,35.95,2021-12-17 16:11:56.390625
118,40.63,2021-12-17 16:11:56.406250
119,40.81,2021-12-17 16:11:56.421875
120,38.31,2021-12-17 16:11:56.437500
121,35.31,2021-12-17 16:11:56.453125
122,33.55,2021-12-17 16:11:56.468750
123,33.34,2021-12-17 16:11:56.484375
124,33.92,2021-12-17 16:11:56.500000
125,33.9,2021-12-17 16:11:56.515625
126,32.08,2021-12-17 16:11:56.531250
127,28.17,2021-12-17 16:11:56.546875
128,22.87,2021-12-17 16:11:56.562500
129,17.53,2021-12-17 16:11:56.578125
130,13.55,2021-12-17 16:11:56.593750
131,11.86,2021-12-17 16:11:56.609375
132,12.4,2021-12-17 16:11:56.625000
133,14.43,2021-12-17 16:11:56.640625
134,16.85,2021-12-17 16:11:56.656250
135,18.71,2021-12-17 16:11:56.671875
136,19.49,2021-12-17 16:11:56.687500
137,19.13,2021-12-17 16:11:56.703125
138,17.89,2021-12-17 16:11:56.718750
139,16.13,2021-12-17 16:11:56.734375
140,14.22,2021-12-17 16:11:56.750000
141,12.25,2021-12-17 16:11:56.765625
142,10.25,2021-12-17 16:11:56.781250
143,8.28,2021-12-17 16:11:56.796875
144,6.45,2021-12-17 16:11:56.812500
145,4.96,2021-12-17 16:11:56.828125
146,3.98,2021-12-17 16:11:56.843750
147,3.55,2021-12-17 16:11:56.859375
148,3.56,2021-12-17 16:11:56.875000
149,3.86,2021-12-17 16:11:56.890625
150,4.17,2021-12-17 16:11:56.906250
151,4.31,2021-12-17 16:11:56.921875
152,4.16,2021-12-17 16:11:56.937500
153,3.63,2021-12-17 16:11:56.953125
154,2.68,2021-12-17 16:11:56.968750
155,1.26,2021-12-17 16:11:56.984375
156,-0.62,2021-12-17 16:11:57.000000
157,-2.84,2021-12-17 16:11:57.015625
158,-5.16,2021-12-17 16:11:57.031250
159,-7.31,2021-12-17 16:11:57.046875
160,-9.01,2021-12-17 16:11:57.062500
161,-10.1,2021-12-17 16:11:57.078125
162,-10.54,2021-12-17 16:11:57.093750
163,-10.42,2021-12-17 16:11:57.109375
164,-9.88,2021-12-17 16:11:57.125000
165,-9.09,2021-12-17 16:11:57.140625
166,-8.3,2021-12-17 16:11:57.156250
167,-7.74,2021-12-17 16:11:57.171875
168,-7.65,2021-12-17 16:11:57.187500
169,-8.17,2021-12-17 16:11:57.203125
170,-9.35,2021-12-17 16:11:57.218750
171,-11.12,2021-12-17 16:11:57.234375
172,-13.33,2021-12-17 16:11:57.250000
173,-15.82,2021-12-17 16:11:57.265625
174,-18.37,2021-12-17 16:11:57.281250
175,-20.76,2021-12-17 16:11:57.296875
176,-22.75,2021-12-17 16:11:57.312500
177,-24.09,2021-12-17 16:11:57.328125
178,-24.61,2021-12-17 16:11:57.343750
179,-24.19,2021-12-17 16:11:57.359375
180,-22.85,2021-12-17 16:11:57.375000
181,-20.68,2021-12-17 16:11:57.390625
182,-17.82,2021-12-17 16:11:57.406250
183,-14.45,2021-12-17 16:11:57.421875
184,-10.79,2021-12-17 16:11:57.437500
185,-7.15,2021-12-17 16:11:57.453125
186,-3.8,2021-12-17 16:11:57.468750
187,-1.01,2021-12-17 16:11:57.484375
188,1.2,2021-12-17 16:11:57.500000
189,2.92,2021-12-17 16:11:57.515625
190,4.38,2021-12-17 16:11:57.531250
191,5.79,2021-12-17 16:11:57.546875
192,7.28,2021-12-17 16:11:57.562500
193,8.84,2021-12-17 16:11:57.578125
194,10.38,2021-12-17 16:11:57.593750
195,11.79,2021-12-17 16:11:57.609375
196,12.97,2021-12-17 16:11:57.625000
197,13.93,2021-12-17 16:11:57.640625
198,14.61,2021-12-17 16:11:57.656250
199,14.97,2021-12-17 16:11:57.671875
200,14.96,2021-12-17 16:11:57.687500
201,14.56,2021-12-17 16:11:57.703125
202,13.89,2021-12-17 16:11:57.718750
203,13.13,2021-12-17 16:11:57.734375
204,12.49,2021-12-17 16:11:57.750000
205,12.07,2021-12-17 16:11:57.765625
206,11.87,2021-12-17 16:11:57.781250
207,11.69,2021-12-17 16:11:57.796875
208,11.32,2021-12-17 16:11:57.812500
209,10.66,2021-12-17 16:11:57.828125
210,9.69,2021-12-17 16:11:57.843750
211,8.55,2021-12-17 16:11:57.859375
212,7.35,2021-12-17 16:11:57.875000
213,6.16,2021-12-17 16:11:57.890625
214,4.99,2021-12-17 16:11:57.906250
215,3.77,2021-12-17 16:11:57.921875
216,2.52,2021-12-17 16:11:57.937500
217,1.29,2021-12-17 16:11:57.953125
218,0.21,2021-12-17 16:11:57.968750
219,-0.65,2021-12-17 16:11:57.984375
220,-1.25,2021-12-17 16:11:58.000000
221,-1.67,2021-12-17 16:11:58.015625
222,-2.04,2021-12-17 16:11:58.031250
223,-2.53,2021-12-17 16:11:58.046875
224,-3.28,2021-12-17 16:11:58.062500
225,-4.3,2021-12-17 16:11:58.078125
226,-5.56,2021-12-17 16:11:58.093750
227,-6.93,2021-12-17 16:11:58.109375
228,-8.25,2021-12-17 16:11:58.125000
229,-9.4,2021-12-17 16:11:58.140625
230,-10.28,2021-12-17 16:11:58.156250
231,-10.87,2021-12-17 16:11:58.171875
232,-11.17,2021-12-17 16:11:58.187500
233,-11.17,2021-12-17 16:11:58.203125
234,-10.86,2021-12-17 16:11:58.218750
235,-10.26,2021-12-17 16:11:58.234375
236,-9.36,2021-12-17 16:11:58.250000
237,-8.23,2021-12-17 16:11:58.265625
238,-6.93,2021-12-17 16:11:58.281250
239,-5.54,2021-12-17 16:11:58.296875
240,-4.14,2021-12-17 16:11:58.312500
241,-2.77,2021-12-17 16:11:58.328125
242,-1.43,2021-12-17 16:11:58.343750
243,-0.06,2021-12-17 16:11:58.359375
244,1.4,2021-12-17 16:11:58.375000
245,3.02,2021-12-17 16:11:58.390625
246,4.77,2021-12-17 16:11:58.406250
247,6.55,2021-12-17 16:11:58.421875
248,8.16,2021-12-17 16:11:58.437500
249,9.44,2021-12-17 16:11:58.453125
250,10.3,2021-12-17 16:11:58.468750
251,10.78,2021-12-17 16:11:58.484375
252,10.99,2021-12-17 16:11:58.500000
253,11.05,2021-12-17 16:11:58.515625
254,11.02,2021-12-17 16:11:58.531250
255,10.9,2021-12-17 16:11:58.546875
256,10.68,2021-12-17 16:11:58.562500
257,10.35,2021-12-17 16:11:58.578125
258,9.99,2021-12-17 16:11:58.593750
259,9.63,2021-12-17 16:11:58.609375
260,9.24,2021-12-17 16:11:58.625000
261,8.76,2021-12-17 16:11:58.640625
262,8.1,2021-12-17 16:11:58.656250
263,7.23,2021-12-17 16:11:58.671875
264,6.2,2021-12-17 16:11:58.687500
265,5.1,2021-12-17 16:11:58.703125
266,3.98,2021-12-17 16:11:58.718750
267,2.83,2021-12-17 16:11:58.734375
268,1.61,2021-12-17 16:11:58.750000
269,0.34,2021-12-17 16:11:58.765625
270,-0.88,2021-12-17 16:11:58.781250
271,-1.91,2021-12-17 16:11:58.796875
272,-2.66,2021-12-17 16:11:58.812500
273,-3.19,2021-12-17 16:11:58.828125
274,-3.69,2021-12-17 16:11:58.843750
275,-4.39,2021-12-17 16:11:58.859375
276,-5.42,2021-12-17 16:11:58.875000
277,-6.77,2021-12-17 16:11:58.890625
278,-8.27,2021-12-17 16:11:58.906250
279,-9.76,2021-12-17 16:11:58.921875
280,-11.18,2021-12-17 16:11:58.937500
281,-12.62,2021-12-17 16:11:58.953125
282,-14.24,2021-12-17 16:11:58.968750
283,-16.15,2021-12-17 16:11:58.984375
284,-18.3,2021-12-17 16:11:59.000000
285,-20.4,2021-12-17 16:11:59.015625
286,-22.04,2021-12-17 16:11:59.031250
287,-22.84,2021-12-17 16:11:59.046875
288,-22.53,2021-12-17 16:11:59.062500
289,-21.08,2021-12-17 16:11:59.078125
290,-18.64,2021-12-17 16:11:59.093750
291,-15.41,2021-12-17 16:11:59.109375
292,-11.63,2021-12-17 16:11:59.125000
293,-7.46,2021-12-17 16:11:59.140625
294,-3.11,2021-12-17 16:11:59.156250
295,1.17,2021-12-17 16:11:59.171875
296,5.13,2021-12-17 16:11:59.187500
297,8.58,2021-12-17 16:11:59.203125
298,11.44,2021-12-17 16:11:59.218750
299,13.82,2021-12-17 16:11:59.234375
300,15.93,2021-12-17 16:11:59.250000
301,17.95,2021-12-17 16:11:59.265625
302,19.92,2021-12-17 16:11:59.281250
303,21.66,2021-12-17 16:11:59.296875
304,22.89,2021-12-17 16:11:59.312500
305,23.36,2021-12-17 16:11:59.328125
306,23.01,2021-12-17 16:11:59.343750
307,21.94,2021-12-17 16:11:59.359375
308,20.46,2021-12-17 16:11:59.375000
309,18.86,2021-12-17 16:11:59.390625
310,17.41,2021-12-17 16:11:59.406250
311,16.19,2021-12-17 16:11:59.421875
312,15.16,2021-12-17 16:11:59.437500
313,14.14,2021-12-17 16:11:59.453125
314,13.03,2021-12-17 16:11:59.468750
315,11.8,2021-12-17 16:11:59.484375
316,10.51,2021-12-17 16:11:59.500000
317,9.33,2021-12-17 16:11:59.515625
318,8.43,2021-12-17 16:11:59.531250
319,7.88,2021-12-17 16:11:59.546875
320,7.63,2021-12-17 16:11:59.562500
321,7.6,2021-12-17 16:11:59.578125
322,7.67,2021-12-17 16:11:59.593750
323,7.78,2021-12-17 16:11:59.609375
324,7.92,2021-12-17 16:11:59.625000
325,8.07,2021-12-17 16:11:59.640625
326,8.14,2021-12-17 16:11:59.656250
327,7.95,2021-12-17 16:11:59.671875
328,7.26,2021-12-17 16:11:59.687500
329,5.87,2021-12-17 16:11:59.703125
330,3.76,2021-12-17 16:11:59.718750
331,1.06,2021-12-17 16:11:59.734375
332,-1.93,2021-12-17 16:11:59.750000
333,-4.87,2021-12-17 16:11:59.765625
334,-7.49,2021-12-17 16:11:59.781250
335,-9.61,2021-12-17 16:11:59.796875
336,-11.19,2021-12-17 16:11:59.812500
337,-12.26,2021-12-17 16:11:59.828125
338,-12.85,2021-12-17 16:11:59.843750
339,-12.95,2021-12-17 16:11:59.859375
340,-12.57,2021-12-17 16:11:59.875000
341,-11.79,2021-12-17 16:11:59.890625
342,-10.75,2021-12-17 16:11:59.906250
343,-9.66,2021-12-17 16:11:59.921875
344,-8.66,2021-12-17 16:11:59.937500
345,-7.81,2021-12-17 16:11:59.953125
346,-7.03,2021-12-17 16:11:59.968750
347,-6.19,2021-12-17 16:11:59.984375
348,-5.17,2021-12-17 16:12:00.000000
349,-3.98,2021-12-17 16:12:00.015625
350,-2.69,2021-12-17 16:12:00.031250
351,-1.39,2021-12-17 16:12:00.046875
352,-0.11,2021-12-17 16:12:00.062500
353,1.22,2021-12-17 16:12:00.078125
354,2.67,2021-12-17 16:12:00.093750
355,4.31,2021-12-17 16:12:00.109375
356,6.12,2021-12-17 16:12:00.125000
357,7.94,2021-12-17 16:12:00.140625
358,9.58,2021-12-17 16:12:00.156250
359,10.84,2021-12-17 16:12:00.171875
360,11.64,2021-12-17 16:12:00.187500
361,11.99,2021-12-17 16:12:00.203125
362,11.99,2021-12-17 16:12:00.218750
363,11.73,2021-12-17 16:12:00.234375
364,11.34,2021-12-17 16:12:00.250000
365,10.89,2021-12-17 16:12:00.265625
366,10.39,2021-12-17 16:12:00.281250
367,9.83,2021-12-17 16:12:00.296875
368,9.12,2021-12-17 16:12:00.312500
369,8.23,2021-12-17 16:12:00.328125
370,7.18,2021-12-17 16:12:00.343750
371,5.99,2021-12-17 16:12:00.359375
372,4.8,2021-12-17 16:12:00.375000
373,3.7,2021-12-17 16:12:00.390625
374,2.79,2021-12-17 16:12:00.406250
375,2.08,2021-12-17 16:12:00.421875
376,1.54,2021-12-17 16:12:00.437500
377,1.14,2021-12-17 16:12:00.453125
378,0.81,2021-12-17 16:12:00.468750
379,0.54,2021-12-17 16:12:00.484375
380,0.24,2021-12-17 16:12:00.500000
381,-0.17,2021-12-17 16:12:00.515625
382,-0.78,2021-12-17 16:12:00.531250
383,-1.64,2021-12-17 16:12:00.546875
384,-2.72,2021-12-17 16:12:00.562500
385,-3.86,2021-12-17 16:12:00.578125
386,-4.87,2021-12-17 16:12:00.593750
387,-5.63,2021-12-17 16:12:00.609375
388,-6.13,2021-12-17 16:12:00.625000
389,-6.5,2021-12-17 16:12:00.640625
390,-6.93,2021-12-17 16:12:00.656250
391,-7.58,2021-12-17 16:12:00.671875
392,-8.45,2021-12-17 16:12:00.687500
393,-9.44,2021-12-17 16:12:00.703125
394,-10.31,2021-12-17 16:12:00.718750
395,-10.81,2021-12-17 16:12:00.734375
396,-10.74,2021-12-17 16:12:00.750000
397,-9.98,2021-12-17 16:12:00.765625
398,-8.63,2021-12-17 16:12:00.781250
399,-6.91,2021-12-17 16:12:00.796875
400,-5.12,2021-12-17 16:12:00.812500
401,-3.58,2021-12-17 16:12:00.828125
402,-2.39,2021-12-17 16:12:00.843750
403,-1.5,2021-12-17 16:12:00.859375
404,-0.68,2021-12-17 16:12:00.875000
405,0.31,2021-12-17 16:12:00.890625
406,1.62,2021-12-17 16:12:00.906250
407,3.23,2021-12-17 16:12:00.921875
408,4.95,2021-12-17 16:12:00.937500
409,6.61,2021-12-17 16:12:00.953125
410,8.01,2021-12-17 16:12:00.968750
411,9.05,2021-12-17 16:12:00.984375
412,9.63,2021-12-17 16:12:01.000000
413,9.64,2021-12-17 16:12:01.015625
414,9.01,2021-12-17 16:12:01.031250
415,7.73,2021-12-17 16:12:01.046875
416,5.94,2021-12-17 16:12:01.062500
417,3.9,2021-12-17 16:12:01.078125
418,1.98,2021-12-17 16:12:01.093750
419,0.52,2021-12-17 16:12:01.109375
420,-0.3,2021-12-17 16:12:01.125000
421,-0.48,2021-12-17 16:12:01.140625
422,-0.24,2021-12-17 16:12:01.156250
423,0.15,2021-12-17 16:12:01.171875
424,0.41,2021-12-17 16:12:01.187500
425,0.39,2021-12-17 16:12:01.203125
426,0.05,2021-12-17 16:12:01.218750
427,-0.51,2021-12-17 16:12:01.234375
428,-1.17,2021-12-17 16:12:01.250000
429,-1.81,2021-12-17 16:12:01.265625
430,-2.34,2021-12-17 16:12:01.281250
431,-2.74,2021-12-17 16:12:01.296875
432,-2.96,2021-12-17 16:12:01.312500
433,-2.99,2021-12-17 16:12:01.328125
434,-2.85,2021-12-17 16:12:01.343750
435,-2.63,2021-12-17 16:12:01.359375
436,-2.46,2021-12-17 16:12:01.375000
437,-2.55,2021-12-17 16:12:01.390625
438,-3.03,2021-12-17 16:12:01.406250
439,-3.97,2021-12-17 16:12:01.421875
440,-5.27,2021-12-17 16:12:01.437500
441,-6.79,2021-12-17 16:12:01.453125
442,-8.33,2021-12-17 16:12:01.468750
443,-9.74,2021-12-17 16:12:01.484375
444,-10.91,2021-12-17 16:12:01.500000
445,-11.76,2021-12-17 16:12:01.515625
446,-12.26,2021-12-17 16:12:01.531250
447,-12.37,2021-12-17 16:12:01.546875
448,-12.05,2021-12-17 16:12:01.562500
449,-11.28,2021-12-17 16:12:01.578125
450,-10.08,2021-12-17 16:12:01.593750
451,-8.49,2021-12-17 16:12:01.609375
452,-6.57,2021-12-17 16:12:01.625000
453,-4.43,2021-12-17 16:12:01.640625
454,-2.23,2021-12-17 16:12:01.656250
455,-0.09,2021-12-17 16:12:01.671875
456,1.92,2021-12-17 16:12:01.687500
457,3.83,2021-12-17 16:12:01.703125
458,5.65,2021-12-17 16:12:01.718750
459,7.4,2021-12-17 16:12:01.734375
460,9.05,2021-12-17 16:12:01.750000
461,10.46,2021-12-17 16:12:01.765625
462,11.51,2021-12-17 16:12:01.781250
463,12.13,2021-12-17 16:12:01.796875
464,12.3,2021-12-17 16:12:01.812500
465,12.12,2021-12-17 16:12:01.828125
466,11.71,2021-12-17 16:12:01.843750
467,11.17,2021-12-17 16:12:01.859375
468,10.59,2021-12-17 16:12:01.875000
469,10.04,2021-12-17 16:12:01.890625
470,9.61,2021-12-17 16:12:01.906250
471,9.39,2021-12-17 16:12:01.921875
472,9.4,2021-12-17 16:12:01.937500
473,9.6,2021-12-17 16:12:01.953125
474,9.82,2021-12-17 16:12:01.968750
475,9.83,2021-12-17 16:12:01.984375
476,9.48,2021-12-17 16:12:02.000000
477,8.68,2021-12-17 16:12:02.015625
478,7.53,2021-12-17 16:12:02.031250
479,6.23,2021-12-17 16:12:02.046875
480,4.98,2021-12-17 16:12:02.062500
481,3.87,2021-12-17 16:12:02.078125
482,2.94,2021-12-17 16:12:02.093750
483,2.14,2021-12-17 16:12:02.109375
484,1.4,2021-12-17 16:12:02.125000
485,0.71,2021-12-17 16:12:02.140625
486,0.07,2021-12-17 16:12:02.156250
487,-0.54,2021-12-17 16:12:02.171875
488,-1.17,2021-12-17 16:12:02.187500
489,-1.87,2021-12-17 16:12:02.203125
490,-2.68,2021-12-17 16:12:02.218750
491,-3.55,2021-12-17 16:12:02.234375
492,-4.38,2021-12-17 16:12:02.250000
493,-5.16,2021-12-17 16:12:02.265625
494,-5.94,2021-12-17 16:12:02.281250
495,-6.84,2021-12-17 16:12:02.296875
496,-7.98,2021-12-17 16:12:02.312500
497,-9.34,2021-12-17 16:12:02.328125
498,-10.73,2021-12-17 16:12:02.343750
499,-11.88,2021-12-17 16:12:02.359375
500,-12.54,2021-12-17 16:12:02.375000
501,-12.57,2021-12-17 16:12:02.390625
502,-12.02,2021-12-17 16:12:02.406250
503,-11.03,2021-12-17 16:12:02.421875
504,-9.77,2021-12-17 16:12:02.437500
505,-8.35,2021-12-17 16:12:02.453125
506,-6.82,2021-12-17 16:12:02.468750
507,-5.21,2021-12-17 16:12:02.484375
508,-3.52,2021-12-17 16:12:02.500000
509,-1.74,2021-12-17 16:12:02.515625
510,0.16,2021-12-17 16:12:02.531250
511,2.17,2021-12-17 16:12:02.546875
512,4.28,2021-12-17 16:12:02.562500
513,6.35,2021-12-17 16:12:02.578125
514,8.21,2021-12-17 16:12:02.593750
515,9.62,2021-12-17 16:12:02.609375
516,10.47,2021-12-17 16:12:02.625000
517,10.73,2021-12-17 16:12:02.640625
518,10.56,2021-12-17 16:12:02.656250
519,10.21,2021-12-17 16:12:02.671875
520,9.88,2021-12-17 16:12:02.687500
521,9.71,2021-12-17 16:12:02.703125
522,9.73,2021-12-17 16:12:02.718750
523,9.88,2021-12-17 16:12:02.734375
524,10.11,2021-12-17 16:12:02.750000
525,10.33,2021-12-17 16:12:02.765625
526,10.5,2021-12-17 16:12:02.781250
527,10.54,2021-12-17 16:12:02.796875
528,10.39,2021-12-17 16:12:02.812500
529,9.91,2021-12-17 16:12:02.828125
530,9.06,2021-12-17 16:12:02.843750
531,7.84,2021-12-17 16:12:02.859375
532,6.38,2021-12-17 16:12:02.875000
533,4.91,2021-12-17 16:12:02.890625
534,3.66,2021-12-17 16:12:02.906250
535,2.82,2021-12-17 16:12:02.921875
536,2.4,2021-12-17 16:12:02.937500
537,2.25,2021-12-17 16:12:02.953125
538,2.07,2021-12-17 16:12:02.968750
539,1.6,2021-12-17 16:12:02.984375
540,0.68,2021-12-17 16:12:03.000000
541,-0.63,2021-12-17 16:12:03.015625
542,-2.06,2021-12-17 16:12:03.031250
543,-3.31,2021-12-17 16:12:03.046875
544,-4.16,2021-12-17 16:12:03.062500
545,-4.57,2021-12-17 16:12:03.078125
546,-4.66,2021-12-17 16:12:03.093750
547,-4.69,2021-12-17 16:12:03.109375
548,-4.88,2021-12-17 16:12:03.125000
549,-5.4,2021-12-17 16:12:03.140625
550,-6.28,2021-12-17 16:12:03.156250
551,-7.45,2021-12-17 16:12:03.171875
552,-8.79,2021-12-17 16:12:03.187500
553,-10.2,2021-12-17 16:12:03.203125
554,-11.54,2021-12-17 16:12:03.218750
555,-12.69,2021-12-17 16:12:03.234375
556,-13.53,2021-12-17 16:12:03.250000
557,-13.89,2021-12-17 16:12:03.265625
558,-13.65,2021-12-17 16:12:03.281250
559,-12.75,2021-12-17 16:12:03.296875
560,-11.2,2021-12-17 16:12:03.312500
561,-9.16,2021-12-17 16:12:03.328125
562,-6.8,2021-12-17 16:12:03.343750
563,-4.31,2021-12-17 16:12:03.359375
564,-1.82,2021-12-17 16:12:03.375000
565,0.58,2021-12-17 16:12:03.390625
566,2.84,2021-12-17 16:12:03.406250
567,4.88,2021-12-17 16:12:03.421875
568,6.66,2021-12-17 16:12:03.437500
569,8.08,2021-12-17 16:12:03.453125
570,9.11,2021-12-17 16:12:03.468750
571,9.78,2021-12-17 16:12:03.484375
572,10.12,2021-12-17 16:12:03.500000
573,10.18,2021-12-17 16:12:03.515625
574,9.99,2021-12-17 16:12:03.531250
575,9.54,2021-12-17 16:12:03.546875
576,8.85,2021-12-17 16:12:03.562500
577,7.96,2021-12-17 16:12:03.578125
578,6.94,2021-12-17 16:12:03.593750
579,5.94,2021-12-17 16:12:03.609375
580,5.04,2021-12-17 16:12:03.625000
581,4.35,2021-12-17 16:12:03.640625
582,3.89,2021-12-17 16:12:03.656250
583,3.64,2021-12-17 16:12:03.671875
584,3.57,2021-12-17 16:12:03.687500
585,3.56,2021-12-17 16:12:03.703125
586,3.52,2021-12-17 16:12:03.718750
587,3.38,2021-12-17 16:12:03.734375
588,3.08,2021-12-17 16:12:03.750000
589,2.56,2021-12-17 16:12:03.765625
590,1.86,2021-12-17 16:12:03.781250
591,1.04,2021-12-17 16:12:03.796875
592,0.2,2021-12-17 16:12:03.812500
593,-0.51,2021-12-17 16:12:03.828125
594,-1.03,2021-12-17 16:12:03.843750
595,-1.32,2021-12-17 16:12:03.859375
596,-1.44,2021-12-17 16:12:03.875000
597,-1.49,2021-12-17 16:12:03.890625
598,-1.58,2021-12-17 16:12:03.906250
599,-1.79,2021-12-17 16:12:03.921875
600,-2.17,2021-12-17 16:12:03.937500
601,-2.72,2021-12-17 16:12:03.953125
602,-3.44,2021-12-17 16:12:03.968750
603,-4.32,2021-12-17 16:12:03.984375
604,-5.35,2021-12-17 16:12:04.000000
605,-6.46,2021-12-17 16:12:04.015625
606,-7.58,2021-12-17 16:12:04.031250
607,-8.57,2021-12-17 16:12:04.046875
608,-9.3,2021-12-17 16:12:04.062500
609,-9.64,2021-12-17 16:12:04.078125
610,-9.54,2021-12-17 16:12:04.093750
611,-8.96,2021-12-17 16:12:04.109375
612,-7.95,2021-12-17 16:12:04.125000
613,-6.57,2021-12-17 16:12:04.140625
614,-4.95,2021-12-17 16:12:04.156250
615,-3.22,2021-12-17 16:12:04.171875
616,-1.49,2021-12-17 16:12:04.187500
617,0.14,2021-12-17 16:12:04.203125
618,1.59,2021-12-17 16:12:04.218750
619,2.79,2021-12-17 16:12:04.234375
620,3.74,2021-12-17 16:12:04.250000
621,4.45,2021-12-17 16:12:04.265625
622,5.08,2021-12-17 16:12:04.281250
623,5.76,2021-12-17 16:12:04.296875
624,6.6,2021-12-17 16:12:04.312500
625,7.59,2021-12-17 16:12:04.328125
626,8.58,2021-12-17 16:12:04.343750
627,9.36,2021-12-17 16:12:04.359375
628,9.77,2021-12-17 16:12:04.375000
629,9.78,2021-12-17 16:12:04.390625
630,9.49,2021-12-17 16:12:04.406250
631,9.09,2021-12-17 16:12:04.421875
632,8.75,2021-12-17 16:12:04.437500
633,8.52,2021-12-17 16:12:04.453125
634,8.34,2021-12-17 16:12:04.468750
635,8.07,2021-12-17 16:12:04.484375
636,7.65,2021-12-17 16:12:04.500000
637,7.03,2021-12-17 16:12:04.515625
638,6.25,2021-12-17 16:12:04.531250
639,5.39,2021-12-17 16:12:04.546875
640,4.51,2021-12-17 16:12:04.562500
641,3.65,2021-12-17 16:12:04.578125
642,2.86,2021-12-17 16:12:04.593750
643,2.16,2021-12-17 16:12:04.609375
644,1.56,2021-12-17 16:12:04.625000
645,0.99,2021-12-17 16:12:04.640625
646,0.39,2021-12-17 16:12:04.656250
647,-0.29,2021-12-17 16:12:04.671875
648,-1.11,2021-12-17 16:12:04.687500
649,-2.02,2021-12-17 16:12:04.703125
650,-2.98,2021-12-17 16:12:04.718750
651,-3.92,2021-12-17 16:12:04.734375
652,-4.82,2021-12-17 16:12:04.750000
653,-5.7,2021-12-17 16:12:04.765625
654,-6.57,2021-12-17 16:12:04.781250
655,-7.39,2021-12-17 16:12:04.796875
656,-8.1,2021-12-17 16:12:04.812500
657,-8.7,2021-12-17 16:12:04.828125
658,-9.27,2021-12-17 16:12:04.843750
659,-9.98,2021-12-17 16:12:04.859375
660,-11.07,2021-12-17 16:12:04.875000
661,-12.63,2021-12-17 16:12:04.890625
662,-14.59,2021-12-17 16:12:04.906250
663,-16.67,2021-12-17 16:12:04.921875
664,-18.46,2021-12-17 16:12:04.937500
665,-19.58,2021-12-17 16:12:04.953125
666,-19.81,2021-12-17 16:12:04.968750
667,-19.15,2021-12-17 16:12:04.984375
668,-17.77,2021-12-17 16:12:05.000000
669,-15.98,2021-12-17 16:12:05.015625
670,-14.05,2021-12-17 16:12:05.031250
671,-12.23,2021-12-17 16:12:05.046875
672,-10.58,2021-12-17 16:12:05.062500
673,-9.1,2021-12-17 16:12:05.078125
674,-7.66,2021-12-17 16:12:05.093750
675,-6.19,2021-12-17 16:12:05.109375
676,-4.64,2021-12-17 16:12:05.125000
677,-3.09,2021-12-17 16:12:05.140625
678,-1.69,2021-12-17 16:12:05.156250
679,-0.57,2021-12-17 16:12:05.171875
680,0.24,2021-12-17 16:12:05.187500
681,0.87,2021-12-17 16:12:05.203125
682,1.57,2021-12-17 16:12:05.218750
683,2.65,2021-12-17 16:12:05.234375
684,4.37,2021-12-17 16:12:05.250000
685,6.82,2021-12-17 16:12:05.265625
686,9.91,2021-12-17 16:12:05.281250
687,13.32,2021-12-17 16:12:05.296875
688,16.59,2021-12-17 16:12:05.312500
689,19.25,2021-12-17 16:12:05.328125
690,20.91,2021-12-17 16:12:05.343750
691,21.37,2021-12-17 16:12:05.359375
692,20.63,2021-12-17 16:12:05.375000
693,18.95,2021-12-17 16:12:05.390625
694,16.67,2021-12-17 16:12:05.406250
695,14.17,2021-12-17 16:12:05.421875
696,11.76,2021-12-17 16:12:05.437500
697,9.68,2021-12-17 16:12:05.453125
698,8.04,2021-12-17 16:12:05.468750
699,6.84,2021-12-17 16:12:05.484375
700,6.05,2021-12-17 16:12:05.500000
701,5.59,2021-12-17 16:12:05.515625
702,5.4,2021-12-17 16:12:05.531250
703,5.37,2021-12-17 16:12:05.546875
704,5.43,2021-12-17 16:12:05.562500
705,5.42,2021-12-17 16:12:05.578125
706,5.19,2021-12-17 16:12:05.593750
707,4.58,2021-12-17 16:12:05.609375
708,3.48,2021-12-17 16:12:05.625000
709,1.94,2021-12-17 16:12:05.640625
710,0.06,2021-12-17 16:12:05.656250
711,-2.02,2021-12-17 16:12:05.671875
712,-4.24,2021-12-17 16:12:05.687500
713,-6.66,2021-12-17 16:12:05.703125
714,-9.43,2021-12-17 16:12:05.718750
715,-12.63,2021-12-17 16:12:05.734375
716,-16.17,2021-12-17 16:12:05.750000
717,-19.75,2021-12-17 16:12:05.765625
718,-22.91,2021-12-17 16:12:05.781250
719,-25.29,2021-12-17 16:12:05.796875
720,-26.71,2021-12-17 16:12:05.812500
721,-27.27,2021-12-17 16:12:05.828125
722,-27.23,2021-12-17 16:12:05.843750
723,-26.85,2021-12-17 16:12:05.859375
724,-26.22,2021-12-17 16:12:05.875000
725,-25.18,2021-12-17 16:12:05.890625
726,-23.45,2021-12-17 16:12:05.906250
727,-20.71,2021-12-17 16:12:05.921875
728,-16.79,2021-12-17 16:12:05.937500
729,-11.64,2021-12-17 16:12:05.953125
730,-5.41,2021-12-17 16:12:05.968750
731,1.63,2021-12-17 16:12:05.984375
732,9.09,2021-12-17 16:12:06.000000
733,16.49,2021-12-17 16:12:06.015625
734,23.39,2021-12-17 16:12:06.031250
735,29.46,2021-12-17 16:12:06.046875
736,34.59,2021-12-17 16:12:06.062500
737,38.84,2021-12-17 16:12:06.078125
738,42.33,2021-12-17 16:12:06.093750
739,45.15,2021-12-17 16:12:06.109375
740,47.3,2021-12-17 16:12:06.125000
741,48.8,2021-12-17 16:12:06.140625
742,49.77,2021-12-17 16:12:06.156250
743,50.37,2021-12-17 16:12:06.171875
744,50.67,2021-12-17 16:12:06.187500
745,50.58,2021-12-17 16:12:06.203125
746,49.79,2021-12-17 16:12:06.218750
747,48.0,2021-12-17 16:12:06.234375
748,45.09,2021-12-17 16:12:06.250000
749,41.32,2021-12-17 16:12:06.265625
750,37.2,2021-12-17 16:12:06.281250
751,33.26,2021-12-17 16:12:06.296875
752,29.68,2021-12-17 16:12:06.312500
753,26.18,2021-12-17 16:12:06.328125
754,22.1,2021-12-17 16:12:06.343750
755,16.69,2021-12-17 16:12:06.359375
756,9.46,2021-12-17 16:12:06.375000
757,0.39,2021-12-17 16:12:06.390625
758,-10.22,2021-12-17 16:12:06.406250
759,-21.87,2021-12-17 16:12:06.421875
760,-34.17,2021-12-17 16:12:06.437500
761,-47.01,2021-12-17 16:12:06.453125
762,-60.4,2021-12-17 16:12:06.468750
763,-74.32,2021-12-17 16:12:06.484375
764,-88.5,2021-12-17 16:12:06.500000
765,-102.36,2021-12-17 16:12:06.515625
766,-115.2,2021-12-17 16:12:06.531250
767,-126.48,2021-12-17 16:12:06.546875
768,-135.99,2021-12-17 16:12:06.562500
769,-143.73,2021-12-17 16:12:06.578125
770,-149.61,2021-12-17 16:12:06.593750
771,-152.93,2021-12-17 16:12:06.609375
772,-152.45,2021-12-17 16:12:06.625000
773,-146.64,2021-12-17 16:12:06.640625
774,-134.35,2021-12-17 16:12:06.656250
775,-115.44,2021-12-17 16:12:06.671875
776,-90.97,2021-12-17 16:12:06.687500
777,-62.82,2021-12-17 16:12:06.703125
778,-33.02,2021-12-17 16:12:06.718750
779,-3.36,2021-12-17 16:12:06.734375
780,24.92,2021-12-17 16:12:06.750000
781,50.83,2021-12-17 16:12:06.765625
782,73.36,2021-12-17 16:12:06.781250
783,91.43,2021-12-17 16:12:06.796875
784,104.12,2021-12-17 16:12:06.812500
785,111.12,2021-12-17 16:12:06.828125
786,113.07,2021-12-17 16:12:06.843750
787,111.42,2021-12-17 16:12:06.859375
788,107.94,2021-12-17 16:12:06.875000
789,104.09,2021-12-17 16:12:06.890625
790,100.51,2021-12-17 16:12:06.906250
791,97.05,2021-12-17 16:12:06.921875
792,93.12,2021-12-17 16:12:06.937500
793,88.17,2021-12-17 16:12:06.953125
794,82.05,2021-12-17 16:12:06.968750
795,75.08,2021-12-17 16:12:06.984375
796,67.8,2021-12-17 16:12:07.000000
797,60.61,2021-12-17 16:12:07.015625
798,53.56,2021-12-17 16:12:07.031250
799,46.27,2021-12-17 16:12:07.046875
800,38.19,2021-12-17 16:12:07.062500
801,28.89,2021-12-17 16:12:07.078125
802,18.43,2021-12-17 16:12:07.093750
803,7.39,2021-12-17 16:12:07.109375
804,-3.22,2021-12-17 16:12:07.125000
805,-12.34,2021-12-17 16:12:07.140625
806,-19.21,2021-12-17 16:12:07.156250
807,-23.63,2021-12-17 16:12:07.171875
808,-26.02,2021-12-17 16:12:07.187500
809,-27.31,2021-12-17 16:12:07.203125
810,-28.68,2021-12-17 16:12:07.218750
811,-31.31,2021-12-17 16:12:07.234375
812,-36.02,2021-12-17 16:12:07.250000
813,-42.93,2021-12-17 16:12:07.265625
814,-51.11,2021-12-17 16:12:07.281250
815,-58.51,2021-12-17 16:12:07.296875
816,-62.42,2021-12-17 16:12:07.312500
817,-60.41,2021-12-17 16:12:07.328125
818,-51.44,2021-12-17 16:12:07.343750
819,-36.49,2021-12-17 16:12:07.359375
820,-18.42,2021-12-17 16:12:07.375000
821,-0.97,2021-12-17 16:12:07.390625
822,12.77,2021-12-17 16:12:07.406250
823,21.39,2021-12-17 16:12:07.421875
824,25.4,2021-12-17 16:12:07.437500
825,26.48,2021-12-17 16:12:07.453125
826,26.34,2021-12-17 16:12:07.468750
827,25.84,2021-12-17 16:12:07.484375
828,24.91,2021-12-17 16:12:07.500000
829,23.08,2021-12-17 16:12:07.515625
830,20.14,2021-12-17 16:12:07.531250
831,16.57,2021-12-17 16:12:07.546875
832,13.32,2021-12-17 16:12:07.562500
833,11.18,2021-12-17 16:12:07.578125
834,10.34,2021-12-17 16:12:07.593750
835,10.37,2021-12-17 16:12:07.609375
836,10.57,2021-12-17 16:12:07.625000
837,10.51,2021-12-17 16:12:07.640625
838,10.39,2021-12-17 16:12:07.656250
839,10.9,2021-12-17 16:12:07.671875
840,12.86,2021-12-17 16:12:07.687500
841,16.73,2021-12-17 16:12:07.703125
842,22.31,2021-12-17 16:12:07.718750
843,28.81,2021-12-17 16:12:07.734375
844,35.17,2021-12-17 16:12:07.750000
845,40.43,2021-12-17 16:12:07.765625
846,44.01,2021-12-17 16:12:07.781250
847,45.78,2021-12-17 16:12:07.796875
848,46.02,2021-12-17 16:12:07.812500
849,45.17,2021-12-17 16:12:07.828125
850,43.69,2021-12-17 16:12:07.843750
851,41.87,2021-12-17 16:12:07.859375
852,39.79,2021-12-17 16:12:07.875000
853,37.34,2021-12-17 16:12:07.890625
854,34.31,2021-12-17 16:12:07.906250
855,30.56,2021-12-17 16:12:07.921875
856,26.17,2021-12-17 16:12:07.937500
857,21.44,2021-12-17 16:12:07.953125
858,16.84,2021-12-17 16:12:07.968750
859,12.83,2021-12-17 16:12:07.984375
860,9.69,2021-12-17 16:12:08.000000
861,7.44,2021-12-17 16:12:08.015625
862,5.9,2021-12-17 16:12:08.031250
863,4.78,2021-12-17 16:12:08.046875
864,3.82,2021-12-17 16:12:08.062500
865,2.88,2021-12-17 16:12:08.078125
866,1.94,2021-12-17 16:12:08.093750
867,1.07,2021-12-17 16:12:08.109375
868,0.38,2021-12-17 16:12:08.125000
869,-0.02,2021-12-17 16:12:08.140625
870,-0.02,2021-12-17 16:12:08.156250
871,0.39,2021-12-17 16:12:08.171875
872,1.08,2021-12-17 16:12:08.187500
873,1.81,2021-12-17 16:12:08.203125
874,2.3,2021-12-17 16:12:08.218750
875,2.37,2021-12-17 16:12:08.234375
876,2.13,2021-12-17 16:12:08.250000
877,1.97,2021-12-17 16:12:08.265625
878,2.48,2021-12-17 16:12:08.281250
879,4.13,2021-12-17 16:12:08.296875
880,7.13,2021-12-17 16:12:08.312500
881,11.24,2021-12-17 16:12:08.328125
882,15.94,2021-12-17 16:12:08.343750
883,20.56,2021-12-17 16:12:08.359375
884,24.5,2021-12-17 16:12:08.375000
885,27.32,2021-12-17 16:12:08.390625
886,28.73,2021-12-17 16:12:08.406250
887,28.61,2021-12-17 16:12:08.421875
888,26.96,2021-12-17 16:12:08.437500
889,23.93,2021-12-17 16:12:08.453125
890,19.88,2021-12-17 16:12:08.468750
891,15.39,2021-12-17 16:12:08.484375
892,11.1,2021-12-17 16:12:08.500000
893,7.59,2021-12-17 16:12:08.515625
894,5.16,2021-12-17 16:12:08.531250
895,3.78,2021-12-17 16:12:08.546875
896,3.14,2021-12-17 16:12:08.562500
897,2.78,2021-12-17 16:12:08.578125
898,2.29,2021-12-17 16:12:08.593750
899,1.42,2021-12-17 16:12:08.609375
900,0.19,2021-12-17 16:12:08.625000
901,-1.2,2021-12-17 16:12:08.640625
902,-2.44,2021-12-17 16:12:08.656250
903,-3.29,2021-12-17 16:12:08.671875
904,-3.67,2021-12-17 16:12:08.687500
905,-3.69,2021-12-17 16:12:08.703125
906,-3.58,2021-12-17 16:12:08.718750
907,-3.59,2021-12-17 16:12:08.734375
908,-3.85,2021-12-17 16:12:08.750000
909,-4.35,2021-12-17 16:12:08.765625
910,-4.99,2021-12-17 16:12:08.781250
911,-5.59,2021-12-17 16:12:08.796875
912,-6.05,2021-12-17 16:12:08.812500
913,-6.34,2021-12-17 16:12:08.828125
914,-6.52,2021-12-17 16:12:08.843750
915,-6.68,2021-12-17 16:12:08.859375
916,-6.92,2021-12-17 16:12:08.875000
917,-7.31,2021-12-17 16:12:08.890625
918,-7.86,2021-12-17 16:12:08.906250
919,-8.56,2021-12-17 16:12:08.921875
920,-9.35,2021-12-17 16:12:08.937500
921,-10.12,2021-12-17 16:12:08.953125
922,-10.8,2021-12-17 16:12:08.968750
923,-11.32,2021-12-17 16:12:08.984375
924,-11.73,2021-12-17 16:12:09.000000
925,-12.15,2021-12-17 16:12:09.015625
926,-12.78,2021-12-17 16:12:09.031250
927,-13.83,2021-12-17 16:12:09.046875
928,-15.38,2021-12-17 16:12:09.062500
929,-17.36,2021-12-17 16:12:09.078125
930,-19.56,2021-12-17 16:12:09.093750
931,-21.71,2021-12-17 16:12:09.109375
932,-23.62,2021-12-17 16:12:09.125000
933,-25.2,2021-12-17 16:12:09.140625
934,-26.52,2021-12-17 16:12:09.156250
935,-27.71,2021-12-17 16:12:09.171875
936,-28.84,2021-12-17 16:12:09.187500
937,-29.84,2021-12-17 16:12:09.203125
938,-30.51,2021-12-17 16:12:09.218750
939,-30.58,2021-12-17 16:12:09.234375
940,-29.84,2021-12-17 16:12:09.250000
941,-28.2,2021-12-17 16:12:09.265625
942,-25.75,2021-12-17 16:12:09.281250
943,-22.69,2021-12-17 16:12:09.296875
944,-19.23,2021-12-17 16:12:09.312500
945,-15.53,2021-12-17 16:12:09.328125
946,-11.73,2021-12-17 16:12:09.343750
947,-8.01,2021-12-17 16:12:09.359375
948,-4.6,2021-12-17 16:12:09.375000
949,-1.79,2021-12-17 16:12:09.390625
950,0.2,2021-12-17 16:12:09.406250
951,1.28,2021-12-17 16:12:09.421875
952,1.59,2021-12-17 16:12:09.437500
953,1.46,2021-12-17 16:12:09.453125
954,1.26,2021-12-17 16:12:09.468750
955,1.26,2021-12-17 16:12:09.484375
956,1.53,2021-12-17 16:12:09.500000
957,1.97,2021-12-17 16:12:09.515625
958,2.37,2021-12-17 16:12:09.531250
959,2.56,2021-12-17 16:12:09.546875
960,2.47,2021-12-17 16:12:09.562500
961,2.17,2021-12-17 16:12:09.578125
962,1.77,2021-12-17 16:12:09.593750
963,1.35,2021-12-17 16:12:09.609375
964,0.9,2021-12-17 16:12:09.625000
965,0.29,2021-12-17 16:12:09.640625
966,-0.57,2021-12-17 16:12:09.656250
967,-1.68,2021-12-17 16:12:09.671875
968,-2.88,2021-12-17 16:12:09.687500
969,-3.94,2021-12-17 16:12:09.703125
970,-4.62,2021-12-17 16:12:09.718750
971,-4.81,2021-12-17 16:12:09.734375
972,-4.58,2021-12-17 16:12:09.750000
973,-4.09,2021-12-17 16:12:09.765625
974,-3.53,2021-12-17 16:12:09.781250
975,-2.98,2021-12-17 16:12:09.796875
976,-2.5,2021-12-17 16:12:09.812500
977,-2.07,2021-12-17 16:12:09.828125
978,-1.75,2021-12-17 16:12:09.843750
979,-1.59,2021-12-17 16:12:09.859375
980,-1.68,2021-12-17 16:12:09.875000
981,-2.03,2021-12-17 16:12:09.890625
982,-2.6,2021-12-17 16:12:09.906250
983,-3.25,2021-12-17 16:12:09.921875
984,-3.9,2021-12-17 16:12:09.937500
985,-4.45,2021-12-17 16:12:09.953125
986,-4.93,2021-12-17 16:12:09.968750
987,-5.41,2021-12-17 16:12:09.984375
988,-6.02,2021-12-17 16:12:10.000000
989,-6.87,2021-12-17 16:12:10.015625
990,-8.03,2021-12-17 16:12:10.031250
991,-9.52,2021-12-17 16:12:10.046875
992,-11.27,2021-12-17 16:12:10.062500
993,-13.17,2021-12-17 16:12:10.078125
994,-15.04,2021-12-17 16:12:10.093750
995,-16.69,2021-12-17 16:12:10.109375
996,-17.98,2021-12-17 16:12:10.125000
997,-18.79,2021-12-17 16:12:10.140625
998,-19.09,2021-12-17 16:12:10.156250
999,-18.87,2021-12-17 16:12:10.171875
1000,-18.16,2021-12-17 16:12:10.187500
1001,-17.01,2021-12-17 16:12:10.203125
1002,-15.46,2021-12-17 16:12:10.218750
1003,-13.63,2021-12-17 16:12:10.234375
1004,-11.7,2021-12-17 16:12:10.250000
1005,-9.83,2021-12-17 16:12:10.265625
1006,-8.19,2021-12-17 16:12:10.281250
1007,-6.88,2021-12-17 16:12:10.296875
1008,-5.93,2021-12-17 16:12:10.312500
1009,-5.35,2021-12-17 16:12:10.328125
1010,-5.09,2021-12-17 16:12:10.343750
1011,-5.1,2021-12-17 16:12:10.359375
1012,-5.3,2021-12-17 16:12:10.375000
1013,-5.54,2021-12-17 16:12:10.390625
1014,-5.63,2021-12-17 16:12:10.406250
1015,-5.41,2021-12-17 16:12:10.421875
1016,-4.77,2021-12-17 16:12:10.437500
1017,-3.71,2021-12-17 16:12:10.453125
1018,-2.38,2021-12-17 16:12:10.468750
1019,-0.94,2021-12-17 16:12:10.484375
1020,0.41,2021-12-17 16:12:10.500000
1021,1.53,2021-12-17 16:12:10.515625
1022,2.34,2021-12-17 16:12:10.531250
1023,2.81,2021-12-17 16:12:10.546875
1024,2.98,2021-12-17 16:12:10.562500
1025,2.91,2021-12-17 16:12:10.578125
1026,2.64,2021-12-17 16:12:10.593750
1027,2.23,2021-12-17 16:12:10.609375
1028,1.7,2021-12-17 16:12:10.625000
1029,1.11,2021-12-17 16:12:10.640625
1030,0.47,2021-12-17 16:12:10.656250
1031,-0.16,2021-12-17 16:12:10.671875
1032,-0.76,2021-12-17 16:12:10.687500
1033,-1.34,2021-12-17 16:12:10.703125
1034,-1.88,2021-12-17 16:12:10.718750
1035,-2.41,2021-12-17 16:12:10.734375
1036,-2.9,2021-12-17 16:12:10.750000
1037,-3.34,2021-12-17 16:12:10.765625
1038,-3.72,2021-12-17 16:12:10.781250
1039,-4.09,2021-12-17 16:12:10.796875
1040,-4.48,2021-12-17 16:12:10.812500
1041,-4.94,2021-12-17 16:12:10.828125
1042,-5.48,2021-12-17 16:12:10.843750
1043,-6.02,2021-12-17 16:12:10.859375
1044,-6.48,2021-12-17 16:12:10.875000
1045,-6.75,2021-12-17 16:12:10.890625
1046,-6.76,2021-12-17 16:12:10.906250
1047,-6.51,2021-12-17 16:12:10.921875
1048,-6.05,2021-12-17 16:12:10.937500
1049,-5.4,2021-12-17 16:12:10.953125
1050,-4.61,2021-12-17 16:12:10.968750
1051,-3.7,2021-12-17 16:12:10.984375
1052,-2.69,2021-12-17 16:12:11.000000
1053,-1.63,2021-12-17 16:12:11.015625
1054,-0.58,2021-12-17 16:12:11.031250
1055,0.4,2021-12-17 16:12:11.046875
1056,1.32,2021-12-17 16:12:11.062500
1057,2.19,2021-12-17 16:12:11.078125
1058,3.09,2021-12-17 16:12:11.093750
1059,4.05,2021-12-17 16:12:11.109375
1060,5.05,2021-12-17 16:12:11.125000
1061,5.99,2021-12-17 16:12:11.140625
1062,6.71,2021-12-17 16:12:11.156250
1063,7.06,2021-12-17 16:12:11.171875
1064,6.95,2021-12-17 16:12:11.187500
1065,6.49,2021-12-17 16:12:11.203125
1066,5.88,2021-12-17 16:12:11.218750
1067,5.39,2021-12-17 16:12:11.234375
1068,5.15,2021-12-17 16:12:11.250000
1069,5.2,2021-12-17 16:12:11.265625
1070,5.38,2021-12-17 16:12:11.281250
1071,5.51,2021-12-17 16:12:11.296875
1072,5.41,2021-12-17 16:12:11.312500
1073,5.03,2021-12-17 16:12:11.328125
1074,4.37,2021-12-17 16:12:11.343750
1075,3.52,2021-12-17 16:12:11.359375
1076,2.52,2021-12-17 16:12:11.375000
1077,1.44,2021-12-17 16:12:11.390625
1078,0.32,2021-12-17 16:12:11.406250
1079,-0.77,2021-12-17 16:12:11.421875
1080,-1.71,2021-12-17 16:12:11.437500
1081,-2.44,2021-12-17 16:12:11.453125
1082,-2.97,2021-12-17 16:12:11.468750
1083,-3.38,2021-12-17 16:12:11.484375
1084,-3.77,2021-12-17 16:12:11.500000
1085,-4.26,2021-12-17 16:12:11.515625
1086,-4.89,2021-12-17 16:12:11.531250
1087,-5.62,2021-12-17 16:12:11.546875
1088,-6.4,2021-12-17 16:12:11.562500
1089,-7.16,2021-12-17 16:12:11.578125
1090,-7.86,2021-12-17 16:12:11.593750
1091,-8.47,2021-12-17 16:12:11.609375
1092,-9.01,2021-12-17 16:12:11.625000
1093,-9.5,2021-12-17 16:12:11.640625
1094,-9.99,2021-12-17 16:12:11.656250
1095,-10.51,2021-12-17 16:12:11.671875
1096,-11.04,2021-12-17 16:12:11.687500
1097,-11.47,2021-12-17 16:12:11.703125
1098,-11.67,2021-12-17 16:12:11.718750
1099,-11.49,2021-12-17 16:12:11.734375
1100,-10.87,2021-12-17 16:12:11.750000
1101,-9.88,2021-12-17 16:12:11.765625
1102,-8.68,2021-12-17 16:12:11.781250
1103,-7.48,2021-12-17 16:12:11.796875
1104,-6.39,2021-12-17 16:12:11.812500
1105,-5.42,2021-12-17 16:12:11.828125
1106,-4.43,2021-12-17 16:12:11.843750
1107,-3.26,2021-12-17 16:12:11.859375
1108,-1.83,2021-12-17 16:12:11.875000
1109,-0.2,2021-12-17 16:12:11.890625
1110,1.51,2021-12-17 16:12:11.906250
1111,3.1,2021-12-17 16:12:11.921875
1112,4.46,2021-12-17 16:12:11.937500
1113,5.5,2021-12-17 16:12:11.953125
1114,6.21,2021-12-17 16:12:11.968750
1115,6.59,2021-12-17 16:12:11.984375
1116,6.64,2021-12-17 16:12:12.000000
1117,6.41,2021-12-17 16:12:12.015625
1118,5.98,2021-12-17 16:12:12.031250
1119,5.46,2021-12-17 16:12:12.046875
1120,4.98,2021-12-17 16:12:12.062500
1121,4.62,2021-12-17 16:12:12.078125
1122,4.33,2021-12-17 16:12:12.093750
1123,4.02,2021-12-17 16:12:12.109375
1124,3.6,2021-12-17 16:12:12.125000
1125,3.05,2021-12-17 16:12:12.140625
1126,2.42,2021-12-17 16:12:12.156250
1127,1.81,2021-12-17 16:12:12.171875
1128,1.32,2021-12-17 16:12:12.187500
1129,0.99,2021-12-17 16:12:12.203125
1130,0.8,2021-12-17 16:12:12.218750
1131,0.66,2021-12-17 16:12:12.234375
1132,0.49,2021-12-17 16:12:12.250000
1133,0.24,2021-12-17 16:12:12.265625
1134,-0.11,2021-12-17 16:12:12.281250
1135,-0.58,2021-12-17 16:12:12.296875
1136,-1.19,2021-12-17 16:12:12.312500
1137,-1.93,2021-12-17 16:12:12.328125
1138,-2.76,2021-12-17 16:12:12.343750
1139,-3.61,2021-12-17 16:12:12.359375
1140,-4.39,2021-12-17 16:12:12.375000
1141,-5.03,2021-12-17 16:12:12.390625
1142,-5.51,2021-12-17 16:12:12.406250
1143,-5.92,2021-12-17 16:12:12.421875
1144,-6.34,2021-12-17 16:12:12.437500
1145,-6.89,2021-12-17 16:12:12.453125
1146,-7.58,2021-12-17 16:12:12.468750
1147,-8.34,2021-12-17 16:12:12.484375
1148,-9.01,2021-12-17 16:12:12.500000
1149,-9.43,2021-12-17 16:12:12.515625
1150,-9.47,2021-12-17 16:12:12.531250
1151,-9.13,2021-12-17 16:12:12.546875
1152,-8.48,2021-12-17 16:12:12.562500
1153,-7.6,2021-12-17 16:12:12.578125
1154,-6.6,2021-12-17 16:12:12.593750
1155,-5.53,2021-12-17 16:12:12.609375
1156,-4.44,2021-12-17 16:12:12.625000
1157,-3.32,2021-12-17 16:12:12.640625
1158,-2.16,2021-12-17 16:12:12.656250
1159,-0.91,2021-12-17 16:12:12.671875
1160,0.4,2021-12-17 16:12:12.687500
1161,1.8,2021-12-17 16:12:12.703125
1162,3.2,2021-12-17 16:12:12.718750
1163,4.5,2021-12-17 16:12:12.734375
1164,5.58,2021-12-17 16:12:12.750000
1165,6.34,2021-12-17 16:12:12.765625
1166,6.78,2021-12-17 16:12:12.781250
1167,6.94,2021-12-17 16:12:12.796875
1168,6.93,2021-12-17 16:12:12.812500
1169,6.84,2021-12-17 16:12:12.828125
1170,6.74,2021-12-17 16:12:12.843750
1171,6.61,2021-12-17 16:12:12.859375
1172,6.41,2021-12-17 16:12:12.875000
1173,6.09,2021-12-17 16:12:12.890625
1174,5.59,2021-12-17 16:12:12.906250
1175,4.96,2021-12-17 16:12:12.921875
1176,4.24,2021-12-17 16:12:12.937500
1177,3.5,2021-12-17 16:12:12.953125
1178,2.78,2021-12-17 16:12:12.968750
1179,2.13,2021-12-17 16:12:12.984375
1180,1.57,2021-12-17 16:12:13.000000
1181,1.09,2021-12-17 16:12:13.015625
1182,0.69,2021-12-17 16:12:13.031250
1183,0.35,2021-12-17 16:12:13.046875
1184,0.02,2021-12-17 16:12:13.062500
1185,-0.37,2021-12-17 16:12:13.078125
1186,-0.87,2021-12-17 16:12:13.093750
1187,-1.51,2021-12-17 16:12:13.109375
1188,-2.28,2021-12-17 16:12:13.125000
1189,-3.1,2021-12-17 16:12:13.140625
1190,-3.92,2021-12-17 16:12:13.156250
1191,-4.7,2021-12-17 16:12:13.171875
1192,-5.47,2021-12-17 16:12:13.187500
1193,-6.29,2021-12-17 16:12:13.203125
1194,-7.23,2021-12-17 16:12:13.218750
1195,-8.3,2021-12-17 16:12:13.234375
1196,-9.49,2021-12-17 16:12:13.250000
1197,-10.76,2021-12-17 16:12:13.265625
1198,-12.01,2021-12-17 16:12:13.281250
1199,-13.17,2021-12-17 16:12:13.296875
1200,-14.11,2021-12-17 16:12:13.312500
1201,-14.72,2021-12-17 16:12:13.328125
1202,-14.91,2021-12-17 16:12:13.343750
1203,-14.64,2021-12-17 16:12:13.359375
1204,-13.89,2021-12-17 16:12:13.375000
1205,-12.72,2021-12-17 16:12:13.390625
1206,-11.21,2021-12-17 16:12:13.406250
1207,-9.45,2021-12-17 16:12:13.421875
1208,-7.52,2021-12-17 16:12:13.437500
1209,-5.48,2021-12-17 16:12:13.453125
1210,-3.43,2021-12-17 16:12:13.468750
1211,-1.41,2021-12-17 16:12:13.484375
1212,0.54,2021-12-17 16:12:13.500000
1213,2.38,2021-12-17 16:12:13.515625
1214,4.03,2021-12-17 16:12:13.531250
1215,5.42,2021-12-17 16:12:13.546875
1216,6.43,2021-12-17 16:12:13.562500
1217,7.0,2021-12-17 16:12:13.578125
1218,7.07,2021-12-17 16:12:13.593750
1219,6.67,2021-12-17 16:12:13.609375
1220,5.92,2021-12-17 16:12:13.625000
1221,4.96,2021-12-17 16:12:13.640625
1222,3.95,2021-12-17 16:12:13.656250
1223,3.06,2021-12-17 16:12:13.671875
1224,2.4,2021-12-17 16:12:13.687500
1225,2.01,2021-12-17 16:12:13.703125
1226,1.87,2021-12-17 16:12:13.718750
1227,1.88,2021-12-17 16:12:13.734375
1228,1.92,2021-12-17 16:12:13.750000
1229,1.84,2021-12-17 16:12:13.765625
1230,1.57,2021-12-17 16:12:13.781250
1231,1.12,2021-12-17 16:12:13.796875
1232,0.57,2021-12-17 16:12:13.812500
1233,0.01,2021-12-17 16:12:13.828125
1234,-0.53,2021-12-17 16:12:13.843750
1235,-1.07,2021-12-17 16:12:13.859375
1236,-1.69,2021-12-17 16:12:13.875000
1237,-2.42,2021-12-17 16:12:13.890625
1238,-3.21,2021-12-17 16:12:13.906250
1239,-3.95,2021-12-17 16:12:13.921875
1240,-4.53,2021-12-17 16:12:13.937500
1241,-4.88,2021-12-17 16:12:13.953125
1242,-5.07,2021-12-17 16:12:13.968750
1243,-5.19,2021-12-17 16:12:13.984375
1244,-5.38,2021-12-17 16:12:14.000000
1245,-5.74,2021-12-17 16:12:14.015625
1246,-6.27,2021-12-17 16:12:14.031250
1247,-6.93,2021-12-17 16:12:14.046875
1248,-7.63,2021-12-17 16:12:14.062500
1249,-8.3,2021-12-17 16:12:14.078125
1250,-8.84,2021-12-17 16:12:14.093750
1251,-9.13,2021-12-17 16:12:14.109375
1252,-9.07,2021-12-17 16:12:14.125000
1253,-8.58,2021-12-17 16:12:14.140625
1254,-7.69,2021-12-17 16:12:14.156250
1255,-6.46,2021-12-17 16:12:14.171875
1256,-5.04,2021-12-17 16:12:14.187500
1257,-3.55,2021-12-17 16:12:14.203125
1258,-2.09,2021-12-17 16:12:14.218750
1259,-0.74,2021-12-17 16:12:14.234375
1260,0.47,2021-12-17 16:12:14.250000
1261,1.56,2021-12-17 16:12:14.265625
1262,2.55,2021-12-17 16:12:14.281250
1263,3.51,2021-12-17 16:12:14.296875
1264,4.53,2021-12-17 16:12:14.312500
1265,5.62,2021-12-17 16:12:14.328125
1266,6.77,2021-12-17 16:12:14.343750
1267,7.89,2021-12-17 16:12:14.359375
1268,8.82,2021-12-17 16:12:14.375000
1269,9.44,2021-12-17 16:12:14.390625
1270,9.73,2021-12-17 16:12:14.406250
1271,9.72,2021-12-17 16:12:14.421875
1272,9.61,2021-12-17 16:12:14.437500
1273,9.57,2021-12-17 16:12:14.453125
1274,9.76,2021-12-17 16:12:14.468750
1275,10.21,2021-12-17 16:12:14.484375
1276,10.79,2021-12-17 16:12:14.500000
1277,11.28,2021-12-17 16:12:14.515625
1278,11.43,2021-12-17 16:12:14.531250
1279,11.08,2021-12-17 16:12:14.546875
1280,10.23,2021-12-17 16:12:14.562500
1281,9.08,2021-12-17 16:12:14.578125
1282,7.88,2021-12-17 16:12:14.593750
1283,6.88,2021-12-17 16:12:14.609375
1284,6.18,2021-12-17 16:12:14.625000
1285,5.69,2021-12-17 16:12:14.640625
1286,5.21,2021-12-17 16:12:14.656250
1287,4.56,2021-12-17 16:12:14.671875
1288,3.62,2021-12-17 16:12:14.687500
1289,2.45,2021-12-17 16:12:14.703125
1290,1.19,2021-12-17 16:12:14.718750
1291,-0.01,2021-12-17 16:12:14.734375
1292,-1.02,2021-12-17 16:12:14.750000
1293,-1.84,2021-12-17 16:12:14.765625
1294,-2.49,2021-12-17 16:12:14.781250
1295,-3.01,2021-12-17 16:12:14.796875
1296,-3.46,2021-12-17 16:12:14.812500
1297,-3.88,2021-12-17 16:12:14.828125
1298,-4.36,2021-12-17 16:12:14.843750
1299,-4.99,2021-12-17 16:12:14.859375
1300,-5.89,2021-12-17 16:12:14.875000
1301,-7.1,2021-12-17 16:12:14.890625
1302,-8.55,2021-12-17 16:12:14.906250
1303,-10.01,2021-12-17 16:12:14.921875
1304,-11.23,2021-12-17 16:12:14.937500
1305,-11.95,2021-12-17 16:12:14.953125
1306,-12.05,2021-12-17 16:12:14.968750
1307,-11.54,2021-12-17 16:12:14.984375
1308,-10.5,2021-12-17 16:12:15.000000
1309,-9.04,2021-12-17 16:12:15.015625
1310,-7.27,2021-12-17 16:12:15.031250
1311,-5.28,2021-12-17 16:12:15.046875
1312,-3.18,2021-12-17 16:12:15.062500
1313,-1.07,2021-12-17 16:12:15.078125
1314,0.94,2021-12-17 16:12:15.093750
1315,2.78,2021-12-17 16:12:15.109375
1316,4.44,2021-12-17 16:12:15.125000
1317,5.91,2021-12-17 16:12:15.140625
1318,7.18,2021-12-17 16:12:15.156250
1319,8.21,2021-12-17 16:12:15.171875
1320,8.93,2021-12-17 16:12:15.187500
1321,9.33,2021-12-17 16:12:15.203125
1322,9.49,2021-12-17 16:12:15.218750
1323,9.56,2021-12-17 16:12:15.234375
1324,9.66,2021-12-17 16:12:15.250000
1325,9.86,2021-12-17 16:12:15.265625
1326,10.08,2021-12-17 16:12:15.281250
1327,10.24,2021-12-17 16:12:15.296875
1328,10.26,2021-12-17 16:12:15.312500
1329,10.19,2021-12-17 16:12:15.328125
1330,10.19,2021-12-17 16:12:15.343750
1331,10.4,2021-12-17 16:12:15.359375
1332,10.89,2021-12-17 16:12:15.375000
1333,11.52,2021-12-17 16:12:15.390625
1334,12.03,2021-12-17 16:12:15.406250
1335,12.15,2021-12-17 16:12:15.421875
1336,11.68,2021-12-17 16:12:15.437500
1337,10.62,2021-12-17 16:12:15.453125
1338,9.14,2021-12-17 16:12:15.468750
1339,7.44,2021-12-17 16:12:15.484375
1340,5.75,2021-12-17 16:12:15.500000
1341,4.15,2021-12-17 16:12:15.515625
1342,2.66,2021-12-17 16:12:15.531250
1343,1.26,2021-12-17 16:12:15.546875
1344,-0.05,2021-12-17 16:12:15.562500
1345,-1.21,2021-12-17 16:12:15.578125
1346,-2.11,2021-12-17 16:12:15.593750
1347,-2.67,2021-12-17 16:12:15.609375
1348,-2.83,2021-12-17 16:12:15.625000
1349,-2.66,2021-12-17 16:12:15.640625
1350,-2.31,2021-12-17 16:12:15.656250
1351,-1.98,2021-12-17 16:12:15.671875
1352,-1.9,2021-12-17 16:12:15.687500
1353,-2.19,2021-12-17 16:12:15.703125
1354,-2.93,2021-12-17 16:12:15.718750
1355,-4.05,2021-12-17 16:12:15.734375
1356,-5.43,2021-12-17 16:12:15.750000
1357,-6.86,2021-12-17 16:12:15.765625
1358,-8.11,2021-12-17 16:12:15.781250
1359,-9.0,2021-12-17 16:12:15.796875
1360,-9.4,2021-12-17 16:12:15.812500
1361,-9.32,2021-12-17 16:12:15.828125
1362,-8.87,2021-12-17 16:12:15.843750
1363,-8.25,2021-12-17 16:12:15.859375
1364,-7.6,2021-12-17 16:12:15.875000
1365,-7.01,2021-12-17 16:12:15.890625
1366,-6.42,2021-12-17 16:12:15.906250
1367,-5.65,2021-12-17 16:12:15.921875
1368,-4.57,2021-12-17 16:12:15.937500
1369,-3.07,2021-12-17 16:12:15.953125
1370,-1.2,2021-12-17 16:12:15.968750
1371,0.86,2021-12-17 16:12:15.984375
1372,2.91,2021-12-17 16:12:16.000000
1373,4.76,2021-12-17 16:12:16.015625
1374,6.31,2021-12-17 16:12:16.031250
1375,7.54,2021-12-17 16:12:16.046875
1376,8.49,2021-12-17 16:12:16.062500
1377,9.22,2021-12-17 16:12:16.078125
1378,9.78,2021-12-17 16:12:16.093750
1379,10.11,2021-12-17 16:12:16.109375
1380,10.18,2021-12-17 16:12:16.125000
1381,9.92,2021-12-17 16:12:16.140625
1382,9.38,2021-12-17 16:12:16.156250
1383,8.68,2021-12-17 16:12:16.171875
1384,7.96,2021-12-17 16:12:16.187500
1385,7.37,2021-12-17 16:12:16.203125
1386,6.94,2021-12-17 16:12:16.218750
1387,6.62,2021-12-17 16:12:16.234375
1388,6.29,2021-12-17 16:12:16.250000
1389,5.89,2021-12-17 16:12:16.265625
1390,5.46,2021-12-17 16:12:16.281250
1391,5.11,2021-12-17 16:12:16.296875
1392,4.98,2021-12-17 16:12:16.312500
1393,5.14,2021-12-17 16:12:16.328125
1394,5.51,2021-12-17 16:12:16.343750
1395,5.96,2021-12-17 16:12:16.359375
1396,6.31,2021-12-17 16:12:16.375000
1397,6.44,2021-12-17 16:12:16.390625
1398,6.3,2021-12-17 16:12:16.406250
1399,5.95,2021-12-17 16:12:16.421875
1400,5.43,2021-12-17 16:12:16.437500
1401,4.78,2021-12-17 16:12:16.453125
1402,4.02,2021-12-17 16:12:16.468750
1403,3.1,2021-12-17 16:12:16.484375
1404,1.98,2021-12-17 16:12:16.500000
1405,0.7,2021-12-17 16:12:16.515625
1406,-0.7,2021-12-17 16:12:16.531250
1407,-2.1,2021-12-17 16:12:16.546875
1408,-3.43,2021-12-17 16:12:16.562500
1409,-4.64,2021-12-17 16:12:16.578125
1410,-5.76,2021-12-17 16:12:16.593750
1411,-6.83,2021-12-17 16:12:16.609375
1412,-7.91,2021-12-17 16:12:16.625000
1413,-8.97,2021-12-17 16:12:16.640625
1414,-9.91,2021-12-17 16:12:16.656250
1415,-10.56,2021-12-17 16:12:16.671875
1416,-10.78,2021-12-17 16:12:16.687500
1417,-10.54,2021-12-17 16:12:16.703125
1418,-9.88,2021-12-17 16:12:16.718750
1419,-8.95,2021-12-17 16:12:16.734375
1420,-7.93,2021-12-17 16:12:16.750000
1421,-6.95,2021-12-17 16:12:16.765625
1422,-6.07,2021-12-17 16:12:16.781250
1423,-5.3,2021-12-17 16:12:16.796875
1424,-4.56,2021-12-17 16:12:16.812500
1425,-3.78,2021-12-17 16:12:16.828125
1426,-2.9,2021-12-17 16:12:16.843750
1427,-1.89,2021-12-17 16:12:16.859375
1428,-0.74,2021-12-17 16:12:16.875000
1429,0.58,2021-12-17 16:12:16.890625
1430,2.13,2021-12-17 16:12:16.906250
1431,3.93,2021-12-17 16:12:16.921875
1432,5.96,2021-12-17 16:12:16.937500
1433,8.1,2021-12-17 16:12:16.953125
1434,10.13,2021-12-17 16:12:16.968750
1435,11.77,2021-12-17 16:12:16.984375
1436,12.73,2021-12-17 16:12:17.000000
1437,12.82,2021-12-17 16:12:17.015625
1438,11.95,2021-12-17 16:12:17.031250
1439,10.19,2021-12-17 16:12:17.046875
1440,7.72,2021-12-17 16:12:17.062500
1441,4.76,2021-12-17 16:12:17.078125
1442,1.63,2021-12-17 16:12:17.093750
1443,-1.42,2021-12-17 16:12:17.109375
1444,-4.24,2021-12-17 16:12:17.125000
1445,-6.82,2021-12-17 16:12:17.140625
1446,-9.09,2021-12-17 16:12:17.156250
1447,-10.97,2021-12-17 16:12:17.171875
1448,-12.16,2021-12-17 16:12:17.187500
1449,-12.33,2021-12-17 16:12:17.203125
1450,-11.29,2021-12-17 16:12:17.218750
1451,-8.85,2021-12-17 16:12:17.234375
1452,-5.08,2021-12-17 16:12:17.250000
1453,-0.34,2021-12-17 16:12:17.265625
1454,4.9,2021-12-17 16:12:17.281250
1455,10.29,2021-12-17 16:12:17.296875
1456,15.51,2021-12-17 16:12:17.312500
1457,20.62,2021-12-17 16:12:17.328125
1458,25.68,2021-12-17 16:12:17.343750
1459,30.49,2021-12-17 16:12:17.359375
1460,35.01,2021-12-17 16:12:17.375000
1461,39.21,2021-12-17 16:12:17.390625
1462,42.9,2021-12-17 16:12:17.406250
1463,45.87,2021-12-17 16:12:17.421875
1464,48.09,2021-12-17 16:12:17.437500
1465,49.31,2021-12-17 16:12:17.453125
1466,49.73,2021-12-17 16:12:17.468750
1467,49.5,2021-12-17 16:12:17.484375
1468,48.59,2021-12-17 16:12:17.500000
1469,47.4,2021-12-17 16:12:17.515625
1470,46.46,2021-12-17 16:12:17.531250
1471,46.04,2021-12-17 16:12:17.546875
1472,46.14,2021-12-17 16:12:17.562500
1473,46.65,2021-12-17 16:12:17.578125
1474,47.11,2021-12-17 16:12:17.593750
1475,47.81,2021-12-17 16:12:17.609375
1476,49.39,2021-12-17 16:12:17.625000
1477,48.95,2021-12-17 16:12:17.640625
1478,45.04,2021-12-17 16:12:17.656250
1479,38.12,2021-12-17 16:12:17.671875
1480,30.21,2021-12-17 16:12:17.687500
1481,23.57,2021-12-17 16:12:17.703125
1482,22.27,2021-12-17 16:12:17.718750
1483,25.41,2021-12-17 16:12:17.734375
1484,31.27,2021-12-17 16:12:17.750000
1485,38.53,2021-12-17 16:12:17.765625
1486,46.55,2021-12-17 16:12:17.781250
1487,54.1,2021-12-17 16:12:17.796875
1488,61.17,2021-12-17 16:12:17.812500
1489,67.87,2021-12-17 16:12:17.828125
1490,74.0,2021-12-17 16:12:17.843750
1491,79.0,2021-12-17 16:12:17.859375
1492,81.71,2021-12-17 16:12:17.875000
1493,81.55,2021-12-17 16:12:17.890625
1494,78.29,2021-12-17 16:12:17.906250
1495,71.87,2021-12-17 16:12:17.921875
1496,62.69,2021-12-17 16:12:17.937500
1497,51.11,2021-12-17 16:12:17.953125
1498,36.93,2021-12-17 16:12:17.968750
1499,19.55,2021-12-17 16:12:17.984375
1500,-1.51,2021-12-17 16:12:18.000000
1501,-26.28,2021-12-17 16:12:18.015625
1502,-53.52,2021-12-17 16:12:18.031250
1503,-81.25,2021-12-17 16:12:18.046875
1504,-107.62,2021-12-17 16:12:18.062500
1505,-131.14,2021-12-17 16:12:18.078125
1506,-151.11,2021-12-17 16:12:18.093750
1507,-167.68,2021-12-17 16:12:18.109375
1508,-181.31,2021-12-17 16:12:18.125000
1509,-192.14,2021-12-17 16:12:18.140625
1510,-199.76,2021-12-17 16:12:18.156250
1511,-202.92,2021-12-17 16:12:18.171875
1512,-200.21,2021-12-17 16:12:18.187500
1513,-190.87,2021-12-17 16:12:18.203125
1514,-175.12,2021-12-17 16:12:18.218750
1515,-154.35,2021-12-17 16:12:18.234375
1516,-130.92,2021-12-17 16:12:18.250000
1517,-107.48,2021-12-17 16:12:18.265625
1518,-86.14,2021-12-17 16:12:18.281250
1519,-67.89,2021-12-17 16:12:18.296875
1520,-52.39,2021-12-17 16:12:18.312500
1521,-38.41,2021-12-17 16:12:18.328125
1522,-24.71,2021-12-17 16:12:18.343750
1523,-10.61,2021-12-17 16:12:18.359375
1524,3.8,2021-12-17 16:12:18.375000
1525,17.76,2021-12-17 16:12:18.390625
1526,30.48,2021-12-17 16:12:18.406250
1527,41.64,2021-12-17 16:12:18.421875
1528,51.58,2021-12-17 16:12:18.437500
1529,61.13,2021-12-17 16:12:18.453125
1530,71.07,2021-12-17 16:12:18.468750
1531,81.61,2021-12-17 16:12:18.484375
1532,92.24,2021-12-17 16:12:18.500000
1533,101.87,2021-12-17 16:12:18.515625
1534,109.3,2021-12-17 16:12:18.531250
1535,113.56,2021-12-17 16:12:18.546875
1536,114.26,2021-12-17 16:12:18.562500
1537,111.54,2021-12-17 16:12:18.578125
1538,105.81,2021-12-17 16:12:18.593750
1539,97.48,2021-12-17 16:12:18.609375
1540,86.79,2021-12-17 16:12:18.625000
1541,73.87,2021-12-17 16:12:18.640625
1542,58.95,2021-12-17 16:12:18.656250
1543,42.52,2021-12-17 16:12:18.671875
1544,25.41,2021-12-17 16:12:18.687500
1545,8.64,2021-12-17 16:12:18.703125
1546,-6.79,2021-12-17 16:12:18.718750
1547,-20.13,2021-12-17 16:12:18.734375
1548,-30.94,2021-12-17 16:12:18.750000
1549,-39.0,2021-12-17 16:12:18.765625
1550,-44.22,2021-12-17 16:12:18.781250
1551,-46.58,2021-12-17 16:12:18.796875
1552,-46.09,2021-12-17 16:12:18.812500
1553,-42.93,2021-12-17 16:12:18.828125
1554,-37.5,2021-12-17 16:12:18.843750
1555,-30.4,2021-12-17 16:12:18.859375
1556,-22.46,2021-12-17 16:12:18.875000
1557,-14.56,2021-12-17 16:12:18.890625
1558,-7.46,2021-12-17 16:12:18.906250
1559,-1.77,2021-12-17 16:12:18.921875
1560,2.17,2021-12-17 16:12:18.937500
1561,4.31,2021-12-17 16:12:18.953125
1562,4.82,2021-12-17 16:12:18.968750
1563,4.07,2021-12-17 16:12:18.984375
1564,2.55,2021-12-17 16:12:19.000000
1565,0.78,2021-12-17 16:12:19.015625
1566,-0.8,2021-12-17 16:12:19.031250
1567,-1.87,2021-12-17 16:12:19.046875
1568,-2.31,2021-12-17 16:12:19.062500
1569,-2.15,2021-12-17 16:12:19.078125
1570,-1.45,2021-12-17 16:12:19.093750
1571,-0.32,2021-12-17 16:12:19.109375
1572,1.15,2021-12-17 16:12:19.125000
1573,2.92,2021-12-17 16:12:19.140625
1574,4.87,2021-12-17 16:12:19.156250
1575,6.88,2021-12-17 16:12:19.171875
1576,8.8,2021-12-17 16:12:19.187500
1577,10.48,2021-12-17 16:12:19.203125
1578,11.83,2021-12-17 16:12:19.218750
1579,12.79,2021-12-17 16:12:19.234375
1580,13.28,2021-12-17 16:12:19.250000
1581,13.19,2021-12-17 16:12:19.265625
1582,12.37,2021-12-17 16:12:19.281250
1583,10.69,2021-12-17 16:12:19.296875
1584,8.15,2021-12-17 16:12:19.312500
1585,4.94,2021-12-17 16:12:19.328125
1586,1.37,2021-12-17 16:12:19.343750
1587,-2.3,2021-12-17 16:12:19.359375
1588,-5.91,2021-12-17 16:12:19.375000
1589,-9.56,2021-12-17 16:12:19.390625
1590,-13.51,2021-12-17 16:12:19.406250
1591,-18.08,2021-12-17 16:12:19.421875
1592,-23.43,2021-12-17 16:12:19.437500
1593,-29.57,2021-12-17 16:12:19.453125
1594,-36.29,2021-12-17 16:12:19.468750
1595,-43.33,2021-12-17 16:12:19.484375
1596,-50.44,2021-12-17 16:12:19.500000
1597,-57.44,2021-12-17 16:12:19.515625
1598,-64.06,2021-12-17 16:12:19.531250
1599,-69.89,2021-12-17 16:12:19.546875
1600,-74.31,2021-12-17 16:12:19.562500
1601,-76.68,2021-12-17 16:12:19.578125
1602,-76.62,2021-12-17 16:12:19.593750
1603,-74.23,2021-12-17 16:12:19.609375
1604,-70.14,2021-12-17 16:12:19.625000
1605,-65.27,2021-12-17 16:12:19.640625
1606,-60.38,2021-12-17 16:12:19.656250
1607,-55.85,2021-12-17 16:12:19.671875
1608,-51.55,2021-12-17 16:12:19.687500
1609,-46.98,2021-12-17 16:12:19.703125
1610,-41.61,2021-12-17 16:12:19.718750
1611,-35.05,2021-12-17 16:12:19.734375
1612,-27.16,2021-12-17 16:12:19.750000
1613,-18.0,2021-12-17 16:12:19.765625
1614,-7.82,2021-12-17 16:12:19.781250
1615,2.97,2021-12-17 16:12:19.796875
1616,13.69,2021-12-17 16:12:19.812500
1617,23.49,2021-12-17 16:12:19.828125
1618,31.53,2021-12-17 16:12:19.843750
1619,37.26,2021-12-17 16:12:19.859375
1620,40.65,2021-12-17 16:12:19.875000
1621,42.15,2021-12-17 16:12:19.890625
1622,42.4,2021-12-17 16:12:19.906250
1623,41.9,2021-12-17 16:12:19.921875
1624,40.72,2021-12-17 16:12:19.937500
1625,38.59,2021-12-17 16:12:19.953125
1626,35.17,2021-12-17 16:12:19.968750
1627,30.44,2021-12-17 16:12:19.984375
1628,24.91,2021-12-17 16:12:20.000000
1629,19.64,2021-12-17 16:12:20.015625
1630,15.87,2021-12-17 16:12:20.031250
1631,14.57,2021-12-17 16:12:20.046875
1632,16.1,2021-12-17 16:12:20.062500
1633,20.18,2021-12-17 16:12:20.078125
1634,25.97,2021-12-17 16:12:20.093750
1635,32.5,2021-12-17 16:12:20.109375
1636,38.86,2021-12-17 16:12:20.125000
1637,44.47,2021-12-17 16:12:20.140625
1638,48.98,2021-12-17 16:12:20.156250
1639,52.26,2021-12-17 16:12:20.171875
1640,54.27,2021-12-17 16:12:20.187500
1641,55.08,2021-12-17 16:12:20.203125
1642,54.96,2021-12-17 16:12:20.218750
1643,54.34,2021-12-17 16:12:20.234375
1644,53.7,2021-12-17 16:12:20.250000
1645,53.37,2021-12-17 16:12:20.265625
1646,53.25,2021-12-17 16:12:20.281250
1647,52.82,2021-12-17 16:12:20.296875
1648,51.33,2021-12-17 16:12:20.312500
1649,48.21,2021-12-17 16:12:20.328125
1650,43.39,2021-12-17 16:12:20.343750
1651,37.36,2021-12-17 16:12:20.359375
1652,30.88,2021-12-17 16:12:20.375000
1653,24.56,2021-12-17 16:12:20.390625
1654,18.57,2021-12-17 16:12:20.406250
1655,12.67,2021-12-17 16:12:20.421875
1656,6.55,2021-12-17 16:12:20.437500
1657,0.21,2021-12-17 16:12:20.453125
1658,-5.85,2021-12-17 16:12:20.468750
1659,-10.82,2021-12-17 16:12:20.484375
1660,-14.1,2021-12-17 16:12:20.500000
1661,-15.62,2021-12-17 16:12:20.515625
1662,-15.95,2021-12-17 16:12:20.531250
1663,-16.02,2021-12-17 16:12:20.546875
1664,-16.59,2021-12-17 16:12:20.562500
1665,-17.92,2021-12-17 16:12:20.578125
1666,-19.71,2021-12-17 16:12:20.593750
1667,-21.4,2021-12-17 16:12:20.609375
1668,-22.6,2021-12-17 16:12:20.625000
1669,-23.27,2021-12-17 16:12:20.640625
1670,-23.67,2021-12-17 16:12:20.656250
1671,-24.11,2021-12-17 16:12:20.671875
1672,-24.7,2021-12-17 16:12:20.687500
1673,-25.25,2021-12-17 16:12:20.703125
1674,-25.43,2021-12-17 16:12:20.718750
1675,-24.98,2021-12-17 16:12:20.734375
1676,-23.85,2021-12-17 16:12:20.750000
1677,-22.19,2021-12-17 16:12:20.765625
1678,-20.23,2021-12-17 16:12:20.781250
1679,-18.09,2021-12-17 16:12:20.796875
1680,-15.75,2021-12-17 16:12:20.812500
1681,-13.17,2021-12-17 16:12:20.828125
1682,-10.37,2021-12-17 16:12:20.843750
1683,-7.57,2021-12-17 16:12:20.859375
1684,-5.1,2021-12-17 16:12:20.875000
1685,-3.3,2021-12-17 16:12:20.890625
1686,-2.36,2021-12-17 16:12:20.906250
1687,-2.33,2021-12-17 16:12:20.921875
1688,-3.15,2021-12-17 16:12:20.937500
1689,-4.74,2021-12-17 16:12:20.953125
1690,-7.14,2021-12-17 16:12:20.968750
1691,-10.38,2021-12-17 16:12:20.984375
1692,-14.33,2021-12-17 16:12:21.000000
1693,-18.57,2021-12-17 16:12:21.015625
1694,-22.36,2021-12-17 16:12:21.031250
1695,-24.9,2021-12-17 16:12:21.046875
1696,-25.58,2021-12-17 16:12:21.062500
1697,-24.35,2021-12-17 16:12:21.078125
1698,-21.79,2021-12-17 16:12:21.093750
1699,-18.8,2021-12-17 16:12:21.109375
1700,-16.3,2021-12-17 16:12:21.125000
1701,-14.77,2021-12-17 16:12:21.140625
1702,-14.18,2021-12-17 16:12:21.156250
1703,-14.15,2021-12-17 16:12:21.171875
1704,-14.16,2021-12-17 16:12:21.187500
1705,-13.86,2021-12-17 16:12:21.203125
1706,-13.16,2021-12-17 16:12:21.218750
1707,-12.14,2021-12-17 16:12:21.234375
1708,-10.97,2021-12-17 16:12:21.250000
1709,-9.86,2021-12-17 16:12:21.265625
1710,-8.98,2021-12-17 16:12:21.281250
1711,-8.44,2021-12-17 16:12:21.296875
1712,-8.2,2021-12-17 16:12:21.312500
1713,-8.08,2021-12-17 16:12:21.328125
1714,-7.85,2021-12-17 16:12:21.343750
1715,-7.4,2021-12-17 16:12:21.359375
1716,-6.94,2021-12-17 16:12:21.375000
1717,-6.98,2021-12-17 16:12:21.390625
1718,-8.16,2021-12-17 16:12:21.406250
1719,-10.94,2021-12-17 16:12:21.421875
1720,-15.38,2021-12-17 16:12:21.437500
1721,-21.08,2021-12-17 16:12:21.453125
1722,-27.35,2021-12-17 16:12:21.468750
1723,-33.38,2021-12-17 16:12:21.484375
1724,-38.41,2021-12-17 16:12:21.500000
1725,-41.71,2021-12-17 16:12:21.515625
1726,-42.55,2021-12-17 16:12:21.531250
1727,-40.26,2021-12-17 16:12:21.546875
1728,-34.34,2021-12-17 16:12:21.562500
1729,-24.72,2021-12-17 16:12:21.578125
1730,-11.98,2021-12-17 16:12:21.593750
1731,2.65,2021-12-17 16:12:21.609375
1732,17.35,2021-12-17 16:12:21.625000
1733,30.12,2021-12-17 16:12:21.640625
1734,39.2,2021-12-17 16:12:21.656250
1735,43.63,2021-12-17 16:12:21.671875
1736,43.46,2021-12-17 16:12:21.687500
1737,39.79,2021-12-17 16:12:21.703125
1738,34.21,2021-12-17 16:12:21.718750
1739,28.18,2021-12-17 16:12:21.734375
1740,22.49,2021-12-17 16:12:21.750000
1741,17.07,2021-12-17 16:12:21.765625
1742,11.4,2021-12-17 16:12:21.781250
1743,5.04,2021-12-17 16:12:21.796875
1744,-1.91,2021-12-17 16:12:21.812500
1745,-8.75,2021-12-17 16:12:21.828125
1746,-14.48,2021-12-17 16:12:21.843750
1747,-18.3,2021-12-17 16:12:21.859375
1748,-19.85,2021-12-17 16:12:21.875000
1749,-19.25,2021-12-17 16:12:21.890625
1750,-16.82,2021-12-17 16:12:21.906250
1751,-12.85,2021-12-17 16:12:21.921875
1752,-7.58,2021-12-17 16:12:21.937500
1753,-1.35,2021-12-17 16:12:21.953125
1754,5.24,2021-12-17 16:12:21.968750
1755,11.3,2021-12-17 16:12:21.984375
1756,15.97,2021-12-17 16:12:22.000000
1757,18.7,2021-12-17 16:12:22.015625
1758,19.59,2021-12-17 16:12:22.031250
1759,19.38,2021-12-17 16:12:22.046875
1760,19.2,2021-12-17 16:12:22.062500
1761,20.28,2021-12-17 16:12:22.078125
1762,23.44,2021-12-17 16:12:22.093750
1763,29.01,2021-12-17 16:12:22.109375
1764,36.63,2021-12-17 16:12:22.125000
1765,45.49,2021-12-17 16:12:22.140625
1766,54.5,2021-12-17 16:12:22.156250
1767,62.47,2021-12-17 16:12:22.171875
1768,68.38,2021-12-17 16:12:22.187500
1769,71.57,2021-12-17 16:12:22.203125
1770,71.8,2021-12-17 16:12:22.218750
1771,69.27,2021-12-17 16:12:22.234375
1772,64.51,2021-12-17 16:12:22.250000
1773,58.15,2021-12-17 16:12:22.265625
1774,50.82,2021-12-17 16:12:22.281250
1775,43.04,2021-12-17 16:12:22.296875
1776,35.18,2021-12-17 16:12:22.312500
1777,27.56,2021-12-17 16:12:22.328125
1778,20.41,2021-12-17 16:12:22.343750
1779,14.01,2021-12-17 16:12:22.359375
1780,8.56,2021-12-17 16:12:22.375000
1781,4.24,2021-12-17 16:12:22.390625
1782,1.09,2021-12-17 16:12:22.406250
1783,-0.96,2021-12-17 16:12:22.421875
1784,-2.05,2021-12-17 16:12:22.437500
1785,-2.39,2021-12-17 16:12:22.453125
1786,-2.09,2021-12-17 16:12:22.468750
1787,-1.23,2021-12-17 16:12:22.484375
1788,0.23,2021-12-17 16:12:22.500000
1789,2.29,2021-12-17 16:12:22.515625
1790,4.92,2021-12-17 16:12:22.531250
1791,7.93,2021-12-17 16:12:22.546875
1792,11.1,2021-12-17 16:12:22.562500
1793,14.17,2021-12-17 16:12:22.578125
1794,16.9,2021-12-17 16:12:22.593750
1795,19.05,2021-12-17 16:12:22.609375
1796,20.28,2021-12-17 16:12:22.625000
1797,20.2,2021-12-17 16:12:22.640625
1798,18.47,2021-12-17 16:12:22.656250
1799,14.98,2021-12-17 16:12:22.671875
1800,9.93,2021-12-17 16:12:22.687500
1801,3.86,2021-12-17 16:12:22.703125
1802,-2.49,2021-12-17 16:12:22.718750
1803,-8.45,2021-12-17 16:12:22.734375
1804,-13.56,2021-12-17 16:12:22.750000
1805,-17.62,2021-12-17 16:12:22.765625
1806,-20.6,2021-12-17 16:12:22.781250
1807,-22.57,2021-12-17 16:12:22.796875
1808,-23.56,2021-12-17 16:12:22.812500
1809,-23.61,2021-12-17 16:12:22.828125
1810,-22.81,2021-12-17 16:12:22.843750
1811,-21.33,2021-12-17 16:12:22.859375
1812,-19.42,2021-12-17 16:12:22.875000
1813,-17.36,2021-12-17 16:12:22.890625
1814,-15.41,2021-12-17 16:12:22.906250
1815,-13.75,2021-12-17 16:12:22.921875
1816,-12.48,2021-12-17 16:12:22.937500
1817,-11.59,2021-12-17 16:12:22.953125
1818,-11.04,2021-12-17 16:12:22.968750
1819,-10.73,2021-12-17 16:12:22.984375
1820,-10.59,2021-12-17 16:12:23.000000
1821,-10.57,2021-12-17 16:12:23.015625
1822,-10.63,2021-12-17 16:12:23.031250
1823,-10.8,2021-12-17 16:12:23.046875
1824,-11.06,2021-12-17 16:12:23.062500
1825,-11.42,2021-12-17 16:12:23.078125
1826,-11.8,2021-12-17 16:12:23.093750
1827,-12.1,2021-12-17 16:12:23.109375
1828,-12.19,2021-12-17 16:12:23.125000
1829,-11.93,2021-12-17 16:12:23.140625
1830,-11.27,2021-12-17 16:12:23.156250
1831,-10.19,2021-12-17 16:12:23.171875
1832,-8.83,2021-12-17 16:12:23.187500
1833,-7.44,2021-12-17 16:12:23.203125
1834,-6.4,2021-12-17 16:12:23.218750
1835,-6.05,2021-12-17 16:12:23.234375
1836,-6.68,2021-12-17 16:12:23.250000
1837,-8.35,2021-12-17 16:12:23.265625
1838,-10.92,2021-12-17 16:12:23.281250
1839,-14.09,2021-12-17 16:12:23.296875
1840,-17.47,2021-12-17 16:12:23.312500
1841,-20.72,2021-12-17 16:12:23.328125
1842,-23.62,2021-12-17 16:12:23.343750
1843,-26.13,2021-12-17 16:12:23.359375
1844,-28.27,2021-12-17 16:12:23.375000
1845,-30.07,2021-12-17 16:12:23.390625
1846,-31.47,2021-12-17 16:12:23.406250
1847,-32.39,2021-12-17 16:12:23.421875
1848,-32.75,2021-12-17 16:12:23.437500
1849,-32.54,2021-12-17 16:12:23.453125
1850,-31.83,2021-12-17 16:12:23.468750
1851,-30.75,2021-12-17 16:12:23.484375
1852,-29.35,2021-12-17 16:12:23.500000
1853,-27.6,2021-12-17 16:12:23.515625
1854,-25.4,2021-12-17 16:12:23.531250
1855,-22.65,2021-12-17 16:12:23.546875
1856,-19.43,2021-12-17 16:12:23.562500
1857,-15.96,2021-12-17 16:12:23.578125
1858,-12.61,2021-12-17 16:12:23.593750
1859,-9.7,2021-12-17 16:12:23.609375
1860,-7.41,2021-12-17 16:12:23.625000
1861,-5.7,2021-12-17 16:12:23.640625
1862,-4.28,2021-12-17 16:12:23.656250
1863,-2.82,2021-12-17 16:12:23.671875
1864,-1.06,2021-12-17 16:12:23.687500
1865,1.06,2021-12-17 16:12:23.703125
1866,3.4,2021-12-17 16:12:23.718750
1867,5.69,2021-12-17 16:12:23.734375
1868,7.68,2021-12-17 16:12:23.750000
1869,9.24,2021-12-17 16:12:23.765625
1870,10.39,2021-12-17 16:12:23.781250
1871,11.19,2021-12-17 16:12:23.796875
1872,11.71,2021-12-17 16:12:23.812500
1873,11.89,2021-12-17 16:12:23.828125
1874,11.61,2021-12-17 16:12:23.843750
1875,10.75,2021-12-17 16:12:23.859375
1876,9.29,2021-12-17 16:12:23.875000
1877,7.4,2021-12-17 16:12:23.890625
1878,5.33,2021-12-17 16:12:23.906250
1879,3.32,2021-12-17 16:12:23.921875
1880,1.53,2021-12-17 16:12:23.937500
1881,-0.03,2021-12-17 16:12:23.953125
1882,-1.42,2021-12-17 16:12:23.968750
1883,-2.68,2021-12-17 16:12:23.984375
1884,-3.84,2021-12-17 16:12:24.000000
1885,-4.89,2021-12-17 16:12:24.015625
1886,-5.8,2021-12-17 16:12:24.031250
1887,-6.6,2021-12-17 16:12:24.046875
1888,-7.34,2021-12-17 16:12:24.062500
1889,-8.07,2021-12-17 16:12:24.078125
1890,-8.81,2021-12-17 16:12:24.093750
1891,-9.54,2021-12-17 16:12:24.109375
1892,-10.23,2021-12-17 16:12:24.125000
1893,-10.9,2021-12-17 16:12:24.140625
1894,-11.61,2021-12-17 16:12:24.156250
1895,-12.43,2021-12-17 16:12:24.171875
1896,-13.41,2021-12-17 16:12:24.187500
1897,-14.51,2021-12-17 16:12:24.203125
1898,-15.66,2021-12-17 16:12:24.218750
1899,-16.77,2021-12-17 16:12:24.234375
1900,-17.78,2021-12-17 16:12:24.250000
1901,-18.6,2021-12-17 16:12:24.265625
1902,-19.17,2021-12-17 16:12:24.281250
1903,-19.44,2021-12-17 16:12:24.296875
1904,-19.31,2021-12-17 16:12:24.312500
1905,-18.76,2021-12-17 16:12:24.328125
1906,-17.81,2021-12-17 16:12:24.343750
1907,-16.56,2021-12-17 16:12:24.359375
1908,-15.12,2021-12-17 16:12:24.375000
1909,-13.57,2021-12-17 16:12:24.390625
1910,-11.9,2021-12-17 16:12:24.406250
1911,-10.08,2021-12-17 16:12:24.421875
1912,-7.95,2021-12-17 16:12:24.437500
1913,-5.4,2021-12-17 16:12:24.453125
1914,-2.33,2021-12-17 16:12:24.468750
1915,1.29,2021-12-17 16:12:24.484375
1916,5.39,2021-12-17 16:12:24.500000
1917,9.77,2021-12-17 16:12:24.515625
1918,14.06,2021-12-17 16:12:24.531250
1919,17.85,2021-12-17 16:12:24.546875
1920,20.63,2021-12-17 16:12:24.562500
1921,22.01,2021-12-17 16:12:24.578125
1922,21.86,2021-12-17 16:12:24.593750
1923,20.34,2021-12-17 16:12:24.609375
1924,17.97,2021-12-17 16:12:24.625000
1925,15.44,2021-12-17 16:12:24.640625
1926,13.32,2021-12-17 16:12:24.656250
1927,11.89,2021-12-17 16:12:24.671875
1928,11.04,2021-12-17 16:12:24.687500
1929,10.32,2021-12-17 16:12:24.703125
1930,9.23,2021-12-17 16:12:24.718750
1931,7.43,2021-12-17 16:12:24.734375
1932,4.9,2021-12-17 16:12:24.750000
1933,1.92,2021-12-17 16:12:24.765625
1934,-1.08,2021-12-17 16:12:24.781250
1935,-3.77,2021-12-17 16:12:24.796875
1936,-6.0,2021-12-17 16:12:24.812500
1937,-7.82,2021-12-17 16:12:24.828125
1938,-9.34,2021-12-17 16:12:24.843750
1939,-10.64,2021-12-17 16:12:24.859375
1940,-11.72,2021-12-17 16:12:24.875000
1941,-12.53,2021-12-17 16:12:24.890625
1942,-13.03,2021-12-17 16:12:24.906250
1943,-13.19,2021-12-17 16:12:24.921875
1944,-13.12,2021-12-17 16:12:24.937500
1945,-12.91,2021-12-17 16:12:24.953125
1946,-12.69,2021-12-17 16:12:24.968750
1947,-12.59,2021-12-17 16:12:24.984375
1948,-12.71,2021-12-17 16:12:25.000000
1949,-13.08,2021-12-17 16:12:25.015625
1950,-13.72,2021-12-17 16:12:25.031250
1951,-14.62,2021-12-17 16:12:25.046875
1952,-15.68,2021-12-17 16:12:25.062500
1953,-16.8,2021-12-17 16:12:25.078125
1954,-17.86,2021-12-17 16:12:25.093750
1955,-18.68,2021-12-17 16:12:25.109375
1956,-19.09,2021-12-17 16:12:25.125000
1957,-18.93,2021-12-17 16:12:25.140625
1958,-18.15,2021-12-17 16:12:25.156250
1959,-16.82,2021-12-17 16:12:25.171875
1960,-15.16,2021-12-17 16:12:25.187500
1961,-13.35,2021-12-17 16:12:25.203125
1962,-11.52,2021-12-17 16:12:25.218750
1963,-9.55,2021-12-17 16:12:25.234375
1964,-7.19,2021-12-17 16:12:25.250000
1965,-4.16,2021-12-17 16:12:25.265625
1966,-0.32,2021-12-17 16:12:25.281250
1967,4.2,2021-12-17 16:12:25.296875
1968,9.03,2021-12-17 16:12:25.312500
1969,13.77,2021-12-17 16:12:25.328125
1970,18.08,2021-12-17 16:12:25.343750
1971,21.79,2021-12-17 16:12:25.359375
1972,24.94,2021-12-17 16:12:25.375000
1973,27.65,2021-12-17 16:12:25.390625
1974,30.08,2021-12-17 16:12:25.406250
1975,32.33,2021-12-17 16:12:25.421875
1976,34.46,2021-12-17 16:12:25.437500
1977,36.52,2021-12-17 16:12:25.453125
1978,38.55,2021-12-17 16:12:25.468750
1979,40.59,2021-12-17 16:12:25.484375
1980,42.59,2021-12-17 16:12:25.500000
1981,44.43,2021-12-17 16:12:25.515625
1982,45.8,2021-12-17 16:12:25.531250
1983,46.34,2021-12-17 16:12:25.546875
1984,45.66,2021-12-17 16:12:25.562500
1985,43.56,2021-12-17 16:12:25.578125
1986,40.08,2021-12-17 16:12:25.593750
1987,35.52,2021-12-17 16:12:25.609375
1988,30.41,2021-12-17 16:12:25.625000
1989,25.24,2021-12-17 16:12:25.640625
1990,20.38,2021-12-17 16:12:25.656250
1991,16.01,2021-12-17 16:12:25.671875
1992,12.18,2021-12-17 16:12:25.687500
1993,8.82,2021-12-17 16:12:25.703125
1994,5.95,2021-12-17 16:12:25.718750
1995,3.56,2021-12-17 16:12:25.734375
1996,1.68,2021-12-17 16:12:25.750000
1997,0.25,2021-12-17 16:12:25.765625
1998,-0.85,2021-12-17 16:12:25.781250
1999,-1.87,2021-12-17 16:12:25.796875
2000,-3.1,2021-12-17 16:12:25.812500
2001,-4.8,2021-12-17 16:12:25.828125
2002,-7.16,2021-12-17 16:12:25.843750
2003,-10.18,2021-12-17 16:12:25.859375
2004,-13.72,2021-12-17 16:12:25.875000
2005,-17.52,2021-12-17 16:12:25.890625
2006,-21.27,2021-12-17 16:12:25.906250
2007,-24.69,2021-12-17 16:12:25.921875
2008,-27.53,2021-12-17 16:12:25.937500
2009,-29.6,2021-12-17 16:12:25.953125
2010,-30.77,2021-12-17 16:12:25.968750
2011,-31.08,2021-12-17 16:12:25.984375
2012,-30.68,2021-12-17 16:12:26.000000
2013,-29.88,2021-12-17 16:12:26.015625
2014,-28.97,2021-12-17 16:12:26.031250
2015,-28.18,2021-12-17 16:12:26.046875
2016,-27.54,2021-12-17 16:12:26.062500
2017,-26.95,2021-12-17 16:12:26.078125
2018,-26.22,2021-12-17 16:12:26.093750
2019,-25.2,2021-12-17 16:12:26.109375
2020,-23.86,2021-12-17 16:12:26.125000
2021,-22.17,2021-12-17 16:12:26.140625
2022,-20.14,2021-12-17 16:12:26.156250
2023,-17.8,2021-12-17 16:12:26.171875
2024,-15.16,2021-12-17 16:12:26.187500
2025,-12.33,2021-12-17 16:12:26.203125
2026,-9.48,2021-12-17 16:12:26.218750
2027,-6.87,2021-12-17 16:12:26.234375
2028,-4.71,2021-12-17 16:12:26.250000
2029,-3.15,2021-12-17 16:12:26.265625
2030,-2.21,2021-12-17 16:12:26.281250
2031,-1.82,2021-12-17 16:12:26.296875
2032,-1.9,2021-12-17 16:12:26.312500
2033,-2.28,2021-12-17 16:12:26.328125
2034,-2.88,2021-12-17 16:12:26.343750
2035,-3.56,2021-12-17 16:12:26.359375
2036,-4.23,2021-12-17 16:12:26.375000
2037,-4.77,2021-12-17 16:12:26.390625
2038,-5.05,2021-12-17 16:12:26.406250
2039,-5.01,2021-12-17 16:12:26.421875
2040,-4.63,2021-12-17 16:12:26.437500
2041,-4.04,2021-12-17 16:12:26.453125
2042,-3.45,2021-12-17 16:12:26.468750
2043,-3.19,2021-12-17 16:12:26.484375
2044,-3.55,2021-12-17 16:12:26.500000
2045,-4.69,2021-12-17 16:12:26.515625
2046,-6.59,2021-12-17 16:12:26.531250
2047,-9.02,2021-12-17 16:12:26.546875
2048,-11.61,2021-12-17 16:12:26.562500
2049,-13.97,2021-12-17 16:12:26.578125
2050,-15.83,2021-12-17 16:12:26.593750
2051,-17.07,2021-12-17 16:12:26.609375
2052,-17.83,2021-12-17 16:12:26.625000
2053,-18.33,2021-12-17 16:12:26.640625
2054,-18.86,2021-12-17 16:12:26.656250
2055,-19.61,2021-12-17 16:12:26.671875
2056,-20.68,2021-12-17 16:12:26.687500
2057,-22.05,2021-12-17 16:12:26.703125
2058,-23.58,2021-12-17 16:12:26.718750
2059,-25.07,2021-12-17 16:12:26.734375
2060,-26.27,2021-12-17 16:12:26.750000
2061,-26.94,2021-12-17 16:12:26.765625
2062,-26.92,2021-12-17 16:12:26.781250
2063,-26.13,2021-12-17 16:12:26.796875
2064,-24.6,2021-12-17 16:12:26.812500
2065,-22.44,2021-12-17 16:12:26.828125
2066,-19.78,2021-12-17 16:12:26.843750
2067,-16.78,2021-12-17 16:12:26.859375
2068,-13.6,2021-12-17 16:12:26.875000
2069,-10.46,2021-12-17 16:12:26.890625
2070,-7.54,2021-12-17 16:12:26.906250
2071,-4.99,2021-12-17 16:12:26.921875
2072,-2.84,2021-12-17 16:12:26.937500
2073,-1.07,2021-12-17 16:12:26.953125
2074,0.41,2021-12-17 16:12:26.968750
2075,1.65,2021-12-17 16:12:26.984375
2076,2.6,2021-12-17 16:12:27.000000
2077,3.19,2021-12-17 16:12:27.015625
2078,3.34,2021-12-17 16:12:27.031250
2079,3.11,2021-12-17 16:12:27.046875
2080,2.67,2021-12-17 16:12:27.062500
2081,2.26,2021-12-17 16:12:27.078125
2082,2.13,2021-12-17 16:12:27.093750
2083,2.36,2021-12-17 16:12:27.109375
2084,2.95,2021-12-17 16:12:27.125000
2085,3.73,2021-12-17 16:12:27.140625
2086,4.51,2021-12-17 16:12:27.156250
2087,5.13,2021-12-17 16:12:27.171875
2088,5.49,2021-12-17 16:12:27.187500
2089,5.55,2021-12-17 16:12:27.203125
2090,5.32,2021-12-17 16:12:27.218750
2091,4.8,2021-12-17 16:12:27.234375
2092,3.97,2021-12-17 16:12:27.250000
2093,2.87,2021-12-17 16:12:27.265625
2094,1.63,2021-12-17 16:12:27.281250
2095,0.42,2021-12-17 16:12:27.296875
2096,-0.57,2021-12-17 16:12:27.312500
2097,-1.27,2021-12-17 16:12:27.328125
2098,-1.74,2021-12-17 16:12:27.343750
2099,-2.22,2021-12-17 16:12:27.359375
2100,-2.92,2021-12-17 16:12:27.375000
2101,-3.98,2021-12-17 16:12:27.390625
2102,-5.28,2021-12-17 16:12:27.406250
2103,-6.58,2021-12-17 16:12:27.421875
2104,-7.62,2021-12-17 16:12:27.437500
2105,-8.26,2021-12-17 16:12:27.453125
2106,-8.62,2021-12-17 16:12:27.468750
2107,-8.95,2021-12-17 16:12:27.484375
2108,-9.55,2021-12-17 16:12:27.500000
2109,-10.58,2021-12-17 16:12:27.515625
2110,-12.01,2021-12-17 16:12:27.531250
2111,-13.62,2021-12-17 16:12:27.546875
2112,-15.1,2021-12-17 16:12:27.562500
2113,-16.1,2021-12-17 16:12:27.578125
2114,-16.36,2021-12-17 16:12:27.593750
2115,-15.76,2021-12-17 16:12:27.609375
2116,-14.32,2021-12-17 16:12:27.625000
2117,-12.2,2021-12-17 16:12:27.640625
2118,-9.61,2021-12-17 16:12:27.656250
2119,-6.84,2021-12-17 16:12:27.671875
2120,-4.05,2021-12-17 16:12:27.687500
2121,-1.4,2021-12-17 16:12:27.703125
2122,1.1,2021-12-17 16:12:27.718750
2123,3.49,2021-12-17 16:12:27.734375
2124,5.84,2021-12-17 16:12:27.750000
2125,8.15,2021-12-17 16:12:27.765625
2126,10.37,2021-12-17 16:12:27.781250
2127,12.4,2021-12-17 16:12:27.796875
2128,14.11,2021-12-17 16:12:27.812500
2129,15.42,2021-12-17 16:12:27.828125
2130,16.29,2021-12-17 16:12:27.843750
2131,16.74,2021-12-17 16:12:27.859375
2132,16.86,2021-12-17 16:12:27.875000
2133,16.73,2021-12-17 16:12:27.890625
2134,16.46,2021-12-17 16:12:27.906250
2135,16.17,2021-12-17 16:12:27.921875
2136,16.02,2021-12-17 16:12:27.937500
2137,16.15,2021-12-17 16:12:27.953125
2138,16.66,2021-12-17 16:12:27.968750
2139,17.57,2021-12-17 16:12:27.984375
2140,18.76,2021-12-17 16:12:28.000000
2141,20.07,2021-12-17 16:12:28.015625
2142,21.27,2021-12-17 16:12:28.031250
2143,22.19,2021-12-17 16:12:28.046875
2144,22.78,2021-12-17 16:12:28.062500
2145,23.08,2021-12-17 16:12:28.078125
2146,23.2,2021-12-17 16:12:28.093750
2147,23.23,2021-12-17 16:12:28.109375
2148,23.16,2021-12-17 16:12:28.125000
2149,22.94,2021-12-17 16:12:28.140625
2150,22.45,2021-12-17 16:12:28.156250
2151,21.58,2021-12-17 16:12:28.171875
2152,20.37,2021-12-17 16:12:28.187500
2153,18.92,2021-12-17 16:12:28.203125
2154,17.39,2021-12-17 16:12:28.218750
2155,15.9,2021-12-17 16:12:28.234375
2156,14.54,2021-12-17 16:12:28.250000
2157,13.33,2021-12-17 16:12:28.265625
2158,12.33,2021-12-17 16:12:28.281250
2159,11.64,2021-12-17 16:12:28.296875
2160,11.38,2021-12-17 16:12:28.312500
2161,11.65,2021-12-17 16:12:28.328125
2162,12.35,2021-12-17 16:12:28.343750
2163,13.35,2021-12-17 16:12:28.359375
2164,14.52,2021-12-17 16:12:28.375000
2165,15.85,2021-12-17 16:12:28.390625
2166,17.57,2021-12-17 16:12:28.406250
2167,19.98,2021-12-17 16:12:28.421875
2168,23.24,2021-12-17 16:12:28.437500
2169,27.18,2021-12-17 16:12:28.453125
2170,31.26,2021-12-17 16:12:28.468750
2171,34.64,2021-12-17 16:12:28.484375
2172,36.46,2021-12-17 16:12:28.500000
2173,36.13,2021-12-17 16:12:28.515625
2174,33.5,2021-12-17 16:12:28.531250
2175,28.87,2021-12-17 16:12:28.546875
2176,22.92,2021-12-17 16:12:28.562500
2177,16.47,2021-12-17 16:12:28.578125
2178,10.29,2021-12-17 16:12:28.593750
2179,5.0,2021-12-17 16:12:28.609375
2180,0.92,2021-12-17 16:12:28.625000
2181,-1.87,2021-12-17 16:12:28.640625
2182,-3.48,2021-12-17 16:12:28.656250
2183,-4.2,2021-12-17 16:12:28.671875
2184,-4.34,2021-12-17 16:12:28.687500
2185,-4.28,2021-12-17 16:12:28.703125
2186,-4.32,2021-12-17 16:12:28.718750
2187,-4.65,2021-12-17 16:12:28.734375
2188,-5.34,2021-12-17 16:12:28.750000
2189,-6.33,2021-12-17 16:12:28.765625
2190,-7.52,2021-12-17 16:12:28.781250
2191,-8.88,2021-12-17 16:12:28.796875
2192,-10.41,2021-12-17 16:12:28.812500
2193,-12.21,2021-12-17 16:12:28.828125
2194,-14.37,2021-12-17 16:12:28.843750
2195,-16.86,2021-12-17 16:12:28.859375
2196,-19.56,2021-12-17 16:12:28.875000
2197,-22.22,2021-12-17 16:12:28.890625
2198,-24.6,2021-12-17 16:12:28.906250
2199,-26.52,2021-12-17 16:12:28.921875
2200,-27.85,2021-12-17 16:12:28.937500
2201,-28.61,2021-12-17 16:12:28.953125
2202,-28.9,2021-12-17 16:12:28.968750
2203,-28.95,2021-12-17 16:12:28.984375
2204,-29.01,2021-12-17 16:12:29.000000
2205,-29.32,2021-12-17 16:12:29.015625
2206,-29.97,2021-12-17 16:12:29.031250
2207,-30.98,2021-12-17 16:12:29.046875
2208,-32.23,2021-12-17 16:12:29.062500
2209,-33.58,2021-12-17 16:12:29.078125
2210,-34.93,2021-12-17 16:12:29.093750
2211,-36.27,2021-12-17 16:12:29.109375
2212,-37.65,2021-12-17 16:12:29.125000
2213,-39.12,2021-12-17 16:12:29.140625
2214,-40.69,2021-12-17 16:12:29.156250
2215,-42.27,2021-12-17 16:12:29.171875
2216,-43.74,2021-12-17 16:12:29.187500
2217,-44.83,2021-12-17 16:12:29.203125
2218,-45.29,2021-12-17 16:12:29.218750
2219,-44.84,2021-12-17 16:12:29.234375
2220,-43.25,2021-12-17 16:12:29.250000
2221,-40.42,2021-12-17 16:12:29.265625
2222,-36.41,2021-12-17 16:12:29.281250
2223,-31.42,2021-12-17 16:12:29.296875
2224,-25.77,2021-12-17 16:12:29.312500
2225,-19.91,2021-12-17 16:12:29.328125
2226,-14.35,2021-12-17 16:12:29.343750
2227,-9.67,2021-12-17 16:12:29.359375
2228,-6.33,2021-12-17 16:12:29.375000
2229,-4.53,2021-12-17 16:12:29.390625
2230,-4.19,2021-12-17 16:12:29.406250
2231,-4.87,2021-12-17 16:12:29.421875
2232,-6.01,2021-12-17 16:12:29.437500
2233,-7.08,2021-12-17 16:12:29.453125
2234,-7.74,2021-12-17 16:12:29.468750
2235,-7.87,2021-12-17 16:12:29.484375
2236,-7.51,2021-12-17 16:12:29.500000
2237,-6.66,2021-12-17 16:12:29.515625
2238,-5.29,2021-12-17 16:12:29.531250
2239,-3.35,2021-12-17 16:12:29.546875
2240,-0.85,2021-12-17 16:12:29.562500
2241,2.1,2021-12-17 16:12:29.578125
2242,5.2,2021-12-17 16:12:29.593750
2243,8.1,2021-12-17 16:12:29.609375
2244,10.46,2021-12-17 16:12:29.625000
2245,12.0,2021-12-17 16:12:29.640625
2246,12.61,2021-12-17 16:12:29.656250
2247,12.39,2021-12-17 16:12:29.671875
2248,11.58,2021-12-17 16:12:29.687500
2249,10.5,2021-12-17 16:12:29.703125
2250,9.49,2021-12-17 16:12:29.718750
2251,8.78,2021-12-17 16:12:29.734375
2252,8.53,2021-12-17 16:12:29.750000
2253,8.87,2021-12-17 16:12:29.765625
2254,9.85,2021-12-17 16:12:29.781250
2255,11.48,2021-12-17 16:12:29.796875
2256,13.59,2021-12-17 16:12:29.812500
2257,15.8,2021-12-17 16:12:29.828125
2258,17.58,2021-12-17 16:12:29.843750
2259,18.39,2021-12-17 16:12:29.859375
2260,17.81,2021-12-17 16:12:29.875000
2261,15.78,2021-12-17 16:12:29.890625
2262,12.5,2021-12-17 16:12:29.906250
2263,8.48,2021-12-17 16:12:29.921875
2264,4.35,2021-12-17 16:12:29.937500
2265,0.75,2021-12-17 16:12:29.953125
2266,-1.86,2021-12-17 16:12:29.968750
2267,-3.3,2021-12-17 16:12:29.984375
2268,-3.67,2021-12-17 16:12:30.000000
2269,-3.37,2021-12-17 16:12:30.015625
2270,-2.9,2021-12-17 16:12:30.031250
2271,-2.72,2021-12-17 16:12:30.046875
2272,-3.0,2021-12-17 16:12:30.062500
2273,-3.7,2021-12-17 16:12:30.078125
2274,-4.57,2021-12-17 16:12:30.093750
2275,-5.3,2021-12-17 16:12:30.109375
2276,-5.59,2021-12-17 16:12:30.125000
2277,-5.16,2021-12-17 16:12:30.140625
2278,-3.89,2021-12-17 16:12:30.156250
2279,-1.75,2021-12-17 16:12:30.171875
2280,1.04,2021-12-17 16:12:30.187500
2281,3.94,2021-12-17 16:12:30.203125
2282,6.26,2021-12-17 16:12:30.218750
2283,7.4,2021-12-17 16:12:30.234375
2284,7.06,2021-12-17 16:12:30.250000
2285,5.44,2021-12-17 16:12:30.265625
2286,3.16,2021-12-17 16:12:30.281250
2287,1.0,2021-12-17 16:12:30.296875
2288,-0.39,2021-12-17 16:12:30.312500
2289,-0.72,2021-12-17 16:12:30.328125
2290,-0.06,2021-12-17 16:12:30.343750
2291,1.19,2021-12-17 16:12:30.359375
2292,2.6,2021-12-17 16:12:30.375000
2293,3.81,2021-12-17 16:12:30.390625
2294,4.54,2021-12-17 16:12:30.406250
2295,4.54,2021-12-17 16:12:30.421875
2296,3.59,2021-12-17 16:12:30.437500
2297,1.58,2021-12-17 16:12:30.453125
2298,-1.52,2021-12-17 16:12:30.468750
2299,-5.4,2021-12-17 16:12:30.484375
2300,-9.55,2021-12-17 16:12:30.500000
2301,-13.21,2021-12-17 16:12:30.515625
2302,-15.7,2021-12-17 16:12:30.531250
2303,-16.54,2021-12-17 16:12:30.546875
2304,-15.65,2021-12-17 16:12:30.562500
2305,-13.34,2021-12-17 16:12:30.578125
2306,-10.18,2021-12-17 16:12:30.593750
2307,-6.79,2021-12-17 16:12:30.609375
2308,-3.76,2021-12-17 16:12:30.625000
2309,-1.44,2021-12-17 16:12:30.640625
2310,0.0,2021-12-17 16:12:30.656250
2311,0.62,2021-12-17 16:12:30.671875
2312,0.61,2021-12-17 16:12:30.687500
2313,0.27,2021-12-17 16:12:30.703125
2314,-0.15,2021-12-17 16:12:30.718750
2315,-0.4,2021-12-17 16:12:30.734375
2316,-0.35,2021-12-17 16:12:30.750000
2317,0.02,2021-12-17 16:12:30.765625
2318,0.7,2021-12-17 16:12:30.781250
2319,1.65,2021-12-17 16:12:30.796875
2320,2.91,2021-12-17 16:12:30.812500
2321,4.47,2021-12-17 16:12:30.828125
2322,6.34,2021-12-17 16:12:30.843750
2323,8.42,2021-12-17 16:12:30.859375
2324,10.57,2021-12-17 16:12:30.875000
2325,12.61,2021-12-17 16:12:30.890625
2326,14.38,2021-12-17 16:12:30.906250
2327,15.8,2021-12-17 16:12:30.921875
2328,16.86,2021-12-17 16:12:30.937500
2329,17.68,2021-12-17 16:12:30.953125
2330,18.44,2021-12-17 16:12:30.968750
2331,19.36,2021-12-17 16:12:30.984375
2332,20.6,2021-12-17 16:12:31.000000
2333,22.21,2021-12-17 16:12:31.015625
2334,24.11,2021-12-17 16:12:31.031250
2335,26.12,2021-12-17 16:12:31.046875
2336,28.03,2021-12-17 16:12:31.062500
2337,29.74,2021-12-17 16:12:31.078125
2338,31.24,2021-12-17 16:12:31.093750
2339,32.53,2021-12-17 16:12:31.109375
2340,33.55,2021-12-17 16:12:31.125000
2341,34.1,2021-12-17 16:12:31.140625
2342,33.88,2021-12-17 16:12:31.156250
2343,32.7,2021-12-17 16:12:31.171875
2344,30.56,2021-12-17 16:12:31.187500
2345,27.79,2021-12-17 16:12:31.203125
2346,24.79,2021-12-17 16:12:31.218750
2347,21.92,2021-12-17 16:12:31.234375
2348,19.35,2021-12-17 16:12:31.250000
2349,17.11,2021-12-17 16:12:31.265625
2350,15.19,2021-12-17 16:12:31.281250
2351,13.66,2021-12-17 16:12:31.296875
2352,12.67,2021-12-17 16:12:31.312500
2353,12.29,2021-12-17 16:12:31.328125
2354,12.34,2021-12-17 16:12:31.343750
2355,12.39,2021-12-17 16:12:31.359375
2356,11.87,2021-12-17 16:12:31.375000
2357,10.36,2021-12-17 16:12:31.390625
2358,7.78,2021-12-17 16:12:31.406250
2359,4.48,2021-12-17 16:12:31.421875
2360,1.03,2021-12-17 16:12:31.437500
2361,-2.03,2021-12-17 16:12:31.453125
2362,-4.51,2021-12-17 16:12:31.468750
2363,-6.58,2021-12-17 16:12:31.484375
2364,-8.74,2021-12-17 16:12:31.500000
2365,-11.48,2021-12-17 16:12:31.515625
2366,-15.07,2021-12-17 16:12:31.531250
2367,-19.38,2021-12-17 16:12:31.546875
2368,-23.92,2021-12-17 16:12:31.562500
2369,-28.0,2021-12-17 16:12:31.578125
2370,-31.01,2021-12-17 16:12:31.593750
2371,-32.53,2021-12-17 16:12:31.609375
2372,-32.49,2021-12-17 16:12:31.625000
2373,-31.09,2021-12-17 16:12:31.640625
2374,-28.66,2021-12-17 16:12:31.656250
2375,-25.56,2021-12-17 16:12:31.671875
2376,-22.16,2021-12-17 16:12:31.687500
2377,-18.66,2021-12-17 16:12:31.703125
2378,-15.24,2021-12-17 16:12:31.718750
2379,-11.96,2021-12-17 16:12:31.734375
2380,-8.83,2021-12-17 16:12:31.750000
2381,-5.92,2021-12-17 16:12:31.765625
2382,-3.31,2021-12-17 16:12:31.781250
2383,-1.15,2021-12-17 16:12:31.796875
2384,0.44,2021-12-17 16:12:31.812500
2385,1.43,2021-12-17 16:12:31.828125
2386,1.89,2021-12-17 16:12:31.843750
2387,1.94,2021-12-17 16:12:31.859375
2388,1.7,2021-12-17 16:12:31.875000
2389,1.19,2021-12-17 16:12:31.890625
2390,0.37,2021-12-17 16:12:31.906250
2391,-0.78,2021-12-17 16:12:31.921875
2392,-2.15,2021-12-17 16:12:31.937500
2393,-3.51,2021-12-17 16:12:31.953125
2394,-4.59,2021-12-17 16:12:31.968750
2395,-5.21,2021-12-17 16:12:31.984375
2396,-5.37,2021-12-17 16:12:32.000000
2397,-5.21,2021-12-17 16:12:32.015625
2398,-4.94,2021-12-17 16:12:32.031250
2399,-4.74,2021-12-17 16:12:32.046875
2400,-4.71,2021-12-17 16:12:32.062500
2401,-4.88,2021-12-17 16:12:32.078125
2402,-5.32,2021-12-17 16:12:32.093750
2403,-6.09,2021-12-17 16:12:32.109375
2404,-7.26,2021-12-17 16:12:32.125000
2405,-8.84,2021-12-17 16:12:32.140625
2406,-10.76,2021-12-17 16:12:32.156250
2407,-12.83,2021-12-17 16:12:32.171875
2408,-14.88,2021-12-17 16:12:32.187500
2409,-16.77,2021-12-17 16:12:32.203125
2410,-18.52,2021-12-17 16:12:32.218750
2411,-20.23,2021-12-17 16:12:32.234375
2412,-22.03,2021-12-17 16:12:32.250000
2413,-23.97,2021-12-17 16:12:32.265625
2414,-26.08,2021-12-17 16:12:32.281250
2415,-28.31,2021-12-17 16:12:32.296875
2416,-30.57,2021-12-17 16:12:32.312500
2417,-32.75,2021-12-17 16:12:32.328125
2418,-34.69,2021-12-17 16:12:32.343750
2419,-36.18,2021-12-17 16:12:32.359375
2420,-36.98,2021-12-17 16:12:32.375000
2421,-36.85,2021-12-17 16:12:32.390625
2422,-35.64,2021-12-17 16:12:32.406250
2423,-33.36,2021-12-17 16:12:32.421875
2424,-30.16,2021-12-17 16:12:32.437500
2425,-26.32,2021-12-17 16:12:32.453125
2426,-22.13,2021-12-17 16:12:32.468750
2427,-17.83,2021-12-17 16:12:32.484375
2428,-13.58,2021-12-17 16:12:32.500000
2429,-9.45,2021-12-17 16:12:32.515625
2430,-5.47,2021-12-17 16:12:32.531250
2431,-1.64,2021-12-17 16:12:32.546875
2432,2.07,2021-12-17 16:12:32.562500
2433,5.63,2021-12-17 16:12:32.578125
2434,8.98,2021-12-17 16:12:32.593750
2435,11.98,2021-12-17 16:12:32.609375
2436,14.49,2021-12-17 16:12:32.625000
2437,16.42,2021-12-17 16:12:32.640625
2438,17.8,2021-12-17 16:12:32.656250
2439,18.71,2021-12-17 16:12:32.671875
2440,19.34,2021-12-17 16:12:32.687500
2441,19.79,2021-12-17 16:12:32.703125
2442,20.15,2021-12-17 16:12:32.718750
2443,20.44,2021-12-17 16:12:32.734375
2444,20.68,2021-12-17 16:12:32.750000
2445,20.81,2021-12-17 16:12:32.765625
2446,20.82,2021-12-17 16:12:32.781250
2447,20.62,2021-12-17 16:12:32.796875
2448,20.04,2021-12-17 16:12:32.812500
2449,18.94,2021-12-17 16:12:32.828125
2450,17.26,2021-12-17 16:12:32.843750
2451,15.11,2021-12-17 16:12:32.859375
2452,12.74,2021-12-17 16:12:32.875000
2453,10.47,2021-12-17 16:12:32.890625
2454,8.56,2021-12-17 16:12:32.906250
2455,7.08,2021-12-17 16:12:32.921875
2456,5.9,2021-12-17 16:12:32.937500
2457,4.72,2021-12-17 16:12:32.953125
2458,3.21,2021-12-17 16:12:32.968750
2459,1.18,2021-12-17 16:12:32.984375
2460,-1.37,2021-12-17 16:12:33.000000
2461,-4.25,2021-12-17 16:12:33.015625
2462,-7.21,2021-12-17 16:12:33.031250
2463,-10.08,2021-12-17 16:12:33.046875
2464,-12.77,2021-12-17 16:12:33.062500
2465,-15.23,2021-12-17 16:12:33.078125
2466,-17.33,2021-12-17 16:12:33.093750
2467,-18.78,2021-12-17 16:12:33.109375
2468,-19.28,2021-12-17 16:12:33.125000
2469,-18.62,2021-12-17 16:12:33.140625
2470,-16.84,2021-12-17 16:12:33.156250
2471,-14.31,2021-12-17 16:12:33.171875
2472,-11.55,2021-12-17 16:12:33.187500
2473,-8.94,2021-12-17 16:12:33.203125
2474,-6.63,2021-12-17 16:12:33.218750
2475,-4.48,2021-12-17 16:12:33.234375
2476,-2.25,2021-12-17 16:12:33.250000
2477,0.16,2021-12-17 16:12:33.265625
2478,2.65,2021-12-17 16:12:33.281250
2479,4.94,2021-12-17 16:12:33.296875
2480,6.65,2021-12-17 16:12:33.312500
2481,7.54,2021-12-17 16:12:33.328125
2482,7.56,2021-12-17 16:12:33.343750
2483,6.86,2021-12-17 16:12:33.359375
2484,5.74,2021-12-17 16:12:33.375000
2485,4.48,2021-12-17 16:12:33.390625
2486,3.3,2021-12-17 16:12:33.406250
2487,2.29,2021-12-17 16:12:33.421875
2488,1.33,2021-12-17 16:12:33.437500
2489,0.2,2021-12-17 16:12:33.453125
2490,-1.3,2021-12-17 16:12:33.468750
2491,-3.24,2021-12-17 16:12:33.484375
2492,-5.49,2021-12-17 16:12:33.500000
2493,-7.74,2021-12-17 16:12:33.515625
2494,-9.6,2021-12-17 16:12:33.531250
2495,-10.83,2021-12-17 16:12:33.546875
2496,-11.32,2021-12-17 16:12:33.562500
2497,-11.19,2021-12-17 16:12:33.578125
2498,-10.62,2021-12-17 16:12:33.593750
2499,-9.71,2021-12-17 16:12:33.609375
2500,-8.47,2021-12-17 16:12:33.625000
2501,-6.86,2021-12-17 16:12:33.640625
2502,-4.84,2021-12-17 16:12:33.656250
2503,-2.53,2021-12-17 16:12:33.671875
2504,-0.17,2021-12-17 16:12:33.687500
2505,1.93,2021-12-17 16:12:33.703125
2506,3.48,2021-12-17 16:12:33.718750
2507,4.36,2021-12-17 16:12:33.734375
2508,4.59,2021-12-17 16:12:33.750000
2509,4.26,2021-12-17 16:12:33.765625
2510,3.41,2021-12-17 16:12:33.781250
2511,2.06,2021-12-17 16:12:33.796875
2512,0.21,2021-12-17 16:12:33.812500
2513,-2.05,2021-12-17 16:12:33.828125
2514,-4.48,2021-12-17 16:12:33.843750
2515,-6.72,2021-12-17 16:12:33.859375
2516,-8.32,2021-12-17 16:12:33.875000
2517,-8.99,2021-12-17 16:12:33.890625
2518,-8.66,2021-12-17 16:12:33.906250
2519,-7.5,2021-12-17 16:12:33.921875
2520,-5.79,2021-12-17 16:12:33.937500
2521,-3.84,2021-12-17 16:12:33.953125
2522,-1.86,2021-12-17 16:12:33.968750
2523,0.09,2021-12-17 16:12:33.984375
2524,2.07,2021-12-17 16:12:34.000000
2525,4.18,2021-12-17 16:12:34.015625
2526,6.6,2021-12-17 16:12:34.031250
2527,9.41,2021-12-17 16:12:34.046875
2528,12.64,2021-12-17 16:12:34.062500
2529,16.21,2021-12-17 16:12:34.078125
2530,19.87,2021-12-17 16:12:34.093750
2531,23.33,2021-12-17 16:12:34.109375
2532,26.27,2021-12-17 16:12:34.125000
2533,28.47,2021-12-17 16:12:34.140625
2534,29.87,2021-12-17 16:12:34.156250
2535,30.5,2021-12-17 16:12:34.171875
2536,30.48,2021-12-17 16:12:34.187500
2537,29.9,2021-12-17 16:12:34.203125
2538,28.82,2021-12-17 16:12:34.218750
2539,27.32,2021-12-17 16:12:34.234375
2540,25.51,2021-12-17 16:12:34.250000
2541,23.56,2021-12-17 16:12:34.265625
2542,21.64,2021-12-17 16:12:34.281250
2543,19.8,2021-12-17 16:12:34.296875
2544,17.97,2021-12-17 16:12:34.312500
2545,16.0,2021-12-17 16:12:34.328125
2546,13.75,2021-12-17 16:12:34.343750
2547,11.18,2021-12-17 16:12:34.359375
2548,8.45,2021-12-17 16:12:34.375000
2549,5.88,2021-12-17 16:12:34.390625
2550,3.74,2021-12-17 16:12:34.406250
2551,2.15,2021-12-17 16:12:34.421875
2552,0.97,2021-12-17 16:12:34.437500
2553,-0.13,2021-12-17 16:12:34.453125
2554,-1.55,2021-12-17 16:12:34.468750
2555,-3.5,2021-12-17 16:12:34.484375
2556,-5.99,2021-12-17 16:12:34.500000
2557,-8.8,2021-12-17 16:12:34.515625
2558,-11.68,2021-12-17 16:12:34.531250
2559,-14.41,2021-12-17 16:12:34.546875
2560,-16.9,2021-12-17 16:12:34.562500
2561,-19.16,2021-12-17 16:12:34.578125
2562,-21.15,2021-12-17 16:12:34.593750
2563,-22.8,2021-12-17 16:12:34.609375
2564,-23.92,2021-12-17 16:12:34.625000
2565,-24.36,2021-12-17 16:12:34.640625
2566,-24.04,2021-12-17 16:12:34.656250
2567,-22.89,2021-12-17 16:12:34.671875
2568,-20.91,2021-12-17 16:12:34.687500
2569,-18.1,2021-12-17 16:12:34.703125
2570,-14.59,2021-12-17 16:12:34.718750
2571,-10.52,2021-12-17 16:12:34.734375
2572,-6.18,2021-12-17 16:12:34.750000
2573,-1.81,2021-12-17 16:12:34.765625
2574,2.41,2021-12-17 16:12:34.781250
2575,6.44,2021-12-17 16:12:34.796875
2576,10.3,2021-12-17 16:12:34.812500
2577,13.97,2021-12-17 16:12:34.828125
2578,17.32,2021-12-17 16:12:34.843750
2579,20.14,2021-12-17 16:12:34.859375
2580,22.29,2021-12-17 16:12:34.875000
2581,23.77,2021-12-17 16:12:34.890625
2582,24.84,2021-12-17 16:12:34.906250
2583,25.85,2021-12-17 16:12:34.921875
2584,27.11,2021-12-17 16:12:34.937500
2585,28.72,2021-12-17 16:12:34.953125
2586,30.51,2021-12-17 16:12:34.968750
2587,32.15,2021-12-17 16:12:34.984375
2588,33.25,2021-12-17 16:12:35.000000
2589,33.47,2021-12-17 16:12:35.015625
2590,32.56,2021-12-17 16:12:35.031250
2591,30.38,2021-12-17 16:12:35.046875
2592,26.95,2021-12-17 16:12:35.062500
2593,22.48,2021-12-17 16:12:35.078125
2594,17.38,2021-12-17 16:12:35.093750
2595,12.18,2021-12-17 16:12:35.109375
2596,7.45,2021-12-17 16:12:35.125000
2597,3.57,2021-12-17 16:12:35.140625
2598,0.73,2021-12-17 16:12:35.156250
2599,-1.16,2021-12-17 16:12:35.171875
2600,-2.33,2021-12-17 16:12:35.187500
2601,-3.02,2021-12-17 16:12:35.203125
2602,-3.53,2021-12-17 16:12:35.218750
2603,-4.05,2021-12-17 16:12:35.234375
2604,-4.87,2021-12-17 16:12:35.250000
2605,-6.24,2021-12-17 16:12:35.265625
2606,-8.35,2021-12-17 16:12:35.281250
2607,-11.25,2021-12-17 16:12:35.296875
2608,-14.77,2021-12-17 16:12:35.312500
2609,-18.56,2021-12-17 16:12:35.328125
2610,-22.16,2021-12-17 16:12:35.343750
2611,-25.19,2021-12-17 16:12:35.359375
2612,-27.43,2021-12-17 16:12:35.375000
2613,-28.85,2021-12-17 16:12:35.390625
2614,-29.51,2021-12-17 16:12:35.406250
2615,-29.52,2021-12-17 16:12:35.421875
2616,-28.92,2021-12-17 16:12:35.437500
2617,-27.7,2021-12-17 16:12:35.453125
2618,-25.85,2021-12-17 16:12:35.468750
2619,-23.4,2021-12-17 16:12:35.484375
2620,-20.44,2021-12-17 16:12:35.500000
2621,-17.15,2021-12-17 16:12:35.515625
2622,-13.71,2021-12-17 16:12:35.531250
2623,-10.26,2021-12-17 16:12:35.546875
2624,-6.93,2021-12-17 16:12:35.562500
2625,-3.81,2021-12-17 16:12:35.578125
2626,-0.92,2021-12-17 16:12:35.593750
2627,1.72,2021-12-17 16:12:35.609375
2628,4.16,2021-12-17 16:12:35.625000
2629,6.49,2021-12-17 16:12:35.640625
2630,8.85,2021-12-17 16:12:35.656250
2631,11.35,2021-12-17 16:12:35.671875
2632,14.1,2021-12-17 16:12:35.687500
2633,17.09,2021-12-17 16:12:35.703125
2634,20.19,2021-12-17 16:12:35.718750
2635,23.18,2021-12-17 16:12:35.734375
2636,25.7,2021-12-17 16:12:35.750000
2637,27.39,2021-12-17 16:12:35.765625
2638,28.0,2021-12-17 16:12:35.781250
2639,27.44,2021-12-17 16:12:35.796875
2640,25.85,2021-12-17 16:12:35.812500
2641,23.61,2021-12-17 16:12:35.828125
2642,21.23,2021-12-17 16:12:35.843750
2643,19.22,2021-12-17 16:12:35.859375
2644,18.0,2021-12-17 16:12:35.875000
2645,17.77,2021-12-17 16:12:35.890625
2646,18.4,2021-12-17 16:12:35.906250
2647,19.55,2021-12-17 16:12:35.921875
2648,20.64,2021-12-17 16:12:35.937500
2649,21.01,2021-12-17 16:12:35.953125
2650,20.16,2021-12-17 16:12:35.968750
2651,17.75,2021-12-17 16:12:35.984375
2652,13.75,2021-12-17 16:12:36.000000
2653,8.34,2021-12-17 16:12:36.015625
2654,1.84,2021-12-17 16:12:36.031250
2655,-5.41,2021-12-17 16:12:36.046875
2656,-13.25,2021-12-17 16:12:36.062500
2657,-21.62,2021-12-17 16:12:36.078125
2658,-30.57,2021-12-17 16:12:36.093750
2659,-40.02,2021-12-17 16:12:36.109375
2660,-49.71,2021-12-17 16:12:36.125000
2661,-59.12,2021-12-17 16:12:36.140625
2662,-67.54,2021-12-17 16:12:36.156250
2663,-74.32,2021-12-17 16:12:36.171875
2664,-78.93,2021-12-17 16:12:36.187500
2665,-81.15,2021-12-17 16:12:36.203125
2666,-81.09,2021-12-17 16:12:36.218750
2667,-79.04,2021-12-17 16:12:36.234375
2668,-75.38,2021-12-17 16:12:36.250000
2669,-70.39,2021-12-17 16:12:36.265625
2670,-64.21,2021-12-17 16:12:36.281250
2671,-56.81,2021-12-17 16:12:36.296875
2672,-48.02,2021-12-17 16:12:36.312500
2673,-37.69,2021-12-17 16:12:36.328125
2674,-25.8,2021-12-17 16:12:36.343750
2675,-12.67,2021-12-17 16:12:36.359375
2676,1.06,2021-12-17 16:12:36.375000
2677,14.46,2021-12-17 16:12:36.390625
2678,26.53,2021-12-17 16:12:36.406250
2679,36.49,2021-12-17 16:12:36.421875
2680,44.02,2021-12-17 16:12:36.437500
2681,49.31,2021-12-17 16:12:36.453125
2682,52.94,2021-12-17 16:12:36.468750
2683,55.65,2021-12-17 16:12:36.484375
2684,58.0,2021-12-17 16:12:36.500000
2685,60.15,2021-12-17 16:12:36.515625
2686,61.87,2021-12-17 16:12:36.531250
2687,62.74,2021-12-17 16:12:36.546875
2688,62.45,2021-12-17 16:12:36.562500
2689,61.08,2021-12-17 16:12:36.578125
2690,59.11,2021-12-17 16:12:36.593750
2691,57.26,2021-12-17 16:12:36.609375
2692,56.15,2021-12-17 16:12:36.625000
2693,55.95,2021-12-17 16:12:36.640625
2694,56.4,2021-12-17 16:12:36.656250
2695,56.94,2021-12-17 16:12:36.671875
2696,57.03,2021-12-17 16:12:36.687500
2697,56.44,2021-12-17 16:12:36.703125
2698,55.17,2021-12-17 16:12:36.718750
2699,53.38,2021-12-17 16:12:36.734375
2700,51.12,2021-12-17 16:12:36.750000
2701,48.21,2021-12-17 16:12:36.765625
2702,44.34,2021-12-17 16:12:36.781250
2703,39.29,2021-12-17 16:12:36.796875
2704,33.02,2021-12-17 16:12:36.812500
2705,25.76,2021-12-17 16:12:36.828125
2706,17.85,2021-12-17 16:12:36.843750
2707,9.63,2021-12-17 16:12:36.859375
2708,1.4,2021-12-17 16:12:36.875000
2709,-6.57,2021-12-17 16:12:36.890625
2710,-13.93,2021-12-17 16:12:36.906250
2711,-20.27,2021-12-17 16:12:36.921875
2712,-25.13,2021-12-17 16:12:36.937500
2713,-28.24,2021-12-17 16:12:36.953125
2714,-29.6,2021-12-17 16:12:36.968750
2715,-29.47,2021-12-17 16:12:36.984375
2716,-28.31,2021-12-17 16:12:37.000000
2717,-26.54,2021-12-17 16:12:37.015625
2718,-24.48,2021-12-17 16:12:37.031250
2719,-22.2,2021-12-17 16:12:37.046875
2720,-19.66,2021-12-17 16:12:37.062500
2721,-16.77,2021-12-17 16:12:37.078125
2722,-13.5,2021-12-17 16:12:37.093750
2723,-9.97,2021-12-17 16:12:37.109375
2724,-6.37,2021-12-17 16:12:37.125000
2725,-3.02,2021-12-17 16:12:37.140625
2726,-0.13,2021-12-17 16:12:37.156250
2727,2.17,2021-12-17 16:12:37.171875
2728,3.91,2021-12-17 16:12:37.187500
2729,5.24,2021-12-17 16:12:37.203125
2730,6.35,2021-12-17 16:12:37.218750
2731,7.43,2021-12-17 16:12:37.234375
2732,8.56,2021-12-17 16:12:37.250000
2733,9.82,2021-12-17 16:12:37.265625
2734,11.17,2021-12-17 16:12:37.281250
2735,12.59,2021-12-17 16:12:37.296875
2736,13.99,2021-12-17 16:12:37.312500
2737,15.27,2021-12-17 16:12:37.328125
2738,16.25,2021-12-17 16:12:37.343750
2739,16.8,2021-12-17 16:12:37.359375
2740,16.85,2021-12-17 16:12:37.375000
2741,16.41,2021-12-17 16:12:37.390625
2742,15.66,2021-12-17 16:12:37.406250
2743,14.82,2021-12-17 16:12:37.421875
2744,14.14,2021-12-17 16:12:37.437500
2745,13.75,2021-12-17 16:12:37.453125
2746,13.69,2021-12-17 16:12:37.468750
2747,13.94,2021-12-17 16:12:37.484375
2748,14.39,2021-12-17 16:12:37.500000
2749,14.92,2021-12-17 16:12:37.515625
2750,15.38,2021-12-17 16:12:37.531250
2751,15.61,2021-12-17 16:12:37.546875
2752,15.43,2021-12-17 16:12:37.562500
2753,14.68,2021-12-17 16:12:37.578125
2754,13.27,2021-12-17 16:12:37.593750
2755,11.22,2021-12-17 16:12:37.609375
2756,8.72,2021-12-17 16:12:37.625000
2757,6.09,2021-12-17 16:12:37.640625
2758,3.65,2021-12-17 16:12:37.656250
2759,1.7,2021-12-17 16:12:37.671875
2760,0.42,2021-12-17 16:12:37.687500
2761,-0.19,2021-12-17 16:12:37.703125
2762,-0.26,2021-12-17 16:12:37.718750
2763,-0.02,2021-12-17 16:12:37.734375
2764,0.34,2021-12-17 16:12:37.750000
2765,0.68,2021-12-17 16:12:37.765625
2766,1.0,2021-12-17 16:12:37.781250
2767,1.41,2021-12-17 16:12:37.796875
2768,2.09,2021-12-17 16:12:37.812500
2769,3.16,2021-12-17 16:12:37.828125
2770,4.63,2021-12-17 16:12:37.843750
2771,6.37,2021-12-17 16:12:37.859375
2772,8.17,2021-12-17 16:12:37.875000
2773,9.81,2021-12-17 16:12:37.890625
2774,11.12,2021-12-17 16:12:37.906250
2775,11.96,2021-12-17 16:12:37.921875
2776,12.25,2021-12-17 16:12:37.937500
2777,11.88,2021-12-17 16:12:37.953125
2778,10.76,2021-12-17 16:12:37.968750
2779,8.88,2021-12-17 16:12:37.984375
2780,6.37,2021-12-17 16:12:38.000000
2781,3.58,2021-12-17 16:12:38.015625
2782,0.94,2021-12-17 16:12:38.031250
2783,-1.1,2021-12-17 16:12:38.046875
2784,-2.32,2021-12-17 16:12:38.062500
2785,-2.67,2021-12-17 16:12:38.078125
2786,-2.41,2021-12-17 16:12:38.093750
2787,-1.86,2021-12-17 16:12:38.109375
2788,-1.38,2021-12-17 16:12:38.125000
2789,-1.2,2021-12-17 16:12:38.140625
2790,-1.47,2021-12-17 16:12:38.156250
2791,-2.24,2021-12-17 16:12:38.171875
2792,-3.56,2021-12-17 16:12:38.187500
2793,-5.43,2021-12-17 16:12:38.203125
2794,-7.84,2021-12-17 16:12:38.218750
2795,-10.65,2021-12-17 16:12:38.234375
2796,-13.62,2021-12-17 16:12:38.250000
2797,-16.46,2021-12-17 16:12:38.265625
2798,-18.91,2021-12-17 16:12:38.281250
2799,-20.87,2021-12-17 16:12:38.296875
2800,-22.44,2021-12-17 16:12:38.312500
2801,-23.84,2021-12-17 16:12:38.328125
2802,-25.32,2021-12-17 16:12:38.343750
2803,-27.02,2021-12-17 16:12:38.359375
2804,-28.87,2021-12-17 16:12:38.375000
2805,-30.67,2021-12-17 16:12:38.390625
2806,-32.09,2021-12-17 16:12:38.406250
2807,-32.84,2021-12-17 16:12:38.421875
2808,-32.7,2021-12-17 16:12:38.437500
2809,-31.57,2021-12-17 16:12:38.453125
2810,-29.49,2021-12-17 16:12:38.468750
2811,-26.56,2021-12-17 16:12:38.484375
2812,-22.99,2021-12-17 16:12:38.500000
2813,-18.98,2021-12-17 16:12:38.515625
2814,-14.78,2021-12-17 16:12:38.531250
2815,-10.55,2021-12-17 16:12:38.546875
2816,-6.4,2021-12-17 16:12:38.562500
2817,-2.35,2021-12-17 16:12:38.578125
2818,1.63,2021-12-17 16:12:38.593750
2819,5.6,2021-12-17 16:12:38.609375
2820,9.63,2021-12-17 16:12:38.625000
2821,13.7,2021-12-17 16:12:38.640625
2822,17.64,2021-12-17 16:12:38.656250
2823,21.19,2021-12-17 16:12:38.671875
2824,23.99,2021-12-17 16:12:38.687500
2825,25.63,2021-12-17 16:12:38.703125
2826,25.86,2021-12-17 16:12:38.718750
2827,24.62,2021-12-17 16:12:38.734375
2828,22.19,2021-12-17 16:12:38.750000
2829,19.06,2021-12-17 16:12:38.765625
2830,15.86,2021-12-17 16:12:38.781250
2831,13.09,2021-12-17 16:12:38.796875
2832,10.99,2021-12-17 16:12:38.812500
2833,9.49,2021-12-17 16:12:38.828125
2834,8.33,2021-12-17 16:12:38.843750
2835,7.21,2021-12-17 16:12:38.859375
2836,5.99,2021-12-17 16:12:38.875000
2837,4.67,2021-12-17 16:12:38.890625
2838,3.42,2021-12-17 16:12:38.906250
2839,2.39,2021-12-17 16:12:38.921875
2840,1.72,2021-12-17 16:12:38.937500
2841,1.43,2021-12-17 16:12:38.953125
2842,1.47,2021-12-17 16:12:38.968750
2843,1.68,2021-12-17 16:12:38.984375
2844,1.87,2021-12-17 16:12:39.000000
2845,1.75,2021-12-17 16:12:39.015625
2846,1.08,2021-12-17 16:12:39.031250
2847,-0.33,2021-12-17 16:12:39.046875
2848,-2.52,2021-12-17 16:12:39.062500
2849,-5.32,2021-12-17 16:12:39.078125
2850,-8.47,2021-12-17 16:12:39.093750
2851,-11.7,2021-12-17 16:12:39.109375
2852,-14.8,2021-12-17 16:12:39.125000
2853,-17.62,2021-12-17 16:12:39.140625
2854,-20.04,2021-12-17 16:12:39.156250
2855,-21.9,2021-12-17 16:12:39.171875
2856,-23.0,2021-12-17 16:12:39.187500
2857,-23.18,2021-12-17 16:12:39.203125
2858,-22.37,2021-12-17 16:12:39.218750
2859,-20.65,2021-12-17 16:12:39.234375
2860,-18.18,2021-12-17 16:12:39.250000
2861,-15.15,2021-12-17 16:12:39.265625
2862,-11.71,2021-12-17 16:12:39.281250
2863,-7.97,2021-12-17 16:12:39.296875
2864,-4.01,2021-12-17 16:12:39.312500
2865,0.13,2021-12-17 16:12:39.328125
2866,4.45,2021-12-17 16:12:39.343750
2867,8.94,2021-12-17 16:12:39.359375
2868,13.59,2021-12-17 16:12:39.375000
2869,18.27,2021-12-17 16:12:39.390625
2870,22.77,2021-12-17 16:12:39.406250
2871,26.72,2021-12-17 16:12:39.421875
2872,29.77,2021-12-17 16:12:39.437500
2873,31.67,2021-12-17 16:12:39.453125
2874,32.37,2021-12-17 16:12:39.468750
2875,32.04,2021-12-17 16:12:39.484375
2876,30.97,2021-12-17 16:12:39.500000
2877,29.46,2021-12-17 16:12:39.515625
2878,27.77,2021-12-17 16:12:39.531250
2879,26.06,2021-12-17 16:12:39.546875
2880,24.43,2021-12-17 16:12:39.562500
2881,22.94,2021-12-17 16:12:39.578125
2882,21.59,2021-12-17 16:12:39.593750
2883,20.31,2021-12-17 16:12:39.609375
2884,18.99,2021-12-17 16:12:39.625000
2885,17.54,2021-12-17 16:12:39.640625
2886,15.92,2021-12-17 16:12:39.656250
2887,14.17,2021-12-17 16:12:39.671875
2888,12.38,2021-12-17 16:12:39.687500
2889,10.63,2021-12-17 16:12:39.703125
2890,8.94,2021-12-17 16:12:39.718750
2891,7.25,2021-12-17 16:12:39.734375
2892,5.47,2021-12-17 16:12:39.750000
2893,3.54,2021-12-17 16:12:39.765625
2894,1.46,2021-12-17 16:12:39.781250
2895,-0.76,2021-12-17 16:12:39.796875
2896,-3.2,2021-12-17 16:12:39.812500
2897,-5.93,2021-12-17 16:12:39.828125
2898,-9.03,2021-12-17 16:12:39.843750
2899,-12.49,2021-12-17 16:12:39.859375
2900,-16.17,2021-12-17 16:12:39.875000
2901,-19.81,2021-12-17 16:12:39.890625
2902,-23.16,2021-12-17 16:12:39.906250
2903,-26.05,2021-12-17 16:12:39.921875
2904,-28.42,2021-12-17 16:12:39.937500
2905,-30.27,2021-12-17 16:12:39.953125
2906,-31.57,2021-12-17 16:12:39.968750
2907,-32.08,2021-12-17 16:12:39.984375
2908,-31.45,2021-12-17 16:12:40.000000
2909,-29.28,2021-12-17 16:12:40.015625
2910,-25.29,2021-12-17 16:12:40.031250
2911,-19.49,2021-12-17 16:12:40.046875
2912,-12.2,2021-12-17 16:12:40.062500
2913,-3.96,2021-12-17 16:12:40.078125
2914,4.5,2021-12-17 16:12:40.093750
2915,12.49,2021-12-17 16:12:40.109375
2916,19.43,2021-12-17 16:12:40.125000
2917,24.93,2021-12-17 16:12:40.140625
2918,28.84,2021-12-17 16:12:40.156250
2919,31.27,2021-12-17 16:12:40.171875
2920,32.47,2021-12-17 16:12:40.187500
2921,32.83,2021-12-17 16:12:40.203125
2922,32.67,2021-12-17 16:12:40.218750
2923,32.17,2021-12-17 16:12:40.234375
2924,31.34,2021-12-17 16:12:40.250000
2925,30.09,2021-12-17 16:12:40.265625
2926,28.22,2021-12-17 16:12:40.281250
2927,25.46,2021-12-17 16:12:40.296875
2928,21.44,2021-12-17 16:12:40.312500
2929,15.59,2021-12-17 16:12:40.328125
2930,7.33,2021-12-17 16:12:40.343750
2931,-3.71,2021-12-17 16:12:40.359375
2932,-17.35,2021-12-17 16:12:40.375000
2933,-32.62,2021-12-17 16:12:40.390625
2934,-47.87,2021-12-17 16:12:40.406250
2935,-61.16,2021-12-17 16:12:40.421875
2936,-70.75,2021-12-17 16:12:40.437500
2937,-75.45,2021-12-17 16:12:40.453125
2938,-74.7,2021-12-17 16:12:40.468750
2939,-68.41,2021-12-17 16:12:40.484375
2940,-56.89,2021-12-17 16:12:40.500000
2941,-40.84,2021-12-17 16:12:40.515625
2942,-21.52,2021-12-17 16:12:40.531250
2943,-0.79,2021-12-17 16:12:40.546875
2944,19.1,2021-12-17 16:12:40.562500
2945,36.18,2021-12-17 16:12:40.578125
2946,49.33,2021-12-17 16:12:40.593750
2947,58.75,2021-12-17 16:12:40.609375
2948,65.73,2021-12-17 16:12:40.625000
2949,71.95,2021-12-17 16:12:40.640625
2950,78.65,2021-12-17 16:12:40.656250
2951,86.01,2021-12-17 16:12:40.671875
2952,93.2,2021-12-17 16:12:40.687500
2953,98.85,2021-12-17 16:12:40.703125
2954,101.71,2021-12-17 16:12:40.718750
2955,101.1,2021-12-17 16:12:40.734375
2956,96.93,2021-12-17 16:12:40.750000
2957,89.49,2021-12-17 16:12:40.765625
2958,79.12,2021-12-17 16:12:40.781250
2959,66.16,2021-12-17 16:12:40.796875
2960,51.11,2021-12-17 16:12:40.812500
2961,34.81,2021-12-17 16:12:40.828125
2962,18.48,2021-12-17 16:12:40.843750
2963,3.56,2021-12-17 16:12:40.859375
2964,-8.7,2021-12-17 16:12:40.875000
2965,-17.59,2021-12-17 16:12:40.890625
2966,-22.98,2021-12-17 16:12:40.906250
2967,-25.16,2021-12-17 16:12:40.921875
2968,-24.55,2021-12-17 16:12:40.937500
2969,-21.43,2021-12-17 16:12:40.953125
2970,-15.96,2021-12-17 16:12:40.968750
2971,-8.35,2021-12-17 16:12:40.984375
2972,0.85,2021-12-17 16:12:41.000000
2973,10.64,2021-12-17 16:12:41.015625
2974,19.68,2021-12-17 16:12:41.031250
2975,26.62,2021-12-17 16:12:41.046875
2976,30.5,2021-12-17 16:12:41.062500
2977,31.01,2021-12-17 16:12:41.078125
2978,28.59,2021-12-17 16:12:41.093750
2979,24.26,2021-12-17 16:12:41.109375
2980,19.21,2021-12-17 16:12:41.125000
2981,14.48,2021-12-17 16:12:41.140625
2982,10.56,2021-12-17 16:12:41.156250
2983,7.28,2021-12-17 16:12:41.171875
2984,3.79,2021-12-17 16:12:41.187500
2985,-1.21,2021-12-17 16:12:41.203125
2986,-9.13,2021-12-17 16:12:41.218750
2987,-20.98,2021-12-17 16:12:41.234375
2988,-36.93,2021-12-17 16:12:41.250000
2989,-56.03,2021-12-17 16:12:41.265625
2990,-76.27,2021-12-17 16:12:41.281250
2991,-94.96,2021-12-17 16:12:41.296875
2992,-109.31,2021-12-17 16:12:41.312500
2993,-117.11,2021-12-17 16:12:41.328125
2994,-117.12,2021-12-17 16:12:41.343750
2995,-109.3,2021-12-17 16:12:41.359375
2996,-94.7,2021-12-17 16:12:41.375000
2997,-75.32,2021-12-17 16:12:41.390625
2998,-53.68,2021-12-17 16:12:41.406250
2999,-32.43,2021-12-17 16:12:41.421875
3000,-13.91,2021-12-17 16:12:41.437500
3001,0.37,2021-12-17 16:12:41.453125
3002,9.92,2021-12-17 16:12:41.468750
3003,15.32,2021-12-17 16:12:41.484375
3004,17.81,2021-12-17 16:12:41.500000
3005,18.85,2021-12-17 16:12:41.515625
3006,19.58,2021-12-17 16:12:41.531250
3007,20.58,2021-12-17 16:12:41.546875
3008,21.8,2021-12-17 16:12:41.562500
3009,22.78,2021-12-17 16:12:41.578125
3010,23.05,2021-12-17 16:12:41.593750
3011,22.33,2021-12-17 16:12:41.609375
3012,20.67,2021-12-17 16:12:41.625000
3013,18.38,2021-12-17 16:12:41.640625
3014,15.85,2021-12-17 16:12:41.656250
3015,13.41,2021-12-17 16:12:41.671875
3016,11.17,2021-12-17 16:12:41.687500
3017,9.16,2021-12-17 16:12:41.703125
3018,7.35,2021-12-17 16:12:41.718750
3019,5.81,2021-12-17 16:12:41.734375
3020,4.69,2021-12-17 16:12:41.750000
3021,4.16,2021-12-17 16:12:41.765625
3022,4.28,2021-12-17 16:12:41.781250
3023,4.86,2021-12-17 16:12:41.796875
3024,5.49,2021-12-17 16:12:41.812500
3025,5.65,2021-12-17 16:12:41.828125
3026,4.94,2021-12-17 16:12:41.843750
3027,3.22,2021-12-17 16:12:41.859375
3028,0.76,2021-12-17 16:12:41.875000
3029,-1.94,2021-12-17 16:12:41.890625
3030,-4.25,2021-12-17 16:12:41.906250
3031,-5.66,2021-12-17 16:12:41.921875
3032,-5.91,2021-12-17 16:12:41.937500
3033,-5.02,2021-12-17 16:12:41.953125
3034,-3.18,2021-12-17 16:12:41.968750
3035,-0.62,2021-12-17 16:12:41.984375
3036,2.53,2021-12-17 16:12:42.000000
3037,6.14,2021-12-17 16:12:42.015625
3038,9.98,2021-12-17 16:12:42.031250
3039,13.68,2021-12-17 16:12:42.046875
3040,16.75,2021-12-17 16:12:42.062500
3041,18.76,2021-12-17 16:12:42.078125
3042,19.5,2021-12-17 16:12:42.093750
3043,19.13,2021-12-17 16:12:42.109375
3044,17.96,2021-12-17 16:12:42.125000
3045,16.35,2021-12-17 16:12:42.140625
3046,14.5,2021-12-17 16:12:42.156250
3047,12.41,2021-12-17 16:12:42.171875
3048,10.03,2021-12-17 16:12:42.187500
3049,7.4,2021-12-17 16:12:42.203125
3050,4.74,2021-12-17 16:12:42.218750
3051,2.32,2021-12-17 16:12:42.234375
3052,0.33,2021-12-17 16:12:42.250000
3053,-1.29,2021-12-17 16:12:42.265625
3054,-2.79,2021-12-17 16:12:42.281250
3055,-4.45,2021-12-17 16:12:42.296875
3056,-6.42,2021-12-17 16:12:42.312500
3057,-8.54,2021-12-17 16:12:42.328125
3058,-10.5,2021-12-17 16:12:42.343750
3059,-11.87,2021-12-17 16:12:42.359375
3060,-12.38,2021-12-17 16:12:42.375000
3061,-11.95,2021-12-17 16:12:42.390625
3062,-10.73,2021-12-17 16:12:42.406250
3063,-8.98,2021-12-17 16:12:42.421875
3064,-6.94,2021-12-17 16:12:42.437500
3065,-4.83,2021-12-17 16:12:42.453125
3066,-2.72,2021-12-17 16:12:42.468750
3067,-0.67,2021-12-17 16:12:42.484375
3068,1.31,2021-12-17 16:12:42.500000
3069,3.11,2021-12-17 16:12:42.515625
3070,4.68,2021-12-17 16:12:42.531250
3071,5.92,2021-12-17 16:12:42.546875
3072,6.86,2021-12-17 16:12:42.562500
3073,7.62,2021-12-17 16:12:42.578125
3074,8.31,2021-12-17 16:12:42.593750
3075,9.06,2021-12-17 16:12:42.609375
3076,9.85,2021-12-17 16:12:42.625000
3077,10.56,2021-12-17 16:12:42.640625
3078,11.08,2021-12-17 16:12:42.656250
3079,11.37,2021-12-17 16:12:42.671875
3080,11.49,2021-12-17 16:12:42.687500
3081,11.56,2021-12-17 16:12:42.703125
3082,11.63,2021-12-17 16:12:42.718750
3083,11.59,2021-12-17 16:12:42.734375
3084,11.26,2021-12-17 16:12:42.750000
3085,10.46,2021-12-17 16:12:42.765625
3086,9.13,2021-12-17 16:12:42.781250
3087,7.38,2021-12-17 16:12:42.796875
3088,5.4,2021-12-17 16:12:42.812500
3089,3.42,2021-12-17 16:12:42.828125
3090,1.59,2021-12-17 16:12:42.843750
3091,0.0,2021-12-17 16:12:42.859375
3092,-1.27,2021-12-17 16:12:42.875000
3093,-2.1,2021-12-17 16:12:42.890625
3094,-2.4,2021-12-17 16:12:42.906250
3095,-2.21,2021-12-17 16:12:42.921875
3096,-1.71,2021-12-17 16:12:42.937500
3097,-1.31,2021-12-17 16:12:42.953125
3098,-1.46,2021-12-17 16:12:42.968750
3099,-2.55,2021-12-17 16:12:42.984375
3100,-4.78,2021-12-17 16:12:43.000000
3101,-8.11,2021-12-17 16:12:43.015625
3102,-12.32,2021-12-17 16:12:43.031250
3103,-17.05,2021-12-17 16:12:43.046875
3104,-21.87,2021-12-17 16:12:43.062500
3105,-26.35,2021-12-17 16:12:43.078125
3106,-30.15,2021-12-17 16:12:43.093750
3107,-33.04,2021-12-17 16:12:43.109375
3108,-34.95,2021-12-17 16:12:43.125000
3109,-36.04,2021-12-17 16:12:43.140625
3110,-36.57,2021-12-17 16:12:43.156250
3111,-36.79,2021-12-17 16:12:43.171875
3112,-36.82,2021-12-17 16:12:43.187500
3113,-36.52,2021-12-17 16:12:43.203125
3114,-35.51,2021-12-17 16:12:43.218750
3115,-33.38,2021-12-17 16:12:43.234375
3116,-29.81,2021-12-17 16:12:43.250000
3117,-24.83,2021-12-17 16:12:43.265625
3118,-18.87,2021-12-17 16:12:43.281250
3119,-12.6,2021-12-17 16:12:43.296875
3120,-6.73,2021-12-17 16:12:43.312500
3121,-1.86,2021-12-17 16:12:43.328125
3122,1.68,2021-12-17 16:12:43.343750
3123,3.74,2021-12-17 16:12:43.359375
3124,4.31,2021-12-17 16:12:43.375000
3125,3.48,2021-12-17 16:12:43.390625
3126,1.4,2021-12-17 16:12:43.406250
3127,-1.6,2021-12-17 16:12:43.421875
3128,-4.95,2021-12-17 16:12:43.437500
3129,-8.0,2021-12-17 16:12:43.453125
3130,-10.13,2021-12-17 16:12:43.468750
3131,-10.95,2021-12-17 16:12:43.484375
3132,-10.46,2021-12-17 16:12:43.500000
3133,-8.98,2021-12-17 16:12:43.515625
3134,-6.99,2021-12-17 16:12:43.531250
3135,-4.96,2021-12-17 16:12:43.546875
3136,-3.22,2021-12-17 16:12:43.562500
3137,-1.86,2021-12-17 16:12:43.578125
3138,-0.87,2021-12-17 16:12:43.593750
3139,-0.15,2021-12-17 16:12:43.609375
3140,0.45,2021-12-17 16:12:43.625000
3141,1.05,2021-12-17 16:12:43.640625
3142,1.73,2021-12-17 16:12:43.656250
3143,2.51,2021-12-17 16:12:43.671875
3144,3.31,2021-12-17 16:12:43.687500
3145,3.99,2021-12-17 16:12:43.703125
3146,4.41,2021-12-17 16:12:43.718750
3147,4.48,2021-12-17 16:12:43.734375
3148,4.11,2021-12-17 16:12:43.750000
3149,3.23,2021-12-17 16:12:43.765625
3150,1.69,2021-12-17 16:12:43.781250
3151,-0.72,2021-12-17 16:12:43.796875
3152,-4.2,2021-12-17 16:12:43.812500
3153,-8.81,2021-12-17 16:12:43.828125
3154,-14.37,2021-12-17 16:12:43.843750
3155,-20.41,2021-12-17 16:12:43.859375
3156,-26.15,2021-12-17 16:12:43.875000
3157,-30.73,2021-12-17 16:12:43.890625
3158,-33.34,2021-12-17 16:12:43.906250
3159,-33.49,2021-12-17 16:12:43.921875
3160,-31.07,2021-12-17 16:12:43.937500
3161,-26.37,2021-12-17 16:12:43.953125
3162,-19.96,2021-12-17 16:12:43.968750
3163,-12.56,2021-12-17 16:12:43.984375
3164,-4.85,2021-12-17 16:12:44.000000
3165,2.53,2021-12-17 16:12:44.015625
3166,9.06,2021-12-17 16:12:44.031250
3167,14.31,2021-12-17 16:12:44.046875
3168,17.95,2021-12-17 16:12:44.062500
3169,19.83,2021-12-17 16:12:44.078125
3170,20.06,2021-12-17 16:12:44.093750
3171,18.99,2021-12-17 16:12:44.109375
3172,17.17,2021-12-17 16:12:44.125000
3173,15.17,2021-12-17 16:12:44.140625
3174,13.4,2021-12-17 16:12:44.156250
3175,12.0,2021-12-17 16:12:44.171875
3176,10.92,2021-12-17 16:12:44.187500
3177,10.05,2021-12-17 16:12:44.203125
3178,9.33,2021-12-17 16:12:44.218750
3179,8.86,2021-12-17 16:12:44.234375
3180,8.8,2021-12-17 16:12:44.250000
3181,9.32,2021-12-17 16:12:44.265625
3182,10.47,2021-12-17 16:12:44.281250
3183,12.09,2021-12-17 16:12:44.296875
3184,13.87,2021-12-17 16:12:44.312500
3185,15.42,2021-12-17 16:12:44.328125
3186,16.39,2021-12-17 16:12:44.343750
3187,16.56,2021-12-17 16:12:44.359375
3188,15.93,2021-12-17 16:12:44.375000
3189,14.69,2021-12-17 16:12:44.390625
3190,13.12,2021-12-17 16:12:44.406250
3191,11.53,2021-12-17 16:12:44.421875
