,BVP,time
0,-81.65,2022-10-28 16:08:43.921875
1,-75.2,2022-10-28 16:08:43.937500
2,-67.5,2022-10-28 16:08:43.953125
3,-60.79,2022-10-28 16:08:43.968750
4,-56.5,2022-10-28 16:08:43.984375
5,-54.83,2022-10-28 16:08:44.000000
6,-54.92,2022-10-28 16:08:44.015625
7,-55.57,2022-10-28 16:08:44.031250
8,-56.11,2022-10-28 16:08:44.046875
9,-56.8,2022-10-28 16:08:44.062500
10,-58.71,2022-10-28 16:08:44.078125
11,-62.89,2022-10-28 16:08:44.093750
12,-69.5,2022-10-28 16:08:44.109375
13,-77.27,2022-10-28 16:08:44.125000
14,-83.36,2022-10-28 16:08:44.140625
15,-83.89,2022-10-28 16:08:44.156250
16,-74.57,2022-10-28 16:08:44.171875
17,-51.28,2022-10-28 16:08:44.187500
18,-10.54,2022-10-28 16:08:44.203125
19,49.68,2022-10-28 16:08:44.218750
20,128.69,2022-10-28 16:08:44.234375
21,222.02,2022-10-28 16:08:44.250000
22,321.14,2022-10-28 16:08:44.265625
23,414.83,2022-10-28 16:08:44.281250
24,491.99,2022-10-28 16:08:44.296875
25,544.98,2022-10-28 16:08:44.312500
26,571.7,2022-10-28 16:08:44.328125
27,575.62,2022-10-28 16:08:44.343750
28,563.67,2022-10-28 16:08:44.359375
29,543.16,2022-10-28 16:08:44.375000
30,519.39,2022-10-28 16:08:44.390625
31,494.84,2022-10-28 16:08:44.406250
32,470.0,2022-10-28 16:08:44.421875
33,444.76,2022-10-28 16:08:44.437500
34,419.28,2022-10-28 16:08:44.453125
35,393.95,2022-10-28 16:08:44.468750
36,368.65,2022-10-28 16:08:44.484375
37,342.31,2022-10-28 16:08:44.500000
38,313.19,2022-10-28 16:08:44.515625
39,279.84,2022-10-28 16:08:44.531250
40,242.01,2022-10-28 16:08:44.546875
41,201.06,2022-10-28 16:08:44.562500
42,159.36,2022-10-28 16:08:44.578125
43,119.37,2022-10-28 16:08:44.593750
44,82.51,2022-10-28 16:08:44.609375
45,48.6,2022-10-28 16:08:44.625000
46,16.23,2022-10-28 16:08:44.640625
47,-16.37,2022-10-28 16:08:44.656250
48,-50.27,2022-10-28 16:08:44.671875
49,-85.23,2022-10-28 16:08:44.687500
50,-119.82,2022-10-28 16:08:44.703125
51,-152.0,2022-10-28 16:08:44.718750
52,-180.2,2022-10-28 16:08:44.734375
53,-204.09,2022-10-28 16:08:44.750000
54,-224.91,2022-10-28 16:08:44.765625
55,-245.31,2022-10-28 16:08:44.781250
56,-268.82,2022-10-28 16:08:44.796875
57,-298.98,2022-10-28 16:08:44.812500
58,-338.01,2022-10-28 16:08:44.828125
59,-385.38,2022-10-28 16:08:44.843750
60,-436.88,2022-10-28 16:08:44.859375
61,-484.75,2022-10-28 16:08:44.875000
62,-519.39,2022-10-28 16:08:44.890625
63,-532.08,2022-10-28 16:08:44.906250
64,-517.87,2022-10-28 16:08:44.921875
65,-477.12,2022-10-28 16:08:44.937500
66,-415.31,2022-10-28 16:08:44.953125
67,-341.27,2022-10-28 16:08:44.968750
68,-264.93,2022-10-28 16:08:44.984375
69,-195.37,2022-10-28 16:08:45.000000
70,-139.62,2022-10-28 16:08:45.015625
71,-102.04,2022-10-28 16:08:45.031250
72,-83.97,2022-10-28 16:08:45.046875
73,-83.53,2022-10-28 16:08:45.062500
74,-96.25,2022-10-28 16:08:45.078125
75,-116.22,2022-10-28 16:08:45.093750
76,-137.72,2022-10-28 16:08:45.109375
77,-156.66,2022-10-28 16:08:45.125000
78,-170.95,2022-10-28 16:08:45.140625
79,-179.85,2022-10-28 16:08:45.156250
80,-183.12,2022-10-28 16:08:45.171875
81,-180.69,2022-10-28 16:08:45.187500
82,-173.09,2022-10-28 16:08:45.203125
83,-161.86,2022-10-28 16:08:45.218750
84,-149.55,2022-10-28 16:08:45.234375
85,-138.62,2022-10-28 16:08:45.250000
86,-130.05,2022-10-28 16:08:45.265625
87,-122.58,2022-10-28 16:08:45.281250
88,-113.36,2022-10-28 16:08:45.296875
89,-99.89,2022-10-28 16:08:45.312500
90,-81.52,2022-10-28 16:08:45.328125
91,-59.5,2022-10-28 16:08:45.343750
92,-35.5,2022-10-28 16:08:45.359375
93,-9.76,2022-10-28 16:08:45.375000
94,19.83,2022-10-28 16:08:45.390625
95,56.31,2022-10-28 16:08:45.406250
96,101.2,2022-10-28 16:08:45.421875
97,152.12,2022-10-28 16:08:45.437500
98,202.83,2022-10-28 16:08:45.453125
99,245.53,2022-10-28 16:08:45.468750
100,274.59,2022-10-28 16:08:45.484375
101,289.53,2022-10-28 16:08:45.500000
102,295.08,2022-10-28 16:08:45.515625
103,298.62,2022-10-28 16:08:45.531250
104,306.02,2022-10-28 16:08:45.546875
105,318.61,2022-10-28 16:08:45.562500
106,332.2,2022-10-28 16:08:45.578125
107,339.14,2022-10-28 16:08:45.593750
108,331.89,2022-10-28 16:08:45.609375
109,306.36,2022-10-28 16:08:45.625000
110,263.78,2022-10-28 16:08:45.640625
111,210.45,2022-10-28 16:08:45.656250
112,155.9,2022-10-28 16:08:45.671875
113,110.08,2022-10-28 16:08:45.687500
114,80.57,2022-10-28 16:08:45.703125
115,70.5,2022-10-28 16:08:45.718750
116,77.64,2022-10-28 16:08:45.734375
117,95.04,2022-10-28 16:08:45.750000
118,112.9,2022-10-28 16:08:45.765625
119,121.27,2022-10-28 16:08:45.781250
120,112.78,2022-10-28 16:08:45.796875
121,84.55,2022-10-28 16:08:45.812500
122,38.68,2022-10-28 16:08:45.828125
123,-18.7,2022-10-28 16:08:45.843750
124,-79.39,2022-10-28 16:08:45.859375
125,-135.36,2022-10-28 16:08:45.875000
126,-180.4,2022-10-28 16:08:45.890625
127,-211.07,2022-10-28 16:08:45.906250
128,-226.6,2022-10-28 16:08:45.921875
129,-228.32,2022-10-28 16:08:45.937500
130,-218.78,2022-10-28 16:08:45.953125
131,-201.13,2022-10-28 16:08:45.968750
132,-178.68,2022-10-28 16:08:45.984375
133,-154.52,2022-10-28 16:08:46.000000
134,-131.2,2022-10-28 16:08:46.015625
135,-110.13,2022-10-28 16:08:46.031250
136,-91.33,2022-10-28 16:08:46.046875
137,-73.37,2022-10-28 16:08:46.062500
138,-54.0,2022-10-28 16:08:46.078125
139,-31.39,2022-10-28 16:08:46.093750
140,-5.41,2022-10-28 16:08:46.109375
141,21.68,2022-10-28 16:08:46.125000
142,45.61,2022-10-28 16:08:46.140625
143,61.47,2022-10-28 16:08:46.156250
144,65.59,2022-10-28 16:08:46.171875
145,56.88,2022-10-28 16:08:46.187500
146,37.29,2022-10-28 16:08:46.203125
147,11.13,2022-10-28 16:08:46.218750
148,-16.62,2022-10-28 16:08:46.234375
149,-41.81,2022-10-28 16:08:46.250000
150,-62.33,2022-10-28 16:08:46.265625
151,-78.57,2022-10-28 16:08:46.281250
152,-92.89,2022-10-28 16:08:46.296875
153,-108.8,2022-10-28 16:08:46.312500
154,-130.28,2022-10-28 16:08:46.328125
155,-161.0,2022-10-28 16:08:46.343750
156,-203.47,2022-10-28 16:08:46.359375
157,-257.99,2022-10-28 16:08:46.375000
158,-321.36,2022-10-28 16:08:46.390625
159,-386.56,2022-10-28 16:08:46.406250
160,-443.78,2022-10-28 16:08:46.421875
161,-482.95,2022-10-28 16:08:46.437500
162,-496.8,2022-10-28 16:08:46.453125
163,-483.11,2022-10-28 16:08:46.468750
164,-445.24,2022-10-28 16:08:46.484375
165,-390.84,2022-10-28 16:08:46.500000
166,-329.32,2022-10-28 16:08:46.515625
167,-269.01,2022-10-28 16:08:46.531250
168,-215.17,2022-10-28 16:08:46.546875
169,-169.24,2022-10-28 16:08:46.562500
170,-129.53,2022-10-28 16:08:46.578125
171,-92.97,2022-10-28 16:08:46.593750
172,-57.19,2022-10-28 16:08:46.609375
173,-22.03,2022-10-28 16:08:46.625000
174,10.33,2022-10-28 16:08:46.640625
175,36.49,2022-10-28 16:08:46.656250
176,53.95,2022-10-28 16:08:46.671875
177,62.71,2022-10-28 16:08:46.687500
178,65.53,2022-10-28 16:08:46.703125
179,66.55,2022-10-28 16:08:46.718750
180,68.87,2022-10-28 16:08:46.734375
181,73.17,2022-10-28 16:08:46.750000
182,77.76,2022-10-28 16:08:46.765625
183,80.24,2022-10-28 16:08:46.781250
184,79.45,2022-10-28 16:08:46.796875
185,76.43,2022-10-28 16:08:46.812500
186,73.66,2022-10-28 16:08:46.828125
187,73.43,2022-10-28 16:08:46.843750
188,76.42,2022-10-28 16:08:46.859375
189,81.24,2022-10-28 16:08:46.875000
190,85.38,2022-10-28 16:08:46.890625
191,86.56,2022-10-28 16:08:46.906250
192,83.91,2022-10-28 16:08:46.921875
193,78.25,2022-10-28 16:08:46.937500
194,71.45,2022-10-28 16:08:46.953125
195,65.47,2022-10-28 16:08:46.968750
196,61.58,2022-10-28 16:08:46.984375
197,59.96,2022-10-28 16:08:47.000000
198,59.83,2022-10-28 16:08:47.015625
199,59.93,2022-10-28 16:08:47.031250
200,59.07,2022-10-28 16:08:47.046875
201,56.52,2022-10-28 16:08:47.062500
202,52.3,2022-10-28 16:08:47.078125
203,47.13,2022-10-28 16:08:47.093750
204,42.14,2022-10-28 16:08:47.109375
205,38.49,2022-10-28 16:08:47.125000
206,36.87,2022-10-28 16:08:47.140625
207,37.09,2022-10-28 16:08:47.156250
208,38.13,2022-10-28 16:08:47.171875
209,38.55,2022-10-28 16:08:47.187500
210,37.18,2022-10-28 16:08:47.203125
211,33.58,2022-10-28 16:08:47.218750
212,28.11,2022-10-28 16:08:47.234375
213,21.7,2022-10-28 16:08:47.250000
214,15.44,2022-10-28 16:08:47.265625
215,10.12,2022-10-28 16:08:47.281250
216,5.96,2022-10-28 16:08:47.296875
217,2.65,2022-10-28 16:08:47.312500
218,-0.55,2022-10-28 16:08:47.328125
219,-4.2,2022-10-28 16:08:47.343750
220,-8.49,2022-10-28 16:08:47.359375
221,-12.97,2022-10-28 16:08:47.375000
222,-16.47,2022-10-28 16:08:47.390625
223,-17.33,2022-10-28 16:08:47.406250
224,-14.06,2022-10-28 16:08:47.421875
225,-6.06,2022-10-28 16:08:47.437500
226,6.38,2022-10-28 16:08:47.453125
227,22.06,2022-10-28 16:08:47.468750
228,39.59,2022-10-28 16:08:47.484375
229,57.57,2022-10-28 16:08:47.500000
230,74.62,2022-10-28 16:08:47.515625
231,88.82,2022-10-28 16:08:47.531250
232,97.88,2022-10-28 16:08:47.546875
233,99.58,2022-10-28 16:08:47.562500
234,92.57,2022-10-28 16:08:47.578125
235,77.49,2022-10-28 16:08:47.593750
236,56.77,2022-10-28 16:08:47.609375
237,34.34,2022-10-28 16:08:47.625000
238,15.69,2022-10-28 16:08:47.640625
239,5.14,2022-10-28 16:08:47.656250
240,2.83,2022-10-28 16:08:47.671875
241,5.37,2022-10-28 16:08:47.687500
242,8.6,2022-10-28 16:08:47.703125
243,9.55,2022-10-28 16:08:47.718750
244,6.69,2022-10-28 16:08:47.734375
245,-2.16,2022-10-28 16:08:47.750000
246,-19.58,2022-10-28 16:08:47.765625
247,-47.93,2022-10-28 16:08:47.781250
248,-86.81,2022-10-28 16:08:47.796875
249,-132.91,2022-10-28 16:08:47.812500
250,-179.97,2022-10-28 16:08:47.828125
251,-220.4,2022-10-28 16:08:47.843750
252,-248.25,2022-10-28 16:08:47.859375
253,-255.44,2022-10-28 16:08:47.875000
254,-239.86,2022-10-28 16:08:47.890625
255,-205.99,2022-10-28 16:08:47.906250
256,-161.93,2022-10-28 16:08:47.921875
257,-114.4,2022-10-28 16:08:47.937500
258,-66.79,2022-10-28 16:08:47.953125
259,-17.84,2022-10-28 16:08:47.968750
260,36.85,2022-10-28 16:08:47.984375
261,98.17,2022-10-28 16:08:48.000000
262,159.62,2022-10-28 16:08:48.015625
263,218.8,2022-10-28 16:08:48.031250
264,271.65,2022-10-28 16:08:48.046875
265,306.34,2022-10-28 16:08:48.062500
266,315.52,2022-10-28 16:08:48.078125
267,297.09,2022-10-28 16:08:48.093750
268,253.93,2022-10-28 16:08:48.109375
269,191.8,2022-10-28 16:08:48.125000
270,117.14,2022-10-28 16:08:48.140625
271,36.39,2022-10-28 16:08:48.156250
272,-43.67,2022-10-28 16:08:48.171875
273,-116.36,2022-10-28 16:08:48.187500
274,-174.41,2022-10-28 16:08:48.203125
275,-210.14,2022-10-28 16:08:48.218750
276,-219.22,2022-10-28 16:08:48.234375
277,-202.68,2022-10-28 16:08:48.250000
278,-166.87,2022-10-28 16:08:48.265625
279,-121.48,2022-10-28 16:08:48.281250
280,-75.99,2022-10-28 16:08:48.296875
281,-37.29,2022-10-28 16:08:48.312500
282,-9.65,2022-10-28 16:08:48.328125
283,5.89,2022-10-28 16:08:48.343750
284,12.07,2022-10-28 16:08:48.359375
285,13.42,2022-10-28 16:08:48.375000
286,15.12,2022-10-28 16:08:48.390625
287,22.16,2022-10-28 16:08:48.406250
288,38.29,2022-10-28 16:08:48.421875
289,65.63,2022-10-28 16:08:48.437500
290,103.73,2022-10-28 16:08:48.453125
291,148.51,2022-10-28 16:08:48.468750
292,192.86,2022-10-28 16:08:48.484375
293,228.13,2022-10-28 16:08:48.500000
294,245.75,2022-10-28 16:08:48.515625
295,239.67,2022-10-28 16:08:48.531250
296,208.61,2022-10-28 16:08:48.546875
297,156.46,2022-10-28 16:08:48.562500
298,90.91,2022-10-28 16:08:48.578125
299,20.83,2022-10-28 16:08:48.593750
300,-46.2,2022-10-28 16:08:48.609375
301,-104.32,2022-10-28 16:08:48.625000
302,-148.5,2022-10-28 16:08:48.640625
303,-174.31,2022-10-28 16:08:48.656250
304,-178.45,2022-10-28 16:08:48.671875
305,-160.15,2022-10-28 16:08:48.687500
306,-122.37,2022-10-28 16:08:48.703125
307,-71.3,2022-10-28 16:08:48.718750
308,-14.46,2022-10-28 16:08:48.734375
309,42.12,2022-10-28 16:08:48.750000
310,95.77,2022-10-28 16:08:48.765625
311,147.19,2022-10-28 16:08:48.781250
312,198.74,2022-10-28 16:08:48.796875
313,252.75,2022-10-28 16:08:48.812500
314,310.55,2022-10-28 16:08:48.828125
315,372.31,2022-10-28 16:08:48.843750
316,436.99,2022-10-28 16:08:48.859375
317,501.74,2022-10-28 16:08:48.875000
318,561.18,2022-10-28 16:08:48.890625
319,607.91,2022-10-28 16:08:48.906250
320,634.48,2022-10-28 16:08:48.921875
321,636.31,2022-10-28 16:08:48.937500
322,613.86,2022-10-28 16:08:48.953125
323,572.8,2022-10-28 16:08:48.968750
324,521.73,2022-10-28 16:08:48.984375
325,468.84,2022-10-28 16:08:49.000000
326,419.24,2022-10-28 16:08:49.015625
327,374.07,2022-10-28 16:08:49.031250
328,331.88,2022-10-28 16:08:49.046875
329,290.68,2022-10-28 16:08:49.062500
330,249.61,2022-10-28 16:08:49.078125
331,209.17,2022-10-28 16:08:49.093750
332,170.36,2022-10-28 16:08:49.109375
333,133.65,2022-10-28 16:08:49.125000
334,98.53,2022-10-28 16:08:49.140625
335,63.85,2022-10-28 16:08:49.156250
336,28.54,2022-10-28 16:08:49.171875
337,-7.63,2022-10-28 16:08:49.187500
338,-43.95,2022-10-28 16:08:49.203125
339,-78.68,2022-10-28 16:08:49.218750
340,-109.69,2022-10-28 16:08:49.234375
341,-134.99,2022-10-28 16:08:49.250000
342,-153.3,2022-10-28 16:08:49.265625
343,-164.32,2022-10-28 16:08:49.281250
344,-169.01,2022-10-28 16:08:49.296875
345,-169.34,2022-10-28 16:08:49.312500
346,-167.8,2022-10-28 16:08:49.328125
347,-166.73,2022-10-28 16:08:49.343750
348,-167.57,2022-10-28 16:08:49.359375
349,-170.56,2022-10-28 16:08:49.375000
350,-174.81,2022-10-28 16:08:49.390625
351,-179.04,2022-10-28 16:08:49.406250
352,-182.28,2022-10-28 16:08:49.421875
353,-184.64,2022-10-28 16:08:49.437500
354,-187.49,2022-10-28 16:08:49.453125
355,-192.76,2022-10-28 16:08:49.468750
356,-202.44,2022-10-28 16:08:49.484375
357,-218.06,2022-10-28 16:08:49.500000
358,-240.63,2022-10-28 16:08:49.515625
359,-270.56,2022-10-28 16:08:49.531250
360,-307.05,2022-10-28 16:08:49.546875
361,-346.87,2022-10-28 16:08:49.562500
362,-383.55,2022-10-28 16:08:49.578125
363,-408.3,2022-10-28 16:08:49.593750
364,-412.87,2022-10-28 16:08:49.609375
365,-393.38,2022-10-28 16:08:49.625000
366,-352.64,2022-10-28 16:08:49.640625
367,-299.38,2022-10-28 16:08:49.656250
368,-244.45,2022-10-28 16:08:49.671875
369,-196.3,2022-10-28 16:08:49.687500
370,-158.2,2022-10-28 16:08:49.703125
371,-128.96,2022-10-28 16:08:49.718750
372,-106.22,2022-10-28 16:08:49.734375
373,-89.85,2022-10-28 16:08:49.750000
374,-83.15,2022-10-28 16:08:49.765625
375,-91.28,2022-10-28 16:08:49.781250
376,-118.29,2022-10-28 16:08:49.796875
377,-164.43,2022-10-28 16:08:49.812500
378,-225.28,2022-10-28 16:08:49.828125
379,-292.6,2022-10-28 16:08:49.843750
380,-356.28,2022-10-28 16:08:49.859375
381,-406.44,2022-10-28 16:08:49.875000
382,-435.43,2022-10-28 16:08:49.890625
383,-439.6,2022-10-28 16:08:49.906250
384,-420.07,2022-10-28 16:08:49.921875
385,-382.41,2022-10-28 16:08:49.937500
386,-334.51,2022-10-28 16:08:49.953125
387,-283.67,2022-10-28 16:08:49.968750
388,-234.35,2022-10-28 16:08:49.984375
389,-187.64,2022-10-28 16:08:50.000000
390,-142.56,2022-10-28 16:08:50.015625
391,-98.27,2022-10-28 16:08:50.031250
392,-55.18,2022-10-28 16:08:50.046875
393,-14.6,2022-10-28 16:08:50.062500
394,22.23,2022-10-28 16:08:50.078125
395,55.34,2022-10-28 16:08:50.093750
396,85.7,2022-10-28 16:08:50.109375
397,113.94,2022-10-28 16:08:50.125000
398,139.15,2022-10-28 16:08:50.140625
399,158.68,2022-10-28 16:08:50.156250
400,169.43,2022-10-28 16:08:50.171875
401,169.49,2022-10-28 16:08:50.187500
402,159.54,2022-10-28 16:08:50.203125
403,142.41,2022-10-28 16:08:50.218750
404,121.55,2022-10-28 16:08:50.234375
405,99.16,2022-10-28 16:08:50.250000
406,75.38,2022-10-28 16:08:50.265625
407,49.55,2022-10-28 16:08:50.281250
408,22.08,2022-10-28 16:08:50.296875
409,-4.17,2022-10-28 16:08:50.312500
410,-24.29,2022-10-28 16:08:50.328125
411,-33.52,2022-10-28 16:08:50.343750
412,-30.07,2022-10-28 16:08:50.359375
413,-16.45,2022-10-28 16:08:50.375000
414,1.64,2022-10-28 16:08:50.390625
415,18.41,2022-10-28 16:08:50.406250
416,31.3,2022-10-28 16:08:50.421875
417,42.57,2022-10-28 16:08:50.437500
418,57.94,2022-10-28 16:08:50.453125
419,82.99,2022-10-28 16:08:50.468750
420,119.31,2022-10-28 16:08:50.484375
421,162.69,2022-10-28 16:08:50.500000
422,204.28,2022-10-28 16:08:50.515625
423,233.67,2022-10-28 16:08:50.531250
424,242.8,2022-10-28 16:08:50.546875
425,228.97,2022-10-28 16:08:50.562500
426,195.56,2022-10-28 16:08:50.578125
427,150.91,2022-10-28 16:08:50.593750
428,105.78,2022-10-28 16:08:50.609375
429,70.28,2022-10-28 16:08:50.625000
430,51.28,2022-10-28 16:08:50.640625
431,51.27,2022-10-28 16:08:50.656250
432,68.57,2022-10-28 16:08:50.671875
433,98.76,2022-10-28 16:08:50.687500
434,136.28,2022-10-28 16:08:50.703125
435,175.59,2022-10-28 16:08:50.718750
436,211.67,2022-10-28 16:08:50.734375
437,239.98,2022-10-28 16:08:50.750000
438,256.52,2022-10-28 16:08:50.765625
439,258.4,2022-10-28 16:08:50.781250
440,244.59,2022-10-28 16:08:50.796875
441,216.43,2022-10-28 16:08:50.812500
442,177.44,2022-10-28 16:08:50.828125
443,131.83,2022-10-28 16:08:50.843750
444,83.03,2022-10-28 16:08:50.859375
445,33.06,2022-10-28 16:08:50.875000
446,-16.86,2022-10-28 16:08:50.890625
447,-63.84,2022-10-28 16:08:50.906250
448,-101.61,2022-10-28 16:08:50.921875
449,-120.81,2022-10-28 16:08:50.937500
450,-112.0,2022-10-28 16:08:50.953125
451,-70.0,2022-10-28 16:08:50.968750
452,2.48,2022-10-28 16:08:50.984375
453,93.98,2022-10-28 16:08:51.000000
454,187.28,2022-10-28 16:08:51.015625
455,264.53,2022-10-28 16:08:51.031250
456,313.15,2022-10-28 16:08:51.046875
457,329.4,2022-10-28 16:08:51.062500
458,317.81,2022-10-28 16:08:51.078125
459,287.58,2022-10-28 16:08:51.093750
460,248.26,2022-10-28 16:08:51.109375
461,206.61,2022-10-28 16:08:51.125000
462,166.1,2022-10-28 16:08:51.140625
463,128.0,2022-10-28 16:08:51.156250
464,92.3,2022-10-28 16:08:51.171875
465,59.51,2022-10-28 16:08:51.187500
466,30.51,2022-10-28 16:08:51.203125
467,5.74,2022-10-28 16:08:51.218750
468,-15.71,2022-10-28 16:08:51.234375
469,-35.99,2022-10-28 16:08:51.250000
470,-57.17,2022-10-28 16:08:51.265625
471,-79.98,2022-10-28 16:08:51.281250
472,-103.34,2022-10-28 16:08:51.296875
473,-127.22,2022-10-28 16:08:51.312500
474,-150.91,2022-10-28 16:08:51.328125
475,-173.45,2022-10-28 16:08:51.343750
476,-194.15,2022-10-28 16:08:51.359375
477,-213.3,2022-10-28 16:08:51.375000
478,-232.13,2022-10-28 16:08:51.390625
479,-252.0,2022-10-28 16:08:51.406250
480,-273.41,2022-10-28 16:08:51.421875
481,-295.92,2022-10-28 16:08:51.437500
482,-322.8,2022-10-28 16:08:51.453125
483,-356.11,2022-10-28 16:08:51.468750
484,-395.62,2022-10-28 16:08:51.484375
485,-439.5,2022-10-28 16:08:51.500000
486,-486.81,2022-10-28 16:08:51.515625
487,-538.53,2022-10-28 16:08:51.531250
488,-595.95,2022-10-28 16:08:51.546875
489,-658.01,2022-10-28 16:08:51.562500
490,-719.53,2022-10-28 16:08:51.578125
491,-778.16,2022-10-28 16:08:51.593750
492,-828.22,2022-10-28 16:08:51.609375
493,-861.44,2022-10-28 16:08:51.625000
494,-870.41,2022-10-28 16:08:51.640625
495,-853.45,2022-10-28 16:08:51.656250
496,-815.78,2022-10-28 16:08:51.671875
497,-766.22,2022-10-28 16:08:51.687500
498,-712.74,2022-10-28 16:08:51.703125
499,-660.05,2022-10-28 16:08:51.718750
500,-618.21,2022-10-28 16:08:51.734375
501,-593.16,2022-10-28 16:08:51.750000
502,-584.49,2022-10-28 16:08:51.765625
503,-586.55,2022-10-28 16:08:51.781250
504,-593.14,2022-10-28 16:08:51.796875
505,-600.57,2022-10-28 16:08:51.812500
506,-607.37,2022-10-28 16:08:51.828125
507,-613.08,2022-10-28 16:08:51.843750
508,-562.24,2022-10-28 16:08:51.859375
509,-430.69,2022-10-28 16:08:51.875000
510,-234.46,2022-10-28 16:08:51.890625
511,-20.26,2022-10-28 16:08:51.906250
512,167.68,2022-10-28 16:08:51.921875
513,308.46,2022-10-28 16:08:51.937500
514,401.95,2022-10-28 16:08:51.953125
515,457.97,2022-10-28 16:08:51.968750
516,488.31,2022-10-28 16:08:51.984375
517,500.7,2022-10-28 16:08:52.000000
518,496.56,2022-10-28 16:08:52.015625
519,475.57,2022-10-28 16:08:52.031250
520,441.06,2022-10-28 16:08:52.046875
521,400.84,2022-10-28 16:08:52.062500
522,363.07,2022-10-28 16:08:52.078125
523,332.87,2022-10-28 16:08:52.093750
524,312.48,2022-10-28 16:08:52.109375
525,303.11,2022-10-28 16:08:52.125000
526,303.1,2022-10-28 16:08:52.140625
527,304.97,2022-10-28 16:08:52.156250
528,303.0,2022-10-28 16:08:52.171875
529,296.52,2022-10-28 16:08:52.187500
530,289.33,2022-10-28 16:08:52.203125
531,285.83,2022-10-28 16:08:52.218750
532,288.4,2022-10-28 16:08:52.234375
533,297.37,2022-10-28 16:08:52.250000
534,312.25,2022-10-28 16:08:52.265625
535,332.69,2022-10-28 16:08:52.281250
536,354.82,2022-10-28 16:08:52.296875
537,375.83,2022-10-28 16:08:52.312500
538,396.42,2022-10-28 16:08:52.328125
539,420.45,2022-10-28 16:08:52.343750
540,452.13,2022-10-28 16:08:52.359375
541,493.02,2022-10-28 16:08:52.375000
542,540.95,2022-10-28 16:08:52.390625
543,589.71,2022-10-28 16:08:52.406250
544,630.67,2022-10-28 16:08:52.421875
545,653.76,2022-10-28 16:08:52.437500
546,652.32,2022-10-28 16:08:52.453125
547,626.21,2022-10-28 16:08:52.468750
548,581.08,2022-10-28 16:08:52.484375
549,525.0,2022-10-28 16:08:52.500000
550,464.51,2022-10-28 16:08:52.515625
551,403.05,2022-10-28 16:08:52.531250
552,341.52,2022-10-28 16:08:52.546875
553,280.1,2022-10-28 16:08:52.562500
554,219.64,2022-10-28 16:08:52.578125
555,162.52,2022-10-28 16:08:52.593750
556,112.19,2022-10-28 16:08:52.609375
557,70.99,2022-10-28 16:08:52.625000
558,38.68,2022-10-28 16:08:52.640625
559,12.26,2022-10-28 16:08:52.656250
560,-12.3,2022-10-28 16:08:52.671875
561,-38.55,2022-10-28 16:08:52.687500
562,-68.48,2022-10-28 16:08:52.703125
563,-102.37,2022-10-28 16:08:52.718750
564,-139.38,2022-10-28 16:08:52.734375
565,-178.4,2022-10-28 16:08:52.750000
566,-219.02,2022-10-28 16:08:52.765625
567,-261.71,2022-10-28 16:08:52.781250
568,-307.68,2022-10-28 16:08:52.796875
569,-357.69,2022-10-28 16:08:52.812500
570,-410.42,2022-10-28 16:08:52.828125
571,-461.38,2022-10-28 16:08:52.843750
572,-503.45,2022-10-28 16:08:52.859375
573,-529.35,2022-10-28 16:08:52.875000
574,-533.97,2022-10-28 16:08:52.890625
575,-516.81,2022-10-28 16:08:52.906250
576,-481.56,2022-10-28 16:08:52.921875
577,-433.8,2022-10-28 16:08:52.937500
578,-377.78,2022-10-28 16:08:52.953125
579,-315.2,2022-10-28 16:08:52.968750
580,-246.87,2022-10-28 16:08:52.984375
581,-174.79,2022-10-28 16:08:53.000000
582,-104.08,2022-10-28 16:08:53.015625
583,-41.92,2022-10-28 16:08:53.031250
584,6.7,2022-10-28 16:08:53.046875
585,42.89,2022-10-28 16:08:53.062500
586,74.38,2022-10-28 16:08:53.078125
587,111.16,2022-10-28 16:08:53.093750
588,158.79,2022-10-28 16:08:53.109375
589,213.29,2022-10-28 16:08:53.125000
590,262.31,2022-10-28 16:08:53.140625
591,291.26,2022-10-28 16:08:53.156250
592,291.32,2022-10-28 16:08:53.171875
593,264.4,2022-10-28 16:08:53.187500
594,222.25,2022-10-28 16:08:53.203125
595,180.39,2022-10-28 16:08:53.218750
596,151.39,2022-10-28 16:08:53.234375
597,140.59,2022-10-28 16:08:53.250000
598,146.21,2022-10-28 16:08:53.265625
599,164.25,2022-10-28 16:08:53.281250
600,191.47,2022-10-28 16:08:53.296875
601,224.88,2022-10-28 16:08:53.312500
602,259.46,2022-10-28 16:08:53.328125
603,286.72,2022-10-28 16:08:53.343750
604,296.85,2022-10-28 16:08:53.359375
605,284.38,2022-10-28 16:08:53.375000
606,251.82,2022-10-28 16:08:53.390625
607,208.62,2022-10-28 16:08:53.406250
608,169.93,2022-10-28 16:08:53.421875
609,150.29,2022-10-28 16:08:53.437500
610,156.24,2022-10-28 16:08:53.453125
611,184.2,2022-10-28 16:08:53.468750
612,223.08,2022-10-28 16:08:53.484375
613,260.23,2022-10-28 16:08:53.500000
614,288.89,2022-10-28 16:08:53.515625
615,307.66,2022-10-28 16:08:53.531250
616,314.98,2022-10-28 16:08:53.546875
617,312.0,2022-10-28 16:08:53.562500
618,301.94,2022-10-28 16:08:53.578125
619,286.6,2022-10-28 16:08:53.593750
620,266.63,2022-10-28 16:08:53.609375
621,242.26,2022-10-28 16:08:53.625000
622,213.36,2022-10-28 16:08:53.640625
623,182.64,2022-10-28 16:08:53.656250
624,151.03,2022-10-28 16:08:53.671875
625,111.24,2022-10-28 16:08:53.687500
626,58.62,2022-10-28 16:08:53.703125
627,-4.26,2022-10-28 16:08:53.718750
628,-70.85,2022-10-28 16:08:53.734375
629,-131.7,2022-10-28 16:08:53.750000
630,-177.29,2022-10-28 16:08:53.765625
631,-201.13,2022-10-28 16:08:53.781250
632,-197.58,2022-10-28 16:08:53.796875
633,-167.04,2022-10-28 16:08:53.812500
634,-122.56,2022-10-28 16:08:53.828125
635,-74.78,2022-10-28 16:08:53.843750
636,-25.99,2022-10-28 16:08:53.859375
637,25.06,2022-10-28 16:08:53.875000
638,81.55,2022-10-28 16:08:53.890625
639,146.07,2022-10-28 16:08:53.906250
640,188.75,2022-10-28 16:08:53.921875
641,185.83,2022-10-28 16:08:53.937500
642,172.73,2022-10-28 16:08:53.953125
643,160.64,2022-10-28 16:08:53.968750
644,130.92,2022-10-28 16:08:53.984375
645,77.72,2022-10-28 16:08:54.000000
646,3.41,2022-10-28 16:08:54.015625
647,-82.03,2022-10-28 16:08:54.031250
648,-164.14,2022-10-28 16:08:54.046875
649,-229.37,2022-10-28 16:08:54.062500
650,-265.51,2022-10-28 16:08:54.078125
651,-269.54,2022-10-28 16:08:54.093750
652,-255.38,2022-10-28 16:08:54.109375
653,-237.44,2022-10-28 16:08:54.125000
654,-222.3,2022-10-28 16:08:54.140625
655,-212.1,2022-10-28 16:08:54.156250
656,-205.33,2022-10-28 16:08:54.171875
657,-200.05,2022-10-28 16:08:54.187500
658,-196.69,2022-10-28 16:08:54.203125
659,-195.23,2022-10-28 16:08:54.218750
660,-197.29,2022-10-28 16:08:54.234375
661,-210.27,2022-10-28 16:08:54.250000
662,-236.06,2022-10-28 16:08:54.265625
663,-268.11,2022-10-28 16:08:54.281250
664,-298.0,2022-10-28 16:08:54.296875
665,-318.35,2022-10-28 16:08:54.312500
666,-325.27,2022-10-28 16:08:54.328125
667,-319.12,2022-10-28 16:08:54.343750
668,-301.45,2022-10-28 16:08:54.359375
669,-275.32,2022-10-28 16:08:54.375000
670,-247.24,2022-10-28 16:08:54.390625
671,-220.06,2022-10-28 16:08:54.406250
672,-191.25,2022-10-28 16:08:54.421875
673,-156.91,2022-10-28 16:08:54.437500
674,-113.86,2022-10-28 16:08:54.453125
675,-61.3,2022-10-28 16:08:54.468750
676,-1.25,2022-10-28 16:08:54.484375
677,63.23,2022-10-28 16:08:54.500000
678,128.03,2022-10-28 16:08:54.515625
679,186.73,2022-10-28 16:08:54.531250
680,233.85,2022-10-28 16:08:54.546875
681,265.98,2022-10-28 16:08:54.562500
682,280.91,2022-10-28 16:08:54.578125
683,278.58,2022-10-28 16:08:54.593750
684,261.79,2022-10-28 16:08:54.609375
685,236.23,2022-10-28 16:08:54.625000
686,209.76,2022-10-28 16:08:54.640625
687,189.83,2022-10-28 16:08:54.656250
688,180.89,2022-10-28 16:08:54.671875
689,184.28,2022-10-28 16:08:54.687500
690,198.4,2022-10-28 16:08:54.703125
691,218.69,2022-10-28 16:08:54.718750
692,238.64,2022-10-28 16:08:54.734375
693,250.45,2022-10-28 16:08:54.750000
694,246.22,2022-10-28 16:08:54.765625
695,219.72,2022-10-28 16:08:54.781250
696,168.76,2022-10-28 16:08:54.796875
697,97.4,2022-10-28 16:08:54.812500
698,16.86,2022-10-28 16:08:54.828125
699,-56.28,2022-10-28 16:08:54.843750
700,-104.59,2022-10-28 16:08:54.859375
701,-115.78,2022-10-28 16:08:54.875000
702,-87.81,2022-10-28 16:08:54.890625
703,-30.61,2022-10-28 16:08:54.906250
704,36.62,2022-10-28 16:08:54.921875
705,91.95,2022-10-28 16:08:54.937500
706,118.47,2022-10-28 16:08:54.953125
707,109.74,2022-10-28 16:08:54.968750
708,71.04,2022-10-28 16:08:54.984375
709,16.03,2022-10-28 16:08:55.000000
710,-38.88,2022-10-28 16:08:55.015625
711,-80.18,2022-10-28 16:08:55.031250
712,-100.31,2022-10-28 16:08:55.046875
713,-98.77,2022-10-28 16:08:55.062500
714,-80.93,2022-10-28 16:08:55.078125
715,-56.29,2022-10-28 16:08:55.093750
716,-35.92,2022-10-28 16:08:55.109375
717,-29.37,2022-10-28 16:08:55.125000
718,-41.59,2022-10-28 16:08:55.140625
719,-70.67,2022-10-28 16:08:55.156250
720,-107.75,2022-10-28 16:08:55.171875
721,-139.31,2022-10-28 16:08:55.187500
722,-151.8,2022-10-28 16:08:55.203125
723,-136.91,2022-10-28 16:08:55.218750
724,-94.86,2022-10-28 16:08:55.234375
725,-34.71,2022-10-28 16:08:55.250000
726,29.25,2022-10-28 16:08:55.265625
727,83.08,2022-10-28 16:08:55.281250
728,117.97,2022-10-28 16:08:55.296875
729,132.16,2022-10-28 16:08:55.312500
730,129.3,2022-10-28 16:08:55.328125
731,114.65,2022-10-28 16:08:55.343750
732,91.34,2022-10-28 16:08:55.359375
733,58.91,2022-10-28 16:08:55.375000
734,15.29,2022-10-28 16:08:55.390625
735,-39.52,2022-10-28 16:08:55.406250
736,-100.31,2022-10-28 16:08:55.421875
737,-156.2,2022-10-28 16:08:55.437500
738,-193.7,2022-10-28 16:08:55.453125
739,-201.73,2022-10-28 16:08:55.468750
740,-176.24,2022-10-28 16:08:55.484375
741,-122.06,2022-10-28 16:08:55.500000
742,-50.99,2022-10-28 16:08:55.515625
743,22.29,2022-10-28 16:08:55.531250
744,84.53,2022-10-28 16:08:55.546875
745,126.61,2022-10-28 16:08:55.562500
746,144.31,2022-10-28 16:08:55.578125
747,137.48,2022-10-28 16:08:55.593750
748,108.81,2022-10-28 16:08:55.609375
749,63.4,2022-10-28 16:08:55.625000
750,8.63,2022-10-28 16:08:55.640625
751,-45.7,2022-10-28 16:08:55.656250
752,-88.71,2022-10-28 16:08:55.671875
753,-110.76,2022-10-28 16:08:55.687500
754,-106.32,2022-10-28 16:08:55.703125
755,-75.89,2022-10-28 16:08:55.718750
756,-26.26,2022-10-28 16:08:55.734375
757,31.15,2022-10-28 16:08:55.750000
758,83.35,2022-10-28 16:08:55.765625
759,119.37,2022-10-28 16:08:55.781250
760,133.04,2022-10-28 16:08:55.796875
761,124.1,2022-10-28 16:08:55.812500
762,97.41,2022-10-28 16:08:55.828125
763,60.94,2022-10-28 16:08:55.843750
764,23.1,2022-10-28 16:08:55.859375
765,-9.6,2022-10-28 16:08:55.875000
766,-33.46,2022-10-28 16:08:55.890625
767,-47.71,2022-10-28 16:08:55.906250
768,-53.88,2022-10-28 16:08:55.921875
769,-54.82,2022-10-28 16:08:55.937500
770,-54.42,2022-10-28 16:08:55.953125
771,-57.23,2022-10-28 16:08:55.968750
772,-67.81,2022-10-28 16:08:55.984375
773,-89.99,2022-10-28 16:08:56.000000
774,-125.56,2022-10-28 16:08:56.015625
775,-173.08,2022-10-28 16:08:56.031250
776,-227.48,2022-10-28 16:08:56.046875
777,-280.96,2022-10-28 16:08:56.062500
778,-324.5,2022-10-28 16:08:56.078125
779,-350.0,2022-10-28 16:08:56.093750
780,-352.6,2022-10-28 16:08:56.109375
781,-332.14,2022-10-28 16:08:56.125000
782,-293.54,2022-10-28 16:08:56.140625
783,-245.55,2022-10-28 16:08:56.156250
784,-198.09,2022-10-28 16:08:56.171875
785,-159.0,2022-10-28 16:08:56.187500
786,-131.88,2022-10-28 16:08:56.203125
787,-115.51,2022-10-28 16:08:56.218750
788,-105.48,2022-10-28 16:08:56.234375
789,-96.72,2022-10-28 16:08:56.250000
790,-85.41,2022-10-28 16:08:56.265625
791,-69.96,2022-10-28 16:08:56.281250
792,-50.27,2022-10-28 16:08:56.296875
793,-26.78,2022-10-28 16:08:56.312500
794,0.11,2022-10-28 16:08:56.328125
795,30.15,2022-10-28 16:08:56.343750
796,63.13,2022-10-28 16:08:56.359375
797,99.08,2022-10-28 16:08:56.375000
798,138.58,2022-10-28 16:08:56.390625
799,182.38,2022-10-28 16:08:56.406250
800,229.99,2022-10-28 16:08:56.421875
801,278.23,2022-10-28 16:08:56.437500
802,320.65,2022-10-28 16:08:56.453125
803,348.79,2022-10-28 16:08:56.468750
804,355.46,2022-10-28 16:08:56.484375
805,337.81,2022-10-28 16:08:56.500000
806,298.42,2022-10-28 16:08:56.515625
807,243.94,2022-10-28 16:08:56.531250
808,182.15,2022-10-28 16:08:56.546875
809,119.19,2022-10-28 16:08:56.562500
810,58.89,2022-10-28 16:08:56.578125
811,3.81,2022-10-28 16:08:56.593750
812,-43.59,2022-10-28 16:08:56.609375
813,-80.8,2022-10-28 16:08:56.625000
814,-106.68,2022-10-28 16:08:56.640625
815,-123.03,2022-10-28 16:08:56.656250
816,-134.52,2022-10-28 16:08:56.671875
817,-146.59,2022-10-28 16:08:56.687500
818,-162.4,2022-10-28 16:08:56.703125
819,-180.68,2022-10-28 16:08:56.718750
820,-196.27,2022-10-28 16:08:56.734375
821,-203.04,2022-10-28 16:08:56.750000
822,-197.1,2022-10-28 16:08:56.765625
823,-178.76,2022-10-28 16:08:56.781250
824,-151.9,2022-10-28 16:08:56.796875
825,-121.42,2022-10-28 16:08:56.812500
826,-90.85,2022-10-28 16:08:56.828125
827,-61.33,2022-10-28 16:08:56.843750
828,-32.41,2022-10-28 16:08:56.859375
829,-3.74,2022-10-28 16:08:56.875000
830,23.7,2022-10-28 16:08:56.890625
831,47.62,2022-10-28 16:08:56.906250
832,65.61,2022-10-28 16:08:56.921875
833,76.52,2022-10-28 16:08:56.937500
834,81.27,2022-10-28 16:08:56.953125
835,82.29,2022-10-28 16:08:56.968750
836,82.15,2022-10-28 16:08:56.984375
837,82.33,2022-10-28 16:08:57.000000
838,82.59,2022-10-28 16:08:57.015625
839,81.32,2022-10-28 16:08:57.031250
840,76.72,2022-10-28 16:08:57.046875
841,67.93,2022-10-28 16:08:57.062500
842,55.7,2022-10-28 16:08:57.078125
843,42.26,2022-10-28 16:08:57.093750
844,30.33,2022-10-28 16:08:57.109375
845,21.9,2022-10-28 16:08:57.125000
846,17.43,2022-10-28 16:08:57.140625
847,15.82,2022-10-28 16:08:57.156250
848,15.31,2022-10-28 16:08:57.171875
849,14.66,2022-10-28 16:08:57.187500
850,14.0,2022-10-28 16:08:57.203125
851,14.8,2022-10-28 16:08:57.218750
852,18.93,2022-10-28 16:08:57.234375
853,27.26,2022-10-28 16:08:57.250000
854,38.4,2022-10-28 16:08:57.265625
855,48.46,2022-10-28 16:08:57.281250
856,51.97,2022-10-28 16:08:57.296875
857,43.51,2022-10-28 16:08:57.312500
858,19.72,2022-10-28 16:08:57.328125
859,-19.51,2022-10-28 16:08:57.343750
860,-70.61,2022-10-28 16:08:57.359375
861,-126.99,2022-10-28 16:08:57.375000
862,-180.52,2022-10-28 16:08:57.390625
863,-223.23,2022-10-28 16:08:57.406250
864,-248.95,2022-10-28 16:08:57.421875
865,-254.2,2022-10-28 16:08:57.437500
866,-238.72,2022-10-28 16:08:57.453125
867,-205.55,2022-10-28 16:08:57.468750
868,-160.6,2022-10-28 16:08:57.484375
869,-111.55,2022-10-28 16:08:57.500000
870,-66.15,2022-10-28 16:08:57.515625
871,-29.93,2022-10-28 16:08:57.531250
872,-4.46,2022-10-28 16:08:57.546875
873,13.12,2022-10-28 16:08:57.562500
874,28.5,2022-10-28 16:08:57.578125
875,47.34,2022-10-28 16:08:57.593750
876,72.46,2022-10-28 16:08:57.609375
877,102.5,2022-10-28 16:08:57.625000
878,132.47,2022-10-28 16:08:57.640625
879,155.92,2022-10-28 16:08:57.656250
880,167.51,2022-10-28 16:08:57.671875
881,164.76,2022-10-28 16:08:57.687500
882,148.42,2022-10-28 16:08:57.703125
883,121.77,2022-10-28 16:08:57.718750
884,89.54,2022-10-28 16:08:57.734375
885,57.0,2022-10-28 16:08:57.750000
886,29.34,2022-10-28 16:08:57.765625
887,11.28,2022-10-28 16:08:57.781250
888,6.4,2022-10-28 16:08:57.796875
889,16.24,2022-10-28 16:08:57.812500
890,39.34,2022-10-28 16:08:57.828125
891,70.72,2022-10-28 16:08:57.843750
892,102.3,2022-10-28 16:08:57.859375
893,124.76,2022-10-28 16:08:57.875000
894,130.49,2022-10-28 16:08:57.890625
895,116.59,2022-10-28 16:08:57.906250
896,86.55,2022-10-28 16:08:57.921875
897,49.75,2022-10-28 16:08:57.937500
898,18.13,2022-10-28 16:08:57.953125
899,1.42,2022-10-28 16:08:57.968750
900,3.32,2022-10-28 16:08:57.984375
901,20.45,2022-10-28 16:08:58.000000
902,44.66,2022-10-28 16:08:58.015625
903,67.43,2022-10-28 16:08:58.031250
904,83.91,2022-10-28 16:08:58.046875
905,94.27,2022-10-28 16:08:58.062500
906,102.19,2022-10-28 16:08:58.078125
907,111.38,2022-10-28 16:08:58.093750
908,122.64,2022-10-28 16:08:58.109375
909,132.87,2022-10-28 16:08:58.125000
910,136.5,2022-10-28 16:08:58.140625
911,127.94,2022-10-28 16:08:58.156250
912,104.03,2022-10-28 16:08:58.171875
913,65.18,2022-10-28 16:08:58.187500
914,15.37,2022-10-28 16:08:58.203125
915,-38.86,2022-10-28 16:08:58.218750
916,-89.82,2022-10-28 16:08:58.234375
917,-130.5,2022-10-28 16:08:58.250000
918,-156.06,2022-10-28 16:08:58.265625
919,-165.03,2022-10-28 16:08:58.281250
920,-159.47,2022-10-28 16:08:58.296875
921,-143.83,2022-10-28 16:08:58.312500
922,-123.08,2022-10-28 16:08:58.328125
923,-101.02,2022-10-28 16:08:58.343750
924,-79.46,2022-10-28 16:08:58.359375
925,-58.84,2022-10-28 16:08:58.375000
926,-39.34,2022-10-28 16:08:58.390625
927,-21.84,2022-10-28 16:08:58.406250
928,-7.74,2022-10-28 16:08:58.421875
929,2.0,2022-10-28 16:08:58.437500
930,7.84,2022-10-28 16:08:58.453125
931,11.71,2022-10-28 16:08:58.468750
932,16.17,2022-10-28 16:08:58.484375
933,22.83,2022-10-28 16:08:58.500000
934,31.39,2022-10-28 16:08:58.515625
935,39.67,2022-10-28 16:08:58.531250
936,44.78,2022-10-28 16:08:58.546875
937,44.69,2022-10-28 16:08:58.562500
938,39.28,2022-10-28 16:08:58.578125
939,30.56,2022-10-28 16:08:58.593750
940,21.71,2022-10-28 16:08:58.609375
941,15.61,2022-10-28 16:08:58.625000
942,13.66,2022-10-28 16:08:58.640625
943,15.26,2022-10-28 16:08:58.656250
944,18.42,2022-10-28 16:08:58.671875
945,20.73,2022-10-28 16:08:58.687500
946,20.46,2022-10-28 16:08:58.703125
947,17.08,2022-10-28 16:08:58.718750
948,11.19,2022-10-28 16:08:58.734375
949,3.9,2022-10-28 16:08:58.750000
950,-3.75,2022-10-28 16:08:58.765625
951,-11.17,2022-10-28 16:08:58.781250
952,-18.22,2022-10-28 16:08:58.796875
953,-24.99,2022-10-28 16:08:58.812500
954,-31.5,2022-10-28 16:08:58.828125
955,-37.52,2022-10-28 16:08:58.843750
956,-42.61,2022-10-28 16:08:58.859375
957,-46.17,2022-10-28 16:08:58.875000
958,-47.74,2022-10-28 16:08:58.890625
959,-47.15,2022-10-28 16:08:58.906250
960,-44.57,2022-10-28 16:08:58.921875
961,-40.49,2022-10-28 16:08:58.937500
962,-35.49,2022-10-28 16:08:58.953125
963,-30.07,2022-10-28 16:08:58.968750
964,-24.53,2022-10-28 16:08:58.984375
965,-18.98,2022-10-28 16:08:59.000000
966,-13.36,2022-10-28 16:08:59.015625
967,-7.73,2022-10-28 16:08:59.031250
968,-2.26,2022-10-28 16:08:59.046875
969,2.67,2022-10-28 16:08:59.062500
970,6.6,2022-10-28 16:08:59.078125
971,9.16,2022-10-28 16:08:59.093750
972,10.17,2022-10-28 16:08:59.109375
973,9.75,2022-10-28 16:08:59.125000
974,8.34,2022-10-28 16:08:59.140625
975,6.61,2022-10-28 16:08:59.156250
976,5.25,2022-10-28 16:08:59.171875
977,4.83,2022-10-28 16:08:59.187500
978,5.6,2022-10-28 16:08:59.203125
979,7.4,2022-10-28 16:08:59.218750
980,9.7,2022-10-28 16:08:59.234375
981,11.76,2022-10-28 16:08:59.250000
982,12.78,2022-10-28 16:08:59.265625
983,12.2,2022-10-28 16:08:59.281250
984,9.87,2022-10-28 16:08:59.296875
985,6.05,2022-10-28 16:08:59.312500
986,1.37,2022-10-28 16:08:59.328125
987,-3.41,2022-10-28 16:08:59.343750
988,-7.64,2022-10-28 16:08:59.359375
989,-10.98,2022-10-28 16:08:59.375000
990,-13.52,2022-10-28 16:08:59.390625
991,-15.6,2022-10-28 16:08:59.406250
992,-17.67,2022-10-28 16:08:59.421875
993,-20.05,2022-10-28 16:08:59.437500
994,-22.89,2022-10-28 16:08:59.453125
995,-26.16,2022-10-28 16:08:59.468750
996,-29.69,2022-10-28 16:08:59.484375
997,-33.14,2022-10-28 16:08:59.500000
998,-35.94,2022-10-28 16:08:59.515625
999,-37.36,2022-10-28 16:08:59.531250
1000,-36.66,2022-10-28 16:08:59.546875
1001,-33.37,2022-10-28 16:08:59.562500
1002,-27.55,2022-10-28 16:08:59.578125
1003,-19.84,2022-10-28 16:08:59.593750
1004,-11.25,2022-10-28 16:08:59.609375
1005,-2.83,2022-10-28 16:08:59.625000
1006,4.67,2022-10-28 16:08:59.640625
1007,10.95,2022-10-28 16:08:59.656250
1008,15.96,2022-10-28 16:08:59.671875
1009,19.85,2022-10-28 16:08:59.687500
1010,22.67,2022-10-28 16:08:59.703125
1011,24.45,2022-10-28 16:08:59.718750
1012,25.22,2022-10-28 16:08:59.734375
1013,25.08,2022-10-28 16:08:59.750000
1014,24.22,2022-10-28 16:08:59.765625
1015,22.84,2022-10-28 16:08:59.781250
1016,21.12,2022-10-28 16:08:59.796875
1017,19.18,2022-10-28 16:08:59.812500
1018,17.19,2022-10-28 16:08:59.828125
1019,15.26,2022-10-28 16:08:59.843750
1020,13.52,2022-10-28 16:08:59.859375
1021,12.0,2022-10-28 16:08:59.875000
1022,10.66,2022-10-28 16:08:59.890625
1023,9.47,2022-10-28 16:08:59.906250
1024,8.46,2022-10-28 16:08:59.921875
1025,7.72,2022-10-28 16:08:59.937500
1026,7.29,2022-10-28 16:08:59.953125
1027,7.05,2022-10-28 16:08:59.968750
1028,6.65,2022-10-28 16:08:59.984375
1029,5.65,2022-10-28 16:09:00.000000
1030,3.83,2022-10-28 16:09:00.015625
1031,1.32,2022-10-28 16:09:00.031250
1032,-1.37,2022-10-28 16:09:00.046875
1033,-3.71,2022-10-28 16:09:00.062500
1034,-5.45,2022-10-28 16:09:00.078125
1035,-6.82,2022-10-28 16:09:00.093750
1036,-8.41,2022-10-28 16:09:00.109375
1037,-10.76,2022-10-28 16:09:00.125000
1038,-14.01,2022-10-28 16:09:00.140625
1039,-17.74,2022-10-28 16:09:00.156250
1040,-21.2,2022-10-28 16:09:00.171875
1041,-23.6,2022-10-28 16:09:00.187500
1042,-24.48,2022-10-28 16:09:00.203125
1043,-23.65,2022-10-28 16:09:00.218750
1044,-21.19,2022-10-28 16:09:00.234375
1045,-17.22,2022-10-28 16:09:00.250000
1046,-11.84,2022-10-28 16:09:00.265625
1047,-5.33,2022-10-28 16:09:00.281250
1048,1.85,2022-10-28 16:09:00.296875
1049,9.0,2022-10-28 16:09:00.312500
1050,15.4,2022-10-28 16:09:00.328125
1051,20.49,2022-10-28 16:09:00.343750
1052,24.01,2022-10-28 16:09:00.359375
1053,26.07,2022-10-28 16:09:00.375000
1054,27.01,2022-10-28 16:09:00.390625
1055,27.3,2022-10-28 16:09:00.406250
1056,27.43,2022-10-28 16:09:00.421875
1057,27.84,2022-10-28 16:09:00.437500
1058,28.76,2022-10-28 16:09:00.453125
1059,30.19,2022-10-28 16:09:00.468750
1060,31.86,2022-10-28 16:09:00.484375
1061,33.4,2022-10-28 16:09:00.500000
1062,34.52,2022-10-28 16:09:00.515625
1063,35.22,2022-10-28 16:09:00.531250
1064,35.84,2022-10-28 16:09:00.546875
1065,36.88,2022-10-28 16:09:00.562500
1066,38.79,2022-10-28 16:09:00.578125
1067,41.65,2022-10-28 16:09:00.593750
1068,45.07,2022-10-28 16:09:00.609375
1069,48.15,2022-10-28 16:09:00.625000
1070,49.67,2022-10-28 16:09:00.640625
1071,48.36,2022-10-28 16:09:00.656250
1072,43.21,2022-10-28 16:09:00.671875
1073,33.76,2022-10-28 16:09:00.687500
1074,20.43,2022-10-28 16:09:00.703125
1075,4.55,2022-10-28 16:09:00.718750
1076,-11.75,2022-10-28 16:09:00.734375
1077,-26.18,2022-10-28 16:09:00.750000
1078,-36.92,2022-10-28 16:09:00.765625
1079,-43.24,2022-10-28 16:09:00.781250
1080,-45.71,2022-10-28 16:09:00.796875
1081,-45.86,2022-10-28 16:09:00.812500
1082,-45.44,2022-10-28 16:09:00.828125
1083,-45.69,2022-10-28 16:09:00.843750
1084,-46.93,2022-10-28 16:09:00.859375
1085,-48.59,2022-10-28 16:09:00.875000
1086,-49.74,2022-10-28 16:09:00.890625
1087,-49.65,2022-10-28 16:09:00.906250
1088,-48.05,2022-10-28 16:09:00.921875
1089,-45.12,2022-10-28 16:09:00.937500
1090,-41.18,2022-10-28 16:09:00.953125
1091,-36.5,2022-10-28 16:09:00.968750
1092,-31.17,2022-10-28 16:09:00.984375
1093,-25.27,2022-10-28 16:09:01.000000
1094,-19.01,2022-10-28 16:09:01.015625
1095,-12.86,2022-10-28 16:09:01.031250
1096,-7.33,2022-10-28 16:09:01.046875
1097,-2.78,2022-10-28 16:09:01.062500
1098,0.77,2022-10-28 16:09:01.078125
1099,3.46,2022-10-28 16:09:01.093750
1100,5.29,2022-10-28 16:09:01.109375
1101,5.68,2022-10-28 16:09:01.125000
1102,3.49,2022-10-28 16:09:01.140625
1103,-2.63,2022-10-28 16:09:01.156250
1104,-13.35,2022-10-28 16:09:01.171875
1105,-27.99,2022-10-28 16:09:01.187500
1106,-44.26,2022-10-28 16:09:01.203125
1107,-58.81,2022-10-28 16:09:01.218750
1108,-68.33,2022-10-28 16:09:01.234375
1109,-70.83,2022-10-28 16:09:01.250000
1110,-66.21,2022-10-28 16:09:01.265625
1111,-56.25,2022-10-28 16:09:01.281250
1112,-43.63,2022-10-28 16:09:01.296875
1113,-30.9,2022-10-28 16:09:01.312500
1114,-19.69,2022-10-28 16:09:01.328125
1115,-10.48,2022-10-28 16:09:01.343750
1116,-3.04,2022-10-28 16:09:01.359375
1117,3.11,2022-10-28 16:09:01.375000
1118,8.27,2022-10-28 16:09:01.390625
1119,12.49,2022-10-28 16:09:01.406250
1120,15.77,2022-10-28 16:09:01.421875
1121,18.22,2022-10-28 16:09:01.437500
1122,19.99,2022-10-28 16:09:01.453125
1123,21.16,2022-10-28 16:09:01.468750
1124,21.53,2022-10-28 16:09:01.484375
1125,20.7,2022-10-28 16:09:01.500000
1126,18.35,2022-10-28 16:09:01.515625
1127,14.6,2022-10-28 16:09:01.531250
1128,10.2,2022-10-28 16:09:01.546875
1129,6.41,2022-10-28 16:09:01.562500
1130,4.57,2022-10-28 16:09:01.578125
1131,5.59,2022-10-28 16:09:01.593750
1132,9.49,2022-10-28 16:09:01.609375
1133,15.39,2022-10-28 16:09:01.625000
1134,21.84,2022-10-28 16:09:01.640625
1135,27.29,2022-10-28 16:09:01.656250
1136,30.63,2022-10-28 16:09:01.671875
1137,31.44,2022-10-28 16:09:01.687500
1138,30.01,2022-10-28 16:09:01.703125
1139,27.18,2022-10-28 16:09:01.718750
1140,23.98,2022-10-28 16:09:01.734375
1141,21.25,2022-10-28 16:09:01.750000
1142,19.4,2022-10-28 16:09:01.765625
1143,18.34,2022-10-28 16:09:01.781250
1144,17.64,2022-10-28 16:09:01.796875
1145,16.83,2022-10-28 16:09:01.812500
1146,15.65,2022-10-28 16:09:01.828125
1147,14.09,2022-10-28 16:09:01.843750
1148,12.29,2022-10-28 16:09:01.859375
1149,10.35,2022-10-28 16:09:01.875000
1150,8.33,2022-10-28 16:09:01.890625
1151,6.24,2022-10-28 16:09:01.906250
1152,4.18,2022-10-28 16:09:01.921875
1153,2.47,2022-10-28 16:09:01.937500
1154,1.48,2022-10-28 16:09:01.953125
1155,1.44,2022-10-28 16:09:01.968750
1156,2.33,2022-10-28 16:09:01.984375
1157,3.77,2022-10-28 16:09:02.000000
1158,5.23,2022-10-28 16:09:02.015625
1159,6.25,2022-10-28 16:09:02.031250
1160,6.5,2022-10-28 16:09:02.046875
1161,5.86,2022-10-28 16:09:02.062500
1162,4.38,2022-10-28 16:09:02.078125
1163,2.18,2022-10-28 16:09:02.093750
1164,-0.5,2022-10-28 16:09:02.109375
1165,-3.34,2022-10-28 16:09:02.125000
1166,-6.12,2022-10-28 16:09:02.140625
1167,-8.84,2022-10-28 16:09:02.156250
1168,-11.84,2022-10-28 16:09:02.171875
1169,-15.63,2022-10-28 16:09:02.187500
1170,-20.67,2022-10-28 16:09:02.203125
1171,-26.94,2022-10-28 16:09:02.218750
1172,-33.85,2022-10-28 16:09:02.234375
1173,-40.32,2022-10-28 16:09:02.250000
1174,-45.11,2022-10-28 16:09:02.265625
1175,-47.24,2022-10-28 16:09:02.281250
1176,-46.21,2022-10-28 16:09:02.296875
1177,-42.09,2022-10-28 16:09:02.312500
1178,-35.35,2022-10-28 16:09:02.328125
1179,-26.82,2022-10-28 16:09:02.343750
1180,-17.49,2022-10-28 16:09:02.359375
1181,-8.43,2022-10-28 16:09:02.375000
1182,-0.58,2022-10-28 16:09:02.390625
1183,5.44,2022-10-28 16:09:02.406250
1184,9.54,2022-10-28 16:09:02.421875
1185,12.07,2022-10-28 16:09:02.437500
1186,13.66,2022-10-28 16:09:02.453125
1187,14.91,2022-10-28 16:09:02.468750
1188,16.1,2022-10-28 16:09:02.484375
1189,17.14,2022-10-28 16:09:02.500000
1190,17.75,2022-10-28 16:09:02.515625
1191,17.6,2022-10-28 16:09:02.531250
1192,16.64,2022-10-28 16:09:02.546875
1193,15.12,2022-10-28 16:09:02.562500
1194,13.57,2022-10-28 16:09:02.578125
1195,12.51,2022-10-28 16:09:02.593750
1196,12.3,2022-10-28 16:09:02.609375
1197,12.99,2022-10-28 16:09:02.625000
1198,14.36,2022-10-28 16:09:02.640625
1199,16.02,2022-10-28 16:09:02.656250
1200,17.55,2022-10-28 16:09:02.671875
1201,18.66,2022-10-28 16:09:02.687500
1202,19.23,2022-10-28 16:09:02.703125
1203,19.25,2022-10-28 16:09:02.718750
1204,18.84,2022-10-28 16:09:02.734375
1205,18.12,2022-10-28 16:09:02.750000
1206,17.18,2022-10-28 16:09:02.765625
1207,16.07,2022-10-28 16:09:02.781250
1208,14.74,2022-10-28 16:09:02.796875
1209,13.04,2022-10-28 16:09:02.812500
1210,10.81,2022-10-28 16:09:02.828125
1211,7.99,2022-10-28 16:09:02.843750
1212,4.62,2022-10-28 16:09:02.859375
1213,0.96,2022-10-28 16:09:02.875000
1214,-2.67,2022-10-28 16:09:02.890625
1215,-5.96,2022-10-28 16:09:02.906250
1216,-8.75,2022-10-28 16:09:02.921875
1217,-11.11,2022-10-28 16:09:02.937500
1218,-13.32,2022-10-28 16:09:02.953125
1219,-15.71,2022-10-28 16:09:02.968750
1220,-18.52,2022-10-28 16:09:02.984375
1221,-21.79,2022-10-28 16:09:03.000000
1222,-25.23,2022-10-28 16:09:03.015625
1223,-28.32,2022-10-28 16:09:03.031250
1224,-30.32,2022-10-28 16:09:03.046875
1225,-30.51,2022-10-28 16:09:03.062500
1226,-28.35,2022-10-28 16:09:03.078125
1227,-23.65,2022-10-28 16:09:03.093750
1228,-16.67,2022-10-28 16:09:03.109375
1229,-8.04,2022-10-28 16:09:03.125000
1230,1.35,2022-10-28 16:09:03.140625
1231,10.53,2022-10-28 16:09:03.156250
1232,18.7,2022-10-28 16:09:03.171875
1233,25.25,2022-10-28 16:09:03.187500
1234,29.92,2022-10-28 16:09:03.203125
1235,32.68,2022-10-28 16:09:03.218750
1236,33.77,2022-10-28 16:09:03.234375
1237,33.6,2022-10-28 16:09:03.250000
1238,32.65,2022-10-28 16:09:03.265625
1239,31.39,2022-10-28 16:09:03.281250
1240,30.2,2022-10-28 16:09:03.296875
1241,29.26,2022-10-28 16:09:03.312500
1242,28.61,2022-10-28 16:09:03.328125
1243,28.16,2022-10-28 16:09:03.343750
1244,27.79,2022-10-28 16:09:03.359375
1245,27.38,2022-10-28 16:09:03.375000
1246,26.87,2022-10-28 16:09:03.390625
1247,26.21,2022-10-28 16:09:03.406250
1248,25.41,2022-10-28 16:09:03.421875
1249,24.59,2022-10-28 16:09:03.437500
1250,23.97,2022-10-28 16:09:03.453125
1251,23.81,2022-10-28 16:09:03.468750
1252,24.26,2022-10-28 16:09:03.484375
1253,25.15,2022-10-28 16:09:03.500000
1254,25.95,2022-10-28 16:09:03.515625
1255,26.0,2022-10-28 16:09:03.531250
1256,24.89,2022-10-28 16:09:03.546875
1257,22.72,2022-10-28 16:09:03.562500
1258,20.21,2022-10-28 16:09:03.578125
1259,18.27,2022-10-28 16:09:03.593750
1260,17.47,2022-10-28 16:09:03.609375
1261,17.7,2022-10-28 16:09:03.625000
1262,18.23,2022-10-28 16:09:03.640625
1263,18.26,2022-10-28 16:09:03.656250
1264,17.43,2022-10-28 16:09:03.671875
1265,15.99,2022-10-28 16:09:03.687500
1266,14.59,2022-10-28 16:09:03.703125
1267,13.59,2022-10-28 16:09:03.718750
1268,12.73,2022-10-28 16:09:03.734375
1269,11.14,2022-10-28 16:09:03.750000
1270,7.89,2022-10-28 16:09:03.765625
1271,2.62,2022-10-28 16:09:03.781250
1272,-4.23,2022-10-28 16:09:03.796875
1273,-11.54,2022-10-28 16:09:03.812500
1274,-18.01,2022-10-28 16:09:03.828125
1275,-22.61,2022-10-28 16:09:03.843750
1276,-24.7,2022-10-28 16:09:03.859375
1277,-24.01,2022-10-28 16:09:03.875000
1278,-20.51,2022-10-28 16:09:03.890625
1279,-14.51,2022-10-28 16:09:03.906250
1280,-6.82,2022-10-28 16:09:03.921875
1281,1.31,2022-10-28 16:09:03.937500
1282,8.45,2022-10-28 16:09:03.953125
1283,13.51,2022-10-28 16:09:03.968750
1284,16.13,2022-10-28 16:09:03.984375
1285,16.67,2022-10-28 16:09:04.000000
1286,15.76,2022-10-28 16:09:04.015625
1287,13.83,2022-10-28 16:09:04.031250
1288,10.81,2022-10-28 16:09:04.046875
1289,6.36,2022-10-28 16:09:04.062500
1290,0.26,2022-10-28 16:09:04.078125
1291,-7.16,2022-10-28 16:09:04.093750
1292,-15.05,2022-10-28 16:09:04.109375
1293,-22.31,2022-10-28 16:09:04.125000
1294,-28.15,2022-10-28 16:09:04.140625
1295,-32.26,2022-10-28 16:09:04.156250
1296,-34.85,2022-10-28 16:09:04.171875
1297,-36.32,2022-10-28 16:09:04.187500
1298,-37.04,2022-10-28 16:09:04.203125
1299,-37.14,2022-10-28 16:09:04.218750
1300,-36.62,2022-10-28 16:09:04.234375
1301,-35.48,2022-10-28 16:09:04.250000
1302,-33.81,2022-10-28 16:09:04.265625
1303,-31.79,2022-10-28 16:09:04.281250
1304,-29.72,2022-10-28 16:09:04.296875
1305,-27.92,2022-10-28 16:09:04.312500
1306,-26.71,2022-10-28 16:09:04.328125
1307,-26.27,2022-10-28 16:09:04.343750
1308,-26.61,2022-10-28 16:09:04.359375
1309,-27.57,2022-10-28 16:09:04.375000
1310,-28.86,2022-10-28 16:09:04.390625
1311,-30.16,2022-10-28 16:09:04.406250
1312,-31.14,2022-10-28 16:09:04.421875
1313,-31.52,2022-10-28 16:09:04.437500
1314,-31.02,2022-10-28 16:09:04.453125
1315,-29.39,2022-10-28 16:09:04.468750
1316,-26.46,2022-10-28 16:09:04.484375
1317,-22.22,2022-10-28 16:09:04.500000
1318,-16.93,2022-10-28 16:09:04.515625
1319,-11.21,2022-10-28 16:09:04.531250
1320,-5.86,2022-10-28 16:09:04.546875
1321,-1.74,2022-10-28 16:09:04.562500
1322,0.47,2022-10-28 16:09:04.578125
1323,0.51,2022-10-28 16:09:04.593750
1324,-1.32,2022-10-28 16:09:04.609375
1325,-4.22,2022-10-28 16:09:04.625000
1326,-7.02,2022-10-28 16:09:04.640625
1327,-8.54,2022-10-28 16:09:04.656250
1328,-7.98,2022-10-28 16:09:04.671875
1329,-5.12,2022-10-28 16:09:04.687500
1330,-0.33,2022-10-28 16:09:04.703125
1331,5.56,2022-10-28 16:09:04.718750
1332,11.59,2022-10-28 16:09:04.734375
1333,16.9,2022-10-28 16:09:04.750000
1334,20.77,2022-10-28 16:09:04.765625
1335,22.72,2022-10-28 16:09:04.781250
1336,22.38,2022-10-28 16:09:04.796875
1337,19.65,2022-10-28 16:09:04.812500
1338,14.74,2022-10-28 16:09:04.828125
1339,8.28,2022-10-28 16:09:04.843750
1340,1.2,2022-10-28 16:09:04.859375
1341,-5.45,2022-10-28 16:09:04.875000
1342,-10.77,2022-10-28 16:09:04.890625
1343,-14.37,2022-10-28 16:09:04.906250
1344,-16.33,2022-10-28 16:09:04.921875
1345,-17.14,2022-10-28 16:09:04.937500
1346,-17.4,2022-10-28 16:09:04.953125
1347,-17.54,2022-10-28 16:09:04.968750
1348,-17.73,2022-10-28 16:09:04.984375
1349,-17.86,2022-10-28 16:09:05.000000
1350,-17.69,2022-10-28 16:09:05.015625
1351,-17.0,2022-10-28 16:09:05.031250
1352,-15.63,2022-10-28 16:09:05.046875
1353,-13.55,2022-10-28 16:09:05.062500
1354,-10.73,2022-10-28 16:09:05.078125
1355,-7.26,2022-10-28 16:09:05.093750
1356,-3.28,2022-10-28 16:09:05.109375
1357,0.97,2022-10-28 16:09:05.125000
1358,5.28,2022-10-28 16:09:05.140625
1359,9.58,2022-10-28 16:09:05.156250
1360,13.91,2022-10-28 16:09:05.171875
1361,18.3,2022-10-28 16:09:05.187500
1362,22.47,2022-10-28 16:09:05.203125
1363,25.73,2022-10-28 16:09:05.218750
1364,27.15,2022-10-28 16:09:05.234375
1365,25.95,2022-10-28 16:09:05.250000
1366,22.03,2022-10-28 16:09:05.265625
1367,16.12,2022-10-28 16:09:05.281250
1368,9.57,2022-10-28 16:09:05.296875
1369,3.64,2022-10-28 16:09:05.312500
1370,-1.03,2022-10-28 16:09:05.328125
1371,-4.62,2022-10-28 16:09:05.343750
1372,-7.75,2022-10-28 16:09:05.359375
1373,-10.91,2022-10-28 16:09:05.375000
1374,-13.95,2022-10-28 16:09:05.390625
1375,-16.15,2022-10-28 16:09:05.406250
1376,-16.68,2022-10-28 16:09:05.421875
1377,-15.07,2022-10-28 16:09:05.437500
1378,-11.48,2022-10-28 16:09:05.453125
1379,-6.57,2022-10-28 16:09:05.468750
1380,-1.12,2022-10-28 16:09:05.484375
1381,4.29,2022-10-28 16:09:05.500000
1382,9.33,2022-10-28 16:09:05.515625
1383,13.82,2022-10-28 16:09:05.531250
1384,17.57,2022-10-28 16:09:05.546875
1385,20.36,2022-10-28 16:09:05.562500
1386,22.09,2022-10-28 16:09:05.578125
1387,22.88,2022-10-28 16:09:05.593750
1388,23.09,2022-10-28 16:09:05.609375
1389,23.13,2022-10-28 16:09:05.625000
1390,23.28,2022-10-28 16:09:05.640625
1391,23.63,2022-10-28 16:09:05.656250
1392,24.16,2022-10-28 16:09:05.671875
1393,24.81,2022-10-28 16:09:05.687500
1394,25.5,2022-10-28 16:09:05.703125
1395,26.04,2022-10-28 16:09:05.718750
1396,26.03,2022-10-28 16:09:05.734375
1397,24.96,2022-10-28 16:09:05.750000
1398,22.41,2022-10-28 16:09:05.765625
1399,18.37,2022-10-28 16:09:05.781250
1400,13.3,2022-10-28 16:09:05.796875
1401,8.06,2022-10-28 16:09:05.812500
1402,3.51,2022-10-28 16:09:05.828125
1403,0.14,2022-10-28 16:09:05.843750
1404,-2.07,2022-10-28 16:09:05.859375
1405,-3.59,2022-10-28 16:09:05.875000
1406,-4.99,2022-10-28 16:09:05.890625
1407,-6.73,2022-10-28 16:09:05.906250
1408,-8.87,2022-10-28 16:09:05.921875
1409,-11.13,2022-10-28 16:09:05.937500
1410,-13.06,2022-10-28 16:09:05.953125
1411,-14.29,2022-10-28 16:09:05.968750
1412,-14.73,2022-10-28 16:09:05.984375
1413,-14.67,2022-10-28 16:09:06.000000
1414,-14.58,2022-10-28 16:09:06.015625
1415,-14.93,2022-10-28 16:09:06.031250
1416,-15.96,2022-10-28 16:09:06.046875
1417,-17.55,2022-10-28 16:09:06.062500
1418,-19.34,2022-10-28 16:09:06.078125
1419,-20.92,2022-10-28 16:09:06.093750
1420,-22.03,2022-10-28 16:09:06.109375
1421,-22.54,2022-10-28 16:09:06.125000
1422,-22.36,2022-10-28 16:09:06.140625
1423,-21.3,2022-10-28 16:09:06.156250
1424,-19.08,2022-10-28 16:09:06.171875
1425,-15.47,2022-10-28 16:09:06.187500
1426,-10.48,2022-10-28 16:09:06.203125
1427,-4.42,2022-10-28 16:09:06.218750
1428,2.15,2022-10-28 16:09:06.234375
1429,8.69,2022-10-28 16:09:06.250000
1430,14.77,2022-10-28 16:09:06.265625
1431,20.13,2022-10-28 16:09:06.281250
1432,24.52,2022-10-28 16:09:06.296875
1433,27.7,2022-10-28 16:09:06.312500
1434,29.4,2022-10-28 16:09:06.328125
1435,29.51,2022-10-28 16:09:06.343750
1436,28.23,2022-10-28 16:09:06.359375
1437,26.12,2022-10-28 16:09:06.375000
1438,23.93,2022-10-28 16:09:06.390625
1439,22.37,2022-10-28 16:09:06.406250
1440,21.75,2022-10-28 16:09:06.421875
1441,21.96,2022-10-28 16:09:06.437500
1442,22.45,2022-10-28 16:09:06.453125
1443,22.48,2022-10-28 16:09:06.468750
1444,21.43,2022-10-28 16:09:06.484375
1445,19.0,2022-10-28 16:09:06.500000
1446,15.36,2022-10-28 16:09:06.515625
1447,11.15,2022-10-28 16:09:06.531250
1448,7.24,2022-10-28 16:09:06.546875
1449,4.4,2022-10-28 16:09:06.562500
1450,3.02,2022-10-28 16:09:06.578125
1451,2.8,2022-10-28 16:09:06.593750
1452,2.86,2022-10-28 16:09:06.609375
1453,2.03,2022-10-28 16:09:06.625000
1454,-0.63,2022-10-28 16:09:06.640625
1455,-5.39,2022-10-28 16:09:06.656250
1456,-11.6,2022-10-28 16:09:06.671875
1457,-17.85,2022-10-28 16:09:06.687500
1458,-22.51,2022-10-28 16:09:06.703125
1459,-24.29,2022-10-28 16:09:06.718750
1460,-22.62,2022-10-28 16:09:06.734375
1461,-17.77,2022-10-28 16:09:06.750000
1462,-10.62,2022-10-28 16:09:06.765625
1463,-2.41,2022-10-28 16:09:06.781250
1464,5.63,2022-10-28 16:09:06.796875
1465,12.37,2022-10-28 16:09:06.812500
1466,16.88,2022-10-28 16:09:06.828125
1467,18.49,2022-10-28 16:09:06.843750
1468,16.96,2022-10-28 16:09:06.859375
1469,12.64,2022-10-28 16:09:06.875000
1470,6.5,2022-10-28 16:09:06.890625
1471,-0.08,2022-10-28 16:09:06.906250
1472,-5.83,2022-10-28 16:09:06.921875
1473,-9.95,2022-10-28 16:09:06.937500
1474,-12.43,2022-10-28 16:09:06.953125
1475,-13.84,2022-10-28 16:09:06.968750
1476,-14.89,2022-10-28 16:09:06.984375
1477,-16.09,2022-10-28 16:09:07.000000
1478,-17.38,2022-10-28 16:09:07.015625
1479,-18.36,2022-10-28 16:09:07.031250
1480,-18.5,2022-10-28 16:09:07.046875
1481,-17.51,2022-10-28 16:09:07.062500
1482,-15.47,2022-10-28 16:09:07.078125
1483,-12.74,2022-10-28 16:09:07.093750
1484,-9.71,2022-10-28 16:09:07.109375
1485,-6.64,2022-10-28 16:09:07.125000
1486,-3.64,2022-10-28 16:09:07.140625
1487,-0.79,2022-10-28 16:09:07.156250
1488,1.73,2022-10-28 16:09:07.171875
1489,3.66,2022-10-28 16:09:07.187500
1490,4.67,2022-10-28 16:09:07.203125
1491,4.55,2022-10-28 16:09:07.218750
1492,3.3,2022-10-28 16:09:07.234375
1493,1.19,2022-10-28 16:09:07.250000
1494,-1.36,2022-10-28 16:09:07.265625
1495,-3.92,2022-10-28 16:09:07.281250
1496,-6.19,2022-10-28 16:09:07.296875
1497,-8.06,2022-10-28 16:09:07.312500
1498,-9.43,2022-10-28 16:09:07.328125
1499,-10.08,2022-10-28 16:09:07.343750
1500,-9.63,2022-10-28 16:09:07.359375
1501,-7.69,2022-10-28 16:09:07.375000
1502,-4.11,2022-10-28 16:09:07.390625
1503,0.79,2022-10-28 16:09:07.406250
1504,6.24,2022-10-28 16:09:07.421875
1505,11.28,2022-10-28 16:09:07.437500
1506,15.11,2022-10-28 16:09:07.453125
1507,17.44,2022-10-28 16:09:07.468750
1508,18.42,2022-10-28 16:09:07.484375
1509,18.51,2022-10-28 16:09:07.500000
1510,18.25,2022-10-28 16:09:07.515625
1511,17.94,2022-10-28 16:09:07.531250
1512,17.69,2022-10-28 16:09:07.546875
1513,17.43,2022-10-28 16:09:07.562500
1514,17.04,2022-10-28 16:09:07.578125
1515,16.34,2022-10-28 16:09:07.593750
1516,15.15,2022-10-28 16:09:07.609375
1517,13.35,2022-10-28 16:09:07.625000
1518,10.92,2022-10-28 16:09:07.640625
1519,8.03,2022-10-28 16:09:07.656250
1520,5.02,2022-10-28 16:09:07.671875
1521,2.31,2022-10-28 16:09:07.687500
1522,0.28,2022-10-28 16:09:07.703125
1523,-0.77,2022-10-28 16:09:07.718750
1524,-0.72,2022-10-28 16:09:07.734375
1525,0.48,2022-10-28 16:09:07.750000
1526,2.71,2022-10-28 16:09:07.765625
1527,5.67,2022-10-28 16:09:07.781250
1528,8.94,2022-10-28 16:09:07.796875
1529,11.96,2022-10-28 16:09:07.812500
1530,14.24,2022-10-28 16:09:07.828125
1531,15.44,2022-10-28 16:09:07.843750
1532,15.43,2022-10-28 16:09:07.859375
1533,14.3,2022-10-28 16:09:07.875000
1534,12.25,2022-10-28 16:09:07.890625
1535,9.61,2022-10-28 16:09:07.906250
1536,6.7,2022-10-28 16:09:07.921875
1537,3.84,2022-10-28 16:09:07.937500
1538,1.26,2022-10-28 16:09:07.953125
1539,-0.98,2022-10-28 16:09:07.968750
1540,-2.98,2022-10-28 16:09:07.984375
1541,-4.97,2022-10-28 16:09:08.000000
1542,-7.21,2022-10-28 16:09:08.015625
1543,-9.84,2022-10-28 16:09:08.031250
1544,-12.8,2022-10-28 16:09:08.046875
1545,-15.87,2022-10-28 16:09:08.062500
1546,-18.76,2022-10-28 16:09:08.078125
1547,-21.19,2022-10-28 16:09:08.093750
1548,-23.04,2022-10-28 16:09:08.109375
1549,-24.3,2022-10-28 16:09:08.125000
1550,-25.07,2022-10-28 16:09:08.140625
1551,-25.46,2022-10-28 16:09:08.156250
1552,-25.58,2022-10-28 16:09:08.171875
1553,-25.48,2022-10-28 16:09:08.187500
1554,-25.19,2022-10-28 16:09:08.203125
1555,-24.74,2022-10-28 16:09:08.218750
1556,-24.23,2022-10-28 16:09:08.234375
1557,-23.88,2022-10-28 16:09:08.250000
1558,-24.02,2022-10-28 16:09:08.265625
1559,-25.05,2022-10-28 16:09:08.281250
1560,-27.26,2022-10-28 16:09:08.296875
1561,-30.79,2022-10-28 16:09:08.312500
1562,-35.44,2022-10-28 16:09:08.328125
1563,-40.69,2022-10-28 16:09:08.343750
1564,-45.73,2022-10-28 16:09:08.359375
1565,-49.53,2022-10-28 16:09:08.375000
1566,-51.02,2022-10-28 16:09:08.390625
1567,-49.27,2022-10-28 16:09:08.406250
1568,-43.76,2022-10-28 16:09:08.421875
1569,-34.65,2022-10-28 16:09:08.437500
1570,-22.77,2022-10-28 16:09:08.453125
1571,-9.5,2022-10-28 16:09:08.468750
1572,3.63,2022-10-28 16:09:08.484375
1573,15.33,2022-10-28 16:09:08.500000
1574,24.94,2022-10-28 16:09:08.515625
1575,32.41,2022-10-28 16:09:08.531250
1576,38.12,2022-10-28 16:09:08.546875
1577,42.53,2022-10-28 16:09:08.562500
1578,45.93,2022-10-28 16:09:08.578125
1579,48.33,2022-10-28 16:09:08.593750
1580,49.63,2022-10-28 16:09:08.609375
1581,49.77,2022-10-28 16:09:08.625000
1582,48.83,2022-10-28 16:09:08.640625
1583,47.0,2022-10-28 16:09:08.656250
1584,44.48,2022-10-28 16:09:08.671875
1585,41.42,2022-10-28 16:09:08.687500
1586,37.89,2022-10-28 16:09:08.703125
1587,34.01,2022-10-28 16:09:08.718750
1588,30.04,2022-10-28 16:09:08.734375
1589,26.32,2022-10-28 16:09:08.750000
1590,23.22,2022-10-28 16:09:08.765625
1591,21.01,2022-10-28 16:09:08.781250
1592,19.71,2022-10-28 16:09:08.796875
1593,19.09,2022-10-28 16:09:08.812500
1594,18.68,2022-10-28 16:09:08.828125
1595,17.91,2022-10-28 16:09:08.843750
1596,16.18,2022-10-28 16:09:08.859375
1597,13.04,2022-10-28 16:09:08.875000
1598,8.33,2022-10-28 16:09:08.890625
1599,2.23,2022-10-28 16:09:08.906250
1600,-4.72,2022-10-28 16:09:08.921875
1601,-11.76,2022-10-28 16:09:08.937500
1602,-18.11,2022-10-28 16:09:08.953125
1603,-23.21,2022-10-28 16:09:08.968750
1604,-26.82,2022-10-28 16:09:08.984375
1605,-29.09,2022-10-28 16:09:09.000000
1606,-30.41,2022-10-28 16:09:09.015625
1607,-31.24,2022-10-28 16:09:09.031250
1608,-32.0,2022-10-28 16:09:09.046875
1609,-32.9,2022-10-28 16:09:09.062500
1610,-33.98,2022-10-28 16:09:09.078125
1611,-35.12,2022-10-28 16:09:09.093750
1612,-36.04,2022-10-28 16:09:09.109375
1613,-36.39,2022-10-28 16:09:09.125000
1614,-35.74,2022-10-28 16:09:09.140625
1615,-33.62,2022-10-28 16:09:09.156250
1616,-29.71,2022-10-28 16:09:09.171875
1617,-23.94,2022-10-28 16:09:09.187500
1618,-16.62,2022-10-28 16:09:09.203125
1619,-8.45,2022-10-28 16:09:09.218750
1620,-0.33,2022-10-28 16:09:09.234375
1621,6.9,2022-10-28 16:09:09.250000
1622,12.75,2022-10-28 16:09:09.265625
1623,17.14,2022-10-28 16:09:09.281250
1624,20.31,2022-10-28 16:09:09.296875
1625,22.49,2022-10-28 16:09:09.312500
1626,23.74,2022-10-28 16:09:09.328125
1627,23.91,2022-10-28 16:09:09.343750
1628,22.85,2022-10-28 16:09:09.359375
1629,20.7,2022-10-28 16:09:09.375000
1630,17.96,2022-10-28 16:09:09.390625
1631,15.38,2022-10-28 16:09:09.406250
1632,13.6,2022-10-28 16:09:09.421875
1633,12.87,2022-10-28 16:09:09.437500
1634,12.86,2022-10-28 16:09:09.453125
1635,12.9,2022-10-28 16:09:09.468750
1636,12.26,2022-10-28 16:09:09.484375
1637,10.58,2022-10-28 16:09:09.500000
1638,7.93,2022-10-28 16:09:09.515625
1639,4.83,2022-10-28 16:09:09.531250
1640,1.94,2022-10-28 16:09:09.546875
1641,-0.21,2022-10-28 16:09:09.562500
1642,-1.4,2022-10-28 16:09:09.578125
1643,-1.74,2022-10-28 16:09:09.593750
1644,-1.54,2022-10-28 16:09:09.609375
1645,-1.09,2022-10-28 16:09:09.625000
1646,-0.63,2022-10-28 16:09:09.640625
1647,-0.25,2022-10-28 16:09:09.656250
1648,0.01,2022-10-28 16:09:09.671875
1649,0.16,2022-10-28 16:09:09.687500
1650,0.16,2022-10-28 16:09:09.703125
1651,0.06,2022-10-28 16:09:09.718750
1652,-0.04,2022-10-28 16:09:09.734375
1653,-0.06,2022-10-28 16:09:09.750000
1654,-0.0,2022-10-28 16:09:09.765625
1655,-0.11,2022-10-28 16:09:09.781250
1656,-0.79,2022-10-28 16:09:09.796875
1657,-2.39,2022-10-28 16:09:09.812500
1658,-4.97,2022-10-28 16:09:09.828125
1659,-8.13,2022-10-28 16:09:09.843750
1660,-11.06,2022-10-28 16:09:09.859375
1661,-12.85,2022-10-28 16:09:09.875000
1662,-12.86,2022-10-28 16:09:09.890625
1663,-10.93,2022-10-28 16:09:09.906250
1664,-7.39,2022-10-28 16:09:09.921875
1665,-2.9,2022-10-28 16:09:09.937500
1666,1.85,2022-10-28 16:09:09.953125
1667,6.33,2022-10-28 16:09:09.968750
1668,10.25,2022-10-28 16:09:09.984375
1669,13.5,2022-10-28 16:09:10.000000
1670,16.1,2022-10-28 16:09:10.015625
1671,18.11,2022-10-28 16:09:10.031250
1672,19.71,2022-10-28 16:09:10.046875
1673,21.11,2022-10-28 16:09:10.062500
1674,22.53,2022-10-28 16:09:10.078125
1675,23.97,2022-10-28 16:09:10.093750
1676,25.12,2022-10-28 16:09:10.109375
1677,25.33,2022-10-28 16:09:10.125000
1678,23.78,2022-10-28 16:09:10.140625
1679,19.75,2022-10-28 16:09:10.156250
1680,12.94,2022-10-28 16:09:10.171875
1681,3.72,2022-10-28 16:09:10.187500
1682,-6.95,2022-10-28 16:09:10.203125
1683,-17.66,2022-10-28 16:09:10.218750
1684,-26.92,2022-10-28 16:09:10.234375
1685,-33.35,2022-10-28 16:09:10.250000
1686,-35.9,2022-10-28 16:09:10.265625
1687,-33.89,2022-10-28 16:09:10.281250
1688,-27.1,2022-10-28 16:09:10.296875
1689,-15.99,2022-10-28 16:09:10.312500
1690,-1.79,2022-10-28 16:09:10.328125
1691,13.44,2022-10-28 16:09:10.343750
1692,27.12,2022-10-28 16:09:10.359375
1693,36.74,2022-10-28 16:09:10.375000
1694,40.58,2022-10-28 16:09:10.390625
1695,38.27,2022-10-28 16:09:10.406250
1696,30.84,2022-10-28 16:09:10.421875
1697,20.32,2022-10-28 16:09:10.437500
1698,9.04,2022-10-28 16:09:10.453125
1699,-1.12,2022-10-28 16:09:10.468750
1700,-9.04,2022-10-28 16:09:10.484375
1701,-14.41,2022-10-28 16:09:10.500000
1702,-17.38,2022-10-28 16:09:10.515625
1703,-18.31,2022-10-28 16:09:10.531250
1704,-17.57,2022-10-28 16:09:10.546875
1705,-15.56,2022-10-28 16:09:10.562500
1706,-12.64,2022-10-28 16:09:10.578125
1707,-9.11,2022-10-28 16:09:10.593750
1708,-5.1,2022-10-28 16:09:10.609375
1709,-0.59,2022-10-28 16:09:10.625000
1710,4.51,2022-10-28 16:09:10.640625
1711,10.15,2022-10-28 16:09:10.656250
1712,15.99,2022-10-28 16:09:10.671875
1713,21.41,2022-10-28 16:09:10.687500
1714,25.68,2022-10-28 16:09:10.703125
1715,28.16,2022-10-28 16:09:10.718750
1716,28.52,2022-10-28 16:09:10.734375
1717,26.83,2022-10-28 16:09:10.750000
1718,23.46,2022-10-28 16:09:10.765625
1719,19.07,2022-10-28 16:09:10.781250
1720,14.41,2022-10-28 16:09:10.796875
1721,10.24,2022-10-28 16:09:10.812500
1722,7.15,2022-10-28 16:09:10.828125
1723,5.49,2022-10-28 16:09:10.843750
1724,5.25,2022-10-28 16:09:10.859375
1725,6.1,2022-10-28 16:09:10.875000
1726,7.44,2022-10-28 16:09:10.890625
1727,8.62,2022-10-28 16:09:10.906250
1728,9.15,2022-10-28 16:09:10.921875
1729,8.8,2022-10-28 16:09:10.937500
1730,7.62,2022-10-28 16:09:10.953125
1731,5.81,2022-10-28 16:09:10.968750
1732,3.57,2022-10-28 16:09:10.984375
1733,0.9,2022-10-28 16:09:11.000000
1734,-2.32,2022-10-28 16:09:11.015625
1735,-6.31,2022-10-28 16:09:11.031250
1736,-11.12,2022-10-28 16:09:11.046875
1737,-16.52,2022-10-28 16:09:11.062500
1738,-22.04,2022-10-28 16:09:11.078125
1739,-27.12,2022-10-28 16:09:11.093750
1740,-31.33,2022-10-28 16:09:11.109375
1741,-34.46,2022-10-28 16:09:11.125000
1742,-36.51,2022-10-28 16:09:11.140625
1743,-37.54,2022-10-28 16:09:11.156250
1744,-37.61,2022-10-28 16:09:11.171875
1745,-36.78,2022-10-28 16:09:11.187500
1746,-35.27,2022-10-28 16:09:11.203125
1747,-33.5,2022-10-28 16:09:11.218750
1748,-32.07,2022-10-28 16:09:11.234375
1749,-31.52,2022-10-28 16:09:11.250000
1750,-32.06,2022-10-28 16:09:11.265625
1751,-33.34,2022-10-28 16:09:11.281250
1752,-34.52,2022-10-28 16:09:11.296875
1753,-34.53,2022-10-28 16:09:11.312500
1754,-32.47,2022-10-28 16:09:11.328125
1755,-27.94,2022-10-28 16:09:11.343750
1756,-21.21,2022-10-28 16:09:11.359375
1757,-13.1,2022-10-28 16:09:11.375000
1758,-4.75,2022-10-28 16:09:11.390625
1759,2.72,2022-10-28 16:09:11.406250
1760,8.42,2022-10-28 16:09:11.421875
1761,11.73,2022-10-28 16:09:11.437500
1762,12.34,2022-10-28 16:09:11.453125
1763,10.21,2022-10-28 16:09:11.468750
1764,5.65,2022-10-28 16:09:11.484375
1765,-0.62,2022-10-28 16:09:11.500000
1766,-7.5,2022-10-28 16:09:11.515625
1767,-13.64,2022-10-28 16:09:11.531250
1768,-17.9,2022-10-28 16:09:11.546875
1769,-19.68,2022-10-28 16:09:11.562500
1770,-19.13,2022-10-28 16:09:11.578125
1771,-16.98,2022-10-28 16:09:11.593750
1772,-14.14,2022-10-28 16:09:11.609375
1773,-11.24,2022-10-28 16:09:11.625000
1774,-8.43,2022-10-28 16:09:11.640625
1775,-5.47,2022-10-28 16:09:11.656250
1776,-2.09,2022-10-28 16:09:11.671875
1777,1.65,2022-10-28 16:09:11.687500
1778,5.24,2022-10-28 16:09:11.703125
1779,7.83,2022-10-28 16:09:11.718750
1780,8.69,2022-10-28 16:09:11.734375
1781,7.44,2022-10-28 16:09:11.750000
1782,4.26,2022-10-28 16:09:11.765625
1783,-0.22,2022-10-28 16:09:11.781250
1784,-5.19,2022-10-28 16:09:11.796875
1785,-9.99,2022-10-28 16:09:11.812500
1786,-14.21,2022-10-28 16:09:11.828125
1787,-17.75,2022-10-28 16:09:11.843750
1788,-20.67,2022-10-28 16:09:11.859375
1789,-23.1,2022-10-28 16:09:11.875000
1790,-25.16,2022-10-28 16:09:11.890625
1791,-26.92,2022-10-28 16:09:11.906250
1792,-28.37,2022-10-28 16:09:11.921875
1793,-29.45,2022-10-28 16:09:11.937500
1794,-29.92,2022-10-28 16:09:11.953125
1795,-29.41,2022-10-28 16:09:11.968750
1796,-27.43,2022-10-28 16:09:11.984375
1797,-23.54,2022-10-28 16:09:12.000000
1798,-17.52,2022-10-28 16:09:12.015625
1799,-9.51,2022-10-28 16:09:12.031250
1800,-0.0,2022-10-28 16:09:12.046875
1801,10.25,2022-10-28 16:09:12.062500
1802,20.43,2022-10-28 16:09:12.078125
1803,29.86,2022-10-28 16:09:12.093750
1804,38.04,2022-10-28 16:09:12.109375
1805,44.76,2022-10-28 16:09:12.125000
1806,50.08,2022-10-28 16:09:12.140625
1807,54.27,2022-10-28 16:09:12.156250
1808,57.68,2022-10-28 16:09:12.171875
1809,60.65,2022-10-28 16:09:12.187500
1810,63.26,2022-10-28 16:09:12.203125
1811,65.35,2022-10-28 16:09:12.218750
1812,66.59,2022-10-28 16:09:12.234375
1813,66.71,2022-10-28 16:09:12.250000
1814,65.63,2022-10-28 16:09:12.265625
1815,63.47,2022-10-28 16:09:12.281250
1816,60.46,2022-10-28 16:09:12.296875
1817,56.62,2022-10-28 16:09:12.312500
1818,51.78,2022-10-28 16:09:12.328125
1819,45.57,2022-10-28 16:09:12.343750
1820,37.79,2022-10-28 16:09:12.359375
1821,28.6,2022-10-28 16:09:12.375000
1822,18.67,2022-10-28 16:09:12.390625
1823,8.99,2022-10-28 16:09:12.406250
1824,0.53,2022-10-28 16:09:12.421875
1825,-6.18,2022-10-28 16:09:12.437500
1826,-11.17,2022-10-28 16:09:12.453125
1827,-14.95,2022-10-28 16:09:12.468750
1828,-18.1,2022-10-28 16:09:12.484375
1829,-21.01,2022-10-28 16:09:12.500000
1830,-23.72,2022-10-28 16:09:12.515625
1831,-25.99,2022-10-28 16:09:12.531250
1832,-27.57,2022-10-28 16:09:12.546875
1833,-28.38,2022-10-28 16:09:12.562500
1834,-28.64,2022-10-28 16:09:12.578125
1835,-28.72,2022-10-28 16:09:12.593750
1836,-28.91,2022-10-28 16:09:12.609375
1837,-29.28,2022-10-28 16:09:12.625000
1838,-29.71,2022-10-28 16:09:12.640625
1839,-29.97,2022-10-28 16:09:12.656250
1840,-29.91,2022-10-28 16:09:12.671875
1841,-29.43,2022-10-28 16:09:12.687500
1842,-28.45,2022-10-28 16:09:12.703125
1843,-26.73,2022-10-28 16:09:12.718750
1844,-23.96,2022-10-28 16:09:12.734375
1845,-19.89,2022-10-28 16:09:12.750000
1846,-14.57,2022-10-28 16:09:12.765625
1847,-8.46,2022-10-28 16:09:12.781250
1848,-2.4,2022-10-28 16:09:12.796875
1849,2.71,2022-10-28 16:09:12.812500
1850,6.2,2022-10-28 16:09:12.828125
1851,7.95,2022-10-28 16:09:12.843750
1852,8.36,2022-10-28 16:09:12.859375
1853,8.14,2022-10-28 16:09:12.875000
1854,8.0,2022-10-28 16:09:12.890625
1855,8.33,2022-10-28 16:09:12.906250
1856,9.15,2022-10-28 16:09:12.921875
1857,10.23,2022-10-28 16:09:12.937500
1858,11.3,2022-10-28 16:09:12.953125
1859,12.25,2022-10-28 16:09:12.968750
1860,13.21,2022-10-28 16:09:12.984375
1861,14.38,2022-10-28 16:09:13.000000
1862,15.81,2022-10-28 16:09:13.015625
1863,17.36,2022-10-28 16:09:13.031250
1864,18.64,2022-10-28 16:09:13.046875
1865,19.3,2022-10-28 16:09:13.062500
1866,19.27,2022-10-28 16:09:13.078125
1867,18.87,2022-10-28 16:09:13.093750
1868,18.7,2022-10-28 16:09:13.109375
1869,19.32,2022-10-28 16:09:13.125000
1870,20.91,2022-10-28 16:09:13.140625
1871,23.08,2022-10-28 16:09:13.156250
1872,25.03,2022-10-28 16:09:13.171875
1873,25.91,2022-10-28 16:09:13.187500
1874,25.31,2022-10-28 16:09:13.203125
1875,23.43,2022-10-28 16:09:13.218750
1876,20.96,2022-10-28 16:09:13.234375
1877,18.69,2022-10-28 16:09:13.250000
1878,16.96,2022-10-28 16:09:13.265625
1879,15.5,2022-10-28 16:09:13.281250
1880,13.38,2022-10-28 16:09:13.296875
1881,9.5,2022-10-28 16:09:13.312500
1882,3.09,2022-10-28 16:09:13.328125
1883,-5.92,2022-10-28 16:09:13.343750
1884,-16.83,2022-10-28 16:09:13.359375
1885,-28.43,2022-10-28 16:09:13.375000
1886,-39.34,2022-10-28 16:09:13.390625
1887,-48.38,2022-10-28 16:09:13.406250
1888,-54.61,2022-10-28 16:09:13.421875
1889,-57.41,2022-10-28 16:09:13.437500
1890,-56.38,2022-10-28 16:09:13.453125
1891,-51.54,2022-10-28 16:09:13.468750
1892,-43.57,2022-10-28 16:09:13.484375
1893,-33.89,2022-10-28 16:09:13.500000
1894,-24.5,2022-10-28 16:09:13.515625
1895,-17.38,2022-10-28 16:09:13.531250
1896,-13.77,2022-10-28 16:09:13.546875
1897,-13.7,2022-10-28 16:09:13.562500
1898,-16.07,2022-10-28 16:09:13.578125
1899,-19.22,2022-10-28 16:09:13.593750
1900,-21.61,2022-10-28 16:09:13.609375
1901,-22.31,2022-10-28 16:09:13.625000
1902,-21.15,2022-10-28 16:09:13.640625
1903,-18.41,2022-10-28 16:09:13.656250
1904,-14.51,2022-10-28 16:09:13.671875
1905,-9.87,2022-10-28 16:09:13.687500
1906,-4.91,2022-10-28 16:09:13.703125
1907,-0.13,2022-10-28 16:09:13.718750
1908,3.85,2022-10-28 16:09:13.734375
1909,6.53,2022-10-28 16:09:13.750000
1910,7.71,2022-10-28 16:09:13.765625
1911,7.6,2022-10-28 16:09:13.781250
1912,6.72,2022-10-28 16:09:13.796875
1913,5.63,2022-10-28 16:09:13.812500
1914,4.79,2022-10-28 16:09:13.828125
1915,4.49,2022-10-28 16:09:13.843750
1916,4.93,2022-10-28 16:09:13.859375
1917,6.2,2022-10-28 16:09:13.875000
1918,8.25,2022-10-28 16:09:13.890625
1919,10.76,2022-10-28 16:09:13.906250
1920,13.12,2022-10-28 16:09:13.921875
1921,14.66,2022-10-28 16:09:13.937500
1922,14.93,2022-10-28 16:09:13.953125
1923,13.97,2022-10-28 16:09:13.968750
1924,12.39,2022-10-28 16:09:13.984375
1925,11.05,2022-10-28 16:09:14.000000
1926,10.67,2022-10-28 16:09:14.015625
1927,11.42,2022-10-28 16:09:14.031250
1928,12.89,2022-10-28 16:09:14.046875
1929,14.31,2022-10-28 16:09:14.062500
1930,14.96,2022-10-28 16:09:14.078125
1931,14.41,2022-10-28 16:09:14.093750
1932,12.65,2022-10-28 16:09:14.109375
1933,9.94,2022-10-28 16:09:14.125000
1934,6.61,2022-10-28 16:09:14.140625
1935,3.0,2022-10-28 16:09:14.156250
1936,-0.47,2022-10-28 16:09:14.171875
1937,-3.29,2022-10-28 16:09:14.187500
1938,-4.83,2022-10-28 16:09:14.203125
1939,-4.58,2022-10-28 16:09:14.218750
1940,-2.44,2022-10-28 16:09:14.234375
1941,1.13,2022-10-28 16:09:14.250000
1942,5.18,2022-10-28 16:09:14.265625
1943,8.58,2022-10-28 16:09:14.281250
1944,10.41,2022-10-28 16:09:14.296875
1945,10.34,2022-10-28 16:09:14.312500
1946,8.65,2022-10-28 16:09:14.328125
1947,6.19,2022-10-28 16:09:14.343750
1948,3.95,2022-10-28 16:09:14.359375
1949,2.73,2022-10-28 16:09:14.375000
1950,2.86,2022-10-28 16:09:14.390625
1951,4.18,2022-10-28 16:09:14.406250
1952,6.16,2022-10-28 16:09:14.421875
1953,8.24,2022-10-28 16:09:14.437500
1954,10.01,2022-10-28 16:09:14.453125
1955,11.39,2022-10-28 16:09:14.468750
1956,12.46,2022-10-28 16:09:14.484375
1957,13.27,2022-10-28 16:09:14.500000
1958,13.68,2022-10-28 16:09:14.515625
1959,13.41,2022-10-28 16:09:14.531250
1960,12.26,2022-10-28 16:09:14.546875
1961,10.31,2022-10-28 16:09:14.562500
1962,8.03,2022-10-28 16:09:14.578125
1963,6.09,2022-10-28 16:09:14.593750
1964,5.02,2022-10-28 16:09:14.609375
1965,4.97,2022-10-28 16:09:14.625000
1966,5.65,2022-10-28 16:09:14.640625
1967,6.59,2022-10-28 16:09:14.656250
1968,7.47,2022-10-28 16:09:14.671875
1969,8.27,2022-10-28 16:09:14.687500
1970,9.28,2022-10-28 16:09:14.703125
1971,10.8,2022-10-28 16:09:14.718750
1972,12.89,2022-10-28 16:09:14.734375
1973,15.21,2022-10-28 16:09:14.750000
1974,17.17,2022-10-28 16:09:14.765625
1975,18.06,2022-10-28 16:09:14.781250
1976,17.34,2022-10-28 16:09:14.796875
1977,14.84,2022-10-28 16:09:14.812500
1978,10.83,2022-10-28 16:09:14.828125
1979,5.94,2022-10-28 16:09:14.843750
1980,1.02,2022-10-28 16:09:14.859375
1981,-3.1,2022-10-28 16:09:14.875000
1982,-5.85,2022-10-28 16:09:14.890625
1983,-7.12,2022-10-28 16:09:14.906250
1984,-7.27,2022-10-28 16:09:14.921875
1985,-6.89,2022-10-28 16:09:14.937500
1986,-6.53,2022-10-28 16:09:14.953125
1987,-6.5,2022-10-28 16:09:14.968750
1988,-6.8,2022-10-28 16:09:14.984375
1989,-7.38,2022-10-28 16:09:15.000000
1990,-8.27,2022-10-28 16:09:15.015625
1991,-9.67,2022-10-28 16:09:15.031250
1992,-11.79,2022-10-28 16:09:15.046875
1993,-14.61,2022-10-28 16:09:15.062500
1994,-17.7,2022-10-28 16:09:15.078125
1995,-20.31,2022-10-28 16:09:15.093750
1996,-21.68,2022-10-28 16:09:15.109375
1997,-21.44,2022-10-28 16:09:15.125000
1998,-19.73,2022-10-28 16:09:15.140625
1999,-17.12,2022-10-28 16:09:15.156250
2000,-14.27,2022-10-28 16:09:15.171875
2001,-11.64,2022-10-28 16:09:15.187500
2002,-9.41,2022-10-28 16:09:15.203125
2003,-7.58,2022-10-28 16:09:15.218750
2004,-6.18,2022-10-28 16:09:15.234375
2005,-5.34,2022-10-28 16:09:15.250000
2006,-5.15,2022-10-28 16:09:15.265625
2007,-5.45,2022-10-28 16:09:15.281250
2008,-5.75,2022-10-28 16:09:15.296875
2009,-5.46,2022-10-28 16:09:15.312500
2010,-4.12,2022-10-28 16:09:15.328125
2011,-1.74,2022-10-28 16:09:15.343750
2012,1.09,2022-10-28 16:09:15.359375
2013,3.39,2022-10-28 16:09:15.375000
2014,4.23,2022-10-28 16:09:15.390625
2015,3.03,2022-10-28 16:09:15.406250
2016,-0.25,2022-10-28 16:09:15.421875
2017,-5.12,2022-10-28 16:09:15.437500
2018,-10.77,2022-10-28 16:09:15.453125
2019,-16.27,2022-10-28 16:09:15.468750
2020,-20.78,2022-10-28 16:09:15.484375
2021,-23.73,2022-10-28 16:09:15.500000
2022,-24.95,2022-10-28 16:09:15.515625
2023,-24.69,2022-10-28 16:09:15.531250
2024,-23.53,2022-10-28 16:09:15.546875
2025,-22.14,2022-10-28 16:09:15.562500
2026,-21.05,2022-10-28 16:09:15.578125
2027,-20.46,2022-10-28 16:09:15.593750
2028,-20.26,2022-10-28 16:09:15.609375
2029,-20.09,2022-10-28 16:09:15.625000
2030,-19.55,2022-10-28 16:09:15.640625
2031,-18.23,2022-10-28 16:09:15.656250
2032,-15.88,2022-10-28 16:09:15.671875
2033,-12.36,2022-10-28 16:09:15.687500
2034,-7.7,2022-10-28 16:09:15.703125
2035,-2.12,2022-10-28 16:09:15.718750
2036,3.99,2022-10-28 16:09:15.734375
2037,10.08,2022-10-28 16:09:15.750000
2038,15.59,2022-10-28 16:09:15.765625
2039,19.99,2022-10-28 16:09:15.781250
2040,22.98,2022-10-28 16:09:15.796875
2041,24.47,2022-10-28 16:09:15.812500
2042,24.56,2022-10-28 16:09:15.828125
2043,23.6,2022-10-28 16:09:15.843750
2044,22.11,2022-10-28 16:09:15.859375
2045,20.64,2022-10-28 16:09:15.875000
2046,19.69,2022-10-28 16:09:15.890625
2047,19.63,2022-10-28 16:09:15.906250
2048,20.56,2022-10-28 16:09:15.921875
2049,22.29,2022-10-28 16:09:15.937500
2050,24.36,2022-10-28 16:09:15.953125
2051,26.1,2022-10-28 16:09:15.968750
2052,26.77,2022-10-28 16:09:15.984375
2053,25.69,2022-10-28 16:09:16.000000
2054,22.44,2022-10-28 16:09:16.015625
2055,16.96,2022-10-28 16:09:16.031250
2056,9.67,2022-10-28 16:09:16.046875
2057,1.39,2022-10-28 16:09:16.062500
2058,-6.83,2022-10-28 16:09:16.078125
2059,-13.91,2022-10-28 16:09:16.093750
2060,-19.07,2022-10-28 16:09:16.109375
2061,-21.91,2022-10-28 16:09:16.125000
2062,-22.54,2022-10-28 16:09:16.140625
2063,-21.41,2022-10-28 16:09:16.156250
2064,-19.24,2022-10-28 16:09:16.171875
2065,-16.74,2022-10-28 16:09:16.187500
2066,-14.53,2022-10-28 16:09:16.203125
2067,-13.11,2022-10-28 16:09:16.218750
2068,-12.71,2022-10-28 16:09:16.234375
2069,-13.34,2022-10-28 16:09:16.250000
2070,-14.85,2022-10-28 16:09:16.265625
2071,-16.95,2022-10-28 16:09:16.281250
2072,-19.25,2022-10-28 16:09:16.296875
2073,-21.07,2022-10-28 16:09:16.312500
2074,-21.51,2022-10-28 16:09:16.328125
2075,-19.58,2022-10-28 16:09:16.343750
2076,-14.6,2022-10-28 16:09:16.359375
2077,-6.59,2022-10-28 16:09:16.375000
2078,3.53,2022-10-28 16:09:16.390625
2079,14.21,2022-10-28 16:09:16.406250
2080,23.81,2022-10-28 16:09:16.421875
2081,31.32,2022-10-28 16:09:16.437500
2082,36.59,2022-10-28 16:09:16.453125
2083,40.08,2022-10-28 16:09:16.468750
2084,42.24,2022-10-28 16:09:16.484375
2085,42.95,2022-10-28 16:09:16.500000
2086,41.47,2022-10-28 16:09:16.515625
2087,36.96,2022-10-28 16:09:16.531250
2088,29.22,2022-10-28 16:09:16.546875
2089,19.12,2022-10-28 16:09:16.562500
2090,8.48,2022-10-28 16:09:16.578125
2091,-0.59,2022-10-28 16:09:16.593750
2092,-6.43,2022-10-28 16:09:16.609375
2093,-8.29,2022-10-28 16:09:16.625000
2094,-6.38,2022-10-28 16:09:16.640625
2095,-1.56,2022-10-28 16:09:16.656250
2096,4.95,2022-10-28 16:09:16.671875
2097,11.9,2022-10-28 16:09:16.687500
2098,18.17,2022-10-28 16:09:16.703125
2099,22.87,2022-10-28 16:09:16.718750
2100,25.56,2022-10-28 16:09:16.734375
2101,26.24,2022-10-28 16:09:16.750000
2102,25.13,2022-10-28 16:09:16.765625
2103,22.48,2022-10-28 16:09:16.781250
2104,18.19,2022-10-28 16:09:16.796875
2105,11.91,2022-10-28 16:09:16.812500
2106,3.27,2022-10-28 16:09:16.828125
2107,-7.61,2022-10-28 16:09:16.843750
2108,-19.9,2022-10-28 16:09:16.859375
2109,-32.11,2022-10-28 16:09:16.875000
2110,-42.48,2022-10-28 16:09:16.890625
2111,-49.55,2022-10-28 16:09:16.906250
2112,-52.45,2022-10-28 16:09:16.921875
2113,-51.08,2022-10-28 16:09:16.937500
2114,-45.94,2022-10-28 16:09:16.953125
2115,-37.98,2022-10-28 16:09:16.968750
2116,-28.28,2022-10-28 16:09:16.984375
2117,-18.0,2022-10-28 16:09:17.000000
2118,-8.09,2022-10-28 16:09:17.015625
2119,0.67,2022-10-28 16:09:17.031250
2120,7.8,2022-10-28 16:09:17.046875
2121,13.01,2022-10-28 16:09:17.062500
2122,16.09,2022-10-28 16:09:17.078125
2123,16.93,2022-10-28 16:09:17.093750
2124,15.55,2022-10-28 16:09:17.109375
2125,12.23,2022-10-28 16:09:17.125000
2126,7.58,2022-10-28 16:09:17.140625
2127,2.43,2022-10-28 16:09:17.156250
2128,-2.36,2022-10-28 16:09:17.171875
2129,-6.2,2022-10-28 16:09:17.187500
2130,-8.72,2022-10-28 16:09:17.203125
2131,-9.76,2022-10-28 16:09:17.218750
2132,-9.11,2022-10-28 16:09:17.234375
2133,-6.48,2022-10-28 16:09:17.250000
2134,-1.66,2022-10-28 16:09:17.265625
2135,5.33,2022-10-28 16:09:17.281250
2136,14.0,2022-10-28 16:09:17.296875
2137,23.5,2022-10-28 16:09:17.312500
2138,32.8,2022-10-28 16:09:17.328125
2139,40.95,2022-10-28 16:09:17.343750
2140,47.19,2022-10-28 16:09:17.359375
2141,51.01,2022-10-28 16:09:17.375000
2142,52.11,2022-10-28 16:09:17.390625
2143,50.44,2022-10-28 16:09:17.406250
2144,46.31,2022-10-28 16:09:17.421875
2145,40.43,2022-10-28 16:09:17.437500
2146,33.8,2022-10-28 16:09:17.453125
2147,27.51,2022-10-28 16:09:17.468750
2148,22.4,2022-10-28 16:09:17.484375
2149,18.82,2022-10-28 16:09:17.500000
2150,16.65,2022-10-28 16:09:17.515625
2151,15.53,2022-10-28 16:09:17.531250
2152,15.15,2022-10-28 16:09:17.546875
2153,15.54,2022-10-28 16:09:17.562500
2154,16.95,2022-10-28 16:09:17.578125
2155,19.68,2022-10-28 16:09:17.593750
2156,23.68,2022-10-28 16:09:17.609375
2157,28.48,2022-10-28 16:09:17.625000
2158,33.16,2022-10-28 16:09:17.640625
2159,36.71,2022-10-28 16:09:17.656250
2160,38.38,2022-10-28 16:09:17.671875
2161,37.9,2022-10-28 16:09:17.687500
2162,35.4,2022-10-28 16:09:17.703125
2163,31.33,2022-10-28 16:09:17.718750
2164,26.12,2022-10-28 16:09:17.734375
2165,20.13,2022-10-28 16:09:17.750000
2166,13.65,2022-10-28 16:09:17.765625
2167,6.96,2022-10-28 16:09:17.781250
2168,0.42,2022-10-28 16:09:17.796875
2169,-5.65,2022-10-28 16:09:17.812500
2170,-11.07,2022-10-28 16:09:17.828125
2171,-15.97,2022-10-28 16:09:17.843750
2172,-20.72,2022-10-28 16:09:17.859375
2173,-25.82,2022-10-28 16:09:17.875000
2174,-31.6,2022-10-28 16:09:17.890625
2175,-38.01,2022-10-28 16:09:17.906250
2176,-44.61,2022-10-28 16:09:17.921875
2177,-50.67,2022-10-28 16:09:17.937500
2178,-55.43,2022-10-28 16:09:17.953125
2179,-58.31,2022-10-28 16:09:17.968750
2180,-59.1,2022-10-28 16:09:17.984375
2181,-58.01,2022-10-28 16:09:18.000000
2182,-55.56,2022-10-28 16:09:18.015625
2183,-52.41,2022-10-28 16:09:18.031250
2184,-49.18,2022-10-28 16:09:18.046875
2185,-46.25,2022-10-28 16:09:18.062500
2186,-43.68,2022-10-28 16:09:18.078125
2187,-41.28,2022-10-28 16:09:18.093750
2188,-38.69,2022-10-28 16:09:18.109375
2189,-35.64,2022-10-28 16:09:18.125000
2190,-32.06,2022-10-28 16:09:18.140625
2191,-28.21,2022-10-28 16:09:18.156250
2192,-24.52,2022-10-28 16:09:18.171875
2193,-21.4,2022-10-28 16:09:18.187500
2194,-19.02,2022-10-28 16:09:18.203125
2195,-17.13,2022-10-28 16:09:18.218750
2196,-15.11,2022-10-28 16:09:18.234375
2197,-12.27,2022-10-28 16:09:18.250000
2198,-8.09,2022-10-28 16:09:18.265625
2199,-2.57,2022-10-28 16:09:18.281250
2200,3.89,2022-10-28 16:09:18.296875
2201,10.42,2022-10-28 16:09:18.312500
2202,16.11,2022-10-28 16:09:18.328125
2203,20.25,2022-10-28 16:09:18.343750
2204,22.58,2022-10-28 16:09:18.359375
2205,23.5,2022-10-28 16:09:18.375000
2206,23.86,2022-10-28 16:09:18.390625
2207,24.81,2022-10-28 16:09:18.406250
2208,27.38,2022-10-28 16:09:18.421875
2209,32.22,2022-10-28 16:09:18.437500
2210,39.31,2022-10-28 16:09:18.453125
2211,47.97,2022-10-28 16:09:18.468750
2212,57.07,2022-10-28 16:09:18.484375
2213,65.35,2022-10-28 16:09:18.500000
2214,71.73,2022-10-28 16:09:18.515625
2215,75.61,2022-10-28 16:09:18.531250
2216,76.83,2022-10-28 16:09:18.546875
2217,75.58,2022-10-28 16:09:18.562500
2218,72.23,2022-10-28 16:09:18.578125
2219,67.14,2022-10-28 16:09:18.593750
2220,60.35,2022-10-28 16:09:18.609375
2221,51.59,2022-10-28 16:09:18.625000
2222,40.24,2022-10-28 16:09:18.640625
2223,25.77,2022-10-28 16:09:18.656250
2224,8.17,2022-10-28 16:09:18.671875
2225,-11.68,2022-10-28 16:09:18.687500
2226,-31.96,2022-10-28 16:09:18.703125
2227,-50.37,2022-10-28 16:09:18.718750
2228,-64.81,2022-10-28 16:09:18.734375
2229,-73.98,2022-10-28 16:09:18.750000
2230,-77.66,2022-10-28 16:09:18.765625
2231,-76.53,2022-10-28 16:09:18.781250
2232,-71.65,2022-10-28 16:09:18.796875
2233,-64.11,2022-10-28 16:09:18.812500
2234,-54.87,2022-10-28 16:09:18.828125
2235,-44.85,2022-10-28 16:09:18.843750
2236,-35.19,2022-10-28 16:09:18.859375
2237,-27.14,2022-10-28 16:09:18.875000
2238,-21.9,2022-10-28 16:09:18.890625
2239,-20.09,2022-10-28 16:09:18.906250
2240,-21.51,2022-10-28 16:09:18.921875
2241,-25.21,2022-10-28 16:09:18.937500
2242,-29.79,2022-10-28 16:09:18.953125
2243,-33.93,2022-10-28 16:09:18.968750
2244,-36.76,2022-10-28 16:09:18.984375
2245,-38.01,2022-10-28 16:09:19.000000
2246,-37.84,2022-10-28 16:09:19.015625
2247,-36.57,2022-10-28 16:09:19.031250
2248,-34.4,2022-10-28 16:09:19.046875
2249,-31.35,2022-10-28 16:09:19.062500
2250,-27.34,2022-10-28 16:09:19.078125
2251,-22.43,2022-10-28 16:09:19.093750
2252,-16.97,2022-10-28 16:09:19.109375
2253,-11.57,2022-10-28 16:09:19.125000
2254,-6.93,2022-10-28 16:09:19.140625
2255,-3.53,2022-10-28 16:09:19.156250
2256,-1.52,2022-10-28 16:09:19.171875
2257,-0.66,2022-10-28 16:09:19.187500
2258,-0.54,2022-10-28 16:09:19.203125
2259,-0.7,2022-10-28 16:09:19.218750
2260,-0.85,2022-10-28 16:09:19.234375
2261,-0.86,2022-10-28 16:09:19.250000
2262,-0.77,2022-10-28 16:09:19.265625
2263,-0.65,2022-10-28 16:09:19.281250
2264,-0.59,2022-10-28 16:09:19.296875
2265,-0.73,2022-10-28 16:09:19.312500
2266,-1.18,2022-10-28 16:09:19.328125
2267,-2.1,2022-10-28 16:09:19.343750
2268,-3.59,2022-10-28 16:09:19.359375
2269,-5.57,2022-10-28 16:09:19.375000
2270,-7.73,2022-10-28 16:09:19.390625
2271,-9.51,2022-10-28 16:09:19.406250
2272,-10.28,2022-10-28 16:09:19.421875
2273,-9.56,2022-10-28 16:09:19.437500
2274,-7.25,2022-10-28 16:09:19.453125
2275,-3.7,2022-10-28 16:09:19.468750
2276,0.31,2022-10-28 16:09:19.484375
2277,3.92,2022-10-28 16:09:19.500000
2278,6.46,2022-10-28 16:09:19.515625
2279,7.66,2022-10-28 16:09:19.531250
2280,7.71,2022-10-28 16:09:19.546875
2281,7.05,2022-10-28 16:09:19.562500
2282,6.17,2022-10-28 16:09:19.578125
2283,5.39,2022-10-28 16:09:19.593750
2284,4.82,2022-10-28 16:09:19.609375
2285,4.42,2022-10-28 16:09:19.625000
2286,4.1,2022-10-28 16:09:19.640625
2287,3.83,2022-10-28 16:09:19.656250
2288,3.61,2022-10-28 16:09:19.671875
2289,3.43,2022-10-28 16:09:19.687500
2290,3.21,2022-10-28 16:09:19.703125
2291,2.79,2022-10-28 16:09:19.718750
2292,1.95,2022-10-28 16:09:19.734375
2293,0.55,2022-10-28 16:09:19.750000
2294,-1.48,2022-10-28 16:09:19.765625
2295,-4.02,2022-10-28 16:09:19.781250
2296,-6.8,2022-10-28 16:09:19.796875
2297,-9.38,2022-10-28 16:09:19.812500
2298,-11.21,2022-10-28 16:09:19.828125
2299,-11.79,2022-10-28 16:09:19.843750
2300,-10.76,2022-10-28 16:09:19.859375
2301,-8.18,2022-10-28 16:09:19.875000
2302,-4.61,2022-10-28 16:09:19.890625
2303,-1.03,2022-10-28 16:09:19.906250
2304,1.35,2022-10-28 16:09:19.921875
2305,1.55,2022-10-28 16:09:19.937500
2306,-0.77,2022-10-28 16:09:19.953125
2307,-5.05,2022-10-28 16:09:19.968750
2308,-9.93,2022-10-28 16:09:19.984375
2309,-13.54,2022-10-28 16:09:20.000000
2310,-14.23,2022-10-28 16:09:20.015625
2311,-11.16,2022-10-28 16:09:20.031250
2312,-4.63,2022-10-28 16:09:20.046875
2313,3.9,2022-10-28 16:09:20.062500
2314,12.38,2022-10-28 16:09:20.078125
2315,18.74,2022-10-28 16:09:20.093750
2316,21.54,2022-10-28 16:09:20.109375
2317,20.26,2022-10-28 16:09:20.125000
2318,15.32,2022-10-28 16:09:20.140625
2319,7.7,2022-10-28 16:09:20.156250
2320,-1.27,2022-10-28 16:09:20.171875
2321,-10.27,2022-10-28 16:09:20.187500
2322,-18.0,2022-10-28 16:09:20.203125
2323,-23.3,2022-10-28 16:09:20.218750
2324,-25.32,2022-10-28 16:09:20.234375
2325,-23.76,2022-10-28 16:09:20.250000
2326,-19.1,2022-10-28 16:09:20.265625
2327,-12.52,2022-10-28 16:09:20.281250
2328,-5.59,2022-10-28 16:09:20.296875
2329,0.28,2022-10-28 16:09:20.312500
2330,4.32,2022-10-28 16:09:20.328125
2331,6.52,2022-10-28 16:09:20.343750
2332,7.53,2022-10-28 16:09:20.359375
2333,8.12,2022-10-28 16:09:20.375000
2334,8.88,2022-10-28 16:09:20.390625
2335,9.94,2022-10-28 16:09:20.406250
2336,11.22,2022-10-28 16:09:20.421875
2337,12.51,2022-10-28 16:09:20.437500
2338,13.74,2022-10-28 16:09:20.453125
2339,14.94,2022-10-28 16:09:20.468750
2340,16.07,2022-10-28 16:09:20.484375
2341,16.89,2022-10-28 16:09:20.500000
2342,17.02,2022-10-28 16:09:20.515625
2343,16.12,2022-10-28 16:09:20.531250
2344,14.14,2022-10-28 16:09:20.546875
2345,11.43,2022-10-28 16:09:20.562500
2346,8.54,2022-10-28 16:09:20.578125
2347,6.05,2022-10-28 16:09:20.593750
2348,4.28,2022-10-28 16:09:20.609375
2349,3.22,2022-10-28 16:09:20.625000
2350,2.73,2022-10-28 16:09:20.640625
2351,2.68,2022-10-28 16:09:20.656250
2352,3.11,2022-10-28 16:09:20.671875
2353,4.1,2022-10-28 16:09:20.687500
2354,5.62,2022-10-28 16:09:20.703125
2355,7.39,2022-10-28 16:09:20.718750
2356,8.92,2022-10-28 16:09:20.734375
2357,9.73,2022-10-28 16:09:20.750000
2358,9.59,2022-10-28 16:09:20.765625
2359,8.7,2022-10-28 16:09:20.781250
2360,7.48,2022-10-28 16:09:20.796875
2361,6.36,2022-10-28 16:09:20.812500
2362,5.57,2022-10-28 16:09:20.828125
2363,5.08,2022-10-28 16:09:20.843750
2364,4.71,2022-10-28 16:09:20.859375
2365,4.39,2022-10-28 16:09:20.875000
2366,4.19,2022-10-28 16:09:20.890625
2367,4.28,2022-10-28 16:09:20.906250
2368,4.74,2022-10-28 16:09:20.921875
2369,5.39,2022-10-28 16:09:20.937500
2370,5.88,2022-10-28 16:09:20.953125
2371,5.74,2022-10-28 16:09:20.968750
2372,4.7,2022-10-28 16:09:20.984375
2373,2.83,2022-10-28 16:09:21.000000
2374,0.56,2022-10-28 16:09:21.015625
2375,-1.47,2022-10-28 16:09:21.031250
2376,-2.69,2022-10-28 16:09:21.046875
2377,-2.82,2022-10-28 16:09:21.062500
2378,-1.95,2022-10-28 16:09:21.078125
2379,-0.41,2022-10-28 16:09:21.093750
2380,1.41,2022-10-28 16:09:21.109375
2381,3.32,2022-10-28 16:09:21.125000
2382,5.33,2022-10-28 16:09:21.140625
2383,7.61,2022-10-28 16:09:21.156250
2384,10.26,2022-10-28 16:09:21.171875
2385,13.18,2022-10-28 16:09:21.187500
2386,16.06,2022-10-28 16:09:21.203125
2387,18.53,2022-10-28 16:09:21.218750
2388,20.4,2022-10-28 16:09:21.234375
2389,21.71,2022-10-28 16:09:21.250000
2390,22.72,2022-10-28 16:09:21.265625
2391,23.78,2022-10-28 16:09:21.281250
2392,25.1,2022-10-28 16:09:21.296875
2393,26.68,2022-10-28 16:09:21.312500
2394,28.39,2022-10-28 16:09:21.328125
2395,29.99,2022-10-28 16:09:21.343750
2396,31.29,2022-10-28 16:09:21.359375
2397,32.14,2022-10-28 16:09:21.375000
2398,32.41,2022-10-28 16:09:21.390625
2399,31.93,2022-10-28 16:09:21.406250
2400,30.51,2022-10-28 16:09:21.421875
2401,27.99,2022-10-28 16:09:21.437500
2402,24.33,2022-10-28 16:09:21.453125
2403,19.64,2022-10-28 16:09:21.468750
2404,14.21,2022-10-28 16:09:21.484375
2405,8.42,2022-10-28 16:09:21.500000
2406,2.68,2022-10-28 16:09:21.515625
2407,-2.63,2022-10-28 16:09:21.531250
2408,-7.17,2022-10-28 16:09:21.546875
2409,-10.75,2022-10-28 16:09:21.562500
2410,-13.3,2022-10-28 16:09:21.578125
2411,-14.88,2022-10-28 16:09:21.593750
2412,-15.66,2022-10-28 16:09:21.609375
2413,-15.8,2022-10-28 16:09:21.625000
2414,-15.4,2022-10-28 16:09:21.640625
2415,-14.5,2022-10-28 16:09:21.656250
2416,-13.09,2022-10-28 16:09:21.671875
2417,-11.25,2022-10-28 16:09:21.687500
2418,-9.26,2022-10-28 16:09:21.703125
2419,-7.54,2022-10-28 16:09:21.718750
2420,-6.57,2022-10-28 16:09:21.734375
2421,-6.69,2022-10-28 16:09:21.750000
2422,-7.94,2022-10-28 16:09:21.765625
2423,-10.0,2022-10-28 16:09:21.781250
2424,-12.26,2022-10-28 16:09:21.796875
2425,-14.05,2022-10-28 16:09:21.812500
2426,-14.85,2022-10-28 16:09:21.828125
2427,-14.44,2022-10-28 16:09:21.843750
2428,-12.92,2022-10-28 16:09:21.859375
2429,-10.66,2022-10-28 16:09:21.875000
2430,-8.11,2022-10-28 16:09:21.890625
2431,-5.6,2022-10-28 16:09:21.906250
2432,-3.33,2022-10-28 16:09:21.921875
2433,-1.26,2022-10-28 16:09:21.937500
2434,0.74,2022-10-28 16:09:21.953125
2435,2.74,2022-10-28 16:09:21.968750
2436,4.64,2022-10-28 16:09:21.984375
2437,6.21,2022-10-28 16:09:22.000000
2438,7.16,2022-10-28 16:09:22.015625
2439,7.35,2022-10-28 16:09:22.031250
2440,6.9,2022-10-28 16:09:22.046875
2441,6.13,2022-10-28 16:09:22.062500
2442,5.42,2022-10-28 16:09:22.078125
2443,5.01,2022-10-28 16:09:22.093750
2444,4.93,2022-10-28 16:09:22.109375
2445,4.98,2022-10-28 16:09:22.125000
2446,4.91,2022-10-28 16:09:22.140625
2447,4.56,2022-10-28 16:09:22.156250
2448,3.97,2022-10-28 16:09:22.171875
2449,3.27,2022-10-28 16:09:22.187500
2450,2.58,2022-10-28 16:09:22.203125
2451,1.88,2022-10-28 16:09:22.218750
2452,1.04,2022-10-28 16:09:22.234375
2453,-0.11,2022-10-28 16:09:22.250000
2454,-1.57,2022-10-28 16:09:22.265625
2455,-3.16,2022-10-28 16:09:22.281250
2456,-4.6,2022-10-28 16:09:22.296875
2457,-5.64,2022-10-28 16:09:22.312500
2458,-6.14,2022-10-28 16:09:22.328125
2459,-6.12,2022-10-28 16:09:22.343750
2460,-5.7,2022-10-28 16:09:22.359375
2461,-4.99,2022-10-28 16:09:22.375000
2462,-4.07,2022-10-28 16:09:22.390625
2463,-3.04,2022-10-28 16:09:22.406250
2464,-2.07,2022-10-28 16:09:22.421875
2465,-1.42,2022-10-28 16:09:22.437500
2466,-1.41,2022-10-28 16:09:22.453125
2467,-2.29,2022-10-28 16:09:22.468750
2468,-4.22,2022-10-28 16:09:22.484375
2469,-7.13,2022-10-28 16:09:22.500000
2470,-10.75,2022-10-28 16:09:22.515625
2471,-14.74,2022-10-28 16:09:22.531250
2472,-18.76,2022-10-28 16:09:22.546875
2473,-22.59,2022-10-28 16:09:22.562500
2474,-26.11,2022-10-28 16:09:22.578125
2475,-29.23,2022-10-28 16:09:22.593750
2476,-31.8,2022-10-28 16:09:22.609375
2477,-33.53,2022-10-28 16:09:22.625000
2478,-34.11,2022-10-28 16:09:22.640625
2479,-33.24,2022-10-28 16:09:22.656250
2480,-30.9,2022-10-28 16:09:22.671875
2481,-27.41,2022-10-28 16:09:22.687500
2482,-23.27,2022-10-28 16:09:22.703125
2483,-19.01,2022-10-28 16:09:22.718750
2484,-14.91,2022-10-28 16:09:22.734375
2485,-11.01,2022-10-28 16:09:22.750000
2486,-7.24,2022-10-28 16:09:22.765625
2487,-3.64,2022-10-28 16:09:22.781250
2488,-0.46,2022-10-28 16:09:22.796875
2489,1.89,2022-10-28 16:09:22.812500
2490,3.11,2022-10-28 16:09:22.828125
2491,3.16,2022-10-28 16:09:22.843750
2492,2.34,2022-10-28 16:09:22.859375
2493,1.1,2022-10-28 16:09:22.875000
2494,-0.11,2022-10-28 16:09:22.890625
2495,-0.99,2022-10-28 16:09:22.906250
2496,-1.4,2022-10-28 16:09:22.921875
2497,-1.3,2022-10-28 16:09:22.937500
2498,-0.67,2022-10-28 16:09:22.953125
2499,0.4,2022-10-28 16:09:22.968750
2500,1.75,2022-10-28 16:09:22.984375
2501,3.07,2022-10-28 16:09:23.000000
2502,4.03,2022-10-28 16:09:23.015625
2503,4.37,2022-10-28 16:09:23.031250
2504,4.02,2022-10-28 16:09:23.046875
2505,3.05,2022-10-28 16:09:23.062500
2506,1.63,2022-10-28 16:09:23.078125
2507,-0.06,2022-10-28 16:09:23.093750
2508,-1.76,2022-10-28 16:09:23.109375
2509,-3.09,2022-10-28 16:09:23.125000
2510,-3.57,2022-10-28 16:09:23.140625
2511,-2.77,2022-10-28 16:09:23.156250
2512,-0.59,2022-10-28 16:09:23.171875
2513,2.53,2022-10-28 16:09:23.187500
2514,5.67,2022-10-28 16:09:23.203125
2515,7.76,2022-10-28 16:09:23.218750
2516,7.96,2022-10-28 16:09:23.234375
2517,6.05,2022-10-28 16:09:23.250000
2518,2.39,2022-10-28 16:09:23.265625
2519,-2.23,2022-10-28 16:09:23.281250
2520,-7.01,2022-10-28 16:09:23.296875
2521,-11.44,2022-10-28 16:09:23.312500
2522,-15.43,2022-10-28 16:09:23.328125
2523,-19.17,2022-10-28 16:09:23.343750
2524,-22.96,2022-10-28 16:09:23.359375
2525,-26.89,2022-10-28 16:09:23.375000
2526,-30.8,2022-10-28 16:09:23.390625
2527,-34.24,2022-10-28 16:09:23.406250
2528,-36.61,2022-10-28 16:09:23.421875
2529,-37.4,2022-10-28 16:09:23.437500
2530,-36.37,2022-10-28 16:09:23.453125
2531,-33.64,2022-10-28 16:09:23.468750
2532,-29.63,2022-10-28 16:09:23.484375
2533,-24.96,2022-10-28 16:09:23.500000
2534,-20.26,2022-10-28 16:09:23.515625
2535,-15.96,2022-10-28 16:09:23.531250
2536,-12.29,2022-10-28 16:09:23.546875
2537,-9.25,2022-10-28 16:09:23.562500
2538,-6.74,2022-10-28 16:09:23.578125
2539,-4.64,2022-10-28 16:09:23.593750
2540,-2.9,2022-10-28 16:09:23.609375
2541,-1.57,2022-10-28 16:09:23.625000
2542,-0.8,2022-10-28 16:09:23.640625
2543,-0.7,2022-10-28 16:09:23.656250
2544,-1.25,2022-10-28 16:09:23.671875
2545,-2.21,2022-10-28 16:09:23.687500
2546,-3.15,2022-10-28 16:09:23.703125
2547,-3.54,2022-10-28 16:09:23.718750
2548,-3.05,2022-10-28 16:09:23.734375
2549,-1.57,2022-10-28 16:09:23.750000
2550,0.66,2022-10-28 16:09:23.765625
2551,3.17,2022-10-28 16:09:23.781250
2552,5.43,2022-10-28 16:09:23.796875
2553,7.03,2022-10-28 16:09:23.812500
2554,7.69,2022-10-28 16:09:23.828125
2555,7.3,2022-10-28 16:09:23.843750
2556,5.93,2022-10-28 16:09:23.859375
2557,3.63,2022-10-28 16:09:23.875000
2558,0.49,2022-10-28 16:09:23.890625
2559,-3.45,2022-10-28 16:09:23.906250
2560,-8.14,2022-10-28 16:09:23.921875
2561,-13.35,2022-10-28 16:09:23.937500
2562,-18.58,2022-10-28 16:09:23.953125
2563,-23.08,2022-10-28 16:09:23.968750
2564,-26.09,2022-10-28 16:09:23.984375
2565,-27.22,2022-10-28 16:09:24.000000
2566,-26.74,2022-10-28 16:09:24.015625
2567,-25.67,2022-10-28 16:09:24.031250
2568,-25.39,2022-10-28 16:09:24.046875
2569,-27.01,2022-10-28 16:09:24.062500
2570,-30.85,2022-10-28 16:09:24.078125
2571,-36.19,2022-10-28 16:09:24.093750
2572,-41.55,2022-10-28 16:09:24.109375
2573,-45.28,2022-10-28 16:09:24.125000
2574,-46.12,2022-10-28 16:09:24.140625
2575,-43.56,2022-10-28 16:09:24.156250
2576,-37.81,2022-10-28 16:09:24.171875
2577,-29.61,2022-10-28 16:09:24.187500
2578,-19.94,2022-10-28 16:09:24.203125
2579,-9.68,2022-10-28 16:09:24.218750
2580,0.56,2022-10-28 16:09:24.234375
2581,10.47,2022-10-28 16:09:24.250000
2582,19.9,2022-10-28 16:09:24.265625
2583,28.57,2022-10-28 16:09:24.281250
2584,35.89,2022-10-28 16:09:24.296875
2585,40.95,2022-10-28 16:09:24.312500
2586,42.85,2022-10-28 16:09:24.328125
2587,41.0,2022-10-28 16:09:24.343750
2588,35.4,2022-10-28 16:09:24.359375
2589,26.38,2022-10-28 16:09:24.375000
2590,14.45,2022-10-28 16:09:24.390625
2591,0.1,2022-10-28 16:09:24.406250
2592,-15.89,2022-10-28 16:09:24.421875
2593,-32.01,2022-10-28 16:09:24.437500
2594,-45.61,2022-10-28 16:09:24.453125
2595,-53.25,2022-10-28 16:09:24.468750
2596,-51.65,2022-10-28 16:09:24.484375
2597,-39.08,2022-10-28 16:09:24.500000
2598,-16.27,2022-10-28 16:09:24.515625
2599,13.63,2022-10-28 16:09:24.531250
2600,45.99,2022-10-28 16:09:24.546875
2601,76.11,2022-10-28 16:09:24.562500
2602,100.38,2022-10-28 16:09:24.578125
2603,116.67,2022-10-28 16:09:24.593750
2604,124.36,2022-10-28 16:09:24.609375
2605,123.9,2022-10-28 16:09:24.625000
2606,116.71,2022-10-28 16:09:24.640625
2607,104.99,2022-10-28 16:09:24.656250
2608,91.64,2022-10-28 16:09:24.671875
2609,79.73,2022-10-28 16:09:24.687500
2610,71.75,2022-10-28 16:09:24.703125
2611,68.87,2022-10-28 16:09:24.718750
2612,70.51,2022-10-28 16:09:24.734375
2613,74.53,2022-10-28 16:09:24.750000
2614,78.02,2022-10-28 16:09:24.765625
2615,78.38,2022-10-28 16:09:24.781250
2616,74.26,2022-10-28 16:09:24.796875
2617,66.02,2022-10-28 16:09:24.812500
2618,55.37,2022-10-28 16:09:24.828125
2619,44.58,2022-10-28 16:09:24.843750
2620,35.4,2022-10-28 16:09:24.859375
2621,28.37,2022-10-28 16:09:24.875000
2622,22.67,2022-10-28 16:09:24.890625
2623,16.69,2022-10-28 16:09:24.906250
2624,8.88,2022-10-28 16:09:24.921875
2625,-1.47,2022-10-28 16:09:24.937500
2626,-13.94,2022-10-28 16:09:24.953125
2627,-27.21,2022-10-28 16:09:24.968750
2628,-39.7,2022-10-28 16:09:24.984375
2629,-50.13,2022-10-28 16:09:25.000000
2630,-57.8,2022-10-28 16:09:25.015625
2631,-62.55,2022-10-28 16:09:25.031250
2632,-64.56,2022-10-28 16:09:25.046875
2633,-64.17,2022-10-28 16:09:25.062500
2634,-61.87,2022-10-28 16:09:25.078125
2635,-58.37,2022-10-28 16:09:25.093750
2636,-54.48,2022-10-28 16:09:25.109375
2637,-50.94,2022-10-28 16:09:25.125000
2638,-48.21,2022-10-28 16:09:25.140625
2639,-46.24,2022-10-28 16:09:25.156250
2640,-44.55,2022-10-28 16:09:25.171875
2641,-42.49,2022-10-28 16:09:25.187500
2642,-39.59,2022-10-28 16:09:25.203125
2643,-35.69,2022-10-28 16:09:25.218750
2644,-31.0,2022-10-28 16:09:25.234375
2645,-25.89,2022-10-28 16:09:25.250000
2646,-20.74,2022-10-28 16:09:25.265625
2647,-15.83,2022-10-28 16:09:25.281250
2648,-11.45,2022-10-28 16:09:25.296875
2649,-7.85,2022-10-28 16:09:25.312500
2650,-5.23,2022-10-28 16:09:25.328125
2651,-3.63,2022-10-28 16:09:25.343750
2652,-2.87,2022-10-28 16:09:25.359375
2653,-2.58,2022-10-28 16:09:25.375000
2654,-2.45,2022-10-28 16:09:25.390625
2655,-2.41,2022-10-28 16:09:25.406250
2656,-2.7,2022-10-28 16:09:25.421875
2657,-3.77,2022-10-28 16:09:25.437500
2658,-6.03,2022-10-28 16:09:25.453125
2659,-9.6,2022-10-28 16:09:25.468750
2660,-14.22,2022-10-28 16:09:25.484375
2661,-19.33,2022-10-28 16:09:25.500000
2662,-24.37,2022-10-28 16:09:25.515625
2663,-28.87,2022-10-28 16:09:25.531250
2664,-32.62,2022-10-28 16:09:25.546875
2665,-35.53,2022-10-28 16:09:25.562500
2666,-37.59,2022-10-28 16:09:25.578125
2667,-38.7,2022-10-28 16:09:25.593750
2668,-38.65,2022-10-28 16:09:25.609375
2669,-37.12,2022-10-28 16:09:25.625000
2670,-33.79,2022-10-28 16:09:25.640625
2671,-28.42,2022-10-28 16:09:25.656250
2672,-21.13,2022-10-28 16:09:25.671875
2673,-12.56,2022-10-28 16:09:25.687500
2674,-3.84,2022-10-28 16:09:25.703125
2675,3.56,2022-10-28 16:09:25.718750
2676,8.37,2022-10-28 16:09:25.734375
2677,9.9,2022-10-28 16:09:25.750000
2678,8.22,2022-10-28 16:09:25.765625
2679,4.11,2022-10-28 16:09:25.781250
2680,-1.42,2022-10-28 16:09:25.796875
2681,-7.51,2022-10-28 16:09:25.812500
2682,-13.55,2022-10-28 16:09:25.828125
2683,-19.09,2022-10-28 16:09:25.843750
2684,-23.52,2022-10-28 16:09:25.859375
2685,-25.98,2022-10-28 16:09:25.875000
2686,-25.54,2022-10-28 16:09:25.890625
2687,-21.81,2022-10-28 16:09:25.906250
2688,-15.28,2022-10-28 16:09:25.921875
2689,-7.48,2022-10-28 16:09:25.937500
2690,-0.55,2022-10-28 16:09:25.953125
2691,3.57,2022-10-28 16:09:25.968750
2692,3.85,2022-10-28 16:09:25.984375
2693,0.51,2022-10-28 16:09:26.000000
2694,-5.2,2022-10-28 16:09:26.015625
2695,-11.57,2022-10-28 16:09:26.031250
2696,-17.21,2022-10-28 16:09:26.046875
2697,-21.51,2022-10-28 16:09:26.062500
2698,-24.78,2022-10-28 16:09:26.078125
2699,-27.8,2022-10-28 16:09:26.093750
2700,-31.31,2022-10-28 16:09:26.109375
2701,-35.48,2022-10-28 16:09:26.125000
2702,-39.72,2022-10-28 16:09:26.140625
2703,-42.9,2022-10-28 16:09:26.156250
2704,-43.77,2022-10-28 16:09:26.171875
2705,-41.33,2022-10-28 16:09:26.187500
2706,-34.87,2022-10-28 16:09:26.203125
2707,-23.94,2022-10-28 16:09:26.218750
2708,-8.15,2022-10-28 16:09:26.234375
2709,12.59,2022-10-28 16:09:26.250000
2710,37.66,2022-10-28 16:09:26.265625
2711,65.39,2022-10-28 16:09:26.281250
2712,93.1,2022-10-28 16:09:26.296875
2713,117.74,2022-10-28 16:09:26.312500
2714,136.98,2022-10-28 16:09:26.328125
2715,149.97,2022-10-28 16:09:26.343750
2716,157.37,2022-10-28 16:09:26.359375
2717,160.69,2022-10-28 16:09:26.375000
2718,161.13,2022-10-28 16:09:26.390625
2719,158.91,2022-10-28 16:09:26.406250
2720,153.35,2022-10-28 16:09:26.421875
2721,143.67,2022-10-28 16:09:26.437500
2722,129.74,2022-10-28 16:09:26.453125
2723,112.33,2022-10-28 16:09:26.468750
2724,92.54,2022-10-28 16:09:26.484375
2725,70.86,2022-10-28 16:09:26.500000
2726,46.73,2022-10-28 16:09:26.515625
2727,19.06,2022-10-28 16:09:26.531250
2728,-12.43,2022-10-28 16:09:26.546875
2729,-46.15,2022-10-28 16:09:26.562500
2730,-78.44,2022-10-28 16:09:26.578125
2731,-104.74,2022-10-28 16:09:26.593750
2732,-121.41,2022-10-28 16:09:26.609375
2733,-127.3,2022-10-28 16:09:26.625000
2734,-123.95,2022-10-28 16:09:26.640625
2735,-114.48,2022-10-28 16:09:26.656250
2736,-101.94,2022-10-28 16:09:26.671875
2737,-88.03,2022-10-28 16:09:26.687500
2738,-73.05,2022-10-28 16:09:26.703125
2739,-56.66,2022-10-28 16:09:26.718750
2740,-39.04,2022-10-28 16:09:26.734375
2741,-21.39,2022-10-28 16:09:26.750000
2742,-5.58,2022-10-28 16:09:26.765625
2743,6.68,2022-10-28 16:09:26.781250
2744,14.6,2022-10-28 16:09:26.796875
2745,18.45,2022-10-28 16:09:26.812500
2746,19.26,2022-10-28 16:09:26.828125
2747,18.16,2022-10-28 16:09:26.843750
2748,16.04,2022-10-28 16:09:26.859375
2749,13.37,2022-10-28 16:09:26.875000
2750,10.3,2022-10-28 16:09:26.890625
2751,6.78,2022-10-28 16:09:26.906250
2752,2.8,2022-10-28 16:09:26.921875
2753,-1.49,2022-10-28 16:09:26.937500
2754,-5.66,2022-10-28 16:09:26.953125
2755,-9.01,2022-10-28 16:09:26.968750
2756,-10.76,2022-10-28 16:09:26.984375
2757,-10.3,2022-10-28 16:09:27.000000
2758,-7.51,2022-10-28 16:09:27.015625
2759,-2.86,2022-10-28 16:09:27.031250
2760,2.86,2022-10-28 16:09:27.046875
2761,8.9,2022-10-28 16:09:27.062500
2762,14.8,2022-10-28 16:09:27.078125
2763,20.48,2022-10-28 16:09:27.093750
2764,26.06,2022-10-28 16:09:27.109375
2765,31.56,2022-10-28 16:09:27.125000
2766,36.73,2022-10-28 16:09:27.140625
2767,41.21,2022-10-28 16:09:27.156250
2768,44.67,2022-10-28 16:09:27.171875
2769,47.01,2022-10-28 16:09:27.187500
2770,48.38,2022-10-28 16:09:27.203125
2771,49.01,2022-10-28 16:09:27.218750
2772,48.99,2022-10-28 16:09:27.234375
2773,48.2,2022-10-28 16:09:27.250000
2774,46.37,2022-10-28 16:09:27.265625
2775,43.31,2022-10-28 16:09:27.281250
2776,39.1,2022-10-28 16:09:27.296875
2777,34.05,2022-10-28 16:09:27.312500
2778,28.5,2022-10-28 16:09:27.328125
2779,22.48,2022-10-28 16:09:27.343750
2780,15.75,2022-10-28 16:09:27.359375
2781,7.9,2022-10-28 16:09:27.375000
2782,-1.18,2022-10-28 16:09:27.390625
2783,-11.04,2022-10-28 16:09:27.406250
2784,-20.62,2022-10-28 16:09:27.421875
2785,-28.61,2022-10-28 16:09:27.437500
2786,-33.93,2022-10-28 16:09:27.453125
2787,-36.19,2022-10-28 16:09:27.468750
2788,-35.87,2022-10-28 16:09:27.484375
2789,-34.03,2022-10-28 16:09:27.500000
2790,-31.84,2022-10-28 16:09:27.515625
2791,-30.15,2022-10-28 16:09:27.531250
2792,-29.17,2022-10-28 16:09:27.546875
2793,-28.58,2022-10-28 16:09:27.562500
2794,-27.77,2022-10-28 16:09:27.578125
2795,-26.07,2022-10-28 16:09:27.593750
2796,-22.97,2022-10-28 16:09:27.609375
2797,-18.2,2022-10-28 16:09:27.625000
2798,-11.65,2022-10-28 16:09:27.640625
2799,-3.47,2022-10-28 16:09:27.656250
2800,5.99,2022-10-28 16:09:27.671875
2801,16.04,2022-10-28 16:09:27.687500
2802,25.69,2022-10-28 16:09:27.703125
2803,33.74,2022-10-28 16:09:27.718750
2804,39.04,2022-10-28 16:09:27.734375
2805,40.8,2022-10-28 16:09:27.750000
2806,38.91,2022-10-28 16:09:27.765625
2807,34.02,2022-10-28 16:09:27.781250
2808,27.34,2022-10-28 16:09:27.796875
2809,20.3,2022-10-28 16:09:27.812500
2810,14.09,2022-10-28 16:09:27.828125
2811,9.28,2022-10-28 16:09:27.843750
2812,5.67,2022-10-28 16:09:27.859375
2813,2.39,2022-10-28 16:09:27.875000
2814,-1.83,2022-10-28 16:09:27.890625
2815,-8.43,2022-10-28 16:09:27.906250
2816,-18.62,2022-10-28 16:09:27.921875
2817,-32.95,2022-10-28 16:09:27.937500
2818,-51.04,2022-10-28 16:09:27.953125
2819,-71.4,2022-10-28 16:09:27.968750
2820,-91.7,2022-10-28 16:09:27.984375
2821,-109.42,2022-10-28 16:09:28.000000
2822,-122.64,2022-10-28 16:09:28.015625
2823,-130.54,2022-10-28 16:09:28.031250
2824,-133.54,2022-10-28 16:09:28.046875
2825,-132.69,2022-10-28 16:09:28.062500
2826,-129.02,2022-10-28 16:09:28.078125
2827,-122.93,2022-10-28 16:09:28.093750
2828,-114.24,2022-10-28 16:09:28.109375
2829,-102.61,2022-10-28 16:09:28.125000
2830,-88.09,2022-10-28 16:09:28.140625
2831,-71.43,2022-10-28 16:09:28.156250
2832,-53.87,2022-10-28 16:09:28.171875
2833,-36.73,2022-10-28 16:09:28.187500
2834,-20.95,2022-10-28 16:09:28.203125
2835,-7.02,2022-10-28 16:09:28.218750
2836,4.93,2022-10-28 16:09:28.234375
2837,14.92,2022-10-28 16:09:28.250000
2838,23.05,2022-10-28 16:09:28.265625
2839,29.53,2022-10-28 16:09:28.281250
2840,34.63,2022-10-28 16:09:28.296875
2841,38.63,2022-10-28 16:09:28.312500
2842,41.68,2022-10-28 16:09:28.328125
2843,43.71,2022-10-28 16:09:28.343750
2844,44.54,2022-10-28 16:09:28.359375
2845,44.14,2022-10-28 16:09:28.375000
2846,42.8,2022-10-28 16:09:28.390625
2847,41.03,2022-10-28 16:09:28.406250
2848,39.37,2022-10-28 16:09:28.421875
2849,38.02,2022-10-28 16:09:28.437500
2850,36.82,2022-10-28 16:09:28.453125
2851,35.31,2022-10-28 16:09:28.468750
2852,33.08,2022-10-28 16:09:28.484375
2853,29.98,2022-10-28 16:09:28.500000
2854,26.21,2022-10-28 16:09:28.515625
2855,22.2,2022-10-28 16:09:28.531250
2856,18.44,2022-10-28 16:09:28.546875
2857,15.31,2022-10-28 16:09:28.562500
2858,13.15,2022-10-28 16:09:28.578125
2859,12.17,2022-10-28 16:09:28.593750
2860,12.41,2022-10-28 16:09:28.609375
2861,13.63,2022-10-28 16:09:28.625000
2862,15.2,2022-10-28 16:09:28.640625
2863,16.24,2022-10-28 16:09:28.656250
2864,15.84,2022-10-28 16:09:28.671875
2865,13.47,2022-10-28 16:09:28.687500
2866,9.16,2022-10-28 16:09:28.703125
2867,3.47,2022-10-28 16:09:28.718750
2868,-2.72,2022-10-28 16:09:28.734375
2869,-8.51,2022-10-28 16:09:28.750000
2870,-13.27,2022-10-28 16:09:28.765625
2871,-16.59,2022-10-28 16:09:28.781250
2872,-18.37,2022-10-28 16:09:28.796875
2873,-18.69,2022-10-28 16:09:28.812500
2874,-17.77,2022-10-28 16:09:28.828125
2875,-16.02,2022-10-28 16:09:28.843750
2876,-13.89,2022-10-28 16:09:28.859375
2877,-11.87,2022-10-28 16:09:28.875000
2878,-10.23,2022-10-28 16:09:28.890625
2879,-8.93,2022-10-28 16:09:28.906250
2880,-7.59,2022-10-28 16:09:28.921875
2881,-5.71,2022-10-28 16:09:28.937500
2882,-2.9,2022-10-28 16:09:28.953125
2883,0.86,2022-10-28 16:09:28.968750
2884,5.15,2022-10-28 16:09:28.984375
2885,9.27,2022-10-28 16:09:29.000000
2886,12.53,2022-10-28 16:09:29.015625
2887,14.55,2022-10-28 16:09:29.031250
2888,15.2,2022-10-28 16:09:29.046875
2889,14.6,2022-10-28 16:09:29.062500
2890,12.82,2022-10-28 16:09:29.078125
2891,9.84,2022-10-28 16:09:29.093750
2892,5.6,2022-10-28 16:09:29.109375
2893,0.14,2022-10-28 16:09:29.125000
2894,-6.12,2022-10-28 16:09:29.140625
2895,-12.4,2022-10-28 16:09:29.156250
2896,-17.58,2022-10-28 16:09:29.171875
2897,-20.41,2022-10-28 16:09:29.187500
2898,-19.68,2022-10-28 16:09:29.203125
2899,-14.33,2022-10-28 16:09:29.218750
2900,-3.77,2022-10-28 16:09:29.234375
2901,11.9,2022-10-28 16:09:29.250000
2902,31.66,2022-10-28 16:09:29.265625
2903,53.5,2022-10-28 16:09:29.281250
2904,74.73,2022-10-28 16:09:29.296875
2905,92.56,2022-10-28 16:09:29.312500
2906,104.75,2022-10-28 16:09:29.328125
2907,110.16,2022-10-28 16:09:29.343750
2908,108.86,2022-10-28 16:09:29.359375
2909,101.93,2022-10-28 16:09:29.375000
2910,91.01,2022-10-28 16:09:29.390625
2911,77.83,2022-10-28 16:09:29.406250
2912,63.9,2022-10-28 16:09:29.421875
2913,50.34,2022-10-28 16:09:29.437500
2914,37.8,2022-10-28 16:09:29.453125
2915,26.55,2022-10-28 16:09:29.468750
2916,16.54,2022-10-28 16:09:29.484375
2917,7.46,2022-10-28 16:09:29.500000
2918,-1.03,2022-10-28 16:09:29.515625
2919,-9.25,2022-10-28 16:09:29.531250
2920,-17.34,2022-10-28 16:09:29.546875
2921,-25.31,2022-10-28 16:09:29.562500
2922,-33.05,2022-10-28 16:09:29.578125
2923,-40.47,2022-10-28 16:09:29.593750
2924,-47.47,2022-10-28 16:09:29.609375
2925,-53.88,2022-10-28 16:09:29.625000
2926,-59.43,2022-10-28 16:09:29.640625
2927,-63.69,2022-10-28 16:09:29.656250
2928,-66.2,2022-10-28 16:09:29.671875
2929,-66.62,2022-10-28 16:09:29.687500
2930,-64.93,2022-10-28 16:09:29.703125
2931,-61.37,2022-10-28 16:09:29.718750
2932,-56.38,2022-10-28 16:09:29.734375
2933,-50.33,2022-10-28 16:09:29.750000
2934,-43.54,2022-10-28 16:09:29.765625
2935,-36.23,2022-10-28 16:09:29.781250
2936,-28.66,2022-10-28 16:09:29.796875
2937,-21.26,2022-10-28 16:09:29.812500
2938,-14.58,2022-10-28 16:09:29.828125
2939,-9.15,2022-10-28 16:09:29.843750
2940,-5.26,2022-10-28 16:09:29.859375
2941,-2.89,2022-10-28 16:09:29.875000
2942,-1.73,2022-10-28 16:09:29.890625
2943,-1.41,2022-10-28 16:09:29.906250
2944,-1.63,2022-10-28 16:09:29.921875
2945,-2.23,2022-10-28 16:09:29.937500
2946,-3.11,2022-10-28 16:09:29.953125
2947,-4.14,2022-10-28 16:09:29.968750
2948,-5.12,2022-10-28 16:09:29.984375
2949,-5.8,2022-10-28 16:09:30.000000
2950,-6.01,2022-10-28 16:09:30.015625
2951,-5.72,2022-10-28 16:09:30.031250
2952,-5.04,2022-10-28 16:09:30.046875
2953,-4.1,2022-10-28 16:09:30.062500
2954,-2.96,2022-10-28 16:09:30.078125
2955,-1.56,2022-10-28 16:09:30.093750
2956,0.13,2022-10-28 16:09:30.109375
2957,2.0,2022-10-28 16:09:30.125000
2958,3.74,2022-10-28 16:09:30.140625
2959,4.89,2022-10-28 16:09:30.156250
2960,5.03,2022-10-28 16:09:30.171875
2961,3.98,2022-10-28 16:09:30.187500
2962,1.96,2022-10-28 16:09:30.203125
2963,-0.53,2022-10-28 16:09:30.218750
2964,-2.81,2022-10-28 16:09:30.234375
2965,-4.21,2022-10-28 16:09:30.250000
2966,-4.25,2022-10-28 16:09:30.265625
2967,-2.73,2022-10-28 16:09:30.281250
2968,0.2,2022-10-28 16:09:30.296875
2969,4.01,2022-10-28 16:09:30.312500
2970,7.9,2022-10-28 16:09:30.328125
2971,10.95,2022-10-28 16:09:30.343750
2972,12.4,2022-10-28 16:09:30.359375
2973,11.84,2022-10-28 16:09:30.375000
2974,9.35,2022-10-28 16:09:30.390625
2975,5.31,2022-10-28 16:09:30.406250
2976,0.27,2022-10-28 16:09:30.421875
2977,-5.24,2022-10-28 16:09:30.437500
2978,-10.7,2022-10-28 16:09:30.453125
2979,-15.55,2022-10-28 16:09:30.468750
2980,-19.17,2022-10-28 16:09:30.484375
2981,-20.97,2022-10-28 16:09:30.500000
2982,-20.67,2022-10-28 16:09:30.515625
2983,-18.5,2022-10-28 16:09:30.531250
2984,-15.21,2022-10-28 16:09:30.546875
2985,-11.72,2022-10-28 16:09:30.562500
2986,-8.79,2022-10-28 16:09:30.578125
2987,-6.6,2022-10-28 16:09:30.593750
2988,-4.84,2022-10-28 16:09:30.609375
2989,-2.99,2022-10-28 16:09:30.625000
2990,-0.74,2022-10-28 16:09:30.640625
2991,1.75,2022-10-28 16:09:30.656250
2992,3.96,2022-10-28 16:09:30.671875
2993,5.37,2022-10-28 16:09:30.687500
2994,5.86,2022-10-28 16:09:30.703125
2995,5.81,2022-10-28 16:09:30.718750
2996,5.91,2022-10-28 16:09:30.734375
2997,6.79,2022-10-28 16:09:30.750000
2998,8.64,2022-10-28 16:09:30.765625
2999,11.13,2022-10-28 16:09:30.781250
3000,13.57,2022-10-28 16:09:30.796875
3001,15.27,2022-10-28 16:09:30.812500
3002,15.81,2022-10-28 16:09:30.828125
3003,15.18,2022-10-28 16:09:30.843750
3004,13.72,2022-10-28 16:09:30.859375
3005,11.88,2022-10-28 16:09:30.875000
3006,10.06,2022-10-28 16:09:30.890625
3007,8.43,2022-10-28 16:09:30.906250
3008,6.94,2022-10-28 16:09:30.921875
3009,5.44,2022-10-28 16:09:30.937500
3010,3.81,2022-10-28 16:09:30.953125
3011,2.05,2022-10-28 16:09:30.968750
3012,0.36,2022-10-28 16:09:30.984375
3013,-1.08,2022-10-28 16:09:31.000000
3014,-2.15,2022-10-28 16:09:31.015625
3015,-2.99,2022-10-28 16:09:31.031250
3016,-3.94,2022-10-28 16:09:31.046875
3017,-5.36,2022-10-28 16:09:31.062500
3018,-7.48,2022-10-28 16:09:31.078125
3019,-10.25,2022-10-28 16:09:31.093750
3020,-13.32,2022-10-28 16:09:31.109375
3021,-16.23,2022-10-28 16:09:31.125000
3022,-18.49,2022-10-28 16:09:31.140625
3023,-19.84,2022-10-28 16:09:31.156250
3024,-20.24,2022-10-28 16:09:31.171875
3025,-19.9,2022-10-28 16:09:31.187500
3026,-19.23,2022-10-28 16:09:31.203125
3027,-18.71,2022-10-28 16:09:31.218750
3028,-18.75,2022-10-28 16:09:31.234375
3029,-19.62,2022-10-28 16:09:31.250000
3030,-21.23,2022-10-28 16:09:31.265625
3031,-23.19,2022-10-28 16:09:31.281250
3032,-24.88,2022-10-28 16:09:31.296875
3033,-25.62,2022-10-28 16:09:31.312500
3034,-24.89,2022-10-28 16:09:31.328125
3035,-22.54,2022-10-28 16:09:31.343750
3036,-18.81,2022-10-28 16:09:31.359375
3037,-14.25,2022-10-28 16:09:31.375000
3038,-9.52,2022-10-28 16:09:31.390625
3039,-5.13,2022-10-28 16:09:31.406250
3040,-1.38,2022-10-28 16:09:31.421875
3041,1.69,2022-10-28 16:09:31.437500
3042,4.15,2022-10-28 16:09:31.453125
3043,6.18,2022-10-28 16:09:31.468750
3044,7.97,2022-10-28 16:09:31.484375
3045,9.86,2022-10-28 16:09:31.500000
3046,12.27,2022-10-28 16:09:31.515625
3047,15.61,2022-10-28 16:09:31.531250
3048,20.05,2022-10-28 16:09:31.546875
3049,25.36,2022-10-28 16:09:31.562500
3050,30.77,2022-10-28 16:09:31.578125
3051,35.25,2022-10-28 16:09:31.593750
3052,37.86,2022-10-28 16:09:31.609375
3053,38.1,2022-10-28 16:09:31.625000
3054,36.07,2022-10-28 16:09:31.640625
3055,32.49,2022-10-28 16:09:31.656250
3056,28.41,2022-10-28 16:09:31.671875
3057,24.82,2022-10-28 16:09:31.687500
3058,22.48,2022-10-28 16:09:31.703125
3059,21.75,2022-10-28 16:09:31.718750
3060,22.65,2022-10-28 16:09:31.734375
3061,24.92,2022-10-28 16:09:31.750000
3062,28.08,2022-10-28 16:09:31.765625
3063,31.62,2022-10-28 16:09:31.781250
3064,35.05,2022-10-28 16:09:31.796875
3065,38.08,2022-10-28 16:09:31.812500
3066,40.59,2022-10-28 16:09:31.828125
3067,42.59,2022-10-28 16:09:31.843750
3068,44.0,2022-10-28 16:09:31.859375
3069,44.63,2022-10-28 16:09:31.875000
3070,44.15,2022-10-28 16:09:31.890625
3071,42.26,2022-10-28 16:09:31.906250
3072,38.93,2022-10-28 16:09:31.921875
3073,34.38,2022-10-28 16:09:31.937500
3074,29.01,2022-10-28 16:09:31.953125
3075,23.16,2022-10-28 16:09:31.968750
3076,16.96,2022-10-28 16:09:31.984375
3077,10.33,2022-10-28 16:09:32.000000
3078,3.15,2022-10-28 16:09:32.015625
3079,-4.56,2022-10-28 16:09:32.031250
3080,-12.65,2022-10-28 16:09:32.046875
3081,-20.89,2022-10-28 16:09:32.062500
3082,-29.09,2022-10-28 16:09:32.078125
3083,-37.06,2022-10-28 16:09:32.093750
3084,-44.49,2022-10-28 16:09:32.109375
3085,-50.8,2022-10-28 16:09:32.125000
3086,-55.26,2022-10-28 16:09:32.140625
3087,-57.25,2022-10-28 16:09:32.156250
3088,-56.57,2022-10-28 16:09:32.171875
3089,-53.64,2022-10-28 16:09:32.187500
3090,-49.25,2022-10-28 16:09:32.203125
3091,-44.29,2022-10-28 16:09:32.218750
3092,-39.31,2022-10-28 16:09:32.234375
3093,-34.46,2022-10-28 16:09:32.250000
3094,-29.62,2022-10-28 16:09:32.265625
3095,-24.68,2022-10-28 16:09:32.281250
3096,-19.59,2022-10-28 16:09:32.296875
3097,-14.37,2022-10-28 16:09:32.312500
3098,-8.91,2022-10-28 16:09:32.328125
3099,-2.95,2022-10-28 16:09:32.343750
3100,3.76,2022-10-28 16:09:32.359375
3101,11.19,2022-10-28 16:09:32.375000
3102,18.93,2022-10-28 16:09:32.390625
3103,26.21,2022-10-28 16:09:32.406250
3104,32.19,2022-10-28 16:09:32.421875
3105,36.28,2022-10-28 16:09:32.437500
3106,38.25,2022-10-28 16:09:32.453125
3107,38.25,2022-10-28 16:09:32.468750
3108,36.67,2022-10-28 16:09:32.484375
3109,33.96,2022-10-28 16:09:32.500000
3110,30.64,2022-10-28 16:09:32.515625
3111,27.15,2022-10-28 16:09:32.531250
3112,23.95,2022-10-28 16:09:32.546875
3113,21.31,2022-10-28 16:09:32.562500
3114,19.3,2022-10-28 16:09:32.578125
3115,17.73,2022-10-28 16:09:32.593750
3116,16.24,2022-10-28 16:09:32.609375
3117,14.44,2022-10-28 16:09:32.625000
3118,12.15,2022-10-28 16:09:32.640625
3119,9.4,2022-10-28 16:09:32.656250
3120,6.42,2022-10-28 16:09:32.671875
3121,3.56,2022-10-28 16:09:32.687500
3122,1.02,2022-10-28 16:09:32.703125
3123,-1.13,2022-10-28 16:09:32.718750
3124,-3.02,2022-10-28 16:09:32.734375
3125,-4.84,2022-10-28 16:09:32.750000
3126,-6.81,2022-10-28 16:09:32.765625
3127,-9.01,2022-10-28 16:09:32.781250
3128,-11.4,2022-10-28 16:09:32.796875
3129,-13.79,2022-10-28 16:09:32.812500
3130,-15.96,2022-10-28 16:09:32.828125
3131,-17.61,2022-10-28 16:09:32.843750
3132,-18.48,2022-10-28 16:09:32.859375
3133,-18.39,2022-10-28 16:09:32.875000
3134,-17.33,2022-10-28 16:09:32.890625
3135,-15.51,2022-10-28 16:09:32.906250
3136,-13.35,2022-10-28 16:09:32.921875
3137,-11.34,2022-10-28 16:09:32.937500
3138,-9.83,2022-10-28 16:09:32.953125
3139,-8.82,2022-10-28 16:09:32.968750
3140,-7.9,2022-10-28 16:09:32.984375
3141,-6.46,2022-10-28 16:09:33.000000
3142,-3.98,2022-10-28 16:09:33.015625
3143,-0.31,2022-10-28 16:09:33.031250
3144,4.18,2022-10-28 16:09:33.046875
3145,8.7,2022-10-28 16:09:33.062500
3146,12.29,2022-10-28 16:09:33.078125
3147,14.19,2022-10-28 16:09:33.093750
3148,14.06,2022-10-28 16:09:33.109375
3149,12.1,2022-10-28 16:09:33.125000
3150,8.93,2022-10-28 16:09:33.140625
3151,5.38,2022-10-28 16:09:33.156250
3152,2.22,2022-10-28 16:09:33.171875
3153,-0.01,2022-10-28 16:09:33.187500
3154,-1.03,2022-10-28 16:09:33.203125
3155,-0.75,2022-10-28 16:09:33.218750
3156,0.8,2022-10-28 16:09:33.234375
3157,3.51,2022-10-28 16:09:33.250000
3158,7.15,2022-10-28 16:09:33.265625
3159,11.35,2022-10-28 16:09:33.281250
