,BVP,time
0,99.38,2022-08-17 13:47:58.625000
1,140.57,2022-08-17 13:47:58.640625
2,196.21,2022-08-17 13:47:58.656250
3,254.89,2022-08-17 13:47:58.671875
4,301.4,2022-08-17 13:47:58.687500
5,321.98,2022-08-17 13:47:58.703125
6,309.36,2022-08-17 13:47:58.718750
7,265.83,2022-08-17 13:47:58.734375
8,202.4,2022-08-17 13:47:58.750000
9,134.36,2022-08-17 13:47:58.765625
10,75.49,2022-08-17 13:47:58.781250
11,32.9,2022-08-17 13:47:58.796875
12,5.53,2022-08-17 13:47:58.812500
13,-13.56,2022-08-17 13:47:58.828125
14,-32.17,2022-08-17 13:47:58.843750
15,-54.4,2022-08-17 13:47:58.859375
16,-79.04,2022-08-17 13:47:58.875000
17,-101.29,2022-08-17 13:47:58.890625
18,-116.55,2022-08-17 13:47:58.906250
19,-123.12,2022-08-17 13:47:58.921875
20,-123.71,2022-08-17 13:47:58.937500
21,-123.74,2022-08-17 13:47:58.953125
22,-128.24,2022-08-17 13:47:58.968750
23,-139.05,2022-08-17 13:47:58.984375
24,-154.2,2022-08-17 13:47:59.000000
25,-169.43,2022-08-17 13:47:59.015625
26,-180.5,2022-08-17 13:47:59.031250
27,-184.9,2022-08-17 13:47:59.046875
28,-180.4,2022-08-17 13:47:59.062500
29,-166.22,2022-08-17 13:47:59.078125
30,-142.36,2022-08-17 13:47:59.093750
31,-108.83,2022-08-17 13:47:59.109375
32,-65.26,2022-08-17 13:47:59.125000
33,-11.2,2022-08-17 13:47:59.140625
34,52.27,2022-08-17 13:47:59.156250
35,120.8,2022-08-17 13:47:59.171875
36,186.21,2022-08-17 13:47:59.187500
37,240.48,2022-08-17 13:47:59.203125
38,274.68,2022-08-17 13:47:59.218750
39,281.76,2022-08-17 13:47:59.234375
40,260.2,2022-08-17 13:47:59.250000
41,217.21,2022-08-17 13:47:59.265625
42,168.03,2022-08-17 13:47:59.281250
43,130.79,2022-08-17 13:47:59.296875
44,119.77,2022-08-17 13:47:59.312500
45,140.55,2022-08-17 13:47:59.328125
46,193.27,2022-08-17 13:47:59.343750
47,268.69,2022-08-17 13:47:59.359375
48,350.82,2022-08-17 13:47:59.375000
49,422.16,2022-08-17 13:47:59.390625
50,470.39,2022-08-17 13:47:59.406250
51,491.83,2022-08-17 13:47:59.421875
52,490.32,2022-08-17 13:47:59.437500
53,473.99,2022-08-17 13:47:59.453125
54,452.14,2022-08-17 13:47:59.468750
55,438.77,2022-08-17 13:47:59.484375
56,442.45,2022-08-17 13:47:59.500000
57,463.29,2022-08-17 13:47:59.515625
58,493.94,2022-08-17 13:47:59.531250
59,525.08,2022-08-17 13:47:59.546875
60,549.97,2022-08-17 13:47:59.562500
61,564.96,2022-08-17 13:47:59.578125
62,568.11,2022-08-17 13:47:59.593750
63,521.03,2022-08-17 13:47:59.609375
64,407.42,2022-08-17 13:47:59.625000
65,242.12,2022-08-17 13:47:59.640625
66,64.19,2022-08-17 13:47:59.656250
67,-90.72,2022-08-17 13:47:59.671875
68,-206.01,2022-08-17 13:47:59.687500
69,-281.04,2022-08-17 13:47:59.703125
70,-323.19,2022-08-17 13:47:59.718750
71,-342.81,2022-08-17 13:47:59.734375
72,-349.49,2022-08-17 13:47:59.750000
73,-344.64,2022-08-17 13:47:59.765625
74,-329.01,2022-08-17 13:47:59.781250
75,-305.25,2022-08-17 13:47:59.796875
76,-279.02,2022-08-17 13:47:59.812500
77,-255.71,2022-08-17 13:47:59.828125
78,-237.68,2022-08-17 13:47:59.843750
79,-226.15,2022-08-17 13:47:59.859375
80,-220.76,2022-08-17 13:47:59.875000
81,-220.78,2022-08-17 13:47:59.890625
82,-220.89,2022-08-17 13:47:59.906250
83,-217.3,2022-08-17 13:47:59.921875
84,-209.14,2022-08-17 13:47:59.937500
85,-199.46,2022-08-17 13:47:59.953125
86,-192.3,2022-08-17 13:47:59.968750
87,-189.59,2022-08-17 13:47:59.984375
88,-187.01,2022-08-17 13:48:00.000000
89,-184.34,2022-08-17 13:48:00.015625
90,-181.94,2022-08-17 13:48:00.031250
91,-177.05,2022-08-17 13:48:00.046875
92,-171.53,2022-08-17 13:48:00.062500
93,-163.42,2022-08-17 13:48:00.078125
94,-153.22,2022-08-17 13:48:00.093750
95,-143.11,2022-08-17 13:48:00.109375
96,-134.41,2022-08-17 13:48:00.125000
97,-128.14,2022-08-17 13:48:00.140625
98,-126.41,2022-08-17 13:48:00.156250
99,-131.45,2022-08-17 13:48:00.171875
100,-143.69,2022-08-17 13:48:00.187500
101,-162.9,2022-08-17 13:48:00.203125
102,-187.79,2022-08-17 13:48:00.218750
103,-210.31,2022-08-17 13:48:00.234375
104,-224.34,2022-08-17 13:48:00.250000
105,-224.49,2022-08-17 13:48:00.265625
106,-208.47,2022-08-17 13:48:00.281250
107,-179.0,2022-08-17 13:48:00.296875
108,-142.57,2022-08-17 13:48:00.312500
109,-107.03,2022-08-17 13:48:00.328125
110,-79.72,2022-08-17 13:48:00.343750
111,-64.96,2022-08-17 13:48:00.359375
112,-63.98,2022-08-17 13:48:00.375000
113,-75.12,2022-08-17 13:48:00.390625
114,-93.03,2022-08-17 13:48:00.406250
115,-110.34,2022-08-17 13:48:00.421875
116,-119.78,2022-08-17 13:48:00.437500
117,-115.65,2022-08-17 13:48:00.453125
118,-95.73,2022-08-17 13:48:00.468750
119,-62.18,2022-08-17 13:48:00.484375
120,-20.7,2022-08-17 13:48:00.500000
121,20.79,2022-08-17 13:48:00.515625
122,54.58,2022-08-17 13:48:00.531250
123,76.61,2022-08-17 13:48:00.546875
124,87.32,2022-08-17 13:48:00.562500
125,90.57,2022-08-17 13:48:00.578125
126,91.86,2022-08-17 13:48:00.593750
127,95.85,2022-08-17 13:48:00.609375
128,104.76,2022-08-17 13:48:00.625000
129,118.33,2022-08-17 13:48:00.640625
130,134.09,2022-08-17 13:48:00.656250
131,148.56,2022-08-17 13:48:00.671875
132,159.32,2022-08-17 13:48:00.687500
133,165.39,2022-08-17 13:48:00.703125
134,166.91,2022-08-17 13:48:00.718750
135,164.54,2022-08-17 13:48:00.734375
136,158.82,2022-08-17 13:48:00.750000
137,150.03,2022-08-17 13:48:00.765625
138,138.49,2022-08-17 13:48:00.781250
139,124.37,2022-08-17 13:48:00.796875
140,107.96,2022-08-17 13:48:00.812500
141,90.26,2022-08-17 13:48:00.828125
142,72.68,2022-08-17 13:48:00.843750
143,56.36,2022-08-17 13:48:00.859375
144,42.06,2022-08-17 13:48:00.875000
145,30.24,2022-08-17 13:48:00.890625
146,21.38,2022-08-17 13:48:00.906250
147,16.22,2022-08-17 13:48:00.921875
148,14.86,2022-08-17 13:48:00.937500
149,16.99,2022-08-17 13:48:00.953125
150,22.42,2022-08-17 13:48:00.968750
151,31.18,2022-08-17 13:48:00.984375
152,43.19,2022-08-17 13:48:01.000000
153,58.5,2022-08-17 13:48:01.015625
154,76.84,2022-08-17 13:48:01.031250
155,97.06,2022-08-17 13:48:01.046875
156,116.8,2022-08-17 13:48:01.062500
157,131.5,2022-08-17 13:48:01.078125
158,136.04,2022-08-17 13:48:01.093750
159,127.17,2022-08-17 13:48:01.109375
160,104.91,2022-08-17 13:48:01.125000
161,72.08,2022-08-17 13:48:01.140625
162,33.71,2022-08-17 13:48:01.156250
163,-5.14,2022-08-17 13:48:01.171875
164,-41.9,2022-08-17 13:48:01.187500
165,-70.62,2022-08-17 13:48:01.203125
166,-87.14,2022-08-17 13:48:01.218750
167,-92.46,2022-08-17 13:48:01.234375
168,-90.63,2022-08-17 13:48:01.250000
169,-84.67,2022-08-17 13:48:01.265625
170,-75.82,2022-08-17 13:48:01.281250
171,-63.9,2022-08-17 13:48:01.296875
172,-49.66,2022-08-17 13:48:01.312500
173,-35.18,2022-08-17 13:48:01.328125
174,-23.07,2022-08-17 13:48:01.343750
175,-16.24,2022-08-17 13:48:01.359375
176,-16.14,2022-08-17 13:48:01.375000
177,-21.66,2022-08-17 13:48:01.390625
178,-29.62,2022-08-17 13:48:01.406250
179,-38.16,2022-08-17 13:48:01.421875
180,-44.98,2022-08-17 13:48:01.437500
181,-49.74,2022-08-17 13:48:01.453125
182,-53.92,2022-08-17 13:48:01.468750
183,-59.72,2022-08-17 13:48:01.484375
184,-69.62,2022-08-17 13:48:01.500000
185,-85.24,2022-08-17 13:48:01.515625
186,-106.55,2022-08-17 13:48:01.531250
187,-127.73,2022-08-17 13:48:01.546875
188,-146.89,2022-08-17 13:48:01.562500
189,-161.56,2022-08-17 13:48:01.578125
190,-168.37,2022-08-17 13:48:01.593750
191,-163.55,2022-08-17 13:48:01.609375
192,-144.47,2022-08-17 13:48:01.625000
193,-111.99,2022-08-17 13:48:01.640625
194,-70.86,2022-08-17 13:48:01.656250
195,-28.19,2022-08-17 13:48:01.671875
196,9.12,2022-08-17 13:48:01.687500
197,36.09,2022-08-17 13:48:01.703125
198,52.31,2022-08-17 13:48:01.718750
199,60.39,2022-08-17 13:48:01.734375
200,63.81,2022-08-17 13:48:01.750000
201,64.86,2022-08-17 13:48:01.765625
202,63.78,2022-08-17 13:48:01.781250
203,59.83,2022-08-17 13:48:01.796875
204,53.1,2022-08-17 13:48:01.812500
205,45.5,2022-08-17 13:48:01.828125
206,39.67,2022-08-17 13:48:01.843750
207,38.35,2022-08-17 13:48:01.859375
208,42.19,2022-08-17 13:48:01.875000
209,49.19,2022-08-17 13:48:01.890625
210,55.65,2022-08-17 13:48:01.906250
211,57.89,2022-08-17 13:48:01.921875
212,54.29,2022-08-17 13:48:01.937500
213,46.03,2022-08-17 13:48:01.953125
214,36.57,2022-08-17 13:48:01.968750
215,29.5,2022-08-17 13:48:01.984375
216,27.48,2022-08-17 13:48:02.000000
217,30.82,2022-08-17 13:48:02.015625
218,37.84,2022-08-17 13:48:02.031250
219,45.93,2022-08-17 13:48:02.046875
220,52.45,2022-08-17 13:48:02.062500
221,55.12,2022-08-17 13:48:02.078125
222,51.61,2022-08-17 13:48:02.093750
223,39.95,2022-08-17 13:48:02.109375
224,19.57,2022-08-17 13:48:02.125000
225,-7.11,2022-08-17 13:48:02.140625
226,-34.67,2022-08-17 13:48:02.156250
227,-56.53,2022-08-17 13:48:02.171875
228,-68.24,2022-08-17 13:48:02.187500
229,-70.71,2022-08-17 13:48:02.203125
230,-68.98,2022-08-17 13:48:02.218750
231,-69.93,2022-08-17 13:48:02.234375
232,-77.83,2022-08-17 13:48:02.250000
233,-90.97,2022-08-17 13:48:02.265625
234,-101.8,2022-08-17 13:48:02.281250
235,-100.87,2022-08-17 13:48:02.296875
236,-82.28,2022-08-17 13:48:02.312500
237,-47.1,2022-08-17 13:48:02.328125
238,-2.93,2022-08-17 13:48:02.343750
239,40.04,2022-08-17 13:48:02.359375
240,73.38,2022-08-17 13:48:02.375000
241,93.3,2022-08-17 13:48:02.390625
242,100.51,2022-08-17 13:48:02.406250
243,97.99,2022-08-17 13:48:02.421875
244,88.89,2022-08-17 13:48:02.437500
245,75.38,2022-08-17 13:48:02.453125
246,59.1,2022-08-17 13:48:02.468750
247,41.83,2022-08-17 13:48:02.484375
248,26.0,2022-08-17 13:48:02.500000
249,13.89,2022-08-17 13:48:02.515625
250,6.82,2022-08-17 13:48:02.531250
251,4.72,2022-08-17 13:48:02.546875
252,6.33,2022-08-17 13:48:02.562500
253,10.15,2022-08-17 13:48:02.578125
254,14.86,2022-08-17 13:48:02.593750
255,19.41,2022-08-17 13:48:02.609375
256,22.69,2022-08-17 13:48:02.625000
257,23.52,2022-08-17 13:48:02.640625
258,20.98,2022-08-17 13:48:02.656250
259,15.31,2022-08-17 13:48:02.671875
260,8.28,2022-08-17 13:48:02.687500
261,2.75,2022-08-17 13:48:02.703125
262,1.73,2022-08-17 13:48:02.718750
263,6.97,2022-08-17 13:48:02.734375
264,18.13,2022-08-17 13:48:02.750000
265,32.75,2022-08-17 13:48:02.765625
266,47.28,2022-08-17 13:48:02.781250
267,58.37,2022-08-17 13:48:02.796875
268,63.84,2022-08-17 13:48:02.812500
269,63.25,2022-08-17 13:48:02.828125
270,57.42,2022-08-17 13:48:02.843750
271,48.07,2022-08-17 13:48:02.859375
272,37.07,2022-08-17 13:48:02.875000
273,25.79,2022-08-17 13:48:02.890625
274,14.66,2022-08-17 13:48:02.906250
275,3.08,2022-08-17 13:48:02.921875
276,-10.26,2022-08-17 13:48:02.937500
277,-26.68,2022-08-17 13:48:02.953125
278,-45.44,2022-08-17 13:48:02.968750
279,-65.05,2022-08-17 13:48:02.984375
280,-83.09,2022-08-17 13:48:03.000000
281,-97.07,2022-08-17 13:48:03.015625
282,-105.4,2022-08-17 13:48:03.031250
283,-108.01,2022-08-17 13:48:03.046875
284,-106.29,2022-08-17 13:48:03.062500
285,-102.12,2022-08-17 13:48:03.078125
286,-97.04,2022-08-17 13:48:03.093750
287,-91.58,2022-08-17 13:48:03.109375
288,-85.8,2022-08-17 13:48:03.125000
289,-79.66,2022-08-17 13:48:03.140625
290,-73.76,2022-08-17 13:48:03.156250
291,-69.34,2022-08-17 13:48:03.171875
292,-67.7,2022-08-17 13:48:03.187500
293,-69.33,2022-08-17 13:48:03.203125
294,-73.37,2022-08-17 13:48:03.218750
295,-77.86,2022-08-17 13:48:03.234375
296,-80.62,2022-08-17 13:48:03.250000
297,-80.25,2022-08-17 13:48:03.265625
298,-76.39,2022-08-17 13:48:03.281250
299,-69.46,2022-08-17 13:48:03.296875
300,-60.14,2022-08-17 13:48:03.312500
301,-48.83,2022-08-17 13:48:03.328125
302,-35.6,2022-08-17 13:48:03.343750
303,-20.53,2022-08-17 13:48:03.359375
304,-4.1,2022-08-17 13:48:03.375000
305,12.71,2022-08-17 13:48:03.390625
306,28.64,2022-08-17 13:48:03.406250
307,42.73,2022-08-17 13:48:03.421875
308,54.69,2022-08-17 13:48:03.437500
309,64.69,2022-08-17 13:48:03.453125
310,72.93,2022-08-17 13:48:03.468750
311,79.14,2022-08-17 13:48:03.484375
312,82.64,2022-08-17 13:48:03.500000
313,82.82,2022-08-17 13:48:03.515625
314,79.89,2022-08-17 13:48:03.531250
315,75.08,2022-08-17 13:48:03.546875
316,70.34,2022-08-17 13:48:03.562500
317,67.44,2022-08-17 13:48:03.578125
318,67.13,2022-08-17 13:48:03.593750
319,68.8,2022-08-17 13:48:03.609375
320,70.95,2022-08-17 13:48:03.625000
321,72.02,2022-08-17 13:48:03.640625
322,71.29,2022-08-17 13:48:03.656250
323,69.15,2022-08-17 13:48:03.671875
324,66.82,2022-08-17 13:48:03.687500
325,65.63,2022-08-17 13:48:03.703125
326,66.35,2022-08-17 13:48:03.718750
327,69.06,2022-08-17 13:48:03.734375
328,73.36,2022-08-17 13:48:03.750000
329,78.87,2022-08-17 13:48:03.765625
330,85.45,2022-08-17 13:48:03.781250
331,93.26,2022-08-17 13:48:03.796875
332,102.53,2022-08-17 13:48:03.812500
333,113.38,2022-08-17 13:48:03.828125
334,125.82,2022-08-17 13:48:03.843750
335,139.82,2022-08-17 13:48:03.859375
336,155.41,2022-08-17 13:48:03.875000
337,172.37,2022-08-17 13:48:03.890625
338,189.84,2022-08-17 13:48:03.906250
339,205.81,2022-08-17 13:48:03.921875
340,217.11,2022-08-17 13:48:03.937500
341,220.02,2022-08-17 13:48:03.953125
342,211.35,2022-08-17 13:48:03.968750
343,189.51,2022-08-17 13:48:03.984375
344,154.95,2022-08-17 13:48:04.000000
345,109.98,2022-08-17 13:48:04.015625
346,58.03,2022-08-17 13:48:04.031250
347,2.9,2022-08-17 13:48:04.046875
348,-51.78,2022-08-17 13:48:04.062500
349,-102.67,2022-08-17 13:48:04.078125
350,-146.7,2022-08-17 13:48:04.093750
351,-181.35,2022-08-17 13:48:04.109375
352,-205.06,2022-08-17 13:48:04.125000
353,-217.75,2022-08-17 13:48:04.140625
354,-220.97,2022-08-17 13:48:04.156250
355,-217.54,2022-08-17 13:48:04.171875
356,-210.68,2022-08-17 13:48:04.187500
357,-203.13,2022-08-17 13:48:04.203125
358,-196.49,2022-08-17 13:48:04.218750
359,-191.18,2022-08-17 13:48:04.234375
360,-186.72,2022-08-17 13:48:04.250000
361,-182.21,2022-08-17 13:48:04.265625
362,-176.75,2022-08-17 13:48:04.281250
363,-169.8,2022-08-17 13:48:04.296875
364,-161.26,2022-08-17 13:48:04.312500
365,-151.42,2022-08-17 13:48:04.328125
366,-140.81,2022-08-17 13:48:04.343750
367,-129.9,2022-08-17 13:48:04.359375
368,-118.9,2022-08-17 13:48:04.375000
369,-107.76,2022-08-17 13:48:04.390625
370,-96.16,2022-08-17 13:48:04.406250
371,-83.82,2022-08-17 13:48:04.421875
372,-70.58,2022-08-17 13:48:04.437500
373,-56.48,2022-08-17 13:48:04.453125
374,-41.66,2022-08-17 13:48:04.468750
375,-26.34,2022-08-17 13:48:04.484375
376,-10.87,2022-08-17 13:48:04.500000
377,4.04,2022-08-17 13:48:04.515625
378,17.18,2022-08-17 13:48:04.531250
379,26.99,2022-08-17 13:48:04.546875
380,31.96,2022-08-17 13:48:04.562500
381,31.22,2022-08-17 13:48:04.578125
382,24.95,2022-08-17 13:48:04.593750
383,14.5,2022-08-17 13:48:04.609375
384,1.99,2022-08-17 13:48:04.625000
385,-10.26,2022-08-17 13:48:04.640625
386,-20.43,2022-08-17 13:48:04.656250
387,-27.53,2022-08-17 13:48:04.671875
388,-31.45,2022-08-17 13:48:04.687500
389,-32.69,2022-08-17 13:48:04.703125
390,-32.01,2022-08-17 13:48:04.718750
391,-30.15,2022-08-17 13:48:04.734375
392,-27.63,2022-08-17 13:48:04.750000
393,-24.83,2022-08-17 13:48:04.765625
394,-22.02,2022-08-17 13:48:04.781250
395,-19.52,2022-08-17 13:48:04.796875
396,-17.58,2022-08-17 13:48:04.812500
397,-16.48,2022-08-17 13:48:04.828125
398,-16.35,2022-08-17 13:48:04.843750
399,-17.21,2022-08-17 13:48:04.859375
400,-18.87,2022-08-17 13:48:04.875000
401,-20.97,2022-08-17 13:48:04.890625
402,-23.04,2022-08-17 13:48:04.906250
403,-24.55,2022-08-17 13:48:04.921875
404,-25.06,2022-08-17 13:48:04.937500
405,-24.36,2022-08-17 13:48:04.953125
406,-22.62,2022-08-17 13:48:04.968750
407,-20.35,2022-08-17 13:48:04.984375
408,-18.24,2022-08-17 13:48:05.000000
409,-16.82,2022-08-17 13:48:05.015625
410,-16.26,2022-08-17 13:48:05.031250
411,-16.2,2022-08-17 13:48:05.046875
412,-15.97,2022-08-17 13:48:05.062500
413,-14.92,2022-08-17 13:48:05.078125
414,-12.71,2022-08-17 13:48:05.093750
415,-9.46,2022-08-17 13:48:05.109375
416,-5.64,2022-08-17 13:48:05.125000
417,-1.78,2022-08-17 13:48:05.140625
418,1.68,2022-08-17 13:48:05.156250
419,4.61,2022-08-17 13:48:05.171875
420,7.14,2022-08-17 13:48:05.187500
421,9.58,2022-08-17 13:48:05.203125
422,12.4,2022-08-17 13:48:05.218750
423,16.02,2022-08-17 13:48:05.234375
424,20.77,2022-08-17 13:48:05.250000
425,26.77,2022-08-17 13:48:05.265625
426,33.78,2022-08-17 13:48:05.281250
427,41.22,2022-08-17 13:48:05.296875
428,48.2,2022-08-17 13:48:05.312500
429,53.7,2022-08-17 13:48:05.328125
430,56.94,2022-08-17 13:48:05.343750
431,57.56,2022-08-17 13:48:05.359375
432,55.76,2022-08-17 13:48:05.375000
433,52.19,2022-08-17 13:48:05.390625
434,47.6,2022-08-17 13:48:05.406250
435,42.58,2022-08-17 13:48:05.421875
436,37.35,2022-08-17 13:48:05.437500
437,31.8,2022-08-17 13:48:05.453125
438,25.73,2022-08-17 13:48:05.468750
439,19.07,2022-08-17 13:48:05.484375
440,12.09,2022-08-17 13:48:05.500000
441,5.35,2022-08-17 13:48:05.515625
442,-0.52,2022-08-17 13:48:05.531250
443,-4.98,2022-08-17 13:48:05.546875
444,-7.77,2022-08-17 13:48:05.562500
445,-8.87,2022-08-17 13:48:05.578125
446,-8.46,2022-08-17 13:48:05.593750
447,-6.8,2022-08-17 13:48:05.609375
448,-4.23,2022-08-17 13:48:05.625000
449,-1.14,2022-08-17 13:48:05.640625
450,1.98,2022-08-17 13:48:05.656250
451,4.58,2022-08-17 13:48:05.671875
452,6.09,2022-08-17 13:48:05.687500
453,6.0,2022-08-17 13:48:05.703125
454,4.06,2022-08-17 13:48:05.718750
455,0.28,2022-08-17 13:48:05.734375
456,-4.87,2022-08-17 13:48:05.750000
457,-10.63,2022-08-17 13:48:05.765625
458,-16.04,2022-08-17 13:48:05.781250
459,-20.27,2022-08-17 13:48:05.796875
460,-22.9,2022-08-17 13:48:05.812500
461,-23.98,2022-08-17 13:48:05.828125
462,-23.92,2022-08-17 13:48:05.843750
463,-23.21,2022-08-17 13:48:05.859375
464,-22.1,2022-08-17 13:48:05.875000
465,-20.51,2022-08-17 13:48:05.890625
466,-18.2,2022-08-17 13:48:05.906250
467,-14.95,2022-08-17 13:48:05.921875
468,-10.85,2022-08-17 13:48:05.937500
469,-6.33,2022-08-17 13:48:05.953125
470,-2.0,2022-08-17 13:48:05.968750
471,1.59,2022-08-17 13:48:05.984375
472,4.13,2022-08-17 13:48:06.000000
473,5.54,2022-08-17 13:48:06.015625
474,5.91,2022-08-17 13:48:06.031250
475,5.3,2022-08-17 13:48:06.046875
476,3.81,2022-08-17 13:48:06.062500
477,1.62,2022-08-17 13:48:06.078125
478,-0.8,2022-08-17 13:48:06.093750
479,-2.68,2022-08-17 13:48:06.109375
480,-3.02,2022-08-17 13:48:06.125000
481,-0.94,2022-08-17 13:48:06.140625
482,3.94,2022-08-17 13:48:06.156250
483,11.38,2022-08-17 13:48:06.171875
484,20.47,2022-08-17 13:48:06.187500
485,29.99,2022-08-17 13:48:06.203125
486,38.79,2022-08-17 13:48:06.218750
487,46.17,2022-08-17 13:48:06.234375
488,51.93,2022-08-17 13:48:06.250000
489,56.3,2022-08-17 13:48:06.265625
490,59.62,2022-08-17 13:48:06.281250
491,62.1,2022-08-17 13:48:06.296875
492,63.74,2022-08-17 13:48:06.312500
493,64.43,2022-08-17 13:48:06.328125
494,64.03,2022-08-17 13:48:06.343750
495,62.55,2022-08-17 13:48:06.359375
496,60.08,2022-08-17 13:48:06.375000
497,56.71,2022-08-17 13:48:06.390625
498,52.48,2022-08-17 13:48:06.406250
499,47.34,2022-08-17 13:48:06.421875
500,41.34,2022-08-17 13:48:06.437500
501,34.73,2022-08-17 13:48:06.453125
502,28.04,2022-08-17 13:48:06.468750
503,22.0,2022-08-17 13:48:06.484375
504,17.28,2022-08-17 13:48:06.500000
505,14.14,2022-08-17 13:48:06.515625
506,12.3,2022-08-17 13:48:06.531250
507,11.01,2022-08-17 13:48:06.546875
508,9.36,2022-08-17 13:48:06.562500
509,6.76,2022-08-17 13:48:06.578125
510,3.17,2022-08-17 13:48:06.593750
511,-0.84,2022-08-17 13:48:06.609375
512,-4.52,2022-08-17 13:48:06.625000
513,-7.34,2022-08-17 13:48:06.640625
514,-9.31,2022-08-17 13:48:06.656250
515,-10.99,2022-08-17 13:48:06.671875
516,-13.09,2022-08-17 13:48:06.687500
517,-16.04,2022-08-17 13:48:06.703125
518,-19.71,2022-08-17 13:48:06.718750
519,-23.44,2022-08-17 13:48:06.734375
520,-26.48,2022-08-17 13:48:06.750000
521,-28.25,2022-08-17 13:48:06.765625
522,-28.58,2022-08-17 13:48:06.781250
523,-27.59,2022-08-17 13:48:06.796875
524,-25.45,2022-08-17 13:48:06.812500
525,-22.26,2022-08-17 13:48:06.828125
526,-18.14,2022-08-17 13:48:06.843750
527,-13.45,2022-08-17 13:48:06.859375
528,-8.97,2022-08-17 13:48:06.875000
529,-5.7,2022-08-17 13:48:06.890625
530,-4.51,2022-08-17 13:48:06.906250
531,-5.59,2022-08-17 13:48:06.921875
532,-8.21,2022-08-17 13:48:06.937500
533,-10.94,2022-08-17 13:48:06.953125
534,-12.15,2022-08-17 13:48:06.968750
535,-10.73,2022-08-17 13:48:06.984375
536,-6.52,2022-08-17 13:48:07.000000
537,-0.29,2022-08-17 13:48:07.015625
538,6.57,2022-08-17 13:48:07.031250
539,12.6,2022-08-17 13:48:07.046875
540,16.65,2022-08-17 13:48:07.062500
541,18.26,2022-08-17 13:48:07.078125
542,17.57,2022-08-17 13:48:07.093750
543,15.24,2022-08-17 13:48:07.109375
544,12.18,2022-08-17 13:48:07.125000
545,9.26,2022-08-17 13:48:07.140625
546,7.09,2022-08-17 13:48:07.156250
547,5.93,2022-08-17 13:48:07.171875
548,5.69,2022-08-17 13:48:07.187500
549,6.01,2022-08-17 13:48:07.203125
550,6.49,2022-08-17 13:48:07.218750
551,6.76,2022-08-17 13:48:07.234375
552,6.64,2022-08-17 13:48:07.250000
553,6.16,2022-08-17 13:48:07.265625
554,5.54,2022-08-17 13:48:07.281250
555,5.13,2022-08-17 13:48:07.296875
556,5.18,2022-08-17 13:48:07.312500
557,5.77,2022-08-17 13:48:07.328125
558,6.7,2022-08-17 13:48:07.343750
559,7.59,2022-08-17 13:48:07.359375
560,8.01,2022-08-17 13:48:07.375000
561,7.72,2022-08-17 13:48:07.390625
562,6.77,2022-08-17 13:48:07.406250
563,5.46,2022-08-17 13:48:07.421875
564,4.18,2022-08-17 13:48:07.437500
565,3.19,2022-08-17 13:48:07.453125
566,2.58,2022-08-17 13:48:07.468750
567,2.24,2022-08-17 13:48:07.484375
568,1.94,2022-08-17 13:48:07.500000
569,1.5,2022-08-17 13:48:07.515625
570,0.82,2022-08-17 13:48:07.531250
571,-0.09,2022-08-17 13:48:07.546875
572,-1.08,2022-08-17 13:48:07.562500
573,-1.95,2022-08-17 13:48:07.578125
574,-2.49,2022-08-17 13:48:07.593750
575,-2.58,2022-08-17 13:48:07.609375
576,-2.25,2022-08-17 13:48:07.625000
577,-1.74,2022-08-17 13:48:07.640625
578,-1.43,2022-08-17 13:48:07.656250
579,-1.76,2022-08-17 13:48:07.671875
580,-3.02,2022-08-17 13:48:07.687500
581,-5.23,2022-08-17 13:48:07.703125
582,-8.06,2022-08-17 13:48:07.718750
583,-10.86,2022-08-17 13:48:07.734375
584,-12.81,2022-08-17 13:48:07.750000
585,-13.24,2022-08-17 13:48:07.765625
586,-11.85,2022-08-17 13:48:07.781250
587,-8.91,2022-08-17 13:48:07.796875
588,-5.11,2022-08-17 13:48:07.812500
589,-1.39,2022-08-17 13:48:07.828125
590,1.5,2022-08-17 13:48:07.843750
591,3.22,2022-08-17 13:48:07.859375
592,3.9,2022-08-17 13:48:07.875000
593,4.04,2022-08-17 13:48:07.890625
594,4.2,2022-08-17 13:48:07.906250
595,4.81,2022-08-17 13:48:07.921875
596,6.01,2022-08-17 13:48:07.937500
597,7.7,2022-08-17 13:48:07.953125
598,9.61,2022-08-17 13:48:07.968750
599,11.46,2022-08-17 13:48:07.984375
600,13.0,2022-08-17 13:48:08.000000
601,14.13,2022-08-17 13:48:08.015625
602,14.92,2022-08-17 13:48:08.031250
603,15.56,2022-08-17 13:48:08.046875
604,16.37,2022-08-17 13:48:08.062500
605,17.6,2022-08-17 13:48:08.078125
606,19.38,2022-08-17 13:48:08.093750
607,21.61,2022-08-17 13:48:08.109375
608,24.0,2022-08-17 13:48:08.125000
609,26.15,2022-08-17 13:48:08.140625
610,27.65,2022-08-17 13:48:08.156250
611,28.17,2022-08-17 13:48:08.171875
612,27.5,2022-08-17 13:48:08.187500
613,25.54,2022-08-17 13:48:08.203125
614,22.39,2022-08-17 13:48:08.218750
615,18.33,2022-08-17 13:48:08.234375
616,13.85,2022-08-17 13:48:08.250000
617,9.64,2022-08-17 13:48:08.265625
618,6.35,2022-08-17 13:48:08.281250
619,4.45,2022-08-17 13:48:08.296875
620,3.98,2022-08-17 13:48:08.312500
621,4.52,2022-08-17 13:48:08.328125
622,5.33,2022-08-17 13:48:08.343750
623,5.57,2022-08-17 13:48:08.359375
624,4.61,2022-08-17 13:48:08.375000
625,2.27,2022-08-17 13:48:08.390625
626,-1.15,2022-08-17 13:48:08.406250
627,-4.98,2022-08-17 13:48:08.421875
628,-8.36,2022-08-17 13:48:08.437500
629,-10.57,2022-08-17 13:48:08.453125
630,-11.27,2022-08-17 13:48:08.468750
631,-10.58,2022-08-17 13:48:08.484375
632,-9.06,2022-08-17 13:48:08.500000
633,-7.48,2022-08-17 13:48:08.515625
634,-6.47,2022-08-17 13:48:08.531250
635,-6.28,2022-08-17 13:48:08.546875
636,-6.64,2022-08-17 13:48:08.562500
637,-6.95,2022-08-17 13:48:08.578125
638,-6.55,2022-08-17 13:48:08.593750
639,-5.1,2022-08-17 13:48:08.609375
640,-2.76,2022-08-17 13:48:08.625000
641,-0.18,2022-08-17 13:48:08.640625
642,1.73,2022-08-17 13:48:08.656250
643,2.14,2022-08-17 13:48:08.671875
644,0.52,2022-08-17 13:48:08.687500
645,-3.19,2022-08-17 13:48:08.703125
646,-8.64,2022-08-17 13:48:08.718750
647,-15.21,2022-08-17 13:48:08.734375
648,-22.08,2022-08-17 13:48:08.750000
649,-28.36,2022-08-17 13:48:08.765625
650,-33.13,2022-08-17 13:48:08.781250
651,-35.58,2022-08-17 13:48:08.796875
652,-35.1,2022-08-17 13:48:08.812500
653,-31.43,2022-08-17 13:48:08.828125
654,-24.85,2022-08-17 13:48:08.843750
655,-16.08,2022-08-17 13:48:08.859375
656,-6.1,2022-08-17 13:48:08.875000
657,4.08,2022-08-17 13:48:08.890625
658,13.64,2022-08-17 13:48:08.906250
659,22.04,2022-08-17 13:48:08.921875
660,28.86,2022-08-17 13:48:08.937500
661,33.65,2022-08-17 13:48:08.953125
662,35.93,2022-08-17 13:48:08.968750
663,35.4,2022-08-17 13:48:08.984375
664,32.32,2022-08-17 13:48:09.000000
665,27.62,2022-08-17 13:48:09.015625
666,22.85,2022-08-17 13:48:09.031250
667,19.58,2022-08-17 13:48:09.046875
668,18.89,2022-08-17 13:48:09.062500
669,21.02,2022-08-17 13:48:09.078125
670,25.4,2022-08-17 13:48:09.093750
671,31.08,2022-08-17 13:48:09.109375
672,37.15,2022-08-17 13:48:09.125000
673,43.02,2022-08-17 13:48:09.140625
674,48.39,2022-08-17 13:48:09.156250
675,52.99,2022-08-17 13:48:09.171875
676,56.42,2022-08-17 13:48:09.187500
677,58.05,2022-08-17 13:48:09.203125
678,57.36,2022-08-17 13:48:09.218750
679,54.14,2022-08-17 13:48:09.234375
680,48.83,2022-08-17 13:48:09.250000
681,42.56,2022-08-17 13:48:09.265625
682,36.86,2022-08-17 13:48:09.281250
683,33.16,2022-08-17 13:48:09.296875
684,32.25,2022-08-17 13:48:09.312500
685,33.9,2022-08-17 13:48:09.328125
686,36.87,2022-08-17 13:48:09.343750
687,39.29,2022-08-17 13:48:09.359375
688,39.39,2022-08-17 13:48:09.375000
689,36.13,2022-08-17 13:48:09.390625
690,29.47,2022-08-17 13:48:09.406250
691,20.36,2022-08-17 13:48:09.421875
692,10.28,2022-08-17 13:48:09.437500
693,0.72,2022-08-17 13:48:09.453125
694,-7.27,2022-08-17 13:48:09.468750
695,-13.3,2022-08-17 13:48:09.484375
696,-17.63,2022-08-17 13:48:09.500000
697,-20.97,2022-08-17 13:48:09.515625
698,-24.13,2022-08-17 13:48:09.531250
699,-27.79,2022-08-17 13:48:09.546875
700,-32.3,2022-08-17 13:48:09.562500
701,-37.62,2022-08-17 13:48:09.578125
702,-43.47,2022-08-17 13:48:09.593750
703,-49.37,2022-08-17 13:48:09.609375
704,-54.77,2022-08-17 13:48:09.625000
705,-59.09,2022-08-17 13:48:09.640625
706,-61.79,2022-08-17 13:48:09.656250
707,-62.47,2022-08-17 13:48:09.671875
708,-61.0,2022-08-17 13:48:09.687500
709,-57.7,2022-08-17 13:48:09.703125
710,-53.26,2022-08-17 13:48:09.718750
711,-48.64,2022-08-17 13:48:09.734375
712,-44.69,2022-08-17 13:48:09.750000
713,-41.88,2022-08-17 13:48:09.765625
714,-40.1,2022-08-17 13:48:09.781250
715,-38.7,2022-08-17 13:48:09.796875
716,-36.79,2022-08-17 13:48:09.812500
717,-33.54,2022-08-17 13:48:09.828125
718,-28.49,2022-08-17 13:48:09.843750
719,-21.68,2022-08-17 13:48:09.859375
720,-13.66,2022-08-17 13:48:09.875000
721,-5.2,2022-08-17 13:48:09.890625
722,2.94,2022-08-17 13:48:09.906250
723,10.21,2022-08-17 13:48:09.921875
724,16.38,2022-08-17 13:48:09.937500
725,21.45,2022-08-17 13:48:09.953125
726,25.44,2022-08-17 13:48:09.968750
727,28.35,2022-08-17 13:48:09.984375
728,30.06,2022-08-17 13:48:10.000000
729,30.49,2022-08-17 13:48:10.015625
730,29.75,2022-08-17 13:48:10.031250
731,28.19,2022-08-17 13:48:10.046875
732,26.42,2022-08-17 13:48:10.062500
733,25.1,2022-08-17 13:48:10.078125
734,24.68,2022-08-17 13:48:10.093750
735,25.21,2022-08-17 13:48:10.109375
736,26.24,2022-08-17 13:48:10.125000
737,26.93,2022-08-17 13:48:10.140625
738,26.31,2022-08-17 13:48:10.156250
739,23.55,2022-08-17 13:48:10.171875
740,18.18,2022-08-17 13:48:10.187500
741,10.3,2022-08-17 13:48:10.203125
742,0.49,2022-08-17 13:48:10.218750
743,-10.22,2022-08-17 13:48:10.234375
744,-20.56,2022-08-17 13:48:10.250000
745,-29.34,2022-08-17 13:48:10.265625
746,-35.69,2022-08-17 13:48:10.281250
747,-39.28,2022-08-17 13:48:10.296875
748,-40.41,2022-08-17 13:48:10.312500
749,-39.87,2022-08-17 13:48:10.328125
750,-38.67,2022-08-17 13:48:10.343750
751,-37.56,2022-08-17 13:48:10.359375
752,-36.88,2022-08-17 13:48:10.375000
753,-36.48,2022-08-17 13:48:10.390625
754,-36.01,2022-08-17 13:48:10.406250
755,-35.16,2022-08-17 13:48:10.421875
756,-33.91,2022-08-17 13:48:10.437500
757,-32.34,2022-08-17 13:48:10.453125
758,-30.49,2022-08-17 13:48:10.468750
759,-28.06,2022-08-17 13:48:10.484375
760,-24.45,2022-08-17 13:48:10.500000
761,-19.09,2022-08-17 13:48:10.515625
762,-11.78,2022-08-17 13:48:10.531250
763,-2.96,2022-08-17 13:48:10.546875
764,6.33,2022-08-17 13:48:10.562500
765,14.79,2022-08-17 13:48:10.578125
766,21.25,2022-08-17 13:48:10.593750
767,25.01,2022-08-17 13:48:10.609375
768,25.95,2022-08-17 13:48:10.625000
769,24.4,2022-08-17 13:48:10.640625
770,20.96,2022-08-17 13:48:10.656250
771,16.33,2022-08-17 13:48:10.671875
772,11.14,2022-08-17 13:48:10.687500
773,5.87,2022-08-17 13:48:10.703125
774,0.85,2022-08-17 13:48:10.718750
775,-3.79,2022-08-17 13:48:10.734375
776,-8.05,2022-08-17 13:48:10.750000
777,-12.01,2022-08-17 13:48:10.765625
778,-15.74,2022-08-17 13:48:10.781250
779,-19.28,2022-08-17 13:48:10.796875
780,-22.61,2022-08-17 13:48:10.812500
781,-25.58,2022-08-17 13:48:10.828125
782,-27.87,2022-08-17 13:48:10.843750
783,-28.91,2022-08-17 13:48:10.859375
784,-27.96,2022-08-17 13:48:10.875000
785,-24.42,2022-08-17 13:48:10.890625
786,-18.16,2022-08-17 13:48:10.906250
787,-9.77,2022-08-17 13:48:10.921875
788,-0.48,2022-08-17 13:48:10.937500
789,8.28,2022-08-17 13:48:10.953125
790,15.38,2022-08-17 13:48:10.968750
791,20.43,2022-08-17 13:48:10.984375
792,23.75,2022-08-17 13:48:11.000000
793,25.92,2022-08-17 13:48:11.015625
794,27.16,2022-08-17 13:48:11.031250
795,27.06,2022-08-17 13:48:11.046875
796,24.76,2022-08-17 13:48:11.062500
797,19.69,2022-08-17 13:48:11.078125
798,12.24,2022-08-17 13:48:11.093750
799,4.12,2022-08-17 13:48:11.109375
800,-2.13,2022-08-17 13:48:11.125000
801,-4.09,2022-08-17 13:48:11.140625
802,-0.57,2022-08-17 13:48:11.156250
803,7.79,2022-08-17 13:48:11.171875
804,18.62,2022-08-17 13:48:11.187500
805,28.66,2022-08-17 13:48:11.203125
806,34.99,2022-08-17 13:48:11.218750
807,36.08,2022-08-17 13:48:11.234375
808,32.3,2022-08-17 13:48:11.250000
809,25.73,2022-08-17 13:48:11.265625
810,19.37,2022-08-17 13:48:11.281250
811,16.17,2022-08-17 13:48:11.296875
812,18.28,2022-08-17 13:48:11.312500
813,26.64,2022-08-17 13:48:11.328125
814,40.86,2022-08-17 13:48:11.343750
815,59.17,2022-08-17 13:48:11.359375
816,78.42,2022-08-17 13:48:11.375000
817,94.22,2022-08-17 13:48:11.390625
818,101.76,2022-08-17 13:48:11.406250
819,97.3,2022-08-17 13:48:11.421875
820,79.93,2022-08-17 13:48:11.437500
821,52.63,2022-08-17 13:48:11.453125
822,21.85,2022-08-17 13:48:11.468750
823,-4.71,2022-08-17 13:48:11.484375
824,-21.1,2022-08-17 13:48:11.500000
825,-25.44,2022-08-17 13:48:11.515625
826,-20.45,2022-08-17 13:48:11.531250
827,-11.62,2022-08-17 13:48:11.546875
828,-4.41,2022-08-17 13:48:11.562500
829,-1.9,2022-08-17 13:48:11.578125
830,-4.17,2022-08-17 13:48:11.593750
831,-9.31,2022-08-17 13:48:11.609375
832,-15.32,2022-08-17 13:48:11.625000
833,-21.27,2022-08-17 13:48:11.640625
834,-27.25,2022-08-17 13:48:11.656250
835,-33.28,2022-08-17 13:48:11.671875
836,-38.35,2022-08-17 13:48:11.687500
837,-40.28,2022-08-17 13:48:11.703125
838,-36.71,2022-08-17 13:48:11.718750
839,-26.62,2022-08-17 13:48:11.734375
840,-11.37,2022-08-17 13:48:11.750000
841,5.36,2022-08-17 13:48:11.765625
842,18.84,2022-08-17 13:48:11.781250
843,25.13,2022-08-17 13:48:11.796875
844,22.68,2022-08-17 13:48:11.812500
845,12.9,2022-08-17 13:48:11.828125
846,-0.43,2022-08-17 13:48:11.843750
847,-12.73,2022-08-17 13:48:11.859375
848,-20.43,2022-08-17 13:48:11.875000
849,-22.23,2022-08-17 13:48:11.890625
850,-19.35,2022-08-17 13:48:11.906250
851,-14.64,2022-08-17 13:48:11.921875
852,-11.14,2022-08-17 13:48:11.937500
853,-10.68,2022-08-17 13:48:11.953125
854,-13.25,2022-08-17 13:48:11.968750
855,-17.29,2022-08-17 13:48:11.984375
856,-20.69,2022-08-17 13:48:12.000000
857,-21.88,2022-08-17 13:48:12.015625
858,-20.48,2022-08-17 13:48:12.031250
859,-17.11,2022-08-17 13:48:12.046875
860,-12.9,2022-08-17 13:48:12.062500
861,-8.81,2022-08-17 13:48:12.078125
862,-5.32,2022-08-17 13:48:12.093750
863,-2.6,2022-08-17 13:48:12.109375
864,-0.78,2022-08-17 13:48:12.125000
865,-0.09,2022-08-17 13:48:12.140625
866,-0.88,2022-08-17 13:48:12.156250
867,-3.32,2022-08-17 13:48:12.171875
868,-7.3,2022-08-17 13:48:12.187500
869,-12.42,2022-08-17 13:48:12.203125
870,-18.18,2022-08-17 13:48:12.218750
871,-24.16,2022-08-17 13:48:12.234375
872,-30.14,2022-08-17 13:48:12.250000
873,-36.05,2022-08-17 13:48:12.265625
874,-41.82,2022-08-17 13:48:12.281250
875,-47.36,2022-08-17 13:48:12.296875
876,-52.44,2022-08-17 13:48:12.312500
877,-56.7,2022-08-17 13:48:12.328125
878,-59.64,2022-08-17 13:48:12.343750
879,-60.59,2022-08-17 13:48:12.359375
880,-58.78,2022-08-17 13:48:12.375000
881,-53.47,2022-08-17 13:48:12.390625
882,-44.23,2022-08-17 13:48:12.406250
883,-31.09,2022-08-17 13:48:12.421875
884,-14.75,2022-08-17 13:48:12.437500
885,3.39,2022-08-17 13:48:12.453125
886,21.49,2022-08-17 13:48:12.468750
887,37.54,2022-08-17 13:48:12.484375
888,49.86,2022-08-17 13:48:12.500000
889,57.47,2022-08-17 13:48:12.515625
890,60.32,2022-08-17 13:48:12.531250
891,59.22,2022-08-17 13:48:12.546875
892,55.55,2022-08-17 13:48:12.562500
893,50.68,2022-08-17 13:48:12.578125
894,45.62,2022-08-17 13:48:12.593750
895,40.71,2022-08-17 13:48:12.609375
896,35.75,2022-08-17 13:48:12.625000
897,30.31,2022-08-17 13:48:12.640625
898,24.14,2022-08-17 13:48:12.656250
899,17.36,2022-08-17 13:48:12.671875
900,10.51,2022-08-17 13:48:12.687500
901,4.31,2022-08-17 13:48:12.703125
902,-0.51,2022-08-17 13:48:12.718750
903,-3.4,2022-08-17 13:48:12.734375
904,-3.99,2022-08-17 13:48:12.750000
905,-2.08,2022-08-17 13:48:12.765625
906,2.33,2022-08-17 13:48:12.781250
907,9.02,2022-08-17 13:48:12.796875
908,17.38,2022-08-17 13:48:12.812500
909,26.43,2022-08-17 13:48:12.828125
910,34.92,2022-08-17 13:48:12.843750
911,41.56,2022-08-17 13:48:12.859375
912,45.32,2022-08-17 13:48:12.875000
913,45.67,2022-08-17 13:48:12.890625
914,42.63,2022-08-17 13:48:12.906250
915,36.72,2022-08-17 13:48:12.921875
916,28.89,2022-08-17 13:48:12.937500
917,20.32,2022-08-17 13:48:12.953125
918,12.22,2022-08-17 13:48:12.968750
919,5.56,2022-08-17 13:48:12.984375
920,0.86,2022-08-17 13:48:13.000000
921,-1.91,2022-08-17 13:48:13.015625
922,-3.24,2022-08-17 13:48:13.031250
923,-3.81,2022-08-17 13:48:13.046875
924,-4.24,2022-08-17 13:48:13.062500
925,-4.84,2022-08-17 13:48:13.078125
926,-5.67,2022-08-17 13:48:13.093750
927,-6.68,2022-08-17 13:48:13.109375
928,-7.83,2022-08-17 13:48:13.125000
929,-9.07,2022-08-17 13:48:13.140625
930,-10.29,2022-08-17 13:48:13.156250
931,-11.11,2022-08-17 13:48:13.171875
932,-10.99,2022-08-17 13:48:13.187500
933,-9.33,2022-08-17 13:48:13.203125
934,-5.81,2022-08-17 13:48:13.218750
935,-0.52,2022-08-17 13:48:13.234375
936,5.97,2022-08-17 13:48:13.250000
937,12.79,2022-08-17 13:48:13.265625
938,18.99,2022-08-17 13:48:13.281250
939,23.71,2022-08-17 13:48:13.296875
940,26.31,2022-08-17 13:48:13.312500
941,26.42,2022-08-17 13:48:13.328125
942,23.98,2022-08-17 13:48:13.343750
943,19.23,2022-08-17 13:48:13.359375
944,12.73,2022-08-17 13:48:13.375000
945,5.21,2022-08-17 13:48:13.390625
946,-2.52,2022-08-17 13:48:13.406250
947,-9.79,2022-08-17 13:48:13.421875
948,-16.09,2022-08-17 13:48:13.437500
949,-21.12,2022-08-17 13:48:13.453125
950,-24.78,2022-08-17 13:48:13.468750
951,-27.15,2022-08-17 13:48:13.484375
952,-28.5,2022-08-17 13:48:13.500000
953,-29.24,2022-08-17 13:48:13.515625
954,-29.77,2022-08-17 13:48:13.531250
955,-30.34,2022-08-17 13:48:13.546875
956,-30.87,2022-08-17 13:48:13.562500
957,-31.0,2022-08-17 13:48:13.578125
958,-30.21,2022-08-17 13:48:13.593750
959,-28.11,2022-08-17 13:48:13.609375
960,-24.66,2022-08-17 13:48:13.625000
961,-20.2,2022-08-17 13:48:13.640625
962,-15.35,2022-08-17 13:48:13.656250
963,-10.76,2022-08-17 13:48:13.671875
964,-6.89,2022-08-17 13:48:13.687500
965,-4.03,2022-08-17 13:48:13.703125
966,-2.34,2022-08-17 13:48:13.718750
967,-1.88,2022-08-17 13:48:13.734375
968,-2.63,2022-08-17 13:48:13.750000
969,-4.4,2022-08-17 13:48:13.765625
970,-6.7,2022-08-17 13:48:13.781250
971,-8.82,2022-08-17 13:48:13.796875
972,-9.94,2022-08-17 13:48:13.812500
973,-9.54,2022-08-17 13:48:13.828125
974,-7.53,2022-08-17 13:48:13.843750
975,-4.38,2022-08-17 13:48:13.859375
976,-0.85,2022-08-17 13:48:13.875000
977,2.29,2022-08-17 13:48:13.890625
978,4.62,2022-08-17 13:48:13.906250
979,6.08,2022-08-17 13:48:13.921875
980,6.96,2022-08-17 13:48:13.937500
981,7.57,2022-08-17 13:48:13.953125
982,8.07,2022-08-17 13:48:13.968750
983,8.43,2022-08-17 13:48:13.984375
984,8.5,2022-08-17 13:48:14.000000
985,8.18,2022-08-17 13:48:14.015625
986,7.52,2022-08-17 13:48:14.031250
987,6.69,2022-08-17 13:48:14.046875
988,5.88,2022-08-17 13:48:14.062500
989,5.22,2022-08-17 13:48:14.078125
990,4.72,2022-08-17 13:48:14.093750
991,4.34,2022-08-17 13:48:14.109375
992,3.95,2022-08-17 13:48:14.125000
993,3.45,2022-08-17 13:48:14.140625
994,2.69,2022-08-17 13:48:14.156250
995,1.58,2022-08-17 13:48:14.171875
996,0.11,2022-08-17 13:48:14.187500
997,-1.56,2022-08-17 13:48:14.203125
998,-3.18,2022-08-17 13:48:14.218750
999,-4.38,2022-08-17 13:48:14.234375
1000,-4.9,2022-08-17 13:48:14.250000
1001,-4.66,2022-08-17 13:48:14.265625
1002,-3.83,2022-08-17 13:48:14.281250
1003,-2.72,2022-08-17 13:48:14.296875
1004,-1.71,2022-08-17 13:48:14.312500
1005,-1.09,2022-08-17 13:48:14.328125
1006,-1.01,2022-08-17 13:48:14.343750
1007,-1.52,2022-08-17 13:48:14.359375
1008,-2.58,2022-08-17 13:48:14.375000
1009,-4.17,2022-08-17 13:48:14.390625
1010,-6.23,2022-08-17 13:48:14.406250
1011,-8.74,2022-08-17 13:48:14.421875
1012,-11.67,2022-08-17 13:48:14.437500
1013,-14.96,2022-08-17 13:48:14.453125
1014,-18.47,2022-08-17 13:48:14.468750
1015,-21.95,2022-08-17 13:48:14.484375
1016,-25.0,2022-08-17 13:48:14.500000
1017,-27.1,2022-08-17 13:48:14.515625
1018,-27.72,2022-08-17 13:48:14.531250
1019,-26.43,2022-08-17 13:48:14.546875
1020,-23.02,2022-08-17 13:48:14.562500
1021,-17.53,2022-08-17 13:48:14.578125
1022,-10.29,2022-08-17 13:48:14.593750
1023,-1.82,2022-08-17 13:48:14.609375
1024,7.17,2022-08-17 13:48:14.625000
1025,15.9,2022-08-17 13:48:14.640625
1026,23.57,2022-08-17 13:48:14.656250
1027,29.5,2022-08-17 13:48:14.671875
1028,33.24,2022-08-17 13:48:14.687500
1029,34.62,2022-08-17 13:48:14.703125
1030,33.85,2022-08-17 13:48:14.718750
1031,31.36,2022-08-17 13:48:14.734375
1032,27.79,2022-08-17 13:48:14.750000
1033,23.76,2022-08-17 13:48:14.765625
1034,19.76,2022-08-17 13:48:14.781250
1035,16.13,2022-08-17 13:48:14.796875
1036,12.99,2022-08-17 13:48:14.812500
1037,10.36,2022-08-17 13:48:14.828125
1038,8.22,2022-08-17 13:48:14.843750
1039,6.51,2022-08-17 13:48:14.859375
1040,5.13,2022-08-17 13:48:14.875000
1041,3.93,2022-08-17 13:48:14.890625
1042,2.7,2022-08-17 13:48:14.906250
1043,1.25,2022-08-17 13:48:14.921875
1044,-0.44,2022-08-17 13:48:14.937500
1045,-2.21,2022-08-17 13:48:14.953125
1046,-3.75,2022-08-17 13:48:14.968750
1047,-4.74,2022-08-17 13:48:14.984375
1048,-5.01,2022-08-17 13:48:15.000000
1049,-4.65,2022-08-17 13:48:15.015625
1050,-3.99,2022-08-17 13:48:15.031250
1051,-3.4,2022-08-17 13:48:15.046875
1052,-3.2,2022-08-17 13:48:15.062500
1053,-3.51,2022-08-17 13:48:15.078125
1054,-4.29,2022-08-17 13:48:15.093750
1055,-5.36,2022-08-17 13:48:15.109375
1056,-6.56,2022-08-17 13:48:15.125000
1057,-7.76,2022-08-17 13:48:15.140625
1058,-8.89,2022-08-17 13:48:15.156250
1059,-9.91,2022-08-17 13:48:15.171875
1060,-10.84,2022-08-17 13:48:15.187500
1061,-11.71,2022-08-17 13:48:15.203125
1062,-12.6,2022-08-17 13:48:15.218750
1063,-13.62,2022-08-17 13:48:15.234375
1064,-14.86,2022-08-17 13:48:15.250000
1065,-16.38,2022-08-17 13:48:15.265625
1066,-18.09,2022-08-17 13:48:15.281250
1067,-19.75,2022-08-17 13:48:15.296875
1068,-20.96,2022-08-17 13:48:15.312500
1069,-21.29,2022-08-17 13:48:15.328125
1070,-20.34,2022-08-17 13:48:15.343750
1071,-17.98,2022-08-17 13:48:15.359375
1072,-14.33,2022-08-17 13:48:15.375000
1073,-9.78,2022-08-17 13:48:15.390625
1074,-4.84,2022-08-17 13:48:15.406250
1075,-0.03,2022-08-17 13:48:15.421875
1076,4.27,2022-08-17 13:48:15.437500
1077,7.78,2022-08-17 13:48:15.453125
1078,10.34,2022-08-17 13:48:15.468750
1079,11.88,2022-08-17 13:48:15.484375
1080,12.45,2022-08-17 13:48:15.500000
1081,12.25,2022-08-17 13:48:15.515625
1082,11.6,2022-08-17 13:48:15.531250
1083,10.87,2022-08-17 13:48:15.546875
1084,10.35,2022-08-17 13:48:15.562500
1085,10.14,2022-08-17 13:48:15.578125
1086,10.16,2022-08-17 13:48:15.593750
1087,10.22,2022-08-17 13:48:15.609375
1088,10.15,2022-08-17 13:48:15.625000
1089,9.88,2022-08-17 13:48:15.640625
1090,9.43,2022-08-17 13:48:15.656250
1091,8.86,2022-08-17 13:48:15.671875
1092,8.21,2022-08-17 13:48:15.687500
1093,7.53,2022-08-17 13:48:15.703125
1094,6.85,2022-08-17 13:48:15.718750
1095,6.18,2022-08-17 13:48:15.734375
1096,5.58,2022-08-17 13:48:15.750000
1097,5.08,2022-08-17 13:48:15.765625
1098,4.67,2022-08-17 13:48:15.781250
1099,4.3,2022-08-17 13:48:15.796875
1100,3.88,2022-08-17 13:48:15.812500
1101,3.36,2022-08-17 13:48:15.828125
1102,2.77,2022-08-17 13:48:15.843750
1103,2.2,2022-08-17 13:48:15.859375
1104,1.74,2022-08-17 13:48:15.875000
1105,1.44,2022-08-17 13:48:15.890625
1106,1.25,2022-08-17 13:48:15.906250
1107,1.03,2022-08-17 13:48:15.921875
1108,0.6,2022-08-17 13:48:15.937500
1109,-0.16,2022-08-17 13:48:15.953125
1110,-1.24,2022-08-17 13:48:15.968750
1111,-2.54,2022-08-17 13:48:15.984375
1112,-3.88,2022-08-17 13:48:16.000000
1113,-5.1,2022-08-17 13:48:16.015625
1114,-6.17,2022-08-17 13:48:16.031250
1115,-7.17,2022-08-17 13:48:16.046875
1116,-8.27,2022-08-17 13:48:16.062500
1117,-9.59,2022-08-17 13:48:16.078125
1118,-11.12,2022-08-17 13:48:16.093750
1119,-12.65,2022-08-17 13:48:16.109375
1120,-13.8,2022-08-17 13:48:16.125000
1121,-14.1,2022-08-17 13:48:16.140625
1122,-13.15,2022-08-17 13:48:16.156250
1123,-10.82,2022-08-17 13:48:16.171875
1124,-7.28,2022-08-17 13:48:16.187500
1125,-2.95,2022-08-17 13:48:16.203125
1126,1.68,2022-08-17 13:48:16.218750
1127,6.13,2022-08-17 13:48:16.234375
1128,10.13,2022-08-17 13:48:16.250000
1129,13.5,2022-08-17 13:48:16.265625
1130,16.16,2022-08-17 13:48:16.281250
1131,17.96,2022-08-17 13:48:16.296875
1132,18.73,2022-08-17 13:48:16.312500
1133,18.3,2022-08-17 13:48:16.328125
1134,16.66,2022-08-17 13:48:16.343750
1135,13.98,2022-08-17 13:48:16.359375
1136,10.6,2022-08-17 13:48:16.375000
1137,6.93,2022-08-17 13:48:16.390625
1138,3.38,2022-08-17 13:48:16.406250
1139,0.28,2022-08-17 13:48:16.421875
1140,-2.13,2022-08-17 13:48:16.437500
1141,-3.7,2022-08-17 13:48:16.453125
1142,-4.35,2022-08-17 13:48:16.468750
1143,-4.1,2022-08-17 13:48:16.484375
1144,-3.15,2022-08-17 13:48:16.500000
1145,-1.77,2022-08-17 13:48:16.515625
1146,-0.26,2022-08-17 13:48:16.531250
1147,1.15,2022-08-17 13:48:16.546875
1148,2.36,2022-08-17 13:48:16.562500
1149,3.42,2022-08-17 13:48:16.578125
1150,4.44,2022-08-17 13:48:16.593750
1151,5.48,2022-08-17 13:48:16.609375
1152,6.58,2022-08-17 13:48:16.625000
1153,7.69,2022-08-17 13:48:16.640625
1154,8.73,2022-08-17 13:48:16.656250
1155,9.55,2022-08-17 13:48:16.671875
1156,9.94,2022-08-17 13:48:16.687500
1157,9.54,2022-08-17 13:48:16.703125
1158,7.97,2022-08-17 13:48:16.718750
1159,4.93,2022-08-17 13:48:16.734375
1160,0.37,2022-08-17 13:48:16.750000
1161,-5.41,2022-08-17 13:48:16.765625
1162,-11.73,2022-08-17 13:48:16.781250
1163,-17.77,2022-08-17 13:48:16.796875
1164,-22.71,2022-08-17 13:48:16.812500
1165,-26.03,2022-08-17 13:48:16.828125
1166,-27.61,2022-08-17 13:48:16.843750
1167,-27.73,2022-08-17 13:48:16.859375
1168,-26.91,2022-08-17 13:48:16.875000
1169,-25.72,2022-08-17 13:48:16.890625
1170,-24.64,2022-08-17 13:48:16.906250
1171,-23.93,2022-08-17 13:48:16.921875
1172,-23.63,2022-08-17 13:48:16.937500
1173,-23.61,2022-08-17 13:48:16.953125
1174,-23.61,2022-08-17 13:48:16.968750
1175,-23.29,2022-08-17 13:48:16.984375
1176,-22.34,2022-08-17 13:48:17.000000
1177,-20.53,2022-08-17 13:48:17.015625
1178,-17.76,2022-08-17 13:48:17.031250
1179,-14.17,2022-08-17 13:48:17.046875
1180,-10.09,2022-08-17 13:48:17.062500
1181,-5.94,2022-08-17 13:48:17.078125
1182,-2.07,2022-08-17 13:48:17.093750
1183,1.37,2022-08-17 13:48:17.109375
1184,4.44,2022-08-17 13:48:17.125000
1185,7.33,2022-08-17 13:48:17.140625
1186,10.14,2022-08-17 13:48:17.156250
1187,12.82,2022-08-17 13:48:17.171875
1188,15.11,2022-08-17 13:48:17.187500
1189,16.7,2022-08-17 13:48:17.203125
1190,17.4,2022-08-17 13:48:17.218750
1191,17.22,2022-08-17 13:48:17.234375
1192,16.33,2022-08-17 13:48:17.250000
1193,15.0,2022-08-17 13:48:17.265625
1194,13.44,2022-08-17 13:48:17.281250
1195,11.73,2022-08-17 13:48:17.296875
1196,9.86,2022-08-17 13:48:17.312500
1197,7.86,2022-08-17 13:48:17.328125
1198,5.82,2022-08-17 13:48:17.343750
1199,3.98,2022-08-17 13:48:17.359375
1200,2.6,2022-08-17 13:48:17.375000
1201,1.9,2022-08-17 13:48:17.390625
1202,1.86,2022-08-17 13:48:17.406250
1203,2.31,2022-08-17 13:48:17.421875
1204,2.89,2022-08-17 13:48:17.437500
1205,3.29,2022-08-17 13:48:17.453125
1206,3.29,2022-08-17 13:48:17.468750
1207,2.87,2022-08-17 13:48:17.484375
1208,2.14,2022-08-17 13:48:17.500000
1209,1.26,2022-08-17 13:48:17.515625
1210,0.37,2022-08-17 13:48:17.531250
1211,-0.43,2022-08-17 13:48:17.546875
1212,-1.13,2022-08-17 13:48:17.562500
1213,-1.74,2022-08-17 13:48:17.578125
1214,-2.3,2022-08-17 13:48:17.593750
1215,-2.81,2022-08-17 13:48:17.609375
1216,-3.31,2022-08-17 13:48:17.625000
1217,-3.8,2022-08-17 13:48:17.640625
1218,-4.26,2022-08-17 13:48:17.656250
1219,-4.68,2022-08-17 13:48:17.671875
1220,-5.03,2022-08-17 13:48:17.687500
1221,-5.33,2022-08-17 13:48:17.703125
1222,-5.65,2022-08-17 13:48:17.718750
1223,-6.06,2022-08-17 13:48:17.734375
1224,-6.66,2022-08-17 13:48:17.750000
1225,-7.47,2022-08-17 13:48:17.765625
1226,-8.45,2022-08-17 13:48:17.781250
1227,-9.56,2022-08-17 13:48:17.796875
1228,-10.77,2022-08-17 13:48:17.812500
1229,-12.04,2022-08-17 13:48:17.828125
1230,-13.31,2022-08-17 13:48:17.843750
1231,-14.41,2022-08-17 13:48:17.859375
1232,-15.03,2022-08-17 13:48:17.875000
1233,-14.78,2022-08-17 13:48:17.890625
1234,-13.36,2022-08-17 13:48:17.906250
1235,-10.63,2022-08-17 13:48:17.921875
1236,-6.75,2022-08-17 13:48:17.937500
1237,-2.13,2022-08-17 13:48:17.953125
1238,2.67,2022-08-17 13:48:17.968750
1239,7.14,2022-08-17 13:48:17.984375
1240,10.87,2022-08-17 13:48:18.000000
1241,13.66,2022-08-17 13:48:18.015625
1242,15.49,2022-08-17 13:48:18.031250
1243,16.39,2022-08-17 13:48:18.046875
1244,16.47,2022-08-17 13:48:18.062500
1245,15.78,2022-08-17 13:48:18.078125
1246,14.44,2022-08-17 13:48:18.093750
1247,12.58,2022-08-17 13:48:18.109375
1248,10.41,2022-08-17 13:48:18.125000
1249,8.22,2022-08-17 13:48:18.140625
1250,6.26,2022-08-17 13:48:18.156250
1251,4.74,2022-08-17 13:48:18.171875
1252,3.71,2022-08-17 13:48:18.187500
1253,3.11,2022-08-17 13:48:18.203125
1254,2.78,2022-08-17 13:48:18.218750
1255,2.62,2022-08-17 13:48:18.234375
1256,2.56,2022-08-17 13:48:18.250000
1257,2.67,2022-08-17 13:48:18.265625
1258,3.0,2022-08-17 13:48:18.281250
1259,3.56,2022-08-17 13:48:18.296875
1260,4.24,2022-08-17 13:48:18.312500
1261,4.85,2022-08-17 13:48:18.328125
1262,5.18,2022-08-17 13:48:18.343750
1263,5.12,2022-08-17 13:48:18.359375
1264,4.7,2022-08-17 13:48:18.375000
1265,4.03,2022-08-17 13:48:18.390625
1266,3.32,2022-08-17 13:48:18.406250
1267,2.68,2022-08-17 13:48:18.421875
1268,2.19,2022-08-17 13:48:18.437500
1269,1.8,2022-08-17 13:48:18.453125
1270,1.38,2022-08-17 13:48:18.468750
1271,0.82,2022-08-17 13:48:18.484375
1272,0.03,2022-08-17 13:48:18.500000
1273,-1.0,2022-08-17 13:48:18.515625
1274,-2.22,2022-08-17 13:48:18.531250
1275,-3.53,2022-08-17 13:48:18.546875
1276,-4.81,2022-08-17 13:48:18.562500
1277,-6.0,2022-08-17 13:48:18.578125
1278,-7.05,2022-08-17 13:48:18.593750
1279,-7.97,2022-08-17 13:48:18.609375
1280,-8.78,2022-08-17 13:48:18.625000
1281,-9.53,2022-08-17 13:48:18.640625
1282,-10.28,2022-08-17 13:48:18.656250
1283,-11.09,2022-08-17 13:48:18.671875
1284,-11.98,2022-08-17 13:48:18.687500
1285,-12.87,2022-08-17 13:48:18.703125
1286,-13.56,2022-08-17 13:48:18.718750
1287,-13.71,2022-08-17 13:48:18.734375
1288,-13.0,2022-08-17 13:48:18.750000
1289,-11.21,2022-08-17 13:48:18.765625
1290,-8.3,2022-08-17 13:48:18.781250
1291,-4.48,2022-08-17 13:48:18.796875
1292,-0.11,2022-08-17 13:48:18.812500
1293,4.42,2022-08-17 13:48:18.828125
1294,8.72,2022-08-17 13:48:18.843750
1295,12.47,2022-08-17 13:48:18.859375
1296,15.4,2022-08-17 13:48:18.875000
1297,17.35,2022-08-17 13:48:18.890625
1298,18.21,2022-08-17 13:48:18.906250
1299,18.03,2022-08-17 13:48:18.921875
1300,16.94,2022-08-17 13:48:18.937500
1301,15.18,2022-08-17 13:48:18.953125
1302,13.03,2022-08-17 13:48:18.968750
1303,10.74,2022-08-17 13:48:18.984375
1304,8.6,2022-08-17 13:48:19.000000
1305,6.84,2022-08-17 13:48:19.015625
1306,5.64,2022-08-17 13:48:19.031250
1307,5.06,2022-08-17 13:48:19.046875
1308,5.02,2022-08-17 13:48:19.062500
1309,5.32,2022-08-17 13:48:19.078125
1310,5.72,2022-08-17 13:48:19.093750
1311,6.07,2022-08-17 13:48:19.109375
1312,6.37,2022-08-17 13:48:19.125000
1313,6.75,2022-08-17 13:48:19.140625
1314,7.33,2022-08-17 13:48:19.156250
1315,8.17,2022-08-17 13:48:19.171875
1316,9.15,2022-08-17 13:48:19.187500
1317,10.06,2022-08-17 13:48:19.203125
1318,10.62,2022-08-17 13:48:19.218750
1319,10.63,2022-08-17 13:48:19.234375
1320,10.01,2022-08-17 13:48:19.250000
1321,8.8,2022-08-17 13:48:19.265625
1322,7.2,2022-08-17 13:48:19.281250
1323,5.52,2022-08-17 13:48:19.296875
1324,4.18,2022-08-17 13:48:19.312500
1325,3.53,2022-08-17 13:48:19.328125
1326,3.7,2022-08-17 13:48:19.343750
1327,4.45,2022-08-17 13:48:19.359375
1328,5.09,2022-08-17 13:48:19.375000
1329,4.71,2022-08-17 13:48:19.390625
1330,2.49,2022-08-17 13:48:19.406250
1331,-1.92,2022-08-17 13:48:19.421875
1332,-8.18,2022-08-17 13:48:19.437500
1333,-15.26,2022-08-17 13:48:19.453125
1334,-21.79,2022-08-17 13:48:19.468750
1335,-26.5,2022-08-17 13:48:19.484375
1336,-28.58,2022-08-17 13:48:19.500000
1337,-27.85,2022-08-17 13:48:19.515625
1338,-24.73,2022-08-17 13:48:19.531250
1339,-19.92,2022-08-17 13:48:19.546875
1340,-14.18,2022-08-17 13:48:19.562500
1341,-8.08,2022-08-17 13:48:19.578125
1342,-1.93,2022-08-17 13:48:19.593750
1343,4.16,2022-08-17 13:48:19.609375
1344,10.18,2022-08-17 13:48:19.625000
1345,16.05,2022-08-17 13:48:19.640625
1346,21.5,2022-08-17 13:48:19.656250
1347,25.98,2022-08-17 13:48:19.671875
1348,28.66,2022-08-17 13:48:19.687500
1349,28.63,2022-08-17 13:48:19.703125
1350,25.14,2022-08-17 13:48:19.718750
1351,17.87,2022-08-17 13:48:19.734375
1352,7.25,2022-08-17 13:48:19.750000
1353,-5.56,2022-08-17 13:48:19.765625
1354,-18.85,2022-08-17 13:48:19.781250
1355,-30.74,2022-08-17 13:48:19.796875
1356,-39.67,2022-08-17 13:48:19.812500
1357,-44.79,2022-08-17 13:48:19.828125
1358,-46.05,2022-08-17 13:48:19.843750
1359,-44.11,2022-08-17 13:48:19.859375
1360,-40.05,2022-08-17 13:48:19.875000
1361,-34.92,2022-08-17 13:48:19.890625
1362,-29.56,2022-08-17 13:48:19.906250
1363,-24.43,2022-08-17 13:48:19.921875
1364,-19.77,2022-08-17 13:48:19.937500
1365,-15.66,2022-08-17 13:48:19.953125
1366,-12.14,2022-08-17 13:48:19.968750
1367,-9.25,2022-08-17 13:48:19.984375
1368,-6.95,2022-08-17 13:48:20.000000
1369,-5.11,2022-08-17 13:48:20.015625
1370,-3.51,2022-08-17 13:48:20.031250
1371,-1.94,2022-08-17 13:48:20.046875
1372,-0.28,2022-08-17 13:48:20.062500
1373,1.41,2022-08-17 13:48:20.078125
1374,2.98,2022-08-17 13:48:20.093750
1375,4.23,2022-08-17 13:48:20.109375
1376,5.04,2022-08-17 13:48:20.125000
1377,5.37,2022-08-17 13:48:20.140625
1378,5.26,2022-08-17 13:48:20.156250
1379,4.77,2022-08-17 13:48:20.171875
1380,3.9,2022-08-17 13:48:20.187500
1381,2.62,2022-08-17 13:48:20.203125
1382,0.88,2022-08-17 13:48:20.218750
1383,-1.25,2022-08-17 13:48:20.234375
1384,-3.58,2022-08-17 13:48:20.250000
1385,-5.72,2022-08-17 13:48:20.265625
1386,-7.14,2022-08-17 13:48:20.281250
1387,-7.36,2022-08-17 13:48:20.296875
1388,-6.07,2022-08-17 13:48:20.312500
1389,-3.27,2022-08-17 13:48:20.328125
1390,0.69,2022-08-17 13:48:20.343750
1391,5.23,2022-08-17 13:48:20.359375
1392,9.68,2022-08-17 13:48:20.375000
1393,13.47,2022-08-17 13:48:20.390625
1394,16.27,2022-08-17 13:48:20.406250
1395,18.01,2022-08-17 13:48:20.421875
1396,18.77,2022-08-17 13:48:20.437500
1397,18.73,2022-08-17 13:48:20.453125
1398,18.03,2022-08-17 13:48:20.468750
1399,16.78,2022-08-17 13:48:20.484375
1400,15.03,2022-08-17 13:48:20.500000
1401,12.89,2022-08-17 13:48:20.515625
1402,10.45,2022-08-17 13:48:20.531250
1403,7.87,2022-08-17 13:48:20.546875
1404,5.36,2022-08-17 13:48:20.562500
1405,3.11,2022-08-17 13:48:20.578125
1406,1.29,2022-08-17 13:48:20.593750
1407,0.03,2022-08-17 13:48:20.609375
1408,-0.68,2022-08-17 13:48:20.625000
1409,-0.91,2022-08-17 13:48:20.640625
1410,-0.81,2022-08-17 13:48:20.656250
1411,-0.55,2022-08-17 13:48:20.671875
1412,-0.25,2022-08-17 13:48:20.687500
1413,0.0,2022-08-17 13:48:20.703125
1414,0.18,2022-08-17 13:48:20.718750
1415,0.28,2022-08-17 13:48:20.734375
1416,0.33,2022-08-17 13:48:20.750000
1417,0.32,2022-08-17 13:48:20.765625
1418,0.27,2022-08-17 13:48:20.781250
1419,0.18,2022-08-17 13:48:20.796875
1420,0.04,2022-08-17 13:48:20.812500
1421,-0.16,2022-08-17 13:48:20.828125
1422,-0.46,2022-08-17 13:48:20.843750
1423,-0.88,2022-08-17 13:48:20.859375
1424,-1.48,2022-08-17 13:48:20.875000
1425,-2.27,2022-08-17 13:48:20.890625
1426,-3.25,2022-08-17 13:48:20.906250
1427,-4.39,2022-08-17 13:48:20.921875
1428,-5.67,2022-08-17 13:48:20.937500
1429,-7.05,2022-08-17 13:48:20.953125
1430,-8.47,2022-08-17 13:48:20.968750
1431,-9.79,2022-08-17 13:48:20.984375
1432,-10.81,2022-08-17 13:48:21.000000
1433,-11.24,2022-08-17 13:48:21.015625
1434,-10.74,2022-08-17 13:48:21.031250
1435,-9.05,2022-08-17 13:48:21.046875
1436,-6.07,2022-08-17 13:48:21.062500
1437,-1.95,2022-08-17 13:48:21.078125
1438,2.91,2022-08-17 13:48:21.093750
1439,7.95,2022-08-17 13:48:21.109375
1440,12.52,2022-08-17 13:48:21.125000
1441,16.06,2022-08-17 13:48:21.140625
1442,18.19,2022-08-17 13:48:21.156250
1443,18.78,2022-08-17 13:48:21.171875
1444,17.92,2022-08-17 13:48:21.187500
1445,15.94,2022-08-17 13:48:21.203125
1446,13.3,2022-08-17 13:48:21.218750
1447,10.46,2022-08-17 13:48:21.234375
1448,7.77,2022-08-17 13:48:21.250000
1449,5.38,2022-08-17 13:48:21.265625
1450,3.25,2022-08-17 13:48:21.281250
1451,1.27,2022-08-17 13:48:21.296875
1452,-0.65,2022-08-17 13:48:21.312500
1453,-2.48,2022-08-17 13:48:21.328125
1454,-4.09,2022-08-17 13:48:21.343750
1455,-5.34,2022-08-17 13:48:21.359375
1456,-6.15,2022-08-17 13:48:21.375000
1457,-6.55,2022-08-17 13:48:21.390625
1458,-6.65,2022-08-17 13:48:21.406250
1459,-6.62,2022-08-17 13:48:21.421875
1460,-6.57,2022-08-17 13:48:21.437500
1461,-6.57,2022-08-17 13:48:21.453125
1462,-6.64,2022-08-17 13:48:21.468750
1463,-6.8,2022-08-17 13:48:21.484375
1464,-7.04,2022-08-17 13:48:21.500000
1465,-7.36,2022-08-17 13:48:21.515625
1466,-7.75,2022-08-17 13:48:21.531250
1467,-8.14,2022-08-17 13:48:21.546875
1468,-8.44,2022-08-17 13:48:21.562500
1469,-8.55,2022-08-17 13:48:21.578125
1470,-8.41,2022-08-17 13:48:21.593750
1471,-8.1,2022-08-17 13:48:21.609375
1472,-7.81,2022-08-17 13:48:21.625000
1473,-7.78,2022-08-17 13:48:21.640625
1474,-8.23,2022-08-17 13:48:21.656250
1475,-9.2,2022-08-17 13:48:21.671875
1476,-10.47,2022-08-17 13:48:21.687500
1477,-11.66,2022-08-17 13:48:21.703125
1478,-12.28,2022-08-17 13:48:21.718750
1479,-11.95,2022-08-17 13:48:21.734375
1480,-10.44,2022-08-17 13:48:21.750000
1481,-7.71,2022-08-17 13:48:21.765625
1482,-3.88,2022-08-17 13:48:21.781250
1483,0.77,2022-08-17 13:48:21.796875
1484,5.83,2022-08-17 13:48:21.812500
1485,10.78,2022-08-17 13:48:21.828125
1486,15.06,2022-08-17 13:48:21.843750
1487,18.17,2022-08-17 13:48:21.859375
1488,19.85,2022-08-17 13:48:21.875000
1489,20.06,2022-08-17 13:48:21.890625
1490,18.96,2022-08-17 13:48:21.906250
1491,16.83,2022-08-17 13:48:21.921875
1492,13.94,2022-08-17 13:48:21.937500
1493,10.55,2022-08-17 13:48:21.953125
1494,6.87,2022-08-17 13:48:21.968750
1495,3.14,2022-08-17 13:48:21.984375
1496,-0.36,2022-08-17 13:48:22.000000
1497,-3.37,2022-08-17 13:48:22.015625
1498,-5.68,2022-08-17 13:48:22.031250
1499,-7.19,2022-08-17 13:48:22.046875
1500,-7.93,2022-08-17 13:48:22.062500
1501,-7.98,2022-08-17 13:48:22.078125
1502,-7.49,2022-08-17 13:48:22.093750
1503,-6.6,2022-08-17 13:48:22.109375
1504,-5.44,2022-08-17 13:48:22.125000
1505,-4.1,2022-08-17 13:48:22.140625
1506,-2.68,2022-08-17 13:48:22.156250
1507,-1.31,2022-08-17 13:48:22.171875
1508,-0.14,2022-08-17 13:48:22.187500
1509,0.68,2022-08-17 13:48:22.203125
1510,1.05,2022-08-17 13:48:22.218750
1511,0.92,2022-08-17 13:48:22.234375
1512,0.34,2022-08-17 13:48:22.250000
1513,-0.6,2022-08-17 13:48:22.265625
1514,-1.75,2022-08-17 13:48:22.281250
1515,-3.03,2022-08-17 13:48:22.296875
1516,-4.33,2022-08-17 13:48:22.312500
1517,-5.6,2022-08-17 13:48:22.328125
1518,-6.76,2022-08-17 13:48:22.343750
1519,-7.8,2022-08-17 13:48:22.359375
1520,-8.75,2022-08-17 13:48:22.375000
1521,-9.73,2022-08-17 13:48:22.390625
1522,-10.92,2022-08-17 13:48:22.406250
1523,-12.4,2022-08-17 13:48:22.421875
1524,-14.12,2022-08-17 13:48:22.437500
1525,-15.81,2022-08-17 13:48:22.453125
1526,-17.02,2022-08-17 13:48:22.468750
1527,-17.24,2022-08-17 13:48:22.484375
1528,-16.09,2022-08-17 13:48:22.500000
1529,-13.42,2022-08-17 13:48:22.515625
1530,-9.36,2022-08-17 13:48:22.531250
1531,-4.32,2022-08-17 13:48:22.546875
1532,1.14,2022-08-17 13:48:22.562500
1533,6.36,2022-08-17 13:48:22.578125
1534,10.77,2022-08-17 13:48:22.593750
1535,13.93,2022-08-17 13:48:22.609375
1536,15.64,2022-08-17 13:48:22.625000
1537,15.95,2022-08-17 13:48:22.640625
1538,15.11,2022-08-17 13:48:22.656250
1539,13.49,2022-08-17 13:48:22.671875
1540,11.46,2022-08-17 13:48:22.687500
1541,9.31,2022-08-17 13:48:22.703125
1542,7.22,2022-08-17 13:48:22.718750
1543,5.28,2022-08-17 13:48:22.734375
1544,3.5,2022-08-17 13:48:22.750000
1545,1.9,2022-08-17 13:48:22.765625
1546,0.49,2022-08-17 13:48:22.781250
1547,-0.69,2022-08-17 13:48:22.796875
1548,-1.6,2022-08-17 13:48:22.812500
1549,-2.2,2022-08-17 13:48:22.828125
1550,-2.45,2022-08-17 13:48:22.843750
1551,-2.3,2022-08-17 13:48:22.859375
1552,-1.79,2022-08-17 13:48:22.875000
1553,-0.98,2022-08-17 13:48:22.890625
1554,-0.04,2022-08-17 13:48:22.906250
1555,0.82,2022-08-17 13:48:22.921875
1556,1.35,2022-08-17 13:48:22.937500
1557,1.34,2022-08-17 13:48:22.953125
1558,0.72,2022-08-17 13:48:22.968750
1559,-0.4,2022-08-17 13:48:22.984375
1560,-1.77,2022-08-17 13:48:23.000000
1561,-3.03,2022-08-17 13:48:23.015625
1562,-3.85,2022-08-17 13:48:23.031250
1563,-4.01,2022-08-17 13:48:23.046875
1564,-3.53,2022-08-17 13:48:23.062500
1565,-2.58,2022-08-17 13:48:23.078125
1566,-1.44,2022-08-17 13:48:23.093750
1567,-0.39,2022-08-17 13:48:23.109375
1568,0.35,2022-08-17 13:48:23.125000
1569,0.67,2022-08-17 13:48:23.140625
1570,0.52,2022-08-17 13:48:23.156250
1571,-0.1,2022-08-17 13:48:23.171875
1572,-1.11,2022-08-17 13:48:23.187500
1573,-2.38,2022-08-17 13:48:23.203125
1574,-3.7,2022-08-17 13:48:23.218750
1575,-4.9,2022-08-17 13:48:23.234375
1576,-5.86,2022-08-17 13:48:23.250000
1577,-6.56,2022-08-17 13:48:23.265625
1578,-7.04,2022-08-17 13:48:23.281250
1579,-7.34,2022-08-17 13:48:23.296875
1580,-7.5,2022-08-17 13:48:23.312500
1581,-7.53,2022-08-17 13:48:23.328125
1582,-7.41,2022-08-17 13:48:23.343750
1583,-7.12,2022-08-17 13:48:23.359375
1584,-6.53,2022-08-17 13:48:23.375000
1585,-5.44,2022-08-17 13:48:23.390625
1586,-3.63,2022-08-17 13:48:23.406250
1587,-0.98,2022-08-17 13:48:23.421875
1588,2.35,2022-08-17 13:48:23.437500
1589,5.91,2022-08-17 13:48:23.453125
1590,9.07,2022-08-17 13:48:23.468750
1591,11.34,2022-08-17 13:48:23.484375
1592,12.53,2022-08-17 13:48:23.500000
1593,12.87,2022-08-17 13:48:23.515625
1594,12.86,2022-08-17 13:48:23.531250
1595,12.96,2022-08-17 13:48:23.546875
1596,13.4,2022-08-17 13:48:23.562500
1597,14.04,2022-08-17 13:48:23.578125
1598,14.57,2022-08-17 13:48:23.593750
1599,14.73,2022-08-17 13:48:23.609375
1600,14.41,2022-08-17 13:48:23.625000
1601,13.7,2022-08-17 13:48:23.640625
1602,12.62,2022-08-17 13:48:23.656250
1603,10.99,2022-08-17 13:48:23.671875
1604,8.44,2022-08-17 13:48:23.687500
1605,4.64,2022-08-17 13:48:23.703125
1606,-0.37,2022-08-17 13:48:23.718750
1607,-5.93,2022-08-17 13:48:23.734375
1608,-10.9,2022-08-17 13:48:23.750000
1609,-13.99,2022-08-17 13:48:23.765625
1610,-14.35,2022-08-17 13:48:23.781250
1611,-11.92,2022-08-17 13:48:23.796875
1612,-7.47,2022-08-17 13:48:23.812500
1613,-2.28,2022-08-17 13:48:23.828125
1614,2.39,2022-08-17 13:48:23.843750
1615,5.75,2022-08-17 13:48:23.859375
1616,7.65,2022-08-17 13:48:23.875000
1617,8.41,2022-08-17 13:48:23.890625
1618,8.51,2022-08-17 13:48:23.906250
1619,8.33,2022-08-17 13:48:23.921875
1620,7.98,2022-08-17 13:48:23.937500
1621,7.37,2022-08-17 13:48:23.953125
1622,6.31,2022-08-17 13:48:23.968750
1623,4.69,2022-08-17 13:48:23.984375
1624,2.49,2022-08-17 13:48:24.000000
1625,-0.14,2022-08-17 13:48:24.015625
1626,-2.98,2022-08-17 13:48:24.031250
1627,-5.79,2022-08-17 13:48:24.046875
1628,-8.38,2022-08-17 13:48:24.062500
1629,-10.63,2022-08-17 13:48:24.078125
1630,-12.39,2022-08-17 13:48:24.093750
1631,-13.5,2022-08-17 13:48:24.109375
1632,-13.75,2022-08-17 13:48:24.125000
1633,-12.87,2022-08-17 13:48:24.140625
1634,-10.63,2022-08-17 13:48:24.156250
1635,-6.95,2022-08-17 13:48:24.171875
1636,-2.01,2022-08-17 13:48:24.187500
1637,3.78,2022-08-17 13:48:24.203125
1638,9.75,2022-08-17 13:48:24.218750
1639,15.13,2022-08-17 13:48:24.234375
1640,19.22,2022-08-17 13:48:24.250000
1641,21.53,2022-08-17 13:48:24.265625
1642,21.89,2022-08-17 13:48:24.281250
1643,20.47,2022-08-17 13:48:24.296875
1644,17.72,2022-08-17 13:48:24.312500
1645,14.22,2022-08-17 13:48:24.328125
1646,10.51,2022-08-17 13:48:24.343750
1647,6.98,2022-08-17 13:48:24.359375
1648,3.83,2022-08-17 13:48:24.375000
1649,1.06,2022-08-17 13:48:24.390625
1650,-1.44,2022-08-17 13:48:24.406250
1651,-3.79,2022-08-17 13:48:24.421875
1652,-6.1,2022-08-17 13:48:24.437500
1653,-8.33,2022-08-17 13:48:24.453125
1654,-10.35,2022-08-17 13:48:24.468750
1655,-11.92,2022-08-17 13:48:24.484375
1656,-12.8,2022-08-17 13:48:24.500000
1657,-12.82,2022-08-17 13:48:24.515625
1658,-12.03,2022-08-17 13:48:24.531250
1659,-10.72,2022-08-17 13:48:24.546875
1660,-9.32,2022-08-17 13:48:24.562500
1661,-8.29,2022-08-17 13:48:24.578125
1662,-7.93,2022-08-17 13:48:24.593750
1663,-8.33,2022-08-17 13:48:24.609375
1664,-9.32,2022-08-17 13:48:24.625000
1665,-10.66,2022-08-17 13:48:24.640625
1666,-12.09,2022-08-17 13:48:24.656250
1667,-13.44,2022-08-17 13:48:24.671875
1668,-14.64,2022-08-17 13:48:24.687500
1669,-15.7,2022-08-17 13:48:24.703125
1670,-16.65,2022-08-17 13:48:24.718750
1671,-17.55,2022-08-17 13:48:24.734375
1672,-18.41,2022-08-17 13:48:24.750000
1673,-19.12,2022-08-17 13:48:24.765625
1674,-19.4,2022-08-17 13:48:24.781250
1675,-18.9,2022-08-17 13:48:24.796875
1676,-17.22,2022-08-17 13:48:24.812500
1677,-14.15,2022-08-17 13:48:24.828125
1678,-9.77,2022-08-17 13:48:24.843750
1679,-4.46,2022-08-17 13:48:24.859375
1680,1.21,2022-08-17 13:48:24.875000
1681,6.67,2022-08-17 13:48:24.890625
1682,11.52,2022-08-17 13:48:24.906250
1683,15.61,2022-08-17 13:48:24.921875
1684,18.96,2022-08-17 13:48:24.937500
1685,21.64,2022-08-17 13:48:24.953125
1686,23.61,2022-08-17 13:48:24.968750
1687,24.66,2022-08-17 13:48:24.984375
1688,24.49,2022-08-17 13:48:25.000000
1689,22.9,2022-08-17 13:48:25.015625
1690,19.93,2022-08-17 13:48:25.031250
1691,16.0,2022-08-17 13:48:25.046875
1692,11.79,2022-08-17 13:48:25.062500
1693,8.06,2022-08-17 13:48:25.078125
1694,5.34,2022-08-17 13:48:25.093750
1695,3.84,2022-08-17 13:48:25.109375
1696,3.36,2022-08-17 13:48:25.125000
1697,3.49,2022-08-17 13:48:25.140625
1698,3.82,2022-08-17 13:48:25.156250
1699,4.09,2022-08-17 13:48:25.171875
1700,4.18,2022-08-17 13:48:25.187500
1701,4.13,2022-08-17 13:48:25.203125
1702,4.0,2022-08-17 13:48:25.218750
1703,3.78,2022-08-17 13:48:25.234375
1704,3.37,2022-08-17 13:48:25.250000
1705,2.58,2022-08-17 13:48:25.265625
1706,1.27,2022-08-17 13:48:25.281250
1707,-0.63,2022-08-17 13:48:25.296875
1708,-2.97,2022-08-17 13:48:25.312500
1709,-5.46,2022-08-17 13:48:25.328125
1710,-7.77,2022-08-17 13:48:25.343750
1711,-9.66,2022-08-17 13:48:25.359375
1712,-11.12,2022-08-17 13:48:25.375000
1713,-12.37,2022-08-17 13:48:25.390625
1714,-13.7,2022-08-17 13:48:25.406250
1715,-15.31,2022-08-17 13:48:25.421875
1716,-17.16,2022-08-17 13:48:25.437500
1717,-18.97,2022-08-17 13:48:25.453125
1718,-20.32,2022-08-17 13:48:25.468750
1719,-20.86,2022-08-17 13:48:25.484375
1720,-20.37,2022-08-17 13:48:25.500000
1721,-18.83,2022-08-17 13:48:25.515625
1722,-16.29,2022-08-17 13:48:25.531250
1723,-12.87,2022-08-17 13:48:25.546875
1724,-8.73,2022-08-17 13:48:25.562500
1725,-4.12,2022-08-17 13:48:25.578125
1726,0.61,2022-08-17 13:48:25.593750
1727,5.03,2022-08-17 13:48:25.609375
1728,8.69,2022-08-17 13:48:25.625000
1729,11.2,2022-08-17 13:48:25.640625
1730,12.34,2022-08-17 13:48:25.656250
1731,12.02,2022-08-17 13:48:25.671875
1732,10.38,2022-08-17 13:48:25.687500
1733,7.74,2022-08-17 13:48:25.703125
1734,4.57,2022-08-17 13:48:25.718750
1735,1.42,2022-08-17 13:48:25.734375
1736,-1.23,2022-08-17 13:48:25.750000
1737,-3.07,2022-08-17 13:48:25.765625
1738,-4.03,2022-08-17 13:48:25.781250
1739,-4.28,2022-08-17 13:48:25.796875
1740,-4.12,2022-08-17 13:48:25.812500
1741,-3.87,2022-08-17 13:48:25.828125
1742,-3.72,2022-08-17 13:48:25.843750
1743,-3.59,2022-08-17 13:48:25.859375
1744,-3.18,2022-08-17 13:48:25.875000
1745,-2.02,2022-08-17 13:48:25.890625
1746,0.31,2022-08-17 13:48:25.906250
1747,4.08,2022-08-17 13:48:25.921875
1748,9.25,2022-08-17 13:48:25.937500
1749,15.52,2022-08-17 13:48:25.953125
1750,22.36,2022-08-17 13:48:25.968750
1751,29.04,2022-08-17 13:48:25.984375
1752,34.71,2022-08-17 13:48:26.000000
1753,38.43,2022-08-17 13:48:26.015625
1754,39.32,2022-08-17 13:48:26.031250
1755,36.84,2022-08-17 13:48:26.046875
1756,31.03,2022-08-17 13:48:26.062500
1757,22.6,2022-08-17 13:48:26.078125
1758,12.81,2022-08-17 13:48:26.093750
1759,3.11,2022-08-17 13:48:26.109375
1760,-5.27,2022-08-17 13:48:26.125000
1761,-11.61,2022-08-17 13:48:26.140625
1762,-15.72,2022-08-17 13:48:26.156250
1763,-17.78,2022-08-17 13:48:26.171875
1764,-18.08,2022-08-17 13:48:26.187500
1765,-16.86,2022-08-17 13:48:26.203125
1766,-14.29,2022-08-17 13:48:26.218750
1767,-10.6,2022-08-17 13:48:26.234375
1768,-6.17,2022-08-17 13:48:26.250000
1769,-1.44,2022-08-17 13:48:26.265625
1770,3.22,2022-08-17 13:48:26.281250
1771,7.74,2022-08-17 13:48:26.296875
1772,12.39,2022-08-17 13:48:26.312500
1773,17.74,2022-08-17 13:48:26.328125
1774,24.47,2022-08-17 13:48:26.343750
1775,33.1,2022-08-17 13:48:26.359375
1776,43.82,2022-08-17 13:48:26.375000
1777,56.41,2022-08-17 13:48:26.390625
1778,70.08,2022-08-17 13:48:26.406250
1779,83.62,2022-08-17 13:48:26.421875
1780,95.63,2022-08-17 13:48:26.437500
1781,105.0,2022-08-17 13:48:26.453125
1782,111.33,2022-08-17 13:48:26.468750
1783,115.2,2022-08-17 13:48:26.484375
1784,117.89,2022-08-17 13:48:26.500000
1785,120.79,2022-08-17 13:48:26.515625
1786,124.68,2022-08-17 13:48:26.531250
1787,129.36,2022-08-17 13:48:26.546875
1788,133.87,2022-08-17 13:48:26.562500
1789,137.06,2022-08-17 13:48:26.578125
1790,138.13,2022-08-17 13:48:26.593750
1791,136.88,2022-08-17 13:48:26.609375
1792,133.29,2022-08-17 13:48:26.625000
1793,126.94,2022-08-17 13:48:26.640625
1794,116.76,2022-08-17 13:48:26.656250
1795,101.56,2022-08-17 13:48:26.671875
1796,80.98,2022-08-17 13:48:26.687500
1797,56.11,2022-08-17 13:48:26.703125
1798,29.21,2022-08-17 13:48:26.718750
1799,2.49,2022-08-17 13:48:26.734375
1800,-23.17,2022-08-17 13:48:26.750000
1801,-48.49,2022-08-17 13:48:26.765625
1802,-74.63,2022-08-17 13:48:26.781250
1803,-101.35,2022-08-17 13:48:26.796875
1804,-125.9,2022-08-17 13:48:26.812500
1805,-143.59,2022-08-17 13:48:26.828125
1806,-150.01,2022-08-17 13:48:26.843750
1807,-143.44,2022-08-17 13:48:26.859375
1808,-126.11,2022-08-17 13:48:26.875000
1809,-103.12,2022-08-17 13:48:26.890625
1810,-80.17,2022-08-17 13:48:26.906250
1811,-61.22,2022-08-17 13:48:26.921875
1812,-47.71,2022-08-17 13:48:26.937500
1813,-39.41,2022-08-17 13:48:26.953125
1814,-35.96,2022-08-17 13:48:26.968750
1815,-37.69,2022-08-17 13:48:26.984375
1816,-45.15,2022-08-17 13:48:27.000000
1817,-57.7,2022-08-17 13:48:27.015625
1818,-72.71,2022-08-17 13:48:27.031250
1819,-86.03,2022-08-17 13:48:27.046875
1820,-93.58,2022-08-17 13:48:27.062500
1821,-93.25,2022-08-17 13:48:27.078125
1822,-85.72,2022-08-17 13:48:27.093750
1823,-73.99,2022-08-17 13:48:27.109375
1824,-61.87,2022-08-17 13:48:27.125000
1825,-52.42,2022-08-17 13:48:27.140625
1826,-47.08,2022-08-17 13:48:27.156250
1827,-45.77,2022-08-17 13:48:27.171875
1828,-47.41,2022-08-17 13:48:27.187500
1829,-50.61,2022-08-17 13:48:27.203125
1830,-54.09,2022-08-17 13:48:27.218750
1831,-56.86,2022-08-17 13:48:27.234375
1832,-58.15,2022-08-17 13:48:27.250000
1833,-57.51,2022-08-17 13:48:27.265625
1834,-54.86,2022-08-17 13:48:27.281250
1835,-50.51,2022-08-17 13:48:27.296875
1836,-45.06,2022-08-17 13:48:27.312500
1837,-39.21,2022-08-17 13:48:27.328125
1838,-33.56,2022-08-17 13:48:27.343750
1839,-28.44,2022-08-17 13:48:27.359375
1840,-24.02,2022-08-17 13:48:27.375000
1841,-20.31,2022-08-17 13:48:27.390625
1842,-17.31,2022-08-17 13:48:27.406250
1843,-14.96,2022-08-17 13:48:27.421875
1844,-13.18,2022-08-17 13:48:27.437500
1845,-11.88,2022-08-17 13:48:27.453125
1846,-10.98,2022-08-17 13:48:27.468750
1847,-10.53,2022-08-17 13:48:27.484375
1848,-10.65,2022-08-17 13:48:27.500000
1849,-11.5,2022-08-17 13:48:27.515625
1850,-13.01,2022-08-17 13:48:27.531250
1851,-14.84,2022-08-17 13:48:27.546875
1852,-16.25,2022-08-17 13:48:27.562500
1853,-16.41,2022-08-17 13:48:27.578125
1854,-14.72,2022-08-17 13:48:27.593750
1855,-11.03,2022-08-17 13:48:27.609375
1856,-5.79,2022-08-17 13:48:27.625000
1857,0.22,2022-08-17 13:48:27.640625
1858,6.25,2022-08-17 13:48:27.656250
1859,11.87,2022-08-17 13:48:27.671875
1860,16.97,2022-08-17 13:48:27.687500
1861,21.62,2022-08-17 13:48:27.703125
1862,25.76,2022-08-17 13:48:27.718750
1863,29.07,2022-08-17 13:48:27.734375
1864,31.03,2022-08-17 13:48:27.750000
1865,31.18,2022-08-17 13:48:27.765625
1866,29.3,2022-08-17 13:48:27.781250
1867,25.53,2022-08-17 13:48:27.796875
1868,20.21,2022-08-17 13:48:27.812500
1869,13.85,2022-08-17 13:48:27.828125
1870,6.93,2022-08-17 13:48:27.843750
1871,-0.04,2022-08-17 13:48:27.859375
1872,-6.55,2022-08-17 13:48:27.875000
1873,-12.11,2022-08-17 13:48:27.890625
1874,-16.34,2022-08-17 13:48:27.906250
1875,-19.08,2022-08-17 13:48:27.921875
1876,-20.34,2022-08-17 13:48:27.937500
1877,-20.28,2022-08-17 13:48:27.953125
1878,-18.98,2022-08-17 13:48:27.968750
1879,-16.46,2022-08-17 13:48:27.984375
1880,-12.7,2022-08-17 13:48:28.000000
1881,-7.85,2022-08-17 13:48:28.015625
1882,-2.27,2022-08-17 13:48:28.031250
1883,3.4,2022-08-17 13:48:28.046875
1884,8.37,2022-08-17 13:48:28.062500
1885,11.93,2022-08-17 13:48:28.078125
1886,13.63,2022-08-17 13:48:28.093750
1887,13.39,2022-08-17 13:48:28.109375
1888,11.42,2022-08-17 13:48:28.125000
1889,8.1,2022-08-17 13:48:28.140625
1890,3.91,2022-08-17 13:48:28.156250
1891,-0.74,2022-08-17 13:48:28.171875
1892,-5.46,2022-08-17 13:48:28.187500
1893,-9.95,2022-08-17 13:48:28.203125
1894,-14.01,2022-08-17 13:48:28.218750
1895,-17.52,2022-08-17 13:48:28.234375
1896,-20.36,2022-08-17 13:48:28.250000
1897,-22.41,2022-08-17 13:48:28.265625
1898,-23.38,2022-08-17 13:48:28.281250
1899,-22.9,2022-08-17 13:48:28.296875
1900,-20.59,2022-08-17 13:48:28.312500
1901,-16.25,2022-08-17 13:48:28.328125
1902,-9.98,2022-08-17 13:48:28.343750
1903,-2.26,2022-08-17 13:48:28.359375
1904,6.18,2022-08-17 13:48:28.375000
1905,14.53,2022-08-17 13:48:28.390625
1906,22.07,2022-08-17 13:48:28.406250
1907,28.22,2022-08-17 13:48:28.421875
1908,32.56,2022-08-17 13:48:28.437500
1909,34.72,2022-08-17 13:48:28.453125
1910,34.41,2022-08-17 13:48:28.468750
1911,31.49,2022-08-17 13:48:28.484375
1912,26.17,2022-08-17 13:48:28.500000
1913,19.09,2022-08-17 13:48:28.515625
1914,11.3,2022-08-17 13:48:28.531250
1915,4.08,2022-08-17 13:48:28.546875
1916,-1.43,2022-08-17 13:48:28.562500
1917,-4.55,2022-08-17 13:48:28.578125
1918,-5.29,2022-08-17 13:48:28.593750
1919,-4.24,2022-08-17 13:48:28.609375
1920,-2.36,2022-08-17 13:48:28.625000
1921,-0.56,2022-08-17 13:48:28.640625
1922,0.57,2022-08-17 13:48:28.656250
1923,0.92,2022-08-17 13:48:28.671875
1924,0.74,2022-08-17 13:48:28.687500
1925,0.41,2022-08-17 13:48:28.703125
1926,0.23,2022-08-17 13:48:28.718750
1927,0.3,2022-08-17 13:48:28.734375
1928,0.62,2022-08-17 13:48:28.750000
1929,1.1,2022-08-17 13:48:28.765625
1930,1.58,2022-08-17 13:48:28.781250
1931,1.74,2022-08-17 13:48:28.796875
1932,1.04,2022-08-17 13:48:28.812500
1933,-1.14,2022-08-17 13:48:28.828125
1934,-5.17,2022-08-17 13:48:28.843750
1935,-10.84,2022-08-17 13:48:28.859375
1936,-17.26,2022-08-17 13:48:28.875000
1937,-23.11,2022-08-17 13:48:28.890625
1938,-27.2,2022-08-17 13:48:28.906250
1939,-28.95,2022-08-17 13:48:28.921875
1940,-28.64,2022-08-17 13:48:28.937500
1941,-27.16,2022-08-17 13:48:28.953125
1942,-25.42,2022-08-17 13:48:28.968750
1943,-23.85,2022-08-17 13:48:28.984375
1944,-22.17,2022-08-17 13:48:29.000000
1945,-19.55,2022-08-17 13:48:29.015625
1946,-15.19,2022-08-17 13:48:29.031250
1947,-8.75,2022-08-17 13:48:29.046875
1948,-0.61,2022-08-17 13:48:29.062500
1949,8.18,2022-08-17 13:48:29.078125
1950,16.19,2022-08-17 13:48:29.093750
1951,21.98,2022-08-17 13:48:29.109375
1952,24.44,2022-08-17 13:48:29.125000
1953,23.13,2022-08-17 13:48:29.140625
1954,18.39,2022-08-17 13:48:29.156250
1955,11.35,2022-08-17 13:48:29.171875
1956,3.66,2022-08-17 13:48:29.187500
1957,-2.89,2022-08-17 13:48:29.203125
1958,-6.86,2022-08-17 13:48:29.218750
1959,-7.43,2022-08-17 13:48:29.234375
1960,-4.61,2022-08-17 13:48:29.250000
1961,0.96,2022-08-17 13:48:29.265625
1962,8.32,2022-08-17 13:48:29.281250
1963,16.47,2022-08-17 13:48:29.296875
1964,24.63,2022-08-17 13:48:29.312500
1965,32.25,2022-08-17 13:48:29.328125
1966,39.12,2022-08-17 13:48:29.343750
1967,45.21,2022-08-17 13:48:29.359375
1968,50.6,2022-08-17 13:48:29.375000
1969,55.29,2022-08-17 13:48:29.390625
1970,58.96,2022-08-17 13:48:29.406250
1971,60.79,2022-08-17 13:48:29.421875
1972,59.66,2022-08-17 13:48:29.437500
1973,54.54,2022-08-17 13:48:29.453125
1974,45.02,2022-08-17 13:48:29.468750
1975,31.7,2022-08-17 13:48:29.484375
1976,16.1,2022-08-17 13:48:29.500000
1977,0.33,2022-08-17 13:48:29.515625
1978,-13.59,2022-08-17 13:48:29.531250
1979,-24.18,2022-08-17 13:48:29.546875
1980,-30.7,2022-08-17 13:48:29.562500
1981,-33.16,2022-08-17 13:48:29.578125
1982,-31.97,2022-08-17 13:48:29.593750
1983,-27.83,2022-08-17 13:48:29.609375
1984,-21.57,2022-08-17 13:48:29.625000
1985,-14.18,2022-08-17 13:48:29.640625
1986,-6.74,2022-08-17 13:48:29.656250
1987,-0.27,2022-08-17 13:48:29.671875
1988,4.55,2022-08-17 13:48:29.687500
1989,7.6,2022-08-17 13:48:29.703125
1990,9.4,2022-08-17 13:48:29.718750
1991,11.0,2022-08-17 13:48:29.734375
1992,13.57,2022-08-17 13:48:29.750000
1993,18.0,2022-08-17 13:48:29.765625
1994,24.62,2022-08-17 13:48:29.781250
1995,33.0,2022-08-17 13:48:29.796875
1996,42.07,2022-08-17 13:48:29.812500
1997,50.26,2022-08-17 13:48:29.828125
1998,55.72,2022-08-17 13:48:29.843750
1999,56.47,2022-08-17 13:48:29.859375
2000,50.67,2022-08-17 13:48:29.875000
2001,37.16,2022-08-17 13:48:29.890625
2002,16.07,2022-08-17 13:48:29.906250
2003,-10.71,2022-08-17 13:48:29.921875
2004,-39.69,2022-08-17 13:48:29.937500
2005,-66.47,2022-08-17 13:48:29.953125
2006,-87.03,2022-08-17 13:48:29.968750
2007,-98.9,2022-08-17 13:48:29.984375
2008,-101.71,2022-08-17 13:48:30.000000
2009,-96.95,2022-08-17 13:48:30.015625
2010,-87.11,2022-08-17 13:48:30.031250
2011,-74.72,2022-08-17 13:48:30.046875
2012,-61.78,2022-08-17 13:48:30.062500
2013,-49.63,2022-08-17 13:48:30.078125
2014,-39.2,2022-08-17 13:48:30.093750
2015,-31.22,2022-08-17 13:48:30.109375
2016,-26.25,2022-08-17 13:48:30.125000
2017,-24.5,2022-08-17 13:48:30.140625
2018,-25.61,2022-08-17 13:48:30.156250
2019,-28.63,2022-08-17 13:48:30.171875
2020,-32.35,2022-08-17 13:48:30.187500
2021,-35.66,2022-08-17 13:48:30.203125
2022,-37.95,2022-08-17 13:48:30.218750
2023,-39.25,2022-08-17 13:48:30.234375
2024,-40.08,2022-08-17 13:48:30.250000
2025,-41.16,2022-08-17 13:48:30.265625
2026,-42.97,2022-08-17 13:48:30.281250
2027,-45.55,2022-08-17 13:48:30.296875
2028,-48.5,2022-08-17 13:48:30.312500
2029,-51.19,2022-08-17 13:48:30.328125
2030,-52.99,2022-08-17 13:48:30.343750
2031,-53.58,2022-08-17 13:48:30.359375
2032,-52.88,2022-08-17 13:48:30.375000
2033,-51.03,2022-08-17 13:48:30.390625
2034,-48.1,2022-08-17 13:48:30.406250
2035,-44.0,2022-08-17 13:48:30.421875
2036,-38.53,2022-08-17 13:48:30.437500
2037,-31.5,2022-08-17 13:48:30.453125
2038,-22.97,2022-08-17 13:48:30.468750
2039,-13.37,2022-08-17 13:48:30.484375
2040,-3.45,2022-08-17 13:48:30.500000
2041,5.96,2022-08-17 13:48:30.515625
2042,14.09,2022-08-17 13:48:30.531250
2043,20.44,2022-08-17 13:48:30.546875
2044,24.76,2022-08-17 13:48:30.562500
2045,27.03,2022-08-17 13:48:30.578125
2046,27.42,2022-08-17 13:48:30.593750
2047,26.24,2022-08-17 13:48:30.609375
2048,23.97,2022-08-17 13:48:30.625000
2049,21.24,2022-08-17 13:48:30.640625
2050,18.73,2022-08-17 13:48:30.656250
2051,17.01,2022-08-17 13:48:30.671875
2052,16.39,2022-08-17 13:48:30.687500
2053,16.82,2022-08-17 13:48:30.703125
2054,17.99,2022-08-17 13:48:30.718750
2055,19.45,2022-08-17 13:48:30.734375
2056,20.83,2022-08-17 13:48:30.750000
2057,21.88,2022-08-17 13:48:30.765625
2058,22.49,2022-08-17 13:48:30.781250
2059,22.66,2022-08-17 13:48:30.796875
2060,22.49,2022-08-17 13:48:30.812500
2061,22.18,2022-08-17 13:48:30.828125
2062,22.05,2022-08-17 13:48:30.843750
2063,22.4,2022-08-17 13:48:30.859375
2064,23.4,2022-08-17 13:48:30.875000
2065,24.97,2022-08-17 13:48:30.890625
2066,26.7,2022-08-17 13:48:30.906250
2067,28.09,2022-08-17 13:48:30.921875
2068,28.66,2022-08-17 13:48:30.937500
2069,28.2,2022-08-17 13:48:30.953125
2070,26.8,2022-08-17 13:48:30.968750
2071,24.79,2022-08-17 13:48:30.984375
2072,22.53,2022-08-17 13:48:31.000000
2073,20.24,2022-08-17 13:48:31.015625
2074,17.93,2022-08-17 13:48:31.031250
2075,15.48,2022-08-17 13:48:31.046875
2076,12.77,2022-08-17 13:48:31.062500
2077,9.78,2022-08-17 13:48:31.078125
2078,6.71,2022-08-17 13:48:31.093750
2079,3.95,2022-08-17 13:48:31.109375
2080,2.04,2022-08-17 13:48:31.125000
2081,1.56,2022-08-17 13:48:31.140625
2082,2.96,2022-08-17 13:48:31.156250
2083,6.4,2022-08-17 13:48:31.171875
2084,11.68,2022-08-17 13:48:31.187500
2085,18.23,2022-08-17 13:48:31.203125
2086,25.14,2022-08-17 13:48:31.218750
2087,31.39,2022-08-17 13:48:31.234375
2088,36.03,2022-08-17 13:48:31.250000
2089,38.41,2022-08-17 13:48:31.265625
2090,38.2,2022-08-17 13:48:31.281250
2091,35.49,2022-08-17 13:48:31.296875
2092,30.63,2022-08-17 13:48:31.312500
2093,24.19,2022-08-17 13:48:31.328125
2094,16.87,2022-08-17 13:48:31.343750
2095,9.42,2022-08-17 13:48:31.359375
2096,2.55,2022-08-17 13:48:31.375000
2097,-3.11,2022-08-17 13:48:31.390625
2098,-7.16,2022-08-17 13:48:31.406250
2099,-9.42,2022-08-17 13:48:31.421875
2100,-9.95,2022-08-17 13:48:31.437500
2101,-9.0,2022-08-17 13:48:31.453125
2102,-6.82,2022-08-17 13:48:31.468750
2103,-3.73,2022-08-17 13:48:31.484375
2104,0.04,2022-08-17 13:48:31.500000
2105,4.24,2022-08-17 13:48:31.515625
2106,8.54,2022-08-17 13:48:31.531250
2107,12.58,2022-08-17 13:48:31.546875
2108,15.95,2022-08-17 13:48:31.562500
2109,18.32,2022-08-17 13:48:31.578125
2110,19.49,2022-08-17 13:48:31.593750
2111,19.43,2022-08-17 13:48:31.609375
2112,18.32,2022-08-17 13:48:31.625000
2113,16.4,2022-08-17 13:48:31.640625
2114,14.01,2022-08-17 13:48:31.656250
2115,11.43,2022-08-17 13:48:31.671875
2116,8.86,2022-08-17 13:48:31.687500
2117,6.48,2022-08-17 13:48:31.703125
2118,4.37,2022-08-17 13:48:31.718750
2119,2.55,2022-08-17 13:48:31.734375
2120,1.0,2022-08-17 13:48:31.750000
2121,-0.41,2022-08-17 13:48:31.765625
2122,-1.93,2022-08-17 13:48:31.781250
2123,-3.84,2022-08-17 13:48:31.796875
2124,-6.39,2022-08-17 13:48:31.812500
2125,-9.67,2022-08-17 13:48:31.828125
2126,-13.47,2022-08-17 13:48:31.843750
2127,-17.26,2022-08-17 13:48:31.859375
2128,-20.25,2022-08-17 13:48:31.875000
2129,-21.63,2022-08-17 13:48:31.890625
2130,-20.77,2022-08-17 13:48:31.906250
2131,-17.47,2022-08-17 13:48:31.921875
2132,-11.97,2022-08-17 13:48:31.937500
2133,-4.94,2022-08-17 13:48:31.953125
2134,2.72,2022-08-17 13:48:31.968750
2135,10.12,2022-08-17 13:48:31.984375
2136,16.49,2022-08-17 13:48:32.000000
2137,21.31,2022-08-17 13:48:32.015625
2138,24.28,2022-08-17 13:48:32.031250
2139,25.31,2022-08-17 13:48:32.046875
2140,24.49,2022-08-17 13:48:32.062500
2141,22.06,2022-08-17 13:48:32.078125
2142,18.38,2022-08-17 13:48:32.093750
2143,13.88,2022-08-17 13:48:32.109375
2144,9.02,2022-08-17 13:48:32.125000
2145,4.28,2022-08-17 13:48:32.140625
2146,0.05,2022-08-17 13:48:32.156250
2147,-3.39,2022-08-17 13:48:32.171875
2148,-5.93,2022-08-17 13:48:32.187500
2149,-7.59,2022-08-17 13:48:32.203125
2150,-8.51,2022-08-17 13:48:32.218750
2151,-8.85,2022-08-17 13:48:32.234375
2152,-8.72,2022-08-17 13:48:32.250000
2153,-8.18,2022-08-17 13:48:32.265625
2154,-7.23,2022-08-17 13:48:32.281250
2155,-5.95,2022-08-17 13:48:32.296875
2156,-4.47,2022-08-17 13:48:32.312500
2157,-3.03,2022-08-17 13:48:32.328125
2158,-1.83,2022-08-17 13:48:32.343750
2159,-1.03,2022-08-17 13:48:32.359375
2160,-0.67,2022-08-17 13:48:32.375000
2161,-0.67,2022-08-17 13:48:32.390625
2162,-0.92,2022-08-17 13:48:32.406250
2163,-1.33,2022-08-17 13:48:32.421875
2164,-1.9,2022-08-17 13:48:32.437500
2165,-2.63,2022-08-17 13:48:32.453125
2166,-3.5,2022-08-17 13:48:32.468750
2167,-4.42,2022-08-17 13:48:32.484375
2168,-5.21,2022-08-17 13:48:32.500000
2169,-5.7,2022-08-17 13:48:32.515625
2170,-5.79,2022-08-17 13:48:32.531250
2171,-5.55,2022-08-17 13:48:32.546875
2172,-5.19,2022-08-17 13:48:32.562500
2173,-5.02,2022-08-17 13:48:32.578125
2174,-5.33,2022-08-17 13:48:32.593750
2175,-6.29,2022-08-17 13:48:32.609375
2176,-7.93,2022-08-17 13:48:32.625000
2177,-10.02,2022-08-17 13:48:32.640625
2178,-12.16,2022-08-17 13:48:32.656250
2179,-13.79,2022-08-17 13:48:32.671875
2180,-14.3,2022-08-17 13:48:32.687500
2181,-13.21,2022-08-17 13:48:32.703125
2182,-10.34,2022-08-17 13:48:32.718750
2183,-5.87,2022-08-17 13:48:32.734375
2184,-0.33,2022-08-17 13:48:32.750000
2185,5.61,2022-08-17 13:48:32.765625
2186,11.31,2022-08-17 13:48:32.781250
2187,16.34,2022-08-17 13:48:32.796875
2188,20.45,2022-08-17 13:48:32.812500
2189,23.51,2022-08-17 13:48:32.828125
2190,25.42,2022-08-17 13:48:32.843750
2191,26.03,2022-08-17 13:48:32.859375
2192,25.3,2022-08-17 13:48:32.875000
2193,23.32,2022-08-17 13:48:32.890625
2194,20.41,2022-08-17 13:48:32.906250
2195,17.07,2022-08-17 13:48:32.921875
2196,13.83,2022-08-17 13:48:32.937500
2197,11.13,2022-08-17 13:48:32.953125
2198,9.22,2022-08-17 13:48:32.968750
2199,8.16,2022-08-17 13:48:32.984375
2200,7.85,2022-08-17 13:48:33.000000
2201,8.05,2022-08-17 13:48:33.015625
2202,8.48,2022-08-17 13:48:33.031250
2203,8.84,2022-08-17 13:48:33.046875
2204,8.89,2022-08-17 13:48:33.062500
2205,8.6,2022-08-17 13:48:33.078125
2206,8.1,2022-08-17 13:48:33.093750
2207,7.7,2022-08-17 13:48:33.109375
2208,7.69,2022-08-17 13:48:33.125000
2209,8.24,2022-08-17 13:48:33.140625
2210,9.27,2022-08-17 13:48:33.156250
2211,10.51,2022-08-17 13:48:33.171875
2212,11.6,2022-08-17 13:48:33.187500
2213,12.2,2022-08-17 13:48:33.203125
2214,12.1,2022-08-17 13:48:33.218750
2215,11.16,2022-08-17 13:48:33.234375
2216,9.37,2022-08-17 13:48:33.250000
2217,6.74,2022-08-17 13:48:33.265625
2218,3.41,2022-08-17 13:48:33.281250
2219,-0.36,2022-08-17 13:48:33.296875
2220,-4.27,2022-08-17 13:48:33.312500
2221,-7.99,2022-08-17 13:48:33.328125
2222,-11.33,2022-08-17 13:48:33.343750
2223,-14.25,2022-08-17 13:48:33.359375
2224,-16.88,2022-08-17 13:48:33.375000
2225,-19.34,2022-08-17 13:48:33.390625
2226,-21.62,2022-08-17 13:48:33.406250
2227,-23.47,2022-08-17 13:48:33.421875
2228,-24.48,2022-08-17 13:48:33.437500
2229,-24.2,2022-08-17 13:48:33.453125
2230,-22.3,2022-08-17 13:48:33.468750
2231,-18.71,2022-08-17 13:48:33.484375
2232,-13.66,2022-08-17 13:48:33.500000
2233,-7.62,2022-08-17 13:48:33.515625
2234,-1.2,2022-08-17 13:48:33.531250
2235,5.01,2022-08-17 13:48:33.546875
2236,10.49,2022-08-17 13:48:33.562500
2237,14.89,2022-08-17 13:48:33.578125
2238,17.98,2022-08-17 13:48:33.593750
2239,19.68,2022-08-17 13:48:33.609375
2240,20.02,2022-08-17 13:48:33.625000
2241,19.13,2022-08-17 13:48:33.640625
2242,17.27,2022-08-17 13:48:33.656250
2243,14.75,2022-08-17 13:48:33.671875
2244,11.91,2022-08-17 13:48:33.687500
2245,9.09,2022-08-17 13:48:33.703125
2246,6.53,2022-08-17 13:48:33.718750
2247,4.39,2022-08-17 13:48:33.734375
2248,2.72,2022-08-17 13:48:33.750000
2249,1.55,2022-08-17 13:48:33.765625
2250,0.89,2022-08-17 13:48:33.781250
2251,0.78,2022-08-17 13:48:33.796875
2252,1.24,2022-08-17 13:48:33.812500
2253,2.25,2022-08-17 13:48:33.828125
2254,3.67,2022-08-17 13:48:33.843750
2255,5.3,2022-08-17 13:48:33.859375
2256,6.86,2022-08-17 13:48:33.875000
2257,8.05,2022-08-17 13:48:33.890625
2258,8.67,2022-08-17 13:48:33.906250
2259,8.61,2022-08-17 13:48:33.921875
2260,7.91,2022-08-17 13:48:33.937500
2261,6.64,2022-08-17 13:48:33.953125
2262,4.89,2022-08-17 13:48:33.968750
2263,2.77,2022-08-17 13:48:33.984375
2264,0.37,2022-08-17 13:48:34.000000
2265,-2.16,2022-08-17 13:48:34.015625
2266,-4.64,2022-08-17 13:48:34.031250
2267,-6.89,2022-08-17 13:48:34.046875
2268,-8.77,2022-08-17 13:48:34.062500
2269,-10.3,2022-08-17 13:48:34.078125
2270,-11.61,2022-08-17 13:48:34.093750
2271,-12.88,2022-08-17 13:48:34.109375
2272,-14.26,2022-08-17 13:48:34.125000
2273,-15.76,2022-08-17 13:48:34.140625
2274,-17.21,2022-08-17 13:48:34.156250
2275,-18.32,2022-08-17 13:48:34.171875
2276,-18.74,2022-08-17 13:48:34.187500
2277,-18.17,2022-08-17 13:48:34.203125
2278,-16.41,2022-08-17 13:48:34.218750
2279,-13.44,2022-08-17 13:48:34.234375
2280,-9.37,2022-08-17 13:48:34.250000
2281,-4.49,2022-08-17 13:48:34.265625
2282,0.79,2022-08-17 13:48:34.281250
2283,5.98,2022-08-17 13:48:34.296875
2284,10.53,2022-08-17 13:48:34.312500
2285,13.99,2022-08-17 13:48:34.328125
2286,16.01,2022-08-17 13:48:34.343750
2287,16.47,2022-08-17 13:48:34.359375
2288,15.44,2022-08-17 13:48:34.375000
2289,13.17,2022-08-17 13:48:34.390625
2290,10.1,2022-08-17 13:48:34.406250
2291,6.7,2022-08-17 13:48:34.421875
2292,3.46,2022-08-17 13:48:34.437500
2293,0.8,2022-08-17 13:48:34.453125
2294,-1.03,2022-08-17 13:48:34.468750
2295,-2.01,2022-08-17 13:48:34.484375
2296,-2.32,2022-08-17 13:48:34.500000
2297,-2.3,2022-08-17 13:48:34.515625
2298,-2.28,2022-08-17 13:48:34.531250
2299,-2.45,2022-08-17 13:48:34.546875
2300,-2.82,2022-08-17 13:48:34.562500
2301,-3.15,2022-08-17 13:48:34.578125
2302,-3.19,2022-08-17 13:48:34.593750
2303,-2.75,2022-08-17 13:48:34.609375
2304,-1.85,2022-08-17 13:48:34.625000
2305,-0.73,2022-08-17 13:48:34.640625
2306,0.24,2022-08-17 13:48:34.656250
2307,0.66,2022-08-17 13:48:34.671875
2308,0.24,2022-08-17 13:48:34.687500
2309,-1.16,2022-08-17 13:48:34.703125
2310,-3.45,2022-08-17 13:48:34.718750
2311,-6.38,2022-08-17 13:48:34.734375
2312,-9.59,2022-08-17 13:48:34.750000
2313,-12.69,2022-08-17 13:48:34.765625
2314,-15.34,2022-08-17 13:48:34.781250
2315,-17.39,2022-08-17 13:48:34.796875
2316,-18.82,2022-08-17 13:48:34.812500
2317,-19.79,2022-08-17 13:48:34.828125
2318,-20.49,2022-08-17 13:48:34.843750
2319,-21.1,2022-08-17 13:48:34.859375
2320,-21.71,2022-08-17 13:48:34.875000
2321,-22.28,2022-08-17 13:48:34.890625
2322,-22.59,2022-08-17 13:48:34.906250
2323,-22.35,2022-08-17 13:48:34.921875
2324,-21.18,2022-08-17 13:48:34.937500
2325,-18.72,2022-08-17 13:48:34.953125
2326,-14.76,2022-08-17 13:48:34.968750
2327,-9.36,2022-08-17 13:48:34.984375
2328,-2.91,2022-08-17 13:48:35.000000
2329,3.9,2022-08-17 13:48:35.015625
2330,10.24,2022-08-17 13:48:35.031250
2331,15.4,2022-08-17 13:48:35.046875
2332,18.93,2022-08-17 13:48:35.062500
2333,20.78,2022-08-17 13:48:35.078125
2334,21.16,2022-08-17 13:48:35.093750
2335,20.42,2022-08-17 13:48:35.109375
2336,18.87,2022-08-17 13:48:35.125000
2337,16.71,2022-08-17 13:48:35.140625
2338,14.04,2022-08-17 13:48:35.156250
2339,10.96,2022-08-17 13:48:35.171875
2340,7.62,2022-08-17 13:48:35.187500
2341,4.31,2022-08-17 13:48:35.203125
2342,1.35,2022-08-17 13:48:35.218750
2343,-0.98,2022-08-17 13:48:35.234375
2344,-2.53,2022-08-17 13:48:35.250000
2345,-3.25,2022-08-17 13:48:35.265625
2346,-3.24,2022-08-17 13:48:35.281250
2347,-2.65,2022-08-17 13:48:35.296875
2348,-1.7,2022-08-17 13:48:35.312500
2349,-0.63,2022-08-17 13:48:35.328125
2350,0.35,2022-08-17 13:48:35.343750
2351,1.08,2022-08-17 13:48:35.359375
2352,1.46,2022-08-17 13:48:35.375000
2353,1.5,2022-08-17 13:48:35.390625
2354,1.21,2022-08-17 13:48:35.406250
2355,0.59,2022-08-17 13:48:35.421875
2356,-0.35,2022-08-17 13:48:35.437500
2357,-1.61,2022-08-17 13:48:35.453125
2358,-3.12,2022-08-17 13:48:35.468750
2359,-4.69,2022-08-17 13:48:35.484375
2360,-6.14,2022-08-17 13:48:35.500000
2361,-7.32,2022-08-17 13:48:35.515625
2362,-8.24,2022-08-17 13:48:35.531250
2363,-9.05,2022-08-17 13:48:35.546875
2364,-9.96,2022-08-17 13:48:35.562500
2365,-11.17,2022-08-17 13:48:35.578125
2366,-12.7,2022-08-17 13:48:35.593750
2367,-14.42,2022-08-17 13:48:35.609375
2368,-16.11,2022-08-17 13:48:35.625000
2369,-17.52,2022-08-17 13:48:35.640625
2370,-18.41,2022-08-17 13:48:35.656250
2371,-18.58,2022-08-17 13:48:35.671875
2372,-17.81,2022-08-17 13:48:35.687500
2373,-15.9,2022-08-17 13:48:35.703125
2374,-12.73,2022-08-17 13:48:35.718750
2375,-8.35,2022-08-17 13:48:35.734375
2376,-3.04,2022-08-17 13:48:35.750000
2377,2.77,2022-08-17 13:48:35.765625
2378,8.49,2022-08-17 13:48:35.781250
2379,13.6,2022-08-17 13:48:35.796875
2380,17.65,2022-08-17 13:48:35.812500
2381,20.38,2022-08-17 13:48:35.828125
2382,21.7,2022-08-17 13:48:35.843750
2383,21.64,2022-08-17 13:48:35.859375
2384,20.31,2022-08-17 13:48:35.875000
2385,17.94,2022-08-17 13:48:35.890625
2386,14.9,2022-08-17 13:48:35.906250
2387,11.62,2022-08-17 13:48:35.921875
2388,8.63,2022-08-17 13:48:35.937500
2389,6.36,2022-08-17 13:48:35.953125
2390,5.07,2022-08-17 13:48:35.968750
2391,4.78,2022-08-17 13:48:35.984375
2392,5.26,2022-08-17 13:48:36.000000
2393,6.16,2022-08-17 13:48:36.015625
2394,7.12,2022-08-17 13:48:36.031250
2395,7.91,2022-08-17 13:48:36.046875
2396,8.45,2022-08-17 13:48:36.062500
2397,8.78,2022-08-17 13:48:36.078125
2398,8.98,2022-08-17 13:48:36.093750
2399,9.11,2022-08-17 13:48:36.109375
2400,9.18,2022-08-17 13:48:36.125000
2401,9.12,2022-08-17 13:48:36.140625
2402,8.85,2022-08-17 13:48:36.156250
2403,8.25,2022-08-17 13:48:36.171875
2404,7.25,2022-08-17 13:48:36.187500
2405,5.81,2022-08-17 13:48:36.203125
2406,3.99,2022-08-17 13:48:36.218750
2407,1.94,2022-08-17 13:48:36.234375
2408,-0.08,2022-08-17 13:48:36.250000
2409,-1.81,2022-08-17 13:48:36.265625
2410,-3.03,2022-08-17 13:48:36.281250
2411,-3.71,2022-08-17 13:48:36.296875
2412,-3.95,2022-08-17 13:48:36.312500
2413,-4.05,2022-08-17 13:48:36.328125
2414,-4.46,2022-08-17 13:48:36.343750
2415,-5.65,2022-08-17 13:48:36.359375
2416,-8.04,2022-08-17 13:48:36.375000
2417,-11.83,2022-08-17 13:48:36.390625
2418,-16.76,2022-08-17 13:48:36.406250
2419,-22.14,2022-08-17 13:48:36.421875
2420,-26.86,2022-08-17 13:48:36.437500
2421,-29.71,2022-08-17 13:48:36.453125
2422,-29.76,2022-08-17 13:48:36.468750
2423,-26.64,2022-08-17 13:48:36.484375
2424,-20.68,2022-08-17 13:48:36.500000
2425,-12.74,2022-08-17 13:48:36.515625
2426,-3.96,2022-08-17 13:48:36.531250
2427,4.57,2022-08-17 13:48:36.546875
2428,12.03,2022-08-17 13:48:36.562500
2429,17.91,2022-08-17 13:48:36.578125
2430,21.97,2022-08-17 13:48:36.593750
2431,24.19,2022-08-17 13:48:36.609375
2432,24.69,2022-08-17 13:48:36.625000
2433,23.78,2022-08-17 13:48:36.640625
2434,21.84,2022-08-17 13:48:36.656250
2435,19.32,2022-08-17 13:48:36.671875
2436,16.69,2022-08-17 13:48:36.687500
2437,14.34,2022-08-17 13:48:36.703125
2438,12.59,2022-08-17 13:48:36.718750
2439,11.65,2022-08-17 13:48:36.734375
2440,11.64,2022-08-17 13:48:36.750000
2441,12.42,2022-08-17 13:48:36.765625
2442,13.69,2022-08-17 13:48:36.781250
2443,14.9,2022-08-17 13:48:36.796875
2444,15.54,2022-08-17 13:48:36.812500
2445,15.21,2022-08-17 13:48:36.828125
2446,13.86,2022-08-17 13:48:36.843750
2447,11.78,2022-08-17 13:48:36.859375
2448,9.38,2022-08-17 13:48:36.875000
2449,6.93,2022-08-17 13:48:36.890625
2450,4.33,2022-08-17 13:48:36.906250
2451,1.22,2022-08-17 13:48:36.921875
2452,-2.84,2022-08-17 13:48:36.937500
2453,-8.07,2022-08-17 13:48:36.953125
2454,-14.35,2022-08-17 13:48:36.968750
2455,-21.27,2022-08-17 13:48:36.984375
2456,-28.37,2022-08-17 13:48:37.000000
2457,-35.4,2022-08-17 13:48:37.015625
2458,-42.21,2022-08-17 13:48:37.031250
2459,-48.72,2022-08-17 13:48:37.046875
2460,-54.65,2022-08-17 13:48:37.062500
2461,-59.52,2022-08-17 13:48:37.078125
2462,-62.83,2022-08-17 13:48:37.093750
2463,-64.31,2022-08-17 13:48:37.109375
2464,-64.1,2022-08-17 13:48:37.125000
2465,-62.74,2022-08-17 13:48:37.140625
2466,-60.93,2022-08-17 13:48:37.156250
2467,-59.15,2022-08-17 13:48:37.171875
2468,-57.5,2022-08-17 13:48:37.187500
2469,-55.68,2022-08-17 13:48:37.203125
2470,-53.12,2022-08-17 13:48:37.218750
2471,-49.28,2022-08-17 13:48:37.234375
2472,-43.8,2022-08-17 13:48:37.250000
2473,-36.6,2022-08-17 13:48:37.265625
2474,-27.88,2022-08-17 13:48:37.281250
2475,-18.01,2022-08-17 13:48:37.296875
2476,-7.47,2022-08-17 13:48:37.312500
2477,3.16,2022-08-17 13:48:37.328125
2478,13.22,2022-08-17 13:48:37.343750
2479,22.01,2022-08-17 13:48:37.359375
2480,28.85,2022-08-17 13:48:37.375000
2481,33.26,2022-08-17 13:48:37.390625
2482,35.07,2022-08-17 13:48:37.406250
2483,34.5,2022-08-17 13:48:37.421875
2484,32.14,2022-08-17 13:48:37.437500
2485,28.78,2022-08-17 13:48:37.453125
2486,25.2,2022-08-17 13:48:37.468750
2487,22.03,2022-08-17 13:48:37.484375
2488,19.63,2022-08-17 13:48:37.500000
2489,18.14,2022-08-17 13:48:37.515625
2490,17.49,2022-08-17 13:48:37.531250
2491,17.55,2022-08-17 13:48:37.546875
2492,18.11,2022-08-17 13:48:37.562500
2493,18.99,2022-08-17 13:48:37.578125
2494,20.03,2022-08-17 13:48:37.593750
2495,21.1,2022-08-17 13:48:37.609375
2496,22.07,2022-08-17 13:48:37.625000
2497,22.84,2022-08-17 13:48:37.640625
2498,23.28,2022-08-17 13:48:37.656250
2499,23.26,2022-08-17 13:48:37.671875
2500,22.69,2022-08-17 13:48:37.687500
2501,21.61,2022-08-17 13:48:37.703125
2502,20.16,2022-08-17 13:48:37.718750
2503,18.52,2022-08-17 13:48:37.734375
2504,16.88,2022-08-17 13:48:37.750000
2505,15.31,2022-08-17 13:48:37.765625
2506,13.73,2022-08-17 13:48:37.781250
2507,11.99,2022-08-17 13:48:37.796875
2508,9.99,2022-08-17 13:48:37.812500
2509,7.73,2022-08-17 13:48:37.828125
2510,5.34,2022-08-17 13:48:37.843750
2511,3.01,2022-08-17 13:48:37.859375
2512,0.85,2022-08-17 13:48:37.875000
2513,-1.16,2022-08-17 13:48:37.890625
2514,-3.16,2022-08-17 13:48:37.906250
2515,-5.26,2022-08-17 13:48:37.921875
2516,-7.32,2022-08-17 13:48:37.937500
2517,-8.97,2022-08-17 13:48:37.953125
2518,-9.64,2022-08-17 13:48:37.968750
2519,-8.8,2022-08-17 13:48:37.984375
2520,-6.19,2022-08-17 13:48:38.000000
2521,-1.93,2022-08-17 13:48:38.015625
2522,3.45,2022-08-17 13:48:38.031250
2523,9.23,2022-08-17 13:48:38.046875
2524,14.65,2022-08-17 13:48:38.062500
2525,19.14,2022-08-17 13:48:38.078125
2526,22.3,2022-08-17 13:48:38.093750
2527,23.94,2022-08-17 13:48:38.109375
2528,24.03,2022-08-17 13:48:38.125000
2529,22.65,2022-08-17 13:48:38.140625
2530,19.99,2022-08-17 13:48:38.156250
2531,16.38,2022-08-17 13:48:38.171875
2532,12.22,2022-08-17 13:48:38.187500
2533,7.95,2022-08-17 13:48:38.203125
2534,3.99,2022-08-17 13:48:38.218750
2535,0.6,2022-08-17 13:48:38.234375
2536,-2.05,2022-08-17 13:48:38.250000
2537,-3.93,2022-08-17 13:48:38.265625
2538,-5.1,2022-08-17 13:48:38.281250
2539,-5.69,2022-08-17 13:48:38.296875
2540,-5.84,2022-08-17 13:48:38.312500
2541,-5.67,2022-08-17 13:48:38.328125
2542,-5.35,2022-08-17 13:48:38.343750
2543,-4.96,2022-08-17 13:48:38.359375
2544,-4.58,2022-08-17 13:48:38.375000
2545,-4.22,2022-08-17 13:48:38.390625
2546,-3.87,2022-08-17 13:48:38.406250
2547,-3.58,2022-08-17 13:48:38.421875
2548,-3.42,2022-08-17 13:48:38.437500
2549,-3.57,2022-08-17 13:48:38.453125
2550,-4.15,2022-08-17 13:48:38.468750
2551,-5.23,2022-08-17 13:48:38.484375
2552,-6.71,2022-08-17 13:48:38.500000
2553,-8.41,2022-08-17 13:48:38.515625
2554,-10.11,2022-08-17 13:48:38.531250
2555,-11.71,2022-08-17 13:48:38.546875
2556,-13.21,2022-08-17 13:48:38.562500
2557,-14.76,2022-08-17 13:48:38.578125
2558,-16.53,2022-08-17 13:48:38.593750
2559,-18.63,2022-08-17 13:48:38.609375
2560,-21.02,2022-08-17 13:48:38.625000
2561,-23.5,2022-08-17 13:48:38.640625
2562,-25.74,2022-08-17 13:48:38.656250
2563,-27.28,2022-08-17 13:48:38.671875
2564,-27.63,2022-08-17 13:48:38.687500
2565,-26.36,2022-08-17 13:48:38.703125
2566,-23.23,2022-08-17 13:48:38.718750
2567,-18.32,2022-08-17 13:48:38.734375
2568,-12.02,2022-08-17 13:48:38.750000
2569,-4.98,2022-08-17 13:48:38.765625
2570,2.04,2022-08-17 13:48:38.781250
2571,8.32,2022-08-17 13:48:38.796875
2572,13.38,2022-08-17 13:48:38.812500
2573,16.96,2022-08-17 13:48:38.828125
2574,18.97,2022-08-17 13:48:38.843750
2575,19.47,2022-08-17 13:48:38.859375
2576,18.59,2022-08-17 13:48:38.875000
2577,16.49,2022-08-17 13:48:38.890625
2578,13.43,2022-08-17 13:48:38.906250
2579,9.74,2022-08-17 13:48:38.921875
2580,5.78,2022-08-17 13:48:38.937500
2581,1.96,2022-08-17 13:48:38.953125
2582,-1.32,2022-08-17 13:48:38.968750
2583,-3.78,2022-08-17 13:48:38.984375
2584,-5.21,2022-08-17 13:48:39.000000
2585,-5.5,2022-08-17 13:48:39.015625
2586,-4.68,2022-08-17 13:48:39.031250
2587,-2.88,2022-08-17 13:48:39.046875
2588,-0.35,2022-08-17 13:48:39.062500
2589,2.59,2022-08-17 13:48:39.078125
2590,5.55,2022-08-17 13:48:39.093750
2591,8.22,2022-08-17 13:48:39.109375
2592,10.34,2022-08-17 13:48:39.125000
2593,11.79,2022-08-17 13:48:39.140625
2594,12.55,2022-08-17 13:48:39.156250
2595,12.65,2022-08-17 13:48:39.171875
2596,12.18,2022-08-17 13:48:39.187500
2597,11.23,2022-08-17 13:48:39.203125
2598,9.89,2022-08-17 13:48:39.218750
2599,8.25,2022-08-17 13:48:39.234375
2600,6.39,2022-08-17 13:48:39.250000
2601,4.38,2022-08-17 13:48:39.265625
2602,2.26,2022-08-17 13:48:39.281250
2603,0.05,2022-08-17 13:48:39.296875
2604,-2.3,2022-08-17 13:48:39.312500
2605,-4.81,2022-08-17 13:48:39.328125
2606,-7.45,2022-08-17 13:48:39.343750
2607,-10.11,2022-08-17 13:48:39.359375
2608,-12.5,2022-08-17 13:48:39.375000
2609,-14.23,2022-08-17 13:48:39.390625
2610,-14.9,2022-08-17 13:48:39.406250
2611,-14.17,2022-08-17 13:48:39.421875
2612,-11.92,2022-08-17 13:48:39.437500
2613,-8.26,2022-08-17 13:48:39.453125
2614,-3.53,2022-08-17 13:48:39.468750
2615,1.77,2022-08-17 13:48:39.484375
2616,7.06,2022-08-17 13:48:39.500000
2617,11.82,2022-08-17 13:48:39.515625
2618,15.64,2022-08-17 13:48:39.531250
2619,18.24,2022-08-17 13:48:39.546875
2620,19.52,2022-08-17 13:48:39.562500
2621,19.51,2022-08-17 13:48:39.578125
2622,18.34,2022-08-17 13:48:39.593750
2623,16.14,2022-08-17 13:48:39.609375
2624,13.13,2022-08-17 13:48:39.625000
2625,9.55,2022-08-17 13:48:39.640625
2626,5.74,2022-08-17 13:48:39.656250
2627,2.15,2022-08-17 13:48:39.671875
2628,-0.75,2022-08-17 13:48:39.687500
2629,-2.55,2022-08-17 13:48:39.703125
2630,-3.04,2022-08-17 13:48:39.718750
2631,-2.29,2022-08-17 13:48:39.734375
2632,-0.61,2022-08-17 13:48:39.750000
2633,1.56,2022-08-17 13:48:39.765625
2634,3.78,2022-08-17 13:48:39.781250
2635,5.68,2022-08-17 13:48:39.796875
2636,7.09,2022-08-17 13:48:39.812500
2637,7.93,2022-08-17 13:48:39.828125
2638,8.2,2022-08-17 13:48:39.843750
2639,7.93,2022-08-17 13:48:39.859375
2640,7.14,2022-08-17 13:48:39.875000
2641,5.88,2022-08-17 13:48:39.890625
2642,4.19,2022-08-17 13:48:39.906250
2643,2.18,2022-08-17 13:48:39.921875
2644,-0.06,2022-08-17 13:48:39.937500
2645,-2.34,2022-08-17 13:48:39.953125
2646,-4.49,2022-08-17 13:48:39.968750
2647,-6.33,2022-08-17 13:48:39.984375
2648,-7.75,2022-08-17 13:48:40.000000
2649,-8.8,2022-08-17 13:48:40.015625
2650,-9.63,2022-08-17 13:48:40.031250
2651,-10.58,2022-08-17 13:48:40.046875
2652,-11.93,2022-08-17 13:48:40.062500
2653,-13.86,2022-08-17 13:48:40.078125
2654,-16.18,2022-08-17 13:48:40.093750
2655,-18.4,2022-08-17 13:48:40.109375
2656,-19.78,2022-08-17 13:48:40.125000
2657,-19.55,2022-08-17 13:48:40.140625
2658,-17.15,2022-08-17 13:48:40.156250
2659,-12.47,2022-08-17 13:48:40.171875
2660,-5.87,2022-08-17 13:48:40.187500
2661,1.88,2022-08-17 13:48:40.203125
2662,9.8,2022-08-17 13:48:40.218750
2663,16.91,2022-08-17 13:48:40.234375
2664,22.47,2022-08-17 13:48:40.250000
2665,26.08,2022-08-17 13:48:40.265625
2666,27.7,2022-08-17 13:48:40.281250
2667,27.57,2022-08-17 13:48:40.296875
2668,26.11,2022-08-17 13:48:40.312500
2669,23.77,2022-08-17 13:48:40.328125
2670,20.99,2022-08-17 13:48:40.343750
2671,18.11,2022-08-17 13:48:40.359375
2672,15.4,2022-08-17 13:48:40.375000
2673,13.02,2022-08-17 13:48:40.390625
2674,11.11,2022-08-17 13:48:40.406250
2675,9.7,2022-08-17 13:48:40.421875
2676,8.78,2022-08-17 13:48:40.437500
2677,8.26,2022-08-17 13:48:40.453125
2678,8.05,2022-08-17 13:48:40.468750
2679,8.04,2022-08-17 13:48:40.484375
2680,8.14,2022-08-17 13:48:40.500000
2681,8.3,2022-08-17 13:48:40.515625
2682,8.41,2022-08-17 13:48:40.531250
2683,8.35,2022-08-17 13:48:40.546875
2684,7.94,2022-08-17 13:48:40.562500
2685,7.0,2022-08-17 13:48:40.578125
2686,5.41,2022-08-17 13:48:40.593750
2687,3.14,2022-08-17 13:48:40.609375
2688,0.31,2022-08-17 13:48:40.625000
2689,-2.84,2022-08-17 13:48:40.640625
2690,-6.01,2022-08-17 13:48:40.656250
2691,-8.9,2022-08-17 13:48:40.671875
2692,-11.29,2022-08-17 13:48:40.687500
2693,-13.08,2022-08-17 13:48:40.703125
2694,-14.33,2022-08-17 13:48:40.718750
2695,-15.24,2022-08-17 13:48:40.734375
2696,-16.06,2022-08-17 13:48:40.750000
2697,-17.06,2022-08-17 13:48:40.765625
2698,-18.42,2022-08-17 13:48:40.781250
2699,-20.16,2022-08-17 13:48:40.796875
2700,-22.11,2022-08-17 13:48:40.812500
2701,-23.91,2022-08-17 13:48:40.828125
2702,-25.04,2022-08-17 13:48:40.843750
2703,-24.99,2022-08-17 13:48:40.859375
2704,-23.35,2022-08-17 13:48:40.875000
2705,-20.0,2022-08-17 13:48:40.890625
2706,-15.15,2022-08-17 13:48:40.906250
2707,-9.38,2022-08-17 13:48:40.921875
2708,-3.5,2022-08-17 13:48:40.937500
2709,1.67,2022-08-17 13:48:40.953125
2710,5.47,2022-08-17 13:48:40.968750
2711,7.57,2022-08-17 13:48:40.984375
2712,8.0,2022-08-17 13:48:41.000000
2713,7.07,2022-08-17 13:48:41.015625
2714,5.3,2022-08-17 13:48:41.031250
2715,3.24,2022-08-17 13:48:41.046875
2716,1.36,2022-08-17 13:48:41.062500
2717,0.0,2022-08-17 13:48:41.078125
2718,-0.71,2022-08-17 13:48:41.093750
2719,-0.81,2022-08-17 13:48:41.109375
2720,-0.43,2022-08-17 13:48:41.125000
2721,0.25,2022-08-17 13:48:41.140625
2722,1.04,2022-08-17 13:48:41.156250
2723,1.82,2022-08-17 13:48:41.171875
2724,2.47,2022-08-17 13:48:41.187500
2725,2.94,2022-08-17 13:48:41.203125
2726,3.21,2022-08-17 13:48:41.218750
2727,3.35,2022-08-17 13:48:41.234375
2728,3.4,2022-08-17 13:48:41.250000
2729,3.4,2022-08-17 13:48:41.265625
2730,3.22,2022-08-17 13:48:41.281250
2731,2.64,2022-08-17 13:48:41.296875
2732,1.4,2022-08-17 13:48:41.312500
2733,-0.65,2022-08-17 13:48:41.328125
2734,-3.4,2022-08-17 13:48:41.343750
2735,-6.51,2022-08-17 13:48:41.359375
2736,-9.47,2022-08-17 13:48:41.375000
2737,-11.82,2022-08-17 13:48:41.390625
2738,-13.26,2022-08-17 13:48:41.406250
2739,-13.79,2022-08-17 13:48:41.421875
2740,-13.64,2022-08-17 13:48:41.437500
2741,-13.18,2022-08-17 13:48:41.453125
2742,-12.8,2022-08-17 13:48:41.468750
2743,-12.85,2022-08-17 13:48:41.484375
2744,-13.57,2022-08-17 13:48:41.500000
2745,-15.05,2022-08-17 13:48:41.515625
2746,-17.12,2022-08-17 13:48:41.531250
2747,-19.4,2022-08-17 13:48:41.546875
2748,-21.32,2022-08-17 13:48:41.562500
2749,-22.28,2022-08-17 13:48:41.578125
2750,-21.78,2022-08-17 13:48:41.593750
2751,-19.58,2022-08-17 13:48:41.609375
2752,-15.69,2022-08-17 13:48:41.625000
2753,-10.4,2022-08-17 13:48:41.640625
2754,-4.13,2022-08-17 13:48:41.656250
2755,2.58,2022-08-17 13:48:41.671875
2756,9.13,2022-08-17 13:48:41.687500
2757,14.95,2022-08-17 13:48:41.703125
2758,19.53,2022-08-17 13:48:41.718750
2759,22.53,2022-08-17 13:48:41.734375
2760,23.79,2022-08-17 13:48:41.750000
2761,23.38,2022-08-17 13:48:41.765625
2762,21.53,2022-08-17 13:48:41.781250
2763,18.64,2022-08-17 13:48:41.796875
2764,15.33,2022-08-17 13:48:41.812500
2765,12.41,2022-08-17 13:48:41.828125
2766,10.7,2022-08-17 13:48:41.843750
2767,10.8,2022-08-17 13:48:41.859375
2768,12.85,2022-08-17 13:48:41.875000
2769,16.35,2022-08-17 13:48:41.890625
2770,20.34,2022-08-17 13:48:41.906250
2771,23.74,2022-08-17 13:48:41.921875
2772,25.7,2022-08-17 13:48:41.937500
2773,25.93,2022-08-17 13:48:41.953125
2774,24.62,2022-08-17 13:48:41.968750
2775,22.27,2022-08-17 13:48:41.984375
2776,19.38,2022-08-17 13:48:42.000000
2777,16.32,2022-08-17 13:48:42.015625
2778,13.25,2022-08-17 13:48:42.031250
2779,10.29,2022-08-17 13:48:42.046875
2780,7.6,2022-08-17 13:48:42.062500
2781,5.38,2022-08-17 13:48:42.078125
2782,3.84,2022-08-17 13:48:42.093750
2783,3.0,2022-08-17 13:48:42.109375
2784,2.72,2022-08-17 13:48:42.125000
2785,2.69,2022-08-17 13:48:42.140625
2786,2.57,2022-08-17 13:48:42.156250
2787,2.12,2022-08-17 13:48:42.171875
2788,1.36,2022-08-17 13:48:42.187500
2789,0.51,2022-08-17 13:48:42.203125
2790,-0.09,2022-08-17 13:48:42.218750
2791,-0.17,2022-08-17 13:48:42.234375
2792,0.32,2022-08-17 13:48:42.250000
2793,1.24,2022-08-17 13:48:42.265625
2794,2.24,2022-08-17 13:48:42.281250
2795,2.99,2022-08-17 13:48:42.296875
2796,3.1,2022-08-17 13:48:42.312500
2797,2.26,2022-08-17 13:48:42.328125
2798,0.21,2022-08-17 13:48:42.343750
2799,-3.16,2022-08-17 13:48:42.359375
2800,-7.61,2022-08-17 13:48:42.375000
2801,-12.45,2022-08-17 13:48:42.390625
2802,-16.63,2022-08-17 13:48:42.406250
2803,-18.96,2022-08-17 13:48:42.421875
2804,-18.52,2022-08-17 13:48:42.437500
2805,-15.02,2022-08-17 13:48:42.453125
2806,-8.98,2022-08-17 13:48:42.468750
2807,-1.58,2022-08-17 13:48:42.484375
2808,5.75,2022-08-17 13:48:42.500000
2809,11.8,2022-08-17 13:48:42.515625
2810,15.89,2022-08-17 13:48:42.531250
2811,18.0,2022-08-17 13:48:42.546875
2812,18.54,2022-08-17 13:48:42.562500
2813,18.13,2022-08-17 13:48:42.578125
2814,17.29,2022-08-17 13:48:42.593750
2815,16.39,2022-08-17 13:48:42.609375
2816,15.68,2022-08-17 13:48:42.625000
2817,15.36,2022-08-17 13:48:42.640625
2818,15.56,2022-08-17 13:48:42.656250
2819,16.18,2022-08-17 13:48:42.671875
2820,16.67,2022-08-17 13:48:42.687500
2821,16.07,2022-08-17 13:48:42.703125
2822,13.32,2022-08-17 13:48:42.718750
2823,7.78,2022-08-17 13:48:42.734375
2824,-0.22,2022-08-17 13:48:42.750000
2825,-9.38,2022-08-17 13:48:42.765625
2826,-17.79,2022-08-17 13:48:42.781250
2827,-23.75,2022-08-17 13:48:42.796875
2828,-26.45,2022-08-17 13:48:42.812500
2829,-26.27,2022-08-17 13:48:42.828125
2830,-24.46,2022-08-17 13:48:42.843750
2831,-22.45,2022-08-17 13:48:42.859375
2832,-21.2,2022-08-17 13:48:42.875000
2833,-20.92,2022-08-17 13:48:42.890625
2834,-21.21,2022-08-17 13:48:42.906250
2835,-21.56,2022-08-17 13:48:42.921875
2836,-21.7,2022-08-17 13:48:42.937500
2837,-21.78,2022-08-17 13:48:42.953125
2838,-22.14,2022-08-17 13:48:42.968750
2839,-23.06,2022-08-17 13:48:42.984375
2840,-24.48,2022-08-17 13:48:43.000000
2841,-26.04,2022-08-17 13:48:43.015625
2842,-27.28,2022-08-17 13:48:43.031250
2843,-27.84,2022-08-17 13:48:43.046875
2844,-27.63,2022-08-17 13:48:43.062500
2845,-26.81,2022-08-17 13:48:43.078125
2846,-25.54,2022-08-17 13:48:43.093750
2847,-23.83,2022-08-17 13:48:43.109375
2848,-21.5,2022-08-17 13:48:43.125000
2849,-18.2,2022-08-17 13:48:43.140625
2850,-13.7,2022-08-17 13:48:43.156250
2851,-8.06,2022-08-17 13:48:43.171875
2852,-1.7,2022-08-17 13:48:43.187500
2853,4.67,2022-08-17 13:48:43.203125
2854,10.26,2022-08-17 13:48:43.218750
2855,14.52,2022-08-17 13:48:43.234375
2856,17.2,2022-08-17 13:48:43.250000
2857,18.41,2022-08-17 13:48:43.265625
2858,18.44,2022-08-17 13:48:43.281250
2859,17.63,2022-08-17 13:48:43.296875
2860,16.23,2022-08-17 13:48:43.312500
2861,14.38,2022-08-17 13:48:43.328125
2862,12.16,2022-08-17 13:48:43.343750
2863,9.71,2022-08-17 13:48:43.359375
2864,7.23,2022-08-17 13:48:43.375000
2865,5.02,2022-08-17 13:48:43.390625
2866,3.39,2022-08-17 13:48:43.406250
2867,2.59,2022-08-17 13:48:43.421875
2868,2.7,2022-08-17 13:48:43.437500
2869,3.67,2022-08-17 13:48:43.453125
2870,5.25,2022-08-17 13:48:43.468750
2871,7.14,2022-08-17 13:48:43.484375
2872,9.0,2022-08-17 13:48:43.500000
2873,10.55,2022-08-17 13:48:43.515625
2874,11.6,2022-08-17 13:48:43.531250
2875,12.06,2022-08-17 13:48:43.546875
2876,11.97,2022-08-17 13:48:43.562500
2877,11.43,2022-08-17 13:48:43.578125
2878,10.55,2022-08-17 13:48:43.593750
2879,9.44,2022-08-17 13:48:43.609375
2880,8.14,2022-08-17 13:48:43.625000
2881,6.69,2022-08-17 13:48:43.640625
2882,5.12,2022-08-17 13:48:43.656250
2883,3.51,2022-08-17 13:48:43.671875
2884,1.94,2022-08-17 13:48:43.687500
2885,0.5,2022-08-17 13:48:43.703125
2886,-0.76,2022-08-17 13:48:43.718750
2887,-1.85,2022-08-17 13:48:43.734375
2888,-2.83,2022-08-17 13:48:43.750000
2889,-3.76,2022-08-17 13:48:43.765625
2890,-4.69,2022-08-17 13:48:43.781250
2891,-5.65,2022-08-17 13:48:43.796875
2892,-6.72,2022-08-17 13:48:43.812500
2893,-7.91,2022-08-17 13:48:43.828125
2894,-9.18,2022-08-17 13:48:43.843750
2895,-10.29,2022-08-17 13:48:43.859375
2896,-10.83,2022-08-17 13:48:43.875000
2897,-10.29,2022-08-17 13:48:43.890625
2898,-8.26,2022-08-17 13:48:43.906250
2899,-4.64,2022-08-17 13:48:43.921875
2900,0.28,2022-08-17 13:48:43.937500
2901,5.84,2022-08-17 13:48:43.953125
2902,11.19,2022-08-17 13:48:43.968750
2903,15.58,2022-08-17 13:48:43.984375
2904,18.54,2022-08-17 13:48:44.000000
2905,19.95,2022-08-17 13:48:44.015625
2906,19.98,2022-08-17 13:48:44.031250
2907,18.98,2022-08-17 13:48:44.046875
2908,17.27,2022-08-17 13:48:44.062500
2909,15.12,2022-08-17 13:48:44.078125
2910,12.68,2022-08-17 13:48:44.093750
2911,10.09,2022-08-17 13:48:44.109375
2912,7.48,2022-08-17 13:48:44.125000
2913,5.01,2022-08-17 13:48:44.140625
2914,2.84,2022-08-17 13:48:44.156250
2915,1.13,2022-08-17 13:48:44.171875
2916,-0.11,2022-08-17 13:48:44.187500
2917,-0.9,2022-08-17 13:48:44.203125
2918,-1.32,2022-08-17 13:48:44.218750
2919,-1.42,2022-08-17 13:48:44.234375
2920,-1.24,2022-08-17 13:48:44.250000
2921,-0.77,2022-08-17 13:48:44.265625
2922,-0.05,2022-08-17 13:48:44.281250
2923,0.82,2022-08-17 13:48:44.296875
2924,1.64,2022-08-17 13:48:44.312500
2925,2.21,2022-08-17 13:48:44.328125
2926,2.34,2022-08-17 13:48:44.343750
2927,1.98,2022-08-17 13:48:44.359375
2928,1.16,2022-08-17 13:48:44.375000
2929,0.02,2022-08-17 13:48:44.390625
2930,-1.29,2022-08-17 13:48:44.406250
2931,-2.65,2022-08-17 13:48:44.421875
2932,-3.98,2022-08-17 13:48:44.437500
2933,-5.29,2022-08-17 13:48:44.453125
2934,-6.6,2022-08-17 13:48:44.468750
2935,-7.94,2022-08-17 13:48:44.484375
2936,-9.3,2022-08-17 13:48:44.500000
2937,-10.63,2022-08-17 13:48:44.515625
2938,-11.87,2022-08-17 13:48:44.531250
2939,-12.94,2022-08-17 13:48:44.546875
2940,-13.81,2022-08-17 13:48:44.562500
2941,-14.51,2022-08-17 13:48:44.578125
2942,-15.12,2022-08-17 13:48:44.593750
2943,-15.73,2022-08-17 13:48:44.609375
2944,-16.39,2022-08-17 13:48:44.625000
2945,-17.0,2022-08-17 13:48:44.640625
2946,-17.37,2022-08-17 13:48:44.656250
2947,-17.2,2022-08-17 13:48:44.671875
2948,-16.22,2022-08-17 13:48:44.687500
2949,-14.21,2022-08-17 13:48:44.703125
2950,-11.13,2022-08-17 13:48:44.718750
2951,-7.1,2022-08-17 13:48:44.734375
2952,-2.4,2022-08-17 13:48:44.750000
2953,2.55,2022-08-17 13:48:44.765625
2954,7.27,2022-08-17 13:48:44.781250
2955,11.3,2022-08-17 13:48:44.796875
2956,14.28,2022-08-17 13:48:44.812500
2957,16.02,2022-08-17 13:48:44.828125
2958,16.52,2022-08-17 13:48:44.843750
2959,15.95,2022-08-17 13:48:44.859375
2960,14.57,2022-08-17 13:48:44.875000
2961,12.62,2022-08-17 13:48:44.890625
2962,10.35,2022-08-17 13:48:44.906250
2963,7.96,2022-08-17 13:48:44.921875
2964,5.64,2022-08-17 13:48:44.937500
2965,3.58,2022-08-17 13:48:44.953125
2966,1.92,2022-08-17 13:48:44.968750
2967,0.75,2022-08-17 13:48:44.984375
2968,0.08,2022-08-17 13:48:45.000000
2969,-0.14,2022-08-17 13:48:45.015625
2970,-0.01,2022-08-17 13:48:45.031250
2971,0.4,2022-08-17 13:48:45.046875
2972,1.05,2022-08-17 13:48:45.062500
2973,1.94,2022-08-17 13:48:45.078125
2974,3.02,2022-08-17 13:48:45.093750
2975,4.22,2022-08-17 13:48:45.109375
2976,5.35,2022-08-17 13:48:45.125000
2977,6.16,2022-08-17 13:48:45.140625
2978,6.4,2022-08-17 13:48:45.156250
2979,5.93,2022-08-17 13:48:45.171875
2980,4.78,2022-08-17 13:48:45.187500
2981,3.14,2022-08-17 13:48:45.203125
2982,1.29,2022-08-17 13:48:45.218750
2983,-0.49,2022-08-17 13:48:45.234375
2984,-2.08,2022-08-17 13:48:45.250000
2985,-3.51,2022-08-17 13:48:45.265625
2986,-4.86,2022-08-17 13:48:45.281250
2987,-6.18,2022-08-17 13:48:45.296875
2988,-7.47,2022-08-17 13:48:45.312500
2989,-8.62,2022-08-17 13:48:45.328125
2990,-9.52,2022-08-17 13:48:45.343750
2991,-10.12,2022-08-17 13:48:45.359375
2992,-10.46,2022-08-17 13:48:45.375000
2993,-10.65,2022-08-17 13:48:45.390625
2994,-10.85,2022-08-17 13:48:45.406250
2995,-11.12,2022-08-17 13:48:45.421875
2996,-11.45,2022-08-17 13:48:45.437500
2997,-11.66,2022-08-17 13:48:45.453125
2998,-11.43,2022-08-17 13:48:45.468750
2999,-10.4,2022-08-17 13:48:45.484375
3000,-8.21,2022-08-17 13:48:45.500000
3001,-4.74,2022-08-17 13:48:45.515625
3002,-0.13,2022-08-17 13:48:45.531250
3003,5.14,2022-08-17 13:48:45.546875
3004,10.42,2022-08-17 13:48:45.562500
3005,15.04,2022-08-17 13:48:45.578125
3006,18.49,2022-08-17 13:48:45.593750
3007,20.59,2022-08-17 13:48:45.609375
3008,21.39,2022-08-17 13:48:45.625000
3009,21.14,2022-08-17 13:48:45.640625
3010,20.12,2022-08-17 13:48:45.656250
3011,18.55,2022-08-17 13:48:45.671875
3012,16.55,2022-08-17 13:48:45.687500
3013,14.23,2022-08-17 13:48:45.703125
3014,11.67,2022-08-17 13:48:45.718750
3015,9.04,2022-08-17 13:48:45.734375
3016,6.59,2022-08-17 13:48:45.750000
3017,4.59,2022-08-17 13:48:45.765625
3018,3.28,2022-08-17 13:48:45.781250
3019,2.74,2022-08-17 13:48:45.796875
3020,2.93,2022-08-17 13:48:45.812500
3021,3.63,2022-08-17 13:48:45.828125
3022,4.57,2022-08-17 13:48:45.843750
3023,5.49,2022-08-17 13:48:45.859375
3024,6.22,2022-08-17 13:48:45.875000
3025,6.68,2022-08-17 13:48:45.890625
3026,6.84,2022-08-17 13:48:45.906250
3027,6.7,2022-08-17 13:48:45.921875
3028,6.23,2022-08-17 13:48:45.937500
3029,5.42,2022-08-17 13:48:45.953125
3030,4.29,2022-08-17 13:48:45.968750
3031,2.93,2022-08-17 13:48:45.984375
3032,1.48,2022-08-17 13:48:46.000000
3033,0.07,2022-08-17 13:48:46.015625
3034,-1.19,2022-08-17 13:48:46.031250
3035,-2.25,2022-08-17 13:48:46.046875
3036,-3.14,2022-08-17 13:48:46.062500
3037,-3.91,2022-08-17 13:48:46.078125
3038,-4.64,2022-08-17 13:48:46.093750
3039,-5.45,2022-08-17 13:48:46.109375
3040,-6.47,2022-08-17 13:48:46.125000
3041,-7.82,2022-08-17 13:48:46.140625
3042,-9.52,2022-08-17 13:48:46.156250
3043,-11.47,2022-08-17 13:48:46.171875
3044,-13.4,2022-08-17 13:48:46.187500
3045,-14.87,2022-08-17 13:48:46.203125
3046,-15.44,2022-08-17 13:48:46.218750
3047,-14.74,2022-08-17 13:48:46.234375
3048,-12.62,2022-08-17 13:48:46.250000
3049,-9.19,2022-08-17 13:48:46.265625
3050,-4.76,2022-08-17 13:48:46.281250
3051,0.19,2022-08-17 13:48:46.296875
3052,5.14,2022-08-17 13:48:46.312500
3053,9.55,2022-08-17 13:48:46.328125
3054,13.01,2022-08-17 13:48:46.343750
3055,15.21,2022-08-17 13:48:46.359375
3056,16.03,2022-08-17 13:48:46.375000
3057,15.52,2022-08-17 13:48:46.390625
3058,13.88,2022-08-17 13:48:46.406250
3059,11.43,2022-08-17 13:48:46.421875
3060,8.54,2022-08-17 13:48:46.437500
3061,5.52,2022-08-17 13:48:46.453125
3062,2.63,2022-08-17 13:48:46.468750
3063,0.06,2022-08-17 13:48:46.484375
3064,-2.06,2022-08-17 13:48:46.500000
3065,-3.57,2022-08-17 13:48:46.515625
3066,-4.36,2022-08-17 13:48:46.531250
3067,-4.37,2022-08-17 13:48:46.546875
3068,-3.66,2022-08-17 13:48:46.562500
3069,-2.46,2022-08-17 13:48:46.578125
3070,-1.08,2022-08-17 13:48:46.593750
3071,0.17,2022-08-17 13:48:46.609375
3072,1.08,2022-08-17 13:48:46.625000
3073,1.55,2022-08-17 13:48:46.640625
3074,1.6,2022-08-17 13:48:46.656250
3075,1.3,2022-08-17 13:48:46.671875
3076,0.67,2022-08-17 13:48:46.687500
3077,-0.3,2022-08-17 13:48:46.703125
3078,-1.58,2022-08-17 13:48:46.718750
3079,-3.09,2022-08-17 13:48:46.734375
3080,-4.69,2022-08-17 13:48:46.750000
3081,-6.24,2022-08-17 13:48:46.765625
3082,-7.63,2022-08-17 13:48:46.781250
3083,-8.88,2022-08-17 13:48:46.796875
3084,-10.06,2022-08-17 13:48:46.812500
3085,-11.25,2022-08-17 13:48:46.828125
3086,-12.46,2022-08-17 13:48:46.843750
3087,-13.66,2022-08-17 13:48:46.859375
3088,-14.83,2022-08-17 13:48:46.875000
3089,-15.94,2022-08-17 13:48:46.890625
3090,-17.05,2022-08-17 13:48:46.906250
3091,-18.26,2022-08-17 13:48:46.921875
3092,-19.63,2022-08-17 13:48:46.937500
3093,-21.12,2022-08-17 13:48:46.953125
3094,-22.5,2022-08-17 13:48:46.968750
3095,-23.39,2022-08-17 13:48:46.984375
3096,-23.3,2022-08-17 13:48:47.000000
3097,-21.8,2022-08-17 13:48:47.015625
3098,-18.63,2022-08-17 13:48:47.031250
3099,-13.88,2022-08-17 13:48:47.046875
3100,-8.01,2022-08-17 13:48:47.062500
3101,-1.72,2022-08-17 13:48:47.078125
3102,4.23,2022-08-17 13:48:47.093750
3103,9.19,2022-08-17 13:48:47.109375
3104,12.77,2022-08-17 13:48:47.125000
3105,14.91,2022-08-17 13:48:47.140625
3106,15.75,2022-08-17 13:48:47.156250
3107,15.57,2022-08-17 13:48:47.171875
3108,14.65,2022-08-17 13:48:47.187500
3109,13.25,2022-08-17 13:48:47.203125
3110,11.53,2022-08-17 13:48:47.218750
3111,9.6,2022-08-17 13:48:47.234375
3112,7.59,2022-08-17 13:48:47.250000
3113,5.59,2022-08-17 13:48:47.265625
3114,3.75,2022-08-17 13:48:47.281250
3115,2.23,2022-08-17 13:48:47.296875
3116,1.14,2022-08-17 13:48:47.312500
3117,0.56,2022-08-17 13:48:47.328125
3118,0.5,2022-08-17 13:48:47.343750
3119,0.9,2022-08-17 13:48:47.359375
3120,1.65,2022-08-17 13:48:47.375000
3121,2.62,2022-08-17 13:48:47.390625
3122,3.65,2022-08-17 13:48:47.406250
3123,4.57,2022-08-17 13:48:47.421875
3124,5.2,2022-08-17 13:48:47.437500
3125,5.37,2022-08-17 13:48:47.453125
3126,4.96,2022-08-17 13:48:47.468750
3127,3.95,2022-08-17 13:48:47.484375
3128,2.41,2022-08-17 13:48:47.500000
3129,0.46,2022-08-17 13:48:47.515625
3130,-1.7,2022-08-17 13:48:47.531250
3131,-3.87,2022-08-17 13:48:47.546875
3132,-5.82,2022-08-17 13:48:47.562500
3133,-7.37,2022-08-17 13:48:47.578125
3134,-8.35,2022-08-17 13:48:47.593750
3135,-8.7,2022-08-17 13:48:47.609375
3136,-8.49,2022-08-17 13:48:47.625000
3137,-7.97,2022-08-17 13:48:47.640625
3138,-7.52,2022-08-17 13:48:47.656250
3139,-7.58,2022-08-17 13:48:47.671875
3140,-8.48,2022-08-17 13:48:47.687500
3141,-10.36,2022-08-17 13:48:47.703125
3142,-13.0,2022-08-17 13:48:47.718750
3143,-15.94,2022-08-17 13:48:47.734375
3144,-18.53,2022-08-17 13:48:47.750000
3145,-20.12,2022-08-17 13:48:47.765625
3146,-20.26,2022-08-17 13:48:47.781250
3147,-18.74,2022-08-17 13:48:47.796875
3148,-15.65,2022-08-17 13:48:47.812500
3149,-11.28,2022-08-17 13:48:47.828125
3150,-6.05,2022-08-17 13:48:47.843750
3151,-0.38,2022-08-17 13:48:47.859375
3152,5.32,2022-08-17 13:48:47.875000
3153,10.69,2022-08-17 13:48:47.890625
3154,15.42,2022-08-17 13:48:47.906250
3155,19.23,2022-08-17 13:48:47.921875
3156,21.95,2022-08-17 13:48:47.937500
3157,23.49,2022-08-17 13:48:47.953125
3158,23.85,2022-08-17 13:48:47.968750
3159,23.14,2022-08-17 13:48:47.984375
3160,21.48,2022-08-17 13:48:48.000000
3161,19.04,2022-08-17 13:48:48.015625
3162,16.03,2022-08-17 13:48:48.031250
3163,12.67,2022-08-17 13:48:48.046875
3164,9.22,2022-08-17 13:48:48.062500
3165,5.9,2022-08-17 13:48:48.078125
3166,2.92,2022-08-17 13:48:48.093750
3167,0.43,2022-08-17 13:48:48.109375
3168,-1.49,2022-08-17 13:48:48.125000
3169,-2.73,2022-08-17 13:48:48.140625
3170,-3.29,2022-08-17 13:48:48.156250
3171,-3.17,2022-08-17 13:48:48.171875
3172,-2.48,2022-08-17 13:48:48.187500
3173,-1.45,2022-08-17 13:48:48.203125
3174,-0.36,2022-08-17 13:48:48.218750
3175,0.51,2022-08-17 13:48:48.234375
3176,0.98,2022-08-17 13:48:48.250000
3177,1.02,2022-08-17 13:48:48.265625
3178,0.69,2022-08-17 13:48:48.281250
3179,0.14,2022-08-17 13:48:48.296875
3180,-0.51,2022-08-17 13:48:48.312500
3181,-1.18,2022-08-17 13:48:48.328125
3182,-1.83,2022-08-17 13:48:48.343750
3183,-2.45,2022-08-17 13:48:48.359375
3184,-3.04,2022-08-17 13:48:48.375000
