,BVP,time
0,-49.78,2021-12-17 17:46:21.781250
1,-54.48,2021-12-17 17:46:21.796875
2,-59.87,2021-12-17 17:46:21.812500
3,-65.31,2021-12-17 17:46:21.828125
4,-69.72,2021-12-17 17:46:21.843750
5,-71.87,2021-12-17 17:46:21.859375
6,-70.85,2021-12-17 17:46:21.875000
7,-66.46,2021-12-17 17:46:21.890625
8,-59.3,2021-12-17 17:46:21.906250
9,-50.6,2021-12-17 17:46:21.921875
10,-41.59,2021-12-17 17:46:21.937500
11,-33.22,2021-12-17 17:46:21.953125
12,-25.71,2021-12-17 17:46:21.968750
13,-18.76,2021-12-17 17:46:21.984375
14,-11.6,2021-12-17 17:46:22.000000
15,-3.36,2021-12-17 17:46:22.015625
16,6.68,2021-12-17 17:46:22.031250
17,18.88,2021-12-17 17:46:22.046875
18,33.14,2021-12-17 17:46:22.062500
19,48.85,2021-12-17 17:46:22.078125
20,64.97,2021-12-17 17:46:22.093750
21,80.39,2021-12-17 17:46:22.109375
22,94.22,2021-12-17 17:46:22.125000
23,106.27,2021-12-17 17:46:22.140625
24,117.02,2021-12-17 17:46:22.156250
25,127.34,2021-12-17 17:46:22.171875
26,137.83,2021-12-17 17:46:22.187500
27,148.3,2021-12-17 17:46:22.203125
28,157.7,2021-12-17 17:46:22.218750
29,164.59,2021-12-17 17:46:22.234375
30,167.9,2021-12-17 17:46:22.250000
31,167.71,2021-12-17 17:46:22.265625
32,165.55,2021-12-17 17:46:22.281250
33,163.92,2021-12-17 17:46:22.296875
34,165.25,2021-12-17 17:46:22.312500
35,170.67,2021-12-17 17:46:22.328125
36,179.25,2021-12-17 17:46:22.343750
37,188.13,2021-12-17 17:46:22.359375
38,193.47,2021-12-17 17:46:22.375000
39,191.97,2021-12-17 17:46:22.390625
40,182.27,2021-12-17 17:46:22.406250
41,165.56,2021-12-17 17:46:22.421875
42,145.28,2021-12-17 17:46:22.437500
43,126.01,2021-12-17 17:46:22.453125
44,112.03,2021-12-17 17:46:22.468750
45,105.74,2021-12-17 17:46:22.484375
46,106.7,2021-12-17 17:46:22.500000
47,111.32,2021-12-17 17:46:22.515625
48,113.53,2021-12-17 17:46:22.531250
49,106.35,2021-12-17 17:46:22.546875
50,84.04,2021-12-17 17:46:22.562500
51,44.29,2021-12-17 17:46:22.578125
52,-10.73,2021-12-17 17:46:22.593750
53,-74.68,2021-12-17 17:46:22.609375
54,-138.84,2021-12-17 17:46:22.625000
55,-194.94,2021-12-17 17:46:22.640625
56,-237.51,2021-12-17 17:46:22.656250
57,-265.11,2021-12-17 17:46:22.671875
58,-280.14,2021-12-17 17:46:22.687500
59,-287.2,2021-12-17 17:46:22.703125
60,-290.97,2021-12-17 17:46:22.718750
61,-294.37,2021-12-17 17:46:22.734375
62,-297.27,2021-12-17 17:46:22.750000
63,-296.42,2021-12-17 17:46:22.765625
64,-286.45,2021-12-17 17:46:22.781250
65,-261.87,2021-12-17 17:46:22.796875
66,-219.73,2021-12-17 17:46:22.812500
67,-161.67,2021-12-17 17:46:22.828125
68,-94.29,2021-12-17 17:46:22.843750
69,-27.42,2021-12-17 17:46:22.859375
70,29.02,2021-12-17 17:46:22.875000
71,68.26,2021-12-17 17:46:22.890625
72,88.36,2021-12-17 17:46:22.906250
73,91.75,2021-12-17 17:46:22.921875
74,83.19,2021-12-17 17:46:22.937500
75,67.56,2021-12-17 17:46:22.953125
76,48.79,2021-12-17 17:46:22.968750
77,29.98,2021-12-17 17:46:22.984375
78,14.27,2021-12-17 17:46:23.000000
79,5.03,2021-12-17 17:46:23.015625
80,5.24,2021-12-17 17:46:23.031250
81,16.05,2021-12-17 17:46:23.046875
82,35.74,2021-12-17 17:46:23.062500
83,60.09,2021-12-17 17:46:23.078125
84,83.78,2021-12-17 17:46:23.093750
85,102.21,2021-12-17 17:46:23.109375
86,112.97,2021-12-17 17:46:23.125000
87,115.89,2021-12-17 17:46:23.140625
88,112.38,2021-12-17 17:46:23.156250
89,104.5,2021-12-17 17:46:23.171875
90,94.01,2021-12-17 17:46:23.187500
91,81.98,2021-12-17 17:46:23.203125
92,68.86,2021-12-17 17:46:23.218750
93,54.78,2021-12-17 17:46:23.234375
94,39.84,2021-12-17 17:46:23.250000
95,24.44,2021-12-17 17:46:23.265625
96,9.33,2021-12-17 17:46:23.281250
97,-4.34,2021-12-17 17:46:23.296875
98,-15.28,2021-12-17 17:46:23.312500
99,-22.51,2021-12-17 17:46:23.328125
100,-25.76,2021-12-17 17:46:23.343750
101,-25.64,2021-12-17 17:46:23.359375
102,-23.45,2021-12-17 17:46:23.375000
103,-20.71,2021-12-17 17:46:23.390625
104,-18.64,2021-12-17 17:46:23.406250
105,-17.87,2021-12-17 17:46:23.421875
106,-18.53,2021-12-17 17:46:23.437500
107,-20.43,2021-12-17 17:46:23.453125
108,-23.43,2021-12-17 17:46:23.468750
109,-27.43,2021-12-17 17:46:23.484375
110,-32.37,2021-12-17 17:46:23.500000
111,-38.03,2021-12-17 17:46:23.515625
112,-44.01,2021-12-17 17:46:23.531250
113,-49.83,2021-12-17 17:46:23.546875
114,-55.13,2021-12-17 17:46:23.562500
115,-59.84,2021-12-17 17:46:23.578125
116,-64.16,2021-12-17 17:46:23.593750
117,-68.34,2021-12-17 17:46:23.609375
118,-72.46,2021-12-17 17:46:23.625000
119,-76.3,2021-12-17 17:46:23.640625
120,-79.36,2021-12-17 17:46:23.656250
121,-80.99,2021-12-17 17:46:23.671875
122,-80.53,2021-12-17 17:46:23.687500
123,-77.59,2021-12-17 17:46:23.703125
124,-72.33,2021-12-17 17:46:23.718750
125,-65.61,2021-12-17 17:46:23.734375
126,-59.05,2021-12-17 17:46:23.750000
127,-54.77,2021-12-17 17:46:23.765625
128,-54.94,2021-12-17 17:46:23.781250
129,-61.04,2021-12-17 17:46:23.796875
130,-73.45,2021-12-17 17:46:23.812500
131,-91.26,2021-12-17 17:46:23.828125
132,-112.72,2021-12-17 17:46:23.843750
133,-135.74,2021-12-17 17:46:23.859375
134,-158.49,2021-12-17 17:46:23.875000
135,-179.64,2021-12-17 17:46:23.890625
136,-198.27,2021-12-17 17:46:23.906250
137,-213.63,2021-12-17 17:46:23.921875
138,-224.96,2021-12-17 17:46:23.937500
139,-231.59,2021-12-17 17:46:23.953125
140,-233.1,2021-12-17 17:46:23.968750
141,-229.63,2021-12-17 17:46:23.984375
142,-221.92,2021-12-17 17:46:24.000000
143,-211.15,2021-12-17 17:46:24.015625
144,-198.52,2021-12-17 17:46:24.031250
145,-184.76,2021-12-17 17:46:24.046875
146,-169.9,2021-12-17 17:46:24.062500
147,-153.3,2021-12-17 17:46:24.078125
148,-134.18,2021-12-17 17:46:24.093750
149,-112.29,2021-12-17 17:46:24.109375
150,-88.39,2021-12-17 17:46:24.125000
151,-64.38,2021-12-17 17:46:24.140625
152,-42.77,2021-12-17 17:46:24.156250
153,-25.69,2021-12-17 17:46:24.171875
154,-13.96,2021-12-17 17:46:24.187500
155,-6.49,2021-12-17 17:46:24.203125
156,-0.48,2021-12-17 17:46:24.218750
157,7.61,2021-12-17 17:46:24.234375
158,20.82,2021-12-17 17:46:24.250000
159,40.74,2021-12-17 17:46:24.265625
160,67.16,2021-12-17 17:46:24.281250
161,98.4,2021-12-17 17:46:24.296875
162,132.31,2021-12-17 17:46:24.312500
163,167.04,2021-12-17 17:46:24.328125
164,201.56,2021-12-17 17:46:24.343750
165,235.83,2021-12-17 17:46:24.359375
166,270.62,2021-12-17 17:46:24.375000
167,307.29,2021-12-17 17:46:24.390625
168,347.1,2021-12-17 17:46:24.406250
169,390.2,2021-12-17 17:46:24.421875
170,434.44,2021-12-17 17:46:24.437500
171,474.91,2021-12-17 17:46:24.453125
172,504.64,2021-12-17 17:46:24.468750
173,516.57,2021-12-17 17:46:24.484375
174,506.18,2021-12-17 17:46:24.500000
175,473.37,2021-12-17 17:46:24.515625
176,422.66,2021-12-17 17:46:24.531250
177,361.65,2021-12-17 17:46:24.546875
178,298.33,2021-12-17 17:46:24.562500
179,238.89,2021-12-17 17:46:24.578125
180,186.65,2021-12-17 17:46:24.593750
181,142.41,2021-12-17 17:46:24.609375
182,105.31,2021-12-17 17:46:24.625000
183,73.62,2021-12-17 17:46:24.640625
184,44.78,2021-12-17 17:46:24.656250
185,15.52,2021-12-17 17:46:24.671875
186,-17.65,2021-12-17 17:46:24.687500
187,-57.16,2021-12-17 17:46:24.703125
188,-102.98,2021-12-17 17:46:24.718750
189,-151.61,2021-12-17 17:46:24.734375
190,-196.81,2021-12-17 17:46:24.750000
191,-231.53,2021-12-17 17:46:24.765625
192,-250.37,2021-12-17 17:46:24.781250
193,-251.9,2021-12-17 17:46:24.796875
194,-239.52,2021-12-17 17:46:24.812500
195,-220.67,2021-12-17 17:46:24.828125
196,-204.75,2021-12-17 17:46:24.843750
197,-199.75,2021-12-17 17:46:24.859375
198,-208.94,2021-12-17 17:46:24.875000
199,-229.08,2021-12-17 17:46:24.890625
200,-251.06,2021-12-17 17:46:24.906250
201,-263.33,2021-12-17 17:46:24.921875
202,-256.92,2021-12-17 17:46:24.937500
203,-229.59,2021-12-17 17:46:24.953125
204,-186.77,2021-12-17 17:46:24.968750
205,-139.2,2021-12-17 17:46:24.984375
206,-97.94,2021-12-17 17:46:25.000000
207,-69.83,2021-12-17 17:46:25.015625
208,-55.59,2021-12-17 17:46:25.031250
209,-51.0,2021-12-17 17:46:25.046875
210,-50.18,2021-12-17 17:46:25.062500
211,-48.37,2021-12-17 17:46:25.078125
212,-42.8,2021-12-17 17:46:25.093750
213,-31.99,2021-12-17 17:46:25.109375
214,-14.84,2021-12-17 17:46:25.125000
215,9.17,2021-12-17 17:46:25.140625
216,38.61,2021-12-17 17:46:25.156250
217,69.15,2021-12-17 17:46:25.171875
218,94.37,2021-12-17 17:46:25.187500
219,108.23,2021-12-17 17:46:25.203125
220,107.69,2021-12-17 17:46:25.218750
221,94.16,2021-12-17 17:46:25.234375
222,72.57,2021-12-17 17:46:25.250000
223,48.98,2021-12-17 17:46:25.265625
224,28.16,2021-12-17 17:46:25.281250
225,12.36,2021-12-17 17:46:25.296875
226,1.51,2021-12-17 17:46:25.312500
227,-5.79,2021-12-17 17:46:25.328125
228,-11.73,2021-12-17 17:46:25.343750
229,-19.31,2021-12-17 17:46:25.359375
230,-32.03,2021-12-17 17:46:25.375000
231,-52.86,2021-12-17 17:46:25.390625
232,-82.03,2021-12-17 17:46:25.406250
233,-115.15,2021-12-17 17:46:25.421875
234,-143.23,2021-12-17 17:46:25.437500
235,-155.91,2021-12-17 17:46:25.453125
236,-145.92,2021-12-17 17:46:25.468750
237,-112.96,2021-12-17 17:46:25.484375
238,-64.28,2021-12-17 17:46:25.500000
239,-11.56,2021-12-17 17:46:25.515625
240,33.99,2021-12-17 17:46:25.531250
241,65.77,2021-12-17 17:46:25.546875
242,82.85,2021-12-17 17:46:25.562500
243,88.43,2021-12-17 17:46:25.578125
244,87.66,2021-12-17 17:46:25.593750
245,86.11,2021-12-17 17:46:25.609375
246,89.29,2021-12-17 17:46:25.625000
247,102.21,2021-12-17 17:46:25.640625
248,127.52,2021-12-17 17:46:25.656250
249,162.97,2021-12-17 17:46:25.671875
250,200.07,2021-12-17 17:46:25.687500
251,225.9,2021-12-17 17:46:25.703125
252,228.58,2021-12-17 17:46:25.718750
253,203.62,2021-12-17 17:46:25.734375
254,157.35,2021-12-17 17:46:25.750000
255,105.14,2021-12-17 17:46:25.765625
256,64.89,2021-12-17 17:46:25.781250
257,49.4,2021-12-17 17:46:25.796875
258,61.56,2021-12-17 17:46:25.812500
259,94.26,2021-12-17 17:46:25.828125
260,134.25,2021-12-17 17:46:25.843750
261,167.56,2021-12-17 17:46:25.859375
262,183.83,2021-12-17 17:46:25.875000
263,177.99,2021-12-17 17:46:25.890625
264,150.22,2021-12-17 17:46:25.906250
265,104.65,2021-12-17 17:46:25.921875
266,48.03,2021-12-17 17:46:25.937500
267,-11.73,2021-12-17 17:46:25.953125
268,-66.85,2021-12-17 17:46:25.968750
269,-111.02,2021-12-17 17:46:25.984375
270,-140.4,2021-12-17 17:46:26.000000
271,-154.12,2021-12-17 17:46:26.015625
272,-154.09,2021-12-17 17:46:26.031250
273,-143.81,2021-12-17 17:46:26.046875
274,-127.15,2021-12-17 17:46:26.062500
275,-107.41,2021-12-17 17:46:26.078125
276,-86.64,2021-12-17 17:46:26.093750
277,-65.8,2021-12-17 17:46:26.109375
278,-45.35,2021-12-17 17:46:26.125000
279,-25.5,2021-12-17 17:46:26.140625
280,-6.64,2021-12-17 17:46:26.156250
281,10.68,2021-12-17 17:46:26.171875
282,26.05,2021-12-17 17:46:26.187500
283,39.07,2021-12-17 17:46:26.203125
284,49.22,2021-12-17 17:46:26.218750
285,55.69,2021-12-17 17:46:26.234375
286,57.46,2021-12-17 17:46:26.250000
287,53.95,2021-12-17 17:46:26.265625
288,45.58,2021-12-17 17:46:26.281250
289,34.12,2021-12-17 17:46:26.296875
290,22.17,2021-12-17 17:46:26.312500
291,12.23,2021-12-17 17:46:26.328125
292,5.66,2021-12-17 17:46:26.343750
293,2.23,2021-12-17 17:46:26.359375
294,0.49,2021-12-17 17:46:26.375000
295,-1.43,2021-12-17 17:46:26.390625
296,-4.81,2021-12-17 17:46:26.406250
297,-9.9,2021-12-17 17:46:26.421875
298,-15.9,2021-12-17 17:46:26.437500
299,-21.48,2021-12-17 17:46:26.453125
300,-25.43,2021-12-17 17:46:26.468750
301,-27.16,2021-12-17 17:46:26.484375
302,-26.94,2021-12-17 17:46:26.500000
303,-25.67,2021-12-17 17:46:26.515625
304,-24.47,2021-12-17 17:46:26.531250
305,-24.26,2021-12-17 17:46:26.546875
306,-25.42,2021-12-17 17:46:26.562500
307,-27.75,2021-12-17 17:46:26.578125
308,-30.56,2021-12-17 17:46:26.593750
309,-32.99,2021-12-17 17:46:26.609375
310,-34.31,2021-12-17 17:46:26.625000
311,-34.21,2021-12-17 17:46:26.640625
312,-32.8,2021-12-17 17:46:26.656250
313,-30.5,2021-12-17 17:46:26.671875
314,-27.85,2021-12-17 17:46:26.687500
315,-25.26,2021-12-17 17:46:26.703125
316,-22.94,2021-12-17 17:46:26.718750
317,-20.9,2021-12-17 17:46:26.734375
318,-18.97,2021-12-17 17:46:26.750000
319,-17.02,2021-12-17 17:46:26.765625
320,-15.02,2021-12-17 17:46:26.781250
321,-13.07,2021-12-17 17:46:26.796875
322,-11.37,2021-12-17 17:46:26.812500
323,-10.14,2021-12-17 17:46:26.828125
324,-9.53,2021-12-17 17:46:26.843750
325,-9.5,2021-12-17 17:46:26.859375
326,-9.91,2021-12-17 17:46:26.875000
327,-10.46,2021-12-17 17:46:26.890625
328,-10.9,2021-12-17 17:46:26.906250
329,-11.1,2021-12-17 17:46:26.921875
330,-11.04,2021-12-17 17:46:26.937500
331,-10.83,2021-12-17 17:46:26.953125
332,-10.55,2021-12-17 17:46:26.968750
333,-10.3,2021-12-17 17:46:26.984375
334,-10.03,2021-12-17 17:46:27.000000
335,-9.77,2021-12-17 17:46:27.015625
336,-9.52,2021-12-17 17:46:27.031250
337,-9.35,2021-12-17 17:46:27.046875
338,-9.36,2021-12-17 17:46:27.062500
339,-9.63,2021-12-17 17:46:27.078125
340,-10.21,2021-12-17 17:46:27.093750
341,-11.08,2021-12-17 17:46:27.109375
342,-12.19,2021-12-17 17:46:27.125000
343,-13.43,2021-12-17 17:46:27.140625
344,-14.76,2021-12-17 17:46:27.156250
345,-16.12,2021-12-17 17:46:27.171875
346,-17.53,2021-12-17 17:46:27.187500
347,-18.92,2021-12-17 17:46:27.203125
348,-20.18,2021-12-17 17:46:27.218750
349,-21.08,2021-12-17 17:46:27.234375
350,-21.27,2021-12-17 17:46:27.250000
351,-20.38,2021-12-17 17:46:27.265625
352,-18.18,2021-12-17 17:46:27.281250
353,-14.67,2021-12-17 17:46:27.296875
354,-10.12,2021-12-17 17:46:27.312500
355,-5.02,2021-12-17 17:46:27.328125
356,0.08,2021-12-17 17:46:27.343750
357,4.74,2021-12-17 17:46:27.359375
358,8.61,2021-12-17 17:46:27.375000
359,11.53,2021-12-17 17:46:27.390625
360,13.47,2021-12-17 17:46:27.406250
361,14.46,2021-12-17 17:46:27.421875
362,14.59,2021-12-17 17:46:27.437500
363,14.01,2021-12-17 17:46:27.453125
364,12.93,2021-12-17 17:46:27.468750
365,11.64,2021-12-17 17:46:27.484375
366,10.45,2021-12-17 17:46:27.500000
367,9.64,2021-12-17 17:46:27.515625
368,9.39,2021-12-17 17:46:27.531250
369,9.76,2021-12-17 17:46:27.546875
370,10.61,2021-12-17 17:46:27.562500
371,11.7,2021-12-17 17:46:27.578125
372,12.7,2021-12-17 17:46:27.593750
373,13.39,2021-12-17 17:46:27.609375
374,13.64,2021-12-17 17:46:27.625000
375,13.41,2021-12-17 17:46:27.640625
376,12.78,2021-12-17 17:46:27.656250
377,11.82,2021-12-17 17:46:27.671875
378,10.61,2021-12-17 17:46:27.687500
379,9.29,2021-12-17 17:46:27.703125
380,8.03,2021-12-17 17:46:27.718750
381,7.02,2021-12-17 17:46:27.734375
382,6.38,2021-12-17 17:46:27.750000
383,6.13,2021-12-17 17:46:27.765625
384,6.18,2021-12-17 17:46:27.781250
385,6.35,2021-12-17 17:46:27.796875
386,6.52,2021-12-17 17:46:27.812500
387,6.64,2021-12-17 17:46:27.828125
388,6.75,2021-12-17 17:46:27.843750
389,6.95,2021-12-17 17:46:27.859375
390,7.29,2021-12-17 17:46:27.875000
391,7.69,2021-12-17 17:46:27.890625
392,8.09,2021-12-17 17:46:27.906250
393,8.35,2021-12-17 17:46:27.921875
394,8.43,2021-12-17 17:46:27.937500
395,8.27,2021-12-17 17:46:27.953125
396,7.91,2021-12-17 17:46:27.968750
397,7.35,2021-12-17 17:46:27.984375
398,6.63,2021-12-17 17:46:28.000000
399,5.81,2021-12-17 17:46:28.015625
400,4.94,2021-12-17 17:46:28.031250
401,4.11,2021-12-17 17:46:28.046875
402,3.35,2021-12-17 17:46:28.062500
403,2.7,2021-12-17 17:46:28.078125
404,2.14,2021-12-17 17:46:28.093750
405,1.71,2021-12-17 17:46:28.109375
406,1.44,2021-12-17 17:46:28.125000
407,1.41,2021-12-17 17:46:28.140625
408,1.64,2021-12-17 17:46:28.156250
409,2.08,2021-12-17 17:46:28.171875
410,2.61,2021-12-17 17:46:28.187500
411,3.06,2021-12-17 17:46:28.203125
412,3.27,2021-12-17 17:46:28.218750
413,3.13,2021-12-17 17:46:28.234375
414,2.63,2021-12-17 17:46:28.250000
415,1.86,2021-12-17 17:46:28.265625
416,0.93,2021-12-17 17:46:28.281250
417,-0.04,2021-12-17 17:46:28.296875
418,-0.96,2021-12-17 17:46:28.312500
419,-1.83,2021-12-17 17:46:28.328125
420,-2.67,2021-12-17 17:46:28.343750
421,-3.48,2021-12-17 17:46:28.359375
422,-4.22,2021-12-17 17:46:28.375000
423,-4.78,2021-12-17 17:46:28.390625
424,-5.01,2021-12-17 17:46:28.406250
425,-4.83,2021-12-17 17:46:28.421875
426,-4.2,2021-12-17 17:46:28.437500
427,-3.17,2021-12-17 17:46:28.453125
428,-1.86,2021-12-17 17:46:28.468750
429,-0.4,2021-12-17 17:46:28.484375
430,1.05,2021-12-17 17:46:28.500000
431,2.37,2021-12-17 17:46:28.515625
432,3.51,2021-12-17 17:46:28.531250
433,4.46,2021-12-17 17:46:28.546875
434,5.34,2021-12-17 17:46:28.562500
435,6.29,2021-12-17 17:46:28.578125
436,7.47,2021-12-17 17:46:28.593750
437,8.94,2021-12-17 17:46:28.609375
438,10.63,2021-12-17 17:46:28.625000
439,12.3,2021-12-17 17:46:28.640625
440,13.63,2021-12-17 17:46:28.656250
441,14.33,2021-12-17 17:46:28.671875
442,14.24,2021-12-17 17:46:28.687500
443,13.4,2021-12-17 17:46:28.703125
444,12.11,2021-12-17 17:46:28.718750
445,10.74,2021-12-17 17:46:28.734375
446,9.61,2021-12-17 17:46:28.750000
447,8.91,2021-12-17 17:46:28.765625
448,8.64,2021-12-17 17:46:28.781250
449,8.66,2021-12-17 17:46:28.796875
450,8.84,2021-12-17 17:46:28.812500
451,9.12,2021-12-17 17:46:28.828125
452,9.5,2021-12-17 17:46:28.843750
453,10.07,2021-12-17 17:46:28.859375
454,10.75,2021-12-17 17:46:28.875000
455,11.39,2021-12-17 17:46:28.890625
456,11.76,2021-12-17 17:46:28.906250
457,11.58,2021-12-17 17:46:28.921875
458,10.67,2021-12-17 17:46:28.937500
459,9.02,2021-12-17 17:46:28.953125
460,6.77,2021-12-17 17:46:28.968750
461,4.15,2021-12-17 17:46:28.984375
462,1.44,2021-12-17 17:46:29.000000
463,-1.14,2021-12-17 17:46:29.015625
464,-3.42,2021-12-17 17:46:29.031250
465,-5.36,2021-12-17 17:46:29.046875
466,-6.97,2021-12-17 17:46:29.062500
467,-8.3,2021-12-17 17:46:29.078125
468,-9.42,2021-12-17 17:46:29.093750
469,-10.34,2021-12-17 17:46:29.109375
470,-11.07,2021-12-17 17:46:29.125000
471,-11.64,2021-12-17 17:46:29.140625
472,-12.12,2021-12-17 17:46:29.156250
473,-12.61,2021-12-17 17:46:29.171875
474,-13.21,2021-12-17 17:46:29.187500
475,-13.97,2021-12-17 17:46:29.203125
476,-14.8,2021-12-17 17:46:29.218750
477,-15.58,2021-12-17 17:46:29.234375
478,-16.17,2021-12-17 17:46:29.250000
479,-16.5,2021-12-17 17:46:29.265625
480,-16.55,2021-12-17 17:46:29.281250
481,-16.34,2021-12-17 17:46:29.296875
482,-15.89,2021-12-17 17:46:29.312500
483,-15.21,2021-12-17 17:46:29.328125
484,-14.38,2021-12-17 17:46:29.343750
485,-13.45,2021-12-17 17:46:29.359375
486,-12.5,2021-12-17 17:46:29.375000
487,-11.55,2021-12-17 17:46:29.390625
488,-10.56,2021-12-17 17:46:29.406250
489,-9.4,2021-12-17 17:46:29.421875
490,-8.01,2021-12-17 17:46:29.437500
491,-6.41,2021-12-17 17:46:29.453125
492,-4.74,2021-12-17 17:46:29.468750
493,-3.24,2021-12-17 17:46:29.484375
494,-2.06,2021-12-17 17:46:29.500000
495,-1.19,2021-12-17 17:46:29.515625
496,-0.51,2021-12-17 17:46:29.531250
497,0.18,2021-12-17 17:46:29.546875
498,0.98,2021-12-17 17:46:29.562500
499,1.88,2021-12-17 17:46:29.578125
500,2.77,2021-12-17 17:46:29.593750
501,3.52,2021-12-17 17:46:29.609375
502,4.08,2021-12-17 17:46:29.625000
503,4.41,2021-12-17 17:46:29.640625
504,4.53,2021-12-17 17:46:29.656250
505,4.44,2021-12-17 17:46:29.671875
506,4.15,2021-12-17 17:46:29.687500
507,3.7,2021-12-17 17:46:29.703125
508,3.18,2021-12-17 17:46:29.718750
509,2.75,2021-12-17 17:46:29.734375
510,2.53,2021-12-17 17:46:29.750000
511,2.6,2021-12-17 17:46:29.765625
512,2.96,2021-12-17 17:46:29.781250
513,3.55,2021-12-17 17:46:29.796875
514,4.27,2021-12-17 17:46:29.812500
515,5.07,2021-12-17 17:46:29.828125
516,5.85,2021-12-17 17:46:29.843750
517,6.56,2021-12-17 17:46:29.859375
518,7.07,2021-12-17 17:46:29.875000
519,7.32,2021-12-17 17:46:29.890625
520,7.28,2021-12-17 17:46:29.906250
521,7.02,2021-12-17 17:46:29.921875
522,6.65,2021-12-17 17:46:29.937500
523,6.27,2021-12-17 17:46:29.953125
524,5.92,2021-12-17 17:46:29.968750
525,5.54,2021-12-17 17:46:29.984375
526,5.04,2021-12-17 17:46:30.000000
527,4.3,2021-12-17 17:46:30.015625
528,3.28,2021-12-17 17:46:30.031250
529,1.99,2021-12-17 17:46:30.046875
530,0.51,2021-12-17 17:46:30.062500
531,-1.05,2021-12-17 17:46:30.078125
532,-2.54,2021-12-17 17:46:30.093750
533,-3.87,2021-12-17 17:46:30.109375
534,-4.88,2021-12-17 17:46:30.125000
535,-5.48,2021-12-17 17:46:30.140625
536,-5.66,2021-12-17 17:46:30.156250
537,-5.5,2021-12-17 17:46:30.171875
538,-5.13,2021-12-17 17:46:30.187500
539,-4.75,2021-12-17 17:46:30.203125
540,-4.48,2021-12-17 17:46:30.218750
541,-4.35,2021-12-17 17:46:30.234375
542,-4.31,2021-12-17 17:46:30.250000
543,-4.26,2021-12-17 17:46:30.265625
544,-4.14,2021-12-17 17:46:30.281250
545,-3.96,2021-12-17 17:46:30.296875
546,-3.79,2021-12-17 17:46:30.312500
547,-3.75,2021-12-17 17:46:30.328125
548,-3.97,2021-12-17 17:46:30.343750
549,-4.46,2021-12-17 17:46:30.359375
550,-5.14,2021-12-17 17:46:30.375000
551,-5.82,2021-12-17 17:46:30.390625
552,-6.26,2021-12-17 17:46:30.406250
553,-6.26,2021-12-17 17:46:30.421875
554,-5.68,2021-12-17 17:46:30.437500
555,-4.53,2021-12-17 17:46:30.453125
556,-3.0,2021-12-17 17:46:30.468750
557,-1.35,2021-12-17 17:46:30.484375
558,0.16,2021-12-17 17:46:30.500000
559,1.32,2021-12-17 17:46:30.515625
560,2.06,2021-12-17 17:46:30.531250
561,2.41,2021-12-17 17:46:30.546875
562,2.44,2021-12-17 17:46:30.562500
563,2.27,2021-12-17 17:46:30.578125
564,2.04,2021-12-17 17:46:30.593750
565,1.87,2021-12-17 17:46:30.609375
566,1.79,2021-12-17 17:46:30.625000
567,1.82,2021-12-17 17:46:30.640625
568,1.92,2021-12-17 17:46:30.656250
569,2.01,2021-12-17 17:46:30.671875
570,2.03,2021-12-17 17:46:30.687500
571,1.94,2021-12-17 17:46:30.703125
572,1.76,2021-12-17 17:46:30.718750
573,1.51,2021-12-17 17:46:30.734375
574,1.23,2021-12-17 17:46:30.750000
575,0.92,2021-12-17 17:46:30.765625
576,0.65,2021-12-17 17:46:30.781250
577,0.41,2021-12-17 17:46:30.796875
578,0.24,2021-12-17 17:46:30.812500
579,0.16,2021-12-17 17:46:30.828125
580,0.14,2021-12-17 17:46:30.843750
581,0.14,2021-12-17 17:46:30.859375
582,0.14,2021-12-17 17:46:30.875000
583,0.13,2021-12-17 17:46:30.890625
584,0.13,2021-12-17 17:46:30.906250
585,0.15,2021-12-17 17:46:30.921875
586,0.16,2021-12-17 17:46:30.937500
587,0.18,2021-12-17 17:46:30.953125
588,0.19,2021-12-17 17:46:30.968750
589,0.22,2021-12-17 17:46:30.984375
590,0.25,2021-12-17 17:46:31.000000
591,0.2,2021-12-17 17:46:31.015625
592,-0.01,2021-12-17 17:46:31.031250
593,-0.5,2021-12-17 17:46:31.046875
594,-1.27,2021-12-17 17:46:31.062500
595,-2.19,2021-12-17 17:46:31.078125
596,-3.05,2021-12-17 17:46:31.093750
597,-3.6,2021-12-17 17:46:31.109375
598,-3.77,2021-12-17 17:46:31.125000
599,-3.63,2021-12-17 17:46:31.140625
600,-3.4,2021-12-17 17:46:31.156250
601,-3.27,2021-12-17 17:46:31.171875
602,-3.32,2021-12-17 17:46:31.187500
603,-3.47,2021-12-17 17:46:31.203125
604,-3.59,2021-12-17 17:46:31.218750
605,-3.59,2021-12-17 17:46:31.234375
606,-3.47,2021-12-17 17:46:31.250000
607,-3.4,2021-12-17 17:46:31.265625
608,-3.52,2021-12-17 17:46:31.281250
609,-3.93,2021-12-17 17:46:31.296875
610,-4.56,2021-12-17 17:46:31.312500
611,-5.25,2021-12-17 17:46:31.328125
612,-5.84,2021-12-17 17:46:31.343750
613,-6.17,2021-12-17 17:46:31.359375
614,-6.2,2021-12-17 17:46:31.375000
615,-5.92,2021-12-17 17:46:31.390625
616,-5.37,2021-12-17 17:46:31.406250
617,-4.54,2021-12-17 17:46:31.421875
618,-3.47,2021-12-17 17:46:31.437500
619,-2.22,2021-12-17 17:46:31.453125
620,-0.92,2021-12-17 17:46:31.468750
621,0.31,2021-12-17 17:46:31.484375
622,1.32,2021-12-17 17:46:31.500000
623,2.0,2021-12-17 17:46:31.515625
624,2.34,2021-12-17 17:46:31.531250
625,2.36,2021-12-17 17:46:31.546875
626,2.16,2021-12-17 17:46:31.562500
627,1.84,2021-12-17 17:46:31.578125
628,1.46,2021-12-17 17:46:31.593750
629,1.11,2021-12-17 17:46:31.609375
630,0.79,2021-12-17 17:46:31.625000
631,0.51,2021-12-17 17:46:31.640625
632,0.26,2021-12-17 17:46:31.656250
633,0.01,2021-12-17 17:46:31.671875
634,-0.22,2021-12-17 17:46:31.687500
635,-0.38,2021-12-17 17:46:31.703125
636,-0.42,2021-12-17 17:46:31.718750
637,-0.34,2021-12-17 17:46:31.734375
638,-0.19,2021-12-17 17:46:31.750000
639,-0.07,2021-12-17 17:46:31.765625
640,-0.05,2021-12-17 17:46:31.781250
641,-0.14,2021-12-17 17:46:31.796875
642,-0.31,2021-12-17 17:46:31.812500
643,-0.51,2021-12-17 17:46:31.828125
644,-0.65,2021-12-17 17:46:31.843750
645,-0.71,2021-12-17 17:46:31.859375
646,-0.74,2021-12-17 17:46:31.875000
647,-0.73,2021-12-17 17:46:31.890625
648,-0.7,2021-12-17 17:46:31.906250
649,-0.62,2021-12-17 17:46:31.921875
650,-0.44,2021-12-17 17:46:31.937500
651,-0.14,2021-12-17 17:46:31.953125
652,0.21,2021-12-17 17:46:31.968750
653,0.51,2021-12-17 17:46:31.984375
654,0.64,2021-12-17 17:46:32.000000
655,0.54,2021-12-17 17:46:32.015625
656,0.19,2021-12-17 17:46:32.031250
657,-0.3,2021-12-17 17:46:32.046875
658,-0.84,2021-12-17 17:46:32.062500
659,-1.3,2021-12-17 17:46:32.078125
660,-1.59,2021-12-17 17:46:32.093750
661,-1.71,2021-12-17 17:46:32.109375
662,-1.7,2021-12-17 17:46:32.125000
663,-1.65,2021-12-17 17:46:32.140625
664,-1.65,2021-12-17 17:46:32.156250
665,-1.83,2021-12-17 17:46:32.171875
666,-2.25,2021-12-17 17:46:32.187500
667,-2.91,2021-12-17 17:46:32.203125
668,-3.74,2021-12-17 17:46:32.218750
669,-4.69,2021-12-17 17:46:32.234375
670,-5.69,2021-12-17 17:46:32.250000
671,-6.64,2021-12-17 17:46:32.265625
672,-7.47,2021-12-17 17:46:32.281250
673,-7.99,2021-12-17 17:46:32.296875
674,-7.98,2021-12-17 17:46:32.312500
675,-7.28,2021-12-17 17:46:32.328125
676,-5.87,2021-12-17 17:46:32.343750
677,-3.99,2021-12-17 17:46:32.359375
678,-2.08,2021-12-17 17:46:32.375000
679,-0.54,2021-12-17 17:46:32.390625
680,0.36,2021-12-17 17:46:32.406250
681,0.64,2021-12-17 17:46:32.421875
682,0.52,2021-12-17 17:46:32.437500
683,0.31,2021-12-17 17:46:32.453125
684,0.25,2021-12-17 17:46:32.468750
685,0.43,2021-12-17 17:46:32.484375
686,0.79,2021-12-17 17:46:32.500000
687,1.26,2021-12-17 17:46:32.515625
688,1.77,2021-12-17 17:46:32.531250
689,2.33,2021-12-17 17:46:32.546875
690,2.9,2021-12-17 17:46:32.562500
691,3.46,2021-12-17 17:46:32.578125
692,3.88,2021-12-17 17:46:32.593750
693,4.06,2021-12-17 17:46:32.609375
694,3.92,2021-12-17 17:46:32.625000
695,3.48,2021-12-17 17:46:32.640625
696,2.82,2021-12-17 17:46:32.656250
697,2.03,2021-12-17 17:46:32.671875
698,1.21,2021-12-17 17:46:32.687500
699,0.45,2021-12-17 17:46:32.703125
700,-0.21,2021-12-17 17:46:32.718750
701,-0.81,2021-12-17 17:46:32.734375
702,-1.36,2021-12-17 17:46:32.750000
703,-1.95,2021-12-17 17:46:32.765625
704,-2.58,2021-12-17 17:46:32.781250
705,-3.28,2021-12-17 17:46:32.796875
706,-3.97,2021-12-17 17:46:32.812500
707,-4.53,2021-12-17 17:46:32.828125
708,-4.82,2021-12-17 17:46:32.843750
709,-4.7,2021-12-17 17:46:32.859375
710,-4.12,2021-12-17 17:46:32.875000
711,-3.17,2021-12-17 17:46:32.890625
712,-2.07,2021-12-17 17:46:32.906250
713,-1.04,2021-12-17 17:46:32.921875
714,-0.35,2021-12-17 17:46:32.937500
715,-0.09,2021-12-17 17:46:32.953125
716,-0.23,2021-12-17 17:46:32.968750
717,-0.66,2021-12-17 17:46:32.984375
718,-1.2,2021-12-17 17:46:33.000000
719,-1.71,2021-12-17 17:46:33.015625
720,-2.13,2021-12-17 17:46:33.031250
721,-2.49,2021-12-17 17:46:33.046875
722,-2.81,2021-12-17 17:46:33.062500
723,-3.16,2021-12-17 17:46:33.078125
724,-3.57,2021-12-17 17:46:33.093750
725,-4.02,2021-12-17 17:46:33.109375
726,-4.56,2021-12-17 17:46:33.125000
727,-5.17,2021-12-17 17:46:33.140625
728,-5.85,2021-12-17 17:46:33.156250
729,-6.62,2021-12-17 17:46:33.171875
730,-7.46,2021-12-17 17:46:33.187500
731,-8.26,2021-12-17 17:46:33.203125
732,-8.9,2021-12-17 17:46:33.218750
733,-9.22,2021-12-17 17:46:33.234375
734,-9.12,2021-12-17 17:46:33.250000
735,-8.59,2021-12-17 17:46:33.265625
736,-7.75,2021-12-17 17:46:33.281250
737,-6.8,2021-12-17 17:46:33.296875
738,-5.95,2021-12-17 17:46:33.312500
739,-5.29,2021-12-17 17:46:33.328125
740,-4.77,2021-12-17 17:46:33.343750
741,-4.26,2021-12-17 17:46:33.359375
742,-3.63,2021-12-17 17:46:33.375000
743,-2.86,2021-12-17 17:46:33.390625
744,-2.03,2021-12-17 17:46:33.406250
745,-1.28,2021-12-17 17:46:33.421875
746,-0.69,2021-12-17 17:46:33.437500
747,-0.26,2021-12-17 17:46:33.453125
748,0.17,2021-12-17 17:46:33.468750
749,0.71,2021-12-17 17:46:33.484375
750,1.44,2021-12-17 17:46:33.500000
751,2.26,2021-12-17 17:46:33.515625
752,3.06,2021-12-17 17:46:33.531250
753,3.68,2021-12-17 17:46:33.546875
754,4.07,2021-12-17 17:46:33.562500
755,4.34,2021-12-17 17:46:33.578125
756,4.56,2021-12-17 17:46:33.593750
757,4.8,2021-12-17 17:46:33.609375
758,5.05,2021-12-17 17:46:33.625000
759,5.2,2021-12-17 17:46:33.640625
760,5.16,2021-12-17 17:46:33.656250
761,4.9,2021-12-17 17:46:33.671875
762,4.51,2021-12-17 17:46:33.687500
763,4.08,2021-12-17 17:46:33.703125
764,3.77,2021-12-17 17:46:33.718750
765,3.58,2021-12-17 17:46:33.734375
766,3.47,2021-12-17 17:46:33.750000
767,3.35,2021-12-17 17:46:33.765625
768,3.14,2021-12-17 17:46:33.781250
769,2.82,2021-12-17 17:46:33.796875
770,2.43,2021-12-17 17:46:33.812500
771,2.04,2021-12-17 17:46:33.828125
772,1.67,2021-12-17 17:46:33.843750
773,1.29,2021-12-17 17:46:33.859375
774,0.85,2021-12-17 17:46:33.875000
775,0.34,2021-12-17 17:46:33.890625
776,-0.16,2021-12-17 17:46:33.906250
777,-0.58,2021-12-17 17:46:33.921875
778,-0.85,2021-12-17 17:46:33.937500
779,-0.95,2021-12-17 17:46:33.953125
780,-1.0,2021-12-17 17:46:33.968750
781,-1.15,2021-12-17 17:46:33.984375
782,-1.47,2021-12-17 17:46:34.000000
783,-1.99,2021-12-17 17:46:34.015625
784,-2.62,2021-12-17 17:46:34.031250
785,-3.26,2021-12-17 17:46:34.046875
786,-3.92,2021-12-17 17:46:34.062500
787,-4.65,2021-12-17 17:46:34.078125
788,-5.53,2021-12-17 17:46:34.093750
789,-6.53,2021-12-17 17:46:34.109375
790,-7.55,2021-12-17 17:46:34.125000
791,-8.38,2021-12-17 17:46:34.140625
792,-8.89,2021-12-17 17:46:34.156250
793,-9.02,2021-12-17 17:46:34.171875
794,-8.81,2021-12-17 17:46:34.187500
795,-8.27,2021-12-17 17:46:34.203125
796,-7.4,2021-12-17 17:46:34.218750
797,-6.12,2021-12-17 17:46:34.234375
798,-4.4,2021-12-17 17:46:34.250000
799,-2.36,2021-12-17 17:46:34.265625
800,-0.19,2021-12-17 17:46:34.281250
801,1.78,2021-12-17 17:46:34.296875
802,3.27,2021-12-17 17:46:34.312500
803,4.18,2021-12-17 17:46:34.328125
804,4.54,2021-12-17 17:46:34.343750
805,4.5,2021-12-17 17:46:34.359375
806,4.2,2021-12-17 17:46:34.375000
807,3.72,2021-12-17 17:46:34.390625
808,3.12,2021-12-17 17:46:34.406250
809,2.47,2021-12-17 17:46:34.421875
810,1.82,2021-12-17 17:46:34.437500
811,1.26,2021-12-17 17:46:34.453125
812,0.84,2021-12-17 17:46:34.468750
813,0.54,2021-12-17 17:46:34.484375
814,0.37,2021-12-17 17:46:34.500000
815,0.32,2021-12-17 17:46:34.515625
816,0.43,2021-12-17 17:46:34.531250
817,0.75,2021-12-17 17:46:34.546875
818,1.31,2021-12-17 17:46:34.562500
819,2.08,2021-12-17 17:46:34.578125
820,2.94,2021-12-17 17:46:34.593750
821,3.74,2021-12-17 17:46:34.609375
822,4.36,2021-12-17 17:46:34.625000
823,4.76,2021-12-17 17:46:34.640625
824,4.94,2021-12-17 17:46:34.656250
825,4.91,2021-12-17 17:46:34.671875
826,4.65,2021-12-17 17:46:34.687500
827,4.15,2021-12-17 17:46:34.703125
828,3.4,2021-12-17 17:46:34.718750
829,2.49,2021-12-17 17:46:34.734375
830,1.58,2021-12-17 17:46:34.750000
831,0.83,2021-12-17 17:46:34.765625
832,0.31,2021-12-17 17:46:34.781250
833,-0.04,2021-12-17 17:46:34.796875
834,-0.39,2021-12-17 17:46:34.812500
835,-0.91,2021-12-17 17:46:34.828125
836,-1.68,2021-12-17 17:46:34.843750
837,-2.64,2021-12-17 17:46:34.859375
838,-3.6,2021-12-17 17:46:34.875000
839,-4.37,2021-12-17 17:46:34.890625
840,-4.82,2021-12-17 17:46:34.906250
841,-5.01,2021-12-17 17:46:34.921875
842,-5.1,2021-12-17 17:46:34.937500
843,-5.33,2021-12-17 17:46:34.953125
844,-5.85,2021-12-17 17:46:34.968750
845,-6.68,2021-12-17 17:46:34.984375
846,-7.7,2021-12-17 17:46:35.000000
847,-8.65,2021-12-17 17:46:35.015625
848,-9.29,2021-12-17 17:46:35.031250
849,-9.42,2021-12-17 17:46:35.046875
850,-8.97,2021-12-17 17:46:35.062500
851,-7.9,2021-12-17 17:46:35.078125
852,-6.31,2021-12-17 17:46:35.093750
853,-4.29,2021-12-17 17:46:35.109375
854,-1.94,2021-12-17 17:46:35.125000
855,0.56,2021-12-17 17:46:35.140625
856,3.07,2021-12-17 17:46:35.156250
857,5.41,2021-12-17 17:46:35.171875
858,7.36,2021-12-17 17:46:35.187500
859,8.75,2021-12-17 17:46:35.203125
860,9.48,2021-12-17 17:46:35.218750
861,9.53,2021-12-17 17:46:35.234375
862,8.97,2021-12-17 17:46:35.250000
863,7.97,2021-12-17 17:46:35.265625
864,6.72,2021-12-17 17:46:35.281250
865,5.38,2021-12-17 17:46:35.296875
866,4.09,2021-12-17 17:46:35.312500
867,2.91,2021-12-17 17:46:35.328125
868,1.85,2021-12-17 17:46:35.343750
869,0.92,2021-12-17 17:46:35.359375
870,0.12,2021-12-17 17:46:35.375000
871,-0.53,2021-12-17 17:46:35.390625
872,-0.99,2021-12-17 17:46:35.406250
873,-1.23,2021-12-17 17:46:35.421875
874,-1.28,2021-12-17 17:46:35.437500
875,-1.17,2021-12-17 17:46:35.453125
876,-0.99,2021-12-17 17:46:35.468750
877,-0.81,2021-12-17 17:46:35.484375
878,-0.64,2021-12-17 17:46:35.500000
879,-0.54,2021-12-17 17:46:35.515625
880,-0.54,2021-12-17 17:46:35.531250
881,-0.7,2021-12-17 17:46:35.546875
882,-1.17,2021-12-17 17:46:35.562500
883,-2.05,2021-12-17 17:46:35.578125
884,-3.33,2021-12-17 17:46:35.593750
885,-4.88,2021-12-17 17:46:35.609375
886,-6.43,2021-12-17 17:46:35.625000
887,-7.73,2021-12-17 17:46:35.640625
888,-8.6,2021-12-17 17:46:35.656250
889,-9.09,2021-12-17 17:46:35.671875
890,-9.33,2021-12-17 17:46:35.687500
891,-9.55,2021-12-17 17:46:35.703125
892,-9.88,2021-12-17 17:46:35.718750
893,-10.33,2021-12-17 17:46:35.734375
894,-10.86,2021-12-17 17:46:35.750000
895,-11.36,2021-12-17 17:46:35.765625
896,-11.72,2021-12-17 17:46:35.781250
897,-11.89,2021-12-17 17:46:35.796875
898,-11.77,2021-12-17 17:46:35.812500
899,-11.32,2021-12-17 17:46:35.828125
900,-10.5,2021-12-17 17:46:35.843750
901,-9.39,2021-12-17 17:46:35.859375
902,-8.09,2021-12-17 17:46:35.875000
903,-6.8,2021-12-17 17:46:35.890625
904,-5.66,2021-12-17 17:46:35.906250
905,-4.75,2021-12-17 17:46:35.921875
906,-4.08,2021-12-17 17:46:35.937500
907,-3.57,2021-12-17 17:46:35.953125
908,-3.16,2021-12-17 17:46:35.968750
909,-2.75,2021-12-17 17:46:35.984375
910,-2.28,2021-12-17 17:46:36.000000
911,-1.71,2021-12-17 17:46:36.015625
912,-1.1,2021-12-17 17:46:36.031250
913,-0.51,2021-12-17 17:46:36.046875
914,-0.02,2021-12-17 17:46:36.062500
915,0.29,2021-12-17 17:46:36.078125
916,0.43,2021-12-17 17:46:36.093750
917,0.51,2021-12-17 17:46:36.109375
918,0.66,2021-12-17 17:46:36.125000
919,0.99,2021-12-17 17:46:36.140625
920,1.52,2021-12-17 17:46:36.156250
921,2.18,2021-12-17 17:46:36.171875
922,2.84,2021-12-17 17:46:36.187500
923,3.36,2021-12-17 17:46:36.203125
924,3.67,2021-12-17 17:46:36.218750
925,3.71,2021-12-17 17:46:36.234375
926,3.52,2021-12-17 17:46:36.250000
927,3.16,2021-12-17 17:46:36.265625
928,2.69,2021-12-17 17:46:36.281250
929,2.21,2021-12-17 17:46:36.296875
930,1.78,2021-12-17 17:46:36.312500
931,1.44,2021-12-17 17:46:36.328125
932,1.19,2021-12-17 17:46:36.343750
933,0.96,2021-12-17 17:46:36.359375
934,0.69,2021-12-17 17:46:36.375000
935,0.39,2021-12-17 17:46:36.390625
936,0.07,2021-12-17 17:46:36.406250
937,-0.23,2021-12-17 17:46:36.421875
938,-0.42,2021-12-17 17:46:36.437500
939,-0.53,2021-12-17 17:46:36.453125
940,-0.65,2021-12-17 17:46:36.468750
941,-0.89,2021-12-17 17:46:36.484375
942,-1.31,2021-12-17 17:46:36.500000
943,-1.89,2021-12-17 17:46:36.515625
944,-2.54,2021-12-17 17:46:36.531250
945,-3.12,2021-12-17 17:46:36.546875
946,-3.55,2021-12-17 17:46:36.562500
947,-3.82,2021-12-17 17:46:36.578125
948,-4.04,2021-12-17 17:46:36.593750
949,-4.31,2021-12-17 17:46:36.609375
950,-4.75,2021-12-17 17:46:36.625000
951,-5.42,2021-12-17 17:46:36.640625
952,-6.33,2021-12-17 17:46:36.656250
953,-7.45,2021-12-17 17:46:36.671875
954,-8.71,2021-12-17 17:46:36.687500
955,-9.99,2021-12-17 17:46:36.703125
956,-11.09,2021-12-17 17:46:36.718750
957,-11.78,2021-12-17 17:46:36.734375
958,-11.88,2021-12-17 17:46:36.750000
959,-11.26,2021-12-17 17:46:36.765625
960,-10.0,2021-12-17 17:46:36.781250
961,-8.26,2021-12-17 17:46:36.796875
962,-6.25,2021-12-17 17:46:36.812500
963,-4.24,2021-12-17 17:46:36.828125
964,-2.35,2021-12-17 17:46:36.843750
965,-0.66,2021-12-17 17:46:36.859375
966,0.81,2021-12-17 17:46:36.875000
967,2.04,2021-12-17 17:46:36.890625
968,3.0,2021-12-17 17:46:36.906250
969,3.62,2021-12-17 17:46:36.921875
970,3.9,2021-12-17 17:46:36.937500
971,3.89,2021-12-17 17:46:36.953125
972,3.7,2021-12-17 17:46:36.968750
973,3.46,2021-12-17 17:46:36.984375
974,3.28,2021-12-17 17:46:37.000000
975,3.21,2021-12-17 17:46:37.015625
976,3.29,2021-12-17 17:46:37.031250
977,3.48,2021-12-17 17:46:37.046875
978,3.8,2021-12-17 17:46:37.062500
979,4.24,2021-12-17 17:46:37.078125
980,4.8,2021-12-17 17:46:37.093750
981,5.42,2021-12-17 17:46:37.109375
982,6.06,2021-12-17 17:46:37.125000
983,6.63,2021-12-17 17:46:37.140625
984,7.1,2021-12-17 17:46:37.156250
985,7.45,2021-12-17 17:46:37.171875
986,7.67,2021-12-17 17:46:37.187500
987,7.79,2021-12-17 17:46:37.203125
988,7.83,2021-12-17 17:46:37.218750
989,7.82,2021-12-17 17:46:37.234375
990,7.7,2021-12-17 17:46:37.250000
991,7.45,2021-12-17 17:46:37.265625
992,6.96,2021-12-17 17:46:37.281250
993,6.13,2021-12-17 17:46:37.296875
994,4.91,2021-12-17 17:46:37.312500
995,3.35,2021-12-17 17:46:37.328125
996,1.57,2021-12-17 17:46:37.343750
997,-0.25,2021-12-17 17:46:37.359375
998,-1.91,2021-12-17 17:46:37.375000
999,-3.33,2021-12-17 17:46:37.390625
1000,-4.51,2021-12-17 17:46:37.406250
1001,-5.55,2021-12-17 17:46:37.421875
1002,-6.54,2021-12-17 17:46:37.437500
1003,-7.57,2021-12-17 17:46:37.453125
1004,-8.66,2021-12-17 17:46:37.468750
1005,-9.8,2021-12-17 17:46:37.484375
1006,-10.97,2021-12-17 17:46:37.500000
1007,-12.15,2021-12-17 17:46:37.515625
1008,-13.29,2021-12-17 17:46:37.531250
1009,-14.29,2021-12-17 17:46:37.546875
1010,-14.99,2021-12-17 17:46:37.562500
1011,-15.16,2021-12-17 17:46:37.578125
1012,-14.58,2021-12-17 17:46:37.593750
1013,-13.13,2021-12-17 17:46:37.609375
1014,-10.9,2021-12-17 17:46:37.625000
1015,-8.18,2021-12-17 17:46:37.640625
1016,-5.38,2021-12-17 17:46:37.656250
1017,-2.89,2021-12-17 17:46:37.671875
1018,-0.95,2021-12-17 17:46:37.687500
1019,0.47,2021-12-17 17:46:37.703125
1020,1.52,2021-12-17 17:46:37.718750
1021,2.48,2021-12-17 17:46:37.734375
1022,3.51,2021-12-17 17:46:37.750000
1023,4.65,2021-12-17 17:46:37.765625
1024,5.81,2021-12-17 17:46:37.781250
1025,6.87,2021-12-17 17:46:37.796875
1026,7.77,2021-12-17 17:46:37.812500
1027,8.53,2021-12-17 17:46:37.828125
1028,9.24,2021-12-17 17:46:37.843750
1029,9.92,2021-12-17 17:46:37.859375
1030,10.56,2021-12-17 17:46:37.875000
1031,11.1,2021-12-17 17:46:37.890625
1032,11.44,2021-12-17 17:46:37.906250
1033,11.57,2021-12-17 17:46:37.921875
1034,11.5,2021-12-17 17:46:37.937500
1035,11.32,2021-12-17 17:46:37.953125
1036,11.15,2021-12-17 17:46:37.968750
1037,11.05,2021-12-17 17:46:37.984375
1038,11.07,2021-12-17 17:46:38.000000
1039,11.15,2021-12-17 17:46:38.015625
1040,11.21,2021-12-17 17:46:38.031250
1041,11.15,2021-12-17 17:46:38.046875
1042,10.91,2021-12-17 17:46:38.062500
1043,10.4,2021-12-17 17:46:38.078125
1044,9.66,2021-12-17 17:46:38.093750
1045,8.73,2021-12-17 17:46:38.109375
1046,7.71,2021-12-17 17:46:38.125000
1047,6.7,2021-12-17 17:46:38.140625
1048,5.76,2021-12-17 17:46:38.156250
1049,4.88,2021-12-17 17:46:38.171875
1050,4.02,2021-12-17 17:46:38.187500
1051,3.11,2021-12-17 17:46:38.203125
1052,2.11,2021-12-17 17:46:38.218750
1053,1.03,2021-12-17 17:46:38.234375
1054,-0.09,2021-12-17 17:46:38.250000
1055,-1.18,2021-12-17 17:46:38.265625
1056,-2.21,2021-12-17 17:46:38.281250
1057,-3.25,2021-12-17 17:46:38.296875
1058,-4.39,2021-12-17 17:46:38.312500
1059,-5.69,2021-12-17 17:46:38.328125
1060,-7.2,2021-12-17 17:46:38.343750
1061,-8.82,2021-12-17 17:46:38.359375
1062,-10.48,2021-12-17 17:46:38.375000
1063,-12.1,2021-12-17 17:46:38.390625
1064,-13.58,2021-12-17 17:46:38.406250
1065,-14.86,2021-12-17 17:46:38.421875
1066,-15.76,2021-12-17 17:46:38.437500
1067,-16.06,2021-12-17 17:46:38.453125
1068,-15.59,2021-12-17 17:46:38.468750
1069,-14.27,2021-12-17 17:46:38.484375
1070,-12.26,2021-12-17 17:46:38.500000
1071,-9.86,2021-12-17 17:46:38.515625
1072,-7.43,2021-12-17 17:46:38.531250
1073,-5.2,2021-12-17 17:46:38.546875
1074,-3.15,2021-12-17 17:46:38.562500
1075,-1.1,2021-12-17 17:46:38.578125
1076,1.14,2021-12-17 17:46:38.593750
1077,3.61,2021-12-17 17:46:38.609375
1078,6.08,2021-12-17 17:46:38.625000
1079,8.21,2021-12-17 17:46:38.640625
1080,9.75,2021-12-17 17:46:38.656250
1081,10.62,2021-12-17 17:46:38.671875
1082,10.99,2021-12-17 17:46:38.687500
1083,11.13,2021-12-17 17:46:38.703125
1084,11.33,2021-12-17 17:46:38.718750
1085,11.69,2021-12-17 17:46:38.734375
1086,12.14,2021-12-17 17:46:38.750000
1087,12.57,2021-12-17 17:46:38.765625
1088,12.85,2021-12-17 17:46:38.781250
1089,12.93,2021-12-17 17:46:38.796875
1090,12.85,2021-12-17 17:46:38.812500
1091,12.7,2021-12-17 17:46:38.828125
1092,12.57,2021-12-17 17:46:38.843750
1093,12.55,2021-12-17 17:46:38.859375
1094,12.64,2021-12-17 17:46:38.875000
1095,12.81,2021-12-17 17:46:38.890625
1096,13.01,2021-12-17 17:46:38.906250
1097,13.09,2021-12-17 17:46:38.921875
1098,12.99,2021-12-17 17:46:38.937500
1099,12.67,2021-12-17 17:46:38.953125
1100,12.16,2021-12-17 17:46:38.968750
1101,11.59,2021-12-17 17:46:38.984375
1102,11.04,2021-12-17 17:46:39.000000
1103,10.49,2021-12-17 17:46:39.015625
1104,9.89,2021-12-17 17:46:39.031250
1105,9.09,2021-12-17 17:46:39.046875
1106,7.98,2021-12-17 17:46:39.062500
1107,6.6,2021-12-17 17:46:39.078125
1108,5.07,2021-12-17 17:46:39.093750
1109,3.61,2021-12-17 17:46:39.109375
1110,2.43,2021-12-17 17:46:39.125000
1111,1.61,2021-12-17 17:46:39.140625
1112,1.1,2021-12-17 17:46:39.156250
1113,0.72,2021-12-17 17:46:39.171875
1114,0.3,2021-12-17 17:46:39.187500
1115,-0.29,2021-12-17 17:46:39.203125
1116,-1.08,2021-12-17 17:46:39.218750
1117,-1.99,2021-12-17 17:46:39.234375
1118,-2.95,2021-12-17 17:46:39.250000
1119,-3.9,2021-12-17 17:46:39.265625
1120,-4.84,2021-12-17 17:46:39.281250
1121,-5.8,2021-12-17 17:46:39.296875
1122,-6.86,2021-12-17 17:46:39.312500
1123,-8.07,2021-12-17 17:46:39.328125
1124,-9.45,2021-12-17 17:46:39.343750
1125,-10.98,2021-12-17 17:46:39.359375
1126,-12.59,2021-12-17 17:46:39.375000
1127,-14.15,2021-12-17 17:46:39.390625
1128,-15.45,2021-12-17 17:46:39.406250
1129,-16.23,2021-12-17 17:46:39.421875
1130,-16.19,2021-12-17 17:46:39.437500
1131,-15.14,2021-12-17 17:46:39.453125
1132,-13.05,2021-12-17 17:46:39.468750
1133,-10.13,2021-12-17 17:46:39.484375
1134,-6.77,2021-12-17 17:46:39.500000
1135,-3.44,2021-12-17 17:46:39.515625
1136,-0.52,2021-12-17 17:46:39.531250
1137,1.75,2021-12-17 17:46:39.546875
1138,3.39,2021-12-17 17:46:39.562500
1139,4.61,2021-12-17 17:46:39.578125
1140,5.62,2021-12-17 17:46:39.593750
1141,6.65,2021-12-17 17:46:39.609375
1142,7.74,2021-12-17 17:46:39.625000
1143,8.84,2021-12-17 17:46:39.640625
1144,9.78,2021-12-17 17:46:39.656250
1145,10.35,2021-12-17 17:46:39.671875
1146,10.47,2021-12-17 17:46:39.687500
1147,10.18,2021-12-17 17:46:39.703125
1148,9.71,2021-12-17 17:46:39.718750
1149,9.28,2021-12-17 17:46:39.734375
1150,9.08,2021-12-17 17:46:39.750000
1151,9.12,2021-12-17 17:46:39.765625
1152,9.27,2021-12-17 17:46:39.781250
1153,9.39,2021-12-17 17:46:39.796875
1154,9.43,2021-12-17 17:46:39.812500
1155,9.48,2021-12-17 17:46:39.828125
1156,9.69,2021-12-17 17:46:39.843750
1157,10.15,2021-12-17 17:46:39.859375
1158,10.74,2021-12-17 17:46:39.875000
1159,11.23,2021-12-17 17:46:39.890625
1160,11.37,2021-12-17 17:46:39.906250
1161,11.08,2021-12-17 17:46:39.921875
1162,10.48,2021-12-17 17:46:39.937500
1163,9.85,2021-12-17 17:46:39.953125
1164,9.41,2021-12-17 17:46:39.968750
1165,9.26,2021-12-17 17:46:39.984375
1166,9.25,2021-12-17 17:46:40.000000
1167,9.17,2021-12-17 17:46:40.015625
1168,8.82,2021-12-17 17:46:40.031250
1169,8.14,2021-12-17 17:46:40.046875
1170,7.18,2021-12-17 17:46:40.062500
1171,6.14,2021-12-17 17:46:40.078125
1172,5.15,2021-12-17 17:46:40.093750
1173,4.32,2021-12-17 17:46:40.109375
1174,3.68,2021-12-17 17:46:40.125000
1175,3.18,2021-12-17 17:46:40.140625
1176,2.71,2021-12-17 17:46:40.156250
1177,2.13,2021-12-17 17:46:40.171875
1178,1.36,2021-12-17 17:46:40.187500
1179,0.39,2021-12-17 17:46:40.203125
1180,-0.67,2021-12-17 17:46:40.218750
1181,-1.71,2021-12-17 17:46:40.234375
1182,-2.63,2021-12-17 17:46:40.250000
1183,-3.43,2021-12-17 17:46:40.265625
1184,-4.18,2021-12-17 17:46:40.281250
1185,-4.97,2021-12-17 17:46:40.296875
1186,-5.86,2021-12-17 17:46:40.312500
1187,-6.82,2021-12-17 17:46:40.328125
1188,-7.79,2021-12-17 17:46:40.343750
1189,-8.74,2021-12-17 17:46:40.359375
1190,-9.72,2021-12-17 17:46:40.375000
1191,-10.79,2021-12-17 17:46:40.390625
1192,-11.92,2021-12-17 17:46:40.406250
1193,-12.96,2021-12-17 17:46:40.421875
1194,-13.57,2021-12-17 17:46:40.437500
1195,-13.41,2021-12-17 17:46:40.453125
1196,-12.25,2021-12-17 17:46:40.468750
1197,-10.16,2021-12-17 17:46:40.484375
1198,-7.39,2021-12-17 17:46:40.500000
1199,-4.4,2021-12-17 17:46:40.515625
1200,-1.61,2021-12-17 17:46:40.531250
1201,0.73,2021-12-17 17:46:40.546875
1202,2.54,2021-12-17 17:46:40.562500
1203,3.91,2021-12-17 17:46:40.578125
1204,4.89,2021-12-17 17:46:40.593750
1205,5.59,2021-12-17 17:46:40.609375
1206,6.06,2021-12-17 17:46:40.625000
1207,6.41,2021-12-17 17:46:40.640625
1208,6.72,2021-12-17 17:46:40.656250
1209,7.03,2021-12-17 17:46:40.671875
1210,7.38,2021-12-17 17:46:40.687500
1211,7.7,2021-12-17 17:46:40.703125
1212,7.93,2021-12-17 17:46:40.718750
1213,8.03,2021-12-17 17:46:40.734375
1214,7.99,2021-12-17 17:46:40.750000
1215,7.83,2021-12-17 17:46:40.765625
1216,7.6,2021-12-17 17:46:40.781250
1217,7.38,2021-12-17 17:46:40.796875
1218,7.29,2021-12-17 17:46:40.812500
1219,7.44,2021-12-17 17:46:40.828125
1220,7.91,2021-12-17 17:46:40.843750
1221,8.62,2021-12-17 17:46:40.859375
1222,9.4,2021-12-17 17:46:40.875000
1223,9.97,2021-12-17 17:46:40.890625
1224,10.11,2021-12-17 17:46:40.906250
1225,9.75,2021-12-17 17:46:40.921875
1226,9.04,2021-12-17 17:46:40.937500
1227,8.23,2021-12-17 17:46:40.953125
1228,7.59,2021-12-17 17:46:40.968750
1229,7.28,2021-12-17 17:46:40.984375
1230,7.32,2021-12-17 17:46:41.000000
1231,7.57,2021-12-17 17:46:41.015625
1232,7.88,2021-12-17 17:46:41.031250
1233,8.05,2021-12-17 17:46:41.046875
1234,7.94,2021-12-17 17:46:41.062500
1235,7.44,2021-12-17 17:46:41.078125
1236,6.53,2021-12-17 17:46:41.093750
1237,5.29,2021-12-17 17:46:41.109375
1238,3.88,2021-12-17 17:46:41.125000
1239,2.48,2021-12-17 17:46:41.140625
1240,1.23,2021-12-17 17:46:41.156250
1241,0.15,2021-12-17 17:46:41.171875
1242,-0.85,2021-12-17 17:46:41.187500
1243,-1.82,2021-12-17 17:46:41.203125
1244,-2.8,2021-12-17 17:46:41.218750
1245,-3.72,2021-12-17 17:46:41.234375
1246,-4.48,2021-12-17 17:46:41.250000
1247,-5.05,2021-12-17 17:46:41.265625
1248,-5.49,2021-12-17 17:46:41.281250
1249,-5.93,2021-12-17 17:46:41.296875
1250,-6.48,2021-12-17 17:46:41.312500
1251,-7.18,2021-12-17 17:46:41.328125
1252,-7.97,2021-12-17 17:46:41.343750
1253,-8.75,2021-12-17 17:46:41.359375
1254,-9.43,2021-12-17 17:46:41.375000
1255,-10.03,2021-12-17 17:46:41.390625
1256,-10.57,2021-12-17 17:46:41.406250
1257,-11.04,2021-12-17 17:46:41.421875
1258,-11.32,2021-12-17 17:46:41.437500
1259,-11.19,2021-12-17 17:46:41.453125
1260,-10.48,2021-12-17 17:46:41.468750
1261,-9.16,2021-12-17 17:46:41.484375
1262,-7.4,2021-12-17 17:46:41.500000
1263,-5.5,2021-12-17 17:46:41.515625
1264,-3.76,2021-12-17 17:46:41.531250
1265,-2.36,2021-12-17 17:46:41.546875
1266,-1.28,2021-12-17 17:46:41.562500
1267,-0.4,2021-12-17 17:46:41.578125
1268,0.48,2021-12-17 17:46:41.593750
1269,1.5,2021-12-17 17:46:41.609375
1270,2.69,2021-12-17 17:46:41.625000
1271,3.93,2021-12-17 17:46:41.640625
1272,5.06,2021-12-17 17:46:41.656250
1273,5.92,2021-12-17 17:46:41.671875
1274,6.4,2021-12-17 17:46:41.687500
1275,6.54,2021-12-17 17:46:41.703125
1276,6.44,2021-12-17 17:46:41.718750
1277,6.23,2021-12-17 17:46:41.734375
1278,6.03,2021-12-17 17:46:41.750000
1279,5.91,2021-12-17 17:46:41.765625
1280,5.83,2021-12-17 17:46:41.781250
1281,5.77,2021-12-17 17:46:41.796875
1282,5.69,2021-12-17 17:46:41.812500
1283,5.65,2021-12-17 17:46:41.828125
1284,5.65,2021-12-17 17:46:41.843750
1285,5.7,2021-12-17 17:46:41.859375
1286,5.72,2021-12-17 17:46:41.875000
1287,5.63,2021-12-17 17:46:41.890625
1288,5.33,2021-12-17 17:46:41.906250
1289,4.8,2021-12-17 17:46:41.921875
1290,4.14,2021-12-17 17:46:41.937500
1291,3.52,2021-12-17 17:46:41.953125
1292,3.11,2021-12-17 17:46:41.968750
1293,2.98,2021-12-17 17:46:41.984375
1294,3.03,2021-12-17 17:46:42.000000
1295,3.15,2021-12-17 17:46:42.015625
1296,3.19,2021-12-17 17:46:42.031250
1297,3.04,2021-12-17 17:46:42.046875
1298,2.75,2021-12-17 17:46:42.062500
1299,2.39,2021-12-17 17:46:42.078125
1300,2.05,2021-12-17 17:46:42.093750
1301,1.68,2021-12-17 17:46:42.109375
1302,1.21,2021-12-17 17:46:42.125000
1303,0.61,2021-12-17 17:46:42.140625
1304,-0.13,2021-12-17 17:46:42.156250
1305,-0.91,2021-12-17 17:46:42.171875
1306,-1.66,2021-12-17 17:46:42.187500
1307,-2.3,2021-12-17 17:46:42.203125
1308,-2.91,2021-12-17 17:46:42.218750
1309,-3.55,2021-12-17 17:46:42.234375
1310,-4.3,2021-12-17 17:46:42.250000
1311,-5.13,2021-12-17 17:46:42.265625
1312,-5.94,2021-12-17 17:46:42.281250
1313,-6.59,2021-12-17 17:46:42.296875
1314,-7.06,2021-12-17 17:46:42.312500
1315,-7.4,2021-12-17 17:46:42.328125
1316,-7.7,2021-12-17 17:46:42.343750
1317,-8.04,2021-12-17 17:46:42.359375
1318,-8.38,2021-12-17 17:46:42.375000
1319,-8.54,2021-12-17 17:46:42.390625
1320,-8.32,2021-12-17 17:46:42.406250
1321,-7.59,2021-12-17 17:46:42.421875
1322,-6.41,2021-12-17 17:46:42.437500
1323,-4.99,2021-12-17 17:46:42.453125
1324,-3.56,2021-12-17 17:46:42.468750
1325,-2.3,2021-12-17 17:46:42.484375
1326,-1.3,2021-12-17 17:46:42.500000
1327,-0.47,2021-12-17 17:46:42.515625
1328,0.32,2021-12-17 17:46:42.531250
1329,1.14,2021-12-17 17:46:42.546875
1330,1.95,2021-12-17 17:46:42.562500
1331,2.61,2021-12-17 17:46:42.578125
1332,3.0,2021-12-17 17:46:42.593750
1333,3.12,2021-12-17 17:46:42.609375
1334,3.08,2021-12-17 17:46:42.625000
1335,3.01,2021-12-17 17:46:42.640625
1336,3.09,2021-12-17 17:46:42.656250
1337,3.32,2021-12-17 17:46:42.671875
1338,3.67,2021-12-17 17:46:42.687500
1339,4.01,2021-12-17 17:46:42.703125
1340,4.22,2021-12-17 17:46:42.718750
1341,4.3,2021-12-17 17:46:42.734375
1342,4.24,2021-12-17 17:46:42.750000
1343,4.09,2021-12-17 17:46:42.765625
1344,3.87,2021-12-17 17:46:42.781250
1345,3.59,2021-12-17 17:46:42.796875
1346,3.24,2021-12-17 17:46:42.812500
1347,2.83,2021-12-17 17:46:42.828125
1348,2.37,2021-12-17 17:46:42.843750
1349,1.88,2021-12-17 17:46:42.859375
1350,1.35,2021-12-17 17:46:42.875000
1351,0.82,2021-12-17 17:46:42.890625
1352,0.32,2021-12-17 17:46:42.906250
1353,-0.13,2021-12-17 17:46:42.921875
1354,-0.52,2021-12-17 17:46:42.937500
1355,-0.87,2021-12-17 17:46:42.953125
1356,-1.21,2021-12-17 17:46:42.968750
1357,-1.51,2021-12-17 17:46:42.984375
1358,-1.72,2021-12-17 17:46:43.000000
1359,-1.75,2021-12-17 17:46:43.015625
1360,-1.54,2021-12-17 17:46:43.031250
1361,-1.14,2021-12-17 17:46:43.046875
1362,-0.67,2021-12-17 17:46:43.062500
1363,-0.29,2021-12-17 17:46:43.078125
1364,-0.19,2021-12-17 17:46:43.093750
1365,-0.42,2021-12-17 17:46:43.109375
1366,-0.93,2021-12-17 17:46:43.125000
1367,-1.67,2021-12-17 17:46:43.140625
1368,-2.59,2021-12-17 17:46:43.156250
1369,-3.63,2021-12-17 17:46:43.171875
1370,-4.76,2021-12-17 17:46:43.187500
1371,-5.89,2021-12-17 17:46:43.203125
1372,-6.89,2021-12-17 17:46:43.218750
1373,-7.69,2021-12-17 17:46:43.234375
1374,-8.26,2021-12-17 17:46:43.250000
1375,-8.6,2021-12-17 17:46:43.265625
1376,-8.74,2021-12-17 17:46:43.281250
1377,-8.71,2021-12-17 17:46:43.296875
1378,-8.46,2021-12-17 17:46:43.312500
1379,-7.94,2021-12-17 17:46:43.328125
1380,-7.13,2021-12-17 17:46:43.343750
1381,-6.06,2021-12-17 17:46:43.359375
1382,-4.84,2021-12-17 17:46:43.375000
1383,-3.57,2021-12-17 17:46:43.390625
1384,-2.34,2021-12-17 17:46:43.406250
1385,-1.2,2021-12-17 17:46:43.421875
1386,-0.16,2021-12-17 17:46:43.437500
1387,0.75,2021-12-17 17:46:43.453125
1388,1.5,2021-12-17 17:46:43.468750
1389,2.07,2021-12-17 17:46:43.484375
1390,2.48,2021-12-17 17:46:43.500000
1391,2.74,2021-12-17 17:46:43.515625
1392,2.93,2021-12-17 17:46:43.531250
1393,3.1,2021-12-17 17:46:43.546875
1394,3.26,2021-12-17 17:46:43.562500
1395,3.45,2021-12-17 17:46:43.578125
1396,3.69,2021-12-17 17:46:43.593750
1397,3.98,2021-12-17 17:46:43.609375
1398,4.31,2021-12-17 17:46:43.625000
1399,4.62,2021-12-17 17:46:43.640625
1400,4.79,2021-12-17 17:46:43.656250
1401,4.75,2021-12-17 17:46:43.671875
1402,4.46,2021-12-17 17:46:43.687500
1403,3.93,2021-12-17 17:46:43.703125
1404,3.29,2021-12-17 17:46:43.718750
1405,2.71,2021-12-17 17:46:43.734375
1406,2.34,2021-12-17 17:46:43.750000
1407,2.2,2021-12-17 17:46:43.765625
1408,2.21,2021-12-17 17:46:43.781250
1409,2.17,2021-12-17 17:46:43.796875
1410,1.91,2021-12-17 17:46:43.812500
1411,1.36,2021-12-17 17:46:43.828125
1412,0.61,2021-12-17 17:46:43.843750
1413,-0.13,2021-12-17 17:46:43.859375
1414,-0.65,2021-12-17 17:46:43.875000
1415,-0.86,2021-12-17 17:46:43.890625
1416,-0.77,2021-12-17 17:46:43.906250
1417,-0.56,2021-12-17 17:46:43.921875
1418,-0.43,2021-12-17 17:46:43.937500
1419,-0.48,2021-12-17 17:46:43.953125
1420,-0.72,2021-12-17 17:46:43.968750
1421,-1.1,2021-12-17 17:46:43.984375
1422,-1.51,2021-12-17 17:46:44.000000
1423,-1.96,2021-12-17 17:46:44.015625
1424,-2.48,2021-12-17 17:46:44.031250
1425,-3.1,2021-12-17 17:46:44.046875
1426,-3.82,2021-12-17 17:46:44.062500
1427,-4.58,2021-12-17 17:46:44.078125
1428,-5.29,2021-12-17 17:46:44.093750
1429,-5.88,2021-12-17 17:46:44.109375
1430,-6.4,2021-12-17 17:46:44.125000
1431,-6.9,2021-12-17 17:46:44.140625
1432,-7.45,2021-12-17 17:46:44.156250
1433,-8.01,2021-12-17 17:46:44.171875
1434,-8.44,2021-12-17 17:46:44.187500
1435,-8.58,2021-12-17 17:46:44.203125
1436,-8.31,2021-12-17 17:46:44.218750
1437,-7.65,2021-12-17 17:46:44.234375
1438,-6.71,2021-12-17 17:46:44.250000
1439,-5.68,2021-12-17 17:46:44.265625
1440,-4.68,2021-12-17 17:46:44.281250
1441,-3.77,2021-12-17 17:46:44.296875
1442,-2.9,2021-12-17 17:46:44.312500
1443,-2.02,2021-12-17 17:46:44.328125
1444,-1.16,2021-12-17 17:46:44.343750
1445,-0.36,2021-12-17 17:46:44.359375
1446,0.28,2021-12-17 17:46:44.375000
1447,0.71,2021-12-17 17:46:44.390625
1448,0.96,2021-12-17 17:46:44.406250
1449,1.13,2021-12-17 17:46:44.421875
1450,1.37,2021-12-17 17:46:44.437500
1451,1.74,2021-12-17 17:46:44.453125
1452,2.26,2021-12-17 17:46:44.468750
1453,2.83,2021-12-17 17:46:44.484375
1454,3.38,2021-12-17 17:46:44.500000
1455,3.84,2021-12-17 17:46:44.515625
1456,4.23,2021-12-17 17:46:44.531250
1457,4.64,2021-12-17 17:46:44.546875
1458,5.14,2021-12-17 17:46:44.562500
1459,5.74,2021-12-17 17:46:44.578125
1460,6.36,2021-12-17 17:46:44.593750
1461,6.85,2021-12-17 17:46:44.609375
1462,7.07,2021-12-17 17:46:44.625000
1463,6.98,2021-12-17 17:46:44.640625
1464,6.59,2021-12-17 17:46:44.656250
1465,5.98,2021-12-17 17:46:44.671875
1466,5.23,2021-12-17 17:46:44.687500
1467,4.38,2021-12-17 17:46:44.703125
1468,3.46,2021-12-17 17:46:44.718750
1469,2.49,2021-12-17 17:46:44.734375
1470,1.51,2021-12-17 17:46:44.750000
1471,0.57,2021-12-17 17:46:44.765625
1472,-0.3,2021-12-17 17:46:44.781250
1473,-1.13,2021-12-17 17:46:44.796875
1474,-1.93,2021-12-17 17:46:44.812500
1475,-2.73,2021-12-17 17:46:44.828125
1476,-3.49,2021-12-17 17:46:44.843750
1477,-4.12,2021-12-17 17:46:44.859375
1478,-4.52,2021-12-17 17:46:44.875000
1479,-4.62,2021-12-17 17:46:44.890625
1480,-4.41,2021-12-17 17:46:44.906250
1481,-3.96,2021-12-17 17:46:44.921875
1482,-3.36,2021-12-17 17:46:44.937500
1483,-2.76,2021-12-17 17:46:44.953125
1484,-2.31,2021-12-17 17:46:44.968750
1485,-2.18,2021-12-17 17:46:44.984375
1486,-2.45,2021-12-17 17:46:45.000000
1487,-3.16,2021-12-17 17:46:45.015625
1488,-4.28,2021-12-17 17:46:45.031250
1489,-5.63,2021-12-17 17:46:45.046875
1490,-7.03,2021-12-17 17:46:45.062500
1491,-8.27,2021-12-17 17:46:45.078125
1492,-9.25,2021-12-17 17:46:45.093750
1493,-9.92,2021-12-17 17:46:45.109375
1494,-10.26,2021-12-17 17:46:45.125000
1495,-10.23,2021-12-17 17:46:45.140625
1496,-9.77,2021-12-17 17:46:45.156250
1497,-8.84,2021-12-17 17:46:45.171875
1498,-7.5,2021-12-17 17:46:45.187500
1499,-5.92,2021-12-17 17:46:45.203125
1500,-4.34,2021-12-17 17:46:45.218750
1501,-2.97,2021-12-17 17:46:45.234375
1502,-1.94,2021-12-17 17:46:45.250000
1503,-1.24,2021-12-17 17:46:45.265625
1504,-0.73,2021-12-17 17:46:45.281250
1505,-0.35,2021-12-17 17:46:45.296875
1506,-0.09,2021-12-17 17:46:45.312500
1507,0.06,2021-12-17 17:46:45.328125
1508,0.05,2021-12-17 17:46:45.343750
1509,-0.05,2021-12-17 17:46:45.359375
1510,-0.14,2021-12-17 17:46:45.375000
1511,-0.06,2021-12-17 17:46:45.390625
1512,0.26,2021-12-17 17:46:45.406250
1513,0.85,2021-12-17 17:46:45.421875
1514,1.65,2021-12-17 17:46:45.437500
1515,2.58,2021-12-17 17:46:45.453125
1516,3.63,2021-12-17 17:46:45.468750
1517,4.72,2021-12-17 17:46:45.484375
1518,5.85,2021-12-17 17:46:45.500000
1519,6.87,2021-12-17 17:46:45.515625
1520,7.62,2021-12-17 17:46:45.531250
1521,7.93,2021-12-17 17:46:45.546875
1522,7.69,2021-12-17 17:46:45.562500
1523,6.92,2021-12-17 17:46:45.578125
1524,5.73,2021-12-17 17:46:45.593750
1525,4.36,2021-12-17 17:46:45.609375
1526,2.96,2021-12-17 17:46:45.625000
1527,1.71,2021-12-17 17:46:45.640625
1528,0.7,2021-12-17 17:46:45.656250
1529,-0.04,2021-12-17 17:46:45.671875
1530,-0.47,2021-12-17 17:46:45.687500
1531,-0.64,2021-12-17 17:46:45.703125
1532,-0.65,2021-12-17 17:46:45.718750
1533,-0.57,2021-12-17 17:46:45.734375
1534,-0.49,2021-12-17 17:46:45.750000
1535,-0.45,2021-12-17 17:46:45.765625
1536,-0.42,2021-12-17 17:46:45.781250
1537,-0.31,2021-12-17 17:46:45.796875
1538,-0.09,2021-12-17 17:46:45.812500
1539,0.26,2021-12-17 17:46:45.828125
1540,0.66,2021-12-17 17:46:45.843750
1541,0.97,2021-12-17 17:46:45.859375
1542,1.07,2021-12-17 17:46:45.875000
1543,0.85,2021-12-17 17:46:45.890625
1544,0.29,2021-12-17 17:46:45.906250
1545,-0.53,2021-12-17 17:46:45.921875
1546,-1.49,2021-12-17 17:46:45.937500
1547,-2.43,2021-12-17 17:46:45.953125
1548,-3.23,2021-12-17 17:46:45.968750
1549,-3.86,2021-12-17 17:46:45.984375
1550,-4.34,2021-12-17 17:46:46.000000
1551,-4.77,2021-12-17 17:46:46.015625
1552,-5.23,2021-12-17 17:46:46.031250
1553,-5.81,2021-12-17 17:46:46.046875
1554,-6.54,2021-12-17 17:46:46.062500
1555,-7.36,2021-12-17 17:46:46.078125
1556,-8.17,2021-12-17 17:46:46.093750
1557,-8.78,2021-12-17 17:46:46.109375
1558,-9.08,2021-12-17 17:46:46.125000
1559,-9.0,2021-12-17 17:46:46.140625
1560,-8.58,2021-12-17 17:46:46.156250
1561,-7.9,2021-12-17 17:46:46.171875
1562,-7.05,2021-12-17 17:46:46.187500
1563,-6.08,2021-12-17 17:46:46.203125
1564,-5.04,2021-12-17 17:46:46.218750
1565,-3.9,2021-12-17 17:46:46.234375
1566,-2.69,2021-12-17 17:46:46.250000
1567,-1.43,2021-12-17 17:46:46.265625
1568,-0.17,2021-12-17 17:46:46.281250
1569,1.01,2021-12-17 17:46:46.296875
1570,2.05,2021-12-17 17:46:46.312500
1571,2.87,2021-12-17 17:46:46.328125
1572,3.41,2021-12-17 17:46:46.343750
1573,3.67,2021-12-17 17:46:46.359375
1574,3.73,2021-12-17 17:46:46.375000
1575,3.75,2021-12-17 17:46:46.390625
1576,3.83,2021-12-17 17:46:46.406250
1577,4.03,2021-12-17 17:46:46.421875
1578,4.28,2021-12-17 17:46:46.437500
1579,4.45,2021-12-17 17:46:46.453125
1580,4.48,2021-12-17 17:46:46.468750
1581,4.38,2021-12-17 17:46:46.484375
1582,4.29,2021-12-17 17:46:46.500000
1583,4.34,2021-12-17 17:46:46.515625
1584,4.59,2021-12-17 17:46:46.531250
1585,5.0,2021-12-17 17:46:46.546875
1586,5.45,2021-12-17 17:46:46.562500
1587,5.84,2021-12-17 17:46:46.578125
1588,6.13,2021-12-17 17:46:46.593750
1589,6.35,2021-12-17 17:46:46.609375
1590,6.47,2021-12-17 17:46:46.625000
1591,6.43,2021-12-17 17:46:46.640625
1592,6.08,2021-12-17 17:46:46.656250
1593,5.38,2021-12-17 17:46:46.671875
1594,4.4,2021-12-17 17:46:46.687500
1595,3.29,2021-12-17 17:46:46.703125
1596,2.26,2021-12-17 17:46:46.718750
1597,1.39,2021-12-17 17:46:46.734375
1598,0.65,2021-12-17 17:46:46.750000
1599,-0.1,2021-12-17 17:46:46.765625
1600,-0.96,2021-12-17 17:46:46.781250
1601,-1.92,2021-12-17 17:46:46.796875
1602,-2.85,2021-12-17 17:46:46.812500
1603,-3.59,2021-12-17 17:46:46.828125
1604,-4.0,2021-12-17 17:46:46.843750
1605,-4.1,2021-12-17 17:46:46.859375
1606,-4.01,2021-12-17 17:46:46.875000
1607,-3.85,2021-12-17 17:46:46.890625
1608,-3.79,2021-12-17 17:46:46.906250
1609,-3.94,2021-12-17 17:46:46.921875
1610,-4.39,2021-12-17 17:46:46.937500
1611,-5.1,2021-12-17 17:46:46.953125
1612,-6.03,2021-12-17 17:46:46.968750
1613,-7.03,2021-12-17 17:46:46.984375
1614,-7.92,2021-12-17 17:46:47.000000
1615,-8.56,2021-12-17 17:46:47.015625
1616,-8.9,2021-12-17 17:46:47.031250
1617,-9.0,2021-12-17 17:46:47.046875
1618,-8.99,2021-12-17 17:46:47.062500
1619,-8.95,2021-12-17 17:46:47.078125
1620,-8.84,2021-12-17 17:46:47.093750
1621,-8.56,2021-12-17 17:46:47.109375
1622,-7.98,2021-12-17 17:46:47.125000
1623,-7.03,2021-12-17 17:46:47.140625
1624,-5.8,2021-12-17 17:46:47.156250
1625,-4.5,2021-12-17 17:46:47.171875
1626,-3.34,2021-12-17 17:46:47.187500
1627,-2.44,2021-12-17 17:46:47.203125
1628,-1.84,2021-12-17 17:46:47.218750
1629,-1.43,2021-12-17 17:46:47.234375
1630,-1.01,2021-12-17 17:46:47.250000
1631,-0.49,2021-12-17 17:46:47.265625
1632,0.2,2021-12-17 17:46:47.281250
1633,0.96,2021-12-17 17:46:47.296875
1634,1.67,2021-12-17 17:46:47.312500
1635,2.27,2021-12-17 17:46:47.328125
1636,2.78,2021-12-17 17:46:47.343750
1637,3.28,2021-12-17 17:46:47.359375
1638,3.83,2021-12-17 17:46:47.375000
1639,4.46,2021-12-17 17:46:47.390625
1640,5.15,2021-12-17 17:46:47.406250
1641,5.79,2021-12-17 17:46:47.421875
1642,6.34,2021-12-17 17:46:47.437500
1643,6.76,2021-12-17 17:46:47.453125
1644,7.09,2021-12-17 17:46:47.468750
1645,7.33,2021-12-17 17:46:47.484375
1646,7.52,2021-12-17 17:46:47.500000
1647,7.63,2021-12-17 17:46:47.515625
1648,7.62,2021-12-17 17:46:47.531250
1649,7.5,2021-12-17 17:46:47.546875
1650,7.28,2021-12-17 17:46:47.562500
1651,6.99,2021-12-17 17:46:47.578125
1652,6.69,2021-12-17 17:46:47.593750
1653,6.42,2021-12-17 17:46:47.609375
1654,6.14,2021-12-17 17:46:47.625000
1655,5.79,2021-12-17 17:46:47.640625
1656,5.32,2021-12-17 17:46:47.656250
1657,4.68,2021-12-17 17:46:47.671875
1658,3.93,2021-12-17 17:46:47.687500
1659,3.21,2021-12-17 17:46:47.703125
1660,2.69,2021-12-17 17:46:47.718750
1661,2.49,2021-12-17 17:46:47.734375
1662,2.6,2021-12-17 17:46:47.750000
1663,2.85,2021-12-17 17:46:47.765625
1664,3.02,2021-12-17 17:46:47.781250
1665,2.89,2021-12-17 17:46:47.796875
1666,2.39,2021-12-17 17:46:47.812500
1667,1.52,2021-12-17 17:46:47.828125
1668,0.42,2021-12-17 17:46:47.843750
1669,-0.76,2021-12-17 17:46:47.859375
1670,-1.9,2021-12-17 17:46:47.875000
1671,-2.9,2021-12-17 17:46:47.890625
1672,-3.76,2021-12-17 17:46:47.906250
1673,-4.56,2021-12-17 17:46:47.921875
1674,-5.39,2021-12-17 17:46:47.937500
1675,-6.32,2021-12-17 17:46:47.953125
1676,-7.37,2021-12-17 17:46:47.968750
1677,-8.44,2021-12-17 17:46:47.984375
1678,-9.43,2021-12-17 17:46:48.000000
1679,-10.21,2021-12-17 17:46:48.015625
1680,-10.66,2021-12-17 17:46:48.031250
1681,-10.7,2021-12-17 17:46:48.046875
1682,-10.29,2021-12-17 17:46:48.062500
1683,-9.42,2021-12-17 17:46:48.078125
1684,-8.11,2021-12-17 17:46:48.093750
1685,-6.51,2021-12-17 17:46:48.109375
1686,-4.78,2021-12-17 17:46:48.125000
1687,-3.11,2021-12-17 17:46:48.140625
1688,-1.68,2021-12-17 17:46:48.156250
1689,-0.55,2021-12-17 17:46:48.171875
1690,0.27,2021-12-17 17:46:48.187500
1691,0.81,2021-12-17 17:46:48.203125
1692,1.12,2021-12-17 17:46:48.218750
1693,1.31,2021-12-17 17:46:48.234375
1694,1.45,2021-12-17 17:46:48.250000
1695,1.72,2021-12-17 17:46:48.265625
1696,2.19,2021-12-17 17:46:48.281250
1697,2.83,2021-12-17 17:46:48.296875
1698,3.53,2021-12-17 17:46:48.312500
1699,4.11,2021-12-17 17:46:48.328125
1700,4.45,2021-12-17 17:46:48.343750
1701,4.53,2021-12-17 17:46:48.359375
1702,4.5,2021-12-17 17:46:48.375000
1703,4.5,2021-12-17 17:46:48.390625
1704,4.67,2021-12-17 17:46:48.406250
1705,4.96,2021-12-17 17:46:48.421875
1706,5.27,2021-12-17 17:46:48.437500
1707,5.46,2021-12-17 17:46:48.453125
1708,5.47,2021-12-17 17:46:48.468750
1709,5.36,2021-12-17 17:46:48.484375
1710,5.23,2021-12-17 17:46:48.500000
1711,5.14,2021-12-17 17:46:48.515625
1712,5.08,2021-12-17 17:46:48.531250
1713,4.89,2021-12-17 17:46:48.546875
1714,4.47,2021-12-17 17:46:48.562500
1715,3.76,2021-12-17 17:46:48.578125
1716,2.9,2021-12-17 17:46:48.593750
1717,2.1,2021-12-17 17:46:48.609375
1718,1.56,2021-12-17 17:46:48.625000
1719,1.33,2021-12-17 17:46:48.640625
1720,1.26,2021-12-17 17:46:48.656250
1721,1.07,2021-12-17 17:46:48.671875
1722,0.54,2021-12-17 17:46:48.687500
1723,-0.41,2021-12-17 17:46:48.703125
1724,-1.62,2021-12-17 17:46:48.718750
1725,-2.75,2021-12-17 17:46:48.734375
1726,-3.6,2021-12-17 17:46:48.750000
1727,-4.09,2021-12-17 17:46:48.765625
1728,-4.4,2021-12-17 17:46:48.781250
1729,-4.83,2021-12-17 17:46:48.796875
1730,-5.65,2021-12-17 17:46:48.812500
1731,-6.94,2021-12-17 17:46:48.828125
1732,-8.53,2021-12-17 17:46:48.843750
1733,-10.15,2021-12-17 17:46:48.859375
1734,-11.55,2021-12-17 17:46:48.875000
1735,-12.62,2021-12-17 17:46:48.890625
1736,-13.35,2021-12-17 17:46:48.906250
1737,-13.82,2021-12-17 17:46:48.921875
1738,-14.06,2021-12-17 17:46:48.937500
1739,-14.01,2021-12-17 17:46:48.953125
1740,-13.57,2021-12-17 17:46:48.968750
1741,-12.65,2021-12-17 17:46:48.984375
1742,-11.22,2021-12-17 17:46:49.000000
1743,-9.38,2021-12-17 17:46:49.015625
1744,-7.27,2021-12-17 17:46:49.031250
1745,-5.07,2021-12-17 17:46:49.046875
1746,-2.91,2021-12-17 17:46:49.062500
1747,-0.85,2021-12-17 17:46:49.078125
1748,1.1,2021-12-17 17:46:49.093750
1749,3.01,2021-12-17 17:46:49.109375
1750,4.88,2021-12-17 17:46:49.125000
1751,6.58,2021-12-17 17:46:49.140625
1752,7.9,2021-12-17 17:46:49.156250
1753,8.57,2021-12-17 17:46:49.171875
1754,8.39,2021-12-17 17:46:49.187500
1755,7.37,2021-12-17 17:46:49.203125
1756,5.7,2021-12-17 17:46:49.218750
1757,3.72,2021-12-17 17:46:49.234375
1758,1.82,2021-12-17 17:46:49.250000
1759,0.28,2021-12-17 17:46:49.265625
1760,-0.75,2021-12-17 17:46:49.281250
1761,-1.22,2021-12-17 17:46:49.296875
1762,-1.17,2021-12-17 17:46:49.312500
1763,-0.68,2021-12-17 17:46:49.328125
1764,0.12,2021-12-17 17:46:49.343750
1765,0.98,2021-12-17 17:46:49.359375
1766,1.65,2021-12-17 17:46:49.375000
1767,1.92,2021-12-17 17:46:49.390625
1768,1.73,2021-12-17 17:46:49.406250
1769,1.21,2021-12-17 17:46:49.421875
1770,0.59,2021-12-17 17:46:49.437500
1771,0.08,2021-12-17 17:46:49.453125
1772,-0.22,2021-12-17 17:46:49.468750
1773,-0.41,2021-12-17 17:46:49.484375
1774,-0.69,2021-12-17 17:46:49.500000
1775,-1.22,2021-12-17 17:46:49.515625
1776,-2.1,2021-12-17 17:46:49.531250
1777,-3.29,2021-12-17 17:46:49.546875
1778,-4.71,2021-12-17 17:46:49.562500
1779,-6.23,2021-12-17 17:46:49.578125
1780,-7.78,2021-12-17 17:46:49.593750
1781,-9.29,2021-12-17 17:46:49.609375
1782,-10.68,2021-12-17 17:46:49.625000
1783,-11.87,2021-12-17 17:46:49.640625
1784,-12.84,2021-12-17 17:46:49.656250
1785,-13.63,2021-12-17 17:46:49.671875
1786,-14.25,2021-12-17 17:46:49.687500
1787,-14.68,2021-12-17 17:46:49.703125
1788,-14.73,2021-12-17 17:46:49.718750
1789,-14.22,2021-12-17 17:46:49.734375
1790,-12.89,2021-12-17 17:46:49.750000
1791,-10.7,2021-12-17 17:46:49.765625
1792,-7.79,2021-12-17 17:46:49.781250
1793,-4.5,2021-12-17 17:46:49.796875
1794,-1.34,2021-12-17 17:46:49.812500
1795,1.28,2021-12-17 17:46:49.828125
1796,3.13,2021-12-17 17:46:49.843750
1797,4.24,2021-12-17 17:46:49.859375
1798,4.83,2021-12-17 17:46:49.875000
1799,5.25,2021-12-17 17:46:49.890625
1800,5.8,2021-12-17 17:46:49.906250
1801,6.71,2021-12-17 17:46:49.921875
1802,8.08,2021-12-17 17:46:49.937500
1803,9.85,2021-12-17 17:46:49.953125
1804,11.86,2021-12-17 17:46:49.968750
1805,13.82,2021-12-17 17:46:49.984375
1806,15.42,2021-12-17 17:46:50.000000
1807,16.34,2021-12-17 17:46:50.015625
1808,16.4,2021-12-17 17:46:50.031250
1809,15.6,2021-12-17 17:46:50.046875
1810,14.16,2021-12-17 17:46:50.062500
1811,12.43,2021-12-17 17:46:50.078125
1812,10.78,2021-12-17 17:46:50.093750
1813,9.49,2021-12-17 17:46:50.109375
1814,8.61,2021-12-17 17:46:50.125000
1815,8.03,2021-12-17 17:46:50.140625
1816,7.5,2021-12-17 17:46:50.156250
1817,6.78,2021-12-17 17:46:50.171875
1818,5.71,2021-12-17 17:46:50.187500
1819,4.17,2021-12-17 17:46:50.203125
1820,2.23,2021-12-17 17:46:50.218750
1821,0.04,2021-12-17 17:46:50.234375
1822,-2.22,2021-12-17 17:46:50.250000
1823,-4.37,2021-12-17 17:46:50.265625
1824,-6.3,2021-12-17 17:46:50.281250
1825,-7.96,2021-12-17 17:46:50.296875
1826,-9.33,2021-12-17 17:46:50.312500
1827,-10.38,2021-12-17 17:46:50.328125
1828,-11.11,2021-12-17 17:46:50.343750
1829,-11.47,2021-12-17 17:46:50.359375
1830,-11.51,2021-12-17 17:46:50.375000
1831,-11.35,2021-12-17 17:46:50.390625
1832,-11.19,2021-12-17 17:46:50.406250
1833,-11.26,2021-12-17 17:46:50.421875
1834,-11.72,2021-12-17 17:46:50.437500
1835,-12.52,2021-12-17 17:46:50.453125
1836,-13.41,2021-12-17 17:46:50.468750
1837,-14.06,2021-12-17 17:46:50.484375
1838,-14.16,2021-12-17 17:46:50.500000
1839,-13.58,2021-12-17 17:46:50.515625
1840,-12.44,2021-12-17 17:46:50.531250
1841,-10.99,2021-12-17 17:46:50.546875
1842,-9.49,2021-12-17 17:46:50.562500
1843,-8.14,2021-12-17 17:46:50.578125
1844,-6.91,2021-12-17 17:46:50.593750
1845,-5.66,2021-12-17 17:46:50.609375
1846,-4.28,2021-12-17 17:46:50.625000
1847,-2.72,2021-12-17 17:46:50.640625
1848,-1.06,2021-12-17 17:46:50.656250
1849,0.46,2021-12-17 17:46:50.671875
1850,1.67,2021-12-17 17:46:50.687500
1851,2.42,2021-12-17 17:46:50.703125
1852,2.71,2021-12-17 17:46:50.718750
1853,2.67,2021-12-17 17:46:50.734375
1854,2.47,2021-12-17 17:46:50.750000
1855,2.26,2021-12-17 17:46:50.765625
1856,2.11,2021-12-17 17:46:50.781250
1857,1.96,2021-12-17 17:46:50.796875
1858,1.69,2021-12-17 17:46:50.812500
1859,1.27,2021-12-17 17:46:50.828125
1860,0.76,2021-12-17 17:46:50.843750
1861,0.32,2021-12-17 17:46:50.859375
1862,0.24,2021-12-17 17:46:50.875000
1863,0.7,2021-12-17 17:46:50.890625
1864,1.79,2021-12-17 17:46:50.906250
1865,3.51,2021-12-17 17:46:50.921875
1866,5.72,2021-12-17 17:46:50.937500
1867,8.27,2021-12-17 17:46:50.953125
1868,11.03,2021-12-17 17:46:50.968750
1869,13.86,2021-12-17 17:46:50.984375
1870,16.6,2021-12-17 17:46:51.000000
1871,19.08,2021-12-17 17:46:51.015625
1872,21.11,2021-12-17 17:46:51.031250
1873,22.55,2021-12-17 17:46:51.046875
1874,23.36,2021-12-17 17:46:51.062500
1875,23.61,2021-12-17 17:46:51.078125
1876,23.44,2021-12-17 17:46:51.093750
1877,23.01,2021-12-17 17:46:51.109375
1878,22.45,2021-12-17 17:46:51.125000
1879,21.76,2021-12-17 17:46:51.140625
1880,20.9,2021-12-17 17:46:51.156250
1881,19.72,2021-12-17 17:46:51.171875
1882,18.14,2021-12-17 17:46:51.187500
1883,16.16,2021-12-17 17:46:51.203125
1884,13.9,2021-12-17 17:46:51.218750
1885,11.6,2021-12-17 17:46:51.234375
1886,9.47,2021-12-17 17:46:51.250000
1887,7.72,2021-12-17 17:46:51.265625
1888,6.37,2021-12-17 17:46:51.281250
1889,5.35,2021-12-17 17:46:51.296875
1890,4.56,2021-12-17 17:46:51.312500
1891,3.92,2021-12-17 17:46:51.328125
1892,3.4,2021-12-17 17:46:51.343750
1893,2.98,2021-12-17 17:46:51.359375
1894,2.63,2021-12-17 17:46:51.375000
1895,2.23,2021-12-17 17:46:51.390625
1896,1.68,2021-12-17 17:46:51.406250
1897,0.91,2021-12-17 17:46:51.421875
1898,-0.01,2021-12-17 17:46:51.437500
1899,-0.99,2021-12-17 17:46:51.453125
1900,-1.91,2021-12-17 17:46:51.468750
1901,-2.74,2021-12-17 17:46:51.484375
1902,-3.57,2021-12-17 17:46:51.500000
1903,-4.46,2021-12-17 17:46:51.515625
1904,-5.41,2021-12-17 17:46:51.531250
1905,-6.3,2021-12-17 17:46:51.546875
1906,-6.9,2021-12-17 17:46:51.562500
1907,-6.98,2021-12-17 17:46:51.578125
1908,-6.39,2021-12-17 17:46:51.593750
1909,-5.26,2021-12-17 17:46:51.609375
1910,-3.8,2021-12-17 17:46:51.625000
1911,-2.37,2021-12-17 17:46:51.640625
1912,-1.32,2021-12-17 17:46:51.656250
1913,-0.85,2021-12-17 17:46:51.671875
1914,-1.02,2021-12-17 17:46:51.687500
1915,-1.74,2021-12-17 17:46:51.703125
1916,-2.78,2021-12-17 17:46:51.718750
1917,-3.93,2021-12-17 17:46:51.734375
1918,-4.97,2021-12-17 17:46:51.750000
1919,-5.74,2021-12-17 17:46:51.765625
1920,-6.15,2021-12-17 17:46:51.781250
1921,-6.25,2021-12-17 17:46:51.796875
1922,-6.1,2021-12-17 17:46:51.812500
1923,-5.84,2021-12-17 17:46:51.828125
1924,-5.57,2021-12-17 17:46:51.843750
1925,-5.3,2021-12-17 17:46:51.859375
1926,-5.0,2021-12-17 17:46:51.875000
1927,-4.58,2021-12-17 17:46:51.890625
1928,-3.91,2021-12-17 17:46:51.906250
1929,-2.94,2021-12-17 17:46:51.921875
1930,-1.7,2021-12-17 17:46:51.937500
1931,-0.25,2021-12-17 17:46:51.953125
1932,1.26,2021-12-17 17:46:51.968750
1933,2.69,2021-12-17 17:46:51.984375
1934,3.92,2021-12-17 17:46:52.000000
1935,4.86,2021-12-17 17:46:52.015625
1936,5.45,2021-12-17 17:46:52.031250
1937,5.75,2021-12-17 17:46:52.046875
1938,5.83,2021-12-17 17:46:52.062500
1939,5.77,2021-12-17 17:46:52.078125
1940,5.72,2021-12-17 17:46:52.093750
1941,5.73,2021-12-17 17:46:52.109375
1942,5.88,2021-12-17 17:46:52.125000
1943,6.2,2021-12-17 17:46:52.140625
1944,6.7,2021-12-17 17:46:52.156250
1945,7.28,2021-12-17 17:46:52.171875
1946,7.79,2021-12-17 17:46:52.187500
1947,8.03,2021-12-17 17:46:52.203125
1948,7.93,2021-12-17 17:46:52.218750
1949,7.49,2021-12-17 17:46:52.234375
1950,6.83,2021-12-17 17:46:52.250000
1951,6.11,2021-12-17 17:46:52.265625
1952,5.41,2021-12-17 17:46:52.281250
1953,4.68,2021-12-17 17:46:52.296875
1954,3.87,2021-12-17 17:46:52.312500
1955,2.92,2021-12-17 17:46:52.328125
1956,1.9,2021-12-17 17:46:52.343750
1957,0.93,2021-12-17 17:46:52.359375
1958,0.01,2021-12-17 17:46:52.375000
1959,-0.94,2021-12-17 17:46:52.390625
1960,-2.05,2021-12-17 17:46:52.406250
1961,-3.39,2021-12-17 17:46:52.421875
1962,-4.85,2021-12-17 17:46:52.437500
1963,-6.14,2021-12-17 17:46:52.453125
1964,-7.04,2021-12-17 17:46:52.468750
1965,-7.56,2021-12-17 17:46:52.484375
1966,-7.96,2021-12-17 17:46:52.500000
1967,-8.7,2021-12-17 17:46:52.515625
1968,-10.08,2021-12-17 17:46:52.531250
1969,-12.05,2021-12-17 17:46:52.546875
1970,-14.15,2021-12-17 17:46:52.562500
1971,-15.77,2021-12-17 17:46:52.578125
1972,-16.34,2021-12-17 17:46:52.593750
1973,-15.66,2021-12-17 17:46:52.609375
1974,-13.89,2021-12-17 17:46:52.625000
1975,-11.44,2021-12-17 17:46:52.640625
1976,-8.84,2021-12-17 17:46:52.656250
1977,-6.49,2021-12-17 17:46:52.671875
1978,-4.63,2021-12-17 17:46:52.687500
1979,-3.29,2021-12-17 17:46:52.703125
1980,-2.36,2021-12-17 17:46:52.718750
1981,-1.58,2021-12-17 17:46:52.734375
1982,-0.68,2021-12-17 17:46:52.750000
1983,0.54,2021-12-17 17:46:52.765625
1984,2.13,2021-12-17 17:46:52.781250
1985,3.9,2021-12-17 17:46:52.796875
1986,5.58,2021-12-17 17:46:52.812500
1987,6.85,2021-12-17 17:46:52.828125
1988,7.54,2021-12-17 17:46:52.843750
1989,7.7,2021-12-17 17:46:52.859375
1990,7.55,2021-12-17 17:46:52.875000
1991,7.39,2021-12-17 17:46:52.890625
1992,7.46,2021-12-17 17:46:52.906250
1993,7.87,2021-12-17 17:46:52.921875
1994,8.52,2021-12-17 17:46:52.937500
1995,9.26,2021-12-17 17:46:52.953125
1996,9.87,2021-12-17 17:46:52.968750
1997,10.29,2021-12-17 17:46:52.984375
1998,10.51,2021-12-17 17:46:53.000000
1999,10.65,2021-12-17 17:46:53.015625
2000,10.79,2021-12-17 17:46:53.031250
2001,10.93,2021-12-17 17:46:53.046875
2002,11.04,2021-12-17 17:46:53.062500
2003,11.03,2021-12-17 17:46:53.078125
2004,10.84,2021-12-17 17:46:53.093750
2005,10.54,2021-12-17 17:46:53.109375
2006,10.24,2021-12-17 17:46:53.125000
2007,10.02,2021-12-17 17:46:53.140625
2008,9.88,2021-12-17 17:46:53.156250
2009,9.77,2021-12-17 17:46:53.171875
2010,9.57,2021-12-17 17:46:53.187500
2011,9.25,2021-12-17 17:46:53.203125
2012,8.84,2021-12-17 17:46:53.218750
2013,8.41,2021-12-17 17:46:53.234375
2014,8.06,2021-12-17 17:46:53.250000
2015,7.79,2021-12-17 17:46:53.265625
2016,7.53,2021-12-17 17:46:53.281250
2017,7.19,2021-12-17 17:46:53.296875
2018,6.69,2021-12-17 17:46:53.312500
2019,6.08,2021-12-17 17:46:53.328125
2020,5.43,2021-12-17 17:46:53.343750
2021,4.81,2021-12-17 17:46:53.359375
2022,4.23,2021-12-17 17:46:53.375000
2023,3.64,2021-12-17 17:46:53.390625
2024,2.98,2021-12-17 17:46:53.406250
2025,2.27,2021-12-17 17:46:53.421875
2026,1.6,2021-12-17 17:46:53.437500
2027,1.08,2021-12-17 17:46:53.453125
2028,0.71,2021-12-17 17:46:53.468750
2029,0.39,2021-12-17 17:46:53.484375
2030,-0.13,2021-12-17 17:46:53.500000
2031,-1.08,2021-12-17 17:46:53.515625
2032,-2.57,2021-12-17 17:46:53.531250
2033,-4.44,2021-12-17 17:46:53.546875
2034,-6.38,2021-12-17 17:46:53.562500
2035,-8.02,2021-12-17 17:46:53.578125
2036,-9.13,2021-12-17 17:46:53.593750
2037,-9.62,2021-12-17 17:46:53.609375
2038,-9.53,2021-12-17 17:46:53.625000
2039,-8.92,2021-12-17 17:46:53.640625
2040,-7.89,2021-12-17 17:46:53.656250
2041,-6.53,2021-12-17 17:46:53.671875
2042,-4.98,2021-12-17 17:46:53.687500
2043,-3.37,2021-12-17 17:46:53.703125
2044,-1.85,2021-12-17 17:46:53.718750
2045,-0.52,2021-12-17 17:46:53.734375
2046,0.55,2021-12-17 17:46:53.750000
2047,1.37,2021-12-17 17:46:53.765625
2048,1.99,2021-12-17 17:46:53.781250
2049,2.43,2021-12-17 17:46:53.796875
2050,2.75,2021-12-17 17:46:53.812500
2051,2.98,2021-12-17 17:46:53.828125
2052,3.2,2021-12-17 17:46:53.843750
2053,3.41,2021-12-17 17:46:53.859375
2054,3.65,2021-12-17 17:46:53.875000
2055,3.83,2021-12-17 17:46:53.890625
2056,3.92,2021-12-17 17:46:53.906250
2057,3.9,2021-12-17 17:46:53.921875
2058,3.83,2021-12-17 17:46:53.937500
2059,3.78,2021-12-17 17:46:53.953125
2060,3.8,2021-12-17 17:46:53.968750
2061,3.87,2021-12-17 17:46:53.984375
2062,3.91,2021-12-17 17:46:54.000000
2063,3.89,2021-12-17 17:46:54.015625
2064,3.75,2021-12-17 17:46:54.031250
2065,3.53,2021-12-17 17:46:54.046875
2066,3.28,2021-12-17 17:46:54.062500
2067,3.04,2021-12-17 17:46:54.078125
2068,2.84,2021-12-17 17:46:54.093750
2069,2.68,2021-12-17 17:46:54.109375
2070,2.55,2021-12-17 17:46:54.125000
2071,2.48,2021-12-17 17:46:54.140625
2072,2.49,2021-12-17 17:46:54.156250
2073,2.62,2021-12-17 17:46:54.171875
2074,2.93,2021-12-17 17:46:54.187500
2075,3.39,2021-12-17 17:46:54.203125
2076,3.89,2021-12-17 17:46:54.218750
2077,4.35,2021-12-17 17:46:54.234375
2078,4.65,2021-12-17 17:46:54.250000
2079,4.74,2021-12-17 17:46:54.265625
2080,4.62,2021-12-17 17:46:54.281250
2081,4.35,2021-12-17 17:46:54.296875
2082,3.98,2021-12-17 17:46:54.312500
2083,3.59,2021-12-17 17:46:54.328125
2084,3.16,2021-12-17 17:46:54.343750
2085,2.63,2021-12-17 17:46:54.359375
2086,1.95,2021-12-17 17:46:54.375000
2087,1.06,2021-12-17 17:46:54.390625
2088,-0.05,2021-12-17 17:46:54.406250
2089,-1.32,2021-12-17 17:46:54.421875
2090,-2.61,2021-12-17 17:46:54.437500
2091,-3.77,2021-12-17 17:46:54.453125
2092,-4.67,2021-12-17 17:46:54.468750
2093,-5.22,2021-12-17 17:46:54.484375
2094,-5.47,2021-12-17 17:46:54.500000
2095,-5.54,2021-12-17 17:46:54.515625
2096,-5.65,2021-12-17 17:46:54.531250
2097,-5.96,2021-12-17 17:46:54.546875
2098,-6.54,2021-12-17 17:46:54.562500
2099,-7.32,2021-12-17 17:46:54.578125
2100,-8.1,2021-12-17 17:46:54.593750
2101,-8.61,2021-12-17 17:46:54.609375
2102,-8.58,2021-12-17 17:46:54.625000
2103,-7.89,2021-12-17 17:46:54.640625
2104,-6.53,2021-12-17 17:46:54.656250
2105,-4.72,2021-12-17 17:46:54.671875
2106,-2.75,2021-12-17 17:46:54.687500
2107,-0.97,2021-12-17 17:46:54.703125
2108,0.32,2021-12-17 17:46:54.718750
2109,0.99,2021-12-17 17:46:54.734375
2110,1.04,2021-12-17 17:46:54.750000
2111,0.64,2021-12-17 17:46:54.765625
2112,0.04,2021-12-17 17:46:54.781250
2113,-0.49,2021-12-17 17:46:54.796875
2114,-0.77,2021-12-17 17:46:54.812500
2115,-0.73,2021-12-17 17:46:54.828125
2116,-0.41,2021-12-17 17:46:54.843750
2117,0.1,2021-12-17 17:46:54.859375
2118,0.7,2021-12-17 17:46:54.875000
2119,1.29,2021-12-17 17:46:54.890625
2120,1.76,2021-12-17 17:46:54.906250
2121,1.97,2021-12-17 17:46:54.921875
2122,1.84,2021-12-17 17:46:54.937500
2123,1.37,2021-12-17 17:46:54.953125
2124,0.69,2021-12-17 17:46:54.968750
2125,0.05,2021-12-17 17:46:54.984375
2126,-0.28,2021-12-17 17:46:55.000000
2127,-0.13,2021-12-17 17:46:55.015625
2128,0.47,2021-12-17 17:46:55.031250
2129,1.32,2021-12-17 17:46:55.046875
2130,2.14,2021-12-17 17:46:55.062500
2131,2.74,2021-12-17 17:46:55.078125
2132,3.06,2021-12-17 17:46:55.093750
2133,3.15,2021-12-17 17:46:55.109375
2134,3.17,2021-12-17 17:46:55.125000
2135,3.22,2021-12-17 17:46:55.140625
2136,3.33,2021-12-17 17:46:55.156250
2137,3.49,2021-12-17 17:46:55.171875
2138,3.62,2021-12-17 17:46:55.187500
2139,3.64,2021-12-17 17:46:55.203125
2140,3.41,2021-12-17 17:46:55.218750
2141,2.86,2021-12-17 17:46:55.234375
2142,1.97,2021-12-17 17:46:55.250000
2143,0.89,2021-12-17 17:46:55.265625
2144,-0.2,2021-12-17 17:46:55.281250
2145,-1.08,2021-12-17 17:46:55.296875
2146,-1.65,2021-12-17 17:46:55.312500
2147,-1.91,2021-12-17 17:46:55.328125
2148,-2.06,2021-12-17 17:46:55.343750
2149,-2.3,2021-12-17 17:46:55.359375
2150,-2.73,2021-12-17 17:46:55.375000
2151,-3.28,2021-12-17 17:46:55.390625
2152,-3.75,2021-12-17 17:46:55.406250
2153,-3.97,2021-12-17 17:46:55.421875
2154,-3.91,2021-12-17 17:46:55.437500
2155,-3.68,2021-12-17 17:46:55.453125
2156,-3.47,2021-12-17 17:46:55.468750
2157,-3.43,2021-12-17 17:46:55.484375
2158,-3.57,2021-12-17 17:46:55.500000
2159,-3.78,2021-12-17 17:46:55.515625
2160,-3.93,2021-12-17 17:46:55.531250
2161,-3.92,2021-12-17 17:46:55.546875
2162,-3.77,2021-12-17 17:46:55.562500
2163,-3.52,2021-12-17 17:46:55.578125
2164,-3.19,2021-12-17 17:46:55.593750
2165,-2.74,2021-12-17 17:46:55.609375
2166,-2.1,2021-12-17 17:46:55.625000
2167,-1.29,2021-12-17 17:46:55.640625
2168,-0.45,2021-12-17 17:46:55.656250
2169,0.15,2021-12-17 17:46:55.671875
2170,0.27,2021-12-17 17:46:55.687500
2171,-0.18,2021-12-17 17:46:55.703125
2172,-1.1,2021-12-17 17:46:55.718750
2173,-2.22,2021-12-17 17:46:55.734375
2174,-3.19,2021-12-17 17:46:55.750000
2175,-3.75,2021-12-17 17:46:55.765625
2176,-3.78,2021-12-17 17:46:55.781250
2177,-3.31,2021-12-17 17:46:55.796875
2178,-2.49,2021-12-17 17:46:55.812500
2179,-1.48,2021-12-17 17:46:55.828125
2180,-0.41,2021-12-17 17:46:55.843750
2181,0.6,2021-12-17 17:46:55.859375
2182,1.47,2021-12-17 17:46:55.875000
2183,2.12,2021-12-17 17:46:55.890625
2184,2.48,2021-12-17 17:46:55.906250
2185,2.48,2021-12-17 17:46:55.921875
2186,2.17,2021-12-17 17:46:55.937500
2187,1.63,2021-12-17 17:46:55.953125
2188,1.09,2021-12-17 17:46:55.968750
2189,0.72,2021-12-17 17:46:55.984375
2190,0.67,2021-12-17 17:46:56.000000
2191,0.86,2021-12-17 17:46:56.015625
2192,1.15,2021-12-17 17:46:56.031250
2193,1.35,2021-12-17 17:46:56.046875
2194,1.29,2021-12-17 17:46:56.062500
2195,0.97,2021-12-17 17:46:56.078125
2196,0.44,2021-12-17 17:46:56.093750
2197,-0.14,2021-12-17 17:46:56.109375
2198,-0.74,2021-12-17 17:46:56.125000
2199,-1.34,2021-12-17 17:46:56.140625
2200,-1.98,2021-12-17 17:46:56.156250
2201,-2.61,2021-12-17 17:46:56.171875
2202,-3.17,2021-12-17 17:46:56.187500
2203,-3.54,2021-12-17 17:46:56.203125
2204,-3.68,2021-12-17 17:46:56.218750
2205,-3.62,2021-12-17 17:46:56.234375
2206,-3.47,2021-12-17 17:46:56.250000
2207,-3.35,2021-12-17 17:46:56.265625
2208,-3.38,2021-12-17 17:46:56.281250
2209,-3.57,2021-12-17 17:46:56.296875
2210,-3.87,2021-12-17 17:46:56.312500
2211,-4.22,2021-12-17 17:46:56.328125
2212,-4.55,2021-12-17 17:46:56.343750
2213,-4.81,2021-12-17 17:46:56.359375
2214,-4.95,2021-12-17 17:46:56.375000
2215,-4.9,2021-12-17 17:46:56.390625
2216,-4.55,2021-12-17 17:46:56.406250
2217,-3.88,2021-12-17 17:46:56.421875
2218,-2.96,2021-12-17 17:46:56.437500
2219,-1.97,2021-12-17 17:46:56.453125
2220,-1.14,2021-12-17 17:46:56.468750
2221,-0.62,2021-12-17 17:46:56.484375
2222,-0.39,2021-12-17 17:46:56.500000
2223,-0.34,2021-12-17 17:46:56.515625
2224,-0.25,2021-12-17 17:46:56.531250
2225,0.03,2021-12-17 17:46:56.546875
2226,0.55,2021-12-17 17:46:56.562500
2227,1.23,2021-12-17 17:46:56.578125
2228,1.95,2021-12-17 17:46:56.593750
2229,2.65,2021-12-17 17:46:56.609375
2230,3.28,2021-12-17 17:46:56.625000
2231,3.84,2021-12-17 17:46:56.640625
2232,4.25,2021-12-17 17:46:56.656250
2233,4.41,2021-12-17 17:46:56.671875
2234,4.23,2021-12-17 17:46:56.687500
2235,3.76,2021-12-17 17:46:56.703125
2236,3.13,2021-12-17 17:46:56.718750
2237,2.55,2021-12-17 17:46:56.734375
2238,2.12,2021-12-17 17:46:56.750000
2239,1.86,2021-12-17 17:46:56.765625
2240,1.65,2021-12-17 17:46:56.781250
2241,1.33,2021-12-17 17:46:56.796875
2242,0.81,2021-12-17 17:46:56.812500
2243,0.05,2021-12-17 17:46:56.828125
2244,-0.84,2021-12-17 17:46:56.843750
2245,-1.76,2021-12-17 17:46:56.859375
2246,-2.61,2021-12-17 17:46:56.875000
2247,-3.33,2021-12-17 17:46:56.890625
2248,-3.87,2021-12-17 17:46:56.906250
2249,-4.19,2021-12-17 17:46:56.921875
2250,-4.34,2021-12-17 17:46:56.937500
2251,-4.36,2021-12-17 17:46:56.953125
2252,-4.28,2021-12-17 17:46:56.968750
2253,-4.17,2021-12-17 17:46:56.984375
2254,-4.05,2021-12-17 17:46:57.000000
2255,-3.95,2021-12-17 17:46:57.015625
2256,-3.89,2021-12-17 17:46:57.031250
2257,-3.84,2021-12-17 17:46:57.046875
2258,-3.79,2021-12-17 17:46:57.062500
2259,-3.7,2021-12-17 17:46:57.078125
2260,-3.55,2021-12-17 17:46:57.093750
2261,-3.32,2021-12-17 17:46:57.109375
2262,-3.06,2021-12-17 17:46:57.125000
2263,-2.84,2021-12-17 17:46:57.140625
2264,-2.76,2021-12-17 17:46:57.156250
2265,-2.92,2021-12-17 17:46:57.171875
2266,-3.37,2021-12-17 17:46:57.187500
2267,-4.11,2021-12-17 17:46:57.203125
2268,-5.02,2021-12-17 17:46:57.218750
2269,-5.94,2021-12-17 17:46:57.234375
2270,-6.66,2021-12-17 17:46:57.250000
2271,-7.05,2021-12-17 17:46:57.265625
2272,-7.02,2021-12-17 17:46:57.281250
2273,-6.6,2021-12-17 17:46:57.296875
2274,-5.86,2021-12-17 17:46:57.312500
2275,-4.9,2021-12-17 17:46:57.328125
2276,-3.81,2021-12-17 17:46:57.343750
2277,-2.64,2021-12-17 17:46:57.359375
2278,-1.47,2021-12-17 17:46:57.375000
2279,-0.38,2021-12-17 17:46:57.390625
2280,0.57,2021-12-17 17:46:57.406250
2281,1.37,2021-12-17 17:46:57.421875
2282,1.98,2021-12-17 17:46:57.437500
2283,2.41,2021-12-17 17:46:57.453125
2284,2.63,2021-12-17 17:46:57.468750
2285,2.59,2021-12-17 17:46:57.484375
2286,2.27,2021-12-17 17:46:57.500000
2287,1.7,2021-12-17 17:46:57.515625
2288,0.98,2021-12-17 17:46:57.531250
2289,0.2,2021-12-17 17:46:57.546875
2290,-0.51,2021-12-17 17:46:57.562500
2291,-1.1,2021-12-17 17:46:57.578125
2292,-1.56,2021-12-17 17:46:57.593750
2293,-1.92,2021-12-17 17:46:57.609375
2294,-2.2,2021-12-17 17:46:57.625000
2295,-2.43,2021-12-17 17:46:57.640625
2296,-2.64,2021-12-17 17:46:57.656250
2297,-2.84,2021-12-17 17:46:57.671875
2298,-3.02,2021-12-17 17:46:57.687500
2299,-3.17,2021-12-17 17:46:57.703125
2300,-3.21,2021-12-17 17:46:57.718750
2301,-3.05,2021-12-17 17:46:57.734375
2302,-2.61,2021-12-17 17:46:57.750000
2303,-1.91,2021-12-17 17:46:57.765625
2304,-1.02,2021-12-17 17:46:57.781250
2305,-0.12,2021-12-17 17:46:57.796875
2306,0.6,2021-12-17 17:46:57.812500
2307,1.0,2021-12-17 17:46:57.828125
2308,1.04,2021-12-17 17:46:57.843750
2309,0.78,2021-12-17 17:46:57.859375
2310,0.35,2021-12-17 17:46:57.875000
2311,-0.14,2021-12-17 17:46:57.890625
2312,-0.66,2021-12-17 17:46:57.906250
2313,-1.23,2021-12-17 17:46:57.921875
2314,-1.86,2021-12-17 17:46:57.937500
2315,-2.48,2021-12-17 17:46:57.953125
2316,-2.96,2021-12-17 17:46:57.968750
2317,-3.18,2021-12-17 17:46:57.984375
2318,-3.11,2021-12-17 17:46:58.000000
2319,-2.88,2021-12-17 17:46:58.015625
2320,-2.69,2021-12-17 17:46:58.031250
2321,-2.75,2021-12-17 17:46:58.046875
2322,-3.11,2021-12-17 17:46:58.062500
2323,-3.66,2021-12-17 17:46:58.078125
2324,-4.16,2021-12-17 17:46:58.093750
2325,-4.38,2021-12-17 17:46:58.109375
2326,-4.24,2021-12-17 17:46:58.125000
2327,-3.78,2021-12-17 17:46:58.140625
2328,-3.21,2021-12-17 17:46:58.156250
2329,-2.73,2021-12-17 17:46:58.171875
2330,-2.48,2021-12-17 17:46:58.187500
2331,-2.51,2021-12-17 17:46:58.203125
2332,-2.78,2021-12-17 17:46:58.218750
2333,-3.25,2021-12-17 17:46:58.234375
2334,-3.87,2021-12-17 17:46:58.250000
2335,-4.6,2021-12-17 17:46:58.265625
2336,-5.35,2021-12-17 17:46:58.281250
2337,-5.95,2021-12-17 17:46:58.296875
2338,-6.17,2021-12-17 17:46:58.312500
2339,-5.79,2021-12-17 17:46:58.328125
2340,-4.72,2021-12-17 17:46:58.343750
2341,-3.15,2021-12-17 17:46:58.359375
2342,-1.49,2021-12-17 17:46:58.375000
2343,-0.15,2021-12-17 17:46:58.390625
2344,0.57,2021-12-17 17:46:58.406250
2345,0.69,2021-12-17 17:46:58.421875
2346,0.47,2021-12-17 17:46:58.437500
2347,0.26,2021-12-17 17:46:58.453125
2348,0.27,2021-12-17 17:46:58.468750
2349,0.51,2021-12-17 17:46:58.484375
2350,0.76,2021-12-17 17:46:58.500000
2351,0.78,2021-12-17 17:46:58.515625
2352,0.48,2021-12-17 17:46:58.531250
2353,-0.08,2021-12-17 17:46:58.546875
2354,-0.65,2021-12-17 17:46:58.562500
2355,-1.01,2021-12-17 17:46:58.578125
2356,-1.03,2021-12-17 17:46:58.593750
2357,-0.77,2021-12-17 17:46:58.609375
2358,-0.39,2021-12-17 17:46:58.625000
2359,-0.08,2021-12-17 17:46:58.640625
2360,0.1,2021-12-17 17:46:58.656250
2361,0.21,2021-12-17 17:46:58.671875
2362,0.4,2021-12-17 17:46:58.687500
2363,0.81,2021-12-17 17:46:58.703125
2364,1.48,2021-12-17 17:46:58.718750
2365,2.28,2021-12-17 17:46:58.734375
2366,3.06,2021-12-17 17:46:58.750000
2367,3.65,2021-12-17 17:46:58.765625
2368,4.02,2021-12-17 17:46:58.781250
2369,4.19,2021-12-17 17:46:58.796875
2370,4.26,2021-12-17 17:46:58.812500
2371,4.3,2021-12-17 17:46:58.828125
2372,4.36,2021-12-17 17:46:58.843750
2373,4.4,2021-12-17 17:46:58.859375
2374,4.38,2021-12-17 17:46:58.875000
2375,4.24,2021-12-17 17:46:58.890625
2376,3.94,2021-12-17 17:46:58.906250
2377,3.43,2021-12-17 17:46:58.921875
2378,2.73,2021-12-17 17:46:58.937500
2379,1.89,2021-12-17 17:46:58.953125
2380,1.05,2021-12-17 17:46:58.968750
2381,0.37,2021-12-17 17:46:58.984375
2382,0.0,2021-12-17 17:46:59.000000
2383,-0.05,2021-12-17 17:46:59.015625
2384,0.13,2021-12-17 17:46:59.031250
2385,0.32,2021-12-17 17:46:59.046875
2386,0.35,2021-12-17 17:46:59.062500
2387,0.14,2021-12-17 17:46:59.078125
2388,-0.26,2021-12-17 17:46:59.093750
2389,-0.77,2021-12-17 17:46:59.109375
2390,-1.3,2021-12-17 17:46:59.125000
2391,-1.83,2021-12-17 17:46:59.140625
2392,-2.45,2021-12-17 17:46:59.156250
2393,-3.28,2021-12-17 17:46:59.171875
2394,-4.41,2021-12-17 17:46:59.187500
2395,-5.79,2021-12-17 17:46:59.203125
2396,-7.21,2021-12-17 17:46:59.218750
2397,-8.4,2021-12-17 17:46:59.234375
2398,-9.17,2021-12-17 17:46:59.250000
2399,-9.49,2021-12-17 17:46:59.265625
2400,-9.49,2021-12-17 17:46:59.281250
2401,-9.33,2021-12-17 17:46:59.296875
2402,-9.06,2021-12-17 17:46:59.312500
2403,-8.6,2021-12-17 17:46:59.328125
2404,-7.75,2021-12-17 17:46:59.343750
2405,-6.41,2021-12-17 17:46:59.359375
2406,-4.6,2021-12-17 17:46:59.375000
2407,-2.62,2021-12-17 17:46:59.390625
2408,-0.77,2021-12-17 17:46:59.406250
2409,0.65,2021-12-17 17:46:59.421875
2410,1.51,2021-12-17 17:46:59.437500
2411,1.84,2021-12-17 17:46:59.453125
2412,1.75,2021-12-17 17:46:59.468750
2413,1.4,2021-12-17 17:46:59.484375
2414,0.89,2021-12-17 17:46:59.500000
2415,0.33,2021-12-17 17:46:59.515625
2416,-0.11,2021-12-17 17:46:59.531250
2417,-0.25,2021-12-17 17:46:59.546875
2418,0.01,2021-12-17 17:46:59.562500
2419,0.64,2021-12-17 17:46:59.578125
2420,1.44,2021-12-17 17:46:59.593750
2421,2.16,2021-12-17 17:46:59.609375
2422,2.6,2021-12-17 17:46:59.625000
2423,2.7,2021-12-17 17:46:59.640625
2424,2.57,2021-12-17 17:46:59.656250
2425,2.4,2021-12-17 17:46:59.671875
2426,2.35,2021-12-17 17:46:59.687500
2427,2.43,2021-12-17 17:46:59.703125
2428,2.55,2021-12-17 17:46:59.718750
2429,2.61,2021-12-17 17:46:59.734375
2430,2.58,2021-12-17 17:46:59.750000
2431,2.55,2021-12-17 17:46:59.765625
2432,2.62,2021-12-17 17:46:59.781250
2433,2.89,2021-12-17 17:46:59.796875
2434,3.32,2021-12-17 17:46:59.812500
2435,3.77,2021-12-17 17:46:59.828125
2436,4.12,2021-12-17 17:46:59.843750
2437,4.31,2021-12-17 17:46:59.859375
2438,4.38,2021-12-17 17:46:59.875000
2439,4.38,2021-12-17 17:46:59.890625
2440,4.3,2021-12-17 17:46:59.906250
2441,4.02,2021-12-17 17:46:59.921875
2442,3.41,2021-12-17 17:46:59.937500
2443,2.47,2021-12-17 17:46:59.953125
2444,1.24,2021-12-17 17:46:59.968750
2445,0.01,2021-12-17 17:46:59.984375
2446,-0.95,2021-12-17 17:47:00.000000
2447,-1.44,2021-12-17 17:47:00.015625
2448,-1.49,2021-12-17 17:47:00.031250
2449,-1.31,2021-12-17 17:47:00.046875
2450,-1.2,2021-12-17 17:47:00.062500
2451,-1.34,2021-12-17 17:47:00.078125
2452,-1.71,2021-12-17 17:47:00.093750
2453,-2.22,2021-12-17 17:47:00.109375
2454,-2.64,2021-12-17 17:47:00.125000
2455,-2.91,2021-12-17 17:47:00.140625
2456,-3.11,2021-12-17 17:47:00.156250
2457,-3.45,2021-12-17 17:47:00.171875
2458,-4.1,2021-12-17 17:47:00.187500
2459,-5.14,2021-12-17 17:47:00.203125
2460,-6.5,2021-12-17 17:47:00.218750
2461,-8.0,2021-12-17 17:47:00.234375
2462,-9.45,2021-12-17 17:47:00.250000
2463,-10.74,2021-12-17 17:47:00.265625
2464,-11.8,2021-12-17 17:47:00.281250
2465,-12.63,2021-12-17 17:47:00.296875
2466,-13.21,2021-12-17 17:47:00.312500
2467,-13.49,2021-12-17 17:47:00.328125
2468,-13.41,2021-12-17 17:47:00.343750
2469,-12.94,2021-12-17 17:47:00.359375
2470,-12.06,2021-12-17 17:47:00.375000
2471,-10.82,2021-12-17 17:47:00.390625
2472,-9.36,2021-12-17 17:47:00.406250
2473,-7.79,2021-12-17 17:47:00.421875
2474,-6.29,2021-12-17 17:47:00.437500
2475,-4.95,2021-12-17 17:47:00.453125
2476,-3.8,2021-12-17 17:47:00.468750
2477,-2.83,2021-12-17 17:47:00.484375
2478,-1.98,2021-12-17 17:47:00.500000
2479,-1.2,2021-12-17 17:47:00.515625
2480,-0.45,2021-12-17 17:47:00.531250
2481,0.29,2021-12-17 17:47:00.546875
2482,1.08,2021-12-17 17:47:00.562500
2483,1.92,2021-12-17 17:47:00.578125
2484,2.82,2021-12-17 17:47:00.593750
2485,3.75,2021-12-17 17:47:00.609375
2486,4.66,2021-12-17 17:47:00.625000
2487,5.46,2021-12-17 17:47:00.640625
2488,6.16,2021-12-17 17:47:00.656250
2489,6.68,2021-12-17 17:47:00.671875
2490,7.05,2021-12-17 17:47:00.687500
2491,7.25,2021-12-17 17:47:00.703125
2492,7.26,2021-12-17 17:47:00.718750
2493,7.09,2021-12-17 17:47:00.734375
2494,6.8,2021-12-17 17:47:00.750000
2495,6.42,2021-12-17 17:47:00.765625
2496,5.99,2021-12-17 17:47:00.781250
2497,5.54,2021-12-17 17:47:00.796875
2498,5.11,2021-12-17 17:47:00.812500
2499,4.73,2021-12-17 17:47:00.828125
2500,4.43,2021-12-17 17:47:00.843750
2501,4.24,2021-12-17 17:47:00.859375
2502,4.14,2021-12-17 17:47:00.875000
2503,4.09,2021-12-17 17:47:00.890625
2504,3.99,2021-12-17 17:47:00.906250
2505,3.78,2021-12-17 17:47:00.921875
2506,3.48,2021-12-17 17:47:00.937500
2507,3.13,2021-12-17 17:47:00.953125
2508,2.85,2021-12-17 17:47:00.968750
2509,2.7,2021-12-17 17:47:00.984375
2510,2.71,2021-12-17 17:47:01.000000
2511,2.83,2021-12-17 17:47:01.015625
2512,2.97,2021-12-17 17:47:01.031250
2513,3.03,2021-12-17 17:47:01.046875
2514,2.87,2021-12-17 17:47:01.062500
2515,2.4,2021-12-17 17:47:01.078125
2516,1.58,2021-12-17 17:47:01.093750
2517,0.43,2021-12-17 17:47:01.109375
2518,-0.98,2021-12-17 17:47:01.125000
2519,-2.52,2021-12-17 17:47:01.140625
2520,-4.02,2021-12-17 17:47:01.156250
2521,-5.35,2021-12-17 17:47:01.171875
2522,-6.4,2021-12-17 17:47:01.187500
2523,-7.15,2021-12-17 17:47:01.203125
2524,-7.7,2021-12-17 17:47:01.218750
2525,-8.21,2021-12-17 17:47:01.234375
2526,-8.81,2021-12-17 17:47:01.250000
2527,-9.55,2021-12-17 17:47:01.265625
2528,-10.39,2021-12-17 17:47:01.281250
2529,-11.23,2021-12-17 17:47:01.296875
2530,-11.96,2021-12-17 17:47:01.312500
2531,-12.45,2021-12-17 17:47:01.328125
2532,-12.62,2021-12-17 17:47:01.343750
2533,-12.44,2021-12-17 17:47:01.359375
2534,-11.86,2021-12-17 17:47:01.375000
2535,-10.82,2021-12-17 17:47:01.390625
2536,-9.36,2021-12-17 17:47:01.406250
2537,-7.64,2021-12-17 17:47:01.421875
2538,-5.9,2021-12-17 17:47:01.437500
2539,-4.4,2021-12-17 17:47:01.453125
2540,-3.29,2021-12-17 17:47:01.468750
2541,-2.54,2021-12-17 17:47:01.484375
2542,-1.94,2021-12-17 17:47:01.500000
2543,-1.26,2021-12-17 17:47:01.515625
2544,-0.33,2021-12-17 17:47:01.531250
2545,0.78,2021-12-17 17:47:01.546875
2546,1.93,2021-12-17 17:47:01.562500
2547,2.89,2021-12-17 17:47:01.578125
2548,3.5,2021-12-17 17:47:01.593750
2549,3.72,2021-12-17 17:47:01.609375
2550,3.64,2021-12-17 17:47:01.625000
2551,3.47,2021-12-17 17:47:01.640625
2552,3.37,2021-12-17 17:47:01.656250
2553,3.47,2021-12-17 17:47:01.671875
2554,3.75,2021-12-17 17:47:01.687500
2555,4.13,2021-12-17 17:47:01.703125
2556,4.58,2021-12-17 17:47:01.718750
2557,5.06,2021-12-17 17:47:01.734375
2558,5.57,2021-12-17 17:47:01.750000
2559,6.17,2021-12-17 17:47:01.765625
2560,6.84,2021-12-17 17:47:01.781250
2561,7.54,2021-12-17 17:47:01.796875
2562,8.15,2021-12-17 17:47:01.812500
2563,8.57,2021-12-17 17:47:01.828125
2564,8.74,2021-12-17 17:47:01.843750
2565,8.6,2021-12-17 17:47:01.859375
2566,8.21,2021-12-17 17:47:01.875000
2567,7.64,2021-12-17 17:47:01.890625
2568,7.0,2021-12-17 17:47:01.906250
2569,6.4,2021-12-17 17:47:01.921875
2570,5.88,2021-12-17 17:47:01.937500
2571,5.43,2021-12-17 17:47:01.953125
2572,4.93,2021-12-17 17:47:01.968750
2573,4.33,2021-12-17 17:47:01.984375
2574,3.52,2021-12-17 17:47:02.000000
2575,2.55,2021-12-17 17:47:02.015625
2576,1.57,2021-12-17 17:47:02.031250
2577,0.81,2021-12-17 17:47:02.046875
2578,0.41,2021-12-17 17:47:02.062500
2579,0.42,2021-12-17 17:47:02.078125
2580,0.74,2021-12-17 17:47:02.093750
2581,1.12,2021-12-17 17:47:02.109375
2582,1.36,2021-12-17 17:47:02.125000
2583,1.32,2021-12-17 17:47:02.140625
2584,1.02,2021-12-17 17:47:02.156250
2585,0.58,2021-12-17 17:47:02.171875
2586,0.15,2021-12-17 17:47:02.187500
2587,-0.17,2021-12-17 17:47:02.203125
2588,-0.41,2021-12-17 17:47:02.218750
2589,-0.66,2021-12-17 17:47:02.234375
2590,-1.05,2021-12-17 17:47:02.250000
2591,-1.69,2021-12-17 17:47:02.265625
2592,-2.65,2021-12-17 17:47:02.281250
2593,-3.92,2021-12-17 17:47:02.296875
2594,-5.42,2021-12-17 17:47:02.312500
2595,-7.07,2021-12-17 17:47:02.328125
2596,-8.68,2021-12-17 17:47:02.343750
2597,-10.04,2021-12-17 17:47:02.359375
2598,-10.92,2021-12-17 17:47:02.375000
2599,-11.12,2021-12-17 17:47:02.390625
2600,-10.5,2021-12-17 17:47:02.406250
2601,-9.17,2021-12-17 17:47:02.421875
2602,-7.36,2021-12-17 17:47:02.437500
2603,-5.43,2021-12-17 17:47:02.453125
2604,-3.74,2021-12-17 17:47:02.468750
2605,-2.47,2021-12-17 17:47:02.484375
2606,-1.66,2021-12-17 17:47:02.500000
2607,-1.16,2021-12-17 17:47:02.515625
2608,-0.78,2021-12-17 17:47:02.531250
2609,-0.34,2021-12-17 17:47:02.546875
2610,0.29,2021-12-17 17:47:02.562500
2611,1.08,2021-12-17 17:47:02.578125
2612,2.03,2021-12-17 17:47:02.593750
2613,3.04,2021-12-17 17:47:02.609375
2614,4.06,2021-12-17 17:47:02.625000
2615,4.97,2021-12-17 17:47:02.640625
2616,5.65,2021-12-17 17:47:02.656250
2617,6.04,2021-12-17 17:47:02.671875
2618,6.17,2021-12-17 17:47:02.687500
2619,6.13,2021-12-17 17:47:02.703125
2620,6.07,2021-12-17 17:47:02.718750
2621,6.14,2021-12-17 17:47:02.734375
2622,6.37,2021-12-17 17:47:02.750000
2623,6.74,2021-12-17 17:47:02.765625
2624,7.14,2021-12-17 17:47:02.781250
2625,7.45,2021-12-17 17:47:02.796875
2626,7.54,2021-12-17 17:47:02.812500
2627,7.31,2021-12-17 17:47:02.828125
2628,6.74,2021-12-17 17:47:02.843750
2629,5.91,2021-12-17 17:47:02.859375
2630,4.93,2021-12-17 17:47:02.875000
2631,4.0,2021-12-17 17:47:02.890625
2632,3.29,2021-12-17 17:47:02.906250
2633,2.88,2021-12-17 17:47:02.921875
2634,2.81,2021-12-17 17:47:02.937500
2635,2.92,2021-12-17 17:47:02.953125
2636,3.08,2021-12-17 17:47:02.968750
2637,3.16,2021-12-17 17:47:02.984375
2638,3.14,2021-12-17 17:47:03.000000
2639,3.1,2021-12-17 17:47:03.015625
2640,3.03,2021-12-17 17:47:03.031250
2641,2.97,2021-12-17 17:47:03.046875
2642,2.82,2021-12-17 17:47:03.062500
2643,2.48,2021-12-17 17:47:03.078125
2644,1.81,2021-12-17 17:47:03.093750
2645,0.81,2021-12-17 17:47:03.109375
2646,-0.42,2021-12-17 17:47:03.125000
2647,-1.68,2021-12-17 17:47:03.140625
2648,-2.77,2021-12-17 17:47:03.156250
2649,-3.62,2021-12-17 17:47:03.171875
2650,-4.25,2021-12-17 17:47:03.187500
2651,-4.79,2021-12-17 17:47:03.203125
2652,-5.45,2021-12-17 17:47:03.218750
2653,-6.37,2021-12-17 17:47:03.234375
2654,-7.57,2021-12-17 17:47:03.250000
2655,-8.93,2021-12-17 17:47:03.265625
2656,-10.22,2021-12-17 17:47:03.281250
2657,-11.17,2021-12-17 17:47:03.296875
2658,-11.59,2021-12-17 17:47:03.312500
2659,-11.38,2021-12-17 17:47:03.328125
2660,-10.57,2021-12-17 17:47:03.343750
2661,-9.3,2021-12-17 17:47:03.359375
2662,-7.78,2021-12-17 17:47:03.375000
2663,-6.18,2021-12-17 17:47:03.390625
2664,-4.69,2021-12-17 17:47:03.406250
2665,-3.48,2021-12-17 17:47:03.421875
2666,-2.61,2021-12-17 17:47:03.437500
2667,-2.08,2021-12-17 17:47:03.453125
2668,-1.76,2021-12-17 17:47:03.468750
2669,-1.5,2021-12-17 17:47:03.484375
2670,-1.17,2021-12-17 17:47:03.500000
2671,-0.68,2021-12-17 17:47:03.515625
2672,-0.07,2021-12-17 17:47:03.531250
2673,0.59,2021-12-17 17:47:03.546875
2674,1.24,2021-12-17 17:47:03.562500
2675,1.93,2021-12-17 17:47:03.578125
2676,2.72,2021-12-17 17:47:03.593750
2677,3.66,2021-12-17 17:47:03.609375
2678,4.68,2021-12-17 17:47:03.625000
2679,5.62,2021-12-17 17:47:03.640625
2680,6.35,2021-12-17 17:47:03.656250
2681,6.8,2021-12-17 17:47:03.671875
2682,7.06,2021-12-17 17:47:03.687500
2683,7.34,2021-12-17 17:47:03.703125
2684,7.76,2021-12-17 17:47:03.718750
2685,8.32,2021-12-17 17:47:03.734375
2686,8.86,2021-12-17 17:47:03.750000
2687,9.21,2021-12-17 17:47:03.765625
2688,9.23,2021-12-17 17:47:03.781250
2689,8.97,2021-12-17 17:47:03.796875
2690,8.58,2021-12-17 17:47:03.812500
2691,8.2,2021-12-17 17:47:03.828125
2692,7.89,2021-12-17 17:47:03.843750
2693,7.62,2021-12-17 17:47:03.859375
2694,7.27,2021-12-17 17:47:03.875000
2695,6.76,2021-12-17 17:47:03.890625
2696,6.08,2021-12-17 17:47:03.906250
2697,5.31,2021-12-17 17:47:03.921875
2698,4.58,2021-12-17 17:47:03.937500
2699,3.97,2021-12-17 17:47:03.953125
2700,3.49,2021-12-17 17:47:03.968750
2701,3.11,2021-12-17 17:47:03.984375
2702,2.7,2021-12-17 17:47:04.000000
2703,2.1,2021-12-17 17:47:04.015625
2704,1.16,2021-12-17 17:47:04.031250
2705,-0.15,2021-12-17 17:47:04.046875
2706,-1.77,2021-12-17 17:47:04.062500
2707,-3.51,2021-12-17 17:47:04.078125
2708,-5.09,2021-12-17 17:47:04.093750
2709,-6.23,2021-12-17 17:47:04.109375
2710,-6.8,2021-12-17 17:47:04.125000
2711,-6.85,2021-12-17 17:47:04.140625
2712,-6.58,2021-12-17 17:47:04.156250
2713,-6.29,2021-12-17 17:47:04.171875
2714,-6.23,2021-12-17 17:47:04.187500
2715,-6.59,2021-12-17 17:47:04.203125
2716,-7.42,2021-12-17 17:47:04.218750
2717,-8.62,2021-12-17 17:47:04.234375
2718,-9.97,2021-12-17 17:47:04.250000
2719,-11.22,2021-12-17 17:47:04.265625
2720,-12.1,2021-12-17 17:47:04.281250
2721,-12.38,2021-12-17 17:47:04.296875
2722,-11.99,2021-12-17 17:47:04.312500
2723,-10.96,2021-12-17 17:47:04.328125
2724,-9.5,2021-12-17 17:47:04.343750
2725,-7.83,2021-12-17 17:47:04.359375
2726,-6.19,2021-12-17 17:47:04.375000
2727,-4.7,2021-12-17 17:47:04.390625
2728,-3.39,2021-12-17 17:47:04.406250
2729,-2.24,2021-12-17 17:47:04.421875
2730,-1.2,2021-12-17 17:47:04.437500
2731,-0.25,2021-12-17 17:47:04.453125
2732,0.62,2021-12-17 17:47:04.468750
2733,1.47,2021-12-17 17:47:04.484375
2734,2.4,2021-12-17 17:47:04.500000
2735,3.48,2021-12-17 17:47:04.515625
2736,4.71,2021-12-17 17:47:04.531250
2737,6.0,2021-12-17 17:47:04.546875
2738,7.19,2021-12-17 17:47:04.562500
2739,8.04,2021-12-17 17:47:04.578125
2740,8.44,2021-12-17 17:47:04.593750
2741,8.37,2021-12-17 17:47:04.609375
2742,7.94,2021-12-17 17:47:04.625000
2743,7.33,2021-12-17 17:47:04.640625
2744,6.71,2021-12-17 17:47:04.656250
2745,6.18,2021-12-17 17:47:04.671875
2746,5.79,2021-12-17 17:47:04.687500
2747,5.54,2021-12-17 17:47:04.703125
2748,5.39,2021-12-17 17:47:04.718750
2749,5.3,2021-12-17 17:47:04.734375
2750,5.24,2021-12-17 17:47:04.750000
2751,5.19,2021-12-17 17:47:04.765625
2752,5.18,2021-12-17 17:47:04.781250
2753,5.24,2021-12-17 17:47:04.796875
2754,5.35,2021-12-17 17:47:04.812500
2755,5.5,2021-12-17 17:47:04.828125
2756,5.62,2021-12-17 17:47:04.843750
2757,5.57,2021-12-17 17:47:04.859375
2758,5.27,2021-12-17 17:47:04.875000
2759,4.69,2021-12-17 17:47:04.890625
2760,3.86,2021-12-17 17:47:04.906250
2761,2.91,2021-12-17 17:47:04.921875
2762,1.98,2021-12-17 17:47:04.937500
2763,1.16,2021-12-17 17:47:04.953125
2764,0.48,2021-12-17 17:47:04.968750
2765,-0.1,2021-12-17 17:47:04.984375
2766,-0.62,2021-12-17 17:47:05.000000
2767,-1.12,2021-12-17 17:47:05.015625
2768,-1.62,2021-12-17 17:47:05.031250
2769,-2.08,2021-12-17 17:47:05.046875
2770,-2.52,2021-12-17 17:47:05.062500
2771,-2.93,2021-12-17 17:47:05.078125
2772,-3.35,2021-12-17 17:47:05.093750
2773,-3.83,2021-12-17 17:47:05.109375
2774,-4.38,2021-12-17 17:47:05.125000
2775,-5.03,2021-12-17 17:47:05.140625
2776,-5.76,2021-12-17 17:47:05.156250
2777,-6.59,2021-12-17 17:47:05.171875
2778,-7.56,2021-12-17 17:47:05.187500
2779,-8.74,2021-12-17 17:47:05.203125
2780,-10.16,2021-12-17 17:47:05.218750
2781,-11.77,2021-12-17 17:47:05.234375
2782,-13.35,2021-12-17 17:47:05.250000
2783,-14.58,2021-12-17 17:47:05.265625
2784,-15.13,2021-12-17 17:47:05.281250
2785,-14.77,2021-12-17 17:47:05.296875
2786,-13.53,2021-12-17 17:47:05.312500
2787,-11.62,2021-12-17 17:47:05.328125
2788,-9.4,2021-12-17 17:47:05.343750
2789,-7.21,2021-12-17 17:47:05.359375
2790,-5.23,2021-12-17 17:47:05.375000
2791,-3.48,2021-12-17 17:47:05.390625
2792,-1.97,2021-12-17 17:47:05.406250
2793,-0.64,2021-12-17 17:47:05.421875
2794,0.51,2021-12-17 17:47:05.437500
2795,1.45,2021-12-17 17:47:05.453125
2796,2.21,2021-12-17 17:47:05.468750
2797,2.84,2021-12-17 17:47:05.484375
2798,3.45,2021-12-17 17:47:05.500000
2799,4.16,2021-12-17 17:47:05.515625
2800,5.03,2021-12-17 17:47:05.531250
2801,6.07,2021-12-17 17:47:05.546875
2802,7.21,2021-12-17 17:47:05.562500
2803,8.31,2021-12-17 17:47:05.578125
2804,9.19,2021-12-17 17:47:05.593750
2805,9.74,2021-12-17 17:47:05.609375
2806,9.94,2021-12-17 17:47:05.625000
2807,9.89,2021-12-17 17:47:05.640625
2808,9.72,2021-12-17 17:47:05.656250
2809,9.55,2021-12-17 17:47:05.671875
2810,9.45,2021-12-17 17:47:05.687500
2811,9.4,2021-12-17 17:47:05.703125
2812,9.34,2021-12-17 17:47:05.718750
2813,9.16,2021-12-17 17:47:05.734375
2814,8.89,2021-12-17 17:47:05.750000
2815,8.58,2021-12-17 17:47:05.765625
2816,8.3,2021-12-17 17:47:05.781250
2817,8.06,2021-12-17 17:47:05.796875
2818,7.79,2021-12-17 17:47:05.812500
2819,7.38,2021-12-17 17:47:05.828125
2820,6.76,2021-12-17 17:47:05.843750
2821,5.94,2021-12-17 17:47:05.859375
2822,5.02,2021-12-17 17:47:05.875000
2823,4.13,2021-12-17 17:47:05.890625
2824,3.39,2021-12-17 17:47:05.906250
2825,2.82,2021-12-17 17:47:05.921875
2826,2.35,2021-12-17 17:47:05.937500
2827,1.92,2021-12-17 17:47:05.953125
2828,1.5,2021-12-17 17:47:05.968750
2829,1.08,2021-12-17 17:47:05.984375
2830,0.67,2021-12-17 17:47:06.000000
2831,0.26,2021-12-17 17:47:06.015625
2832,-0.24,2021-12-17 17:47:06.031250
2833,-0.94,2021-12-17 17:47:06.046875
2834,-1.85,2021-12-17 17:47:06.062500
2835,-2.94,2021-12-17 17:47:06.078125
2836,-4.16,2021-12-17 17:47:06.093750
2837,-5.42,2021-12-17 17:47:06.109375
2838,-6.69,2021-12-17 17:47:06.125000
2839,-7.98,2021-12-17 17:47:06.140625
2840,-9.29,2021-12-17 17:47:06.156250
2841,-10.67,2021-12-17 17:47:06.171875
2842,-12.12,2021-12-17 17:47:06.187500
2843,-13.58,2021-12-17 17:47:06.203125
2844,-14.89,2021-12-17 17:47:06.218750
2845,-15.85,2021-12-17 17:47:06.234375
2846,-16.23,2021-12-17 17:47:06.250000
2847,-15.89,2021-12-17 17:47:06.265625
2848,-14.83,2021-12-17 17:47:06.281250
2849,-13.22,2021-12-17 17:47:06.296875
2850,-11.32,2021-12-17 17:47:06.312500
2851,-9.36,2021-12-17 17:47:06.328125
2852,-7.43,2021-12-17 17:47:06.343750
2853,-5.54,2021-12-17 17:47:06.359375
2854,-3.66,2021-12-17 17:47:06.375000
2855,-1.82,2021-12-17 17:47:06.390625
2856,-0.11,2021-12-17 17:47:06.406250
2857,1.39,2021-12-17 17:47:06.421875
2858,2.62,2021-12-17 17:47:06.437500
2859,3.6,2021-12-17 17:47:06.453125
2860,4.35,2021-12-17 17:47:06.468750
2861,4.92,2021-12-17 17:47:06.484375
2862,5.28,2021-12-17 17:47:06.500000
2863,5.42,2021-12-17 17:47:06.515625
2864,5.4,2021-12-17 17:47:06.531250
2865,5.35,2021-12-17 17:47:06.546875
2866,5.45,2021-12-17 17:47:06.562500
2867,5.84,2021-12-17 17:47:06.578125
2868,6.54,2021-12-17 17:47:06.593750
2869,7.47,2021-12-17 17:47:06.609375
2870,8.51,2021-12-17 17:47:06.625000
2871,9.49,2021-12-17 17:47:06.640625
2872,10.33,2021-12-17 17:47:06.656250
2873,10.95,2021-12-17 17:47:06.671875
2874,11.3,2021-12-17 17:47:06.687500
2875,11.33,2021-12-17 17:47:06.703125
2876,11.04,2021-12-17 17:47:06.718750
2877,10.51,2021-12-17 17:47:06.734375
2878,9.89,2021-12-17 17:47:06.750000
2879,9.33,2021-12-17 17:47:06.765625
2880,8.94,2021-12-17 17:47:06.781250
2881,8.74,2021-12-17 17:47:06.796875
2882,8.67,2021-12-17 17:47:06.812500
2883,8.61,2021-12-17 17:47:06.828125
2884,8.42,2021-12-17 17:47:06.843750
2885,7.99,2021-12-17 17:47:06.859375
2886,7.3,2021-12-17 17:47:06.875000
2887,6.35,2021-12-17 17:47:06.890625
2888,5.21,2021-12-17 17:47:06.906250
2889,3.97,2021-12-17 17:47:06.921875
2890,2.74,2021-12-17 17:47:06.937500
2891,1.62,2021-12-17 17:47:06.953125
2892,0.67,2021-12-17 17:47:06.968750
2893,-0.1,2021-12-17 17:47:06.984375
2894,-0.79,2021-12-17 17:47:07.000000
2895,-1.48,2021-12-17 17:47:07.015625
2896,-2.35,2021-12-17 17:47:07.031250
2897,-3.46,2021-12-17 17:47:07.046875
2898,-4.81,2021-12-17 17:47:07.062500
2899,-6.32,2021-12-17 17:47:07.078125
2900,-7.88,2021-12-17 17:47:07.093750
2901,-9.38,2021-12-17 17:47:07.109375
2902,-10.79,2021-12-17 17:47:07.125000
2903,-12.09,2021-12-17 17:47:07.140625
2904,-13.22,2021-12-17 17:47:07.156250
2905,-14.13,2021-12-17 17:47:07.171875
2906,-14.69,2021-12-17 17:47:07.187500
2907,-14.75,2021-12-17 17:47:07.203125
2908,-14.24,2021-12-17 17:47:07.218750
2909,-13.18,2021-12-17 17:47:07.234375
2910,-11.64,2021-12-17 17:47:07.250000
2911,-9.77,2021-12-17 17:47:07.265625
2912,-7.71,2021-12-17 17:47:07.281250
2913,-5.6,2021-12-17 17:47:07.296875
2914,-3.59,2021-12-17 17:47:07.312500
2915,-1.79,2021-12-17 17:47:07.328125
2916,-0.34,2021-12-17 17:47:07.343750
2917,0.75,2021-12-17 17:47:07.359375
2918,1.54,2021-12-17 17:47:07.375000
2919,2.16,2021-12-17 17:47:07.390625
2920,2.76,2021-12-17 17:47:07.406250
2921,3.39,2021-12-17 17:47:07.421875
2922,4.05,2021-12-17 17:47:07.437500
2923,4.68,2021-12-17 17:47:07.453125
2924,5.25,2021-12-17 17:47:07.468750
2925,5.83,2021-12-17 17:47:07.484375
2926,6.51,2021-12-17 17:47:07.500000
2927,7.33,2021-12-17 17:47:07.515625
2928,8.25,2021-12-17 17:47:07.531250
2929,9.09,2021-12-17 17:47:07.546875
2930,9.69,2021-12-17 17:47:07.562500
2931,10.0,2021-12-17 17:47:07.578125
2932,10.09,2021-12-17 17:47:07.593750
2933,10.1,2021-12-17 17:47:07.609375
2934,10.16,2021-12-17 17:47:07.625000
2935,10.17,2021-12-17 17:47:07.640625
2936,9.96,2021-12-17 17:47:07.656250
2937,9.4,2021-12-17 17:47:07.671875
2938,8.49,2021-12-17 17:47:07.687500
2939,7.42,2021-12-17 17:47:07.703125
2940,6.5,2021-12-17 17:47:07.718750
2941,5.9,2021-12-17 17:47:07.734375
2942,5.63,2021-12-17 17:47:07.750000
2943,5.49,2021-12-17 17:47:07.765625
2944,5.27,2021-12-17 17:47:07.781250
2945,4.85,2021-12-17 17:47:07.796875
2946,4.29,2021-12-17 17:47:07.812500
2947,3.75,2021-12-17 17:47:07.828125
2948,3.37,2021-12-17 17:47:07.843750
2949,3.19,2021-12-17 17:47:07.859375
2950,3.11,2021-12-17 17:47:07.875000
2951,2.98,2021-12-17 17:47:07.890625
2952,2.67,2021-12-17 17:47:07.906250
2953,2.09,2021-12-17 17:47:07.921875
2954,1.28,2021-12-17 17:47:07.937500
2955,0.25,2021-12-17 17:47:07.953125
2956,-0.99,2021-12-17 17:47:07.968750
2957,-2.41,2021-12-17 17:47:07.984375
2958,-3.98,2021-12-17 17:47:08.000000
2959,-5.64,2021-12-17 17:47:08.015625
2960,-7.29,2021-12-17 17:47:08.031250
2961,-8.9,2021-12-17 17:47:08.046875
2962,-10.42,2021-12-17 17:47:08.062500
2963,-11.84,2021-12-17 17:47:08.078125
2964,-13.14,2021-12-17 17:47:08.093750
2965,-14.26,2021-12-17 17:47:08.109375
2966,-15.03,2021-12-17 17:47:08.125000
2967,-15.28,2021-12-17 17:47:08.140625
2968,-14.87,2021-12-17 17:47:08.156250
2969,-13.72,2021-12-17 17:47:08.171875
2970,-11.91,2021-12-17 17:47:08.187500
2971,-9.64,2021-12-17 17:47:08.203125
2972,-7.18,2021-12-17 17:47:08.218750
2973,-4.85,2021-12-17 17:47:08.234375
2974,-2.84,2021-12-17 17:47:08.250000
2975,-1.27,2021-12-17 17:47:08.265625
2976,-0.12,2021-12-17 17:47:08.281250
2977,0.71,2021-12-17 17:47:08.296875
2978,1.37,2021-12-17 17:47:08.312500
2979,1.97,2021-12-17 17:47:08.328125
2980,2.63,2021-12-17 17:47:08.343750
2981,3.4,2021-12-17 17:47:08.359375
2982,4.27,2021-12-17 17:47:08.375000
2983,5.2,2021-12-17 17:47:08.390625
2984,6.17,2021-12-17 17:47:08.406250
2985,7.16,2021-12-17 17:47:08.421875
2986,8.15,2021-12-17 17:47:08.437500
2987,9.16,2021-12-17 17:47:08.453125
2988,10.12,2021-12-17 17:47:08.468750
2989,10.99,2021-12-17 17:47:08.484375
2990,11.69,2021-12-17 17:47:08.500000
2991,12.16,2021-12-17 17:47:08.515625
2992,12.3,2021-12-17 17:47:08.531250
2993,12.07,2021-12-17 17:47:08.546875
2994,11.49,2021-12-17 17:47:08.562500
2995,10.62,2021-12-17 17:47:08.578125
2996,9.56,2021-12-17 17:47:08.593750
2997,8.42,2021-12-17 17:47:08.609375
2998,7.3,2021-12-17 17:47:08.625000
2999,6.23,2021-12-17 17:47:08.640625
3000,5.21,2021-12-17 17:47:08.656250
3001,4.23,2021-12-17 17:47:08.671875
3002,3.33,2021-12-17 17:47:08.687500
3003,2.58,2021-12-17 17:47:08.703125
3004,2.05,2021-12-17 17:47:08.718750
3005,1.73,2021-12-17 17:47:08.734375
3006,1.5,2021-12-17 17:47:08.750000
3007,1.22,2021-12-17 17:47:08.765625
3008,0.71,2021-12-17 17:47:08.781250
3009,-0.11,2021-12-17 17:47:08.796875
3010,-1.15,2021-12-17 17:47:08.812500
3011,-2.28,2021-12-17 17:47:08.828125
3012,-3.32,2021-12-17 17:47:08.843750
3013,-4.17,2021-12-17 17:47:08.859375
3014,-4.85,2021-12-17 17:47:08.875000
3015,-5.43,2021-12-17 17:47:08.890625
3016,-6.05,2021-12-17 17:47:08.906250
3017,-6.77,2021-12-17 17:47:08.921875
3018,-7.63,2021-12-17 17:47:08.937500
3019,-8.65,2021-12-17 17:47:08.953125
3020,-9.86,2021-12-17 17:47:08.968750
3021,-11.23,2021-12-17 17:47:08.984375
3022,-12.67,2021-12-17 17:47:09.000000
3023,-13.93,2021-12-17 17:47:09.015625
3024,-14.74,2021-12-17 17:47:09.031250
3025,-14.8,2021-12-17 17:47:09.046875
3026,-14.0,2021-12-17 17:47:09.062500
3027,-12.38,2021-12-17 17:47:09.078125
3028,-10.21,2021-12-17 17:47:09.093750
3029,-7.83,2021-12-17 17:47:09.109375
3030,-5.55,2021-12-17 17:47:09.125000
3031,-3.55,2021-12-17 17:47:09.140625
3032,-1.9,2021-12-17 17:47:09.156250
3033,-0.55,2021-12-17 17:47:09.171875
3034,0.58,2021-12-17 17:47:09.187500
3035,1.52,2021-12-17 17:47:09.203125
3036,2.31,2021-12-17 17:47:09.218750
3037,2.98,2021-12-17 17:47:09.234375
3038,3.55,2021-12-17 17:47:09.250000
3039,4.12,2021-12-17 17:47:09.265625
3040,4.79,2021-12-17 17:47:09.281250
3041,5.66,2021-12-17 17:47:09.296875
3042,6.76,2021-12-17 17:47:09.312500
3043,8.02,2021-12-17 17:47:09.328125
3044,9.34,2021-12-17 17:47:09.343750
3045,10.61,2021-12-17 17:47:09.359375
3046,11.76,2021-12-17 17:47:09.375000
3047,12.8,2021-12-17 17:47:09.390625
3048,13.76,2021-12-17 17:47:09.406250
3049,14.6,2021-12-17 17:47:09.421875
3050,15.23,2021-12-17 17:47:09.437500
3051,15.52,2021-12-17 17:47:09.453125
3052,15.36,2021-12-17 17:47:09.468750
3053,14.73,2021-12-17 17:47:09.484375
3054,13.75,2021-12-17 17:47:09.500000
3055,12.56,2021-12-17 17:47:09.515625
3056,11.34,2021-12-17 17:47:09.531250
3057,10.23,2021-12-17 17:47:09.546875
3058,9.3,2021-12-17 17:47:09.562500
3059,8.58,2021-12-17 17:47:09.578125
3060,8.07,2021-12-17 17:47:09.593750
3061,7.68,2021-12-17 17:47:09.609375
3062,7.26,2021-12-17 17:47:09.625000
3063,6.65,2021-12-17 17:47:09.640625
3064,5.72,2021-12-17 17:47:09.656250
3065,4.42,2021-12-17 17:47:09.671875
3066,2.82,2021-12-17 17:47:09.687500
3067,1.11,2021-12-17 17:47:09.703125
3068,-0.5,2021-12-17 17:47:09.718750
3069,-1.85,2021-12-17 17:47:09.734375
3070,-2.84,2021-12-17 17:47:09.750000
3071,-3.53,2021-12-17 17:47:09.765625
3072,-4.02,2021-12-17 17:47:09.781250
3073,-4.48,2021-12-17 17:47:09.796875
3074,-5.02,2021-12-17 17:47:09.812500
3075,-5.71,2021-12-17 17:47:09.828125
3076,-6.53,2021-12-17 17:47:09.843750
3077,-7.43,2021-12-17 17:47:09.859375
3078,-8.4,2021-12-17 17:47:09.875000
3079,-9.48,2021-12-17 17:47:09.890625
3080,-10.74,2021-12-17 17:47:09.906250
3081,-12.19,2021-12-17 17:47:09.921875
3082,-13.72,2021-12-17 17:47:09.937500
3083,-15.05,2021-12-17 17:47:09.953125
3084,-15.82,2021-12-17 17:47:09.968750
3085,-15.71,2021-12-17 17:47:09.984375
3086,-14.64,2021-12-17 17:47:10.000000
3087,-12.82,2021-12-17 17:47:10.015625
3088,-10.64,2021-12-17 17:47:10.031250
3089,-8.57,2021-12-17 17:47:10.046875
3090,-6.89,2021-12-17 17:47:10.062500
3091,-5.66,2021-12-17 17:47:10.078125
3092,-4.7,2021-12-17 17:47:10.093750
3093,-3.78,2021-12-17 17:47:10.109375
3094,-2.67,2021-12-17 17:47:10.125000
3095,-1.31,2021-12-17 17:47:10.140625
3096,0.27,2021-12-17 17:47:10.156250
3097,1.95,2021-12-17 17:47:10.171875
3098,3.65,2021-12-17 17:47:10.187500
3099,5.29,2021-12-17 17:47:10.203125
3100,6.81,2021-12-17 17:47:10.218750
3101,8.15,2021-12-17 17:47:10.234375
3102,9.26,2021-12-17 17:47:10.250000
3103,10.11,2021-12-17 17:47:10.265625
3104,10.65,2021-12-17 17:47:10.281250
3105,10.9,2021-12-17 17:47:10.296875
3106,10.86,2021-12-17 17:47:10.312500
3107,10.6,2021-12-17 17:47:10.328125
3108,10.21,2021-12-17 17:47:10.343750
3109,9.79,2021-12-17 17:47:10.359375
3110,9.46,2021-12-17 17:47:10.375000
3111,9.25,2021-12-17 17:47:10.390625
3112,9.14,2021-12-17 17:47:10.406250
3113,9.07,2021-12-17 17:47:10.421875
3114,8.99,2021-12-17 17:47:10.437500
3115,8.89,2021-12-17 17:47:10.453125
3116,8.81,2021-12-17 17:47:10.468750
3117,8.83,2021-12-17 17:47:10.484375
3118,8.92,2021-12-17 17:47:10.500000
3119,8.96,2021-12-17 17:47:10.515625
3120,8.74,2021-12-17 17:47:10.531250
3121,8.04,2021-12-17 17:47:10.546875
3122,6.82,2021-12-17 17:47:10.562500
3123,5.19,2021-12-17 17:47:10.578125
3124,3.41,2021-12-17 17:47:10.593750
3125,1.75,2021-12-17 17:47:10.609375
3126,0.4,2021-12-17 17:47:10.625000
3127,-0.63,2021-12-17 17:47:10.640625
3128,-1.49,2021-12-17 17:47:10.656250
3129,-2.4,2021-12-17 17:47:10.671875
3130,-3.5,2021-12-17 17:47:10.687500
3131,-4.73,2021-12-17 17:47:10.703125
3132,-5.84,2021-12-17 17:47:10.718750
3133,-6.44,2021-12-17 17:47:10.734375
3134,-6.18,2021-12-17 17:47:10.750000
3135,-4.98,2021-12-17 17:47:10.765625
3136,-2.99,2021-12-17 17:47:10.781250
3137,-0.67,2021-12-17 17:47:10.796875
3138,1.39,2021-12-17 17:47:10.812500
3139,2.7,2021-12-17 17:47:10.828125
3140,2.96,2021-12-17 17:47:10.843750
3141,2.15,2021-12-17 17:47:10.859375
3142,0.52,2021-12-17 17:47:10.875000
3143,-1.51,2021-12-17 17:47:10.890625
3144,-3.47,2021-12-17 17:47:10.906250
3145,-4.98,2021-12-17 17:47:10.921875
3146,-5.8,2021-12-17 17:47:10.937500
3147,-5.88,2021-12-17 17:47:10.953125
3148,-5.26,2021-12-17 17:47:10.968750
3149,-4.17,2021-12-17 17:47:10.984375
3150,-2.82,2021-12-17 17:47:11.000000
3151,-1.4,2021-12-17 17:47:11.015625
3152,-0.06,2021-12-17 17:47:11.031250
3153,1.11,2021-12-17 17:47:11.046875
3154,2.07,2021-12-17 17:47:11.062500
3155,2.9,2021-12-17 17:47:11.078125
3156,3.67,2021-12-17 17:47:11.093750
3157,4.49,2021-12-17 17:47:11.109375
3158,5.43,2021-12-17 17:47:11.125000
3159,6.45,2021-12-17 17:47:11.140625
3160,7.45,2021-12-17 17:47:11.156250
3161,8.29,2021-12-17 17:47:11.171875
3162,8.85,2021-12-17 17:47:11.187500
3163,9.09,2021-12-17 17:47:11.203125
3164,9.01,2021-12-17 17:47:11.218750
3165,8.68,2021-12-17 17:47:11.234375
3166,8.22,2021-12-17 17:47:11.250000
3167,7.72,2021-12-17 17:47:11.265625
3168,7.27,2021-12-17 17:47:11.281250
3169,6.96,2021-12-17 17:47:11.296875
3170,6.84,2021-12-17 17:47:11.312500
3171,6.93,2021-12-17 17:47:11.328125
3172,7.23,2021-12-17 17:47:11.343750
3173,7.71,2021-12-17 17:47:11.359375
3174,8.28,2021-12-17 17:47:11.375000
3175,8.79,2021-12-17 17:47:11.390625
3176,9.13,2021-12-17 17:47:11.406250
3177,9.16,2021-12-17 17:47:11.421875
3178,8.83,2021-12-17 17:47:11.437500
3179,8.16,2021-12-17 17:47:11.453125
3180,7.28,2021-12-17 17:47:11.468750
3181,6.3,2021-12-17 17:47:11.484375
3182,5.32,2021-12-17 17:47:11.500000
3183,4.38,2021-12-17 17:47:11.515625
3184,3.43,2021-12-17 17:47:11.531250
3185,2.45,2021-12-17 17:47:11.546875
3186,1.41,2021-12-17 17:47:11.562500
3187,0.36,2021-12-17 17:47:11.578125
3188,-0.63,2021-12-17 17:47:11.593750
3189,-1.49,2021-12-17 17:47:11.609375
3190,-2.16,2021-12-17 17:47:11.625000
3191,-2.65,2021-12-17 17:47:11.640625
3192,-2.97,2021-12-17 17:47:11.656250
3193,-3.2,2021-12-17 17:47:11.671875
3194,-3.41,2021-12-17 17:47:11.687500
3195,-3.65,2021-12-17 17:47:11.703125
3196,-3.95,2021-12-17 17:47:11.718750
3197,-4.31,2021-12-17 17:47:11.734375
3198,-4.69,2021-12-17 17:47:11.750000
3199,-5.11,2021-12-17 17:47:11.765625
3200,-5.62,2021-12-17 17:47:11.781250
3201,-6.36,2021-12-17 17:47:11.796875
3202,-7.34,2021-12-17 17:47:11.812500
3203,-8.47,2021-12-17 17:47:11.828125
3204,-9.5,2021-12-17 17:47:11.843750
3205,-10.1,2021-12-17 17:47:11.859375
3206,-10.03,2021-12-17 17:47:11.875000
3207,-9.28,2021-12-17 17:47:11.890625
3208,-8.01,2021-12-17 17:47:11.906250
3209,-6.47,2021-12-17 17:47:11.921875
3210,-4.88,2021-12-17 17:47:11.937500
3211,-3.36,2021-12-17 17:47:11.953125
3212,-1.91,2021-12-17 17:47:11.968750
3213,-0.5,2021-12-17 17:47:11.984375
3214,0.85,2021-12-17 17:47:12.000000
3215,2.07,2021-12-17 17:47:12.015625
3216,3.09,2021-12-17 17:47:12.031250
