,BVP,time
0,-44.68,2022-10-26 10:19:58.921875
1,-49.67,2022-10-26 10:19:58.937500
2,-54.34,2022-10-26 10:19:58.953125
3,-59.07,2022-10-26 10:19:58.968750
4,-64.06,2022-10-26 10:19:58.984375
5,-68.96,2022-10-26 10:19:59.000000
6,-72.73,2022-10-26 10:19:59.015625
7,-73.79,2022-10-26 10:19:59.031250
8,-70.68,2022-10-26 10:19:59.046875
9,-62.57,2022-10-26 10:19:59.062500
10,-49.72,2022-10-26 10:19:59.078125
11,-33.52,2022-10-26 10:19:59.093750
12,-16.03,2022-10-26 10:19:59.109375
13,0.53,2022-10-26 10:19:59.125000
14,14.34,2022-10-26 10:19:59.140625
15,24.4,2022-10-26 10:19:59.156250
16,30.62,2022-10-26 10:19:59.171875
17,33.66,2022-10-26 10:19:59.187500
18,34.54,2022-10-26 10:19:59.203125
19,34.32,2022-10-26 10:19:59.218750
20,33.85,2022-10-26 10:19:59.234375
21,33.67,2022-10-26 10:19:59.250000
22,33.99,2022-10-26 10:19:59.265625
23,34.77,2022-10-26 10:19:59.281250
24,35.69,2022-10-26 10:19:59.296875
25,36.24,2022-10-26 10:19:59.312500
26,35.71,2022-10-26 10:19:59.328125
27,33.34,2022-10-26 10:19:59.343750
28,28.67,2022-10-26 10:19:59.359375
29,21.66,2022-10-26 10:19:59.375000
30,12.82,2022-10-26 10:19:59.390625
31,3.13,2022-10-26 10:19:59.406250
32,-6.32,2022-10-26 10:19:59.421875
33,-14.65,2022-10-26 10:19:59.437500
34,-21.49,2022-10-26 10:19:59.453125
35,-26.98,2022-10-26 10:19:59.468750
36,-31.66,2022-10-26 10:19:59.484375
37,-36.16,2022-10-26 10:19:59.500000
38,-40.94,2022-10-26 10:19:59.515625
39,-46.16,2022-10-26 10:19:59.531250
40,-51.64,2022-10-26 10:19:59.546875
41,-57.13,2022-10-26 10:19:59.562500
42,-62.34,2022-10-26 10:19:59.578125
43,-67.2,2022-10-26 10:19:59.593750
44,-71.81,2022-10-26 10:19:59.609375
45,-76.28,2022-10-26 10:19:59.625000
46,-80.65,2022-10-26 10:19:59.640625
47,-84.88,2022-10-26 10:19:59.656250
48,-88.84,2022-10-26 10:19:59.671875
49,-92.41,2022-10-26 10:19:59.687500
50,-95.4,2022-10-26 10:19:59.703125
51,-97.35,2022-10-26 10:19:59.718750
52,-97.59,2022-10-26 10:19:59.734375
53,-95.41,2022-10-26 10:19:59.750000
54,-90.4,2022-10-26 10:19:59.765625
55,-82.63,2022-10-26 10:19:59.781250
56,-72.7,2022-10-26 10:19:59.796875
57,-61.44,2022-10-26 10:19:59.812500
58,-49.53,2022-10-26 10:19:59.828125
59,-37.38,2022-10-26 10:19:59.843750
60,-25.25,2022-10-26 10:19:59.859375
61,-13.53,2022-10-26 10:19:59.875000
62,-2.96,2022-10-26 10:19:59.890625
63,5.5,2022-10-26 10:19:59.906250
64,11.02,2022-10-26 10:19:59.921875
65,13.28,2022-10-26 10:19:59.937500
66,12.66,2022-10-26 10:19:59.953125
67,10.13,2022-10-26 10:19:59.968750
68,6.85,2022-10-26 10:19:59.984375
69,3.89,2022-10-26 10:20:00.000000
70,2.06,2022-10-26 10:20:00.015625
71,1.83,2022-10-26 10:20:00.031250
72,3.48,2022-10-26 10:20:00.046875
73,7.01,2022-10-26 10:20:00.062500
74,12.13,2022-10-26 10:20:00.078125
75,18.28,2022-10-26 10:20:00.093750
76,24.66,2022-10-26 10:20:00.109375
77,30.37,2022-10-26 10:20:00.125000
78,34.67,2022-10-26 10:20:00.140625
79,37.13,2022-10-26 10:20:00.156250
80,37.8,2022-10-26 10:20:00.171875
81,37.18,2022-10-26 10:20:00.187500
82,35.96,2022-10-26 10:20:00.203125
83,34.88,2022-10-26 10:20:00.218750
84,34.48,2022-10-26 10:20:00.234375
85,35.0,2022-10-26 10:20:00.250000
86,36.35,2022-10-26 10:20:00.265625
87,38.24,2022-10-26 10:20:00.281250
88,40.19,2022-10-26 10:20:00.296875
89,41.52,2022-10-26 10:20:00.312500
90,41.54,2022-10-26 10:20:00.328125
91,39.83,2022-10-26 10:20:00.343750
92,36.61,2022-10-26 10:20:00.359375
93,32.88,2022-10-26 10:20:00.375000
94,30.12,2022-10-26 10:20:00.390625
95,29.72,2022-10-26 10:20:00.406250
96,32.32,2022-10-26 10:20:00.421875
97,37.41,2022-10-26 10:20:00.437500
98,43.76,2022-10-26 10:20:00.453125
99,50.01,2022-10-26 10:20:00.468750
100,55.43,2022-10-26 10:20:00.484375
101,60.34,2022-10-26 10:20:00.500000
102,66.05,2022-10-26 10:20:00.515625
103,74.47,2022-10-26 10:20:00.531250
104,87.43,2022-10-26 10:20:00.546875
105,105.88,2022-10-26 10:20:00.562500
106,129.19,2022-10-26 10:20:00.578125
107,154.94,2022-10-26 10:20:00.593750
108,179.3,2022-10-26 10:20:00.609375
109,198.26,2022-10-26 10:20:00.625000
110,209.02,2022-10-26 10:20:00.640625
111,211.14,2022-10-26 10:20:00.656250
112,206.5,2022-10-26 10:20:00.671875
113,198.3,2022-10-26 10:20:00.687500
114,189.24,2022-10-26 10:20:00.703125
115,180.33,2022-10-26 10:20:00.718750
116,170.59,2022-10-26 10:20:00.734375
117,158.18,2022-10-26 10:20:00.750000
118,141.67,2022-10-26 10:20:00.765625
119,121.02,2022-10-26 10:20:00.781250
120,97.39,2022-10-26 10:20:00.796875
121,72.23,2022-10-26 10:20:00.812500
122,46.1,2022-10-26 10:20:00.828125
123,18.31,2022-10-26 10:20:00.843750
124,-12.89,2022-10-26 10:20:00.859375
125,-49.65,2022-10-26 10:20:00.875000
126,-94.01,2022-10-26 10:20:00.890625
127,-147.45,2022-10-26 10:20:00.906250
128,-210.31,2022-10-26 10:20:00.921875
129,-280.86,2022-10-26 10:20:00.937500
130,-354.52,2022-10-26 10:20:00.953125
131,-423.85,2022-10-26 10:20:00.968750
132,-479.88,2022-10-26 10:20:00.984375
133,-514.69,2022-10-26 10:20:01.000000
134,-524.11,2022-10-26 10:20:01.015625
135,-509.23,2022-10-26 10:20:01.031250
136,-475.64,2022-10-26 10:20:01.046875
137,-431.11,2022-10-26 10:20:01.062500
138,-382.6,2022-10-26 10:20:01.078125
139,-334.26,2022-10-26 10:20:01.093750
140,-287.26,2022-10-26 10:20:01.109375
141,-240.94,2022-10-26 10:20:01.125000
142,-194.35,2022-10-26 10:20:01.140625
143,-147.02,2022-10-26 10:20:01.156250
144,-98.94,2022-10-26 10:20:01.171875
145,-50.16,2022-10-26 10:20:01.187500
146,-0.76,2022-10-26 10:20:01.203125
147,48.82,2022-10-26 10:20:01.218750
148,97.12,2022-10-26 10:20:01.234375
149,141.74,2022-10-26 10:20:01.250000
150,179.89,2022-10-26 10:20:01.265625
151,209.3,2022-10-26 10:20:01.281250
152,229.15,2022-10-26 10:20:01.296875
153,240.66,2022-10-26 10:20:01.312500
154,246.82,2022-10-26 10:20:01.328125
155,251.52,2022-10-26 10:20:01.343750
156,258.29,2022-10-26 10:20:01.359375
157,268.98,2022-10-26 10:20:01.375000
158,282.93,2022-10-26 10:20:01.390625
159,297.13,2022-10-26 10:20:01.406250
160,307.34,2022-10-26 10:20:01.421875
161,309.96,2022-10-26 10:20:01.437500
162,303.55,2022-10-26 10:20:01.453125
163,289.24,2022-10-26 10:20:01.468750
164,269.87,2022-10-26 10:20:01.484375
165,248.28,2022-10-26 10:20:01.500000
166,225.88,2022-10-26 10:20:01.515625
167,202.3,2022-10-26 10:20:01.531250
168,176.35,2022-10-26 10:20:01.546875
169,147.33,2022-10-26 10:20:01.562500
170,115.85,2022-10-26 10:20:01.578125
171,83.54,2022-10-26 10:20:01.593750
172,52.03,2022-10-26 10:20:01.609375
173,22.12,2022-10-26 10:20:01.625000
174,-6.25,2022-10-26 10:20:01.640625
175,-33.39,2022-10-26 10:20:01.656250
176,-58.98,2022-10-26 10:20:01.671875
177,-82.02,2022-10-26 10:20:01.687500
178,-101.31,2022-10-26 10:20:01.703125
179,-116.35,2022-10-26 10:20:01.718750
180,-127.7,2022-10-26 10:20:01.734375
181,-136.71,2022-10-26 10:20:01.750000
182,-144.53,2022-10-26 10:20:01.765625
183,-151.55,2022-10-26 10:20:01.781250
184,-157.36,2022-10-26 10:20:01.796875
185,-161.37,2022-10-26 10:20:01.812500
186,-163.53,2022-10-26 10:20:01.828125
187,-164.46,2022-10-26 10:20:01.843750
188,-164.98,2022-10-26 10:20:01.859375
189,-165.35,2022-10-26 10:20:01.875000
190,-164.92,2022-10-26 10:20:01.890625
191,-162.47,2022-10-26 10:20:01.906250
192,-157.17,2022-10-26 10:20:01.921875
193,-149.28,2022-10-26 10:20:01.937500
194,-140.26,2022-10-26 10:20:01.953125
195,-132.13,2022-10-26 10:20:01.968750
196,-126.59,2022-10-26 10:20:01.984375
197,-124.33,2022-10-26 10:20:02.000000
198,-124.93,2022-10-26 10:20:02.015625
199,-127.2,2022-10-26 10:20:02.031250
200,-129.51,2022-10-26 10:20:02.046875
201,-130.12,2022-10-26 10:20:02.062500
202,-127.2,2022-10-26 10:20:02.078125
203,-119.05,2022-10-26 10:20:02.093750
204,-104.53,2022-10-26 10:20:02.109375
205,-83.54,2022-10-26 10:20:02.125000
206,-57.37,2022-10-26 10:20:02.140625
207,-28.53,2022-10-26 10:20:02.156250
208,-0.06,2022-10-26 10:20:02.171875
209,25.3,2022-10-26 10:20:02.187500
210,45.77,2022-10-26 10:20:02.203125
211,60.79,2022-10-26 10:20:02.218750
212,70.73,2022-10-26 10:20:02.234375
213,76.44,2022-10-26 10:20:02.250000
214,78.93,2022-10-26 10:20:02.265625
215,79.11,2022-10-26 10:20:02.281250
216,77.71,2022-10-26 10:20:02.296875
217,75.34,2022-10-26 10:20:02.312500
218,72.5,2022-10-26 10:20:02.328125
219,69.55,2022-10-26 10:20:02.343750
220,66.78,2022-10-26 10:20:02.359375
221,64.25,2022-10-26 10:20:02.375000
222,61.91,2022-10-26 10:20:02.390625
223,59.52,2022-10-26 10:20:02.406250
224,56.69,2022-10-26 10:20:02.421875
225,53.06,2022-10-26 10:20:02.437500
226,48.35,2022-10-26 10:20:02.453125
227,42.6,2022-10-26 10:20:02.468750
228,36.08,2022-10-26 10:20:02.484375
229,29.36,2022-10-26 10:20:02.500000
230,23.03,2022-10-26 10:20:02.515625
231,17.67,2022-10-26 10:20:02.531250
232,13.62,2022-10-26 10:20:02.546875
233,10.95,2022-10-26 10:20:02.562500
234,9.36,2022-10-26 10:20:02.578125
235,8.2,2022-10-26 10:20:02.593750
236,6.59,2022-10-26 10:20:02.609375
237,3.69,2022-10-26 10:20:02.625000
238,-0.97,2022-10-26 10:20:02.640625
239,-7.15,2022-10-26 10:20:02.656250
240,-13.76,2022-10-26 10:20:02.671875
241,-19.03,2022-10-26 10:20:02.687500
242,-21.01,2022-10-26 10:20:02.703125
243,-18.06,2022-10-26 10:20:02.718750
244,-9.49,2022-10-26 10:20:02.734375
245,4.3,2022-10-26 10:20:02.750000
246,21.87,2022-10-26 10:20:02.765625
247,41.15,2022-10-26 10:20:02.781250
248,59.94,2022-10-26 10:20:02.796875
249,76.42,2022-10-26 10:20:02.812500
250,89.31,2022-10-26 10:20:02.828125
251,98.33,2022-10-26 10:20:02.843750
252,103.88,2022-10-26 10:20:02.859375
253,106.7,2022-10-26 10:20:02.875000
254,107.26,2022-10-26 10:20:02.890625
255,105.26,2022-10-26 10:20:02.906250
256,99.54,2022-10-26 10:20:02.921875
257,88.71,2022-10-26 10:20:02.937500
258,72.09,2022-10-26 10:20:02.953125
259,50.66,2022-10-26 10:20:02.968750
260,27.22,2022-10-26 10:20:02.984375
261,5.59,2022-10-26 10:20:03.000000
262,-10.78,2022-10-26 10:20:03.015625
263,-20.26,2022-10-26 10:20:03.031250
264,-23.41,2022-10-26 10:20:03.046875
265,-22.44,2022-10-26 10:20:03.062500
266,-19.95,2022-10-26 10:20:03.078125
267,-17.85,2022-10-26 10:20:03.093750
268,-16.95,2022-10-26 10:20:03.109375
269,-17.29,2022-10-26 10:20:03.125000
270,-18.84,2022-10-26 10:20:03.140625
271,-21.8,2022-10-26 10:20:03.156250
272,-26.47,2022-10-26 10:20:03.171875
273,-32.81,2022-10-26 10:20:03.187500
274,-40.11,2022-10-26 10:20:03.203125
275,-47.03,2022-10-26 10:20:03.218750
276,-52.19,2022-10-26 10:20:03.234375
277,-54.81,2022-10-26 10:20:03.250000
278,-55.25,2022-10-26 10:20:03.265625
279,-55.01,2022-10-26 10:20:03.281250
280,-56.27,2022-10-26 10:20:03.296875
281,-60.8,2022-10-26 10:20:03.312500
282,-69.47,2022-10-26 10:20:03.328125
283,-81.44,2022-10-26 10:20:03.343750
284,-94.34,2022-10-26 10:20:03.359375
285,-104.96,2022-10-26 10:20:03.375000
286,-110.28,2022-10-26 10:20:03.390625
287,-108.54,2022-10-26 10:20:03.406250
288,-99.93,2022-10-26 10:20:03.421875
289,-86.36,2022-10-26 10:20:03.437500
290,-70.75,2022-10-26 10:20:03.453125
291,-55.84,2022-10-26 10:20:03.468750
292,-43.34,2022-10-26 10:20:03.484375
293,-33.57,2022-10-26 10:20:03.500000
294,-25.87,2022-10-26 10:20:03.515625
295,-19.25,2022-10-26 10:20:03.531250
296,-13.22,2022-10-26 10:20:03.546875
297,-8.06,2022-10-26 10:20:03.562500
298,-4.57,2022-10-26 10:20:03.578125
299,-3.57,2022-10-26 10:20:03.593750
300,-5.24,2022-10-26 10:20:03.609375
301,-8.89,2022-10-26 10:20:03.625000
302,-13.07,2022-10-26 10:20:03.640625
303,-16.33,2022-10-26 10:20:03.656250
304,-17.68,2022-10-26 10:20:03.671875
305,-17.06,2022-10-26 10:20:03.687500
306,-15.14,2022-10-26 10:20:03.703125
307,-12.85,2022-10-26 10:20:03.718750
308,-10.81,2022-10-26 10:20:03.734375
309,-8.97,2022-10-26 10:20:03.750000
310,-6.75,2022-10-26 10:20:03.765625
311,-3.43,2022-10-26 10:20:03.781250
312,1.37,2022-10-26 10:20:03.796875
313,7.27,2022-10-26 10:20:03.812500
314,13.28,2022-10-26 10:20:03.828125
315,18.14,2022-10-26 10:20:03.843750
316,21.0,2022-10-26 10:20:03.859375
317,21.79,2022-10-26 10:20:03.875000
318,21.27,2022-10-26 10:20:03.890625
319,20.58,2022-10-26 10:20:03.906250
320,20.61,2022-10-26 10:20:03.921875
321,21.45,2022-10-26 10:20:03.937500
322,22.43,2022-10-26 10:20:03.953125
323,22.54,2022-10-26 10:20:03.968750
324,20.99,2022-10-26 10:20:03.984375
325,17.43,2022-10-26 10:20:04.000000
326,11.82,2022-10-26 10:20:04.015625
327,4.16,2022-10-26 10:20:04.031250
328,-5.42,2022-10-26 10:20:04.046875
329,-16.0,2022-10-26 10:20:04.062500
330,-25.35,2022-10-26 10:20:04.078125
331,-30.33,2022-10-26 10:20:04.093750
332,-28.41,2022-10-26 10:20:04.109375
333,-19.5,2022-10-26 10:20:04.125000
334,-6.64,2022-10-26 10:20:04.140625
335,5.03,2022-10-26 10:20:04.156250
336,11.13,2022-10-26 10:20:04.171875
337,10.75,2022-10-26 10:20:04.187500
338,7.16,2022-10-26 10:20:04.203125
339,5.89,2022-10-26 10:20:04.218750
340,11.07,2022-10-26 10:20:04.234375
341,22.61,2022-10-26 10:20:04.250000
342,35.98,2022-10-26 10:20:04.265625
343,44.87,2022-10-26 10:20:04.281250
344,44.86,2022-10-26 10:20:04.296875
345,35.88,2022-10-26 10:20:04.312500
346,21.79,2022-10-26 10:20:04.328125
347,7.87,2022-10-26 10:20:04.343750
348,-2.26,2022-10-26 10:20:04.359375
349,-8.06,2022-10-26 10:20:04.375000
350,-11.34,2022-10-26 10:20:04.390625
351,-14.23,2022-10-26 10:20:04.406250
352,-17.46,2022-10-26 10:20:04.421875
353,-20.06,2022-10-26 10:20:04.437500
354,-20.22,2022-10-26 10:20:04.453125
355,-16.76,2022-10-26 10:20:04.468750
356,-10.09,2022-10-26 10:20:04.484375
357,-2.03,2022-10-26 10:20:04.500000
358,5.14,2022-10-26 10:20:04.515625
359,9.8,2022-10-26 10:20:04.531250
360,11.55,2022-10-26 10:20:04.546875
361,11.22,2022-10-26 10:20:04.562500
362,10.27,2022-10-26 10:20:04.578125
363,10.08,2022-10-26 10:20:04.593750
364,11.41,2022-10-26 10:20:04.609375
365,14.07,2022-10-26 10:20:04.625000
366,17.11,2022-10-26 10:20:04.640625
367,19.06,2022-10-26 10:20:04.656250
368,18.53,2022-10-26 10:20:04.671875
369,14.68,2022-10-26 10:20:04.687500
370,7.53,2022-10-26 10:20:04.703125
371,-2.04,2022-10-26 10:20:04.718750
372,-12.56,2022-10-26 10:20:04.734375
373,-22.39,2022-10-26 10:20:04.750000
374,-30.12,2022-10-26 10:20:04.765625
375,-34.72,2022-10-26 10:20:04.781250
376,-35.56,2022-10-26 10:20:04.796875
377,-32.42,2022-10-26 10:20:04.812500
378,-25.45,2022-10-26 10:20:04.828125
379,-15.2,2022-10-26 10:20:04.843750
380,-2.61,2022-10-26 10:20:04.859375
381,11.06,2022-10-26 10:20:04.875000
382,24.35,2022-10-26 10:20:04.890625
383,35.82,2022-10-26 10:20:04.906250
384,44.27,2022-10-26 10:20:04.921875
385,48.9,2022-10-26 10:20:04.937500
386,49.35,2022-10-26 10:20:04.953125
387,45.88,2022-10-26 10:20:04.968750
388,39.2,2022-10-26 10:20:04.984375
389,30.42,2022-10-26 10:20:05.000000
390,20.8,2022-10-26 10:20:05.015625
391,11.43,2022-10-26 10:20:05.031250
392,3.08,2022-10-26 10:20:05.046875
393,-3.85,2022-10-26 10:20:05.062500
394,-9.33,2022-10-26 10:20:05.078125
395,-13.47,2022-10-26 10:20:05.093750
396,-16.63,2022-10-26 10:20:05.109375
397,-19.45,2022-10-26 10:20:05.125000
398,-22.79,2022-10-26 10:20:05.140625
399,-27.65,2022-10-26 10:20:05.156250
400,-34.73,2022-10-26 10:20:05.171875
401,-44.19,2022-10-26 10:20:05.187500
402,-55.43,2022-10-26 10:20:05.203125
403,-67.36,2022-10-26 10:20:05.218750
404,-78.95,2022-10-26 10:20:05.234375
405,-89.68,2022-10-26 10:20:05.250000
406,-99.69,2022-10-26 10:20:05.265625
407,-109.54,2022-10-26 10:20:05.281250
408,-119.71,2022-10-26 10:20:05.296875
409,-130.3,2022-10-26 10:20:05.312500
410,-141.12,2022-10-26 10:20:05.328125
411,-152.01,2022-10-26 10:20:05.343750
412,-163.1,2022-10-26 10:20:05.359375
413,-174.53,2022-10-26 10:20:05.375000
414,-186.0,2022-10-26 10:20:05.390625
415,-196.11,2022-10-26 10:20:05.406250
416,-202.51,2022-10-26 10:20:05.421875
417,-202.63,2022-10-26 10:20:05.437500
418,-194.84,2022-10-26 10:20:05.453125
419,-179.41,2022-10-26 10:20:05.468750
420,-158.46,2022-10-26 10:20:05.484375
421,-135.15,2022-10-26 10:20:05.500000
422,-112.35,2022-10-26 10:20:05.515625
423,-91.71,2022-10-26 10:20:05.531250
424,-73.37,2022-10-26 10:20:05.546875
425,-56.67,2022-10-26 10:20:05.562500
426,-40.93,2022-10-26 10:20:05.578125
427,-26.08,2022-10-26 10:20:05.593750
428,-12.7,2022-10-26 10:20:05.609375
429,-1.61,2022-10-26 10:20:05.625000
430,6.66,2022-10-26 10:20:05.640625
431,12.16,2022-10-26 10:20:05.656250
432,15.65,2022-10-26 10:20:05.671875
433,18.3,2022-10-26 10:20:05.687500
434,21.29,2022-10-26 10:20:05.703125
435,25.52,2022-10-26 10:20:05.718750
436,31.3,2022-10-26 10:20:05.734375
437,38.33,2022-10-26 10:20:05.750000
438,45.91,2022-10-26 10:20:05.765625
439,53.3,2022-10-26 10:20:05.781250
440,60.05,2022-10-26 10:20:05.796875
441,66.13,2022-10-26 10:20:05.812500
442,71.87,2022-10-26 10:20:05.828125
443,77.63,2022-10-26 10:20:05.843750
444,83.51,2022-10-26 10:20:05.859375
445,89.11,2022-10-26 10:20:05.875000
446,93.56,2022-10-26 10:20:05.890625
447,95.83,2022-10-26 10:20:05.906250
448,95.11,2022-10-26 10:20:05.921875
449,91.16,2022-10-26 10:20:05.937500
450,84.3,2022-10-26 10:20:05.953125
451,75.37,2022-10-26 10:20:05.968750
452,65.28,2022-10-26 10:20:05.984375
453,54.69,2022-10-26 10:20:06.000000
454,43.92,2022-10-26 10:20:06.015625
455,33.22,2022-10-26 10:20:06.031250
456,23.25,2022-10-26 10:20:06.046875
457,15.32,2022-10-26 10:20:06.062500
458,11.14,2022-10-26 10:20:06.078125
459,12.21,2022-10-26 10:20:06.093750
460,18.94,2022-10-26 10:20:06.109375
461,30.16,2022-10-26 10:20:06.125000
462,43.4,2022-10-26 10:20:06.140625
463,55.79,2022-10-26 10:20:06.156250
464,65.08,2022-10-26 10:20:06.171875
465,70.38,2022-10-26 10:20:06.187500
466,72.05,2022-10-26 10:20:06.203125
467,71.21,2022-10-26 10:20:06.218750
468,69.02,2022-10-26 10:20:06.234375
469,66.36,2022-10-26 10:20:06.250000
470,63.71,2022-10-26 10:20:06.265625
471,61.4,2022-10-26 10:20:06.281250
472,59.67,2022-10-26 10:20:06.296875
473,58.56,2022-10-26 10:20:06.312500
474,58.04,2022-10-26 10:20:06.328125
475,57.94,2022-10-26 10:20:06.343750
476,58.24,2022-10-26 10:20:06.359375
477,59.27,2022-10-26 10:20:06.375000
478,61.66,2022-10-26 10:20:06.390625
479,66.0,2022-10-26 10:20:06.406250
480,72.44,2022-10-26 10:20:06.421875
481,80.44,2022-10-26 10:20:06.437500
482,88.72,2022-10-26 10:20:06.453125
483,95.87,2022-10-26 10:20:06.468750
484,100.81,2022-10-26 10:20:06.484375
485,103.3,2022-10-26 10:20:06.500000
486,104.1,2022-10-26 10:20:06.515625
487,104.62,2022-10-26 10:20:06.531250
488,106.36,2022-10-26 10:20:06.546875
489,110.14,2022-10-26 10:20:06.562500
490,115.66,2022-10-26 10:20:06.578125
491,121.51,2022-10-26 10:20:06.593750
492,125.72,2022-10-26 10:20:06.609375
493,126.53,2022-10-26 10:20:06.625000
494,123.01,2022-10-26 10:20:06.640625
495,115.36,2022-10-26 10:20:06.656250
496,104.74,2022-10-26 10:20:06.671875
497,93.13,2022-10-26 10:20:06.687500
498,83.06,2022-10-26 10:20:06.703125
499,77.15,2022-10-26 10:20:06.718750
500,77.45,2022-10-26 10:20:06.734375
501,84.51,2022-10-26 10:20:06.750000
502,96.74,2022-10-26 10:20:06.765625
503,110.36,2022-10-26 10:20:06.781250
504,120.6,2022-10-26 10:20:06.796875
505,123.37,2022-10-26 10:20:06.812500
506,116.98,2022-10-26 10:20:06.828125
507,102.73,2022-10-26 10:20:06.843750
508,84.32,2022-10-26 10:20:06.859375
509,66.05,2022-10-26 10:20:06.875000
510,51.22,2022-10-26 10:20:06.890625
511,41.22,2022-10-26 10:20:06.906250
512,35.77,2022-10-26 10:20:06.921875
513,33.93,2022-10-26 10:20:06.937500
514,34.82,2022-10-26 10:20:06.953125
515,37.96,2022-10-26 10:20:06.968750
516,43.0,2022-10-26 10:20:06.984375
517,49.21,2022-10-26 10:20:07.000000
518,55.37,2022-10-26 10:20:07.015625
519,59.95,2022-10-26 10:20:07.031250
520,61.52,2022-10-26 10:20:07.046875
521,59.17,2022-10-26 10:20:07.062500
522,52.7,2022-10-26 10:20:07.078125
523,42.29,2022-10-26 10:20:07.093750
524,28.28,2022-10-26 10:20:07.109375
525,11.03,2022-10-26 10:20:07.125000
526,-8.98,2022-10-26 10:20:07.140625
527,-30.82,2022-10-26 10:20:07.156250
528,-52.89,2022-10-26 10:20:07.171875
529,-73.04,2022-10-26 10:20:07.187500
530,-89.07,2022-10-26 10:20:07.203125
531,-99.29,2022-10-26 10:20:07.218750
532,-103.06,2022-10-26 10:20:07.234375
533,-100.88,2022-10-26 10:20:07.250000
534,-94.05,2022-10-26 10:20:07.265625
535,-84.4,2022-10-26 10:20:07.281250
536,-73.73,2022-10-26 10:20:07.296875
537,-63.63,2022-10-26 10:20:07.312500
538,-55.33,2022-10-26 10:20:07.328125
539,-49.62,2022-10-26 10:20:07.343750
540,-46.71,2022-10-26 10:20:07.359375
541,-46.24,2022-10-26 10:20:07.375000
542,-47.37,2022-10-26 10:20:07.390625
543,-48.87,2022-10-26 10:20:07.406250
544,-49.59,2022-10-26 10:20:07.421875
545,-48.78,2022-10-26 10:20:07.437500
546,-46.34,2022-10-26 10:20:07.453125
547,-42.76,2022-10-26 10:20:07.468750
548,-39.11,2022-10-26 10:20:07.484375
549,-36.66,2022-10-26 10:20:07.500000
550,-36.63,2022-10-26 10:20:07.515625
551,-39.78,2022-10-26 10:20:07.531250
552,-46.33,2022-10-26 10:20:07.546875
553,-55.81,2022-10-26 10:20:07.562500
554,-67.22,2022-10-26 10:20:07.578125
555,-79.21,2022-10-26 10:20:07.593750
556,-90.35,2022-10-26 10:20:07.609375
557,-99.49,2022-10-26 10:20:07.625000
558,-105.88,2022-10-26 10:20:07.640625
559,-109.31,2022-10-26 10:20:07.656250
560,-110.07,2022-10-26 10:20:07.671875
561,-108.66,2022-10-26 10:20:07.687500
562,-105.66,2022-10-26 10:20:07.703125
563,-101.51,2022-10-26 10:20:07.718750
564,-96.58,2022-10-26 10:20:07.734375
565,-91.24,2022-10-26 10:20:07.750000
566,-85.99,2022-10-26 10:20:07.765625
567,-81.3,2022-10-26 10:20:07.781250
568,-77.49,2022-10-26 10:20:07.796875
569,-74.32,2022-10-26 10:20:07.812500
570,-71.03,2022-10-26 10:20:07.828125
571,-66.63,2022-10-26 10:20:07.843750
572,-60.39,2022-10-26 10:20:07.859375
573,-52.28,2022-10-26 10:20:07.875000
574,-43.22,2022-10-26 10:20:07.890625
575,-34.64,2022-10-26 10:20:07.906250
576,-27.83,2022-10-26 10:20:07.921875
577,-23.23,2022-10-26 10:20:07.937500
578,-20.27,2022-10-26 10:20:07.953125
579,-17.6,2022-10-26 10:20:07.968750
580,-14.0,2022-10-26 10:20:07.984375
581,-8.94,2022-10-26 10:20:08.000000
582,-2.81,2022-10-26 10:20:08.015625
583,3.24,2022-10-26 10:20:08.031250
584,7.91,2022-10-26 10:20:08.046875
585,10.26,2022-10-26 10:20:08.062500
586,10.03,2022-10-26 10:20:08.078125
587,7.67,2022-10-26 10:20:08.093750
588,4.28,2022-10-26 10:20:08.109375
589,1.22,2022-10-26 10:20:08.125000
590,-0.25,2022-10-26 10:20:08.140625
591,0.6,2022-10-26 10:20:08.156250
592,3.43,2022-10-26 10:20:08.171875
593,6.98,2022-10-26 10:20:08.187500
594,9.47,2022-10-26 10:20:08.203125
595,9.36,2022-10-26 10:20:08.218750
596,6.19,2022-10-26 10:20:08.234375
597,0.67,2022-10-26 10:20:08.250000
598,-5.78,2022-10-26 10:20:08.265625
599,-11.74,2022-10-26 10:20:08.281250
600,-16.57,2022-10-26 10:20:08.296875
601,-20.5,2022-10-26 10:20:08.312500
602,-24.08,2022-10-26 10:20:08.328125
603,-27.69,2022-10-26 10:20:08.343750
604,-31.18,2022-10-26 10:20:08.359375
605,-34.01,2022-10-26 10:20:08.375000
606,-35.7,2022-10-26 10:20:08.390625
607,-36.27,2022-10-26 10:20:08.406250
608,-36.4,2022-10-26 10:20:08.421875
609,-37.13,2022-10-26 10:20:08.437500
610,-39.36,2022-10-26 10:20:08.453125
611,-43.31,2022-10-26 10:20:08.468750
612,-48.43,2022-10-26 10:20:08.484375
613,-53.42,2022-10-26 10:20:08.500000
614,-56.69,2022-10-26 10:20:08.515625
615,-56.87,2022-10-26 10:20:08.531250
616,-53.33,2022-10-26 10:20:08.546875
617,-46.37,2022-10-26 10:20:08.562500
618,-37.15,2022-10-26 10:20:08.578125
619,-27.17,2022-10-26 10:20:08.593750
620,-17.68,2022-10-26 10:20:08.609375
621,-9.32,2022-10-26 10:20:08.625000
622,-2.1,2022-10-26 10:20:08.640625
623,4.27,2022-10-26 10:20:08.656250
624,9.82,2022-10-26 10:20:08.671875
625,14.09,2022-10-26 10:20:08.687500
626,16.33,2022-10-26 10:20:08.703125
627,15.88,2022-10-26 10:20:08.718750
628,12.7,2022-10-26 10:20:08.734375
629,7.58,2022-10-26 10:20:08.750000
630,1.9,2022-10-26 10:20:08.765625
631,-2.93,2022-10-26 10:20:08.781250
632,-5.96,2022-10-26 10:20:08.796875
633,-7.07,2022-10-26 10:20:08.812500
634,-6.87,2022-10-26 10:20:08.828125
635,-6.3,2022-10-26 10:20:08.843750
636,-6.23,2022-10-26 10:20:08.859375
637,-7.2,2022-10-26 10:20:08.875000
638,-9.29,2022-10-26 10:20:08.890625
639,-12.23,2022-10-26 10:20:08.906250
640,-15.59,2022-10-26 10:20:08.921875
641,-18.9,2022-10-26 10:20:08.937500
642,-21.71,2022-10-26 10:20:08.953125
643,-23.57,2022-10-26 10:20:08.968750
644,-24.23,2022-10-26 10:20:08.984375
645,-23.7,2022-10-26 10:20:09.000000
646,-22.38,2022-10-26 10:20:09.015625
647,-21.03,2022-10-26 10:20:09.031250
648,-20.38,2022-10-26 10:20:09.046875
649,-20.75,2022-10-26 10:20:09.062500
650,-21.73,2022-10-26 10:20:09.078125
651,-22.25,2022-10-26 10:20:09.093750
652,-20.92,2022-10-26 10:20:09.109375
653,-16.84,2022-10-26 10:20:09.125000
654,-9.97,2022-10-26 10:20:09.140625
655,-1.27,2022-10-26 10:20:09.156250
656,7.73,2022-10-26 10:20:09.171875
657,15.65,2022-10-26 10:20:09.187500
658,21.81,2022-10-26 10:20:09.203125
659,26.32,2022-10-26 10:20:09.218750
660,29.77,2022-10-26 10:20:09.234375
661,32.64,2022-10-26 10:20:09.250000
662,34.88,2022-10-26 10:20:09.265625
663,35.92,2022-10-26 10:20:09.281250
664,35.0,2022-10-26 10:20:09.296875
665,31.67,2022-10-26 10:20:09.312500
666,26.14,2022-10-26 10:20:09.328125
667,19.26,2022-10-26 10:20:09.343750
668,12.28,2022-10-26 10:20:09.359375
669,6.33,2022-10-26 10:20:09.375000
670,2.14,2022-10-26 10:20:09.390625
671,-0.11,2022-10-26 10:20:09.406250
672,-0.74,2022-10-26 10:20:09.421875
673,-0.37,2022-10-26 10:20:09.437500
674,0.32,2022-10-26 10:20:09.453125
675,0.69,2022-10-26 10:20:09.468750
676,0.34,2022-10-26 10:20:09.484375
677,-0.76,2022-10-26 10:20:09.500000
678,-2.4,2022-10-26 10:20:09.515625
679,-4.21,2022-10-26 10:20:09.531250
680,-5.96,2022-10-26 10:20:09.546875
681,-7.64,2022-10-26 10:20:09.562500
682,-9.49,2022-10-26 10:20:09.578125
683,-11.76,2022-10-26 10:20:09.593750
684,-14.48,2022-10-26 10:20:09.609375
685,-17.33,2022-10-26 10:20:09.625000
686,-19.63,2022-10-26 10:20:09.640625
687,-20.56,2022-10-26 10:20:09.656250
688,-19.43,2022-10-26 10:20:09.671875
689,-15.88,2022-10-26 10:20:09.687500
690,-9.83,2022-10-26 10:20:09.703125
691,-1.44,2022-10-26 10:20:09.718750
692,8.96,2022-10-26 10:20:09.734375
693,20.94,2022-10-26 10:20:09.750000
694,33.74,2022-10-26 10:20:09.765625
695,46.31,2022-10-26 10:20:09.781250
696,57.39,2022-10-26 10:20:09.796875
697,65.91,2022-10-26 10:20:09.812500
698,71.41,2022-10-26 10:20:09.828125
699,74.37,2022-10-26 10:20:09.843750
700,76.11,2022-10-26 10:20:09.859375
701,78.22,2022-10-26 10:20:09.875000
702,81.87,2022-10-26 10:20:09.890625
703,87.22,2022-10-26 10:20:09.906250
704,93.39,2022-10-26 10:20:09.921875
705,98.86,2022-10-26 10:20:09.937500
706,102.11,2022-10-26 10:20:09.953125
707,102.13,2022-10-26 10:20:09.968750
708,98.54,2022-10-26 10:20:09.984375
709,91.33,2022-10-26 10:20:10.000000
710,80.67,2022-10-26 10:20:10.015625
711,66.73,2022-10-26 10:20:10.031250
712,50.05,2022-10-26 10:20:10.046875
713,31.75,2022-10-26 10:20:10.062500
714,13.49,2022-10-26 10:20:10.078125
715,-2.97,2022-10-26 10:20:10.093750
716,-16.52,2022-10-26 10:20:10.109375
717,-27.28,2022-10-26 10:20:10.125000
718,-36.49,2022-10-26 10:20:10.140625
719,-45.8,2022-10-26 10:20:10.156250
720,-56.34,2022-10-26 10:20:10.171875
721,-68.12,2022-10-26 10:20:10.187500
722,-80.04,2022-10-26 10:20:10.203125
723,-90.47,2022-10-26 10:20:10.218750
724,-98.11,2022-10-26 10:20:10.234375
725,-102.39,2022-10-26 10:20:10.250000
726,-103.25,2022-10-26 10:20:10.265625
727,-100.82,2022-10-26 10:20:10.281250
728,-94.83,2022-10-26 10:20:10.296875
729,-84.77,2022-10-26 10:20:10.312500
730,-70.21,2022-10-26 10:20:10.328125
731,-51.42,2022-10-26 10:20:10.343750
732,-29.52,2022-10-26 10:20:10.359375
733,-6.34,2022-10-26 10:20:10.375000
734,16.22,2022-10-26 10:20:10.390625
735,36.6,2022-10-26 10:20:10.406250
736,53.73,2022-10-26 10:20:10.421875
737,66.87,2022-10-26 10:20:10.437500
738,75.31,2022-10-26 10:20:10.453125
739,78.27,2022-10-26 10:20:10.468750
740,75.06,2022-10-26 10:20:10.484375
741,65.4,2022-10-26 10:20:10.500000
742,49.56,2022-10-26 10:20:10.515625
743,28.33,2022-10-26 10:20:10.531250
744,2.83,2022-10-26 10:20:10.546875
745,-25.65,2022-10-26 10:20:10.562500
746,-55.53,2022-10-26 10:20:10.578125
747,-84.93,2022-10-26 10:20:10.593750
748,-111.62,2022-10-26 10:20:10.609375
749,-133.32,2022-10-26 10:20:10.625000
750,-148.21,2022-10-26 10:20:10.640625
751,-155.42,2022-10-26 10:20:10.656250
752,-155.37,2022-10-26 10:20:10.671875
753,-149.63,2022-10-26 10:20:10.687500
754,-140.54,2022-10-26 10:20:10.703125
755,-130.48,2022-10-26 10:20:10.718750
756,-121.39,2022-10-26 10:20:10.734375
757,-114.53,2022-10-26 10:20:10.750000
758,-110.48,2022-10-26 10:20:10.765625
759,-109.43,2022-10-26 10:20:10.781250
760,-111.17,2022-10-26 10:20:10.796875
761,-115.19,2022-10-26 10:20:10.812500
762,-120.65,2022-10-26 10:20:10.828125
763,-126.42,2022-10-26 10:20:10.843750
764,-131.41,2022-10-26 10:20:10.859375
765,-135.02,2022-10-26 10:20:10.875000
766,-137.43,2022-10-26 10:20:10.890625
767,-139.41,2022-10-26 10:20:10.906250
768,-141.8,2022-10-26 10:20:10.921875
769,-144.84,2022-10-26 10:20:10.937500
770,-147.74,2022-10-26 10:20:10.953125
771,-148.75,2022-10-26 10:20:10.968750
772,-145.95,2022-10-26 10:20:10.984375
773,-137.96,2022-10-26 10:20:11.000000
774,-124.63,2022-10-26 10:20:11.015625
775,-107.02,2022-10-26 10:20:11.031250
776,-86.98,2022-10-26 10:20:11.046875
777,-66.55,2022-10-26 10:20:11.062500
778,-47.24,2022-10-26 10:20:11.078125
779,-29.89,2022-10-26 10:20:11.093750
780,-14.54,2022-10-26 10:20:11.109375
781,-0.62,2022-10-26 10:20:11.125000
782,12.93,2022-10-26 10:20:11.140625
783,27.34,2022-10-26 10:20:11.156250
784,43.64,2022-10-26 10:20:11.171875
785,62.27,2022-10-26 10:20:11.187500
786,82.82,2022-10-26 10:20:11.203125
787,104.09,2022-10-26 10:20:11.218750
788,124.38,2022-10-26 10:20:11.234375
789,141.94,2022-10-26 10:20:11.250000
790,155.4,2022-10-26 10:20:11.265625
791,164.04,2022-10-26 10:20:11.281250
792,167.79,2022-10-26 10:20:11.296875
793,167.15,2022-10-26 10:20:11.312500
794,162.91,2022-10-26 10:20:11.328125
795,155.97,2022-10-26 10:20:11.343750
796,147.31,2022-10-26 10:20:11.359375
797,137.88,2022-10-26 10:20:11.375000
798,128.51,2022-10-26 10:20:11.390625
799,119.83,2022-10-26 10:20:11.406250
800,112.01,2022-10-26 10:20:11.421875
801,104.77,2022-10-26 10:20:11.437500
802,97.45,2022-10-26 10:20:11.453125
803,89.29,2022-10-26 10:20:11.468750
804,79.72,2022-10-26 10:20:11.484375
805,68.67,2022-10-26 10:20:11.500000
806,56.57,2022-10-26 10:20:11.515625
807,44.25,2022-10-26 10:20:11.531250
808,32.66,2022-10-26 10:20:11.546875
809,22.56,2022-10-26 10:20:11.562500
810,14.3,2022-10-26 10:20:11.578125
811,7.74,2022-10-26 10:20:11.593750
812,2.42,2022-10-26 10:20:11.609375
813,-2.35,2022-10-26 10:20:11.625000
814,-7.3,2022-10-26 10:20:11.640625
815,-12.96,2022-10-26 10:20:11.656250
816,-19.61,2022-10-26 10:20:11.671875
817,-27.11,2022-10-26 10:20:11.687500
818,-34.77,2022-10-26 10:20:11.703125
819,-41.35,2022-10-26 10:20:11.718750
820,-45.29,2022-10-26 10:20:11.734375
821,-45.06,2022-10-26 10:20:11.750000
822,-39.69,2022-10-26 10:20:11.765625
823,-29.15,2022-10-26 10:20:11.781250
824,-14.44,2022-10-26 10:20:11.796875
825,2.69,2022-10-26 10:20:11.812500
826,20.27,2022-10-26 10:20:11.828125
827,36.65,2022-10-26 10:20:11.843750
828,50.73,2022-10-26 10:20:11.859375
829,62.07,2022-10-26 10:20:11.875000
830,70.64,2022-10-26 10:20:11.890625
831,76.53,2022-10-26 10:20:11.906250
832,79.83,2022-10-26 10:20:11.921875
833,80.64,2022-10-26 10:20:11.937500
834,79.23,2022-10-26 10:20:11.953125
835,76.15,2022-10-26 10:20:11.968750
836,72.18,2022-10-26 10:20:11.984375
837,68.16,2022-10-26 10:20:12.000000
838,64.69,2022-10-26 10:20:12.015625
839,61.99,2022-10-26 10:20:12.031250
840,59.89,2022-10-26 10:20:12.046875
841,57.96,2022-10-26 10:20:12.062500
842,55.82,2022-10-26 10:20:12.078125
843,53.32,2022-10-26 10:20:12.093750
844,50.62,2022-10-26 10:20:12.109375
845,47.95,2022-10-26 10:20:12.125000
846,45.39,2022-10-26 10:20:12.140625
847,42.65,2022-10-26 10:20:12.156250
848,39.04,2022-10-26 10:20:12.171875
849,33.73,2022-10-26 10:20:12.187500
850,26.1,2022-10-26 10:20:12.203125
851,16.16,2022-10-26 10:20:12.218750
852,4.6,2022-10-26 10:20:12.234375
853,-7.37,2022-10-26 10:20:12.250000
854,-18.55,2022-10-26 10:20:12.265625
855,-28.21,2022-10-26 10:20:12.281250
856,-36.37,2022-10-26 10:20:12.296875
857,-43.75,2022-10-26 10:20:12.312500
858,-51.51,2022-10-26 10:20:12.328125
859,-60.72,2022-10-26 10:20:12.343750
860,-72.09,2022-10-26 10:20:12.359375
861,-85.61,2022-10-26 10:20:12.375000
862,-100.43,2022-10-26 10:20:12.390625
863,-114.66,2022-10-26 10:20:12.406250
864,-125.52,2022-10-26 10:20:12.421875
865,-129.84,2022-10-26 10:20:12.437500
866,-125.05,2022-10-26 10:20:12.453125
867,-110.21,2022-10-26 10:20:12.468750
868,-86.7,2022-10-26 10:20:12.484375
869,-57.96,2022-10-26 10:20:12.500000
870,-28.55,2022-10-26 10:20:12.515625
871,-2.55,2022-10-26 10:20:12.531250
872,17.49,2022-10-26 10:20:12.546875
873,30.99,2022-10-26 10:20:12.562500
874,38.69,2022-10-26 10:20:12.578125
875,41.78,2022-10-26 10:20:12.593750
876,41.18,2022-10-26 10:20:12.609375
877,37.42,2022-10-26 10:20:12.625000
878,31.09,2022-10-26 10:20:12.640625
879,23.19,2022-10-26 10:20:12.656250
880,15.11,2022-10-26 10:20:12.671875
881,8.2,2022-10-26 10:20:12.687500
882,3.04,2022-10-26 10:20:12.703125
883,-0.87,2022-10-26 10:20:12.718750
884,-4.92,2022-10-26 10:20:12.734375
885,-10.68,2022-10-26 10:20:12.750000
886,-19.13,2022-10-26 10:20:12.765625
887,-30.11,2022-10-26 10:20:12.781250
888,-42.17,2022-10-26 10:20:12.796875
889,-52.9,2022-10-26 10:20:12.812500
890,-59.57,2022-10-26 10:20:12.828125
891,-60.1,2022-10-26 10:20:12.843750
892,-53.62,2022-10-26 10:20:12.859375
893,-40.97,2022-10-26 10:20:12.875000
894,-24.43,2022-10-26 10:20:12.890625
895,-7.07,2022-10-26 10:20:12.906250
896,8.26,2022-10-26 10:20:12.921875
897,19.77,2022-10-26 10:20:12.937500
898,27.12,2022-10-26 10:20:12.953125
899,31.05,2022-10-26 10:20:12.968750
900,32.68,2022-10-26 10:20:12.984375
901,32.83,2022-10-26 10:20:13.000000
902,31.58,2022-10-26 10:20:13.015625
903,28.39,2022-10-26 10:20:13.031250
904,22.5,2022-10-26 10:20:13.046875
905,13.45,2022-10-26 10:20:13.062500
906,1.51,2022-10-26 10:20:13.078125
907,-12.04,2022-10-26 10:20:13.093750
908,-24.91,2022-10-26 10:20:13.109375
909,-34.22,2022-10-26 10:20:13.125000
910,-37.19,2022-10-26 10:20:13.140625
911,-32.1,2022-10-26 10:20:13.156250
912,-19.1,2022-10-26 10:20:13.171875
913,-0.24,2022-10-26 10:20:13.187500
914,20.98,2022-10-26 10:20:13.203125
915,40.83,2022-10-26 10:20:13.218750
916,56.46,2022-10-26 10:20:13.234375
917,66.62,2022-10-26 10:20:13.250000
918,71.5,2022-10-26 10:20:13.265625
919,72.18,2022-10-26 10:20:13.281250
920,69.75,2022-10-26 10:20:13.296875
921,64.9,2022-10-26 10:20:13.312500
922,57.98,2022-10-26 10:20:13.328125
923,49.36,2022-10-26 10:20:13.343750
924,39.87,2022-10-26 10:20:13.359375
925,30.94,2022-10-26 10:20:13.375000
926,24.28,2022-10-26 10:20:13.390625
927,21.26,2022-10-26 10:20:13.406250
928,22.33,2022-10-26 10:20:13.421875
929,26.79,2022-10-26 10:20:13.437500
930,33.02,2022-10-26 10:20:13.453125
931,39.18,2022-10-26 10:20:13.468750
932,43.94,2022-10-26 10:20:13.484375
933,46.93,2022-10-26 10:20:13.500000
934,48.57,2022-10-26 10:20:13.515625
935,49.53,2022-10-26 10:20:13.531250
936,50.08,2022-10-26 10:20:13.546875
937,49.74,2022-10-26 10:20:13.562500
938,47.5,2022-10-26 10:20:13.578125
939,42.44,2022-10-26 10:20:13.593750
940,34.36,2022-10-26 10:20:13.609375
941,24.06,2022-10-26 10:20:13.625000
942,13.03,2022-10-26 10:20:13.640625
943,2.94,2022-10-26 10:20:13.656250
944,-5.15,2022-10-26 10:20:13.671875
945,-11.1,2022-10-26 10:20:13.687500
946,-15.63,2022-10-26 10:20:13.703125
947,-19.96,2022-10-26 10:20:13.718750
948,-25.21,2022-10-26 10:20:13.734375
949,-32.11,2022-10-26 10:20:13.750000
950,-40.82,2022-10-26 10:20:13.765625
951,-50.77,2022-10-26 10:20:13.781250
952,-60.61,2022-10-26 10:20:13.796875
953,-68.29,2022-10-26 10:20:13.812500
954,-71.29,2022-10-26 10:20:13.828125
955,-67.36,2022-10-26 10:20:13.843750
956,-55.27,2022-10-26 10:20:13.859375
957,-35.52,2022-10-26 10:20:13.875000
958,-10.38,2022-10-26 10:20:13.890625
959,16.68,2022-10-26 10:20:13.906250
960,42.13,2022-10-26 10:20:13.921875
961,63.33,2022-10-26 10:20:13.937500
962,78.99,2022-10-26 10:20:13.953125
963,89.0,2022-10-26 10:20:13.968750
964,93.79,2022-10-26 10:20:13.984375
965,93.79,2022-10-26 10:20:14.000000
966,89.22,2022-10-26 10:20:14.015625
967,80.33,2022-10-26 10:20:14.031250
968,67.78,2022-10-26 10:20:14.046875
969,52.86,2022-10-26 10:20:14.062500
970,37.19,2022-10-26 10:20:14.078125
971,22.31,2022-10-26 10:20:14.093750
972,9.26,2022-10-26 10:20:14.109375
973,-1.61,2022-10-26 10:20:14.125000
974,-10.44,2022-10-26 10:20:14.140625
975,-17.53,2022-10-26 10:20:14.156250
976,-22.99,2022-10-26 10:20:14.171875
977,-26.7,2022-10-26 10:20:14.187500
978,-28.44,2022-10-26 10:20:14.203125
979,-28.29,2022-10-26 10:20:14.218750
980,-26.7,2022-10-26 10:20:14.234375
981,-24.63,2022-10-26 10:20:14.250000
982,-23.18,2022-10-26 10:20:14.265625
983,-23.37,2022-10-26 10:20:14.281250
984,-25.64,2022-10-26 10:20:14.296875
985,-29.78,2022-10-26 10:20:14.312500
986,-34.99,2022-10-26 10:20:14.328125
987,-40.23,2022-10-26 10:20:14.343750
988,-44.62,2022-10-26 10:20:14.359375
989,-47.74,2022-10-26 10:20:14.375000
990,-49.85,2022-10-26 10:20:14.390625
991,-51.74,2022-10-26 10:20:14.406250
992,-54.48,2022-10-26 10:20:14.421875
993,-59.11,2022-10-26 10:20:14.437500
994,-66.2,2022-10-26 10:20:14.453125
995,-75.46,2022-10-26 10:20:14.468750
996,-85.49,2022-10-26 10:20:14.484375
997,-93.81,2022-10-26 10:20:14.500000
998,-97.37,2022-10-26 10:20:14.515625
999,-93.44,2022-10-26 10:20:14.531250
1000,-80.71,2022-10-26 10:20:14.546875
1001,-59.92,2022-10-26 10:20:14.562500
1002,-33.77,2022-10-26 10:20:14.578125
1003,-6.03,2022-10-26 10:20:14.593750
1004,19.65,2022-10-26 10:20:14.609375
1005,40.83,2022-10-26 10:20:14.625000
1006,56.6,2022-10-26 10:20:14.640625
1007,67.29,2022-10-26 10:20:14.656250
1008,73.71,2022-10-26 10:20:14.671875
1009,76.58,2022-10-26 10:20:14.687500
1010,76.36,2022-10-26 10:20:14.703125
1011,73.44,2022-10-26 10:20:14.718750
1012,68.5,2022-10-26 10:20:14.734375
1013,62.56,2022-10-26 10:20:14.750000
1014,56.87,2022-10-26 10:20:14.765625
1015,52.55,2022-10-26 10:20:14.781250
1016,50.26,2022-10-26 10:20:14.796875
1017,50.06,2022-10-26 10:20:14.812500
1018,51.56,2022-10-26 10:20:14.828125
1019,54.14,2022-10-26 10:20:14.843750
1020,57.15,2022-10-26 10:20:14.859375
1021,60.08,2022-10-26 10:20:14.875000
1022,62.56,2022-10-26 10:20:14.890625
1023,64.33,2022-10-26 10:20:14.906250
1024,65.26,2022-10-26 10:20:14.921875
1025,65.25,2022-10-26 10:20:14.937500
1026,64.3,2022-10-26 10:20:14.953125
1027,62.39,2022-10-26 10:20:14.968750
1028,59.56,2022-10-26 10:20:14.984375
1029,55.84,2022-10-26 10:20:15.000000
1030,51.27,2022-10-26 10:20:15.015625
1031,45.84,2022-10-26 10:20:15.031250
1032,39.5,2022-10-26 10:20:15.046875
1033,32.1,2022-10-26 10:20:15.062500
1034,23.34,2022-10-26 10:20:15.078125
1035,12.93,2022-10-26 10:20:15.093750
1036,0.74,2022-10-26 10:20:15.109375
1037,-12.85,2022-10-26 10:20:15.125000
1038,-26.69,2022-10-26 10:20:15.140625
1039,-38.79,2022-10-26 10:20:15.156250
1040,-46.73,2022-10-26 10:20:15.171875
1041,-48.34,2022-10-26 10:20:15.187500
1042,-42.54,2022-10-26 10:20:15.203125
1043,-29.85,2022-10-26 10:20:15.218750
1044,-12.35,2022-10-26 10:20:15.234375
1045,6.88,2022-10-26 10:20:15.250000
1046,24.73,2022-10-26 10:20:15.265625
1047,38.93,2022-10-26 10:20:15.281250
1048,48.44,2022-10-26 10:20:15.296875
1049,53.32,2022-10-26 10:20:15.312500
1050,54.31,2022-10-26 10:20:15.328125
1051,52.36,2022-10-26 10:20:15.343750
1052,48.31,2022-10-26 10:20:15.359375
1053,42.89,2022-10-26 10:20:15.375000
1054,36.69,2022-10-26 10:20:15.390625
1055,30.27,2022-10-26 10:20:15.406250
1056,24.04,2022-10-26 10:20:15.421875
1057,18.15,2022-10-26 10:20:15.437500
1058,12.54,2022-10-26 10:20:15.453125
1059,6.89,2022-10-26 10:20:15.468750
1060,0.78,2022-10-26 10:20:15.484375
1061,-6.09,2022-10-26 10:20:15.500000
1062,-13.66,2022-10-26 10:20:15.515625
1063,-21.53,2022-10-26 10:20:15.531250
1064,-29.03,2022-10-26 10:20:15.546875
1065,-35.58,2022-10-26 10:20:15.562500
1066,-40.95,2022-10-26 10:20:15.578125
1067,-45.55,2022-10-26 10:20:15.593750
1068,-50.31,2022-10-26 10:20:15.609375
1069,-56.22,2022-10-26 10:20:15.625000
1070,-63.74,2022-10-26 10:20:15.640625
1071,-72.36,2022-10-26 10:20:15.656250
1072,-80.67,2022-10-26 10:20:15.671875
1073,-86.96,2022-10-26 10:20:15.687500
1074,-90.0,2022-10-26 10:20:15.703125
1075,-89.71,2022-10-26 10:20:15.718750
1076,-87.23,2022-10-26 10:20:15.734375
1077,-84.39,2022-10-26 10:20:15.750000
1078,-82.99,2022-10-26 10:20:15.765625
1079,-84.04,2022-10-26 10:20:15.781250
1080,-87.29,2022-10-26 10:20:15.796875
1081,-91.26,2022-10-26 10:20:15.812500
1082,-93.49,2022-10-26 10:20:15.828125
1083,-91.22,2022-10-26 10:20:15.843750
1084,-82.16,2022-10-26 10:20:15.859375
1085,-65.21,2022-10-26 10:20:15.875000
1086,-41.06,2022-10-26 10:20:15.890625
1087,-12.26,2022-10-26 10:20:15.906250
1088,17.43,2022-10-26 10:20:15.921875
1089,44.1,2022-10-26 10:20:15.937500
1090,64.85,2022-10-26 10:20:15.953125
1091,78.52,2022-10-26 10:20:15.968750
1092,85.6,2022-10-26 10:20:15.984375
1093,87.45,2022-10-26 10:20:16.000000
1094,85.54,2022-10-26 10:20:16.015625
1095,80.94,2022-10-26 10:20:16.031250
1096,74.23,2022-10-26 10:20:16.046875
1097,65.9,2022-10-26 10:20:16.062500
1098,56.64,2022-10-26 10:20:16.078125
1099,47.29,2022-10-26 10:20:16.093750
1100,38.7,2022-10-26 10:20:16.109375
1101,31.36,2022-10-26 10:20:16.125000
1102,25.43,2022-10-26 10:20:16.140625
1103,20.85,2022-10-26 10:20:16.156250
1104,17.55,2022-10-26 10:20:16.171875
1105,15.51,2022-10-26 10:20:16.187500
1106,14.69,2022-10-26 10:20:16.203125
1107,14.82,2022-10-26 10:20:16.218750
1108,15.33,2022-10-26 10:20:16.234375
1109,15.51,2022-10-26 10:20:16.250000
1110,14.73,2022-10-26 10:20:16.265625
1111,12.69,2022-10-26 10:20:16.281250
1112,9.41,2022-10-26 10:20:16.296875
1113,5.15,2022-10-26 10:20:16.312500
1114,0.14,2022-10-26 10:20:16.328125
1115,-5.38,2022-10-26 10:20:16.343750
1116,-11.32,2022-10-26 10:20:16.359375
1117,-17.6,2022-10-26 10:20:16.375000
1118,-24.2,2022-10-26 10:20:16.390625
1119,-31.28,2022-10-26 10:20:16.406250
1120,-39.15,2022-10-26 10:20:16.421875
1121,-48.09,2022-10-26 10:20:16.437500
1122,-57.94,2022-10-26 10:20:16.453125
1123,-67.59,2022-10-26 10:20:16.468750
1124,-74.93,2022-10-26 10:20:16.484375
1125,-77.31,2022-10-26 10:20:16.500000
1126,-72.54,2022-10-26 10:20:16.515625
1127,-59.86,2022-10-26 10:20:16.531250
1128,-40.57,2022-10-26 10:20:16.546875
1129,-17.67,2022-10-26 10:20:16.562500
1130,5.14,2022-10-26 10:20:16.578125
1131,24.7,2022-10-26 10:20:16.593750
1132,39.26,2022-10-26 10:20:16.609375
1133,48.66,2022-10-26 10:20:16.625000
1134,53.81,2022-10-26 10:20:16.640625
1135,55.84,2022-10-26 10:20:16.656250
1136,55.6,2022-10-26 10:20:16.671875
1137,53.5,2022-10-26 10:20:16.687500
1138,49.79,2022-10-26 10:20:16.703125
1139,44.91,2022-10-26 10:20:16.718750
1140,39.66,2022-10-26 10:20:16.734375
1141,35.03,2022-10-26 10:20:16.750000
1142,31.89,2022-10-26 10:20:16.765625
1143,30.74,2022-10-26 10:20:16.781250
1144,31.51,2022-10-26 10:20:16.796875
1145,33.63,2022-10-26 10:20:16.812500
1146,36.23,2022-10-26 10:20:16.828125
1147,38.37,2022-10-26 10:20:16.843750
1148,39.15,2022-10-26 10:20:16.859375
1149,37.95,2022-10-26 10:20:16.875000
1150,34.48,2022-10-26 10:20:16.890625
1151,28.85,2022-10-26 10:20:16.906250
1152,21.57,2022-10-26 10:20:16.921875
1153,13.39,2022-10-26 10:20:16.937500
1154,5.1,2022-10-26 10:20:16.953125
1155,-2.74,2022-10-26 10:20:16.968750
1156,-9.89,2022-10-26 10:20:16.984375
1157,-16.4,2022-10-26 10:20:17.000000
1158,-22.52,2022-10-26 10:20:17.015625
1159,-28.55,2022-10-26 10:20:17.031250
1160,-34.88,2022-10-26 10:20:17.046875
1161,-41.95,2022-10-26 10:20:17.062500
1162,-50.14,2022-10-26 10:20:17.078125
1163,-59.43,2022-10-26 10:20:17.093750
1164,-68.98,2022-10-26 10:20:17.109375
1165,-76.87,2022-10-26 10:20:17.125000
1166,-80.48,2022-10-26 10:20:17.140625
1167,-77.39,2022-10-26 10:20:17.156250
1168,-66.42,2022-10-26 10:20:17.171875
1169,-48.46,2022-10-26 10:20:17.187500
1170,-26.29,2022-10-26 10:20:17.203125
1171,-3.74,2022-10-26 10:20:17.218750
1172,15.67,2022-10-26 10:20:17.234375
1173,29.83,2022-10-26 10:20:17.250000
1174,38.39,2022-10-26 10:20:17.265625
1175,42.34,2022-10-26 10:20:17.281250
1176,43.23,2022-10-26 10:20:17.296875
1177,42.38,2022-10-26 10:20:17.312500
1178,40.55,2022-10-26 10:20:17.328125
1179,38.08,2022-10-26 10:20:17.343750
1180,35.15,2022-10-26 10:20:17.359375
1181,32.04,2022-10-26 10:20:17.375000
1182,29.16,2022-10-26 10:20:17.390625
1183,26.89,2022-10-26 10:20:17.406250
1184,25.51,2022-10-26 10:20:17.421875
1185,25.08,2022-10-26 10:20:17.437500
1186,25.49,2022-10-26 10:20:17.453125
1187,26.54,2022-10-26 10:20:17.468750
1188,28.01,2022-10-26 10:20:17.484375
1189,29.68,2022-10-26 10:20:17.500000
1190,31.28,2022-10-26 10:20:17.515625
1191,32.38,2022-10-26 10:20:17.531250
1192,32.3,2022-10-26 10:20:17.546875
1193,30.06,2022-10-26 10:20:17.562500
1194,24.67,2022-10-26 10:20:17.578125
1195,15.63,2022-10-26 10:20:17.593750
1196,3.34,2022-10-26 10:20:17.609375
1197,-10.68,2022-10-26 10:20:17.625000
1198,-24.13,2022-10-26 10:20:17.640625
1199,-34.74,2022-10-26 10:20:17.656250
1200,-41.15,2022-10-26 10:20:17.671875
1201,-43.45,2022-10-26 10:20:17.687500
1202,-43.09,2022-10-26 10:20:17.703125
1203,-42.03,2022-10-26 10:20:17.718750
1204,-41.81,2022-10-26 10:20:17.734375
1205,-42.6,2022-10-26 10:20:17.750000
1206,-43.28,2022-10-26 10:20:17.765625
1207,-42.05,2022-10-26 10:20:17.781250
1208,-37.41,2022-10-26 10:20:17.796875
1209,-28.96,2022-10-26 10:20:17.812500
1210,-17.59,2022-10-26 10:20:17.828125
1211,-4.89,2022-10-26 10:20:17.843750
1212,7.5,2022-10-26 10:20:17.859375
1213,18.59,2022-10-26 10:20:17.875000
1214,28.32,2022-10-26 10:20:17.890625
1215,37.16,2022-10-26 10:20:17.906250
1216,45.7,2022-10-26 10:20:17.921875
1217,54.01,2022-10-26 10:20:17.937500
1218,61.48,2022-10-26 10:20:17.953125
1219,66.97,2022-10-26 10:20:17.968750
1220,69.31,2022-10-26 10:20:17.984375
1221,67.84,2022-10-26 10:20:18.000000
1222,62.64,2022-10-26 10:20:18.015625
1223,54.58,2022-10-26 10:20:18.031250
1224,44.81,2022-10-26 10:20:18.046875
1225,34.5,2022-10-26 10:20:18.062500
1226,24.45,2022-10-26 10:20:18.078125
1227,15.05,2022-10-26 10:20:18.093750
1228,6.48,2022-10-26 10:20:18.109375
1229,-1.05,2022-10-26 10:20:18.125000
1230,-7.2,2022-10-26 10:20:18.140625
1231,-11.76,2022-10-26 10:20:18.156250
1232,-14.78,2022-10-26 10:20:18.171875
1233,-16.81,2022-10-26 10:20:18.187500
1234,-18.66,2022-10-26 10:20:18.203125
1235,-21.13,2022-10-26 10:20:18.218750
1236,-24.63,2022-10-26 10:20:18.234375
1237,-29.01,2022-10-26 10:20:18.250000
1238,-33.74,2022-10-26 10:20:18.265625
1239,-38.21,2022-10-26 10:20:18.281250
1240,-42.12,2022-10-26 10:20:18.296875
1241,-45.55,2022-10-26 10:20:18.312500
1242,-49.03,2022-10-26 10:20:18.328125
1243,-53.24,2022-10-26 10:20:18.343750
1244,-58.75,2022-10-26 10:20:18.359375
1245,-65.63,2022-10-26 10:20:18.375000
1246,-73.16,2022-10-26 10:20:18.390625
1247,-79.66,2022-10-26 10:20:18.406250
1248,-82.63,2022-10-26 10:20:18.421875
1249,-79.43,2022-10-26 10:20:18.437500
1250,-68.15,2022-10-26 10:20:18.453125
1251,-48.55,2022-10-26 10:20:18.468750
1252,-22.41,2022-10-26 10:20:18.484375
1253,6.86,2022-10-26 10:20:18.500000
1254,35.32,2022-10-26 10:20:18.515625
1255,59.64,2022-10-26 10:20:18.531250
1256,77.86,2022-10-26 10:20:18.546875
1257,89.56,2022-10-26 10:20:18.562500
1258,95.34,2022-10-26 10:20:18.578125
1259,96.22,2022-10-26 10:20:18.593750
1260,93.12,2022-10-26 10:20:18.609375
1261,86.96,2022-10-26 10:20:18.625000
1262,78.8,2022-10-26 10:20:18.640625
1263,70.09,2022-10-26 10:20:18.656250
1264,62.43,2022-10-26 10:20:18.671875
1265,57.13,2022-10-26 10:20:18.687500
1266,54.67,2022-10-26 10:20:18.703125
1267,54.5,2022-10-26 10:20:18.718750
1268,55.27,2022-10-26 10:20:18.734375
1269,55.33,2022-10-26 10:20:18.750000
1270,53.46,2022-10-26 10:20:18.765625
1271,49.15,2022-10-26 10:20:18.781250
1272,42.63,2022-10-26 10:20:18.796875
1273,34.6,2022-10-26 10:20:18.812500
1274,25.88,2022-10-26 10:20:18.828125
1275,17.16,2022-10-26 10:20:18.843750
1276,8.91,2022-10-26 10:20:18.859375
1277,1.53,2022-10-26 10:20:18.875000
1278,-4.75,2022-10-26 10:20:18.890625
1279,-9.78,2022-10-26 10:20:18.906250
1280,-13.83,2022-10-26 10:20:18.921875
1281,-17.66,2022-10-26 10:20:18.937500
1282,-22.53,2022-10-26 10:20:18.953125
1283,-29.78,2022-10-26 10:20:18.968750
1284,-40.15,2022-10-26 10:20:18.984375
1285,-53.13,2022-10-26 10:20:19.000000
1286,-66.53,2022-10-26 10:20:19.015625
1287,-76.94,2022-10-26 10:20:19.031250
1288,-80.77,2022-10-26 10:20:19.046875
1289,-75.58,2022-10-26 10:20:19.062500
1290,-61.19,2022-10-26 10:20:19.078125
1291,-39.76,2022-10-26 10:20:19.093750
1292,-15.02,2022-10-26 10:20:19.109375
1293,9.2,2022-10-26 10:20:19.125000
1294,30.27,2022-10-26 10:20:19.140625
1295,47.29,2022-10-26 10:20:19.156250
1296,60.72,2022-10-26 10:20:19.171875
1297,71.41,2022-10-26 10:20:19.187500
1298,79.57,2022-10-26 10:20:19.203125
1299,84.39,2022-10-26 10:20:19.218750
1300,84.51,2022-10-26 10:20:19.234375
1301,78.85,2022-10-26 10:20:19.250000
1302,67.52,2022-10-26 10:20:19.265625
1303,52.1,2022-10-26 10:20:19.281250
1304,35.25,2022-10-26 10:20:19.296875
1305,19.74,2022-10-26 10:20:19.312500
1306,7.56,2022-10-26 10:20:19.328125
1307,-0.58,2022-10-26 10:20:19.343750
1308,-5.26,2022-10-26 10:20:19.359375
1309,-7.78,2022-10-26 10:20:19.375000
1310,-9.55,2022-10-26 10:20:19.390625
1311,-11.52,2022-10-26 10:20:19.406250
1312,-14.1,2022-10-26 10:20:19.421875
1313,-17.28,2022-10-26 10:20:19.437500
1314,-20.91,2022-10-26 10:20:19.453125
1315,-24.82,2022-10-26 10:20:19.468750
1316,-29.01,2022-10-26 10:20:19.484375
1317,-33.49,2022-10-26 10:20:19.500000
1318,-38.26,2022-10-26 10:20:19.515625
1319,-43.4,2022-10-26 10:20:19.531250
1320,-49.04,2022-10-26 10:20:19.546875
1321,-55.55,2022-10-26 10:20:19.562500
1322,-63.33,2022-10-26 10:20:19.578125
1323,-72.56,2022-10-26 10:20:19.593750
1324,-82.71,2022-10-26 10:20:19.609375
1325,-92.2,2022-10-26 10:20:19.625000
1326,-98.61,2022-10-26 10:20:19.640625
1327,-99.16,2022-10-26 10:20:19.656250
1328,-91.82,2022-10-26 10:20:19.671875
1329,-76.16,2022-10-26 10:20:19.687500
1330,-53.79,2022-10-26 10:20:19.703125
1331,-27.94,2022-10-26 10:20:19.718750
1332,-2.36,2022-10-26 10:20:19.734375
1333,19.76,2022-10-26 10:20:19.750000
1334,36.64,2022-10-26 10:20:19.765625
1335,47.95,2022-10-26 10:20:19.781250
1336,54.31,2022-10-26 10:20:19.796875
1337,56.6,2022-10-26 10:20:19.812500
1338,55.6,2022-10-26 10:20:19.828125
1339,52.0,2022-10-26 10:20:19.843750
1340,46.81,2022-10-26 10:20:19.859375
1341,41.39,2022-10-26 10:20:19.875000
1342,37.25,2022-10-26 10:20:19.890625
1343,35.57,2022-10-26 10:20:19.906250
1344,36.58,2022-10-26 10:20:19.921875
1345,39.48,2022-10-26 10:20:19.937500
1346,42.6,2022-10-26 10:20:19.953125
1347,44.15,2022-10-26 10:20:19.968750
1348,42.76,2022-10-26 10:20:19.984375
1349,38.01,2022-10-26 10:20:20.000000
1350,30.43,2022-10-26 10:20:20.015625
1351,21.12,2022-10-26 10:20:20.031250
1352,11.38,2022-10-26 10:20:20.046875
1353,2.22,2022-10-26 10:20:20.062500
1354,-5.86,2022-10-26 10:20:20.078125
1355,-12.97,2022-10-26 10:20:20.093750
1356,-19.69,2022-10-26 10:20:20.109375
1357,-26.91,2022-10-26 10:20:20.125000
1358,-35.41,2022-10-26 10:20:20.140625
1359,-45.66,2022-10-26 10:20:20.156250
1360,-57.57,2022-10-26 10:20:20.171875
1361,-70.31,2022-10-26 10:20:20.187500
1362,-82.38,2022-10-26 10:20:20.203125
1363,-91.77,2022-10-26 10:20:20.218750
1364,-96.36,2022-10-26 10:20:20.234375
1365,-94.46,2022-10-26 10:20:20.250000
1366,-85.43,2022-10-26 10:20:20.265625
1367,-70.06,2022-10-26 10:20:20.281250
1368,-50.44,2022-10-26 10:20:20.296875
1369,-29.58,2022-10-26 10:20:20.312500
1370,-10.28,2022-10-26 10:20:20.328125
1371,5.58,2022-10-26 10:20:20.343750
1372,17.69,2022-10-26 10:20:20.359375
1373,27.06,2022-10-26 10:20:20.375000
1374,35.26,2022-10-26 10:20:20.390625
1375,43.47,2022-10-26 10:20:20.406250
1376,51.67,2022-10-26 10:20:20.421875
1377,58.76,2022-10-26 10:20:20.437500
1378,63.05,2022-10-26 10:20:20.453125
1379,63.35,2022-10-26 10:20:20.468750
1380,59.66,2022-10-26 10:20:20.484375
1381,53.29,2022-10-26 10:20:20.500000
1382,46.21,2022-10-26 10:20:20.515625
1383,40.18,2022-10-26 10:20:20.531250
1384,35.89,2022-10-26 10:20:20.546875
1385,32.88,2022-10-26 10:20:20.562500
1386,30.06,2022-10-26 10:20:20.578125
1387,26.47,2022-10-26 10:20:20.593750
1388,22.01,2022-10-26 10:20:20.609375
1389,17.46,2022-10-26 10:20:20.625000
1390,13.88,2022-10-26 10:20:20.640625
1391,11.94,2022-10-26 10:20:20.656250
1392,11.35,2022-10-26 10:20:20.671875
1393,10.95,2022-10-26 10:20:20.687500
1394,9.22,2022-10-26 10:20:20.703125
1395,5.08,2022-10-26 10:20:20.718750
1396,-1.74,2022-10-26 10:20:20.734375
1397,-10.72,2022-10-26 10:20:20.750000
1398,-21.1,2022-10-26 10:20:20.765625
1399,-32.35,2022-10-26 10:20:20.781250
1400,-44.31,2022-10-26 10:20:20.796875
1401,-56.85,2022-10-26 10:20:20.812500
1402,-69.19,2022-10-26 10:20:20.828125
1403,-79.52,2022-10-26 10:20:20.843750
1404,-85.23,2022-10-26 10:20:20.859375
1405,-83.8,2022-10-26 10:20:20.875000
1406,-73.85,2022-10-26 10:20:20.890625
1407,-55.94,2022-10-26 10:20:20.906250
1408,-32.58,2022-10-26 10:20:20.921875
1409,-7.33,2022-10-26 10:20:20.937500
1410,16.26,2022-10-26 10:20:20.953125
1411,35.73,2022-10-26 10:20:20.968750
1412,50.09,2022-10-26 10:20:20.984375
1413,59.58,2022-10-26 10:20:21.000000
1414,65.0,2022-10-26 10:20:21.015625
1415,67.16,2022-10-26 10:20:21.031250
1416,66.58,2022-10-26 10:20:21.046875
1417,63.5,2022-10-26 10:20:21.062500
1418,58.15,2022-10-26 10:20:21.078125
1419,50.91,2022-10-26 10:20:21.093750
1420,42.38,2022-10-26 10:20:21.109375
1421,33.33,2022-10-26 10:20:21.125000
1422,24.67,2022-10-26 10:20:21.140625
1423,17.18,2022-10-26 10:20:21.156250
1424,11.42,2022-10-26 10:20:21.171875
1425,7.66,2022-10-26 10:20:21.187500
1426,5.75,2022-10-26 10:20:21.203125
1427,5.25,2022-10-26 10:20:21.218750
1428,5.44,2022-10-26 10:20:21.234375
1429,5.47,2022-10-26 10:20:21.250000
1430,4.37,2022-10-26 10:20:21.265625
1431,1.19,2022-10-26 10:20:21.281250
1432,-4.81,2022-10-26 10:20:21.296875
1433,-13.91,2022-10-26 10:20:21.312500
1434,-25.69,2022-10-26 10:20:21.328125
1435,-39.06,2022-10-26 10:20:21.343750
1436,-52.68,2022-10-26 10:20:21.359375
1437,-65.38,2022-10-26 10:20:21.375000
1438,-76.72,2022-10-26 10:20:21.390625
1439,-87.08,2022-10-26 10:20:21.406250
1440,-97.4,2022-10-26 10:20:21.421875
1441,-108.52,2022-10-26 10:20:21.437500
1442,-120.54,2022-10-26 10:20:21.453125
1443,-132.55,2022-10-26 10:20:21.468750
1444,-142.7,2022-10-26 10:20:21.484375
1445,-148.78,2022-10-26 10:20:21.500000
1446,-148.84,2022-10-26 10:20:21.515625
1447,-141.82,2022-10-26 10:20:21.531250
1448,-127.87,2022-10-26 10:20:21.546875
1449,-108.26,2022-10-26 10:20:21.562500
1450,-85.1,2022-10-26 10:20:21.578125
1451,-60.7,2022-10-26 10:20:21.593750
1452,-37.03,2022-10-26 10:20:21.609375
1453,-15.2,2022-10-26 10:20:21.625000
1454,4.68,2022-10-26 10:20:21.640625
1455,23.08,2022-10-26 10:20:21.656250
1456,40.49,2022-10-26 10:20:21.671875
1457,56.84,2022-10-26 10:20:21.687500
1458,71.42,2022-10-26 10:20:21.703125
1459,83.27,2022-10-26 10:20:21.718750
1460,91.89,2022-10-26 10:20:21.734375
1461,97.83,2022-10-26 10:20:21.750000
1462,102.68,2022-10-26 10:20:21.765625
1463,108.6,2022-10-26 10:20:21.781250
1464,117.3,2022-10-26 10:20:21.796875
1465,129.24,2022-10-26 10:20:21.812500
1466,143.45,2022-10-26 10:20:21.828125
1467,158.01,2022-10-26 10:20:21.843750
1468,170.97,2022-10-26 10:20:21.859375
1469,181.21,2022-10-26 10:20:21.875000
1470,188.86,2022-10-26 10:20:21.890625
1471,195.05,2022-10-26 10:20:21.906250
1472,201.32,2022-10-26 10:20:21.921875
1473,209.08,2022-10-26 10:20:21.937500
1474,219.3,2022-10-26 10:20:21.953125
1475,232.3,2022-10-26 10:20:21.968750
1476,247.65,2022-10-26 10:20:21.984375
1477,264.02,2022-10-26 10:20:22.000000
1478,279.08,2022-10-26 10:20:22.015625
1479,289.8,2022-10-26 10:20:22.031250
1480,293.23,2022-10-26 10:20:22.046875
1481,287.53,2022-10-26 10:20:22.062500
1482,272.79,2022-10-26 10:20:22.078125
1483,251.2,2022-10-26 10:20:22.093750
1484,226.26,2022-10-26 10:20:22.109375
1485,201.43,2022-10-26 10:20:22.125000
1486,179.03,2022-10-26 10:20:22.140625
1487,159.73,2022-10-26 10:20:22.156250
1488,142.98,2022-10-26 10:20:22.171875
1489,127.86,2022-10-26 10:20:22.187500
1490,113.84,2022-10-26 10:20:22.203125
1491,100.91,2022-10-26 10:20:22.218750
1492,89.18,2022-10-26 10:20:22.234375
1493,78.3,2022-10-26 10:20:22.250000
1494,67.08,2022-10-26 10:20:22.265625
1495,53.8,2022-10-26 10:20:22.281250
1496,36.62,2022-10-26 10:20:22.296875
1497,14.07,2022-10-26 10:20:22.312500
1498,-14.76,2022-10-26 10:20:22.328125
1499,-50.0,2022-10-26 10:20:22.343750
1500,-90.76,2022-10-26 10:20:22.359375
1501,-134.76,2022-10-26 10:20:22.375000
1502,-178.19,2022-10-26 10:20:22.390625
1503,-216.2,2022-10-26 10:20:22.406250
1504,-244.0,2022-10-26 10:20:22.421875
1505,-258.34,2022-10-26 10:20:22.437500
1506,-258.6,2022-10-26 10:20:22.453125
1507,-246.88,2022-10-26 10:20:22.468750
1508,-227.16,2022-10-26 10:20:22.484375
1509,-203.67,2022-10-26 10:20:22.500000
1510,-179.69,2022-10-26 10:20:22.515625
1511,-157.07,2022-10-26 10:20:22.531250
1512,-136.48,2022-10-26 10:20:22.546875
1513,-118.18,2022-10-26 10:20:22.562500
1514,-102.56,2022-10-26 10:20:22.578125
1515,-90.13,2022-10-26 10:20:22.593750
1516,-81.22,2022-10-26 10:20:22.609375
1517,-75.55,2022-10-26 10:20:22.625000
1518,-72.11,2022-10-26 10:20:22.640625
1519,-69.4,2022-10-26 10:20:22.656250
1520,-65.96,2022-10-26 10:20:22.671875
1521,-60.74,2022-10-26 10:20:22.687500
1522,-53.36,2022-10-26 10:20:22.703125
1523,-44.18,2022-10-26 10:20:22.718750
1524,-33.99,2022-10-26 10:20:22.734375
1525,-23.53,2022-10-26 10:20:22.750000
1526,-13.27,2022-10-26 10:20:22.765625
1527,-3.24,2022-10-26 10:20:22.781250
1528,6.71,2022-10-26 10:20:22.796875
1529,16.53,2022-10-26 10:20:22.812500
1530,25.6,2022-10-26 10:20:22.828125
1531,32.72,2022-10-26 10:20:22.843750
1532,36.39,2022-10-26 10:20:22.859375
1533,35.38,2022-10-26 10:20:22.875000
1534,29.38,2022-10-26 10:20:22.890625
1535,19.2,2022-10-26 10:20:22.906250
1536,6.67,2022-10-26 10:20:22.921875
1537,-5.73,2022-10-26 10:20:22.937500
1538,-15.62,2022-10-26 10:20:22.953125
1539,-21.15,2022-10-26 10:20:22.968750
1540,-21.52,2022-10-26 10:20:22.984375
1541,-16.93,2022-10-26 10:20:23.000000
1542,-8.46,2022-10-26 10:20:23.015625
1543,2.5,2022-10-26 10:20:23.031250
1544,14.69,2022-10-26 10:20:23.046875
1545,27.31,2022-10-26 10:20:23.062500
1546,40.06,2022-10-26 10:20:23.078125
1547,52.9,2022-10-26 10:20:23.093750
1548,65.71,2022-10-26 10:20:23.109375
1549,78.03,2022-10-26 10:20:23.125000
1550,89.02,2022-10-26 10:20:23.140625
1551,97.64,2022-10-26 10:20:23.156250
1552,103.05,2022-10-26 10:20:23.171875
1553,104.97,2022-10-26 10:20:23.187500
1554,103.95,2022-10-26 10:20:23.203125
1555,101.27,2022-10-26 10:20:23.218750
1556,98.39,2022-10-26 10:20:23.234375
1557,96.37,2022-10-26 10:20:23.250000
1558,95.44,2022-10-26 10:20:23.265625
1559,94.79,2022-10-26 10:20:23.281250
1560,93.01,2022-10-26 10:20:23.296875
1561,88.68,2022-10-26 10:20:23.312500
1562,81.01,2022-10-26 10:20:23.328125
1563,70.14,2022-10-26 10:20:23.343750
1564,57.01,2022-10-26 10:20:23.359375
1565,42.87,2022-10-26 10:20:23.375000
1566,28.7,2022-10-26 10:20:23.390625
1567,15.05,2022-10-26 10:20:23.406250
1568,1.94,2022-10-26 10:20:23.421875
1569,-10.82,2022-10-26 10:20:23.437500
1570,-23.39,2022-10-26 10:20:23.453125
1571,-35.74,2022-10-26 10:20:23.468750
1572,-47.75,2022-10-26 10:20:23.484375
1573,-59.33,2022-10-26 10:20:23.500000
1574,-70.62,2022-10-26 10:20:23.515625
1575,-81.88,2022-10-26 10:20:23.531250
1576,-93.41,2022-10-26 10:20:23.546875
1577,-105.21,2022-10-26 10:20:23.562500
1578,-116.91,2022-10-26 10:20:23.578125
1579,-127.68,2022-10-26 10:20:23.593750
1580,-136.66,2022-10-26 10:20:23.609375
1581,-143.16,2022-10-26 10:20:23.625000
1582,-147.06,2022-10-26 10:20:23.640625
1583,-148.8,2022-10-26 10:20:23.656250
1584,-149.14,2022-10-26 10:20:23.671875
1585,-148.74,2022-10-26 10:20:23.687500
1586,-147.8,2022-10-26 10:20:23.703125
1587,-145.83,2022-10-26 10:20:23.718750
1588,-141.82,2022-10-26 10:20:23.734375
1589,-134.5,2022-10-26 10:20:23.750000
1590,-122.72,2022-10-26 10:20:23.765625
1591,-106.04,2022-10-26 10:20:23.781250
1592,-85.07,2022-10-26 10:20:23.796875
1593,-61.62,2022-10-26 10:20:23.812500
1594,-38.47,2022-10-26 10:20:23.828125
1595,-18.45,2022-10-26 10:20:23.843750
1596,-3.45,2022-10-26 10:20:23.859375
1597,6.44,2022-10-26 10:20:23.875000
1598,12.87,2022-10-26 10:20:23.890625
1599,18.47,2022-10-26 10:20:23.906250
1600,25.53,2022-10-26 10:20:23.921875
1601,34.92,2022-10-26 10:20:23.937500
1602,45.85,2022-10-26 10:20:23.953125
1603,56.44,2022-10-26 10:20:23.968750
1604,64.81,2022-10-26 10:20:23.984375
1605,69.89,2022-10-26 10:20:24.000000
1606,71.56,2022-10-26 10:20:24.015625
1607,70.28,2022-10-26 10:20:24.031250
1608,66.52,2022-10-26 10:20:24.046875
1609,60.58,2022-10-26 10:20:24.062500
1610,52.87,2022-10-26 10:20:24.078125
1611,44.29,2022-10-26 10:20:24.093750
1612,36.19,2022-10-26 10:20:24.109375
1613,29.82,2022-10-26 10:20:24.125000
1614,25.53,2022-10-26 10:20:24.140625
1615,22.26,2022-10-26 10:20:24.156250
1616,17.93,2022-10-26 10:20:24.171875
1617,10.37,2022-10-26 10:20:24.187500
1618,-1.51,2022-10-26 10:20:24.203125
1619,-17.06,2022-10-26 10:20:24.218750
1620,-34.18,2022-10-26 10:20:24.234375
1621,-50.22,2022-10-26 10:20:24.250000
1622,-63.11,2022-10-26 10:20:24.265625
1623,-72.1,2022-10-26 10:20:24.281250
1624,-77.65,2022-10-26 10:20:24.296875
1625,-80.86,2022-10-26 10:20:24.312500
1626,-82.77,2022-10-26 10:20:24.328125
1627,-84.03,2022-10-26 10:20:24.343750
1628,-84.92,2022-10-26 10:20:24.359375
1629,-85.57,2022-10-26 10:20:24.375000
1630,-86.12,2022-10-26 10:20:24.390625
1631,-86.45,2022-10-26 10:20:24.406250
1632,-86.17,2022-10-26 10:20:24.421875
1633,-84.41,2022-10-26 10:20:24.437500
1634,-80.18,2022-10-26 10:20:24.453125
1635,-72.81,2022-10-26 10:20:24.468750
1636,-62.35,2022-10-26 10:20:24.484375
1637,-49.64,2022-10-26 10:20:24.500000
1638,-36.0,2022-10-26 10:20:24.515625
1639,-22.87,2022-10-26 10:20:24.531250
1640,-11.42,2022-10-26 10:20:24.546875
1641,-2.37,2022-10-26 10:20:24.562500
1642,3.97,2022-10-26 10:20:24.578125
1643,7.57,2022-10-26 10:20:24.593750
1644,8.69,2022-10-26 10:20:24.609375
1645,7.88,2022-10-26 10:20:24.625000
1646,5.97,2022-10-26 10:20:24.640625
1647,3.88,2022-10-26 10:20:24.656250
1648,2.44,2022-10-26 10:20:24.671875
1649,2.23,2022-10-26 10:20:24.687500
1650,3.5,2022-10-26 10:20:24.703125
1651,6.26,2022-10-26 10:20:24.718750
1652,10.31,2022-10-26 10:20:24.734375
1653,15.33,2022-10-26 10:20:24.750000
1654,20.86,2022-10-26 10:20:24.765625
1655,26.23,2022-10-26 10:20:24.781250
1656,30.78,2022-10-26 10:20:24.796875
1657,34.07,2022-10-26 10:20:24.812500
1658,36.09,2022-10-26 10:20:24.828125
1659,37.22,2022-10-26 10:20:24.843750
1660,37.9,2022-10-26 10:20:24.859375
1661,38.22,2022-10-26 10:20:24.875000
1662,37.5,2022-10-26 10:20:24.890625
1663,34.44,2022-10-26 10:20:24.906250
1664,27.55,2022-10-26 10:20:24.921875
1665,15.77,2022-10-26 10:20:24.937500
1666,-1.17,2022-10-26 10:20:24.953125
1667,-22.77,2022-10-26 10:20:24.968750
1668,-47.91,2022-10-26 10:20:24.984375
1669,-75.22,2022-10-26 10:20:25.000000
1670,-103.16,2022-10-26 10:20:25.015625
1671,-130.07,2022-10-26 10:20:25.031250
1672,-154.23,2022-10-26 10:20:25.046875
1673,-174.12,2022-10-26 10:20:25.062500
1674,-188.74,2022-10-26 10:20:25.078125
1675,-197.89,2022-10-26 10:20:25.093750
1676,-202.14,2022-10-26 10:20:25.109375
1677,-202.58,2022-10-26 10:20:25.125000
1678,-200.37,2022-10-26 10:20:25.140625
1679,-196.38,2022-10-26 10:20:25.156250
1680,-191.11,2022-10-26 10:20:25.171875
1681,-184.65,2022-10-26 10:20:25.187500
1682,-176.67,2022-10-26 10:20:25.203125
1683,-166.41,2022-10-26 10:20:25.218750
1684,-152.81,2022-10-26 10:20:25.234375
1685,-134.84,2022-10-26 10:20:25.250000
1686,-112.0,2022-10-26 10:20:25.265625
1687,-84.81,2022-10-26 10:20:25.281250
1688,-54.77,2022-10-26 10:20:25.296875
1689,-24.09,2022-10-26 10:20:25.312500
1690,5.02,2022-10-26 10:20:25.328125
1691,30.87,2022-10-26 10:20:25.343750
1692,52.37,2022-10-26 10:20:25.359375
1693,69.05,2022-10-26 10:20:25.375000
1694,80.73,2022-10-26 10:20:25.390625
1695,87.49,2022-10-26 10:20:25.406250
1696,89.72,2022-10-26 10:20:25.421875
1697,88.3,2022-10-26 10:20:25.437500
1698,84.57,2022-10-26 10:20:25.453125
1699,80.18,2022-10-26 10:20:25.468750
1700,76.55,2022-10-26 10:20:25.484375
1701,74.52,2022-10-26 10:20:25.500000
1702,74.14,2022-10-26 10:20:25.515625
1703,74.89,2022-10-26 10:20:25.531250
1704,75.99,2022-10-26 10:20:25.546875
1705,76.78,2022-10-26 10:20:25.562500
1706,76.93,2022-10-26 10:20:25.578125
1707,76.43,2022-10-26 10:20:25.593750
1708,75.42,2022-10-26 10:20:25.609375
1709,73.88,2022-10-26 10:20:25.625000
1710,71.62,2022-10-26 10:20:25.640625
1711,68.33,2022-10-26 10:20:25.656250
1712,63.72,2022-10-26 10:20:25.671875
1713,57.72,2022-10-26 10:20:25.687500
1714,50.53,2022-10-26 10:20:25.703125
1715,42.61,2022-10-26 10:20:25.718750
1716,34.45,2022-10-26 10:20:25.734375
1717,26.46,2022-10-26 10:20:25.750000
1718,18.91,2022-10-26 10:20:25.765625
1719,11.79,2022-10-26 10:20:25.781250
1720,4.9,2022-10-26 10:20:25.796875
1721,-2.16,2022-10-26 10:20:25.812500
1722,-9.89,2022-10-26 10:20:25.828125
1723,-18.69,2022-10-26 10:20:25.843750
1724,-28.54,2022-10-26 10:20:25.859375
1725,-38.88,2022-10-26 10:20:25.875000
1726,-48.38,2022-10-26 10:20:25.890625
1727,-55.27,2022-10-26 10:20:25.906250
1728,-57.71,2022-10-26 10:20:25.921875
1729,-54.45,2022-10-26 10:20:25.937500
1730,-45.36,2022-10-26 10:20:25.953125
1731,-31.45,2022-10-26 10:20:25.968750
1732,-14.62,2022-10-26 10:20:25.984375
1733,2.98,2022-10-26 10:20:26.000000
1734,19.54,2022-10-26 10:20:26.015625
1735,34.04,2022-10-26 10:20:26.031250
1736,46.13,2022-10-26 10:20:26.046875
1737,55.95,2022-10-26 10:20:26.062500
1738,63.73,2022-10-26 10:20:26.078125
1739,69.54,2022-10-26 10:20:26.093750
1740,73.37,2022-10-26 10:20:26.109375
1741,75.2,2022-10-26 10:20:26.125000
1742,75.17,2022-10-26 10:20:26.140625
1743,73.68,2022-10-26 10:20:26.156250
1744,71.29,2022-10-26 10:20:26.171875
1745,68.59,2022-10-26 10:20:26.187500
1746,66.06,2022-10-26 10:20:26.203125
1747,63.98,2022-10-26 10:20:26.218750
1748,62.35,2022-10-26 10:20:26.234375
1749,61.04,2022-10-26 10:20:26.250000
1750,59.85,2022-10-26 10:20:26.265625
1751,58.69,2022-10-26 10:20:26.281250
1752,57.52,2022-10-26 10:20:26.296875
1753,56.4,2022-10-26 10:20:26.312500
1754,55.32,2022-10-26 10:20:26.328125
1755,54.15,2022-10-26 10:20:26.343750
1756,52.55,2022-10-26 10:20:26.359375
1757,50.09,2022-10-26 10:20:26.375000
1758,46.36,2022-10-26 10:20:26.390625
1759,41.16,2022-10-26 10:20:26.406250
1760,34.64,2022-10-26 10:20:26.421875
1761,27.19,2022-10-26 10:20:26.437500
1762,19.35,2022-10-26 10:20:26.453125
1763,11.58,2022-10-26 10:20:26.468750
1764,4.13,2022-10-26 10:20:26.484375
1765,-3.04,2022-10-26 10:20:26.500000
1766,-10.22,2022-10-26 10:20:26.515625
1767,-17.77,2022-10-26 10:20:26.531250
1768,-26.03,2022-10-26 10:20:26.546875
1769,-35.14,2022-10-26 10:20:26.562500
1770,-45.11,2022-10-26 10:20:26.578125
1771,-55.76,2022-10-26 10:20:26.593750
1772,-66.72,2022-10-26 10:20:26.609375
1773,-77.31,2022-10-26 10:20:26.625000
1774,-86.45,2022-10-26 10:20:26.640625
1775,-92.81,2022-10-26 10:20:26.656250
1776,-94.99,2022-10-26 10:20:26.671875
1777,-91.91,2022-10-26 10:20:26.687500
1778,-83.17,2022-10-26 10:20:26.703125
1779,-69.23,2022-10-26 10:20:26.718750
1780,-51.36,2022-10-26 10:20:26.734375
1781,-31.42,2022-10-26 10:20:26.750000
1782,-11.39,2022-10-26 10:20:26.765625
1783,6.96,2022-10-26 10:20:26.781250
1784,22.36,2022-10-26 10:20:26.796875
1785,34.09,2022-10-26 10:20:26.812500
1786,41.99,2022-10-26 10:20:26.828125
1787,46.28,2022-10-26 10:20:26.843750
1788,47.49,2022-10-26 10:20:26.859375
1789,46.31,2022-10-26 10:20:26.875000
1790,43.5,2022-10-26 10:20:26.890625
1791,39.78,2022-10-26 10:20:26.906250
1792,35.97,2022-10-26 10:20:26.921875
1793,32.76,2022-10-26 10:20:26.937500
1794,30.71,2022-10-26 10:20:26.953125
1795,30.13,2022-10-26 10:20:26.968750
1796,30.89,2022-10-26 10:20:26.984375
1797,32.52,2022-10-26 10:20:27.000000
1798,34.39,2022-10-26 10:20:27.015625
1799,35.88,2022-10-26 10:20:27.031250
1800,36.6,2022-10-26 10:20:27.046875
1801,36.52,2022-10-26 10:20:27.062500
1802,35.76,2022-10-26 10:20:27.078125
1803,34.51,2022-10-26 10:20:27.093750
1804,32.82,2022-10-26 10:20:27.109375
1805,30.46,2022-10-26 10:20:27.125000
1806,27.1,2022-10-26 10:20:27.140625
1807,22.39,2022-10-26 10:20:27.156250
1808,16.25,2022-10-26 10:20:27.171875
1809,8.93,2022-10-26 10:20:27.187500
1810,0.93,2022-10-26 10:20:27.203125
1811,-7.15,2022-10-26 10:20:27.218750
1812,-14.92,2022-10-26 10:20:27.234375
1813,-22.35,2022-10-26 10:20:27.250000
1814,-29.77,2022-10-26 10:20:27.265625
1815,-37.72,2022-10-26 10:20:27.281250
1816,-46.65,2022-10-26 10:20:27.296875
1817,-56.74,2022-10-26 10:20:27.312500
1818,-67.76,2022-10-26 10:20:27.328125
1819,-79.07,2022-10-26 10:20:27.343750
1820,-89.56,2022-10-26 10:20:27.359375
1821,-97.94,2022-10-26 10:20:27.375000
1822,-102.76,2022-10-26 10:20:27.390625
1823,-102.82,2022-10-26 10:20:27.406250
1824,-97.45,2022-10-26 10:20:27.421875
1825,-86.76,2022-10-26 10:20:27.437500
1826,-71.67,2022-10-26 10:20:27.453125
1827,-53.68,2022-10-26 10:20:27.468750
1828,-34.53,2022-10-26 10:20:27.484375
1829,-15.76,2022-10-26 10:20:27.500000
1830,1.5,2022-10-26 10:20:27.515625
1831,16.61,2022-10-26 10:20:27.531250
1832,29.21,2022-10-26 10:20:27.546875
1833,39.19,2022-10-26 10:20:27.562500
1834,46.49,2022-10-26 10:20:27.578125
1835,51.04,2022-10-26 10:20:27.593750
1836,52.92,2022-10-26 10:20:27.609375
1837,52.36,2022-10-26 10:20:27.625000
1838,49.89,2022-10-26 10:20:27.640625
1839,46.28,2022-10-26 10:20:27.656250
1840,42.37,2022-10-26 10:20:27.671875
1841,38.92,2022-10-26 10:20:27.687500
1842,36.39,2022-10-26 10:20:27.703125
1843,34.85,2022-10-26 10:20:27.718750
1844,34.07,2022-10-26 10:20:27.734375
1845,33.63,2022-10-26 10:20:27.750000
1846,33.09,2022-10-26 10:20:27.765625
1847,32.12,2022-10-26 10:20:27.781250
1848,30.56,2022-10-26 10:20:27.796875
1849,28.41,2022-10-26 10:20:27.812500
1850,25.7,2022-10-26 10:20:27.828125
1851,22.5,2022-10-26 10:20:27.843750
1852,18.84,2022-10-26 10:20:27.859375
1853,14.72,2022-10-26 10:20:27.875000
1854,10.1,2022-10-26 10:20:27.890625
1855,4.9,2022-10-26 10:20:27.906250
1856,-0.95,2022-10-26 10:20:27.921875
1857,-7.51,2022-10-26 10:20:27.937500
1858,-14.69,2022-10-26 10:20:27.953125
1859,-22.29,2022-10-26 10:20:27.968750
1860,-30.01,2022-10-26 10:20:27.984375
1861,-37.47,2022-10-26 10:20:28.000000
1862,-44.42,2022-10-26 10:20:28.015625
1863,-50.87,2022-10-26 10:20:28.031250
1864,-57.18,2022-10-26 10:20:28.046875
1865,-63.97,2022-10-26 10:20:28.062500
1866,-71.85,2022-10-26 10:20:28.078125
1867,-81.1,2022-10-26 10:20:28.093750
1868,-91.31,2022-10-26 10:20:28.109375
1869,-101.29,2022-10-26 10:20:28.125000
1870,-109.22,2022-10-26 10:20:28.140625
1871,-113.04,2022-10-26 10:20:28.156250
1872,-111.02,2022-10-26 10:20:28.171875
1873,-102.3,2022-10-26 10:20:28.187500
1874,-87.2,2022-10-26 10:20:28.203125
1875,-67.17,2022-10-26 10:20:28.218750
1876,-44.45,2022-10-26 10:20:28.234375
1877,-21.53,2022-10-26 10:20:28.250000
1878,-0.45,2022-10-26 10:20:28.265625
1879,17.47,2022-10-26 10:20:28.281250
1880,31.73,2022-10-26 10:20:28.296875
1881,42.49,2022-10-26 10:20:28.312500
1882,50.17,2022-10-26 10:20:28.328125
1883,55.18,2022-10-26 10:20:28.343750
1884,57.74,2022-10-26 10:20:28.359375
1885,58.02,2022-10-26 10:20:28.375000
1886,56.24,2022-10-26 10:20:28.390625
1887,53.02,2022-10-26 10:20:28.406250
1888,49.21,2022-10-26 10:20:28.421875
1889,45.82,2022-10-26 10:20:28.437500
1890,43.7,2022-10-26 10:20:28.453125
1891,43.23,2022-10-26 10:20:28.468750
1892,44.24,2022-10-26 10:20:28.484375
1893,46.09,2022-10-26 10:20:28.500000
1894,47.9,2022-10-26 10:20:28.515625
1895,48.91,2022-10-26 10:20:28.531250
1896,48.65,2022-10-26 10:20:28.546875
1897,47.12,2022-10-26 10:20:28.562500
1898,44.69,2022-10-26 10:20:28.578125
1899,41.82,2022-10-26 10:20:28.593750
1900,38.88,2022-10-26 10:20:28.609375
1901,36.01,2022-10-26 10:20:28.625000
1902,33.04,2022-10-26 10:20:28.640625
1903,29.72,2022-10-26 10:20:28.656250
1904,25.8,2022-10-26 10:20:28.671875
1905,21.22,2022-10-26 10:20:28.687500
1906,16.09,2022-10-26 10:20:28.703125
1907,10.68,2022-10-26 10:20:28.718750
1908,5.25,2022-10-26 10:20:28.734375
1909,-0.09,2022-10-26 10:20:28.750000
1910,-5.32,2022-10-26 10:20:28.765625
1911,-10.59,2022-10-26 10:20:28.781250
1912,-16.09,2022-10-26 10:20:28.796875
1913,-21.98,2022-10-26 10:20:28.812500
1914,-28.46,2022-10-26 10:20:28.828125
1915,-35.71,2022-10-26 10:20:28.843750
1916,-43.93,2022-10-26 10:20:28.859375
1917,-53.05,2022-10-26 10:20:28.875000
1918,-62.58,2022-10-26 10:20:28.890625
1919,-71.3,2022-10-26 10:20:28.906250
1920,-77.43,2022-10-26 10:20:28.921875
1921,-79.02,2022-10-26 10:20:28.937500
1922,-74.64,2022-10-26 10:20:28.953125
1923,-63.96,2022-10-26 10:20:28.968750
1924,-47.99,2022-10-26 10:20:28.984375
1925,-28.89,2022-10-26 10:20:29.000000
1926,-9.14,2022-10-26 10:20:29.015625
1927,9.07,2022-10-26 10:20:29.031250
1928,24.5,2022-10-26 10:20:29.046875
1929,36.7,2022-10-26 10:20:29.062500
1930,45.81,2022-10-26 10:20:29.078125
1931,52.07,2022-10-26 10:20:29.093750
1932,55.55,2022-10-26 10:20:29.109375
1933,56.22,2022-10-26 10:20:29.125000
1934,54.13,2022-10-26 10:20:29.140625
1935,49.75,2022-10-26 10:20:29.156250
1936,43.94,2022-10-26 10:20:29.171875
1937,37.88,2022-10-26 10:20:29.187500
1938,32.64,2022-10-26 10:20:29.203125
1939,28.89,2022-10-26 10:20:29.218750
1940,26.81,2022-10-26 10:20:29.234375
1941,26.01,2022-10-26 10:20:29.250000
1942,25.98,2022-10-26 10:20:29.265625
1943,26.28,2022-10-26 10:20:29.281250
1944,26.71,2022-10-26 10:20:29.296875
1945,27.32,2022-10-26 10:20:29.312500
1946,28.19,2022-10-26 10:20:29.328125
1947,29.17,2022-10-26 10:20:29.343750
1948,29.81,2022-10-26 10:20:29.359375
1949,29.49,2022-10-26 10:20:29.375000
1950,27.67,2022-10-26 10:20:29.390625
1951,24.17,2022-10-26 10:20:29.406250
1952,19.26,2022-10-26 10:20:29.421875
1953,13.48,2022-10-26 10:20:29.437500
1954,7.45,2022-10-26 10:20:29.453125
1955,1.55,2022-10-26 10:20:29.468750
1956,-4.05,2022-10-26 10:20:29.484375
1957,-9.43,2022-10-26 10:20:29.500000
1958,-14.78,2022-10-26 10:20:29.515625
1959,-20.37,2022-10-26 10:20:29.531250
1960,-26.52,2022-10-26 10:20:29.546875
1961,-33.52,2022-10-26 10:20:29.562500
1962,-41.62,2022-10-26 10:20:29.578125
1963,-50.74,2022-10-26 10:20:29.593750
1964,-60.21,2022-10-26 10:20:29.609375
1965,-68.62,2022-10-26 10:20:29.625000
1966,-74.1,2022-10-26 10:20:29.640625
1967,-74.84,2022-10-26 10:20:29.656250
1968,-69.71,2022-10-26 10:20:29.671875
1969,-58.79,2022-10-26 10:20:29.687500
1970,-43.35,2022-10-26 10:20:29.703125
1971,-25.46,2022-10-26 10:20:29.718750
1972,-7.32,2022-10-26 10:20:29.734375
1973,9.29,2022-10-26 10:20:29.750000
1974,23.32,2022-10-26 10:20:29.765625
1975,34.45,2022-10-26 10:20:29.781250
1976,42.68,2022-10-26 10:20:29.796875
1977,48.13,2022-10-26 10:20:29.812500
1978,50.81,2022-10-26 10:20:29.828125
1979,50.75,2022-10-26 10:20:29.843750
1980,48.2,2022-10-26 10:20:29.859375
1981,43.71,2022-10-26 10:20:29.875000
1982,38.23,2022-10-26 10:20:29.890625
1983,32.8,2022-10-26 10:20:29.906250
1984,28.29,2022-10-26 10:20:29.921875
1985,25.21,2022-10-26 10:20:29.937500
1986,23.59,2022-10-26 10:20:29.953125
1987,22.99,2022-10-26 10:20:29.968750
1988,22.84,2022-10-26 10:20:29.984375
1989,22.54,2022-10-26 10:20:30.000000
1990,21.73,2022-10-26 10:20:30.015625
1991,20.3,2022-10-26 10:20:30.031250
1992,18.42,2022-10-26 10:20:30.046875
1993,16.35,2022-10-26 10:20:30.062500
1994,14.37,2022-10-26 10:20:30.078125
1995,12.53,2022-10-26 10:20:30.093750
1996,10.65,2022-10-26 10:20:30.109375
1997,8.34,2022-10-26 10:20:30.125000
1998,5.18,2022-10-26 10:20:30.140625
1999,0.87,2022-10-26 10:20:30.156250
2000,-4.51,2022-10-26 10:20:30.171875
2001,-10.53,2022-10-26 10:20:30.187500
2002,-16.65,2022-10-26 10:20:30.203125
2003,-22.35,2022-10-26 10:20:30.218750
2004,-27.5,2022-10-26 10:20:30.234375
2005,-32.27,2022-10-26 10:20:30.250000
2006,-37.17,2022-10-26 10:20:30.265625
2007,-42.73,2022-10-26 10:20:30.281250
2008,-49.38,2022-10-26 10:20:30.296875
2009,-57.31,2022-10-26 10:20:30.312500
2010,-66.38,2022-10-26 10:20:30.328125
2011,-76.07,2022-10-26 10:20:30.343750
2012,-85.39,2022-10-26 10:20:30.359375
2013,-92.89,2022-10-26 10:20:30.375000
2014,-96.82,2022-10-26 10:20:30.390625
2015,-95.56,2022-10-26 10:20:30.406250
2016,-88.11,2022-10-26 10:20:30.421875
2017,-74.63,2022-10-26 10:20:30.437500
2018,-56.41,2022-10-26 10:20:30.453125
2019,-35.65,2022-10-26 10:20:30.468750
2020,-14.8,2022-10-26 10:20:30.484375
2021,4.17,2022-10-26 10:20:30.500000
2022,20.05,2022-10-26 10:20:30.515625
2023,32.51,2022-10-26 10:20:30.531250
2024,41.72,2022-10-26 10:20:30.546875
2025,48.06,2022-10-26 10:20:30.562500
2026,51.86,2022-10-26 10:20:30.578125
2027,53.44,2022-10-26 10:20:30.593750
2028,53.2,2022-10-26 10:20:30.609375
2029,51.71,2022-10-26 10:20:30.625000
2030,49.71,2022-10-26 10:20:30.640625
2031,47.84,2022-10-26 10:20:30.656250
2032,46.58,2022-10-26 10:20:30.671875
2033,46.14,2022-10-26 10:20:30.687500
2034,46.44,2022-10-26 10:20:30.703125
2035,47.28,2022-10-26 10:20:30.718750
2036,48.41,2022-10-26 10:20:30.734375
2037,49.54,2022-10-26 10:20:30.750000
2038,50.38,2022-10-26 10:20:30.765625
2039,50.67,2022-10-26 10:20:30.781250
2040,50.13,2022-10-26 10:20:30.796875
2041,48.64,2022-10-26 10:20:30.812500
2042,46.18,2022-10-26 10:20:30.828125
2043,42.9,2022-10-26 10:20:30.843750
2044,39.06,2022-10-26 10:20:30.859375
2045,34.97,2022-10-26 10:20:30.875000
2046,30.86,2022-10-26 10:20:30.890625
2047,26.86,2022-10-26 10:20:30.906250
2048,22.86,2022-10-26 10:20:30.921875
2049,18.6,2022-10-26 10:20:30.937500
2050,13.8,2022-10-26 10:20:30.953125
2051,8.36,2022-10-26 10:20:30.968750
2052,2.46,2022-10-26 10:20:30.984375
2053,-3.46,2022-10-26 10:20:31.000000
2054,-8.87,2022-10-26 10:20:31.015625
2055,-13.52,2022-10-26 10:20:31.031250
2056,-17.56,2022-10-26 10:20:31.046875
2057,-21.5,2022-10-26 10:20:31.062500
2058,-26.13,2022-10-26 10:20:31.078125
2059,-32.14,2022-10-26 10:20:31.093750
2060,-39.9,2022-10-26 10:20:31.109375
2061,-49.16,2022-10-26 10:20:31.125000
2062,-59.01,2022-10-26 10:20:31.140625
2063,-67.87,2022-10-26 10:20:31.156250
2064,-73.8,2022-10-26 10:20:31.171875
2065,-75.0,2022-10-26 10:20:31.187500
2066,-70.33,2022-10-26 10:20:31.203125
2067,-59.79,2022-10-26 10:20:31.218750
2068,-44.55,2022-10-26 10:20:31.234375
2069,-26.63,2022-10-26 10:20:31.250000
2070,-8.35,2022-10-26 10:20:31.265625
2071,8.38,2022-10-26 10:20:31.281250
2072,22.43,2022-10-26 10:20:31.296875
2073,33.45,2022-10-26 10:20:31.312500
2074,41.57,2022-10-26 10:20:31.328125
2075,47.08,2022-10-26 10:20:31.343750
2076,50.18,2022-10-26 10:20:31.359375
2077,51.0,2022-10-26 10:20:31.375000
2078,49.74,2022-10-26 10:20:31.390625
2079,46.85,2022-10-26 10:20:31.406250
2080,42.99,2022-10-26 10:20:31.421875
2081,38.97,2022-10-26 10:20:31.437500
2082,35.5,2022-10-26 10:20:31.453125
2083,33.03,2022-10-26 10:20:31.468750
2084,31.69,2022-10-26 10:20:31.484375
2085,31.29,2022-10-26 10:20:31.500000
2086,31.51,2022-10-26 10:20:31.515625
2087,32.01,2022-10-26 10:20:31.531250
2088,32.51,2022-10-26 10:20:31.546875
2089,32.86,2022-10-26 10:20:31.562500
2090,32.98,2022-10-26 10:20:31.578125
2091,32.81,2022-10-26 10:20:31.593750
2092,32.22,2022-10-26 10:20:31.609375
2093,30.97,2022-10-26 10:20:31.625000
2094,28.75,2022-10-26 10:20:31.640625
2095,25.34,2022-10-26 10:20:31.656250
2096,20.63,2022-10-26 10:20:31.671875
2097,14.82,2022-10-26 10:20:31.687500
2098,8.38,2022-10-26 10:20:31.703125
2099,1.92,2022-10-26 10:20:31.718750
2100,-4.1,2022-10-26 10:20:31.734375
2101,-9.49,2022-10-26 10:20:31.750000
2102,-14.46,2022-10-26 10:20:31.765625
2103,-19.51,2022-10-26 10:20:31.781250
2104,-25.21,2022-10-26 10:20:31.796875
2105,-32.0,2022-10-26 10:20:31.812500
2106,-39.93,2022-10-26 10:20:31.828125
2107,-48.63,2022-10-26 10:20:31.843750
2108,-57.23,2022-10-26 10:20:31.859375
2109,-64.39,2022-10-26 10:20:31.875000
2110,-68.59,2022-10-26 10:20:31.890625
2111,-68.39,2022-10-26 10:20:31.906250
2112,-62.88,2022-10-26 10:20:31.921875
2113,-52.02,2022-10-26 10:20:31.937500
2114,-36.74,2022-10-26 10:20:31.953125
2115,-18.78,2022-10-26 10:20:31.968750
2116,-0.23,2022-10-26 10:20:31.984375
2117,17.0,2022-10-26 10:20:32.000000
2118,31.45,2022-10-26 10:20:32.015625
2119,42.35,2022-10-26 10:20:32.031250
2120,49.49,2022-10-26 10:20:32.046875
2121,53.09,2022-10-26 10:20:32.062500
2122,53.6,2022-10-26 10:20:32.078125
2123,51.65,2022-10-26 10:20:32.093750
2124,47.96,2022-10-26 10:20:32.109375
2125,43.21,2022-10-26 10:20:32.125000
2126,38.0,2022-10-26 10:20:32.140625
2127,32.78,2022-10-26 10:20:32.156250
2128,27.93,2022-10-26 10:20:32.171875
2129,23.69,2022-10-26 10:20:32.187500
2130,20.32,2022-10-26 10:20:32.203125
2131,17.95,2022-10-26 10:20:32.218750
2132,16.54,2022-10-26 10:20:32.234375
2133,15.84,2022-10-26 10:20:32.250000
2134,15.36,2022-10-26 10:20:32.265625
2135,14.57,2022-10-26 10:20:32.281250
2136,13.05,2022-10-26 10:20:32.296875
2137,10.63,2022-10-26 10:20:32.312500
2138,7.35,2022-10-26 10:20:32.328125
2139,3.39,2022-10-26 10:20:32.343750
2140,-1.0,2022-10-26 10:20:32.359375
2141,-5.65,2022-10-26 10:20:32.375000
2142,-10.47,2022-10-26 10:20:32.390625
2143,-15.38,2022-10-26 10:20:32.406250
2144,-20.31,2022-10-26 10:20:32.421875
2145,-25.21,2022-10-26 10:20:32.437500
2146,-30.08,2022-10-26 10:20:32.453125
2147,-35.07,2022-10-26 10:20:32.468750
2148,-40.46,2022-10-26 10:20:32.484375
2149,-46.47,2022-10-26 10:20:32.500000
2150,-53.06,2022-10-26 10:20:32.515625
2151,-59.71,2022-10-26 10:20:32.531250
2152,-65.33,2022-10-26 10:20:32.546875
2153,-68.5,2022-10-26 10:20:32.562500
2154,-67.88,2022-10-26 10:20:32.578125
2155,-62.7,2022-10-26 10:20:32.593750
2156,-53.11,2022-10-26 10:20:32.609375
2157,-40.15,2022-10-26 10:20:32.625000
2158,-25.53,2022-10-26 10:20:32.640625
2159,-11.04,2022-10-26 10:20:32.656250
2160,1.82,2022-10-26 10:20:32.671875
2161,12.03,2022-10-26 10:20:32.687500
2162,19.13,2022-10-26 10:20:32.703125
2163,23.0,2022-10-26 10:20:32.718750
2164,23.81,2022-10-26 10:20:32.734375
2165,22.03,2022-10-26 10:20:32.750000
2166,18.39,2022-10-26 10:20:32.765625
2167,13.77,2022-10-26 10:20:32.781250
2168,9.1,2022-10-26 10:20:32.796875
2169,5.01,2022-10-26 10:20:32.812500
2170,1.77,2022-10-26 10:20:32.828125
2171,-0.79,2022-10-26 10:20:32.843750
2172,-3.08,2022-10-26 10:20:32.859375
2173,-5.49,2022-10-26 10:20:32.875000
2174,-8.23,2022-10-26 10:20:32.890625
2175,-11.23,2022-10-26 10:20:32.906250
2176,-14.45,2022-10-26 10:20:32.921875
2177,-17.9,2022-10-26 10:20:32.937500
2178,-21.84,2022-10-26 10:20:32.953125
2179,-26.59,2022-10-26 10:20:32.968750
2180,-32.39,2022-10-26 10:20:32.984375
2181,-39.24,2022-10-26 10:20:33.000000
2182,-46.74,2022-10-26 10:20:33.015625
2183,-54.29,2022-10-26 10:20:33.031250
2184,-61.23,2022-10-26 10:20:33.046875
2185,-67.19,2022-10-26 10:20:33.062500
2186,-72.09,2022-10-26 10:20:33.078125
2187,-76.32,2022-10-26 10:20:33.093750
2188,-80.53,2022-10-26 10:20:33.109375
2189,-85.44,2022-10-26 10:20:33.125000
2190,-91.67,2022-10-26 10:20:33.140625
2191,-99.5,2022-10-26 10:20:33.156250
2192,-108.56,2022-10-26 10:20:33.171875
2193,-117.68,2022-10-26 10:20:33.187500
2194,-124.71,2022-10-26 10:20:33.203125
2195,-126.99,2022-10-26 10:20:33.218750
2196,-122.03,2022-10-26 10:20:33.234375
2197,-108.49,2022-10-26 10:20:33.250000
2198,-86.76,2022-10-26 10:20:33.265625
2199,-59.18,2022-10-26 10:20:33.281250
2200,-29.3,2022-10-26 10:20:33.296875
2201,-0.75,2022-10-26 10:20:33.312500
2202,23.85,2022-10-26 10:20:33.328125
2203,43.35,2022-10-26 10:20:33.343750
2204,57.93,2022-10-26 10:20:33.359375
2205,68.36,2022-10-26 10:20:33.375000
2206,75.26,2022-10-26 10:20:33.390625
2207,78.92,2022-10-26 10:20:33.406250
2208,79.34,2022-10-26 10:20:33.421875
2209,76.89,2022-10-26 10:20:33.437500
2210,72.5,2022-10-26 10:20:33.453125
2211,67.61,2022-10-26 10:20:33.468750
2212,63.75,2022-10-26 10:20:33.484375
2213,61.95,2022-10-26 10:20:33.500000
2214,62.32,2022-10-26 10:20:33.515625
2215,64.22,2022-10-26 10:20:33.531250
2216,66.62,2022-10-26 10:20:33.546875
2217,68.54,2022-10-26 10:20:33.562500
2218,69.52,2022-10-26 10:20:33.578125
2219,69.47,2022-10-26 10:20:33.593750
2220,68.51,2022-10-26 10:20:33.609375
2221,66.64,2022-10-26 10:20:33.625000
2222,63.61,2022-10-26 10:20:33.640625
2223,58.96,2022-10-26 10:20:33.656250
2224,52.38,2022-10-26 10:20:33.671875
2225,43.86,2022-10-26 10:20:33.687500
2226,33.85,2022-10-26 10:20:33.703125
2227,23.19,2022-10-26 10:20:33.718750
2228,12.78,2022-10-26 10:20:33.734375
2229,3.39,2022-10-26 10:20:33.750000
2230,-4.6,2022-10-26 10:20:33.765625
2231,-11.29,2022-10-26 10:20:33.781250
2232,-17.24,2022-10-26 10:20:33.796875
2233,-23.27,2022-10-26 10:20:33.812500
2234,-30.27,2022-10-26 10:20:33.828125
2235,-38.91,2022-10-26 10:20:33.843750
2236,-49.32,2022-10-26 10:20:33.859375
2237,-60.84,2022-10-26 10:20:33.875000
2238,-72.02,2022-10-26 10:20:33.890625
2239,-80.84,2022-10-26 10:20:33.906250
2240,-85.19,2022-10-26 10:20:33.921875
2241,-83.54,2022-10-26 10:20:33.937500
2242,-75.4,2022-10-26 10:20:33.953125
2243,-61.54,2022-10-26 10:20:33.968750
2244,-43.8,2022-10-26 10:20:33.984375
2245,-24.5,2022-10-26 10:20:34.000000
2246,-5.87,2022-10-26 10:20:34.015625
2247,10.5,2022-10-26 10:20:34.031250
2248,23.8,2022-10-26 10:20:34.046875
2249,33.89,2022-10-26 10:20:34.062500
2250,40.94,2022-10-26 10:20:34.078125
2251,45.18,2022-10-26 10:20:34.093750
2252,46.8,2022-10-26 10:20:34.109375
2253,46.05,2022-10-26 10:20:34.125000
2254,43.36,2022-10-26 10:20:34.140625
2255,39.49,2022-10-26 10:20:34.156250
2256,35.3,2022-10-26 10:20:34.171875
2257,31.64,2022-10-26 10:20:34.187500
2258,29.06,2022-10-26 10:20:34.203125
2259,27.78,2022-10-26 10:20:34.218750
2260,27.62,2022-10-26 10:20:34.234375
2261,28.21,2022-10-26 10:20:34.250000
2262,29.1,2022-10-26 10:20:34.265625
2263,29.99,2022-10-26 10:20:34.281250
2264,30.66,2022-10-26 10:20:34.296875
2265,30.98,2022-10-26 10:20:34.312500
2266,30.83,2022-10-26 10:20:34.328125
2267,29.99,2022-10-26 10:20:34.343750
2268,28.28,2022-10-26 10:20:34.359375
2269,25.57,2022-10-26 10:20:34.375000
2270,21.99,2022-10-26 10:20:34.390625
2271,17.83,2022-10-26 10:20:34.406250
2272,13.6,2022-10-26 10:20:34.421875
2273,9.71,2022-10-26 10:20:34.437500
2274,6.21,2022-10-26 10:20:34.453125
2275,2.8,2022-10-26 10:20:34.468750
2276,-1.16,2022-10-26 10:20:34.484375
2277,-6.2,2022-10-26 10:20:34.500000
2278,-12.41,2022-10-26 10:20:34.515625
2279,-19.39,2022-10-26 10:20:34.531250
2280,-26.36,2022-10-26 10:20:34.546875
2281,-32.58,2022-10-26 10:20:34.562500
2282,-37.68,2022-10-26 10:20:34.578125
2283,-41.9,2022-10-26 10:20:34.593750
2284,-45.87,2022-10-26 10:20:34.609375
2285,-50.49,2022-10-26 10:20:34.625000
2286,-56.54,2022-10-26 10:20:34.640625
2287,-64.49,2022-10-26 10:20:34.656250
2288,-74.33,2022-10-26 10:20:34.671875
2289,-85.38,2022-10-26 10:20:34.687500
2290,-96.24,2022-10-26 10:20:34.703125
2291,-104.84,2022-10-26 10:20:34.718750
2292,-108.91,2022-10-26 10:20:34.734375
2293,-106.55,2022-10-26 10:20:34.750000
2294,-97.05,2022-10-26 10:20:34.765625
2295,-81.05,2022-10-26 10:20:34.781250
2296,-60.64,2022-10-26 10:20:34.796875
2297,-38.62,2022-10-26 10:20:34.812500
2298,-17.75,2022-10-26 10:20:34.828125
2299,-0.05,2022-10-26 10:20:34.843750
2300,13.46,2022-10-26 10:20:34.859375
2301,22.71,2022-10-26 10:20:34.875000
2302,28.21,2022-10-26 10:20:34.890625
2303,30.62,2022-10-26 10:20:34.906250
2304,30.58,2022-10-26 10:20:34.921875
2305,28.69,2022-10-26 10:20:34.937500
2306,25.63,2022-10-26 10:20:34.953125
2307,22.25,2022-10-26 10:20:34.968750
2308,19.49,2022-10-26 10:20:34.984375
2309,18.19,2022-10-26 10:20:35.000000
2310,18.84,2022-10-26 10:20:35.015625
2311,21.37,2022-10-26 10:20:35.031250
2312,25.16,2022-10-26 10:20:35.046875
2313,29.29,2022-10-26 10:20:35.062500
2314,32.89,2022-10-26 10:20:35.078125
2315,35.4,2022-10-26 10:20:35.093750
2316,36.76,2022-10-26 10:20:35.109375
2317,37.2,2022-10-26 10:20:35.125000
2318,37.07,2022-10-26 10:20:35.140625
2319,36.48,2022-10-26 10:20:35.156250
2320,35.25,2022-10-26 10:20:35.171875
2321,33.01,2022-10-26 10:20:35.187500
2322,29.45,2022-10-26 10:20:35.203125
2323,24.61,2022-10-26 10:20:35.218750
2324,18.93,2022-10-26 10:20:35.234375
2325,13.1,2022-10-26 10:20:35.250000
2326,7.71,2022-10-26 10:20:35.265625
2327,2.99,2022-10-26 10:20:35.281250
2328,-1.37,2022-10-26 10:20:35.296875
2329,-6.14,2022-10-26 10:20:35.312500
2330,-12.2,2022-10-26 10:20:35.328125
2331,-20.28,2022-10-26 10:20:35.343750
2332,-30.66,2022-10-26 10:20:35.359375
2333,-42.9,2022-10-26 10:20:35.375000
2334,-55.68,2022-10-26 10:20:35.390625
2335,-66.97,2022-10-26 10:20:35.406250
2336,-74.22,2022-10-26 10:20:35.421875
2337,-75.08,2022-10-26 10:20:35.437500
2338,-68.11,2022-10-26 10:20:35.453125
2339,-53.42,2022-10-26 10:20:35.468750
2340,-32.75,2022-10-26 10:20:35.484375
2341,-9.01,2022-10-26 10:20:35.500000
2342,14.62,2022-10-26 10:20:35.515625
2343,35.61,2022-10-26 10:20:35.531250
2344,52.47,2022-10-26 10:20:35.546875
2345,64.87,2022-10-26 10:20:35.562500
2346,73.09,2022-10-26 10:20:35.578125
2347,77.58,2022-10-26 10:20:35.593750
2348,78.79,2022-10-26 10:20:35.609375
2349,77.11,2022-10-26 10:20:35.625000
2350,73.21,2022-10-26 10:20:35.640625
2351,68.08,2022-10-26 10:20:35.656250
2352,62.96,2022-10-26 10:20:35.671875
2353,58.95,2022-10-26 10:20:35.687500
2354,56.65,2022-10-26 10:20:35.703125
2355,56.08,2022-10-26 10:20:35.718750
2356,56.67,2022-10-26 10:20:35.734375
2357,57.64,2022-10-26 10:20:35.750000
2358,58.33,2022-10-26 10:20:35.765625
2359,58.42,2022-10-26 10:20:35.781250
2360,57.97,2022-10-26 10:20:35.796875
2361,57.2,2022-10-26 10:20:35.812500
2362,56.29,2022-10-26 10:20:35.828125
2363,55.1,2022-10-26 10:20:35.843750
2364,53.27,2022-10-26 10:20:35.859375
2365,50.32,2022-10-26 10:20:35.875000
2366,46.02,2022-10-26 10:20:35.890625
2367,40.5,2022-10-26 10:20:35.906250
2368,34.31,2022-10-26 10:20:35.921875
2369,28.13,2022-10-26 10:20:35.937500
2370,22.44,2022-10-26 10:20:35.953125
2371,17.3,2022-10-26 10:20:35.968750
2372,12.25,2022-10-26 10:20:35.984375
2373,6.6,2022-10-26 10:20:36.000000
2374,-0.25,2022-10-26 10:20:36.015625
2375,-8.37,2022-10-26 10:20:36.031250
2376,-17.36,2022-10-26 10:20:36.046875
2377,-26.39,2022-10-26 10:20:36.062500
2378,-34.65,2022-10-26 10:20:36.078125
2379,-41.7,2022-10-26 10:20:36.093750
2380,-47.6,2022-10-26 10:20:36.109375
2381,-52.96,2022-10-26 10:20:36.125000
2382,-58.63,2022-10-26 10:20:36.140625
2383,-65.52,2022-10-26 10:20:36.156250
2384,-74.3,2022-10-26 10:20:36.171875
2385,-85.14,2022-10-26 10:20:36.187500
2386,-97.55,2022-10-26 10:20:36.203125
2387,-110.12,2022-10-26 10:20:36.218750
2388,-120.6,2022-10-26 10:20:36.234375
2389,-126.23,2022-10-26 10:20:36.250000
2390,-124.55,2022-10-26 10:20:36.265625
2391,-114.24,2022-10-26 10:20:36.281250
2392,-95.76,2022-10-26 10:20:36.296875
2393,-71.39,2022-10-26 10:20:36.312500
2394,-44.51,2022-10-26 10:20:36.328125
2395,-18.55,2022-10-26 10:20:36.343750
2396,4.08,2022-10-26 10:20:36.359375
2397,22.41,2022-10-26 10:20:36.375000
2398,36.76,2022-10-26 10:20:36.390625
2399,48.03,2022-10-26 10:20:36.406250
2400,57.09,2022-10-26 10:20:36.421875
2401,64.36,2022-10-26 10:20:36.437500
2402,69.89,2022-10-26 10:20:36.453125
2403,73.7,2022-10-26 10:20:36.468750
2404,76.01,2022-10-26 10:20:36.484375
2405,77.29,2022-10-26 10:20:36.500000
2406,78.1,2022-10-26 10:20:36.515625
2407,78.88,2022-10-26 10:20:36.531250
2408,79.78,2022-10-26 10:20:36.546875
2409,80.77,2022-10-26 10:20:36.562500
2410,81.71,2022-10-26 10:20:36.578125
2411,82.49,2022-10-26 10:20:36.593750
2412,83.16,2022-10-26 10:20:36.609375
2413,83.76,2022-10-26 10:20:36.625000
2414,84.28,2022-10-26 10:20:36.640625
2415,84.57,2022-10-26 10:20:36.656250
2416,84.37,2022-10-26 10:20:36.671875
2417,83.43,2022-10-26 10:20:36.687500
2418,81.55,2022-10-26 10:20:36.703125
2419,78.72,2022-10-26 10:20:36.718750
2420,75.12,2022-10-26 10:20:36.734375
2421,71.09,2022-10-26 10:20:36.750000
2422,66.99,2022-10-26 10:20:36.765625
2423,63.11,2022-10-26 10:20:36.781250
2424,59.49,2022-10-26 10:20:36.796875
2425,56.03,2022-10-26 10:20:36.812500
2426,52.48,2022-10-26 10:20:36.828125
2427,48.61,2022-10-26 10:20:36.843750
2428,44.33,2022-10-26 10:20:36.859375
2429,39.69,2022-10-26 10:20:36.875000
2430,34.86,2022-10-26 10:20:36.890625
2431,29.91,2022-10-26 10:20:36.906250
2432,24.91,2022-10-26 10:20:36.921875
2433,19.78,2022-10-26 10:20:36.937500
2434,14.51,2022-10-26 10:20:36.953125
2435,9.13,2022-10-26 10:20:36.968750
2436,3.83,2022-10-26 10:20:36.984375
2437,-1.17,2022-10-26 10:20:37.000000
2438,-5.75,2022-10-26 10:20:37.015625
2439,-10.03,2022-10-26 10:20:37.031250
2440,-14.36,2022-10-26 10:20:37.046875
2441,-19.17,2022-10-26 10:20:37.062500
2442,-24.78,2022-10-26 10:20:37.078125
2443,-31.2,2022-10-26 10:20:37.093750
2444,-38.1,2022-10-26 10:20:37.109375
2445,-44.97,2022-10-26 10:20:37.125000
2446,-51.3,2022-10-26 10:20:37.140625
2447,-56.91,2022-10-26 10:20:37.156250
2448,-61.97,2022-10-26 10:20:37.171875
2449,-67.0,2022-10-26 10:20:37.187500
2450,-72.67,2022-10-26 10:20:37.203125
2451,-79.67,2022-10-26 10:20:37.218750
2452,-88.49,2022-10-26 10:20:37.234375
2453,-99.26,2022-10-26 10:20:37.250000
2454,-111.52,2022-10-26 10:20:37.265625
2455,-123.97,2022-10-26 10:20:37.281250
2456,-134.56,2022-10-26 10:20:37.296875
2457,-140.79,2022-10-26 10:20:37.312500
2458,-140.36,2022-10-26 10:20:37.328125
2459,-131.93,2022-10-26 10:20:37.343750
2460,-115.72,2022-10-26 10:20:37.359375
2461,-93.52,2022-10-26 10:20:37.375000
2462,-68.19,2022-10-26 10:20:37.390625
2463,-42.79,2022-10-26 10:20:37.406250
2464,-19.74,2022-10-26 10:20:37.421875
2465,-0.38,2022-10-26 10:20:37.437500
2466,15.09,2022-10-26 10:20:37.453125
2467,27.13,2022-10-26 10:20:37.468750
2468,36.38,2022-10-26 10:20:37.484375
2469,43.39,2022-10-26 10:20:37.500000
2470,48.42,2022-10-26 10:20:37.515625
2471,51.61,2022-10-26 10:20:37.531250
2472,53.11,2022-10-26 10:20:37.546875
2473,53.31,2022-10-26 10:20:37.562500
2474,52.69,2022-10-26 10:20:37.578125
2475,51.78,2022-10-26 10:20:37.593750
2476,51.0,2022-10-26 10:20:37.609375
2477,50.61,2022-10-26 10:20:37.625000
2478,50.66,2022-10-26 10:20:37.640625
2479,51.1,2022-10-26 10:20:37.656250
2480,51.91,2022-10-26 10:20:37.671875
2481,53.03,2022-10-26 10:20:37.687500
2482,54.37,2022-10-26 10:20:37.703125
2483,55.62,2022-10-26 10:20:37.718750
2484,56.3,2022-10-26 10:20:37.734375
2485,55.76,2022-10-26 10:20:37.750000
2486,53.42,2022-10-26 10:20:37.765625
2487,49.02,2022-10-26 10:20:37.781250
2488,42.77,2022-10-26 10:20:37.796875
2489,35.29,2022-10-26 10:20:37.812500
2490,27.45,2022-10-26 10:20:37.828125
2491,19.97,2022-10-26 10:20:37.843750
2492,13.22,2022-10-26 10:20:37.859375
2493,7.18,2022-10-26 10:20:37.875000
2494,1.51,2022-10-26 10:20:37.890625
2495,-4.17,2022-10-26 10:20:37.906250
2496,-10.13,2022-10-26 10:20:37.921875
2497,-16.41,2022-10-26 10:20:37.937500
2498,-22.82,2022-10-26 10:20:37.953125
2499,-29.04,2022-10-26 10:20:37.968750
2500,-34.81,2022-10-26 10:20:37.984375
2501,-40.07,2022-10-26 10:20:38.000000
2502,-45.06,2022-10-26 10:20:38.015625
2503,-50.37,2022-10-26 10:20:38.031250
2504,-56.71,2022-10-26 10:20:38.046875
2505,-64.71,2022-10-26 10:20:38.062500
2506,-74.46,2022-10-26 10:20:38.078125
2507,-85.32,2022-10-26 10:20:38.093750
2508,-95.67,2022-10-26 10:20:38.109375
2509,-103.35,2022-10-26 10:20:38.125000
2510,-106.02,2022-10-26 10:20:38.140625
2511,-102.03,2022-10-26 10:20:38.156250
2512,-91.04,2022-10-26 10:20:38.171875
2513,-74.13,2022-10-26 10:20:38.187500
2514,-53.55,2022-10-26 10:20:38.203125
2515,-31.96,2022-10-26 10:20:38.218750
2516,-11.69,2022-10-26 10:20:38.234375
2517,5.75,2022-10-26 10:20:38.250000
2518,19.89,2022-10-26 10:20:38.265625
2519,30.9,2022-10-26 10:20:38.281250
2520,39.26,2022-10-26 10:20:38.296875
2521,45.26,2022-10-26 10:20:38.312500
2522,49.07,2022-10-26 10:20:38.328125
2523,50.81,2022-10-26 10:20:38.343750
2524,50.74,2022-10-26 10:20:38.359375
2525,49.39,2022-10-26 10:20:38.375000
2526,47.5,2022-10-26 10:20:38.390625
2527,45.74,2022-10-26 10:20:38.406250
2528,44.61,2022-10-26 10:20:38.421875
2529,44.27,2022-10-26 10:20:38.437500
2530,44.59,2022-10-26 10:20:38.453125
2531,45.28,2022-10-26 10:20:38.468750
2532,46.06,2022-10-26 10:20:38.484375
2533,46.77,2022-10-26 10:20:38.500000
2534,47.36,2022-10-26 10:20:38.515625
2535,47.8,2022-10-26 10:20:38.531250
2536,47.95,2022-10-26 10:20:38.546875
2537,47.5,2022-10-26 10:20:38.562500
2538,46.03,2022-10-26 10:20:38.578125
2539,43.15,2022-10-26 10:20:38.593750
2540,38.7,2022-10-26 10:20:38.609375
2541,32.92,2022-10-26 10:20:38.625000
2542,26.36,2022-10-26 10:20:38.640625
2543,19.81,2022-10-26 10:20:38.656250
2544,13.96,2022-10-26 10:20:38.671875
2545,9.19,2022-10-26 10:20:38.687500
2546,5.34,2022-10-26 10:20:38.703125
2547,1.81,2022-10-26 10:20:38.718750
2548,-2.13,2022-10-26 10:20:38.734375
2549,-7.07,2022-10-26 10:20:38.750000
2550,-13.12,2022-10-26 10:20:38.765625
2551,-19.87,2022-10-26 10:20:38.781250
2552,-26.58,2022-10-26 10:20:38.796875
2553,-32.48,2022-10-26 10:20:38.812500
2554,-37.17,2022-10-26 10:20:38.828125
2555,-40.79,2022-10-26 10:20:38.843750
2556,-44.01,2022-10-26 10:20:38.859375
2557,-47.82,2022-10-26 10:20:38.875000
2558,-53.15,2022-10-26 10:20:38.890625
2559,-60.63,2022-10-26 10:20:38.906250
2560,-70.31,2022-10-26 10:20:38.921875
2561,-81.52,2022-10-26 10:20:38.937500
2562,-92.85,2022-10-26 10:20:38.953125
2563,-102.14,2022-10-26 10:20:38.968750
2564,-106.96,2022-10-26 10:20:38.984375
2565,-105.23,2022-10-26 10:20:39.000000
2566,-95.88,2022-10-26 10:20:39.015625
2567,-79.34,2022-10-26 10:20:39.031250
2568,-57.53,2022-10-26 10:20:39.046875
2569,-33.32,2022-10-26 10:20:39.062500
2570,-9.66,2022-10-26 10:20:39.078125
2571,11.29,2022-10-26 10:20:39.093750
2572,28.5,2022-10-26 10:20:39.109375
2573,42.04,2022-10-26 10:20:39.125000
2574,52.57,2022-10-26 10:20:39.140625
2575,60.7,2022-10-26 10:20:39.156250
2576,66.67,2022-10-26 10:20:39.171875
2577,70.42,2022-10-26 10:20:39.187500
2578,71.78,2022-10-26 10:20:39.203125
2579,70.82,2022-10-26 10:20:39.218750
2580,68.0,2022-10-26 10:20:39.234375
2581,64.16,2022-10-26 10:20:39.250000
2582,60.23,2022-10-26 10:20:39.265625
2583,56.96,2022-10-26 10:20:39.281250
2584,54.69,2022-10-26 10:20:39.296875
2585,53.29,2022-10-26 10:20:39.312500
2586,52.32,2022-10-26 10:20:39.328125
2587,51.35,2022-10-26 10:20:39.343750
2588,50.11,2022-10-26 10:20:39.359375
2589,48.6,2022-10-26 10:20:39.375000
2590,47.02,2022-10-26 10:20:39.390625
2591,45.51,2022-10-26 10:20:39.406250
2592,44.03,2022-10-26 10:20:39.421875
2593,42.27,2022-10-26 10:20:39.437500
2594,39.78,2022-10-26 10:20:39.453125
2595,36.19,2022-10-26 10:20:39.468750
2596,31.5,2022-10-26 10:20:39.484375
2597,26.02,2022-10-26 10:20:39.500000
2598,20.35,2022-10-26 10:20:39.515625
2599,15.04,2022-10-26 10:20:39.531250
2600,10.42,2022-10-26 10:20:39.546875
2601,6.42,2022-10-26 10:20:39.562500
2602,2.64,2022-10-26 10:20:39.578125
2603,-1.46,2022-10-26 10:20:39.593750
2604,-6.43,2022-10-26 10:20:39.609375
2605,-12.61,2022-10-26 10:20:39.625000
2606,-19.93,2022-10-26 10:20:39.640625
2607,-27.93,2022-10-26 10:20:39.656250
2608,-35.94,2022-10-26 10:20:39.671875
2609,-43.22,2022-10-26 10:20:39.687500
2610,-49.34,2022-10-26 10:20:39.703125
2611,-54.37,2022-10-26 10:20:39.718750
2612,-58.9,2022-10-26 10:20:39.734375
2613,-63.88,2022-10-26 10:20:39.750000
2614,-70.38,2022-10-26 10:20:39.765625
2615,-79.17,2022-10-26 10:20:39.781250
2616,-90.42,2022-10-26 10:20:39.796875
2617,-103.48,2022-10-26 10:20:39.812500
2618,-116.77,2022-10-26 10:20:39.828125
2619,-128.06,2022-10-26 10:20:39.843750
2620,-134.93,2022-10-26 10:20:39.859375
2621,-135.47,2022-10-26 10:20:39.875000
2622,-128.92,2022-10-26 10:20:39.890625
2623,-115.97,2022-10-26 10:20:39.906250
2624,-98.57,2022-10-26 10:20:39.921875
2625,-79.29,2022-10-26 10:20:39.937500
2626,-60.54,2022-10-26 10:20:39.953125
2627,-43.9,2022-10-26 10:20:39.968750
2628,-30.01,2022-10-26 10:20:39.984375
2629,-18.8,2022-10-26 10:20:40.000000
2630,-9.99,2022-10-26 10:20:40.015625
2631,-3.41,2022-10-26 10:20:40.031250
2632,0.87,2022-10-26 10:20:40.046875
2633,2.8,2022-10-26 10:20:40.062500
2634,2.57,2022-10-26 10:20:40.078125
2635,0.77,2022-10-26 10:20:40.093750
2636,-1.71,2022-10-26 10:20:40.109375
2637,-3.85,2022-10-26 10:20:40.125000
2638,-4.86,2022-10-26 10:20:40.140625
2639,-4.25,2022-10-26 10:20:40.156250
2640,-2.03,2022-10-26 10:20:40.171875
2641,1.28,2022-10-26 10:20:40.187500
2642,4.68,2022-10-26 10:20:40.203125
2643,6.83,2022-10-26 10:20:40.218750
2644,6.49,2022-10-26 10:20:40.234375
2645,3.11,2022-10-26 10:20:40.250000
2646,-2.74,2022-10-26 10:20:40.265625
2647,-9.33,2022-10-26 10:20:40.281250
2648,-14.33,2022-10-26 10:20:40.296875
2649,-15.74,2022-10-26 10:20:40.312500
2650,-12.72,2022-10-26 10:20:40.328125
2651,-5.77,2022-10-26 10:20:40.343750
2652,3.69,2022-10-26 10:20:40.359375
2653,14.01,2022-10-26 10:20:40.375000
2654,23.89,2022-10-26 10:20:40.390625
2655,32.47,2022-10-26 10:20:40.406250
2656,38.98,2022-10-26 10:20:40.421875
2657,42.39,2022-10-26 10:20:40.437500
2658,41.57,2022-10-26 10:20:40.453125
2659,35.72,2022-10-26 10:20:40.468750
2660,25.17,2022-10-26 10:20:40.484375
2661,11.69,2022-10-26 10:20:40.500000
2662,-1.72,2022-10-26 10:20:40.515625
2663,-11.67,2022-10-26 10:20:40.531250
2664,-15.49,2022-10-26 10:20:40.546875
2665,-11.85,2022-10-26 10:20:40.562500
2666,-1.0,2022-10-26 10:20:40.578125
2667,15.59,2022-10-26 10:20:40.593750
2668,35.67,2022-10-26 10:20:40.609375
2669,56.88,2022-10-26 10:20:40.625000
2670,77.01,2022-10-26 10:20:40.640625
2671,94.3,2022-10-26 10:20:40.656250
2672,107.53,2022-10-26 10:20:40.671875
2673,116.08,2022-10-26 10:20:40.687500
2674,119.87,2022-10-26 10:20:40.703125
2675,119.32,2022-10-26 10:20:40.718750
2676,115.13,2022-10-26 10:20:40.734375
2677,108.06,2022-10-26 10:20:40.750000
2678,98.72,2022-10-26 10:20:40.765625
2679,87.57,2022-10-26 10:20:40.781250
2680,74.96,2022-10-26 10:20:40.796875
2681,61.44,2022-10-26 10:20:40.812500
2682,47.75,2022-10-26 10:20:40.828125
2683,34.75,2022-10-26 10:20:40.843750
2684,23.24,2022-10-26 10:20:40.859375
2685,13.62,2022-10-26 10:20:40.875000
2686,5.71,2022-10-26 10:20:40.890625
2687,-1.19,2022-10-26 10:20:40.906250
2688,-8.1,2022-10-26 10:20:40.921875
2689,-16.09,2022-10-26 10:20:40.937500
2690,-25.98,2022-10-26 10:20:40.953125
2691,-38.22,2022-10-26 10:20:40.968750
2692,-52.7,2022-10-26 10:20:40.984375
2693,-68.71,2022-10-26 10:20:41.000000
2694,-84.92,2022-10-26 10:20:41.015625
2695,-99.64,2022-10-26 10:20:41.031250
2696,-111.22,2022-10-26 10:20:41.046875
2697,-118.59,2022-10-26 10:20:41.062500
2698,-121.62,2022-10-26 10:20:41.078125
2699,-121.2,2022-10-26 10:20:41.093750
2700,-118.97,2022-10-26 10:20:41.109375
2701,-116.66,2022-10-26 10:20:41.125000
2702,-115.67,2022-10-26 10:20:41.140625
2703,-116.64,2022-10-26 10:20:41.156250
2704,-119.51,2022-10-26 10:20:41.171875
2705,-123.6,2022-10-26 10:20:41.187500
2706,-127.74,2022-10-26 10:20:41.203125
2707,-130.53,2022-10-26 10:20:41.218750
2708,-130.37,2022-10-26 10:20:41.234375
2709,-125.81,2022-10-26 10:20:41.250000
2710,-115.83,2022-10-26 10:20:41.265625
2711,-100.27,2022-10-26 10:20:41.281250
2712,-80.0,2022-10-26 10:20:41.296875
2713,-56.94,2022-10-26 10:20:41.312500
2714,-33.51,2022-10-26 10:20:41.328125
2715,-12.08,2022-10-26 10:20:41.343750
2716,5.63,2022-10-26 10:20:41.359375
2717,18.93,2022-10-26 10:20:41.375000
2718,28.08,2022-10-26 10:20:41.390625
2719,34.07,2022-10-26 10:20:41.406250
2720,38.12,2022-10-26 10:20:41.421875
2721,41.33,2022-10-26 10:20:41.437500
2722,44.42,2022-10-26 10:20:41.453125
2723,47.61,2022-10-26 10:20:41.468750
2724,50.72,2022-10-26 10:20:41.484375
2725,53.37,2022-10-26 10:20:41.500000
2726,55.24,2022-10-26 10:20:41.515625
2727,56.18,2022-10-26 10:20:41.531250
2728,56.36,2022-10-26 10:20:41.546875
2729,56.08,2022-10-26 10:20:41.562500
2730,55.76,2022-10-26 10:20:41.578125
2731,55.61,2022-10-26 10:20:41.593750
2732,55.55,2022-10-26 10:20:41.609375
2733,55.16,2022-10-26 10:20:41.625000
2734,53.82,2022-10-26 10:20:41.640625
2735,50.91,2022-10-26 10:20:41.656250
2736,46.2,2022-10-26 10:20:41.671875
2737,39.96,2022-10-26 10:20:41.687500
2738,32.97,2022-10-26 10:20:41.703125
2739,26.14,2022-10-26 10:20:41.718750
2740,20.16,2022-10-26 10:20:41.734375
2741,15.12,2022-10-26 10:20:41.750000
2742,10.39,2022-10-26 10:20:41.765625
2743,4.84,2022-10-26 10:20:41.781250
2744,-2.61,2022-10-26 10:20:41.796875
2745,-12.61,2022-10-26 10:20:41.812500
2746,-25.12,2022-10-26 10:20:41.828125
2747,-39.32,2022-10-26 10:20:41.843750
2748,-53.8,2022-10-26 10:20:41.859375
2749,-66.66,2022-10-26 10:20:41.875000
2750,-75.78,2022-10-26 10:20:41.890625
2751,-79.09,2022-10-26 10:20:41.906250
2752,-75.14,2022-10-26 10:20:41.921875
2753,-63.59,2022-10-26 10:20:41.937500
2754,-45.6,2022-10-26 10:20:41.953125
2755,-23.6,2022-10-26 10:20:41.968750
2756,-0.74,2022-10-26 10:20:41.984375
2757,20.06,2022-10-26 10:20:42.000000
2758,36.87,2022-10-26 10:20:42.015625
2759,48.97,2022-10-26 10:20:42.031250
2760,56.58,2022-10-26 10:20:42.046875
2761,60.2,2022-10-26 10:20:42.062500
2762,60.23,2022-10-26 10:20:42.078125
2763,57.02,2022-10-26 10:20:42.093750
2764,51.25,2022-10-26 10:20:42.109375
2765,44.37,2022-10-26 10:20:42.125000
2766,38.53,2022-10-26 10:20:42.140625
2767,35.95,2022-10-26 10:20:42.156250
2768,37.96,2022-10-26 10:20:42.171875
2769,44.4,2022-10-26 10:20:42.187500
2770,53.68,2022-10-26 10:20:42.203125
2771,63.37,2022-10-26 10:20:42.218750
2772,71.34,2022-10-26 10:20:42.234375
2773,76.38,2022-10-26 10:20:42.250000
2774,78.48,2022-10-26 10:20:42.265625
2775,78.3,2022-10-26 10:20:42.281250
2776,76.56,2022-10-26 10:20:42.296875
2777,73.58,2022-10-26 10:20:42.312500
2778,69.28,2022-10-26 10:20:42.328125
2779,63.55,2022-10-26 10:20:42.343750
2780,56.54,2022-10-26 10:20:42.359375
2781,48.9,2022-10-26 10:20:42.375000
2782,41.51,2022-10-26 10:20:42.390625
2783,35.16,2022-10-26 10:20:42.406250
2784,30.15,2022-10-26 10:20:42.421875
2785,26.19,2022-10-26 10:20:42.437500
2786,22.44,2022-10-26 10:20:42.453125
2787,17.83,2022-10-26 10:20:42.468750
2788,11.55,2022-10-26 10:20:42.484375
2789,3.32,2022-10-26 10:20:42.500000
2790,-6.39,2022-10-26 10:20:42.515625
2791,-16.55,2022-10-26 10:20:42.531250
2792,-25.99,2022-10-26 10:20:42.546875
2793,-33.84,2022-10-26 10:20:42.562500
2794,-39.9,2022-10-26 10:20:42.578125
2795,-44.72,2022-10-26 10:20:42.593750
2796,-49.4,2022-10-26 10:20:42.609375
2797,-55.29,2022-10-26 10:20:42.625000
2798,-63.53,2022-10-26 10:20:42.640625
2799,-74.81,2022-10-26 10:20:42.656250
2800,-89.1,2022-10-26 10:20:42.671875
2801,-105.36,2022-10-26 10:20:42.687500
2802,-121.39,2022-10-26 10:20:42.703125
2803,-134.05,2022-10-26 10:20:42.718750
2804,-139.87,2022-10-26 10:20:42.734375
2805,-136.22,2022-10-26 10:20:42.750000
2806,-122.32,2022-10-26 10:20:42.765625
2807,-99.73,2022-10-26 10:20:42.781250
2808,-71.98,2022-10-26 10:20:42.796875
2809,-43.4,2022-10-26 10:20:42.812500
2810,-17.69,2022-10-26 10:20:42.828125
2811,3.05,2022-10-26 10:20:42.843750
2812,18.57,2022-10-26 10:20:42.859375
2813,29.75,2022-10-26 10:20:42.875000
2814,37.76,2022-10-26 10:20:42.890625
2815,43.37,2022-10-26 10:20:42.906250
2816,46.71,2022-10-26 10:20:42.921875
2817,47.69,2022-10-26 10:20:42.937500
2818,46.37,2022-10-26 10:20:42.953125
2819,43.28,2022-10-26 10:20:42.968750
2820,39.36,2022-10-26 10:20:42.984375
2821,35.67,2022-10-26 10:20:43.000000
2822,33.1,2022-10-26 10:20:43.015625
2823,32.2,2022-10-26 10:20:43.031250
2824,33.08,2022-10-26 10:20:43.046875
2825,35.48,2022-10-26 10:20:43.062500
2826,38.92,2022-10-26 10:20:43.078125
2827,42.74,2022-10-26 10:20:43.093750
2828,46.23,2022-10-26 10:20:43.109375
2829,48.62,2022-10-26 10:20:43.125000
2830,49.27,2022-10-26 10:20:43.140625
2831,47.73,2022-10-26 10:20:43.156250
2832,43.87,2022-10-26 10:20:43.171875
2833,38.05,2022-10-26 10:20:43.187500
2834,30.97,2022-10-26 10:20:43.203125
2835,23.52,2022-10-26 10:20:43.218750
2836,16.55,2022-10-26 10:20:43.234375
2837,10.62,2022-10-26 10:20:43.250000
2838,5.78,2022-10-26 10:20:43.265625
2839,1.56,2022-10-26 10:20:43.281250
2840,-2.97,2022-10-26 10:20:43.296875
2841,-9.03,2022-10-26 10:20:43.312500
2842,-17.61,2022-10-26 10:20:43.328125
2843,-28.9,2022-10-26 10:20:43.343750
2844,-41.7,2022-10-26 10:20:43.359375
2845,-53.36,2022-10-26 10:20:43.375000
2846,-60.3,2022-10-26 10:20:43.390625
2847,-59.2,2022-10-26 10:20:43.406250
2848,-48.26,2022-10-26 10:20:43.421875
2849,-28.11,2022-10-26 10:20:43.437500
2850,-1.72,2022-10-26 10:20:43.453125
2851,26.8,2022-10-26 10:20:43.468750
2852,53.46,2022-10-26 10:20:43.484375
2853,75.73,2022-10-26 10:20:43.500000
2854,92.8,2022-10-26 10:20:43.515625
2855,105.16,2022-10-26 10:20:43.531250
2856,113.74,2022-10-26 10:20:43.546875
2857,119.22,2022-10-26 10:20:43.562500
2858,121.88,2022-10-26 10:20:43.578125
2859,121.87,2022-10-26 10:20:43.593750
2860,119.45,2022-10-26 10:20:43.609375
2861,115.12,2022-10-26 10:20:43.625000
2862,109.5,2022-10-26 10:20:43.640625
2863,103.18,2022-10-26 10:20:43.656250
2864,96.49,2022-10-26 10:20:43.671875
2865,89.61,2022-10-26 10:20:43.687500
2866,82.7,2022-10-26 10:20:43.703125
2867,75.97,2022-10-26 10:20:43.718750
2868,69.68,2022-10-26 10:20:43.734375
2869,64.04,2022-10-26 10:20:43.750000
2870,59.07,2022-10-26 10:20:43.765625
2871,54.65,2022-10-26 10:20:43.781250
2872,50.56,2022-10-26 10:20:43.796875
2873,46.49,2022-10-26 10:20:43.812500
2874,42.06,2022-10-26 10:20:43.828125
2875,36.86,2022-10-26 10:20:43.843750
2876,30.47,2022-10-26 10:20:43.859375
2877,22.62,2022-10-26 10:20:43.875000
2878,13.38,2022-10-26 10:20:43.890625
2879,3.3,2022-10-26 10:20:43.906250
2880,-6.59,2022-10-26 10:20:43.921875
2881,-15.12,2022-10-26 10:20:43.937500
2882,-21.39,2022-10-26 10:20:43.953125
2883,-25.17,2022-10-26 10:20:43.968750
2884,-26.98,2022-10-26 10:20:43.984375
2885,-27.93,2022-10-26 10:20:44.000000
2886,-29.28,2022-10-26 10:20:44.015625
2887,-32.04,2022-10-26 10:20:44.031250
2888,-36.63,2022-10-26 10:20:44.046875
2889,-42.75,2022-10-26 10:20:44.062500
2890,-49.46,2022-10-26 10:20:44.078125
2891,-55.31,2022-10-26 10:20:44.093750
2892,-58.49,2022-10-26 10:20:44.109375
2893,-57.24,2022-10-26 10:20:44.125000
2894,-50.28,2022-10-26 10:20:44.140625
2895,-37.25,2022-10-26 10:20:44.156250
2896,-18.89,2022-10-26 10:20:44.171875
2897,3.08,2022-10-26 10:20:44.187500
2898,26.38,2022-10-26 10:20:44.203125
2899,48.77,2022-10-26 10:20:44.218750
2900,68.63,2022-10-26 10:20:44.234375
2901,85.14,2022-10-26 10:20:44.250000
2902,98.15,2022-10-26 10:20:44.265625
2903,107.97,2022-10-26 10:20:44.281250
2904,114.99,2022-10-26 10:20:44.296875
2905,119.53,2022-10-26 10:20:44.312500
2906,121.75,2022-10-26 10:20:44.328125
2907,121.76,2022-10-26 10:20:44.343750
2908,119.66,2022-10-26 10:20:44.359375
2909,115.7,2022-10-26 10:20:44.375000
2910,110.22,2022-10-26 10:20:44.390625
2911,103.74,2022-10-26 10:20:44.406250
2912,96.73,2022-10-26 10:20:44.421875
2913,89.61,2022-10-26 10:20:44.437500
2914,82.62,2022-10-26 10:20:44.453125
2915,75.84,2022-10-26 10:20:44.468750
2916,69.27,2022-10-26 10:20:44.484375
2917,62.84,2022-10-26 10:20:44.500000
2918,56.42,2022-10-26 10:20:44.515625
2919,49.8,2022-10-26 10:20:44.531250
2920,42.63,2022-10-26 10:20:44.546875
2921,34.53,2022-10-26 10:20:44.562500
2922,25.19,2022-10-26 10:20:44.578125
2923,14.48,2022-10-26 10:20:44.593750
2924,2.58,2022-10-26 10:20:44.609375
2925,-10.06,2022-10-26 10:20:44.625000
2926,-22.86,2022-10-26 10:20:44.640625
2927,-35.28,2022-10-26 10:20:44.656250
2928,-46.98,2022-10-26 10:20:44.671875
2929,-57.8,2022-10-26 10:20:44.687500
2930,-67.78,2022-10-26 10:20:44.703125
2931,-76.98,2022-10-26 10:20:44.718750
2932,-85.44,2022-10-26 10:20:44.734375
2933,-93.18,2022-10-26 10:20:44.750000
2934,-100.16,2022-10-26 10:20:44.765625
2935,-106.41,2022-10-26 10:20:44.781250
2936,-112.13,2022-10-26 10:20:44.796875
2937,-117.71,2022-10-26 10:20:44.812500
2938,-123.7,2022-10-26 10:20:44.828125
2939,-130.68,2022-10-26 10:20:44.843750
2940,-138.88,2022-10-26 10:20:44.859375
2941,-147.97,2022-10-26 10:20:44.875000
2942,-156.88,2022-10-26 10:20:44.890625
2943,-163.79,2022-10-26 10:20:44.906250
2944,-166.53,2022-10-26 10:20:44.921875
2945,-163.19,2022-10-26 10:20:44.937500
2946,-152.66,2022-10-26 10:20:44.953125
2947,-135.02,2022-10-26 10:20:44.968750
2948,-111.55,2022-10-26 10:20:44.984375
2949,-84.4,2022-10-26 10:20:45.000000
2950,-56.05,2022-10-26 10:20:45.015625
2951,-28.8,2022-10-26 10:20:45.031250
2952,-4.39,2022-10-26 10:20:45.046875
2953,16.22,2022-10-26 10:20:45.062500
2954,32.78,2022-10-26 10:20:45.078125
2955,45.63,2022-10-26 10:20:45.093750
2956,55.43,2022-10-26 10:20:45.109375
2957,62.87,2022-10-26 10:20:45.125000
2958,68.5,2022-10-26 10:20:45.140625
2959,72.61,2022-10-26 10:20:45.156250
2960,75.3,2022-10-26 10:20:45.171875
2961,76.55,2022-10-26 10:20:45.187500
2962,76.27,2022-10-26 10:20:45.203125
2963,74.39,2022-10-26 10:20:45.218750
2964,70.83,2022-10-26 10:20:45.234375
2965,65.39,2022-10-26 10:20:45.250000
2966,57.82,2022-10-26 10:20:45.265625
2967,47.86,2022-10-26 10:20:45.281250
2968,35.41,2022-10-26 10:20:45.296875
2969,20.65,2022-10-26 10:20:45.312500
2970,4.18,2022-10-26 10:20:45.328125
2971,-13.16,2022-10-26 10:20:45.343750
2972,-30.27,2022-10-26 10:20:45.359375
2973,-46.12,2022-10-26 10:20:45.375000
2974,-59.96,2022-10-26 10:20:45.390625
2975,-71.53,2022-10-26 10:20:45.406250
2976,-81.15,2022-10-26 10:20:45.421875
2977,-89.57,2022-10-26 10:20:45.437500
2978,-97.75,2022-10-26 10:20:45.453125
2979,-106.43,2022-10-26 10:20:45.468750
2980,-115.93,2022-10-26 10:20:45.484375
2981,-125.93,2022-10-26 10:20:45.500000
2982,-135.68,2022-10-26 10:20:45.515625
2983,-144.31,2022-10-26 10:20:45.531250
2984,-151.15,2022-10-26 10:20:45.546875
2985,-155.96,2022-10-26 10:20:45.562500
2986,-159.01,2022-10-26 10:20:45.578125
2987,-160.83,2022-10-26 10:20:45.593750
2988,-162.15,2022-10-26 10:20:45.609375
2989,-163.67,2022-10-26 10:20:45.625000
2990,-165.8,2022-10-26 10:20:45.640625
2991,-168.43,2022-10-26 10:20:45.656250
2992,-170.55,2022-10-26 10:20:45.671875
2993,-170.16,2022-10-26 10:20:45.687500
2994,-164.64,2022-10-26 10:20:45.703125
2995,-151.74,2022-10-26 10:20:45.718750
2996,-130.58,2022-10-26 10:20:45.734375
2997,-102.43,2022-10-26 10:20:45.750000
2998,-70.62,2022-10-26 10:20:45.765625
2999,-39.4,2022-10-26 10:20:45.781250
3000,-12.56,2022-10-26 10:20:45.796875
3001,7.84,2022-10-26 10:20:45.812500
3002,21.8,2022-10-26 10:20:45.828125
3003,30.79,2022-10-26 10:20:45.843750
3004,36.72,2022-10-26 10:20:45.859375
3005,40.93,2022-10-26 10:20:45.875000
3006,43.91,2022-10-26 10:20:45.890625
3007,45.61,2022-10-26 10:20:45.906250
3008,45.9,2022-10-26 10:20:45.921875
3009,44.99,2022-10-26 10:20:45.937500
3010,43.37,2022-10-26 10:20:45.953125
3011,41.57,2022-10-26 10:20:45.968750
3012,40.0,2022-10-26 10:20:45.984375
3013,38.83,2022-10-26 10:20:46.000000
3014,38.14,2022-10-26 10:20:46.015625
3015,38.02,2022-10-26 10:20:46.031250
3016,38.63,2022-10-26 10:20:46.046875
3017,40.15,2022-10-26 10:20:46.062500
3018,42.6,2022-10-26 10:20:46.078125
3019,45.79,2022-10-26 10:20:46.093750
3020,49.32,2022-10-26 10:20:46.109375
3021,52.66,2022-10-26 10:20:46.125000
3022,55.28,2022-10-26 10:20:46.140625
3023,56.81,2022-10-26 10:20:46.156250
3024,57.06,2022-10-26 10:20:46.171875
3025,56.13,2022-10-26 10:20:46.187500
3026,54.32,2022-10-26 10:20:46.203125
3027,52.05,2022-10-26 10:20:46.218750
3028,49.6,2022-10-26 10:20:46.234375
3029,47.05,2022-10-26 10:20:46.250000
3030,44.17,2022-10-26 10:20:46.265625
3031,40.59,2022-10-26 10:20:46.281250
3032,36.03,2022-10-26 10:20:46.296875
3033,30.49,2022-10-26 10:20:46.312500
3034,24.26,2022-10-26 10:20:46.328125
3035,17.78,2022-10-26 10:20:46.343750
3036,11.38,2022-10-26 10:20:46.359375
3037,5.17,2022-10-26 10:20:46.375000
3038,-1.03,2022-10-26 10:20:46.390625
3039,-7.45,2022-10-26 10:20:46.406250
3040,-14.19,2022-10-26 10:20:46.421875
3041,-21.06,2022-10-26 10:20:46.437500
3042,-27.6,2022-10-26 10:20:46.453125
3043,-33.37,2022-10-26 10:20:46.468750
3044,-38.04,2022-10-26 10:20:46.484375
3045,-41.63,2022-10-26 10:20:46.500000
3046,-44.43,2022-10-26 10:20:46.515625
3047,-47.06,2022-10-26 10:20:46.531250
3048,-50.31,2022-10-26 10:20:46.546875
3049,-55.01,2022-10-26 10:20:46.562500
3050,-61.83,2022-10-26 10:20:46.578125
3051,-70.82,2022-10-26 10:20:46.593750
3052,-81.01,2022-10-26 10:20:46.609375
3053,-90.28,2022-10-26 10:20:46.625000
3054,-95.62,2022-10-26 10:20:46.640625
3055,-93.94,2022-10-26 10:20:46.656250
3056,-83.25,2022-10-26 10:20:46.671875
3057,-63.44,2022-10-26 10:20:46.687500
3058,-36.59,2022-10-26 10:20:46.703125
3059,-6.25,2022-10-26 10:20:46.718750
3060,23.73,2022-10-26 10:20:46.734375
3061,50.41,2022-10-26 10:20:46.750000
3062,72.49,2022-10-26 10:20:46.765625
3063,90.12,2022-10-26 10:20:46.781250
3064,104.32,2022-10-26 10:20:46.796875
3065,116.06,2022-10-26 10:20:46.812500
3066,125.86,2022-10-26 10:20:46.828125
3067,133.7,2022-10-26 10:20:46.843750
3068,139.43,2022-10-26 10:20:46.859375
3069,143.07,2022-10-26 10:20:46.875000
3070,145.01,2022-10-26 10:20:46.890625
3071,145.91,2022-10-26 10:20:46.906250
3072,146.59,2022-10-26 10:20:46.921875
3073,147.95,2022-10-26 10:20:46.937500
3074,150.91,2022-10-26 10:20:46.953125
3075,156.09,2022-10-26 10:20:46.968750
3076,163.45,2022-10-26 10:20:46.984375
3077,171.64,2022-10-26 10:20:47.000000
3078,178.08,2022-10-26 10:20:47.015625
3079,179.44,2022-10-26 10:20:47.031250
3080,172.84,2022-10-26 10:20:47.046875
3081,157.06,2022-10-26 10:20:47.062500
3082,133.31,2022-10-26 10:20:47.078125
3083,104.81,2022-10-26 10:20:47.093750
3084,75.8,2022-10-26 10:20:47.109375
3085,50.01,2022-10-26 10:20:47.125000
3086,29.63,2022-10-26 10:20:47.140625
3087,14.99,2022-10-26 10:20:47.156250
3088,4.88,2022-10-26 10:20:47.171875
3089,-2.71,2022-10-26 10:20:47.187500
3090,-10.01,2022-10-26 10:20:47.203125
3091,-18.96,2022-10-26 10:20:47.218750
3092,-31.07,2022-10-26 10:20:47.234375
3093,-47.15,2022-10-26 10:20:47.250000
3094,-67.15,2022-10-26 10:20:47.265625
3095,-90.11,2022-10-26 10:20:47.281250
3096,-114.23,2022-10-26 10:20:47.296875
3097,-137.27,2022-10-26 10:20:47.312500
3098,-157.06,2022-10-26 10:20:47.328125
3099,-172.02,2022-10-26 10:20:47.343750
3100,-181.36,2022-10-26 10:20:47.359375
3101,-185.32,2022-10-26 10:20:47.375000
3102,-184.77,2022-10-26 10:20:47.390625
3103,-180.9,2022-10-26 10:20:47.406250
3104,-174.9,2022-10-26 10:20:47.421875
3105,-167.65,2022-10-26 10:20:47.437500
3106,-159.78,2022-10-26 10:20:47.453125
3107,-151.82,2022-10-26 10:20:47.468750
3108,-144.5,2022-10-26 10:20:47.484375
3109,-138.7,2022-10-26 10:20:47.500000
3110,-135.29,2022-10-26 10:20:47.515625
3111,-134.48,2022-10-26 10:20:47.531250
3112,-135.36,2022-10-26 10:20:47.546875
3113,-135.79,2022-10-26 10:20:47.562500
3114,-132.84,2022-10-26 10:20:47.578125
3115,-123.81,2022-10-26 10:20:47.593750
3116,-107.26,2022-10-26 10:20:47.609375
3117,-83.62,2022-10-26 10:20:47.625000
3118,-55.16,2022-10-26 10:20:47.640625
3119,-25.18,2022-10-26 10:20:47.656250
3120,2.94,2022-10-26 10:20:47.671875
3121,26.68,2022-10-26 10:20:47.687500
3122,44.75,2022-10-26 10:20:47.703125
3123,57.0,2022-10-26 10:20:47.718750
3124,64.05,2022-10-26 10:20:47.734375
3125,66.78,2022-10-26 10:20:47.750000
3126,66.09,2022-10-26 10:20:47.765625
3127,62.77,2022-10-26 10:20:47.781250
3128,57.69,2022-10-26 10:20:47.796875
3129,51.87,2022-10-26 10:20:47.812500
3130,46.48,2022-10-26 10:20:47.828125
3131,42.65,2022-10-26 10:20:47.843750
3132,41.26,2022-10-26 10:20:47.859375
3133,42.63,2022-10-26 10:20:47.875000
3134,46.42,2022-10-26 10:20:47.890625
3135,51.75,2022-10-26 10:20:47.906250
3136,57.49,2022-10-26 10:20:47.921875
3137,62.63,2022-10-26 10:20:47.937500
3138,66.54,2022-10-26 10:20:47.953125
3139,69.13,2022-10-26 10:20:47.968750
3140,70.63,2022-10-26 10:20:47.984375
3141,71.45,2022-10-26 10:20:48.000000
3142,71.76,2022-10-26 10:20:48.015625
3143,71.48,2022-10-26 10:20:48.031250
3144,70.23,2022-10-26 10:20:48.046875
3145,67.61,2022-10-26 10:20:48.062500
3146,63.44,2022-10-26 10:20:48.078125
3147,58.0,2022-10-26 10:20:48.093750
3148,51.97,2022-10-26 10:20:48.109375
3149,46.14,2022-10-26 10:20:48.125000
3150,41.03,2022-10-26 10:20:48.140625
3151,36.55,2022-10-26 10:20:48.156250
3152,32.09,2022-10-26 10:20:48.171875
3153,26.78,2022-10-26 10:20:48.187500
3154,19.89,2022-10-26 10:20:48.203125
