,BVP,time
0,590.8,2022-10-26 10:20:03.312500
1,499.83,2022-10-26 10:20:03.328125
2,409.9,2022-10-26 10:20:03.343750
3,327.26,2022-10-26 10:20:03.359375
4,256.97,2022-10-26 10:20:03.375000
5,201.42,2022-10-26 10:20:03.390625
6,159.79,2022-10-26 10:20:03.406250
7,127.79,2022-10-26 10:20:03.421875
8,97.87,2022-10-26 10:20:03.437500
9,61.63,2022-10-26 10:20:03.453125
10,12.17,2022-10-26 10:20:03.468750
11,-52.56,2022-10-26 10:20:03.484375
12,-127.29,2022-10-26 10:20:03.500000
13,-199.6,2022-10-26 10:20:03.515625
14,-253.3,2022-10-26 10:20:03.531250
15,-273.92,2022-10-26 10:20:03.546875
16,-254.31,2022-10-26 10:20:03.562500
17,-196.9,2022-10-26 10:20:03.578125
18,-111.99,2022-10-26 10:20:03.593750
19,-13.58,2022-10-26 10:20:03.609375
20,86.78,2022-10-26 10:20:03.625000
21,183.16,2022-10-26 10:20:03.640625
22,273.78,2022-10-26 10:20:03.656250
23,359.1,2022-10-26 10:20:03.671875
24,438.14,2022-10-26 10:20:03.687500
25,507.6,2022-10-26 10:20:03.703125
26,563.68,2022-10-26 10:20:03.718750
27,603.36,2022-10-26 10:20:03.734375
28,625.33,2022-10-26 10:20:03.750000
29,628.4,2022-10-26 10:20:03.765625
30,609.63,2022-10-26 10:20:03.781250
31,564.52,2022-10-26 10:20:03.796875
32,488.87,2022-10-26 10:20:03.812500
33,381.61,2022-10-26 10:20:03.828125
34,247.97,2022-10-26 10:20:03.843750
35,98.88,2022-10-26 10:20:03.859375
36,-52.64,2022-10-26 10:20:03.875000
37,-195.87,2022-10-26 10:20:03.890625
38,-325.41,2022-10-26 10:20:03.906250
39,-440.73,2022-10-26 10:20:03.921875
40,-543.28,2022-10-26 10:20:03.937500
41,-632.48,2022-10-26 10:20:03.953125
42,-704.82,2022-10-26 10:20:03.968750
43,-755.53,2022-10-26 10:20:03.984375
44,-781.79,2022-10-26 10:20:04.000000
45,-784.6,2022-10-26 10:20:04.015625
46,-768.62,2022-10-26 10:20:04.031250
47,-739.25,2022-10-26 10:20:04.046875
48,-699.69,2022-10-26 10:20:04.062500
49,-649.68,2022-10-26 10:20:04.078125
50,-586.19,2022-10-26 10:20:04.093750
51,-507.16,2022-10-26 10:20:04.109375
52,-413.85,2022-10-26 10:20:04.125000
53,-311.17,2022-10-26 10:20:04.140625
54,-206.94,2022-10-26 10:20:04.156250
55,-107.96,2022-10-26 10:20:04.171875
56,-17.17,2022-10-26 10:20:04.187500
57,67.41,2022-10-26 10:20:04.203125
58,150.81,2022-10-26 10:20:04.218750
59,237.94,2022-10-26 10:20:04.234375
60,329.67,2022-10-26 10:20:04.250000
61,419.95,2022-10-26 10:20:04.265625
62,496.45,2022-10-26 10:20:04.281250
63,544.49,2022-10-26 10:20:04.296875
64,553.18,2022-10-26 10:20:04.312500
65,520.6,2022-10-26 10:20:04.328125
66,455.87,2022-10-26 10:20:04.343750
67,375.98,2022-10-26 10:20:04.359375
68,298.68,2022-10-26 10:20:04.375000
69,235.25,2022-10-26 10:20:04.390625
70,187.66,2022-10-26 10:20:04.406250
71,150.12,2022-10-26 10:20:04.421875
72,114.09,2022-10-26 10:20:04.437500
73,74.89,2022-10-26 10:20:04.453125
74,33.46,2022-10-26 10:20:04.468750
75,-5.11,2022-10-26 10:20:04.484375
76,-35.8,2022-10-26 10:20:04.500000
77,-56.33,2022-10-26 10:20:04.515625
78,-67.44,2022-10-26 10:20:04.531250
79,-70.13,2022-10-26 10:20:04.546875
80,-63.1,2022-10-26 10:20:04.562500
81,-42.67,2022-10-26 10:20:04.578125
82,-5.29,2022-10-26 10:20:04.593750
83,48.35,2022-10-26 10:20:04.609375
84,111.12,2022-10-26 10:20:04.625000
85,170.83,2022-10-26 10:20:04.640625
86,214.84,2022-10-26 10:20:04.656250
87,235.23,2022-10-26 10:20:04.671875
88,231.12,2022-10-26 10:20:04.687500
89,208.19,2022-10-26 10:20:04.703125
90,174.91,2022-10-26 10:20:04.718750
91,138.59,2022-10-26 10:20:04.734375
92,102.43,2022-10-26 10:20:04.750000
93,65.06,2022-10-26 10:20:04.765625
94,21.87,2022-10-26 10:20:04.781250
95,-33.05,2022-10-26 10:20:04.796875
96,-104.86,2022-10-26 10:20:04.812500
97,-196.16,2022-10-26 10:20:04.828125
98,-305.79,2022-10-26 10:20:04.843750
99,-427.55,2022-10-26 10:20:04.859375
100,-549.93,2022-10-26 10:20:04.875000
101,-658.1,2022-10-26 10:20:04.890625
102,-737.1,2022-10-26 10:20:04.906250
103,-776.25,2022-10-26 10:20:04.921875
104,-772.95,2022-10-26 10:20:04.937500
105,-732.86,2022-10-26 10:20:04.953125
106,-668.37,2022-10-26 10:20:04.968750
107,-593.53,2022-10-26 10:20:04.984375
108,-518.85,2022-10-26 10:20:05.000000
109,-447.42,2022-10-26 10:20:05.015625
110,-374.89,2022-10-26 10:20:05.031250
111,-292.26,2022-10-26 10:20:05.046875
112,-191.4,2022-10-26 10:20:05.062500
113,-69.99,2022-10-26 10:20:05.078125
114,66.32,2022-10-26 10:20:05.093750
115,205.89,2022-10-26 10:20:05.109375
116,335.42,2022-10-26 10:20:05.125000
117,444.26,2022-10-26 10:20:05.140625
118,526.68,2022-10-26 10:20:05.156250
119,581.89,2022-10-26 10:20:05.171875
120,612.7,2022-10-26 10:20:05.187500
121,623.95,2022-10-26 10:20:05.203125
122,621.83,2022-10-26 10:20:05.218750
123,613.27,2022-10-26 10:20:05.234375
124,603.51,2022-10-26 10:20:05.250000
125,594.26,2022-10-26 10:20:05.265625
126,581.56,2022-10-26 10:20:05.281250
127,557.49,2022-10-26 10:20:05.296875
128,513.81,2022-10-26 10:20:05.312500
129,447.5,2022-10-26 10:20:05.328125
130,362.93,2022-10-26 10:20:05.343750
131,270.35,2022-10-26 10:20:05.359375
132,180.92,2022-10-26 10:20:05.375000
133,102.06,2022-10-26 10:20:05.390625
134,36.04,2022-10-26 10:20:05.406250
135,-17.74,2022-10-26 10:20:05.421875
136,-59.91,2022-10-26 10:20:05.437500
137,-88.1,2022-10-26 10:20:05.453125
138,-99.02,2022-10-26 10:20:05.468750
139,-91.36,2022-10-26 10:20:05.484375
140,-68.34,2022-10-26 10:20:05.500000
141,-37.38,2022-10-26 10:20:05.515625
142,-7.24,2022-10-26 10:20:05.531250
143,15.73,2022-10-26 10:20:05.546875
144,29.79,2022-10-26 10:20:05.562500
145,36.63,2022-10-26 10:20:05.578125
146,37.79,2022-10-26 10:20:05.593750
147,31.93,2022-10-26 10:20:05.609375
148,13.02,2022-10-26 10:20:05.625000
149,-26.2,2022-10-26 10:20:05.640625
150,-90.79,2022-10-26 10:20:05.656250
151,-179.17,2022-10-26 10:20:05.671875
152,-281.92,2022-10-26 10:20:05.687500
153,-385.23,2022-10-26 10:20:05.703125
154,-475.45,2022-10-26 10:20:05.718750
155,-544.58,2022-10-26 10:20:05.734375
156,-593.1,2022-10-26 10:20:05.750000
157,-627.56,2022-10-26 10:20:05.765625
158,-657.03,2022-10-26 10:20:05.781250
159,-687.37,2022-10-26 10:20:05.796875
160,-719.36,2022-10-26 10:20:05.812500
161,-748.59,2022-10-26 10:20:05.828125
162,-768.39,2022-10-26 10:20:05.843750
163,-774.03,2022-10-26 10:20:05.859375
164,-764.35,2022-10-26 10:20:05.875000
165,-741.74,2022-10-26 10:20:05.890625
166,-709.9,2022-10-26 10:20:05.906250
167,-671.54,2022-10-26 10:20:05.921875
168,-627.69,2022-10-26 10:20:05.937500
169,-577.61,2022-10-26 10:20:05.953125
170,-520.53,2022-10-26 10:20:05.968750
171,-456.92,2022-10-26 10:20:05.984375
172,-388.84,2022-10-26 10:20:06.000000
173,-319.41,2022-10-26 10:20:06.015625
174,-251.62,2022-10-26 10:20:06.031250
175,-187.41,2022-10-26 10:20:06.046875
176,-126.99,2022-10-26 10:20:06.062500
177,-69.21,2022-10-26 10:20:06.078125
178,-12.3,2022-10-26 10:20:06.093750
179,45.96,2022-10-26 10:20:06.109375
180,105.84,2022-10-26 10:20:06.125000
181,165.45,2022-10-26 10:20:06.140625
182,220.47,2022-10-26 10:20:06.156250
183,264.39,2022-10-26 10:20:06.171875
184,291.1,2022-10-26 10:20:06.187500
185,296.18,2022-10-26 10:20:06.203125
186,278.76,2022-10-26 10:20:06.218750
187,241.08,2022-10-26 10:20:06.234375
188,187.15,2022-10-26 10:20:06.250000
189,121.98,2022-10-26 10:20:06.265625
190,50.56,2022-10-26 10:20:06.281250
191,-20.56,2022-10-26 10:20:06.296875
192,-83.34,2022-10-26 10:20:06.312500
193,-129.84,2022-10-26 10:20:06.328125
194,-154.83,2022-10-26 10:20:06.343750
195,-158.24,2022-10-26 10:20:06.359375
196,-145.5,2022-10-26 10:20:06.375000
197,-125.36,2022-10-26 10:20:06.390625
198,-104.45,2022-10-26 10:20:06.406250
199,-84.05,2022-10-26 10:20:06.421875
200,-60.27,2022-10-26 10:20:06.437500
201,-26.78,2022-10-26 10:20:06.453125
202,21.05,2022-10-26 10:20:06.468750
203,82.9,2022-10-26 10:20:06.484375
204,154.68,2022-10-26 10:20:06.500000
205,231.12,2022-10-26 10:20:06.515625
206,309.02,2022-10-26 10:20:06.531250
207,387.41,2022-10-26 10:20:06.546875
208,466.47,2022-10-26 10:20:06.562500
209,544.81,2022-10-26 10:20:06.578125
210,617.93,2022-10-26 10:20:06.593750
211,679.51,2022-10-26 10:20:06.609375
212,723.03,2022-10-26 10:20:06.625000
213,743.69,2022-10-26 10:20:06.640625
214,738.56,2022-10-26 10:20:06.656250
215,707.13,2022-10-26 10:20:06.671875
216,651.26,2022-10-26 10:20:06.687500
217,574.52,2022-10-26 10:20:06.703125
218,482.31,2022-10-26 10:20:06.718750
219,380.64,2022-10-26 10:20:06.734375
220,275.18,2022-10-26 10:20:06.750000
221,171.13,2022-10-26 10:20:06.765625
222,72.45,2022-10-26 10:20:06.781250
223,-17.92,2022-10-26 10:20:06.796875
224,-98.94,2022-10-26 10:20:06.812500
225,-172.07,2022-10-26 10:20:06.828125
226,-241.4,2022-10-26 10:20:06.843750
227,-312.39,2022-10-26 10:20:06.859375
228,-388.78,2022-10-26 10:20:06.875000
229,-469.72,2022-10-26 10:20:06.890625
230,-548.52,2022-10-26 10:20:06.906250
231,-613.67,2022-10-26 10:20:06.921875
232,-654.32,2022-10-26 10:20:06.937500
233,-665.34,2022-10-26 10:20:06.953125
234,-649.61,2022-10-26 10:20:06.968750
235,-616.14,2022-10-26 10:20:06.984375
236,-573.31,2022-10-26 10:20:07.000000
237,-524.67,2022-10-26 10:20:07.015625
238,-465.79,2022-10-26 10:20:07.031250
239,-388.16,2022-10-26 10:20:07.046875
240,-285.83,2022-10-26 10:20:07.062500
241,-161.22,2022-10-26 10:20:07.078125
242,-26.43,2022-10-26 10:20:07.093750
243,101.49,2022-10-26 10:20:07.109375
244,207.49,2022-10-26 10:20:07.125000
245,284.76,2022-10-26 10:20:07.140625
246,336.1,2022-10-26 10:20:07.156250
247,370.55,2022-10-26 10:20:07.171875
248,397.58,2022-10-26 10:20:07.187500
249,422.44,2022-10-26 10:20:07.203125
250,444.9,2022-10-26 10:20:07.218750
251,460.35,2022-10-26 10:20:07.234375
252,464.17,2022-10-26 10:20:07.250000
253,454.63,2022-10-26 10:20:07.265625
254,433.8,2022-10-26 10:20:07.281250
255,407.13,2022-10-26 10:20:07.296875
256,380.15,2022-10-26 10:20:07.312500
257,356.2,2022-10-26 10:20:07.328125
258,334.44,2022-10-26 10:20:07.343750
259,310.75,2022-10-26 10:20:07.359375
260,280.42,2022-10-26 10:20:07.375000
261,241.97,2022-10-26 10:20:07.390625
262,199.22,2022-10-26 10:20:07.406250
263,161.07,2022-10-26 10:20:07.421875
264,137.35,2022-10-26 10:20:07.437500
265,134.26,2022-10-26 10:20:07.453125
266,150.57,2022-10-26 10:20:07.468750
267,177.58,2022-10-26 10:20:07.484375
268,204.47,2022-10-26 10:20:07.500000
269,222.14,2022-10-26 10:20:07.515625
270,228.32,2022-10-26 10:20:07.531250
271,228.2,2022-10-26 10:20:07.546875
272,231.92,2022-10-26 10:20:07.562500
273,249.17,2022-10-26 10:20:07.578125
274,283.61,2022-10-26 10:20:07.593750
275,329.59,2022-10-26 10:20:07.609375
276,373.63,2022-10-26 10:20:07.625000
277,398.83,2022-10-26 10:20:07.640625
278,392.14,2022-10-26 10:20:07.656250
279,350.29,2022-10-26 10:20:07.671875
280,281.08,2022-10-26 10:20:07.687500
281,200.16,2022-10-26 10:20:07.703125
282,125.26,2022-10-26 10:20:07.718750
283,70.28,2022-10-26 10:20:07.734375
284,42.38,2022-10-26 10:20:07.750000
285,42.33,2022-10-26 10:20:07.765625
286,66.74,2022-10-26 10:20:07.781250
287,111.2,2022-10-26 10:20:07.796875
288,171.5,2022-10-26 10:20:07.812500
289,243.75,2022-10-26 10:20:07.828125
290,322.86,2022-10-26 10:20:07.843750
291,401.26,2022-10-26 10:20:07.859375
292,469.77,2022-10-26 10:20:07.875000
293,519.05,2022-10-26 10:20:07.890625
294,542.74,2022-10-26 10:20:07.906250
295,539.5,2022-10-26 10:20:07.921875
296,511.93,2022-10-26 10:20:07.937500
297,464.03,2022-10-26 10:20:07.953125
298,396.74,2022-10-26 10:20:07.968750
299,305.23,2022-10-26 10:20:07.984375
300,180.97,2022-10-26 10:20:08.000000
301,16.89,2022-10-26 10:20:08.015625
302,-186.53,2022-10-26 10:20:08.031250
303,-417.75,2022-10-26 10:20:08.046875
304,-655.74,2022-10-26 10:20:08.062500
305,-875.95,2022-10-26 10:20:08.078125
306,-1060.35,2022-10-26 10:20:08.093750
307,-1200.56,2022-10-26 10:20:08.109375
308,-1296.87,2022-10-26 10:20:08.125000
309,-1354.3,2022-10-26 10:20:08.140625
310,-1377.66,2022-10-26 10:20:08.156250
311,-1369.44,2022-10-26 10:20:08.171875
312,-1331.09,2022-10-26 10:20:08.187500
313,-1265.54,2022-10-26 10:20:08.203125
314,-1178.92,2022-10-26 10:20:08.218750
315,-1078.77,2022-10-26 10:20:08.234375
316,-971.17,2022-10-26 10:20:08.250000
317,-858.69,2022-10-26 10:20:08.265625
318,-740.55,2022-10-26 10:20:08.281250
319,-615.86,2022-10-26 10:20:08.296875
320,-487.28,2022-10-26 10:20:08.312500
321,-362.9,2022-10-26 10:20:08.328125
322,-254.05,2022-10-26 10:20:08.343750
323,-170.56,2022-10-26 10:20:08.359375
324,-115.7,2022-10-26 10:20:08.375000
325,-85.0,2022-10-26 10:20:08.390625
326,-69.4,2022-10-26 10:20:08.406250
327,-60.5,2022-10-26 10:20:08.421875
328,-54.55,2022-10-26 10:20:08.437500
329,-52.23,2022-10-26 10:20:08.453125
330,-55.05,2022-10-26 10:20:08.468750
331,-61.33,2022-10-26 10:20:08.484375
332,-64.87,2022-10-26 10:20:08.500000
333,-57.62,2022-10-26 10:20:08.515625
334,-34.03,2022-10-26 10:20:08.531250
335,5.42,2022-10-26 10:20:08.546875
336,54.75,2022-10-26 10:20:08.562500
337,106.91,2022-10-26 10:20:08.578125
338,157.53,2022-10-26 10:20:08.593750
339,205.62,2022-10-26 10:20:08.609375
340,251.52,2022-10-26 10:20:08.625000
341,293.9,2022-10-26 10:20:08.640625
342,328.99,2022-10-26 10:20:08.656250
343,352.52,2022-10-26 10:20:08.671875
344,363.73,2022-10-26 10:20:08.687500
345,366.71,2022-10-26 10:20:08.703125
346,368.54,2022-10-26 10:20:08.718750
347,374.35,2022-10-26 10:20:08.734375
348,383.63,2022-10-26 10:20:08.750000
349,390.54,2022-10-26 10:20:08.765625
350,386.73,2022-10-26 10:20:08.781250
351,365.9,2022-10-26 10:20:08.796875
352,327.03,2022-10-26 10:20:08.812500
353,274.52,2022-10-26 10:20:08.828125
354,215.58,2022-10-26 10:20:08.843750
355,158.42,2022-10-26 10:20:08.859375
356,110.22,2022-10-26 10:20:08.875000
357,76.99,2022-10-26 10:20:08.890625
358,62.58,2022-10-26 10:20:08.906250
359,68.44,2022-10-26 10:20:08.921875
360,94.21,2022-10-26 10:20:08.937500
361,137.66,2022-10-26 10:20:08.953125
362,195.51,2022-10-26 10:20:08.968750
363,263.88,2022-10-26 10:20:08.984375
364,336.83,2022-10-26 10:20:09.000000
365,405.87,2022-10-26 10:20:09.015625
366,461.64,2022-10-26 10:20:09.031250
367,495.75,2022-10-26 10:20:09.046875
368,504.38,2022-10-26 10:20:09.062500
369,488.84,2022-10-26 10:20:09.078125
370,454.39,2022-10-26 10:20:09.093750
371,406.8,2022-10-26 10:20:09.109375
372,348.73,2022-10-26 10:20:09.125000
373,278.99,2022-10-26 10:20:09.140625
374,195.34,2022-10-26 10:20:09.156250
375,98.24,2022-10-26 10:20:09.171875
376,-6.92,2022-10-26 10:20:09.187500
377,-110.4,2022-10-26 10:20:09.203125
378,-201.26,2022-10-26 10:20:09.218750
379,-270.78,2022-10-26 10:20:09.234375
380,-315.43,2022-10-26 10:20:09.250000
381,-335.71,2022-10-26 10:20:09.265625
382,-333.97,2022-10-26 10:20:09.281250
383,-313.29,2022-10-26 10:20:09.296875
384,-276.2,2022-10-26 10:20:09.312500
385,-225.91,2022-10-26 10:20:09.328125
386,-167.02,2022-10-26 10:20:09.343750
387,-105.56,2022-10-26 10:20:09.359375
388,-48.8,2022-10-26 10:20:09.375000
389,-3.06,2022-10-26 10:20:09.390625
390,27.44,2022-10-26 10:20:09.406250
391,41.65,2022-10-26 10:20:09.421875
392,41.71,2022-10-26 10:20:09.437500
393,31.58,2022-10-26 10:20:09.453125
394,15.53,2022-10-26 10:20:09.468750
395,-2.56,2022-10-26 10:20:09.484375
396,-20.03,2022-10-26 10:20:09.500000
397,-35.42,2022-10-26 10:20:09.515625
398,-47.18,2022-10-26 10:20:09.531250
399,-53.8,2022-10-26 10:20:09.546875
400,-52.96,2022-10-26 10:20:09.562500
401,-41.87,2022-10-26 10:20:09.578125
402,-18.1,2022-10-26 10:20:09.593750
403,19.32,2022-10-26 10:20:09.609375
404,69.78,2022-10-26 10:20:09.625000
405,130.64,2022-10-26 10:20:09.640625
406,197.6,2022-10-26 10:20:09.656250
407,265.94,2022-10-26 10:20:09.671875
408,330.94,2022-10-26 10:20:09.687500
409,388.71,2022-10-26 10:20:09.703125
410,435.94,2022-10-26 10:20:09.718750
411,469.97,2022-10-26 10:20:09.734375
412,488.62,2022-10-26 10:20:09.750000
413,490.36,2022-10-26 10:20:09.765625
414,475.88,2022-10-26 10:20:09.781250
415,447.48,2022-10-26 10:20:09.796875
416,409.35,2022-10-26 10:20:09.812500
417,364.55,2022-10-26 10:20:09.828125
418,313.97,2022-10-26 10:20:09.843750
419,255.1,2022-10-26 10:20:09.859375
420,184.48,2022-10-26 10:20:09.875000
421,101.63,2022-10-26 10:20:09.890625
422,10.65,2022-10-26 10:20:09.906250
423,-79.57,2022-10-26 10:20:09.921875
424,-159.68,2022-10-26 10:20:09.937500
425,-224.1,2022-10-26 10:20:09.953125
426,-273.86,2022-10-26 10:20:09.968750
427,-315.23,2022-10-26 10:20:09.984375
428,-354.2,2022-10-26 10:20:10.000000
429,-392.15,2022-10-26 10:20:10.015625
430,-422.91,2022-10-26 10:20:10.031250
431,-435.54,2022-10-26 10:20:10.046875
432,-420.26,2022-10-26 10:20:10.062500
433,-374.3,2022-10-26 10:20:10.078125
434,-304.56,2022-10-26 10:20:10.093750
435,-225.3,2022-10-26 10:20:10.109375
436,-152.92,2022-10-26 10:20:10.125000
437,-100.44,2022-10-26 10:20:10.140625
438,-72.89,2022-10-26 10:20:10.156250
439,-67.17,2022-10-26 10:20:10.171875
440,-75.01,2022-10-26 10:20:10.187500
441,-87.0,2022-10-26 10:20:10.203125
442,-97.08,2022-10-26 10:20:10.218750
443,-104.51,2022-10-26 10:20:10.234375
444,-113.06,2022-10-26 10:20:10.250000
445,-128.17,2022-10-26 10:20:10.265625
446,-152.71,2022-10-26 10:20:10.281250
447,-185.4,2022-10-26 10:20:10.296875
448,-220.59,2022-10-26 10:20:10.312500
449,-251.58,2022-10-26 10:20:10.328125
450,-273.01,2022-10-26 10:20:10.343750
451,-283.45,2022-10-26 10:20:10.359375
452,-285.27,2022-10-26 10:20:10.375000
453,-282.69,2022-10-26 10:20:10.390625
454,-279.43,2022-10-26 10:20:10.406250
455,-276.3,2022-10-26 10:20:10.421875
456,-271.42,2022-10-26 10:20:10.437500
457,-261.62,2022-10-26 10:20:10.453125
458,-244.53,2022-10-26 10:20:10.468750
459,-220.25,2022-10-26 10:20:10.484375
460,-191.04,2022-10-26 10:20:10.500000
461,-160.29,2022-10-26 10:20:10.515625
462,-130.06,2022-10-26 10:20:10.531250
463,-99.03,2022-10-26 10:20:10.546875
464,-61.72,2022-10-26 10:20:10.562500
465,-10.67,2022-10-26 10:20:10.578125
466,59.65,2022-10-26 10:20:10.593750
467,147.81,2022-10-26 10:20:10.609375
468,244.25,2022-10-26 10:20:10.625000
469,332.84,2022-10-26 10:20:10.640625
470,398.01,2022-10-26 10:20:10.656250
471,430.88,2022-10-26 10:20:10.671875
472,432.52,2022-10-26 10:20:10.687500
473,411.62,2022-10-26 10:20:10.703125
474,377.62,2022-10-26 10:20:10.718750
475,335.79,2022-10-26 10:20:10.734375
476,285.02,2022-10-26 10:20:10.750000
477,219.79,2022-10-26 10:20:10.765625
478,136.37,2022-10-26 10:20:10.781250
479,37.51,2022-10-26 10:20:10.796875
480,-66.73,2022-10-26 10:20:10.812500
481,-161.62,2022-10-26 10:20:10.828125
482,-233.03,2022-10-26 10:20:10.843750
483,-272.36,2022-10-26 10:20:10.859375
484,-278.85,2022-10-26 10:20:10.875000
485,-258.76,2022-10-26 10:20:10.890625
486,-222.16,2022-10-26 10:20:10.906250
487,-179.28,2022-10-26 10:20:10.921875
488,-136.63,2022-10-26 10:20:10.937500
489,-95.68,2022-10-26 10:20:10.953125
490,-54.2,2022-10-26 10:20:10.968750
491,-8.62,2022-10-26 10:20:10.984375
492,42.68,2022-10-26 10:20:11.000000
493,97.51,2022-10-26 10:20:11.015625
494,151.43,2022-10-26 10:20:11.031250
495,200.7,2022-10-26 10:20:11.046875
496,245.89,2022-10-26 10:20:11.062500
497,292.01,2022-10-26 10:20:11.078125
498,346.17,2022-10-26 10:20:11.093750
499,411.11,2022-10-26 10:20:11.109375
500,481.4,2022-10-26 10:20:11.125000
501,542.44,2022-10-26 10:20:11.140625
502,576.43,2022-10-26 10:20:11.156250
503,570.53,2022-10-26 10:20:11.171875
504,523.94,2022-10-26 10:20:11.187500
505,449.25,2022-10-26 10:20:11.203125
506,366.13,2022-10-26 10:20:11.218750
507,290.92,2022-10-26 10:20:11.234375
508,229.7,2022-10-26 10:20:11.250000
509,177.02,2022-10-26 10:20:11.265625
510,121.18,2022-10-26 10:20:11.281250
511,53.54,2022-10-26 10:20:11.296875
512,-25.26,2022-10-26 10:20:11.312500
513,-105.05,2022-10-26 10:20:11.328125
514,-171.7,2022-10-26 10:20:11.343750
515,-214.47,2022-10-26 10:20:11.359375
516,-231.29,2022-10-26 10:20:11.375000
517,-228.72,2022-10-26 10:20:11.390625
518,-217.65,2022-10-26 10:20:11.406250
519,-208.5,2022-10-26 10:20:11.421875
520,-206.64,2022-10-26 10:20:11.437500
521,-212.66,2022-10-26 10:20:11.453125
522,-223.24,2022-10-26 10:20:11.468750
523,-233.22,2022-10-26 10:20:11.484375
524,-237.14,2022-10-26 10:20:11.500000
525,-230.37,2022-10-26 10:20:11.515625
526,-209.99,2022-10-26 10:20:11.531250
527,-175.88,2022-10-26 10:20:11.546875
528,-130.57,2022-10-26 10:20:11.562500
529,-78.31,2022-10-26 10:20:11.578125
530,-22.63,2022-10-26 10:20:11.593750
531,35.43,2022-10-26 10:20:11.609375
532,97.45,2022-10-26 10:20:11.625000
533,165.15,2022-10-26 10:20:11.640625
534,237.01,2022-10-26 10:20:11.656250
535,306.37,2022-10-26 10:20:11.671875
536,362.56,2022-10-26 10:20:11.687500
537,394.56,2022-10-26 10:20:11.703125
538,396.83,2022-10-26 10:20:11.718750
539,372.71,2022-10-26 10:20:11.734375
540,331.82,2022-10-26 10:20:11.750000
541,285.99,2022-10-26 10:20:11.765625
542,243.24,2022-10-26 10:20:11.781250
543,204.39,2022-10-26 10:20:11.796875
544,164.81,2022-10-26 10:20:11.812500
545,118.4,2022-10-26 10:20:11.828125
546,62.63,2022-10-26 10:20:11.843750
547,0.83,2022-10-26 10:20:11.859375
548,-59.19,2022-10-26 10:20:11.875000
549,-108.88,2022-10-26 10:20:11.890625
550,-142.61,2022-10-26 10:20:11.906250
551,-160.58,2022-10-26 10:20:11.921875
552,-167.15,2022-10-26 10:20:11.937500
553,-169.7,2022-10-26 10:20:11.953125
554,-175.4,2022-10-26 10:20:11.968750
555,-189.06,2022-10-26 10:20:11.984375
556,-212.46,2022-10-26 10:20:12.000000
557,-243.99,2022-10-26 10:20:12.015625
558,-279.69,2022-10-26 10:20:12.031250
559,-313.85,2022-10-26 10:20:12.046875
560,-339.84,2022-10-26 10:20:12.062500
561,-351.34,2022-10-26 10:20:12.078125
562,-343.07,2022-10-26 10:20:12.093750
563,-311.76,2022-10-26 10:20:12.109375
564,-258.45,2022-10-26 10:20:12.125000
565,-189.06,2022-10-26 10:20:12.140625
566,-113.58,2022-10-26 10:20:12.156250
567,-44.66,2022-10-26 10:20:12.171875
568,6.7,2022-10-26 10:20:12.187500
569,35.4,2022-10-26 10:20:12.203125
570,42.54,2022-10-26 10:20:12.218750
571,35.7,2022-10-26 10:20:12.234375
572,24.93,2022-10-26 10:20:12.250000
573,20.28,2022-10-26 10:20:12.265625
574,29.02,2022-10-26 10:20:12.281250
575,54.5,2022-10-26 10:20:12.296875
576,95.94,2022-10-26 10:20:12.312500
577,147.91,2022-10-26 10:20:12.328125
578,200.4,2022-10-26 10:20:12.343750
579,241.48,2022-10-26 10:20:12.359375
580,260.46,2022-10-26 10:20:12.375000
581,251.75,2022-10-26 10:20:12.390625
582,216.01,2022-10-26 10:20:12.406250
583,159.27,2022-10-26 10:20:12.421875
584,90.36,2022-10-26 10:20:12.437500
585,17.11,2022-10-26 10:20:12.453125
586,-53.62,2022-10-26 10:20:12.468750
587,-116.44,2022-10-26 10:20:12.484375
588,-167.07,2022-10-26 10:20:12.500000
589,-202.68,2022-10-26 10:20:12.515625
590,-223.02,2022-10-26 10:20:12.531250
591,-230.55,2022-10-26 10:20:12.546875
592,-228.76,2022-10-26 10:20:12.562500
593,-220.09,2022-10-26 10:20:12.578125
594,-204.67,2022-10-26 10:20:12.593750
595,-180.7,2022-10-26 10:20:12.609375
596,-147.51,2022-10-26 10:20:12.625000
597,-108.39,2022-10-26 10:20:12.640625
598,-69.87,2022-10-26 10:20:12.656250
599,-39.74,2022-10-26 10:20:12.671875
600,-23.6,2022-10-26 10:20:12.687500
601,-21.85,2022-10-26 10:20:12.703125
602,-30.62,2022-10-26 10:20:12.718750
603,-43.46,2022-10-26 10:20:12.734375
604,-54.03,2022-10-26 10:20:12.750000
605,-57.95,2022-10-26 10:20:12.765625
606,-53.05,2022-10-26 10:20:12.781250
607,-38.82,2022-10-26 10:20:12.796875
608,-16.27,2022-10-26 10:20:12.812500
609,12.04,2022-10-26 10:20:12.828125
610,42.37,2022-10-26 10:20:12.843750
611,70.6,2022-10-26 10:20:12.859375
612,93.32,2022-10-26 10:20:12.875000
613,110.65,2022-10-26 10:20:12.890625
614,126.5,2022-10-26 10:20:12.906250
615,148.16,2022-10-26 10:20:12.921875
616,184.39,2022-10-26 10:20:12.937500
617,240.5,2022-10-26 10:20:12.953125
618,316.9,2022-10-26 10:20:12.968750
619,407.87,2022-10-26 10:20:12.984375
620,503.62,2022-10-26 10:20:13.000000
621,593.49,2022-10-26 10:20:13.015625
622,668.95,2022-10-26 10:20:13.031250
623,724.62,2022-10-26 10:20:13.046875
624,757.69,2022-10-26 10:20:13.062500
625,766.91,2022-10-26 10:20:13.078125
626,752.43,2022-10-26 10:20:13.093750
627,716.18,2022-10-26 10:20:13.109375
628,662.74,2022-10-26 10:20:13.125000
629,599.4,2022-10-26 10:20:13.140625
630,535.11,2022-10-26 10:20:13.156250
631,476.55,2022-10-26 10:20:13.171875
632,425.22,2022-10-26 10:20:13.187500
633,377.43,2022-10-26 10:20:13.203125
634,326.53,2022-10-26 10:20:13.218750
635,266.47,2022-10-26 10:20:13.234375
636,195.95,2022-10-26 10:20:13.250000
637,118.28,2022-10-26 10:20:13.265625
638,38.44,2022-10-26 10:20:13.281250
639,-41.38,2022-10-26 10:20:13.296875
640,-124.53,2022-10-26 10:20:13.312500
641,-218.69,2022-10-26 10:20:13.328125
642,-331.15,2022-10-26 10:20:13.343750
643,-462.5,2022-10-26 10:20:13.359375
644,-604.05,2022-10-26 10:20:13.375000
645,-739.89,2022-10-26 10:20:13.390625
646,-853.3,2022-10-26 10:20:13.406250
647,-934.24,2022-10-26 10:20:13.421875
648,-981.37,2022-10-26 10:20:13.437500
649,-1001.62,2022-10-26 10:20:13.453125
650,-1004.57,2022-10-26 10:20:13.468750
651,-997.57,2022-10-26 10:20:13.484375
652,-983.12,2022-10-26 10:20:13.500000
653,-960.73,2022-10-26 10:20:13.515625
654,-929.01,2022-10-26 10:20:13.531250
655,-888.32,2022-10-26 10:20:13.546875
656,-841.07,2022-10-26 10:20:13.562500
657,-791.0,2022-10-26 10:20:13.578125
658,-740.89,2022-10-26 10:20:13.593750
659,-691.75,2022-10-26 10:20:13.609375
660,-644.21,2022-10-26 10:20:13.625000
661,-600.07,2022-10-26 10:20:13.640625
662,-562.41,2022-10-26 10:20:13.656250
663,-534.41,2022-10-26 10:20:13.671875
664,-517.11,2022-10-26 10:20:13.687500
665,-508.34,2022-10-26 10:20:13.703125
666,-502.46,2022-10-26 10:20:13.718750
667,-492.56,2022-10-26 10:20:13.734375
668,-473.45,2022-10-26 10:20:13.750000
669,-443.54,2022-10-26 10:20:13.765625
670,-403.53,2022-10-26 10:20:13.781250
671,-354.9,2022-10-26 10:20:13.796875
672,-298.24,2022-10-26 10:20:13.812500
673,-232.52,2022-10-26 10:20:13.828125
674,-157.22,2022-10-26 10:20:13.843750
675,-74.16,2022-10-26 10:20:13.859375
676,11.97,2022-10-26 10:20:13.875000
677,95.59,2022-10-26 10:20:13.890625
678,173.81,2022-10-26 10:20:13.906250
679,247.63,2022-10-26 10:20:13.921875
680,322.02,2022-10-26 10:20:13.937500
681,402.4,2022-10-26 10:20:13.953125
682,490.62,2022-10-26 10:20:13.968750
683,582.38,2022-10-26 10:20:13.984375
684,669.18,2022-10-26 10:20:14.000000
685,740.59,2022-10-26 10:20:14.015625
686,788.8,2022-10-26 10:20:14.031250
687,810.63,2022-10-26 10:20:14.046875
688,807.03,2022-10-26 10:20:14.062500
689,781.03,2022-10-26 10:20:14.078125
690,735.47,2022-10-26 10:20:14.093750
691,673.09,2022-10-26 10:20:14.109375
692,597.33,2022-10-26 10:20:14.125000
693,514.6,2022-10-26 10:20:14.140625
694,434.1,2022-10-26 10:20:14.156250
695,365.23,2022-10-26 10:20:14.171875
696,314.92,2022-10-26 10:20:14.187500
697,284.02,2022-10-26 10:20:14.203125
698,267.45,2022-10-26 10:20:14.218750
699,256.95,2022-10-26 10:20:14.234375
700,245.13,2022-10-26 10:20:14.250000
701,227.99,2022-10-26 10:20:14.265625
702,205.8,2022-10-26 10:20:14.281250
703,181.05,2022-10-26 10:20:14.296875
704,156.71,2022-10-26 10:20:14.312500
705,134.5,2022-10-26 10:20:14.328125
706,115.37,2022-10-26 10:20:14.343750
707,100.19,2022-10-26 10:20:14.359375
708,89.64,2022-10-26 10:20:14.375000
709,84.21,2022-10-26 10:20:14.390625
710,83.22,2022-10-26 10:20:14.406250
711,86.22,2022-10-26 10:20:14.421875
712,93.51,2022-10-26 10:20:14.437500
713,106.38,2022-10-26 10:20:14.453125
714,126.54,2022-10-26 10:20:14.468750
715,152.49,2022-10-26 10:20:14.484375
716,179.7,2022-10-26 10:20:14.500000
717,200.88,2022-10-26 10:20:14.515625
718,210.13,2022-10-26 10:20:14.531250
719,206.38,2022-10-26 10:20:14.546875
720,193.07,2022-10-26 10:20:14.562500
721,175.18,2022-10-26 10:20:14.578125
722,154.5,2022-10-26 10:20:14.593750
723,127.45,2022-10-26 10:20:14.609375
724,86.62,2022-10-26 10:20:14.625000
725,26.34,2022-10-26 10:20:14.640625
726,-52.14,2022-10-26 10:20:14.656250
727,-138.96,2022-10-26 10:20:14.671875
728,-219.38,2022-10-26 10:20:14.687500
729,-280.19,2022-10-26 10:20:14.703125
730,-315.4,2022-10-26 10:20:14.718750
731,-327.94,2022-10-26 10:20:14.734375
732,-326.28,2022-10-26 10:20:14.750000
733,-319.76,2022-10-26 10:20:14.765625
734,-314.47,2022-10-26 10:20:14.781250
735,-312.14,2022-10-26 10:20:14.796875
736,-310.92,2022-10-26 10:20:14.812500
737,-307.37,2022-10-26 10:20:14.828125
738,-298.49,2022-10-26 10:20:14.843750
739,-282.25,2022-10-26 10:20:14.859375
740,-258.93,2022-10-26 10:20:14.875000
741,-229.71,2022-10-26 10:20:14.890625
742,-197.05,2022-10-26 10:20:14.906250
743,-163.07,2022-10-26 10:20:14.921875
744,-129.75,2022-10-26 10:20:14.937500
745,-99.23,2022-10-26 10:20:14.953125
746,-73.61,2022-10-26 10:20:14.968750
747,-54.96,2022-10-26 10:20:14.984375
748,-42.93,2022-10-26 10:20:15.000000
749,-34.34,2022-10-26 10:20:15.015625
750,-23.67,2022-10-26 10:20:15.031250
751,-5.59,2022-10-26 10:20:15.046875
752,22.47,2022-10-26 10:20:15.062500
753,57.58,2022-10-26 10:20:15.078125
754,91.96,2022-10-26 10:20:15.093750
755,116.69,2022-10-26 10:20:15.109375
756,126.35,2022-10-26 10:20:15.125000
757,122.42,2022-10-26 10:20:15.140625
758,112.87,2022-10-26 10:20:15.156250
759,108.44,2022-10-26 10:20:15.171875
760,116.52,2022-10-26 10:20:15.187500
761,137.72,2022-10-26 10:20:15.203125
762,165.41,2022-10-26 10:20:15.218750
763,189.94,2022-10-26 10:20:15.234375
764,204.4,2022-10-26 10:20:15.250000
765,207.95,2022-10-26 10:20:15.265625
766,205.71,2022-10-26 10:20:15.281250
767,204.06,2022-10-26 10:20:15.296875
768,205.28,2022-10-26 10:20:15.312500
769,205.03,2022-10-26 10:20:15.328125
770,193.64,2022-10-26 10:20:15.343750
771,162.05,2022-10-26 10:20:15.359375
772,106.66,2022-10-26 10:20:15.375000
773,31.48,2022-10-26 10:20:15.390625
774,-54.36,2022-10-26 10:20:15.406250
775,-141.69,2022-10-26 10:20:15.421875
776,-225.27,2022-10-26 10:20:15.437500
777,-303.99,2022-10-26 10:20:15.453125
778,-377.48,2022-10-26 10:20:15.468750
779,-441.58,2022-10-26 10:20:15.484375
780,-486.11,2022-10-26 10:20:15.500000
781,-497.72,2022-10-26 10:20:15.515625
782,-466.01,2022-10-26 10:20:15.531250
783,-390.46,2022-10-26 10:20:15.546875
784,-282.1,2022-10-26 10:20:15.562500
785,-160.85,2022-10-26 10:20:15.578125
786,-48.85,2022-10-26 10:20:15.593750
787,38.48,2022-10-26 10:20:15.609375
788,96.82,2022-10-26 10:20:15.625000
789,133.11,2022-10-26 10:20:15.640625
790,161.6,2022-10-26 10:20:15.656250
791,196.5,2022-10-26 10:20:15.671875
792,246.61,2022-10-26 10:20:15.687500
793,312.03,2022-10-26 10:20:15.703125
794,384.67,2022-10-26 10:20:15.718750
795,452.5,2022-10-26 10:20:15.734375
796,503.7,2022-10-26 10:20:15.750000
797,530.9,2022-10-26 10:20:15.765625
798,533.56,2022-10-26 10:20:15.781250
799,517.22,2022-10-26 10:20:15.796875
800,491.25,2022-10-26 10:20:15.812500
801,463.9,2022-10-26 10:20:15.828125
802,438.53,2022-10-26 10:20:15.843750
803,411.72,2022-10-26 10:20:15.859375
804,374.88,2022-10-26 10:20:15.875000
805,319.99,2022-10-26 10:20:15.890625
806,245.29,2022-10-26 10:20:15.906250
807,158.0,2022-10-26 10:20:15.921875
808,72.58,2022-10-26 10:20:15.937500
809,5.16,2022-10-26 10:20:15.953125
810,-34.29,2022-10-26 10:20:15.968750
811,-46.73,2022-10-26 10:20:15.984375
812,-42.74,2022-10-26 10:20:16.000000
813,-36.78,2022-10-26 10:20:16.015625
814,-39.35,2022-10-26 10:20:16.031250
815,-52.62,2022-10-26 10:20:16.046875
816,-71.21,2022-10-26 10:20:16.062500
817,-87.6,2022-10-26 10:20:16.078125
818,-99.42,2022-10-26 10:20:16.093750
819,-112.11,2022-10-26 10:20:16.109375
820,-136.23,2022-10-26 10:20:16.125000
821,-181.11,2022-10-26 10:20:16.140625
822,-247.62,2022-10-26 10:20:16.156250
823,-327.67,2022-10-26 10:20:16.171875
824,-406.91,2022-10-26 10:20:16.187500
825,-472.3,2022-10-26 10:20:16.203125
826,-517.8,2022-10-26 10:20:16.218750
827,-544.34,2022-10-26 10:20:16.234375
828,-556.66,2022-10-26 10:20:16.250000
829,-557.8,2022-10-26 10:20:16.265625
830,-547.58,2022-10-26 10:20:16.281250
831,-524.45,2022-10-26 10:20:16.296875
832,-488.55,2022-10-26 10:20:16.312500
833,-444.74,2022-10-26 10:20:16.328125
834,-400.49,2022-10-26 10:20:16.343750
835,-361.89,2022-10-26 10:20:16.359375
836,-330.65,2022-10-26 10:20:16.375000
837,-303.81,2022-10-26 10:20:16.390625
838,-276.31,2022-10-26 10:20:16.406250
839,-244.97,2022-10-26 10:20:16.421875
840,-211.16,2022-10-26 10:20:16.437500
841,-179.97,2022-10-26 10:20:16.453125
842,-156.34,2022-10-26 10:20:16.468750
843,-141.78,2022-10-26 10:20:16.484375
844,-132.69,2022-10-26 10:20:16.500000
845,-121.63,2022-10-26 10:20:16.515625
846,-100.8,2022-10-26 10:20:16.531250
847,-64.7,2022-10-26 10:20:16.546875
848,-12.4,2022-10-26 10:20:16.562500
849,53.56,2022-10-26 10:20:16.578125
850,127.8,2022-10-26 10:20:16.593750
851,203.72,2022-10-26 10:20:16.609375
852,275.6,2022-10-26 10:20:16.625000
853,338.21,2022-10-26 10:20:16.640625
854,387.88,2022-10-26 10:20:16.656250
855,421.55,2022-10-26 10:20:16.671875
856,437.89,2022-10-26 10:20:16.687500
857,437.41,2022-10-26 10:20:16.703125
858,423.23,2022-10-26 10:20:16.718750
859,400.5,2022-10-26 10:20:16.734375
860,373.8,2022-10-26 10:20:16.750000
861,345.66,2022-10-26 10:20:16.765625
862,315.39,2022-10-26 10:20:16.781250
863,280.43,2022-10-26 10:20:16.796875
864,239.14,2022-10-26 10:20:16.812500
865,192.46,2022-10-26 10:20:16.828125
866,143.79,2022-10-26 10:20:16.843750
867,97.14,2022-10-26 10:20:16.859375
868,55.61,2022-10-26 10:20:16.875000
869,20.35,2022-10-26 10:20:16.890625
870,-8.11,2022-10-26 10:20:16.906250
871,-28.47,2022-10-26 10:20:16.921875
872,-38.29,2022-10-26 10:20:16.937500
873,-36.2,2022-10-26 10:20:16.953125
874,-24.1,2022-10-26 10:20:16.968750
875,-7.47,2022-10-26 10:20:16.984375
876,6.54,2022-10-26 10:20:17.000000
877,14.17,2022-10-26 10:20:17.015625
878,18.27,2022-10-26 10:20:17.031250
879,27.52,2022-10-26 10:20:17.046875
880,50.83,2022-10-26 10:20:17.062500
881,91.85,2022-10-26 10:20:17.078125
882,146.37,2022-10-26 10:20:17.093750
883,203.78,2022-10-26 10:20:17.109375
884,253.34,2022-10-26 10:20:17.125000
885,289.08,2022-10-26 10:20:17.140625
886,311.21,2022-10-26 10:20:17.156250
887,322.81,2022-10-26 10:20:17.171875
888,325.37,2022-10-26 10:20:17.187500
889,315.53,2022-10-26 10:20:17.203125
890,287.46,2022-10-26 10:20:17.218750
891,238.31,2022-10-26 10:20:17.234375
892,172.09,2022-10-26 10:20:17.250000
893,100.5,2022-10-26 10:20:17.265625
894,38.46,2022-10-26 10:20:17.281250
895,-2.7,2022-10-26 10:20:17.296875
896,-20.09,2022-10-26 10:20:17.312500
897,-19.46,2022-10-26 10:20:17.328125
898,-10.92,2022-10-26 10:20:17.343750
899,-3.7,2022-10-26 10:20:17.359375
900,-2.49,2022-10-26 10:20:17.375000
901,-7.62,2022-10-26 10:20:17.390625
902,-17.25,2022-10-26 10:20:17.406250
903,-31.52,2022-10-26 10:20:17.421875
904,-54.49,2022-10-26 10:20:17.437500
905,-92.93,2022-10-26 10:20:17.453125
906,-152.49,2022-10-26 10:20:17.468750
907,-233.48,2022-10-26 10:20:17.484375
908,-327.98,2022-10-26 10:20:17.500000
909,-421.65,2022-10-26 10:20:17.515625
910,-499.0,2022-10-26 10:20:17.531250
911,-549.23,2022-10-26 10:20:17.546875
912,-570.81,2022-10-26 10:20:17.562500
913,-570.7,2022-10-26 10:20:17.578125
914,-558.49,2022-10-26 10:20:17.593750
915,-539.97,2022-10-26 10:20:17.609375
916,-512.52,2022-10-26 10:20:17.625000
917,-467.93,2022-10-26 10:20:17.640625
918,-398.54,2022-10-26 10:20:17.656250
919,-304.18,2022-10-26 10:20:17.671875
920,-194.54,2022-10-26 10:20:17.687500
921,-86.28,2022-10-26 10:20:17.703125
922,3.99,2022-10-26 10:20:17.718750
923,67.2,2022-10-26 10:20:17.734375
924,103.47,2022-10-26 10:20:17.750000
925,119.2,2022-10-26 10:20:17.765625
926,122.27,2022-10-26 10:20:17.781250
927,118.02,2022-10-26 10:20:17.796875
928,107.9,2022-10-26 10:20:17.812500
929,91.32,2022-10-26 10:20:17.828125
930,68.29,2022-10-26 10:20:17.843750
931,41.85,2022-10-26 10:20:17.859375
932,18.05,2022-10-26 10:20:17.875000
933,3.48,2022-10-26 10:20:17.890625
934,2.22,2022-10-26 10:20:17.906250
935,13.19,2022-10-26 10:20:17.921875
936,30.15,2022-10-26 10:20:17.937500
937,45.09,2022-10-26 10:20:17.953125
938,53.3,2022-10-26 10:20:17.968750
939,55.95,2022-10-26 10:20:17.984375
940,60.14,2022-10-26 10:20:18.000000
941,74.19,2022-10-26 10:20:18.015625
942,102.14,2022-10-26 10:20:18.031250
943,142.0,2022-10-26 10:20:18.046875
944,186.34,2022-10-26 10:20:18.062500
945,226.77,2022-10-26 10:20:18.078125
946,259.0,2022-10-26 10:20:18.093750
947,284.14,2022-10-26 10:20:18.109375
948,307.24,2022-10-26 10:20:18.125000
949,332.67,2022-10-26 10:20:18.140625
950,360.24,2022-10-26 10:20:18.156250
951,383.97,2022-10-26 10:20:18.171875
952,394.15,2022-10-26 10:20:18.187500
953,381.21,2022-10-26 10:20:18.203125
954,338.93,2022-10-26 10:20:18.218750
955,267.33,2022-10-26 10:20:18.234375
956,172.67,2022-10-26 10:20:18.250000
957,66.35,2022-10-26 10:20:18.265625
958,-38.34,2022-10-26 10:20:18.281250
959,-129.34,2022-10-26 10:20:18.296875
960,-199.0,2022-10-26 10:20:18.312500
961,-245.81,2022-10-26 10:20:18.328125
962,-273.95,2022-10-26 10:20:18.343750
963,-290.23,2022-10-26 10:20:18.359375
964,-300.88,2022-10-26 10:20:18.375000
965,-308.23,2022-10-26 10:20:18.390625
966,-309.59,2022-10-26 10:20:18.406250
967,-298.76,2022-10-26 10:20:18.421875
968,-270.41,2022-10-26 10:20:18.437500
969,-224.1,2022-10-26 10:20:18.453125
970,-166.05,2022-10-26 10:20:18.468750
971,-107.31,2022-10-26 10:20:18.484375
972,-59.35,2022-10-26 10:20:18.500000
973,-29.38,2022-10-26 10:20:18.515625
974,-18.12,2022-10-26 10:20:18.531250
975,-19.42,2022-10-26 10:20:18.546875
976,-23.05,2022-10-26 10:20:18.562500
977,-18.35,2022-10-26 10:20:18.578125
978,2.45,2022-10-26 10:20:18.593750
979,41.35,2022-10-26 10:20:18.609375
980,93.48,2022-10-26 10:20:18.625000
981,147.87,2022-10-26 10:20:18.640625
982,190.77,2022-10-26 10:20:18.656250
983,210.44,2022-10-26 10:20:18.671875
984,202.23,2022-10-26 10:20:18.687500
985,170.82,2022-10-26 10:20:18.703125
986,128.13,2022-10-26 10:20:18.718750
987,88.85,2022-10-26 10:20:18.734375
988,64.16,2022-10-26 10:20:18.750000
989,58.56,2022-10-26 10:20:18.765625
990,70.23,2022-10-26 10:20:18.781250
991,92.91,2022-10-26 10:20:18.796875
992,119.78,2022-10-26 10:20:18.812500
993,144.64,2022-10-26 10:20:18.828125
994,160.7,2022-10-26 10:20:18.843750
995,160.89,2022-10-26 10:20:18.859375
996,138.83,2022-10-26 10:20:18.875000
997,92.22,2022-10-26 10:20:18.890625
998,25.92,2022-10-26 10:20:18.906250
999,-47.35,2022-10-26 10:20:18.921875
1000,-109.62,2022-10-26 10:20:18.937500
1001,-144.38,2022-10-26 10:20:18.953125
1002,-142.45,2022-10-26 10:20:18.968750
1003,-105.39,2022-10-26 10:20:18.984375
1004,-43.43,2022-10-26 10:20:19.000000
1005,29.35,2022-10-26 10:20:19.015625
1006,99.25,2022-10-26 10:20:19.031250
1007,157.46,2022-10-26 10:20:19.046875
1008,200.33,2022-10-26 10:20:19.062500
1009,228.17,2022-10-26 10:20:19.078125
1010,244.08,2022-10-26 10:20:19.093750
1011,251.78,2022-10-26 10:20:19.109375
1012,254.14,2022-10-26 10:20:19.125000
1013,251.47,2022-10-26 10:20:19.140625
1014,240.92,2022-10-26 10:20:19.156250
1015,217.54,2022-10-26 10:20:19.171875
1016,176.53,2022-10-26 10:20:19.187500
1017,116.04,2022-10-26 10:20:19.203125
1018,39.38,2022-10-26 10:20:19.218750
1019,-45.31,2022-10-26 10:20:19.234375
1020,-127.16,2022-10-26 10:20:19.250000
1021,-196.82,2022-10-26 10:20:19.265625
1022,-248.38,2022-10-26 10:20:19.281250
1023,-280.54,2022-10-26 10:20:19.296875
1024,-295.36,2022-10-26 10:20:19.312500
1025,-295.42,2022-10-26 10:20:19.328125
1026,-282.72,2022-10-26 10:20:19.343750
1027,-257.99,2022-10-26 10:20:19.359375
1028,-222.05,2022-10-26 10:20:19.375000
1029,-178.2,2022-10-26 10:20:19.390625
1030,-133.23,2022-10-26 10:20:19.406250
1031,-95.95,2022-10-26 10:20:19.421875
1032,-74.09,2022-10-26 10:20:19.437500
1033,-70.76,2022-10-26 10:20:19.453125
1034,-82.97,2022-10-26 10:20:19.468750
1035,-103.55,2022-10-26 10:20:19.484375
1036,-123.79,2022-10-26 10:20:19.500000
1037,-136.94,2022-10-26 10:20:19.515625
1038,-139.35,2022-10-26 10:20:19.531250
1039,-129.24,2022-10-26 10:20:19.546875
1040,-106.27,2022-10-26 10:20:19.562500
1041,-71.53,2022-10-26 10:20:19.578125
1042,-28.58,2022-10-26 10:20:19.593750
1043,15.02,2022-10-26 10:20:19.609375
1044,49.21,2022-10-26 10:20:19.625000
1045,65.08,2022-10-26 10:20:19.640625
1046,59.69,2022-10-26 10:20:19.656250
1047,37.94,2022-10-26 10:20:19.671875
1048,11.31,2022-10-26 10:20:19.687500
1049,-7.02,2022-10-26 10:20:19.703125
1050,-9.25,2022-10-26 10:20:19.718750
1051,3.8,2022-10-26 10:20:19.734375
1052,23.88,2022-10-26 10:20:19.750000
1053,39.43,2022-10-26 10:20:19.765625
1054,40.91,2022-10-26 10:20:19.781250
1055,24.61,2022-10-26 10:20:19.796875
1056,-6.2,2022-10-26 10:20:19.812500
1057,-43.11,2022-10-26 10:20:19.828125
1058,-76.37,2022-10-26 10:20:19.843750
1059,-97.32,2022-10-26 10:20:19.859375
1060,-100.53,2022-10-26 10:20:19.875000
1061,-85.46,2022-10-26 10:20:19.890625
1062,-56.22,2022-10-26 10:20:19.906250
1063,-20.55,2022-10-26 10:20:19.921875
1064,12.22,2022-10-26 10:20:19.937500
1065,34.83,2022-10-26 10:20:19.953125
1066,43.91,2022-10-26 10:20:19.968750
1067,40.39,2022-10-26 10:20:19.984375
1068,28.98,2022-10-26 10:20:20.000000
1069,15.25,2022-10-26 10:20:20.015625
1070,3.14,2022-10-26 10:20:20.031250
1071,-5.78,2022-10-26 10:20:20.046875
1072,-12.44,2022-10-26 10:20:20.062500
1073,-19.1,2022-10-26 10:20:20.078125
1074,-27.57,2022-10-26 10:20:20.093750
1075,-38.63,2022-10-26 10:20:20.109375
1076,-51.62,2022-10-26 10:20:20.125000
1077,-65.06,2022-10-26 10:20:20.140625
1078,-76.05,2022-10-26 10:20:20.156250
1079,-80.74,2022-10-26 10:20:20.171875
1080,-75.23,2022-10-26 10:20:20.187500
1081,-56.26,2022-10-26 10:20:20.203125
1082,-23.6,2022-10-26 10:20:20.218750
1083,19.37,2022-10-26 10:20:20.234375
1084,65.7,2022-10-26 10:20:20.250000
1085,107.45,2022-10-26 10:20:20.265625
1086,138.14,2022-10-26 10:20:20.281250
1087,154.14,2022-10-26 10:20:20.296875
1088,155.33,2022-10-26 10:20:20.312500
1089,144.55,2022-10-26 10:20:20.328125
1090,125.47,2022-10-26 10:20:20.343750
1091,101.51,2022-10-26 10:20:20.359375
1092,76.08,2022-10-26 10:20:20.375000
1093,51.62,2022-10-26 10:20:20.390625
1094,31.25,2022-10-26 10:20:20.406250
1095,17.32,2022-10-26 10:20:20.421875
1096,11.35,2022-10-26 10:20:20.437500
1097,13.28,2022-10-26 10:20:20.453125
1098,20.67,2022-10-26 10:20:20.468750
1099,29.03,2022-10-26 10:20:20.484375
1100,33.43,2022-10-26 10:20:20.500000
1101,30.92,2022-10-26 10:20:20.515625
1102,22.39,2022-10-26 10:20:20.531250
1103,13.18,2022-10-26 10:20:20.546875
1104,12.46,2022-10-26 10:20:20.562500
1105,30.45,2022-10-26 10:20:20.578125
1106,73.82,2022-10-26 10:20:20.593750
1107,143.02,2022-10-26 10:20:20.609375
1108,231.07,2022-10-26 10:20:20.625000
1109,324.79,2022-10-26 10:20:20.640625
1110,409.36,2022-10-26 10:20:20.656250
1111,472.46,2022-10-26 10:20:20.671875
1112,507.57,2022-10-26 10:20:20.687500
1113,514.62,2022-10-26 10:20:20.703125
1114,498.54,2022-10-26 10:20:20.718750
1115,466.56,2022-10-26 10:20:20.734375
1116,424.38,2022-10-26 10:20:20.750000
1117,373.85,2022-10-26 10:20:20.765625
1118,312.42,2022-10-26 10:20:20.781250
1119,235.07,2022-10-26 10:20:20.796875
1120,137.86,2022-10-26 10:20:20.812500
1121,21.83,2022-10-26 10:20:20.828125
1122,-104.86,2022-10-26 10:20:20.843750
1123,-228.68,2022-10-26 10:20:20.859375
1124,-333.98,2022-10-26 10:20:20.875000
1125,-410.46,2022-10-26 10:20:20.890625
1126,-456.05,2022-10-26 10:20:20.906250
1127,-478.23,2022-10-26 10:20:20.921875
1128,-490.04,2022-10-26 10:20:20.937500
1129,-503.06,2022-10-26 10:20:20.953125
1130,-521.53,2022-10-26 10:20:20.968750
1131,-541.13,2022-10-26 10:20:20.984375
1132,-552.3,2022-10-26 10:20:21.000000
1133,-546.42,2022-10-26 10:20:21.015625
1134,-519.99,2022-10-26 10:20:21.031250
1135,-476.91,2022-10-26 10:20:21.046875
1136,-426.03,2022-10-26 10:20:21.062500
1137,-376.17,2022-10-26 10:20:21.078125
1138,-333.85,2022-10-26 10:20:21.093750
1139,-300.99,2022-10-26 10:20:21.109375
1140,-275.61,2022-10-26 10:20:21.125000
1141,-253.1,2022-10-26 10:20:21.140625
1142,-227.87,2022-10-26 10:20:21.156250
1143,-195.49,2022-10-26 10:20:21.171875
1144,-154.98,2022-10-26 10:20:21.187500
1145,-109.75,2022-10-26 10:20:21.203125
1146,-67.13,2022-10-26 10:20:21.218750
1147,-34.74,2022-10-26 10:20:21.234375
1148,-15.6,2022-10-26 10:20:21.250000
1149,-5.95,2022-10-26 10:20:21.265625
1150,3.9,2022-10-26 10:20:21.281250
1151,24.22,2022-10-26 10:20:21.296875
1152,60.28,2022-10-26 10:20:21.312500
1153,109.6,2022-10-26 10:20:21.328125
1154,163.17,2022-10-26 10:20:21.343750
1155,210.16,2022-10-26 10:20:21.359375
1156,244.22,2022-10-26 10:20:21.375000
1157,264.94,2022-10-26 10:20:21.390625
1158,276.68,2022-10-26 10:20:21.406250
1159,285.14,2022-10-26 10:20:21.421875
1160,293.3,2022-10-26 10:20:21.437500
1161,300.4,2022-10-26 10:20:21.453125
1162,304.12,2022-10-26 10:20:21.468750
1163,303.56,2022-10-26 10:20:21.484375
1164,300.28,2022-10-26 10:20:21.500000
1165,296.7,2022-10-26 10:20:21.515625
1166,294.58,2022-10-26 10:20:21.531250
1167,292.39,2022-10-26 10:20:21.546875
1168,285.67,2022-10-26 10:20:21.562500
1169,269.66,2022-10-26 10:20:21.578125
1170,241.7,2022-10-26 10:20:21.593750
1171,203.87,2022-10-26 10:20:21.609375
1172,160.81,2022-10-26 10:20:21.625000
1173,117.89,2022-10-26 10:20:21.640625
1174,78.56,2022-10-26 10:20:21.656250
1175,43.91,2022-10-26 10:20:21.671875
1176,12.93,2022-10-26 10:20:21.687500
1177,-15.7,2022-10-26 10:20:21.703125
1178,-42.94,2022-10-26 10:20:21.718750
1179,-69.83,2022-10-26 10:20:21.734375
1180,-97.78,2022-10-26 10:20:21.750000
1181,-128.13,2022-10-26 10:20:21.765625
1182,-160.06,2022-10-26 10:20:21.781250
1183,-189.67,2022-10-26 10:20:21.796875
1184,-210.65,2022-10-26 10:20:21.812500
1185,-217.13,2022-10-26 10:20:21.828125
1186,-206.52,2022-10-26 10:20:21.843750
1187,-181.73,2022-10-26 10:20:21.859375
1188,-150.03,2022-10-26 10:20:21.875000
1189,-119.76,2022-10-26 10:20:21.890625
1190,-97.51,2022-10-26 10:20:21.906250
1191,-85.44,2022-10-26 10:20:21.921875
1192,-81.89,2022-10-26 10:20:21.937500
1193,-83.2,2022-10-26 10:20:21.953125
1194,-85.65,2022-10-26 10:20:21.968750
1195,-86.52,2022-10-26 10:20:21.984375
1196,-83.38,2022-10-26 10:20:22.000000
1197,-74.27,2022-10-26 10:20:22.015625
1198,-55.96,2022-10-26 10:20:22.031250
1199,-25.28,2022-10-26 10:20:22.046875
1200,19.71,2022-10-26 10:20:22.062500
1201,76.76,2022-10-26 10:20:22.078125
1202,137.63,2022-10-26 10:20:22.093750
1203,190.13,2022-10-26 10:20:22.109375
1204,222.01,2022-10-26 10:20:22.125000
1205,225.83,2022-10-26 10:20:22.140625
1206,204.23,2022-10-26 10:20:22.156250
1207,169.69,2022-10-26 10:20:22.171875
1208,139.23,2022-10-26 10:20:22.187500
1209,126.36,2022-10-26 10:20:22.203125
1210,134.2,2022-10-26 10:20:22.218750
1211,154.36,2022-10-26 10:20:22.234375
1212,171.51,2022-10-26 10:20:22.250000
1213,172.44,2022-10-26 10:20:22.265625
1214,152.33,2022-10-26 10:20:22.281250
1215,115.58,2022-10-26 10:20:22.296875
1216,73.02,2022-10-26 10:20:22.312500
1217,33.54,2022-10-26 10:20:22.328125
1218,0.21,2022-10-26 10:20:22.343750
1219,-30.14,2022-10-26 10:20:22.359375
1220,-63.18,2022-10-26 10:20:22.375000
1221,-101.9,2022-10-26 10:20:22.390625
1222,-143.93,2022-10-26 10:20:22.406250
1223,-182.16,2022-10-26 10:20:22.421875
1224,-208.62,2022-10-26 10:20:22.437500
1225,-218.17,2022-10-26 10:20:22.453125
1226,-209.44,2022-10-26 10:20:22.468750
1227,-185.16,2022-10-26 10:20:22.484375
1228,-149.06,2022-10-26 10:20:22.500000
1229,-105.39,2022-10-26 10:20:22.515625
1230,-58.21,2022-10-26 10:20:22.531250
1231,-12.69,2022-10-26 10:20:22.546875
1232,25.12,2022-10-26 10:20:22.562500
1233,49.7,2022-10-26 10:20:22.578125
1234,57.88,2022-10-26 10:20:22.593750
1235,50.44,2022-10-26 10:20:22.609375
1236,32.82,2022-10-26 10:20:22.625000
1237,11.79,2022-10-26 10:20:22.640625
1238,-6.79,2022-10-26 10:20:22.656250
1239,-20.96,2022-10-26 10:20:22.671875
1240,-32.18,2022-10-26 10:20:22.687500
1241,-43.1,2022-10-26 10:20:22.703125
1242,-54.35,2022-10-26 10:20:22.718750
1243,-62.61,2022-10-26 10:20:22.734375
1244,-62.96,2022-10-26 10:20:22.750000
1245,-51.63,2022-10-26 10:20:22.765625
1246,-30.03,2022-10-26 10:20:22.781250
1247,-6.4,2022-10-26 10:20:22.796875
1248,7.95,2022-10-26 10:20:22.812500
1249,3.33,2022-10-26 10:20:22.828125
1250,-22.31,2022-10-26 10:20:22.843750
1251,-61.98,2022-10-26 10:20:22.859375
1252,-102.97,2022-10-26 10:20:22.875000
1253,-132.95,2022-10-26 10:20:22.890625
1254,-145.52,2022-10-26 10:20:22.906250
1255,-140.66,2022-10-26 10:20:22.921875
1256,-122.67,2022-10-26 10:20:22.937500
1257,-95.91,2022-10-26 10:20:22.953125
1258,-61.83,2022-10-26 10:20:22.968750
1259,-20.89,2022-10-26 10:20:22.984375
1260,24.99,2022-10-26 10:20:23.000000
1261,69.59,2022-10-26 10:20:23.015625
1262,103.44,2022-10-26 10:20:23.031250
1263,117.24,2022-10-26 10:20:23.046875
1264,106.47,2022-10-26 10:20:23.062500
1265,73.79,2022-10-26 10:20:23.078125
1266,27.66,2022-10-26 10:20:23.093750
1267,-21.81,2022-10-26 10:20:23.109375
1268,-67.13,2022-10-26 10:20:23.125000
1269,-106.0,2022-10-26 10:20:23.140625
1270,-138.61,2022-10-26 10:20:23.156250
1271,-165.29,2022-10-26 10:20:23.171875
1272,-183.38,2022-10-26 10:20:23.187500
1273,-187.54,2022-10-26 10:20:23.203125
1274,-172.6,2022-10-26 10:20:23.218750
1275,-136.11,2022-10-26 10:20:23.234375
1276,-81.8,2022-10-26 10:20:23.250000
1277,-18.31,2022-10-26 10:20:23.265625
1278,45.0,2022-10-26 10:20:23.281250
1279,101.39,2022-10-26 10:20:23.296875
1280,150.2,2022-10-26 10:20:23.312500
1281,195.36,2022-10-26 10:20:23.328125
1282,240.86,2022-10-26 10:20:23.343750
1283,287.03,2022-10-26 10:20:23.359375
1284,328.27,2022-10-26 10:20:23.375000
1285,355.92,2022-10-26 10:20:23.390625
1286,362.47,2022-10-26 10:20:23.406250
1287,345.86,2022-10-26 10:20:23.421875
1288,310.0,2022-10-26 10:20:23.437500
1289,262.47,2022-10-26 10:20:23.453125
1290,210.63,2022-10-26 10:20:23.468750
1291,157.21,2022-10-26 10:20:23.484375
1292,99.79,2022-10-26 10:20:23.500000
1293,33.68,2022-10-26 10:20:23.515625
1294,-44.22,2022-10-26 10:20:23.531250
1295,-131.91,2022-10-26 10:20:23.546875
1296,-220.9,2022-10-26 10:20:23.562500
1297,-299.59,2022-10-26 10:20:23.578125
1298,-356.64,2022-10-26 10:20:23.593750
1299,-385.28,2022-10-26 10:20:23.609375
1300,-385.29,2022-10-26 10:20:23.625000
1301,-362.97,2022-10-26 10:20:23.640625
1302,-327.69,2022-10-26 10:20:23.656250
1303,-288.94,2022-10-26 10:20:23.671875
1304,-253.4,2022-10-26 10:20:23.687500
1305,-223.55,2022-10-26 10:20:23.703125
1306,-199.81,2022-10-26 10:20:23.718750
1307,-181.18,2022-10-26 10:20:23.734375
1308,-166.6,2022-10-26 10:20:23.750000
1309,-155.9,2022-10-26 10:20:23.765625
1310,-148.34,2022-10-26 10:20:23.781250
1311,-142.76,2022-10-26 10:20:23.796875
1312,-138.15,2022-10-26 10:20:23.812500
1313,-132.92,2022-10-26 10:20:23.828125
1314,-125.61,2022-10-26 10:20:23.843750
1315,-113.84,2022-10-26 10:20:23.859375
1316,-95.16,2022-10-26 10:20:23.875000
1317,-68.53,2022-10-26 10:20:23.890625
1318,-34.18,2022-10-26 10:20:23.906250
1319,6.03,2022-10-26 10:20:23.921875
1320,49.22,2022-10-26 10:20:23.937500
1321,92.78,2022-10-26 10:20:23.953125
1322,136.08,2022-10-26 10:20:23.968750
1323,179.51,2022-10-26 10:20:23.984375
1324,223.11,2022-10-26 10:20:24.000000
1325,265.48,2022-10-26 10:20:24.015625
1326,303.92,2022-10-26 10:20:24.031250
1327,334.75,2022-10-26 10:20:24.046875
1328,355.64,2022-10-26 10:20:24.062500
1329,365.89,2022-10-26 10:20:24.078125
1330,366.63,2022-10-26 10:20:24.093750
1331,360.27,2022-10-26 10:20:24.109375
1332,348.74,2022-10-26 10:20:24.125000
1333,332.69,2022-10-26 10:20:24.140625
1334,312.41,2022-10-26 10:20:24.156250
1335,287.35,2022-10-26 10:20:24.171875
1336,257.38,2022-10-26 10:20:24.187500
1337,223.64,2022-10-26 10:20:24.203125
1338,188.7,2022-10-26 10:20:24.218750
1339,157.31,2022-10-26 10:20:24.234375
1340,135.7,2022-10-26 10:20:24.250000
1341,128.65,2022-10-26 10:20:24.265625
1342,137.83,2022-10-26 10:20:24.281250
1343,159.45,2022-10-26 10:20:24.296875
1344,184.25,2022-10-26 10:20:24.312500
1345,200.7,2022-10-26 10:20:24.328125
1346,199.23,2022-10-26 10:20:24.343750
1347,176.18,2022-10-26 10:20:24.359375
1348,134.55,2022-10-26 10:20:24.375000
1349,81.59,2022-10-26 10:20:24.390625
1350,25.4,2022-10-26 10:20:24.406250
1351,-28.6,2022-10-26 10:20:24.421875
1352,-77.61,2022-10-26 10:20:24.437500
1353,-120.6,2022-10-26 10:20:24.453125
1354,-156.37,2022-10-26 10:20:24.468750
1355,-182.98,2022-10-26 10:20:24.484375
1356,-198.87,2022-10-26 10:20:24.500000
1357,-205.33,2022-10-26 10:20:24.515625
1358,-205.84,2022-10-26 10:20:24.531250
1359,-204.69,2022-10-26 10:20:24.546875
1360,-203.94,2022-10-26 10:20:24.562500
1361,-201.66,2022-10-26 10:20:24.578125
1362,-192.83,2022-10-26 10:20:24.593750
1363,-172.87,2022-10-26 10:20:24.609375
1364,-140.36,2022-10-26 10:20:24.625000
1365,-98.27,2022-10-26 10:20:24.640625
1366,-52.2,2022-10-26 10:20:24.656250
1367,-7.91,2022-10-26 10:20:24.671875
1368,30.82,2022-10-26 10:20:24.687500
1369,63.4,2022-10-26 10:20:24.703125
1370,91.14,2022-10-26 10:20:24.718750
1371,115.98,2022-10-26 10:20:24.734375
1372,139.94,2022-10-26 10:20:24.750000
1373,163.04,2022-10-26 10:20:24.765625
1374,184.0,2022-10-26 10:20:24.781250
1375,200.32,2022-10-26 10:20:24.796875
1376,209.71,2022-10-26 10:20:24.812500
1377,211.65,2022-10-26 10:20:24.828125
1378,207.9,2022-10-26 10:20:24.843750
1379,201.83,2022-10-26 10:20:24.859375
1380,196.24,2022-10-26 10:20:24.875000
1381,191.12,2022-10-26 10:20:24.890625
1382,182.59,2022-10-26 10:20:24.906250
1383,163.76,2022-10-26 10:20:24.921875
1384,127.94,2022-10-26 10:20:24.937500
1385,71.84,2022-10-26 10:20:24.953125
1386,-1.87,2022-10-26 10:20:24.968750
1387,-85.37,2022-10-26 10:20:24.984375
1388,-168.55,2022-10-26 10:20:25.000000
1389,-243.66,2022-10-26 10:20:25.015625
1390,-307.25,2022-10-26 10:20:25.031250
1391,-360.12,2022-10-26 10:20:25.046875
1392,-404.0,2022-10-26 10:20:25.062500
1393,-438.37,2022-10-26 10:20:25.078125
1394,-458.42,2022-10-26 10:20:25.093750
1395,-457.43,2022-10-26 10:20:25.109375
1396,-430.94,2022-10-26 10:20:25.125000
1397,-380.62,2022-10-26 10:20:25.140625
1398,-315.98,2022-10-26 10:20:25.156250
1399,-250.21,2022-10-26 10:20:25.171875
1400,-195.94,2022-10-26 10:20:25.187500
1401,-159.25,2022-10-26 10:20:25.203125
1402,-138.47,2022-10-26 10:20:25.218750
1403,-126.98,2022-10-26 10:20:25.234375
1404,-116.77,2022-10-26 10:20:25.250000
1405,-104.01,2022-10-26 10:20:25.265625
1406,-90.04,2022-10-26 10:20:25.281250
1407,-80.05,2022-10-26 10:20:25.296875
1408,-79.8,2022-10-26 10:20:25.312500
1409,-91.37,2022-10-26 10:20:25.328125
1410,-110.64,2022-10-26 10:20:25.343750
1411,-128.36,2022-10-26 10:20:25.359375
1412,-134.38,2022-10-26 10:20:25.375000
1413,-121.92,2022-10-26 10:20:25.390625
1414,-91.28,2022-10-26 10:20:25.406250
1415,-49.69,2022-10-26 10:20:25.421875
1416,-8.3,2022-10-26 10:20:25.437500
1417,22.78,2022-10-26 10:20:25.453125
1418,38.51,2022-10-26 10:20:25.468750
1419,39.72,2022-10-26 10:20:25.484375
1420,31.32,2022-10-26 10:20:25.500000
1421,19.75,2022-10-26 10:20:25.515625
1422,10.13,2022-10-26 10:20:25.531250
1423,4.64,2022-10-26 10:20:25.546875
1424,3.65,2022-10-26 10:20:25.562500
1425,6.64,2022-10-26 10:20:25.578125
1426,13.19,2022-10-26 10:20:25.593750
1427,23.04,2022-10-26 10:20:25.609375
1428,35.6,2022-10-26 10:20:25.625000
1429,50.03,2022-10-26 10:20:25.640625
1430,65.26,2022-10-26 10:20:25.656250
1431,80.71,2022-10-26 10:20:25.671875
1432,95.65,2022-10-26 10:20:25.687500
1433,110.24,2022-10-26 10:20:25.703125
1434,124.15,2022-10-26 10:20:25.718750
1435,136.2,2022-10-26 10:20:25.734375
1436,145.61,2022-10-26 10:20:25.750000
1437,151.72,2022-10-26 10:20:25.765625
1438,154.47,2022-10-26 10:20:25.781250
1439,153.56,2022-10-26 10:20:25.796875
1440,148.4,2022-10-26 10:20:25.812500
1441,137.52,2022-10-26 10:20:25.828125
1442,119.86,2022-10-26 10:20:25.843750
1443,95.86,2022-10-26 10:20:25.859375
1444,68.38,2022-10-26 10:20:25.875000
1445,42.4,2022-10-26 10:20:25.890625
1446,23.17,2022-10-26 10:20:25.906250
1447,14.32,2022-10-26 10:20:25.921875
1448,16.9,2022-10-26 10:20:25.937500
1449,29.9,2022-10-26 10:20:25.953125
1450,52.59,2022-10-26 10:20:25.968750
1451,85.94,2022-10-26 10:20:25.984375
1452,130.82,2022-10-26 10:20:26.000000
1453,186.35,2022-10-26 10:20:26.015625
1454,247.04,2022-10-26 10:20:26.031250
1455,303.42,2022-10-26 10:20:26.046875
1456,344.76,2022-10-26 10:20:26.062500
1457,363.39,2022-10-26 10:20:26.078125
1458,358.15,2022-10-26 10:20:26.093750
1459,333.8,2022-10-26 10:20:26.109375
1460,298.63,2022-10-26 10:20:26.125000
1461,260.09,2022-10-26 10:20:26.140625
1462,223.03,2022-10-26 10:20:26.156250
1463,189.03,2022-10-26 10:20:26.171875
1464,157.14,2022-10-26 10:20:26.187500
1465,126.89,2022-10-26 10:20:26.203125
1466,98.34,2022-10-26 10:20:26.218750
1467,71.53,2022-10-26 10:20:26.234375
1468,46.3,2022-10-26 10:20:26.250000
1469,21.08,2022-10-26 10:20:26.265625
1470,-6.34,2022-10-26 10:20:26.281250
1471,-38.72,2022-10-26 10:20:26.296875
1472,-77.26,2022-10-26 10:20:26.312500
1473,-120.15,2022-10-26 10:20:26.328125
1474,-163.07,2022-10-26 10:20:26.343750
1475,-200.35,2022-10-26 10:20:26.359375
1476,-227.72,2022-10-26 10:20:26.375000
1477,-244.91,2022-10-26 10:20:26.390625
1478,-255.07,2022-10-26 10:20:26.406250
1479,-263.48,2022-10-26 10:20:26.421875
1480,-273.34,2022-10-26 10:20:26.437500
1481,-283.54,2022-10-26 10:20:26.453125
1482,-289.35,2022-10-26 10:20:26.468750
1483,-285.34,2022-10-26 10:20:26.484375
1484,-270.05,2022-10-26 10:20:26.500000
1485,-247.72,2022-10-26 10:20:26.515625
1486,-226.82,2022-10-26 10:20:26.531250
1487,-214.22,2022-10-26 10:20:26.546875
1488,-210.15,2022-10-26 10:20:26.562500
1489,-207.18,2022-10-26 10:20:26.578125
1490,-194.09,2022-10-26 10:20:26.593750
1491,-162.63,2022-10-26 10:20:26.609375
1492,-112.93,2022-10-26 10:20:26.625000
1493,-54.55,2022-10-26 10:20:26.640625
1494,-1.54,2022-10-26 10:20:26.656250
1495,34.45,2022-10-26 10:20:26.671875
1496,49.09,2022-10-26 10:20:26.687500
1497,46.59,2022-10-26 10:20:26.703125
1498,35.69,2022-10-26 10:20:26.718750
1499,24.74,2022-10-26 10:20:26.734375
1500,18.58,2022-10-26 10:20:26.750000
1501,18.98,2022-10-26 10:20:26.765625
1502,27.16,2022-10-26 10:20:26.781250
1503,45.35,2022-10-26 10:20:26.796875
1504,74.87,2022-10-26 10:20:26.812500
1505,114.88,2022-10-26 10:20:26.828125
1506,160.1,2022-10-26 10:20:26.843750
1507,201.77,2022-10-26 10:20:26.859375
1508,231.83,2022-10-26 10:20:26.875000
1509,246.14,2022-10-26 10:20:26.890625
1510,246.26,2022-10-26 10:20:26.906250
1511,238.26,2022-10-26 10:20:26.921875
1512,228.15,2022-10-26 10:20:26.937500
1513,219.82,2022-10-26 10:20:26.953125
1514,212.84,2022-10-26 10:20:26.968750
1515,203.96,2022-10-26 10:20:26.984375
1516,190.21,2022-10-26 10:20:27.000000
1517,170.61,2022-10-26 10:20:27.015625
1518,146.54,2022-10-26 10:20:27.031250
1519,121.61,2022-10-26 10:20:27.046875
1520,99.84,2022-10-26 10:20:27.062500
1521,85.87,2022-10-26 10:20:27.078125
1522,82.89,2022-10-26 10:20:27.093750
1523,92.07,2022-10-26 10:20:27.109375
1524,111.95,2022-10-26 10:20:27.125000
1525,137.97,2022-10-26 10:20:27.140625
1526,163.79,2022-10-26 10:20:27.156250
1527,182.48,2022-10-26 10:20:27.171875
1528,188.26,2022-10-26 10:20:27.187500
1529,178.96,2022-10-26 10:20:27.203125
1530,155.94,2022-10-26 10:20:27.218750
1531,124.56,2022-10-26 10:20:27.234375
1532,92.41,2022-10-26 10:20:27.250000
1533,65.91,2022-10-26 10:20:27.265625
1534,47.64,2022-10-26 10:20:27.281250
1535,35.75,2022-10-26 10:20:27.296875
1536,24.64,2022-10-26 10:20:27.312500
1537,9.13,2022-10-26 10:20:27.328125
1538,-12.88,2022-10-26 10:20:27.343750
1539,-39.87,2022-10-26 10:20:27.359375
1540,-68.35,2022-10-26 10:20:27.375000
1541,-95.76,2022-10-26 10:20:27.390625
1542,-122.41,2022-10-26 10:20:27.406250
1543,-149.76,2022-10-26 10:20:27.421875
1544,-179.21,2022-10-26 10:20:27.437500
1545,-209.09,2022-10-26 10:20:27.453125
1546,-235.07,2022-10-26 10:20:27.468750
1547,-252.0,2022-10-26 10:20:27.484375
1548,-256.47,2022-10-26 10:20:27.500000
1549,-246.79,2022-10-26 10:20:27.515625
1550,-224.35,2022-10-26 10:20:27.531250
1551,-191.81,2022-10-26 10:20:27.546875
1552,-152.76,2022-10-26 10:20:27.562500
1553,-111.77,2022-10-26 10:20:27.578125
1554,-74.57,2022-10-26 10:20:27.593750
1555,-46.87,2022-10-26 10:20:27.609375
1556,-31.97,2022-10-26 10:20:27.625000
1557,-29.08,2022-10-26 10:20:27.640625
1558,-33.48,2022-10-26 10:20:27.656250
1559,-38.93,2022-10-26 10:20:27.671875
1560,-40.88,2022-10-26 10:20:27.687500
1561,-38.06,2022-10-26 10:20:27.703125
1562,-32.44,2022-10-26 10:20:27.718750
1563,-27.94,2022-10-26 10:20:27.734375
1564,-28.61,2022-10-26 10:20:27.750000
1565,-38.19,2022-10-26 10:20:27.765625
1566,-60.13,2022-10-26 10:20:27.781250
1567,-96.51,2022-10-26 10:20:27.796875
1568,-146.98,2022-10-26 10:20:27.812500
1569,-208.33,2022-10-26 10:20:27.828125
1570,-274.83,2022-10-26 10:20:27.843750
1571,-339.02,2022-10-26 10:20:27.859375
1572,-393.58,2022-10-26 10:20:27.875000
1573,-432.53,2022-10-26 10:20:27.890625
1574,-452.75,2022-10-26 10:20:27.906250
1575,-453.78,2022-10-26 10:20:27.921875
1576,-437.7,2022-10-26 10:20:27.937500
1577,-408.41,2022-10-26 10:20:27.953125
1578,-369.86,2022-10-26 10:20:27.968750
1579,-324.77,2022-10-26 10:20:27.984375
1580,-274.84,2022-10-26 10:20:28.000000
1581,-220.27,2022-10-26 10:20:28.015625
1582,-161.58,2022-10-26 10:20:28.031250
1583,-100.79,2022-10-26 10:20:28.046875
1584,-41.52,2022-10-26 10:20:28.062500
1585,11.83,2022-10-26 10:20:28.078125
1586,55.45,2022-10-26 10:20:28.093750
1587,87.72,2022-10-26 10:20:28.109375
1588,108.58,2022-10-26 10:20:28.125000
1589,118.65,2022-10-26 10:20:28.140625
1590,118.17,2022-10-26 10:20:28.156250
1591,106.61,2022-10-26 10:20:28.171875
1592,84.88,2022-10-26 10:20:28.187500
1593,56.27,2022-10-26 10:20:28.203125
1594,26.83,2022-10-26 10:20:28.218750
1595,2.68,2022-10-26 10:20:28.234375
1596,-12.45,2022-10-26 10:20:28.250000
1597,-18.86,2022-10-26 10:20:28.265625
1598,-19.86,2022-10-26 10:20:28.281250
1599,-18.92,2022-10-26 10:20:28.296875
1600,-15.8,2022-10-26 10:20:28.312500
1601,-6.18,2022-10-26 10:20:28.328125
1602,15.69,2022-10-26 10:20:28.343750
1603,52.94,2022-10-26 10:20:28.359375
1604,102.61,2022-10-26 10:20:28.375000
1605,156.44,2022-10-26 10:20:28.390625
1606,204.67,2022-10-26 10:20:28.406250
1607,240.58,2022-10-26 10:20:28.421875
1608,264.25,2022-10-26 10:20:28.437500
1609,280.85,2022-10-26 10:20:28.453125
1610,296.84,2022-10-26 10:20:28.468750
1611,315.88,2022-10-26 10:20:28.484375
1612,337.65,2022-10-26 10:20:28.500000
1613,359.09,2022-10-26 10:20:28.515625
1614,376.88,2022-10-26 10:20:28.531250
1615,389.67,2022-10-26 10:20:28.546875
1616,398.2,2022-10-26 10:20:28.562500
1617,403.86,2022-10-26 10:20:28.578125
1618,407.27,2022-10-26 10:20:28.593750
1619,408.54,2022-10-26 10:20:28.609375
1620,407.24,2022-10-26 10:20:28.625000
1621,402.43,2022-10-26 10:20:28.640625
1622,392.85,2022-10-26 10:20:28.656250
1623,375.39,2022-10-26 10:20:28.671875
1624,346.14,2022-10-26 10:20:28.687500
1625,300.36,2022-10-26 10:20:28.703125
1626,234.62,2022-10-26 10:20:28.718750
1627,148.23,2022-10-26 10:20:28.734375
1628,43.95,2022-10-26 10:20:28.750000
1629,-72.03,2022-10-26 10:20:28.765625
1630,-190.85,2022-10-26 10:20:28.781250
1631,-302.61,2022-10-26 10:20:28.796875
1632,-398.17,2022-10-26 10:20:28.812500
1633,-471.64,2022-10-26 10:20:28.828125
1634,-521.94,2022-10-26 10:20:28.843750
1635,-552.73,2022-10-26 10:20:28.859375
1636,-570.68,2022-10-26 10:20:28.875000
1637,-581.59,2022-10-26 10:20:28.890625
1638,-586.94,2022-10-26 10:20:28.906250
1639,-583.44,2022-10-26 10:20:28.921875
1640,-564.98,2022-10-26 10:20:28.937500
1641,-527.12,2022-10-26 10:20:28.953125
1642,-470.21,2022-10-26 10:20:28.968750
1643,-399.91,2022-10-26 10:20:28.984375
1644,-324.41,2022-10-26 10:20:29.000000
1645,-249.49,2022-10-26 10:20:29.015625
1646,-176.55,2022-10-26 10:20:29.031250
1647,-102.87,2022-10-26 10:20:29.046875
1648,-24.49,2022-10-26 10:20:29.062500
1649,59.86,2022-10-26 10:20:29.078125
1650,145.7,2022-10-26 10:20:29.093750
1651,222.72,2022-10-26 10:20:29.109375
1652,277.86,2022-10-26 10:20:29.125000
1653,300.34,2022-10-26 10:20:29.140625
1654,285.85,2022-10-26 10:20:29.156250
1655,237.82,2022-10-26 10:20:29.171875
1656,167.23,2022-10-26 10:20:29.187500
1657,87.73,2022-10-26 10:20:29.203125
1658,10.39,2022-10-26 10:20:29.218750
1659,-58.91,2022-10-26 10:20:29.234375
1660,-119.69,2022-10-26 10:20:29.250000
1661,-174.05,2022-10-26 10:20:29.265625
1662,-223.86,2022-10-26 10:20:29.281250
1663,-268.62,2022-10-26 10:20:29.296875
1664,-305.76,2022-10-26 10:20:29.312500
1665,-331.62,2022-10-26 10:20:29.328125
1666,-343.64,2022-10-26 10:20:29.343750
1667,-340.38,2022-10-26 10:20:29.359375
1668,-321.45,2022-10-26 10:20:29.375000
1669,-286.85,2022-10-26 10:20:29.390625
1670,-236.68,2022-10-26 10:20:29.406250
1671,-171.67,2022-10-26 10:20:29.421875
1672,-94.22,2022-10-26 10:20:29.437500
1673,-8.98,2022-10-26 10:20:29.453125
1674,77.11,2022-10-26 10:20:29.468750
1675,156.02,2022-10-26 10:20:29.484375
1676,219.65,2022-10-26 10:20:29.500000
1677,262.31,2022-10-26 10:20:29.515625
1678,282.49,2022-10-26 10:20:29.531250
1679,283.82,2022-10-26 10:20:29.546875
1680,274.78,2022-10-26 10:20:29.562500
1681,266.2,2022-10-26 10:20:29.578125
1682,267.18,2022-10-26 10:20:29.593750
1683,281.62,2022-10-26 10:20:29.609375
1684,306.66,2022-10-26 10:20:29.625000
1685,334.91,2022-10-26 10:20:29.640625
1686,358.02,2022-10-26 10:20:29.656250
1687,369.43,2022-10-26 10:20:29.671875
1688,366.62,2022-10-26 10:20:29.687500
1689,350.42,2022-10-26 10:20:29.703125
1690,324.06,2022-10-26 10:20:29.718750
1691,291.01,2022-10-26 10:20:29.734375
1692,254.69,2022-10-26 10:20:29.750000
1693,219.54,2022-10-26 10:20:29.765625
1694,190.37,2022-10-26 10:20:29.781250
1695,171.19,2022-10-26 10:20:29.796875
1696,162.54,2022-10-26 10:20:29.812500
1697,159.76,2022-10-26 10:20:29.828125
1698,153.59,2022-10-26 10:20:29.843750
1699,134.3,2022-10-26 10:20:29.859375
1700,97.38,2022-10-26 10:20:29.875000
1701,46.68,2022-10-26 10:20:29.890625
1702,-7.19,2022-10-26 10:20:29.906250
1703,-51.94,2022-10-26 10:20:29.921875
1704,-79.01,2022-10-26 10:20:29.937500
1705,-86.68,2022-10-26 10:20:29.953125
1706,-78.12,2022-10-26 10:20:29.968750
1707,-57.2,2022-10-26 10:20:29.984375
1708,-25.6,2022-10-26 10:20:30.000000
1709,16.88,2022-10-26 10:20:30.015625
1710,68.42,2022-10-26 10:20:30.031250
1711,122.13,2022-10-26 10:20:30.046875
1712,166.34,2022-10-26 10:20:30.062500
1713,190.34,2022-10-26 10:20:30.078125
1714,190.84,2022-10-26 10:20:30.093750
1715,174.61,2022-10-26 10:20:30.109375
1716,154.66,2022-10-26 10:20:30.125000
1717,143.2,2022-10-26 10:20:30.140625
1718,144.81,2022-10-26 10:20:30.156250
1719,154.55,2022-10-26 10:20:30.171875
1720,161.64,2022-10-26 10:20:30.187500
1721,155.68,2022-10-26 10:20:30.203125
1722,131.29,2022-10-26 10:20:30.218750
1723,87.85,2022-10-26 10:20:30.234375
1724,26.34,2022-10-26 10:20:30.250000
1725,-53.13,2022-10-26 10:20:30.265625
1726,-150.48,2022-10-26 10:20:30.281250
1727,-262.61,2022-10-26 10:20:30.296875
1728,-380.26,2022-10-26 10:20:30.312500
1729,-487.79,2022-10-26 10:20:30.328125
1730,-568.84,2022-10-26 10:20:30.343750
1731,-612.62,2022-10-26 10:20:30.359375
1732,-618.28,2022-10-26 10:20:30.375000
1733,-594.88,2022-10-26 10:20:30.390625
1734,-556.11,2022-10-26 10:20:30.406250
1735,-515.29,2022-10-26 10:20:30.421875
1736,-480.68,2022-10-26 10:20:30.437500
1737,-454.69,2022-10-26 10:20:30.453125
1738,-435.41,2022-10-26 10:20:30.468750
1739,-418.1,2022-10-26 10:20:30.484375
1740,-397.84,2022-10-26 10:20:30.500000
1741,-370.99,2022-10-26 10:20:30.515625
1742,-337.23,2022-10-26 10:20:30.531250
1743,-299.48,2022-10-26 10:20:30.546875
1744,-263.3,2022-10-26 10:20:30.562500
1745,-234.0,2022-10-26 10:20:30.578125
1746,-214.19,2022-10-26 10:20:30.593750
1747,-201.54,2022-10-26 10:20:30.609375
1748,-189.87,2022-10-26 10:20:30.625000
1749,-172.14,2022-10-26 10:20:30.640625
1750,-143.62,2022-10-26 10:20:30.656250
1751,-103.08,2022-10-26 10:20:30.671875
1752,-52.35,2022-10-26 10:20:30.687500
1753,7.01,2022-10-26 10:20:30.703125
1754,75.14,2022-10-26 10:20:30.718750
1755,153.29,2022-10-26 10:20:30.734375
1756,241.41,2022-10-26 10:20:30.750000
1757,335.15,2022-10-26 10:20:30.765625
1758,425.91,2022-10-26 10:20:30.781250
1759,503.78,2022-10-26 10:20:30.796875
1760,560.88,2022-10-26 10:20:30.812500
1761,595.58,2022-10-26 10:20:30.828125
1762,611.0,2022-10-26 10:20:30.843750
1763,612.17,2022-10-26 10:20:30.859375
1764,602.43,2022-10-26 10:20:30.875000
1765,581.55,2022-10-26 10:20:30.890625
1766,547.41,2022-10-26 10:20:30.906250
1767,498.79,2022-10-26 10:20:30.921875
1768,438.4,2022-10-26 10:20:30.937500
1769,372.82,2022-10-26 10:20:30.953125
1770,308.5,2022-10-26 10:20:30.968750
1771,248.67,2022-10-26 10:20:30.984375
1772,192.81,2022-10-26 10:20:31.000000
1773,139.34,2022-10-26 10:20:31.015625
1774,89.1,2022-10-26 10:20:31.031250
1775,47.4,2022-10-26 10:20:31.046875
1776,21.81,2022-10-26 10:20:31.062500
1777,18.06,2022-10-26 10:20:31.078125
1778,35.21,2022-10-26 10:20:31.093750
1779,64.62,2022-10-26 10:20:31.109375
1780,93.08,2022-10-26 10:20:31.125000
1781,108.28,2022-10-26 10:20:31.140625
1782,104.36,2022-10-26 10:20:31.156250
1783,84.73,2022-10-26 10:20:31.171875
1784,59.75,2022-10-26 10:20:31.187500
1785,41.7,2022-10-26 10:20:31.203125
1786,38.83,2022-10-26 10:20:31.218750
1787,51.44,2022-10-26 10:20:31.234375
1788,72.77,2022-10-26 10:20:31.250000
1789,92.81,2022-10-26 10:20:31.265625
1790,103.07,2022-10-26 10:20:31.281250
1791,99.57,2022-10-26 10:20:31.296875
1792,82.6,2022-10-26 10:20:31.312500
1793,54.5,2022-10-26 10:20:31.328125
1794,17.58,2022-10-26 10:20:31.343750
1795,-25.62,2022-10-26 10:20:31.359375
1796,-70.83,2022-10-26 10:20:31.375000
1797,-111.55,2022-10-26 10:20:31.390625
1798,-139.78,2022-10-26 10:20:31.406250
1799,-149.59,2022-10-26 10:20:31.421875
1800,-139.68,2022-10-26 10:20:31.437500
1801,-113.15,2022-10-26 10:20:31.453125
1802,-75.99,2022-10-26 10:20:31.468750
1803,-33.63,2022-10-26 10:20:31.484375
1804,9.98,2022-10-26 10:20:31.500000
1805,52.48,2022-10-26 10:20:31.515625
1806,91.83,2022-10-26 10:20:31.531250
1807,126.14,2022-10-26 10:20:31.546875
1808,153.22,2022-10-26 10:20:31.562500
1809,171.35,2022-10-26 10:20:31.578125
1810,178.8,2022-10-26 10:20:31.593750
1811,173.43,2022-10-26 10:20:31.609375
1812,153.08,2022-10-26 10:20:31.625000
1813,116.42,2022-10-26 10:20:31.640625
1814,64.92,2022-10-26 10:20:31.656250
1815,3.88,2022-10-26 10:20:31.671875
1816,-58.21,2022-10-26 10:20:31.687500
1817,-113.17,2022-10-26 10:20:31.703125
1818,-155.42,2022-10-26 10:20:31.718750
1819,-184.25,2022-10-26 10:20:31.734375
1820,-202.93,2022-10-26 10:20:31.750000
1821,-216.29,2022-10-26 10:20:31.765625
1822,-228.73,2022-10-26 10:20:31.781250
1823,-243.61,2022-10-26 10:20:31.796875
1824,-262.34,2022-10-26 10:20:31.812500
1825,-285.58,2022-10-26 10:20:31.828125
1826,-312.56,2022-10-26 10:20:31.843750
1827,-340.69,2022-10-26 10:20:31.859375
1828,-365.67,2022-10-26 10:20:31.875000
1829,-382.66,2022-10-26 10:20:31.890625
1830,-387.85,2022-10-26 10:20:31.906250
1831,-379.82,2022-10-26 10:20:31.921875
1832,-360.08,2022-10-26 10:20:31.937500
1833,-332.21,2022-10-26 10:20:31.953125
1834,-300.92,2022-10-26 10:20:31.968750
1835,-270.88,2022-10-26 10:20:31.984375
1836,-245.97,2022-10-26 10:20:32.000000
1837,-228.49,2022-10-26 10:20:32.015625
1838,-219.14,2022-10-26 10:20:32.031250
1839,-215.86,2022-10-26 10:20:32.046875
1840,-214.95,2022-10-26 10:20:32.062500
1841,-211.26,2022-10-26 10:20:32.078125
1842,-200.6,2022-10-26 10:20:32.093750
1843,-180.87,2022-10-26 10:20:32.109375
1844,-152.54,2022-10-26 10:20:32.125000
1845,-117.54,2022-10-26 10:20:32.140625
1846,-78.64,2022-10-26 10:20:32.156250
1847,-37.64,2022-10-26 10:20:32.171875
1848,4.97,2022-10-26 10:20:32.187500
1849,48.19,2022-10-26 10:20:32.203125
1850,90.66,2022-10-26 10:20:32.218750
1851,129.52,2022-10-26 10:20:32.234375
1852,161.38,2022-10-26 10:20:32.250000
1853,183.3,2022-10-26 10:20:32.265625
1854,193.06,2022-10-26 10:20:32.281250
1855,189.53,2022-10-26 10:20:32.296875
1856,173.19,2022-10-26 10:20:32.312500
1857,146.76,2022-10-26 10:20:32.328125
1858,115.53,2022-10-26 10:20:32.343750
1859,86.81,2022-10-26 10:20:32.359375
1860,67.33,2022-10-26 10:20:32.375000
1861,60.91,2022-10-26 10:20:32.390625
1862,67.05,2022-10-26 10:20:32.406250
1863,81.05,2022-10-26 10:20:32.421875
1864,96.56,2022-10-26 10:20:32.437500
1865,107.82,2022-10-26 10:20:32.453125
1866,111.92,2022-10-26 10:20:32.468750
1867,109.28,2022-10-26 10:20:32.484375
1868,102.37,2022-10-26 10:20:32.500000
1869,94.44,2022-10-26 10:20:32.515625
1870,88.0,2022-10-26 10:20:32.531250
1871,83.94,2022-10-26 10:20:32.546875
1872,81.25,2022-10-26 10:20:32.562500
1873,77.59,2022-10-26 10:20:32.578125
1874,68.44,2022-10-26 10:20:32.593750
1875,49.22,2022-10-26 10:20:32.609375
1876,16.16,2022-10-26 10:20:32.625000
1877,-31.1,2022-10-26 10:20:32.640625
1878,-89.58,2022-10-26 10:20:32.656250
1879,-152.89,2022-10-26 10:20:32.671875
1880,-212.37,2022-10-26 10:20:32.687500
1881,-259.17,2022-10-26 10:20:32.703125
1882,-285.79,2022-10-26 10:20:32.718750
1883,-287.9,2022-10-26 10:20:32.734375
1884,-265.33,2022-10-26 10:20:32.750000
1885,-221.9,2022-10-26 10:20:32.765625
1886,-164.37,2022-10-26 10:20:32.781250
1887,-99.88,2022-10-26 10:20:32.796875
1888,-33.82,2022-10-26 10:20:32.812500
1889,31.07,2022-10-26 10:20:32.828125
1890,94.37,2022-10-26 10:20:32.843750
1891,157.05,2022-10-26 10:20:32.859375
1892,218.95,2022-10-26 10:20:32.875000
1893,276.95,2022-10-26 10:20:32.890625
1894,325.69,2022-10-26 10:20:32.906250
1895,358.57,2022-10-26 10:20:32.921875
1896,371.13,2022-10-26 10:20:32.937500
1897,362.98,2022-10-26 10:20:32.953125
1898,337.46,2022-10-26 10:20:32.968750
1899,300.12,2022-10-26 10:20:32.984375
1900,255.68,2022-10-26 10:20:33.000000
1901,206.74,2022-10-26 10:20:33.015625
1902,154.57,2022-10-26 10:20:33.031250
1903,101.05,2022-10-26 10:20:33.046875
1904,50.82,2022-10-26 10:20:33.062500
1905,11.75,2022-10-26 10:20:33.078125
1906,-9.2,2022-10-26 10:20:33.093750
1907,-9.15,2022-10-26 10:20:33.109375
1908,8.03,2022-10-26 10:20:33.125000
1909,32.5,2022-10-26 10:20:33.140625
1910,52.02,2022-10-26 10:20:33.156250
1911,57.17,2022-10-26 10:20:33.171875
1912,43.58,2022-10-26 10:20:33.187500
1913,11.5,2022-10-26 10:20:33.203125
1914,-36.12,2022-10-26 10:20:33.218750
1915,-95.63,2022-10-26 10:20:33.234375
1916,-163.26,2022-10-26 10:20:33.250000
1917,-234.38,2022-10-26 10:20:33.265625
1918,-303.56,2022-10-26 10:20:33.281250
1919,-365.58,2022-10-26 10:20:33.296875
1920,-416.6,2022-10-26 10:20:33.312500
1921,-455.24,2022-10-26 10:20:33.328125
1922,-482.85,2022-10-26 10:20:33.343750
1923,-501.41,2022-10-26 10:20:33.359375
1924,-512.5,2022-10-26 10:20:33.375000
1925,-516.84,2022-10-26 10:20:33.390625
1926,-512.68,2022-10-26 10:20:33.406250
1927,-496.81,2022-10-26 10:20:33.421875
1928,-465.88,2022-10-26 10:20:33.437500
1929,-417.81,2022-10-26 10:20:33.453125
1930,-354.72,2022-10-26 10:20:33.468750
1931,-283.12,2022-10-26 10:20:33.484375
1932,-212.25,2022-10-26 10:20:33.500000
1933,-150.6,2022-10-26 10:20:33.515625
1934,-101.75,2022-10-26 10:20:33.531250
1935,-62.55,2022-10-26 10:20:33.546875
1936,-24.38,2022-10-26 10:20:33.562500
1937,23.48,2022-10-26 10:20:33.578125
1938,88.02,2022-10-26 10:20:33.593750
1939,169.85,2022-10-26 10:20:33.609375
1940,262.78,2022-10-26 10:20:33.625000
1941,356.89,2022-10-26 10:20:33.640625
1942,442.73,2022-10-26 10:20:33.656250
1943,514.25,2022-10-26 10:20:33.671875
1944,570.45,2022-10-26 10:20:33.687500
1945,614.09,2022-10-26 10:20:33.703125
1946,649.35,2022-10-26 10:20:33.718750
1947,679.59,2022-10-26 10:20:33.734375
1948,705.65,2022-10-26 10:20:33.750000
1949,725.43,2022-10-26 10:20:33.765625
1950,735.08,2022-10-26 10:20:33.781250
1951,730.56,2022-10-26 10:20:33.796875
1952,709.49,2022-10-26 10:20:33.812500
1953,671.3,2022-10-26 10:20:33.828125
1954,616.67,2022-10-26 10:20:33.843750
1955,547.24,2022-10-26 10:20:33.859375
1956,465.52,2022-10-26 10:20:33.875000
1957,374.51,2022-10-26 10:20:33.890625
1958,278.01,2022-10-26 10:20:33.906250
1959,179.44,2022-10-26 10:20:33.921875
1960,81.29,2022-10-26 10:20:33.937500
1961,-15.59,2022-10-26 10:20:33.953125
1962,-111.4,2022-10-26 10:20:33.968750
1963,-206.01,2022-10-26 10:20:33.984375
1964,-297.62,2022-10-26 10:20:34.000000
1965,-382.11,2022-10-26 10:20:34.015625
1966,-453.94,2022-10-26 10:20:34.031250
1967,-508.14,2022-10-26 10:20:34.046875
1968,-542.21,2022-10-26 10:20:34.062500
1969,-557.53,2022-10-26 10:20:34.078125
1970,-559.07,2022-10-26 10:20:34.093750
1971,-552.68,2022-10-26 10:20:34.109375
1972,-542.86,2022-10-26 10:20:34.125000
1973,-530.8,2022-10-26 10:20:34.140625
1974,-513.67,2022-10-26 10:20:34.156250
1975,-486.65,2022-10-26 10:20:34.171875
1976,-445.76,2022-10-26 10:20:34.187500
1977,-390.14,2022-10-26 10:20:34.203125
1978,-322.3,2022-10-26 10:20:34.218750
1979,-247.37,2022-10-26 10:20:34.234375
1980,-169.74,2022-10-26 10:20:34.250000
1981,-91.4,2022-10-26 10:20:34.265625
1982,-11.21,2022-10-26 10:20:34.281250
1983,72.88,2022-10-26 10:20:34.296875
1984,160.97,2022-10-26 10:20:34.312500
1985,249.26,2022-10-26 10:20:34.328125
1986,330.03,2022-10-26 10:20:34.343750
1987,394.03,2022-10-26 10:20:34.359375
1988,434.97,2022-10-26 10:20:34.375000
1989,452.2,2022-10-26 10:20:34.390625
1990,450.23,2022-10-26 10:20:34.406250
1991,434.96,2022-10-26 10:20:34.421875
1992,409.76,2022-10-26 10:20:34.437500
1993,372.88,2022-10-26 10:20:34.453125
1994,318.55,2022-10-26 10:20:34.468750
1995,241.45,2022-10-26 10:20:34.484375
1996,141.74,2022-10-26 10:20:34.500000
1997,28.21,2022-10-26 10:20:34.515625
1998,-83.23,2022-10-26 10:20:34.531250
1999,-174.82,2022-10-26 10:20:34.546875
2000,-233.35,2022-10-26 10:20:34.562500
2001,-254.03,2022-10-26 10:20:34.578125
2002,-241.06,2022-10-26 10:20:34.593750
2003,-205.07,2022-10-26 10:20:34.609375
2004,-158.14,2022-10-26 10:20:34.625000
2005,-110.94,2022-10-26 10:20:34.640625
2006,-70.58,2022-10-26 10:20:34.656250
2007,-40.04,2022-10-26 10:20:34.671875
2008,-19.69,2022-10-26 10:20:34.687500
2009,-8.03,2022-10-26 10:20:34.703125
2010,-2.31,2022-10-26 10:20:34.718750
2011,0.23,2022-10-26 10:20:34.734375
2012,2.61,2022-10-26 10:20:34.750000
2013,6.83,2022-10-26 10:20:34.765625
2014,13.1,2022-10-26 10:20:34.781250
2015,18.98,2022-10-26 10:20:34.796875
2016,19.91,2022-10-26 10:20:34.812500
2017,11.74,2022-10-26 10:20:34.828125
2018,-5.03,2022-10-26 10:20:34.843750
2019,-24.06,2022-10-26 10:20:34.859375
2020,-33.78,2022-10-26 10:20:34.875000
2021,-21.42,2022-10-26 10:20:34.890625
2022,20.17,2022-10-26 10:20:34.906250
2023,87.9,2022-10-26 10:20:34.921875
2024,167.41,2022-10-26 10:20:34.937500
2025,238.42,2022-10-26 10:20:34.953125
2026,283.06,2022-10-26 10:20:34.968750
2027,292.47,2022-10-26 10:20:34.984375
2028,269.73,2022-10-26 10:20:35.000000
2029,226.22,2022-10-26 10:20:35.015625
2030,174.72,2022-10-26 10:20:35.031250
2031,123.23,2022-10-26 10:20:35.046875
2032,73.06,2022-10-26 10:20:35.062500
2033,21.99,2022-10-26 10:20:35.078125
2034,-29.76,2022-10-26 10:20:35.093750
2035,-76.37,2022-10-26 10:20:35.109375
2036,-106.5,2022-10-26 10:20:35.125000
2037,-109.13,2022-10-26 10:20:35.140625
2038,-81.88,2022-10-26 10:20:35.156250
2039,-33.58,2022-10-26 10:20:35.171875
2040,17.49,2022-10-26 10:20:35.187500
2041,52.69,2022-10-26 10:20:35.203125
2042,62.22,2022-10-26 10:20:35.218750
2043,48.79,2022-10-26 10:20:35.234375
2044,24.67,2022-10-26 10:20:35.250000
2045,1.98,2022-10-26 10:20:35.265625
2046,-15.4,2022-10-26 10:20:35.281250
2047,-33.89,2022-10-26 10:20:35.296875
2048,-64.48,2022-10-26 10:20:35.312500
2049,-113.78,2022-10-26 10:20:35.328125
2050,-176.93,2022-10-26 10:20:35.343750
2051,-239.17,2022-10-26 10:20:35.359375
2052,-283.05,2022-10-26 10:20:35.375000
2053,-296.39,2022-10-26 10:20:35.390625
2054,-276.45,2022-10-26 10:20:35.406250
2055,-227.15,2022-10-26 10:20:35.421875
2056,-153.05,2022-10-26 10:20:35.437500
2057,-55.29,2022-10-26 10:20:35.453125
2058,66.6,2022-10-26 10:20:35.468750
2059,209.32,2022-10-26 10:20:35.484375
2060,361.85,2022-10-26 10:20:35.500000
2061,506.55,2022-10-26 10:20:35.515625
2062,626.76,2022-10-26 10:20:35.531250
2063,714.71,2022-10-26 10:20:35.546875
2064,775.41,2022-10-26 10:20:35.562500
2065,821.66,2022-10-26 10:20:35.578125
2066,865.43,2022-10-26 10:20:35.593750
2067,910.56,2022-10-26 10:20:35.609375
2068,950.37,2022-10-26 10:20:35.625000
2069,974.51,2022-10-26 10:20:35.640625
2070,976.37,2022-10-26 10:20:35.656250
2071,958.97,2022-10-26 10:20:35.671875
2072,932.86,2022-10-26 10:20:35.687500
2073,909.83,2022-10-26 10:20:35.703125
2074,895.25,2022-10-26 10:20:35.718750
2075,884.47,2022-10-26 10:20:35.734375
2076,864.58,2022-10-26 10:20:35.750000
2077,820.17,2022-10-26 10:20:35.765625
2078,739.14,2022-10-26 10:20:35.781250
2079,616.62,2022-10-26 10:20:35.796875
2080,455.16,2022-10-26 10:20:35.812500
2081,262.96,2022-10-26 10:20:35.828125
2082,52.32,2022-10-26 10:20:35.843750
2083,-163.01,2022-10-26 10:20:35.859375
2084,-370.5,2022-10-26 10:20:35.875000
2085,-560.55,2022-10-26 10:20:35.890625
2086,-727.22,2022-10-26 10:20:35.906250
2087,-868.45,2022-10-26 10:20:35.921875
2088,-985.88,2022-10-26 10:20:35.937500
2089,-1082.87,2022-10-26 10:20:35.953125
2090,-1162.36,2022-10-26 10:20:35.968750
2091,-1226.02,2022-10-26 10:20:35.984375
2092,-1272.54,2022-10-26 10:20:36.000000
2093,-1297.36,2022-10-26 10:20:36.015625
2094,-1294.55,2022-10-26 10:20:36.031250
2095,-1259.56,2022-10-26 10:20:36.046875
2096,-1192.19,2022-10-26 10:20:36.062500
2097,-1098.86,2022-10-26 10:20:36.078125
2098,-992.38,2022-10-26 10:20:36.093750
2099,-888.95,2022-10-26 10:20:36.109375
2100,-802.78,2022-10-26 10:20:36.125000
2101,-741.4,2022-10-26 10:20:36.140625
2102,-702.68,2022-10-26 10:20:36.156250
2103,-676.19,2022-10-26 10:20:36.171875
2104,-648.7,2022-10-26 10:20:36.187500
2105,-610.74,2022-10-26 10:20:36.203125
2106,-562.12,2022-10-26 10:20:36.218750
2107,-511.76,2022-10-26 10:20:36.234375
2108,-472.85,2022-10-26 10:20:36.250000
2109,-455.51,2022-10-26 10:20:36.265625
2110,-460.37,2022-10-26 10:20:36.281250
2111,-476.5,2022-10-26 10:20:36.296875
2112,-486.89,2022-10-26 10:20:36.312500
2113,-476.24,2022-10-26 10:20:36.328125
2114,-438.0,2022-10-26 10:20:36.343750
2115,-376.66,2022-10-26 10:20:36.359375
2116,-303.71,2022-10-26 10:20:36.375000
2117,-231.61,2022-10-26 10:20:36.390625
2118,-167.22,2022-10-26 10:20:36.406250
2119,-109.91,2022-10-26 10:20:36.421875
2120,-53.92,2022-10-26 10:20:36.437500
2121,7.09,2022-10-26 10:20:36.453125
2122,76.22,2022-10-26 10:20:36.468750
2123,151.64,2022-10-26 10:20:36.484375
2124,227.63,2022-10-26 10:20:36.500000
2125,296.83,2022-10-26 10:20:36.515625
2126,352.67,2022-10-26 10:20:36.531250
2127,391.62,2022-10-26 10:20:36.546875
2128,413.25,2022-10-26 10:20:36.562500
2129,418.96,2022-10-26 10:20:36.578125
2130,409.63,2022-10-26 10:20:36.593750
2131,384.65,2022-10-26 10:20:36.609375
2132,343.56,2022-10-26 10:20:36.625000
2133,288.4,2022-10-26 10:20:36.640625
2134,225.41,2022-10-26 10:20:36.656250
2135,165.14,2022-10-26 10:20:36.671875
2136,118.39,2022-10-26 10:20:36.687500
2137,91.5,2022-10-26 10:20:36.703125
2138,83.03,2022-10-26 10:20:36.718750
2139,83.73,2022-10-26 10:20:36.734375
2140,81.51,2022-10-26 10:20:36.750000
2141,66.89,2022-10-26 10:20:36.765625
2142,36.93,2022-10-26 10:20:36.781250
2143,-2.8,2022-10-26 10:20:36.796875
2144,-42.32,2022-10-26 10:20:36.812500
2145,-71.83,2022-10-26 10:20:36.828125
2146,-85.87,2022-10-26 10:20:36.843750
2147,-86.11,2022-10-26 10:20:36.859375
2148,-79.57,2022-10-26 10:20:36.875000
2149,-76.3,2022-10-26 10:20:36.890625
2150,-84.52,2022-10-26 10:20:36.906250
2151,-106.53,2022-10-26 10:20:36.921875
2152,-137.48,2022-10-26 10:20:36.937500
2153,-165.52,2022-10-26 10:20:36.953125
2154,-176.83,2022-10-26 10:20:36.968750
2155,-161.2,2022-10-26 10:20:36.984375
2156,-116.07,2022-10-26 10:20:37.000000
2157,-49.19,2022-10-26 10:20:37.015625
2158,24.68,2022-10-26 10:20:37.031250
2159,89.02,2022-10-26 10:20:37.046875
2160,132.09,2022-10-26 10:20:37.062500
2161,152.04,2022-10-26 10:20:37.078125
2162,156.42,2022-10-26 10:20:37.093750
2163,158.41,2022-10-26 10:20:37.109375
2164,170.33,2022-10-26 10:20:37.125000
2165,199.31,2022-10-26 10:20:37.140625
2166,245.69,2022-10-26 10:20:37.156250
2167,305.23,2022-10-26 10:20:37.171875
2168,374.0,2022-10-26 10:20:37.187500
2169,449.65,2022-10-26 10:20:37.203125
2170,530.3,2022-10-26 10:20:37.218750
2171,611.97,2022-10-26 10:20:37.234375
2172,686.61,2022-10-26 10:20:37.250000
2173,743.76,2022-10-26 10:20:37.265625
2174,774.13,2022-10-26 10:20:37.281250
2175,774.71,2022-10-26 10:20:37.296875
2176,749.96,2022-10-26 10:20:37.312500
2177,708.14,2022-10-26 10:20:37.328125
2178,655.97,2022-10-26 10:20:37.343750
2179,594.73,2022-10-26 10:20:37.359375
2180,519.78,2022-10-26 10:20:37.375000
2181,424.8,2022-10-26 10:20:37.390625
2182,307.78,2022-10-26 10:20:37.406250
2183,175.16,2022-10-26 10:20:37.421875
2184,39.92,2022-10-26 10:20:37.437500
2185,-82.6,2022-10-26 10:20:37.453125
2186,-181.02,2022-10-26 10:20:37.468750
2187,-250.81,2022-10-26 10:20:37.484375
2188,-293.44,2022-10-26 10:20:37.500000
2189,-314.43,2022-10-26 10:20:37.515625
2190,-319.12,2022-10-26 10:20:37.531250
2191,-311.75,2022-10-26 10:20:37.546875
2192,-294.91,2022-10-26 10:20:37.562500
2193,-270.1,2022-10-26 10:20:37.578125
2194,-238.93,2022-10-26 10:20:37.593750
2195,-203.82,2022-10-26 10:20:37.609375
2196,-167.95,2022-10-26 10:20:37.625000
2197,-134.73,2022-10-26 10:20:37.640625
2198,-106.66,2022-10-26 10:20:37.656250
2199,-85.61,2022-10-26 10:20:37.671875
2200,-71.66,2022-10-26 10:20:37.687500
2201,-64.09,2022-10-26 10:20:37.703125
2202,-61.91,2022-10-26 10:20:37.718750
2203,-64.64,2022-10-26 10:20:37.734375
2204,-72.68,2022-10-26 10:20:37.750000
2205,-86.14,2022-10-26 10:20:37.765625
2206,-104.27,2022-10-26 10:20:37.781250
2207,-123.94,2022-10-26 10:20:37.796875
2208,-138.95,2022-10-26 10:20:37.812500
2209,-142.1,2022-10-26 10:20:37.828125
2210,-128.46,2022-10-26 10:20:37.843750
2211,-97.71,2022-10-26 10:20:37.859375
2212,-54.29,2022-10-26 10:20:37.875000
2213,-5.85,2022-10-26 10:20:37.890625
2214,39.4,2022-10-26 10:20:37.906250
2215,76.42,2022-10-26 10:20:37.921875
2216,103.15,2022-10-26 10:20:37.937500
2217,120.44,2022-10-26 10:20:37.953125
2218,128.85,2022-10-26 10:20:37.968750
2219,127.37,2022-10-26 10:20:37.984375
2220,114.21,2022-10-26 10:20:38.000000
2221,88.41,2022-10-26 10:20:38.015625
2222,53.14,2022-10-26 10:20:38.031250
2223,15.07,2022-10-26 10:20:38.046875
2224,-17.17,2022-10-26 10:20:38.062500
2225,-36.64,2022-10-26 10:20:38.078125
2226,-40.44,2022-10-26 10:20:38.093750
2227,-29.9,2022-10-26 10:20:38.109375
2228,-8.89,2022-10-26 10:20:38.125000
2229,19.32,2022-10-26 10:20:38.140625
2230,52.63,2022-10-26 10:20:38.156250
2231,88.5,2022-10-26 10:20:38.171875
2232,122.41,2022-10-26 10:20:38.187500
2233,147.26,2022-10-26 10:20:38.203125
2234,155.06,2022-10-26 10:20:38.218750
2235,140.75,2022-10-26 10:20:38.234375
2236,104.19,2022-10-26 10:20:38.250000
2237,51.11,2022-10-26 10:20:38.265625
2238,-10.19,2022-10-26 10:20:38.281250
2239,-73.47,2022-10-26 10:20:38.296875
2240,-136.59,2022-10-26 10:20:38.312500
2241,-200.97,2022-10-26 10:20:38.328125
2242,-268.93,2022-10-26 10:20:38.343750
2243,-340.89,2022-10-26 10:20:38.359375
2244,-413.03,2022-10-26 10:20:38.375000
2245,-477.36,2022-10-26 10:20:38.390625
2246,-524.21,2022-10-26 10:20:38.406250
2247,-545.29,2022-10-26 10:20:38.421875
2248,-536.72,2022-10-26 10:20:38.437500
2249,-500.31,2022-10-26 10:20:38.453125
2250,-442.67,2022-10-26 10:20:38.468750
2251,-373.36,2022-10-26 10:20:38.484375
2252,-302.11,2022-10-26 10:20:38.500000
2253,-236.78,2022-10-26 10:20:38.515625
2254,-182.88,2022-10-26 10:20:38.531250
2255,-144.18,2022-10-26 10:20:38.546875
2256,-122.77,2022-10-26 10:20:38.562500
2257,-119.02,2022-10-26 10:20:38.578125
2258,-129.65,2022-10-26 10:20:38.593750
2259,-146.75,2022-10-26 10:20:38.609375
2260,-159.17,2022-10-26 10:20:38.625000
2261,-155.68,2022-10-26 10:20:38.640625
2262,-129.02,2022-10-26 10:20:38.656250
2263,-79.3,2022-10-26 10:20:38.671875
2264,-13.86,2022-10-26 10:20:38.687500
2265,57.74,2022-10-26 10:20:38.703125
2266,128.14,2022-10-26 10:20:38.718750
2267,196.69,2022-10-26 10:20:38.734375
2268,267.47,2022-10-26 10:20:38.750000
2269,344.95,2022-10-26 10:20:38.765625
2270,430.13,2022-10-26 10:20:38.781250
2271,518.17,2022-10-26 10:20:38.796875
2272,600.18,2022-10-26 10:20:38.812500
2273,668.02,2022-10-26 10:20:38.828125
2274,717.04,2022-10-26 10:20:38.843750
2275,745.45,2022-10-26 10:20:38.859375
2276,751.85,2022-10-26 10:20:38.875000
2277,732.83,2022-10-26 10:20:38.890625
2278,683.76,2022-10-26 10:20:38.906250
2279,601.39,2022-10-26 10:20:38.921875
2280,489.0,2022-10-26 10:20:38.937500
2281,358.13,2022-10-26 10:20:38.953125
2282,226.32,2022-10-26 10:20:38.968750
2283,111.17,2022-10-26 10:20:38.984375
2284,23.31,2022-10-26 10:20:39.000000
2285,-35.71,2022-10-26 10:20:39.015625
2286,-73.42,2022-10-26 10:20:39.031250
2287,-101.95,2022-10-26 10:20:39.046875
2288,-131.92,2022-10-26 10:20:39.062500
2289,-169.29,2022-10-26 10:20:39.078125
2290,-213.47,2022-10-26 10:20:39.093750
2291,-258.18,2022-10-26 10:20:39.109375
2292,-294.47,2022-10-26 10:20:39.125000
2293,-315.13,2022-10-26 10:20:39.140625
2294,-317.09,2022-10-26 10:20:39.156250
2295,-303.65,2022-10-26 10:20:39.171875
2296,-282.55,2022-10-26 10:20:39.187500
2297,-262.73,2022-10-26 10:20:39.203125
2298,-250.92,2022-10-26 10:20:39.218750
2299,-249.63,2022-10-26 10:20:39.234375
2300,-256.84,2022-10-26 10:20:39.250000
2301,-268.33,2022-10-26 10:20:39.265625
2302,-279.5,2022-10-26 10:20:39.281250
2303,-287.43,2022-10-26 10:20:39.296875
2304,-290.79,2022-10-26 10:20:39.312500
2305,-289.02,2022-10-26 10:20:39.328125
2306,-281.51,2022-10-26 10:20:39.343750
2307,-266.57,2022-10-26 10:20:39.359375
2308,-242.71,2022-10-26 10:20:39.375000
2309,-209.56,2022-10-26 10:20:39.390625
2310,-167.43,2022-10-26 10:20:39.406250
2311,-117.24,2022-10-26 10:20:39.421875
2312,-58.76,2022-10-26 10:20:39.437500
2313,8.83,2022-10-26 10:20:39.453125
2314,85.63,2022-10-26 10:20:39.468750
2315,169.32,2022-10-26 10:20:39.484375
2316,252.68,2022-10-26 10:20:39.500000
2317,324.56,2022-10-26 10:20:39.515625
2318,372.53,2022-10-26 10:20:39.531250
2319,387.68,2022-10-26 10:20:39.546875
2320,367.69,2022-10-26 10:20:39.562500
2321,316.94,2022-10-26 10:20:39.578125
2322,244.42,2022-10-26 10:20:39.593750
2323,160.06,2022-10-26 10:20:39.609375
2324,71.49,2022-10-26 10:20:39.625000
2325,-17.33,2022-10-26 10:20:39.640625
2326,-104.12,2022-10-26 10:20:39.656250
2327,-187.16,2022-10-26 10:20:39.671875
2328,-263.65,2022-10-26 10:20:39.687500
2329,-329.55,2022-10-26 10:20:39.703125
2330,-379.32,2022-10-26 10:20:39.718750
2331,-407.04,2022-10-26 10:20:39.734375
2332,-406.89,2022-10-26 10:20:39.750000
2333,-374.85,2022-10-26 10:20:39.765625
2334,-310.91,2022-10-26 10:20:39.781250
2335,-220.3,2022-10-26 10:20:39.796875
2336,-113.12,2022-10-26 10:20:39.812500
2337,-1.26,2022-10-26 10:20:39.828125
2338,104.67,2022-10-26 10:20:39.843750
2339,198.77,2022-10-26 10:20:39.859375
2340,279.62,2022-10-26 10:20:39.875000
2341,347.9,2022-10-26 10:20:39.890625
2342,404.62,2022-10-26 10:20:39.906250
2343,449.02,2022-10-26 10:20:39.921875
2344,479.8,2022-10-26 10:20:39.937500
2345,496.08,2022-10-26 10:20:39.953125
2346,498.04,2022-10-26 10:20:39.968750
2347,487.51,2022-10-26 10:20:39.984375
2348,466.26,2022-10-26 10:20:40.000000
2349,435.66,2022-10-26 10:20:40.015625
2350,395.58,2022-10-26 10:20:40.031250
2351,346.73,2022-10-26 10:20:40.046875
2352,292.19,2022-10-26 10:20:40.062500
2353,237.13,2022-10-26 10:20:40.078125
2354,188.25,2022-10-26 10:20:40.093750
2355,150.71,2022-10-26 10:20:40.109375
2356,125.92,2022-10-26 10:20:40.125000
2357,111.19,2022-10-26 10:20:40.140625
2358,101.09,2022-10-26 10:20:40.156250
2359,89.32,2022-10-26 10:20:40.171875
2360,70.85,2022-10-26 10:20:40.187500
2361,42.64,2022-10-26 10:20:40.203125
2362,5.2,2022-10-26 10:20:40.218750
2363,-38.45,2022-10-26 10:20:40.234375
2364,-84.38,2022-10-26 10:20:40.250000
2365,-128.85,2022-10-26 10:20:40.265625
2366,-170.45,2022-10-26 10:20:40.281250
2367,-209.88,2022-10-26 10:20:40.296875
2368,-248.32,2022-10-26 10:20:40.312500
2369,-284.88,2022-10-26 10:20:40.328125
2370,-315.23,2022-10-26 10:20:40.343750
2371,-331.26,2022-10-26 10:20:40.359375
2372,-323.95,2022-10-26 10:20:40.375000
2373,-287.53,2022-10-26 10:20:40.390625
2374,-222.6,2022-10-26 10:20:40.406250
2375,-137.51,2022-10-26 10:20:40.421875
2376,-45.27,2022-10-26 10:20:40.437500
2377,41.31,2022-10-26 10:20:40.453125
2378,113.09,2022-10-26 10:20:40.468750
2379,166.93,2022-10-26 10:20:40.484375
2380,203.51,2022-10-26 10:20:40.500000
2381,225.84,2022-10-26 10:20:40.515625
2382,236.26,2022-10-26 10:20:40.531250
2383,236.81,2022-10-26 10:20:40.546875
2384,230.61,2022-10-26 10:20:40.562500
2385,221.58,2022-10-26 10:20:40.578125
2386,214.09,2022-10-26 10:20:40.593750
2387,211.07,2022-10-26 10:20:40.609375
2388,212.06,2022-10-26 10:20:40.625000
2389,212.75,2022-10-26 10:20:40.640625
2390,206.07,2022-10-26 10:20:40.656250
2391,184.61,2022-10-26 10:20:40.671875
2392,144.55,2022-10-26 10:20:40.687500
2393,87.05,2022-10-26 10:20:40.703125
2394,18.56,2022-10-26 10:20:40.718750
2395,-51.12,2022-10-26 10:20:40.734375
2396,-113.17,2022-10-26 10:20:40.750000
2397,-163.12,2022-10-26 10:20:40.765625
2398,-201.85,2022-10-26 10:20:40.781250
2399,-234.6,2022-10-26 10:20:40.796875
2400,-267.44,2022-10-26 10:20:40.812500
2401,-303.95,2022-10-26 10:20:40.828125
2402,-344.53,2022-10-26 10:20:40.843750
2403,-387.76,2022-10-26 10:20:40.859375
2404,-433.41,2022-10-26 10:20:40.875000
2405,-483.76,2022-10-26 10:20:40.890625
2406,-541.14,2022-10-26 10:20:40.906250
2407,-605.23,2022-10-26 10:20:40.921875
2408,-670.96,2022-10-26 10:20:40.937500
2409,-729.74,2022-10-26 10:20:40.953125
2410,-774.5,2022-10-26 10:20:40.968750
2411,-803.79,2022-10-26 10:20:40.984375
2412,-822.71,2022-10-26 10:20:41.000000
2413,-839.74,2022-10-26 10:20:41.015625
2414,-859.86,2022-10-26 10:20:41.031250
2415,-880.35,2022-10-26 10:20:41.046875
2416,-891.32,2022-10-26 10:20:41.062500
2417,-880.23,2022-10-26 10:20:41.078125
2418,-837.81,2022-10-26 10:20:41.093750
2419,-762.28,2022-10-26 10:20:41.109375
2420,-658.34,2022-10-26 10:20:41.125000
2421,-533.99,2022-10-26 10:20:41.140625
2422,-396.08,2022-10-26 10:20:41.156250
2423,-248.96,2022-10-26 10:20:41.171875
2424,-95.52,2022-10-26 10:20:41.187500
2425,61.81,2022-10-26 10:20:41.203125
2426,219.62,2022-10-26 10:20:41.218750
2427,374.2,2022-10-26 10:20:41.234375
2428,522.98,2022-10-26 10:20:41.250000
2429,665.34,2022-10-26 10:20:41.265625
2430,801.97,2022-10-26 10:20:41.281250
2431,932.75,2022-10-26 10:20:41.296875
2432,1053.88,2022-10-26 10:20:41.312500
2433,1157.69,2022-10-26 10:20:41.328125
2434,1233.71,2022-10-26 10:20:41.343750
2435,1271.44,2022-10-26 10:20:41.359375
2436,1264.15,2022-10-26 10:20:41.375000
2437,1210.0,2022-10-26 10:20:41.390625
2438,1113.14,2022-10-26 10:20:41.406250
2439,982.72,2022-10-26 10:20:41.421875
2440,831.76,2022-10-26 10:20:41.437500
2441,675.17,2022-10-26 10:20:41.453125
2442,527.04,2022-10-26 10:20:41.468750
2443,397.75,2022-10-26 10:20:41.484375
2444,292.54,2022-10-26 10:20:41.500000
2445,210.31,2022-10-26 10:20:41.515625
2446,145.09,2022-10-26 10:20:41.531250
2447,89.04,2022-10-26 10:20:41.546875
2448,35.14,2022-10-26 10:20:41.562500
2449,-20.22,2022-10-26 10:20:41.578125
2450,-76.48,2022-10-26 10:20:41.593750
2451,-130.51,2022-10-26 10:20:41.609375
2452,-177.84,2022-10-26 10:20:41.625000
2453,-215.33,2022-10-26 10:20:41.640625
2454,-243.25,2022-10-26 10:20:41.656250
2455,-265.27,2022-10-26 10:20:41.671875
2456,-287.47,2022-10-26 10:20:41.687500
2457,-315.28,2022-10-26 10:20:41.703125
2458,-350.54,2022-10-26 10:20:41.718750
2459,-390.5,2022-10-26 10:20:41.734375
2460,-431.01,2022-10-26 10:20:41.750000
2461,-469.89,2022-10-26 10:20:41.765625
2462,-510.19,2022-10-26 10:20:41.781250
2463,-558.6,2022-10-26 10:20:41.796875
2464,-620.7,2022-10-26 10:20:41.812500
2465,-695.65,2022-10-26 10:20:41.828125
2466,-774.14,2022-10-26 10:20:41.843750
2467,-841.34,2022-10-26 10:20:41.859375
2468,-883.15,2022-10-26 10:20:41.875000
2469,-892.25,2022-10-26 10:20:41.890625
2470,-869.55,2022-10-26 10:20:41.906250
2471,-821.91,2022-10-26 10:20:41.921875
2472,-756.66,2022-10-26 10:20:41.937500
2473,-678.95,2022-10-26 10:20:41.953125
2474,-589.81,2022-10-26 10:20:41.968750
2475,-488.49,2022-10-26 10:20:41.984375
2476,-374.27,2022-10-26 10:20:42.000000
2477,-247.41,2022-10-26 10:20:42.015625
2478,-110.07,2022-10-26 10:20:42.031250
2479,33.82,2022-10-26 10:20:42.046875
2480,178.4,2022-10-26 10:20:42.062500
2481,316.2,2022-10-26 10:20:42.078125
2482,439.75,2022-10-26 10:20:42.093750
2483,543.23,2022-10-26 10:20:42.109375
2484,625.39,2022-10-26 10:20:42.125000
2485,689.9,2022-10-26 10:20:42.140625
2486,744.09,2022-10-26 10:20:42.156250
2487,794.88,2022-10-26 10:20:42.171875
2488,844.57,2022-10-26 10:20:42.187500
2489,889.24,2022-10-26 10:20:42.203125
2490,918.9,2022-10-26 10:20:42.218750
2491,922.96,2022-10-26 10:20:42.234375
2492,894.01,2022-10-26 10:20:42.250000
2493,832.18,2022-10-26 10:20:42.265625
2494,745.57,2022-10-26 10:20:42.281250
2495,647.65,2022-10-26 10:20:42.296875
2496,552.53,2022-10-26 10:20:42.312500
2497,470.98,2022-10-26 10:20:42.328125
2498,406.75,2022-10-26 10:20:42.343750
2499,357.14,2022-10-26 10:20:42.359375
2500,316.02,2022-10-26 10:20:42.375000
2501,276.91,2022-10-26 10:20:42.390625
2502,235.54,2022-10-26 10:20:42.406250
2503,190.16,2022-10-26 10:20:42.421875
2504,140.72,2022-10-26 10:20:42.437500
2505,88.22,2022-10-26 10:20:42.453125
2506,34.99,2022-10-26 10:20:42.468750
2507,-15.36,2022-10-26 10:20:42.484375
2508,-57.86,2022-10-26 10:20:42.500000
2509,-87.29,2022-10-26 10:20:42.515625
2510,-100.58,2022-10-26 10:20:42.531250
2511,-98.18,2022-10-26 10:20:42.546875
2512,-84.77,2022-10-26 10:20:42.562500
2513,-68.81,2022-10-26 10:20:42.578125
2514,-59.16,2022-10-26 10:20:42.593750
2515,-62.83,2022-10-26 10:20:42.609375
2516,-82.22,2022-10-26 10:20:42.625000
2517,-115.93,2022-10-26 10:20:42.640625
2518,-159.9,2022-10-26 10:20:42.656250
2519,-209.31,2022-10-26 10:20:42.671875
2520,-260.59,2022-10-26 10:20:42.687500
2521,-310.84,2022-10-26 10:20:42.703125
2522,-357.8,2022-10-26 10:20:42.718750
2523,-397.73,2022-10-26 10:20:42.734375
2524,-424.42,2022-10-26 10:20:42.750000
2525,-430.13,2022-10-26 10:20:42.765625
2526,-407.87,2022-10-26 10:20:42.781250
2527,-354.14,2022-10-26 10:20:42.796875
2528,-271.71,2022-10-26 10:20:42.812500
2529,-168.82,2022-10-26 10:20:42.828125
2530,-56.3,2022-10-26 10:20:42.843750
2531,55.76,2022-10-26 10:20:42.859375
2532,161.43,2022-10-26 10:20:42.875000
2533,258.38,2022-10-26 10:20:42.890625
2534,345.67,2022-10-26 10:20:42.906250
2535,421.44,2022-10-26 10:20:42.921875
2536,480.43,2022-10-26 10:20:42.937500
2537,515.72,2022-10-26 10:20:42.953125
2538,522.44,2022-10-26 10:20:42.968750
2539,500.76,2022-10-26 10:20:42.984375
2540,457.44,2022-10-26 10:20:43.000000
2541,403.25,2022-10-26 10:20:43.015625
2542,347.69,2022-10-26 10:20:43.031250
2543,294.61,2022-10-26 10:20:43.046875
2544,241.23,2022-10-26 10:20:43.062500
2545,180.51,2022-10-26 10:20:43.078125
2546,106.81,2022-10-26 10:20:43.093750
2547,20.42,2022-10-26 10:20:43.109375
2548,-71.43,2022-10-26 10:20:43.125000
2549,-157.63,2022-10-26 10:20:43.140625
2550,-227.49,2022-10-26 10:20:43.156250
2551,-275.19,2022-10-26 10:20:43.171875
2552,-299.83,2022-10-26 10:20:43.187500
2553,-304.0,2022-10-26 10:20:43.203125
2554,-291.58,2022-10-26 10:20:43.218750
2555,-266.77,2022-10-26 10:20:43.234375
2556,-233.49,2022-10-26 10:20:43.250000
2557,-195.44,2022-10-26 10:20:43.265625
2558,-155.2,2022-10-26 10:20:43.281250
2559,-113.32,2022-10-26 10:20:43.296875
2560,-69.24,2022-10-26 10:20:43.312500
2561,-22.09,2022-10-26 10:20:43.328125
2562,27.18,2022-10-26 10:20:43.343750
2563,76.06,2022-10-26 10:20:43.359375
2564,121.95,2022-10-26 10:20:43.375000
2565,164.2,2022-10-26 10:20:43.390625
2566,204.31,2022-10-26 10:20:43.406250
2567,244.19,2022-10-26 10:20:43.421875
2568,283.66,2022-10-26 10:20:43.437500
2569,318.16,2022-10-26 10:20:43.453125
2570,339.93,2022-10-26 10:20:43.468750
2571,341.24,2022-10-26 10:20:43.484375
2572,317.78,2022-10-26 10:20:43.500000
2573,270.99,2022-10-26 10:20:43.515625
2574,207.55,2022-10-26 10:20:43.531250
2575,136.97,2022-10-26 10:20:43.546875
2576,68.27,2022-10-26 10:20:43.562500
2577,7.62,2022-10-26 10:20:43.578125
2578,-43.0,2022-10-26 10:20:43.593750
2579,-85.26,2022-10-26 10:20:43.609375
2580,-122.91,2022-10-26 10:20:43.625000
2581,-159.69,2022-10-26 10:20:43.640625
2582,-197.13,2022-10-26 10:20:43.656250
2583,-233.86,2022-10-26 10:20:43.671875
2584,-265.74,2022-10-26 10:20:43.687500
2585,-286.33,2022-10-26 10:20:43.703125
2586,-288.08,2022-10-26 10:20:43.718750
2587,-264.65,2022-10-26 10:20:43.734375
2588,-213.42,2022-10-26 10:20:43.750000
2589,-137.87,2022-10-26 10:20:43.765625
2590,-48.97,2022-10-26 10:20:43.781250
2591,37.59,2022-10-26 10:20:43.796875
2592,105.2,2022-10-26 10:20:43.812500
2593,142.87,2022-10-26 10:20:43.828125
2594,147.59,2022-10-26 10:20:43.843750
2595,125.11,2022-10-26 10:20:43.859375
2596,85.17,2022-10-26 10:20:43.875000
2597,37.07,2022-10-26 10:20:43.890625
2598,-13.79,2022-10-26 10:20:43.906250
2599,-65.83,2022-10-26 10:20:43.921875
2600,-117.54,2022-10-26 10:20:43.937500
2601,-164.48,2022-10-26 10:20:43.953125
2602,-198.6,2022-10-26 10:20:43.968750
2603,-210.63,2022-10-26 10:20:43.984375
2604,-195.79,2022-10-26 10:20:44.000000
2605,-156.99,2022-10-26 10:20:44.015625
2606,-104.75,2022-10-26 10:20:44.031250
2607,-53.36,2022-10-26 10:20:44.046875
2608,-14.76,2022-10-26 10:20:44.062500
2609,5.39,2022-10-26 10:20:44.078125
2610,8.56,2022-10-26 10:20:44.093750
2611,-0.43,2022-10-26 10:20:44.109375
2612,-18.53,2022-10-26 10:20:44.125000
2613,-47.51,2022-10-26 10:20:44.140625
2614,-93.73,2022-10-26 10:20:44.156250
2615,-163.69,2022-10-26 10:20:44.171875
2616,-260.18,2022-10-26 10:20:44.187500
2617,-380.17,2022-10-26 10:20:44.203125
2618,-515.02,2022-10-26 10:20:44.218750
2619,-653.7,2022-10-26 10:20:44.234375
2620,-785.05,2022-10-26 10:20:44.250000
2621,-899.57,2022-10-26 10:20:44.265625
2622,-990.15,2022-10-26 10:20:44.281250
2623,-1052.63,2022-10-26 10:20:44.296875
2624,-1086.48,2022-10-26 10:20:44.312500
2625,-1094.84,2022-10-26 10:20:44.328125
2626,-1083.91,2022-10-26 10:20:44.343750
2627,-1061.28,2022-10-26 10:20:44.359375
2628,-1034.34,2022-10-26 10:20:44.375000
2629,-1008.8,2022-10-26 10:20:44.390625
2630,-987.1,2022-10-26 10:20:44.406250
2631,-968.45,2022-10-26 10:20:44.421875
2632,-948.19,2022-10-26 10:20:44.437500
2633,-917.37,2022-10-26 10:20:44.453125
2634,-865.57,2022-10-26 10:20:44.468750
2635,-783.45,2022-10-26 10:20:44.484375
2636,-667.22,2022-10-26 10:20:44.500000
2637,-521.51,2022-10-26 10:20:44.515625
2638,-357.68,2022-10-26 10:20:44.531250
2639,-189.93,2022-10-26 10:20:44.546875
2640,-28.23,2022-10-26 10:20:44.562500
2641,124.66,2022-10-26 10:20:44.578125
2642,272.87,2022-10-26 10:20:44.593750
2643,422.55,2022-10-26 10:20:44.609375
2644,576.49,2022-10-26 10:20:44.625000
2645,731.41,2022-10-26 10:20:44.640625
2646,879.78,2022-10-26 10:20:44.656250
2647,1014.4,2022-10-26 10:20:44.671875
2648,1131.83,2022-10-26 10:20:44.687500
2649,1231.34,2022-10-26 10:20:44.703125
2650,1312.12,2022-10-26 10:20:44.718750
2651,1368.78,2022-10-26 10:20:44.734375
2652,1391.19,2022-10-26 10:20:44.750000
2653,1368.0,2022-10-26 10:20:44.765625
2654,1292.45,2022-10-26 10:20:44.781250
2655,1167.76,2022-10-26 10:20:44.796875
2656,1008.61,2022-10-26 10:20:44.812500
2657,835.74,2022-10-26 10:20:44.828125
2658,669.27,2022-10-26 10:20:44.843750
2659,521.76,2022-10-26 10:20:44.859375
2660,396.15,2022-10-26 10:20:44.875000
2661,287.92,2022-10-26 10:20:44.890625
2662,191.99,2022-10-26 10:20:44.906250
2663,107.83,2022-10-26 10:20:44.921875
2664,40.83,2022-10-26 10:20:44.937500
2665,1.17,2022-10-26 10:20:44.953125
2666,-1.99,2022-10-26 10:20:44.968750
2667,34.97,2022-10-26 10:20:44.984375
2668,107.58,2022-10-26 10:20:45.000000
2669,203.7,2022-10-26 10:20:45.015625
2670,306.67,2022-10-26 10:20:45.031250
2671,399.34,2022-10-26 10:20:45.046875
2672,467.97,2022-10-26 10:20:45.062500
2673,504.59,2022-10-26 10:20:45.078125
2674,507.32,2022-10-26 10:20:45.093750
2675,478.05,2022-10-26 10:20:45.109375
2676,421.09,2022-10-26 10:20:45.125000
2677,340.97,2022-10-26 10:20:45.140625
2678,242.13,2022-10-26 10:20:45.156250
2679,130.54,2022-10-26 10:20:45.171875
2680,15.37,2022-10-26 10:20:45.187500
2681,-90.97,2022-10-26 10:20:45.203125
2682,-175.67,2022-10-26 10:20:45.218750
2683,-229.81,2022-10-26 10:20:45.234375
2684,-253.15,2022-10-26 10:20:45.250000
2685,-254.29,2022-10-26 10:20:45.265625
2686,-247.46,2022-10-26 10:20:45.281250
2687,-246.48,2022-10-26 10:20:45.296875
2688,-258.69,2022-10-26 10:20:45.312500
2689,-282.95,2022-10-26 10:20:45.328125
2690,-312.83,2022-10-26 10:20:45.343750
2691,-341.25,2022-10-26 10:20:45.359375
2692,-364.66,2022-10-26 10:20:45.375000
2693,-384.16,2022-10-26 10:20:45.390625
2694,-402.33,2022-10-26 10:20:45.406250
2695,-419.85,2022-10-26 10:20:45.421875
2696,-432.97,2022-10-26 10:20:45.437500
2697,-433.84,2022-10-26 10:20:45.453125
2698,-414.03,2022-10-26 10:20:45.468750
2699,-368.69,2022-10-26 10:20:45.484375
2700,-299.8,2022-10-26 10:20:45.500000
2701,-216.14,2022-10-26 10:20:45.515625
2702,-130.14,2022-10-26 10:20:45.531250
2703,-52.98,2022-10-26 10:20:45.546875
2704,9.51,2022-10-26 10:20:45.562500
2705,57.78,2022-10-26 10:20:45.578125
2706,96.8,2022-10-26 10:20:45.593750
2707,132.03,2022-10-26 10:20:45.609375
2708,166.69,2022-10-26 10:20:45.625000
2709,200.04,2022-10-26 10:20:45.640625
2710,229.01,2022-10-26 10:20:45.656250
2711,250.86,2022-10-26 10:20:45.671875
2712,264.46,2022-10-26 10:20:45.687500
2713,271.79,2022-10-26 10:20:45.703125
2714,276.62,2022-10-26 10:20:45.718750
2715,282.64,2022-10-26 10:20:45.734375
2716,291.92,2022-10-26 10:20:45.750000
2717,303.94,2022-10-26 10:20:45.765625
2718,316.61,2022-10-26 10:20:45.781250
2719,326.61,2022-10-26 10:20:45.796875
2720,329.8,2022-10-26 10:20:45.812500
2721,323.8,2022-10-26 10:20:45.828125
2722,307.57,2022-10-26 10:20:45.843750
2723,281.42,2022-10-26 10:20:45.859375
2724,246.32,2022-10-26 10:20:45.875000
2725,201.13,2022-10-26 10:20:45.890625
2726,141.81,2022-10-26 10:20:45.906250
2727,62.05,2022-10-26 10:20:45.921875
2728,-43.43,2022-10-26 10:20:45.937500
2729,-174.56,2022-10-26 10:20:45.953125
2730,-323.72,2022-10-26 10:20:45.968750
2731,-476.56,2022-10-26 10:20:45.984375
2732,-615.88,2022-10-26 10:20:46.000000
2733,-726.44,2022-10-26 10:20:46.015625
2734,-799.24,2022-10-26 10:20:46.031250
2735,-832.86,2022-10-26 10:20:46.046875
2736,-831.26,2022-10-26 10:20:46.062500
2737,-800.56,2022-10-26 10:20:46.078125
2738,-745.88,2022-10-26 10:20:46.093750
2739,-669.37,2022-10-26 10:20:46.109375
2740,-569.72,2022-10-26 10:20:46.125000
2741,-445.16,2022-10-26 10:20:46.140625
2742,-295.57,2022-10-26 10:20:46.156250
2743,-123.64,2022-10-26 10:20:46.171875
2744,63.89,2022-10-26 10:20:46.187500
2745,258.56,2022-10-26 10:20:46.203125
2746,452.93,2022-10-26 10:20:46.218750
2747,641.09,2022-10-26 10:20:46.234375
2748,818.6,2022-10-26 10:20:46.250000
2749,980.69,2022-10-26 10:20:46.265625
2750,1120.8,2022-10-26 10:20:46.281250
2751,1231.15,2022-10-26 10:20:46.296875
2752,1304.65,2022-10-26 10:20:46.312500
2753,1338.36,2022-10-26 10:20:46.328125
2754,1334.15,2022-10-26 10:20:46.343750
2755,1296.52,2022-10-26 10:20:46.359375
2756,1229.71,2022-10-26 10:20:46.375000
2757,1135.39,2022-10-26 10:20:46.390625
2758,1013.25,2022-10-26 10:20:46.406250
2759,864.25,2022-10-26 10:20:46.421875
2760,694.38,2022-10-26 10:20:46.437500
2761,515.62,2022-10-26 10:20:46.453125
2762,343.2,2022-10-26 10:20:46.468750
2763,191.07,2022-10-26 10:20:46.484375
2764,67.06,2022-10-26 10:20:46.500000
2765,-29.63,2022-10-26 10:20:46.515625
2766,-107.17,2022-10-26 10:20:46.531250
2767,-177.05,2022-10-26 10:20:46.546875
2768,-249.17,2022-10-26 10:20:46.562500
2769,-327.92,2022-10-26 10:20:46.578125
2770,-411.07,2022-10-26 10:20:46.593750
2771,-492.19,2022-10-26 10:20:46.609375
2772,-564.35,2022-10-26 10:20:46.625000
2773,-624.46,2022-10-26 10:20:46.640625
2774,-675.58,2022-10-26 10:20:46.656250
2775,-725.51,2022-10-26 10:20:46.671875
2776,-783.38,2022-10-26 10:20:46.687500
2777,-855.77,2022-10-26 10:20:46.703125
2778,-943.21,2022-10-26 10:20:46.718750
2779,-1040.12,2022-10-26 10:20:46.734375
2780,-1137.24,2022-10-26 10:20:46.750000
2781,-1224.48,2022-10-26 10:20:46.765625
2782,-1293.76,2022-10-26 10:20:46.781250
2783,-1339.98,2022-10-26 10:20:46.796875
2784,-1360.81,2022-10-26 10:20:46.812500
2785,-1356.13,2022-10-26 10:20:46.828125
2786,-1326.52,2022-10-26 10:20:46.843750
2787,-1272.45,2022-10-26 10:20:46.859375
2788,-1193.66,2022-10-26 10:20:46.875000
2789,-1088.31,2022-10-26 10:20:46.890625
2790,-954.2,2022-10-26 10:20:46.906250
2791,-790.21,2022-10-26 10:20:46.921875
2792,-598.33,2022-10-26 10:20:46.937500
2793,-384.8,2022-10-26 10:20:46.953125
2794,-161.31,2022-10-26 10:20:46.968750
2795,55.66,2022-10-26 10:20:46.984375
2796,247.72,2022-10-26 10:20:47.000000
2797,397.86,2022-10-26 10:20:47.015625
2798,493.99,2022-10-26 10:20:47.031250
2799,532.0,2022-10-26 10:20:47.046875
2800,517.53,2022-10-26 10:20:47.062500
2801,464.2,2022-10-26 10:20:47.078125
2802,391.53,2022-10-26 10:20:47.093750
2803,320.37,2022-10-26 10:20:47.109375
2804,268.28,2022-10-26 10:20:47.125000
2805,245.53,2022-10-26 10:20:47.140625
2806,252.47,2022-10-26 10:20:47.156250
2807,280.96,2022-10-26 10:20:47.171875
2808,317.68,2022-10-26 10:20:47.187500
2809,349.36,2022-10-26 10:20:47.203125
2810,367.4,2022-10-26 10:20:47.218750
2811,369.93,2022-10-26 10:20:47.234375
2812,361.69,2022-10-26 10:20:47.250000
2813,350.81,2022-10-26 10:20:47.265625
2814,345.46,2022-10-26 10:20:47.281250
2815,350.86,2022-10-26 10:20:47.296875
2816,368.66,2022-10-26 10:20:47.312500
2817,397.75,2022-10-26 10:20:47.328125
2818,434.9,2022-10-26 10:20:47.343750
2819,474.59,2022-10-26 10:20:47.359375
2820,508.96,2022-10-26 10:20:47.375000
2821,528.44,2022-10-26 10:20:47.390625
2822,523.6,2022-10-26 10:20:47.406250
2823,489.3,2022-10-26 10:20:47.421875
2824,427.68,2022-10-26 10:20:47.437500
2825,348.08,2022-10-26 10:20:47.453125
2826,263.01,2022-10-26 10:20:47.468750
2827,181.63,2022-10-26 10:20:47.484375
2828,104.61,2022-10-26 10:20:47.500000
2829,24.07,2022-10-26 10:20:47.515625
2830,-70.85,2022-10-26 10:20:47.531250
2831,-186.47,2022-10-26 10:20:47.546875
2832,-317.73,2022-10-26 10:20:47.562500
2833,-450.04,2022-10-26 10:20:47.578125
2834,-564.96,2022-10-26 10:20:47.593750
2835,-647.18,2022-10-26 10:20:47.609375
2836,-689.82,2022-10-26 10:20:47.625000
2837,-693.13,2022-10-26 10:20:47.640625
2838,-662.01,2022-10-26 10:20:47.656250
2839,-601.51,2022-10-26 10:20:47.671875
2840,-516.09,2022-10-26 10:20:47.687500
2841,-410.7,2022-10-26 10:20:47.703125
2842,-292.55,2022-10-26 10:20:47.718750
2843,-171.73,2022-10-26 10:20:47.734375
2844,-58.45,2022-10-26 10:20:47.750000
2845,40.35,2022-10-26 10:20:47.765625
2846,123.74,2022-10-26 10:20:47.781250
2847,196.1,2022-10-26 10:20:47.796875
2848,262.91,2022-10-26 10:20:47.812500
2849,326.78,2022-10-26 10:20:47.828125
2850,385.21,2022-10-26 10:20:47.843750
2851,432.11,2022-10-26 10:20:47.859375
2852,461.53,2022-10-26 10:20:47.875000
2853,471.72,2022-10-26 10:20:47.890625
2854,465.82,2022-10-26 10:20:47.906250
2855,448.55,2022-10-26 10:20:47.921875
2856,421.55,2022-10-26 10:20:47.937500
2857,381.17,2022-10-26 10:20:47.953125
2858,320.02,2022-10-26 10:20:47.968750
2859,232.95,2022-10-26 10:20:47.984375
2860,122.28,2022-10-26 10:20:48.000000
2861,-0.25,2022-10-26 10:20:48.015625
2862,-117.07,2022-10-26 10:20:48.031250
2863,-212.28,2022-10-26 10:20:48.046875
2864,-276.27,2022-10-26 10:20:48.062500
2865,-307.27,2022-10-26 10:20:48.078125
2866,-309.42,2022-10-26 10:20:48.093750
2867,-289.46,2022-10-26 10:20:48.109375
2868,-255.83,2022-10-26 10:20:48.125000
2869,-216.54,2022-10-26 10:20:48.140625
2870,-179.37,2022-10-26 10:20:48.156250
2871,-148.34,2022-10-26 10:20:48.171875
2872,-121.98,2022-10-26 10:20:48.187500
2873,-93.32,2022-10-26 10:20:48.203125
2874,-53.88,2022-10-26 10:20:48.218750
2875,-0.12,2022-10-26 10:20:48.234375
2876,61.92,2022-10-26 10:20:48.250000
2877,117.9,2022-10-26 10:20:48.265625
2878,151.35,2022-10-26 10:20:48.281250
2879,152.02,2022-10-26 10:20:48.296875
2880,121.01,2022-10-26 10:20:48.312500
2881,69.9,2022-10-26 10:20:48.328125
2882,14.27,2022-10-26 10:20:48.343750
2883,-32.95,2022-10-26 10:20:48.359375
2884,-66.3,2022-10-26 10:20:48.375000
2885,-86.15,2022-10-26 10:20:48.390625
2886,-94.91,2022-10-26 10:20:48.406250
2887,-92.68,2022-10-26 10:20:48.421875
2888,-77.17,2022-10-26 10:20:48.437500
2889,-45.89,2022-10-26 10:20:48.453125
2890,-1.12,2022-10-26 10:20:48.468750
2891,49.62,2022-10-26 10:20:48.484375
2892,95.03,2022-10-26 10:20:48.500000
2893,125.56,2022-10-26 10:20:48.515625
2894,138.67,2022-10-26 10:20:48.531250
2895,138.94,2022-10-26 10:20:48.546875
2896,135.44,2022-10-26 10:20:48.562500
2897,136.07,2022-10-26 10:20:48.578125
2898,143.87,2022-10-26 10:20:48.593750
2899,156.62,2022-10-26 10:20:48.609375
2900,168.19,2022-10-26 10:20:48.625000
2901,174.1,2022-10-26 10:20:48.640625
2902,172.59,2022-10-26 10:20:48.656250
2903,165.83,2022-10-26 10:20:48.671875
2904,157.47,2022-10-26 10:20:48.687500
2905,149.58,2022-10-26 10:20:48.703125
2906,141.39,2022-10-26 10:20:48.718750
2907,130.17,2022-10-26 10:20:48.734375
2908,112.59,2022-10-26 10:20:48.750000
2909,87.69,2022-10-26 10:20:48.765625
2910,56.88,2022-10-26 10:20:48.781250
2911,23.58,2022-10-26 10:20:48.796875
2912,-7.49,2022-10-26 10:20:48.812500
2913,-31.42,2022-10-26 10:20:48.828125
2914,-43.08,2022-10-26 10:20:48.843750
2915,-36.49,2022-10-26 10:20:48.859375
2916,-5.54,2022-10-26 10:20:48.875000
2917,55.42,2022-10-26 10:20:48.890625
2918,148.27,2022-10-26 10:20:48.906250
2919,268.78,2022-10-26 10:20:48.921875
2920,404.31,2022-10-26 10:20:48.937500
2921,535.63,2022-10-26 10:20:48.953125
2922,641.71,2022-10-26 10:20:48.968750
2923,707.5,2022-10-26 10:20:48.984375
2924,729.23,2022-10-26 10:20:49.000000
2925,715.78,2022-10-26 10:20:49.015625
2926,685.11,2022-10-26 10:20:49.031250
2927,655.3,2022-10-26 10:20:49.046875
2928,636.28,2022-10-26 10:20:49.062500
2929,625.83,2022-10-26 10:20:49.078125
2930,612.12,2022-10-26 10:20:49.093750
2931,581.05,2022-10-26 10:20:49.109375
2932,523.97,2022-10-26 10:20:49.125000
2933,441.6,2022-10-26 10:20:49.140625
2934,341.29,2022-10-26 10:20:49.156250
2935,232.18,2022-10-26 10:20:49.171875
2936,120.19,2022-10-26 10:20:49.187500
2937,7.34,2022-10-26 10:20:49.203125
2938,-105.54,2022-10-26 10:20:49.218750
2939,-215.3,2022-10-26 10:20:49.234375
2940,-315.82,2022-10-26 10:20:49.250000
2941,-399.68,2022-10-26 10:20:49.265625
2942,-462.07,2022-10-26 10:20:49.281250
2943,-502.74,2022-10-26 10:20:49.296875
2944,-525.02,2022-10-26 10:20:49.312500
2945,-533.17,2022-10-26 10:20:49.328125
2946,-530.05,2022-10-26 10:20:49.343750
2947,-517.04,2022-10-26 10:20:49.359375
2948,-496.22,2022-10-26 10:20:49.375000
2949,-471.96,2022-10-26 10:20:49.390625
2950,-452.12,2022-10-26 10:20:49.406250
2951,-445.44,2022-10-26 10:20:49.421875
2952,-457.33,2022-10-26 10:20:49.437500
2953,-487.29,2022-10-26 10:20:49.453125
2954,-527.1,2022-10-26 10:20:49.468750
2955,-562.98,2022-10-26 10:20:49.484375
2956,-579.51,2022-10-26 10:20:49.500000
2957,-565.27,2022-10-26 10:20:49.515625
2958,-516.99,2022-10-26 10:20:49.531250
2959,-439.74,2022-10-26 10:20:49.546875
2960,-345.14,2022-10-26 10:20:49.562500
2961,-247.41,2022-10-26 10:20:49.578125
2962,-159.23,2022-10-26 10:20:49.593750
2963,-90.08,2022-10-26 10:20:49.609375
2964,-45.8,2022-10-26 10:20:49.625000
2965,-29.64,2022-10-26 10:20:49.640625
2966,-42.66,2022-10-26 10:20:49.656250
2967,-82.97,2022-10-26 10:20:49.671875
2968,-145.19,2022-10-26 10:20:49.687500
2969,-221.14,2022-10-26 10:20:49.703125
2970,-301.68,2022-10-26 10:20:49.718750
2971,-379.09,2022-10-26 10:20:49.734375
2972,-449.91,2022-10-26 10:20:49.750000
2973,-514.2,2022-10-26 10:20:49.765625
2974,-574.42,2022-10-26 10:20:49.781250
2975,-631.98,2022-10-26 10:20:49.796875
2976,-684.78,2022-10-26 10:20:49.812500
2977,-727.35,2022-10-26 10:20:49.828125
2978,-752.54,2022-10-26 10:20:49.843750
2979,-754.77,2022-10-26 10:20:49.859375
2980,-732.75,2022-10-26 10:20:49.875000
2981,-688.97,2022-10-26 10:20:49.890625
2982,-629.04,2022-10-26 10:20:49.906250
2983,-559.44,2022-10-26 10:20:49.921875
2984,-485.44,2022-10-26 10:20:49.937500
2985,-410.21,2022-10-26 10:20:49.953125
2986,-333.29,2022-10-26 10:20:49.968750
2987,-252.01,2022-10-26 10:20:49.984375
2988,-162.51,2022-10-26 10:20:50.000000
2989,-62.39,2022-10-26 10:20:50.015625
2990,46.97,2022-10-26 10:20:50.031250
2991,160.21,2022-10-26 10:20:50.046875
2992,269.29,2022-10-26 10:20:50.062500
2993,366.63,2022-10-26 10:20:50.078125
2994,447.56,2022-10-26 10:20:50.093750
2995,511.33,2022-10-26 10:20:50.109375
2996,560.26,2022-10-26 10:20:50.125000
2997,596.78,2022-10-26 10:20:50.140625
2998,621.26,2022-10-26 10:20:50.156250
2999,631.62,2022-10-26 10:20:50.171875
3000,625.43,2022-10-26 10:20:50.187500
3001,602.28,2022-10-26 10:20:50.203125
3002,564.37,2022-10-26 10:20:50.218750
3003,515.98,2022-10-26 10:20:50.234375
3004,461.63,2022-10-26 10:20:50.250000
3005,405.48,2022-10-26 10:20:50.265625
3006,351.79,2022-10-26 10:20:50.281250
3007,306.14,2022-10-26 10:20:50.296875
3008,275.33,2022-10-26 10:20:50.312500
3009,265.65,2022-10-26 10:20:50.328125
3010,279.71,2022-10-26 10:20:50.343750
3011,314.92,2022-10-26 10:20:50.359375
3012,362.26,2022-10-26 10:20:50.375000
3013,409.36,2022-10-26 10:20:50.390625
3014,444.5,2022-10-26 10:20:50.406250
3015,461.03,2022-10-26 10:20:50.421875
3016,459.75,2022-10-26 10:20:50.437500
3017,447.46,2022-10-26 10:20:50.453125
3018,433.68,2022-10-26 10:20:50.468750
3019,425.62,2022-10-26 10:20:50.484375
3020,426.28,2022-10-26 10:20:50.500000
3021,433.6,2022-10-26 10:20:50.515625
3022,441.62,2022-10-26 10:20:50.531250
3023,443.33,2022-10-26 10:20:50.546875
3024,432.35,2022-10-26 10:20:50.562500
3025,404.52,2022-10-26 10:20:50.578125
3026,358.84,2022-10-26 10:20:50.593750
3027,297.95,2022-10-26 10:20:50.609375
3028,227.54,2022-10-26 10:20:50.625000
3029,155.57,2022-10-26 10:20:50.640625
3030,89.6,2022-10-26 10:20:50.656250
3031,35.31,2022-10-26 10:20:50.671875
3032,-4.6,2022-10-26 10:20:50.687500
3033,-30.07,2022-10-26 10:20:50.703125
3034,-42.34,2022-10-26 10:20:50.718750
3035,-42.88,2022-10-26 10:20:50.734375
3036,-33.53,2022-10-26 10:20:50.750000
3037,-17.98,2022-10-26 10:20:50.765625
3038,-3.28,2022-10-26 10:20:50.781250
3039,0.3,2022-10-26 10:20:50.796875
3040,-18.62,2022-10-26 10:20:50.812500
3041,-67.8,2022-10-26 10:20:50.828125
3042,-149.1,2022-10-26 10:20:50.843750
3043,-256.82,2022-10-26 10:20:50.859375
3044,-380.5,2022-10-26 10:20:50.875000
3045,-508.85,2022-10-26 10:20:50.890625
3046,-632.89,2022-10-26 10:20:50.906250
3047,-747.09,2022-10-26 10:20:50.921875
3048,-848.39,2022-10-26 10:20:50.937500
3049,-934.37,2022-10-26 10:20:50.953125
3050,-1000.55,2022-10-26 10:20:50.968750
3051,-1040.41,2022-10-26 10:20:50.984375
3052,-1046.3,2022-10-26 10:20:51.000000
3053,-1012.96,2022-10-26 10:20:51.015625
3054,-940.24,2022-10-26 10:20:51.031250
3055,-833.93,2022-10-26 10:20:51.046875
3056,-705.01,2022-10-26 10:20:51.062500
3057,-565.4,2022-10-26 10:20:51.078125
3058,-424.75,2022-10-26 10:20:51.093750
3059,-288.55,2022-10-26 10:20:51.109375
3060,-159.12,2022-10-26 10:20:51.125000
3061,-38.01,2022-10-26 10:20:51.140625
3062,71.02,2022-10-26 10:20:51.156250
3063,160.65,2022-10-26 10:20:51.171875
3064,221.37,2022-10-26 10:20:51.187500
3065,244.35,2022-10-26 10:20:51.203125
3066,223.97,2022-10-26 10:20:51.218750
3067,160.31,2022-10-26 10:20:51.234375
3068,59.23,2022-10-26 10:20:51.250000
3069,-68.5,2022-10-26 10:20:51.265625
3070,-209.06,2022-10-26 10:20:51.281250
3071,-346.58,2022-10-26 10:20:51.296875
3072,-465.9,2022-10-26 10:20:51.312500
3073,-554.44,2022-10-26 10:20:51.328125
3074,-606.74,2022-10-26 10:20:51.343750
3075,-625.78,2022-10-26 10:20:51.359375
3076,-621.54,2022-10-26 10:20:51.375000
3077,-606.9,2022-10-26 10:20:51.390625
3078,-592.02,2022-10-26 10:20:51.406250
3079,-580.24,2022-10-26 10:20:51.421875
3080,-567.97,2022-10-26 10:20:51.437500
3081,-548.89,2022-10-26 10:20:51.453125
3082,-518.85,2022-10-26 10:20:51.468750
3083,-479.38,2022-10-26 10:20:51.484375
3084,-436.46,2022-10-26 10:20:51.500000
3085,-396.94,2022-10-26 10:20:51.515625
3086,-363.24,2022-10-26 10:20:51.531250
3087,-330.07,2022-10-26 10:20:51.546875
3088,-285.91,2022-10-26 10:20:51.562500
3089,-217.29,2022-10-26 10:20:51.578125
3090,-114.49,2022-10-26 10:20:51.593750
3091,24.68,2022-10-26 10:20:51.609375
3092,194.47,2022-10-26 10:20:51.625000
3093,382.55,2022-10-26 10:20:51.640625
3094,574.29,2022-10-26 10:20:51.656250
3095,756.93,2022-10-26 10:20:51.671875
