,BVP,time
0,-211.65,2022-10-28 10:19:32.093750
1,-194.47,2022-10-28 10:19:32.109375
2,-158.17,2022-10-28 10:19:32.125000
3,-109.86,2022-10-28 10:19:32.140625
4,-56.64,2022-10-28 10:19:32.156250
5,-3.21,2022-10-28 10:19:32.171875
6,48.88,2022-10-28 10:19:32.187500
7,100.32,2022-10-28 10:19:32.203125
8,152.44,2022-10-28 10:19:32.218750
9,205.88,2022-10-28 10:19:32.234375
10,259.94,2022-10-28 10:19:32.250000
11,312.63,2022-10-28 10:19:32.265625
12,361.09,2022-10-28 10:19:32.281250
13,402.17,2022-10-28 10:19:32.296875
14,433.03,2022-10-28 10:19:32.312500
15,451.71,2022-10-28 10:19:32.328125
16,457.43,2022-10-28 10:19:32.343750
17,450.55,2022-10-28 10:19:32.359375
18,432.05,2022-10-28 10:19:32.375000
19,403.23,2022-10-28 10:19:32.390625
20,365.76,2022-10-28 10:19:32.406250
21,322.15,2022-10-28 10:19:32.421875
22,276.05,2022-10-28 10:19:32.437500
23,231.83,2022-10-28 10:19:32.453125
24,193.41,2022-10-28 10:19:32.468750
25,162.61,2022-10-28 10:19:32.484375
26,138.29,2022-10-28 10:19:32.500000
27,116.48,2022-10-28 10:19:32.515625
28,92.24,2022-10-28 10:19:32.531250
29,61.63,2022-10-28 10:19:32.546875
30,23.35,2022-10-28 10:19:32.562500
31,-20.84,2022-10-28 10:19:32.578125
32,-67.14,2022-10-28 10:19:32.593750
33,-111.45,2022-10-28 10:19:32.609375
34,-150.96,2022-10-28 10:19:32.625000
35,-184.86,2022-10-28 10:19:32.640625
36,-214.0,2022-10-28 10:19:32.656250
37,-239.89,2022-10-28 10:19:32.671875
38,-263.52,2022-10-28 10:19:32.687500
39,-284.82,2022-10-28 10:19:32.703125
40,-303.03,2022-10-28 10:19:32.718750
41,-317.93,2022-10-28 10:19:32.734375
42,-331.04,2022-10-28 10:19:32.750000
43,-345.83,2022-10-28 10:19:32.765625
44,-366.43,2022-10-28 10:19:32.781250
45,-395.46,2022-10-28 10:19:32.796875
46,-432.2,2022-10-28 10:19:32.812500
47,-472.21,2022-10-28 10:19:32.828125
48,-508.97,2022-10-28 10:19:32.843750
49,-536.37,2022-10-28 10:19:32.859375
50,-550.83,2022-10-28 10:19:32.875000
51,-551.99,2022-10-28 10:19:32.890625
52,-541.61,2022-10-28 10:19:32.906250
53,-521.83,2022-10-28 10:19:32.921875
54,-494.13,2022-10-28 10:19:32.937500
55,-459.62,2022-10-28 10:19:32.953125
56,-420.09,2022-10-28 10:19:32.968750
57,-378.85,2022-10-28 10:19:32.984375
58,-340.15,2022-10-28 10:19:33.000000
59,-307.44,2022-10-28 10:19:33.015625
60,-281.31,2022-10-28 10:19:33.031250
61,-258.78,2022-10-28 10:19:33.046875
62,-234.35,2022-10-28 10:19:33.062500
63,-202.16,2022-10-28 10:19:33.078125
64,-158.42,2022-10-28 10:19:33.093750
65,-102.25,2022-10-28 10:19:33.109375
66,-35.27,2022-10-28 10:19:33.125000
67,39.99,2022-10-28 10:19:33.140625
68,121.9,2022-10-28 10:19:33.156250
69,210.55,2022-10-28 10:19:33.171875
70,307.29,2022-10-28 10:19:33.187500
71,413.04,2022-10-28 10:19:33.203125
72,526.4,2022-10-28 10:19:33.218750
73,642.6,2022-10-28 10:19:33.234375
74,754.05,2022-10-28 10:19:33.250000
75,852.19,2022-10-28 10:19:33.265625
76,929.81,2022-10-28 10:19:33.281250
77,982.67,2022-10-28 10:19:33.296875
78,1009.72,2022-10-28 10:19:33.312500
79,1012.06,2022-10-28 10:19:33.328125
80,991.43,2022-10-28 10:19:33.343750
81,949.26,2022-10-28 10:19:33.359375
82,886.77,2022-10-28 10:19:33.375000
83,805.98,2022-10-28 10:19:33.390625
84,710.53,2022-10-28 10:19:33.406250
85,605.78,2022-10-28 10:19:33.421875
86,497.9,2022-10-28 10:19:33.437500
87,392.24,2022-10-28 10:19:33.453125
88,292.1,2022-10-28 10:19:33.468750
89,198.48,2022-10-28 10:19:33.484375
90,110.81,2022-10-28 10:19:33.500000
91,28.24,2022-10-28 10:19:33.515625
92,-49.27,2022-10-28 10:19:33.531250
93,-120.68,2022-10-28 10:19:33.546875
94,-184.15,2022-10-28 10:19:33.562500
95,-237.78,2022-10-28 10:19:33.578125
96,-280.57,2022-10-28 10:19:33.593750
97,-312.96,2022-10-28 10:19:33.609375
98,-336.94,2022-10-28 10:19:33.625000
99,-355.77,2022-10-28 10:19:33.640625
100,-373.42,2022-10-28 10:19:33.656250
101,-393.88,2022-10-28 10:19:33.671875
102,-419.99,2022-10-28 10:19:33.687500
103,-452.16,2022-10-28 10:19:33.703125
104,-487.4,2022-10-28 10:19:33.718750
105,-519.56,2022-10-28 10:19:33.734375
106,-540.76,2022-10-28 10:19:33.750000
107,-543.94,2022-10-28 10:19:33.765625
108,-525.17,2022-10-28 10:19:33.781250
109,-484.98,2022-10-28 10:19:33.796875
110,-428.06,2022-10-28 10:19:33.812500
111,-361.74,2022-10-28 10:19:33.828125
112,-293.98,2022-10-28 10:19:33.843750
113,-231.71,2022-10-28 10:19:33.859375
114,-179.65,2022-10-28 10:19:33.875000
115,-139.84,2022-10-28 10:19:33.890625
116,-111.65,2022-10-28 10:19:33.906250
117,-92.49,2022-10-28 10:19:33.921875
118,-78.95,2022-10-28 10:19:33.937500
119,-68.04,2022-10-28 10:19:33.953125
120,-58.24,2022-10-28 10:19:33.968750
121,-49.5,2022-10-28 10:19:33.984375
122,-42.54,2022-10-28 10:19:34.000000
123,-37.78,2022-10-28 10:19:34.015625
124,-34.63,2022-10-28 10:19:34.031250
125,-31.76,2022-10-28 10:19:34.046875
126,-27.9,2022-10-28 10:19:34.062500
127,-22.32,2022-10-28 10:19:34.078125
128,-14.87,2022-10-28 10:19:34.093750
129,-5.56,2022-10-28 10:19:34.109375
130,5.68,2022-10-28 10:19:34.125000
131,18.51,2022-10-28 10:19:34.140625
132,31.44,2022-10-28 10:19:34.156250
133,41.49,2022-10-28 10:19:34.171875
134,44.8,2022-10-28 10:19:34.187500
135,38.15,2022-10-28 10:19:34.203125
136,20.58,2022-10-28 10:19:34.218750
137,-5.89,2022-10-28 10:19:34.234375
138,-36.84,2022-10-28 10:19:34.250000
139,-66.85,2022-10-28 10:19:34.265625
140,-91.21,2022-10-28 10:19:34.281250
141,-107.02,2022-10-28 10:19:34.296875
142,-113.44,2022-10-28 10:19:34.312500
143,-111.31,2022-10-28 10:19:34.328125
144,-102.59,2022-10-28 10:19:34.343750
145,-89.81,2022-10-28 10:19:34.359375
146,-75.76,2022-10-28 10:19:34.375000
147,-63.17,2022-10-28 10:19:34.390625
148,-54.27,2022-10-28 10:19:34.406250
149,-50.4,2022-10-28 10:19:34.421875
150,-51.64,2022-10-28 10:19:34.437500
151,-56.74,2022-10-28 10:19:34.453125
152,-63.7,2022-10-28 10:19:34.468750
153,-70.31,2022-10-28 10:19:34.484375
154,-75.05,2022-10-28 10:19:34.500000
155,-77.61,2022-10-28 10:19:34.515625
156,-78.96,2022-10-28 10:19:34.531250
157,-81.02,2022-10-28 10:19:34.546875
158,-86.04,2022-10-28 10:19:34.562500
159,-95.71,2022-10-28 10:19:34.578125
160,-110.57,2022-10-28 10:19:34.593750
161,-129.66,2022-10-28 10:19:34.609375
162,-150.49,2022-10-28 10:19:34.625000
163,-169.46,2022-10-28 10:19:34.640625
164,-182.59,2022-10-28 10:19:34.656250
165,-186.43,2022-10-28 10:19:34.671875
166,-178.7,2022-10-28 10:19:34.687500
167,-158.69,2022-10-28 10:19:34.703125
168,-127.41,2022-10-28 10:19:34.718750
169,-87.63,2022-10-28 10:19:34.734375
170,-43.67,2022-10-28 10:19:34.750000
171,-0.97,2022-10-28 10:19:34.765625
172,34.94,2022-10-28 10:19:34.781250
173,60.04,2022-10-28 10:19:34.796875
174,73.29,2022-10-28 10:19:34.812500
175,77.31,2022-10-28 10:19:34.828125
176,77.45,2022-10-28 10:19:34.843750
177,79.73,2022-10-28 10:19:34.859375
178,88.45,2022-10-28 10:19:34.875000
179,104.66,2022-10-28 10:19:34.890625
180,126.47,2022-10-28 10:19:34.906250
181,150.5,2022-10-28 10:19:34.921875
182,173.76,2022-10-28 10:19:34.937500
183,194.55,2022-10-28 10:19:34.953125
184,212.38,2022-10-28 10:19:34.968750
185,227.01,2022-10-28 10:19:34.984375
186,237.84,2022-10-28 10:19:35.000000
187,243.97,2022-10-28 10:19:35.015625
188,244.89,2022-10-28 10:19:35.031250
189,240.99,2022-10-28 10:19:35.046875
190,233.58,2022-10-28 10:19:35.062500
191,224.07,2022-10-28 10:19:35.078125
192,213.18,2022-10-28 10:19:35.093750
193,200.66,2022-10-28 10:19:35.109375
194,185.68,2022-10-28 10:19:35.125000
195,167.79,2022-10-28 10:19:35.140625
196,147.43,2022-10-28 10:19:35.156250
197,125.88,2022-10-28 10:19:35.171875
198,104.38,2022-10-28 10:19:35.187500
199,83.2,2022-10-28 10:19:35.203125
200,61.3,2022-10-28 10:19:35.218750
201,36.82,2022-10-28 10:19:35.234375
202,8.51,2022-10-28 10:19:35.250000
203,-23.06,2022-10-28 10:19:35.265625
204,-55.05,2022-10-28 10:19:35.281250
205,-83.1,2022-10-28 10:19:35.296875
206,-103.04,2022-10-28 10:19:35.312500
207,-112.46,2022-10-28 10:19:35.328125
208,-111.57,2022-10-28 10:19:35.343750
209,-102.8,2022-10-28 10:19:35.359375
210,-89.61,2022-10-28 10:19:35.375000
211,-75.21,2022-10-28 10:19:35.390625
212,-61.76,2022-10-28 10:19:35.406250
213,-50.16,2022-10-28 10:19:35.421875
214,-40.3,2022-10-28 10:19:35.437500
215,-31.46,2022-10-28 10:19:35.453125
216,-22.6,2022-10-28 10:19:35.468750
217,-12.59,2022-10-28 10:19:35.484375
218,-0.39,2022-10-28 10:19:35.500000
219,14.62,2022-10-28 10:19:35.515625
220,32.42,2022-10-28 10:19:35.531250
221,51.99,2022-10-28 10:19:35.546875
222,71.42,2022-10-28 10:19:35.562500
223,88.0,2022-10-28 10:19:35.578125
224,98.7,2022-10-28 10:19:35.593750
225,100.88,2022-10-28 10:19:35.609375
226,93.15,2022-10-28 10:19:35.625000
227,75.93,2022-10-28 10:19:35.640625
228,51.59,2022-10-28 10:19:35.656250
229,23.95,2022-10-28 10:19:35.671875
230,-2.82,2022-10-28 10:19:35.687500
231,-25.36,2022-10-28 10:19:35.703125
232,-41.74,2022-10-28 10:19:35.718750
233,-51.5,2022-10-28 10:19:35.734375
234,-55.11,2022-10-28 10:19:35.750000
235,-53.38,2022-10-28 10:19:35.765625
236,-47.04,2022-10-28 10:19:35.781250
237,-36.97,2022-10-28 10:19:35.796875
238,-24.43,2022-10-28 10:19:35.812500
239,-11.28,2022-10-28 10:19:35.828125
240,0.41,2022-10-28 10:19:35.843750
241,8.86,2022-10-28 10:19:35.859375
242,13.36,2022-10-28 10:19:35.875000
243,14.51,2022-10-28 10:19:35.890625
244,14.01,2022-10-28 10:19:35.906250
245,13.88,2022-10-28 10:19:35.921875
246,15.55,2022-10-28 10:19:35.937500
247,19.31,2022-10-28 10:19:35.953125
248,24.19,2022-10-28 10:19:35.968750
249,28.49,2022-10-28 10:19:35.984375
250,30.56,2022-10-28 10:19:36.000000
251,29.54,2022-10-28 10:19:36.015625
252,25.7,2022-10-28 10:19:36.031250
253,20.0,2022-10-28 10:19:36.046875
254,13.73,2022-10-28 10:19:36.062500
255,7.73,2022-10-28 10:19:36.078125
256,2.26,2022-10-28 10:19:36.093750
257,-2.92,2022-10-28 10:19:36.109375
258,-8.17,2022-10-28 10:19:36.125000
259,-13.59,2022-10-28 10:19:36.140625
260,-18.89,2022-10-28 10:19:36.156250
261,-23.63,2022-10-28 10:19:36.171875
262,-27.5,2022-10-28 10:19:36.187500
263,-30.55,2022-10-28 10:19:36.203125
264,-33.24,2022-10-28 10:19:36.218750
265,-36.0,2022-10-28 10:19:36.234375
266,-38.91,2022-10-28 10:19:36.250000
267,-41.57,2022-10-28 10:19:36.265625
268,-43.22,2022-10-28 10:19:36.281250
269,-43.3,2022-10-28 10:19:36.296875
270,-42.0,2022-10-28 10:19:36.312500
271,-40.44,2022-10-28 10:19:36.328125
272,-40.29,2022-10-28 10:19:36.343750
273,-43.01,2022-10-28 10:19:36.359375
274,-48.9,2022-10-28 10:19:36.375000
275,-56.71,2022-10-28 10:19:36.390625
276,-63.96,2022-10-28 10:19:36.406250
277,-67.89,2022-10-28 10:19:36.421875
278,-66.6,2022-10-28 10:19:36.437500
279,-59.74,2022-10-28 10:19:36.453125
280,-48.48,2022-10-28 10:19:36.468750
281,-34.74,2022-10-28 10:19:36.484375
282,-20.33,2022-10-28 10:19:36.500000
283,-6.26,2022-10-28 10:19:36.515625
284,7.26,2022-10-28 10:19:36.531250
285,20.42,2022-10-28 10:19:36.546875
286,33.25,2022-10-28 10:19:36.562500
287,45.29,2022-10-28 10:19:36.578125
288,55.67,2022-10-28 10:19:36.593750
289,63.46,2022-10-28 10:19:36.609375
290,68.03,2022-10-28 10:19:36.625000
291,69.25,2022-10-28 10:19:36.640625
292,67.5,2022-10-28 10:19:36.656250
293,63.38,2022-10-28 10:19:36.671875
294,57.62,2022-10-28 10:19:36.687500
295,50.98,2022-10-28 10:19:36.703125
296,44.23,2022-10-28 10:19:36.718750
297,38.17,2022-10-28 10:19:36.734375
298,33.5,2022-10-28 10:19:36.750000
299,30.77,2022-10-28 10:19:36.765625
300,30.15,2022-10-28 10:19:36.781250
301,31.44,2022-10-28 10:19:36.796875
302,33.99,2022-10-28 10:19:36.812500
303,36.92,2022-10-28 10:19:36.828125
304,39.3,2022-10-28 10:19:36.843750
305,40.4,2022-10-28 10:19:36.859375
306,39.91,2022-10-28 10:19:36.875000
307,38.07,2022-10-28 10:19:36.890625
308,35.52,2022-10-28 10:19:36.906250
309,33.07,2022-10-28 10:19:36.921875
310,31.39,2022-10-28 10:19:36.937500
311,30.7,2022-10-28 10:19:36.953125
312,30.75,2022-10-28 10:19:36.968750
313,30.93,2022-10-28 10:19:36.984375
314,30.45,2022-10-28 10:19:37.000000
315,28.65,2022-10-28 10:19:37.015625
316,25.19,2022-10-28 10:19:37.031250
317,20.1,2022-10-28 10:19:37.046875
318,13.81,2022-10-28 10:19:37.062500
319,7.14,2022-10-28 10:19:37.078125
320,1.0,2022-10-28 10:19:37.093750
321,-3.8,2022-10-28 10:19:37.109375
322,-6.93,2022-10-28 10:19:37.125000
323,-8.66,2022-10-28 10:19:37.140625
324,-9.78,2022-10-28 10:19:37.156250
325,-11.3,2022-10-28 10:19:37.171875
326,-13.99,2022-10-28 10:19:37.187500
327,-18.15,2022-10-28 10:19:37.203125
328,-23.56,2022-10-28 10:19:37.218750
329,-29.71,2022-10-28 10:19:37.234375
330,-36.15,2022-10-28 10:19:37.250000
331,-42.67,2022-10-28 10:19:37.265625
332,-49.34,2022-10-28 10:19:37.281250
333,-56.35,2022-10-28 10:19:37.296875
334,-63.83,2022-10-28 10:19:37.312500
335,-71.76,2022-10-28 10:19:37.328125
336,-79.99,2022-10-28 10:19:37.343750
337,-88.31,2022-10-28 10:19:37.359375
338,-96.46,2022-10-28 10:19:37.375000
339,-104.02,2022-10-28 10:19:37.390625
340,-110.22,2022-10-28 10:19:37.406250
341,-113.92,2022-10-28 10:19:37.421875
342,-113.81,2022-10-28 10:19:37.437500
343,-108.78,2022-10-28 10:19:37.453125
344,-98.42,2022-10-28 10:19:37.468750
345,-83.22,2022-10-28 10:19:37.484375
346,-64.57,2022-10-28 10:19:37.500000
347,-44.4,2022-10-28 10:19:37.515625
348,-24.67,2022-10-28 10:19:37.531250
349,-6.94,2022-10-28 10:19:37.546875
350,7.84,2022-10-28 10:19:37.562500
351,19.33,2022-10-28 10:19:37.578125
352,27.71,2022-10-28 10:19:37.593750
353,33.59,2022-10-28 10:19:37.609375
354,37.74,2022-10-28 10:19:37.625000
355,41.01,2022-10-28 10:19:37.640625
356,44.03,2022-10-28 10:19:37.656250
357,47.09,2022-10-28 10:19:37.671875
358,50.03,2022-10-28 10:19:37.687500
359,52.47,2022-10-28 10:19:37.703125
360,54.04,2022-10-28 10:19:37.718750
361,54.61,2022-10-28 10:19:37.734375
362,54.39,2022-10-28 10:19:37.750000
363,53.82,2022-10-28 10:19:37.765625
364,53.33,2022-10-28 10:19:37.781250
365,53.16,2022-10-28 10:19:37.796875
366,53.26,2022-10-28 10:19:37.812500
367,53.36,2022-10-28 10:19:37.828125
368,53.12,2022-10-28 10:19:37.843750
369,52.26,2022-10-28 10:19:37.859375
370,50.6,2022-10-28 10:19:37.875000
371,48.16,2022-10-28 10:19:37.890625
372,45.07,2022-10-28 10:19:37.906250
373,41.45,2022-10-28 10:19:37.921875
374,37.37,2022-10-28 10:19:37.937500
375,32.86,2022-10-28 10:19:37.953125
376,27.95,2022-10-28 10:19:37.968750
377,22.69,2022-10-28 10:19:37.984375
378,17.29,2022-10-28 10:19:38.000000
379,12.02,2022-10-28 10:19:38.015625
380,7.15,2022-10-28 10:19:38.031250
381,2.87,2022-10-28 10:19:38.046875
382,-0.65,2022-10-28 10:19:38.062500
383,-3.32,2022-10-28 10:19:38.078125
384,-5.07,2022-10-28 10:19:38.093750
385,-5.95,2022-10-28 10:19:38.109375
386,-6.33,2022-10-28 10:19:38.125000
387,-6.88,2022-10-28 10:19:38.140625
388,-8.47,2022-10-28 10:19:38.156250
389,-11.75,2022-10-28 10:19:38.171875
390,-16.81,2022-10-28 10:19:38.187500
391,-23.02,2022-10-28 10:19:38.203125
392,-29.35,2022-10-28 10:19:38.218750
393,-34.88,2022-10-28 10:19:38.234375
394,-39.3,2022-10-28 10:19:38.250000
395,-43.1,2022-10-28 10:19:38.265625
396,-47.33,2022-10-28 10:19:38.281250
397,-53.09,2022-10-28 10:19:38.296875
398,-61.02,2022-10-28 10:19:38.312500
399,-71.06,2022-10-28 10:19:38.328125
400,-82.37,2022-10-28 10:19:38.343750
401,-93.65,2022-10-28 10:19:38.359375
402,-103.31,2022-10-28 10:19:38.375000
403,-109.84,2022-10-28 10:19:38.390625
404,-112.08,2022-10-28 10:19:38.406250
405,-109.44,2022-10-28 10:19:38.421875
406,-102.23,2022-10-28 10:19:38.437500
407,-91.57,2022-10-28 10:19:38.453125
408,-79.11,2022-10-28 10:19:38.468750
409,-66.58,2022-10-28 10:19:38.484375
410,-55.14,2022-10-28 10:19:38.500000
411,-44.96,2022-10-28 10:19:38.515625
412,-35.12,2022-10-28 10:19:38.531250
413,-24.08,2022-10-28 10:19:38.546875
414,-10.34,2022-10-28 10:19:38.562500
415,6.71,2022-10-28 10:19:38.578125
416,26.32,2022-10-28 10:19:38.593750
417,46.43,2022-10-28 10:19:38.609375
418,64.35,2022-10-28 10:19:38.625000
419,77.67,2022-10-28 10:19:38.640625
420,85.2,2022-10-28 10:19:38.656250
421,87.33,2022-10-28 10:19:38.671875
422,85.77,2022-10-28 10:19:38.687500
423,82.93,2022-10-28 10:19:38.703125
424,81.05,2022-10-28 10:19:38.718750
425,81.62,2022-10-28 10:19:38.734375
426,85.2,2022-10-28 10:19:38.750000
427,91.51,2022-10-28 10:19:38.765625
428,99.68,2022-10-28 10:19:38.781250
429,108.48,2022-10-28 10:19:38.796875
430,116.63,2022-10-28 10:19:38.812500
431,122.91,2022-10-28 10:19:38.828125
432,126.44,2022-10-28 10:19:38.843750
433,126.83,2022-10-28 10:19:38.859375
434,124.37,2022-10-28 10:19:38.875000
435,119.9,2022-10-28 10:19:38.890625
436,114.6,2022-10-28 10:19:38.906250
437,109.6,2022-10-28 10:19:38.921875
438,105.63,2022-10-28 10:19:38.937500
439,102.92,2022-10-28 10:19:38.953125
440,101.13,2022-10-28 10:19:38.968750
441,99.64,2022-10-28 10:19:38.984375
442,97.65,2022-10-28 10:19:39.000000
443,94.59,2022-10-28 10:19:39.015625
444,90.21,2022-10-28 10:19:39.031250
445,84.76,2022-10-28 10:19:39.046875
446,78.83,2022-10-28 10:19:39.062500
447,73.08,2022-10-28 10:19:39.078125
448,67.91,2022-10-28 10:19:39.093750
449,63.16,2022-10-28 10:19:39.109375
450,58.18,2022-10-28 10:19:39.125000
451,52.1,2022-10-28 10:19:39.140625
452,44.28,2022-10-28 10:19:39.156250
453,34.64,2022-10-28 10:19:39.171875
454,23.67,2022-10-28 10:19:39.187500
455,12.05,2022-10-28 10:19:39.203125
456,0.31,2022-10-28 10:19:39.218750
457,-11.55,2022-10-28 10:19:39.234375
458,-23.85,2022-10-28 10:19:39.250000
459,-37.02,2022-10-28 10:19:39.265625
460,-51.2,2022-10-28 10:19:39.281250
461,-66.2,2022-10-28 10:19:39.296875
462,-81.6,2022-10-28 10:19:39.312500
463,-96.75,2022-10-28 10:19:39.328125
464,-110.73,2022-10-28 10:19:39.343750
465,-122.38,2022-10-28 10:19:39.359375
466,-130.47,2022-10-28 10:19:39.375000
467,-134.1,2022-10-28 10:19:39.390625
468,-133.3,2022-10-28 10:19:39.406250
469,-129.3,2022-10-28 10:19:39.421875
470,-124.3,2022-10-28 10:19:39.437500
471,-120.76,2022-10-28 10:19:39.453125
472,-120.37,2022-10-28 10:19:39.468750
473,-123.32,2022-10-28 10:19:39.484375
474,-128.11,2022-10-28 10:19:39.500000
475,-132.13,2022-10-28 10:19:39.515625
476,-132.48,2022-10-28 10:19:39.531250
477,-127.1,2022-10-28 10:19:39.546875
478,-115.36,2022-10-28 10:19:39.562500
479,-98.27,2022-10-28 10:19:39.578125
480,-78.13,2022-10-28 10:19:39.593750
481,-57.66,2022-10-28 10:19:39.609375
482,-39.25,2022-10-28 10:19:39.625000
483,-24.4,2022-10-28 10:19:39.640625
484,-13.56,2022-10-28 10:19:39.656250
485,-6.37,2022-10-28 10:19:39.671875
486,-2.01,2022-10-28 10:19:39.687500
487,0.63,2022-10-28 10:19:39.703125
488,2.74,2022-10-28 10:19:39.718750
489,5.42,2022-10-28 10:19:39.734375
490,9.39,2022-10-28 10:19:39.750000
491,14.68,2022-10-28 10:19:39.765625
492,20.68,2022-10-28 10:19:39.781250
493,26.54,2022-10-28 10:19:39.796875
494,31.67,2022-10-28 10:19:39.812500
495,36.12,2022-10-28 10:19:39.828125
496,40.41,2022-10-28 10:19:39.843750
497,44.93,2022-10-28 10:19:39.859375
498,49.35,2022-10-28 10:19:39.875000
499,52.47,2022-10-28 10:19:39.890625
500,52.81,2022-10-28 10:19:39.906250
501,49.45,2022-10-28 10:19:39.921875
502,42.72,2022-10-28 10:19:39.937500
503,34.11,2022-10-28 10:19:39.953125
504,25.66,2022-10-28 10:19:39.968750
505,18.92,2022-10-28 10:19:39.984375
506,14.46,2022-10-28 10:19:40.000000
507,12.02,2022-10-28 10:19:40.015625
508,11.01,2022-10-28 10:19:40.031250
509,11.0,2022-10-28 10:19:40.046875
510,11.85,2022-10-28 10:19:40.062500
511,13.53,2022-10-28 10:19:40.078125
512,15.66,2022-10-28 10:19:40.093750
513,17.43,2022-10-28 10:19:40.109375
514,17.75,2022-10-28 10:19:40.125000
515,15.9,2022-10-28 10:19:40.140625
516,11.96,2022-10-28 10:19:40.156250
517,7.06,2022-10-28 10:19:40.171875
518,3.14,2022-10-28 10:19:40.187500
519,2.17,2022-10-28 10:19:40.203125
520,5.31,2022-10-28 10:19:40.218750
521,12.22,2022-10-28 10:19:40.234375
522,21.01,2022-10-28 10:19:40.250000
523,28.74,2022-10-28 10:19:40.265625
524,32.57,2022-10-28 10:19:40.281250
525,30.82,2022-10-28 10:19:40.296875
526,23.67,2022-10-28 10:19:40.312500
527,12.98,2022-10-28 10:19:40.328125
528,1.39,2022-10-28 10:19:40.343750
529,-8.76,2022-10-28 10:19:40.359375
530,-16.25,2022-10-28 10:19:40.375000
531,-21.12,2022-10-28 10:19:40.390625
532,-24.15,2022-10-28 10:19:40.406250
533,-26.27,2022-10-28 10:19:40.421875
534,-28.11,2022-10-28 10:19:40.437500
535,-30.1,2022-10-28 10:19:40.453125
536,-32.56,2022-10-28 10:19:40.468750
537,-35.96,2022-10-28 10:19:40.484375
538,-40.72,2022-10-28 10:19:40.500000
539,-47.03,2022-10-28 10:19:40.515625
540,-54.52,2022-10-28 10:19:40.531250
541,-62.32,2022-10-28 10:19:40.546875
542,-69.29,2022-10-28 10:19:40.562500
543,-74.3,2022-10-28 10:19:40.578125
544,-76.55,2022-10-28 10:19:40.593750
545,-75.55,2022-10-28 10:19:40.609375
546,-71.12,2022-10-28 10:19:40.625000
547,-63.27,2022-10-28 10:19:40.640625
548,-52.28,2022-10-28 10:19:40.656250
549,-38.74,2022-10-28 10:19:40.671875
550,-23.63,2022-10-28 10:19:40.687500
551,-8.17,2022-10-28 10:19:40.703125
552,6.42,2022-10-28 10:19:40.718750
553,19.21,2022-10-28 10:19:40.734375
554,29.93,2022-10-28 10:19:40.750000
555,38.9,2022-10-28 10:19:40.765625
556,46.87,2022-10-28 10:19:40.781250
557,54.5,2022-10-28 10:19:40.796875
558,61.9,2022-10-28 10:19:40.812500
559,68.47,2022-10-28 10:19:40.828125
560,73.11,2022-10-28 10:19:40.843750
561,74.88,2022-10-28 10:19:40.859375
562,73.45,2022-10-28 10:19:40.875000
563,69.4,2022-10-28 10:19:40.890625
564,63.99,2022-10-28 10:19:40.906250
565,58.7,2022-10-28 10:19:40.921875
566,54.74,2022-10-28 10:19:40.937500
567,52.75,2022-10-28 10:19:40.953125
568,52.89,2022-10-28 10:19:40.968750
569,55.02,2022-10-28 10:19:40.984375
570,58.92,2022-10-28 10:19:41.000000
571,64.27,2022-10-28 10:19:41.015625
572,70.58,2022-10-28 10:19:41.031250
573,77.01,2022-10-28 10:19:41.046875
574,82.48,2022-10-28 10:19:41.062500
575,85.88,2022-10-28 10:19:41.078125
576,86.48,2022-10-28 10:19:41.093750
577,84.22,2022-10-28 10:19:41.109375
578,79.78,2022-10-28 10:19:41.125000
579,74.4,2022-10-28 10:19:41.140625
580,69.45,2022-10-28 10:19:41.156250
581,65.94,2022-10-28 10:19:41.171875
582,64.19,2022-10-28 10:19:41.187500
583,63.88,2022-10-28 10:19:41.203125
584,64.22,2022-10-28 10:19:41.218750
585,64.48,2022-10-28 10:19:41.234375
586,64.4,2022-10-28 10:19:41.250000
587,64.24,2022-10-28 10:19:41.265625
588,64.65,2022-10-28 10:19:41.281250
589,66.21,2022-10-28 10:19:41.296875
590,69.07,2022-10-28 10:19:41.312500
591,72.8,2022-10-28 10:19:41.328125
592,76.59,2022-10-28 10:19:41.343750
593,79.73,2022-10-28 10:19:41.359375
594,81.95,2022-10-28 10:19:41.375000
595,83.62,2022-10-28 10:19:41.390625
596,85.63,2022-10-28 10:19:41.406250
597,88.99,2022-10-28 10:19:41.421875
598,94.37,2022-10-28 10:19:41.437500
599,101.87,2022-10-28 10:19:41.453125
600,110.87,2022-10-28 10:19:41.468750
601,120.32,2022-10-28 10:19:41.484375
602,128.99,2022-10-28 10:19:41.500000
603,135.77,2022-10-28 10:19:41.515625
604,139.9,2022-10-28 10:19:41.531250
605,141.21,2022-10-28 10:19:41.546875
606,140.22,2022-10-28 10:19:41.562500
607,138.02,2022-10-28 10:19:41.578125
608,136.0,2022-10-28 10:19:41.593750
609,135.13,2022-10-28 10:19:41.609375
610,135.38,2022-10-28 10:19:41.625000
611,135.3,2022-10-28 10:19:41.640625
612,132.29,2022-10-28 10:19:41.656250
613,123.48,2022-10-28 10:19:41.671875
614,106.83,2022-10-28 10:19:41.687500
615,82.02,2022-10-28 10:19:41.703125
616,50.48,2022-10-28 10:19:41.718750
617,14.66,2022-10-28 10:19:41.734375
618,-23.2,2022-10-28 10:19:41.750000
619,-61.87,2022-10-28 10:19:41.765625
620,-101.36,2022-10-28 10:19:41.781250
621,-142.23,2022-10-28 10:19:41.796875
622,-184.6,2022-10-28 10:19:41.812500
623,-227.59,2022-10-28 10:19:41.828125
624,-269.52,2022-10-28 10:19:41.843750
625,-308.57,2022-10-28 10:19:41.859375
626,-343.77,2022-10-28 10:19:41.875000
627,-375.52,2022-10-28 10:19:41.890625
628,-405.47,2022-10-28 10:19:41.906250
629,-435.87,2022-10-28 10:19:41.921875
630,-469.19,2022-10-28 10:19:41.937500
631,-507.64,2022-10-28 10:19:41.953125
632,-552.71,2022-10-28 10:19:41.968750
633,-604.35,2022-10-28 10:19:41.984375
634,-659.89,2022-10-28 10:19:42.000000
635,-713.59,2022-10-28 10:19:42.015625
636,-757.41,2022-10-28 10:19:42.031250
637,-783.09,2022-10-28 10:19:42.046875
638,-785.07,2022-10-28 10:19:42.062500
639,-762.58,2022-10-28 10:19:42.078125
640,-719.86,2022-10-28 10:19:42.093750
641,-664.36,2022-10-28 10:19:42.109375
642,-603.71,2022-10-28 10:19:42.125000
643,-543.34,2022-10-28 10:19:42.140625
644,-485.47,2022-10-28 10:19:42.156250
645,-430.04,2022-10-28 10:19:42.171875
646,-376.26,2022-10-28 10:19:42.187500
647,-323.8,2022-10-28 10:19:42.203125
648,-273.03,2022-10-28 10:19:42.218750
649,-224.34,2022-10-28 10:19:42.234375
650,-177.5,2022-10-28 10:19:42.250000
651,-131.59,2022-10-28 10:19:42.265625
652,-85.6,2022-10-28 10:19:42.281250
653,-39.15,2022-10-28 10:19:42.296875
654,7.12,2022-10-28 10:19:42.312500
655,51.96,2022-10-28 10:19:42.328125
656,93.93,2022-10-28 10:19:42.343750
657,132.25,2022-10-28 10:19:42.359375
658,167.04,2022-10-28 10:19:42.375000
659,199.15,2022-10-28 10:19:42.390625
660,229.6,2022-10-28 10:19:42.406250
661,259.1,2022-10-28 10:19:42.421875
662,287.69,2022-10-28 10:19:42.437500
663,314.79,2022-10-28 10:19:42.453125
664,339.54,2022-10-28 10:19:42.468750
665,361.2,2022-10-28 10:19:42.484375
666,379.61,2022-10-28 10:19:42.500000
667,395.49,2022-10-28 10:19:42.515625
668,410.44,2022-10-28 10:19:42.531250
669,426.54,2022-10-28 10:19:42.546875
670,445.42,2022-10-28 10:19:42.562500
671,467.12,2022-10-28 10:19:42.578125
672,489.44,2022-10-28 10:19:42.593750
673,508.1,2022-10-28 10:19:42.609375
674,518.08,2022-10-28 10:19:42.625000
675,515.75,2022-10-28 10:19:42.640625
676,500.41,2022-10-28 10:19:42.656250
677,474.78,2022-10-28 10:19:42.671875
678,443.87,2022-10-28 10:19:42.687500
679,412.78,2022-10-28 10:19:42.703125
680,384.76,2022-10-28 10:19:42.718750
681,360.27,2022-10-28 10:19:42.734375
682,337.68,2022-10-28 10:19:42.750000
683,314.8,2022-10-28 10:19:42.765625
684,290.53,2022-10-28 10:19:42.781250
685,265.43,2022-10-28 10:19:42.796875
686,241.24,2022-10-28 10:19:42.812500
687,219.69,2022-10-28 10:19:42.828125
688,201.52,2022-10-28 10:19:42.843750
689,186.2,2022-10-28 10:19:42.859375
690,172.47,2022-10-28 10:19:42.875000
691,159.09,2022-10-28 10:19:42.890625
692,145.35,2022-10-28 10:19:42.906250
693,131.12,2022-10-28 10:19:42.921875
694,116.46,2022-10-28 10:19:42.937500
695,101.2,2022-10-28 10:19:42.953125
696,85.04,2022-10-28 10:19:42.968750
697,67.97,2022-10-28 10:19:42.984375
698,50.83,2022-10-28 10:19:43.000000
699,35.54,2022-10-28 10:19:43.015625
700,24.65,2022-10-28 10:19:43.031250
701,20.4,2022-10-28 10:19:43.046875
702,23.74,2022-10-28 10:19:43.062500
703,33.6,2022-10-28 10:19:43.078125
704,47.09,2022-10-28 10:19:43.093750
705,60.38,2022-10-28 10:19:43.109375
706,69.99,2022-10-28 10:19:43.125000
707,74.12,2022-10-28 10:19:43.140625
708,73.14,2022-10-28 10:19:43.156250
709,69.36,2022-10-28 10:19:43.171875
710,65.78,2022-10-28 10:19:43.187500
711,64.71,2022-10-28 10:19:43.203125
712,66.8,2022-10-28 10:19:43.218750
713,70.95,2022-10-28 10:19:43.234375
714,75.35,2022-10-28 10:19:43.250000
715,78.67,2022-10-28 10:19:43.265625
716,80.81,2022-10-28 10:19:43.281250
717,82.58,2022-10-28 10:19:43.296875
718,84.61,2022-10-28 10:19:43.312500
719,86.3,2022-10-28 10:19:43.328125
720,85.77,2022-10-28 10:19:43.343750
721,80.83,2022-10-28 10:19:43.359375
722,70.69,2022-10-28 10:19:43.375000
723,56.99,2022-10-28 10:19:43.390625
724,43.4,2022-10-28 10:19:43.406250
725,34.05,2022-10-28 10:19:43.421875
726,31.46,2022-10-28 10:19:43.437500
727,35.49,2022-10-28 10:19:43.453125
728,43.83,2022-10-28 10:19:43.468750
729,53.63,2022-10-28 10:19:43.484375
730,63.25,2022-10-28 10:19:43.500000
731,72.9,2022-10-28 10:19:43.515625
732,83.91,2022-10-28 10:19:43.531250
733,97.14,2022-10-28 10:19:43.546875
734,111.95,2022-10-28 10:19:43.562500
735,126.07,2022-10-28 10:19:43.578125
736,136.84,2022-10-28 10:19:43.593750
737,142.61,2022-10-28 10:19:43.609375
738,143.53,2022-10-28 10:19:43.625000
739,141.09,2022-10-28 10:19:43.640625
740,136.84,2022-10-28 10:19:43.656250
741,131.1,2022-10-28 10:19:43.671875
742,122.5,2022-10-28 10:19:43.687500
743,108.95,2022-10-28 10:19:43.703125
744,89.06,2022-10-28 10:19:43.718750
745,63.55,2022-10-28 10:19:43.734375
746,35.32,2022-10-28 10:19:43.750000
747,8.43,2022-10-28 10:19:43.765625
748,-13.67,2022-10-28 10:19:43.781250
749,-29.56,2022-10-28 10:19:43.796875
750,-40.17,2022-10-28 10:19:43.812500
751,-47.92,2022-10-28 10:19:43.828125
752,-55.24,2022-10-28 10:19:43.843750
753,-63.56,2022-10-28 10:19:43.859375
754,-73.16,2022-10-28 10:19:43.875000
755,-84.01,2022-10-28 10:19:43.890625
756,-96.75,2022-10-28 10:19:43.906250
757,-113.04,2022-10-28 10:19:43.921875
758,-134.64,2022-10-28 10:19:43.937500
759,-161.89,2022-10-28 10:19:43.953125
760,-192.49,2022-10-28 10:19:43.968750
761,-221.72,2022-10-28 10:19:43.984375
762,-244.16,2022-10-28 10:19:44.000000
763,-255.96,2022-10-28 10:19:44.015625
764,-256.73,2022-10-28 10:19:44.031250
765,-249.52,2022-10-28 10:19:44.046875
766,-239.33,2022-10-28 10:19:44.062500
767,-230.77,2022-10-28 10:19:44.078125
768,-226.16,2022-10-28 10:19:44.093750
769,-225.18,2022-10-28 10:19:44.109375
770,-225.66,2022-10-28 10:19:44.125000
771,-225.22,2022-10-28 10:19:44.140625
772,-222.46,2022-10-28 10:19:44.156250
773,-217.36,2022-10-28 10:19:44.171875
774,-210.77,2022-10-28 10:19:44.187500
775,-203.69,2022-10-28 10:19:44.203125
776,-196.7,2022-10-28 10:19:44.218750
777,-190.01,2022-10-28 10:19:44.234375
778,-183.81,2022-10-28 10:19:44.250000
779,-178.5,2022-10-28 10:19:44.265625
780,-174.79,2022-10-28 10:19:44.281250
781,-173.21,2022-10-28 10:19:44.296875
782,-173.87,2022-10-28 10:19:44.312500
783,-176.12,2022-10-28 10:19:44.328125
784,-178.79,2022-10-28 10:19:44.343750
785,-180.63,2022-10-28 10:19:44.359375
786,-180.91,2022-10-28 10:19:44.375000
787,-179.84,2022-10-28 10:19:44.390625
788,-178.5,2022-10-28 10:19:44.406250
789,-178.42,2022-10-28 10:19:44.421875
790,-180.71,2022-10-28 10:19:44.437500
791,-185.29,2022-10-28 10:19:44.453125
792,-190.47,2022-10-28 10:19:44.468750
793,-193.29,2022-10-28 10:19:44.484375
794,-190.43,2022-10-28 10:19:44.500000
795,-179.45,2022-10-28 10:19:44.515625
796,-159.86,2022-10-28 10:19:44.531250
797,-133.34,2022-10-28 10:19:44.546875
798,-103.23,2022-10-28 10:19:44.562500
799,-73.29,2022-10-28 10:19:44.578125
800,-46.57,2022-10-28 10:19:44.593750
801,-24.57,2022-10-28 10:19:44.609375
802,-7.25,2022-10-28 10:19:44.625000
803,6.33,2022-10-28 10:19:44.640625
804,17.33,2022-10-28 10:19:44.656250
805,26.52,2022-10-28 10:19:44.671875
806,34.11,2022-10-28 10:19:44.687500
807,40.01,2022-10-28 10:19:44.703125
808,44.12,2022-10-28 10:19:44.718750
809,46.53,2022-10-28 10:19:44.734375
810,47.58,2022-10-28 10:19:44.750000
811,47.76,2022-10-28 10:19:44.765625
812,47.58,2022-10-28 10:19:44.781250
813,47.49,2022-10-28 10:19:44.796875
814,47.82,2022-10-28 10:19:44.812500
815,48.86,2022-10-28 10:19:44.828125
816,50.75,2022-10-28 10:19:44.843750
817,53.53,2022-10-28 10:19:44.859375
818,57.03,2022-10-28 10:19:44.875000
819,60.92,2022-10-28 10:19:44.890625
820,64.72,2022-10-28 10:19:44.906250
821,67.83,2022-10-28 10:19:44.921875
822,69.71,2022-10-28 10:19:44.937500
823,69.99,2022-10-28 10:19:44.953125
824,68.52,2022-10-28 10:19:44.968750
825,65.41,2022-10-28 10:19:44.984375
826,60.97,2022-10-28 10:19:45.000000
827,55.71,2022-10-28 10:19:45.015625
828,50.14,2022-10-28 10:19:45.031250
829,44.71,2022-10-28 10:19:45.046875
830,39.65,2022-10-28 10:19:45.062500
831,34.9,2022-10-28 10:19:45.078125
832,30.24,2022-10-28 10:19:45.093750
833,25.36,2022-10-28 10:19:45.109375
834,20.13,2022-10-28 10:19:45.125000
835,14.6,2022-10-28 10:19:45.140625
836,9.03,2022-10-28 10:19:45.156250
837,3.6,2022-10-28 10:19:45.171875
838,-1.69,2022-10-28 10:19:45.187500
839,-7.17,2022-10-28 10:19:45.203125
840,-13.24,2022-10-28 10:19:45.218750
841,-20.24,2022-10-28 10:19:45.234375
842,-28.1,2022-10-28 10:19:45.250000
843,-36.37,2022-10-28 10:19:45.265625
844,-44.36,2022-10-28 10:19:45.281250
845,-51.55,2022-10-28 10:19:45.296875
846,-57.81,2022-10-28 10:19:45.312500
847,-63.61,2022-10-28 10:19:45.328125
848,-69.87,2022-10-28 10:19:45.343750
849,-77.67,2022-10-28 10:19:45.359375
850,-87.78,2022-10-28 10:19:45.375000
851,-100.23,2022-10-28 10:19:45.390625
852,-113.94,2022-10-28 10:19:45.406250
853,-126.76,2022-10-28 10:19:45.421875
854,-135.81,2022-10-28 10:19:45.437500
855,-138.28,2022-10-28 10:19:45.453125
856,-132.22,2022-10-28 10:19:45.468750
857,-117.25,2022-10-28 10:19:45.484375
858,-94.83,2022-10-28 10:19:45.500000
859,-67.8,2022-10-28 10:19:45.515625
860,-39.56,2022-10-28 10:19:45.531250
861,-13.15,2022-10-28 10:19:45.546875
862,9.37,2022-10-28 10:19:45.562500
863,27.19,2022-10-28 10:19:45.578125
864,40.53,2022-10-28 10:19:45.593750
865,50.24,2022-10-28 10:19:45.609375
866,57.39,2022-10-28 10:19:45.625000
867,62.91,2022-10-28 10:19:45.640625
868,67.56,2022-10-28 10:19:45.656250
869,71.78,2022-10-28 10:19:45.671875
870,75.79,2022-10-28 10:19:45.687500
871,79.53,2022-10-28 10:19:45.703125
872,82.8,2022-10-28 10:19:45.718750
873,85.31,2022-10-28 10:19:45.734375
874,86.8,2022-10-28 10:19:45.750000
875,87.19,2022-10-28 10:19:45.765625
876,86.7,2022-10-28 10:19:45.781250
877,85.76,2022-10-28 10:19:45.796875
878,84.89,2022-10-28 10:19:45.812500
879,84.53,2022-10-28 10:19:45.828125
880,84.79,2022-10-28 10:19:45.843750
881,85.48,2022-10-28 10:19:45.859375
882,86.07,2022-10-28 10:19:45.875000
883,85.97,2022-10-28 10:19:45.890625
884,84.7,2022-10-28 10:19:45.906250
885,82.01,2022-10-28 10:19:45.921875
886,77.93,2022-10-28 10:19:45.937500
887,72.66,2022-10-28 10:19:45.953125
888,66.44,2022-10-28 10:19:45.968750
889,59.57,2022-10-28 10:19:45.984375
890,52.35,2022-10-28 10:19:46.000000
891,45.13,2022-10-28 10:19:46.015625
892,38.23,2022-10-28 10:19:46.031250
893,31.81,2022-10-28 10:19:46.046875
894,25.81,2022-10-28 10:19:46.062500
895,19.88,2022-10-28 10:19:46.078125
896,13.58,2022-10-28 10:19:46.093750
897,6.56,2022-10-28 10:19:46.109375
898,-1.19,2022-10-28 10:19:46.125000
899,-9.29,2022-10-28 10:19:46.140625
900,-17.07,2022-10-28 10:19:46.156250
901,-23.93,2022-10-28 10:19:46.171875
902,-29.57,2022-10-28 10:19:46.187500
903,-34.16,2022-10-28 10:19:46.203125
904,-38.38,2022-10-28 10:19:46.218750
905,-43.19,2022-10-28 10:19:46.234375
906,-49.59,2022-10-28 10:19:46.250000
907,-58.27,2022-10-28 10:19:46.265625
908,-69.3,2022-10-28 10:19:46.281250
909,-81.85,2022-10-28 10:19:46.296875
910,-94.12,2022-10-28 10:19:46.312500
911,-103.56,2022-10-28 10:19:46.328125
912,-107.48,2022-10-28 10:19:46.343750
913,-103.83,2022-10-28 10:19:46.359375
914,-91.88,2022-10-28 10:19:46.375000
915,-72.56,2022-10-28 10:19:46.390625
916,-48.26,2022-10-28 10:19:46.406250
917,-22.07,2022-10-28 10:19:46.421875
918,3.07,2022-10-28 10:19:46.437500
919,25.14,2022-10-28 10:19:46.453125
920,43.31,2022-10-28 10:19:46.468750
921,57.71,2022-10-28 10:19:46.484375
922,69.0,2022-10-28 10:19:46.500000
923,77.84,2022-10-28 10:19:46.515625
924,84.61,2022-10-28 10:19:46.531250
925,89.37,2022-10-28 10:19:46.546875
926,92.05,2022-10-28 10:19:46.562500
927,92.69,2022-10-28 10:19:46.578125
928,91.6,2022-10-28 10:19:46.593750
929,89.33,2022-10-28 10:19:46.609375
930,86.63,2022-10-28 10:19:46.625000
931,84.19,2022-10-28 10:19:46.640625
932,82.54,2022-10-28 10:19:46.656250
933,81.97,2022-10-28 10:19:46.671875
934,82.55,2022-10-28 10:19:46.687500
935,84.2,2022-10-28 10:19:46.703125
936,86.68,2022-10-28 10:19:46.718750
937,89.59,2022-10-28 10:19:46.734375
938,92.4,2022-10-28 10:19:46.750000
939,94.49,2022-10-28 10:19:46.765625
940,95.29,2022-10-28 10:19:46.781250
941,94.42,2022-10-28 10:19:46.796875
942,91.84,2022-10-28 10:19:46.812500
943,87.83,2022-10-28 10:19:46.828125
944,82.91,2022-10-28 10:19:46.843750
945,77.65,2022-10-28 10:19:46.859375
946,72.44,2022-10-28 10:19:46.875000
947,67.44,2022-10-28 10:19:46.890625
948,62.57,2022-10-28 10:19:46.906250
949,57.68,2022-10-28 10:19:46.921875
950,52.64,2022-10-28 10:19:46.937500
951,47.38,2022-10-28 10:19:46.953125
952,41.9,2022-10-28 10:19:46.968750
953,36.23,2022-10-28 10:19:46.984375
954,30.38,2022-10-28 10:19:47.000000
955,24.42,2022-10-28 10:19:47.015625
956,18.55,2022-10-28 10:19:47.031250
957,13.05,2022-10-28 10:19:47.046875
958,8.16,2022-10-28 10:19:47.062500
959,4.01,2022-10-28 10:19:47.078125
960,0.52,2022-10-28 10:19:47.093750
961,-2.6,2022-10-28 10:19:47.109375
962,-5.72,2022-10-28 10:19:47.125000
963,-9.17,2022-10-28 10:19:47.140625
964,-13.22,2022-10-28 10:19:47.156250
965,-18.08,2022-10-28 10:19:47.171875
966,-23.92,2022-10-28 10:19:47.187500
967,-30.84,2022-10-28 10:19:47.203125
968,-38.73,2022-10-28 10:19:47.218750
969,-47.21,2022-10-28 10:19:47.234375
970,-55.62,2022-10-28 10:19:47.250000
971,-63.17,2022-10-28 10:19:47.265625
972,-69.31,2022-10-28 10:19:47.281250
973,-73.95,2022-10-28 10:19:47.296875
974,-77.66,2022-10-28 10:19:47.312500
975,-81.55,2022-10-28 10:19:47.328125
976,-87.1,2022-10-28 10:19:47.343750
977,-95.64,2022-10-28 10:19:47.359375
978,-107.77,2022-10-28 10:19:47.375000
979,-122.9,2022-10-28 10:19:47.390625
980,-138.93,2022-10-28 10:19:47.406250
981,-152.54,2022-10-28 10:19:47.421875
982,-160.03,2022-10-28 10:19:47.437500
983,-158.42,2022-10-28 10:19:47.453125
984,-146.58,2022-10-28 10:19:47.468750
985,-125.6,2022-10-28 10:19:47.484375
986,-98.55,2022-10-28 10:19:47.500000
987,-69.4,2022-10-28 10:19:47.515625
988,-41.82,2022-10-28 10:19:47.531250
989,-18.2,2022-10-28 10:19:47.546875
990,0.6,2022-10-28 10:19:47.562500
991,14.97,2022-10-28 10:19:47.578125
992,25.84,2022-10-28 10:19:47.593750
993,34.21,2022-10-28 10:19:47.609375
994,40.73,2022-10-28 10:19:47.625000
995,45.8,2022-10-28 10:19:47.640625
996,49.67,2022-10-28 10:19:47.656250
997,52.52,2022-10-28 10:19:47.671875
998,54.57,2022-10-28 10:19:47.687500
999,55.97,2022-10-28 10:19:47.703125
1000,56.85,2022-10-28 10:19:47.718750
1001,57.3,2022-10-28 10:19:47.734375
1002,57.46,2022-10-28 10:19:47.750000
1003,57.6,2022-10-28 10:19:47.765625
1004,58.1,2022-10-28 10:19:47.781250
1005,59.29,2022-10-28 10:19:47.796875
1006,61.32,2022-10-28 10:19:47.812500
1007,64.09,2022-10-28 10:19:47.828125
1008,67.12,2022-10-28 10:19:47.843750
1009,69.77,2022-10-28 10:19:47.859375
1010,71.39,2022-10-28 10:19:47.875000
1011,71.54,2022-10-28 10:19:47.890625
1012,70.11,2022-10-28 10:19:47.906250
1013,67.28,2022-10-28 10:19:47.921875
1014,63.45,2022-10-28 10:19:47.937500
1015,59.02,2022-10-28 10:19:47.953125
1016,54.41,2022-10-28 10:19:47.968750
1017,49.91,2022-10-28 10:19:47.984375
1018,45.72,2022-10-28 10:19:48.000000
1019,41.96,2022-10-28 10:19:48.015625
1020,38.58,2022-10-28 10:19:48.031250
1021,35.42,2022-10-28 10:19:48.046875
1022,32.14,2022-10-28 10:19:48.062500
1023,28.4,2022-10-28 10:19:48.078125
1024,23.92,2022-10-28 10:19:48.093750
1025,18.73,2022-10-28 10:19:48.109375
1026,13.11,2022-10-28 10:19:48.125000
1027,7.62,2022-10-28 10:19:48.140625
1028,2.8,2022-10-28 10:19:48.156250
1029,-1.01,2022-10-28 10:19:48.171875
1030,-3.88,2022-10-28 10:19:48.187500
1031,-6.25,2022-10-28 10:19:48.203125
1032,-8.83,2022-10-28 10:19:48.218750
1033,-12.27,2022-10-28 10:19:48.234375
1034,-16.89,2022-10-28 10:19:48.250000
1035,-22.57,2022-10-28 10:19:48.265625
1036,-28.81,2022-10-28 10:19:48.281250
1037,-34.9,2022-10-28 10:19:48.296875
1038,-40.27,2022-10-28 10:19:48.312500
1039,-44.63,2022-10-28 10:19:48.328125
1040,-48.2,2022-10-28 10:19:48.343750
1041,-51.54,2022-10-28 10:19:48.359375
1042,-55.53,2022-10-28 10:19:48.375000
1043,-61.07,2022-10-28 10:19:48.390625
1044,-68.8,2022-10-28 10:19:48.406250
1045,-78.86,2022-10-28 10:19:48.421875
1046,-90.54,2022-10-28 10:19:48.437500
1047,-102.19,2022-10-28 10:19:48.453125
1048,-111.41,2022-10-28 10:19:48.468750
1049,-115.53,2022-10-28 10:19:48.484375
1050,-112.41,2022-10-28 10:19:48.500000
1051,-101.12,2022-10-28 10:19:48.515625
1052,-82.43,2022-10-28 10:19:48.531250
1053,-58.57,2022-10-28 10:19:48.546875
1054,-32.68,2022-10-28 10:19:48.562500
1055,-7.83,2022-10-28 10:19:48.578125
1056,13.69,2022-10-28 10:19:48.593750
1057,30.84,2022-10-28 10:19:48.609375
1058,43.63,2022-10-28 10:19:48.625000
1059,52.72,2022-10-28 10:19:48.640625
1060,58.87,2022-10-28 10:19:48.656250
1061,62.64,2022-10-28 10:19:48.671875
1062,64.32,2022-10-28 10:19:48.687500
1063,64.05,2022-10-28 10:19:48.703125
1064,62.07,2022-10-28 10:19:48.718750
1065,58.82,2022-10-28 10:19:48.734375
1066,54.9,2022-10-28 10:19:48.750000
1067,50.96,2022-10-28 10:19:48.765625
1068,47.53,2022-10-28 10:19:48.781250
1069,44.96,2022-10-28 10:19:48.796875
1070,43.43,2022-10-28 10:19:48.812500
1071,43.02,2022-10-28 10:19:48.828125
1072,43.74,2022-10-28 10:19:48.843750
1073,45.51,2022-10-28 10:19:48.859375
1074,48.11,2022-10-28 10:19:48.875000
1075,51.15,2022-10-28 10:19:48.890625
1076,54.06,2022-10-28 10:19:48.906250
1077,56.22,2022-10-28 10:19:48.921875
1078,57.09,2022-10-28 10:19:48.937500
1079,56.35,2022-10-28 10:19:48.953125
1080,53.96,2022-10-28 10:19:48.968750
1081,50.13,2022-10-28 10:19:48.984375
1082,45.26,2022-10-28 10:19:49.000000
1083,39.82,2022-10-28 10:19:49.015625
1084,34.32,2022-10-28 10:19:49.031250
1085,29.1,2022-10-28 10:19:49.046875
1086,24.38,2022-10-28 10:19:49.062500
1087,20.15,2022-10-28 10:19:49.078125
1088,16.19,2022-10-28 10:19:49.093750
1089,12.21,2022-10-28 10:19:49.109375
1090,7.94,2022-10-28 10:19:49.125000
1091,3.31,2022-10-28 10:19:49.140625
1092,-1.59,2022-10-28 10:19:49.156250
1093,-6.47,2022-10-28 10:19:49.171875
1094,-11.02,2022-10-28 10:19:49.187500
1095,-15.06,2022-10-28 10:19:49.203125
1096,-18.61,2022-10-28 10:19:49.218750
1097,-21.9,2022-10-28 10:19:49.234375
1098,-25.36,2022-10-28 10:19:49.250000
1099,-29.35,2022-10-28 10:19:49.265625
1100,-34.11,2022-10-28 10:19:49.281250
1101,-39.58,2022-10-28 10:19:49.296875
1102,-45.44,2022-10-28 10:19:49.312500
1103,-51.24,2022-10-28 10:19:49.328125
1104,-56.51,2022-10-28 10:19:49.343750
1105,-60.97,2022-10-28 10:19:49.359375
1106,-64.65,2022-10-28 10:19:49.375000
1107,-67.97,2022-10-28 10:19:49.390625
1108,-71.61,2022-10-28 10:19:49.406250
1109,-76.42,2022-10-28 10:19:49.421875
1110,-83.2,2022-10-28 10:19:49.437500
1111,-92.28,2022-10-28 10:19:49.453125
1112,-103.16,2022-10-28 10:19:49.468750
1113,-114.36,2022-10-28 10:19:49.484375
1114,-123.52,2022-10-28 10:19:49.500000
1115,-127.92,2022-10-28 10:19:49.515625
1116,-125.35,2022-10-28 10:19:49.531250
1117,-114.84,2022-10-28 10:19:49.546875
1118,-97.1,2022-10-28 10:19:49.562500
1119,-74.34,2022-10-28 10:19:49.578125
1120,-49.57,2022-10-28 10:19:49.593750
1121,-25.83,2022-10-28 10:19:49.609375
1122,-5.29,2022-10-28 10:19:49.625000
1123,10.97,2022-10-28 10:19:49.640625
1124,22.96,2022-10-28 10:19:49.656250
1125,31.39,2022-10-28 10:19:49.671875
1126,37.3,2022-10-28 10:19:49.687500
1127,41.66,2022-10-28 10:19:49.703125
1128,45.25,2022-10-28 10:19:49.718750
1129,48.49,2022-10-28 10:19:49.734375
1130,51.5,2022-10-28 10:19:49.750000
1131,54.15,2022-10-28 10:19:49.765625
1132,56.25,2022-10-28 10:19:49.781250
1133,57.64,2022-10-28 10:19:49.796875
1134,58.38,2022-10-28 10:19:49.812500
1135,58.76,2022-10-28 10:19:49.828125
1136,59.19,2022-10-28 10:19:49.843750
1137,60.13,2022-10-28 10:19:49.859375
1138,61.93,2022-10-28 10:19:49.875000
1139,64.69,2022-10-28 10:19:49.890625
1140,68.28,2022-10-28 10:19:49.906250
1141,72.35,2022-10-28 10:19:49.921875
1142,76.4,2022-10-28 10:19:49.937500
1143,79.88,2022-10-28 10:19:49.953125
1144,82.27,2022-10-28 10:19:49.968750
1145,83.18,2022-10-28 10:19:49.984375
1146,82.42,2022-10-28 10:19:50.000000
1147,79.99,2022-10-28 10:19:50.015625
1148,76.07,2022-10-28 10:19:50.031250
1149,71.01,2022-10-28 10:19:50.046875
1150,65.2,2022-10-28 10:19:50.062500
1151,59.0,2022-10-28 10:19:50.078125
1152,52.75,2022-10-28 10:19:50.093750
1153,46.66,2022-10-28 10:19:50.109375
1154,40.81,2022-10-28 10:19:50.125000
1155,35.2,2022-10-28 10:19:50.140625
1156,29.73,2022-10-28 10:19:50.156250
1157,24.28,2022-10-28 10:19:50.171875
1158,18.77,2022-10-28 10:19:50.187500
1159,13.16,2022-10-28 10:19:50.203125
1160,7.54,2022-10-28 10:19:50.218750
1161,1.98,2022-10-28 10:19:50.234375
1162,-3.4,2022-10-28 10:19:50.250000
1163,-8.55,2022-10-28 10:19:50.265625
1164,-13.48,2022-10-28 10:19:50.281250
1165,-18.26,2022-10-28 10:19:50.296875
1166,-23.09,2022-10-28 10:19:50.312500
1167,-28.1,2022-10-28 10:19:50.328125
1168,-33.45,2022-10-28 10:19:50.343750
1169,-39.11,2022-10-28 10:19:50.359375
1170,-44.96,2022-10-28 10:19:50.375000
1171,-50.71,2022-10-28 10:19:50.390625
1172,-56.06,2022-10-28 10:19:50.406250
1173,-60.8,2022-10-28 10:19:50.421875
1174,-64.9,2022-10-28 10:19:50.437500
1175,-68.66,2022-10-28 10:19:50.453125
1176,-72.63,2022-10-28 10:19:50.468750
1177,-77.61,2022-10-28 10:19:50.484375
1178,-84.33,2022-10-28 10:19:50.500000
1179,-93.06,2022-10-28 10:19:50.515625
1180,-103.34,2022-10-28 10:19:50.531250
1181,-113.65,2022-10-28 10:19:50.546875
1182,-121.73,2022-10-28 10:19:50.562500
1183,-124.97,2022-10-28 10:19:50.578125
1184,-121.33,2022-10-28 10:19:50.593750
1185,-110.01,2022-10-28 10:19:50.609375
1186,-91.84,2022-10-28 10:19:50.625000
1187,-69.08,2022-10-28 10:19:50.640625
1188,-44.77,2022-10-28 10:19:50.656250
1189,-21.85,2022-10-28 10:19:50.671875
1190,-2.44,2022-10-28 10:19:50.687500
1191,12.48,2022-10-28 10:19:50.703125
1192,23.02,2022-10-28 10:19:50.718750
1193,29.99,2022-10-28 10:19:50.734375
1194,34.45,2022-10-28 10:19:50.750000
1195,37.36,2022-10-28 10:19:50.765625
1196,39.39,2022-10-28 10:19:50.781250
1197,40.89,2022-10-28 10:19:50.796875
1198,41.91,2022-10-28 10:19:50.812500
1199,42.44,2022-10-28 10:19:50.828125
1200,42.39,2022-10-28 10:19:50.843750
1201,41.8,2022-10-28 10:19:50.859375
1202,40.78,2022-10-28 10:19:50.875000
1203,39.61,2022-10-28 10:19:50.890625
1204,38.67,2022-10-28 10:19:50.906250
1205,38.37,2022-10-28 10:19:50.921875
1206,38.99,2022-10-28 10:19:50.937500
1207,40.64,2022-10-28 10:19:50.953125
1208,43.17,2022-10-28 10:19:50.968750
1209,46.17,2022-10-28 10:19:50.984375
1210,49.03,2022-10-28 10:19:51.000000
1211,51.18,2022-10-28 10:19:51.015625
1212,52.09,2022-10-28 10:19:51.031250
1213,51.54,2022-10-28 10:19:51.046875
1214,49.63,2022-10-28 10:19:51.062500
1215,46.73,2022-10-28 10:19:51.078125
1216,43.33,2022-10-28 10:19:51.093750
1217,39.8,2022-10-28 10:19:51.109375
1218,36.21,2022-10-28 10:19:51.125000
1219,32.38,2022-10-28 10:19:51.140625
1220,27.97,2022-10-28 10:19:51.156250
1221,22.76,2022-10-28 10:19:51.171875
1222,16.88,2022-10-28 10:19:51.187500
1223,10.79,2022-10-28 10:19:51.203125
1224,5.07,2022-10-28 10:19:51.218750
1225,0.16,2022-10-28 10:19:51.234375
1226,-3.88,2022-10-28 10:19:51.250000
1227,-7.34,2022-10-28 10:19:51.265625
1228,-10.55,2022-10-28 10:19:51.281250
1229,-13.62,2022-10-28 10:19:51.296875
1230,-16.24,2022-10-28 10:19:51.312500
1231,-17.8,2022-10-28 10:19:51.328125
1232,-17.75,2022-10-28 10:19:51.343750
1233,-15.97,2022-10-28 10:19:51.359375
1234,-12.95,2022-10-28 10:19:51.375000
1235,-9.66,2022-10-28 10:19:51.390625
1236,-7.19,2022-10-28 10:19:51.406250
1237,-6.38,2022-10-28 10:19:51.421875
1238,-7.57,2022-10-28 10:19:51.437500
1239,-10.62,2022-10-28 10:19:51.453125
1240,-15.1,2022-10-28 10:19:51.468750
1241,-20.61,2022-10-28 10:19:51.484375
1242,-26.95,2022-10-28 10:19:51.500000
1243,-34.24,2022-10-28 10:19:51.515625
1244,-42.87,2022-10-28 10:19:51.531250
1245,-53.27,2022-10-28 10:19:51.546875
1246,-65.71,2022-10-28 10:19:51.562500
1247,-80.08,2022-10-28 10:19:51.578125
1248,-95.58,2022-10-28 10:19:51.593750
1249,-110.66,2022-10-28 10:19:51.609375
1250,-123.09,2022-10-28 10:19:51.625000
1251,-130.4,2022-10-28 10:19:51.640625
1252,-130.41,2022-10-28 10:19:51.656250
1253,-122.06,2022-10-28 10:19:51.671875
1254,-105.78,2022-10-28 10:19:51.687500
1255,-83.53,2022-10-28 10:19:51.703125
1256,-58.4,2022-10-28 10:19:51.718750
1257,-33.76,2022-10-28 10:19:51.734375
1258,-12.42,2022-10-28 10:19:51.750000
1259,3.92,2022-10-28 10:19:51.765625
1260,14.84,2022-10-28 10:19:51.781250
1261,20.91,2022-10-28 10:19:51.796875
1262,23.28,2022-10-28 10:19:51.812500
1263,23.2,2022-10-28 10:19:51.828125
1264,21.85,2022-10-28 10:19:51.843750
1265,20.27,2022-10-28 10:19:51.859375
1266,19.41,2022-10-28 10:19:51.875000
1267,20.11,2022-10-28 10:19:51.890625
1268,22.94,2022-10-28 10:19:51.906250
1269,27.93,2022-10-28 10:19:51.921875
1270,34.5,2022-10-28 10:19:51.937500
1271,41.51,2022-10-28 10:19:51.953125
1272,47.61,2022-10-28 10:19:51.968750
1273,51.71,2022-10-28 10:19:51.984375
1274,53.28,2022-10-28 10:19:52.000000
1275,52.42,2022-10-28 10:19:52.015625
1276,49.73,2022-10-28 10:19:52.031250
1277,45.88,2022-10-28 10:19:52.046875
1278,41.23,2022-10-28 10:19:52.062500
1279,35.84,2022-10-28 10:19:52.078125
1280,29.47,2022-10-28 10:19:52.093750
1281,21.98,2022-10-28 10:19:52.109375
1282,13.63,2022-10-28 10:19:52.125000
1283,5.21,2022-10-28 10:19:52.140625
1284,-2.03,2022-10-28 10:19:52.156250
1285,-6.78,2022-10-28 10:19:52.171875
1286,-8.04,2022-10-28 10:19:52.187500
1287,-5.53,2022-10-28 10:19:52.203125
1288,0.18,2022-10-28 10:19:52.218750
1289,7.8,2022-10-28 10:19:52.234375
1290,15.66,2022-10-28 10:19:52.250000
1291,22.2,2022-10-28 10:19:52.265625
1292,26.24,2022-10-28 10:19:52.281250
1293,27.16,2022-10-28 10:19:52.296875
1294,24.76,2022-10-28 10:19:52.312500
1295,19.13,2022-10-28 10:19:52.328125
1296,10.43,2022-10-28 10:19:52.343750
1297,-1.09,2022-10-28 10:19:52.359375
1298,-15.08,2022-10-28 10:19:52.375000
1299,-31.07,2022-10-28 10:19:52.390625
1300,-48.4,2022-10-28 10:19:52.406250
1301,-66.19,2022-10-28 10:19:52.421875
1302,-83.15,2022-10-28 10:19:52.437500
1303,-97.57,2022-10-28 10:19:52.453125
1304,-107.31,2022-10-28 10:19:52.468750
1305,-110.16,2022-10-28 10:19:52.484375
1306,-104.48,2022-10-28 10:19:52.500000
1307,-89.85,2022-10-28 10:19:52.515625
1308,-67.55,2022-10-28 10:19:52.531250
1309,-40.33,2022-10-28 10:19:52.546875
1310,-11.92,2022-10-28 10:19:52.562500
1311,14.08,2022-10-28 10:19:52.578125
1312,34.93,2022-10-28 10:19:52.593750
1313,49.27,2022-10-28 10:19:52.609375
1314,57.04,2022-10-28 10:19:52.625000
1315,59.11,2022-10-28 10:19:52.640625
1316,56.91,2022-10-28 10:19:52.656250
1317,51.96,2022-10-28 10:19:52.671875
1318,45.73,2022-10-28 10:19:52.687500
1319,39.47,2022-10-28 10:19:52.703125
1320,34.05,2022-10-28 10:19:52.718750
1321,29.94,2022-10-28 10:19:52.734375
1322,27.24,2022-10-28 10:19:52.750000
1323,25.85,2022-10-28 10:19:52.765625
1324,25.6,2022-10-28 10:19:52.781250
1325,26.42,2022-10-28 10:19:52.796875
1326,28.27,2022-10-28 10:19:52.812500
1327,31.08,2022-10-28 10:19:52.828125
1328,34.66,2022-10-28 10:19:52.843750
1329,38.64,2022-10-28 10:19:52.859375
1330,42.58,2022-10-28 10:19:52.875000
1331,46.09,2022-10-28 10:19:52.890625
1332,48.83,2022-10-28 10:19:52.906250
1333,50.51,2022-10-28 10:19:52.921875
1334,50.98,2022-10-28 10:19:52.937500
1335,50.08,2022-10-28 10:19:52.953125
1336,47.82,2022-10-28 10:19:52.968750
1337,44.38,2022-10-28 10:19:52.984375
1338,40.18,2022-10-28 10:19:53.000000
1339,35.68,2022-10-28 10:19:53.015625
1340,31.24,2022-10-28 10:19:53.031250
1341,26.94,2022-10-28 10:19:53.046875
1342,22.56,2022-10-28 10:19:53.062500
1343,17.77,2022-10-28 10:19:53.078125
1344,12.38,2022-10-28 10:19:53.093750
1345,6.55,2022-10-28 10:19:53.109375
1346,0.71,2022-10-28 10:19:53.125000
1347,-4.63,2022-10-28 10:19:53.140625
1348,-9.27,2022-10-28 10:19:53.156250
1349,-13.34,2022-10-28 10:19:53.171875
1350,-17.4,2022-10-28 10:19:53.187500
1351,-22.01,2022-10-28 10:19:53.203125
1352,-27.44,2022-10-28 10:19:53.218750
1353,-33.5,2022-10-28 10:19:53.234375
1354,-39.64,2022-10-28 10:19:53.250000
1355,-45.22,2022-10-28 10:19:53.265625
1356,-49.87,2022-10-28 10:19:53.281250
1357,-53.72,2022-10-28 10:19:53.296875
1358,-57.38,2022-10-28 10:19:53.312500
1359,-61.77,2022-10-28 10:19:53.328125
1360,-67.78,2022-10-28 10:19:53.343750
1361,-76.02,2022-10-28 10:19:53.359375
1362,-86.44,2022-10-28 10:19:53.375000
1363,-98.14,2022-10-28 10:19:53.390625
1364,-109.29,2022-10-28 10:19:53.406250
1365,-117.48,2022-10-28 10:19:53.421875
1366,-120.25,2022-10-28 10:19:53.437500
1367,-115.82,2022-10-28 10:19:53.453125
1368,-103.76,2022-10-28 10:19:53.468750
1369,-85.22,2022-10-28 10:19:53.484375
1370,-62.57,2022-10-28 10:19:53.500000
1371,-38.73,2022-10-28 10:19:53.515625
1372,-16.4,2022-10-28 10:19:53.531250
1373,2.62,2022-10-28 10:19:53.546875
1374,17.52,2022-10-28 10:19:53.562500
1375,28.38,2022-10-28 10:19:53.578125
1376,35.77,2022-10-28 10:19:53.593750
1377,40.47,2022-10-28 10:19:53.609375
1378,43.2,2022-10-28 10:19:53.625000
1379,44.59,2022-10-28 10:19:53.640625
1380,45.14,2022-10-28 10:19:53.656250
1381,45.19,2022-10-28 10:19:53.671875
1382,44.98,2022-10-28 10:19:53.687500
1383,44.63,2022-10-28 10:19:53.703125
1384,44.22,2022-10-28 10:19:53.718750
1385,43.85,2022-10-28 10:19:53.734375
1386,43.65,2022-10-28 10:19:53.750000
1387,43.81,2022-10-28 10:19:53.765625
1388,44.48,2022-10-28 10:19:53.781250
1389,45.74,2022-10-28 10:19:53.796875
1390,47.5,2022-10-28 10:19:53.812500
1391,49.55,2022-10-28 10:19:53.828125
1392,51.54,2022-10-28 10:19:53.843750
1393,53.16,2022-10-28 10:19:53.859375
1394,54.21,2022-10-28 10:19:53.875000
1395,54.58,2022-10-28 10:19:53.890625
1396,54.25,2022-10-28 10:19:53.906250
1397,53.19,2022-10-28 10:19:53.921875
1398,51.27,2022-10-28 10:19:53.937500
1399,48.36,2022-10-28 10:19:53.953125
1400,44.37,2022-10-28 10:19:53.968750
1401,39.37,2022-10-28 10:19:53.984375
1402,33.68,2022-10-28 10:19:54.000000
1403,27.68,2022-10-28 10:19:54.015625
1404,21.8,2022-10-28 10:19:54.031250
1405,16.21,2022-10-28 10:19:54.046875
1406,10.92,2022-10-28 10:19:54.062500
1407,5.7,2022-10-28 10:19:54.078125
1408,0.33,2022-10-28 10:19:54.093750
1409,-5.32,2022-10-28 10:19:54.109375
1410,-11.22,2022-10-28 10:19:54.125000
1411,-17.19,2022-10-28 10:19:54.140625
1412,-23.03,2022-10-28 10:19:54.156250
1413,-28.52,2022-10-28 10:19:54.171875
1414,-33.59,2022-10-28 10:19:54.187500
1415,-38.25,2022-10-28 10:19:54.203125
1416,-42.65,2022-10-28 10:19:54.218750
1417,-47.08,2022-10-28 10:19:54.234375
1418,-51.94,2022-10-28 10:19:54.250000
1419,-57.76,2022-10-28 10:19:54.265625
1420,-65.05,2022-10-28 10:19:54.281250
1421,-74.05,2022-10-28 10:19:54.296875
1422,-84.37,2022-10-28 10:19:54.312500
1423,-94.72,2022-10-28 10:19:54.328125
1424,-103.04,2022-10-28 10:19:54.343750
1425,-106.83,2022-10-28 10:19:54.359375
1426,-104.04,2022-10-28 10:19:54.375000
1427,-93.75,2022-10-28 10:19:54.390625
1428,-76.68,2022-10-28 10:19:54.406250
1429,-55.01,2022-10-28 10:19:54.421875
1430,-31.73,2022-10-28 10:19:54.437500
1431,-9.7,2022-10-28 10:19:54.453125
1432,9.04,2022-10-28 10:19:54.468750
1433,23.64,2022-10-28 10:19:54.484375
1434,34.31,2022-10-28 10:19:54.500000
1435,41.85,2022-10-28 10:19:54.515625
1436,47.2,2022-10-28 10:19:54.531250
1437,51.07,2022-10-28 10:19:54.546875
1438,53.9,2022-10-28 10:19:54.562500
1439,55.84,2022-10-28 10:19:54.578125
1440,56.93,2022-10-28 10:19:54.593750
1441,57.15,2022-10-28 10:19:54.609375
1442,56.57,2022-10-28 10:19:54.625000
1443,55.32,2022-10-28 10:19:54.640625
1444,53.63,2022-10-28 10:19:54.656250
1445,51.74,2022-10-28 10:19:54.671875
1446,49.91,2022-10-28 10:19:54.687500
1447,48.43,2022-10-28 10:19:54.703125
1448,47.51,2022-10-28 10:19:54.718750
1449,47.32,2022-10-28 10:19:54.734375
1450,47.85,2022-10-28 10:19:54.750000
1451,48.88,2022-10-28 10:19:54.765625
1452,49.99,2022-10-28 10:19:54.781250
1453,50.65,2022-10-28 10:19:54.796875
1454,50.35,2022-10-28 10:19:54.812500
1455,48.8,2022-10-28 10:19:54.828125
1456,45.98,2022-10-28 10:19:54.843750
1457,42.17,2022-10-28 10:19:54.859375
1458,37.74,2022-10-28 10:19:54.875000
1459,33.07,2022-10-28 10:19:54.890625
1460,28.35,2022-10-28 10:19:54.906250
1461,23.59,2022-10-28 10:19:54.921875
1462,18.68,2022-10-28 10:19:54.937500
1463,13.51,2022-10-28 10:19:54.953125
1464,8.13,2022-10-28 10:19:54.968750
1465,2.81,2022-10-28 10:19:54.984375
1466,-2.05,2022-10-28 10:19:55.000000
1467,-6.01,2022-10-28 10:19:55.015625
1468,-8.85,2022-10-28 10:19:55.031250
1469,-10.61,2022-10-28 10:19:55.046875
1470,-11.67,2022-10-28 10:19:55.062500
1471,-12.65,2022-10-28 10:19:55.078125
1472,-14.17,2022-10-28 10:19:55.093750
1473,-16.63,2022-10-28 10:19:55.109375
1474,-20.15,2022-10-28 10:19:55.125000
1475,-24.46,2022-10-28 10:19:55.140625
1476,-29.08,2022-10-28 10:19:55.156250
1477,-33.56,2022-10-28 10:19:55.171875
1478,-37.69,2022-10-28 10:19:55.187500
1479,-41.64,2022-10-28 10:19:55.203125
1480,-45.93,2022-10-28 10:19:55.218750
1481,-51.35,2022-10-28 10:19:55.234375
1482,-58.68,2022-10-28 10:19:55.250000
1483,-68.38,2022-10-28 10:19:55.265625
1484,-80.37,2022-10-28 10:19:55.281250
1485,-93.77,2022-10-28 10:19:55.296875
1486,-106.87,2022-10-28 10:19:55.312500
1487,-117.38,2022-10-28 10:19:55.328125
1488,-122.89,2022-10-28 10:19:55.343750
1489,-121.55,2022-10-28 10:19:55.359375
1490,-112.65,2022-10-28 10:19:55.375000
1491,-96.97,2022-10-28 10:19:55.390625
1492,-76.56,2022-10-28 10:19:55.406250
1493,-54.31,2022-10-28 10:19:55.421875
1494,-33.14,2022-10-28 10:19:55.437500
1495,-15.29,2022-10-28 10:19:55.453125
1496,-1.96,2022-10-28 10:19:55.468750
1497,6.81,2022-10-28 10:19:55.484375
1498,11.74,2022-10-28 10:19:55.500000
1499,13.96,2022-10-28 10:19:55.515625
1500,14.44,2022-10-28 10:19:55.531250
1501,13.84,2022-10-28 10:19:55.546875
1502,12.4,2022-10-28 10:19:55.562500
1503,10.12,2022-10-28 10:19:55.578125
1504,6.95,2022-10-28 10:19:55.593750
1505,3.0,2022-10-28 10:19:55.609375
1506,-1.55,2022-10-28 10:19:55.625000
1507,-6.52,2022-10-28 10:19:55.640625
1508,-11.9,2022-10-28 10:19:55.656250
1509,-17.86,2022-10-28 10:19:55.671875
1510,-24.64,2022-10-28 10:19:55.687500
1511,-32.36,2022-10-28 10:19:55.703125
1512,-40.84,2022-10-28 10:19:55.718750
1513,-49.63,2022-10-28 10:19:55.734375
1514,-58.16,2022-10-28 10:19:55.750000
1515,-66.08,2022-10-28 10:19:55.765625
1516,-73.56,2022-10-28 10:19:55.781250
1517,-81.46,2022-10-28 10:19:55.796875
1518,-91.19,2022-10-28 10:19:55.812500
1519,-104.13,2022-10-28 10:19:55.828125
1520,-121.11,2022-10-28 10:19:55.843750
1521,-141.78,2022-10-28 10:19:55.859375
1522,-164.56,2022-10-28 10:19:55.875000
1523,-187.03,2022-10-28 10:19:55.890625
1524,-206.74,2022-10-28 10:19:55.906250
1525,-221.94,2022-10-28 10:19:55.921875
1526,-231.92,2022-10-28 10:19:55.937500
1527,-236.89,2022-10-28 10:19:55.953125
1528,-237.53,2022-10-28 10:19:55.968750
1529,-234.36,2022-10-28 10:19:55.984375
1530,-227.29,2022-10-28 10:19:56.000000
1531,-215.53,2022-10-28 10:19:56.015625
1532,-197.76,2022-10-28 10:19:56.031250
1533,-172.54,2022-10-28 10:19:56.046875
1534,-139.07,2022-10-28 10:19:56.062500
1535,-97.85,2022-10-28 10:19:56.078125
1536,-51.27,2022-10-28 10:19:56.093750
1537,-3.5,2022-10-28 10:19:56.109375
1538,40.13,2022-10-28 10:19:56.125000
1539,74.49,2022-10-28 10:19:56.140625
1540,96.04,2022-10-28 10:19:56.156250
1541,103.88,2022-10-28 10:19:56.171875
1542,100.03,2022-10-28 10:19:56.187500
1543,88.78,2022-10-28 10:19:56.203125
1544,75.43,2022-10-28 10:19:56.218750
1545,64.7,2022-10-28 10:19:56.234375
1546,59.08,2022-10-28 10:19:56.250000
1547,58.06,2022-10-28 10:19:56.265625
1548,58.36,2022-10-28 10:19:56.281250
1549,55.31,2022-10-28 10:19:56.296875
1550,44.88,2022-10-28 10:19:56.312500
1551,25.59,2022-10-28 10:19:56.328125
1552,-0.86,2022-10-28 10:19:56.343750
1553,-30.26,2022-10-28 10:19:56.359375
1554,-57.79,2022-10-28 10:19:56.375000
1555,-79.85,2022-10-28 10:19:56.390625
1556,-95.14,2022-10-28 10:19:56.406250
1557,-104.25,2022-10-28 10:19:56.421875
1558,-108.51,2022-10-28 10:19:56.437500
1559,-108.79,2022-10-28 10:19:56.453125
1560,-105.14,2022-10-28 10:19:56.468750
1561,-97.34,2022-10-28 10:19:56.484375
1562,-85.76,2022-10-28 10:19:56.500000
1563,-71.94,2022-10-28 10:19:56.515625
1564,-58.31,2022-10-28 10:19:56.531250
1565,-47.34,2022-10-28 10:19:56.546875
1566,-40.46,2022-10-28 10:19:56.562500
1567,-37.36,2022-10-28 10:19:56.578125
1568,-36.0,2022-10-28 10:19:56.593750
1569,-33.18,2022-10-28 10:19:56.609375
1570,-25.51,2022-10-28 10:19:56.625000
1571,-10.41,2022-10-28 10:19:56.640625
1572,13.16,2022-10-28 10:19:56.656250
1573,44.42,2022-10-28 10:19:56.671875
1574,81.04,2022-10-28 10:19:56.687500
1575,119.78,2022-10-28 10:19:56.703125
1576,157.45,2022-10-28 10:19:56.718750
1577,191.78,2022-10-28 10:19:56.734375
1578,221.72,2022-10-28 10:19:56.750000
1579,247.22,2022-10-28 10:19:56.765625
1580,268.62,2022-10-28 10:19:56.781250
1581,285.82,2022-10-28 10:19:56.796875
1582,297.84,2022-10-28 10:19:56.812500
1583,303.12,2022-10-28 10:19:56.828125
1584,300.28,2022-10-28 10:19:56.843750
1585,289.07,2022-10-28 10:19:56.859375
1586,270.56,2022-10-28 10:19:56.875000
1587,246.76,2022-10-28 10:19:56.890625
1588,219.54,2022-10-28 10:19:56.906250
1589,189.82,2022-10-28 10:19:56.921875
1590,157.53,2022-10-28 10:19:56.937500
1591,122.56,2022-10-28 10:19:56.953125
1592,85.85,2022-10-28 10:19:56.968750
1593,50.04,2022-10-28 10:19:56.984375
1594,18.93,2022-10-28 10:19:57.000000
1595,-3.93,2022-10-28 10:19:57.015625
1596,-16.75,2022-10-28 10:19:57.031250
1597,-20.24,2022-10-28 10:19:57.046875
1598,-17.2,2022-10-28 10:19:57.062500
1599,-11.18,2022-10-28 10:19:57.078125
1600,-4.97,2022-10-28 10:19:57.093750
1601,0.41,2022-10-28 10:19:57.109375
1602,5.88,2022-10-28 10:19:57.125000
1603,13.6,2022-10-28 10:19:57.140625
1604,25.92,2022-10-28 10:19:57.156250
1605,44.3,2022-10-28 10:19:57.171875
1606,68.58,2022-10-28 10:19:57.187500
1607,96.8,2022-10-28 10:19:57.203125
1608,125.69,2022-10-28 10:19:57.218750
1609,151.55,2022-10-28 10:19:57.234375
1610,171.29,2022-10-28 10:19:57.250000
1611,183.15,2022-10-28 10:19:57.265625
1612,186.88,2022-10-28 10:19:57.281250
1613,183.43,2022-10-28 10:19:57.296875
1614,174.29,2022-10-28 10:19:57.312500
1615,160.98,2022-10-28 10:19:57.328125
1616,144.91,2022-10-28 10:19:57.343750
1617,127.36,2022-10-28 10:19:57.359375
1618,109.59,2022-10-28 10:19:57.375000
1619,92.76,2022-10-28 10:19:57.390625
1620,77.82,2022-10-28 10:19:57.406250
1621,65.25,2022-10-28 10:19:57.421875
1622,55.01,2022-10-28 10:19:57.437500
1623,46.66,2022-10-28 10:19:57.453125
1624,39.59,2022-10-28 10:19:57.468750
1625,33.25,2022-10-28 10:19:57.484375
1626,27.35,2022-10-28 10:19:57.500000
1627,22.01,2022-10-28 10:19:57.515625
1628,17.61,2022-10-28 10:19:57.531250
1629,14.67,2022-10-28 10:19:57.546875
1630,13.59,2022-10-28 10:19:57.562500
1631,14.47,2022-10-28 10:19:57.578125
1632,17.04,2022-10-28 10:19:57.593750
1633,20.77,2022-10-28 10:19:57.609375
1634,24.99,2022-10-28 10:19:57.625000
1635,29.01,2022-10-28 10:19:57.640625
1636,32.3,2022-10-28 10:19:57.656250
1637,34.46,2022-10-28 10:19:57.671875
1638,35.42,2022-10-28 10:19:57.687500
1639,35.28,2022-10-28 10:19:57.703125
1640,34.32,2022-10-28 10:19:57.718750
1641,32.67,2022-10-28 10:19:57.734375
1642,30.28,2022-10-28 10:19:57.750000
1643,26.9,2022-10-28 10:19:57.765625
1644,22.45,2022-10-28 10:19:57.781250
1645,17.34,2022-10-28 10:19:57.796875
1646,12.52,2022-10-28 10:19:57.812500
1647,9.24,2022-10-28 10:19:57.828125
1648,8.41,2022-10-28 10:19:57.843750
1649,10.01,2022-10-28 10:19:57.859375
1650,12.99,2022-10-28 10:19:57.875000
1651,15.66,2022-10-28 10:19:57.890625
1652,16.49,2022-10-28 10:19:57.906250
1653,14.83,2022-10-28 10:19:57.921875
1654,11.21,2022-10-28 10:19:57.937500
1655,7.03,2022-10-28 10:19:57.953125
1656,3.94,2022-10-28 10:19:57.968750
1657,3.19,2022-10-28 10:19:57.984375
1658,5.31,2022-10-28 10:19:58.000000
1659,9.99,2022-10-28 10:19:58.015625
1660,16.33,2022-10-28 10:19:58.031250
1661,23.11,2022-10-28 10:19:58.046875
1662,29.1,2022-10-28 10:19:58.062500
1663,33.4,2022-10-28 10:19:58.078125
1664,35.64,2022-10-28 10:19:58.093750
1665,36.25,2022-10-28 10:19:58.109375
1666,36.54,2022-10-28 10:19:58.125000
1667,38.58,2022-10-28 10:19:58.140625
1668,44.73,2022-10-28 10:19:58.156250
1669,56.94,2022-10-28 10:19:58.171875
1670,75.85,2022-10-28 10:19:58.187500
1671,100.17,2022-10-28 10:19:58.203125
1672,126.52,2022-10-28 10:19:58.218750
1673,149.94,2022-10-28 10:19:58.234375
1674,165.22,2022-10-28 10:19:58.250000
1675,168.24,2022-10-28 10:19:58.265625
1676,157.21,2022-10-28 10:19:58.281250
1677,133.16,2022-10-28 10:19:58.296875
1678,99.37,2022-10-28 10:19:58.312500
1679,60.14,2022-10-28 10:19:58.328125
1680,19.3,2022-10-28 10:19:58.343750
1681,-20.71,2022-10-28 10:19:58.359375
1682,-59.01,2022-10-28 10:19:58.375000
1683,-95.53,2022-10-28 10:19:58.390625
1684,-130.14,2022-10-28 10:19:58.406250
1685,-162.07,2022-10-28 10:19:58.421875
1686,-189.84,2022-10-28 10:19:58.437500
1687,-211.71,2022-10-28 10:19:58.453125
1688,-226.25,2022-10-28 10:19:58.468750
1689,-232.65,2022-10-28 10:19:58.484375
1690,-230.77,2022-10-28 10:19:58.500000
1691,-221.16,2022-10-28 10:19:58.515625
1692,-205.0,2022-10-28 10:19:58.531250
1693,-183.91,2022-10-28 10:19:58.546875
1694,-159.7,2022-10-28 10:19:58.562500
1695,-133.81,2022-10-28 10:19:58.578125
1696,-106.88,2022-10-28 10:19:58.593750
1697,-78.97,2022-10-28 10:19:58.609375
1698,-50.31,2022-10-28 10:19:58.625000
1699,-22.28,2022-10-28 10:19:58.640625
1700,2.23,2022-10-28 10:19:58.656250
1701,19.42,2022-10-28 10:19:58.671875
1702,26.26,2022-10-28 10:19:58.687500
1703,22.12,2022-10-28 10:19:58.703125
1704,9.54,2022-10-28 10:19:58.718750
1705,-6.46,2022-10-28 10:19:58.734375
1706,-20.24,2022-10-28 10:19:58.750000
1707,-27.57,2022-10-28 10:19:58.765625
1708,-26.93,2022-10-28 10:19:58.781250
1709,-19.44,2022-10-28 10:19:58.796875
1710,-7.84,2022-10-28 10:19:58.812500
1711,4.92,2022-10-28 10:19:58.828125
1712,16.67,2022-10-28 10:19:58.843750
1713,26.28,2022-10-28 10:19:58.859375
1714,33.27,2022-10-28 10:19:58.875000
1715,37.24,2022-10-28 10:19:58.890625
1716,37.62,2022-10-28 10:19:58.906250
1717,33.99,2022-10-28 10:19:58.921875
1718,26.61,2022-10-28 10:19:58.937500
1719,16.93,2022-10-28 10:19:58.953125
1720,7.36,2022-10-28 10:19:58.968750
1721,0.41,2022-10-28 10:19:58.984375
1722,-2.44,2022-10-28 10:19:59.000000
1723,-1.54,2022-10-28 10:19:59.015625
1724,1.09,2022-10-28 10:19:59.031250
1725,2.76,2022-10-28 10:19:59.046875
1726,1.08,2022-10-28 10:19:59.062500
1727,-5.34,2022-10-28 10:19:59.078125
1728,-16.84,2022-10-28 10:19:59.093750
1729,-32.91,2022-10-28 10:19:59.109375
1730,-52.26,2022-10-28 10:19:59.125000
1731,-72.85,2022-10-28 10:19:59.140625
1732,-91.91,2022-10-28 10:19:59.156250
1733,-106.63,2022-10-28 10:19:59.171875
1734,-115.23,2022-10-28 10:19:59.187500
1735,-117.78,2022-10-28 10:19:59.203125
1736,-116.19,2022-10-28 10:19:59.218750
1737,-113.27,2022-10-28 10:19:59.234375
1738,-111.12,2022-10-28 10:19:59.250000
1739,-110.03,2022-10-28 10:19:59.265625
1740,-108.53,2022-10-28 10:19:59.281250
1741,-104.48,2022-10-28 10:19:59.296875
1742,-96.52,2022-10-28 10:19:59.312500
1743,-84.86,2022-10-28 10:19:59.328125
1744,-71.24,2022-10-28 10:19:59.343750
1745,-57.92,2022-10-28 10:19:59.359375
1746,-46.54,2022-10-28 10:19:59.375000
1747,-37.36,2022-10-28 10:19:59.390625
1748,-29.24,2022-10-28 10:19:59.406250
1749,-20.22,2022-10-28 10:19:59.421875
1750,-8.46,2022-10-28 10:19:59.437500
1751,7.2,2022-10-28 10:19:59.453125
1752,26.94,2022-10-28 10:19:59.468750
1753,50.35,2022-10-28 10:19:59.484375
1754,76.71,2022-10-28 10:19:59.500000
1755,105.16,2022-10-28 10:19:59.515625
1756,134.64,2022-10-28 10:19:59.531250
1757,163.74,2022-10-28 10:19:59.546875
1758,190.81,2022-10-28 10:19:59.562500
1759,214.39,2022-10-28 10:19:59.578125
1760,233.66,2022-10-28 10:19:59.593750
1761,248.54,2022-10-28 10:19:59.609375
1762,259.39,2022-10-28 10:19:59.625000
1763,266.51,2022-10-28 10:19:59.640625
1764,269.93,2022-10-28 10:19:59.656250
1765,269.72,2022-10-28 10:19:59.671875
1766,266.43,2022-10-28 10:19:59.687500
1767,261.33,2022-10-28 10:19:59.703125
1768,255.86,2022-10-28 10:19:59.718750
1769,250.52,2022-10-28 10:19:59.734375
1770,243.99,2022-10-28 10:19:59.750000
1771,233.26,2022-10-28 10:19:59.765625
1772,214.72,2022-10-28 10:19:59.781250
1773,185.85,2022-10-28 10:19:59.796875
1774,146.26,2022-10-28 10:19:59.812500
1775,97.82,2022-10-28 10:19:59.828125
1776,44.03,2022-10-28 10:19:59.843750
1777,-10.95,2022-10-28 10:19:59.859375
1778,-62.96,2022-10-28 10:19:59.875000
1779,-108.27,2022-10-28 10:19:59.890625
1780,-143.91,2022-10-28 10:19:59.906250
1781,-168.12,2022-10-28 10:19:59.921875
1782,-180.66,2022-10-28 10:19:59.937500
1783,-182.93,2022-10-28 10:19:59.953125
1784,-177.55,2022-10-28 10:19:59.968750
1785,-167.7,2022-10-28 10:19:59.984375
1786,-156.43,2022-10-28 10:20:00.000000
1787,-146.13,2022-10-28 10:20:00.015625
1788,-138.34,2022-10-28 10:20:00.031250
1789,-133.59,2022-10-28 10:20:00.046875
1790,-131.58,2022-10-28 10:20:00.062500
1791,-131.24,2022-10-28 10:20:00.078125
1792,-131.19,2022-10-28 10:20:00.093750
1793,-130.21,2022-10-28 10:20:00.109375
1794,-127.76,2022-10-28 10:20:00.125000
1795,-124.16,2022-10-28 10:20:00.140625
1796,-120.34,2022-10-28 10:20:00.156250
1797,-117.27,2022-10-28 10:20:00.171875
1798,-115.31,2022-10-28 10:20:00.187500
1799,-113.98,2022-10-28 10:20:00.203125
1800,-111.87,2022-10-28 10:20:00.218750
1801,-107.17,2022-10-28 10:20:00.234375
1802,-98.24,2022-10-28 10:20:00.250000
1803,-84.21,2022-10-28 10:20:00.265625
1804,-65.4,2022-10-28 10:20:00.281250
1805,-43.34,2022-10-28 10:20:00.296875
1806,-20.62,2022-10-28 10:20:00.312500
1807,-0.16,2022-10-28 10:20:00.328125
1808,15.42,2022-10-28 10:20:00.343750
1809,24.63,2022-10-28 10:20:00.359375
1810,27.43,2022-10-28 10:20:00.375000
1811,25.06,2022-10-28 10:20:00.390625
1812,19.32,2022-10-28 10:20:00.406250
1813,11.76,2022-10-28 10:20:00.421875
1814,3.1,2022-10-28 10:20:00.437500
1815,-6.78,2022-10-28 10:20:00.453125
1816,-18.18,2022-10-28 10:20:00.468750
1817,-30.77,2022-10-28 10:20:00.484375
1818,-43.14,2022-10-28 10:20:00.500000
1819,-53.03,2022-10-28 10:20:00.515625
1820,-58.33,2022-10-28 10:20:00.531250
1821,-58.02,2022-10-28 10:20:00.546875
1822,-52.8,2022-10-28 10:20:00.562500
1823,-44.71,2022-10-28 10:20:00.578125
1824,-36.15,2022-10-28 10:20:00.593750
1825,-28.74,2022-10-28 10:20:00.609375
1826,-22.83,2022-10-28 10:20:00.625000
1827,-17.7,2022-10-28 10:20:00.640625
1828,-12.32,2022-10-28 10:20:00.656250
1829,-6.22,2022-10-28 10:20:00.671875
1830,0.16,2022-10-28 10:20:00.687500
1831,5.55,2022-10-28 10:20:00.703125
1832,8.39,2022-10-28 10:20:00.718750
1833,7.5,2022-10-28 10:20:00.734375
1834,2.49,2022-10-28 10:20:00.750000
1835,-5.93,2022-10-28 10:20:00.765625
1836,-16.27,2022-10-28 10:20:00.781250
1837,-26.62,2022-10-28 10:20:00.796875
1838,-35.4,2022-10-28 10:20:00.812500
1839,-41.92,2022-10-28 10:20:00.828125
1840,-46.61,2022-10-28 10:20:00.843750
1841,-50.76,2022-10-28 10:20:00.859375
1842,-55.8,2022-10-28 10:20:00.875000
1843,-62.64,2022-10-28 10:20:00.890625
1844,-71.15,2022-10-28 10:20:00.906250
1845,-80.33,2022-10-28 10:20:00.921875
1846,-88.79,2022-10-28 10:20:00.937500
1847,-95.49,2022-10-28 10:20:00.953125
1848,-100.13,2022-10-28 10:20:00.968750
1849,-103.06,2022-10-28 10:20:00.984375
1850,-105.08,2022-10-28 10:20:01.000000
1851,-107.03,2022-10-28 10:20:01.015625
1852,-109.74,2022-10-28 10:20:01.031250
1853,-113.95,2022-10-28 10:20:01.046875
1854,-120.23,2022-10-28 10:20:01.062500
1855,-128.63,2022-10-28 10:20:01.078125
1856,-138.25,2022-10-28 10:20:01.093750
1857,-147.07,2022-10-28 10:20:01.109375
1858,-152.18,2022-10-28 10:20:01.125000
1859,-150.53,2022-10-28 10:20:01.140625
1860,-139.97,2022-10-28 10:20:01.156250
1861,-119.96,2022-10-28 10:20:01.171875
1862,-91.81,2022-10-28 10:20:01.187500
1863,-58.24,2022-10-28 10:20:01.203125
1864,-22.56,2022-10-28 10:20:01.218750
1865,12.15,2022-10-28 10:20:01.234375
1866,43.69,2022-10-28 10:20:01.250000
1867,70.83,2022-10-28 10:20:01.265625
1868,93.17,2022-10-28 10:20:01.281250
1869,110.7,2022-10-28 10:20:01.296875
1870,123.43,2022-10-28 10:20:01.312500
1871,131.21,2022-10-28 10:20:01.328125
1872,133.93,2022-10-28 10:20:01.343750
1873,131.81,2022-10-28 10:20:01.359375
1874,125.78,2022-10-28 10:20:01.375000
1875,117.49,2022-10-28 10:20:01.390625
1876,108.97,2022-10-28 10:20:01.406250
1877,102.2,2022-10-28 10:20:01.421875
1878,98.54,2022-10-28 10:20:01.437500
1879,98.62,2022-10-28 10:20:01.453125
1880,102.5,2022-10-28 10:20:01.468750
1881,110.01,2022-10-28 10:20:01.484375
1882,120.82,2022-10-28 10:20:01.500000
1883,134.32,2022-10-28 10:20:01.515625
1884,149.46,2022-10-28 10:20:01.531250
1885,164.56,2022-10-28 10:20:01.546875
1886,177.66,2022-10-28 10:20:01.562500
1887,187.03,2022-10-28 10:20:01.578125
1888,191.68,2022-10-28 10:20:01.593750
1889,191.64,2022-10-28 10:20:01.609375
1890,187.68,2022-10-28 10:20:01.625000
1891,180.77,2022-10-28 10:20:01.640625
1892,171.62,2022-10-28 10:20:01.656250
1893,160.43,2022-10-28 10:20:01.671875
1894,147.09,2022-10-28 10:20:01.687500
1895,131.81,2022-10-28 10:20:01.703125
1896,115.55,2022-10-28 10:20:01.718750
1897,100.17,2022-10-28 10:20:01.734375
1898,87.92,2022-10-28 10:20:01.750000
1899,80.55,2022-10-28 10:20:01.765625
1900,78.36,2022-10-28 10:20:01.781250
1901,79.73,2022-10-28 10:20:01.796875
1902,81.59,2022-10-28 10:20:01.812500
1903,80.57,2022-10-28 10:20:01.828125
1904,74.39,2022-10-28 10:20:01.843750
1905,62.68,2022-10-28 10:20:01.859375
1906,47.15,2022-10-28 10:20:01.875000
1907,30.77,2022-10-28 10:20:01.890625
1908,16.83,2022-10-28 10:20:01.906250
1909,8.12,2022-10-28 10:20:01.921875
1910,6.45,2022-10-28 10:20:01.937500
1911,12.48,2022-10-28 10:20:01.953125
1912,25.48,2022-10-28 10:20:01.968750
1913,43.3,2022-10-28 10:20:01.984375
1914,62.5,2022-10-28 10:20:02.000000
1915,79.01,2022-10-28 10:20:02.015625
1916,89.32,2022-10-28 10:20:02.031250
1917,91.7,2022-10-28 10:20:02.046875
1918,86.73,2022-10-28 10:20:02.062500
1919,76.83,2022-10-28 10:20:02.078125
1920,64.9,2022-10-28 10:20:02.093750
1921,52.71,2022-10-28 10:20:02.109375
1922,40.17,2022-10-28 10:20:02.125000
1923,25.63,2022-10-28 10:20:02.140625
1924,7.34,2022-10-28 10:20:02.156250
1925,-15.03,2022-10-28 10:20:02.171875
1926,-39.66,2022-10-28 10:20:02.187500
1927,-63.05,2022-10-28 10:20:02.203125
1928,-81.41,2022-10-28 10:20:02.218750
1929,-92.26,2022-10-28 10:20:02.234375
1930,-95.14,2022-10-28 10:20:02.250000
1931,-91.5,2022-10-28 10:20:02.265625
1932,-83.67,2022-10-28 10:20:02.281250
1933,-73.91,2022-10-28 10:20:02.296875
1934,-63.79,2022-10-28 10:20:02.312500
1935,-54.27,2022-10-28 10:20:02.328125
1936,-46.03,2022-10-28 10:20:02.343750
1937,-39.59,2022-10-28 10:20:02.359375
1938,-35.18,2022-10-28 10:20:02.375000
1939,-32.32,2022-10-28 10:20:02.390625
1940,-29.66,2022-10-28 10:20:02.406250
1941,-25.28,2022-10-28 10:20:02.421875
1942,-17.46,2022-10-28 10:20:02.437500
1943,-5.46,2022-10-28 10:20:02.453125
1944,10.02,2022-10-28 10:20:02.468750
1945,26.99,2022-10-28 10:20:02.484375
1946,42.93,2022-10-28 10:20:02.500000
1947,55.59,2022-10-28 10:20:02.515625
1948,63.56,2022-10-28 10:20:02.531250
1949,66.27,2022-10-28 10:20:02.546875
1950,63.76,2022-10-28 10:20:02.562500
1951,56.14,2022-10-28 10:20:02.578125
1952,43.47,2022-10-28 10:20:02.593750
1953,25.96,2022-10-28 10:20:02.609375
1954,4.16,2022-10-28 10:20:02.625000
1955,-20.8,2022-10-28 10:20:02.640625
1956,-47.4,2022-10-28 10:20:02.656250
1957,-74.28,2022-10-28 10:20:02.671875
1958,-100.52,2022-10-28 10:20:02.687500
1959,-125.83,2022-10-28 10:20:02.703125
1960,-150.24,2022-10-28 10:20:02.718750
1961,-173.67,2022-10-28 10:20:02.734375
1962,-195.61,2022-10-28 10:20:02.750000
1963,-215.23,2022-10-28 10:20:02.765625
1964,-231.63,2022-10-28 10:20:02.781250
1965,-244.29,2022-10-28 10:20:02.796875
1966,-253.21,2022-10-28 10:20:02.812500
1967,-258.74,2022-10-28 10:20:02.828125
1968,-261.35,2022-10-28 10:20:02.843750
1969,-261.37,2022-10-28 10:20:02.859375
1970,-259.13,2022-10-28 10:20:02.875000
1971,-255.21,2022-10-28 10:20:02.890625
1972,-250.59,2022-10-28 10:20:02.906250
1973,-246.69,2022-10-28 10:20:02.921875
1974,-244.93,2022-10-28 10:20:02.937500
1975,-246.17,2022-10-28 10:20:02.953125
1976,-250.05,2022-10-28 10:20:02.968750
1977,-254.75,2022-10-28 10:20:02.984375
1978,-257.26,2022-10-28 10:20:03.000000
1979,-254.16,2022-10-28 10:20:03.015625
1980,-242.68,2022-10-28 10:20:03.031250
1981,-221.61,2022-10-28 10:20:03.046875
1982,-191.67,2022-10-28 10:20:03.062500
1983,-155.22,2022-10-28 10:20:03.078125
1984,-115.52,2022-10-28 10:20:03.093750
1985,-75.82,2022-10-28 10:20:03.109375
1986,-38.68,2022-10-28 10:20:03.125000
1987,-5.7,2022-10-28 10:20:03.140625
1988,22.4,2022-10-28 10:20:03.156250
1989,45.44,2022-10-28 10:20:03.171875
1990,63.6,2022-10-28 10:20:03.187500
1991,77.23,2022-10-28 10:20:03.203125
1992,86.81,2022-10-28 10:20:03.218750
1993,92.91,2022-10-28 10:20:03.234375
1994,96.21,2022-10-28 10:20:03.250000
1995,97.5,2022-10-28 10:20:03.265625
1996,97.62,2022-10-28 10:20:03.281250
1997,97.46,2022-10-28 10:20:03.296875
1998,97.86,2022-10-28 10:20:03.312500
1999,99.53,2022-10-28 10:20:03.328125
2000,102.88,2022-10-28 10:20:03.343750
2001,108.02,2022-10-28 10:20:03.359375
2002,114.78,2022-10-28 10:20:03.375000
2003,122.73,2022-10-28 10:20:03.390625
2004,131.27,2022-10-28 10:20:03.406250
2005,139.56,2022-10-28 10:20:03.421875
2006,146.59,2022-10-28 10:20:03.437500
2007,151.25,2022-10-28 10:20:03.453125
2008,152.59,2022-10-28 10:20:03.468750
2009,150.17,2022-10-28 10:20:03.484375
2010,144.27,2022-10-28 10:20:03.500000
2011,135.88,2022-10-28 10:20:03.515625
2012,126.39,2022-10-28 10:20:03.531250
2013,117.12,2022-10-28 10:20:03.546875
2014,108.82,2022-10-28 10:20:03.562500
2015,101.34,2022-10-28 10:20:03.578125
2016,93.79,2022-10-28 10:20:03.593750
2017,84.87,2022-10-28 10:20:03.609375
2018,73.47,2022-10-28 10:20:03.625000
2019,59.2,2022-10-28 10:20:03.640625
2020,42.57,2022-10-28 10:20:03.656250
2021,24.85,2022-10-28 10:20:03.671875
2022,7.54,2022-10-28 10:20:03.687500
2023,-8.24,2022-10-28 10:20:03.703125
2024,-22.12,2022-10-28 10:20:03.718750
2025,-34.75,2022-10-28 10:20:03.734375
2026,-47.48,2022-10-28 10:20:03.750000
2027,-61.83,2022-10-28 10:20:03.765625
2028,-78.8,2022-10-28 10:20:03.781250
2029,-98.11,2022-10-28 10:20:03.796875
2030,-117.88,2022-10-28 10:20:03.812500
2031,-134.74,2022-10-28 10:20:03.828125
2032,-144.61,2022-10-28 10:20:03.843750
2033,-143.97,2022-10-28 10:20:03.859375
2034,-131.11,2022-10-28 10:20:03.875000
2035,-106.8,2022-10-28 10:20:03.890625
2036,-74.24,2022-10-28 10:20:03.906250
2037,-38.07,2022-10-28 10:20:03.921875
2038,-2.99,2022-10-28 10:20:03.937500
2039,27.39,2022-10-28 10:20:03.953125
2040,51.18,2022-10-28 10:20:03.968750
2041,68.05,2022-10-28 10:20:03.984375
2042,78.7,2022-10-28 10:20:04.000000
2043,84.14,2022-10-28 10:20:04.015625
2044,85.29,2022-10-28 10:20:04.031250
2045,82.93,2022-10-28 10:20:04.046875
2046,77.76,2022-10-28 10:20:04.062500
2047,70.53,2022-10-28 10:20:04.078125
2048,62.03,2022-10-28 10:20:04.093750
2049,53.12,2022-10-28 10:20:04.109375
2050,44.54,2022-10-28 10:20:04.125000
2051,37.02,2022-10-28 10:20:04.140625
2052,31.25,2022-10-28 10:20:04.156250
2053,27.88,2022-10-28 10:20:04.171875
2054,27.4,2022-10-28 10:20:04.187500
2055,29.99,2022-10-28 10:20:04.203125
2056,35.29,2022-10-28 10:20:04.218750
2057,42.36,2022-10-28 10:20:04.234375
2058,49.8,2022-10-28 10:20:04.250000
2059,56.14,2022-10-28 10:20:04.265625
2060,60.2,2022-10-28 10:20:04.281250
2061,61.47,2022-10-28 10:20:04.296875
2062,60.16,2022-10-28 10:20:04.312500
2063,57.01,2022-10-28 10:20:04.328125
2064,52.98,2022-10-28 10:20:04.343750
2065,48.9,2022-10-28 10:20:04.359375
2066,45.18,2022-10-28 10:20:04.375000
2067,41.83,2022-10-28 10:20:04.390625
2068,38.5,2022-10-28 10:20:04.406250
2069,34.7,2022-10-28 10:20:04.421875
2070,30.06,2022-10-28 10:20:04.437500
2071,24.5,2022-10-28 10:20:04.453125
2072,18.39,2022-10-28 10:20:04.468750
2073,12.4,2022-10-28 10:20:04.484375
2074,7.31,2022-10-28 10:20:04.500000
2075,3.64,2022-10-28 10:20:04.515625
2076,1.39,2022-10-28 10:20:04.531250
2077,-0.11,2022-10-28 10:20:04.546875
2078,-1.94,2022-10-28 10:20:04.562500
2079,-5.21,2022-10-28 10:20:04.578125
2080,-10.63,2022-10-28 10:20:04.593750
2081,-18.24,2022-10-28 10:20:04.609375
2082,-27.48,2022-10-28 10:20:04.625000
2083,-37.47,2022-10-28 10:20:04.640625
2084,-47.41,2022-10-28 10:20:04.656250
2085,-56.88,2022-10-28 10:20:04.671875
2086,-66.05,2022-10-28 10:20:04.687500
2087,-75.6,2022-10-28 10:20:04.703125
2088,-86.56,2022-10-28 10:20:04.718750
2089,-99.63,2022-10-28 10:20:04.734375
2090,-114.54,2022-10-28 10:20:04.750000
2091,-129.45,2022-10-28 10:20:04.765625
2092,-140.87,2022-10-28 10:20:04.781250
2093,-144.44,2022-10-28 10:20:04.796875
2094,-136.31,2022-10-28 10:20:04.812500
2095,-114.7,2022-10-28 10:20:04.828125
2096,-80.99,2022-10-28 10:20:04.843750
2097,-39.52,2022-10-28 10:20:04.859375
2098,3.57,2022-10-28 10:20:04.875000
2099,42.24,2022-10-28 10:20:04.890625
2100,72.28,2022-10-28 10:20:04.906250
2101,92.1,2022-10-28 10:20:04.921875
2102,102.53,2022-10-28 10:20:04.937500
2103,105.87,2022-10-28 10:20:04.953125
2104,104.81,2022-10-28 10:20:04.968750
2105,101.51,2022-10-28 10:20:04.984375
2106,97.32,2022-10-28 10:20:05.000000
2107,92.82,2022-10-28 10:20:05.015625
2108,88.13,2022-10-28 10:20:05.031250
2109,83.17,2022-10-28 10:20:05.046875
2110,77.85,2022-10-28 10:20:05.062500
2111,72.23,2022-10-28 10:20:05.078125
2112,66.48,2022-10-28 10:20:05.093750
2113,60.86,2022-10-28 10:20:05.109375
2114,55.74,2022-10-28 10:20:05.125000
2115,51.47,2022-10-28 10:20:05.140625
2116,48.38,2022-10-28 10:20:05.156250
2117,46.59,2022-10-28 10:20:05.171875
2118,46.02,2022-10-28 10:20:05.187500
2119,46.22,2022-10-28 10:20:05.203125
2120,46.51,2022-10-28 10:20:05.218750
2121,46.0,2022-10-28 10:20:05.234375
2122,43.86,2022-10-28 10:20:05.250000
2123,39.52,2022-10-28 10:20:05.265625
2124,32.92,2022-10-28 10:20:05.281250
2125,24.47,2022-10-28 10:20:05.296875
2126,14.95,2022-10-28 10:20:05.312500
2127,5.27,2022-10-28 10:20:05.328125
2128,-3.85,2022-10-28 10:20:05.343750
2129,-11.96,2022-10-28 10:20:05.359375
2130,-18.92,2022-10-28 10:20:05.375000
2131,-24.81,2022-10-28 10:20:05.390625
2132,-29.78,2022-10-28 10:20:05.406250
2133,-33.99,2022-10-28 10:20:05.421875
2134,-37.64,2022-10-28 10:20:05.437500
2135,-41.01,2022-10-28 10:20:05.453125
2136,-44.47,2022-10-28 10:20:05.468750
2137,-48.43,2022-10-28 10:20:05.484375
2138,-53.19,2022-10-28 10:20:05.500000
2139,-58.9,2022-10-28 10:20:05.515625
2140,-65.42,2022-10-28 10:20:05.531250
2141,-72.44,2022-10-28 10:20:05.546875
2142,-79.6,2022-10-28 10:20:05.562500
2143,-86.63,2022-10-28 10:20:05.578125
2144,-93.56,2022-10-28 10:20:05.593750
2145,-100.74,2022-10-28 10:20:05.609375
2146,-108.91,2022-10-28 10:20:05.625000
2147,-119.08,2022-10-28 10:20:05.640625
2148,-132.23,2022-10-28 10:20:05.656250
2149,-148.73,2022-10-28 10:20:05.671875
2150,-167.85,2022-10-28 10:20:05.687500
2151,-187.42,2022-10-28 10:20:05.703125
2152,-204.05,2022-10-28 10:20:05.718750
2153,-214.1,2022-10-28 10:20:05.734375
2154,-214.87,2022-10-28 10:20:05.750000
2155,-205.72,2022-10-28 10:20:05.765625
2156,-188.47,2022-10-28 10:20:05.781250
2157,-166.9,2022-10-28 10:20:05.796875
2158,-145.47,2022-10-28 10:20:05.812500
2159,-127.96,2022-10-28 10:20:05.828125
2160,-116.51,2022-10-28 10:20:05.843750
2161,-111.42,2022-10-28 10:20:05.859375
2162,-111.73,2022-10-28 10:20:05.875000
2163,-116.04,2022-10-28 10:20:05.890625
2164,-123.21,2022-10-28 10:20:05.906250
2165,-132.7,2022-10-28 10:20:05.921875
2166,-144.34,2022-10-28 10:20:05.937500
2167,-158.1,2022-10-28 10:20:05.953125
2168,-173.7,2022-10-28 10:20:05.968750
2169,-190.58,2022-10-28 10:20:05.984375
2170,-208.04,2022-10-28 10:20:06.000000
2171,-225.48,2022-10-28 10:20:06.015625
2172,-242.59,2022-10-28 10:20:06.031250
2173,-259.34,2022-10-28 10:20:06.046875
2174,-275.81,2022-10-28 10:20:06.062500
2175,-291.87,2022-10-28 10:20:06.078125
2176,-307.11,2022-10-28 10:20:06.093750
2177,-320.83,2022-10-28 10:20:06.109375
2178,-332.3,2022-10-28 10:20:06.125000
2179,-340.75,2022-10-28 10:20:06.140625
2180,-345.31,2022-10-28 10:20:06.156250
2181,-344.9,2022-10-28 10:20:06.171875
2182,-338.2,2022-10-28 10:20:06.187500
2183,-323.92,2022-10-28 10:20:06.203125
2184,-301.28,2022-10-28 10:20:06.218750
2185,-270.37,2022-10-28 10:20:06.234375
2186,-232.25,2022-10-28 10:20:06.250000
2187,-188.6,2022-10-28 10:20:06.265625
2188,-141.23,2022-10-28 10:20:06.281250
2189,-91.71,2022-10-28 10:20:06.296875
2190,-41.35,2022-10-28 10:20:06.312500
2191,8.53,2022-10-28 10:20:06.328125
2192,56.43,2022-10-28 10:20:06.343750
2193,100.72,2022-10-28 10:20:06.359375
2194,140.05,2022-10-28 10:20:06.375000
2195,173.91,2022-10-28 10:20:06.390625
2196,202.82,2022-10-28 10:20:06.406250
2197,228.14,2022-10-28 10:20:06.421875
2198,251.58,2022-10-28 10:20:06.437500
2199,274.62,2022-10-28 10:20:06.453125
2200,298.16,2022-10-28 10:20:06.468750
2201,322.37,2022-10-28 10:20:06.484375
2202,346.68,2022-10-28 10:20:06.500000
2203,369.67,2022-10-28 10:20:06.515625
2204,389.09,2022-10-28 10:20:06.531250
2205,402.11,2022-10-28 10:20:06.546875
2206,405.82,2022-10-28 10:20:06.562500
2207,398.2,2022-10-28 10:20:06.578125
2208,378.8,2022-10-28 10:20:06.593750
2209,348.82,2022-10-28 10:20:06.609375
2210,310.62,2022-10-28 10:20:06.625000
2211,266.71,2022-10-28 10:20:06.640625
2212,219.36,2022-10-28 10:20:06.656250
2213,170.96,2022-10-28 10:20:06.671875
2214,124.89,2022-10-28 10:20:06.687500
2215,86.12,2022-10-28 10:20:06.703125
2216,60.63,2022-10-28 10:20:06.718750
2217,53.52,2022-10-28 10:20:06.734375
2218,66.8,2022-10-28 10:20:06.750000
2219,97.95,2022-10-28 10:20:06.765625
2220,140.31,2022-10-28 10:20:06.781250
2221,185.05,2022-10-28 10:20:06.796875
2222,223.84,2022-10-28 10:20:06.812500
2223,250.96,2022-10-28 10:20:06.828125
2224,264.15,2022-10-28 10:20:06.843750
2225,264.2,2022-10-28 10:20:06.859375
2226,253.95,2022-10-28 10:20:06.875000
2227,237.33,2022-10-28 10:20:06.890625
2228,218.41,2022-10-28 10:20:06.906250
2229,200.62,2022-10-28 10:20:06.921875
2230,185.99,2022-10-28 10:20:06.937500
2231,174.87,2022-10-28 10:20:06.953125
2232,166.1,2022-10-28 10:20:06.968750
2233,158.0,2022-10-28 10:20:06.984375
2234,149.52,2022-10-28 10:20:07.000000
2235,140.93,2022-10-28 10:20:07.015625
2236,133.73,2022-10-28 10:20:07.031250
2237,129.75,2022-10-28 10:20:07.046875
2238,130.11,2022-10-28 10:20:07.062500
2239,134.5,2022-10-28 10:20:07.078125
2240,141.36,2022-10-28 10:20:07.093750
2241,148.39,2022-10-28 10:20:07.109375
2242,153.36,2022-10-28 10:20:07.125000
2243,154.38,2022-10-28 10:20:07.140625
2244,149.85,2022-10-28 10:20:07.156250
2245,138.54,2022-10-28 10:20:07.171875
2246,119.8,2022-10-28 10:20:07.187500
2247,94.23,2022-10-28 10:20:07.203125
2248,64.17,2022-10-28 10:20:07.218750
2249,33.71,2022-10-28 10:20:07.234375
2250,7.82,2022-10-28 10:20:07.250000
2251,-8.97,2022-10-28 10:20:07.265625
2252,-13.99,2022-10-28 10:20:07.281250
2253,-7.07,2022-10-28 10:20:07.296875
2254,9.56,2022-10-28 10:20:07.312500
2255,32.07,2022-10-28 10:20:07.328125
2256,56.03,2022-10-28 10:20:07.343750
2257,77.28,2022-10-28 10:20:07.359375
2258,92.66,2022-10-28 10:20:07.375000
2259,100.56,2022-10-28 10:20:07.390625
2260,101.18,2022-10-28 10:20:07.406250
2261,96.48,2022-10-28 10:20:07.421875
2262,89.41,2022-10-28 10:20:07.437500
2263,82.71,2022-10-28 10:20:07.453125
2264,77.79,2022-10-28 10:20:07.468750
2265,74.32,2022-10-28 10:20:07.484375
2266,70.91,2022-10-28 10:20:07.500000
2267,66.34,2022-10-28 10:20:07.515625
2268,60.62,2022-10-28 10:20:07.531250
2269,55.1,2022-10-28 10:20:07.546875
2270,51.71,2022-10-28 10:20:07.562500
2271,51.82,2022-10-28 10:20:07.578125
2272,55.32,2022-10-28 10:20:07.593750
2273,60.61,2022-10-28 10:20:07.609375
2274,65.31,2022-10-28 10:20:07.625000
2275,67.38,2022-10-28 10:20:07.640625
2276,65.87,2022-10-28 10:20:07.656250
2277,61.19,2022-10-28 10:20:07.671875
2278,54.77,2022-10-28 10:20:07.687500
2279,48.36,2022-10-28 10:20:07.703125
2280,43.31,2022-10-28 10:20:07.718750
2281,40.08,2022-10-28 10:20:07.734375
2282,38.2,2022-10-28 10:20:07.750000
2283,36.66,2022-10-28 10:20:07.765625
2284,34.35,2022-10-28 10:20:07.781250
2285,30.65,2022-10-28 10:20:07.796875
2286,25.42,2022-10-28 10:20:07.812500
2287,18.83,2022-10-28 10:20:07.828125
2288,11.11,2022-10-28 10:20:07.843750
2289,2.53,2022-10-28 10:20:07.859375
2290,-6.37,2022-10-28 10:20:07.875000
2291,-14.6,2022-10-28 10:20:07.890625
2292,-20.93,2022-10-28 10:20:07.906250
2293,-24.59,2022-10-28 10:20:07.921875
2294,-26.14,2022-10-28 10:20:07.937500
2295,-27.74,2022-10-28 10:20:07.953125
2296,-32.49,2022-10-28 10:20:07.968750
2297,-43.04,2022-10-28 10:20:07.984375
2298,-60.2,2022-10-28 10:20:08.000000
2299,-82.23,2022-10-28 10:20:08.015625
2300,-105.36,2022-10-28 10:20:08.031250
2301,-124.99,2022-10-28 10:20:08.046875
2302,-137.19,2022-10-28 10:20:08.062500
2303,-139.45,2022-10-28 10:20:08.078125
2304,-130.7,2022-10-28 10:20:08.093750
2305,-110.9,2022-10-28 10:20:08.109375
2306,-80.86,2022-10-28 10:20:08.125000
2307,-42.55,2022-10-28 10:20:08.140625
2308,-0.0,2022-10-28 10:20:08.156250
2309,40.5,2022-10-28 10:20:08.171875
2310,71.57,2022-10-28 10:20:08.187500
2311,87.15,2022-10-28 10:20:08.203125
2312,85.37,2022-10-28 10:20:08.218750
2313,69.8,2022-10-28 10:20:08.234375
2314,48.42,2022-10-28 10:20:08.250000
2315,30.26,2022-10-28 10:20:08.265625
2316,21.61,2022-10-28 10:20:08.281250
2317,23.61,2022-10-28 10:20:08.296875
2318,32.48,2022-10-28 10:20:08.312500
2319,41.89,2022-10-28 10:20:08.328125
2320,45.96,2022-10-28 10:20:08.343750
2321,41.31,2022-10-28 10:20:08.359375
2322,27.02,2022-10-28 10:20:08.375000
2323,3.2,2022-10-28 10:20:08.390625
2324,-30.48,2022-10-28 10:20:08.406250
2325,-74.93,2022-10-28 10:20:08.421875
2326,-130.27,2022-10-28 10:20:08.437500
2327,-193.91,2022-10-28 10:20:08.453125
2328,-259.54,2022-10-28 10:20:08.468750
2329,-318.35,2022-10-28 10:20:08.484375
2330,-362.05,2022-10-28 10:20:08.500000
2331,-386.09,2022-10-28 10:20:08.515625
2332,-391.3,2022-10-28 10:20:08.531250
2333,-383.08,2022-10-28 10:20:08.546875
2334,-368.77,2022-10-28 10:20:08.562500
2335,-354.81,2022-10-28 10:20:08.578125
2336,-345.46,2022-10-28 10:20:08.593750
2337,-343.37,2022-10-28 10:20:08.609375
2338,-350.83,2022-10-28 10:20:08.625000
2339,-370.06,2022-10-28 10:20:08.640625
2340,-401.94,2022-10-28 10:20:08.656250
2341,-443.72,2022-10-28 10:20:08.671875
2342,-487.93,2022-10-28 10:20:08.687500
2343,-523.66,2022-10-28 10:20:08.703125
2344,-540.26,2022-10-28 10:20:08.718750
2345,-531.39,2022-10-28 10:20:08.734375
2346,-497.27,2022-10-28 10:20:08.750000
2347,-443.78,2022-10-28 10:20:08.765625
2348,-379.3,2022-10-28 10:20:08.781250
2349,-311.2,2022-10-28 10:20:08.796875
2350,-243.74,2022-10-28 10:20:08.812500
2351,-178.23,2022-10-28 10:20:08.828125
2352,-114.44,2022-10-28 10:20:08.843750
2353,-52.05,2022-10-28 10:20:08.859375
2354,8.79,2022-10-28 10:20:08.875000
2355,67.8,2022-10-28 10:20:08.890625
2356,125.31,2022-10-28 10:20:08.906250
2357,182.94,2022-10-28 10:20:08.921875
2358,243.31,2022-10-28 10:20:08.937500
2359,308.85,2022-10-28 10:20:08.953125
2360,379.99,2022-10-28 10:20:08.968750
2361,453.66,2022-10-28 10:20:08.984375
2362,522.95,2022-10-28 10:20:09.000000
2363,578.83,2022-10-28 10:20:09.015625
2364,613.25,2022-10-28 10:20:09.031250
2365,622.33,2022-10-28 10:20:09.046875
2366,607.82,2022-10-28 10:20:09.062500
2367,576.2,2022-10-28 10:20:09.078125
2368,535.76,2022-10-28 10:20:09.093750
2369,493.54,2022-10-28 10:20:09.109375
2370,453.55,2022-10-28 10:20:09.125000
2371,417.17,2022-10-28 10:20:09.140625
2372,384.97,2022-10-28 10:20:09.156250
2373,358.49,2022-10-28 10:20:09.171875
2374,340.45,2022-10-28 10:20:09.187500
2375,333.44,2022-10-28 10:20:09.203125
2376,337.87,2022-10-28 10:20:09.218750
2377,350.79,2022-10-28 10:20:09.234375
2378,366.39,2022-10-28 10:20:09.250000
2379,377.94,2022-10-28 10:20:09.265625
2380,380.23,2022-10-28 10:20:09.281250
2381,371.17,2022-10-28 10:20:09.296875
2382,352.13,2022-10-28 10:20:09.312500
2383,326.87,2022-10-28 10:20:09.328125
2384,299.84,2022-10-28 10:20:09.343750
2385,274.64,2022-10-28 10:20:09.359375
2386,252.94,2022-10-28 10:20:09.375000
2387,234.49,2022-10-28 10:20:09.390625
2388,217.67,2022-10-28 10:20:09.406250
2389,200.48,2022-10-28 10:20:09.421875
2390,181.3,2022-10-28 10:20:09.437500
2391,159.42,2022-10-28 10:20:09.453125
2392,134.64,2022-10-28 10:20:09.468750
2393,106.89,2022-10-28 10:20:09.484375
2394,75.91,2022-10-28 10:20:09.500000
2395,41.95,2022-10-28 10:20:09.515625
2396,7.08,2022-10-28 10:20:09.531250
2397,-24.11,2022-10-28 10:20:09.546875
2398,-45.04,2022-10-28 10:20:09.562500
2399,-49.84,2022-10-28 10:20:09.578125
2400,-36.41,2022-10-28 10:20:09.593750
2401,-8.62,2022-10-28 10:20:09.609375
2402,24.53,2022-10-28 10:20:09.625000
2403,52.23,2022-10-28 10:20:09.640625
2404,66.37,2022-10-28 10:20:09.656250
2405,64.61,2022-10-28 10:20:09.671875
2406,50.31,2022-10-28 10:20:09.687500
2407,29.76,2022-10-28 10:20:09.703125
2408,8.47,2022-10-28 10:20:09.718750
2409,-10.9,2022-10-28 10:20:09.734375
2410,-28.1,2022-10-28 10:20:09.750000
2411,-42.85,2022-10-28 10:20:09.765625
2412,-52.68,2022-10-28 10:20:09.781250
2413,-52.85,2022-10-28 10:20:09.796875
2414,-38.68,2022-10-28 10:20:09.812500
2415,-8.98,2022-10-28 10:20:09.828125
2416,31.87,2022-10-28 10:20:09.843750
2417,74.55,2022-10-28 10:20:09.859375
2418,108.0,2022-10-28 10:20:09.875000
2419,123.71,2022-10-28 10:20:09.890625
2420,118.92,2022-10-28 10:20:09.906250
2421,97.27,2022-10-28 10:20:09.921875
2422,66.4,2022-10-28 10:20:09.937500
2423,34.34,2022-10-28 10:20:09.953125
2424,6.18,2022-10-28 10:20:09.968750
2425,-17.08,2022-10-28 10:20:09.984375
2426,-37.51,2022-10-28 10:20:10.000000
2427,-57.86,2022-10-28 10:20:10.015625
2428,-79.64,2022-10-28 10:20:10.031250
2429,-102.37,2022-10-28 10:20:10.046875
2430,-124.55,2022-10-28 10:20:10.062500
2431,-145.39,2022-10-28 10:20:10.078125
2432,-165.64,2022-10-28 10:20:10.093750
2433,-187.34,2022-10-28 10:20:10.109375
2434,-212.3,2022-10-28 10:20:10.125000
2435,-240.65,2022-10-28 10:20:10.140625
2436,-270.56,2022-10-28 10:20:10.156250
2437,-299.43,2022-10-28 10:20:10.171875
2438,-325.92,2022-10-28 10:20:10.187500
2439,-351.13,2022-10-28 10:20:10.203125
2440,-378.01,2022-10-28 10:20:10.218750
2441,-409.32,2022-10-28 10:20:10.234375
2442,-445.55,2022-10-28 10:20:10.250000
2443,-484.17,2022-10-28 10:20:10.265625
2444,-520.84,2022-10-28 10:20:10.281250
2445,-551.48,2022-10-28 10:20:10.296875
2446,-573.79,2022-10-28 10:20:10.312500
2447,-587.42,2022-10-28 10:20:10.328125
2448,-592.72,2022-10-28 10:20:10.343750
2449,-589.52,2022-10-28 10:20:10.359375
2450,-576.88,2022-10-28 10:20:10.375000
2451,-554.12,2022-10-28 10:20:10.390625
2452,-522.16,2022-10-28 10:20:10.406250
2453,-484.05,2022-10-28 10:20:10.421875
2454,-444.04,2022-10-28 10:20:10.437500
2455,-405.71,2022-10-28 10:20:10.453125
2456,-370.39,2022-10-28 10:20:10.468750
2457,-336.9,2022-10-28 10:20:10.484375
2458,-302.68,2022-10-28 10:20:10.500000
2459,-265.84,2022-10-28 10:20:10.515625
2460,-226.63,2022-10-28 10:20:10.531250
2461,-187.71,2022-10-28 10:20:10.546875
2462,-152.92,2022-10-28 10:20:10.562500
2463,-125.65,2022-10-28 10:20:10.578125
2464,-107.03,2022-10-28 10:20:10.593750
2465,-95.34,2022-10-28 10:20:10.609375
2466,-86.71,2022-10-28 10:20:10.625000
2467,-76.75,2022-10-28 10:20:10.640625
2468,-62.43,2022-10-28 10:20:10.656250
2469,-43.34,2022-10-28 10:20:10.671875
2470,-21.52,2022-10-28 10:20:10.687500
2471,-0.3,2022-10-28 10:20:10.703125
2472,17.05,2022-10-28 10:20:10.718750
2473,28.37,2022-10-28 10:20:10.734375
2474,32.93,2022-10-28 10:20:10.750000
2475,31.04,2022-10-28 10:20:10.765625
2476,23.84,2022-10-28 10:20:10.781250
2477,13.04,2022-10-28 10:20:10.796875
2478,0.84,2022-10-28 10:20:10.812500
2479,-10.46,2022-10-28 10:20:10.828125
2480,-18.96,2022-10-28 10:20:10.843750
2481,-23.51,2022-10-28 10:20:10.859375
2482,-23.55,2022-10-28 10:20:10.875000
2483,-18.74,2022-10-28 10:20:10.890625
2484,-8.49,2022-10-28 10:20:10.906250
2485,7.92,2022-10-28 10:20:10.921875
2486,30.71,2022-10-28 10:20:10.937500
2487,58.94,2022-10-28 10:20:10.953125
2488,90.44,2022-10-28 10:20:10.968750
2489,122.49,2022-10-28 10:20:10.984375
2490,153.11,2022-10-28 10:20:11.000000
2491,181.74,2022-10-28 10:20:11.015625
2492,208.84,2022-10-28 10:20:11.031250
2493,234.75,2022-10-28 10:20:11.046875
2494,258.57,2022-10-28 10:20:11.062500
2495,277.87,2022-10-28 10:20:11.078125
2496,289.43,2022-10-28 10:20:11.093750
2497,290.61,2022-10-28 10:20:11.109375
2498,280.16,2022-10-28 10:20:11.125000
2499,258.49,2022-10-28 10:20:11.140625
2500,227.31,2022-10-28 10:20:11.156250
2501,189.28,2022-10-28 10:20:11.171875
2502,148.04,2022-10-28 10:20:11.187500
2503,108.23,2022-10-28 10:20:11.203125
2504,74.79,2022-10-28 10:20:11.218750
2505,51.51,2022-10-28 10:20:11.234375
2506,39.56,2022-10-28 10:20:11.250000
2507,36.61,2022-10-28 10:20:11.265625
2508,37.48,2022-10-28 10:20:11.281250
2509,36.26,2022-10-28 10:20:11.296875
2510,28.5,2022-10-28 10:20:11.312500
2511,12.79,2022-10-28 10:20:11.328125
2512,-9.07,2022-10-28 10:20:11.343750
2513,-33.12,2022-10-28 10:20:11.359375
2514,-55.02,2022-10-28 10:20:11.375000
2515,-71.64,2022-10-28 10:20:11.390625
2516,-82.1,2022-10-28 10:20:11.406250
2517,-87.86,2022-10-28 10:20:11.421875
2518,-92.15,2022-10-28 10:20:11.437500
2519,-98.91,2022-10-28 10:20:11.453125
2520,-111.48,2022-10-28 10:20:11.468750
2521,-131.56,2022-10-28 10:20:11.484375
2522,-158.58,2022-10-28 10:20:11.500000
2523,-189.63,2022-10-28 10:20:11.515625
2524,-220.07,2022-10-28 10:20:11.531250
2525,-244.44,2022-10-28 10:20:11.546875
2526,-257.81,2022-10-28 10:20:11.562500
2527,-257.02,2022-10-28 10:20:11.578125
2528,-241.92,2022-10-28 10:20:11.593750
2529,-215.56,2022-10-28 10:20:11.609375
2530,-183.58,2022-10-28 10:20:11.625000
2531,-152.5,2022-10-28 10:20:11.640625
2532,-127.54,2022-10-28 10:20:11.656250
2533,-110.75,2022-10-28 10:20:11.671875
2534,-100.45,2022-10-28 10:20:11.687500
2535,-92.1,2022-10-28 10:20:11.703125
2536,-80.32,2022-10-28 10:20:11.718750
2537,-61.21,2022-10-28 10:20:11.734375
2538,-33.72,2022-10-28 10:20:11.750000
2539,0.14,2022-10-28 10:20:11.765625
2540,36.32,2022-10-28 10:20:11.781250
2541,70.21,2022-10-28 10:20:11.796875
2542,98.21,2022-10-28 10:20:11.812500
2543,118.49,2022-10-28 10:20:11.828125
2544,131.3,2022-10-28 10:20:11.843750
2545,138.67,2022-10-28 10:20:11.859375
2546,143.6,2022-10-28 10:20:11.875000
2547,149.14,2022-10-28 10:20:11.890625
2548,157.38,2022-10-28 10:20:11.906250
2549,168.77,2022-10-28 10:20:11.921875
2550,182.01,2022-10-28 10:20:11.937500
2551,194.56,2022-10-28 10:20:11.953125
2552,203.62,2022-10-28 10:20:11.968750
2553,207.08,2022-10-28 10:20:11.984375
2554,204.21,2022-10-28 10:20:12.000000
2555,195.65,2022-10-28 10:20:12.015625
2556,182.91,2022-10-28 10:20:12.031250
2557,167.63,2022-10-28 10:20:12.046875
2558,151.02,2022-10-28 10:20:12.062500
2559,133.77,2022-10-28 10:20:12.078125
2560,116.16,2022-10-28 10:20:12.093750
2561,98.28,2022-10-28 10:20:12.109375
2562,80.24,2022-10-28 10:20:12.125000
2563,62.04,2022-10-28 10:20:12.140625
2564,43.54,2022-10-28 10:20:12.156250
2565,24.4,2022-10-28 10:20:12.171875
2566,4.27,2022-10-28 10:20:12.187500
2567,-17.04,2022-10-28 10:20:12.203125
2568,-39.18,2022-10-28 10:20:12.218750
2569,-61.39,2022-10-28 10:20:12.234375
2570,-82.68,2022-10-28 10:20:12.250000
2571,-102.32,2022-10-28 10:20:12.265625
2572,-120.22,2022-10-28 10:20:12.281250
2573,-136.89,2022-10-28 10:20:12.296875
2574,-153.03,2022-10-28 10:20:12.312500
2575,-168.72,2022-10-28 10:20:12.328125
2576,-182.82,2022-10-28 10:20:12.343750
2577,-192.79,2022-10-28 10:20:12.359375
2578,-195.4,2022-10-28 10:20:12.375000
2579,-187.92,2022-10-28 10:20:12.390625
2580,-169.42,2022-10-28 10:20:12.406250
2581,-141.41,2022-10-28 10:20:12.421875
2582,-107.51,2022-10-28 10:20:12.437500
2583,-72.29,2022-10-28 10:20:12.453125
2584,-39.82,2022-10-28 10:20:12.468750
2585,-12.61,2022-10-28 10:20:12.484375
2586,8.53,2022-10-28 10:20:12.500000
2587,23.99,2022-10-28 10:20:12.515625
2588,34.53,2022-10-28 10:20:12.531250
2589,40.73,2022-10-28 10:20:12.546875
2590,42.97,2022-10-28 10:20:12.562500
2591,41.73,2022-10-28 10:20:12.578125
2592,37.96,2022-10-28 10:20:12.593750
2593,33.16,2022-10-28 10:20:12.609375
2594,28.98,2022-10-28 10:20:12.625000
2595,26.74,2022-10-28 10:20:12.640625
2596,26.99,2022-10-28 10:20:12.656250
2597,29.55,2022-10-28 10:20:12.671875
2598,33.78,2022-10-28 10:20:12.687500
2599,39.08,2022-10-28 10:20:12.703125
2600,45.18,2022-10-28 10:20:12.718750
2601,52.06,2022-10-28 10:20:12.734375
2602,59.65,2022-10-28 10:20:12.750000
2603,67.55,2022-10-28 10:20:12.765625
2604,74.83,2022-10-28 10:20:12.781250
2605,80.29,2022-10-28 10:20:12.796875
2606,82.87,2022-10-28 10:20:12.812500
2607,82.12,2022-10-28 10:20:12.828125
2608,78.37,2022-10-28 10:20:12.843750
2609,72.61,2022-10-28 10:20:12.859375
2610,66.09,2022-10-28 10:20:12.875000
2611,59.76,2022-10-28 10:20:12.890625
2612,54.05,2022-10-28 10:20:12.906250
2613,48.85,2022-10-28 10:20:12.921875
2614,43.77,2022-10-28 10:20:12.937500
2615,38.4,2022-10-28 10:20:12.953125
2616,32.46,2022-10-28 10:20:12.968750
2617,25.85,2022-10-28 10:20:12.984375
2618,18.51,2022-10-28 10:20:13.000000
2619,10.31,2022-10-28 10:20:13.015625
2620,1.09,2022-10-28 10:20:13.031250
2621,-9.25,2022-10-28 10:20:13.046875
2622,-20.64,2022-10-28 10:20:13.062500
2623,-32.72,2022-10-28 10:20:13.078125
2624,-44.94,2022-10-28 10:20:13.093750
2625,-56.75,2022-10-28 10:20:13.109375
2626,-67.81,2022-10-28 10:20:13.125000
2627,-78.12,2022-10-28 10:20:13.140625
2628,-87.98,2022-10-28 10:20:13.156250
2629,-97.88,2022-10-28 10:20:13.171875
2630,-108.31,2022-10-28 10:20:13.187500
2631,-119.63,2022-10-28 10:20:13.203125
2632,-131.97,2022-10-28 10:20:13.218750
2633,-145.0,2022-10-28 10:20:13.234375
2634,-157.78,2022-10-28 10:20:13.250000
2635,-168.59,2022-10-28 10:20:13.265625
2636,-175.03,2022-10-28 10:20:13.281250
2637,-174.53,2022-10-28 10:20:13.296875
2638,-165.05,2022-10-28 10:20:13.312500
2639,-145.86,2022-10-28 10:20:13.328125
2640,-117.95,2022-10-28 10:20:13.343750
2641,-83.9,2022-10-28 10:20:13.359375
2642,-47.06,2022-10-28 10:20:13.375000
2643,-10.55,2022-10-28 10:20:13.390625
2644,23.56,2022-10-28 10:20:13.406250
2645,54.53,2022-10-28 10:20:13.421875
2646,82.57,2022-10-28 10:20:13.437500
2647,108.08,2022-10-28 10:20:13.453125
2648,131.08,2022-10-28 10:20:13.468750
2649,150.92,2022-10-28 10:20:13.484375
2650,166.71,2022-10-28 10:20:13.500000
2651,177.7,2022-10-28 10:20:13.515625
2652,183.73,2022-10-28 10:20:13.531250
2653,185.25,2022-10-28 10:20:13.546875
2654,183.12,2022-10-28 10:20:13.562500
2655,178.31,2022-10-28 10:20:13.578125
2656,171.81,2022-10-28 10:20:13.593750
2657,164.68,2022-10-28 10:20:13.609375
2658,158.15,2022-10-28 10:20:13.625000
2659,153.42,2022-10-28 10:20:13.640625
2660,151.34,2022-10-28 10:20:13.656250
2661,151.91,2022-10-28 10:20:13.671875
2662,154.15,2022-10-28 10:20:13.687500
2663,156.36,2022-10-28 10:20:13.703125
2664,156.81,2022-10-28 10:20:13.718750
2665,154.37,2022-10-28 10:20:13.734375
2666,148.95,2022-10-28 10:20:13.750000
2667,141.27,2022-10-28 10:20:13.765625
2668,132.4,2022-10-28 10:20:13.781250
2669,123.26,2022-10-28 10:20:13.796875
2670,114.28,2022-10-28 10:20:13.812500
2671,105.37,2022-10-28 10:20:13.828125
2672,96.11,2022-10-28 10:20:13.843750
2673,85.9,2022-10-28 10:20:13.859375
2674,74.2,2022-10-28 10:20:13.875000
2675,60.73,2022-10-28 10:20:13.890625
2676,45.57,2022-10-28 10:20:13.906250
2677,29.31,2022-10-28 10:20:13.921875
2678,13.0,2022-10-28 10:20:13.937500
2679,-2.13,2022-10-28 10:20:13.953125
2680,-15.07,2022-10-28 10:20:13.968750
2681,-25.46,2022-10-28 10:20:13.984375
2682,-33.7,2022-10-28 10:20:14.000000
2683,-40.8,2022-10-28 10:20:14.015625
2684,-47.8,2022-10-28 10:20:14.031250
2685,-55.0,2022-10-28 10:20:14.046875
2686,-61.5,2022-10-28 10:20:14.062500
2687,-65.08,2022-10-28 10:20:14.078125
2688,-62.87,2022-10-28 10:20:14.093750
2689,-52.57,2022-10-28 10:20:14.109375
2690,-33.61,2022-10-28 10:20:14.125000
2691,-7.84,2022-10-28 10:20:14.140625
2692,20.59,2022-10-28 10:20:14.156250
2693,46.38,2022-10-28 10:20:14.171875
2694,64.58,2022-10-28 10:20:14.187500
2695,72.08,2022-10-28 10:20:14.203125
2696,68.52,2022-10-28 10:20:14.218750
2697,56.27,2022-10-28 10:20:14.234375
2698,39.72,2022-10-28 10:20:14.250000
2699,24.07,2022-10-28 10:20:14.265625
2700,14.11,2022-10-28 10:20:14.281250
2701,12.99,2022-10-28 10:20:14.296875
2702,21.55,2022-10-28 10:20:14.312500
2703,38.02,2022-10-28 10:20:14.328125
2704,58.58,2022-10-28 10:20:14.343750
2705,78.46,2022-10-28 10:20:14.359375
2706,93.48,2022-10-28 10:20:14.375000
2707,101.32,2022-10-28 10:20:14.390625
2708,102.17,2022-10-28 10:20:14.406250
2709,98.29,2022-10-28 10:20:14.421875
2710,92.9,2022-10-28 10:20:14.437500
2711,88.9,2022-10-28 10:20:14.453125
2712,87.9,2022-10-28 10:20:14.468750
2713,89.85,2022-10-28 10:20:14.484375
2714,93.52,2022-10-28 10:20:14.500000
2715,97.12,2022-10-28 10:20:14.515625
2716,99.12,2022-10-28 10:20:14.531250
2717,98.63,2022-10-28 10:20:14.546875
2718,95.46,2022-10-28 10:20:14.562500
2719,90.02,2022-10-28 10:20:14.578125
2720,83.0,2022-10-28 10:20:14.593750
2721,75.22,2022-10-28 10:20:14.609375
2722,67.51,2022-10-28 10:20:14.625000
2723,60.56,2022-10-28 10:20:14.640625
2724,54.78,2022-10-28 10:20:14.656250
2725,50.09,2022-10-28 10:20:14.671875
2726,46.11,2022-10-28 10:20:14.687500
2727,42.31,2022-10-28 10:20:14.703125
2728,38.39,2022-10-28 10:20:14.718750
2729,34.51,2022-10-28 10:20:14.734375
2730,31.18,2022-10-28 10:20:14.750000
2731,28.88,2022-10-28 10:20:14.765625
2732,27.65,2022-10-28 10:20:14.781250
2733,26.83,2022-10-28 10:20:14.796875
2734,25.33,2022-10-28 10:20:14.812500
2735,22.07,2022-10-28 10:20:14.828125
2736,16.61,2022-10-28 10:20:14.843750
2737,9.35,2022-10-28 10:20:14.859375
2738,1.35,2022-10-28 10:20:14.875000
2739,-6.2,2022-10-28 10:20:14.890625
2740,-12.37,2022-10-28 10:20:14.906250
2741,-16.77,2022-10-28 10:20:14.921875
2742,-19.39,2022-10-28 10:20:14.937500
2743,-20.5,2022-10-28 10:20:14.953125
2744,-20.5,2022-10-28 10:20:14.968750
2745,-19.94,2022-10-28 10:20:14.984375
2746,-19.51,2022-10-28 10:20:15.000000
2747,-19.83,2022-10-28 10:20:15.015625
2748,-21.16,2022-10-28 10:20:15.031250
2749,-23.15,2022-10-28 10:20:15.046875
2750,-24.87,2022-10-28 10:20:15.062500
2751,-25.29,2022-10-28 10:20:15.078125
2752,-23.91,2022-10-28 10:20:15.093750
2753,-21.34,2022-10-28 10:20:15.109375
2754,-19.33,2022-10-28 10:20:15.125000
2755,-20.14,2022-10-28 10:20:15.140625
2756,-25.63,2022-10-28 10:20:15.156250
2757,-36.38,2022-10-28 10:20:15.171875
2758,-51.19,2022-10-28 10:20:15.187500
2759,-67.37,2022-10-28 10:20:15.203125
2760,-81.42,2022-10-28 10:20:15.218750
2761,-90.04,2022-10-28 10:20:15.234375
2762,-91.08,2022-10-28 10:20:15.250000
2763,-84.08,2022-10-28 10:20:15.265625
2764,-70.44,2022-10-28 10:20:15.281250
2765,-52.93,2022-10-28 10:20:15.296875
2766,-34.89,2022-10-28 10:20:15.312500
2767,-19.19,2022-10-28 10:20:15.328125
2768,-7.45,2022-10-28 10:20:15.343750
2769,0.28,2022-10-28 10:20:15.359375
2770,5.2,2022-10-28 10:20:15.375000
2771,8.9,2022-10-28 10:20:15.390625
2772,12.62,2022-10-28 10:20:15.406250
2773,16.65,2022-10-28 10:20:15.421875
2774,20.49,2022-10-28 10:20:15.437500
2775,23.23,2022-10-28 10:20:15.453125
2776,24.11,2022-10-28 10:20:15.468750
2777,22.72,2022-10-28 10:20:15.484375
2778,19.05,2022-10-28 10:20:15.500000
2779,13.29,2022-10-28 10:20:15.515625
2780,5.76,2022-10-28 10:20:15.531250
2781,-2.94,2022-10-28 10:20:15.546875
2782,-11.83,2022-10-28 10:20:15.562500
2783,-19.52,2022-10-28 10:20:15.578125
2784,-24.62,2022-10-28 10:20:15.593750
2785,-26.14,2022-10-28 10:20:15.609375
2786,-23.95,2022-10-28 10:20:15.625000
2787,-18.87,2022-10-28 10:20:15.640625
2788,-12.29,2022-10-28 10:20:15.656250
2789,-5.72,2022-10-28 10:20:15.671875
2790,-0.31,2022-10-28 10:20:15.687500
2791,3.44,2022-10-28 10:20:15.703125
2792,5.6,2022-10-28 10:20:15.718750
2793,6.69,2022-10-28 10:20:15.734375
2794,7.34,2022-10-28 10:20:15.750000
2795,8.09,2022-10-28 10:20:15.765625
2796,9.1,2022-10-28 10:20:15.781250
2797,10.01,2022-10-28 10:20:15.796875
2798,9.97,2022-10-28 10:20:15.812500
2799,7.94,2022-10-28 10:20:15.828125
2800,3.1,2022-10-28 10:20:15.843750
2801,-4.61,2022-10-28 10:20:15.859375
2802,-14.4,2022-10-28 10:20:15.875000
2803,-24.86,2022-10-28 10:20:15.890625
2804,-34.73,2022-10-28 10:20:15.906250
2805,-43.49,2022-10-28 10:20:15.921875
2806,-51.63,2022-10-28 10:20:15.937500
2807,-60.22,2022-10-28 10:20:15.953125
2808,-70.15,2022-10-28 10:20:15.968750
2809,-81.47,2022-10-28 10:20:15.984375
2810,-93.18,2022-10-28 10:20:16.000000
2811,-103.57,2022-10-28 10:20:16.015625
2812,-110.9,2022-10-28 10:20:16.031250
2813,-113.88,2022-10-28 10:20:16.046875
2814,-111.92,2022-10-28 10:20:16.062500
2815,-104.87,2022-10-28 10:20:16.078125
2816,-92.83,2022-10-28 10:20:16.093750
2817,-76.07,2022-10-28 10:20:16.109375
2818,-55.36,2022-10-28 10:20:16.125000
2819,-32.28,2022-10-28 10:20:16.140625
2820,-9.32,2022-10-28 10:20:16.156250
2821,10.69,2022-10-28 10:20:16.171875
2822,25.55,2022-10-28 10:20:16.187500
2823,34.71,2022-10-28 10:20:16.203125
2824,39.73,2022-10-28 10:20:16.218750
2825,43.87,2022-10-28 10:20:16.234375
2826,50.79,2022-10-28 10:20:16.250000
2827,63.01,2022-10-28 10:20:16.265625
2828,80.9,2022-10-28 10:20:16.281250
2829,102.39,2022-10-28 10:20:16.296875
2830,123.9,2022-10-28 10:20:16.312500
2831,141.65,2022-10-28 10:20:16.328125
2832,153.02,2022-10-28 10:20:16.343750
2833,157.16,2022-10-28 10:20:16.359375
2834,154.79,2022-10-28 10:20:16.375000
2835,147.57,2022-10-28 10:20:16.390625
2836,137.25,2022-10-28 10:20:16.406250
2837,125.16,2022-10-28 10:20:16.421875
2838,112.07,2022-10-28 10:20:16.437500
2839,98.29,2022-10-28 10:20:16.453125
2840,83.83,2022-10-28 10:20:16.468750
2841,68.67,2022-10-28 10:20:16.484375
2842,52.91,2022-10-28 10:20:16.500000
2843,36.96,2022-10-28 10:20:16.515625
2844,21.55,2022-10-28 10:20:16.531250
2845,7.55,2022-10-28 10:20:16.546875
2846,-4.3,2022-10-28 10:20:16.562500
2847,-13.78,2022-10-28 10:20:16.578125
2848,-21.36,2022-10-28 10:20:16.593750
2849,-28.08,2022-10-28 10:20:16.609375
2850,-35.21,2022-10-28 10:20:16.625000
2851,-43.76,2022-10-28 10:20:16.640625
2852,-54.22,2022-10-28 10:20:16.656250
2853,-66.46,2022-10-28 10:20:16.671875
2854,-79.95,2022-10-28 10:20:16.687500
2855,-93.97,2022-10-28 10:20:16.703125
2856,-107.83,2022-10-28 10:20:16.718750
2857,-120.88,2022-10-28 10:20:16.734375
2858,-132.5,2022-10-28 10:20:16.750000
2859,-141.93,2022-10-28 10:20:16.765625
2860,-148.42,2022-10-28 10:20:16.781250
2861,-151.44,2022-10-28 10:20:16.796875
2862,-150.97,2022-10-28 10:20:16.812500
2863,-147.69,2022-10-28 10:20:16.828125
2864,-142.9,2022-10-28 10:20:16.843750
2865,-138.24,2022-10-28 10:20:16.859375
2866,-135.18,2022-10-28 10:20:16.875000
2867,-134.7,2022-10-28 10:20:16.890625
2868,-137.03,2022-10-28 10:20:16.906250
2869,-141.81,2022-10-28 10:20:16.921875
2870,-148.2,2022-10-28 10:20:16.937500
2871,-155.03,2022-10-28 10:20:16.953125
2872,-160.82,2022-10-28 10:20:16.968750
2873,-163.76,2022-10-28 10:20:16.984375
2874,-162.03,2022-10-28 10:20:17.000000
2875,-154.1,2022-10-28 10:20:17.015625
2876,-139.25,2022-10-28 10:20:17.031250
2877,-117.88,2022-10-28 10:20:17.046875
2878,-91.48,2022-10-28 10:20:17.062500
2879,-62.16,2022-10-28 10:20:17.078125
2880,-32.09,2022-10-28 10:20:17.093750
2881,-3.03,2022-10-28 10:20:17.109375
2882,23.85,2022-10-28 10:20:17.125000
2883,47.95,2022-10-28 10:20:17.140625
2884,69.17,2022-10-28 10:20:17.156250
2885,87.84,2022-10-28 10:20:17.171875
2886,104.59,2022-10-28 10:20:17.187500
2887,120.19,2022-10-28 10:20:17.203125
2888,135.25,2022-10-28 10:20:17.218750
2889,149.96,2022-10-28 10:20:17.234375
2890,163.97,2022-10-28 10:20:17.250000
2891,176.54,2022-10-28 10:20:17.265625
2892,186.76,2022-10-28 10:20:17.281250
2893,193.74,2022-10-28 10:20:17.296875
2894,196.61,2022-10-28 10:20:17.312500
2895,194.36,2022-10-28 10:20:17.328125
2896,186.06,2022-10-28 10:20:17.343750
2897,171.29,2022-10-28 10:20:17.359375
2898,150.84,2022-10-28 10:20:17.375000
2899,127.01,2022-10-28 10:20:17.390625
2900,103.38,2022-10-28 10:20:17.406250
2901,83.66,2022-10-28 10:20:17.421875
2902,70.39,2022-10-28 10:20:17.437500
2903,63.97,2022-10-28 10:20:17.453125
2904,62.7,2022-10-28 10:20:17.468750
2905,63.91,2022-10-28 10:20:17.484375
2906,65.31,2022-10-28 10:20:17.500000
2907,65.93,2022-10-28 10:20:17.515625
2908,66.15,2022-10-28 10:20:17.531250
2909,66.74,2022-10-28 10:20:17.546875
2910,67.8,2022-10-28 10:20:17.562500
2911,68.34,2022-10-28 10:20:17.578125
2912,66.7,2022-10-28 10:20:17.593750
2913,61.72,2022-10-28 10:20:17.609375
2914,53.75,2022-10-28 10:20:17.625000
2915,44.71,2022-10-28 10:20:17.640625
2916,37.22,2022-10-28 10:20:17.656250
2917,33.24,2022-10-28 10:20:17.671875
2918,33.05,2022-10-28 10:20:17.687500
2919,35.16,2022-10-28 10:20:17.703125
2920,37.31,2022-10-28 10:20:17.718750
2921,37.66,2022-10-28 10:20:17.734375
2922,35.73,2022-10-28 10:20:17.750000
2923,32.41,2022-10-28 10:20:17.765625
2924,29.29,2022-10-28 10:20:17.781250
2925,27.68,2022-10-28 10:20:17.796875
2926,27.88,2022-10-28 10:20:17.812500
2927,28.95,2022-10-28 10:20:17.828125
2928,28.87,2022-10-28 10:20:17.843750
2929,25.09,2022-10-28 10:20:17.859375
2930,15.22,2022-10-28 10:20:17.875000
2931,-2.1,2022-10-28 10:20:17.890625
2932,-26.39,2022-10-28 10:20:17.906250
2933,-55.02,2022-10-28 10:20:17.921875
2934,-83.51,2022-10-28 10:20:17.937500
2935,-106.82,2022-10-28 10:20:17.953125
2936,-120.9,2022-10-28 10:20:17.968750
2937,-124.16,2022-10-28 10:20:17.984375
2938,-117.74,2022-10-28 10:20:18.000000
2939,-104.98,2022-10-28 10:20:18.015625
2940,-89.92,2022-10-28 10:20:18.031250
2941,-76.0,2022-10-28 10:20:18.046875
2942,-65.29,2022-10-28 10:20:18.062500
2943,-58.41,2022-10-28 10:20:18.078125
2944,-55.0,2022-10-28 10:20:18.093750
2945,-54.13,2022-10-28 10:20:18.109375
2946,-54.68,2022-10-28 10:20:18.125000
2947,-55.42,2022-10-28 10:20:18.140625
2948,-55.29,2022-10-28 10:20:18.156250
2949,-53.62,2022-10-28 10:20:18.171875
2950,-50.47,2022-10-28 10:20:18.187500
2951,-46.59,2022-10-28 10:20:18.203125
2952,-43.1,2022-10-28 10:20:18.218750
2953,-40.86,2022-10-28 10:20:18.234375
2954,-40.0,2022-10-28 10:20:18.250000
2955,-39.8,2022-10-28 10:20:18.265625
2956,-39.14,2022-10-28 10:20:18.281250
2957,-37.07,2022-10-28 10:20:18.296875
2958,-33.3,2022-10-28 10:20:18.312500
2959,-28.17,2022-10-28 10:20:18.328125
2960,-22.34,2022-10-28 10:20:18.343750
2961,-16.32,2022-10-28 10:20:18.359375
2962,-10.26,2022-10-28 10:20:18.375000
2963,-4.05,2022-10-28 10:20:18.390625
2964,2.37,2022-10-28 10:20:18.406250
2965,8.77,2022-10-28 10:20:18.421875
2966,14.55,2022-10-28 10:20:18.437500
2967,19.07,2022-10-28 10:20:18.453125
2968,21.95,2022-10-28 10:20:18.468750
2969,23.25,2022-10-28 10:20:18.484375
2970,23.4,2022-10-28 10:20:18.500000
2971,22.96,2022-10-28 10:20:18.515625
2972,22.45,2022-10-28 10:20:18.531250
2973,22.17,2022-10-28 10:20:18.546875
2974,22.28,2022-10-28 10:20:18.562500
2975,22.85,2022-10-28 10:20:18.578125
2976,23.92,2022-10-28 10:20:18.593750
2977,25.46,2022-10-28 10:20:18.609375
2978,27.46,2022-10-28 10:20:18.625000
2979,29.78,2022-10-28 10:20:18.640625
2980,32.06,2022-10-28 10:20:18.656250
2981,33.57,2022-10-28 10:20:18.671875
2982,33.09,2022-10-28 10:20:18.687500
2983,29.12,2022-10-28 10:20:18.703125
2984,20.3,2022-10-28 10:20:18.718750
2985,6.18,2022-10-28 10:20:18.734375
2986,-12.18,2022-10-28 10:20:18.750000
2987,-32.09,2022-10-28 10:20:18.765625
2988,-49.84,2022-10-28 10:20:18.781250
2989,-61.93,2022-10-28 10:20:18.796875
2990,-66.38,2022-10-28 10:20:18.812500
2991,-63.54,2022-10-28 10:20:18.828125
2992,-55.91,2022-10-28 10:20:18.843750
2993,-46.99,2022-10-28 10:20:18.859375
2994,-39.93,2022-10-28 10:20:18.875000
2995,-36.37,2022-10-28 10:20:18.890625
2996,-36.22,2022-10-28 10:20:18.906250
2997,-38.23,2022-10-28 10:20:18.921875
2998,-40.95,2022-10-28 10:20:18.937500
2999,-43.42,2022-10-28 10:20:18.953125
3000,-45.42,2022-10-28 10:20:18.968750
3001,-47.09,2022-10-28 10:20:18.984375
3002,-48.55,2022-10-28 10:20:19.000000
3003,-49.66,2022-10-28 10:20:19.015625
3004,-50.07,2022-10-28 10:20:19.031250
3005,-49.64,2022-10-28 10:20:19.046875
3006,-48.65,2022-10-28 10:20:19.062500
3007,-47.74,2022-10-28 10:20:19.078125
3008,-47.45,2022-10-28 10:20:19.093750
3009,-47.81,2022-10-28 10:20:19.109375
3010,-48.05,2022-10-28 10:20:19.125000
3011,-46.95,2022-10-28 10:20:19.140625
3012,-43.32,2022-10-28 10:20:19.156250
3013,-36.71,2022-10-28 10:20:19.171875
3014,-27.64,2022-10-28 10:20:19.187500
3015,-17.48,2022-10-28 10:20:19.203125
3016,-7.97,2022-10-28 10:20:19.218750
3017,-0.62,2022-10-28 10:20:19.234375
3018,3.87,2022-10-28 10:20:19.250000
3019,5.67,2022-10-28 10:20:19.265625
3020,5.74,2022-10-28 10:20:19.281250
3021,5.36,2022-10-28 10:20:19.296875
3022,5.66,2022-10-28 10:20:19.312500
3023,7.28,2022-10-28 10:20:19.328125
3024,10.24,2022-10-28 10:20:19.343750
3025,14.09,2022-10-28 10:20:19.359375
3026,18.17,2022-10-28 10:20:19.375000
3027,22.05,2022-10-28 10:20:19.390625
3028,25.62,2022-10-28 10:20:19.406250
3029,28.97,2022-10-28 10:20:19.421875
3030,32.14,2022-10-28 10:20:19.437500
3031,34.77,2022-10-28 10:20:19.453125
3032,36.07,2022-10-28 10:20:19.468750
3033,35.09,2022-10-28 10:20:19.484375
3034,31.16,2022-10-28 10:20:19.500000
3035,24.26,2022-10-28 10:20:19.515625
3036,15.14,2022-10-28 10:20:19.531250
3037,4.95,2022-10-28 10:20:19.546875
3038,-5.25,2022-10-28 10:20:19.562500
3039,-14.96,2022-10-28 10:20:19.578125
3040,-24.43,2022-10-28 10:20:19.593750
3041,-34.47,2022-10-28 10:20:19.609375
3042,-46.01,2022-10-28 10:20:19.625000
3043,-59.55,2022-10-28 10:20:19.640625
3044,-74.97,2022-10-28 10:20:19.656250
3045,-91.33,2022-10-28 10:20:19.671875
3046,-107.01,2022-10-28 10:20:19.687500
3047,-119.95,2022-10-28 10:20:19.703125
3048,-128.09,2022-10-28 10:20:19.718750
3049,-129.84,2022-10-28 10:20:19.734375
3050,-124.6,2022-10-28 10:20:19.750000
3051,-112.96,2022-10-28 10:20:19.765625
3052,-96.72,2022-10-28 10:20:19.781250
3053,-78.35,2022-10-28 10:20:19.796875
3054,-60.37,2022-10-28 10:20:19.812500
3055,-44.69,2022-10-28 10:20:19.828125
3056,-32.22,2022-10-28 10:20:19.843750
3057,-22.9,2022-10-28 10:20:19.859375
3058,-15.97,2022-10-28 10:20:19.875000
3059,-10.43,2022-10-28 10:20:19.890625
3060,-5.35,2022-10-28 10:20:19.906250
3061,-0.13,2022-10-28 10:20:19.921875
3062,5.48,2022-10-28 10:20:19.937500
3063,11.36,2022-10-28 10:20:19.953125
3064,17.21,2022-10-28 10:20:19.968750
3065,22.72,2022-10-28 10:20:19.984375
3066,27.72,2022-10-28 10:20:20.000000
3067,32.21,2022-10-28 10:20:20.015625
3068,36.32,2022-10-28 10:20:20.031250
3069,40.18,2022-10-28 10:20:20.046875
3070,43.86,2022-10-28 10:20:20.062500
3071,47.3,2022-10-28 10:20:20.078125
3072,50.43,2022-10-28 10:20:20.093750
3073,53.26,2022-10-28 10:20:20.109375
3074,55.77,2022-10-28 10:20:20.125000
3075,57.95,2022-10-28 10:20:20.140625
3076,59.69,2022-10-28 10:20:20.156250
3077,60.68,2022-10-28 10:20:20.171875
3078,60.61,2022-10-28 10:20:20.187500
3079,59.22,2022-10-28 10:20:20.203125
3080,56.44,2022-10-28 10:20:20.218750
3081,52.47,2022-10-28 10:20:20.234375
3082,47.73,2022-10-28 10:20:20.250000
3083,42.71,2022-10-28 10:20:20.265625
3084,37.84,2022-10-28 10:20:20.281250
3085,33.36,2022-10-28 10:20:20.296875
3086,29.21,2022-10-28 10:20:20.312500
3087,25.09,2022-10-28 10:20:20.328125
3088,20.5,2022-10-28 10:20:20.343750
3089,14.93,2022-10-28 10:20:20.359375
3090,8.07,2022-10-28 10:20:20.375000
3091,-0.01,2022-10-28 10:20:20.390625
3092,-8.92,2022-10-28 10:20:20.406250
3093,-17.96,2022-10-28 10:20:20.421875
3094,-26.34,2022-10-28 10:20:20.437500
3095,-33.53,2022-10-28 10:20:20.453125
3096,-39.31,2022-10-28 10:20:20.468750
3097,-43.99,2022-10-28 10:20:20.484375
3098,-48.3,2022-10-28 10:20:20.500000
3099,-53.26,2022-10-28 10:20:20.515625
3100,-59.86,2022-10-28 10:20:20.531250
3101,-68.75,2022-10-28 10:20:20.546875
3102,-79.71,2022-10-28 10:20:20.562500
3103,-91.46,2022-10-28 10:20:20.578125
3104,-101.69,2022-10-28 10:20:20.593750
3105,-107.56,2022-10-28 10:20:20.609375
3106,-106.51,2022-10-28 10:20:20.625000
3107,-97.12,2022-10-28 10:20:20.640625
3108,-79.77,2022-10-28 10:20:20.656250
3109,-56.56,2022-10-28 10:20:20.671875
3110,-30.74,2022-10-28 10:20:20.687500
3111,-5.65,2022-10-28 10:20:20.703125
3112,16.11,2022-10-28 10:20:20.718750
3113,33.21,2022-10-28 10:20:20.734375
3114,45.6,2022-10-28 10:20:20.750000
3115,54.14,2022-10-28 10:20:20.765625
3116,59.99,2022-10-28 10:20:20.781250
3117,64.3,2022-10-28 10:20:20.796875
3118,67.91,2022-10-28 10:20:20.812500
3119,71.28,2022-10-28 10:20:20.828125
3120,74.53,2022-10-28 10:20:20.843750
3121,77.5,2022-10-28 10:20:20.859375
3122,79.82,2022-10-28 10:20:20.875000
3123,81.02,2022-10-28 10:20:20.890625
3124,80.68,2022-10-28 10:20:20.906250
3125,78.59,2022-10-28 10:20:20.921875
3126,74.88,2022-10-28 10:20:20.937500
3127,70.15,2022-10-28 10:20:20.953125
3128,65.45,2022-10-28 10:20:20.968750
3129,61.96,2022-10-28 10:20:20.984375
3130,60.66,2022-10-28 10:20:21.000000
3131,61.83,2022-10-28 10:20:21.015625
3132,64.85,2022-10-28 10:20:21.031250
3133,68.25,2022-10-28 10:20:21.046875
3134,70.24,2022-10-28 10:20:21.062500
3135,69.4,2022-10-28 10:20:21.078125
3136,65.25,2022-10-28 10:20:21.093750
3137,58.39,2022-10-28 10:20:21.109375
3138,50.19,2022-10-28 10:20:21.125000
