,BVP,time
0,-31.64,2022-10-26 10:57:48.812500
1,-37.31,2022-10-26 10:57:48.828125
2,-41.45,2022-10-26 10:57:48.843750
3,-42.89,2022-10-26 10:57:48.859375
4,-40.85,2022-10-26 10:57:48.875000
5,-35.32,2022-10-26 10:57:48.890625
6,-27.31,2022-10-26 10:57:48.906250
7,-18.38,2022-10-26 10:57:48.921875
8,-10.17,2022-10-26 10:57:48.937500
9,-3.86,2022-10-26 10:57:48.953125
10,0.18,2022-10-26 10:57:48.968750
11,2.24,2022-10-26 10:57:48.984375
12,2.96,2022-10-26 10:57:49.000000
13,2.9,2022-10-26 10:57:49.015625
14,2.33,2022-10-26 10:57:49.031250
15,1.25,2022-10-26 10:57:49.046875
16,-0.4,2022-10-26 10:57:49.062500
17,-2.48,2022-10-26 10:57:49.078125
18,-4.6,2022-10-26 10:57:49.093750
19,-6.13,2022-10-26 10:57:49.109375
20,-6.49,2022-10-26 10:57:49.125000
21,-5.35,2022-10-26 10:57:49.140625
22,-2.8,2022-10-26 10:57:49.156250
23,0.73,2022-10-26 10:57:49.171875
24,4.53,2022-10-26 10:57:49.187500
25,7.93,2022-10-26 10:57:49.203125
26,10.49,2022-10-26 10:57:49.218750
27,12.01,2022-10-26 10:57:49.234375
28,12.63,2022-10-26 10:57:49.250000
29,12.53,2022-10-26 10:57:49.265625
30,11.97,2022-10-26 10:57:49.281250
31,11.08,2022-10-26 10:57:49.296875
32,9.92,2022-10-26 10:57:49.312500
33,8.5,2022-10-26 10:57:49.328125
34,6.78,2022-10-26 10:57:49.343750
35,4.71,2022-10-26 10:57:49.359375
36,2.13,2022-10-26 10:57:49.375000
37,-1.15,2022-10-26 10:57:49.390625
38,-5.3,2022-10-26 10:57:49.406250
39,-10.21,2022-10-26 10:57:49.421875
40,-15.28,2022-10-26 10:57:49.437500
41,-19.33,2022-10-26 10:57:49.453125
42,-20.83,2022-10-26 10:57:49.468750
43,-18.5,2022-10-26 10:57:49.484375
44,-11.85,2022-10-26 10:57:49.500000
45,-1.62,2022-10-26 10:57:49.515625
46,10.4,2022-10-26 10:57:49.531250
47,21.91,2022-10-26 10:57:49.546875
48,30.88,2022-10-26 10:57:49.562500
49,36.29,2022-10-26 10:57:49.578125
50,38.25,2022-10-26 10:57:49.593750
51,37.78,2022-10-26 10:57:49.609375
52,36.26,2022-10-26 10:57:49.625000
53,34.8,2022-10-26 10:57:49.640625
54,33.92,2022-10-26 10:57:49.656250
55,33.63,2022-10-26 10:57:49.671875
56,33.58,2022-10-26 10:57:49.687500
57,33.35,2022-10-26 10:57:49.703125
58,32.7,2022-10-26 10:57:49.718750
59,31.55,2022-10-26 10:57:49.734375
60,30.0,2022-10-26 10:57:49.750000
61,28.29,2022-10-26 10:57:49.765625
62,26.7,2022-10-26 10:57:49.781250
63,25.43,2022-10-26 10:57:49.796875
64,24.53,2022-10-26 10:57:49.812500
65,23.86,2022-10-26 10:57:49.828125
66,23.15,2022-10-26 10:57:49.843750
67,22.18,2022-10-26 10:57:49.859375
68,21.02,2022-10-26 10:57:49.875000
69,20.06,2022-10-26 10:57:49.890625
70,19.93,2022-10-26 10:57:49.906250
71,21.02,2022-10-26 10:57:49.921875
72,22.98,2022-10-26 10:57:49.937500
73,24.58,2022-10-26 10:57:49.953125
74,23.98,2022-10-26 10:57:49.968750
75,19.44,2022-10-26 10:57:49.984375
76,10.2,2022-10-26 10:57:50.000000
77,-3.12,2022-10-26 10:57:50.015625
78,-18.5,2022-10-26 10:57:50.031250
79,-33.18,2022-10-26 10:57:50.046875
80,-44.49,2022-10-26 10:57:50.062500
81,-50.56,2022-10-26 10:57:50.078125
82,-50.6,2022-10-26 10:57:50.093750
83,-44.76,2022-10-26 10:57:50.109375
84,-33.86,2022-10-26 10:57:50.125000
85,-19.05,2022-10-26 10:57:50.140625
86,-1.71,2022-10-26 10:57:50.156250
87,16.58,2022-10-26 10:57:50.171875
88,34.33,2022-10-26 10:57:50.187500
89,50.34,2022-10-26 10:57:50.203125
90,64.16,2022-10-26 10:57:50.218750
91,76.01,2022-10-26 10:57:50.234375
92,86.27,2022-10-26 10:57:50.250000
93,94.66,2022-10-26 10:57:50.265625
94,99.53,2022-10-26 10:57:50.281250
95,97.95,2022-10-26 10:57:50.296875
96,86.83,2022-10-26 10:57:50.312500
97,64.7,2022-10-26 10:57:50.328125
98,33.38,2022-10-26 10:57:50.343750
99,-1.61,2022-10-26 10:57:50.359375
100,-32.31,2022-10-26 10:57:50.375000
101,-51.0,2022-10-26 10:57:50.390625
102,-53.18,2022-10-26 10:57:50.406250
103,-39.31,2022-10-26 10:57:50.421875
104,-14.51,2022-10-26 10:57:50.437500
105,13.89,2022-10-26 10:57:50.453125
106,39.37,2022-10-26 10:57:50.468750
107,58.5,2022-10-26 10:57:50.484375
108,71.44,2022-10-26 10:57:50.500000
109,80.41,2022-10-26 10:57:50.515625
110,87.58,2022-10-26 10:57:50.531250
111,93.44,2022-10-26 10:57:50.546875
112,96.34,2022-10-26 10:57:50.562500
113,93.31,2022-10-26 10:57:50.578125
114,81.63,2022-10-26 10:57:50.593750
115,60.15,2022-10-26 10:57:50.609375
116,29.89,2022-10-26 10:57:50.625000
117,-6.01,2022-10-26 10:57:50.640625
118,-42.94,2022-10-26 10:57:50.656250
119,-75.92,2022-10-26 10:57:50.671875
120,-100.41,2022-10-26 10:57:50.687500
121,-113.14,2022-10-26 10:57:50.703125
122,-112.47,2022-10-26 10:57:50.718750
123,-98.44,2022-10-26 10:57:50.734375
124,-72.93,2022-10-26 10:57:50.750000
125,-39.6,2022-10-26 10:57:50.765625
126,-3.67,2022-10-26 10:57:50.781250
127,28.64,2022-10-26 10:57:50.796875
128,51.49,2022-10-26 10:57:50.812500
129,61.26,2022-10-26 10:57:50.828125
130,57.94,2022-10-26 10:57:50.843750
131,45.5,2022-10-26 10:57:50.859375
132,30.41,2022-10-26 10:57:50.875000
133,19.02,2022-10-26 10:57:50.890625
134,14.94,2022-10-26 10:57:50.906250
135,17.69,2022-10-26 10:57:50.921875
136,23.38,2022-10-26 10:57:50.937500
137,26.75,2022-10-26 10:57:50.953125
138,23.69,2022-10-26 10:57:50.968750
139,12.86,2022-10-26 10:57:50.984375
140,-3.99,2022-10-26 10:57:51.000000
141,-23.17,2022-10-26 10:57:51.015625
142,-40.62,2022-10-26 10:57:51.031250
143,-53.28,2022-10-26 10:57:51.046875
144,-59.74,2022-10-26 10:57:51.062500
145,-60.21,2022-10-26 10:57:51.078125
146,-55.91,2022-10-26 10:57:51.093750
147,-48.41,2022-10-26 10:57:51.109375
148,-39.15,2022-10-26 10:57:51.125000
149,-29.34,2022-10-26 10:57:51.140625
150,-19.92,2022-10-26 10:57:51.156250
151,-11.76,2022-10-26 10:57:51.171875
152,-5.49,2022-10-26 10:57:51.187500
153,-1.48,2022-10-26 10:57:51.203125
154,0.38,2022-10-26 10:57:51.218750
155,0.54,2022-10-26 10:57:51.234375
156,-0.3,2022-10-26 10:57:51.250000
157,-1.68,2022-10-26 10:57:51.265625
158,-3.49,2022-10-26 10:57:51.281250
159,-6.05,2022-10-26 10:57:51.296875
160,-9.78,2022-10-26 10:57:51.312500
161,-14.69,2022-10-26 10:57:51.328125
162,-20.15,2022-10-26 10:57:51.343750
163,-24.84,2022-10-26 10:57:51.359375
164,-27.23,2022-10-26 10:57:51.375000
165,-26.14,2022-10-26 10:57:51.390625
166,-21.37,2022-10-26 10:57:51.406250
167,-13.75,2022-10-26 10:57:51.421875
168,-4.85,2022-10-26 10:57:51.437500
169,3.66,2022-10-26 10:57:51.453125
170,10.67,2022-10-26 10:57:51.468750
171,15.92,2022-10-26 10:57:51.484375
172,19.82,2022-10-26 10:57:51.500000
173,23.0,2022-10-26 10:57:51.515625
174,25.85,2022-10-26 10:57:51.531250
175,28.25,2022-10-26 10:57:51.546875
176,29.71,2022-10-26 10:57:51.562500
177,29.73,2022-10-26 10:57:51.578125
178,28.1,2022-10-26 10:57:51.593750
179,25.06,2022-10-26 10:57:51.609375
180,21.22,2022-10-26 10:57:51.625000
181,17.23,2022-10-26 10:57:51.640625
182,13.65,2022-10-26 10:57:51.656250
183,10.68,2022-10-26 10:57:51.671875
184,8.35,2022-10-26 10:57:51.687500
185,6.48,2022-10-26 10:57:51.703125
186,4.98,2022-10-26 10:57:51.718750
187,3.75,2022-10-26 10:57:51.734375
188,2.74,2022-10-26 10:57:51.750000
189,1.92,2022-10-26 10:57:51.765625
190,1.27,2022-10-26 10:57:51.781250
191,0.83,2022-10-26 10:57:51.796875
192,0.68,2022-10-26 10:57:51.812500
193,0.86,2022-10-26 10:57:51.828125
194,1.34,2022-10-26 10:57:51.843750
195,1.9,2022-10-26 10:57:51.859375
196,2.16,2022-10-26 10:57:51.875000
197,1.74,2022-10-26 10:57:51.890625
198,0.29,2022-10-26 10:57:51.906250
199,-2.33,2022-10-26 10:57:51.921875
200,-5.95,2022-10-26 10:57:51.937500
201,-10.07,2022-10-26 10:57:51.953125
202,-13.83,2022-10-26 10:57:51.968750
203,-16.19,2022-10-26 10:57:51.984375
204,-16.05,2022-10-26 10:57:52.000000
205,-12.74,2022-10-26 10:57:52.015625
206,-6.21,2022-10-26 10:57:52.031250
207,2.79,2022-10-26 10:57:52.046875
208,12.91,2022-10-26 10:57:52.062500
209,22.61,2022-10-26 10:57:52.078125
210,30.68,2022-10-26 10:57:52.093750
211,36.54,2022-10-26 10:57:52.109375
212,40.21,2022-10-26 10:57:52.125000
213,42.01,2022-10-26 10:57:52.140625
214,42.26,2022-10-26 10:57:52.156250
215,41.08,2022-10-26 10:57:52.171875
216,38.48,2022-10-26 10:57:52.187500
217,34.68,2022-10-26 10:57:52.203125
218,30.26,2022-10-26 10:57:52.218750
219,26.15,2022-10-26 10:57:52.234375
220,23.28,2022-10-26 10:57:52.250000
221,22.19,2022-10-26 10:57:52.265625
222,22.69,2022-10-26 10:57:52.281250
223,23.89,2022-10-26 10:57:52.296875
224,24.68,2022-10-26 10:57:52.312500
225,24.08,2022-10-26 10:57:52.328125
226,21.75,2022-10-26 10:57:52.343750
227,17.98,2022-10-26 10:57:52.359375
228,13.44,2022-10-26 10:57:52.375000
229,8.72,2022-10-26 10:57:52.390625
230,4.1,2022-10-26 10:57:52.406250
231,-0.6,2022-10-26 10:57:52.421875
232,-5.71,2022-10-26 10:57:52.437500
233,-11.42,2022-10-26 10:57:52.453125
234,-17.56,2022-10-26 10:57:52.468750
235,-23.7,2022-10-26 10:57:52.484375
236,-29.31,2022-10-26 10:57:52.500000
237,-34.08,2022-10-26 10:57:52.515625
238,-37.94,2022-10-26 10:57:52.531250
239,-40.83,2022-10-26 10:57:52.546875
240,-42.41,2022-10-26 10:57:52.562500
241,-41.99,2022-10-26 10:57:52.578125
242,-38.64,2022-10-26 10:57:52.593750
243,-31.71,2022-10-26 10:57:52.609375
244,-21.22,2022-10-26 10:57:52.625000
245,-8.18,2022-10-26 10:57:52.640625
246,5.73,2022-10-26 10:57:52.656250
247,18.6,2022-10-26 10:57:52.671875
248,28.92,2022-10-26 10:57:52.687500
249,36.08,2022-10-26 10:57:52.703125
250,40.29,2022-10-26 10:57:52.718750
251,42.34,2022-10-26 10:57:52.734375
252,43.0,2022-10-26 10:57:52.750000
253,42.65,2022-10-26 10:57:52.765625
254,41.25,2022-10-26 10:57:52.781250
255,38.46,2022-10-26 10:57:52.796875
256,34.08,2022-10-26 10:57:52.812500
257,28.4,2022-10-26 10:57:52.828125
258,22.18,2022-10-26 10:57:52.843750
259,16.47,2022-10-26 10:57:52.859375
260,12.15,2022-10-26 10:57:52.875000
261,9.58,2022-10-26 10:57:52.890625
262,8.49,2022-10-26 10:57:52.906250
263,8.13,2022-10-26 10:57:52.921875
264,7.66,2022-10-26 10:57:52.937500
265,6.4,2022-10-26 10:57:52.953125
266,4.14,2022-10-26 10:57:52.968750
267,1.09,2022-10-26 10:57:52.984375
268,-2.32,2022-10-26 10:57:53.000000
269,-5.65,2022-10-26 10:57:53.015625
270,-8.61,2022-10-26 10:57:53.031250
271,-11.13,2022-10-26 10:57:53.046875
272,-13.34,2022-10-26 10:57:53.062500
273,-15.47,2022-10-26 10:57:53.078125
274,-17.77,2022-10-26 10:57:53.093750
275,-20.41,2022-10-26 10:57:53.109375
276,-23.54,2022-10-26 10:57:53.125000
277,-27.09,2022-10-26 10:57:53.140625
278,-30.8,2022-10-26 10:57:53.156250
279,-34.09,2022-10-26 10:57:53.171875
280,-36.21,2022-10-26 10:57:53.187500
281,-36.37,2022-10-26 10:57:53.203125
282,-34.1,2022-10-26 10:57:53.218750
283,-29.43,2022-10-26 10:57:53.234375
284,-23.05,2022-10-26 10:57:53.250000
285,-16.08,2022-10-26 10:57:53.265625
286,-9.61,2022-10-26 10:57:53.281250
287,-4.36,2022-10-26 10:57:53.296875
288,-0.48,2022-10-26 10:57:53.312500
289,2.3,2022-10-26 10:57:53.328125
290,4.33,2022-10-26 10:57:53.343750
291,5.71,2022-10-26 10:57:53.359375
292,6.23,2022-10-26 10:57:53.375000
293,5.43,2022-10-26 10:57:53.390625
294,2.99,2022-10-26 10:57:53.406250
295,-1.01,2022-10-26 10:57:53.421875
296,-5.98,2022-10-26 10:57:53.437500
297,-10.93,2022-10-26 10:57:53.453125
298,-14.79,2022-10-26 10:57:53.468750
299,-16.73,2022-10-26 10:57:53.484375
300,-16.47,2022-10-26 10:57:53.500000
301,-14.36,2022-10-26 10:57:53.515625
302,-11.25,2022-10-26 10:57:53.531250
303,-8.22,2022-10-26 10:57:53.546875
304,-6.16,2022-10-26 10:57:53.562500
305,-5.59,2022-10-26 10:57:53.578125
306,-6.47,2022-10-26 10:57:53.593750
307,-8.47,2022-10-26 10:57:53.609375
308,-11.14,2022-10-26 10:57:53.625000
309,-14.25,2022-10-26 10:57:53.640625
310,-17.75,2022-10-26 10:57:53.656250
311,-21.64,2022-10-26 10:57:53.671875
312,-25.79,2022-10-26 10:57:53.687500
313,-29.82,2022-10-26 10:57:53.703125
314,-33.24,2022-10-26 10:57:53.718750
315,-35.76,2022-10-26 10:57:53.734375
316,-37.44,2022-10-26 10:57:53.750000
317,-38.69,2022-10-26 10:57:53.765625
318,-39.86,2022-10-26 10:57:53.781250
319,-40.83,2022-10-26 10:57:53.796875
320,-40.76,2022-10-26 10:57:53.812500
321,-38.37,2022-10-26 10:57:53.828125
322,-32.51,2022-10-26 10:57:53.843750
323,-22.8,2022-10-26 10:57:53.859375
324,-10.1,2022-10-26 10:57:53.875000
325,3.73,2022-10-26 10:57:53.890625
326,16.41,2022-10-26 10:57:53.906250
327,26.0,2022-10-26 10:57:53.921875
328,31.55,2022-10-26 10:57:53.937500
329,33.23,2022-10-26 10:57:53.953125
330,31.97,2022-10-26 10:57:53.968750
331,29.03,2022-10-26 10:57:53.984375
332,25.43,2022-10-26 10:57:54.000000
333,21.79,2022-10-26 10:57:54.015625
334,18.27,2022-10-26 10:57:54.031250
335,14.82,2022-10-26 10:57:54.046875
336,11.37,2022-10-26 10:57:54.062500
337,8.0,2022-10-26 10:57:54.078125
338,4.91,2022-10-26 10:57:54.093750
339,2.35,2022-10-26 10:57:54.109375
340,0.48,2022-10-26 10:57:54.125000
341,-0.69,2022-10-26 10:57:54.140625
342,-1.28,2022-10-26 10:57:54.156250
343,-1.41,2022-10-26 10:57:54.171875
344,-1.16,2022-10-26 10:57:54.187500
345,-0.56,2022-10-26 10:57:54.203125
346,0.24,2022-10-26 10:57:54.218750
347,1.01,2022-10-26 10:57:54.234375
348,1.37,2022-10-26 10:57:54.250000
349,0.93,2022-10-26 10:57:54.265625
350,-0.5,2022-10-26 10:57:54.281250
351,-2.81,2022-10-26 10:57:54.296875
352,-5.52,2022-10-26 10:57:54.312500
353,-8.03,2022-10-26 10:57:54.328125
354,-9.87,2022-10-26 10:57:54.343750
355,-10.95,2022-10-26 10:57:54.359375
356,-11.63,2022-10-26 10:57:54.375000
357,-12.61,2022-10-26 10:57:54.390625
358,-14.69,2022-10-26 10:57:54.406250
359,-18.36,2022-10-26 10:57:54.421875
360,-23.59,2022-10-26 10:57:54.437500
361,-29.62,2022-10-26 10:57:54.453125
362,-35.09,2022-10-26 10:57:54.468750
363,-38.39,2022-10-26 10:57:54.484375
364,-38.08,2022-10-26 10:57:54.500000
365,-33.51,2022-10-26 10:57:54.515625
366,-24.99,2022-10-26 10:57:54.531250
367,-13.77,2022-10-26 10:57:54.546875
368,-1.59,2022-10-26 10:57:54.562500
369,9.95,2022-10-26 10:57:54.578125
370,20.01,2022-10-26 10:57:54.593750
371,28.62,2022-10-26 10:57:54.609375
372,36.53,2022-10-26 10:57:54.625000
373,44.56,2022-10-26 10:57:54.640625
374,53.15,2022-10-26 10:57:54.656250
375,61.96,2022-10-26 10:57:54.671875
376,70.03,2022-10-26 10:57:54.687500
377,76.23,2022-10-26 10:57:54.703125
378,79.74,2022-10-26 10:57:54.718750
379,80.47,2022-10-26 10:57:54.734375
380,78.98,2022-10-26 10:57:54.750000
381,76.25,2022-10-26 10:57:54.765625
382,73.19,2022-10-26 10:57:54.781250
383,70.27,2022-10-26 10:57:54.796875
384,67.43,2022-10-26 10:57:54.812500
385,64.31,2022-10-26 10:57:54.828125
386,60.51,2022-10-26 10:57:54.843750
387,55.9,2022-10-26 10:57:54.859375
388,50.65,2022-10-26 10:57:54.875000
389,45.13,2022-10-26 10:57:54.890625
390,39.65,2022-10-26 10:57:54.906250
391,34.24,2022-10-26 10:57:54.921875
392,28.71,2022-10-26 10:57:54.937500
393,22.71,2022-10-26 10:57:54.953125
394,15.99,2022-10-26 10:57:54.968750
395,8.57,2022-10-26 10:57:54.984375
396,0.78,2022-10-26 10:57:55.000000
397,-6.97,2022-10-26 10:57:55.015625
398,-14.31,2022-10-26 10:57:55.031250
399,-21.24,2022-10-26 10:57:55.046875
400,-28.16,2022-10-26 10:57:55.062500
401,-35.78,2022-10-26 10:57:55.078125
402,-44.93,2022-10-26 10:57:55.093750
403,-56.34,2022-10-26 10:57:55.109375
404,-70.41,2022-10-26 10:57:55.125000
405,-87.04,2022-10-26 10:57:55.140625
406,-105.43,2022-10-26 10:57:55.156250
407,-123.94,2022-10-26 10:57:55.171875
408,-140.12,2022-10-26 10:57:55.187500
409,-151.05,2022-10-26 10:57:55.203125
410,-154.09,2022-10-26 10:57:55.218750
411,-147.79,2022-10-26 10:57:55.234375
412,-132.61,2022-10-26 10:57:55.250000
413,-110.89,2022-10-26 10:57:55.265625
414,-86.18,2022-10-26 10:57:55.281250
415,-61.97,2022-10-26 10:57:55.296875
416,-40.7,2022-10-26 10:57:55.312500
417,-23.28,2022-10-26 10:57:55.328125
418,-9.46,2022-10-26 10:57:55.343750
419,1.29,2022-10-26 10:57:55.359375
420,9.22,2022-10-26 10:57:55.375000
421,14.15,2022-10-26 10:57:55.390625
422,16.05,2022-10-26 10:57:55.406250
423,15.63,2022-10-26 10:57:55.421875
424,14.57,2022-10-26 10:57:55.437500
425,14.97,2022-10-26 10:57:55.453125
426,18.44,2022-10-26 10:57:55.468750
427,25.22,2022-10-26 10:57:55.484375
428,34.15,2022-10-26 10:57:55.500000
429,43.09,2022-10-26 10:57:55.515625
430,49.91,2022-10-26 10:57:55.531250
431,53.17,2022-10-26 10:57:55.546875
432,52.48,2022-10-26 10:57:55.562500
433,48.16,2022-10-26 10:57:55.578125
434,40.97,2022-10-26 10:57:55.593750
435,31.74,2022-10-26 10:57:55.609375
436,21.3,2022-10-26 10:57:55.625000
437,10.62,2022-10-26 10:57:55.640625
438,0.75,2022-10-26 10:57:55.656250
439,-7.37,2022-10-26 10:57:55.671875
440,-13.11,2022-10-26 10:57:55.687500
441,-16.44,2022-10-26 10:57:55.703125
442,-17.78,2022-10-26 10:57:55.718750
443,-17.7,2022-10-26 10:57:55.734375
444,-16.65,2022-10-26 10:57:55.750000
445,-14.85,2022-10-26 10:57:55.765625
446,-12.32,2022-10-26 10:57:55.781250
447,-9.23,2022-10-26 10:57:55.796875
448,-6.04,2022-10-26 10:57:55.812500
449,-3.46,2022-10-26 10:57:55.828125
450,-2.14,2022-10-26 10:57:55.843750
451,-2.16,2022-10-26 10:57:55.859375
452,-2.8,2022-10-26 10:57:55.875000
453,-2.6,2022-10-26 10:57:55.890625
454,0.07,2022-10-26 10:57:55.906250
455,6.32,2022-10-26 10:57:55.921875
456,16.29,2022-10-26 10:57:55.937500
457,29.25,2022-10-26 10:57:55.953125
458,44.25,2022-10-26 10:57:55.968750
459,60.72,2022-10-26 10:57:55.984375
460,78.82,2022-10-26 10:57:56.000000
461,99.08,2022-10-26 10:57:56.015625
462,121.67,2022-10-26 10:57:56.031250
463,145.66,2022-10-26 10:57:56.046875
464,168.97,2022-10-26 10:57:56.062500
465,188.82,2022-10-26 10:57:56.078125
466,202.66,2022-10-26 10:57:56.093750
467,208.92,2022-10-26 10:57:56.109375
468,207.2,2022-10-26 10:57:56.125000
469,198.06,2022-10-26 10:57:56.140625
470,182.53,2022-10-26 10:57:56.156250
471,161.95,2022-10-26 10:57:56.171875
472,138.02,2022-10-26 10:57:56.187500
473,112.97,2022-10-26 10:57:56.203125
474,89.53,2022-10-26 10:57:56.218750
475,70.31,2022-10-26 10:57:56.234375
476,56.86,2022-10-26 10:57:56.250000
477,48.97,2022-10-26 10:57:56.265625
478,44.52,2022-10-26 10:57:56.281250
479,40.23,2022-10-26 10:57:56.296875
480,32.83,2022-10-26 10:57:56.312500
481,20.27,2022-10-26 10:57:56.328125
482,2.18,2022-10-26 10:57:56.343750
483,-20.25,2022-10-26 10:57:56.359375
484,-44.96,2022-10-26 10:57:56.375000
485,-69.65,2022-10-26 10:57:56.390625
486,-92.28,2022-10-26 10:57:56.406250
487,-111.14,2022-10-26 10:57:56.421875
488,-124.94,2022-10-26 10:57:56.437500
489,-132.96,2022-10-26 10:57:56.453125
490,-135.23,2022-10-26 10:57:56.468750
491,-132.78,2022-10-26 10:57:56.484375
492,-127.53,2022-10-26 10:57:56.500000
493,-121.7,2022-10-26 10:57:56.515625
494,-117.09,2022-10-26 10:57:56.531250
495,-114.34,2022-10-26 10:57:56.546875
496,-112.66,2022-10-26 10:57:56.562500
497,-110.01,2022-10-26 10:57:56.578125
498,-104.05,2022-10-26 10:57:56.593750
499,-92.95,2022-10-26 10:57:56.609375
500,-76.45,2022-10-26 10:57:56.625000
501,-56.07,2022-10-26 10:57:56.640625
502,-34.91,2022-10-26 10:57:56.656250
503,-16.75,2022-10-26 10:57:56.671875
504,-4.94,2022-10-26 10:57:56.687500
505,-1.39,2022-10-26 10:57:56.703125
506,-6.13,2022-10-26 10:57:56.718750
507,-17.51,2022-10-26 10:57:56.734375
508,-32.92,2022-10-26 10:57:56.750000
509,-49.57,2022-10-26 10:57:56.765625
510,-65.21,2022-10-26 10:57:56.781250
511,-78.4,2022-10-26 10:57:56.796875
512,-88.51,2022-10-26 10:57:56.812500
513,-95.46,2022-10-26 10:57:56.828125
514,-99.48,2022-10-26 10:57:56.843750
515,-100.82,2022-10-26 10:57:56.859375
516,-99.74,2022-10-26 10:57:56.875000
517,-96.43,2022-10-26 10:57:56.890625
518,-91.21,2022-10-26 10:57:56.906250
519,-84.51,2022-10-26 10:57:56.921875
520,-76.95,2022-10-26 10:57:56.937500
521,-69.21,2022-10-26 10:57:56.953125
522,-61.98,2022-10-26 10:57:56.968750
523,-55.82,2022-10-26 10:57:56.984375
524,-51.13,2022-10-26 10:57:57.000000
525,-48.13,2022-10-26 10:57:57.015625
526,-46.71,2022-10-26 10:57:57.031250
527,-46.5,2022-10-26 10:57:57.046875
528,-46.83,2022-10-26 10:57:57.062500
529,-46.92,2022-10-26 10:57:57.078125
530,-46.13,2022-10-26 10:57:57.093750
531,-44.29,2022-10-26 10:57:57.109375
532,-41.84,2022-10-26 10:57:57.125000
533,-39.75,2022-10-26 10:57:57.140625
534,-39.1,2022-10-26 10:57:57.156250
535,-40.6,2022-10-26 10:57:57.171875
536,-44.17,2022-10-26 10:57:57.187500
537,-48.86,2022-10-26 10:57:57.203125
538,-53.07,2022-10-26 10:57:57.218750
539,-55.02,2022-10-26 10:57:57.234375
540,-53.28,2022-10-26 10:57:57.250000
541,-47.21,2022-10-26 10:57:57.265625
542,-37.15,2022-10-26 10:57:57.281250
543,-24.24,2022-10-26 10:57:57.296875
544,-10.21,2022-10-26 10:57:57.312500
545,3.17,2022-10-26 10:57:57.328125
546,14.46,2022-10-26 10:57:57.343750
547,22.91,2022-10-26 10:57:57.359375
548,28.45,2022-10-26 10:57:57.375000
549,31.53,2022-10-26 10:57:57.390625
550,32.72,2022-10-26 10:57:57.406250
551,32.41,2022-10-26 10:57:57.421875
552,30.66,2022-10-26 10:57:57.437500
553,27.36,2022-10-26 10:57:57.453125
554,22.51,2022-10-26 10:57:57.468750
555,16.34,2022-10-26 10:57:57.484375
556,9.41,2022-10-26 10:57:57.500000
557,2.28,2022-10-26 10:57:57.515625
558,-4.6,2022-10-26 10:57:57.531250
559,-10.98,2022-10-26 10:57:57.546875
560,-16.73,2022-10-26 10:57:57.562500
561,-21.61,2022-10-26 10:57:57.578125
562,-25.2,2022-10-26 10:57:57.593750
563,-27.1,2022-10-26 10:57:57.609375
564,-27.19,2022-10-26 10:57:57.625000
565,-25.88,2022-10-26 10:57:57.640625
566,-24.09,2022-10-26 10:57:57.656250
567,-22.86,2022-10-26 10:57:57.671875
568,-22.94,2022-10-26 10:57:57.687500
569,-24.37,2022-10-26 10:57:57.703125
570,-26.39,2022-10-26 10:57:57.718750
571,-27.78,2022-10-26 10:57:57.734375
572,-27.16,2022-10-26 10:57:57.750000
573,-23.6,2022-10-26 10:57:57.765625
574,-16.9,2022-10-26 10:57:57.781250
575,-7.83,2022-10-26 10:57:57.796875
576,2.02,2022-10-26 10:57:57.812500
577,10.56,2022-10-26 10:57:57.828125
578,15.78,2022-10-26 10:57:57.843750
579,16.45,2022-10-26 10:57:57.859375
580,12.53,2022-10-26 10:57:57.875000
581,5.42,2022-10-26 10:57:57.890625
582,-2.45,2022-10-26 10:57:57.906250
583,-8.23,2022-10-26 10:57:57.921875
584,-9.66,2022-10-26 10:57:57.937500
585,-5.65,2022-10-26 10:57:57.953125
586,3.42,2022-10-26 10:57:57.968750
587,15.94,2022-10-26 10:57:57.984375
588,29.76,2022-10-26 10:57:58.000000
589,42.84,2022-10-26 10:57:58.015625
590,53.8,2022-10-26 10:57:58.031250
591,62.02,2022-10-26 10:57:58.046875
592,67.49,2022-10-26 10:57:58.062500
593,70.53,2022-10-26 10:57:58.078125
594,71.5,2022-10-26 10:57:58.093750
595,70.77,2022-10-26 10:57:58.109375
596,68.63,2022-10-26 10:57:58.125000
597,65.42,2022-10-26 10:57:58.140625
598,61.45,2022-10-26 10:57:58.156250
599,57.02,2022-10-26 10:57:58.171875
600,52.4,2022-10-26 10:57:58.187500
601,47.82,2022-10-26 10:57:58.203125
602,43.58,2022-10-26 10:57:58.218750
603,39.84,2022-10-26 10:57:58.234375
604,36.66,2022-10-26 10:57:58.250000
605,33.82,2022-10-26 10:57:58.265625
606,30.97,2022-10-26 10:57:58.281250
607,27.74,2022-10-26 10:57:58.296875
608,23.95,2022-10-26 10:57:58.312500
609,19.68,2022-10-26 10:57:58.328125
610,15.11,2022-10-26 10:57:58.343750
611,10.49,2022-10-26 10:57:58.359375
612,5.87,2022-10-26 10:57:58.375000
613,1.28,2022-10-26 10:57:58.390625
614,-3.32,2022-10-26 10:57:58.406250
615,-7.86,2022-10-26 10:57:58.421875
616,-12.21,2022-10-26 10:57:58.437500
617,-16.36,2022-10-26 10:57:58.453125
618,-20.41,2022-10-26 10:57:58.468750
619,-24.75,2022-10-26 10:57:58.484375
620,-29.79,2022-10-26 10:57:58.500000
621,-35.95,2022-10-26 10:57:58.515625
622,-43.39,2022-10-26 10:57:58.531250
623,-51.94,2022-10-26 10:57:58.546875
624,-61.05,2022-10-26 10:57:58.562500
625,-69.81,2022-10-26 10:57:58.578125
626,-77.07,2022-10-26 10:57:58.593750
627,-81.63,2022-10-26 10:57:58.609375
628,-82.61,2022-10-26 10:57:58.625000
629,-79.72,2022-10-26 10:57:58.640625
630,-73.46,2022-10-26 10:57:58.656250
631,-64.94,2022-10-26 10:57:58.671875
632,-55.54,2022-10-26 10:57:58.687500
633,-46.35,2022-10-26 10:57:58.703125
634,-37.99,2022-10-26 10:57:58.718750
635,-30.47,2022-10-26 10:57:58.734375
636,-23.39,2022-10-26 10:57:58.750000
637,-16.35,2022-10-26 10:57:58.765625
638,-9.21,2022-10-26 10:57:58.781250
639,-2.28,2022-10-26 10:57:58.796875
640,3.88,2022-10-26 10:57:58.812500
641,8.62,2022-10-26 10:57:58.828125
642,11.59,2022-10-26 10:57:58.843750
643,12.77,2022-10-26 10:57:58.859375
644,12.51,2022-10-26 10:57:58.875000
645,11.39,2022-10-26 10:57:58.890625
646,9.9,2022-10-26 10:57:58.906250
647,8.36,2022-10-26 10:57:58.921875
648,6.8,2022-10-26 10:57:58.937500
649,5.14,2022-10-26 10:57:58.953125
650,3.29,2022-10-26 10:57:58.968750
651,1.29,2022-10-26 10:57:58.984375
652,-0.63,2022-10-26 10:57:59.000000
653,-2.15,2022-10-26 10:57:59.015625
654,-3.08,2022-10-26 10:57:59.031250
655,-3.41,2022-10-26 10:57:59.046875
656,-3.36,2022-10-26 10:57:59.062500
657,-3.36,2022-10-26 10:57:59.078125
658,-3.77,2022-10-26 10:57:59.093750
659,-4.79,2022-10-26 10:57:59.109375
660,-6.3,2022-10-26 10:57:59.125000
661,-7.96,2022-10-26 10:57:59.140625
662,-9.38,2022-10-26 10:57:59.156250
663,-10.39,2022-10-26 10:57:59.171875
664,-11.24,2022-10-26 10:57:59.187500
665,-12.53,2022-10-26 10:57:59.203125
666,-14.87,2022-10-26 10:57:59.218750
667,-18.56,2022-10-26 10:57:59.234375
668,-23.24,2022-10-26 10:57:59.250000
669,-28.0,2022-10-26 10:57:59.265625
670,-31.44,2022-10-26 10:57:59.281250
671,-32.29,2022-10-26 10:57:59.296875
672,-29.79,2022-10-26 10:57:59.312500
673,-23.8,2022-10-26 10:57:59.328125
674,-14.94,2022-10-26 10:57:59.343750
675,-4.3,2022-10-26 10:57:59.359375
676,6.86,2022-10-26 10:57:59.375000
677,17.38,2022-10-26 10:57:59.390625
678,26.42,2022-10-26 10:57:59.406250
679,33.57,2022-10-26 10:57:59.421875
680,38.86,2022-10-26 10:57:59.437500
681,42.56,2022-10-26 10:57:59.453125
682,45.07,2022-10-26 10:57:59.468750
683,46.73,2022-10-26 10:57:59.484375
684,47.75,2022-10-26 10:57:59.500000
685,48.37,2022-10-26 10:57:59.515625
686,48.84,2022-10-26 10:57:59.531250
687,49.5,2022-10-26 10:57:59.546875
688,50.74,2022-10-26 10:57:59.562500
689,52.81,2022-10-26 10:57:59.578125
690,55.7,2022-10-26 10:57:59.593750
691,59.14,2022-10-26 10:57:59.609375
692,62.58,2022-10-26 10:57:59.625000
693,65.45,2022-10-26 10:57:59.640625
694,67.34,2022-10-26 10:57:59.656250
695,68.07,2022-10-26 10:57:59.671875
696,67.66,2022-10-26 10:57:59.687500
697,66.24,2022-10-26 10:57:59.703125
698,63.79,2022-10-26 10:57:59.718750
699,60.18,2022-10-26 10:57:59.734375
700,55.23,2022-10-26 10:57:59.750000
701,48.84,2022-10-26 10:57:59.765625
702,41.22,2022-10-26 10:57:59.781250
703,32.84,2022-10-26 10:57:59.796875
704,24.36,2022-10-26 10:57:59.812500
705,16.32,2022-10-26 10:57:59.828125
706,9.02,2022-10-26 10:57:59.843750
707,2.45,2022-10-26 10:57:59.859375
708,-3.55,2022-10-26 10:57:59.875000
709,-9.12,2022-10-26 10:57:59.890625
710,-14.26,2022-10-26 10:57:59.906250
711,-18.86,2022-10-26 10:57:59.921875
712,-22.67,2022-10-26 10:57:59.937500
713,-25.39,2022-10-26 10:57:59.953125
714,-26.64,2022-10-26 10:57:59.968750
715,-25.99,2022-10-26 10:57:59.984375
716,-23.0,2022-10-26 10:58:00.000000
717,-17.57,2022-10-26 10:58:00.015625
718,-10.05,2022-10-26 10:58:00.031250
719,-1.39,2022-10-26 10:58:00.046875
720,7.15,2022-10-26 10:58:00.062500
721,14.35,2022-10-26 10:58:00.078125
722,19.53,2022-10-26 10:58:00.093750
723,22.74,2022-10-26 10:58:00.109375
724,24.61,2022-10-26 10:58:00.125000
725,25.96,2022-10-26 10:58:00.140625
726,27.37,2022-10-26 10:58:00.156250
727,28.93,2022-10-26 10:58:00.171875
728,30.35,2022-10-26 10:58:00.187500
729,31.17,2022-10-26 10:58:00.203125
730,31.16,2022-10-26 10:58:00.218750
731,30.46,2022-10-26 10:58:00.234375
732,29.56,2022-10-26 10:58:00.250000
733,29.06,2022-10-26 10:58:00.265625
734,29.4,2022-10-26 10:58:00.281250
735,30.68,2022-10-26 10:58:00.296875
736,32.75,2022-10-26 10:58:00.312500
737,35.27,2022-10-26 10:58:00.328125
738,37.91,2022-10-26 10:58:00.343750
739,40.37,2022-10-26 10:58:00.359375
740,42.41,2022-10-26 10:58:00.375000
741,43.71,2022-10-26 10:58:00.390625
742,43.86,2022-10-26 10:58:00.406250
743,42.45,2022-10-26 10:58:00.421875
744,39.23,2022-10-26 10:58:00.437500
745,34.28,2022-10-26 10:58:00.453125
746,27.98,2022-10-26 10:58:00.468750
747,20.89,2022-10-26 10:58:00.484375
748,13.54,2022-10-26 10:58:00.500000
749,6.21,2022-10-26 10:58:00.515625
750,-1.14,2022-10-26 10:58:00.531250
751,-8.72,2022-10-26 10:58:00.546875
752,-16.75,2022-10-26 10:58:00.562500
753,-25.23,2022-10-26 10:58:00.578125
754,-33.82,2022-10-26 10:58:00.593750
755,-41.84,2022-10-26 10:58:00.609375
756,-48.23,2022-10-26 10:58:00.625000
757,-51.75,2022-10-26 10:58:00.640625
758,-51.23,2022-10-26 10:58:00.656250
759,-45.97,2022-10-26 10:58:00.671875
760,-36.12,2022-10-26 10:58:00.687500
761,-22.8,2022-10-26 10:58:00.703125
762,-7.96,2022-10-26 10:58:00.718750
763,6.13,2022-10-26 10:58:00.734375
764,17.6,2022-10-26 10:58:00.750000
765,25.44,2022-10-26 10:58:00.765625
766,29.65,2022-10-26 10:58:00.781250
767,31.09,2022-10-26 10:58:00.796875
768,30.88,2022-10-26 10:58:00.812500
769,30.0,2022-10-26 10:58:00.828125
770,29.0,2022-10-26 10:58:00.843750
771,27.99,2022-10-26 10:58:00.859375
772,26.82,2022-10-26 10:58:00.875000
773,25.35,2022-10-26 10:58:00.890625
774,23.57,2022-10-26 10:58:00.906250
775,21.63,2022-10-26 10:58:00.921875
776,19.82,2022-10-26 10:58:00.937500
777,18.38,2022-10-26 10:58:00.953125
778,17.52,2022-10-26 10:58:00.968750
779,17.29,2022-10-26 10:58:00.984375
780,17.64,2022-10-26 10:58:01.000000
781,18.39,2022-10-26 10:58:01.015625
782,19.25,2022-10-26 10:58:01.031250
783,19.84,2022-10-26 10:58:01.046875
784,19.75,2022-10-26 10:58:01.062500
785,18.6,2022-10-26 10:58:01.078125
786,16.18,2022-10-26 10:58:01.093750
787,12.65,2022-10-26 10:58:01.109375
788,8.46,2022-10-26 10:58:01.125000
789,4.29,2022-10-26 10:58:01.140625
790,0.78,2022-10-26 10:58:01.156250
791,-1.72,2022-10-26 10:58:01.171875
792,-3.38,2022-10-26 10:58:01.187500
793,-4.8,2022-10-26 10:58:01.203125
794,-6.88,2022-10-26 10:58:01.218750
795,-10.46,2022-10-26 10:58:01.234375
796,-15.88,2022-10-26 10:58:01.250000
797,-22.76,2022-10-26 10:58:01.265625
798,-29.95,2022-10-26 10:58:01.281250
799,-35.7,2022-10-26 10:58:01.296875
800,-38.28,2022-10-26 10:58:01.312500
801,-36.59,2022-10-26 10:58:01.328125
802,-30.57,2022-10-26 10:58:01.343750
803,-21.29,2022-10-26 10:58:01.359375
804,-10.6,2022-10-26 10:58:01.375000
805,-0.44,2022-10-26 10:58:01.390625
806,7.81,2022-10-26 10:58:01.406250
807,13.66,2022-10-26 10:58:01.421875
808,17.39,2022-10-26 10:58:01.437500
809,19.7,2022-10-26 10:58:01.453125
810,21.27,2022-10-26 10:58:01.468750
811,22.52,2022-10-26 10:58:01.484375
812,23.49,2022-10-26 10:58:01.500000
813,24.05,2022-10-26 10:58:01.515625
814,24.02,2022-10-26 10:58:01.531250
815,23.29,2022-10-26 10:58:01.546875
816,21.86,2022-10-26 10:58:01.562500
817,19.87,2022-10-26 10:58:01.578125
818,17.58,2022-10-26 10:58:01.593750
819,15.37,2022-10-26 10:58:01.609375
820,13.64,2022-10-26 10:58:01.625000
821,12.67,2022-10-26 10:58:01.640625
822,12.5,2022-10-26 10:58:01.656250
823,12.82,2022-10-26 10:58:01.671875
824,13.1,2022-10-26 10:58:01.687500
825,12.82,2022-10-26 10:58:01.703125
826,11.59,2022-10-26 10:58:01.718750
827,9.36,2022-10-26 10:58:01.734375
828,6.36,2022-10-26 10:58:01.750000
829,3.02,2022-10-26 10:58:01.765625
830,-0.3,2022-10-26 10:58:01.781250
831,-3.38,2022-10-26 10:58:01.796875
832,-6.15,2022-10-26 10:58:01.812500
833,-8.71,2022-10-26 10:58:01.828125
834,-11.28,2022-10-26 10:58:01.843750
835,-14.18,2022-10-26 10:58:01.859375
836,-17.77,2022-10-26 10:58:01.875000
837,-22.34,2022-10-26 10:58:01.890625
838,-27.88,2022-10-26 10:58:01.906250
839,-33.97,2022-10-26 10:58:01.921875
840,-39.64,2022-10-26 10:58:01.937500
841,-43.51,2022-10-26 10:58:01.953125
842,-44.31,2022-10-26 10:58:01.968750
843,-41.23,2022-10-26 10:58:01.984375
844,-34.47,2022-10-26 10:58:02.000000
845,-25.18,2022-10-26 10:58:02.015625
846,-15.13,2022-10-26 10:58:02.031250
847,-6.08,2022-10-26 10:58:02.046875
848,0.76,2022-10-26 10:58:02.062500
849,5.03,2022-10-26 10:58:02.078125
850,7.21,2022-10-26 10:58:02.093750
851,8.12,2022-10-26 10:58:02.109375
852,8.63,2022-10-26 10:58:02.125000
853,9.23,2022-10-26 10:58:02.140625
854,10.05,2022-10-26 10:58:02.156250
855,10.91,2022-10-26 10:58:02.171875
856,11.59,2022-10-26 10:58:02.187500
857,11.96,2022-10-26 10:58:02.203125
858,12.04,2022-10-26 10:58:02.218750
859,11.91,2022-10-26 10:58:02.234375
860,11.66,2022-10-26 10:58:02.250000
861,11.36,2022-10-26 10:58:02.265625
862,11.06,2022-10-26 10:58:02.281250
863,10.77,2022-10-26 10:58:02.296875
864,10.57,2022-10-26 10:58:02.312500
865,10.55,2022-10-26 10:58:02.328125
866,10.8,2022-10-26 10:58:02.343750
867,11.37,2022-10-26 10:58:02.359375
868,12.18,2022-10-26 10:58:02.375000
869,12.99,2022-10-26 10:58:02.390625
870,13.51,2022-10-26 10:58:02.406250
871,13.36,2022-10-26 10:58:02.421875
872,12.29,2022-10-26 10:58:02.437500
873,10.23,2022-10-26 10:58:02.453125
874,7.35,2022-10-26 10:58:02.468750
875,4.02,2022-10-26 10:58:02.484375
876,0.65,2022-10-26 10:58:02.500000
877,-2.48,2022-10-26 10:58:02.515625
878,-5.36,2022-10-26 10:58:02.531250
879,-8.3,2022-10-26 10:58:02.546875
880,-11.88,2022-10-26 10:58:02.562500
881,-16.68,2022-10-26 10:58:02.578125
882,-23.0,2022-10-26 10:58:02.593750
883,-30.79,2022-10-26 10:58:02.609375
884,-39.49,2022-10-26 10:58:02.625000
885,-48.3,2022-10-26 10:58:02.640625
886,-56.36,2022-10-26 10:58:02.656250
887,-63.14,2022-10-26 10:58:02.671875
888,-68.49,2022-10-26 10:58:02.687500
889,-72.66,2022-10-26 10:58:02.703125
890,-76.14,2022-10-26 10:58:02.718750
891,-79.48,2022-10-26 10:58:02.734375
892,-83.1,2022-10-26 10:58:02.750000
893,-87.08,2022-10-26 10:58:02.765625
894,-91.08,2022-10-26 10:58:02.781250
895,-94.2,2022-10-26 10:58:02.796875
896,-95.3,2022-10-26 10:58:02.812500
897,-93.21,2022-10-26 10:58:02.828125
898,-87.27,2022-10-26 10:58:02.843750
899,-77.65,2022-10-26 10:58:02.859375
900,-65.38,2022-10-26 10:58:02.875000
901,-52.04,2022-10-26 10:58:02.890625
902,-39.12,2022-10-26 10:58:02.906250
903,-27.57,2022-10-26 10:58:02.921875
904,-17.58,2022-10-26 10:58:02.937500
905,-8.82,2022-10-26 10:58:02.953125
906,-0.82,2022-10-26 10:58:02.968750
907,6.65,2022-10-26 10:58:02.984375
908,13.52,2022-10-26 10:58:03.000000
909,19.5,2022-10-26 10:58:03.015625
910,24.28,2022-10-26 10:58:03.031250
911,27.73,2022-10-26 10:58:03.046875
912,29.84,2022-10-26 10:58:03.062500
913,30.72,2022-10-26 10:58:03.078125
914,30.54,2022-10-26 10:58:03.093750
915,29.59,2022-10-26 10:58:03.109375
916,28.23,2022-10-26 10:58:03.125000
917,26.98,2022-10-26 10:58:03.140625
918,26.42,2022-10-26 10:58:03.156250
919,26.92,2022-10-26 10:58:03.171875
920,28.61,2022-10-26 10:58:03.187500
921,31.16,2022-10-26 10:58:03.203125
922,34.0,2022-10-26 10:58:03.218750
923,36.4,2022-10-26 10:58:03.234375
924,37.78,2022-10-26 10:58:03.250000
925,37.8,2022-10-26 10:58:03.265625
926,36.51,2022-10-26 10:58:03.281250
927,34.2,2022-10-26 10:58:03.296875
928,31.29,2022-10-26 10:58:03.312500
929,28.2,2022-10-26 10:58:03.328125
930,25.26,2022-10-26 10:58:03.343750
931,22.58,2022-10-26 10:58:03.359375
932,20.18,2022-10-26 10:58:03.375000
933,17.85,2022-10-26 10:58:03.390625
934,15.29,2022-10-26 10:58:03.406250
935,12.14,2022-10-26 10:58:03.421875
936,8.21,2022-10-26 10:58:03.437500
937,3.56,2022-10-26 10:58:03.453125
938,-1.51,2022-10-26 10:58:03.468750
939,-6.52,2022-10-26 10:58:03.484375
940,-11.03,2022-10-26 10:58:03.500000
941,-14.91,2022-10-26 10:58:03.515625
942,-18.42,2022-10-26 10:58:03.531250
943,-22.09,2022-10-26 10:58:03.546875
944,-26.45,2022-10-26 10:58:03.562500
945,-31.59,2022-10-26 10:58:03.578125
946,-37.0,2022-10-26 10:58:03.593750
947,-41.52,2022-10-26 10:58:03.609375
948,-43.79,2022-10-26 10:58:03.625000
949,-42.76,2022-10-26 10:58:03.640625
950,-38.19,2022-10-26 10:58:03.656250
951,-30.83,2022-10-26 10:58:03.671875
952,-22.17,2022-10-26 10:58:03.687500
953,-13.84,2022-10-26 10:58:03.703125
954,-7.03,2022-10-26 10:58:03.718750
955,-2.14,2022-10-26 10:58:03.734375
956,1.12,2022-10-26 10:58:03.750000
957,3.32,2022-10-26 10:58:03.765625
958,4.93,2022-10-26 10:58:03.781250
959,6.07,2022-10-26 10:58:03.796875
960,6.52,2022-10-26 10:58:03.812500
961,6.08,2022-10-26 10:58:03.828125
962,4.72,2022-10-26 10:58:03.843750
963,2.73,2022-10-26 10:58:03.859375
964,0.65,2022-10-26 10:58:03.875000
965,-0.77,2022-10-26 10:58:03.890625
966,-0.78,2022-10-26 10:58:03.906250
967,1.25,2022-10-26 10:58:03.921875
968,5.56,2022-10-26 10:58:03.937500
969,11.96,2022-10-26 10:58:03.953125
970,19.68,2022-10-26 10:58:03.968750
971,27.53,2022-10-26 10:58:03.984375
972,34.16,2022-10-26 10:58:04.000000
973,38.4,2022-10-26 10:58:04.015625
974,39.65,2022-10-26 10:58:04.031250
975,37.89,2022-10-26 10:58:04.046875
976,33.72,2022-10-26 10:58:04.062500
977,28.11,2022-10-26 10:58:04.078125
978,22.14,2022-10-26 10:58:04.093750
979,16.78,2022-10-26 10:58:04.109375
980,12.66,2022-10-26 10:58:04.125000
981,9.93,2022-10-26 10:58:04.140625
982,8.33,2022-10-26 10:58:04.156250
983,7.24,2022-10-26 10:58:04.171875
984,6.01,2022-10-26 10:58:04.187500
985,4.16,2022-10-26 10:58:04.203125
986,1.6,2022-10-26 10:58:04.218750
987,-1.47,2022-10-26 10:58:04.234375
988,-4.57,2022-10-26 10:58:04.250000
989,-7.25,2022-10-26 10:58:04.265625
990,-9.19,2022-10-26 10:58:04.281250
991,-10.3,2022-10-26 10:58:04.296875
992,-10.77,2022-10-26 10:58:04.312500
993,-11.06,2022-10-26 10:58:04.328125
994,-11.71,2022-10-26 10:58:04.343750
995,-13.25,2022-10-26 10:58:04.359375
996,-15.9,2022-10-26 10:58:04.375000
997,-19.28,2022-10-26 10:58:04.390625
998,-22.45,2022-10-26 10:58:04.406250
999,-24.02,2022-10-26 10:58:04.421875
1000,-22.61,2022-10-26 10:58:04.437500
1001,-17.55,2022-10-26 10:58:04.453125
1002,-9.15,2022-10-26 10:58:04.468750
1003,1.21,2022-10-26 10:58:04.484375
1004,11.53,2022-10-26 10:58:04.500000
1005,20.01,2022-10-26 10:58:04.515625
1006,25.62,2022-10-26 10:58:04.531250
1007,28.39,2022-10-26 10:58:04.546875
1008,29.24,2022-10-26 10:58:04.562500
1009,29.45,2022-10-26 10:58:04.578125
1010,30.04,2022-10-26 10:58:04.593750
1011,31.51,2022-10-26 10:58:04.609375
1012,33.91,2022-10-26 10:58:04.625000
1013,36.98,2022-10-26 10:58:04.640625
1014,40.45,2022-10-26 10:58:04.656250
1015,43.99,2022-10-26 10:58:04.671875
1016,47.15,2022-10-26 10:58:04.687500
1017,49.1,2022-10-26 10:58:04.703125
1018,48.88,2022-10-26 10:58:04.718750
1019,45.63,2022-10-26 10:58:04.734375
1020,39.14,2022-10-26 10:58:04.750000
1021,30.03,2022-10-26 10:58:04.765625
1022,19.68,2022-10-26 10:58:04.781250
1023,9.68,2022-10-26 10:58:04.796875
1024,1.32,2022-10-26 10:58:04.812500
1025,-4.92,2022-10-26 10:58:04.828125
1026,-9.26,2022-10-26 10:58:04.843750
1027,-12.34,2022-10-26 10:58:04.859375
1028,-14.76,2022-10-26 10:58:04.875000
1029,-16.8,2022-10-26 10:58:04.890625
1030,-18.35,2022-10-26 10:58:04.906250
1031,-19.26,2022-10-26 10:58:04.921875
1032,-19.52,2022-10-26 10:58:04.937500
1033,-19.38,2022-10-26 10:58:04.953125
1034,-19.27,2022-10-26 10:58:04.968750
1035,-19.54,2022-10-26 10:58:04.984375
1036,-20.34,2022-10-26 10:58:05.000000
1037,-21.58,2022-10-26 10:58:05.015625
1038,-22.97,2022-10-26 10:58:05.031250
1039,-24.2,2022-10-26 10:58:05.046875
1040,-25.03,2022-10-26 10:58:05.062500
1041,-25.43,2022-10-26 10:58:05.078125
1042,-25.51,2022-10-26 10:58:05.093750
1043,-25.56,2022-10-26 10:58:05.109375
1044,-25.93,2022-10-26 10:58:05.125000
1045,-27.01,2022-10-26 10:58:05.140625
1046,-29.11,2022-10-26 10:58:05.156250
1047,-32.39,2022-10-26 10:58:05.171875
1048,-36.6,2022-10-26 10:58:05.187500
1049,-41.06,2022-10-26 10:58:05.203125
1050,-44.57,2022-10-26 10:58:05.218750
1051,-45.67,2022-10-26 10:58:05.234375
1052,-43.15,2022-10-26 10:58:05.250000
1053,-36.49,2022-10-26 10:58:05.265625
1054,-26.24,2022-10-26 10:58:05.281250
1055,-13.87,2022-10-26 10:58:05.296875
1056,-1.38,2022-10-26 10:58:05.312500
1057,9.42,2022-10-26 10:58:05.328125
1058,17.4,2022-10-26 10:58:05.343750
1059,22.39,2022-10-26 10:58:05.359375
1060,24.98,2022-10-26 10:58:05.375000
1061,26.12,2022-10-26 10:58:05.390625
1062,26.61,2022-10-26 10:58:05.406250
1063,26.93,2022-10-26 10:58:05.421875
1064,27.1,2022-10-26 10:58:05.437500
1065,26.88,2022-10-26 10:58:05.453125
1066,26.0,2022-10-26 10:58:05.468750
1067,24.37,2022-10-26 10:58:05.484375
1068,22.1,2022-10-26 10:58:05.500000
1069,19.55,2022-10-26 10:58:05.515625
1070,17.1,2022-10-26 10:58:05.531250
1071,15.09,2022-10-26 10:58:05.546875
1072,13.68,2022-10-26 10:58:05.562500
1073,12.77,2022-10-26 10:58:05.578125
1074,12.17,2022-10-26 10:58:05.593750
1075,11.7,2022-10-26 10:58:05.609375
1076,11.26,2022-10-26 10:58:05.625000
1077,10.8,2022-10-26 10:58:05.640625
1078,10.32,2022-10-26 10:58:05.656250
1079,9.81,2022-10-26 10:58:05.671875
1080,9.21,2022-10-26 10:58:05.687500
1081,8.51,2022-10-26 10:58:05.703125
1082,7.61,2022-10-26 10:58:05.718750
1083,6.45,2022-10-26 10:58:05.734375
1084,4.89,2022-10-26 10:58:05.750000
1085,2.84,2022-10-26 10:58:05.765625
1086,0.3,2022-10-26 10:58:05.781250
1087,-2.61,2022-10-26 10:58:05.796875
1088,-5.59,2022-10-26 10:58:05.812500
1089,-8.33,2022-10-26 10:58:05.828125
1090,-10.61,2022-10-26 10:58:05.843750
1091,-12.5,2022-10-26 10:58:05.859375
1092,-14.31,2022-10-26 10:58:05.875000
1093,-16.47,2022-10-26 10:58:05.890625
1094,-19.38,2022-10-26 10:58:05.906250
1095,-23.25,2022-10-26 10:58:05.921875
1096,-27.99,2022-10-26 10:58:05.937500
1097,-33.22,2022-10-26 10:58:05.953125
1098,-38.2,2022-10-26 10:58:05.968750
1099,-41.83,2022-10-26 10:58:05.984375
1100,-42.95,2022-10-26 10:58:06.000000
1101,-40.62,2022-10-26 10:58:06.015625
1102,-34.57,2022-10-26 10:58:06.031250
1103,-25.42,2022-10-26 10:58:06.046875
1104,-14.51,2022-10-26 10:58:06.062500
1105,-3.58,2022-10-26 10:58:06.078125
1106,5.89,2022-10-26 10:58:06.093750
1107,13.05,2022-10-26 10:58:06.109375
1108,17.81,2022-10-26 10:58:06.125000
1109,20.58,2022-10-26 10:58:06.140625
1110,21.93,2022-10-26 10:58:06.156250
1111,22.3,2022-10-26 10:58:06.171875
1112,21.92,2022-10-26 10:58:06.187500
1113,20.96,2022-10-26 10:58:06.203125
1114,19.62,2022-10-26 10:58:06.218750
1115,18.2,2022-10-26 10:58:06.234375
1116,16.97,2022-10-26 10:58:06.250000
1117,16.12,2022-10-26 10:58:06.265625
1118,15.62,2022-10-26 10:58:06.281250
1119,15.33,2022-10-26 10:58:06.296875
1120,15.11,2022-10-26 10:58:06.312500
1121,14.9,2022-10-26 10:58:06.328125
1122,14.86,2022-10-26 10:58:06.343750
1123,15.24,2022-10-26 10:58:06.359375
1124,16.16,2022-10-26 10:58:06.375000
1125,17.5,2022-10-26 10:58:06.390625
1126,18.82,2022-10-26 10:58:06.406250
1127,19.42,2022-10-26 10:58:06.421875
1128,18.7,2022-10-26 10:58:06.437500
1129,16.39,2022-10-26 10:58:06.453125
1130,12.7,2022-10-26 10:58:06.468750
1131,8.28,2022-10-26 10:58:06.484375
1132,3.91,2022-10-26 10:58:06.500000
1133,0.22,2022-10-26 10:58:06.515625
1134,-2.57,2022-10-26 10:58:06.531250
1135,-4.59,2022-10-26 10:58:06.546875
1136,-6.31,2022-10-26 10:58:06.562500
1137,-8.2,2022-10-26 10:58:06.578125
1138,-10.63,2022-10-26 10:58:06.593750
1139,-13.74,2022-10-26 10:58:06.609375
1140,-17.48,2022-10-26 10:58:06.625000
1141,-21.6,2022-10-26 10:58:06.640625
1142,-25.73,2022-10-26 10:58:06.656250
1143,-29.53,2022-10-26 10:58:06.671875
1144,-32.74,2022-10-26 10:58:06.687500
1145,-35.36,2022-10-26 10:58:06.703125
1146,-37.72,2022-10-26 10:58:06.718750
1147,-40.47,2022-10-26 10:58:06.734375
1148,-44.38,2022-10-26 10:58:06.750000
1149,-50.03,2022-10-26 10:58:06.765625
1150,-57.34,2022-10-26 10:58:06.781250
1151,-65.48,2022-10-26 10:58:06.796875
1152,-72.74,2022-10-26 10:58:06.812500
1153,-77.08,2022-10-26 10:58:06.828125
1154,-76.75,2022-10-26 10:58:06.843750
1155,-70.95,2022-10-26 10:58:06.859375
1156,-60.19,2022-10-26 10:58:06.875000
1157,-46.19,2022-10-26 10:58:06.890625
1158,-31.25,2022-10-26 10:58:06.906250
1159,-17.51,2022-10-26 10:58:06.921875
1160,-6.36,2022-10-26 10:58:06.937500
1161,1.84,2022-10-26 10:58:06.953125
1162,7.52,2022-10-26 10:58:06.968750
1163,11.51,2022-10-26 10:58:06.984375
1164,14.61,2022-10-26 10:58:07.000000
1165,17.33,2022-10-26 10:58:07.015625
1166,19.89,2022-10-26 10:58:07.031250
1167,22.3,2022-10-26 10:58:07.046875
1168,24.48,2022-10-26 10:58:07.062500
1169,26.34,2022-10-26 10:58:07.078125
1170,27.79,2022-10-26 10:58:07.093750
1171,28.86,2022-10-26 10:58:07.109375
1172,29.62,2022-10-26 10:58:07.125000
1173,30.24,2022-10-26 10:58:07.140625
1174,30.91,2022-10-26 10:58:07.156250
1175,31.82,2022-10-26 10:58:07.171875
1176,33.08,2022-10-26 10:58:07.187500
1177,34.71,2022-10-26 10:58:07.203125
1178,36.66,2022-10-26 10:58:07.218750
1179,38.78,2022-10-26 10:58:07.234375
1180,40.85,2022-10-26 10:58:07.250000
1181,42.57,2022-10-26 10:58:07.265625
1182,43.59,2022-10-26 10:58:07.281250
1183,43.65,2022-10-26 10:58:07.296875
1184,42.59,2022-10-26 10:58:07.312500
1185,40.5,2022-10-26 10:58:07.328125
1186,37.74,2022-10-26 10:58:07.343750
1187,34.75,2022-10-26 10:58:07.359375
1188,31.94,2022-10-26 10:58:07.375000
1189,29.5,2022-10-26 10:58:07.390625
1190,27.41,2022-10-26 10:58:07.406250
1191,25.48,2022-10-26 10:58:07.421875
1192,23.47,2022-10-26 10:58:07.437500
1193,21.23,2022-10-26 10:58:07.453125
1194,18.78,2022-10-26 10:58:07.468750
1195,16.21,2022-10-26 10:58:07.484375
1196,13.56,2022-10-26 10:58:07.500000
1197,10.79,2022-10-26 10:58:07.515625
1198,7.74,2022-10-26 10:58:07.531250
1199,4.26,2022-10-26 10:58:07.546875
1200,0.39,2022-10-26 10:58:07.562500
1201,-3.68,2022-10-26 10:58:07.578125
1202,-7.59,2022-10-26 10:58:07.593750
1203,-11.04,2022-10-26 10:58:07.609375
1204,-13.89,2022-10-26 10:58:07.625000
1205,-16.25,2022-10-26 10:58:07.640625
1206,-18.39,2022-10-26 10:58:07.656250
1207,-20.59,2022-10-26 10:58:07.671875
1208,-23.06,2022-10-26 10:58:07.687500
1209,-25.83,2022-10-26 10:58:07.703125
1210,-28.82,2022-10-26 10:58:07.718750
1211,-31.93,2022-10-26 10:58:07.734375
1212,-35.0,2022-10-26 10:58:07.750000
1213,-37.94,2022-10-26 10:58:07.765625
1214,-40.66,2022-10-26 10:58:07.781250
1215,-43.15,2022-10-26 10:58:07.796875
1216,-45.56,2022-10-26 10:58:07.812500
1217,-48.31,2022-10-26 10:58:07.828125
1218,-52.0,2022-10-26 10:58:07.843750
1219,-57.19,2022-10-26 10:58:07.859375
1220,-64.02,2022-10-26 10:58:07.875000
1221,-71.89,2022-10-26 10:58:07.890625
1222,-79.31,2022-10-26 10:58:07.906250
1223,-84.18,2022-10-26 10:58:07.921875
1224,-84.47,2022-10-26 10:58:07.937500
1225,-78.93,2022-10-26 10:58:07.953125
1226,-67.74,2022-10-26 10:58:07.968750
1227,-52.43,2022-10-26 10:58:07.984375
1228,-35.46,2022-10-26 10:58:08.000000
1229,-19.26,2022-10-26 10:58:08.015625
1230,-5.53,2022-10-26 10:58:08.031250
1231,5.13,2022-10-26 10:58:08.046875
1232,12.99,2022-10-26 10:58:08.062500
1233,18.68,2022-10-26 10:58:08.078125
1234,22.84,2022-10-26 10:58:08.093750
1235,25.83,2022-10-26 10:58:08.109375
1236,27.91,2022-10-26 10:58:08.125000
1237,29.3,2022-10-26 10:58:08.140625
1238,30.4,2022-10-26 10:58:08.156250
1239,31.53,2022-10-26 10:58:08.171875
1240,32.82,2022-10-26 10:58:08.187500
1241,34.17,2022-10-26 10:58:08.203125
1242,35.23,2022-10-26 10:58:08.218750
1243,35.77,2022-10-26 10:58:08.234375
1244,35.8,2022-10-26 10:58:08.250000
1245,35.65,2022-10-26 10:58:08.265625
1246,35.75,2022-10-26 10:58:08.281250
1247,36.46,2022-10-26 10:58:08.296875
1248,37.89,2022-10-26 10:58:08.312500
1249,39.79,2022-10-26 10:58:08.328125
1250,41.76,2022-10-26 10:58:08.343750
1251,43.34,2022-10-26 10:58:08.359375
1252,44.12,2022-10-26 10:58:08.375000
1253,43.87,2022-10-26 10:58:08.390625
1254,42.56,2022-10-26 10:58:08.406250
1255,40.28,2022-10-26 10:58:08.421875
1256,37.32,2022-10-26 10:58:08.437500
1257,34.02,2022-10-26 10:58:08.453125
1258,30.7,2022-10-26 10:58:08.468750
1259,27.58,2022-10-26 10:58:08.484375
1260,24.77,2022-10-26 10:58:08.500000
1261,22.18,2022-10-26 10:58:08.515625
1262,19.67,2022-10-26 10:58:08.531250
1263,17.14,2022-10-26 10:58:08.546875
1264,14.55,2022-10-26 10:58:08.562500
1265,11.96,2022-10-26 10:58:08.578125
1266,9.48,2022-10-26 10:58:08.593750
1267,7.19,2022-10-26 10:58:08.609375
1268,5.13,2022-10-26 10:58:08.625000
1269,3.17,2022-10-26 10:58:08.640625
1270,1.11,2022-10-26 10:58:08.656250
1271,-1.21,2022-10-26 10:58:08.671875
1272,-3.88,2022-10-26 10:58:08.687500
1273,-6.81,2022-10-26 10:58:08.703125
1274,-9.81,2022-10-26 10:58:08.718750
1275,-12.72,2022-10-26 10:58:08.734375
1276,-15.49,2022-10-26 10:58:08.750000
1277,-18.19,2022-10-26 10:58:08.765625
1278,-21.02,2022-10-26 10:58:08.781250
1279,-24.11,2022-10-26 10:58:08.796875
1280,-27.41,2022-10-26 10:58:08.812500
1281,-30.69,2022-10-26 10:58:08.828125
1282,-33.56,2022-10-26 10:58:08.843750
1283,-35.76,2022-10-26 10:58:08.859375
1284,-37.3,2022-10-26 10:58:08.875000
1285,-38.5,2022-10-26 10:58:08.890625
1286,-39.99,2022-10-26 10:58:08.906250
1287,-42.51,2022-10-26 10:58:08.921875
1288,-46.72,2022-10-26 10:58:08.937500
1289,-52.83,2022-10-26 10:58:08.953125
1290,-60.36,2022-10-26 10:58:08.968750
1291,-68.14,2022-10-26 10:58:08.984375
1292,-74.34,2022-10-26 10:58:09.000000
1293,-77.01,2022-10-26 10:58:09.015625
1294,-74.65,2022-10-26 10:58:09.031250
1295,-66.85,2022-10-26 10:58:09.046875
1296,-54.44,2022-10-26 10:58:09.062500
1297,-39.3,2022-10-26 10:58:09.078125
1298,-23.75,2022-10-26 10:58:09.093750
1299,-9.81,2022-10-26 10:58:09.109375
1300,1.34,2022-10-26 10:58:09.125000
1301,9.5,2022-10-26 10:58:09.140625
1302,15.1,2022-10-26 10:58:09.156250
1303,18.86,2022-10-26 10:58:09.171875
1304,21.34,2022-10-26 10:58:09.187500
1305,22.92,2022-10-26 10:58:09.203125
1306,23.78,2022-10-26 10:58:09.218750
1307,24.06,2022-10-26 10:58:09.234375
1308,23.96,2022-10-26 10:58:09.250000
1309,23.66,2022-10-26 10:58:09.265625
1310,23.27,2022-10-26 10:58:09.281250
1311,22.75,2022-10-26 10:58:09.296875
1312,22.06,2022-10-26 10:58:09.312500
1313,21.2,2022-10-26 10:58:09.328125
1314,20.38,2022-10-26 10:58:09.343750
1315,19.93,2022-10-26 10:58:09.359375
1316,20.21,2022-10-26 10:58:09.375000
1317,21.42,2022-10-26 10:58:09.390625
1318,23.51,2022-10-26 10:58:09.406250
1319,26.15,2022-10-26 10:58:09.421875
1320,28.86,2022-10-26 10:58:09.437500
1321,31.12,2022-10-26 10:58:09.453125
1322,32.57,2022-10-26 10:58:09.468750
1323,32.95,2022-10-26 10:58:09.484375
1324,32.26,2022-10-26 10:58:09.500000
1325,30.7,2022-10-26 10:58:09.515625
1326,28.6,2022-10-26 10:58:09.531250
1327,26.32,2022-10-26 10:58:09.546875
1328,24.16,2022-10-26 10:58:09.562500
1329,22.23,2022-10-26 10:58:09.578125
1330,20.48,2022-10-26 10:58:09.593750
1331,18.77,2022-10-26 10:58:09.609375
1332,17.01,2022-10-26 10:58:09.625000
1333,15.2,2022-10-26 10:58:09.640625
1334,13.46,2022-10-26 10:58:09.656250
1335,11.89,2022-10-26 10:58:09.671875
1336,10.54,2022-10-26 10:58:09.687500
1337,9.3,2022-10-26 10:58:09.703125
1338,8.01,2022-10-26 10:58:09.718750
1339,6.5,2022-10-26 10:58:09.734375
1340,4.73,2022-10-26 10:58:09.750000
1341,2.77,2022-10-26 10:58:09.765625
1342,0.84,2022-10-26 10:58:09.781250
1343,-0.82,2022-10-26 10:58:09.796875
1344,-2.04,2022-10-26 10:58:09.812500
1345,-2.78,2022-10-26 10:58:09.828125
1346,-3.21,2022-10-26 10:58:09.843750
1347,-3.71,2022-10-26 10:58:09.859375
1348,-4.85,2022-10-26 10:58:09.875000
1349,-7.17,2022-10-26 10:58:09.890625
1350,-11.0,2022-10-26 10:58:09.906250
1351,-16.17,2022-10-26 10:58:09.921875
1352,-21.93,2022-10-26 10:58:09.937500
1353,-26.97,2022-10-26 10:58:09.953125
1354,-29.73,2022-10-26 10:58:09.968750
1355,-28.93,2022-10-26 10:58:09.984375
1356,-24.03,2022-10-26 10:58:10.000000
1357,-15.36,2022-10-26 10:58:10.015625
1358,-4.07,2022-10-26 10:58:10.031250
1359,8.27,2022-10-26 10:58:10.046875
1360,20.2,2022-10-26 10:58:10.062500
1361,30.64,2022-10-26 10:58:10.078125
1362,39.06,2022-10-26 10:58:10.093750
1363,45.35,2022-10-26 10:58:10.109375
1364,49.6,2022-10-26 10:58:10.125000
1365,52.0,2022-10-26 10:58:10.140625
1366,52.69,2022-10-26 10:58:10.156250
1367,51.7,2022-10-26 10:58:10.171875
1368,49.13,2022-10-26 10:58:10.187500
1369,45.12,2022-10-26 10:58:10.203125
1370,40.02,2022-10-26 10:58:10.218750
1371,34.35,2022-10-26 10:58:10.234375
1372,28.79,2022-10-26 10:58:10.250000
1373,23.97,2022-10-26 10:58:10.265625
1374,20.35,2022-10-26 10:58:10.281250
1375,18.1,2022-10-26 10:58:10.296875
1376,17.1,2022-10-26 10:58:10.312500
1377,17.02,2022-10-26 10:58:10.328125
1378,17.51,2022-10-26 10:58:10.343750
1379,18.28,2022-10-26 10:58:10.359375
1380,19.06,2022-10-26 10:58:10.375000
1381,19.5,2022-10-26 10:58:10.390625
1382,19.21,2022-10-26 10:58:10.406250
1383,17.81,2022-10-26 10:58:10.421875
1384,15.0,2022-10-26 10:58:10.437500
1385,10.8,2022-10-26 10:58:10.453125
1386,5.58,2022-10-26 10:58:10.468750
1387,-0.02,2022-10-26 10:58:10.484375
1388,-5.26,2022-10-26 10:58:10.500000
1389,-9.53,2022-10-26 10:58:10.515625
1390,-12.56,2022-10-26 10:58:10.531250
1391,-14.5,2022-10-26 10:58:10.546875
1392,-15.81,2022-10-26 10:58:10.562500
1393,-17.13,2022-10-26 10:58:10.578125
1394,-18.94,2022-10-26 10:58:10.593750
1395,-21.42,2022-10-26 10:58:10.609375
1396,-24.41,2022-10-26 10:58:10.625000
1397,-27.5,2022-10-26 10:58:10.640625
1398,-30.28,2022-10-26 10:58:10.656250
1399,-32.55,2022-10-26 10:58:10.671875
1400,-34.47,2022-10-26 10:58:10.687500
1401,-36.49,2022-10-26 10:58:10.703125
1402,-39.26,2022-10-26 10:58:10.718750
1403,-43.31,2022-10-26 10:58:10.734375
1404,-48.92,2022-10-26 10:58:10.750000
1405,-55.95,2022-10-26 10:58:10.765625
1406,-63.67,2022-10-26 10:58:10.781250
1407,-70.69,2022-10-26 10:58:10.796875
1408,-75.23,2022-10-26 10:58:10.812500
1409,-75.45,2022-10-26 10:58:10.828125
1410,-70.07,2022-10-26 10:58:10.843750
1411,-58.85,2022-10-26 10:58:10.859375
1412,-42.86,2022-10-26 10:58:10.875000
1413,-24.24,2022-10-26 10:58:10.890625
1414,-5.56,2022-10-26 10:58:10.906250
1415,10.96,2022-10-26 10:58:10.921875
1416,23.99,2022-10-26 10:58:10.937500
1417,33.2,2022-10-26 10:58:10.953125
1418,39.1,2022-10-26 10:58:10.968750
1419,42.5,2022-10-26 10:58:10.984375
1420,44.1,2022-10-26 10:58:11.000000
1421,44.34,2022-10-26 10:58:11.015625
1422,43.42,2022-10-26 10:58:11.031250
1423,41.5,2022-10-26 10:58:11.046875
1424,38.8,2022-10-26 10:58:11.062500
1425,35.7,2022-10-26 10:58:11.078125
1426,32.63,2022-10-26 10:58:11.093750
1427,29.96,2022-10-26 10:58:11.109375
1428,27.87,2022-10-26 10:58:11.125000
1429,26.4,2022-10-26 10:58:11.140625
1430,25.44,2022-10-26 10:58:11.156250
1431,24.87,2022-10-26 10:58:11.171875
1432,24.6,2022-10-26 10:58:11.187500
1433,24.53,2022-10-26 10:58:11.203125
1434,24.48,2022-10-26 10:58:11.218750
1435,24.11,2022-10-26 10:58:11.234375
1436,22.96,2022-10-26 10:58:11.250000
1437,20.61,2022-10-26 10:58:11.265625
1438,16.84,2022-10-26 10:58:11.281250
1439,11.8,2022-10-26 10:58:11.296875
1440,6.01,2022-10-26 10:58:11.312500
1441,0.19,2022-10-26 10:58:11.328125
1442,-4.98,2022-10-26 10:58:11.343750
1443,-9.16,2022-10-26 10:58:11.359375
1444,-12.38,2022-10-26 10:58:11.375000
1445,-14.95,2022-10-26 10:58:11.390625
1446,-17.28,2022-10-26 10:58:11.406250
1447,-19.66,2022-10-26 10:58:11.421875
1448,-22.03,2022-10-26 10:58:11.437500
1449,-24.21,2022-10-26 10:58:11.453125
1450,-25.99,2022-10-26 10:58:11.468750
1451,-27.41,2022-10-26 10:58:11.484375
1452,-28.78,2022-10-26 10:58:11.500000
1453,-30.67,2022-10-26 10:58:11.515625
1454,-33.74,2022-10-26 10:58:11.531250
1455,-38.52,2022-10-26 10:58:11.546875
1456,-45.2,2022-10-26 10:58:11.562500
1457,-53.41,2022-10-26 10:58:11.578125
1458,-62.1,2022-10-26 10:58:11.593750
1459,-69.6,2022-10-26 10:58:11.609375
1460,-73.96,2022-10-26 10:58:11.625000
1461,-73.46,2022-10-26 10:58:11.640625
1462,-67.32,2022-10-26 10:58:11.656250
1463,-55.97,2022-10-26 10:58:11.671875
1464,-41.05,2022-10-26 10:58:11.687500
1465,-24.86,2022-10-26 10:58:11.703125
1466,-9.64,2022-10-26 10:58:11.718750
1467,3.1,2022-10-26 10:58:11.734375
1468,12.81,2022-10-26 10:58:11.750000
1469,19.78,2022-10-26 10:58:11.765625
1470,24.7,2022-10-26 10:58:11.781250
1471,28.27,2022-10-26 10:58:11.796875
1472,30.9,2022-10-26 10:58:11.812500
1473,32.65,2022-10-26 10:58:11.828125
1474,33.3,2022-10-26 10:58:11.843750
1475,32.65,2022-10-26 10:58:11.859375
1476,30.56,2022-10-26 10:58:11.875000
1477,27.21,2022-10-26 10:58:11.890625
1478,23.11,2022-10-26 10:58:11.906250
1479,18.84,2022-10-26 10:58:11.921875
1480,15.03,2022-10-26 10:58:11.937500
1481,12.03,2022-10-26 10:58:11.953125
1482,9.94,2022-10-26 10:58:11.968750
1483,8.6,2022-10-26 10:58:11.984375
1484,7.79,2022-10-26 10:58:12.000000
1485,7.28,2022-10-26 10:58:12.015625
1486,6.85,2022-10-26 10:58:12.031250
1487,6.24,2022-10-26 10:58:12.046875
1488,5.08,2022-10-26 10:58:12.062500
1489,3.01,2022-10-26 10:58:12.078125
1490,-0.23,2022-10-26 10:58:12.093750
1491,-4.6,2022-10-26 10:58:12.109375
1492,-9.75,2022-10-26 10:58:12.125000
1493,-15.1,2022-10-26 10:58:12.140625
1494,-20.06,2022-10-26 10:58:12.156250
1495,-24.28,2022-10-26 10:58:12.171875
1496,-27.69,2022-10-26 10:58:12.187500
1497,-30.42,2022-10-26 10:58:12.203125
1498,-32.69,2022-10-26 10:58:12.218750
1499,-34.65,2022-10-26 10:58:12.234375
1500,-36.35,2022-10-26 10:58:12.250000
1501,-37.79,2022-10-26 10:58:12.265625
1502,-39.1,2022-10-26 10:58:12.281250
1503,-40.55,2022-10-26 10:58:12.296875
1504,-42.63,2022-10-26 10:58:12.312500
1505,-45.87,2022-10-26 10:58:12.328125
1506,-50.78,2022-10-26 10:58:12.343750
1507,-57.54,2022-10-26 10:58:12.359375
1508,-65.78,2022-10-26 10:58:12.375000
1509,-74.33,2022-10-26 10:58:12.390625
1510,-81.38,2022-10-26 10:58:12.406250
1511,-84.84,2022-10-26 10:58:12.421875
1512,-82.96,2022-10-26 10:58:12.437500
1513,-74.98,2022-10-26 10:58:12.453125
1514,-61.53,2022-10-26 10:58:12.468750
1515,-44.39,2022-10-26 10:58:12.484375
1516,-26.0,2022-10-26 10:58:12.500000
1517,-8.58,2022-10-26 10:58:12.515625
1518,6.36,2022-10-26 10:58:12.531250
1519,18.27,2022-10-26 10:58:12.546875
1520,27.29,2022-10-26 10:58:12.562500
1521,33.91,2022-10-26 10:58:12.578125
1522,38.55,2022-10-26 10:58:12.593750
1523,41.56,2022-10-26 10:58:12.609375
1524,43.18,2022-10-26 10:58:12.625000
1525,43.69,2022-10-26 10:58:12.640625
1526,43.39,2022-10-26 10:58:12.656250
1527,42.58,2022-10-26 10:58:12.671875
1528,41.46,2022-10-26 10:58:12.687500
1529,40.08,2022-10-26 10:58:12.703125
1530,38.48,2022-10-26 10:58:12.718750
1531,36.64,2022-10-26 10:58:12.734375
1532,34.64,2022-10-26 10:58:12.750000
1533,32.62,2022-10-26 10:58:12.765625
1534,30.79,2022-10-26 10:58:12.781250
1535,29.32,2022-10-26 10:58:12.796875
1536,28.32,2022-10-26 10:58:12.812500
1537,27.7,2022-10-26 10:58:12.828125
1538,27.21,2022-10-26 10:58:12.843750
1539,26.4,2022-10-26 10:58:12.859375
1540,24.77,2022-10-26 10:58:12.875000
1541,21.95,2022-10-26 10:58:12.890625
1542,17.91,2022-10-26 10:58:12.906250
1543,13.04,2022-10-26 10:58:12.921875
1544,8.0,2022-10-26 10:58:12.937500
1545,3.58,2022-10-26 10:58:12.953125
1546,0.26,2022-10-26 10:58:12.968750
1547,-1.89,2022-10-26 10:58:12.984375
1548,-3.32,2022-10-26 10:58:13.000000
1549,-4.8,2022-10-26 10:58:13.015625
1550,-7.06,2022-10-26 10:58:13.031250
1551,-10.61,2022-10-26 10:58:13.046875
1552,-15.42,2022-10-26 10:58:13.062500
1553,-21.02,2022-10-26 10:58:13.078125
1554,-26.67,2022-10-26 10:58:13.093750
1555,-31.68,2022-10-26 10:58:13.109375
1556,-35.75,2022-10-26 10:58:13.125000
1557,-39.04,2022-10-26 10:58:13.140625
1558,-42.2,2022-10-26 10:58:13.156250
1559,-46.08,2022-10-26 10:58:13.171875
1560,-51.52,2022-10-26 10:58:13.187500
1561,-58.89,2022-10-26 10:58:13.203125
1562,-67.92,2022-10-26 10:58:13.218750
1563,-77.41,2022-10-26 10:58:13.234375
1564,-85.41,2022-10-26 10:58:13.250000
1565,-89.63,2022-10-26 10:58:13.265625
1566,-88.15,2022-10-26 10:58:13.281250
1567,-80.07,2022-10-26 10:58:13.296875
1568,-65.97,2022-10-26 10:58:13.312500
1569,-47.82,2022-10-26 10:58:13.328125
1570,-28.26,2022-10-26 10:58:13.343750
1571,-9.91,2022-10-26 10:58:13.359375
1572,5.47,2022-10-26 10:58:13.375000
1573,17.32,2022-10-26 10:58:13.390625
1574,26.11,2022-10-26 10:58:13.406250
1575,32.73,2022-10-26 10:58:13.421875
1576,38.07,2022-10-26 10:58:13.437500
1577,42.61,2022-10-26 10:58:13.453125
1578,46.44,2022-10-26 10:58:13.468750
1579,49.4,2022-10-26 10:58:13.484375
1580,51.32,2022-10-26 10:58:13.500000
1581,52.22,2022-10-26 10:58:13.515625
1582,52.25,2022-10-26 10:58:13.531250
1583,51.68,2022-10-26 10:58:13.546875
1584,50.78,2022-10-26 10:58:13.562500
1585,49.75,2022-10-26 10:58:13.578125
1586,48.77,2022-10-26 10:58:13.593750
1587,47.92,2022-10-26 10:58:13.609375
1588,47.38,2022-10-26 10:58:13.625000
1589,47.28,2022-10-26 10:58:13.640625
1590,47.71,2022-10-26 10:58:13.656250
1591,48.59,2022-10-26 10:58:13.671875
1592,49.62,2022-10-26 10:58:13.687500
1593,50.36,2022-10-26 10:58:13.703125
1594,50.29,2022-10-26 10:58:13.718750
1595,49.09,2022-10-26 10:58:13.734375
1596,46.67,2022-10-26 10:58:13.750000
1597,43.22,2022-10-26 10:58:13.765625
1598,39.13,2022-10-26 10:58:13.781250
1599,34.81,2022-10-26 10:58:13.796875
1600,30.6,2022-10-26 10:58:13.812500
1601,26.72,2022-10-26 10:58:13.828125
1602,23.17,2022-10-26 10:58:13.843750
1603,19.83,2022-10-26 10:58:13.859375
1604,16.48,2022-10-26 10:58:13.875000
1605,12.83,2022-10-26 10:58:13.890625
1606,8.74,2022-10-26 10:58:13.906250
1607,4.15,2022-10-26 10:58:13.921875
1608,-0.74,2022-10-26 10:58:13.937500
1609,-5.66,2022-10-26 10:58:13.953125
1610,-10.31,2022-10-26 10:58:13.968750
1611,-14.54,2022-10-26 10:58:13.984375
1612,-18.39,2022-10-26 10:58:14.000000
1613,-22.09,2022-10-26 10:58:14.015625
1614,-26.0,2022-10-26 10:58:14.031250
1615,-30.45,2022-10-26 10:58:14.046875
1616,-35.62,2022-10-26 10:58:14.062500
1617,-41.59,2022-10-26 10:58:14.078125
1618,-48.2,2022-10-26 10:58:14.093750
1619,-55.18,2022-10-26 10:58:14.109375
1620,-62.15,2022-10-26 10:58:14.125000
1621,-68.71,2022-10-26 10:58:14.140625
1622,-74.62,2022-10-26 10:58:14.156250
1623,-79.9,2022-10-26 10:58:14.171875
1624,-84.87,2022-10-26 10:58:14.187500
1625,-90.14,2022-10-26 10:58:14.203125
1626,-96.36,2022-10-26 10:58:14.218750
1627,-104.04,2022-10-26 10:58:14.234375
1628,-113.3,2022-10-26 10:58:14.250000
1629,-123.56,2022-10-26 10:58:14.265625
1630,-133.55,2022-10-26 10:58:14.281250
1631,-141.29,2022-10-26 10:58:14.296875
1632,-144.46,2022-10-26 10:58:14.312500
1633,-140.94,2022-10-26 10:58:14.328125
1634,-129.56,2022-10-26 10:58:14.343750
1635,-110.53,2022-10-26 10:58:14.359375
1636,-85.65,2022-10-26 10:58:14.375000
1637,-57.85,2022-10-26 10:58:14.390625
1638,-30.45,2022-10-26 10:58:14.406250
1639,-6.23,2022-10-26 10:58:14.421875
1640,13.22,2022-10-26 10:58:14.437500
1641,27.61,2022-10-26 10:58:14.453125
1642,37.73,2022-10-26 10:58:14.468750
1643,44.83,2022-10-26 10:58:14.484375
1644,50.2,2022-10-26 10:58:14.500000
1645,54.77,2022-10-26 10:58:14.515625
1646,59.06,2022-10-26 10:58:14.531250
1647,63.12,2022-10-26 10:58:14.546875
1648,66.72,2022-10-26 10:58:14.562500
1649,69.44,2022-10-26 10:58:14.578125
1650,70.87,2022-10-26 10:58:14.593750
1651,70.84,2022-10-26 10:58:14.609375
1652,69.51,2022-10-26 10:58:14.625000
1653,67.35,2022-10-26 10:58:14.640625
1654,65.02,2022-10-26 10:58:14.656250
1655,63.14,2022-10-26 10:58:14.671875
1656,62.08,2022-10-26 10:58:14.687500
1657,61.85,2022-10-26 10:58:14.703125
1658,62.09,2022-10-26 10:58:14.718750
1659,62.25,2022-10-26 10:58:14.734375
1660,61.75,2022-10-26 10:58:14.750000
1661,60.22,2022-10-26 10:58:14.765625
1662,57.68,2022-10-26 10:58:14.781250
1663,54.42,2022-10-26 10:58:14.796875
1664,50.91,2022-10-26 10:58:14.812500
1665,47.65,2022-10-26 10:58:14.828125
1666,44.93,2022-10-26 10:58:14.843750
1667,42.78,2022-10-26 10:58:14.859375
1668,40.99,2022-10-26 10:58:14.875000
1669,39.28,2022-10-26 10:58:14.890625
1670,37.45,2022-10-26 10:58:14.906250
1671,35.45,2022-10-26 10:58:14.921875
1672,33.41,2022-10-26 10:58:14.937500
1673,31.49,2022-10-26 10:58:14.953125
1674,29.71,2022-10-26 10:58:14.968750
1675,27.9,2022-10-26 10:58:14.984375
1676,25.74,2022-10-26 10:58:15.000000
1677,22.92,2022-10-26 10:58:15.015625
1678,19.36,2022-10-26 10:58:15.031250
1679,15.2,2022-10-26 10:58:15.046875
1680,10.83,2022-10-26 10:58:15.062500
1681,6.63,2022-10-26 10:58:15.078125
1682,2.79,2022-10-26 10:58:15.093750
1683,-0.78,2022-10-26 10:58:15.109375
1684,-4.42,2022-10-26 10:58:15.125000
1685,-8.51,2022-10-26 10:58:15.140625
1686,-13.31,2022-10-26 10:58:15.156250
1687,-18.86,2022-10-26 10:58:15.171875
1688,-24.94,2022-10-26 10:58:15.187500
1689,-31.23,2022-10-26 10:58:15.203125
1690,-37.37,2022-10-26 10:58:15.218750
1691,-43.21,2022-10-26 10:58:15.234375
1692,-48.74,2022-10-26 10:58:15.250000
1693,-54.14,2022-10-26 10:58:15.265625
1694,-59.78,2022-10-26 10:58:15.281250
1695,-66.1,2022-10-26 10:58:15.296875
1696,-73.55,2022-10-26 10:58:15.312500
1697,-82.33,2022-10-26 10:58:15.328125
1698,-92.06,2022-10-26 10:58:15.343750
1699,-101.63,2022-10-26 10:58:15.359375
1700,-109.19,2022-10-26 10:58:15.375000
1701,-112.55,2022-10-26 10:58:15.390625
1702,-109.87,2022-10-26 10:58:15.406250
1703,-100.44,2022-10-26 10:58:15.421875
1704,-85.02,2022-10-26 10:58:15.437500
1705,-65.79,2022-10-26 10:58:15.453125
1706,-45.59,2022-10-26 10:58:15.468750
1707,-27.05,2022-10-26 10:58:15.484375
1708,-11.81,2022-10-26 10:58:15.500000
1709,-0.26,2022-10-26 10:58:15.515625
1710,8.16,2022-10-26 10:58:15.531250
1711,14.4,2022-10-26 10:58:15.546875
1712,19.22,2022-10-26 10:58:15.562500
1713,23.0,2022-10-26 10:58:15.578125
1714,25.72,2022-10-26 10:58:15.593750
1715,27.27,2022-10-26 10:58:15.609375
1716,27.7,2022-10-26 10:58:15.625000
1717,27.26,2022-10-26 10:58:15.640625
1718,26.47,2022-10-26 10:58:15.656250
1719,25.92,2022-10-26 10:58:15.671875
1720,26.2,2022-10-26 10:58:15.687500
1721,27.83,2022-10-26 10:58:15.703125
1722,31.12,2022-10-26 10:58:15.718750
1723,36.11,2022-10-26 10:58:15.734375
1724,42.49,2022-10-26 10:58:15.750000
1725,49.67,2022-10-26 10:58:15.765625
1726,56.81,2022-10-26 10:58:15.781250
1727,62.99,2022-10-26 10:58:15.796875
1728,67.42,2022-10-26 10:58:15.812500
1729,69.53,2022-10-26 10:58:15.828125
1730,69.09,2022-10-26 10:58:15.843750
1731,66.26,2022-10-26 10:58:15.859375
1732,61.43,2022-10-26 10:58:15.875000
1733,55.23,2022-10-26 10:58:15.890625
1734,48.31,2022-10-26 10:58:15.906250
1735,41.33,2022-10-26 10:58:15.921875
1736,34.81,2022-10-26 10:58:15.937500
1737,29.15,2022-10-26 10:58:15.953125
1738,24.63,2022-10-26 10:58:15.968750
1739,21.32,2022-10-26 10:58:15.984375
1740,19.13,2022-10-26 10:58:16.000000
1741,17.8,2022-10-26 10:58:16.015625
1742,17.0,2022-10-26 10:58:16.031250
1743,16.39,2022-10-26 10:58:16.046875
1744,15.76,2022-10-26 10:58:16.062500
1745,15.02,2022-10-26 10:58:16.078125
1746,14.09,2022-10-26 10:58:16.093750
1747,12.93,2022-10-26 10:58:16.109375
1748,11.41,2022-10-26 10:58:16.125000
1749,9.35,2022-10-26 10:58:16.140625
1750,6.53,2022-10-26 10:58:16.156250
1751,2.79,2022-10-26 10:58:16.171875
1752,-1.97,2022-10-26 10:58:16.187500
1753,-7.72,2022-10-26 10:58:16.203125
1754,-14.25,2022-10-26 10:58:16.218750
1755,-21.25,2022-10-26 10:58:16.234375
1756,-28.34,2022-10-26 10:58:16.250000
1757,-35.08,2022-10-26 10:58:16.265625
1758,-41.13,2022-10-26 10:58:16.281250
1759,-46.3,2022-10-26 10:58:16.296875
1760,-50.65,2022-10-26 10:58:16.312500
1761,-54.55,2022-10-26 10:58:16.328125
1762,-58.66,2022-10-26 10:58:16.343750
1763,-63.71,2022-10-26 10:58:16.359375
1764,-70.27,2022-10-26 10:58:16.375000
1765,-78.24,2022-10-26 10:58:16.390625
1766,-86.64,2022-10-26 10:58:16.406250
1767,-93.66,2022-10-26 10:58:16.421875
1768,-97.12,2022-10-26 10:58:16.437500
1769,-95.29,2022-10-26 10:58:16.453125
1770,-87.53,2022-10-26 10:58:16.468750
1771,-74.61,2022-10-26 10:58:16.484375
1772,-58.47,2022-10-26 10:58:16.500000
1773,-41.48,2022-10-26 10:58:16.515625
1774,-25.69,2022-10-26 10:58:16.531250
1775,-12.33,2022-10-26 10:58:16.546875
1776,-1.68,2022-10-26 10:58:16.562500
1777,6.67,2022-10-26 10:58:16.578125
1778,13.41,2022-10-26 10:58:16.593750
1779,19.28,2022-10-26 10:58:16.609375
1780,24.85,2022-10-26 10:58:16.625000
1781,30.54,2022-10-26 10:58:16.640625
1782,36.48,2022-10-26 10:58:16.656250
1783,42.62,2022-10-26 10:58:16.671875
1784,48.61,2022-10-26 10:58:16.687500
1785,54.03,2022-10-26 10:58:16.703125
1786,58.6,2022-10-26 10:58:16.718750
1787,62.3,2022-10-26 10:58:16.734375
1788,65.43,2022-10-26 10:58:16.750000
1789,68.47,2022-10-26 10:58:16.765625
1790,71.85,2022-10-26 10:58:16.781250
1791,75.72,2022-10-26 10:58:16.796875
1792,79.92,2022-10-26 10:58:16.812500
1793,83.98,2022-10-26 10:58:16.828125
1794,87.38,2022-10-26 10:58:16.843750
1795,89.7,2022-10-26 10:58:16.859375
1796,90.69,2022-10-26 10:58:16.875000
1797,90.33,2022-10-26 10:58:16.890625
1798,88.66,2022-10-26 10:58:16.906250
1799,85.8,2022-10-26 10:58:16.921875
1800,81.87,2022-10-26 10:58:16.937500
1801,77.04,2022-10-26 10:58:16.953125
1802,71.59,2022-10-26 10:58:16.968750
1803,65.88,2022-10-26 10:58:16.984375
1804,60.21,2022-10-26 10:58:17.000000
1805,54.7,2022-10-26 10:58:17.015625
1806,49.18,2022-10-26 10:58:17.031250
1807,43.36,2022-10-26 10:58:17.046875
1808,36.96,2022-10-26 10:58:17.062500
1809,29.96,2022-10-26 10:58:17.078125
1810,22.66,2022-10-26 10:58:17.093750
1811,15.56,2022-10-26 10:58:17.109375
1812,9.08,2022-10-26 10:58:17.125000
1813,3.37,2022-10-26 10:58:17.140625
1814,-1.86,2022-10-26 10:58:17.156250
1815,-7.08,2022-10-26 10:58:17.171875
1816,-12.72,2022-10-26 10:58:17.187500
1817,-18.86,2022-10-26 10:58:17.203125
1818,-25.22,2022-10-26 10:58:17.218750
1819,-31.3,2022-10-26 10:58:17.234375
1820,-36.73,2022-10-26 10:58:17.250000
1821,-41.49,2022-10-26 10:58:17.265625
1822,-46.05,2022-10-26 10:58:17.281250
1823,-51.2,2022-10-26 10:58:17.296875
1824,-57.78,2022-10-26 10:58:17.312500
1825,-66.33,2022-10-26 10:58:17.328125
1826,-76.79,2022-10-26 10:58:17.343750
1827,-88.23,2022-10-26 10:58:17.359375
1828,-98.9,2022-10-26 10:58:17.375000
1829,-106.46,2022-10-26 10:58:17.390625
1830,-108.54,2022-10-26 10:58:17.406250
1831,-103.39,2022-10-26 10:58:17.421875
1832,-90.53,2022-10-26 10:58:17.437500
1833,-71.06,2022-10-26 10:58:17.453125
1834,-47.48,2022-10-26 10:58:17.468750
1835,-22.98,2022-10-26 10:58:17.484375
1836,-0.54,2022-10-26 10:58:17.500000
1837,17.84,2022-10-26 10:58:17.515625
1838,31.43,2022-10-26 10:58:17.531250
1839,40.75,2022-10-26 10:58:17.546875
1840,46.91,2022-10-26 10:58:17.562500
1841,51.11,2022-10-26 10:58:17.578125
1842,54.21,2022-10-26 10:58:17.593750
1843,56.55,2022-10-26 10:58:17.609375
1844,58.15,2022-10-26 10:58:17.625000
1845,59.01,2022-10-26 10:58:17.640625
1846,59.21,2022-10-26 10:58:17.656250
1847,59.03,2022-10-26 10:58:17.671875
1848,58.83,2022-10-26 10:58:17.687500
1849,58.88,2022-10-26 10:58:17.703125
1850,59.31,2022-10-26 10:58:17.718750
1851,60.01,2022-10-26 10:58:17.734375
1852,60.81,2022-10-26 10:58:17.750000
1853,61.48,2022-10-26 10:58:17.765625
1854,61.88,2022-10-26 10:58:17.781250
1855,61.83,2022-10-26 10:58:17.796875
1856,61.16,2022-10-26 10:58:17.812500
1857,59.58,2022-10-26 10:58:17.828125
1858,56.77,2022-10-26 10:58:17.843750
1859,52.48,2022-10-26 10:58:17.859375
1860,46.65,2022-10-26 10:58:17.875000
1861,39.48,2022-10-26 10:58:17.890625
1862,31.4,2022-10-26 10:58:17.906250
1863,22.98,2022-10-26 10:58:17.921875
1864,14.72,2022-10-26 10:58:17.937500
1865,6.89,2022-10-26 10:58:17.953125
1866,-0.58,2022-10-26 10:58:17.968750
1867,-7.94,2022-10-26 10:58:17.984375
1868,-15.47,2022-10-26 10:58:18.000000
1869,-23.18,2022-10-26 10:58:18.015625
1870,-30.7,2022-10-26 10:58:18.031250
1871,-37.32,2022-10-26 10:58:18.046875
1872,-42.34,2022-10-26 10:58:18.062500
1873,-45.4,2022-10-26 10:58:18.078125
1874,-46.7,2022-10-26 10:58:18.093750
1875,-47.01,2022-10-26 10:58:18.109375
1876,-47.41,2022-10-26 10:58:18.125000
1877,-49.01,2022-10-26 10:58:18.140625
1878,-52.44,2022-10-26 10:58:18.156250
1879,-57.65,2022-10-26 10:58:18.171875
1880,-63.63,2022-10-26 10:58:18.187500
1881,-68.57,2022-10-26 10:58:18.203125
1882,-70.2,2022-10-26 10:58:18.218750
1883,-66.52,2022-10-26 10:58:18.234375
1884,-56.53,2022-10-26 10:58:18.250000
1885,-40.67,2022-10-26 10:58:18.265625
1886,-20.79,2022-10-26 10:58:18.281250
1887,0.37,2022-10-26 10:58:18.296875
1888,20.13,2022-10-26 10:58:18.312500
1889,36.59,2022-10-26 10:58:18.328125
1890,49.03,2022-10-26 10:58:18.343750
1891,57.73,2022-10-26 10:58:18.359375
1892,63.5,2022-10-26 10:58:18.375000
1893,67.15,2022-10-26 10:58:18.390625
1894,69.24,2022-10-26 10:58:18.406250
1895,70.06,2022-10-26 10:58:18.421875
1896,69.78,2022-10-26 10:58:18.437500
1897,68.64,2022-10-26 10:58:18.453125
1898,66.92,2022-10-26 10:58:18.468750
1899,64.99,2022-10-26 10:58:18.484375
1900,63.09,2022-10-26 10:58:18.500000
1901,61.39,2022-10-26 10:58:18.515625
1902,59.95,2022-10-26 10:58:18.531250
1903,58.84,2022-10-26 10:58:18.546875
1904,58.17,2022-10-26 10:58:18.562500
1905,58.07,2022-10-26 10:58:18.578125
1906,58.6,2022-10-26 10:58:18.593750
1907,59.67,2022-10-26 10:58:18.609375
1908,60.99,2022-10-26 10:58:18.625000
1909,62.11,2022-10-26 10:58:18.640625
1910,62.54,2022-10-26 10:58:18.656250
1911,61.81,2022-10-26 10:58:18.671875
1912,59.59,2022-10-26 10:58:18.687500
1913,55.83,2022-10-26 10:58:18.703125
1914,50.76,2022-10-26 10:58:18.718750
1915,44.88,2022-10-26 10:58:18.734375
1916,38.9,2022-10-26 10:58:18.750000
1917,33.47,2022-10-26 10:58:18.765625
1918,28.97,2022-10-26 10:58:18.781250
1919,25.36,2022-10-26 10:58:18.796875
1920,22.18,2022-10-26 10:58:18.812500
1921,18.76,2022-10-26 10:58:18.828125
1922,14.59,2022-10-26 10:58:18.843750
1923,9.53,2022-10-26 10:58:18.859375
1924,3.93,2022-10-26 10:58:18.875000
1925,-1.5,2022-10-26 10:58:18.890625
1926,-6.08,2022-10-26 10:58:18.906250
1927,-9.46,2022-10-26 10:58:18.921875
1928,-11.74,2022-10-26 10:58:18.937500
1929,-13.53,2022-10-26 10:58:18.953125
1930,-15.63,2022-10-26 10:58:18.968750
1931,-18.68,2022-10-26 10:58:18.984375
1932,-22.94,2022-10-26 10:58:19.000000
1933,-28.17,2022-10-26 10:58:19.015625
1934,-33.75,2022-10-26 10:58:19.031250
1935,-38.99,2022-10-26 10:58:19.046875
1936,-43.42,2022-10-26 10:58:19.062500
1937,-46.99,2022-10-26 10:58:19.078125
1938,-50.09,2022-10-26 10:58:19.093750
1939,-53.43,2022-10-26 10:58:19.109375
1940,-57.8,2022-10-26 10:58:19.125000
1941,-63.89,2022-10-26 10:58:19.140625
1942,-71.96,2022-10-26 10:58:19.156250
1943,-81.6,2022-10-26 10:58:19.171875
1944,-91.43,2022-10-26 10:58:19.187500
1945,-99.21,2022-10-26 10:58:19.203125
1946,-102.17,2022-10-26 10:58:19.218750
1947,-97.96,2022-10-26 10:58:19.234375
1948,-85.56,2022-10-26 10:58:19.250000
1949,-65.85,2022-10-26 10:58:19.265625
1950,-41.5,2022-10-26 10:58:19.281250
1951,-16.14,2022-10-26 10:58:19.296875
1952,6.93,2022-10-26 10:58:19.312500
1953,25.61,2022-10-26 10:58:19.328125
1954,39.37,2022-10-26 10:58:19.343750
1955,48.89,2022-10-26 10:58:19.359375
1956,55.37,2022-10-26 10:58:19.375000
1957,59.91,2022-10-26 10:58:19.390625
1958,63.22,2022-10-26 10:58:19.406250
1959,65.68,2022-10-26 10:58:19.421875
1960,67.57,2022-10-26 10:58:19.437500
1961,69.13,2022-10-26 10:58:19.453125
1962,70.54,2022-10-26 10:58:19.468750
1963,71.9,2022-10-26 10:58:19.484375
1964,73.15,2022-10-26 10:58:19.500000
1965,74.11,2022-10-26 10:58:19.515625
1966,74.69,2022-10-26 10:58:19.531250
1967,74.91,2022-10-26 10:58:19.546875
1968,74.96,2022-10-26 10:58:19.562500
1969,75.16,2022-10-26 10:58:19.578125
1970,75.8,2022-10-26 10:58:19.593750
1971,77.01,2022-10-26 10:58:19.609375
1972,78.72,2022-10-26 10:58:19.625000
1973,80.57,2022-10-26 10:58:19.640625
1974,82.04,2022-10-26 10:58:19.656250
1975,82.61,2022-10-26 10:58:19.671875
1976,81.88,2022-10-26 10:58:19.687500
1977,79.77,2022-10-26 10:58:19.703125
1978,76.47,2022-10-26 10:58:19.718750
1979,72.44,2022-10-26 10:58:19.734375
1980,68.14,2022-10-26 10:58:19.750000
1981,63.9,2022-10-26 10:58:19.765625
1982,59.81,2022-10-26 10:58:19.781250
1983,55.68,2022-10-26 10:58:19.796875
1984,51.27,2022-10-26 10:58:19.812500
1985,46.37,2022-10-26 10:58:19.828125
1986,41.0,2022-10-26 10:58:19.843750
1987,35.41,2022-10-26 10:58:19.859375
1988,30.02,2022-10-26 10:58:19.875000
1989,25.22,2022-10-26 10:58:19.890625
1990,21.12,2022-10-26 10:58:19.906250
1991,17.53,2022-10-26 10:58:19.921875
1992,13.99,2022-10-26 10:58:19.937500
1993,10.0,2022-10-26 10:58:19.953125
1994,5.3,2022-10-26 10:58:19.968750
1995,-0.05,2022-10-26 10:58:19.984375
1996,-5.66,2022-10-26 10:58:20.000000
1997,-11.06,2022-10-26 10:58:20.015625
1998,-15.91,2022-10-26 10:58:20.031250
1999,-20.18,2022-10-26 10:58:20.046875
2000,-24.18,2022-10-26 10:58:20.062500
2001,-28.32,2022-10-26 10:58:20.078125
2002,-32.94,2022-10-26 10:58:20.093750
2003,-38.14,2022-10-26 10:58:20.109375
2004,-43.69,2022-10-26 10:58:20.125000
2005,-49.24,2022-10-26 10:58:20.140625
2006,-54.46,2022-10-26 10:58:20.156250
2007,-59.2,2022-10-26 10:58:20.171875
2008,-63.59,2022-10-26 10:58:20.187500
2009,-67.97,2022-10-26 10:58:20.203125
2010,-72.82,2022-10-26 10:58:20.218750
2011,-78.68,2022-10-26 10:58:20.234375
2012,-86.08,2022-10-26 10:58:20.250000
2013,-95.25,2022-10-26 10:58:20.265625
2014,-105.86,2022-10-26 10:58:20.281250
2015,-116.67,2022-10-26 10:58:20.296875
2016,-125.46,2022-10-26 10:58:20.312500
2017,-129.48,2022-10-26 10:58:20.328125
2018,-126.32,2022-10-26 10:58:20.343750
2019,-114.87,2022-10-26 10:58:20.359375
2020,-95.97,2022-10-26 10:58:20.375000
2021,-72.27,2022-10-26 10:58:20.390625
2022,-47.39,2022-10-26 10:58:20.406250
2023,-24.65,2022-10-26 10:58:20.421875
2024,-6.14,2022-10-26 10:58:20.437500
2025,7.61,2022-10-26 10:58:20.453125
2026,17.29,2022-10-26 10:58:20.468750
2027,24.11,2022-10-26 10:58:20.484375
2028,29.1,2022-10-26 10:58:20.500000
2029,32.84,2022-10-26 10:58:20.515625
2030,35.54,2022-10-26 10:58:20.531250
2031,37.29,2022-10-26 10:58:20.546875
2032,38.31,2022-10-26 10:58:20.562500
2033,38.89,2022-10-26 10:58:20.578125
2034,39.38,2022-10-26 10:58:20.593750
2035,40.03,2022-10-26 10:58:20.609375
2036,40.9,2022-10-26 10:58:20.625000
2037,41.89,2022-10-26 10:58:20.640625
2038,42.85,2022-10-26 10:58:20.656250
2039,43.68,2022-10-26 10:58:20.671875
2040,44.37,2022-10-26 10:58:20.687500
2041,44.99,2022-10-26 10:58:20.703125
2042,45.61,2022-10-26 10:58:20.718750
2043,46.2,2022-10-26 10:58:20.734375
2044,46.52,2022-10-26 10:58:20.750000
2045,46.2,2022-10-26 10:58:20.765625
2046,44.87,2022-10-26 10:58:20.781250
2047,42.29,2022-10-26 10:58:20.796875
2048,38.51,2022-10-26 10:58:20.812500
2049,33.89,2022-10-26 10:58:20.828125
2050,28.85,2022-10-26 10:58:20.843750
2051,23.74,2022-10-26 10:58:20.859375
2052,18.66,2022-10-26 10:58:20.875000
2053,13.56,2022-10-26 10:58:20.890625
2054,8.26,2022-10-26 10:58:20.906250
2055,2.65,2022-10-26 10:58:20.921875
2056,-3.14,2022-10-26 10:58:20.937500
2057,-8.78,2022-10-26 10:58:20.953125
2058,-13.91,2022-10-26 10:58:20.968750
2059,-18.25,2022-10-26 10:58:20.984375
2060,-21.82,2022-10-26 10:58:21.000000
2061,-24.93,2022-10-26 10:58:21.015625
2062,-28.13,2022-10-26 10:58:21.031250
2063,-31.93,2022-10-26 10:58:21.046875
2064,-36.52,2022-10-26 10:58:21.062500
2065,-41.67,2022-10-26 10:58:21.078125
2066,-46.84,2022-10-26 10:58:21.093750
2067,-51.34,2022-10-26 10:58:21.109375
2068,-54.75,2022-10-26 10:58:21.125000
2069,-57.14,2022-10-26 10:58:21.140625
2070,-59.06,2022-10-26 10:58:21.156250
2071,-61.46,2022-10-26 10:58:21.171875
2072,-65.35,2022-10-26 10:58:21.187500
2073,-71.43,2022-10-26 10:58:21.203125
2074,-79.71,2022-10-26 10:58:21.218750
2075,-89.24,2022-10-26 10:58:21.234375
2076,-98.12,2022-10-26 10:58:21.250000
2077,-103.73,2022-10-26 10:58:21.265625
2078,-103.52,2022-10-26 10:58:21.281250
2079,-95.82,2022-10-26 10:58:21.296875
2080,-80.62,2022-10-26 10:58:21.312500
2081,-59.65,2022-10-26 10:58:21.328125
2082,-35.96,2022-10-26 10:58:21.343750
2083,-12.93,2022-10-26 10:58:21.359375
2084,6.79,2022-10-26 10:58:21.375000
2085,21.99,2022-10-26 10:58:21.390625
2086,32.87,2022-10-26 10:58:21.406250
2087,40.58,2022-10-26 10:58:21.421875
2088,46.47,2022-10-26 10:58:21.437500
2089,51.5,2022-10-26 10:58:21.453125
2090,56.03,2022-10-26 10:58:21.468750
2091,59.9,2022-10-26 10:58:21.484375
2092,62.79,2022-10-26 10:58:21.500000
2093,64.42,2022-10-26 10:58:21.515625
2094,64.72,2022-10-26 10:58:21.531250
2095,63.76,2022-10-26 10:58:21.546875
2096,61.76,2022-10-26 10:58:21.562500
2097,58.96,2022-10-26 10:58:21.578125
2098,55.66,2022-10-26 10:58:21.593750
2099,52.2,2022-10-26 10:58:21.609375
2100,48.99,2022-10-26 10:58:21.625000
2101,46.35,2022-10-26 10:58:21.640625
2102,44.46,2022-10-26 10:58:21.656250
2103,43.19,2022-10-26 10:58:21.671875
2104,42.17,2022-10-26 10:58:21.687500
2105,40.87,2022-10-26 10:58:21.703125
2106,38.81,2022-10-26 10:58:21.718750
2107,35.74,2022-10-26 10:58:21.734375
2108,31.66,2022-10-26 10:58:21.750000
2109,26.86,2022-10-26 10:58:21.765625
2110,21.72,2022-10-26 10:58:21.781250
2111,16.63,2022-10-26 10:58:21.796875
2112,11.87,2022-10-26 10:58:21.812500
2113,7.67,2022-10-26 10:58:21.828125
2114,4.18,2022-10-26 10:58:21.843750
2115,1.45,2022-10-26 10:58:21.859375
2116,-0.55,2022-10-26 10:58:21.875000
2117,-2.0,2022-10-26 10:58:21.890625
2118,-3.24,2022-10-26 10:58:21.906250
2119,-4.71,2022-10-26 10:58:21.921875
2120,-6.7,2022-10-26 10:58:21.937500
2121,-9.34,2022-10-26 10:58:21.953125
2122,-12.51,2022-10-26 10:58:21.968750
2123,-16.01,2022-10-26 10:58:21.984375
2124,-19.7,2022-10-26 10:58:22.000000
2125,-23.63,2022-10-26 10:58:22.015625
2126,-28.06,2022-10-26 10:58:22.031250
2127,-33.2,2022-10-26 10:58:22.046875
2128,-39.06,2022-10-26 10:58:22.062500
2129,-45.22,2022-10-26 10:58:22.078125
2130,-50.95,2022-10-26 10:58:22.093750
2131,-55.39,2022-10-26 10:58:22.109375
2132,-57.98,2022-10-26 10:58:22.125000
2133,-58.67,2022-10-26 10:58:22.140625
2134,-58.0,2022-10-26 10:58:22.156250
2135,-56.99,2022-10-26 10:58:22.171875
2136,-56.92,2022-10-26 10:58:22.187500
2137,-58.98,2022-10-26 10:58:22.203125
2138,-63.93,2022-10-26 10:58:22.218750
2139,-71.72,2022-10-26 10:58:22.234375
2140,-81.12,2022-10-26 10:58:22.250000
2141,-89.74,2022-10-26 10:58:22.265625
2142,-94.51,2022-10-26 10:58:22.281250
2143,-92.61,2022-10-26 10:58:22.296875
2144,-82.55,2022-10-26 10:58:22.312500
2145,-64.91,2022-10-26 10:58:22.328125
2146,-42.27,2022-10-26 10:58:22.343750
2147,-18.38,2022-10-26 10:58:22.359375
2148,3.19,2022-10-26 10:58:22.375000
2149,20.17,2022-10-26 10:58:22.390625
2150,32.03,2022-10-26 10:58:22.406250
2151,39.66,2022-10-26 10:58:22.421875
2152,44.55,2022-10-26 10:58:22.437500
2153,47.99,2022-10-26 10:58:22.453125
2154,50.66,2022-10-26 10:58:22.468750
2155,52.74,2022-10-26 10:58:22.484375
2156,54.14,2022-10-26 10:58:22.500000
2157,54.87,2022-10-26 10:58:22.515625
2158,55.06,2022-10-26 10:58:22.531250
2159,54.9,2022-10-26 10:58:22.546875
2160,54.41,2022-10-26 10:58:22.562500
2161,53.51,2022-10-26 10:58:22.578125
2162,52.0,2022-10-26 10:58:22.593750
2163,49.8,2022-10-26 10:58:22.609375
2164,47.12,2022-10-26 10:58:22.625000
2165,44.37,2022-10-26 10:58:22.640625
2166,42.08,2022-10-26 10:58:22.656250
2167,40.61,2022-10-26 10:58:22.671875
2168,39.95,2022-10-26 10:58:22.687500
2169,39.75,2022-10-26 10:58:22.703125
2170,39.36,2022-10-26 10:58:22.718750
2171,38.11,2022-10-26 10:58:22.734375
2172,35.5,2022-10-26 10:58:22.750000
2173,31.45,2022-10-26 10:58:22.765625
2174,26.18,2022-10-26 10:58:22.781250
2175,20.21,2022-10-26 10:58:22.796875
2176,14.13,2022-10-26 10:58:22.812500
2177,8.33,2022-10-26 10:58:22.828125
2178,3.03,2022-10-26 10:58:22.843750
2179,-1.87,2022-10-26 10:58:22.859375
2180,-6.57,2022-10-26 10:58:22.875000
2181,-11.37,2022-10-26 10:58:22.890625
2182,-16.35,2022-10-26 10:58:22.906250
2183,-21.53,2022-10-26 10:58:22.921875
2184,-26.76,2022-10-26 10:58:22.937500
2185,-31.91,2022-10-26 10:58:22.953125
2186,-36.97,2022-10-26 10:58:22.968750
2187,-42.05,2022-10-26 10:58:22.984375
2188,-47.42,2022-10-26 10:58:23.000000
2189,-53.3,2022-10-26 10:58:23.015625
2190,-59.85,2022-10-26 10:58:23.031250
2191,-66.98,2022-10-26 10:58:23.046875
2192,-74.4,2022-10-26 10:58:23.062500
2193,-81.7,2022-10-26 10:58:23.078125
2194,-88.46,2022-10-26 10:58:23.093750
2195,-94.49,2022-10-26 10:58:23.109375
2196,-99.95,2022-10-26 10:58:23.125000
2197,-105.37,2022-10-26 10:58:23.140625
2198,-111.45,2022-10-26 10:58:23.156250
2199,-118.88,2022-10-26 10:58:23.171875
2200,-127.9,2022-10-26 10:58:23.187500
2201,-138.01,2022-10-26 10:58:23.203125
2202,-147.8,2022-10-26 10:58:23.218750
2203,-155.15,2022-10-26 10:58:23.234375
2204,-157.74,2022-10-26 10:58:23.250000
2205,-153.79,2022-10-26 10:58:23.265625
2206,-142.64,2022-10-26 10:58:23.281250
2207,-124.98,2022-10-26 10:58:23.296875
2208,-102.74,2022-10-26 10:58:23.312500
2209,-78.46,2022-10-26 10:58:23.328125
2210,-54.64,2022-10-26 10:58:23.343750
2211,-33.13,2022-10-26 10:58:23.359375
2212,-14.85,2022-10-26 10:58:23.375000
2213,0.22,2022-10-26 10:58:23.390625
2214,12.75,2022-10-26 10:58:23.406250
2215,23.69,2022-10-26 10:58:23.421875
2216,33.82,2022-10-26 10:58:23.437500
2217,43.45,2022-10-26 10:58:23.453125
2218,52.36,2022-10-26 10:58:23.468750
2219,60.01,2022-10-26 10:58:23.484375
2220,65.87,2022-10-26 10:58:23.500000
2221,69.79,2022-10-26 10:58:23.515625
2222,72.16,2022-10-26 10:58:23.531250
2223,73.76,2022-10-26 10:58:23.546875
2224,75.37,2022-10-26 10:58:23.562500
2225,77.42,2022-10-26 10:58:23.578125
2226,79.83,2022-10-26 10:58:23.593750
2227,82.19,2022-10-26 10:58:23.609375
2228,84.04,2022-10-26 10:58:23.625000
2229,85.12,2022-10-26 10:58:23.640625
2230,85.55,2022-10-26 10:58:23.656250
2231,85.58,2022-10-26 10:58:23.671875
2232,85.44,2022-10-26 10:58:23.687500
2233,85.08,2022-10-26 10:58:23.703125
2234,84.27,2022-10-26 10:58:23.718750
2235,82.7,2022-10-26 10:58:23.734375
2236,80.28,2022-10-26 10:58:23.750000
2237,77.2,2022-10-26 10:58:23.765625
2238,73.86,2022-10-26 10:58:23.781250
2239,70.7,2022-10-26 10:58:23.796875
2240,67.98,2022-10-26 10:58:23.812500
2241,65.6,2022-10-26 10:58:23.828125
2242,63.24,2022-10-26 10:58:23.843750
2243,60.44,2022-10-26 10:58:23.859375
2244,56.83,2022-10-26 10:58:23.875000
2245,52.19,2022-10-26 10:58:23.890625
2246,46.5,2022-10-26 10:58:23.906250
2247,39.84,2022-10-26 10:58:23.921875
2248,32.33,2022-10-26 10:58:23.937500
2249,24.05,2022-10-26 10:58:23.953125
2250,15.13,2022-10-26 10:58:23.968750
2251,5.69,2022-10-26 10:58:23.984375
2252,-4.05,2022-10-26 10:58:24.000000
2253,-13.79,2022-10-26 10:58:24.015625
2254,-23.24,2022-10-26 10:58:24.031250
2255,-32.2,2022-10-26 10:58:24.046875
2256,-40.72,2022-10-26 10:58:24.062500
2257,-49.14,2022-10-26 10:58:24.078125
2258,-58.12,2022-10-26 10:58:24.093750
2259,-68.35,2022-10-26 10:58:24.109375
2260,-80.17,2022-10-26 10:58:24.125000
2261,-93.06,2022-10-26 10:58:24.140625
2262,-105.43,2022-10-26 10:58:24.156250
2263,-114.81,2022-10-26 10:58:24.171875
2264,-118.54,2022-10-26 10:58:24.187500
2265,-114.7,2022-10-26 10:58:24.203125
2266,-102.92,2022-10-26 10:58:24.218750
2267,-84.6,2022-10-26 10:58:24.234375
2268,-62.54,2022-10-26 10:58:24.250000
2269,-40.02,2022-10-26 10:58:24.265625
2270,-19.82,2022-10-26 10:58:24.281250
2271,-3.59,2022-10-26 10:58:24.296875
2272,8.32,2022-10-26 10:58:24.312500
2273,16.44,2022-10-26 10:58:24.328125
2274,21.72,2022-10-26 10:58:24.343750
2275,25.07,2022-10-26 10:58:24.359375
2276,27.25,2022-10-26 10:58:24.375000
2277,28.85,2022-10-26 10:58:24.390625
2278,30.36,2022-10-26 10:58:24.406250
2279,32.16,2022-10-26 10:58:24.421875
2280,34.39,2022-10-26 10:58:24.437500
2281,36.86,2022-10-26 10:58:24.453125
2282,39.11,2022-10-26 10:58:24.468750
2283,40.6,2022-10-26 10:58:24.484375
2284,40.98,2022-10-26 10:58:24.500000
2285,40.3,2022-10-26 10:58:24.515625
2286,38.97,2022-10-26 10:58:24.531250
2287,37.54,2022-10-26 10:58:24.546875
2288,36.39,2022-10-26 10:58:24.562500
2289,35.55,2022-10-26 10:58:24.578125
2290,34.7,2022-10-26 10:58:24.593750
2291,33.4,2022-10-26 10:58:24.609375
2292,31.39,2022-10-26 10:58:24.625000
2293,28.74,2022-10-26 10:58:24.640625
2294,25.83,2022-10-26 10:58:24.656250
2295,23.14,2022-10-26 10:58:24.671875
2296,20.96,2022-10-26 10:58:24.687500
2297,19.22,2022-10-26 10:58:24.703125
2298,17.53,2022-10-26 10:58:24.718750
2299,15.33,2022-10-26 10:58:24.734375
2300,12.26,2022-10-26 10:58:24.750000
2301,8.24,2022-10-26 10:58:24.765625
2302,3.54,2022-10-26 10:58:24.781250
2303,-1.44,2022-10-26 10:58:24.796875
2304,-6.38,2022-10-26 10:58:24.812500
2305,-11.24,2022-10-26 10:58:24.828125
2306,-16.14,2022-10-26 10:58:24.843750
2307,-21.31,2022-10-26 10:58:24.859375
2308,-26.88,2022-10-26 10:58:24.875000
2309,-32.78,2022-10-26 10:58:24.890625
2310,-38.78,2022-10-26 10:58:24.906250
2311,-44.51,2022-10-26 10:58:24.921875
2312,-49.69,2022-10-26 10:58:24.937500
2313,-54.21,2022-10-26 10:58:24.953125
2314,-58.19,2022-10-26 10:58:24.968750
2315,-61.96,2022-10-26 10:58:24.984375
2316,-66.05,2022-10-26 10:58:25.000000
2317,-71.09,2022-10-26 10:58:25.015625
2318,-77.71,2022-10-26 10:58:25.031250
2319,-86.43,2022-10-26 10:58:25.046875
2320,-97.22,2022-10-26 10:58:25.062500
2321,-109.33,2022-10-26 10:58:25.078125
2322,-121.04,2022-10-26 10:58:25.093750
2323,-129.93,2022-10-26 10:58:25.109375
2324,-133.53,2022-10-26 10:58:25.125000
2325,-130.09,2022-10-26 10:58:25.140625
2326,-119.38,2022-10-26 10:58:25.156250
2327,-102.72,2022-10-26 10:58:25.171875
2328,-82.67,2022-10-26 10:58:25.187500
2329,-62.11,2022-10-26 10:58:25.203125
2330,-43.34,2022-10-26 10:58:25.218750
2331,-27.55,2022-10-26 10:58:25.234375
2332,-14.83,2022-10-26 10:58:25.250000
2333,-4.62,2022-10-26 10:58:25.265625
2334,3.8,2022-10-26 10:58:25.281250
2335,10.87,2022-10-26 10:58:25.296875
2336,16.73,2022-10-26 10:58:25.312500
2337,21.36,2022-10-26 10:58:25.328125
2338,24.81,2022-10-26 10:58:25.343750
2339,27.26,2022-10-26 10:58:25.359375
2340,29.07,2022-10-26 10:58:25.375000
2341,30.67,2022-10-26 10:58:25.390625
2342,32.38,2022-10-26 10:58:25.406250
2343,34.45,2022-10-26 10:58:25.421875
2344,37.0,2022-10-26 10:58:25.437500
2345,40.08,2022-10-26 10:58:25.453125
2346,43.66,2022-10-26 10:58:25.468750
2347,47.61,2022-10-26 10:58:25.484375
2348,51.56,2022-10-26 10:58:25.500000
2349,54.94,2022-10-26 10:58:25.515625
2350,57.08,2022-10-26 10:58:25.531250
2351,57.35,2022-10-26 10:58:25.546875
2352,55.46,2022-10-26 10:58:25.562500
2353,51.63,2022-10-26 10:58:25.578125
2354,46.55,2022-10-26 10:58:25.593750
2355,41.11,2022-10-26 10:58:25.609375
2356,36.1,2022-10-26 10:58:25.625000
2357,31.99,2022-10-26 10:58:25.640625
2358,28.76,2022-10-26 10:58:25.656250
2359,26.12,2022-10-26 10:58:25.671875
2360,23.67,2022-10-26 10:58:25.687500
2361,21.11,2022-10-26 10:58:25.703125
2362,18.33,2022-10-26 10:58:25.718750
2363,15.35,2022-10-26 10:58:25.734375
2364,12.24,2022-10-26 10:58:25.750000
2365,9.05,2022-10-26 10:58:25.765625
2366,5.75,2022-10-26 10:58:25.781250
2367,2.19,2022-10-26 10:58:25.796875
2368,-1.89,2022-10-26 10:58:25.812500
2369,-6.8,2022-10-26 10:58:25.828125
2370,-12.86,2022-10-26 10:58:25.843750
2371,-20.1,2022-10-26 10:58:25.859375
2372,-27.96,2022-10-26 10:58:25.875000
2373,-35.2,2022-10-26 10:58:25.890625
2374,-40.04,2022-10-26 10:58:25.906250
2375,-40.67,2022-10-26 10:58:25.921875
2376,-35.98,2022-10-26 10:58:25.937500
2377,-26.02,2022-10-26 10:58:25.953125
2378,-12.14,2022-10-26 10:58:25.968750
2379,3.45,2022-10-26 10:58:25.984375
2380,18.33,2022-10-26 10:58:26.000000
2381,30.61,2022-10-26 10:58:26.015625
2382,39.32,2022-10-26 10:58:26.031250
2383,44.41,2022-10-26 10:58:26.046875
2384,46.45,2022-10-26 10:58:26.062500
2385,46.29,2022-10-26 10:58:26.078125
2386,44.75,2022-10-26 10:58:26.093750
2387,42.52,2022-10-26 10:58:26.109375
2388,40.17,2022-10-26 10:58:26.125000
2389,38.18,2022-10-26 10:58:26.140625
2390,36.94,2022-10-26 10:58:26.156250
2391,36.74,2022-10-26 10:58:26.171875
2392,37.67,2022-10-26 10:58:26.187500
2393,39.56,2022-10-26 10:58:26.203125
2394,42.02,2022-10-26 10:58:26.218750
2395,44.57,2022-10-26 10:58:26.234375
2396,46.78,2022-10-26 10:58:26.250000
2397,48.37,2022-10-26 10:58:26.265625
2398,49.19,2022-10-26 10:58:26.281250
2399,49.13,2022-10-26 10:58:26.296875
2400,48.0,2022-10-26 10:58:26.312500
2401,45.44,2022-10-26 10:58:26.328125
2402,41.04,2022-10-26 10:58:26.343750
2403,34.54,2022-10-26 10:58:26.359375
2404,26.04,2022-10-26 10:58:26.375000
2405,16.11,2022-10-26 10:58:26.390625
2406,5.71,2022-10-26 10:58:26.406250
2407,-4.03,2022-10-26 10:58:26.421875
2408,-12.26,2022-10-26 10:58:26.437500
2409,-18.62,2022-10-26 10:58:26.453125
2410,-23.42,2022-10-26 10:58:26.468750
2411,-27.59,2022-10-26 10:58:26.484375
2412,-32.36,2022-10-26 10:58:26.500000
2413,-38.86,2022-10-26 10:58:26.515625
2414,-47.68,2022-10-26 10:58:26.531250
2415,-58.54,2022-10-26 10:58:26.546875
2416,-70.17,2022-10-26 10:58:26.562500
2417,-80.5,2022-10-26 10:58:26.578125
2418,-87.13,2022-10-26 10:58:26.593750
2419,-88.04,2022-10-26 10:58:26.609375
2420,-82.18,2022-10-26 10:58:26.625000
2421,-69.86,2022-10-26 10:58:26.640625
2422,-52.65,2022-10-26 10:58:26.656250
2423,-32.98,2022-10-26 10:58:26.671875
2424,-13.45,2022-10-26 10:58:26.687500
2425,3.86,2022-10-26 10:58:26.703125
2426,17.67,2022-10-26 10:58:26.718750
2427,27.54,2022-10-26 10:58:26.734375
2428,33.71,2022-10-26 10:58:26.750000
2429,36.71,2022-10-26 10:58:26.765625
2430,37.21,2022-10-26 10:58:26.781250
2431,35.82,2022-10-26 10:58:26.796875
2432,33.14,2022-10-26 10:58:26.812500
2433,29.64,2022-10-26 10:58:26.828125
2434,25.77,2022-10-26 10:58:26.843750
2435,21.82,2022-10-26 10:58:26.859375
2436,18.03,2022-10-26 10:58:26.875000
2437,14.62,2022-10-26 10:58:26.890625
2438,11.84,2022-10-26 10:58:26.906250
2439,10.0,2022-10-26 10:58:26.921875
2440,9.31,2022-10-26 10:58:26.937500
2441,9.88,2022-10-26 10:58:26.953125
2442,11.51,2022-10-26 10:58:26.968750
2443,13.87,2022-10-26 10:58:26.984375
2444,16.32,2022-10-26 10:58:27.000000
2445,18.15,2022-10-26 10:58:27.015625
2446,18.63,2022-10-26 10:58:27.031250
2447,17.21,2022-10-26 10:58:27.046875
2448,13.65,2022-10-26 10:58:27.062500
2449,8.14,2022-10-26 10:58:27.078125
2450,1.3,2022-10-26 10:58:27.093750
2451,-6.01,2022-10-26 10:58:27.109375
2452,-13.02,2022-10-26 10:58:27.125000
2453,-19.34,2022-10-26 10:58:27.140625
2454,-25.07,2022-10-26 10:58:27.156250
2455,-30.78,2022-10-26 10:58:27.171875
2456,-37.34,2022-10-26 10:58:27.187500
2457,-45.49,2022-10-26 10:58:27.203125
2458,-55.56,2022-10-26 10:58:27.218750
2459,-67.2,2022-10-26 10:58:27.234375
2460,-79.26,2022-10-26 10:58:27.250000
2461,-89.84,2022-10-26 10:58:27.265625
2462,-96.72,2022-10-26 10:58:27.281250
2463,-97.94,2022-10-26 10:58:27.296875
2464,-92.46,2022-10-26 10:58:27.312500
2465,-80.71,2022-10-26 10:58:27.328125
2466,-64.53,2022-10-26 10:58:27.343750
2467,-46.63,2022-10-26 10:58:27.359375
2468,-29.77,2022-10-26 10:58:27.375000
2469,-15.92,2022-10-26 10:58:27.390625
2470,-5.85,2022-10-26 10:58:27.406250
2471,0.71,2022-10-26 10:58:27.421875
2472,4.65,2022-10-26 10:58:27.437500
2473,6.9,2022-10-26 10:58:27.453125
2474,8.04,2022-10-26 10:58:27.468750
2475,8.26,2022-10-26 10:58:27.484375
2476,7.55,2022-10-26 10:58:27.500000
2477,5.92,2022-10-26 10:58:27.515625
2478,3.55,2022-10-26 10:58:27.531250
2479,0.72,2022-10-26 10:58:27.546875
2480,-2.29,2022-10-26 10:58:27.562500
2481,-5.31,2022-10-26 10:58:27.578125
2482,-8.23,2022-10-26 10:58:27.593750
2483,-10.95,2022-10-26 10:58:27.609375
2484,-13.35,2022-10-26 10:58:27.625000
2485,-15.26,2022-10-26 10:58:27.640625
2486,-16.62,2022-10-26 10:58:27.656250
2487,-17.65,2022-10-26 10:58:27.671875
2488,-18.9,2022-10-26 10:58:27.687500
2489,-21.17,2022-10-26 10:58:27.703125
2490,-25.32,2022-10-26 10:58:27.718750
2491,-31.9,2022-10-26 10:58:27.734375
2492,-41.0,2022-10-26 10:58:27.750000
2493,-52.24,2022-10-26 10:58:27.765625
2494,-64.91,2022-10-26 10:58:27.781250
2495,-78.26,2022-10-26 10:58:27.796875
2496,-91.6,2022-10-26 10:58:27.812500
2497,-104.44,2022-10-26 10:58:27.828125
2498,-116.36,2022-10-26 10:58:27.843750
2499,-127.14,2022-10-26 10:58:27.859375
2500,-136.69,2022-10-26 10:58:27.875000
2501,-145.24,2022-10-26 10:58:27.890625
2502,-153.3,2022-10-26 10:58:27.906250
2503,-161.59,2022-10-26 10:58:27.921875
2504,-170.68,2022-10-26 10:58:27.937500
2505,-180.62,2022-10-26 10:58:27.953125
2506,-190.69,2022-10-26 10:58:27.968750
2507,-199.42,2022-10-26 10:58:27.984375
2508,-205.05,2022-10-26 10:58:28.000000
2509,-206.07,2022-10-26 10:58:28.015625
2510,-201.72,2022-10-26 10:58:28.031250
2511,-192.1,2022-10-26 10:58:28.046875
2512,-177.94,2022-10-26 10:58:28.062500
2513,-160.17,2022-10-26 10:58:28.078125
2514,-139.7,2022-10-26 10:58:28.093750
2515,-117.43,2022-10-26 10:58:28.109375
2516,-94.35,2022-10-26 10:58:28.125000
2517,-71.72,2022-10-26 10:58:28.140625
2518,-50.97,2022-10-26 10:58:28.156250
2519,-33.39,2022-10-26 10:58:28.171875
2520,-19.83,2022-10-26 10:58:28.187500
2521,-10.58,2022-10-26 10:58:28.203125
2522,-5.23,2022-10-26 10:58:28.218750
2523,-2.78,2022-10-26 10:58:28.234375
2524,-1.56,2022-10-26 10:58:28.250000
2525,0.63,2022-10-26 10:58:28.265625
2526,6.24,2022-10-26 10:58:28.281250
2527,17.44,2022-10-26 10:58:28.296875
2528,35.49,2022-10-26 10:58:28.312500
2529,60.18,2022-10-26 10:58:28.328125
2530,89.76,2022-10-26 10:58:28.343750
2531,121.27,2022-10-26 10:58:28.359375
2532,151.23,2022-10-26 10:58:28.375000
2533,176.38,2022-10-26 10:58:28.390625
2534,194.24,2022-10-26 10:58:28.406250
2535,203.42,2022-10-26 10:58:28.421875
2536,203.73,2022-10-26 10:58:28.437500
2537,196.25,2022-10-26 10:58:28.453125
2538,183.28,2022-10-26 10:58:28.468750
2539,168.07,2022-10-26 10:58:28.484375
2540,154.17,2022-10-26 10:58:28.500000
2541,144.44,2022-10-26 10:58:28.515625
2542,140.34,2022-10-26 10:58:28.531250
2543,141.55,2022-10-26 10:58:28.546875
2544,146.3,2022-10-26 10:58:28.562500
2545,152.34,2022-10-26 10:58:28.578125
2546,157.87,2022-10-26 10:58:28.593750
2547,162.15,2022-10-26 10:58:28.609375
2548,165.57,2022-10-26 10:58:28.625000
2549,168.71,2022-10-26 10:58:28.640625
2550,171.48,2022-10-26 10:58:28.656250
2551,172.48,2022-10-26 10:58:28.671875
2552,169.4,2022-10-26 10:58:28.687500
2553,160.33,2022-10-26 10:58:28.703125
2554,145.73,2022-10-26 10:58:28.718750
2555,129.27,2022-10-26 10:58:28.734375
2556,116.98,2022-10-26 10:58:28.750000
2557,114.59,2022-10-26 10:58:28.765625
2558,124.18,2022-10-26 10:58:28.781250
2559,141.96,2022-10-26 10:58:28.796875
2560,158.85,2022-10-26 10:58:28.812500
2561,163.89,2022-10-26 10:58:28.828125
2562,149.02,2022-10-26 10:58:28.843750
2563,112.75,2022-10-26 10:58:28.859375
2564,60.7,2022-10-26 10:58:28.875000
2565,2.87,2022-10-26 10:58:28.890625
2566,-50.74,2022-10-26 10:58:28.906250
2567,-93.84,2022-10-26 10:58:28.921875
2568,-124.98,2022-10-26 10:58:28.937500
2569,-146.06,2022-10-26 10:58:28.953125
2570,-159.76,2022-10-26 10:58:28.968750
2571,-167.54,2022-10-26 10:58:28.984375
2572,-169.32,2022-10-26 10:58:29.000000
2573,-164.61,2022-10-26 10:58:29.015625
2574,-153.8,2022-10-26 10:58:29.031250
2575,-138.72,2022-10-26 10:58:29.046875
2576,-122.14,2022-10-26 10:58:29.062500
2577,-106.5,2022-10-26 10:58:29.078125
2578,-93.0,2022-10-26 10:58:29.093750
2579,-81.26,2022-10-26 10:58:29.109375
2580,-69.82,2022-10-26 10:58:29.125000
2581,-57.16,2022-10-26 10:58:29.140625
2582,-42.59,2022-10-26 10:58:29.156250
2583,-26.64,2022-10-26 10:58:29.171875
2584,-10.89,2022-10-26 10:58:29.187500
2585,2.56,2022-10-26 10:58:29.203125
2586,12.12,2022-10-26 10:58:29.218750
2587,17.24,2022-10-26 10:58:29.234375
2588,18.69,2022-10-26 10:58:29.250000
2589,18.17,2022-10-26 10:58:29.265625
2590,17.69,2022-10-26 10:58:29.281250
2591,18.72,2022-10-26 10:58:29.296875
2592,21.77,2022-10-26 10:58:29.312500
2593,26.24,2022-10-26 10:58:29.328125
2594,30.84,2022-10-26 10:58:29.343750
2595,34.14,2022-10-26 10:58:29.359375
2596,35.09,2022-10-26 10:58:29.375000
2597,33.28,2022-10-26 10:58:29.390625
2598,28.91,2022-10-26 10:58:29.406250
2599,22.76,2022-10-26 10:58:29.421875
2600,15.88,2022-10-26 10:58:29.437500
2601,9.56,2022-10-26 10:58:29.453125
2602,5.08,2022-10-26 10:58:29.468750
2603,3.53,2022-10-26 10:58:29.484375
2604,5.6,2022-10-26 10:58:29.500000
2605,11.42,2022-10-26 10:58:29.515625
2606,20.44,2022-10-26 10:58:29.531250
2607,31.69,2022-10-26 10:58:29.546875
2608,43.98,2022-10-26 10:58:29.562500
2609,56.29,2022-10-26 10:58:29.578125
2610,68.01,2022-10-26 10:58:29.593750
2611,79.11,2022-10-26 10:58:29.609375
2612,89.85,2022-10-26 10:58:29.625000
2613,100.66,2022-10-26 10:58:29.640625
2614,111.74,2022-10-26 10:58:29.656250
2615,123.02,2022-10-26 10:58:29.671875
2616,134.19,2022-10-26 10:58:29.687500
2617,145.01,2022-10-26 10:58:29.703125
2618,155.51,2022-10-26 10:58:29.718750
2619,166.08,2022-10-26 10:58:29.734375
2620,177.21,2022-10-26 10:58:29.750000
2621,189.04,2022-10-26 10:58:29.765625
2622,201.02,2022-10-26 10:58:29.781250
2623,211.88,2022-10-26 10:58:29.796875
2624,220.0,2022-10-26 10:58:29.812500
2625,223.94,2022-10-26 10:58:29.828125
2626,222.83,2022-10-26 10:58:29.843750
2627,216.5,2022-10-26 10:58:29.859375
2628,205.36,2022-10-26 10:58:29.875000
2629,190.15,2022-10-26 10:58:29.890625
2630,171.97,2022-10-26 10:58:29.906250
2631,152.29,2022-10-26 10:58:29.921875
2632,132.87,2022-10-26 10:58:29.937500
2633,115.35,2022-10-26 10:58:29.953125
2634,100.69,2022-10-26 10:58:29.968750
2635,88.64,2022-10-26 10:58:29.984375
2636,77.67,2022-10-26 10:58:30.000000
2637,65.49,2022-10-26 10:58:30.015625
2638,50.07,2022-10-26 10:58:30.031250
2639,30.24,2022-10-26 10:58:30.046875
2640,6.06,2022-10-26 10:58:30.062500
2641,-21.62,2022-10-26 10:58:30.078125
2642,-52.04,2022-10-26 10:58:30.093750
2643,-85.17,2022-10-26 10:58:30.109375
2644,-122.06,2022-10-26 10:58:30.125000
2645,-164.15,2022-10-26 10:58:30.140625
2646,-212.16,2022-10-26 10:58:30.156250
2647,-264.99,2022-10-26 10:58:30.171875
2648,-319.42,2022-10-26 10:58:30.187500
2649,-370.68,2022-10-26 10:58:30.203125
2650,-413.88,2022-10-26 10:58:30.218750
2651,-445.37,2022-10-26 10:58:30.234375
2652,-463.74,2022-10-26 10:58:30.250000
2653,-469.56,2022-10-26 10:58:30.265625
2654,-464.57,2022-10-26 10:58:30.281250
2655,-450.74,2022-10-26 10:58:30.296875
2656,-429.72,2022-10-26 10:58:30.312500
2657,-403.02,2022-10-26 10:58:30.328125
2658,-372.38,2022-10-26 10:58:30.343750
2659,-340.12,2022-10-26 10:58:30.359375
2660,-308.73,2022-10-26 10:58:30.375000
2661,-280.22,2022-10-26 10:58:30.390625
2662,-255.32,2022-10-26 10:58:30.406250
2663,-233.26,2022-10-26 10:58:30.421875
2664,-212.24,2022-10-26 10:58:30.437500
2665,-190.29,2022-10-26 10:58:30.453125
2666,-166.22,2022-10-26 10:58:30.468750
2667,-140.0,2022-10-26 10:58:30.484375
2668,-112.62,2022-10-26 10:58:30.500000
2669,-85.61,2022-10-26 10:58:30.515625
2670,-60.19,2022-10-26 10:58:30.531250
2671,-36.86,2022-10-26 10:58:30.546875
2672,-15.16,2022-10-26 10:58:30.562500
2673,6.06,2022-10-26 10:58:30.578125
2674,28.29,2022-10-26 10:58:30.593750
2675,53.03,2022-10-26 10:58:30.609375
2676,81.34,2022-10-26 10:58:30.625000
2677,113.36,2022-10-26 10:58:30.640625
2678,147.81,2022-10-26 10:58:30.656250
2679,181.86,2022-10-26 10:58:30.671875
2680,211.53,2022-10-26 10:58:30.687500
2681,232.79,2022-10-26 10:58:30.703125
2682,243.01,2022-10-26 10:58:30.718750
2683,241.98,2022-10-26 10:58:30.734375
2684,232.04,2022-10-26 10:58:30.750000
2685,217.19,2022-10-26 10:58:30.765625
2686,201.49,2022-10-26 10:58:30.781250
2687,187.74,2022-10-26 10:58:30.796875
2688,176.88,2022-10-26 10:58:30.812500
2689,168.4,2022-10-26 10:58:30.828125
2690,161.29,2022-10-26 10:58:30.843750
2691,154.75,2022-10-26 10:58:30.859375
2692,148.53,2022-10-26 10:58:30.875000
2693,142.58,2022-10-26 10:58:30.890625
2694,136.64,2022-10-26 10:58:30.906250
2695,130.03,2022-10-26 10:58:30.921875
2696,122.03,2022-10-26 10:58:30.937500
2697,112.27,2022-10-26 10:58:30.953125
2698,101.13,2022-10-26 10:58:30.968750
2699,89.64,2022-10-26 10:58:30.984375
2700,79.15,2022-10-26 10:58:31.000000
2701,70.65,2022-10-26 10:58:31.015625
2702,64.38,2022-10-26 10:58:31.031250
2703,59.75,2022-10-26 10:58:31.046875
2704,55.64,2022-10-26 10:58:31.062500
2705,50.97,2022-10-26 10:58:31.078125
2706,45.19,2022-10-26 10:58:31.093750
2707,38.49,2022-10-26 10:58:31.109375
2708,31.66,2022-10-26 10:58:31.125000
2709,25.68,2022-10-26 10:58:31.140625
2710,21.25,2022-10-26 10:58:31.156250
2711,18.48,2022-10-26 10:58:31.171875
2712,16.82,2022-10-26 10:58:31.187500
2713,15.32,2022-10-26 10:58:31.203125
2714,12.98,2022-10-26 10:58:31.218750
2715,9.16,2022-10-26 10:58:31.234375
2716,3.85,2022-10-26 10:58:31.250000
2717,-2.2,2022-10-26 10:58:31.265625
2718,-7.74,2022-10-26 10:58:31.281250
2719,-11.34,2022-10-26 10:58:31.296875
2720,-11.94,2022-10-26 10:58:31.312500
2721,-9.23,2022-10-26 10:58:31.328125
2722,-3.67,2022-10-26 10:58:31.343750
2723,3.63,2022-10-26 10:58:31.359375
2724,11.36,2022-10-26 10:58:31.375000
2725,18.36,2022-10-26 10:58:31.390625
2726,24.02,2022-10-26 10:58:31.406250
2727,28.2,2022-10-26 10:58:31.421875
2728,31.08,2022-10-26 10:58:31.437500
2729,32.95,2022-10-26 10:58:31.453125
2730,34.04,2022-10-26 10:58:31.468750
2731,34.45,2022-10-26 10:58:31.484375
2732,34.22,2022-10-26 10:58:31.500000
2733,33.37,2022-10-26 10:58:31.515625
2734,31.96,2022-10-26 10:58:31.531250
2735,30.05,2022-10-26 10:58:31.546875
2736,27.78,2022-10-26 10:58:31.562500
2737,25.38,2022-10-26 10:58:31.578125
2738,23.16,2022-10-26 10:58:31.593750
2739,21.42,2022-10-26 10:58:31.609375
2740,20.45,2022-10-26 10:58:31.625000
2741,20.33,2022-10-26 10:58:31.640625
2742,20.94,2022-10-26 10:58:31.656250
2743,22.01,2022-10-26 10:58:31.671875
2744,23.13,2022-10-26 10:58:31.687500
2745,23.91,2022-10-26 10:58:31.703125
2746,24.13,2022-10-26 10:58:31.718750
2747,23.7,2022-10-26 10:58:31.734375
2748,22.71,2022-10-26 10:58:31.750000
2749,21.32,2022-10-26 10:58:31.765625
2750,19.76,2022-10-26 10:58:31.781250
2751,18.15,2022-10-26 10:58:31.796875
2752,16.54,2022-10-26 10:58:31.812500
2753,14.9,2022-10-26 10:58:31.828125
2754,13.14,2022-10-26 10:58:31.843750
2755,11.28,2022-10-26 10:58:31.859375
2756,9.41,2022-10-26 10:58:31.875000
2757,7.71,2022-10-26 10:58:31.890625
2758,6.35,2022-10-26 10:58:31.906250
2759,5.4,2022-10-26 10:58:31.921875
2760,4.74,2022-10-26 10:58:31.937500
2761,4.06,2022-10-26 10:58:31.953125
2762,2.91,2022-10-26 10:58:31.968750
2763,0.79,2022-10-26 10:58:31.984375
2764,-2.63,2022-10-26 10:58:32.000000
2765,-7.34,2022-10-26 10:58:32.015625
2766,-12.89,2022-10-26 10:58:32.031250
2767,-18.36,2022-10-26 10:58:32.046875
2768,-22.55,2022-10-26 10:58:32.062500
2769,-24.32,2022-10-26 10:58:32.078125
2770,-23.0,2022-10-26 10:58:32.093750
2771,-18.75,2022-10-26 10:58:32.109375
2772,-12.5,2022-10-26 10:58:32.125000
2773,-5.68,2022-10-26 10:58:32.140625
2774,0.27,2022-10-26 10:58:32.156250
2775,4.43,2022-10-26 10:58:32.171875
2776,6.6,2022-10-26 10:58:32.187500
2777,7.22,2022-10-26 10:58:32.203125
2778,7.07,2022-10-26 10:58:32.218750
2779,6.84,2022-10-26 10:58:32.234375
2780,6.96,2022-10-26 10:58:32.250000
2781,7.46,2022-10-26 10:58:32.265625
2782,8.14,2022-10-26 10:58:32.281250
2783,8.69,2022-10-26 10:58:32.296875
2784,8.93,2022-10-26 10:58:32.312500
2785,8.77,2022-10-26 10:58:32.328125
2786,8.36,2022-10-26 10:58:32.343750
2787,7.92,2022-10-26 10:58:32.359375
2788,7.7,2022-10-26 10:58:32.375000
2789,7.85,2022-10-26 10:58:32.390625
2790,8.36,2022-10-26 10:58:32.406250
2791,9.12,2022-10-26 10:58:32.421875
2792,9.97,2022-10-26 10:58:32.437500
2793,10.81,2022-10-26 10:58:32.453125
2794,11.59,2022-10-26 10:58:32.468750
2795,12.23,2022-10-26 10:58:32.484375
2796,12.58,2022-10-26 10:58:32.500000
2797,12.4,2022-10-26 10:58:32.515625
2798,11.46,2022-10-26 10:58:32.531250
2799,9.61,2022-10-26 10:58:32.546875
2800,6.93,2022-10-26 10:58:32.562500
2801,3.71,2022-10-26 10:58:32.578125
2802,0.4,2022-10-26 10:58:32.593750
2803,-2.61,2022-10-26 10:58:32.609375
2804,-5.14,2022-10-26 10:58:32.625000
2805,-7.23,2022-10-26 10:58:32.640625
2806,-9.15,2022-10-26 10:58:32.656250
2807,-11.23,2022-10-26 10:58:32.671875
2808,-13.71,2022-10-26 10:58:32.687500
2809,-16.68,2022-10-26 10:58:32.703125
2810,-20.06,2022-10-26 10:58:32.718750
2811,-23.66,2022-10-26 10:58:32.734375
2812,-27.18,2022-10-26 10:58:32.750000
2813,-30.25,2022-10-26 10:58:32.765625
2814,-32.35,2022-10-26 10:58:32.781250
2815,-32.9,2022-10-26 10:58:32.796875
2816,-31.39,2022-10-26 10:58:32.812500
2817,-27.55,2022-10-26 10:58:32.828125
2818,-21.55,2022-10-26 10:58:32.843750
2819,-14.01,2022-10-26 10:58:32.859375
2820,-5.89,2022-10-26 10:58:32.875000
2821,1.85,2022-10-26 10:58:32.890625
2822,8.48,2022-10-26 10:58:32.906250
2823,13.7,2022-10-26 10:58:32.921875
2824,17.6,2022-10-26 10:58:32.937500
2825,20.48,2022-10-26 10:58:32.953125
2826,22.72,2022-10-26 10:58:32.968750
2827,24.51,2022-10-26 10:58:32.984375
2828,25.92,2022-10-26 10:58:33.000000
2829,26.84,2022-10-26 10:58:33.015625
2830,27.19,2022-10-26 10:58:33.031250
2831,26.91,2022-10-26 10:58:33.046875
2832,26.06,2022-10-26 10:58:33.062500
2833,24.83,2022-10-26 10:58:33.078125
2834,23.47,2022-10-26 10:58:33.093750
2835,22.24,2022-10-26 10:58:33.109375
2836,21.34,2022-10-26 10:58:33.125000
2837,20.89,2022-10-26 10:58:33.140625
2838,20.88,2022-10-26 10:58:33.156250
2839,21.26,2022-10-26 10:58:33.171875
2840,21.91,2022-10-26 10:58:33.187500
2841,22.68,2022-10-26 10:58:33.203125
2842,23.44,2022-10-26 10:58:33.218750
2843,24.04,2022-10-26 10:58:33.234375
2844,24.41,2022-10-26 10:58:33.250000
2845,24.46,2022-10-26 10:58:33.265625
2846,24.16,2022-10-26 10:58:33.281250
2847,23.52,2022-10-26 10:58:33.296875
2848,22.59,2022-10-26 10:58:33.312500
2849,21.48,2022-10-26 10:58:33.328125
2850,20.31,2022-10-26 10:58:33.343750
2851,19.18,2022-10-26 10:58:33.359375
2852,18.08,2022-10-26 10:58:33.375000
2853,16.93,2022-10-26 10:58:33.390625
2854,15.62,2022-10-26 10:58:33.406250
2855,14.06,2022-10-26 10:58:33.421875
2856,12.25,2022-10-26 10:58:33.437500
2857,10.3,2022-10-26 10:58:33.453125
2858,8.34,2022-10-26 10:58:33.468750
2859,6.5,2022-10-26 10:58:33.484375
2860,4.8,2022-10-26 10:58:33.500000
2861,3.13,2022-10-26 10:58:33.515625
2862,1.36,2022-10-26 10:58:33.531250
2863,-0.64,2022-10-26 10:58:33.546875
2864,-2.9,2022-10-26 10:58:33.562500
2865,-5.33,2022-10-26 10:58:33.578125
2866,-7.79,2022-10-26 10:58:33.593750
2867,-10.09,2022-10-26 10:58:33.609375
2868,-12.13,2022-10-26 10:58:33.625000
2869,-13.89,2022-10-26 10:58:33.640625
2870,-15.42,2022-10-26 10:58:33.656250
2871,-16.76,2022-10-26 10:58:33.671875
2872,-18.02,2022-10-26 10:58:33.687500
2873,-19.26,2022-10-26 10:58:33.703125
2874,-20.53,2022-10-26 10:58:33.718750
2875,-21.91,2022-10-26 10:58:33.734375
2876,-23.48,2022-10-26 10:58:33.750000
2877,-25.36,2022-10-26 10:58:33.765625
2878,-27.63,2022-10-26 10:58:33.781250
2879,-30.42,2022-10-26 10:58:33.796875
2880,-33.81,2022-10-26 10:58:33.812500
2881,-37.83,2022-10-26 10:58:33.828125
2882,-42.37,2022-10-26 10:58:33.843750
2883,-47.04,2022-10-26 10:58:33.859375
2884,-51.17,2022-10-26 10:58:33.875000
2885,-53.89,2022-10-26 10:58:33.890625
2886,-54.37,2022-10-26 10:58:33.906250
2887,-52.16,2022-10-26 10:58:33.921875
2888,-47.41,2022-10-26 10:58:33.937500
2889,-40.86,2022-10-26 10:58:33.953125
2890,-33.62,2022-10-26 10:58:33.968750
2891,-26.79,2022-10-26 10:58:33.984375
2892,-21.07,2022-10-26 10:58:34.000000
2893,-16.63,2022-10-26 10:58:34.015625
2894,-13.22,2022-10-26 10:58:34.031250
2895,-10.36,2022-10-26 10:58:34.046875
2896,-7.69,2022-10-26 10:58:34.062500
2897,-5.01,2022-10-26 10:58:34.078125
2898,-2.4,2022-10-26 10:58:34.093750
2899,0.0,2022-10-26 10:58:34.109375
2900,2.13,2022-10-26 10:58:34.125000
2901,4.0,2022-10-26 10:58:34.140625
2902,5.6,2022-10-26 10:58:34.156250
2903,6.89,2022-10-26 10:58:34.171875
2904,7.69,2022-10-26 10:58:34.187500
2905,7.83,2022-10-26 10:58:34.203125
2906,7.25,2022-10-26 10:58:34.218750
2907,6.1,2022-10-26 10:58:34.234375
2908,4.74,2022-10-26 10:58:34.250000
2909,3.67,2022-10-26 10:58:34.265625
2910,3.37,2022-10-26 10:58:34.281250
2911,4.16,2022-10-26 10:58:34.296875
2912,6.22,2022-10-26 10:58:34.312500
2913,9.47,2022-10-26 10:58:34.328125
2914,13.67,2022-10-26 10:58:34.343750
2915,18.4,2022-10-26 10:58:34.359375
2916,23.13,2022-10-26 10:58:34.375000
2917,27.32,2022-10-26 10:58:34.390625
2918,30.5,2022-10-26 10:58:34.406250
2919,32.35,2022-10-26 10:58:34.421875
2920,32.82,2022-10-26 10:58:34.437500
2921,32.02,2022-10-26 10:58:34.453125
2922,30.19,2022-10-26 10:58:34.468750
2923,27.65,2022-10-26 10:58:34.484375
2924,24.67,2022-10-26 10:58:34.500000
2925,21.48,2022-10-26 10:58:34.515625
2926,18.24,2022-10-26 10:58:34.531250
2927,15.07,2022-10-26 10:58:34.546875
2928,12.04,2022-10-26 10:58:34.562500
2929,9.2,2022-10-26 10:58:34.578125
2930,6.63,2022-10-26 10:58:34.593750
2931,4.39,2022-10-26 10:58:34.609375
2932,2.5,2022-10-26 10:58:34.625000
2933,0.9,2022-10-26 10:58:34.640625
2934,-0.56,2022-10-26 10:58:34.656250
2935,-2.02,2022-10-26 10:58:34.671875
2936,-3.59,2022-10-26 10:58:34.687500
2937,-5.22,2022-10-26 10:58:34.703125
2938,-6.76,2022-10-26 10:58:34.718750
2939,-8.0,2022-10-26 10:58:34.734375
2940,-8.76,2022-10-26 10:58:34.750000
2941,-8.98,2022-10-26 10:58:34.765625
2942,-8.71,2022-10-26 10:58:34.781250
2943,-8.15,2022-10-26 10:58:34.796875
2944,-7.54,2022-10-26 10:58:34.812500
2945,-7.14,2022-10-26 10:58:34.828125
2946,-7.16,2022-10-26 10:58:34.843750
2947,-7.79,2022-10-26 10:58:34.859375
2948,-9.09,2022-10-26 10:58:34.875000
2949,-11.1,2022-10-26 10:58:34.890625
2950,-13.74,2022-10-26 10:58:34.906250
2951,-16.85,2022-10-26 10:58:34.921875
2952,-20.12,2022-10-26 10:58:34.937500
2953,-23.04,2022-10-26 10:58:34.953125
2954,-24.96,2022-10-26 10:58:34.968750
2955,-25.21,2022-10-26 10:58:34.984375
2956,-23.37,2022-10-26 10:58:35.000000
2957,-19.44,2022-10-26 10:58:35.015625
2958,-14.03,2022-10-26 10:58:35.031250
2959,-8.08,2022-10-26 10:58:35.046875
2960,-2.63,2022-10-26 10:58:35.062500
2961,1.59,2022-10-26 10:58:35.078125
2962,4.32,2022-10-26 10:58:35.093750
2963,5.77,2022-10-26 10:58:35.109375
2964,6.39,2022-10-26 10:58:35.125000
2965,6.64,2022-10-26 10:58:35.140625
2966,6.69,2022-10-26 10:58:35.156250
2967,6.5,2022-10-26 10:58:35.171875
2968,5.91,2022-10-26 10:58:35.187500
2969,4.76,2022-10-26 10:58:35.203125
2970,3.11,2022-10-26 10:58:35.218750
2971,1.25,2022-10-26 10:58:35.234375
2972,-0.43,2022-10-26 10:58:35.250000
2973,-1.54,2022-10-26 10:58:35.265625
2974,-1.81,2022-10-26 10:58:35.281250
2975,-1.2,2022-10-26 10:58:35.296875
2976,0.11,2022-10-26 10:58:35.312500
2977,1.85,2022-10-26 10:58:35.328125
2978,3.71,2022-10-26 10:58:35.343750
2979,5.46,2022-10-26 10:58:35.359375
2980,6.98,2022-10-26 10:58:35.375000
2981,8.28,2022-10-26 10:58:35.390625
2982,9.42,2022-10-26 10:58:35.406250
2983,10.45,2022-10-26 10:58:35.421875
2984,11.41,2022-10-26 10:58:35.437500
2985,12.18,2022-10-26 10:58:35.453125
2986,12.6,2022-10-26 10:58:35.468750
2987,12.41,2022-10-26 10:58:35.484375
2988,11.42,2022-10-26 10:58:35.500000
2989,9.57,2022-10-26 10:58:35.515625
2990,6.85,2022-10-26 10:58:35.531250
2991,3.44,2022-10-26 10:58:35.546875
2992,-0.45,2022-10-26 10:58:35.562500
2993,-4.52,2022-10-26 10:58:35.578125
2994,-8.51,2022-10-26 10:58:35.593750
2995,-12.16,2022-10-26 10:58:35.609375
2996,-15.38,2022-10-26 10:58:35.625000
2997,-18.27,2022-10-26 10:58:35.640625
2998,-21.13,2022-10-26 10:58:35.656250
2999,-24.36,2022-10-26 10:58:35.671875
3000,-28.18,2022-10-26 10:58:35.687500
3001,-32.53,2022-10-26 10:58:35.703125
3002,-36.86,2022-10-26 10:58:35.718750
3003,-40.34,2022-10-26 10:58:35.734375
3004,-42.06,2022-10-26 10:58:35.750000
3005,-41.44,2022-10-26 10:58:35.765625
3006,-38.47,2022-10-26 10:58:35.781250
3007,-33.62,2022-10-26 10:58:35.796875
3008,-27.69,2022-10-26 10:58:35.812500
3009,-21.39,2022-10-26 10:58:35.828125
3010,-15.07,2022-10-26 10:58:35.843750
3011,-8.76,2022-10-26 10:58:35.859375
3012,-2.24,2022-10-26 10:58:35.875000
3013,4.61,2022-10-26 10:58:35.890625
3014,11.63,2022-10-26 10:58:35.906250
3015,18.32,2022-10-26 10:58:35.921875
3016,24.03,2022-10-26 10:58:35.937500
3017,28.09,2022-10-26 10:58:35.953125
3018,30.08,2022-10-26 10:58:35.968750
3019,29.91,2022-10-26 10:58:35.984375
3020,27.8,2022-10-26 10:58:36.000000
3021,24.2,2022-10-26 10:58:36.015625
3022,19.75,2022-10-26 10:58:36.031250
3023,15.17,2022-10-26 10:58:36.046875
3024,11.15,2022-10-26 10:58:36.062500
3025,8.26,2022-10-26 10:58:36.078125
3026,6.77,2022-10-26 10:58:36.093750
3027,6.65,2022-10-26 10:58:36.109375
3028,7.6,2022-10-26 10:58:36.125000
3029,9.17,2022-10-26 10:58:36.140625
3030,10.89,2022-10-26 10:58:36.156250
3031,12.4,2022-10-26 10:58:36.171875
3032,13.47,2022-10-26 10:58:36.187500
3033,14.0,2022-10-26 10:58:36.203125
3034,13.96,2022-10-26 10:58:36.218750
3035,13.29,2022-10-26 10:58:36.234375
3036,11.99,2022-10-26 10:58:36.250000
3037,10.08,2022-10-26 10:58:36.265625
3038,7.68,2022-10-26 10:58:36.281250
3039,4.99,2022-10-26 10:58:36.296875
3040,2.21,2022-10-26 10:58:36.312500
3041,-0.48,2022-10-26 10:58:36.328125
3042,-3.01,2022-10-26 10:58:36.343750
3043,-5.47,2022-10-26 10:58:36.359375
3044,-7.97,2022-10-26 10:58:36.375000
3045,-10.6,2022-10-26 10:58:36.390625
3046,-13.39,2022-10-26 10:58:36.406250
3047,-16.28,2022-10-26 10:58:36.421875
3048,-19.13,2022-10-26 10:58:36.437500
3049,-21.77,2022-10-26 10:58:36.453125
3050,-23.99,2022-10-26 10:58:36.468750
3051,-25.47,2022-10-26 10:58:36.484375
3052,-25.76,2022-10-26 10:58:36.500000
3053,-24.47,2022-10-26 10:58:36.515625
3054,-21.38,2022-10-26 10:58:36.531250
3055,-16.62,2022-10-26 10:58:36.546875
3056,-10.7,2022-10-26 10:58:36.562500
3057,-4.41,2022-10-26 10:58:36.578125
3058,1.37,2022-10-26 10:58:36.593750
3059,6.08,2022-10-26 10:58:36.609375
3060,9.53,2022-10-26 10:58:36.625000
3061,11.91,2022-10-26 10:58:36.640625
3062,13.64,2022-10-26 10:58:36.656250
3063,15.1,2022-10-26 10:58:36.671875
3064,16.47,2022-10-26 10:58:36.687500
3065,17.73,2022-10-26 10:58:36.703125
3066,18.79,2022-10-26 10:58:36.718750
3067,19.57,2022-10-26 10:58:36.734375
3068,20.09,2022-10-26 10:58:36.750000
3069,20.42,2022-10-26 10:58:36.765625
3070,20.62,2022-10-26 10:58:36.781250
3071,20.68,2022-10-26 10:58:36.796875
3072,20.56,2022-10-26 10:58:36.812500
3073,20.27,2022-10-26 10:58:36.828125
3074,19.91,2022-10-26 10:58:36.843750
3075,19.63,2022-10-26 10:58:36.859375
3076,19.58,2022-10-26 10:58:36.875000
3077,19.77,2022-10-26 10:58:36.890625
3078,20.09,2022-10-26 10:58:36.906250
3079,20.37,2022-10-26 10:58:36.921875
3080,20.45,2022-10-26 10:58:36.937500
3081,20.25,2022-10-26 10:58:36.953125
3082,19.77,2022-10-26 10:58:36.968750
3083,19.01,2022-10-26 10:58:36.984375
3084,17.98,2022-10-26 10:58:37.000000
3085,16.65,2022-10-26 10:58:37.015625
3086,15.04,2022-10-26 10:58:37.031250
3087,13.26,2022-10-26 10:58:37.046875
3088,11.47,2022-10-26 10:58:37.062500
3089,9.82,2022-10-26 10:58:37.078125
3090,8.34,2022-10-26 10:58:37.093750
3091,6.92,2022-10-26 10:58:37.109375
3092,5.34,2022-10-26 10:58:37.125000
3093,3.42,2022-10-26 10:58:37.140625
3094,1.12,2022-10-26 10:58:37.156250
3095,-1.52,2022-10-26 10:58:37.171875
3096,-4.35,2022-10-26 10:58:37.187500
3097,-7.21,2022-10-26 10:58:37.203125
3098,-10.05,2022-10-26 10:58:37.218750
3099,-12.87,2022-10-26 10:58:37.234375
3100,-15.75,2022-10-26 10:58:37.250000
3101,-18.78,2022-10-26 10:58:37.265625
3102,-22.09,2022-10-26 10:58:37.281250
3103,-25.76,2022-10-26 10:58:37.296875
3104,-29.74,2022-10-26 10:58:37.312500
3105,-33.73,2022-10-26 10:58:37.328125
3106,-37.14,2022-10-26 10:58:37.343750
3107,-39.23,2022-10-26 10:58:37.359375
3108,-39.29,2022-10-26 10:58:37.375000
3109,-36.98,2022-10-26 10:58:37.390625
3110,-32.49,2022-10-26 10:58:37.406250
3111,-26.46,2022-10-26 10:58:37.421875
3112,-19.77,2022-10-26 10:58:37.437500
3113,-13.25,2022-10-26 10:58:37.453125
3114,-7.41,2022-10-26 10:58:37.468750
3115,-2.44,2022-10-26 10:58:37.484375
3116,1.79,2022-10-26 10:58:37.500000
3117,5.49,2022-10-26 10:58:37.515625
3118,8.9,2022-10-26 10:58:37.531250
3119,12.22,2022-10-26 10:58:37.546875
3120,15.62,2022-10-26 10:58:37.562500
3121,19.23,2022-10-26 10:58:37.578125
3122,23.15,2022-10-26 10:58:37.593750
3123,27.36,2022-10-26 10:58:37.609375
3124,31.76,2022-10-26 10:58:37.625000
3125,36.13,2022-10-26 10:58:37.640625
3126,40.21,2022-10-26 10:58:37.656250
3127,43.67,2022-10-26 10:58:37.671875
3128,46.15,2022-10-26 10:58:37.687500
3129,47.37,2022-10-26 10:58:37.703125
3130,47.08,2022-10-26 10:58:37.718750
3131,45.25,2022-10-26 10:58:37.734375
3132,42.02,2022-10-26 10:58:37.750000
3133,37.74,2022-10-26 10:58:37.765625
3134,32.77,2022-10-26 10:58:37.781250
3135,27.46,2022-10-26 10:58:37.796875
3136,21.99,2022-10-26 10:58:37.812500
3137,16.42,2022-10-26 10:58:37.828125
3138,10.76,2022-10-26 10:58:37.843750
3139,5.13,2022-10-26 10:58:37.859375
3140,-0.24,2022-10-26 10:58:37.875000
3141,-5.11,2022-10-26 10:58:37.890625
3142,-9.27,2022-10-26 10:58:37.906250
3143,-12.67,2022-10-26 10:58:37.921875
3144,-15.42,2022-10-26 10:58:37.937500
3145,-17.73,2022-10-26 10:58:37.953125
3146,-19.83,2022-10-26 10:58:37.968750
3147,-21.86,2022-10-26 10:58:37.984375
3148,-23.89,2022-10-26 10:58:38.000000
3149,-25.94,2022-10-26 10:58:38.015625
3150,-28.03,2022-10-26 10:58:38.031250
3151,-30.26,2022-10-26 10:58:38.046875
3152,-32.77,2022-10-26 10:58:38.062500
3153,-35.59,2022-10-26 10:58:38.078125
3154,-38.49,2022-10-26 10:58:38.093750
3155,-40.99,2022-10-26 10:58:38.109375
3156,-42.35,2022-10-26 10:58:38.125000
3157,-41.92,2022-10-26 10:58:38.140625
3158,-39.44,2022-10-26 10:58:38.156250
3159,-35.19,2022-10-26 10:58:38.171875
3160,-30.03,2022-10-26 10:58:38.187500
3161,-25.01,2022-10-26 10:58:38.203125
3162,-20.97,2022-10-26 10:58:38.218750
3163,-18.28,2022-10-26 10:58:38.234375
3164,-16.79,2022-10-26 10:58:38.250000
3165,-15.97,2022-10-26 10:58:38.265625
3166,-15.32,2022-10-26 10:58:38.281250
3167,-14.58,2022-10-26 10:58:38.296875
3168,-13.76,2022-10-26 10:58:38.312500
