,BVP,time
0,-21.12,2022-10-26 16:30:14.984375
1,-19.62,2022-10-26 16:30:15.000000
2,-18.44,2022-10-26 16:30:15.015625
3,-18.18,2022-10-26 16:30:15.031250
4,-19.24,2022-10-26 16:30:15.046875
5,-21.68,2022-10-26 16:30:15.062500
6,-25.18,2022-10-26 16:30:15.078125
7,-29.1,2022-10-26 16:30:15.093750
8,-32.65,2022-10-26 16:30:15.109375
9,-35.08,2022-10-26 16:30:15.125000
10,-35.89,2022-10-26 16:30:15.140625
11,-34.96,2022-10-26 16:30:15.156250
12,-32.53,2022-10-26 16:30:15.171875
13,-29.13,2022-10-26 16:30:15.187500
14,-25.35,2022-10-26 16:30:15.203125
15,-21.7,2022-10-26 16:30:15.218750
16,-18.57,2022-10-26 16:30:15.234375
17,-16.21,2022-10-26 16:30:15.250000
18,-14.79,2022-10-26 16:30:15.265625
19,-14.46,2022-10-26 16:30:15.281250
20,-15.33,2022-10-26 16:30:15.296875
21,-17.37,2022-10-26 16:30:15.312500
22,-20.33,2022-10-26 16:30:15.328125
23,-23.74,2022-10-26 16:30:15.343750
24,-27.13,2022-10-26 16:30:15.359375
25,-30.19,2022-10-26 16:30:15.375000
26,-32.95,2022-10-26 16:30:15.390625
27,-35.76,2022-10-26 16:30:15.406250
28,-39.03,2022-10-26 16:30:15.421875
29,-42.93,2022-10-26 16:30:15.437500
30,-47.3,2022-10-26 16:30:15.453125
31,-51.71,2022-10-26 16:30:15.468750
32,-55.78,2022-10-26 16:30:15.484375
33,-59.5,2022-10-26 16:30:15.500000
34,-63.22,2022-10-26 16:30:15.515625
35,-67.24,2022-10-26 16:30:15.531250
36,-71.41,2022-10-26 16:30:15.546875
37,-74.84,2022-10-26 16:30:15.562500
38,-76.3,2022-10-26 16:30:15.578125
39,-74.71,2022-10-26 16:30:15.593750
40,-69.78,2022-10-26 16:30:15.609375
41,-61.87,2022-10-26 16:30:15.625000
42,-51.43,2022-10-26 16:30:15.640625
43,-38.36,2022-10-26 16:30:15.656250
44,-21.84,2022-10-26 16:30:15.671875
45,-1.05,2022-10-26 16:30:15.687500
46,23.86,2022-10-26 16:30:15.703125
47,51.13,2022-10-26 16:30:15.718750
48,77.91,2022-10-26 16:30:15.734375
49,101.58,2022-10-26 16:30:15.750000
50,121.18,2022-10-26 16:30:15.765625
51,137.85,2022-10-26 16:30:15.781250
52,153.84,2022-10-26 16:30:15.796875
53,170.86,2022-10-26 16:30:15.812500
54,188.78,2022-10-26 16:30:15.828125
55,205.62,2022-10-26 16:30:15.843750
56,219.05,2022-10-26 16:30:15.859375
57,228.14,2022-10-26 16:30:15.875000
58,234.35,2022-10-26 16:30:15.890625
59,240.94,2022-10-26 16:30:15.906250
60,251.21,2022-10-26 16:30:15.921875
61,266.74,2022-10-26 16:30:15.937500
62,286.61,2022-10-26 16:30:15.953125
63,308.14,2022-10-26 16:30:15.968750
64,328.51,2022-10-26 16:30:15.984375
65,346.15,2022-10-26 16:30:16.000000
66,361.07,2022-10-26 16:30:16.015625
67,374.16,2022-10-26 16:30:16.031250
68,386.1,2022-10-26 16:30:16.046875
69,396.58,2022-10-26 16:30:16.062500
70,404.33,2022-10-26 16:30:16.078125
71,407.9,2022-10-26 16:30:16.093750
72,406.35,2022-10-26 16:30:16.109375
73,399.68,2022-10-26 16:30:16.125000
74,388.56,2022-10-26 16:30:16.140625
75,373.87,2022-10-26 16:30:16.156250
76,356.33,2022-10-26 16:30:16.171875
77,336.51,2022-10-26 16:30:16.187500
78,315.01,2022-10-26 16:30:16.203125
79,292.67,2022-10-26 16:30:16.218750
80,270.45,2022-10-26 16:30:16.234375
81,248.97,2022-10-26 16:30:16.250000
82,228.11,2022-10-26 16:30:16.265625
83,206.94,2022-10-26 16:30:16.281250
84,183.93,2022-10-26 16:30:16.296875
85,157.29,2022-10-26 16:30:16.312500
86,125.57,2022-10-26 16:30:16.328125
87,88.07,2022-10-26 16:30:16.343750
88,45.39,2022-10-26 16:30:16.359375
89,0.0,2022-10-26 16:30:16.375000
90,-43.87,2022-10-26 16:30:16.390625
91,-81.26,2022-10-26 16:30:16.406250
92,-108.29,2022-10-26 16:30:16.421875
93,-124.15,2022-10-26 16:30:16.437500
94,-131.94,2022-10-26 16:30:16.453125
95,-137.93,2022-10-26 16:30:16.468750
96,-149.22,2022-10-26 16:30:16.484375
97,-170.76,2022-10-26 16:30:16.500000
98,-203.39,2022-10-26 16:30:16.515625
99,-243.81,2022-10-26 16:30:16.531250
100,-286.22,2022-10-26 16:30:16.546875
101,-324.91,2022-10-26 16:30:16.562500
102,-356.08,2022-10-26 16:30:16.578125
103,-378.37,2022-10-26 16:30:16.593750
104,-392.11,2022-10-26 16:30:16.609375
105,-398.17,2022-10-26 16:30:16.625000
106,-397.14,2022-10-26 16:30:16.640625
107,-389.35,2022-10-26 16:30:16.656250
108,-375.35,2022-10-26 16:30:16.671875
109,-356.2,2022-10-26 16:30:16.687500
110,-333.49,2022-10-26 16:30:16.703125
111,-308.85,2022-10-26 16:30:16.718750
112,-283.57,2022-10-26 16:30:16.734375
113,-258.27,2022-10-26 16:30:16.750000
114,-233.11,2022-10-26 16:30:16.765625
115,-208.1,2022-10-26 16:30:16.781250
116,-183.48,2022-10-26 16:30:16.796875
117,-160.03,2022-10-26 16:30:16.812500
118,-138.81,2022-10-26 16:30:16.828125
119,-120.89,2022-10-26 16:30:16.843750
120,-107.06,2022-10-26 16:30:16.859375
121,-97.48,2022-10-26 16:30:16.875000
122,-91.61,2022-10-26 16:30:16.890625
123,-88.32,2022-10-26 16:30:16.906250
124,-86.15,2022-10-26 16:30:16.921875
125,-83.72,2022-10-26 16:30:16.937500
126,-80.2,2022-10-26 16:30:16.953125
127,-75.5,2022-10-26 16:30:16.968750
128,-70.32,2022-10-26 16:30:16.984375
129,-65.74,2022-10-26 16:30:17.000000
130,-62.74,2022-10-26 16:30:17.015625
131,-61.64,2022-10-26 16:30:17.031250
132,-61.99,2022-10-26 16:30:17.046875
133,-62.7,2022-10-26 16:30:17.062500
134,-62.46,2022-10-26 16:30:17.078125
135,-60.32,2022-10-26 16:30:17.093750
136,-56.07,2022-10-26 16:30:17.109375
137,-50.32,2022-10-26 16:30:17.125000
138,-44.25,2022-10-26 16:30:17.140625
139,-39.09,2022-10-26 16:30:17.156250
140,-35.73,2022-10-26 16:30:17.171875
141,-34.39,2022-10-26 16:30:17.187500
142,-34.71,2022-10-26 16:30:17.203125
143,-36.04,2022-10-26 16:30:17.218750
144,-37.79,2022-10-26 16:30:17.234375
145,-39.65,2022-10-26 16:30:17.250000
146,-41.69,2022-10-26 16:30:17.265625
147,-44.11,2022-10-26 16:30:17.281250
148,-46.97,2022-10-26 16:30:17.296875
149,-50.03,2022-10-26 16:30:17.312500
150,-52.63,2022-10-26 16:30:17.328125
151,-53.92,2022-10-26 16:30:17.343750
152,-53.16,2022-10-26 16:30:17.359375
153,-49.9,2022-10-26 16:30:17.375000
154,-44.11,2022-10-26 16:30:17.390625
155,-36.19,2022-10-26 16:30:17.406250
156,-26.87,2022-10-26 16:30:17.421875
157,-17.04,2022-10-26 16:30:17.437500
158,-7.65,2022-10-26 16:30:17.453125
159,0.48,2022-10-26 16:30:17.468750
160,6.76,2022-10-26 16:30:17.484375
161,10.92,2022-10-26 16:30:17.500000
162,13.05,2022-10-26 16:30:17.515625
163,13.49,2022-10-26 16:30:17.531250
164,12.63,2022-10-26 16:30:17.546875
165,10.83,2022-10-26 16:30:17.562500
166,8.25,2022-10-26 16:30:17.578125
167,5.03,2022-10-26 16:30:17.593750
168,1.35,2022-10-26 16:30:17.609375
169,-2.34,2022-10-26 16:30:17.625000
170,-5.42,2022-10-26 16:30:17.640625
171,-7.27,2022-10-26 16:30:17.656250
172,-7.51,2022-10-26 16:30:17.671875
173,-6.28,2022-10-26 16:30:17.687500
174,-4.14,2022-10-26 16:30:17.703125
175,-1.89,2022-10-26 16:30:17.718750
176,-0.27,2022-10-26 16:30:17.734375
177,0.34,2022-10-26 16:30:17.750000
178,-0.09,2022-10-26 16:30:17.765625
179,-1.28,2022-10-26 16:30:17.781250
180,-2.88,2022-10-26 16:30:17.796875
181,-4.69,2022-10-26 16:30:17.812500
182,-6.69,2022-10-26 16:30:17.828125
183,-9.01,2022-10-26 16:30:17.843750
184,-11.78,2022-10-26 16:30:17.859375
185,-14.96,2022-10-26 16:30:17.875000
186,-18.29,2022-10-26 16:30:17.890625
187,-21.39,2022-10-26 16:30:17.906250
188,-24.0,2022-10-26 16:30:17.921875
189,-26.14,2022-10-26 16:30:17.937500
190,-28.27,2022-10-26 16:30:17.953125
191,-31.19,2022-10-26 16:30:17.968750
192,-35.7,2022-10-26 16:30:17.984375
193,-42.27,2022-10-26 16:30:18.000000
194,-50.67,2022-10-26 16:30:18.015625
195,-59.92,2022-10-26 16:30:18.031250
196,-68.47,2022-10-26 16:30:18.046875
197,-74.69,2022-10-26 16:30:18.062500
198,-77.36,2022-10-26 16:30:18.078125
199,-76.05,2022-10-26 16:30:18.093750
200,-71.11,2022-10-26 16:30:18.109375
201,-63.5,2022-10-26 16:30:18.125000
202,-54.37,2022-10-26 16:30:18.140625
203,-44.65,2022-10-26 16:30:18.156250
204,-34.88,2022-10-26 16:30:18.171875
205,-25.23,2022-10-26 16:30:18.187500
206,-15.75,2022-10-26 16:30:18.203125
207,-6.58,2022-10-26 16:30:18.218750
208,1.93,2022-10-26 16:30:18.234375
209,9.28,2022-10-26 16:30:18.250000
210,15.03,2022-10-26 16:30:18.265625
211,18.92,2022-10-26 16:30:18.281250
212,21.07,2022-10-26 16:30:18.296875
213,21.93,2022-10-26 16:30:18.312500
214,22.18,2022-10-26 16:30:18.328125
215,22.54,2022-10-26 16:30:18.343750
216,23.6,2022-10-26 16:30:18.359375
217,25.62,2022-10-26 16:30:18.375000
218,28.45,2022-10-26 16:30:18.390625
219,31.56,2022-10-26 16:30:18.406250
220,34.24,2022-10-26 16:30:18.421875
221,35.94,2022-10-26 16:30:18.437500
222,36.55,2022-10-26 16:30:18.453125
223,36.5,2022-10-26 16:30:18.468750
224,36.52,2022-10-26 16:30:18.484375
225,37.26,2022-10-26 16:30:18.500000
226,38.82,2022-10-26 16:30:18.515625
227,40.6,2022-10-26 16:30:18.531250
228,41.51,2022-10-26 16:30:18.546875
229,40.4,2022-10-26 16:30:18.562500
230,36.65,2022-10-26 16:30:18.578125
231,30.3,2022-10-26 16:30:18.593750
232,22.09,2022-10-26 16:30:18.609375
233,13.12,2022-10-26 16:30:18.625000
234,4.69,2022-10-26 16:30:18.640625
235,-1.87,2022-10-26 16:30:18.656250
236,-5.48,2022-10-26 16:30:18.671875
237,-5.6,2022-10-26 16:30:18.687500
238,-2.79,2022-10-26 16:30:18.703125
239,1.27,2022-10-26 16:30:18.718750
240,4.1,2022-10-26 16:30:18.734375
241,3.46,2022-10-26 16:30:18.750000
242,-1.52,2022-10-26 16:30:18.765625
243,-9.73,2022-10-26 16:30:18.781250
244,-18.33,2022-10-26 16:30:18.796875
245,-23.84,2022-10-26 16:30:18.812500
246,-23.49,2022-10-26 16:30:18.828125
247,-16.19,2022-10-26 16:30:18.843750
248,-2.63,2022-10-26 16:30:18.859375
249,15.14,2022-10-26 16:30:18.875000
250,34.63,2022-10-26 16:30:18.890625
251,53.53,2022-10-26 16:30:18.906250
252,69.99,2022-10-26 16:30:18.921875
253,82.69,2022-10-26 16:30:18.937500
254,90.8,2022-10-26 16:30:18.953125
255,93.96,2022-10-26 16:30:18.968750
256,92.38,2022-10-26 16:30:18.984375
257,86.8,2022-10-26 16:30:19.000000
258,78.48,2022-10-26 16:30:19.015625
259,69.05,2022-10-26 16:30:19.031250
260,60.4,2022-10-26 16:30:19.046875
261,54.19,2022-10-26 16:30:19.062500
262,51.54,2022-10-26 16:30:19.078125
263,52.49,2022-10-26 16:30:19.093750
264,55.91,2022-10-26 16:30:19.109375
265,59.76,2022-10-26 16:30:19.125000
266,61.91,2022-10-26 16:30:19.140625
267,60.94,2022-10-26 16:30:19.156250
268,56.69,2022-10-26 16:30:19.171875
269,50.19,2022-10-26 16:30:19.187500
270,43.13,2022-10-26 16:30:19.203125
271,36.93,2022-10-26 16:30:19.218750
272,32.26,2022-10-26 16:30:19.234375
273,28.86,2022-10-26 16:30:19.250000
274,25.91,2022-10-26 16:30:19.265625
275,22.59,2022-10-26 16:30:19.281250
276,18.5,2022-10-26 16:30:19.296875
277,13.79,2022-10-26 16:30:19.312500
278,8.88,2022-10-26 16:30:19.328125
279,4.14,2022-10-26 16:30:19.343750
280,-0.38,2022-10-26 16:30:19.359375
281,-4.96,2022-10-26 16:30:19.375000
282,-10.03,2022-10-26 16:30:19.390625
283,-15.78,2022-10-26 16:30:19.406250
284,-22.02,2022-10-26 16:30:19.421875
285,-28.15,2022-10-26 16:30:19.437500
286,-33.39,2022-10-26 16:30:19.453125
287,-36.99,2022-10-26 16:30:19.468750
288,-38.46,2022-10-26 16:30:19.484375
289,-37.57,2022-10-26 16:30:19.500000
290,-34.25,2022-10-26 16:30:19.515625
291,-28.55,2022-10-26 16:30:19.531250
292,-20.53,2022-10-26 16:30:19.546875
293,-10.41,2022-10-26 16:30:19.562500
294,1.38,2022-10-26 16:30:19.578125
295,14.09,2022-10-26 16:30:19.593750
296,26.68,2022-10-26 16:30:19.609375
297,37.95,2022-10-26 16:30:19.625000
298,46.81,2022-10-26 16:30:19.640625
299,52.46,2022-10-26 16:30:19.656250
300,54.66,2022-10-26 16:30:19.671875
301,53.79,2022-10-26 16:30:19.687500
302,50.79,2022-10-26 16:30:19.703125
303,46.89,2022-10-26 16:30:19.718750
304,43.26,2022-10-26 16:30:19.734375
305,40.67,2022-10-26 16:30:19.750000
306,39.37,2022-10-26 16:30:19.765625
307,39.2,2022-10-26 16:30:19.781250
308,39.88,2022-10-26 16:30:19.796875
309,41.15,2022-10-26 16:30:19.812500
310,42.97,2022-10-26 16:30:19.828125
311,45.39,2022-10-26 16:30:19.843750
312,48.42,2022-10-26 16:30:19.859375
313,51.96,2022-10-26 16:30:19.875000
314,55.72,2022-10-26 16:30:19.890625
315,59.28,2022-10-26 16:30:19.906250
316,62.16,2022-10-26 16:30:19.921875
317,63.77,2022-10-26 16:30:19.937500
318,63.57,2022-10-26 16:30:19.953125
319,61.07,2022-10-26 16:30:19.968750
320,56.06,2022-10-26 16:30:19.984375
321,48.77,2022-10-26 16:30:20.000000
322,39.91,2022-10-26 16:30:20.015625
323,30.49,2022-10-26 16:30:20.031250
324,21.56,2022-10-26 16:30:20.046875
325,13.85,2022-10-26 16:30:20.062500
326,7.63,2022-10-26 16:30:20.078125
327,2.68,2022-10-26 16:30:20.093750
328,-1.51,2022-10-26 16:30:20.109375
329,-5.54,2022-10-26 16:30:20.125000
330,-9.78,2022-10-26 16:30:20.140625
331,-14.33,2022-10-26 16:30:20.156250
332,-19.0,2022-10-26 16:30:20.171875
333,-23.4,2022-10-26 16:30:20.187500
334,-26.99,2022-10-26 16:30:20.203125
335,-29.28,2022-10-26 16:30:20.218750
336,-29.84,2022-10-26 16:30:20.234375
337,-28.49,2022-10-26 16:30:20.250000
338,-25.3,2022-10-26 16:30:20.265625
339,-20.68,2022-10-26 16:30:20.281250
340,-15.18,2022-10-26 16:30:20.296875
341,-9.4,2022-10-26 16:30:20.312500
342,-3.78,2022-10-26 16:30:20.328125
343,1.47,2022-10-26 16:30:20.343750
344,6.32,2022-10-26 16:30:20.359375
345,10.8,2022-10-26 16:30:20.375000
346,14.86,2022-10-26 16:30:20.390625
347,18.38,2022-10-26 16:30:20.406250
348,21.19,2022-10-26 16:30:20.421875
349,23.14,2022-10-26 16:30:20.437500
350,24.15,2022-10-26 16:30:20.453125
351,24.26,2022-10-26 16:30:20.468750
352,23.55,2022-10-26 16:30:20.484375
353,22.22,2022-10-26 16:30:20.500000
354,20.48,2022-10-26 16:30:20.515625
355,18.64,2022-10-26 16:30:20.531250
356,16.96,2022-10-26 16:30:20.546875
357,15.6,2022-10-26 16:30:20.562500
358,14.55,2022-10-26 16:30:20.578125
359,13.68,2022-10-26 16:30:20.593750
360,12.8,2022-10-26 16:30:20.609375
361,11.84,2022-10-26 16:30:20.625000
362,10.83,2022-10-26 16:30:20.640625
363,9.87,2022-10-26 16:30:20.656250
364,8.97,2022-10-26 16:30:20.671875
365,7.93,2022-10-26 16:30:20.687500
366,6.38,2022-10-26 16:30:20.703125
367,3.96,2022-10-26 16:30:20.718750
368,0.54,2022-10-26 16:30:20.734375
369,-3.67,2022-10-26 16:30:20.750000
370,-8.21,2022-10-26 16:30:20.765625
371,-12.58,2022-10-26 16:30:20.781250
372,-16.43,2022-10-26 16:30:20.796875
373,-19.73,2022-10-26 16:30:20.812500
374,-22.71,2022-10-26 16:30:20.828125
375,-25.72,2022-10-26 16:30:20.843750
376,-29.08,2022-10-26 16:30:20.859375
377,-33.01,2022-10-26 16:30:20.875000
378,-37.57,2022-10-26 16:30:20.890625
379,-42.68,2022-10-26 16:30:20.906250
380,-48.03,2022-10-26 16:30:20.921875
381,-53.12,2022-10-26 16:30:20.937500
382,-57.23,2022-10-26 16:30:20.953125
383,-59.6,2022-10-26 16:30:20.968750
384,-59.58,2022-10-26 16:30:20.984375
385,-56.83,2022-10-26 16:30:21.000000
386,-51.41,2022-10-26 16:30:21.015625
387,-43.71,2022-10-26 16:30:21.031250
388,-34.42,2022-10-26 16:30:21.046875
389,-24.37,2022-10-26 16:30:21.062500
390,-14.48,2022-10-26 16:30:21.078125
391,-5.61,2022-10-26 16:30:21.093750
392,1.57,2022-10-26 16:30:21.109375
393,6.73,2022-10-26 16:30:21.125000
394,9.96,2022-10-26 16:30:21.140625
395,11.69,2022-10-26 16:30:21.156250
396,12.51,2022-10-26 16:30:21.171875
397,12.85,2022-10-26 16:30:21.187500
398,12.93,2022-10-26 16:30:21.203125
399,12.64,2022-10-26 16:30:21.218750
400,11.81,2022-10-26 16:30:21.234375
401,10.38,2022-10-26 16:30:21.250000
402,8.52,2022-10-26 16:30:21.265625
403,6.64,2022-10-26 16:30:21.281250
404,5.22,2022-10-26 16:30:21.296875
405,4.73,2022-10-26 16:30:21.312500
406,5.5,2022-10-26 16:30:21.328125
407,7.69,2022-10-26 16:30:21.343750
408,11.23,2022-10-26 16:30:21.359375
409,15.79,2022-10-26 16:30:21.375000
410,20.66,2022-10-26 16:30:21.390625
411,24.92,2022-10-26 16:30:21.406250
412,27.72,2022-10-26 16:30:21.421875
413,28.82,2022-10-26 16:30:21.437500
414,28.98,2022-10-26 16:30:21.453125
415,30.05,2022-10-26 16:30:21.468750
416,34.55,2022-10-26 16:30:21.484375
417,44.84,2022-10-26 16:30:21.500000
418,62.14,2022-10-26 16:30:21.515625
419,86.08,2022-10-26 16:30:21.531250
420,114.72,2022-10-26 16:30:21.546875
421,145.29,2022-10-26 16:30:21.562500
422,175.03,2022-10-26 16:30:21.578125
423,202.03,2022-10-26 16:30:21.593750
424,225.44,2022-10-26 16:30:21.609375
425,245.4,2022-10-26 16:30:21.625000
426,262.66,2022-10-26 16:30:21.640625
427,278.06,2022-10-26 16:30:21.656250
428,292.24,2022-10-26 16:30:21.671875
429,305.3,2022-10-26 16:30:21.687500
430,316.65,2022-10-26 16:30:21.703125
431,325.01,2022-10-26 16:30:21.718750
432,328.57,2022-10-26 16:30:21.734375
433,325.51,2022-10-26 16:30:21.750000
434,314.57,2022-10-26 16:30:21.765625
435,295.54,2022-10-26 16:30:21.781250
436,269.5,2022-10-26 16:30:21.796875
437,238.64,2022-10-26 16:30:21.812500
438,205.67,2022-10-26 16:30:21.828125
439,173.14,2022-10-26 16:30:21.843750
440,142.86,2022-10-26 16:30:21.859375
441,115.78,2022-10-26 16:30:21.875000
442,91.97,2022-10-26 16:30:21.890625
443,70.94,2022-10-26 16:30:21.906250
444,51.95,2022-10-26 16:30:21.921875
445,34.14,2022-10-26 16:30:21.937500
446,16.67,2022-10-26 16:30:21.953125
447,-1.31,2022-10-26 16:30:21.968750
448,-20.46,2022-10-26 16:30:21.984375
449,-41.01,2022-10-26 16:30:22.000000
450,-62.57,2022-10-26 16:30:22.015625
451,-84.2,2022-10-26 16:30:22.031250
452,-104.63,2022-10-26 16:30:22.046875
453,-122.91,2022-10-26 16:30:22.062500
454,-138.8,2022-10-26 16:30:22.078125
455,-152.91,2022-10-26 16:30:22.093750
456,-166.34,2022-10-26 16:30:22.109375
457,-179.95,2022-10-26 16:30:22.125000
458,-193.75,2022-10-26 16:30:22.140625
459,-206.74,2022-10-26 16:30:22.156250
460,-217.34,2022-10-26 16:30:22.171875
461,-223.97,2022-10-26 16:30:22.187500
462,-225.74,2022-10-26 16:30:22.203125
463,-222.78,2022-10-26 16:30:22.218750
464,-216.18,2022-10-26 16:30:22.234375
465,-207.59,2022-10-26 16:30:22.250000
466,-198.83,2022-10-26 16:30:22.265625
467,-191.53,2022-10-26 16:30:22.281250
468,-186.92,2022-10-26 16:30:22.296875
469,-185.71,2022-10-26 16:30:22.312500
470,-188.0,2022-10-26 16:30:22.328125
471,-193.26,2022-10-26 16:30:22.343750
472,-200.45,2022-10-26 16:30:22.359375
473,-208.13,2022-10-26 16:30:22.375000
474,-214.81,2022-10-26 16:30:22.390625
475,-219.17,2022-10-26 16:30:22.406250
476,-220.33,2022-10-26 16:30:22.421875
477,-217.92,2022-10-26 16:30:22.437500
478,-212.1,2022-10-26 16:30:22.453125
479,-203.43,2022-10-26 16:30:22.468750
480,-192.72,2022-10-26 16:30:22.484375
481,-180.76,2022-10-26 16:30:22.500000
482,-168.17,2022-10-26 16:30:22.515625
483,-155.32,2022-10-26 16:30:22.531250
484,-142.41,2022-10-26 16:30:22.546875
485,-129.66,2022-10-26 16:30:22.562500
486,-117.45,2022-10-26 16:30:22.578125
487,-106.34,2022-10-26 16:30:22.593750
488,-96.94,2022-10-26 16:30:22.609375
489,-89.65,2022-10-26 16:30:22.625000
490,-84.46,2022-10-26 16:30:22.640625
491,-80.87,2022-10-26 16:30:22.656250
492,-77.96,2022-10-26 16:30:22.671875
493,-74.73,2022-10-26 16:30:22.687500
494,-70.28,2022-10-26 16:30:22.703125
495,-64.15,2022-10-26 16:30:22.718750
496,-56.35,2022-10-26 16:30:22.734375
497,-47.34,2022-10-26 16:30:22.750000
498,-37.9,2022-10-26 16:30:22.765625
499,-28.86,2022-10-26 16:30:22.781250
500,-20.96,2022-10-26 16:30:22.796875
501,-14.67,2022-10-26 16:30:22.812500
502,-10.17,2022-10-26 16:30:22.828125
503,-7.4,2022-10-26 16:30:22.843750
504,-6.17,2022-10-26 16:30:22.859375
505,-6.29,2022-10-26 16:30:22.875000
506,-7.49,2022-10-26 16:30:22.890625
507,-9.47,2022-10-26 16:30:22.906250
508,-11.81,2022-10-26 16:30:22.921875
509,-13.96,2022-10-26 16:30:22.937500
510,-15.37,2022-10-26 16:30:22.953125
511,-15.66,2022-10-26 16:30:22.968750
512,-14.7,2022-10-26 16:30:22.984375
513,-12.74,2022-10-26 16:30:23.000000
514,-10.26,2022-10-26 16:30:23.015625
515,-7.89,2022-10-26 16:30:23.031250
516,-6.18,2022-10-26 16:30:23.046875
517,-5.63,2022-10-26 16:30:23.062500
518,-6.54,2022-10-26 16:30:23.078125
519,-8.98,2022-10-26 16:30:23.093750
520,-12.73,2022-10-26 16:30:23.109375
521,-17.17,2022-10-26 16:30:23.125000
522,-21.39,2022-10-26 16:30:23.140625
523,-24.36,2022-10-26 16:30:23.156250
524,-25.21,2022-10-26 16:30:23.171875
525,-23.5,2022-10-26 16:30:23.187500
526,-19.38,2022-10-26 16:30:23.203125
527,-13.45,2022-10-26 16:30:23.218750
528,-6.52,2022-10-26 16:30:23.234375
529,0.63,2022-10-26 16:30:23.250000
530,7.41,2022-10-26 16:30:23.265625
531,13.49,2022-10-26 16:30:23.281250
532,18.6,2022-10-26 16:30:23.296875
533,22.53,2022-10-26 16:30:23.312500
534,25.04,2022-10-26 16:30:23.328125
535,25.93,2022-10-26 16:30:23.343750
536,25.15,2022-10-26 16:30:23.359375
537,22.88,2022-10-26 16:30:23.375000
538,19.49,2022-10-26 16:30:23.390625
539,15.45,2022-10-26 16:30:23.406250
540,11.19,2022-10-26 16:30:23.421875
541,7.05,2022-10-26 16:30:23.437500
542,3.22,2022-10-26 16:30:23.453125
543,-0.1,2022-10-26 16:30:23.468750
544,-2.75,2022-10-26 16:30:23.484375
545,-4.53,2022-10-26 16:30:23.500000
546,-5.29,2022-10-26 16:30:23.515625
547,-5.0,2022-10-26 16:30:23.531250
548,-3.74,2022-10-26 16:30:23.546875
549,-1.75,2022-10-26 16:30:23.562500
550,0.62,2022-10-26 16:30:23.578125
551,2.99,2022-10-26 16:30:23.593750
552,5.0,2022-10-26 16:30:23.609375
553,6.34,2022-10-26 16:30:23.625000
554,6.82,2022-10-26 16:30:23.640625
555,6.35,2022-10-26 16:30:23.656250
556,4.95,2022-10-26 16:30:23.671875
557,2.7,2022-10-26 16:30:23.687500
558,-0.21,2022-10-26 16:30:23.703125
559,-3.52,2022-10-26 16:30:23.718750
560,-6.89,2022-10-26 16:30:23.734375
561,-10.0,2022-10-26 16:30:23.750000
562,-12.53,2022-10-26 16:30:23.765625
563,-14.4,2022-10-26 16:30:23.781250
564,-15.71,2022-10-26 16:30:23.796875
565,-16.81,2022-10-26 16:30:23.812500
566,-17.99,2022-10-26 16:30:23.828125
567,-19.37,2022-10-26 16:30:23.843750
568,-20.69,2022-10-26 16:30:23.859375
569,-21.38,2022-10-26 16:30:23.875000
570,-20.75,2022-10-26 16:30:23.890625
571,-18.32,2022-10-26 16:30:23.906250
572,-13.96,2022-10-26 16:30:23.921875
573,-7.95,2022-10-26 16:30:23.937500
574,-0.81,2022-10-26 16:30:23.953125
575,6.86,2022-10-26 16:30:23.968750
576,14.48,2022-10-26 16:30:23.984375
577,21.52,2022-10-26 16:30:24.000000
578,27.48,2022-10-26 16:30:24.015625
579,31.89,2022-10-26 16:30:24.031250
580,34.49,2022-10-26 16:30:24.046875
581,35.27,2022-10-26 16:30:24.062500
582,34.59,2022-10-26 16:30:24.078125
583,33.06,2022-10-26 16:30:24.093750
584,31.26,2022-10-26 16:30:24.109375
585,29.55,2022-10-26 16:30:24.125000
586,27.93,2022-10-26 16:30:24.140625
587,26.21,2022-10-26 16:30:24.156250
588,24.14,2022-10-26 16:30:24.171875
589,21.73,2022-10-26 16:30:24.187500
590,19.25,2022-10-26 16:30:24.203125
591,17.15,2022-10-26 16:30:24.218750
592,15.83,2022-10-26 16:30:24.234375
593,15.46,2022-10-26 16:30:24.250000
594,15.91,2022-10-26 16:30:24.265625
595,16.82,2022-10-26 16:30:24.281250
596,17.71,2022-10-26 16:30:24.296875
597,18.11,2022-10-26 16:30:24.312500
598,17.75,2022-10-26 16:30:24.328125
599,16.51,2022-10-26 16:30:24.343750
600,14.55,2022-10-26 16:30:24.359375
601,12.19,2022-10-26 16:30:24.375000
602,9.75,2022-10-26 16:30:24.390625
603,7.48,2022-10-26 16:30:24.406250
604,5.37,2022-10-26 16:30:24.421875
605,3.27,2022-10-26 16:30:24.437500
606,0.99,2022-10-26 16:30:24.453125
607,-1.49,2022-10-26 16:30:24.468750
608,-4.02,2022-10-26 16:30:24.484375
609,-6.32,2022-10-26 16:30:24.500000
610,-8.22,2022-10-26 16:30:24.515625
611,-9.72,2022-10-26 16:30:24.531250
612,-11.04,2022-10-26 16:30:24.546875
613,-12.49,2022-10-26 16:30:24.562500
614,-14.36,2022-10-26 16:30:24.578125
615,-16.84,2022-10-26 16:30:24.593750
616,-19.97,2022-10-26 16:30:24.609375
617,-23.72,2022-10-26 16:30:24.625000
618,-27.88,2022-10-26 16:30:24.640625
619,-32.04,2022-10-26 16:30:24.656250
620,-35.57,2022-10-26 16:30:24.671875
621,-37.67,2022-10-26 16:30:24.687500
622,-37.64,2022-10-26 16:30:24.703125
623,-35.03,2022-10-26 16:30:24.718750
624,-29.84,2022-10-26 16:30:24.734375
625,-22.5,2022-10-26 16:30:24.750000
626,-13.7,2022-10-26 16:30:24.765625
627,-4.25,2022-10-26 16:30:24.781250
628,5.13,2022-10-26 16:30:24.796875
629,13.77,2022-10-26 16:30:24.812500
630,21.11,2022-10-26 16:30:24.828125
631,26.71,2022-10-26 16:30:24.843750
632,30.37,2022-10-26 16:30:24.859375
633,32.09,2022-10-26 16:30:24.875000
634,32.19,2022-10-26 16:30:24.890625
635,31.11,2022-10-26 16:30:24.906250
636,29.36,2022-10-26 16:30:24.921875
637,27.34,2022-10-26 16:30:24.937500
638,25.29,2022-10-26 16:30:24.953125
639,23.31,2022-10-26 16:30:24.968750
640,21.52,2022-10-26 16:30:24.984375
641,20.05,2022-10-26 16:30:25.000000
642,19.06,2022-10-26 16:30:25.015625
643,18.66,2022-10-26 16:30:25.031250
644,18.83,2022-10-26 16:30:25.046875
645,19.44,2022-10-26 16:30:25.062500
646,20.3,2022-10-26 16:30:25.078125
647,21.29,2022-10-26 16:30:25.093750
648,22.41,2022-10-26 16:30:25.109375
649,23.76,2022-10-26 16:30:25.125000
650,25.42,2022-10-26 16:30:25.140625
651,27.33,2022-10-26 16:30:25.156250
652,29.29,2022-10-26 16:30:25.171875
653,31.06,2022-10-26 16:30:25.187500
654,32.41,2022-10-26 16:30:25.203125
655,33.18,2022-10-26 16:30:25.218750
656,33.23,2022-10-26 16:30:25.234375
657,32.43,2022-10-26 16:30:25.250000
658,30.59,2022-10-26 16:30:25.265625
659,27.58,2022-10-26 16:30:25.281250
660,23.35,2022-10-26 16:30:25.296875
661,18.13,2022-10-26 16:30:25.312500
662,12.39,2022-10-26 16:30:25.328125
663,6.73,2022-10-26 16:30:25.343750
664,1.7,2022-10-26 16:30:25.359375
665,-2.35,2022-10-26 16:30:25.375000
666,-5.42,2022-10-26 16:30:25.390625
667,-7.79,2022-10-26 16:30:25.406250
668,-9.91,2022-10-26 16:30:25.421875
669,-12.24,2022-10-26 16:30:25.437500
670,-15.09,2022-10-26 16:30:25.453125
671,-18.62,2022-10-26 16:30:25.468750
672,-22.77,2022-10-26 16:30:25.484375
673,-27.33,2022-10-26 16:30:25.500000
674,-31.9,2022-10-26 16:30:25.515625
675,-35.87,2022-10-26 16:30:25.531250
676,-38.43,2022-10-26 16:30:25.546875
677,-38.72,2022-10-26 16:30:25.562500
678,-36.14,2022-10-26 16:30:25.578125
679,-30.49,2022-10-26 16:30:25.593750
680,-22.23,2022-10-26 16:30:25.609375
681,-12.34,2022-10-26 16:30:25.625000
682,-2.03,2022-10-26 16:30:25.640625
683,7.56,2022-10-26 16:30:25.656250
684,15.62,2022-10-26 16:30:25.671875
685,21.84,2022-10-26 16:30:25.687500
686,26.22,2022-10-26 16:30:25.703125
687,28.95,2022-10-26 16:30:25.718750
688,30.2,2022-10-26 16:30:25.734375
689,30.11,2022-10-26 16:30:25.750000
690,28.78,2022-10-26 16:30:25.765625
691,26.44,2022-10-26 16:30:25.781250
692,23.47,2022-10-26 16:30:25.796875
693,20.33,2022-10-26 16:30:25.812500
694,17.55,2022-10-26 16:30:25.828125
695,15.5,2022-10-26 16:30:25.843750
696,14.32,2022-10-26 16:30:25.859375
697,13.97,2022-10-26 16:30:25.875000
698,14.22,2022-10-26 16:30:25.890625
699,14.85,2022-10-26 16:30:25.906250
700,15.71,2022-10-26 16:30:25.921875
701,16.71,2022-10-26 16:30:25.937500
702,17.86,2022-10-26 16:30:25.953125
703,19.13,2022-10-26 16:30:25.968750
704,20.48,2022-10-26 16:30:25.984375
705,21.79,2022-10-26 16:30:26.000000
706,22.96,2022-10-26 16:30:26.015625
707,23.86,2022-10-26 16:30:26.031250
708,24.35,2022-10-26 16:30:26.046875
709,24.31,2022-10-26 16:30:26.062500
710,23.66,2022-10-26 16:30:26.078125
711,22.36,2022-10-26 16:30:26.093750
712,20.49,2022-10-26 16:30:26.109375
713,18.2,2022-10-26 16:30:26.125000
714,15.64,2022-10-26 16:30:26.140625
715,13.0,2022-10-26 16:30:26.156250
716,10.34,2022-10-26 16:30:26.171875
717,7.67,2022-10-26 16:30:26.187500
718,4.94,2022-10-26 16:30:26.203125
719,2.07,2022-10-26 16:30:26.218750
720,-0.91,2022-10-26 16:30:26.234375
721,-3.89,2022-10-26 16:30:26.250000
722,-6.68,2022-10-26 16:30:26.265625
723,-9.13,2022-10-26 16:30:26.281250
724,-11.23,2022-10-26 16:30:26.296875
725,-13.15,2022-10-26 16:30:26.312500
726,-15.13,2022-10-26 16:30:26.328125
727,-17.37,2022-10-26 16:30:26.343750
728,-19.93,2022-10-26 16:30:26.359375
729,-22.68,2022-10-26 16:30:26.375000
730,-25.41,2022-10-26 16:30:26.390625
731,-27.88,2022-10-26 16:30:26.406250
732,-29.85,2022-10-26 16:30:26.421875
733,-30.93,2022-10-26 16:30:26.437500
734,-30.68,2022-10-26 16:30:26.453125
735,-28.54,2022-10-26 16:30:26.468750
736,-24.11,2022-10-26 16:30:26.484375
737,-17.43,2022-10-26 16:30:26.500000
738,-9.04,2022-10-26 16:30:26.515625
739,0.04,2022-10-26 16:30:26.531250
740,8.7,2022-10-26 16:30:26.546875
741,16.03,2022-10-26 16:30:26.562500
742,21.65,2022-10-26 16:30:26.578125
743,25.55,2022-10-26 16:30:26.593750
744,27.99,2022-10-26 16:30:26.609375
745,29.25,2022-10-26 16:30:26.625000
746,29.51,2022-10-26 16:30:26.640625
747,28.91,2022-10-26 16:30:26.656250
748,27.56,2022-10-26 16:30:26.671875
749,25.69,2022-10-26 16:30:26.687500
750,23.53,2022-10-26 16:30:26.703125
751,21.34,2022-10-26 16:30:26.718750
752,19.28,2022-10-26 16:30:26.734375
753,17.49,2022-10-26 16:30:26.750000
754,16.02,2022-10-26 16:30:26.765625
755,14.92,2022-10-26 16:30:26.781250
756,14.25,2022-10-26 16:30:26.796875
757,14.01,2022-10-26 16:30:26.812500
758,14.22,2022-10-26 16:30:26.828125
759,14.82,2022-10-26 16:30:26.843750
760,15.71,2022-10-26 16:30:26.859375
761,16.72,2022-10-26 16:30:26.875000
762,17.71,2022-10-26 16:30:26.890625
763,18.49,2022-10-26 16:30:26.906250
764,18.98,2022-10-26 16:30:26.921875
765,19.18,2022-10-26 16:30:26.937500
766,19.2,2022-10-26 16:30:26.953125
767,19.14,2022-10-26 16:30:26.968750
768,19.03,2022-10-26 16:30:26.984375
769,18.77,2022-10-26 16:30:27.000000
770,18.22,2022-10-26 16:30:27.015625
771,17.3,2022-10-26 16:30:27.031250
772,16.11,2022-10-26 16:30:27.046875
773,14.96,2022-10-26 16:30:27.062500
774,14.2,2022-10-26 16:30:27.078125
775,14.1,2022-10-26 16:30:27.093750
776,14.72,2022-10-26 16:30:27.109375
777,15.83,2022-10-26 16:30:27.125000
778,17.08,2022-10-26 16:30:27.140625
779,18.13,2022-10-26 16:30:27.156250
780,18.83,2022-10-26 16:30:27.171875
781,19.15,2022-10-26 16:30:27.187500
782,19.15,2022-10-26 16:30:27.203125
783,18.87,2022-10-26 16:30:27.218750
784,18.22,2022-10-26 16:30:27.234375
785,17.12,2022-10-26 16:30:27.250000
786,15.56,2022-10-26 16:30:27.265625
787,13.78,2022-10-26 16:30:27.281250
788,12.3,2022-10-26 16:30:27.296875
789,11.8,2022-10-26 16:30:27.312500
790,12.98,2022-10-26 16:30:27.328125
791,16.33,2022-10-26 16:30:27.343750
792,21.99,2022-10-26 16:30:27.359375
793,29.65,2022-10-26 16:30:27.375000
794,38.73,2022-10-26 16:30:27.390625
795,48.47,2022-10-26 16:30:27.406250
796,58.18,2022-10-26 16:30:27.421875
797,67.32,2022-10-26 16:30:27.437500
798,75.54,2022-10-26 16:30:27.453125
799,82.6,2022-10-26 16:30:27.468750
800,88.39,2022-10-26 16:30:27.484375
801,92.96,2022-10-26 16:30:27.500000
802,96.52,2022-10-26 16:30:27.515625
803,99.54,2022-10-26 16:30:27.531250
804,102.54,2022-10-26 16:30:27.546875
805,105.89,2022-10-26 16:30:27.562500
806,109.49,2022-10-26 16:30:27.578125
807,112.76,2022-10-26 16:30:27.593750
808,114.76,2022-10-26 16:30:27.609375
809,114.66,2022-10-26 16:30:27.625000
810,112.1,2022-10-26 16:30:27.640625
811,107.32,2022-10-26 16:30:27.656250
812,101.02,2022-10-26 16:30:27.671875
813,93.95,2022-10-26 16:30:27.687500
814,86.65,2022-10-26 16:30:27.703125
815,79.22,2022-10-26 16:30:27.718750
816,71.57,2022-10-26 16:30:27.734375
817,63.56,2022-10-26 16:30:27.750000
818,55.18,2022-10-26 16:30:27.765625
819,46.6,2022-10-26 16:30:27.781250
820,37.96,2022-10-26 16:30:27.796875
821,29.23,2022-10-26 16:30:27.812500
822,20.23,2022-10-26 16:30:27.828125
823,10.75,2022-10-26 16:30:27.843750
824,0.7,2022-10-26 16:30:27.859375
825,-9.69,2022-10-26 16:30:27.875000
826,-19.99,2022-10-26 16:30:27.890625
827,-29.69,2022-10-26 16:30:27.906250
828,-38.42,2022-10-26 16:30:27.921875
829,-46.06,2022-10-26 16:30:27.937500
830,-52.67,2022-10-26 16:30:27.953125
831,-58.49,2022-10-26 16:30:27.968750
832,-63.73,2022-10-26 16:30:27.984375
833,-68.6,2022-10-26 16:30:28.000000
834,-73.24,2022-10-26 16:30:28.015625
835,-77.8,2022-10-26 16:30:28.031250
836,-82.33,2022-10-26 16:30:28.046875
837,-86.8,2022-10-26 16:30:28.062500
838,-91.07,2022-10-26 16:30:28.078125
839,-94.99,2022-10-26 16:30:28.093750
840,-98.47,2022-10-26 16:30:28.109375
841,-101.54,2022-10-26 16:30:28.125000
842,-104.23,2022-10-26 16:30:28.140625
843,-106.49,2022-10-26 16:30:28.156250
844,-108.05,2022-10-26 16:30:28.171875
845,-108.43,2022-10-26 16:30:28.187500
846,-107.04,2022-10-26 16:30:28.203125
847,-103.45,2022-10-26 16:30:28.218750
848,-97.54,2022-10-26 16:30:28.234375
849,-89.64,2022-10-26 16:30:28.250000
850,-80.4,2022-10-26 16:30:28.265625
851,-70.64,2022-10-26 16:30:28.281250
852,-61.08,2022-10-26 16:30:28.296875
853,-52.25,2022-10-26 16:30:28.312500
854,-44.46,2022-10-26 16:30:28.328125
855,-37.81,2022-10-26 16:30:28.343750
856,-32.35,2022-10-26 16:30:28.359375
857,-28.18,2022-10-26 16:30:28.375000
858,-25.41,2022-10-26 16:30:28.390625
859,-24.15,2022-10-26 16:30:28.406250
860,-24.36,2022-10-26 16:30:28.421875
861,-25.77,2022-10-26 16:30:28.437500
862,-27.85,2022-10-26 16:30:28.453125
863,-29.95,2022-10-26 16:30:28.468750
864,-31.5,2022-10-26 16:30:28.484375
865,-32.16,2022-10-26 16:30:28.500000
866,-31.92,2022-10-26 16:30:28.515625
867,-30.98,2022-10-26 16:30:28.531250
868,-29.63,2022-10-26 16:30:28.546875
869,-28.05,2022-10-26 16:30:28.562500
870,-26.36,2022-10-26 16:30:28.578125
871,-24.59,2022-10-26 16:30:28.593750
872,-22.82,2022-10-26 16:30:28.609375
873,-21.21,2022-10-26 16:30:28.625000
874,-19.9,2022-10-26 16:30:28.640625
875,-18.98,2022-10-26 16:30:28.656250
876,-18.37,2022-10-26 16:30:28.671875
877,-17.86,2022-10-26 16:30:28.687500
878,-17.24,2022-10-26 16:30:28.703125
879,-16.43,2022-10-26 16:30:28.718750
880,-15.5,2022-10-26 16:30:28.734375
881,-14.62,2022-10-26 16:30:28.750000
882,-13.99,2022-10-26 16:30:28.765625
883,-13.67,2022-10-26 16:30:28.781250
884,-13.65,2022-10-26 16:30:28.796875
885,-13.81,2022-10-26 16:30:28.812500
886,-14.04,2022-10-26 16:30:28.828125
887,-14.25,2022-10-26 16:30:28.843750
888,-14.47,2022-10-26 16:30:28.859375
889,-14.94,2022-10-26 16:30:28.875000
890,-16.02,2022-10-26 16:30:28.890625
891,-18.15,2022-10-26 16:30:28.906250
892,-21.6,2022-10-26 16:30:28.921875
893,-26.32,2022-10-26 16:30:28.937500
894,-31.81,2022-10-26 16:30:28.953125
895,-37.24,2022-10-26 16:30:28.968750
896,-41.66,2022-10-26 16:30:28.984375
897,-44.25,2022-10-26 16:30:29.000000
898,-44.59,2022-10-26 16:30:29.015625
899,-42.68,2022-10-26 16:30:29.031250
900,-38.9,2022-10-26 16:30:29.046875
901,-33.7,2022-10-26 16:30:29.062500
902,-27.56,2022-10-26 16:30:29.078125
903,-20.8,2022-10-26 16:30:29.093750
904,-13.7,2022-10-26 16:30:29.109375
905,-6.5,2022-10-26 16:30:29.125000
906,0.45,2022-10-26 16:30:29.140625
907,6.66,2022-10-26 16:30:29.156250
908,11.58,2022-10-26 16:30:29.171875
909,14.7,2022-10-26 16:30:29.187500
910,15.71,2022-10-26 16:30:29.203125
911,14.59,2022-10-26 16:30:29.218750
912,11.65,2022-10-26 16:30:29.234375
913,7.49,2022-10-26 16:30:29.250000
914,2.71,2022-10-26 16:30:29.265625
915,-2.12,2022-10-26 16:30:29.281250
916,-6.61,2022-10-26 16:30:29.296875
917,-10.51,2022-10-26 16:30:29.312500
918,-13.72,2022-10-26 16:30:29.328125
919,-16.12,2022-10-26 16:30:29.343750
920,-17.67,2022-10-26 16:30:29.359375
921,-18.32,2022-10-26 16:30:29.375000
922,-18.09,2022-10-26 16:30:29.390625
923,-17.08,2022-10-26 16:30:29.406250
924,-15.52,2022-10-26 16:30:29.421875
925,-13.76,2022-10-26 16:30:29.437500
926,-12.14,2022-10-26 16:30:29.453125
927,-10.92,2022-10-26 16:30:29.468750
928,-10.23,2022-10-26 16:30:29.484375
929,-10.07,2022-10-26 16:30:29.500000
930,-10.41,2022-10-26 16:30:29.515625
931,-11.25,2022-10-26 16:30:29.531250
932,-12.66,2022-10-26 16:30:29.546875
933,-14.77,2022-10-26 16:30:29.562500
934,-17.66,2022-10-26 16:30:29.578125
935,-21.24,2022-10-26 16:30:29.593750
936,-25.23,2022-10-26 16:30:29.609375
937,-29.23,2022-10-26 16:30:29.625000
938,-32.89,2022-10-26 16:30:29.640625
939,-36.04,2022-10-26 16:30:29.656250
940,-38.74,2022-10-26 16:30:29.671875
941,-41.18,2022-10-26 16:30:29.687500
942,-43.53,2022-10-26 16:30:29.703125
943,-45.9,2022-10-26 16:30:29.718750
944,-48.22,2022-10-26 16:30:29.734375
945,-50.39,2022-10-26 16:30:29.750000
946,-52.29,2022-10-26 16:30:29.765625
947,-53.74,2022-10-26 16:30:29.781250
948,-54.54,2022-10-26 16:30:29.796875
949,-54.37,2022-10-26 16:30:29.812500
950,-52.94,2022-10-26 16:30:29.828125
951,-50.13,2022-10-26 16:30:29.843750
952,-46.14,2022-10-26 16:30:29.859375
953,-41.55,2022-10-26 16:30:29.875000
954,-37.2,2022-10-26 16:30:29.890625
955,-33.94,2022-10-26 16:30:29.906250
956,-32.33,2022-10-26 16:30:29.921875
957,-32.57,2022-10-26 16:30:29.937500
958,-34.54,2022-10-26 16:30:29.953125
959,-38.04,2022-10-26 16:30:29.968750
960,-43.02,2022-10-26 16:30:29.984375
961,-49.7,2022-10-26 16:30:30.000000
962,-58.43,2022-10-26 16:30:30.015625
963,-69.43,2022-10-26 16:30:30.031250
964,-82.32,2022-10-26 16:30:30.046875
965,-96.03,2022-10-26 16:30:30.062500
966,-108.85,2022-10-26 16:30:30.078125
967,-118.96,2022-10-26 16:30:30.093750
968,-124.91,2022-10-26 16:30:30.109375
969,-126.05,2022-10-26 16:30:30.125000
970,-122.68,2022-10-26 16:30:30.140625
971,-115.93,2022-10-26 16:30:30.156250
972,-107.38,2022-10-26 16:30:30.171875
973,-98.55,2022-10-26 16:30:30.187500
974,-90.4,2022-10-26 16:30:30.203125
975,-82.82,2022-10-26 16:30:30.218750
976,-74.48,2022-10-26 16:30:30.234375
977,-63.08,2022-10-26 16:30:30.250000
978,-45.93,2022-10-26 16:30:30.265625
979,-21.02,2022-10-26 16:30:30.281250
980,12.17,2022-10-26 16:30:30.296875
981,52.09,2022-10-26 16:30:30.312500
982,95.44,2022-10-26 16:30:30.328125
983,137.95,2022-10-26 16:30:30.343750
984,175.51,2022-10-26 16:30:30.359375
985,204.92,2022-10-26 16:30:30.375000
986,224.42,2022-10-26 16:30:30.390625
987,233.65,2022-10-26 16:30:30.406250
988,233.45,2022-10-26 16:30:30.421875
989,225.51,2022-10-26 16:30:30.437500
990,211.95,2022-10-26 16:30:30.453125
991,194.8,2022-10-26 16:30:30.468750
992,175.46,2022-10-26 16:30:30.484375
993,154.47,2022-10-26 16:30:30.500000
994,131.56,2022-10-26 16:30:30.515625
995,106.17,2022-10-26 16:30:30.531250
996,78.13,2022-10-26 16:30:30.546875
997,48.18,2022-10-26 16:30:30.562500
998,18.14,2022-10-26 16:30:30.578125
999,-9.44,2022-10-26 16:30:30.593750
1000,-31.94,2022-10-26 16:30:30.609375
1001,-47.41,2022-10-26 16:30:30.625000
1002,-54.95,2022-10-26 16:30:30.640625
1003,-54.79,2022-10-26 16:30:30.656250
1004,-48.15,2022-10-26 16:30:30.671875
1005,-36.84,2022-10-26 16:30:30.687500
1006,-22.94,2022-10-26 16:30:30.703125
1007,-8.47,2022-10-26 16:30:30.718750
1008,4.87,2022-10-26 16:30:30.734375
1009,15.85,2022-10-26 16:30:30.750000
1010,23.82,2022-10-26 16:30:30.765625
1011,28.69,2022-10-26 16:30:30.781250
1012,30.84,2022-10-26 16:30:30.796875
1013,30.93,2022-10-26 16:30:30.812500
1014,29.71,2022-10-26 16:30:30.828125
1015,27.89,2022-10-26 16:30:30.843750
1016,25.96,2022-10-26 16:30:30.859375
1017,24.21,2022-10-26 16:30:30.875000
1018,22.76,2022-10-26 16:30:30.890625
1019,21.66,2022-10-26 16:30:30.906250
1020,20.91,2022-10-26 16:30:30.921875
1021,20.53,2022-10-26 16:30:30.937500
1022,20.52,2022-10-26 16:30:30.953125
1023,20.83,2022-10-26 16:30:30.968750
1024,21.33,2022-10-26 16:30:30.984375
1025,21.76,2022-10-26 16:30:31.000000
1026,21.75,2022-10-26 16:30:31.015625
1027,20.95,2022-10-26 16:30:31.031250
1028,19.05,2022-10-26 16:30:31.046875
1029,16.02,2022-10-26 16:30:31.062500
1030,12.07,2022-10-26 16:30:31.078125
1031,7.69,2022-10-26 16:30:31.093750
1032,3.44,2022-10-26 16:30:31.109375
1033,-0.24,2022-10-26 16:30:31.125000
1034,-3.16,2022-10-26 16:30:31.140625
1035,-5.51,2022-10-26 16:30:31.156250
1036,-7.71,2022-10-26 16:30:31.171875
1037,-10.25,2022-10-26 16:30:31.187500
1038,-13.44,2022-10-26 16:30:31.203125
1039,-17.35,2022-10-26 16:30:31.218750
1040,-21.85,2022-10-26 16:30:31.234375
1041,-26.64,2022-10-26 16:30:31.250000
1042,-31.39,2022-10-26 16:30:31.265625
1043,-35.63,2022-10-26 16:30:31.281250
1044,-38.88,2022-10-26 16:30:31.296875
1045,-40.59,2022-10-26 16:30:31.312500
1046,-40.31,2022-10-26 16:30:31.328125
1047,-37.78,2022-10-26 16:30:31.343750
1048,-33.1,2022-10-26 16:30:31.359375
1049,-26.66,2022-10-26 16:30:31.375000
1050,-19.05,2022-10-26 16:30:31.390625
1051,-10.91,2022-10-26 16:30:31.406250
1052,-2.82,2022-10-26 16:30:31.421875
1053,4.79,2022-10-26 16:30:31.437500
1054,11.56,2022-10-26 16:30:31.453125
1055,17.23,2022-10-26 16:30:31.468750
1056,21.61,2022-10-26 16:30:31.484375
1057,24.64,2022-10-26 16:30:31.500000
1058,26.38,2022-10-26 16:30:31.515625
1059,26.98,2022-10-26 16:30:31.531250
1060,26.61,2022-10-26 16:30:31.546875
1061,25.43,2022-10-26 16:30:31.562500
1062,23.6,2022-10-26 16:30:31.578125
1063,21.33,2022-10-26 16:30:31.593750
1064,18.93,2022-10-26 16:30:31.609375
1065,16.79,2022-10-26 16:30:31.625000
1066,15.37,2022-10-26 16:30:31.640625
1067,14.97,2022-10-26 16:30:31.656250
1068,15.7,2022-10-26 16:30:31.671875
1069,17.32,2022-10-26 16:30:31.687500
1070,19.38,2022-10-26 16:30:31.703125
1071,21.33,2022-10-26 16:30:31.718750
1072,22.71,2022-10-26 16:30:31.734375
1073,23.33,2022-10-26 16:30:31.750000
1074,23.21,2022-10-26 16:30:31.765625
1075,22.53,2022-10-26 16:30:31.781250
1076,21.4,2022-10-26 16:30:31.796875
1077,19.83,2022-10-26 16:30:31.812500
1078,17.76,2022-10-26 16:30:31.828125
1079,15.16,2022-10-26 16:30:31.843750
1080,12.13,2022-10-26 16:30:31.859375
1081,8.93,2022-10-26 16:30:31.875000
1082,5.77,2022-10-26 16:30:31.890625
1083,2.76,2022-10-26 16:30:31.906250
1084,-0.17,2022-10-26 16:30:31.921875
1085,-3.18,2022-10-26 16:30:31.937500
1086,-6.39,2022-10-26 16:30:31.953125
1087,-9.83,2022-10-26 16:30:31.968750
1088,-13.45,2022-10-26 16:30:31.984375
1089,-17.21,2022-10-26 16:30:32.000000
1090,-21.07,2022-10-26 16:30:32.015625
1091,-24.89,2022-10-26 16:30:32.031250
1092,-28.29,2022-10-26 16:30:32.046875
1093,-30.64,2022-10-26 16:30:32.062500
1094,-31.13,2022-10-26 16:30:32.078125
1095,-29.15,2022-10-26 16:30:32.093750
1096,-24.45,2022-10-26 16:30:32.109375
1097,-17.36,2022-10-26 16:30:32.125000
1098,-8.61,2022-10-26 16:30:32.140625
1099,0.89,2022-10-26 16:30:32.156250
1100,10.27,2022-10-26 16:30:32.171875
1101,18.88,2022-10-26 16:30:32.187500
1102,26.32,2022-10-26 16:30:32.203125
1103,32.41,2022-10-26 16:30:32.218750
1104,37.05,2022-10-26 16:30:32.234375
1105,40.24,2022-10-26 16:30:32.250000
1106,42.0,2022-10-26 16:30:32.265625
1107,42.38,2022-10-26 16:30:32.281250
1108,41.53,2022-10-26 16:30:32.296875
1109,39.68,2022-10-26 16:30:32.312500
1110,37.21,2022-10-26 16:30:32.328125
1111,34.59,2022-10-26 16:30:32.343750
1112,32.33,2022-10-26 16:30:32.359375
1113,30.77,2022-10-26 16:30:32.375000
1114,30.08,2022-10-26 16:30:32.390625
1115,30.09,2022-10-26 16:30:32.406250
1116,30.55,2022-10-26 16:30:32.421875
1117,31.17,2022-10-26 16:30:32.437500
1118,31.8,2022-10-26 16:30:32.453125
1119,32.43,2022-10-26 16:30:32.468750
1120,33.1,2022-10-26 16:30:32.484375
1121,33.76,2022-10-26 16:30:32.500000
1122,34.19,2022-10-26 16:30:32.515625
1123,34.15,2022-10-26 16:30:32.531250
1124,33.4,2022-10-26 16:30:32.546875
1125,31.89,2022-10-26 16:30:32.562500
1126,29.74,2022-10-26 16:30:32.578125
1127,27.16,2022-10-26 16:30:32.593750
1128,24.33,2022-10-26 16:30:32.609375
1129,21.25,2022-10-26 16:30:32.625000
1130,17.82,2022-10-26 16:30:32.640625
1131,13.96,2022-10-26 16:30:32.656250
1132,9.69,2022-10-26 16:30:32.671875
1133,5.22,2022-10-26 16:30:32.687500
1134,0.84,2022-10-26 16:30:32.703125
1135,-3.18,2022-10-26 16:30:32.718750
1136,-6.83,2022-10-26 16:30:32.734375
1137,-10.3,2022-10-26 16:30:32.750000
1138,-13.97,2022-10-26 16:30:32.765625
1139,-18.14,2022-10-26 16:30:32.781250
1140,-22.85,2022-10-26 16:30:32.796875
1141,-27.69,2022-10-26 16:30:32.812500
1142,-31.85,2022-10-26 16:30:32.828125
1143,-34.38,2022-10-26 16:30:32.843750
1144,-34.46,2022-10-26 16:30:32.859375
1145,-31.73,2022-10-26 16:30:32.875000
1146,-26.39,2022-10-26 16:30:32.890625
1147,-19.1,2022-10-26 16:30:32.906250
1148,-10.69,2022-10-26 16:30:32.921875
1149,-1.93,2022-10-26 16:30:32.937500
1150,6.69,2022-10-26 16:30:32.953125
1151,14.81,2022-10-26 16:30:32.968750
1152,22.13,2022-10-26 16:30:32.984375
1153,28.28,2022-10-26 16:30:33.000000
1154,32.82,2022-10-26 16:30:33.015625
1155,35.49,2022-10-26 16:30:33.031250
1156,36.3,2022-10-26 16:30:33.046875
1157,35.62,2022-10-26 16:30:33.062500
1158,34.07,2022-10-26 16:30:33.078125
1159,32.27,2022-10-26 16:30:33.093750
1160,30.65,2022-10-26 16:30:33.109375
1161,29.35,2022-10-26 16:30:33.125000
1162,28.29,2022-10-26 16:30:33.140625
1163,27.38,2022-10-26 16:30:33.156250
1164,26.61,2022-10-26 16:30:33.171875
1165,26.13,2022-10-26 16:30:33.187500
1166,26.14,2022-10-26 16:30:33.203125
1167,26.75,2022-10-26 16:30:33.218750
1168,27.87,2022-10-26 16:30:33.234375
1169,29.26,2022-10-26 16:30:33.250000
1170,30.59,2022-10-26 16:30:33.265625
1171,31.59,2022-10-26 16:30:33.281250
1172,32.12,2022-10-26 16:30:33.296875
1173,32.12,2022-10-26 16:30:33.312500
1174,31.61,2022-10-26 16:30:33.328125
1175,30.59,2022-10-26 16:30:33.343750
1176,29.02,2022-10-26 16:30:33.359375
1177,26.92,2022-10-26 16:30:33.375000
1178,24.39,2022-10-26 16:30:33.390625
1179,21.63,2022-10-26 16:30:33.406250
1180,18.87,2022-10-26 16:30:33.421875
1181,16.24,2022-10-26 16:30:33.437500
1182,13.74,2022-10-26 16:30:33.453125
1183,11.18,2022-10-26 16:30:33.468750
1184,8.37,2022-10-26 16:30:33.484375
1185,5.22,2022-10-26 16:30:33.500000
1186,1.83,2022-10-26 16:30:33.515625
1187,-1.52,2022-10-26 16:30:33.531250
1188,-4.54,2022-10-26 16:30:33.546875
1189,-7.03,2022-10-26 16:30:33.562500
1190,-8.99,2022-10-26 16:30:33.578125
1191,-10.66,2022-10-26 16:30:33.593750
1192,-12.44,2022-10-26 16:30:33.609375
1193,-14.74,2022-10-26 16:30:33.625000
1194,-17.85,2022-10-26 16:30:33.640625
1195,-21.78,2022-10-26 16:30:33.656250
1196,-26.18,2022-10-26 16:30:33.671875
1197,-30.4,2022-10-26 16:30:33.687500
1198,-33.57,2022-10-26 16:30:33.703125
1199,-34.84,2022-10-26 16:30:33.718750
1200,-33.63,2022-10-26 16:30:33.734375
1201,-29.86,2022-10-26 16:30:33.750000
1202,-23.94,2022-10-26 16:30:33.765625
1203,-16.69,2022-10-26 16:30:33.781250
1204,-9.03,2022-10-26 16:30:33.796875
1205,-1.76,2022-10-26 16:30:33.812500
1206,4.61,2022-10-26 16:30:33.828125
1207,9.88,2022-10-26 16:30:33.843750
1208,14.02,2022-10-26 16:30:33.859375
1209,17.04,2022-10-26 16:30:33.875000
1210,18.93,2022-10-26 16:30:33.890625
1211,19.63,2022-10-26 16:30:33.906250
1212,19.17,2022-10-26 16:30:33.921875
1213,17.73,2022-10-26 16:30:33.937500
1214,15.7,2022-10-26 16:30:33.953125
1215,13.57,2022-10-26 16:30:33.968750
1216,11.78,2022-10-26 16:30:33.984375
1217,10.59,2022-10-26 16:30:34.000000
1218,10.07,2022-10-26 16:30:34.015625
1219,10.15,2022-10-26 16:30:34.031250
1220,10.68,2022-10-26 16:30:34.046875
1221,11.54,2022-10-26 16:30:34.062500
1222,12.6,2022-10-26 16:30:34.078125
1223,13.67,2022-10-26 16:30:34.093750
1224,14.56,2022-10-26 16:30:34.109375
1225,15.05,2022-10-26 16:30:34.125000
1226,15.05,2022-10-26 16:30:34.140625
1227,14.65,2022-10-26 16:30:34.156250
1228,14.12,2022-10-26 16:30:34.171875
1229,13.81,2022-10-26 16:30:34.187500
1230,13.94,2022-10-26 16:30:34.203125
1231,14.54,2022-10-26 16:30:34.218750
1232,15.4,2022-10-26 16:30:34.234375
1233,16.19,2022-10-26 16:30:34.250000
1234,16.56,2022-10-26 16:30:34.265625
1235,16.3,2022-10-26 16:30:34.281250
1236,15.31,2022-10-26 16:30:34.296875
1237,13.65,2022-10-26 16:30:34.312500
1238,11.5,2022-10-26 16:30:34.328125
1239,9.09,2022-10-26 16:30:34.343750
1240,6.71,2022-10-26 16:30:34.359375
1241,4.55,2022-10-26 16:30:34.375000
1242,2.73,2022-10-26 16:30:34.390625
1243,1.17,2022-10-26 16:30:34.406250
1244,-0.25,2022-10-26 16:30:34.421875
1245,-1.73,2022-10-26 16:30:34.437500
1246,-3.44,2022-10-26 16:30:34.453125
1247,-5.46,2022-10-26 16:30:34.468750
1248,-7.86,2022-10-26 16:30:34.484375
1249,-10.65,2022-10-26 16:30:34.500000
1250,-13.82,2022-10-26 16:30:34.515625
1251,-17.3,2022-10-26 16:30:34.531250
1252,-21.01,2022-10-26 16:30:34.546875
1253,-24.78,2022-10-26 16:30:34.562500
1254,-28.44,2022-10-26 16:30:34.578125
1255,-31.78,2022-10-26 16:30:34.593750
1256,-34.51,2022-10-26 16:30:34.609375
1257,-36.24,2022-10-26 16:30:34.625000
1258,-36.52,2022-10-26 16:30:34.640625
1259,-34.94,2022-10-26 16:30:34.656250
1260,-31.29,2022-10-26 16:30:34.671875
1261,-25.67,2022-10-26 16:30:34.687500
1262,-18.55,2022-10-26 16:30:34.703125
1263,-10.66,2022-10-26 16:30:34.718750
1264,-2.82,2022-10-26 16:30:34.734375
1265,4.26,2022-10-26 16:30:34.750000
1266,10.02,2022-10-26 16:30:34.765625
1267,14.19,2022-10-26 16:30:34.781250
1268,16.74,2022-10-26 16:30:34.796875
1269,17.86,2022-10-26 16:30:34.812500
1270,17.87,2022-10-26 16:30:34.828125
1271,17.14,2022-10-26 16:30:34.843750
1272,16.02,2022-10-26 16:30:34.859375
1273,14.76,2022-10-26 16:30:34.875000
1274,13.47,2022-10-26 16:30:34.890625
1275,12.22,2022-10-26 16:30:34.906250
1276,11.09,2022-10-26 16:30:34.921875
1277,10.2,2022-10-26 16:30:34.937500
1278,9.65,2022-10-26 16:30:34.953125
1279,9.53,2022-10-26 16:30:34.968750
1280,9.85,2022-10-26 16:30:34.984375
1281,10.55,2022-10-26 16:30:35.000000
1282,11.57,2022-10-26 16:30:35.015625
1283,12.81,2022-10-26 16:30:35.031250
1284,14.19,2022-10-26 16:30:35.046875
1285,15.51,2022-10-26 16:30:35.062500
1286,16.56,2022-10-26 16:30:35.078125
1287,17.07,2022-10-26 16:30:35.093750
1288,16.89,2022-10-26 16:30:35.109375
1289,15.97,2022-10-26 16:30:35.125000
1290,14.43,2022-10-26 16:30:35.140625
1291,12.47,2022-10-26 16:30:35.156250
1292,10.26,2022-10-26 16:30:35.171875
1293,7.96,2022-10-26 16:30:35.187500
1294,5.61,2022-10-26 16:30:35.203125
1295,3.26,2022-10-26 16:30:35.218750
1296,0.95,2022-10-26 16:30:35.234375
1297,-1.22,2022-10-26 16:30:35.250000
1298,-3.18,2022-10-26 16:30:35.265625
1299,-4.86,2022-10-26 16:30:35.281250
1300,-6.27,2022-10-26 16:30:35.296875
1301,-7.48,2022-10-26 16:30:35.312500
1302,-8.59,2022-10-26 16:30:35.328125
1303,-9.74,2022-10-26 16:30:35.343750
1304,-11.04,2022-10-26 16:30:35.359375
1305,-12.61,2022-10-26 16:30:35.375000
1306,-14.58,2022-10-26 16:30:35.390625
1307,-17.08,2022-10-26 16:30:35.406250
1308,-20.19,2022-10-26 16:30:35.421875
1309,-23.81,2022-10-26 16:30:35.437500
1310,-27.58,2022-10-26 16:30:35.453125
1311,-30.93,2022-10-26 16:30:35.468750
1312,-33.13,2022-10-26 16:30:35.484375
1313,-33.57,2022-10-26 16:30:35.500000
1314,-31.92,2022-10-26 16:30:35.515625
1315,-28.27,2022-10-26 16:30:35.531250
1316,-23.06,2022-10-26 16:30:35.546875
1317,-16.91,2022-10-26 16:30:35.562500
1318,-10.43,2022-10-26 16:30:35.578125
1319,-4.12,2022-10-26 16:30:35.593750
1320,1.66,2022-10-26 16:30:35.609375
1321,6.7,2022-10-26 16:30:35.625000
1322,10.84,2022-10-26 16:30:35.640625
1323,13.95,2022-10-26 16:30:35.656250
1324,16.02,2022-10-26 16:30:35.671875
1325,17.13,2022-10-26 16:30:35.687500
1326,17.43,2022-10-26 16:30:35.703125
1327,17.05,2022-10-26 16:30:35.718750
1328,16.11,2022-10-26 16:30:35.734375
1329,14.64,2022-10-26 16:30:35.750000
1330,12.62,2022-10-26 16:30:35.765625
1331,10.16,2022-10-26 16:30:35.781250
1332,7.45,2022-10-26 16:30:35.796875
1333,4.86,2022-10-26 16:30:35.812500
1334,2.85,2022-10-26 16:30:35.828125
1335,1.76,2022-10-26 16:30:35.843750
1336,1.69,2022-10-26 16:30:35.859375
1337,2.47,2022-10-26 16:30:35.875000
1338,3.7,2022-10-26 16:30:35.890625
1339,4.9,2022-10-26 16:30:35.906250
1340,5.71,2022-10-26 16:30:35.921875
1341,6.01,2022-10-26 16:30:35.937500
1342,5.87,2022-10-26 16:30:35.953125
1343,5.47,2022-10-26 16:30:35.968750
1344,4.96,2022-10-26 16:30:35.984375
1345,4.36,2022-10-26 16:30:36.000000
1346,3.6,2022-10-26 16:30:36.015625
1347,2.55,2022-10-26 16:30:36.031250
1348,1.13,2022-10-26 16:30:36.046875
1349,-0.68,2022-10-26 16:30:36.062500
1350,-2.83,2022-10-26 16:30:36.078125
1351,-5.2,2022-10-26 16:30:36.093750
1352,-7.68,2022-10-26 16:30:36.109375
1353,-10.15,2022-10-26 16:30:36.125000
1354,-12.47,2022-10-26 16:30:36.140625
1355,-14.54,2022-10-26 16:30:36.156250
1356,-16.33,2022-10-26 16:30:36.171875
1357,-17.84,2022-10-26 16:30:36.187500
1358,-19.16,2022-10-26 16:30:36.203125
1359,-20.42,2022-10-26 16:30:36.218750
1360,-21.79,2022-10-26 16:30:36.234375
1361,-23.41,2022-10-26 16:30:36.250000
1362,-25.32,2022-10-26 16:30:36.265625
1363,-27.41,2022-10-26 16:30:36.281250
1364,-29.41,2022-10-26 16:30:36.296875
1365,-30.91,2022-10-26 16:30:36.312500
1366,-31.4,2022-10-26 16:30:36.328125
1367,-30.52,2022-10-26 16:30:36.343750
1368,-28.07,2022-10-26 16:30:36.359375
1369,-24.16,2022-10-26 16:30:36.375000
1370,-19.15,2022-10-26 16:30:36.390625
1371,-13.55,2022-10-26 16:30:36.406250
1372,-7.89,2022-10-26 16:30:36.421875
1373,-2.63,2022-10-26 16:30:36.437500
1374,1.94,2022-10-26 16:30:36.453125
1375,5.68,2022-10-26 16:30:36.468750
1376,8.55,2022-10-26 16:30:36.484375
1377,10.6,2022-10-26 16:30:36.500000
1378,11.93,2022-10-26 16:30:36.515625
1379,12.68,2022-10-26 16:30:36.531250
1380,12.96,2022-10-26 16:30:36.546875
1381,12.86,2022-10-26 16:30:36.562500
1382,12.42,2022-10-26 16:30:36.578125
1383,11.67,2022-10-26 16:30:36.593750
1384,10.71,2022-10-26 16:30:36.609375
1385,9.64,2022-10-26 16:30:36.625000
1386,8.61,2022-10-26 16:30:36.640625
1387,7.8,2022-10-26 16:30:36.656250
1388,7.31,2022-10-26 16:30:36.671875
1389,7.19,2022-10-26 16:30:36.687500
1390,7.39,2022-10-26 16:30:36.703125
1391,7.8,2022-10-26 16:30:36.718750
1392,8.25,2022-10-26 16:30:36.734375
1393,8.6,2022-10-26 16:30:36.750000
1394,8.75,2022-10-26 16:30:36.765625
1395,8.64,2022-10-26 16:30:36.781250
1396,8.25,2022-10-26 16:30:36.796875
1397,7.56,2022-10-26 16:30:36.812500
1398,6.61,2022-10-26 16:30:36.828125
1399,5.39,2022-10-26 16:30:36.843750
1400,3.97,2022-10-26 16:30:36.859375
1401,2.37,2022-10-26 16:30:36.875000
1402,0.64,2022-10-26 16:30:36.890625
1403,-1.2,2022-10-26 16:30:36.906250
1404,-3.14,2022-10-26 16:30:36.921875
1405,-5.16,2022-10-26 16:30:36.937500
1406,-7.2,2022-10-26 16:30:36.953125
1407,-9.14,2022-10-26 16:30:36.968750
1408,-10.86,2022-10-26 16:30:36.984375
1409,-12.31,2022-10-26 16:30:37.000000
1410,-13.56,2022-10-26 16:30:37.015625
1411,-14.84,2022-10-26 16:30:37.031250
1412,-16.43,2022-10-26 16:30:37.046875
1413,-18.51,2022-10-26 16:30:37.062500
1414,-21.04,2022-10-26 16:30:37.078125
1415,-23.68,2022-10-26 16:30:37.093750
1416,-25.9,2022-10-26 16:30:37.109375
1417,-27.12,2022-10-26 16:30:37.125000
1418,-26.88,2022-10-26 16:30:37.140625
1419,-25.02,2022-10-26 16:30:37.156250
1420,-21.68,2022-10-26 16:30:37.171875
1421,-17.26,2022-10-26 16:30:37.187500
1422,-12.27,2022-10-26 16:30:37.203125
1423,-7.19,2022-10-26 16:30:37.218750
1424,-2.39,2022-10-26 16:30:37.234375
1425,1.84,2022-10-26 16:30:37.250000
1426,5.34,2022-10-26 16:30:37.265625
1427,8.03,2022-10-26 16:30:37.281250
1428,9.92,2022-10-26 16:30:37.296875
1429,11.08,2022-10-26 16:30:37.312500
1430,11.6,2022-10-26 16:30:37.328125
1431,11.58,2022-10-26 16:30:37.343750
1432,11.08,2022-10-26 16:30:37.359375
1433,10.13,2022-10-26 16:30:37.375000
1434,8.79,2022-10-26 16:30:37.390625
1435,7.14,2022-10-26 16:30:37.406250
1436,5.37,2022-10-26 16:30:37.421875
1437,3.66,2022-10-26 16:30:37.437500
1438,2.29,2022-10-26 16:30:37.453125
1439,1.42,2022-10-26 16:30:37.468750
1440,1.18,2022-10-26 16:30:37.484375
1441,1.5,2022-10-26 16:30:37.500000
1442,2.23,2022-10-26 16:30:37.515625
1443,3.11,2022-10-26 16:30:37.531250
1444,3.85,2022-10-26 16:30:37.546875
1445,4.26,2022-10-26 16:30:37.562500
1446,4.33,2022-10-26 16:30:37.578125
1447,4.16,2022-10-26 16:30:37.593750
1448,3.93,2022-10-26 16:30:37.609375
1449,3.78,2022-10-26 16:30:37.625000
1450,3.64,2022-10-26 16:30:37.640625
1451,3.36,2022-10-26 16:30:37.656250
1452,2.71,2022-10-26 16:30:37.671875
1453,1.56,2022-10-26 16:30:37.687500
1454,-0.07,2022-10-26 16:30:37.703125
1455,-2.04,2022-10-26 16:30:37.718750
1456,-4.14,2022-10-26 16:30:37.734375
1457,-6.24,2022-10-26 16:30:37.750000
1458,-8.24,2022-10-26 16:30:37.765625
1459,-10.14,2022-10-26 16:30:37.781250
1460,-11.99,2022-10-26 16:30:37.796875
1461,-13.9,2022-10-26 16:30:37.812500
1462,-15.94,2022-10-26 16:30:37.828125
1463,-18.16,2022-10-26 16:30:37.843750
1464,-20.45,2022-10-26 16:30:37.859375
1465,-22.58,2022-10-26 16:30:37.875000
1466,-24.18,2022-10-26 16:30:37.890625
1467,-24.82,2022-10-26 16:30:37.906250
1468,-24.2,2022-10-26 16:30:37.921875
1469,-22.22,2022-10-26 16:30:37.937500
1470,-18.99,2022-10-26 16:30:37.953125
1471,-14.81,2022-10-26 16:30:37.968750
1472,-10.0,2022-10-26 16:30:37.984375
1473,-4.94,2022-10-26 16:30:38.000000
1474,0.06,2022-10-26 16:30:38.015625
1475,4.67,2022-10-26 16:30:38.031250
1476,8.6,2022-10-26 16:30:38.046875
1477,11.63,2022-10-26 16:30:38.062500
1478,13.69,2022-10-26 16:30:38.078125
1479,14.83,2022-10-26 16:30:38.093750
1480,15.2,2022-10-26 16:30:38.109375
1481,14.97,2022-10-26 16:30:38.125000
1482,14.24,2022-10-26 16:30:38.140625
1483,13.1,2022-10-26 16:30:38.156250
1484,11.57,2022-10-26 16:30:38.171875
1485,9.8,2022-10-26 16:30:38.187500
1486,7.96,2022-10-26 16:30:38.203125
1487,6.34,2022-10-26 16:30:38.218750
1488,5.18,2022-10-26 16:30:38.234375
1489,4.61,2022-10-26 16:30:38.250000
1490,4.65,2022-10-26 16:30:38.265625
1491,5.11,2022-10-26 16:30:38.281250
1492,5.72,2022-10-26 16:30:38.296875
1493,6.2,2022-10-26 16:30:38.312500
1494,6.34,2022-10-26 16:30:38.328125
1495,6.07,2022-10-26 16:30:38.343750
1496,5.51,2022-10-26 16:30:38.359375
1497,4.78,2022-10-26 16:30:38.375000
1498,3.99,2022-10-26 16:30:38.390625
1499,3.06,2022-10-26 16:30:38.406250
1500,1.82,2022-10-26 16:30:38.421875
1501,0.11,2022-10-26 16:30:38.437500
1502,-2.1,2022-10-26 16:30:38.453125
1503,-4.58,2022-10-26 16:30:38.468750
1504,-7.01,2022-10-26 16:30:38.484375
1505,-9.11,2022-10-26 16:30:38.500000
1506,-10.79,2022-10-26 16:30:38.515625
1507,-12.23,2022-10-26 16:30:38.531250
1508,-13.8,2022-10-26 16:30:38.546875
1509,-15.8,2022-10-26 16:30:38.562500
1510,-18.32,2022-10-26 16:30:38.578125
1511,-21.23,2022-10-26 16:30:38.593750
1512,-24.18,2022-10-26 16:30:38.609375
1513,-26.79,2022-10-26 16:30:38.625000
1514,-28.72,2022-10-26 16:30:38.640625
1515,-29.67,2022-10-26 16:30:38.656250
1516,-29.45,2022-10-26 16:30:38.671875
1517,-27.86,2022-10-26 16:30:38.687500
1518,-24.79,2022-10-26 16:30:38.703125
1519,-20.28,2022-10-26 16:30:38.718750
1520,-14.66,2022-10-26 16:30:38.734375
1521,-8.46,2022-10-26 16:30:38.750000
1522,-2.35,2022-10-26 16:30:38.765625
1523,3.06,2022-10-26 16:30:38.781250
1524,7.38,2022-10-26 16:30:38.796875
1525,10.53,2022-10-26 16:30:38.812500
1526,12.67,2022-10-26 16:30:38.828125
1527,14.02,2022-10-26 16:30:38.843750
1528,14.73,2022-10-26 16:30:38.859375
1529,14.81,2022-10-26 16:30:38.875000
1530,14.18,2022-10-26 16:30:38.890625
1531,12.82,2022-10-26 16:30:38.906250
1532,10.91,2022-10-26 16:30:38.921875
1533,8.8,2022-10-26 16:30:38.937500
1534,6.92,2022-10-26 16:30:38.953125
1535,5.66,2022-10-26 16:30:38.968750
1536,5.15,2022-10-26 16:30:38.984375
1537,5.35,2022-10-26 16:30:39.000000
1538,6.01,2022-10-26 16:30:39.015625
1539,6.9,2022-10-26 16:30:39.031250
1540,7.77,2022-10-26 16:30:39.046875
1541,8.5,2022-10-26 16:30:39.062500
1542,8.98,2022-10-26 16:30:39.078125
1543,9.14,2022-10-26 16:30:39.093750
1544,8.9,2022-10-26 16:30:39.109375
1545,8.2,2022-10-26 16:30:39.125000
1546,7.05,2022-10-26 16:30:39.140625
1547,5.49,2022-10-26 16:30:39.156250
1548,3.63,2022-10-26 16:30:39.171875
1549,1.54,2022-10-26 16:30:39.187500
1550,-0.68,2022-10-26 16:30:39.203125
1551,-2.96,2022-10-26 16:30:39.218750
1552,-5.24,2022-10-26 16:30:39.234375
1553,-7.46,2022-10-26 16:30:39.250000
1554,-9.62,2022-10-26 16:30:39.265625
1555,-11.73,2022-10-26 16:30:39.281250
1556,-13.87,2022-10-26 16:30:39.296875
1557,-16.14,2022-10-26 16:30:39.312500
1558,-18.7,2022-10-26 16:30:39.328125
1559,-21.63,2022-10-26 16:30:39.343750
1560,-24.87,2022-10-26 16:30:39.359375
1561,-28.15,2022-10-26 16:30:39.375000
1562,-30.95,2022-10-26 16:30:39.390625
1563,-32.62,2022-10-26 16:30:39.406250
1564,-32.66,2022-10-26 16:30:39.421875
1565,-30.78,2022-10-26 16:30:39.437500
1566,-27.07,2022-10-26 16:30:39.453125
1567,-22.0,2022-10-26 16:30:39.468750
1568,-16.14,2022-10-26 16:30:39.484375
1569,-10.1,2022-10-26 16:30:39.500000
1570,-4.32,2022-10-26 16:30:39.515625
1571,0.96,2022-10-26 16:30:39.531250
1572,5.58,2022-10-26 16:30:39.546875
1573,9.45,2022-10-26 16:30:39.562500
1574,12.43,2022-10-26 16:30:39.578125
1575,14.43,2022-10-26 16:30:39.593750
1576,15.37,2022-10-26 16:30:39.609375
1577,15.31,2022-10-26 16:30:39.625000
1578,14.42,2022-10-26 16:30:39.640625
1579,12.96,2022-10-26 16:30:39.656250
1580,11.25,2022-10-26 16:30:39.671875
1581,9.61,2022-10-26 16:30:39.687500
1582,8.26,2022-10-26 16:30:39.703125
1583,7.3,2022-10-26 16:30:39.718750
1584,6.73,2022-10-26 16:30:39.734375
1585,6.48,2022-10-26 16:30:39.750000
1586,6.49,2022-10-26 16:30:39.765625
1587,6.71,2022-10-26 16:30:39.781250
1588,7.15,2022-10-26 16:30:39.796875
1589,7.78,2022-10-26 16:30:39.812500
1590,8.6,2022-10-26 16:30:39.828125
1591,9.48,2022-10-26 16:30:39.843750
1592,10.24,2022-10-26 16:30:39.859375
1593,10.66,2022-10-26 16:30:39.875000
1594,10.5,2022-10-26 16:30:39.890625
1595,9.6,2022-10-26 16:30:39.906250
1596,7.93,2022-10-26 16:30:39.921875
1597,5.61,2022-10-26 16:30:39.937500
1598,2.89,2022-10-26 16:30:39.953125
1599,0.07,2022-10-26 16:30:39.968750
1600,-2.6,2022-10-26 16:30:39.984375
1601,-5.0,2022-10-26 16:30:40.000000
1602,-7.16,2022-10-26 16:30:40.015625
1603,-9.27,2022-10-26 16:30:40.031250
1604,-11.53,2022-10-26 16:30:40.046875
1605,-14.16,2022-10-26 16:30:40.062500
1606,-17.28,2022-10-26 16:30:40.078125
1607,-20.95,2022-10-26 16:30:40.093750
1608,-25.04,2022-10-26 16:30:40.109375
1609,-29.3,2022-10-26 16:30:40.125000
1610,-33.28,2022-10-26 16:30:40.140625
1611,-36.36,2022-10-26 16:30:40.156250
1612,-37.93,2022-10-26 16:30:40.171875
1613,-37.45,2022-10-26 16:30:40.187500
1614,-34.7,2022-10-26 16:30:40.203125
1615,-29.84,2022-10-26 16:30:40.218750
1616,-23.38,2022-10-26 16:30:40.234375
1617,-15.98,2022-10-26 16:30:40.250000
1618,-8.37,2022-10-26 16:30:40.265625
1619,-1.1,2022-10-26 16:30:40.281250
1620,5.45,2022-10-26 16:30:40.296875
1621,11.01,2022-10-26 16:30:40.312500
1622,15.43,2022-10-26 16:30:40.328125
1623,18.59,2022-10-26 16:30:40.343750
1624,20.46,2022-10-26 16:30:40.359375
1625,21.11,2022-10-26 16:30:40.375000
1626,20.68,2022-10-26 16:30:40.390625
1627,19.42,2022-10-26 16:30:40.406250
1628,17.58,2022-10-26 16:30:40.421875
1629,15.43,2022-10-26 16:30:40.437500
1630,13.18,2022-10-26 16:30:40.453125
1631,11.09,2022-10-26 16:30:40.468750
1632,9.44,2022-10-26 16:30:40.484375
1633,8.45,2022-10-26 16:30:40.500000
1634,8.29,2022-10-26 16:30:40.515625
1635,8.98,2022-10-26 16:30:40.531250
1636,10.34,2022-10-26 16:30:40.546875
1637,12.09,2022-10-26 16:30:40.562500
1638,13.89,2022-10-26 16:30:40.578125
1639,15.46,2022-10-26 16:30:40.593750
1640,16.64,2022-10-26 16:30:40.609375
1641,17.35,2022-10-26 16:30:40.625000
1642,17.58,2022-10-26 16:30:40.640625
1643,17.27,2022-10-26 16:30:40.656250
1644,16.35,2022-10-26 16:30:40.671875
1645,14.75,2022-10-26 16:30:40.687500
1646,12.45,2022-10-26 16:30:40.703125
1647,9.58,2022-10-26 16:30:40.718750
1648,6.39,2022-10-26 16:30:40.734375
1649,3.21,2022-10-26 16:30:40.750000
1650,0.27,2022-10-26 16:30:40.765625
1651,-2.36,2022-10-26 16:30:40.781250
1652,-4.85,2022-10-26 16:30:40.796875
1653,-7.41,2022-10-26 16:30:40.812500
1654,-10.24,2022-10-26 16:30:40.828125
1655,-13.46,2022-10-26 16:30:40.843750
1656,-17.02,2022-10-26 16:30:40.859375
1657,-20.81,2022-10-26 16:30:40.875000
1658,-24.63,2022-10-26 16:30:40.890625
1659,-28.21,2022-10-26 16:30:40.906250
1660,-31.15,2022-10-26 16:30:40.921875
1661,-32.9,2022-10-26 16:30:40.937500
1662,-32.89,2022-10-26 16:30:40.953125
1663,-30.68,2022-10-26 16:30:40.968750
1664,-26.15,2022-10-26 16:30:40.984375
1665,-19.55,2022-10-26 16:30:41.000000
1666,-11.54,2022-10-26 16:30:41.015625
1667,-2.94,2022-10-26 16:30:41.031250
1668,5.45,2022-10-26 16:30:41.046875
1669,13.0,2022-10-26 16:30:41.062500
1670,19.37,2022-10-26 16:30:41.078125
1671,24.46,2022-10-26 16:30:41.093750
1672,28.31,2022-10-26 16:30:41.109375
1673,31.0,2022-10-26 16:30:41.125000
1674,32.58,2022-10-26 16:30:41.140625
1675,33.06,2022-10-26 16:30:41.156250
1676,32.48,2022-10-26 16:30:41.171875
1677,30.98,2022-10-26 16:30:41.187500
1678,28.84,2022-10-26 16:30:41.203125
1679,26.44,2022-10-26 16:30:41.218750
1680,24.2,2022-10-26 16:30:41.234375
1681,22.4,2022-10-26 16:30:41.250000
1682,21.18,2022-10-26 16:30:41.265625
1683,20.51,2022-10-26 16:30:41.281250
1684,20.3,2022-10-26 16:30:41.296875
1685,20.43,2022-10-26 16:30:41.312500
1686,20.79,2022-10-26 16:30:41.328125
1687,21.22,2022-10-26 16:30:41.343750
1688,21.49,2022-10-26 16:30:41.359375
1689,21.38,2022-10-26 16:30:41.375000
1690,20.68,2022-10-26 16:30:41.390625
1691,19.34,2022-10-26 16:30:41.406250
1692,17.43,2022-10-26 16:30:41.421875
1693,15.13,2022-10-26 16:30:41.437500
1694,12.59,2022-10-26 16:30:41.453125
1695,9.9,2022-10-26 16:30:41.468750
1696,7.04,2022-10-26 16:30:41.484375
1697,3.98,2022-10-26 16:30:41.500000
1698,0.76,2022-10-26 16:30:41.515625
1699,-2.5,2022-10-26 16:30:41.531250
1700,-5.53,2022-10-26 16:30:41.546875
1701,-8.17,2022-10-26 16:30:41.562500
1702,-10.4,2022-10-26 16:30:41.578125
1703,-12.49,2022-10-26 16:30:41.593750
1704,-14.86,2022-10-26 16:30:41.609375
1705,-17.89,2022-10-26 16:30:41.625000
1706,-21.74,2022-10-26 16:30:41.640625
1707,-26.12,2022-10-26 16:30:41.656250
1708,-30.37,2022-10-26 16:30:41.671875
1709,-33.6,2022-10-26 16:30:41.687500
1710,-34.97,2022-10-26 16:30:41.703125
1711,-33.95,2022-10-26 16:30:41.718750
1712,-30.44,2022-10-26 16:30:41.734375
1713,-24.69,2022-10-26 16:30:41.750000
1714,-17.21,2022-10-26 16:30:41.765625
1715,-8.54,2022-10-26 16:30:41.781250
1716,0.93,2022-10-26 16:30:41.796875
1717,10.92,2022-10-26 16:30:41.812500
1718,21.25,2022-10-26 16:30:41.828125
1719,31.65,2022-10-26 16:30:41.843750
1720,41.67,2022-10-26 16:30:41.859375
1721,50.64,2022-10-26 16:30:41.875000
1722,57.77,2022-10-26 16:30:41.890625
1723,62.41,2022-10-26 16:30:41.906250
1724,64.28,2022-10-26 16:30:41.921875
1725,63.71,2022-10-26 16:30:41.937500
1726,61.65,2022-10-26 16:30:41.953125
1727,59.41,2022-10-26 16:30:41.968750
1728,58.18,2022-10-26 16:30:41.984375
1729,58.6,2022-10-26 16:30:42.000000
1730,60.54,2022-10-26 16:30:42.015625
1731,63.22,2022-10-26 16:30:42.031250
1732,65.64,2022-10-26 16:30:42.046875
1733,67.2,2022-10-26 16:30:42.062500
1734,67.99,2022-10-26 16:30:42.078125
1735,68.83,2022-10-26 16:30:42.093750
1736,70.91,2022-10-26 16:30:42.109375
1737,75.34,2022-10-26 16:30:42.125000
1738,82.76,2022-10-26 16:30:42.140625
1739,93.06,2022-10-26 16:30:42.156250
1740,105.11,2022-10-26 16:30:42.171875
1741,116.53,2022-10-26 16:30:42.187500
1742,123.79,2022-10-26 16:30:42.203125
1743,122.86,2022-10-26 16:30:42.218750
1744,110.55,2022-10-26 16:30:42.234375
1745,86.05,2022-10-26 16:30:42.250000
1746,51.88,2022-10-26 16:30:42.265625
1747,13.47,2022-10-26 16:30:42.281250
1748,-22.54,2022-10-26 16:30:42.296875
1749,-50.67,2022-10-26 16:30:42.312500
1750,-68.44,2022-10-26 16:30:42.328125
1751,-76.81,2022-10-26 16:30:42.343750
1752,-79.11,2022-10-26 16:30:42.359375
1753,-79.19,2022-10-26 16:30:42.375000
1754,-79.81,2022-10-26 16:30:42.390625
1755,-82.13,2022-10-26 16:30:42.406250
1756,-86.1,2022-10-26 16:30:42.421875
1757,-91.31,2022-10-26 16:30:42.437500
1758,-97.57,2022-10-26 16:30:42.453125
1759,-104.77,2022-10-26 16:30:42.468750
1760,-112.44,2022-10-26 16:30:42.484375
1761,-119.34,2022-10-26 16:30:42.500000
1762,-123.65,2022-10-26 16:30:42.515625
1763,-123.5,2022-10-26 16:30:42.531250
1764,-117.92,2022-10-26 16:30:42.546875
1765,-107.23,2022-10-26 16:30:42.562500
1766,-93.1,2022-10-26 16:30:42.578125
1767,-77.95,2022-10-26 16:30:42.593750
1768,-64.06,2022-10-26 16:30:42.609375
1769,-52.91,2022-10-26 16:30:42.625000
1770,-44.73,2022-10-26 16:30:42.640625
1771,-38.79,2022-10-26 16:30:42.656250
1772,-33.95,2022-10-26 16:30:42.671875
1773,-29.32,2022-10-26 16:30:42.687500
1774,-24.61,2022-10-26 16:30:42.703125
1775,-20.11,2022-10-26 16:30:42.718750
1776,-16.41,2022-10-26 16:30:42.734375
1777,-13.97,2022-10-26 16:30:42.750000
1778,-12.81,2022-10-26 16:30:42.765625
1779,-12.52,2022-10-26 16:30:42.781250
1780,-12.49,2022-10-26 16:30:42.796875
1781,-12.13,2022-10-26 16:30:42.812500
1782,-11.17,2022-10-26 16:30:42.828125
1783,-9.67,2022-10-26 16:30:42.843750
1784,-7.88,2022-10-26 16:30:42.859375
1785,-6.1,2022-10-26 16:30:42.875000
1786,-4.52,2022-10-26 16:30:42.890625
1787,-3.14,2022-10-26 16:30:42.906250
1788,-1.9,2022-10-26 16:30:42.921875
1789,-0.74,2022-10-26 16:30:42.937500
1790,0.31,2022-10-26 16:30:42.953125
1791,1.08,2022-10-26 16:30:42.968750
1792,1.41,2022-10-26 16:30:42.984375
1793,1.11,2022-10-26 16:30:43.000000
1794,0.09,2022-10-26 16:30:43.015625
1795,-1.65,2022-10-26 16:30:43.031250
1796,-4.01,2022-10-26 16:30:43.046875
1797,-6.87,2022-10-26 16:30:43.062500
1798,-10.1,2022-10-26 16:30:43.078125
1799,-13.54,2022-10-26 16:30:43.093750
1800,-17.04,2022-10-26 16:30:43.109375
1801,-20.43,2022-10-26 16:30:43.125000
1802,-23.55,2022-10-26 16:30:43.140625
1803,-26.31,2022-10-26 16:30:43.156250
1804,-28.7,2022-10-26 16:30:43.171875
1805,-30.78,2022-10-26 16:30:43.187500
1806,-32.68,2022-10-26 16:30:43.203125
1807,-34.46,2022-10-26 16:30:43.218750
1808,-36.06,2022-10-26 16:30:43.234375
1809,-37.27,2022-10-26 16:30:43.250000
1810,-37.7,2022-10-26 16:30:43.265625
1811,-36.91,2022-10-26 16:30:43.281250
1812,-34.49,2022-10-26 16:30:43.296875
1813,-30.25,2022-10-26 16:30:43.312500
1814,-24.24,2022-10-26 16:30:43.328125
1815,-16.89,2022-10-26 16:30:43.343750
1816,-8.9,2022-10-26 16:30:43.359375
1817,-1.14,2022-10-26 16:30:43.375000
1818,5.52,2022-10-26 16:30:43.390625
1819,10.35,2022-10-26 16:30:43.406250
1820,13.0,2022-10-26 16:30:43.421875
1821,13.54,2022-10-26 16:30:43.437500
1822,12.5,2022-10-26 16:30:43.453125
1823,10.68,2022-10-26 16:30:43.468750
1824,8.89,2022-10-26 16:30:43.484375
1825,7.7,2022-10-26 16:30:43.500000
1826,7.21,2022-10-26 16:30:43.515625
1827,7.1,2022-10-26 16:30:43.531250
1828,6.78,2022-10-26 16:30:43.546875
1829,5.7,2022-10-26 16:30:43.562500
1830,3.6,2022-10-26 16:30:43.578125
1831,0.52,2022-10-26 16:30:43.593750
1832,-3.17,2022-10-26 16:30:43.609375
1833,-6.98,2022-10-26 16:30:43.625000
1834,-10.4,2022-10-26 16:30:43.640625
1835,-13.04,2022-10-26 16:30:43.656250
1836,-14.67,2022-10-26 16:30:43.671875
1837,-15.21,2022-10-26 16:30:43.687500
1838,-14.83,2022-10-26 16:30:43.703125
1839,-13.86,2022-10-26 16:30:43.718750
1840,-12.81,2022-10-26 16:30:43.734375
1841,-12.2,2022-10-26 16:30:43.750000
1842,-12.35,2022-10-26 16:30:43.765625
1843,-13.15,2022-10-26 16:30:43.781250
1844,-14.0,2022-10-26 16:30:43.796875
1845,-14.01,2022-10-26 16:30:43.812500
1846,-12.27,2022-10-26 16:30:43.828125
1847,-8.34,2022-10-26 16:30:43.843750
1848,-2.46,2022-10-26 16:30:43.859375
1849,4.49,2022-10-26 16:30:43.875000
1850,11.25,2022-10-26 16:30:43.890625
1851,16.73,2022-10-26 16:30:43.906250
1852,20.31,2022-10-26 16:30:43.921875
1853,22.04,2022-10-26 16:30:43.937500
1854,22.42,2022-10-26 16:30:43.953125
1855,22.21,2022-10-26 16:30:43.968750
1856,22.13,2022-10-26 16:30:43.984375
1857,22.71,2022-10-26 16:30:44.000000
1858,24.3,2022-10-26 16:30:44.015625
1859,26.95,2022-10-26 16:30:44.031250
1860,30.49,2022-10-26 16:30:44.046875
1861,34.46,2022-10-26 16:30:44.062500
1862,38.19,2022-10-26 16:30:44.078125
1863,40.97,2022-10-26 16:30:44.093750
1864,42.35,2022-10-26 16:30:44.109375
1865,42.26,2022-10-26 16:30:44.125000
1866,41.04,2022-10-26 16:30:44.140625
1867,39.23,2022-10-26 16:30:44.156250
1868,37.28,2022-10-26 16:30:44.171875
1869,35.41,2022-10-26 16:30:44.187500
1870,33.46,2022-10-26 16:30:44.203125
1871,31.16,2022-10-26 16:30:44.218750
1872,28.22,2022-10-26 16:30:44.234375
1873,24.61,2022-10-26 16:30:44.250000
1874,20.54,2022-10-26 16:30:44.265625
1875,16.48,2022-10-26 16:30:44.281250
1876,12.97,2022-10-26 16:30:44.296875
1877,10.5,2022-10-26 16:30:44.312500
1878,9.32,2022-10-26 16:30:44.328125
1879,9.4,2022-10-26 16:30:44.343750
1880,10.45,2022-10-26 16:30:44.359375
1881,12.01,2022-10-26 16:30:44.375000
1882,13.71,2022-10-26 16:30:44.390625
1883,15.38,2022-10-26 16:30:44.406250
1884,17.08,2022-10-26 16:30:44.421875
1885,18.96,2022-10-26 16:30:44.437500
1886,21.09,2022-10-26 16:30:44.453125
1887,23.2,2022-10-26 16:30:44.468750
1888,24.76,2022-10-26 16:30:44.484375
1889,25.18,2022-10-26 16:30:44.500000
1890,24.14,2022-10-26 16:30:44.515625
1891,21.75,2022-10-26 16:30:44.531250
1892,18.61,2022-10-26 16:30:44.546875
1893,15.45,2022-10-26 16:30:44.562500
1894,12.82,2022-10-26 16:30:44.578125
1895,10.8,2022-10-26 16:30:44.593750
1896,9.01,2022-10-26 16:30:44.609375
1897,6.88,2022-10-26 16:30:44.625000
1898,4.04,2022-10-26 16:30:44.640625
1899,0.46,2022-10-26 16:30:44.656250
1900,-3.47,2022-10-26 16:30:44.671875
1901,-7.14,2022-10-26 16:30:44.687500
1902,-10.05,2022-10-26 16:30:44.703125
1903,-11.87,2022-10-26 16:30:44.718750
1904,-12.56,2022-10-26 16:30:44.734375
1905,-12.17,2022-10-26 16:30:44.750000
1906,-10.76,2022-10-26 16:30:44.765625
1907,-8.37,2022-10-26 16:30:44.781250
1908,-5.0,2022-10-26 16:30:44.796875
1909,-0.78,2022-10-26 16:30:44.812500
1910,4.01,2022-10-26 16:30:44.828125
1911,9.03,2022-10-26 16:30:44.843750
1912,13.95,2022-10-26 16:30:44.859375
1913,18.61,2022-10-26 16:30:44.875000
1914,22.93,2022-10-26 16:30:44.890625
1915,26.88,2022-10-26 16:30:44.906250
1916,30.26,2022-10-26 16:30:44.921875
1917,32.6,2022-10-26 16:30:44.937500
1918,33.22,2022-10-26 16:30:44.953125
1919,31.44,2022-10-26 16:30:44.968750
1920,26.91,2022-10-26 16:30:44.984375
1921,19.8,2022-10-26 16:30:45.000000
1922,10.97,2022-10-26 16:30:45.015625
1923,1.8,2022-10-26 16:30:45.031250
1924,-6.18,2022-10-26 16:30:45.046875
1925,-11.73,2022-10-26 16:30:45.062500
1926,-14.28,2022-10-26 16:30:45.078125
1927,-14.03,2022-10-26 16:30:45.093750
1928,-11.84,2022-10-26 16:30:45.109375
1929,-8.84,2022-10-26 16:30:45.125000
1930,-6.02,2022-10-26 16:30:45.140625
1931,-3.94,2022-10-26 16:30:45.156250
1932,-2.73,2022-10-26 16:30:45.171875
1933,-2.24,2022-10-26 16:30:45.187500
1934,-2.27,2022-10-26 16:30:45.203125
1935,-2.76,2022-10-26 16:30:45.218750
1936,-3.74,2022-10-26 16:30:45.234375
1937,-5.24,2022-10-26 16:30:45.250000
1938,-7.09,2022-10-26 16:30:45.265625
1939,-9.01,2022-10-26 16:30:45.281250
1940,-10.65,2022-10-26 16:30:45.296875
1941,-11.8,2022-10-26 16:30:45.312500
1942,-12.53,2022-10-26 16:30:45.328125
1943,-13.15,2022-10-26 16:30:45.343750
1944,-14.03,2022-10-26 16:30:45.359375
1945,-15.35,2022-10-26 16:30:45.375000
1946,-17.02,2022-10-26 16:30:45.390625
1947,-18.63,2022-10-26 16:30:45.406250
1948,-19.62,2022-10-26 16:30:45.421875
1949,-19.54,2022-10-26 16:30:45.437500
1950,-18.15,2022-10-26 16:30:45.453125
1951,-15.56,2022-10-26 16:30:45.468750
1952,-12.03,2022-10-26 16:30:45.484375
1953,-7.89,2022-10-26 16:30:45.500000
1954,-3.3,2022-10-26 16:30:45.515625
1955,1.67,2022-10-26 16:30:45.531250
1956,7.0,2022-10-26 16:30:45.546875
1957,12.48,2022-10-26 16:30:45.562500
1958,17.67,2022-10-26 16:30:45.578125
1959,21.92,2022-10-26 16:30:45.593750
1960,24.6,2022-10-26 16:30:45.609375
1961,25.32,2022-10-26 16:30:45.625000
1962,24.15,2022-10-26 16:30:45.640625
1963,21.59,2022-10-26 16:30:45.656250
1964,18.38,2022-10-26 16:30:45.671875
1965,15.23,2022-10-26 16:30:45.687500
1966,12.57,2022-10-26 16:30:45.703125
1967,10.52,2022-10-26 16:30:45.718750
1968,8.96,2022-10-26 16:30:45.734375
1969,7.76,2022-10-26 16:30:45.750000
1970,7.0,2022-10-26 16:30:45.765625
1971,6.9,2022-10-26 16:30:45.781250
1972,7.74,2022-10-26 16:30:45.796875
1973,9.61,2022-10-26 16:30:45.812500
1974,12.35,2022-10-26 16:30:45.828125
1975,15.55,2022-10-26 16:30:45.843750
1976,18.74,2022-10-26 16:30:45.859375
1977,21.59,2022-10-26 16:30:45.875000
1978,23.95,2022-10-26 16:30:45.890625
1979,25.77,2022-10-26 16:30:45.906250
1980,26.9,2022-10-26 16:30:45.921875
1981,27.1,2022-10-26 16:30:45.937500
1982,26.07,2022-10-26 16:30:45.953125
1983,23.66,2022-10-26 16:30:45.968750
1984,20.07,2022-10-26 16:30:45.984375
1985,15.73,2022-10-26 16:30:46.000000
1986,11.16,2022-10-26 16:30:46.015625
1987,6.68,2022-10-26 16:30:46.031250
1988,2.47,2022-10-26 16:30:46.046875
1989,-1.37,2022-10-26 16:30:46.062500
1990,-4.5,2022-10-26 16:30:46.078125
1991,-6.33,2022-10-26 16:30:46.093750
1992,-6.14,2022-10-26 16:30:46.109375
1993,-3.51,2022-10-26 16:30:46.125000
1994,1.37,2022-10-26 16:30:46.140625
1995,7.6,2022-10-26 16:30:46.156250
1996,13.82,2022-10-26 16:30:46.171875
1997,18.74,2022-10-26 16:30:46.187500
1998,21.57,2022-10-26 16:30:46.203125
1999,22.26,2022-10-26 16:30:46.218750
2000,21.39,2022-10-26 16:30:46.234375
2001,19.81,2022-10-26 16:30:46.250000
2002,18.29,2022-10-26 16:30:46.265625
2003,17.25,2022-10-26 16:30:46.281250
2004,16.78,2022-10-26 16:30:46.296875
2005,16.64,2022-10-26 16:30:46.312500
2006,16.54,2022-10-26 16:30:46.328125
2007,16.18,2022-10-26 16:30:46.343750
2008,15.34,2022-10-26 16:30:46.359375
2009,13.81,2022-10-26 16:30:46.375000
2010,11.45,2022-10-26 16:30:46.390625
2011,8.22,2022-10-26 16:30:46.406250
2012,4.25,2022-10-26 16:30:46.421875
2013,-0.16,2022-10-26 16:30:46.437500
2014,-4.6,2022-10-26 16:30:46.453125
2015,-8.69,2022-10-26 16:30:46.468750
2016,-12.26,2022-10-26 16:30:46.484375
2017,-15.39,2022-10-26 16:30:46.500000
2018,-18.31,2022-10-26 16:30:46.515625
2019,-21.34,2022-10-26 16:30:46.531250
2020,-24.64,2022-10-26 16:30:46.546875
2021,-28.2,2022-10-26 16:30:46.562500
2022,-31.9,2022-10-26 16:30:46.578125
2023,-35.6,2022-10-26 16:30:46.593750
2024,-39.25,2022-10-26 16:30:46.609375
2025,-42.93,2022-10-26 16:30:46.625000
2026,-46.73,2022-10-26 16:30:46.640625
2027,-50.68,2022-10-26 16:30:46.656250
2028,-54.62,2022-10-26 16:30:46.671875
2029,-58.19,2022-10-26 16:30:46.687500
2030,-60.88,2022-10-26 16:30:46.703125
2031,-62.12,2022-10-26 16:30:46.718750
2032,-61.54,2022-10-26 16:30:46.734375
2033,-59.15,2022-10-26 16:30:46.750000
2034,-55.44,2022-10-26 16:30:46.765625
2035,-51.28,2022-10-26 16:30:46.781250
2036,-47.66,2022-10-26 16:30:46.796875
2037,-45.39,2022-10-26 16:30:46.812500
2038,-44.77,2022-10-26 16:30:46.828125
2039,-45.55,2022-10-26 16:30:46.843750
2040,-47.15,2022-10-26 16:30:46.859375
2041,-48.86,2022-10-26 16:30:46.875000
2042,-50.18,2022-10-26 16:30:46.890625
2043,-50.9,2022-10-26 16:30:46.906250
2044,-51.08,2022-10-26 16:30:46.921875
2045,-50.84,2022-10-26 16:30:46.937500
2046,-50.3,2022-10-26 16:30:46.953125
2047,-49.47,2022-10-26 16:30:46.968750
2048,-48.2,2022-10-26 16:30:46.984375
2049,-46.3,2022-10-26 16:30:47.000000
2050,-43.44,2022-10-26 16:30:47.015625
2051,-39.35,2022-10-26 16:30:47.031250
2052,-33.75,2022-10-26 16:30:47.046875
2053,-26.54,2022-10-26 16:30:47.062500
2054,-17.8,2022-10-26 16:30:47.078125
2055,-7.85,2022-10-26 16:30:47.093750
2056,2.81,2022-10-26 16:30:47.109375
2057,13.56,2022-10-26 16:30:47.125000
2058,23.77,2022-10-26 16:30:47.140625
2059,32.8,2022-10-26 16:30:47.156250
2060,40.11,2022-10-26 16:30:47.171875
2061,45.3,2022-10-26 16:30:47.187500
2062,48.17,2022-10-26 16:30:47.203125
2063,48.8,2022-10-26 16:30:47.218750
2064,47.53,2022-10-26 16:30:47.234375
2065,44.83,2022-10-26 16:30:47.250000
2066,41.22,2022-10-26 16:30:47.265625
2067,37.13,2022-10-26 16:30:47.281250
2068,32.85,2022-10-26 16:30:47.296875
2069,28.57,2022-10-26 16:30:47.312500
2070,24.48,2022-10-26 16:30:47.328125
2071,20.85,2022-10-26 16:30:47.343750
2072,18.02,2022-10-26 16:30:47.359375
2073,16.29,2022-10-26 16:30:47.375000
2074,15.89,2022-10-26 16:30:47.390625
2075,16.8,2022-10-26 16:30:47.406250
2076,18.83,2022-10-26 16:30:47.421875
2077,21.66,2022-10-26 16:30:47.437500
2078,24.89,2022-10-26 16:30:47.453125
2079,28.12,2022-10-26 16:30:47.468750
2080,30.97,2022-10-26 16:30:47.484375
2081,33.11,2022-10-26 16:30:47.500000
2082,34.27,2022-10-26 16:30:47.515625
2083,34.32,2022-10-26 16:30:47.531250
2084,33.26,2022-10-26 16:30:47.546875
2085,31.29,2022-10-26 16:30:47.562500
2086,28.76,2022-10-26 16:30:47.578125
2087,26.21,2022-10-26 16:30:47.593750
2088,24.16,2022-10-26 16:30:47.609375
2089,23.06,2022-10-26 16:30:47.625000
2090,23.11,2022-10-26 16:30:47.640625
2091,24.16,2022-10-26 16:30:47.656250
2092,25.76,2022-10-26 16:30:47.671875
2093,27.27,2022-10-26 16:30:47.687500
2094,28.14,2022-10-26 16:30:47.703125
2095,28.08,2022-10-26 16:30:47.718750
2096,27.14,2022-10-26 16:30:47.734375
2097,25.63,2022-10-26 16:30:47.750000
2098,23.9,2022-10-26 16:30:47.765625
2099,22.09,2022-10-26 16:30:47.781250
2100,20.17,2022-10-26 16:30:47.796875
2101,17.91,2022-10-26 16:30:47.812500
2102,15.15,2022-10-26 16:30:47.828125
2103,11.87,2022-10-26 16:30:47.843750
2104,8.21,2022-10-26 16:30:47.859375
2105,4.4,2022-10-26 16:30:47.875000
2106,0.63,2022-10-26 16:30:47.890625
2107,-2.99,2022-10-26 16:30:47.906250
2108,-6.38,2022-10-26 16:30:47.921875
2109,-9.53,2022-10-26 16:30:47.937500
2110,-12.36,2022-10-26 16:30:47.953125
2111,-14.9,2022-10-26 16:30:47.968750
2112,-17.21,2022-10-26 16:30:47.984375
2113,-19.44,2022-10-26 16:30:48.000000
2114,-21.75,2022-10-26 16:30:48.015625
2115,-24.11,2022-10-26 16:30:48.031250
2116,-26.25,2022-10-26 16:30:48.046875
2117,-27.69,2022-10-26 16:30:48.062500
2118,-27.88,2022-10-26 16:30:48.078125
2119,-26.41,2022-10-26 16:30:48.093750
2120,-23.22,2022-10-26 16:30:48.109375
2121,-18.55,2022-10-26 16:30:48.125000
2122,-13.0,2022-10-26 16:30:48.140625
2123,-7.22,2022-10-26 16:30:48.156250
2124,-1.79,2022-10-26 16:30:48.171875
2125,2.93,2022-10-26 16:30:48.187500
2126,6.78,2022-10-26 16:30:48.203125
2127,9.77,2022-10-26 16:30:48.218750
2128,11.93,2022-10-26 16:30:48.234375
2129,13.31,2022-10-26 16:30:48.250000
2130,13.94,2022-10-26 16:30:48.265625
2131,13.92,2022-10-26 16:30:48.281250
2132,13.37,2022-10-26 16:30:48.296875
2133,12.52,2022-10-26 16:30:48.312500
2134,11.58,2022-10-26 16:30:48.328125
2135,10.73,2022-10-26 16:30:48.343750
2136,10.06,2022-10-26 16:30:48.359375
2137,9.6,2022-10-26 16:30:48.375000
2138,9.36,2022-10-26 16:30:48.390625
2139,9.38,2022-10-26 16:30:48.406250
2140,9.75,2022-10-26 16:30:48.421875
2141,10.54,2022-10-26 16:30:48.437500
2142,11.74,2022-10-26 16:30:48.453125
2143,13.21,2022-10-26 16:30:48.468750
2144,14.69,2022-10-26 16:30:48.484375
2145,15.85,2022-10-26 16:30:48.500000
2146,16.43,2022-10-26 16:30:48.515625
2147,16.23,2022-10-26 16:30:48.531250
2148,15.22,2022-10-26 16:30:48.546875
2149,13.49,2022-10-26 16:30:48.562500
2150,11.24,2022-10-26 16:30:48.578125
2151,8.72,2022-10-26 16:30:48.593750
2152,6.18,2022-10-26 16:30:48.609375
2153,3.82,2022-10-26 16:30:48.625000
2154,1.73,2022-10-26 16:30:48.640625
2155,-0.1,2022-10-26 16:30:48.656250
2156,-1.81,2022-10-26 16:30:48.671875
2157,-3.62,2022-10-26 16:30:48.687500
2158,-5.72,2022-10-26 16:30:48.703125
2159,-8.22,2022-10-26 16:30:48.718750
2160,-11.07,2022-10-26 16:30:48.734375
2161,-14.05,2022-10-26 16:30:48.750000
2162,-16.77,2022-10-26 16:30:48.765625
2163,-18.84,2022-10-26 16:30:48.781250
2164,-19.91,2022-10-26 16:30:48.796875
2165,-19.78,2022-10-26 16:30:48.812500
2166,-18.45,2022-10-26 16:30:48.828125
2167,-16.17,2022-10-26 16:30:48.843750
2168,-13.32,2022-10-26 16:30:48.859375
2169,-10.38,2022-10-26 16:30:48.875000
2170,-7.83,2022-10-26 16:30:48.890625
2171,-6.04,2022-10-26 16:30:48.906250
2172,-5.19,2022-10-26 16:30:48.921875
2173,-5.26,2022-10-26 16:30:48.937500
2174,-5.91,2022-10-26 16:30:48.953125
2175,-6.69,2022-10-26 16:30:48.968750
2176,-7.09,2022-10-26 16:30:48.984375
2177,-6.76,2022-10-26 16:30:49.000000
2178,-5.68,2022-10-26 16:30:49.015625
2179,-4.14,2022-10-26 16:30:49.031250
2180,-2.61,2022-10-26 16:30:49.046875
2181,-1.53,2022-10-26 16:30:49.062500
2182,-1.11,2022-10-26 16:30:49.078125
2183,-1.27,2022-10-26 16:30:49.093750
2184,-1.71,2022-10-26 16:30:49.109375
2185,-2.11,2022-10-26 16:30:49.125000
2186,-2.28,2022-10-26 16:30:49.140625
2187,-2.24,2022-10-26 16:30:49.156250
2188,-2.12,2022-10-26 16:30:49.171875
2189,-2.06,2022-10-26 16:30:49.187500
2190,-2.13,2022-10-26 16:30:49.203125
2191,-2.3,2022-10-26 16:30:49.218750
2192,-2.51,2022-10-26 16:30:49.234375
2193,-2.77,2022-10-26 16:30:49.250000
2194,-3.19,2022-10-26 16:30:49.265625
2195,-3.98,2022-10-26 16:30:49.281250
2196,-5.37,2022-10-26 16:30:49.296875
2197,-7.45,2022-10-26 16:30:49.312500
2198,-10.13,2022-10-26 16:30:49.328125
2199,-13.13,2022-10-26 16:30:49.343750
2200,-16.12,2022-10-26 16:30:49.359375
2201,-18.87,2022-10-26 16:30:49.375000
2202,-21.31,2022-10-26 16:30:49.390625
2203,-23.48,2022-10-26 16:30:49.406250
2204,-25.4,2022-10-26 16:30:49.421875
2205,-26.87,2022-10-26 16:30:49.437500
2206,-27.54,2022-10-26 16:30:49.453125
2207,-26.95,2022-10-26 16:30:49.468750
2208,-24.82,2022-10-26 16:30:49.484375
2209,-21.22,2022-10-26 16:30:49.500000
2210,-16.54,2022-10-26 16:30:49.515625
2211,-11.35,2022-10-26 16:30:49.531250
2212,-6.15,2022-10-26 16:30:49.546875
2213,-1.24,2022-10-26 16:30:49.562500
2214,3.23,2022-10-26 16:30:49.578125
2215,7.19,2022-10-26 16:30:49.593750
2216,10.56,2022-10-26 16:30:49.609375
2217,13.23,2022-10-26 16:30:49.625000
2218,15.23,2022-10-26 16:30:49.640625
2219,16.67,2022-10-26 16:30:49.656250
2220,17.76,2022-10-26 16:30:49.671875
2221,18.64,2022-10-26 16:30:49.687500
2222,19.25,2022-10-26 16:30:49.703125
2223,19.45,2022-10-26 16:30:49.718750
2224,19.07,2022-10-26 16:30:49.734375
2225,18.2,2022-10-26 16:30:49.750000
2226,17.15,2022-10-26 16:30:49.765625
2227,16.42,2022-10-26 16:30:49.781250
2228,16.4,2022-10-26 16:30:49.796875
2229,17.27,2022-10-26 16:30:49.812500
2230,18.94,2022-10-26 16:30:49.828125
2231,21.19,2022-10-26 16:30:49.843750
2232,23.85,2022-10-26 16:30:49.859375
2233,26.9,2022-10-26 16:30:49.875000
2234,30.41,2022-10-26 16:30:49.890625
2235,34.44,2022-10-26 16:30:49.906250
2236,38.89,2022-10-26 16:30:49.921875
2237,43.54,2022-10-26 16:30:49.937500
2238,48.04,2022-10-26 16:30:49.953125
2239,52.09,2022-10-26 16:30:49.968750
2240,55.44,2022-10-26 16:30:49.984375
2241,57.9,2022-10-26 16:30:50.000000
2242,59.23,2022-10-26 16:30:50.015625
2243,59.09,2022-10-26 16:30:50.031250
2244,57.15,2022-10-26 16:30:50.046875
2245,53.26,2022-10-26 16:30:50.062500
2246,47.58,2022-10-26 16:30:50.078125
2247,40.68,2022-10-26 16:30:50.093750
2248,33.43,2022-10-26 16:30:50.109375
2249,26.69,2022-10-26 16:30:50.125000
2250,21.13,2022-10-26 16:30:50.140625
2251,17.0,2022-10-26 16:30:50.156250
2252,14.21,2022-10-26 16:30:50.171875
2253,12.49,2022-10-26 16:30:50.187500
2254,11.53,2022-10-26 16:30:50.203125
2255,11.05,2022-10-26 16:30:50.218750
2256,10.86,2022-10-26 16:30:50.234375
2257,10.73,2022-10-26 16:30:50.250000
2258,10.39,2022-10-26 16:30:50.265625
2259,9.64,2022-10-26 16:30:50.281250
2260,8.36,2022-10-26 16:30:50.296875
2261,6.63,2022-10-26 16:30:50.312500
2262,4.63,2022-10-26 16:30:50.328125
2263,2.55,2022-10-26 16:30:50.343750
2264,0.47,2022-10-26 16:30:50.359375
2265,-1.63,2022-10-26 16:30:50.375000
2266,-3.89,2022-10-26 16:30:50.390625
2267,-6.38,2022-10-26 16:30:50.406250
2268,-9.04,2022-10-26 16:30:50.421875
2269,-11.72,2022-10-26 16:30:50.437500
2270,-14.18,2022-10-26 16:30:50.453125
2271,-16.16,2022-10-26 16:30:50.468750
2272,-17.5,2022-10-26 16:30:50.484375
2273,-18.13,2022-10-26 16:30:50.500000
2274,-18.09,2022-10-26 16:30:50.515625
2275,-17.54,2022-10-26 16:30:50.531250
2276,-16.72,2022-10-26 16:30:50.546875
2277,-15.95,2022-10-26 16:30:50.562500
2278,-15.5,2022-10-26 16:30:50.578125
2279,-15.6,2022-10-26 16:30:50.593750
2280,-16.27,2022-10-26 16:30:50.609375
2281,-17.41,2022-10-26 16:30:50.625000
2282,-18.81,2022-10-26 16:30:50.640625
2283,-20.27,2022-10-26 16:30:50.656250
2284,-21.69,2022-10-26 16:30:50.671875
2285,-23.06,2022-10-26 16:30:50.687500
2286,-24.43,2022-10-26 16:30:50.703125
2287,-25.81,2022-10-26 16:30:50.718750
2288,-27.12,2022-10-26 16:30:50.734375
2289,-28.14,2022-10-26 16:30:50.750000
2290,-28.58,2022-10-26 16:30:50.765625
2291,-28.17,2022-10-26 16:30:50.781250
2292,-26.77,2022-10-26 16:30:50.796875
2293,-24.43,2022-10-26 16:30:50.812500
2294,-21.32,2022-10-26 16:30:50.828125
2295,-17.74,2022-10-26 16:30:50.843750
2296,-13.98,2022-10-26 16:30:50.859375
2297,-10.25,2022-10-26 16:30:50.875000
2298,-6.74,2022-10-26 16:30:50.890625
2299,-3.59,2022-10-26 16:30:50.906250
2300,-0.9,2022-10-26 16:30:50.921875
2301,1.22,2022-10-26 16:30:50.937500
2302,2.71,2022-10-26 16:30:50.953125
2303,3.59,2022-10-26 16:30:50.968750
2304,3.96,2022-10-26 16:30:50.984375
2305,3.98,2022-10-26 16:30:51.000000
2306,3.81,2022-10-26 16:30:51.015625
2307,3.59,2022-10-26 16:30:51.031250
2308,3.4,2022-10-26 16:30:51.046875
2309,3.24,2022-10-26 16:30:51.062500
2310,3.1,2022-10-26 16:30:51.078125
2311,2.93,2022-10-26 16:30:51.093750
2312,2.75,2022-10-26 16:30:51.109375
2313,2.63,2022-10-26 16:30:51.125000
2314,2.66,2022-10-26 16:30:51.140625
2315,2.93,2022-10-26 16:30:51.156250
2316,3.45,2022-10-26 16:30:51.171875
2317,4.14,2022-10-26 16:30:51.187500
2318,4.79,2022-10-26 16:30:51.203125
2319,5.2,2022-10-26 16:30:51.218750
2320,5.17,2022-10-26 16:30:51.234375
2321,4.61,2022-10-26 16:30:51.250000
2322,3.5,2022-10-26 16:30:51.265625
2323,1.89,2022-10-26 16:30:51.281250
2324,-0.16,2022-10-26 16:30:51.296875
2325,-2.55,2022-10-26 16:30:51.312500
2326,-5.15,2022-10-26 16:30:51.328125
2327,-7.78,2022-10-26 16:30:51.343750
2328,-10.23,2022-10-26 16:30:51.359375
2329,-12.25,2022-10-26 16:30:51.375000
2330,-13.66,2022-10-26 16:30:51.390625
2331,-14.42,2022-10-26 16:30:51.406250
2332,-14.66,2022-10-26 16:30:51.421875
2333,-14.69,2022-10-26 16:30:51.437500
2334,-14.84,2022-10-26 16:30:51.453125
2335,-15.4,2022-10-26 16:30:51.468750
2336,-16.5,2022-10-26 16:30:51.484375
2337,-18.08,2022-10-26 16:30:51.500000
2338,-19.99,2022-10-26 16:30:51.515625
2339,-22.06,2022-10-26 16:30:51.531250
2340,-24.18,2022-10-26 16:30:51.546875
2341,-26.32,2022-10-26 16:30:51.562500
2342,-28.51,2022-10-26 16:30:51.578125
2343,-30.8,2022-10-26 16:30:51.593750
2344,-33.24,2022-10-26 16:30:51.609375
2345,-35.81,2022-10-26 16:30:51.625000
2346,-38.54,2022-10-26 16:30:51.640625
2347,-41.35,2022-10-26 16:30:51.656250
2348,-44.06,2022-10-26 16:30:51.671875
2349,-46.33,2022-10-26 16:30:51.687500
2350,-47.68,2022-10-26 16:30:51.703125
2351,-47.69,2022-10-26 16:30:51.718750
2352,-46.17,2022-10-26 16:30:51.734375
2353,-43.33,2022-10-26 16:30:51.750000
2354,-39.73,2022-10-26 16:30:51.765625
2355,-36.13,2022-10-26 16:30:51.781250
2356,-33.22,2022-10-26 16:30:51.796875
2357,-31.37,2022-10-26 16:30:51.812500
2358,-30.56,2022-10-26 16:30:51.828125
2359,-30.46,2022-10-26 16:30:51.843750
2360,-30.61,2022-10-26 16:30:51.859375
2361,-30.64,2022-10-26 16:30:51.875000
2362,-30.35,2022-10-26 16:30:51.890625
2363,-29.76,2022-10-26 16:30:51.906250
2364,-29.01,2022-10-26 16:30:51.921875
2365,-28.22,2022-10-26 16:30:51.937500
2366,-27.47,2022-10-26 16:30:51.953125
2367,-26.69,2022-10-26 16:30:51.968750
2368,-25.72,2022-10-26 16:30:51.984375
2369,-24.33,2022-10-26 16:30:52.000000
2370,-22.3,2022-10-26 16:30:52.015625
2371,-19.41,2022-10-26 16:30:52.031250
2372,-15.52,2022-10-26 16:30:52.046875
2373,-10.56,2022-10-26 16:30:52.062500
2374,-4.59,2022-10-26 16:30:52.078125
2375,2.18,2022-10-26 16:30:52.093750
2376,9.31,2022-10-26 16:30:52.109375
2377,16.17,2022-10-26 16:30:52.125000
2378,22.06,2022-10-26 16:30:52.140625
2379,26.33,2022-10-26 16:30:52.156250
2380,28.61,2022-10-26 16:30:52.171875
2381,28.95,2022-10-26 16:30:52.187500
2382,27.74,2022-10-26 16:30:52.203125
2383,25.61,2022-10-26 16:30:52.218750
2384,23.21,2022-10-26 16:30:52.234375
2385,21.03,2022-10-26 16:30:52.250000
2386,19.22,2022-10-26 16:30:52.265625
2387,17.68,2022-10-26 16:30:52.281250
2388,16.13,2022-10-26 16:30:52.296875
2389,14.32,2022-10-26 16:30:52.312500
2390,12.13,2022-10-26 16:30:52.328125
2391,9.7,2022-10-26 16:30:52.343750
2392,7.37,2022-10-26 16:30:52.359375
2393,5.63,2022-10-26 16:30:52.375000
2394,4.94,2022-10-26 16:30:52.390625
2395,5.67,2022-10-26 16:30:52.406250
2396,7.82,2022-10-26 16:30:52.421875
2397,11.13,2022-10-26 16:30:52.437500
2398,14.96,2022-10-26 16:30:52.453125
2399,18.53,2022-10-26 16:30:52.468750
2400,21.06,2022-10-26 16:30:52.484375
2401,22.07,2022-10-26 16:30:52.500000
2402,21.48,2022-10-26 16:30:52.515625
2403,19.66,2022-10-26 16:30:52.531250
2404,17.25,2022-10-26 16:30:52.546875
2405,14.89,2022-10-26 16:30:52.562500
2406,12.99,2022-10-26 16:30:52.578125
2407,11.59,2022-10-26 16:30:52.593750
2408,10.44,2022-10-26 16:30:52.609375
2409,9.2,2022-10-26 16:30:52.625000
2410,7.67,2022-10-26 16:30:52.640625
2411,5.88,2022-10-26 16:30:52.656250
2412,4.06,2022-10-26 16:30:52.671875
2413,2.52,2022-10-26 16:30:52.687500
2414,1.45,2022-10-26 16:30:52.703125
2415,0.88,2022-10-26 16:30:52.718750
2416,0.72,2022-10-26 16:30:52.734375
2417,0.83,2022-10-26 16:30:52.750000
2418,1.13,2022-10-26 16:30:52.765625
2419,1.64,2022-10-26 16:30:52.781250
2420,2.39,2022-10-26 16:30:52.796875
2421,3.35,2022-10-26 16:30:52.812500
2422,4.39,2022-10-26 16:30:52.828125
2423,5.31,2022-10-26 16:30:52.843750
2424,6.0,2022-10-26 16:30:52.859375
2425,6.37,2022-10-26 16:30:52.875000
2426,6.46,2022-10-26 16:30:52.890625
2427,6.32,2022-10-26 16:30:52.906250
2428,5.95,2022-10-26 16:30:52.921875
2429,5.32,2022-10-26 16:30:52.937500
2430,4.38,2022-10-26 16:30:52.953125
2431,3.17,2022-10-26 16:30:52.968750
2432,1.81,2022-10-26 16:30:52.984375
2433,0.52,2022-10-26 16:30:53.000000
2434,-0.47,2022-10-26 16:30:53.015625
2435,-1.07,2022-10-26 16:30:53.031250
2436,-1.3,2022-10-26 16:30:53.046875
2437,-1.3,2022-10-26 16:30:53.062500
2438,-1.18,2022-10-26 16:30:53.078125
2439,-1.07,2022-10-26 16:30:53.093750
2440,-0.99,2022-10-26 16:30:53.109375
2441,-0.95,2022-10-26 16:30:53.125000
2442,-0.96,2022-10-26 16:30:53.140625
2443,-1.07,2022-10-26 16:30:53.156250
2444,-1.32,2022-10-26 16:30:53.171875
2445,-1.74,2022-10-26 16:30:53.187500
2446,-2.3,2022-10-26 16:30:53.203125
2447,-2.95,2022-10-26 16:30:53.218750
2448,-3.64,2022-10-26 16:30:53.234375
2449,-4.39,2022-10-26 16:30:53.250000
2450,-5.23,2022-10-26 16:30:53.265625
2451,-6.17,2022-10-26 16:30:53.281250
2452,-7.14,2022-10-26 16:30:53.296875
2453,-8.02,2022-10-26 16:30:53.312500
2454,-8.6,2022-10-26 16:30:53.328125
2455,-8.72,2022-10-26 16:30:53.343750
2456,-8.28,2022-10-26 16:30:53.359375
2457,-7.28,2022-10-26 16:30:53.375000
2458,-5.76,2022-10-26 16:30:53.390625
2459,-3.84,2022-10-26 16:30:53.406250
2460,-1.7,2022-10-26 16:30:53.421875
2461,0.41,2022-10-26 16:30:53.437500
2462,2.18,2022-10-26 16:30:53.453125
2463,3.33,2022-10-26 16:30:53.468750
2464,3.71,2022-10-26 16:30:53.484375
2465,3.37,2022-10-26 16:30:53.500000
2466,2.58,2022-10-26 16:30:53.515625
2467,1.75,2022-10-26 16:30:53.531250
2468,1.18,2022-10-26 16:30:53.546875
2469,0.95,2022-10-26 16:30:53.562500
2470,0.91,2022-10-26 16:30:53.578125
2471,0.72,2022-10-26 16:30:53.593750
2472,0.15,2022-10-26 16:30:53.609375
2473,-0.82,2022-10-26 16:30:53.625000
2474,-1.85,2022-10-26 16:30:53.640625
2475,-2.48,2022-10-26 16:30:53.656250
2476,-2.3,2022-10-26 16:30:53.671875
2477,-1.2,2022-10-26 16:30:53.687500
2478,0.58,2022-10-26 16:30:53.703125
2479,2.49,2022-10-26 16:30:53.718750
2480,3.97,2022-10-26 16:30:53.734375
2481,4.63,2022-10-26 16:30:53.750000
2482,4.36,2022-10-26 16:30:53.765625
2483,3.29,2022-10-26 16:30:53.781250
2484,1.6,2022-10-26 16:30:53.796875
2485,-0.59,2022-10-26 16:30:53.812500
2486,-3.38,2022-10-26 16:30:53.828125
2487,-6.91,2022-10-26 16:30:53.843750
2488,-11.27,2022-10-26 16:30:53.859375
2489,-16.33,2022-10-26 16:30:53.875000
2490,-21.68,2022-10-26 16:30:53.890625
2491,-26.65,2022-10-26 16:30:53.906250
2492,-30.55,2022-10-26 16:30:53.921875
2493,-32.77,2022-10-26 16:30:53.937500
2494,-32.92,2022-10-26 16:30:53.953125
2495,-30.89,2022-10-26 16:30:53.968750
2496,-26.83,2022-10-26 16:30:53.984375
2497,-21.15,2022-10-26 16:30:54.000000
2498,-14.44,2022-10-26 16:30:54.015625
2499,-7.43,2022-10-26 16:30:54.031250
2500,-0.81,2022-10-26 16:30:54.046875
2501,4.79,2022-10-26 16:30:54.062500
2502,9.01,2022-10-26 16:30:54.078125
2503,11.74,2022-10-26 16:30:54.093750
2504,13.14,2022-10-26 16:30:54.109375
2505,13.5,2022-10-26 16:30:54.125000
2506,13.1,2022-10-26 16:30:54.140625
2507,12.16,2022-10-26 16:30:54.156250
2508,10.76,2022-10-26 16:30:54.171875
2509,8.96,2022-10-26 16:30:54.187500
2510,6.82,2022-10-26 16:30:54.203125
2511,4.49,2022-10-26 16:30:54.218750
2512,2.17,2022-10-26 16:30:54.234375
2513,0.06,2022-10-26 16:30:54.250000
2514,-1.73,2022-10-26 16:30:54.265625
2515,-3.18,2022-10-26 16:30:54.281250
2516,-4.33,2022-10-26 16:30:54.296875
2517,-5.23,2022-10-26 16:30:54.312500
2518,-5.85,2022-10-26 16:30:54.328125
2519,-6.12,2022-10-26 16:30:54.343750
2520,-5.94,2022-10-26 16:30:54.359375
2521,-5.34,2022-10-26 16:30:54.375000
2522,-4.49,2022-10-26 16:30:54.390625
2523,-3.69,2022-10-26 16:30:54.406250
2524,-3.26,2022-10-26 16:30:54.421875
2525,-3.37,2022-10-26 16:30:54.437500
2526,-3.98,2022-10-26 16:30:54.453125
2527,-4.92,2022-10-26 16:30:54.468750
2528,-5.94,2022-10-26 16:30:54.484375
2529,-6.91,2022-10-26 16:30:54.500000
2530,-7.83,2022-10-26 16:30:54.515625
2531,-8.78,2022-10-26 16:30:54.531250
2532,-9.76,2022-10-26 16:30:54.546875
2533,-10.65,2022-10-26 16:30:54.562500
2534,-11.18,2022-10-26 16:30:54.578125
2535,-11.04,2022-10-26 16:30:54.593750
2536,-10.05,2022-10-26 16:30:54.609375
2537,-8.24,2022-10-26 16:30:54.625000
2538,-5.8,2022-10-26 16:30:54.640625
2539,-3.0,2022-10-26 16:30:54.656250
2540,-0.05,2022-10-26 16:30:54.671875
2541,2.91,2022-10-26 16:30:54.687500
2542,5.75,2022-10-26 16:30:54.703125
2543,8.33,2022-10-26 16:30:54.718750
2544,10.46,2022-10-26 16:30:54.734375
2545,11.95,2022-10-26 16:30:54.750000
2546,12.69,2022-10-26 16:30:54.765625
2547,12.73,2022-10-26 16:30:54.781250
2548,12.15,2022-10-26 16:30:54.796875
2549,11.13,2022-10-26 16:30:54.812500
2550,9.77,2022-10-26 16:30:54.828125
2551,8.19,2022-10-26 16:30:54.843750
2552,6.48,2022-10-26 16:30:54.859375
2553,4.77,2022-10-26 16:30:54.875000
2554,3.23,2022-10-26 16:30:54.890625
2555,1.99,2022-10-26 16:30:54.906250
2556,1.16,2022-10-26 16:30:54.921875
2557,0.74,2022-10-26 16:30:54.937500
2558,0.7,2022-10-26 16:30:54.953125
2559,0.89,2022-10-26 16:30:54.968750
2560,1.19,2022-10-26 16:30:54.984375
2561,1.43,2022-10-26 16:30:55.000000
2562,1.48,2022-10-26 16:30:55.015625
2563,1.24,2022-10-26 16:30:55.031250
2564,0.67,2022-10-26 16:30:55.046875
2565,-0.19,2022-10-26 16:30:55.062500
2566,-1.29,2022-10-26 16:30:55.078125
2567,-2.56,2022-10-26 16:30:55.093750
2568,-3.92,2022-10-26 16:30:55.109375
2569,-5.3,2022-10-26 16:30:55.125000
2570,-6.64,2022-10-26 16:30:55.140625
2571,-7.87,2022-10-26 16:30:55.156250
2572,-8.9,2022-10-26 16:30:55.171875
2573,-9.6,2022-10-26 16:30:55.187500
2574,-9.86,2022-10-26 16:30:55.203125
2575,-9.64,2022-10-26 16:30:55.218750
2576,-8.88,2022-10-26 16:30:55.234375
2577,-7.61,2022-10-26 16:30:55.250000
2578,-5.84,2022-10-26 16:30:55.265625
2579,-3.64,2022-10-26 16:30:55.281250
2580,-1.09,2022-10-26 16:30:55.296875
2581,1.65,2022-10-26 16:30:55.312500
2582,4.36,2022-10-26 16:30:55.328125
2583,6.83,2022-10-26 16:30:55.343750
2584,8.83,2022-10-26 16:30:55.359375
2585,10.26,2022-10-26 16:30:55.375000
2586,11.09,2022-10-26 16:30:55.390625
2587,11.44,2022-10-26 16:30:55.406250
2588,11.4,2022-10-26 16:30:55.421875
2589,11.1,2022-10-26 16:30:55.437500
2590,10.52,2022-10-26 16:30:55.453125
2591,9.65,2022-10-26 16:30:55.468750
2592,8.47,2022-10-26 16:30:55.484375
2593,7.06,2022-10-26 16:30:55.500000
2594,5.64,2022-10-26 16:30:55.515625
2595,4.44,2022-10-26 16:30:55.531250
2596,3.67,2022-10-26 16:30:55.546875
2597,3.41,2022-10-26 16:30:55.562500
2598,3.54,2022-10-26 16:30:55.578125
2599,3.81,2022-10-26 16:30:55.593750
2600,3.95,2022-10-26 16:30:55.609375
2601,3.73,2022-10-26 16:30:55.625000
2602,3.14,2022-10-26 16:30:55.640625
2603,2.27,2022-10-26 16:30:55.656250
2604,1.29,2022-10-26 16:30:55.671875
2605,0.35,2022-10-26 16:30:55.687500
2606,-0.45,2022-10-26 16:30:55.703125
2607,-1.17,2022-10-26 16:30:55.718750
2608,-1.91,2022-10-26 16:30:55.734375
2609,-2.83,2022-10-26 16:30:55.750000
2610,-4.05,2022-10-26 16:30:55.765625
2611,-5.61,2022-10-26 16:30:55.781250
2612,-7.41,2022-10-26 16:30:55.796875
2613,-9.24,2022-10-26 16:30:55.812500
2614,-10.78,2022-10-26 16:30:55.828125
2615,-11.76,2022-10-26 16:30:55.843750
2616,-11.98,2022-10-26 16:30:55.859375
2617,-11.32,2022-10-26 16:30:55.875000
2618,-9.8,2022-10-26 16:30:55.890625
2619,-7.52,2022-10-26 16:30:55.906250
2620,-4.61,2022-10-26 16:30:55.921875
2621,-1.29,2022-10-26 16:30:55.937500
2622,2.17,2022-10-26 16:30:55.953125
2623,5.48,2022-10-26 16:30:55.968750
2624,8.36,2022-10-26 16:30:55.984375
2625,10.63,2022-10-26 16:30:56.000000
2626,12.26,2022-10-26 16:30:56.015625
2627,13.36,2022-10-26 16:30:56.031250
2628,14.03,2022-10-26 16:30:56.046875
2629,14.33,2022-10-26 16:30:56.062500
2630,14.19,2022-10-26 16:30:56.078125
2631,13.5,2022-10-26 16:30:56.093750
2632,12.2,2022-10-26 16:30:56.109375
2633,10.36,2022-10-26 16:30:56.125000
2634,8.24,2022-10-26 16:30:56.140625
2635,6.2,2022-10-26 16:30:56.156250
2636,4.54,2022-10-26 16:30:56.171875
2637,3.46,2022-10-26 16:30:56.187500
2638,2.92,2022-10-26 16:30:56.203125
2639,2.79,2022-10-26 16:30:56.218750
2640,2.86,2022-10-26 16:30:56.234375
2641,2.96,2022-10-26 16:30:56.250000
2642,3.0,2022-10-26 16:30:56.265625
2643,2.91,2022-10-26 16:30:56.281250
2644,2.66,2022-10-26 16:30:56.296875
2645,2.23,2022-10-26 16:30:56.312500
2646,1.57,2022-10-26 16:30:56.328125
2647,0.67,2022-10-26 16:30:56.343750
2648,-0.45,2022-10-26 16:30:56.359375
2649,-1.8,2022-10-26 16:30:56.375000
2650,-3.36,2022-10-26 16:30:56.390625
2651,-5.08,2022-10-26 16:30:56.406250
2652,-6.92,2022-10-26 16:30:56.421875
2653,-8.82,2022-10-26 16:30:56.437500
2654,-10.64,2022-10-26 16:30:56.453125
2655,-12.23,2022-10-26 16:30:56.468750
2656,-13.37,2022-10-26 16:30:56.484375
2657,-13.8,2022-10-26 16:30:56.500000
2658,-13.29,2022-10-26 16:30:56.515625
2659,-11.69,2022-10-26 16:30:56.531250
2660,-9.03,2022-10-26 16:30:56.546875
2661,-5.6,2022-10-26 16:30:56.562500
2662,-1.86,2022-10-26 16:30:56.578125
2663,1.7,2022-10-26 16:30:56.593750
2664,4.67,2022-10-26 16:30:56.609375
2665,6.94,2022-10-26 16:30:56.625000
2666,8.61,2022-10-26 16:30:56.640625
2667,9.93,2022-10-26 16:30:56.656250
2668,11.11,2022-10-26 16:30:56.671875
2669,12.19,2022-10-26 16:30:56.687500
2670,13.06,2022-10-26 16:30:56.703125
2671,13.56,2022-10-26 16:30:56.718750
2672,13.57,2022-10-26 16:30:56.734375
2673,13.09,2022-10-26 16:30:56.750000
2674,12.25,2022-10-26 16:30:56.765625
2675,11.17,2022-10-26 16:30:56.781250
2676,9.97,2022-10-26 16:30:56.796875
2677,8.7,2022-10-26 16:30:56.812500
2678,7.42,2022-10-26 16:30:56.828125
2679,6.22,2022-10-26 16:30:56.843750
2680,5.23,2022-10-26 16:30:56.859375
2681,4.62,2022-10-26 16:30:56.875000
2682,4.48,2022-10-26 16:30:56.890625
2683,4.77,2022-10-26 16:30:56.906250
2684,5.28,2022-10-26 16:30:56.921875
2685,5.7,2022-10-26 16:30:56.937500
2686,5.73,2022-10-26 16:30:56.953125
2687,5.22,2022-10-26 16:30:56.968750
2688,4.23,2022-10-26 16:30:56.984375
2689,2.96,2022-10-26 16:30:57.000000
2690,1.64,2022-10-26 16:30:57.015625
2691,0.41,2022-10-26 16:30:57.031250
2692,-0.82,2022-10-26 16:30:57.046875
2693,-2.22,2022-10-26 16:30:57.062500
2694,-3.92,2022-10-26 16:30:57.078125
2695,-5.93,2022-10-26 16:30:57.093750
2696,-8.05,2022-10-26 16:30:57.109375
2697,-10.01,2022-10-26 16:30:57.125000
2698,-11.6,2022-10-26 16:30:57.140625
2699,-12.8,2022-10-26 16:30:57.156250
2700,-13.7,2022-10-26 16:30:57.171875
2701,-14.36,2022-10-26 16:30:57.187500
2702,-14.67,2022-10-26 16:30:57.203125
2703,-14.35,2022-10-26 16:30:57.218750
2704,-13.1,2022-10-26 16:30:57.234375
2705,-10.74,2022-10-26 16:30:57.250000
2706,-7.39,2022-10-26 16:30:57.265625
2707,-3.45,2022-10-26 16:30:57.281250
2708,0.56,2022-10-26 16:30:57.296875
2709,4.18,2022-10-26 16:30:57.312500
2710,7.14,2022-10-26 16:30:57.328125
2711,9.41,2022-10-26 16:30:57.343750
2712,11.14,2022-10-26 16:30:57.359375
2713,12.49,2022-10-26 16:30:57.375000
2714,13.55,2022-10-26 16:30:57.390625
2715,14.29,2022-10-26 16:30:57.406250
2716,14.61,2022-10-26 16:30:57.421875
2717,14.4,2022-10-26 16:30:57.437500
2718,13.64,2022-10-26 16:30:57.453125
2719,12.45,2022-10-26 16:30:57.468750
2720,11.07,2022-10-26 16:30:57.484375
2721,9.81,2022-10-26 16:30:57.500000
2722,8.91,2022-10-26 16:30:57.515625
2723,8.44,2022-10-26 16:30:57.531250
2724,8.33,2022-10-26 16:30:57.546875
2725,8.32,2022-10-26 16:30:57.562500
2726,8.18,2022-10-26 16:30:57.578125
2727,7.77,2022-10-26 16:30:57.593750
2728,7.11,2022-10-26 16:30:57.609375
2729,6.4,2022-10-26 16:30:57.625000
2730,5.86,2022-10-26 16:30:57.640625
2731,5.57,2022-10-26 16:30:57.656250
2732,5.43,2022-10-26 16:30:57.671875
2733,5.19,2022-10-26 16:30:57.687500
2734,4.52,2022-10-26 16:30:57.703125
2735,3.3,2022-10-26 16:30:57.718750
2736,1.61,2022-10-26 16:30:57.734375
2737,-0.32,2022-10-26 16:30:57.750000
2738,-2.21,2022-10-26 16:30:57.765625
2739,-3.94,2022-10-26 16:30:57.781250
2740,-5.56,2022-10-26 16:30:57.796875
2741,-7.19,2022-10-26 16:30:57.812500
2742,-8.89,2022-10-26 16:30:57.828125
2743,-10.6,2022-10-26 16:30:57.843750
2744,-12.09,2022-10-26 16:30:57.859375
2745,-13.15,2022-10-26 16:30:57.875000
2746,-13.6,2022-10-26 16:30:57.890625
2747,-13.38,2022-10-26 16:30:57.906250
2748,-12.5,2022-10-26 16:30:57.921875
2749,-10.95,2022-10-26 16:30:57.937500
2750,-8.75,2022-10-26 16:30:57.953125
2751,-5.91,2022-10-26 16:30:57.968750
2752,-2.55,2022-10-26 16:30:57.984375
2753,1.1,2022-10-26 16:30:58.000000
2754,4.68,2022-10-26 16:30:58.015625
2755,7.83,2022-10-26 16:30:58.031250
2756,10.31,2022-10-26 16:30:58.046875
2757,12.02,2022-10-26 16:30:58.062500
2758,13.04,2022-10-26 16:30:58.078125
2759,13.55,2022-10-26 16:30:58.093750
2760,13.69,2022-10-26 16:30:58.109375
2761,13.53,2022-10-26 16:30:58.125000
2762,13.04,2022-10-26 16:30:58.140625
2763,12.17,2022-10-26 16:30:58.156250
2764,10.91,2022-10-26 16:30:58.171875
2765,9.34,2022-10-26 16:30:58.187500
2766,7.64,2022-10-26 16:30:58.203125
2767,6.02,2022-10-26 16:30:58.218750
2768,4.72,2022-10-26 16:30:58.234375
2769,3.84,2022-10-26 16:30:58.250000
2770,3.43,2022-10-26 16:30:58.265625
2771,3.39,2022-10-26 16:30:58.281250
2772,3.59,2022-10-26 16:30:58.296875
2773,3.87,2022-10-26 16:30:58.312500
2774,4.11,2022-10-26 16:30:58.328125
2775,4.22,2022-10-26 16:30:58.343750
2776,4.18,2022-10-26 16:30:58.359375
2777,4.03,2022-10-26 16:30:58.375000
2778,3.79,2022-10-26 16:30:58.390625
2779,3.46,2022-10-26 16:30:58.406250
2780,3.03,2022-10-26 16:30:58.421875
2781,2.4,2022-10-26 16:30:58.437500
2782,1.53,2022-10-26 16:30:58.453125
2783,0.41,2022-10-26 16:30:58.468750
2784,-0.89,2022-10-26 16:30:58.484375
2785,-2.25,2022-10-26 16:30:58.500000
2786,-3.56,2022-10-26 16:30:58.515625
2787,-4.76,2022-10-26 16:30:58.531250
2788,-5.87,2022-10-26 16:30:58.546875
2789,-6.97,2022-10-26 16:30:58.562500
2790,-8.12,2022-10-26 16:30:58.578125
2791,-9.29,2022-10-26 16:30:58.593750
2792,-10.33,2022-10-26 16:30:58.609375
2793,-10.97,2022-10-26 16:30:58.625000
2794,-10.99,2022-10-26 16:30:58.640625
2795,-10.21,2022-10-26 16:30:58.656250
2796,-8.64,2022-10-26 16:30:58.671875
2797,-6.45,2022-10-26 16:30:58.687500
2798,-3.9,2022-10-26 16:30:58.703125
2799,-1.29,2022-10-26 16:30:58.718750
2800,1.11,2022-10-26 16:30:58.734375
2801,3.14,2022-10-26 16:30:58.750000
2802,4.81,2022-10-26 16:30:58.765625
2803,6.17,2022-10-26 16:30:58.781250
2804,7.38,2022-10-26 16:30:58.796875
2805,8.53,2022-10-26 16:30:58.812500
2806,9.63,2022-10-26 16:30:58.828125
2807,10.61,2022-10-26 16:30:58.843750
2808,11.26,2022-10-26 16:30:58.859375
2809,11.4,2022-10-26 16:30:58.875000
2810,10.85,2022-10-26 16:30:58.890625
2811,9.62,2022-10-26 16:30:58.906250
2812,7.84,2022-10-26 16:30:58.921875
2813,5.83,2022-10-26 16:30:58.937500
2814,3.92,2022-10-26 16:30:58.953125
2815,2.42,2022-10-26 16:30:58.968750
2816,1.48,2022-10-26 16:30:58.984375
2817,1.06,2022-10-26 16:30:59.000000
2818,0.98,2022-10-26 16:30:59.015625
2819,1.02,2022-10-26 16:30:59.031250
2820,1.03,2022-10-26 16:30:59.046875
2821,0.95,2022-10-26 16:30:59.062500
2822,0.82,2022-10-26 16:30:59.078125
2823,0.69,2022-10-26 16:30:59.093750
2824,0.5,2022-10-26 16:30:59.109375
2825,0.14,2022-10-26 16:30:59.125000
2826,-0.55,2022-10-26 16:30:59.140625
2827,-1.63,2022-10-26 16:30:59.156250
2828,-3.02,2022-10-26 16:30:59.171875
2829,-4.53,2022-10-26 16:30:59.187500
2830,-5.97,2022-10-26 16:30:59.203125
2831,-7.21,2022-10-26 16:30:59.218750
2832,-8.32,2022-10-26 16:30:59.234375
2833,-9.43,2022-10-26 16:30:59.250000
2834,-10.7,2022-10-26 16:30:59.265625
2835,-12.22,2022-10-26 16:30:59.281250
2836,-13.88,2022-10-26 16:30:59.296875
2837,-15.47,2022-10-26 16:30:59.312500
2838,-16.72,2022-10-26 16:30:59.328125
2839,-17.38,2022-10-26 16:30:59.343750
2840,-17.27,2022-10-26 16:30:59.359375
2841,-16.3,2022-10-26 16:30:59.375000
2842,-14.53,2022-10-26 16:30:59.390625
2843,-12.1,2022-10-26 16:30:59.406250
2844,-9.3,2022-10-26 16:30:59.421875
2845,-6.43,2022-10-26 16:30:59.437500
2846,-3.75,2022-10-26 16:30:59.453125
2847,-1.41,2022-10-26 16:30:59.468750
2848,0.59,2022-10-26 16:30:59.484375
2849,2.31,2022-10-26 16:30:59.500000
2850,3.8,2022-10-26 16:30:59.515625
2851,5.07,2022-10-26 16:30:59.531250
2852,6.03,2022-10-26 16:30:59.546875
2853,6.59,2022-10-26 16:30:59.562500
2854,6.69,2022-10-26 16:30:59.578125
2855,6.32,2022-10-26 16:30:59.593750
2856,5.49,2022-10-26 16:30:59.609375
2857,4.34,2022-10-26 16:30:59.625000
2858,3.02,2022-10-26 16:30:59.640625
2859,1.72,2022-10-26 16:30:59.656250
2860,0.66,2022-10-26 16:30:59.671875
2861,-0.01,2022-10-26 16:30:59.687500
2862,-0.24,2022-10-26 16:30:59.703125
2863,-0.11,2022-10-26 16:30:59.718750
2864,0.24,2022-10-26 16:30:59.734375
2865,0.66,2022-10-26 16:30:59.750000
2866,1.05,2022-10-26 16:30:59.765625
2867,1.34,2022-10-26 16:30:59.781250
2868,1.46,2022-10-26 16:30:59.796875
2869,1.33,2022-10-26 16:30:59.812500
2870,0.82,2022-10-26 16:30:59.828125
2871,-0.12,2022-10-26 16:30:59.843750
2872,-1.47,2022-10-26 16:30:59.859375
2873,-3.08,2022-10-26 16:30:59.875000
2874,-4.76,2022-10-26 16:30:59.890625
2875,-6.35,2022-10-26 16:30:59.906250
2876,-7.77,2022-10-26 16:30:59.921875
2877,-9.05,2022-10-26 16:30:59.937500
2878,-10.16,2022-10-26 16:30:59.953125
2879,-11.08,2022-10-26 16:30:59.968750
2880,-11.68,2022-10-26 16:30:59.984375
2881,-11.83,2022-10-26 16:31:00.000000
2882,-11.44,2022-10-26 16:31:00.015625
2883,-10.55,2022-10-26 16:31:00.031250
2884,-9.26,2022-10-26 16:31:00.046875
2885,-7.71,2022-10-26 16:31:00.062500
2886,-6.01,2022-10-26 16:31:00.078125
2887,-4.2,2022-10-26 16:31:00.093750
2888,-2.35,2022-10-26 16:31:00.109375
2889,-0.51,2022-10-26 16:31:00.125000
2890,1.2,2022-10-26 16:31:00.140625
2891,2.7,2022-10-26 16:31:00.156250
2892,3.95,2022-10-26 16:31:00.171875
2893,4.96,2022-10-26 16:31:00.187500
2894,5.78,2022-10-26 16:31:00.203125
2895,6.36,2022-10-26 16:31:00.218750
2896,6.61,2022-10-26 16:31:00.234375
2897,6.35,2022-10-26 16:31:00.250000
2898,5.49,2022-10-26 16:31:00.265625
2899,4.08,2022-10-26 16:31:00.281250
2900,2.38,2022-10-26 16:31:00.296875
2901,0.75,2022-10-26 16:31:00.312500
2902,-0.45,2022-10-26 16:31:00.328125
2903,-1.07,2022-10-26 16:31:00.343750
2904,-1.18,2022-10-26 16:31:00.359375
2905,-1.04,2022-10-26 16:31:00.375000
2906,-0.91,2022-10-26 16:31:00.390625
2907,-0.97,2022-10-26 16:31:00.406250
2908,-1.24,2022-10-26 16:31:00.421875
2909,-1.61,2022-10-26 16:31:00.437500
2910,-1.95,2022-10-26 16:31:00.453125
2911,-2.2,2022-10-26 16:31:00.468750
2912,-2.4,2022-10-26 16:31:00.484375
2913,-2.68,2022-10-26 16:31:00.500000
2914,-3.18,2022-10-26 16:31:00.515625
2915,-4.0,2022-10-26 16:31:00.531250
2916,-5.17,2022-10-26 16:31:00.546875
2917,-6.62,2022-10-26 16:31:00.562500
2918,-8.25,2022-10-26 16:31:00.578125
2919,-9.86,2022-10-26 16:31:00.593750
2920,-11.26,2022-10-26 16:31:00.609375
2921,-12.22,2022-10-26 16:31:00.625000
2922,-12.58,2022-10-26 16:31:00.640625
2923,-12.27,2022-10-26 16:31:00.656250
2924,-11.27,2022-10-26 16:31:00.671875
2925,-9.65,2022-10-26 16:31:00.687500
2926,-7.52,2022-10-26 16:31:00.703125
2927,-5.02,2022-10-26 16:31:00.718750
2928,-2.37,2022-10-26 16:31:00.734375
2929,0.2,2022-10-26 16:31:00.750000
2930,2.41,2022-10-26 16:31:00.765625
2931,4.04,2022-10-26 16:31:00.781250
2932,5.02,2022-10-26 16:31:00.796875
2933,5.47,2022-10-26 16:31:00.812500
2934,5.64,2022-10-26 16:31:00.828125
2935,5.81,2022-10-26 16:31:00.843750
2936,6.08,2022-10-26 16:31:00.859375
2937,6.33,2022-10-26 16:31:00.875000
2938,6.28,2022-10-26 16:31:00.890625
2939,5.61,2022-10-26 16:31:00.906250
2940,4.25,2022-10-26 16:31:00.921875
2941,2.42,2022-10-26 16:31:00.937500
2942,0.56,2022-10-26 16:31:00.953125
2943,-0.85,2022-10-26 16:31:00.968750
2944,-1.51,2022-10-26 16:31:00.984375
2945,-1.41,2022-10-26 16:31:01.000000
2946,-0.79,2022-10-26 16:31:01.015625
2947,-0.05,2022-10-26 16:31:01.031250
2948,0.53,2022-10-26 16:31:01.046875
2949,0.84,2022-10-26 16:31:01.062500
2950,0.9,2022-10-26 16:31:01.078125
2951,0.83,2022-10-26 16:31:01.093750
2952,0.66,2022-10-26 16:31:01.109375
2953,0.34,2022-10-26 16:31:01.125000
2954,-0.28,2022-10-26 16:31:01.140625
2955,-1.31,2022-10-26 16:31:01.156250
2956,-2.71,2022-10-26 16:31:01.171875
2957,-4.33,2022-10-26 16:31:01.187500
2958,-5.96,2022-10-26 16:31:01.203125
2959,-7.37,2022-10-26 16:31:01.218750
2960,-8.48,2022-10-26 16:31:01.234375
2961,-9.3,2022-10-26 16:31:01.250000
2962,-9.9,2022-10-26 16:31:01.265625
2963,-10.32,2022-10-26 16:31:01.281250
2964,-10.53,2022-10-26 16:31:01.296875
2965,-10.42,2022-10-26 16:31:01.312500
2966,-9.87,2022-10-26 16:31:01.328125
2967,-8.86,2022-10-26 16:31:01.343750
2968,-7.46,2022-10-26 16:31:01.359375
2969,-5.81,2022-10-26 16:31:01.375000
2970,-4.09,2022-10-26 16:31:01.390625
2971,-2.37,2022-10-26 16:31:01.406250
2972,-0.67,2022-10-26 16:31:01.421875
2973,1.04,2022-10-26 16:31:01.437500
2974,2.75,2022-10-26 16:31:01.453125
2975,4.43,2022-10-26 16:31:01.468750
2976,5.98,2022-10-26 16:31:01.484375
2977,7.23,2022-10-26 16:31:01.500000
2978,8.04,2022-10-26 16:31:01.515625
2979,8.26,2022-10-26 16:31:01.531250
2980,7.86,2022-10-26 16:31:01.546875
2981,6.87,2022-10-26 16:31:01.562500
2982,5.47,2022-10-26 16:31:01.578125
2983,3.92,2022-10-26 16:31:01.593750
2984,2.48,2022-10-26 16:31:01.609375
2985,1.37,2022-10-26 16:31:01.625000
2986,0.73,2022-10-26 16:31:01.640625
2987,0.55,2022-10-26 16:31:01.656250
2988,0.75,2022-10-26 16:31:01.671875
2989,1.19,2022-10-26 16:31:01.687500
2990,1.75,2022-10-26 16:31:01.703125
2991,2.36,2022-10-26 16:31:01.718750
2992,2.99,2022-10-26 16:31:01.734375
2993,3.68,2022-10-26 16:31:01.750000
2994,4.41,2022-10-26 16:31:01.765625
2995,5.11,2022-10-26 16:31:01.781250
2996,5.65,2022-10-26 16:31:01.796875
2997,5.86,2022-10-26 16:31:01.812500
2998,5.59,2022-10-26 16:31:01.828125
2999,4.78,2022-10-26 16:31:01.843750
3000,3.54,2022-10-26 16:31:01.859375
3001,2.04,2022-10-26 16:31:01.875000
3002,0.47,2022-10-26 16:31:01.890625
3003,-1.08,2022-10-26 16:31:01.906250
3004,-2.62,2022-10-26 16:31:01.921875
3005,-4.26,2022-10-26 16:31:01.937500
3006,-5.98,2022-10-26 16:31:01.953125
3007,-7.62,2022-10-26 16:31:01.968750
3008,-8.84,2022-10-26 16:31:01.984375
3009,-9.28,2022-10-26 16:31:02.000000
3010,-8.72,2022-10-26 16:31:02.015625
3011,-7.2,2022-10-26 16:31:02.031250
3012,-5.01,2022-10-26 16:31:02.046875
3013,-2.52,2022-10-26 16:31:02.062500
3014,-0.11,2022-10-26 16:31:02.078125
3015,2.03,2022-10-26 16:31:02.093750
3016,3.81,2022-10-26 16:31:02.109375
3017,5.16,2022-10-26 16:31:02.125000
3018,6.01,2022-10-26 16:31:02.140625
3019,6.34,2022-10-26 16:31:02.156250
3020,6.31,2022-10-26 16:31:02.171875
3021,6.27,2022-10-26 16:31:02.187500
3022,6.69,2022-10-26 16:31:02.203125
3023,7.84,2022-10-26 16:31:02.218750
3024,9.64,2022-10-26 16:31:02.234375
3025,11.55,2022-10-26 16:31:02.250000
3026,12.83,2022-10-26 16:31:02.265625
3027,12.89,2022-10-26 16:31:02.281250
3028,11.59,2022-10-26 16:31:02.296875
3029,9.25,2022-10-26 16:31:02.312500
3030,6.5,2022-10-26 16:31:02.328125
3031,3.9,2022-10-26 16:31:02.343750
3032,1.79,2022-10-26 16:31:02.359375
3033,0.24,2022-10-26 16:31:02.375000
3034,-0.83,2022-10-26 16:31:02.390625
3035,-1.43,2022-10-26 16:31:02.406250
3036,-1.53,2022-10-26 16:31:02.421875
3037,-1.13,2022-10-26 16:31:02.437500
3038,-0.38,2022-10-26 16:31:02.453125
3039,0.37,2022-10-26 16:31:02.468750
3040,0.72,2022-10-26 16:31:02.484375
3041,0.38,2022-10-26 16:31:02.500000
3042,-0.68,2022-10-26 16:31:02.515625
3043,-2.25,2022-10-26 16:31:02.531250
3044,-3.99,2022-10-26 16:31:02.546875
3045,-5.57,2022-10-26 16:31:02.562500
3046,-6.81,2022-10-26 16:31:02.578125
3047,-7.67,2022-10-26 16:31:02.593750
3048,-8.25,2022-10-26 16:31:02.609375
3049,-8.72,2022-10-26 16:31:02.625000
3050,-9.22,2022-10-26 16:31:02.640625
3051,-9.84,2022-10-26 16:31:02.656250
3052,-10.5,2022-10-26 16:31:02.671875
3053,-11.0,2022-10-26 16:31:02.687500
3054,-11.02,2022-10-26 16:31:02.703125
3055,-10.26,2022-10-26 16:31:02.718750
3056,-8.51,2022-10-26 16:31:02.734375
3057,-5.84,2022-10-26 16:31:02.750000
3058,-2.55,2022-10-26 16:31:02.765625
3059,0.88,2022-10-26 16:31:02.781250
3060,3.94,2022-10-26 16:31:02.796875
3061,6.26,2022-10-26 16:31:02.812500
3062,7.74,2022-10-26 16:31:02.828125
3063,8.53,2022-10-26 16:31:02.843750
3064,8.92,2022-10-26 16:31:02.859375
3065,9.21,2022-10-26 16:31:02.875000
3066,9.57,2022-10-26 16:31:02.890625
3067,10.01,2022-10-26 16:31:02.906250
3068,10.41,2022-10-26 16:31:02.921875
3069,10.62,2022-10-26 16:31:02.937500
3070,10.56,2022-10-26 16:31:02.953125
3071,10.27,2022-10-26 16:31:02.968750
3072,9.83,2022-10-26 16:31:02.984375
3073,9.3,2022-10-26 16:31:03.000000
3074,8.69,2022-10-26 16:31:03.015625
3075,7.96,2022-10-26 16:31:03.031250
3076,7.04,2022-10-26 16:31:03.046875
3077,5.96,2022-10-26 16:31:03.062500
3078,4.85,2022-10-26 16:31:03.078125
3079,3.84,2022-10-26 16:31:03.093750
3080,3.07,2022-10-26 16:31:03.109375
3081,2.57,2022-10-26 16:31:03.125000
3082,2.3,2022-10-26 16:31:03.140625
3083,2.06,2022-10-26 16:31:03.156250
3084,1.65,2022-10-26 16:31:03.171875
3085,0.86,2022-10-26 16:31:03.187500
3086,-0.42,2022-10-26 16:31:03.203125
3087,-2.14,2022-10-26 16:31:03.218750
3088,-4.08,2022-10-26 16:31:03.234375
3089,-5.86,2022-10-26 16:31:03.250000
3090,-7.13,2022-10-26 16:31:03.265625
3091,-7.67,2022-10-26 16:31:03.281250
3092,-7.53,2022-10-26 16:31:03.296875
3093,-7.04,2022-10-26 16:31:03.312500
3094,-6.64,2022-10-26 16:31:03.328125
3095,-6.67,2022-10-26 16:31:03.343750
3096,-7.16,2022-10-26 16:31:03.359375
3097,-7.79,2022-10-26 16:31:03.375000
3098,-8.07,2022-10-26 16:31:03.390625
3099,-7.53,2022-10-26 16:31:03.406250
3100,-5.96,2022-10-26 16:31:03.421875
3101,-3.48,2022-10-26 16:31:03.437500
3102,-0.45,2022-10-26 16:31:03.453125
3103,2.72,2022-10-26 16:31:03.468750
3104,5.77,2022-10-26 16:31:03.484375
3105,8.55,2022-10-26 16:31:03.500000
3106,11.03,2022-10-26 16:31:03.515625
3107,13.1,2022-10-26 16:31:03.531250
3108,14.58,2022-10-26 16:31:03.546875
3109,15.24,2022-10-26 16:31:03.562500
3110,14.92,2022-10-26 16:31:03.578125
3111,13.7,2022-10-26 16:31:03.593750
3112,11.87,2022-10-26 16:31:03.609375
3113,9.82,2022-10-26 16:31:03.625000
3114,7.97,2022-10-26 16:31:03.640625
3115,6.55,2022-10-26 16:31:03.656250
3116,5.59,2022-10-26 16:31:03.671875
3117,5.04,2022-10-26 16:31:03.687500
3118,4.78,2022-10-26 16:31:03.703125
3119,4.73,2022-10-26 16:31:03.718750
3120,4.83,2022-10-26 16:31:03.734375
3121,4.97,2022-10-26 16:31:03.750000
3122,5.01,2022-10-26 16:31:03.765625
3123,4.73,2022-10-26 16:31:03.781250
3124,3.92,2022-10-26 16:31:03.796875
3125,2.58,2022-10-26 16:31:03.812500
3126,0.86,2022-10-26 16:31:03.828125
3127,-0.83,2022-10-26 16:31:03.843750
3128,-2.03,2022-10-26 16:31:03.859375
3129,-2.37,2022-10-26 16:31:03.875000
3130,-1.7,2022-10-26 16:31:03.890625
3131,-0.23,2022-10-26 16:31:03.906250
3132,1.64,2022-10-26 16:31:03.921875
3133,3.36,2022-10-26 16:31:03.937500
3134,4.53,2022-10-26 16:31:03.953125
3135,4.92,2022-10-26 16:31:03.968750
3136,4.61,2022-10-26 16:31:03.984375
3137,3.84,2022-10-26 16:31:04.000000
3138,2.93,2022-10-26 16:31:04.015625
3139,2.18,2022-10-26 16:31:04.031250
3140,1.8,2022-10-26 16:31:04.046875
3141,1.88,2022-10-26 16:31:04.062500
3142,2.4,2022-10-26 16:31:04.078125
3143,3.27,2022-10-26 16:31:04.093750
3144,4.33,2022-10-26 16:31:04.109375
3145,5.44,2022-10-26 16:31:04.125000
3146,6.44,2022-10-26 16:31:04.140625
3147,7.23,2022-10-26 16:31:04.156250
3148,7.76,2022-10-26 16:31:04.171875
3149,7.95,2022-10-26 16:31:04.187500
3150,7.75,2022-10-26 16:31:04.203125
3151,7.05,2022-10-26 16:31:04.218750
3152,5.74,2022-10-26 16:31:04.234375
3153,3.78,2022-10-26 16:31:04.250000
3154,1.3,2022-10-26 16:31:04.265625
3155,-1.42,2022-10-26 16:31:04.281250
3156,-3.95,2022-10-26 16:31:04.296875
3157,-5.82,2022-10-26 16:31:04.312500
3158,-6.63,2022-10-26 16:31:04.328125
3159,-6.2,2022-10-26 16:31:04.343750
3160,-4.62,2022-10-26 16:31:04.359375
3161,-2.25,2022-10-26 16:31:04.375000
3162,0.33,2022-10-26 16:31:04.390625
3163,2.54,2022-10-26 16:31:04.406250
3164,3.92,2022-10-26 16:31:04.421875
3165,4.2,2022-10-26 16:31:04.437500
3166,3.43,2022-10-26 16:31:04.453125
3167,1.84,2022-10-26 16:31:04.468750
3168,-0.25,2022-10-26 16:31:04.484375
3169,-2.55,2022-10-26 16:31:04.500000
3170,-4.84,2022-10-26 16:31:04.515625
3171,-7.04,2022-10-26 16:31:04.531250
3172,-9.12,2022-10-26 16:31:04.546875
3173,-11.1,2022-10-26 16:31:04.562500
3174,-13.03,2022-10-26 16:31:04.578125
3175,-14.99,2022-10-26 16:31:04.593750
3176,-17.12,2022-10-26 16:31:04.609375
3177,-19.51,2022-10-26 16:31:04.625000
3178,-22.2,2022-10-26 16:31:04.640625
3179,-25.04,2022-10-26 16:31:04.656250
3180,-27.74,2022-10-26 16:31:04.671875
3181,-29.87,2022-10-26 16:31:04.687500
3182,-31.06,2022-10-26 16:31:04.703125
