,BVP,time
0,32.34,2022-10-28 10:32:07.312500
1,28.81,2022-10-28 10:32:07.328125
2,24.95,2022-10-28 10:32:07.343750
3,24.21,2022-10-28 10:32:07.359375
4,29.0,2022-10-28 10:32:07.375000
5,39.63,2022-10-28 10:32:07.390625
6,54.14,2022-10-28 10:32:07.406250
7,69.17,2022-10-28 10:32:07.421875
8,81.25,2022-10-28 10:32:07.437500
9,88.09,2022-10-28 10:32:07.453125
10,89.27,2022-10-28 10:32:07.468750
11,86.14,2022-10-28 10:32:07.484375
12,81.13,2022-10-28 10:32:07.500000
13,76.87,2022-10-28 10:32:07.515625
14,75.62,2022-10-28 10:32:07.531250
15,78.89,2022-10-28 10:32:07.546875
16,87.36,2022-10-28 10:32:07.562500
17,100.81,2022-10-28 10:32:07.578125
18,118.06,2022-10-28 10:32:07.593750
19,136.98,2022-10-28 10:32:07.609375
20,154.74,2022-10-28 10:32:07.625000
21,168.57,2022-10-28 10:32:07.640625
22,176.57,2022-10-28 10:32:07.656250
23,178.34,2022-10-28 10:32:07.671875
24,175.05,2022-10-28 10:32:07.687500
25,168.81,2022-10-28 10:32:07.703125
26,161.6,2022-10-28 10:32:07.718750
27,154.4,2022-10-28 10:32:07.734375
28,147.07,2022-10-28 10:32:07.750000
29,138.93,2022-10-28 10:32:07.765625
30,129.62,2022-10-28 10:32:07.781250
31,119.53,2022-10-28 10:32:07.796875
32,109.53,2022-10-28 10:32:07.812500
33,100.13,2022-10-28 10:32:07.828125
34,90.84,2022-10-28 10:32:07.843750
35,80.16,2022-10-28 10:32:07.859375
36,66.39,2022-10-28 10:32:07.875000
37,48.78,2022-10-28 10:32:07.890625
38,28.14,2022-10-28 10:32:07.906250
39,6.73,2022-10-28 10:32:07.921875
40,-12.75,2022-10-28 10:32:07.937500
41,-28.41,2022-10-28 10:32:07.953125
42,-39.86,2022-10-28 10:32:07.968750
43,-48.18,2022-10-28 10:32:07.984375
44,-55.13,2022-10-28 10:32:08.000000
45,-62.17,2022-10-28 10:32:08.015625
46,-69.9,2022-10-28 10:32:08.031250
47,-77.97,2022-10-28 10:32:08.046875
48,-85.62,2022-10-28 10:32:08.062500
49,-92.26,2022-10-28 10:32:08.078125
50,-97.93,2022-10-28 10:32:08.093750
51,-103.28,2022-10-28 10:32:08.109375
52,-109.16,2022-10-28 10:32:08.125000
53,-116.03,2022-10-28 10:32:08.140625
54,-123.43,2022-10-28 10:32:08.156250
55,-130.04,2022-10-28 10:32:08.171875
56,-134.1,2022-10-28 10:32:08.187500
57,-134.06,2022-10-28 10:32:08.203125
58,-129.25,2022-10-28 10:32:08.218750
59,-120.01,2022-10-28 10:32:08.234375
60,-107.57,2022-10-28 10:32:08.250000
61,-93.63,2022-10-28 10:32:08.265625
62,-79.92,2022-10-28 10:32:08.281250
63,-68.04,2022-10-28 10:32:08.296875
64,-59.37,2022-10-28 10:32:08.312500
65,-55.0,2022-10-28 10:32:08.328125
66,-55.54,2022-10-28 10:32:08.343750
67,-60.92,2022-10-28 10:32:08.359375
68,-70.2,2022-10-28 10:32:08.375000
69,-81.73,2022-10-28 10:32:08.390625
70,-93.58,2022-10-28 10:32:08.406250
71,-104.03,2022-10-28 10:32:08.421875
72,-111.96,2022-10-28 10:32:08.437500
73,-116.95,2022-10-28 10:32:08.453125
74,-119.06,2022-10-28 10:32:08.468750
75,-118.64,2022-10-28 10:32:08.484375
76,-116.22,2022-10-28 10:32:08.500000
77,-112.45,2022-10-28 10:32:08.515625
78,-108.15,2022-10-28 10:32:08.531250
79,-104.27,2022-10-28 10:32:08.546875
80,-101.54,2022-10-28 10:32:08.562500
81,-100.07,2022-10-28 10:32:08.578125
82,-99.07,2022-10-28 10:32:08.593750
83,-96.92,2022-10-28 10:32:08.609375
84,-91.67,2022-10-28 10:32:08.625000
85,-81.65,2022-10-28 10:32:08.640625
86,-66.08,2022-10-28 10:32:08.656250
87,-45.31,2022-10-28 10:32:08.671875
88,-20.53,2022-10-28 10:32:08.687500
89,6.69,2022-10-28 10:32:08.703125
90,34.92,2022-10-28 10:32:08.718750
91,63.05,2022-10-28 10:32:08.734375
92,90.29,2022-10-28 10:32:08.750000
93,115.86,2022-10-28 10:32:08.765625
94,138.9,2022-10-28 10:32:08.781250
95,158.26,2022-10-28 10:32:08.796875
96,172.6,2022-10-28 10:32:08.812500
97,180.46,2022-10-28 10:32:08.828125
98,180.62,2022-10-28 10:32:08.843750
99,172.44,2022-10-28 10:32:08.859375
100,156.22,2022-10-28 10:32:08.875000
101,133.36,2022-10-28 10:32:08.890625
102,106.12,2022-10-28 10:32:08.906250
103,77.15,2022-10-28 10:32:08.921875
104,48.73,2022-10-28 10:32:08.937500
105,22.35,2022-10-28 10:32:08.953125
106,-1.54,2022-10-28 10:32:08.968750
107,-23.29,2022-10-28 10:32:08.984375
108,-43.78,2022-10-28 10:32:09.000000
109,-64.06,2022-10-28 10:32:09.015625
110,-85.07,2022-10-28 10:32:09.031250
111,-107.44,2022-10-28 10:32:09.046875
112,-131.15,2022-10-28 10:32:09.062500
113,-155.4,2022-10-28 10:32:09.078125
114,-178.5,2022-10-28 10:32:09.093750
115,-198.18,2022-10-28 10:32:09.109375
116,-212.2,2022-10-28 10:32:09.125000
117,-219.05,2022-10-28 10:32:09.140625
118,-218.47,2022-10-28 10:32:09.156250
119,-211.64,2022-10-28 10:32:09.171875
120,-200.88,2022-10-28 10:32:09.187500
121,-189.13,2022-10-28 10:32:09.203125
122,-179.32,2022-10-28 10:32:09.218750
123,-173.72,2022-10-28 10:32:09.234375
124,-173.38,2022-10-28 10:32:09.250000
125,-177.81,2022-10-28 10:32:09.265625
126,-184.96,2022-10-28 10:32:09.281250
127,-191.73,2022-10-28 10:32:09.296875
128,-194.76,2022-10-28 10:32:09.312500
129,-191.36,2022-10-28 10:32:09.328125
130,-180.31,2022-10-28 10:32:09.343750
131,-162.02,2022-10-28 10:32:09.359375
132,-138.34,2022-10-28 10:32:09.375000
133,-111.93,2022-10-28 10:32:09.390625
134,-85.53,2022-10-28 10:32:09.406250
135,-61.16,2022-10-28 10:32:09.421875
136,-39.65,2022-10-28 10:32:09.437500
137,-20.34,2022-10-28 10:32:09.453125
138,-1.25,2022-10-28 10:32:09.468750
139,20.21,2022-10-28 10:32:09.484375
140,46.22,2022-10-28 10:32:09.500000
141,77.51,2022-10-28 10:32:09.515625
142,112.92,2022-10-28 10:32:09.531250
143,149.92,2022-10-28 10:32:09.546875
144,185.92,2022-10-28 10:32:09.562500
145,219.56,2022-10-28 10:32:09.578125
146,251.39,2022-10-28 10:32:09.593750
147,283.43,2022-10-28 10:32:09.609375
148,317.99,2022-10-28 10:32:09.625000
149,356.39,2022-10-28 10:32:09.640625
150,398.29,2022-10-28 10:32:09.656250
151,441.62,2022-10-28 10:32:09.671875
152,482.98,2022-10-28 10:32:09.687500
153,518.1,2022-10-28 10:32:09.703125
154,542.12,2022-10-28 10:32:09.718750
155,550.26,2022-10-28 10:32:09.734375
156,538.53,2022-10-28 10:32:09.750000
157,505.0,2022-10-28 10:32:09.765625
158,450.57,2022-10-28 10:32:09.781250
159,379.0,2022-10-28 10:32:09.796875
160,295.72,2022-10-28 10:32:09.812500
161,206.24,2022-10-28 10:32:09.828125
162,114.84,2022-10-28 10:32:09.843750
163,24.73,2022-10-28 10:32:09.859375
164,-60.96,2022-10-28 10:32:09.875000
165,-138.06,2022-10-28 10:32:09.890625
166,-201.38,2022-10-28 10:32:09.906250
167,-246.1,2022-10-28 10:32:09.921875
168,-269.87,2022-10-28 10:32:09.937500
169,-274.26,2022-10-28 10:32:09.953125
170,-264.61,2022-10-28 10:32:09.968750
171,-247.99,2022-10-28 10:32:09.984375
172,-230.62,2022-10-28 10:32:10.000000
173,-215.97,2022-10-28 10:32:10.015625
174,-204.35,2022-10-28 10:32:10.031250
175,-194.31,2022-10-28 10:32:10.046875
176,-184.4,2022-10-28 10:32:10.062500
177,-174.47,2022-10-28 10:32:10.078125
178,-165.72,2022-10-28 10:32:10.093750
179,-159.66,2022-10-28 10:32:10.109375
180,-156.86,2022-10-28 10:32:10.125000
181,-156.35,2022-10-28 10:32:10.140625
182,-155.9,2022-10-28 10:32:10.156250
183,-153.09,2022-10-28 10:32:10.171875
184,-146.28,2022-10-28 10:32:10.187500
185,-135.28,2022-10-28 10:32:10.203125
186,-121.35,2022-10-28 10:32:10.218750
187,-106.43,2022-10-28 10:32:10.234375
188,-92.28,2022-10-28 10:32:10.250000
189,-79.83,2022-10-28 10:32:10.265625
190,-68.93,2022-10-28 10:32:10.281250
191,-58.84,2022-10-28 10:32:10.296875
192,-48.87,2022-10-28 10:32:10.312500
193,-38.98,2022-10-28 10:32:10.328125
194,-29.96,2022-10-28 10:32:10.343750
195,-22.98,2022-10-28 10:32:10.359375
196,-18.9,2022-10-28 10:32:10.375000
197,-17.75,2022-10-28 10:32:10.390625
198,-18.64,2022-10-28 10:32:10.406250
199,-20.15,2022-10-28 10:32:10.421875
200,-21.04,2022-10-28 10:32:10.437500
201,-20.75,2022-10-28 10:32:10.453125
202,-19.6,2022-10-28 10:32:10.468750
203,-18.46,2022-10-28 10:32:10.484375
204,-18.23,2022-10-28 10:32:10.500000
205,-19.44,2022-10-28 10:32:10.515625
206,-21.97,2022-10-28 10:32:10.531250
207,-25.31,2022-10-28 10:32:10.546875
208,-28.82,2022-10-28 10:32:10.562500
209,-32.05,2022-10-28 10:32:10.578125
210,-34.93,2022-10-28 10:32:10.593750
211,-37.76,2022-10-28 10:32:10.609375
212,-41.12,2022-10-28 10:32:10.625000
213,-45.64,2022-10-28 10:32:10.640625
214,-51.75,2022-10-28 10:32:10.656250
215,-59.4,2022-10-28 10:32:10.671875
216,-67.88,2022-10-28 10:32:10.687500
217,-75.91,2022-10-28 10:32:10.703125
218,-81.91,2022-10-28 10:32:10.718750
219,-84.48,2022-10-28 10:32:10.734375
220,-82.91,2022-10-28 10:32:10.750000
221,-77.32,2022-10-28 10:32:10.765625
222,-68.62,2022-10-28 10:32:10.781250
223,-58.09,2022-10-28 10:32:10.796875
224,-46.89,2022-10-28 10:32:10.812500
225,-35.83,2022-10-28 10:32:10.828125
226,-25.29,2022-10-28 10:32:10.843750
227,-15.43,2022-10-28 10:32:10.859375
228,-6.43,2022-10-28 10:32:10.875000
229,1.48,2022-10-28 10:32:10.890625
230,8.02,2022-10-28 10:32:10.906250
231,13.03,2022-10-28 10:32:10.921875
232,16.58,2022-10-28 10:32:10.937500
233,18.94,2022-10-28 10:32:10.953125
234,20.46,2022-10-28 10:32:10.968750
235,21.48,2022-10-28 10:32:10.984375
236,22.29,2022-10-28 10:32:11.000000
237,23.07,2022-10-28 10:32:11.015625
238,23.94,2022-10-28 10:32:11.031250
239,24.96,2022-10-28 10:32:11.046875
240,26.11,2022-10-28 10:32:11.062500
241,27.29,2022-10-28 10:32:11.078125
242,28.44,2022-10-28 10:32:11.093750
243,29.52,2022-10-28 10:32:11.109375
244,30.58,2022-10-28 10:32:11.125000
245,31.69,2022-10-28 10:32:11.140625
246,32.82,2022-10-28 10:32:11.156250
247,33.82,2022-10-28 10:32:11.171875
248,34.41,2022-10-28 10:32:11.187500
249,34.23,2022-10-28 10:32:11.203125
250,33.06,2022-10-28 10:32:11.218750
251,30.92,2022-10-28 10:32:11.234375
252,28.08,2022-10-28 10:32:11.250000
253,24.95,2022-10-28 10:32:11.265625
254,21.89,2022-10-28 10:32:11.281250
255,19.02,2022-10-28 10:32:11.296875
256,16.23,2022-10-28 10:32:11.312500
257,13.2,2022-10-28 10:32:11.328125
258,9.65,2022-10-28 10:32:11.343750
259,5.44,2022-10-28 10:32:11.359375
260,0.69,2022-10-28 10:32:11.375000
261,-4.26,2022-10-28 10:32:11.390625
262,-9.0,2022-10-28 10:32:11.406250
263,-13.22,2022-10-28 10:32:11.421875
264,-16.82,2022-10-28 10:32:11.437500
265,-19.97,2022-10-28 10:32:11.453125
266,-23.04,2022-10-28 10:32:11.468750
267,-26.48,2022-10-28 10:32:11.484375
268,-30.7,2022-10-28 10:32:11.500000
269,-35.94,2022-10-28 10:32:11.515625
270,-42.13,2022-10-28 10:32:11.531250
271,-48.85,2022-10-28 10:32:11.546875
272,-55.29,2022-10-28 10:32:11.562500
273,-60.39,2022-10-28 10:32:11.578125
274,-63.07,2022-10-28 10:32:11.593750
275,-62.43,2022-10-28 10:32:11.609375
276,-58.07,2022-10-28 10:32:11.625000
277,-50.2,2022-10-28 10:32:11.640625
278,-39.63,2022-10-28 10:32:11.656250
279,-27.6,2022-10-28 10:32:11.671875
280,-15.5,2022-10-28 10:32:11.687500
281,-4.58,2022-10-28 10:32:11.703125
282,4.3,2022-10-28 10:32:11.718750
283,10.79,2022-10-28 10:32:11.734375
284,15.02,2022-10-28 10:32:11.750000
285,17.37,2022-10-28 10:32:11.765625
286,18.37,2022-10-28 10:32:11.781250
287,18.41,2022-10-28 10:32:11.796875
288,17.73,2022-10-28 10:32:11.812500
289,16.4,2022-10-28 10:32:11.828125
290,14.45,2022-10-28 10:32:11.843750
291,12.0,2022-10-28 10:32:11.859375
292,9.25,2022-10-28 10:32:11.875000
293,6.47,2022-10-28 10:32:11.890625
294,3.83,2022-10-28 10:32:11.906250
295,1.38,2022-10-28 10:32:11.921875
296,-0.97,2022-10-28 10:32:11.937500
297,-3.31,2022-10-28 10:32:11.953125
298,-5.74,2022-10-28 10:32:11.968750
299,-8.26,2022-10-28 10:32:11.984375
300,-10.95,2022-10-28 10:32:12.000000
301,-13.97,2022-10-28 10:32:12.015625
302,-17.7,2022-10-28 10:32:12.031250
303,-22.53,2022-10-28 10:32:12.046875
304,-28.77,2022-10-28 10:32:12.062500
305,-36.43,2022-10-28 10:32:12.078125
306,-45.22,2022-10-28 10:32:12.093750
307,-54.6,2022-10-28 10:32:12.109375
308,-64.06,2022-10-28 10:32:12.125000
309,-73.34,2022-10-28 10:32:12.140625
310,-82.48,2022-10-28 10:32:12.156250
311,-91.78,2022-10-28 10:32:12.171875
312,-101.5,2022-10-28 10:32:12.187500
313,-111.68,2022-10-28 10:32:12.203125
314,-122.08,2022-10-28 10:32:12.218750
315,-132.25,2022-10-28 10:32:12.234375
316,-141.84,2022-10-28 10:32:12.250000
317,-150.76,2022-10-28 10:32:12.265625
318,-159.12,2022-10-28 10:32:12.281250
319,-167.03,2022-10-28 10:32:12.296875
320,-174.3,2022-10-28 10:32:12.312500
321,-180.3,2022-10-28 10:32:12.328125
322,-184.2,2022-10-28 10:32:12.343750
323,-185.36,2022-10-28 10:32:12.359375
324,-183.59,2022-10-28 10:32:12.375000
325,-179.12,2022-10-28 10:32:12.390625
326,-172.15,2022-10-28 10:32:12.406250
327,-162.5,2022-10-28 10:32:12.421875
328,-149.56,2022-10-28 10:32:12.437500
329,-132.76,2022-10-28 10:32:12.453125
330,-112.24,2022-10-28 10:32:12.468750
331,-89.1,2022-10-28 10:32:12.484375
332,-64.95,2022-10-28 10:32:12.500000
333,-41.21,2022-10-28 10:32:12.515625
334,-18.3,2022-10-28 10:32:12.531250
335,4.19,2022-10-28 10:32:12.546875
336,26.76,2022-10-28 10:32:12.562500
337,49.04,2022-10-28 10:32:12.578125
338,69.48,2022-10-28 10:32:12.593750
339,86.03,2022-10-28 10:32:12.609375
340,97.59,2022-10-28 10:32:12.625000
341,105.2,2022-10-28 10:32:12.640625
342,112.29,2022-10-28 10:32:12.656250
343,123.68,2022-10-28 10:32:12.671875
344,143.8,2022-10-28 10:32:12.687500
345,175.06,2022-10-28 10:32:12.703125
346,216.96,2022-10-28 10:32:12.718750
347,266.36,2022-10-28 10:32:12.734375
348,318.4,2022-10-28 10:32:12.750000
349,367.73,2022-10-28 10:32:12.765625
350,409.42,2022-10-28 10:32:12.781250
351,439.6,2022-10-28 10:32:12.796875
352,455.79,2022-10-28 10:32:12.812500
353,457.06,2022-10-28 10:32:12.828125
354,444.07,2022-10-28 10:32:12.843750
355,419.05,2022-10-28 10:32:12.859375
356,385.52,2022-10-28 10:32:12.875000
357,347.83,2022-10-28 10:32:12.890625
358,310.56,2022-10-28 10:32:12.906250
359,277.52,2022-10-28 10:32:12.921875
360,250.99,2022-10-28 10:32:12.937500
361,230.97,2022-10-28 10:32:12.953125
362,215.17,2022-10-28 10:32:12.968750
363,199.81,2022-10-28 10:32:12.984375
364,181.07,2022-10-28 10:32:13.000000
365,156.61,2022-10-28 10:32:13.015625
366,126.49,2022-10-28 10:32:13.031250
367,93.02,2022-10-28 10:32:13.046875
368,59.62,2022-10-28 10:32:13.062500
369,29.66,2022-10-28 10:32:13.078125
370,5.4,2022-10-28 10:32:13.093750
371,-12.14,2022-10-28 10:32:13.109375
372,-22.73,2022-10-28 10:32:13.125000
373,-26.4,2022-10-28 10:32:13.140625
374,-23.36,2022-10-28 10:32:13.156250
375,-14.32,2022-10-28 10:32:13.171875
376,-1.02,2022-10-28 10:32:13.187500
377,13.7,2022-10-28 10:32:13.203125
378,26.57,2022-10-28 10:32:13.218750
379,34.93,2022-10-28 10:32:13.234375
380,37.62,2022-10-28 10:32:13.250000
381,35.14,2022-10-28 10:32:13.265625
382,28.9,2022-10-28 10:32:13.281250
383,20.03,2022-10-28 10:32:13.296875
384,8.5,2022-10-28 10:32:13.312500
385,-6.88,2022-10-28 10:32:13.328125
386,-27.62,2022-10-28 10:32:13.343750
387,-54.26,2022-10-28 10:32:13.359375
388,-85.52,2022-10-28 10:32:13.375000
389,-118.28,2022-10-28 10:32:13.390625
390,-148.56,2022-10-28 10:32:13.406250
391,-172.9,2022-10-28 10:32:13.421875
392,-189.44,2022-10-28 10:32:13.437500
393,-198.15,2022-10-28 10:32:13.453125
394,-200.26,2022-10-28 10:32:13.468750
395,-197.36,2022-10-28 10:32:13.484375
396,-190.74,2022-10-28 10:32:13.500000
397,-181.39,2022-10-28 10:32:13.515625
398,-170.38,2022-10-28 10:32:13.531250
399,-159.29,2022-10-28 10:32:13.546875
400,-150.14,2022-10-28 10:32:13.562500
401,-144.72,2022-10-28 10:32:13.578125
402,-143.69,2022-10-28 10:32:13.593750
403,-146.0,2022-10-28 10:32:13.609375
404,-149.19,2022-10-28 10:32:13.625000
405,-150.34,2022-10-28 10:32:13.640625
406,-147.42,2022-10-28 10:32:13.656250
407,-140.05,2022-10-28 10:32:13.671875
408,-129.51,2022-10-28 10:32:13.687500
409,-117.75,2022-10-28 10:32:13.703125
410,-106.25,2022-10-28 10:32:13.718750
411,-95.12,2022-10-28 10:32:13.734375
412,-83.2,2022-10-28 10:32:13.750000
413,-68.93,2022-10-28 10:32:13.765625
414,-51.46,2022-10-28 10:32:13.781250
415,-31.46,2022-10-28 10:32:13.796875
416,-11.12,2022-10-28 10:32:13.812500
417,6.81,2022-10-28 10:32:13.828125
418,20.16,2022-10-28 10:32:13.843750
419,28.29,2022-10-28 10:32:13.859375
420,32.29,2022-10-28 10:32:13.875000
421,34.31,2022-10-28 10:32:13.890625
422,36.43,2022-10-28 10:32:13.906250
423,39.61,2022-10-28 10:32:13.921875
424,43.34,2022-10-28 10:32:13.937500
425,46.01,2022-10-28 10:32:13.953125
426,45.95,2022-10-28 10:32:13.968750
427,42.3,2022-10-28 10:32:13.984375
428,35.51,2022-10-28 10:32:14.000000
429,26.84,2022-10-28 10:32:14.015625
430,17.61,2022-10-28 10:32:14.031250
431,8.49,2022-10-28 10:32:14.046875
432,-0.63,2022-10-28 10:32:14.062500
433,-10.02,2022-10-28 10:32:14.078125
434,-19.44,2022-10-28 10:32:14.093750
435,-27.93,2022-10-28 10:32:14.109375
436,-34.35,2022-10-28 10:32:14.125000
437,-38.48,2022-10-28 10:32:14.140625
438,-41.93,2022-10-28 10:32:14.156250
439,-48.16,2022-10-28 10:32:14.171875
440,-61.55,2022-10-28 10:32:14.187500
441,-85.92,2022-10-28 10:32:14.203125
442,-123.27,2022-10-28 10:32:14.218750
443,-173.31,2022-10-28 10:32:14.234375
444,-233.58,2022-10-28 10:32:14.250000
445,-300.09,2022-10-28 10:32:14.265625
446,-367.68,2022-10-28 10:32:14.281250
447,-430.44,2022-10-28 10:32:14.296875
448,-482.14,2022-10-28 10:32:14.312500
449,-517.1,2022-10-28 10:32:14.328125
450,-531.44,2022-10-28 10:32:14.343750
451,-524.09,2022-10-28 10:32:14.359375
452,-497.07,2022-10-28 10:32:14.375000
453,-454.72,2022-10-28 10:32:14.390625
454,-402.21,2022-10-28 10:32:14.406250
455,-343.94,2022-10-28 10:32:14.421875
456,-282.78,2022-10-28 10:32:14.437500
457,-219.97,2022-10-28 10:32:14.453125
458,-155.91,2022-10-28 10:32:14.468750
459,-90.92,2022-10-28 10:32:14.484375
460,-25.78,2022-10-28 10:32:14.500000
461,38.36,2022-10-28 10:32:14.515625
462,100.21,2022-10-28 10:32:14.531250
463,158.54,2022-10-28 10:32:14.546875
464,212.25,2022-10-28 10:32:14.562500
465,260.32,2022-10-28 10:32:14.578125
466,301.89,2022-10-28 10:32:14.593750
467,336.34,2022-10-28 10:32:14.609375
468,363.42,2022-10-28 10:32:14.625000
469,383.27,2022-10-28 10:32:14.640625
470,396.34,2022-10-28 10:32:14.656250
471,403.31,2022-10-28 10:32:14.671875
472,405.04,2022-10-28 10:32:14.687500
473,402.82,2022-10-28 10:32:14.703125
474,398.61,2022-10-28 10:32:14.718750
475,394.85,2022-10-28 10:32:14.734375
476,393.9,2022-10-28 10:32:14.750000
477,397.11,2022-10-28 10:32:14.765625
478,403.98,2022-10-28 10:32:14.781250
479,412.11,2022-10-28 10:32:14.796875
480,418.03,2022-10-28 10:32:14.812500
481,418.58,2022-10-28 10:32:14.828125
482,412.31,2022-10-28 10:32:14.843750
483,399.86,2022-10-28 10:32:14.859375
484,383.32,2022-10-28 10:32:14.875000
485,364.81,2022-10-28 10:32:14.890625
486,345.41,2022-10-28 10:32:14.906250
487,324.65,2022-10-28 10:32:14.921875
488,301.09,2022-10-28 10:32:14.937500
489,273.52,2022-10-28 10:32:14.953125
490,241.94,2022-10-28 10:32:14.968750
491,207.94,2022-10-28 10:32:14.984375
492,174.12,2022-10-28 10:32:15.000000
493,143.12,2022-10-28 10:32:15.015625
494,116.68,2022-10-28 10:32:15.031250
495,95.19,2022-10-28 10:32:15.046875
496,77.81,2022-10-28 10:32:15.062500
497,62.94,2022-10-28 10:32:15.078125
498,48.81,2022-10-28 10:32:15.093750
499,33.92,2022-10-28 10:32:15.109375
500,17.27,2022-10-28 10:32:15.125000
501,-1.54,2022-10-28 10:32:15.140625
502,-22.34,2022-10-28 10:32:15.156250
503,-44.57,2022-10-28 10:32:15.171875
504,-67.46,2022-10-28 10:32:15.187500
505,-90.24,2022-10-28 10:32:15.203125
506,-112.16,2022-10-28 10:32:15.218750
507,-132.53,2022-10-28 10:32:15.234375
508,-150.58,2022-10-28 10:32:15.250000
509,-165.51,2022-10-28 10:32:15.265625
510,-176.64,2022-10-28 10:32:15.281250
511,-183.81,2022-10-28 10:32:15.296875
512,-187.61,2022-10-28 10:32:15.312500
513,-189.29,2022-10-28 10:32:15.328125
514,-190.2,2022-10-28 10:32:15.343750
515,-191.01,2022-10-28 10:32:15.359375
516,-191.23,2022-10-28 10:32:15.375000
517,-189.32,2022-10-28 10:32:15.390625
518,-183.59,2022-10-28 10:32:15.406250
519,-173.31,2022-10-28 10:32:15.421875
520,-159.5,2022-10-28 10:32:15.437500
521,-144.91,2022-10-28 10:32:15.453125
522,-133.13,2022-10-28 10:32:15.468750
523,-127.23,2022-10-28 10:32:15.484375
524,-128.65,2022-10-28 10:32:15.500000
525,-136.72,2022-10-28 10:32:15.515625
526,-149.01,2022-10-28 10:32:15.531250
527,-162.29,2022-10-28 10:32:15.546875
528,-173.48,2022-10-28 10:32:15.562500
529,-180.43,2022-10-28 10:32:15.578125
530,-181.88,2022-10-28 10:32:15.593750
531,-177.26,2022-10-28 10:32:15.609375
532,-166.23,2022-10-28 10:32:15.625000
533,-148.54,2022-10-28 10:32:15.640625
534,-124.32,2022-10-28 10:32:15.656250
535,-94.51,2022-10-28 10:32:15.671875
536,-61.13,2022-10-28 10:32:15.687500
537,-27.16,2022-10-28 10:32:15.703125
538,4.18,2022-10-28 10:32:15.718750
539,30.34,2022-10-28 10:32:15.734375
540,50.22,2022-10-28 10:32:15.750000
541,64.37,2022-10-28 10:32:15.765625
542,74.62,2022-10-28 10:32:15.781250
543,83.28,2022-10-28 10:32:15.796875
544,92.31,2022-10-28 10:32:15.812500
545,102.81,2022-10-28 10:32:15.828125
546,114.88,2022-10-28 10:32:15.843750
547,127.81,2022-10-28 10:32:15.859375
548,140.3,2022-10-28 10:32:15.875000
549,150.81,2022-10-28 10:32:15.890625
550,157.8,2022-10-28 10:32:15.906250
551,160.13,2022-10-28 10:32:15.921875
552,157.37,2022-10-28 10:32:15.937500
553,149.95,2022-10-28 10:32:15.953125
554,139.0,2022-10-28 10:32:15.968750
555,125.95,2022-10-28 10:32:15.984375
556,112.12,2022-10-28 10:32:16.000000
557,98.26,2022-10-28 10:32:16.015625
558,84.6,2022-10-28 10:32:16.031250
559,71.0,2022-10-28 10:32:16.046875
560,57.36,2022-10-28 10:32:16.062500
561,43.93,2022-10-28 10:32:16.078125
562,31.29,2022-10-28 10:32:16.093750
563,20.14,2022-10-28 10:32:16.109375
564,11.03,2022-10-28 10:32:16.125000
565,4.14,2022-10-28 10:32:16.140625
566,-0.77,2022-10-28 10:32:16.156250
567,-4.14,2022-10-28 10:32:16.171875
568,-6.55,2022-10-28 10:32:16.187500
569,-8.4,2022-10-28 10:32:16.203125
570,-9.97,2022-10-28 10:32:16.218750
571,-11.34,2022-10-28 10:32:16.234375
572,-12.56,2022-10-28 10:32:16.250000
573,-13.72,2022-10-28 10:32:16.265625
574,-15.07,2022-10-28 10:32:16.281250
575,-16.96,2022-10-28 10:32:16.296875
576,-19.69,2022-10-28 10:32:16.312500
577,-23.36,2022-10-28 10:32:16.328125
578,-27.74,2022-10-28 10:32:16.343750
579,-32.44,2022-10-28 10:32:16.359375
580,-37.07,2022-10-28 10:32:16.375000
581,-41.46,2022-10-28 10:32:16.390625
582,-45.74,2022-10-28 10:32:16.406250
583,-50.2,2022-10-28 10:32:16.421875
584,-55.07,2022-10-28 10:32:16.437500
585,-60.26,2022-10-28 10:32:16.453125
586,-65.36,2022-10-28 10:32:16.468750
587,-69.92,2022-10-28 10:32:16.484375
588,-73.66,2022-10-28 10:32:16.500000
589,-76.72,2022-10-28 10:32:16.515625
590,-79.61,2022-10-28 10:32:16.531250
591,-82.96,2022-10-28 10:32:16.546875
592,-87.25,2022-10-28 10:32:16.562500
593,-92.51,2022-10-28 10:32:16.578125
594,-98.23,2022-10-28 10:32:16.593750
595,-103.43,2022-10-28 10:32:16.609375
596,-106.91,2022-10-28 10:32:16.625000
597,-107.58,2022-10-28 10:32:16.640625
598,-104.83,2022-10-28 10:32:16.656250
599,-98.71,2022-10-28 10:32:16.671875
600,-89.93,2022-10-28 10:32:16.687500
601,-79.6,2022-10-28 10:32:16.703125
602,-68.88,2022-10-28 10:32:16.718750
603,-58.62,2022-10-28 10:32:16.734375
604,-49.23,2022-10-28 10:32:16.750000
605,-40.69,2022-10-28 10:32:16.765625
606,-32.75,2022-10-28 10:32:16.781250
607,-25.17,2022-10-28 10:32:16.796875
608,-17.82,2022-10-28 10:32:16.812500
609,-10.69,2022-10-28 10:32:16.828125
610,-3.85,2022-10-28 10:32:16.843750
611,2.62,2022-10-28 10:32:16.859375
612,8.57,2022-10-28 10:32:16.875000
613,13.86,2022-10-28 10:32:16.890625
614,18.25,2022-10-28 10:32:16.906250
615,21.59,2022-10-28 10:32:16.921875
616,23.73,2022-10-28 10:32:16.937500
617,24.74,2022-10-28 10:32:16.953125
618,24.82,2022-10-28 10:32:16.968750
619,24.36,2022-10-28 10:32:16.984375
620,23.84,2022-10-28 10:32:17.000000
621,23.76,2022-10-28 10:32:17.015625
622,24.45,2022-10-28 10:32:17.031250
623,26.01,2022-10-28 10:32:17.046875
624,28.22,2022-10-28 10:32:17.062500
625,30.58,2022-10-28 10:32:17.078125
626,32.44,2022-10-28 10:32:17.093750
627,33.28,2022-10-28 10:32:17.109375
628,32.84,2022-10-28 10:32:17.125000
629,31.31,2022-10-28 10:32:17.140625
630,29.16,2022-10-28 10:32:17.156250
631,26.92,2022-10-28 10:32:17.171875
632,24.9,2022-10-28 10:32:17.187500
633,23.11,2022-10-28 10:32:17.203125
634,21.27,2022-10-28 10:32:17.218750
635,19.1,2022-10-28 10:32:17.234375
636,16.45,2022-10-28 10:32:17.250000
637,13.5,2022-10-28 10:32:17.265625
638,10.56,2022-10-28 10:32:17.281250
639,7.95,2022-10-28 10:32:17.296875
640,5.82,2022-10-28 10:32:17.312500
641,4.05,2022-10-28 10:32:17.328125
642,2.37,2022-10-28 10:32:17.343750
643,0.31,2022-10-28 10:32:17.359375
644,-2.6,2022-10-28 10:32:17.375000
645,-6.74,2022-10-28 10:32:17.390625
646,-12.39,2022-10-28 10:32:17.406250
647,-19.48,2022-10-28 10:32:17.421875
648,-27.47,2022-10-28 10:32:17.437500
649,-35.33,2022-10-28 10:32:17.453125
650,-41.75,2022-10-28 10:32:17.468750
651,-45.45,2022-10-28 10:32:17.484375
652,-45.69,2022-10-28 10:32:17.500000
653,-42.48,2022-10-28 10:32:17.515625
654,-36.55,2022-10-28 10:32:17.531250
655,-29.1,2022-10-28 10:32:17.546875
656,-21.36,2022-10-28 10:32:17.562500
657,-14.28,2022-10-28 10:32:17.578125
658,-8.32,2022-10-28 10:32:17.593750
659,-3.44,2022-10-28 10:32:17.609375
660,0.77,2022-10-28 10:32:17.625000
661,4.86,2022-10-28 10:32:17.640625
662,9.25,2022-10-28 10:32:17.656250
663,14.14,2022-10-28 10:32:17.671875
664,19.42,2022-10-28 10:32:17.687500
665,24.77,2022-10-28 10:32:17.703125
666,29.8,2022-10-28 10:32:17.718750
667,34.25,2022-10-28 10:32:17.734375
668,37.98,2022-10-28 10:32:17.750000
669,40.96,2022-10-28 10:32:17.765625
670,43.16,2022-10-28 10:32:17.781250
671,44.48,2022-10-28 10:32:17.796875
672,44.85,2022-10-28 10:32:17.812500
673,44.31,2022-10-28 10:32:17.828125
674,43.15,2022-10-28 10:32:17.843750
675,41.83,2022-10-28 10:32:17.859375
676,40.85,2022-10-28 10:32:17.875000
677,40.43,2022-10-28 10:32:17.890625
678,40.45,2022-10-28 10:32:17.906250
679,40.42,2022-10-28 10:32:17.921875
680,39.8,2022-10-28 10:32:17.937500
681,38.16,2022-10-28 10:32:17.953125
682,35.41,2022-10-28 10:32:17.968750
683,31.73,2022-10-28 10:32:17.984375
684,27.42,2022-10-28 10:32:18.000000
685,22.71,2022-10-28 10:32:18.015625
686,17.66,2022-10-28 10:32:18.031250
687,12.22,2022-10-28 10:32:18.046875
688,6.29,2022-10-28 10:32:18.062500
689,-0.12,2022-10-28 10:32:18.078125
690,-6.87,2022-10-28 10:32:18.093750
691,-13.7,2022-10-28 10:32:18.109375
692,-20.32,2022-10-28 10:32:18.125000
693,-26.53,2022-10-28 10:32:18.140625
694,-32.31,2022-10-28 10:32:18.156250
695,-37.87,2022-10-28 10:32:18.171875
696,-43.55,2022-10-28 10:32:18.187500
697,-49.67,2022-10-28 10:32:18.203125
698,-56.26,2022-10-28 10:32:18.218750
699,-62.94,2022-10-28 10:32:18.234375
700,-68.87,2022-10-28 10:32:18.250000
701,-72.94,2022-10-28 10:32:18.265625
702,-74.18,2022-10-28 10:32:18.281250
703,-72.01,2022-10-28 10:32:18.296875
704,-66.51,2022-10-28 10:32:18.312500
705,-58.33,2022-10-28 10:32:18.328125
706,-48.45,2022-10-28 10:32:18.343750
707,-37.85,2022-10-28 10:32:18.359375
708,-27.39,2022-10-28 10:32:18.375000
709,-17.68,2022-10-28 10:32:18.390625
710,-9.1,2022-10-28 10:32:18.406250
711,-1.92,2022-10-28 10:32:18.421875
712,3.76,2022-10-28 10:32:18.437500
713,8.01,2022-10-28 10:32:18.453125
714,11.1,2022-10-28 10:32:18.468750
715,13.44,2022-10-28 10:32:18.484375
716,15.47,2022-10-28 10:32:18.500000
717,17.57,2022-10-28 10:32:18.515625
718,19.91,2022-10-28 10:32:18.531250
719,22.58,2022-10-28 10:32:18.546875
720,25.57,2022-10-28 10:32:18.562500
721,28.98,2022-10-28 10:32:18.578125
722,33.04,2022-10-28 10:32:18.593750
723,38.07,2022-10-28 10:32:18.609375
724,44.36,2022-10-28 10:32:18.625000
725,51.96,2022-10-28 10:32:18.640625
726,60.61,2022-10-28 10:32:18.656250
727,69.69,2022-10-28 10:32:18.671875
728,78.5,2022-10-28 10:32:18.687500
729,86.41,2022-10-28 10:32:18.703125
730,93.1,2022-10-28 10:32:18.718750
731,98.73,2022-10-28 10:32:18.734375
732,103.9,2022-10-28 10:32:18.750000
733,109.5,2022-10-28 10:32:18.765625
734,116.32,2022-10-28 10:32:18.781250
735,124.54,2022-10-28 10:32:18.796875
736,133.51,2022-10-28 10:32:18.812500
737,141.73,2022-10-28 10:32:18.828125
738,147.25,2022-10-28 10:32:18.843750
739,148.27,2022-10-28 10:32:18.859375
740,143.73,2022-10-28 10:32:18.875000
741,133.74,2022-10-28 10:32:18.890625
742,119.66,2022-10-28 10:32:18.906250
743,103.68,2022-10-28 10:32:18.921875
744,88.15,2022-10-28 10:32:18.937500
745,74.75,2022-10-28 10:32:18.953125
746,63.99,2022-10-28 10:32:18.968750
747,55.09,2022-10-28 10:32:18.984375
748,46.41,2022-10-28 10:32:19.000000
749,36.31,2022-10-28 10:32:19.015625
750,23.74,2022-10-28 10:32:19.031250
751,8.76,2022-10-28 10:32:19.046875
752,-7.53,2022-10-28 10:32:19.062500
753,-23.5,2022-10-28 10:32:19.078125
754,-37.49,2022-10-28 10:32:19.093750
755,-48.33,2022-10-28 10:32:19.109375
756,-55.4,2022-10-28 10:32:19.125000
757,-58.55,2022-10-28 10:32:19.140625
758,-57.95,2022-10-28 10:32:19.156250
759,-54.01,2022-10-28 10:32:19.171875
760,-47.43,2022-10-28 10:32:19.187500
761,-39.17,2022-10-28 10:32:19.203125
762,-30.42,2022-10-28 10:32:19.218750
763,-22.38,2022-10-28 10:32:19.234375
764,-15.99,2022-10-28 10:32:19.250000
765,-11.81,2022-10-28 10:32:19.265625
766,-9.95,2022-10-28 10:32:19.281250
767,-10.01,2022-10-28 10:32:19.296875
768,-11.34,2022-10-28 10:32:19.312500
769,-13.23,2022-10-28 10:32:19.328125
770,-15.22,2022-10-28 10:32:19.343750
771,-17.21,2022-10-28 10:32:19.359375
772,-19.4,2022-10-28 10:32:19.375000
773,-22.06,2022-10-28 10:32:19.390625
774,-25.23,2022-10-28 10:32:19.406250
775,-28.57,2022-10-28 10:32:19.421875
776,-31.48,2022-10-28 10:32:19.437500
777,-33.47,2022-10-28 10:32:19.453125
778,-34.43,2022-10-28 10:32:19.468750
779,-34.76,2022-10-28 10:32:19.484375
780,-35.14,2022-10-28 10:32:19.500000
781,-36.26,2022-10-28 10:32:19.515625
782,-38.43,2022-10-28 10:32:19.531250
783,-41.6,2022-10-28 10:32:19.546875
784,-45.51,2022-10-28 10:32:19.562500
785,-49.89,2022-10-28 10:32:19.578125
786,-54.62,2022-10-28 10:32:19.593750
787,-59.65,2022-10-28 10:32:19.609375
788,-64.88,2022-10-28 10:32:19.625000
789,-70.01,2022-10-28 10:32:19.640625
790,-74.57,2022-10-28 10:32:19.656250
791,-78.07,2022-10-28 10:32:19.671875
792,-80.23,2022-10-28 10:32:19.687500
793,-81.09,2022-10-28 10:32:19.703125
794,-80.99,2022-10-28 10:32:19.718750
795,-80.48,2022-10-28 10:32:19.734375
796,-80.02,2022-10-28 10:32:19.750000
797,-79.89,2022-10-28 10:32:19.765625
798,-80.07,2022-10-28 10:32:19.781250
799,-80.35,2022-10-28 10:32:19.796875
800,-80.52,2022-10-28 10:32:19.812500
801,-80.5,2022-10-28 10:32:19.828125
802,-80.39,2022-10-28 10:32:19.843750
803,-80.48,2022-10-28 10:32:19.859375
804,-81.06,2022-10-28 10:32:19.875000
805,-82.35,2022-10-28 10:32:19.890625
806,-84.3,2022-10-28 10:32:19.906250
807,-86.54,2022-10-28 10:32:19.921875
808,-88.47,2022-10-28 10:32:19.937500
809,-89.3,2022-10-28 10:32:19.953125
810,-88.17,2022-10-28 10:32:19.968750
811,-84.47,2022-10-28 10:32:19.984375
812,-77.96,2022-10-28 10:32:20.000000
813,-69.03,2022-10-28 10:32:20.015625
814,-58.54,2022-10-28 10:32:20.031250
815,-47.63,2022-10-28 10:32:20.046875
816,-37.33,2022-10-28 10:32:20.062500
817,-28.28,2022-10-28 10:32:20.078125
818,-20.65,2022-10-28 10:32:20.093750
819,-14.2,2022-10-28 10:32:20.109375
820,-8.6,2022-10-28 10:32:20.125000
821,-3.58,2022-10-28 10:32:20.140625
822,0.85,2022-10-28 10:32:20.156250
823,4.54,2022-10-28 10:32:20.171875
824,7.2,2022-10-28 10:32:20.187500
825,8.66,2022-10-28 10:32:20.203125
826,8.96,2022-10-28 10:32:20.218750
827,8.39,2022-10-28 10:32:20.234375
828,7.51,2022-10-28 10:32:20.250000
829,6.92,2022-10-28 10:32:20.265625
830,7.17,2022-10-28 10:32:20.281250
831,8.52,2022-10-28 10:32:20.296875
832,10.98,2022-10-28 10:32:20.312500
833,14.31,2022-10-28 10:32:20.328125
834,18.16,2022-10-28 10:32:20.343750
835,22.19,2022-10-28 10:32:20.359375
836,26.12,2022-10-28 10:32:20.375000
837,29.66,2022-10-28 10:32:20.390625
838,32.56,2022-10-28 10:32:20.406250
839,34.58,2022-10-28 10:32:20.421875
840,35.62,2022-10-28 10:32:20.437500
841,35.72,2022-10-28 10:32:20.453125
842,35.09,2022-10-28 10:32:20.468750
843,33.97,2022-10-28 10:32:20.484375
844,32.59,2022-10-28 10:32:20.500000
845,31.01,2022-10-28 10:32:20.515625
846,29.2,2022-10-28 10:32:20.531250
847,27.06,2022-10-28 10:32:20.546875
848,24.52,2022-10-28 10:32:20.562500
849,21.5,2022-10-28 10:32:20.578125
850,17.96,2022-10-28 10:32:20.593750
851,13.91,2022-10-28 10:32:20.609375
852,9.44,2022-10-28 10:32:20.625000
853,4.84,2022-10-28 10:32:20.640625
854,0.52,2022-10-28 10:32:20.656250
855,-3.07,2022-10-28 10:32:20.671875
856,-5.69,2022-10-28 10:32:20.687500
857,-7.39,2022-10-28 10:32:20.703125
858,-8.55,2022-10-28 10:32:20.718750
859,-9.76,2022-10-28 10:32:20.734375
860,-11.56,2022-10-28 10:32:20.750000
861,-14.35,2022-10-28 10:32:20.765625
862,-18.14,2022-10-28 10:32:20.781250
863,-22.67,2022-10-28 10:32:20.796875
864,-27.28,2022-10-28 10:32:20.812500
865,-31.1,2022-10-28 10:32:20.828125
866,-33.18,2022-10-28 10:32:20.843750
867,-32.68,2022-10-28 10:32:20.859375
868,-29.18,2022-10-28 10:32:20.875000
869,-22.82,2022-10-28 10:32:20.890625
870,-14.33,2022-10-28 10:32:20.906250
871,-4.7,2022-10-28 10:32:20.921875
872,5.04,2022-10-28 10:32:20.937500
873,14.18,2022-10-28 10:32:20.953125
874,22.39,2022-10-28 10:32:20.968750
875,29.59,2022-10-28 10:32:20.984375
876,35.84,2022-10-28 10:32:21.000000
877,41.12,2022-10-28 10:32:21.015625
878,45.31,2022-10-28 10:32:21.031250
879,48.24,2022-10-28 10:32:21.046875
880,49.7,2022-10-28 10:32:21.062500
881,49.57,2022-10-28 10:32:21.078125
882,47.84,2022-10-28 10:32:21.093750
883,44.67,2022-10-28 10:32:21.109375
884,40.44,2022-10-28 10:32:21.125000
885,35.7,2022-10-28 10:32:21.140625
886,31.06,2022-10-28 10:32:21.156250
887,27.05,2022-10-28 10:32:21.171875
888,23.99,2022-10-28 10:32:21.187500
889,21.88,2022-10-28 10:32:21.203125
890,20.5,2022-10-28 10:32:21.218750
891,19.47,2022-10-28 10:32:21.234375
892,18.47,2022-10-28 10:32:21.250000
893,17.32,2022-10-28 10:32:21.265625
894,16.0,2022-10-28 10:32:21.281250
895,14.59,2022-10-28 10:32:21.296875
896,13.2,2022-10-28 10:32:21.312500
897,11.83,2022-10-28 10:32:21.328125
898,10.39,2022-10-28 10:32:21.343750
899,8.67,2022-10-28 10:32:21.359375
900,6.58,2022-10-28 10:32:21.375000
901,4.15,2022-10-28 10:32:21.390625
902,1.59,2022-10-28 10:32:21.406250
903,-0.8,2022-10-28 10:32:21.421875
904,-2.78,2022-10-28 10:32:21.437500
905,-4.32,2022-10-28 10:32:21.453125
906,-5.57,2022-10-28 10:32:21.468750
907,-6.77,2022-10-28 10:32:21.484375
908,-8.14,2022-10-28 10:32:21.500000
909,-9.8,2022-10-28 10:32:21.515625
910,-11.77,2022-10-28 10:32:21.531250
911,-14.0,2022-10-28 10:32:21.546875
912,-16.41,2022-10-28 10:32:21.562500
913,-18.98,2022-10-28 10:32:21.578125
914,-21.64,2022-10-28 10:32:21.593750
915,-24.29,2022-10-28 10:32:21.609375
916,-26.8,2022-10-28 10:32:21.625000
917,-29.13,2022-10-28 10:32:21.640625
918,-31.34,2022-10-28 10:32:21.656250
919,-33.71,2022-10-28 10:32:21.671875
920,-36.64,2022-10-28 10:32:21.687500
921,-40.47,2022-10-28 10:32:21.703125
922,-45.26,2022-10-28 10:32:21.718750
923,-50.59,2022-10-28 10:32:21.734375
924,-55.59,2022-10-28 10:32:21.750000
925,-59.1,2022-10-28 10:32:21.765625
926,-59.98,2022-10-28 10:32:21.781250
927,-57.57,2022-10-28 10:32:21.796875
928,-51.86,2022-10-28 10:32:21.812500
929,-43.52,2022-10-28 10:32:21.828125
930,-33.75,2022-10-28 10:32:21.843750
931,-23.84,2022-10-28 10:32:21.859375
932,-14.93,2022-10-28 10:32:21.875000
933,-7.69,2022-10-28 10:32:21.890625
934,-2.34,2022-10-28 10:32:21.906250
935,1.34,2022-10-28 10:32:21.921875
936,3.81,2022-10-28 10:32:21.937500
937,5.62,2022-10-28 10:32:21.953125
938,7.26,2022-10-28 10:32:21.968750
939,9.08,2022-10-28 10:32:21.984375
940,11.23,2022-10-28 10:32:22.000000
941,13.68,2022-10-28 10:32:22.015625
942,16.28,2022-10-28 10:32:22.031250
943,18.76,2022-10-28 10:32:22.046875
944,20.88,2022-10-28 10:32:22.062500
945,22.55,2022-10-28 10:32:22.078125
946,23.79,2022-10-28 10:32:22.093750
947,24.83,2022-10-28 10:32:22.109375
948,25.98,2022-10-28 10:32:22.125000
949,27.5,2022-10-28 10:32:22.140625
950,29.46,2022-10-28 10:32:22.156250
951,31.79,2022-10-28 10:32:22.171875
952,34.21,2022-10-28 10:32:22.187500
953,36.31,2022-10-28 10:32:22.203125
954,37.68,2022-10-28 10:32:22.218750
955,37.93,2022-10-28 10:32:22.234375
956,36.74,2022-10-28 10:32:22.250000
957,34.01,2022-10-28 10:32:22.265625
958,29.88,2022-10-28 10:32:22.281250
959,24.77,2022-10-28 10:32:22.296875
960,19.3,2022-10-28 10:32:22.312500
961,14.12,2022-10-28 10:32:22.328125
962,9.7,2022-10-28 10:32:22.343750
963,6.14,2022-10-28 10:32:22.359375
964,3.17,2022-10-28 10:32:22.375000
965,0.27,2022-10-28 10:32:22.390625
966,-3.07,2022-10-28 10:32:22.406250
967,-7.18,2022-10-28 10:32:22.421875
968,-12.02,2022-10-28 10:32:22.437500
969,-17.28,2022-10-28 10:32:22.453125
970,-22.4,2022-10-28 10:32:22.468750
971,-26.87,2022-10-28 10:32:22.484375
972,-30.34,2022-10-28 10:32:22.500000
973,-32.82,2022-10-28 10:32:22.515625
974,-34.64,2022-10-28 10:32:22.531250
975,-36.34,2022-10-28 10:32:22.546875
976,-38.47,2022-10-28 10:32:22.562500
977,-41.33,2022-10-28 10:32:22.578125
978,-44.8,2022-10-28 10:32:22.593750
979,-48.31,2022-10-28 10:32:22.609375
980,-50.93,2022-10-28 10:32:22.625000
981,-51.65,2022-10-28 10:32:22.640625
982,-49.71,2022-10-28 10:32:22.656250
983,-44.86,2022-10-28 10:32:22.671875
984,-37.46,2022-10-28 10:32:22.687500
985,-28.35,2022-10-28 10:32:22.703125
986,-18.64,2022-10-28 10:32:22.718750
987,-9.31,2022-10-28 10:32:22.734375
988,-0.97,2022-10-28 10:32:22.750000
989,6.18,2022-10-28 10:32:22.765625
990,12.34,2022-10-28 10:32:22.781250
991,17.8,2022-10-28 10:32:22.796875
992,22.75,2022-10-28 10:32:22.812500
993,27.16,2022-10-28 10:32:22.828125
994,30.79,2022-10-28 10:32:22.843750
995,33.33,2022-10-28 10:32:22.859375
996,34.61,2022-10-28 10:32:22.875000
997,34.6,2022-10-28 10:32:22.890625
998,33.49,2022-10-28 10:32:22.906250
999,31.64,2022-10-28 10:32:22.921875
1000,29.44,2022-10-28 10:32:22.937500
1001,27.31,2022-10-28 10:32:22.953125
1002,25.63,2022-10-28 10:32:22.968750
1003,24.71,2022-10-28 10:32:22.984375
1004,24.74,2022-10-28 10:32:23.000000
1005,25.78,2022-10-28 10:32:23.015625
1006,27.63,2022-10-28 10:32:23.031250
1007,29.99,2022-10-28 10:32:23.046875
1008,32.4,2022-10-28 10:32:23.062500
1009,34.43,2022-10-28 10:32:23.078125
1010,35.77,2022-10-28 10:32:23.093750
1011,36.31,2022-10-28 10:32:23.109375
1012,36.14,2022-10-28 10:32:23.125000
1013,35.44,2022-10-28 10:32:23.140625
1014,34.45,2022-10-28 10:32:23.156250
1015,33.3,2022-10-28 10:32:23.171875
1016,32.07,2022-10-28 10:32:23.187500
1017,30.72,2022-10-28 10:32:23.203125
1018,29.14,2022-10-28 10:32:23.218750
1019,27.22,2022-10-28 10:32:23.234375
1020,24.81,2022-10-28 10:32:23.250000
1021,21.83,2022-10-28 10:32:23.265625
1022,18.29,2022-10-28 10:32:23.281250
1023,14.35,2022-10-28 10:32:23.296875
1024,10.29,2022-10-28 10:32:23.312500
1025,6.48,2022-10-28 10:32:23.328125
1026,3.22,2022-10-28 10:32:23.343750
1027,0.61,2022-10-28 10:32:23.359375
1028,-1.46,2022-10-28 10:32:23.375000
1029,-3.32,2022-10-28 10:32:23.390625
1030,-5.4,2022-10-28 10:32:23.406250
1031,-8.11,2022-10-28 10:32:23.421875
1032,-11.76,2022-10-28 10:32:23.437500
1033,-16.51,2022-10-28 10:32:23.453125
1034,-22.31,2022-10-28 10:32:23.468750
1035,-28.86,2022-10-28 10:32:23.484375
1036,-35.55,2022-10-28 10:32:23.500000
1037,-41.56,2022-10-28 10:32:23.515625
1038,-45.96,2022-10-28 10:32:23.531250
1039,-47.89,2022-10-28 10:32:23.546875
1040,-46.88,2022-10-28 10:32:23.562500
1041,-42.98,2022-10-28 10:32:23.578125
1042,-36.76,2022-10-28 10:32:23.593750
1043,-29.14,2022-10-28 10:32:23.609375
1044,-21.09,2022-10-28 10:32:23.625000
1045,-13.38,2022-10-28 10:32:23.640625
1046,-6.44,2022-10-28 10:32:23.656250
1047,-0.43,2022-10-28 10:32:23.671875
1048,4.68,2022-10-28 10:32:23.687500
1049,8.93,2022-10-28 10:32:23.703125
1050,12.38,2022-10-28 10:32:23.718750
1051,15.03,2022-10-28 10:32:23.734375
1052,16.9,2022-10-28 10:32:23.750000
1053,18.0,2022-10-28 10:32:23.765625
1054,18.33,2022-10-28 10:32:23.781250
1055,17.92,2022-10-28 10:32:23.796875
1056,16.84,2022-10-28 10:32:23.812500
1057,15.29,2022-10-28 10:32:23.828125
1058,13.58,2022-10-28 10:32:23.843750
1059,12.17,2022-10-28 10:32:23.859375
1060,11.39,2022-10-28 10:32:23.875000
1061,11.45,2022-10-28 10:32:23.890625
1062,12.29,2022-10-28 10:32:23.906250
1063,13.63,2022-10-28 10:32:23.921875
1064,15.12,2022-10-28 10:32:23.937500
1065,16.41,2022-10-28 10:32:23.953125
1066,17.31,2022-10-28 10:32:23.968750
1067,17.72,2022-10-28 10:32:23.984375
1068,17.72,2022-10-28 10:32:24.000000
1069,17.36,2022-10-28 10:32:24.015625
1070,16.77,2022-10-28 10:32:24.031250
1071,16.03,2022-10-28 10:32:24.046875
1072,15.19,2022-10-28 10:32:24.062500
1073,14.27,2022-10-28 10:32:24.078125
1074,13.23,2022-10-28 10:32:24.093750
1075,11.99,2022-10-28 10:32:24.109375
1076,10.41,2022-10-28 10:32:24.125000
1077,8.34,2022-10-28 10:32:24.140625
1078,5.67,2022-10-28 10:32:24.156250
1079,2.42,2022-10-28 10:32:24.171875
1080,-1.12,2022-10-28 10:32:24.187500
1081,-4.56,2022-10-28 10:32:24.203125
1082,-7.52,2022-10-28 10:32:24.218750
1083,-9.84,2022-10-28 10:32:24.234375
1084,-11.69,2022-10-28 10:32:24.250000
1085,-13.57,2022-10-28 10:32:24.265625
1086,-15.98,2022-10-28 10:32:24.281250
1087,-19.23,2022-10-28 10:32:24.296875
1088,-23.24,2022-10-28 10:32:24.312500
1089,-27.57,2022-10-28 10:32:24.328125
1090,-31.56,2022-10-28 10:32:24.343750
1091,-34.56,2022-10-28 10:32:24.359375
1092,-36.03,2022-10-28 10:32:24.375000
1093,-35.58,2022-10-28 10:32:24.390625
1094,-33.01,2022-10-28 10:32:24.406250
1095,-28.33,2022-10-28 10:32:24.421875
1096,-21.85,2022-10-28 10:32:24.437500
1097,-14.23,2022-10-28 10:32:24.453125
1098,-6.3,2022-10-28 10:32:24.468750
1099,1.08,2022-10-28 10:32:24.484375
1100,7.37,2022-10-28 10:32:24.500000
1101,12.36,2022-10-28 10:32:24.515625
1102,16.19,2022-10-28 10:32:24.531250
1103,19.11,2022-10-28 10:32:24.546875
1104,21.25,2022-10-28 10:32:24.562500
1105,22.58,2022-10-28 10:32:24.578125
1106,22.91,2022-10-28 10:32:24.593750
1107,22.1,2022-10-28 10:32:24.609375
1108,20.17,2022-10-28 10:32:24.625000
1109,17.4,2022-10-28 10:32:24.640625
1110,14.26,2022-10-28 10:32:24.656250
1111,11.32,2022-10-28 10:32:24.671875
1112,9.1,2022-10-28 10:32:24.687500
1113,7.96,2022-10-28 10:32:24.703125
1114,8.07,2022-10-28 10:32:24.718750
1115,9.37,2022-10-28 10:32:24.734375
1116,11.58,2022-10-28 10:32:24.750000
1117,14.25,2022-10-28 10:32:24.765625
1118,16.85,2022-10-28 10:32:24.781250
1119,18.82,2022-10-28 10:32:24.796875
1120,19.73,2022-10-28 10:32:24.812500
1121,19.38,2022-10-28 10:32:24.828125
1122,17.83,2022-10-28 10:32:24.843750
1123,15.35,2022-10-28 10:32:24.859375
1124,12.37,2022-10-28 10:32:24.875000
1125,9.35,2022-10-28 10:32:24.890625
1126,6.62,2022-10-28 10:32:24.906250
1127,4.34,2022-10-28 10:32:24.921875
1128,2.45,2022-10-28 10:32:24.937500
1129,0.75,2022-10-28 10:32:24.953125
1130,-1.03,2022-10-28 10:32:24.968750
1131,-3.17,2022-10-28 10:32:24.984375
1132,-5.8,2022-10-28 10:32:25.000000
1133,-8.86,2022-10-28 10:32:25.015625
1134,-12.13,2022-10-28 10:32:25.031250
1135,-15.32,2022-10-28 10:32:25.046875
1136,-18.23,2022-10-28 10:32:25.062500
1137,-20.86,2022-10-28 10:32:25.078125
1138,-23.43,2022-10-28 10:32:25.093750
1139,-26.17,2022-10-28 10:32:25.109375
1140,-29.11,2022-10-28 10:32:25.125000
1141,-31.91,2022-10-28 10:32:25.140625
1142,-33.91,2022-10-28 10:32:25.156250
1143,-34.34,2022-10-28 10:32:25.171875
1144,-32.67,2022-10-28 10:32:25.187500
1145,-28.78,2022-10-28 10:32:25.203125
1146,-23.04,2022-10-28 10:32:25.218750
1147,-16.13,2022-10-28 10:32:25.234375
1148,-8.85,2022-10-28 10:32:25.250000
1149,-1.91,2022-10-28 10:32:25.265625
1150,4.29,2022-10-28 10:32:25.281250
1151,9.6,2022-10-28 10:32:25.296875
1152,14.09,2022-10-28 10:32:25.312500
1153,17.91,2022-10-28 10:32:25.328125
1154,21.19,2022-10-28 10:32:25.343750
1155,23.91,2022-10-28 10:32:25.359375
1156,25.91,2022-10-28 10:32:25.375000
1157,26.96,2022-10-28 10:32:25.390625
1158,26.92,2022-10-28 10:32:25.406250
1159,25.84,2022-10-28 10:32:25.421875
1160,24.02,2022-10-28 10:32:25.437500
1161,21.98,2022-10-28 10:32:25.453125
1162,20.25,2022-10-28 10:32:25.468750
1163,19.24,2022-10-28 10:32:25.484375
1164,19.13,2022-10-28 10:32:25.500000
1165,19.81,2022-10-28 10:32:25.515625
1166,20.98,2022-10-28 10:32:25.531250
1167,22.31,2022-10-28 10:32:25.546875
1168,23.46,2022-10-28 10:32:25.562500
1169,24.25,2022-10-28 10:32:25.578125
1170,24.55,2022-10-28 10:32:25.593750
1171,24.29,2022-10-28 10:32:25.609375
1172,23.45,2022-10-28 10:32:25.625000
1173,22.1,2022-10-28 10:32:25.640625
1174,20.42,2022-10-28 10:32:25.656250
1175,18.7,2022-10-28 10:32:25.671875
1176,17.22,2022-10-28 10:32:25.687500
1177,16.11,2022-10-28 10:32:25.703125
1178,15.23,2022-10-28 10:32:25.718750
1179,14.25,2022-10-28 10:32:25.734375
1180,12.8,2022-10-28 10:32:25.750000
1181,10.65,2022-10-28 10:32:25.765625
1182,7.82,2022-10-28 10:32:25.781250
1183,4.53,2022-10-28 10:32:25.796875
1184,1.08,2022-10-28 10:32:25.812500
1185,-2.36,2022-10-28 10:32:25.828125
1186,-5.69,2022-10-28 10:32:25.843750
1187,-8.91,2022-10-28 10:32:25.859375
1188,-11.97,2022-10-28 10:32:25.875000
1189,-14.81,2022-10-28 10:32:25.890625
1190,-17.37,2022-10-28 10:32:25.906250
1191,-19.71,2022-10-28 10:32:25.921875
1192,-22.07,2022-10-28 10:32:25.937500
1193,-24.79,2022-10-28 10:32:25.953125
1194,-28.13,2022-10-28 10:32:25.968750
1195,-32.17,2022-10-28 10:32:25.984375
1196,-36.6,2022-10-28 10:32:26.000000
1197,-40.84,2022-10-28 10:32:26.015625
1198,-44.04,2022-10-28 10:32:26.031250
1199,-45.41,2022-10-28 10:32:26.046875
1200,-44.41,2022-10-28 10:32:26.062500
1201,-40.93,2022-10-28 10:32:26.078125
1202,-35.4,2022-10-28 10:32:26.093750
1203,-28.62,2022-10-28 10:32:26.109375
1204,-21.55,2022-10-28 10:32:26.125000
1205,-14.98,2022-10-28 10:32:26.140625
1206,-9.35,2022-10-28 10:32:26.156250
1207,-4.67,2022-10-28 10:32:26.171875
1208,-0.7,2022-10-28 10:32:26.187500
1209,2.86,2022-10-28 10:32:26.203125
1210,6.12,2022-10-28 10:32:26.218750
1211,9.06,2022-10-28 10:32:26.234375
1212,11.55,2022-10-28 10:32:26.250000
1213,13.52,2022-10-28 10:32:26.265625
1214,15.03,2022-10-28 10:32:26.281250
1215,16.29,2022-10-28 10:32:26.296875
1216,17.48,2022-10-28 10:32:26.312500
1217,18.65,2022-10-28 10:32:26.328125
1218,19.67,2022-10-28 10:32:26.343750
1219,20.34,2022-10-28 10:32:26.359375
1220,20.55,2022-10-28 10:32:26.375000
1221,20.35,2022-10-28 10:32:26.390625
1222,20.07,2022-10-28 10:32:26.406250
1223,20.05,2022-10-28 10:32:26.421875
1224,20.53,2022-10-28 10:32:26.437500
1225,21.51,2022-10-28 10:32:26.453125
1226,22.72,2022-10-28 10:32:26.468750
1227,23.75,2022-10-28 10:32:26.484375
1228,24.25,2022-10-28 10:32:26.500000
1229,24.0,2022-10-28 10:32:26.515625
1230,22.99,2022-10-28 10:32:26.531250
1231,21.28,2022-10-28 10:32:26.546875
1232,18.93,2022-10-28 10:32:26.562500
1233,15.93,2022-10-28 10:32:26.578125
1234,12.21,2022-10-28 10:32:26.593750
1235,7.76,2022-10-28 10:32:26.609375
1236,2.73,2022-10-28 10:32:26.625000
1237,-2.62,2022-10-28 10:32:26.640625
1238,-7.92,2022-10-28 10:32:26.656250
1239,-12.87,2022-10-28 10:32:26.671875
1240,-17.28,2022-10-28 10:32:26.687500
1241,-21.11,2022-10-28 10:32:26.703125
1242,-24.43,2022-10-28 10:32:26.718750
1243,-27.3,2022-10-28 10:32:26.734375
1244,-29.74,2022-10-28 10:32:26.750000
1245,-31.71,2022-10-28 10:32:26.765625
1246,-33.19,2022-10-28 10:32:26.781250
1247,-34.28,2022-10-28 10:32:26.796875
1248,-35.19,2022-10-28 10:32:26.812500
1249,-36.12,2022-10-28 10:32:26.828125
1250,-37.14,2022-10-28 10:32:26.843750
1251,-38.07,2022-10-28 10:32:26.859375
1252,-38.41,2022-10-28 10:32:26.875000
1253,-37.58,2022-10-28 10:32:26.890625
1254,-35.12,2022-10-28 10:32:26.906250
1255,-31.0,2022-10-28 10:32:26.921875
1256,-25.62,2022-10-28 10:32:26.937500
1257,-19.71,2022-10-28 10:32:26.953125
1258,-14.04,2022-10-28 10:32:26.968750
1259,-9.13,2022-10-28 10:32:26.984375
1260,-5.11,2022-10-28 10:32:27.000000
1261,-1.78,2022-10-28 10:32:27.015625
1262,1.21,2022-10-28 10:32:27.031250
1263,4.13,2022-10-28 10:32:27.046875
1264,7.02,2022-10-28 10:32:27.062500
1265,9.67,2022-10-28 10:32:27.078125
1266,11.8,2022-10-28 10:32:27.093750
1267,13.22,2022-10-28 10:32:27.109375
1268,13.97,2022-10-28 10:32:27.125000
1269,14.34,2022-10-28 10:32:27.140625
1270,14.73,2022-10-28 10:32:27.156250
1271,15.4,2022-10-28 10:32:27.171875
1272,16.41,2022-10-28 10:32:27.187500
1273,17.59,2022-10-28 10:32:27.203125
1274,18.67,2022-10-28 10:32:27.218750
1275,19.52,2022-10-28 10:32:27.234375
1276,20.22,2022-10-28 10:32:27.250000
1277,20.97,2022-10-28 10:32:27.265625
1278,21.94,2022-10-28 10:32:27.281250
1279,23.12,2022-10-28 10:32:27.296875
1280,24.23,2022-10-28 10:32:27.312500
1281,24.96,2022-10-28 10:32:27.328125
1282,25.06,2022-10-28 10:32:27.343750
1283,24.51,2022-10-28 10:32:27.359375
1284,23.54,2022-10-28 10:32:27.375000
1285,22.41,2022-10-28 10:32:27.390625
1286,21.36,2022-10-28 10:32:27.406250
1287,20.51,2022-10-28 10:32:27.421875
1288,19.86,2022-10-28 10:32:27.437500
1289,19.33,2022-10-28 10:32:27.453125
1290,18.84,2022-10-28 10:32:27.468750
1291,18.21,2022-10-28 10:32:27.484375
1292,17.26,2022-10-28 10:32:27.500000
1293,15.77,2022-10-28 10:32:27.515625
1294,13.61,2022-10-28 10:32:27.531250
1295,10.86,2022-10-28 10:32:27.546875
1296,7.78,2022-10-28 10:32:27.562500
1297,4.7,2022-10-28 10:32:27.578125
1298,1.86,2022-10-28 10:32:27.593750
1299,-0.72,2022-10-28 10:32:27.609375
1300,-3.24,2022-10-28 10:32:27.625000
1301,-5.99,2022-10-28 10:32:27.640625
1302,-9.13,2022-10-28 10:32:27.656250
1303,-12.55,2022-10-28 10:32:27.671875
1304,-15.89,2022-10-28 10:32:27.687500
1305,-18.79,2022-10-28 10:32:27.703125
1306,-21.09,2022-10-28 10:32:27.718750
1307,-22.98,2022-10-28 10:32:27.734375
1308,-24.96,2022-10-28 10:32:27.750000
1309,-27.55,2022-10-28 10:32:27.765625
1310,-31.04,2022-10-28 10:32:27.781250
1311,-35.32,2022-10-28 10:32:27.796875
1312,-39.9,2022-10-28 10:32:27.812500
1313,-44.05,2022-10-28 10:32:27.828125
1314,-46.99,2022-10-28 10:32:27.843750
1315,-48.14,2022-10-28 10:32:27.859375
1316,-47.06,2022-10-28 10:32:27.875000
1317,-43.65,2022-10-28 10:32:27.890625
1318,-38.07,2022-10-28 10:32:27.906250
1319,-30.77,2022-10-28 10:32:27.921875
1320,-22.43,2022-10-28 10:32:27.937500
1321,-13.83,2022-10-28 10:32:27.953125
1322,-5.66,2022-10-28 10:32:27.968750
1323,1.58,2022-10-28 10:32:27.984375
1324,7.62,2022-10-28 10:32:28.000000
1325,12.44,2022-10-28 10:32:28.015625
1326,16.12,2022-10-28 10:32:28.031250
1327,18.8,2022-10-28 10:32:28.046875
1328,20.68,2022-10-28 10:32:28.062500
1329,21.94,2022-10-28 10:32:28.078125
1330,22.79,2022-10-28 10:32:28.093750
1331,23.37,2022-10-28 10:32:28.109375
1332,23.85,2022-10-28 10:32:28.125000
1333,24.33,2022-10-28 10:32:28.140625
1334,24.93,2022-10-28 10:32:28.156250
1335,25.75,2022-10-28 10:32:28.171875
1336,26.88,2022-10-28 10:32:28.187500
1337,28.29,2022-10-28 10:32:28.203125
1338,29.86,2022-10-28 10:32:28.218750
1339,31.45,2022-10-28 10:32:28.234375
1340,32.88,2022-10-28 10:32:28.250000
1341,34.04,2022-10-28 10:32:28.265625
1342,34.9,2022-10-28 10:32:28.281250
1343,35.41,2022-10-28 10:32:28.296875
1344,35.47,2022-10-28 10:32:28.312500
1345,34.96,2022-10-28 10:32:28.328125
1346,33.78,2022-10-28 10:32:28.343750
1347,31.95,2022-10-28 10:32:28.359375
1348,29.67,2022-10-28 10:32:28.375000
1349,27.23,2022-10-28 10:32:28.390625
1350,24.95,2022-10-28 10:32:28.406250
1351,23.04,2022-10-28 10:32:28.421875
1352,21.64,2022-10-28 10:32:28.437500
1353,20.71,2022-10-28 10:32:28.453125
1354,20.09,2022-10-28 10:32:28.468750
1355,19.52,2022-10-28 10:32:28.484375
1356,18.72,2022-10-28 10:32:28.500000
1357,17.42,2022-10-28 10:32:28.515625
1358,15.47,2022-10-28 10:32:28.531250
1359,12.89,2022-10-28 10:32:28.546875
1360,9.85,2022-10-28 10:32:28.562500
1361,6.69,2022-10-28 10:32:28.578125
1362,3.7,2022-10-28 10:32:28.593750
1363,1.09,2022-10-28 10:32:28.609375
1364,-1.07,2022-10-28 10:32:28.625000
1365,-2.9,2022-10-28 10:32:28.640625
1366,-4.57,2022-10-28 10:32:28.656250
1367,-6.29,2022-10-28 10:32:28.671875
1368,-8.18,2022-10-28 10:32:28.687500
1369,-10.3,2022-10-28 10:32:28.703125
1370,-12.63,2022-10-28 10:32:28.718750
1371,-15.11,2022-10-28 10:32:28.734375
1372,-17.74,2022-10-28 10:32:28.750000
1373,-20.63,2022-10-28 10:32:28.765625
1374,-23.95,2022-10-28 10:32:28.781250
1375,-27.86,2022-10-28 10:32:28.796875
1376,-32.37,2022-10-28 10:32:28.812500
1377,-37.19,2022-10-28 10:32:28.828125
1378,-41.78,2022-10-28 10:32:28.843750
1379,-45.4,2022-10-28 10:32:28.859375
1380,-47.35,2022-10-28 10:32:28.875000
1381,-47.2,2022-10-28 10:32:28.890625
1382,-44.86,2022-10-28 10:32:28.906250
1383,-40.61,2022-10-28 10:32:28.921875
1384,-34.92,2022-10-28 10:32:28.937500
1385,-28.36,2022-10-28 10:32:28.953125
1386,-21.46,2022-10-28 10:32:28.968750
1387,-14.67,2022-10-28 10:32:28.984375
1388,-8.32,2022-10-28 10:32:29.000000
1389,-2.59,2022-10-28 10:32:29.015625
1390,2.48,2022-10-28 10:32:29.031250
1391,6.92,2022-10-28 10:32:29.046875
1392,10.85,2022-10-28 10:32:29.062500
1393,14.3,2022-10-28 10:32:29.078125
1394,17.2,2022-10-28 10:32:29.093750
1395,19.45,2022-10-28 10:32:29.109375
1396,20.98,2022-10-28 10:32:29.125000
1397,21.89,2022-10-28 10:32:29.140625
1398,22.43,2022-10-28 10:32:29.156250
1399,22.93,2022-10-28 10:32:29.171875
1400,23.68,2022-10-28 10:32:29.187500
1401,24.79,2022-10-28 10:32:29.203125
1402,26.2,2022-10-28 10:32:29.218750
1403,27.74,2022-10-28 10:32:29.234375
1404,29.27,2022-10-28 10:32:29.250000
1405,30.68,2022-10-28 10:32:29.265625
1406,31.92,2022-10-28 10:32:29.281250
1407,32.87,2022-10-28 10:32:29.296875
1408,33.42,2022-10-28 10:32:29.312500
1409,33.42,2022-10-28 10:32:29.328125
1410,32.81,2022-10-28 10:32:29.343750
1411,31.59,2022-10-28 10:32:29.359375
1412,29.93,2022-10-28 10:32:29.375000
1413,28.04,2022-10-28 10:32:29.390625
1414,26.18,2022-10-28 10:32:29.406250
1415,24.59,2022-10-28 10:32:29.421875
1416,23.4,2022-10-28 10:32:29.437500
1417,22.57,2022-10-28 10:32:29.453125
1418,21.93,2022-10-28 10:32:29.468750
1419,21.18,2022-10-28 10:32:29.484375
1420,20.07,2022-10-28 10:32:29.500000
1421,18.48,2022-10-28 10:32:29.515625
1422,16.52,2022-10-28 10:32:29.531250
1423,14.45,2022-10-28 10:32:29.546875
1424,12.55,2022-10-28 10:32:29.562500
1425,10.93,2022-10-28 10:32:29.578125
1426,9.53,2022-10-28 10:32:29.593750
1427,8.15,2022-10-28 10:32:29.609375
1428,6.6,2022-10-28 10:32:29.625000
1429,4.86,2022-10-28 10:32:29.640625
1430,3.02,2022-10-28 10:32:29.656250
1431,1.19,2022-10-28 10:32:29.671875
1432,-0.61,2022-10-28 10:32:29.687500
1433,-2.58,2022-10-28 10:32:29.703125
1434,-4.97,2022-10-28 10:32:29.718750
1435,-7.96,2022-10-28 10:32:29.734375
1436,-11.54,2022-10-28 10:32:29.750000
1437,-15.47,2022-10-28 10:32:29.765625
1438,-19.42,2022-10-28 10:32:29.781250
1439,-23.15,2022-10-28 10:32:29.796875
1440,-26.55,2022-10-28 10:32:29.812500
1441,-29.72,2022-10-28 10:32:29.828125
1442,-32.86,2022-10-28 10:32:29.843750
1443,-36.24,2022-10-28 10:32:29.859375
1444,-40.03,2022-10-28 10:32:29.875000
1445,-44.26,2022-10-28 10:32:29.890625
1446,-48.7,2022-10-28 10:32:29.906250
1447,-52.8,2022-10-28 10:32:29.921875
1448,-55.84,2022-10-28 10:32:29.937500
1449,-57.01,2022-10-28 10:32:29.953125
1450,-55.78,2022-10-28 10:32:29.968750
1451,-52.04,2022-10-28 10:32:29.984375
1452,-46.24,2022-10-28 10:32:30.000000
1453,-39.22,2022-10-28 10:32:30.015625
1454,-31.92,2022-10-28 10:32:30.031250
1455,-25.13,2022-10-28 10:32:30.046875
1456,-19.25,2022-10-28 10:32:30.062500
1457,-14.26,2022-10-28 10:32:30.078125
1458,-9.94,2022-10-28 10:32:30.093750
1459,-5.97,2022-10-28 10:32:30.109375
1460,-2.2,2022-10-28 10:32:30.125000
1461,1.26,2022-10-28 10:32:30.140625
1462,4.11,2022-10-28 10:32:30.156250
1463,5.97,2022-10-28 10:32:30.171875
1464,6.58,2022-10-28 10:32:30.187500
1465,5.99,2022-10-28 10:32:30.203125
1466,4.56,2022-10-28 10:32:30.218750
1467,2.83,2022-10-28 10:32:30.234375
1468,1.35,2022-10-28 10:32:30.250000
1469,0.53,2022-10-28 10:32:30.265625
1470,0.54,2022-10-28 10:32:30.281250
1471,1.42,2022-10-28 10:32:30.296875
1472,3.17,2022-10-28 10:32:30.312500
1473,5.78,2022-10-28 10:32:30.328125
1474,9.28,2022-10-28 10:32:30.343750
1475,13.62,2022-10-28 10:32:30.359375
1476,18.64,2022-10-28 10:32:30.375000
1477,24.04,2022-10-28 10:32:30.390625
1478,29.48,2022-10-28 10:32:30.406250
1479,34.64,2022-10-28 10:32:30.421875
1480,39.3,2022-10-28 10:32:30.437500
1481,43.3,2022-10-28 10:32:30.453125
1482,46.51,2022-10-28 10:32:30.468750
1483,48.79,2022-10-28 10:32:30.484375
1484,49.99,2022-10-28 10:32:30.500000
1485,50.01,2022-10-28 10:32:30.515625
1486,48.79,2022-10-28 10:32:30.531250
1487,46.42,2022-10-28 10:32:30.546875
1488,43.09,2022-10-28 10:32:30.562500
1489,39.03,2022-10-28 10:32:30.578125
1490,34.53,2022-10-28 10:32:30.593750
1491,29.85,2022-10-28 10:32:30.609375
1492,25.26,2022-10-28 10:32:30.625000
1493,21.0,2022-10-28 10:32:30.640625
1494,17.27,2022-10-28 10:32:30.656250
1495,14.13,2022-10-28 10:32:30.671875
1496,11.48,2022-10-28 10:32:30.687500
1497,9.09,2022-10-28 10:32:30.703125
1498,6.68,2022-10-28 10:32:30.718750
1499,4.03,2022-10-28 10:32:30.734375
1500,1.09,2022-10-28 10:32:30.750000
1501,-2.05,2022-10-28 10:32:30.765625
1502,-5.22,2022-10-28 10:32:30.781250
1503,-8.31,2022-10-28 10:32:30.796875
1504,-11.34,2022-10-28 10:32:30.812500
1505,-14.41,2022-10-28 10:32:30.828125
1506,-17.64,2022-10-28 10:32:30.843750
1507,-21.09,2022-10-28 10:32:30.859375
1508,-24.74,2022-10-28 10:32:30.875000
1509,-28.54,2022-10-28 10:32:30.890625
1510,-32.38,2022-10-28 10:32:30.906250
1511,-36.17,2022-10-28 10:32:30.921875
1512,-39.68,2022-10-28 10:32:30.937500
1513,-42.55,2022-10-28 10:32:30.953125
1514,-44.22,2022-10-28 10:32:30.968750
1515,-44.1,2022-10-28 10:32:30.984375
1516,-41.68,2022-10-28 10:32:31.000000
1517,-36.73,2022-10-28 10:32:31.015625
1518,-29.41,2022-10-28 10:32:31.031250
1519,-20.32,2022-10-28 10:32:31.046875
1520,-10.36,2022-10-28 10:32:31.062500
1521,-0.53,2022-10-28 10:32:31.078125
1522,8.24,2022-10-28 10:32:31.093750
1523,15.37,2022-10-28 10:32:31.109375
1524,20.61,2022-10-28 10:32:31.125000
1525,24.07,2022-10-28 10:32:31.140625
1526,26.07,2022-10-28 10:32:31.156250
1527,26.97,2022-10-28 10:32:31.171875
1528,27.06,2022-10-28 10:32:31.187500
1529,26.57,2022-10-28 10:32:31.203125
1530,25.71,2022-10-28 10:32:31.218750
1531,24.66,2022-10-28 10:32:31.234375
1532,23.68,2022-10-28 10:32:31.250000
1533,22.97,2022-10-28 10:32:31.265625
1534,22.63,2022-10-28 10:32:31.281250
1535,22.63,2022-10-28 10:32:31.296875
1536,22.79,2022-10-28 10:32:31.312500
1537,22.85,2022-10-28 10:32:31.328125
1538,22.64,2022-10-28 10:32:31.343750
1539,22.09,2022-10-28 10:32:31.359375
1540,21.31,2022-10-28 10:32:31.375000
1541,20.52,2022-10-28 10:32:31.390625
1542,19.9,2022-10-28 10:32:31.406250
1543,19.53,2022-10-28 10:32:31.421875
1544,19.27,2022-10-28 10:32:31.437500
1545,18.91,2022-10-28 10:32:31.453125
1546,18.19,2022-10-28 10:32:31.468750
1547,16.97,2022-10-28 10:32:31.484375
1548,15.33,2022-10-28 10:32:31.500000
1549,13.47,2022-10-28 10:32:31.515625
1550,11.66,2022-10-28 10:32:31.531250
1551,10.04,2022-10-28 10:32:31.546875
1552,8.65,2022-10-28 10:32:31.562500
1553,7.37,2022-10-28 10:32:31.578125
1554,6.11,2022-10-28 10:32:31.593750
1555,4.83,2022-10-28 10:32:31.609375
1556,3.57,2022-10-28 10:32:31.625000
1557,2.45,2022-10-28 10:32:31.640625
1558,1.52,2022-10-28 10:32:31.656250
1559,0.78,2022-10-28 10:32:31.671875
1560,0.08,2022-10-28 10:32:31.687500
1561,-0.71,2022-10-28 10:32:31.703125
1562,-1.72,2022-10-28 10:32:31.718750
1563,-3.03,2022-10-28 10:32:31.734375
1564,-4.61,2022-10-28 10:32:31.750000
1565,-6.41,2022-10-28 10:32:31.765625
1566,-8.35,2022-10-28 10:32:31.781250
1567,-10.34,2022-10-28 10:32:31.796875
1568,-12.26,2022-10-28 10:32:31.812500
1569,-13.95,2022-10-28 10:32:31.828125
1570,-15.26,2022-10-28 10:32:31.843750
1571,-16.12,2022-10-28 10:32:31.859375
1572,-16.59,2022-10-28 10:32:31.875000
1573,-16.91,2022-10-28 10:32:31.890625
1574,-17.52,2022-10-28 10:32:31.906250
1575,-18.84,2022-10-28 10:32:31.921875
1576,-21.21,2022-10-28 10:32:31.937500
1577,-24.67,2022-10-28 10:32:31.953125
1578,-28.8,2022-10-28 10:32:31.968750
1579,-32.86,2022-10-28 10:32:31.984375
1580,-35.87,2022-10-28 10:32:32.000000
1581,-36.91,2022-10-28 10:32:32.015625
1582,-35.43,2022-10-28 10:32:32.031250
1583,-31.47,2022-10-28 10:32:32.046875
1584,-25.58,2022-10-28 10:32:32.062500
1585,-18.71,2022-10-28 10:32:32.078125
1586,-11.88,2022-10-28 10:32:32.093750
1587,-5.84,2022-10-28 10:32:32.109375
1588,-0.93,2022-10-28 10:32:32.125000
1589,2.87,2022-10-28 10:32:32.140625
1590,5.81,2022-10-28 10:32:32.156250
1591,8.14,2022-10-28 10:32:32.171875
1592,9.95,2022-10-28 10:32:32.187500
1593,11.25,2022-10-28 10:32:32.203125
1594,11.89,2022-10-28 10:32:32.218750
1595,11.74,2022-10-28 10:32:32.234375
1596,10.75,2022-10-28 10:32:32.250000
1597,9.0,2022-10-28 10:32:32.265625
1598,6.75,2022-10-28 10:32:32.281250
1599,4.38,2022-10-28 10:32:32.296875
1600,2.31,2022-10-28 10:32:32.312500
1601,0.81,2022-10-28 10:32:32.328125
1602,-0.04,2022-10-28 10:32:32.343750
1603,-0.35,2022-10-28 10:32:32.359375
1604,-0.26,2022-10-28 10:32:32.375000
1605,0.17,2022-10-28 10:32:32.390625
1606,1.11,2022-10-28 10:32:32.406250
1607,2.9,2022-10-28 10:32:32.421875
1608,5.92,2022-10-28 10:32:32.437500
1609,10.43,2022-10-28 10:32:32.453125
1610,16.37,2022-10-28 10:32:32.468750
1611,23.38,2022-10-28 10:32:32.484375
1612,30.8,2022-10-28 10:32:32.500000
1613,37.79,2022-10-28 10:32:32.515625
1614,43.52,2022-10-28 10:32:32.531250
1615,47.3,2022-10-28 10:32:32.546875
1616,48.77,2022-10-28 10:32:32.562500
1617,47.96,2022-10-28 10:32:32.578125
1618,45.31,2022-10-28 10:32:32.593750
1619,41.47,2022-10-28 10:32:32.609375
1620,37.19,2022-10-28 10:32:32.625000
1621,33.08,2022-10-28 10:32:32.640625
1622,29.54,2022-10-28 10:32:32.656250
1623,26.72,2022-10-28 10:32:32.671875
1624,24.63,2022-10-28 10:32:32.687500
1625,23.17,2022-10-28 10:32:32.703125
1626,22.1,2022-10-28 10:32:32.718750
1627,21.04,2022-10-28 10:32:32.734375
1628,19.53,2022-10-28 10:32:32.750000
1629,17.1,2022-10-28 10:32:32.765625
1630,13.46,2022-10-28 10:32:32.781250
1631,8.7,2022-10-28 10:32:32.796875
1632,3.24,2022-10-28 10:32:32.812500
1633,-2.3,2022-10-28 10:32:32.828125
1634,-7.36,2022-10-28 10:32:32.843750
1635,-11.68,2022-10-28 10:32:32.859375
1636,-15.25,2022-10-28 10:32:32.875000
1637,-18.31,2022-10-28 10:32:32.890625
1638,-21.06,2022-10-28 10:32:32.906250
1639,-23.58,2022-10-28 10:32:32.921875
1640,-25.88,2022-10-28 10:32:32.937500
1641,-27.99,2022-10-28 10:32:32.953125
1642,-30.08,2022-10-28 10:32:32.968750
1643,-32.39,2022-10-28 10:32:32.984375
1644,-35.07,2022-10-28 10:32:33.000000
1645,-38.04,2022-10-28 10:32:33.015625
1646,-40.84,2022-10-28 10:32:33.031250
1647,-42.84,2022-10-28 10:32:33.046875
1648,-43.39,2022-10-28 10:32:33.062500
1649,-42.1,2022-10-28 10:32:33.078125
1650,-38.97,2022-10-28 10:32:33.093750
1651,-34.28,2022-10-28 10:32:33.109375
1652,-28.55,2022-10-28 10:32:33.125000
1653,-22.4,2022-10-28 10:32:33.140625
1654,-16.43,2022-10-28 10:32:33.156250
1655,-11.18,2022-10-28 10:32:33.171875
1656,-7.08,2022-10-28 10:32:33.187500
1657,-4.3,2022-10-28 10:32:33.203125
1658,-2.71,2022-10-28 10:32:33.218750
1659,-1.9,2022-10-28 10:32:33.234375
1660,-1.31,2022-10-28 10:32:33.250000
1661,-0.47,2022-10-28 10:32:33.265625
1662,0.8,2022-10-28 10:32:33.281250
1663,2.33,2022-10-28 10:32:33.296875
1664,3.79,2022-10-28 10:32:33.312500
1665,4.88,2022-10-28 10:32:33.328125
1666,5.6,2022-10-28 10:32:33.343750
1667,6.24,2022-10-28 10:32:33.359375
1668,7.21,2022-10-28 10:32:33.375000
1669,8.81,2022-10-28 10:32:33.390625
1670,11.05,2022-10-28 10:32:33.406250
1671,13.61,2022-10-28 10:32:33.421875
1672,16.08,2022-10-28 10:32:33.437500
1673,18.18,2022-10-28 10:32:33.453125
1674,19.83,2022-10-28 10:32:33.468750
1675,21.12,2022-10-28 10:32:33.484375
1676,22.2,2022-10-28 10:32:33.500000
1677,23.08,2022-10-28 10:32:33.515625
1678,23.65,2022-10-28 10:32:33.531250
1679,23.79,2022-10-28 10:32:33.546875
1680,23.43,2022-10-28 10:32:33.562500
1681,22.63,2022-10-28 10:32:33.578125
1682,21.56,2022-10-28 10:32:33.593750
1683,20.33,2022-10-28 10:32:33.609375
1684,18.92,2022-10-28 10:32:33.625000
1685,17.19,2022-10-28 10:32:33.640625
1686,14.95,2022-10-28 10:32:33.656250
1687,12.14,2022-10-28 10:32:33.671875
1688,8.88,2022-10-28 10:32:33.687500
1689,5.4,2022-10-28 10:32:33.703125
1690,1.95,2022-10-28 10:32:33.718750
1691,-1.36,2022-10-28 10:32:33.734375
1692,-4.61,2022-10-28 10:32:33.750000
1693,-7.9,2022-10-28 10:32:33.765625
1694,-11.29,2022-10-28 10:32:33.781250
1695,-14.69,2022-10-28 10:32:33.796875
1696,-17.86,2022-10-28 10:32:33.812500
1697,-20.56,2022-10-28 10:32:33.828125
1698,-22.59,2022-10-28 10:32:33.843750
1699,-23.93,2022-10-28 10:32:33.859375
1700,-24.65,2022-10-28 10:32:33.875000
1701,-24.98,2022-10-28 10:32:33.890625
1702,-25.24,2022-10-28 10:32:33.906250
1703,-25.91,2022-10-28 10:32:33.921875
1704,-27.47,2022-10-28 10:32:33.937500
1705,-30.32,2022-10-28 10:32:33.953125
1706,-34.48,2022-10-28 10:32:33.968750
1707,-39.42,2022-10-28 10:32:33.984375
1708,-44.1,2022-10-28 10:32:34.000000
1709,-47.25,2022-10-28 10:32:34.015625
1710,-47.86,2022-10-28 10:32:34.031250
1711,-45.5,2022-10-28 10:32:34.046875
1712,-40.45,2022-10-28 10:32:34.062500
1713,-33.5,2022-10-28 10:32:34.078125
1714,-25.67,2022-10-28 10:32:34.093750
1715,-17.87,2022-10-28 10:32:34.109375
1716,-10.82,2022-10-28 10:32:34.125000
1717,-4.99,2022-10-28 10:32:34.140625
1718,-0.68,2022-10-28 10:32:34.156250
1719,2.05,2022-10-28 10:32:34.171875
1720,3.31,2022-10-28 10:32:34.187500
1721,3.42,2022-10-28 10:32:34.203125
1722,2.84,2022-10-28 10:32:34.218750
1723,1.98,2022-10-28 10:32:34.234375
1724,1.12,2022-10-28 10:32:34.250000
1725,0.32,2022-10-28 10:32:34.265625
1726,-0.44,2022-10-28 10:32:34.281250
1727,-1.19,2022-10-28 10:32:34.296875
1728,-1.8,2022-10-28 10:32:34.312500
1729,-2.01,2022-10-28 10:32:34.328125
1730,-1.51,2022-10-28 10:32:34.343750
1731,-0.01,2022-10-28 10:32:34.359375
1732,2.57,2022-10-28 10:32:34.375000
1733,6.07,2022-10-28 10:32:34.390625
1734,10.09,2022-10-28 10:32:34.406250
1735,14.02,2022-10-28 10:32:34.421875
1736,17.24,2022-10-28 10:32:34.437500
1737,19.28,2022-10-28 10:32:34.453125
1738,19.94,2022-10-28 10:32:34.468750
1739,19.39,2022-10-28 10:32:34.484375
1740,18.02,2022-10-28 10:32:34.500000
1741,16.33,2022-10-28 10:32:34.515625
1742,14.75,2022-10-28 10:32:34.531250
1743,13.55,2022-10-28 10:32:34.546875
1744,12.76,2022-10-28 10:32:34.562500
1745,12.2,2022-10-28 10:32:34.578125
1746,11.62,2022-10-28 10:32:34.593750
1747,10.69,2022-10-28 10:32:34.609375
1748,9.19,2022-10-28 10:32:34.625000
1749,7.04,2022-10-28 10:32:34.640625
1750,4.32,2022-10-28 10:32:34.656250
1751,1.23,2022-10-28 10:32:34.671875
1752,-2.08,2022-10-28 10:32:34.687500
1753,-5.62,2022-10-28 10:32:34.703125
1754,-9.65,2022-10-28 10:32:34.718750
1755,-14.53,2022-10-28 10:32:34.734375
1756,-20.55,2022-10-28 10:32:34.750000
1757,-27.72,2022-10-28 10:32:34.765625
1758,-35.63,2022-10-28 10:32:34.781250
1759,-43.52,2022-10-28 10:32:34.796875
1760,-50.39,2022-10-28 10:32:34.812500
1761,-55.24,2022-10-28 10:32:34.828125
1762,-57.38,2022-10-28 10:32:34.843750
1763,-56.56,2022-10-28 10:32:34.859375
1764,-53.01,2022-10-28 10:32:34.875000
1765,-47.38,2022-10-28 10:32:34.890625
1766,-40.5,2022-10-28 10:32:34.906250
1767,-33.16,2022-10-28 10:32:34.921875
1768,-25.95,2022-10-28 10:32:34.937500
1769,-19.25,2022-10-28 10:32:34.953125
1770,-13.25,2022-10-28 10:32:34.968750
1771,-8.16,2022-10-28 10:32:34.984375
1772,-4.17,2022-10-28 10:32:35.000000
1773,-1.43,2022-10-28 10:32:35.015625
1774,0.05,2022-10-28 10:32:35.031250
1775,0.51,2022-10-28 10:32:35.046875
1776,0.39,2022-10-28 10:32:35.062500
1777,0.15,2022-10-28 10:32:35.078125
1778,0.2,2022-10-28 10:32:35.093750
1779,0.72,2022-10-28 10:32:35.109375
1780,1.72,2022-10-28 10:32:35.125000
1781,3.11,2022-10-28 10:32:35.140625
1782,4.84,2022-10-28 10:32:35.156250
1783,6.87,2022-10-28 10:32:35.171875
1784,9.22,2022-10-28 10:32:35.187500
1785,11.86,2022-10-28 10:32:35.203125
1786,14.72,2022-10-28 10:32:35.218750
1787,17.68,2022-10-28 10:32:35.234375
1788,20.51,2022-10-28 10:32:35.250000
1789,22.98,2022-10-28 10:32:35.265625
1790,24.83,2022-10-28 10:32:35.281250
1791,25.88,2022-10-28 10:32:35.296875
1792,26.06,2022-10-28 10:32:35.312500
1793,25.37,2022-10-28 10:32:35.328125
1794,23.99,2022-10-28 10:32:35.343750
1795,22.13,2022-10-28 10:32:35.359375
1796,20.05,2022-10-28 10:32:35.375000
1797,17.95,2022-10-28 10:32:35.390625
1798,15.88,2022-10-28 10:32:35.406250
1799,13.73,2022-10-28 10:32:35.421875
1800,11.2,2022-10-28 10:32:35.437500
1801,7.96,2022-10-28 10:32:35.453125
1802,3.8,2022-10-28 10:32:35.468750
1803,-1.21,2022-10-28 10:32:35.484375
1804,-6.67,2022-10-28 10:32:35.500000
1805,-11.97,2022-10-28 10:32:35.515625
1806,-16.47,2022-10-28 10:32:35.531250
1807,-19.77,2022-10-28 10:32:35.546875
1808,-21.78,2022-10-28 10:32:35.562500
1809,-22.73,2022-10-28 10:32:35.578125
1810,-23.01,2022-10-28 10:32:35.593750
1811,-22.97,2022-10-28 10:32:35.609375
1812,-22.88,2022-10-28 10:32:35.625000
1813,-22.8,2022-10-28 10:32:35.640625
1814,-22.69,2022-10-28 10:32:35.656250
1815,-22.37,2022-10-28 10:32:35.671875
1816,-21.59,2022-10-28 10:32:35.687500
1817,-20.08,2022-10-28 10:32:35.703125
1818,-17.57,2022-10-28 10:32:35.718750
1819,-13.95,2022-10-28 10:32:35.734375
1820,-9.32,2022-10-28 10:32:35.750000
1821,-4.03,2022-10-28 10:32:35.765625
1822,1.43,2022-10-28 10:32:35.781250
1823,6.58,2022-10-28 10:32:35.796875
1824,11.14,2022-10-28 10:32:35.812500
1825,15.06,2022-10-28 10:32:35.828125
1826,18.5,2022-10-28 10:32:35.843750
1827,21.61,2022-10-28 10:32:35.859375
1828,24.43,2022-10-28 10:32:35.875000
1829,26.79,2022-10-28 10:32:35.890625
1830,28.44,2022-10-28 10:32:35.906250
1831,29.22,2022-10-28 10:32:35.921875
1832,29.14,2022-10-28 10:32:35.937500
1833,28.46,2022-10-28 10:32:35.953125
1834,27.54,2022-10-28 10:32:35.968750
1835,26.68,2022-10-28 10:32:35.984375
1836,26.04,2022-10-28 10:32:36.000000
1837,25.64,2022-10-28 10:32:36.015625
1838,25.47,2022-10-28 10:32:36.031250
1839,25.52,2022-10-28 10:32:36.046875
1840,25.82,2022-10-28 10:32:36.062500
1841,26.29,2022-10-28 10:32:36.078125
1842,26.76,2022-10-28 10:32:36.093750
1843,26.92,2022-10-28 10:32:36.109375
1844,26.46,2022-10-28 10:32:36.125000
1845,25.2,2022-10-28 10:32:36.140625
1846,23.14,2022-10-28 10:32:36.156250
1847,20.46,2022-10-28 10:32:36.171875
1848,17.39,2022-10-28 10:32:36.187500
1849,14.19,2022-10-28 10:32:36.203125
1850,11.04,2022-10-28 10:32:36.218750
1851,8.12,2022-10-28 10:32:36.234375
1852,5.6,2022-10-28 10:32:36.250000
1853,3.59,2022-10-28 10:32:36.265625
1854,2.11,2022-10-28 10:32:36.281250
1855,0.97,2022-10-28 10:32:36.296875
1856,-0.2,2022-10-28 10:32:36.312500
1857,-1.79,2022-10-28 10:32:36.328125
1858,-4.06,2022-10-28 10:32:36.343750
1859,-6.98,2022-10-28 10:32:36.359375
1860,-10.25,2022-10-28 10:32:36.375000
1861,-13.42,2022-10-28 10:32:36.390625
1862,-16.14,2022-10-28 10:32:36.406250
1863,-18.35,2022-10-28 10:32:36.421875
1864,-20.22,2022-10-28 10:32:36.437500
1865,-22.11,2022-10-28 10:32:36.453125
1866,-24.33,2022-10-28 10:32:36.468750
1867,-27.05,2022-10-28 10:32:36.484375
1868,-30.25,2022-10-28 10:32:36.500000
1869,-33.84,2022-10-28 10:32:36.515625
1870,-37.67,2022-10-28 10:32:36.531250
1871,-41.52,2022-10-28 10:32:36.546875
1872,-45.01,2022-10-28 10:32:36.562500
1873,-47.46,2022-10-28 10:32:36.578125
1874,-48.12,2022-10-28 10:32:36.593750
1875,-46.45,2022-10-28 10:32:36.609375
1876,-42.44,2022-10-28 10:32:36.625000
1877,-36.73,2022-10-28 10:32:36.640625
1878,-30.37,2022-10-28 10:32:36.656250
1879,-24.45,2022-10-28 10:32:36.671875
1880,-19.52,2022-10-28 10:32:36.687500
1881,-15.44,2022-10-28 10:32:36.703125
1882,-11.49,2022-10-28 10:32:36.718750
1883,-6.84,2022-10-28 10:32:36.734375
1884,-0.94,2022-10-28 10:32:36.750000
1885,6.11,2022-10-28 10:32:36.765625
1886,13.72,2022-10-28 10:32:36.781250
1887,21.02,2022-10-28 10:32:36.796875
1888,27.23,2022-10-28 10:32:36.812500
1889,31.82,2022-10-28 10:32:36.828125
1890,34.59,2022-10-28 10:32:36.843750
1891,35.63,2022-10-28 10:32:36.859375
1892,35.27,2022-10-28 10:32:36.875000
1893,34.09,2022-10-28 10:32:36.890625
1894,32.81,2022-10-28 10:32:36.906250
1895,32.24,2022-10-28 10:32:36.921875
1896,32.93,2022-10-28 10:32:36.937500
1897,35.08,2022-10-28 10:32:36.953125
1898,38.34,2022-10-28 10:32:36.968750
1899,42.03,2022-10-28 10:32:36.984375
1900,45.37,2022-10-28 10:32:37.000000
1901,47.82,2022-10-28 10:32:37.015625
1902,49.27,2022-10-28 10:32:37.031250
1903,49.94,2022-10-28 10:32:37.046875
1904,50.14,2022-10-28 10:32:37.062500
1905,50.01,2022-10-28 10:32:37.078125
1906,49.47,2022-10-28 10:32:37.093750
1907,48.36,2022-10-28 10:32:37.109375
1908,46.59,2022-10-28 10:32:37.125000
1909,44.32,2022-10-28 10:32:37.140625
1910,41.89,2022-10-28 10:32:37.156250
1911,39.63,2022-10-28 10:32:37.171875
1912,37.56,2022-10-28 10:32:37.187500
1913,35.37,2022-10-28 10:32:37.203125
1914,32.51,2022-10-28 10:32:37.218750
1915,28.44,2022-10-28 10:32:37.234375
1916,22.92,2022-10-28 10:32:37.250000
1917,16.1,2022-10-28 10:32:37.265625
1918,8.54,2022-10-28 10:32:37.281250
1919,0.95,2022-10-28 10:32:37.296875
1920,-5.95,2022-10-28 10:32:37.312500
1921,-11.69,2022-10-28 10:32:37.328125
1922,-16.01,2022-10-28 10:32:37.343750
1923,-18.96,2022-10-28 10:32:37.359375
1924,-20.71,2022-10-28 10:32:37.375000
1925,-21.59,2022-10-28 10:32:37.390625
1926,-21.96,2022-10-28 10:32:37.406250
1927,-22.2,2022-10-28 10:32:37.421875
1928,-22.63,2022-10-28 10:32:37.437500
1929,-23.58,2022-10-28 10:32:37.453125
1930,-25.28,2022-10-28 10:32:37.468750
1931,-27.92,2022-10-28 10:32:37.484375
1932,-31.45,2022-10-28 10:32:37.500000
1933,-35.55,2022-10-28 10:32:37.515625
1934,-39.53,2022-10-28 10:32:37.531250
1935,-42.47,2022-10-28 10:32:37.546875
1936,-43.43,2022-10-28 10:32:37.562500
1937,-41.79,2022-10-28 10:32:37.578125
1938,-37.42,2022-10-28 10:32:37.593750
1939,-30.77,2022-10-28 10:32:37.609375
1940,-22.68,2022-10-28 10:32:37.625000
1941,-14.11,2022-10-28 10:32:37.640625
1942,-5.9,2022-10-28 10:32:37.656250
1943,1.46,2022-10-28 10:32:37.671875
1944,7.77,2022-10-28 10:32:37.687500
1945,13.0,2022-10-28 10:32:37.703125
1946,17.21,2022-10-28 10:32:37.718750
1947,20.46,2022-10-28 10:32:37.734375
1948,22.76,2022-10-28 10:32:37.750000
1949,24.2,2022-10-28 10:32:37.765625
1950,24.93,2022-10-28 10:32:37.781250
1951,25.12,2022-10-28 10:32:37.796875
1952,25.01,2022-10-28 10:32:37.812500
1953,24.8,2022-10-28 10:32:37.828125
1954,24.64,2022-10-28 10:32:37.843750
1955,24.61,2022-10-28 10:32:37.859375
1956,24.77,2022-10-28 10:32:37.875000
1957,25.13,2022-10-28 10:32:37.890625
1958,25.69,2022-10-28 10:32:37.906250
1959,26.43,2022-10-28 10:32:37.921875
1960,27.22,2022-10-28 10:32:37.937500
1961,27.88,2022-10-28 10:32:37.953125
1962,28.18,2022-10-28 10:32:37.968750
1963,27.93,2022-10-28 10:32:37.984375
1964,27.02,2022-10-28 10:32:38.000000
1965,25.48,2022-10-28 10:32:38.015625
1966,23.45,2022-10-28 10:32:38.031250
1967,21.07,2022-10-28 10:32:38.046875
1968,18.42,2022-10-28 10:32:38.062500
1969,15.56,2022-10-28 10:32:38.078125
1970,12.51,2022-10-28 10:32:38.093750
1971,9.34,2022-10-28 10:32:38.109375
1972,6.15,2022-10-28 10:32:38.125000
1973,3.12,2022-10-28 10:32:38.140625
1974,0.41,2022-10-28 10:32:38.156250
1975,-1.85,2022-10-28 10:32:38.171875
1976,-3.62,2022-10-28 10:32:38.187500
1977,-4.91,2022-10-28 10:32:38.203125
1978,-5.8,2022-10-28 10:32:38.218750
1979,-6.43,2022-10-28 10:32:38.234375
1980,-6.97,2022-10-28 10:32:38.250000
1981,-7.66,2022-10-28 10:32:38.265625
1982,-8.75,2022-10-28 10:32:38.281250
1983,-10.42,2022-10-28 10:32:38.296875
1984,-12.7,2022-10-28 10:32:38.312500
1985,-15.45,2022-10-28 10:32:38.328125
1986,-18.35,2022-10-28 10:32:38.343750
1987,-20.97,2022-10-28 10:32:38.359375
1988,-22.89,2022-10-28 10:32:38.375000
1989,-23.78,2022-10-28 10:32:38.390625
1990,-23.5,2022-10-28 10:32:38.406250
1991,-22.09,2022-10-28 10:32:38.421875
1992,-19.82,2022-10-28 10:32:38.437500
1993,-17.03,2022-10-28 10:32:38.453125
1994,-14.06,2022-10-28 10:32:38.468750
1995,-11.12,2022-10-28 10:32:38.484375
1996,-8.14,2022-10-28 10:32:38.500000
1997,-4.89,2022-10-28 10:32:38.515625
1998,-1.12,2022-10-28 10:32:38.531250
1999,3.24,2022-10-28 10:32:38.546875
2000,7.87,2022-10-28 10:32:38.562500
2001,12.22,2022-10-28 10:32:38.578125
2002,15.69,2022-10-28 10:32:38.593750
2003,17.96,2022-10-28 10:32:38.609375
2004,19.16,2022-10-28 10:32:38.625000
2005,19.78,2022-10-28 10:32:38.640625
2006,20.44,2022-10-28 10:32:38.656250
2007,21.59,2022-10-28 10:32:38.671875
2008,23.29,2022-10-28 10:32:38.687500
2009,25.32,2022-10-28 10:32:38.703125
2010,27.23,2022-10-28 10:32:38.718750
2011,28.54,2022-10-28 10:32:38.734375
2012,28.82,2022-10-28 10:32:38.750000
2013,27.75,2022-10-28 10:32:38.765625
2014,25.11,2022-10-28 10:32:38.781250
2015,20.88,2022-10-28 10:32:38.796875
2016,15.2,2022-10-28 10:32:38.812500
2017,8.43,2022-10-28 10:32:38.828125
2018,1.1,2022-10-28 10:32:38.843750
2019,-6.26,2022-10-28 10:32:38.859375
2020,-13.18,2022-10-28 10:32:38.875000
2021,-19.33,2022-10-28 10:32:38.890625
2022,-24.46,2022-10-28 10:32:38.906250
2023,-28.43,2022-10-28 10:32:38.921875
2024,-31.16,2022-10-28 10:32:38.937500
2025,-32.64,2022-10-28 10:32:38.953125
2026,-32.95,2022-10-28 10:32:38.968750
2027,-32.22,2022-10-28 10:32:38.984375
2028,-30.59,2022-10-28 10:32:39.000000
2029,-28.18,2022-10-28 10:32:39.015625
2030,-25.16,2022-10-28 10:32:39.031250
2031,-21.77,2022-10-28 10:32:39.046875
2032,-18.38,2022-10-28 10:32:39.062500
2033,-15.38,2022-10-28 10:32:39.078125
2034,-13.1,2022-10-28 10:32:39.093750
2035,-11.67,2022-10-28 10:32:39.109375
2036,-10.97,2022-10-28 10:32:39.125000
2037,-10.77,2022-10-28 10:32:39.140625
2038,-10.8,2022-10-28 10:32:39.156250
2039,-10.89,2022-10-28 10:32:39.171875
2040,-11.05,2022-10-28 10:32:39.187500
2041,-11.38,2022-10-28 10:32:39.203125
2042,-11.97,2022-10-28 10:32:39.218750
2043,-12.86,2022-10-28 10:32:39.234375
2044,-14.03,2022-10-28 10:32:39.250000
2045,-15.45,2022-10-28 10:32:39.265625
2046,-17.15,2022-10-28 10:32:39.281250
2047,-19.2,2022-10-28 10:32:39.296875
2048,-21.68,2022-10-28 10:32:39.312500
2049,-24.56,2022-10-28 10:32:39.328125
2050,-27.7,2022-10-28 10:32:39.343750
2051,-30.88,2022-10-28 10:32:39.359375
2052,-33.92,2022-10-28 10:32:39.375000
2053,-36.78,2022-10-28 10:32:39.390625
2054,-39.51,2022-10-28 10:32:39.406250
2055,-42.12,2022-10-28 10:32:39.421875
2056,-44.46,2022-10-28 10:32:39.437500
2057,-46.04,2022-10-28 10:32:39.453125
2058,-46.27,2022-10-28 10:32:39.468750
2059,-44.63,2022-10-28 10:32:39.484375
2060,-41.0,2022-10-28 10:32:39.500000
2061,-35.73,2022-10-28 10:32:39.515625
2062,-29.56,2022-10-28 10:32:39.531250
2063,-23.36,2022-10-28 10:32:39.546875
2064,-17.8,2022-10-28 10:32:39.562500
2065,-13.16,2022-10-28 10:32:39.578125
2066,-9.31,2022-10-28 10:32:39.593750
2067,-5.94,2022-10-28 10:32:39.609375
2068,-2.69,2022-10-28 10:32:39.625000
2069,0.61,2022-10-28 10:32:39.640625
2070,3.87,2022-10-28 10:32:39.656250
2071,6.82,2022-10-28 10:32:39.671875
2072,9.09,2022-10-28 10:32:39.687500
2073,10.36,2022-10-28 10:32:39.703125
2074,10.5,2022-10-28 10:32:39.718750
2075,9.61,2022-10-28 10:32:39.734375
2076,8.02,2022-10-28 10:32:39.750000
2077,6.24,2022-10-28 10:32:39.765625
2078,4.77,2022-10-28 10:32:39.781250
2079,4.02,2022-10-28 10:32:39.796875
2080,4.2,2022-10-28 10:32:39.812500
2081,5.31,2022-10-28 10:32:39.828125
2082,7.14,2022-10-28 10:32:39.843750
2083,9.41,2022-10-28 10:32:39.859375
2084,11.84,2022-10-28 10:32:39.875000
2085,14.34,2022-10-28 10:32:39.890625
2086,17.02,2022-10-28 10:32:39.906250
2087,20.15,2022-10-28 10:32:39.921875
2088,24.01,2022-10-28 10:32:39.937500
2089,28.65,2022-10-28 10:32:39.953125
2090,33.73,2022-10-28 10:32:39.968750
2091,38.54,2022-10-28 10:32:39.984375
2092,42.16,2022-10-28 10:32:40.000000
2093,43.84,2022-10-28 10:32:40.015625
2094,43.22,2022-10-28 10:32:40.031250
2095,40.56,2022-10-28 10:32:40.046875
2096,36.63,2022-10-28 10:32:40.062500
2097,32.46,2022-10-28 10:32:40.078125
2098,28.97,2022-10-28 10:32:40.093750
2099,26.67,2022-10-28 10:32:40.109375
2100,25.58,2022-10-28 10:32:40.125000
2101,25.34,2022-10-28 10:32:40.140625
2102,25.44,2022-10-28 10:32:40.156250
2103,25.48,2022-10-28 10:32:40.171875
2104,25.26,2022-10-28 10:32:40.187500
2105,24.74,2022-10-28 10:32:40.203125
2106,23.93,2022-10-28 10:32:40.218750
2107,22.83,2022-10-28 10:32:40.234375
2108,21.4,2022-10-28 10:32:40.250000
2109,19.6,2022-10-28 10:32:40.265625
2110,17.45,2022-10-28 10:32:40.281250
2111,14.94,2022-10-28 10:32:40.296875
2112,11.99,2022-10-28 10:32:40.312500
2113,8.35,2022-10-28 10:32:40.328125
2114,3.68,2022-10-28 10:32:40.343750
2115,-2.26,2022-10-28 10:32:40.359375
2116,-9.37,2022-10-28 10:32:40.375000
2117,-17.23,2022-10-28 10:32:40.390625
2118,-25.11,2022-10-28 10:32:40.406250
2119,-32.33,2022-10-28 10:32:40.421875
2120,-38.37,2022-10-28 10:32:40.437500
2121,-43.07,2022-10-28 10:32:40.453125
2122,-46.49,2022-10-28 10:32:40.468750
2123,-48.83,2022-10-28 10:32:40.484375
2124,-50.37,2022-10-28 10:32:40.500000
2125,-51.42,2022-10-28 10:32:40.515625
2126,-52.36,2022-10-28 10:32:40.531250
2127,-53.57,2022-10-28 10:32:40.546875
2128,-55.28,2022-10-28 10:32:40.562500
2129,-57.42,2022-10-28 10:32:40.578125
2130,-59.58,2022-10-28 10:32:40.593750
2131,-61.05,2022-10-28 10:32:40.609375
2132,-61.14,2022-10-28 10:32:40.625000
2133,-59.38,2022-10-28 10:32:40.640625
2134,-55.76,2022-10-28 10:32:40.656250
2135,-50.64,2022-10-28 10:32:40.671875
2136,-44.58,2022-10-28 10:32:40.687500
2137,-38.09,2022-10-28 10:32:40.703125
2138,-31.46,2022-10-28 10:32:40.718750
2139,-24.74,2022-10-28 10:32:40.734375
2140,-17.85,2022-10-28 10:32:40.750000
2141,-10.68,2022-10-28 10:32:40.765625
2142,-3.14,2022-10-28 10:32:40.781250
2143,4.83,2022-10-28 10:32:40.796875
2144,13.43,2022-10-28 10:32:40.812500
2145,22.94,2022-10-28 10:32:40.828125
2146,33.62,2022-10-28 10:32:40.843750
2147,45.48,2022-10-28 10:32:40.859375
2148,57.98,2022-10-28 10:32:40.875000
2149,70.02,2022-10-28 10:32:40.890625
2150,80.23,2022-10-28 10:32:40.906250
2151,87.57,2022-10-28 10:32:40.921875
2152,91.97,2022-10-28 10:32:40.937500
2153,94.78,2022-10-28 10:32:40.953125
2154,98.63,2022-10-28 10:32:40.968750
2155,106.77,2022-10-28 10:32:40.984375
2156,122.03,2022-10-28 10:32:41.000000
2157,145.71,2022-10-28 10:32:41.015625
2158,177.04,2022-10-28 10:32:41.031250
2159,213.22,2022-10-28 10:32:41.046875
2160,250.27,2022-10-28 10:32:41.062500
2161,284.22,2022-10-28 10:32:41.078125
2162,312.09,2022-10-28 10:32:41.093750
2163,332.26,2022-10-28 10:32:41.109375
2164,344.26,2022-10-28 10:32:41.125000
2165,348.14,2022-10-28 10:32:41.140625
2166,344.16,2022-10-28 10:32:41.156250
2167,332.78,2022-10-28 10:32:41.171875
2168,315.02,2022-10-28 10:32:41.187500
2169,292.6,2022-10-28 10:32:41.203125
2170,267.69,2022-10-28 10:32:41.218750
2171,242.13,2022-10-28 10:32:41.234375
2172,216.67,2022-10-28 10:32:41.250000
2173,190.61,2022-10-28 10:32:41.265625
2174,162.22,2022-10-28 10:32:41.281250
2175,129.75,2022-10-28 10:32:41.296875
2176,92.53,2022-10-28 10:32:41.312500
2177,51.51,2022-10-28 10:32:41.328125
2178,9.13,2022-10-28 10:32:41.343750
2179,-31.42,2022-10-28 10:32:41.359375
2180,-67.22,2022-10-28 10:32:41.375000
2181,-96.36,2022-10-28 10:32:41.390625
2182,-118.28,2022-10-28 10:32:41.406250
2183,-133.75,2022-10-28 10:32:41.421875
2184,-144.51,2022-10-28 10:32:41.437500
2185,-152.59,2022-10-28 10:32:41.453125
2186,-159.75,2022-10-28 10:32:41.468750
2187,-166.93,2022-10-28 10:32:41.484375
2188,-174.11,2022-10-28 10:32:41.500000
2189,-180.57,2022-10-28 10:32:41.515625
2190,-185.36,2022-10-28 10:32:41.531250
2191,-187.94,2022-10-28 10:32:41.546875
2192,-188.38,2022-10-28 10:32:41.562500
2193,-187.39,2022-10-28 10:32:41.578125
2194,-185.9,2022-10-28 10:32:41.593750
2195,-184.65,2022-10-28 10:32:41.609375
2196,-183.95,2022-10-28 10:32:41.625000
2197,-183.64,2022-10-28 10:32:41.640625
2198,-183.39,2022-10-28 10:32:41.656250
2199,-182.91,2022-10-28 10:32:41.671875
2200,-182.05,2022-10-28 10:32:41.687500
2201,-180.76,2022-10-28 10:32:41.703125
2202,-178.78,2022-10-28 10:32:41.718750
2203,-175.55,2022-10-28 10:32:41.734375
2204,-170.3,2022-10-28 10:32:41.750000
2205,-162.4,2022-10-28 10:32:41.765625
2206,-151.69,2022-10-28 10:32:41.781250
2207,-138.82,2022-10-28 10:32:41.796875
2208,-125.06,2022-10-28 10:32:41.812500
2209,-112.0,2022-10-28 10:32:41.828125
2210,-100.97,2022-10-28 10:32:41.843750
2211,-92.54,2022-10-28 10:32:41.859375
2212,-86.43,2022-10-28 10:32:41.875000
2213,-81.7,2022-10-28 10:32:41.890625
2214,-77.19,2022-10-28 10:32:41.906250
2215,-72.1,2022-10-28 10:32:41.921875
2216,-66.22,2022-10-28 10:32:41.937500
2217,-59.92,2022-10-28 10:32:41.953125
2218,-53.84,2022-10-28 10:32:41.968750
2219,-48.53,2022-10-28 10:32:41.984375
2220,-44.14,2022-10-28 10:32:42.000000
2221,-40.45,2022-10-28 10:32:42.015625
2222,-37.03,2022-10-28 10:32:42.031250
2223,-33.51,2022-10-28 10:32:42.046875
2224,-29.77,2022-10-28 10:32:42.062500
2225,-25.94,2022-10-28 10:32:42.078125
2226,-22.31,2022-10-28 10:32:42.093750
2227,-19.12,2022-10-28 10:32:42.109375
2228,-16.48,2022-10-28 10:32:42.125000
2229,-14.28,2022-10-28 10:32:42.140625
2230,-12.3,2022-10-28 10:32:42.156250
2231,-10.25,2022-10-28 10:32:42.171875
2232,-7.94,2022-10-28 10:32:42.187500
2233,-5.3,2022-10-28 10:32:42.203125
2234,-2.48,2022-10-28 10:32:42.218750
2235,0.3,2022-10-28 10:32:42.234375
2236,2.73,2022-10-28 10:32:42.250000
2237,4.62,2022-10-28 10:32:42.265625
2238,5.97,2022-10-28 10:32:42.281250
2239,6.96,2022-10-28 10:32:42.296875
2240,7.9,2022-10-28 10:32:42.312500
2241,9.02,2022-10-28 10:32:42.328125
2242,10.48,2022-10-28 10:32:42.343750
2243,12.28,2022-10-28 10:32:42.359375
2244,14.41,2022-10-28 10:32:42.375000
2245,16.97,2022-10-28 10:32:42.390625
2246,20.18,2022-10-28 10:32:42.406250
2247,24.29,2022-10-28 10:32:42.421875
2248,29.44,2022-10-28 10:32:42.437500
2249,35.47,2022-10-28 10:32:42.453125
2250,41.89,2022-10-28 10:32:42.468750
2251,47.98,2022-10-28 10:32:42.484375
2252,53.07,2022-10-28 10:32:42.500000
2253,56.73,2022-10-28 10:32:42.515625
2254,58.98,2022-10-28 10:32:42.531250
2255,60.26,2022-10-28 10:32:42.546875
2256,61.21,2022-10-28 10:32:42.562500
2257,62.4,2022-10-28 10:32:42.578125
2258,64.06,2022-10-28 10:32:42.593750
2259,65.94,2022-10-28 10:32:42.609375
2260,67.48,2022-10-28 10:32:42.625000
2261,68.07,2022-10-28 10:32:42.640625
2262,67.34,2022-10-28 10:32:42.656250
2263,65.36,2022-10-28 10:32:42.671875
2264,62.47,2022-10-28 10:32:42.687500
2265,59.08,2022-10-28 10:32:42.703125
2266,55.38,2022-10-28 10:32:42.718750
2267,51.35,2022-10-28 10:32:42.734375
2268,46.81,2022-10-28 10:32:42.750000
2269,41.72,2022-10-28 10:32:42.765625
2270,36.26,2022-10-28 10:32:42.781250
2271,30.77,2022-10-28 10:32:42.796875
2272,25.56,2022-10-28 10:32:42.812500
2273,20.7,2022-10-28 10:32:42.828125
2274,15.98,2022-10-28 10:32:42.843750
2275,11.11,2022-10-28 10:32:42.859375
2276,6.03,2022-10-28 10:32:42.875000
2277,1.02,2022-10-28 10:32:42.890625
2278,-3.43,2022-10-28 10:32:42.906250
2279,-7.0,2022-10-28 10:32:42.921875
2280,-9.91,2022-10-28 10:32:42.937500
2281,-13.0,2022-10-28 10:32:42.953125
2282,-17.52,2022-10-28 10:32:42.968750
2283,-24.51,2022-10-28 10:32:42.984375
2284,-34.3,2022-10-28 10:32:43.000000
2285,-46.22,2022-10-28 10:32:43.015625
2286,-58.83,2022-10-28 10:32:43.031250
2287,-70.42,2022-10-28 10:32:43.046875
2288,-79.66,2022-10-28 10:32:43.062500
2289,-85.99,2022-10-28 10:32:43.078125
2290,-89.55,2022-10-28 10:32:43.093750
2291,-90.93,2022-10-28 10:32:43.109375
2292,-90.72,2022-10-28 10:32:43.125000
2293,-89.27,2022-10-28 10:32:43.140625
2294,-86.72,2022-10-28 10:32:43.156250
2295,-83.12,2022-10-28 10:32:43.171875
2296,-78.7,2022-10-28 10:32:43.187500
2297,-73.85,2022-10-28 10:32:43.203125
2298,-69.04,2022-10-28 10:32:43.218750
2299,-64.66,2022-10-28 10:32:43.234375
2300,-60.84,2022-10-28 10:32:43.250000
2301,-57.46,2022-10-28 10:32:43.265625
2302,-54.28,2022-10-28 10:32:43.281250
2303,-51.03,2022-10-28 10:32:43.296875
2304,-47.62,2022-10-28 10:32:43.312500
2305,-44.1,2022-10-28 10:32:43.328125
2306,-40.63,2022-10-28 10:32:43.343750
2307,-37.37,2022-10-28 10:32:43.359375
2308,-34.39,2022-10-28 10:32:43.375000
2309,-31.66,2022-10-28 10:32:43.390625
2310,-29.04,2022-10-28 10:32:43.406250
2311,-26.37,2022-10-28 10:32:43.421875
2312,-23.56,2022-10-28 10:32:43.437500
2313,-20.61,2022-10-28 10:32:43.453125
2314,-17.68,2022-10-28 10:32:43.468750
2315,-14.99,2022-10-28 10:32:43.484375
2316,-12.76,2022-10-28 10:32:43.500000
2317,-11.14,2022-10-28 10:32:43.515625
2318,-10.18,2022-10-28 10:32:43.531250
2319,-9.84,2022-10-28 10:32:43.546875
2320,-10.0,2022-10-28 10:32:43.562500
2321,-10.6,2022-10-28 10:32:43.578125
2322,-11.53,2022-10-28 10:32:43.593750
2323,-12.75,2022-10-28 10:32:43.609375
2324,-14.14,2022-10-28 10:32:43.625000
2325,-15.6,2022-10-28 10:32:43.640625
2326,-17.03,2022-10-28 10:32:43.656250
2327,-18.44,2022-10-28 10:32:43.671875
2328,-19.9,2022-10-28 10:32:43.687500
2329,-21.54,2022-10-28 10:32:43.703125
2330,-23.46,2022-10-28 10:32:43.718750
2331,-25.57,2022-10-28 10:32:43.734375
2332,-27.7,2022-10-28 10:32:43.750000
2333,-29.63,2022-10-28 10:32:43.765625
2334,-31.24,2022-10-28 10:32:43.781250
2335,-32.63,2022-10-28 10:32:43.796875
2336,-34.08,2022-10-28 10:32:43.812500
2337,-35.98,2022-10-28 10:32:43.828125
2338,-38.55,2022-10-28 10:32:43.843750
2339,-41.78,2022-10-28 10:32:43.859375
2340,-45.27,2022-10-28 10:32:43.875000
2341,-48.33,2022-10-28 10:32:43.890625
2342,-50.14,2022-10-28 10:32:43.906250
2343,-49.97,2022-10-28 10:32:43.921875
2344,-47.41,2022-10-28 10:32:43.937500
2345,-42.43,2022-10-28 10:32:43.953125
2346,-35.49,2022-10-28 10:32:43.968750
2347,-27.32,2022-10-28 10:32:43.984375
2348,-18.78,2022-10-28 10:32:44.000000
2349,-10.65,2022-10-28 10:32:44.015625
2350,-3.49,2022-10-28 10:32:44.031250
2351,2.47,2022-10-28 10:32:44.046875
2352,7.28,2022-10-28 10:32:44.062500
2353,11.21,2022-10-28 10:32:44.078125
2354,14.57,2022-10-28 10:32:44.093750
2355,17.58,2022-10-28 10:32:44.109375
2356,20.31,2022-10-28 10:32:44.125000
2357,22.63,2022-10-28 10:32:44.140625
2358,24.33,2022-10-28 10:32:44.156250
2359,25.27,2022-10-28 10:32:44.171875
2360,25.51,2022-10-28 10:32:44.187500
2361,25.32,2022-10-28 10:32:44.203125
2362,25.09,2022-10-28 10:32:44.218750
2363,25.19,2022-10-28 10:32:44.234375
2364,25.82,2022-10-28 10:32:44.250000
2365,26.93,2022-10-28 10:32:44.265625
2366,28.33,2022-10-28 10:32:44.281250
2367,29.81,2022-10-28 10:32:44.296875
2368,31.25,2022-10-28 10:32:44.312500
2369,32.6,2022-10-28 10:32:44.328125
2370,33.85,2022-10-28 10:32:44.343750
2371,34.86,2022-10-28 10:32:44.359375
2372,35.41,2022-10-28 10:32:44.375000
2373,35.21,2022-10-28 10:32:44.390625
2374,34.13,2022-10-28 10:32:44.406250
2375,32.26,2022-10-28 10:32:44.421875
2376,29.95,2022-10-28 10:32:44.437500
2377,27.6,2022-10-28 10:32:44.453125
2378,25.54,2022-10-28 10:32:44.468750
2379,23.85,2022-10-28 10:32:44.484375
2380,22.46,2022-10-28 10:32:44.500000
2381,21.22,2022-10-28 10:32:44.515625
2382,20.08,2022-10-28 10:32:44.531250
2383,19.1,2022-10-28 10:32:44.546875
2384,18.36,2022-10-28 10:32:44.562500
2385,17.76,2022-10-28 10:32:44.578125
2386,16.96,2022-10-28 10:32:44.593750
2387,15.41,2022-10-28 10:32:44.609375
2388,12.53,2022-10-28 10:32:44.625000
2389,8.0,2022-10-28 10:32:44.640625
2390,1.89,2022-10-28 10:32:44.656250
2391,-5.35,2022-10-28 10:32:44.671875
2392,-13.0,2022-10-28 10:32:44.687500
2393,-20.36,2022-10-28 10:32:44.703125
2394,-26.89,2022-10-28 10:32:44.718750
2395,-32.31,2022-10-28 10:32:44.734375
2396,-36.57,2022-10-28 10:32:44.750000
2397,-39.75,2022-10-28 10:32:44.765625
2398,-42.09,2022-10-28 10:32:44.781250
2399,-43.9,2022-10-28 10:32:44.796875
2400,-45.65,2022-10-28 10:32:44.812500
2401,-47.83,2022-10-28 10:32:44.828125
2402,-50.8,2022-10-28 10:32:44.843750
2403,-54.6,2022-10-28 10:32:44.859375
2404,-58.71,2022-10-28 10:32:44.875000
2405,-62.19,2022-10-28 10:32:44.890625
2406,-63.84,2022-10-28 10:32:44.906250
2407,-62.67,2022-10-28 10:32:44.921875
2408,-58.21,2022-10-28 10:32:44.937500
2409,-50.74,2022-10-28 10:32:44.953125
2410,-41.19,2022-10-28 10:32:44.968750
2411,-30.8,2022-10-28 10:32:44.984375
2412,-20.72,2022-10-28 10:32:45.000000
2413,-11.72,2022-10-28 10:32:45.015625
2414,-4.07,2022-10-28 10:32:45.031250
2415,2.35,2022-10-28 10:32:45.046875
2416,7.66,2022-10-28 10:32:45.062500
2417,11.89,2022-10-28 10:32:45.078125
2418,14.81,2022-10-28 10:32:45.093750
2419,16.19,2022-10-28 10:32:45.109375
2420,15.98,2022-10-28 10:32:45.125000
2421,14.52,2022-10-28 10:32:45.140625
2422,12.53,2022-10-28 10:32:45.156250
2423,10.84,2022-10-28 10:32:45.171875
2424,10.13,2022-10-28 10:32:45.187500
2425,10.64,2022-10-28 10:32:45.203125
2426,12.22,2022-10-28 10:32:45.218750
2427,14.44,2022-10-28 10:32:45.234375
2428,16.94,2022-10-28 10:32:45.250000
2429,19.51,2022-10-28 10:32:45.265625
2430,22.19,2022-10-28 10:32:45.281250
2431,25.08,2022-10-28 10:32:45.296875
2432,28.19,2022-10-28 10:32:45.312500
2433,31.43,2022-10-28 10:32:45.328125
2434,34.62,2022-10-28 10:32:45.343750
2435,37.67,2022-10-28 10:32:45.359375
2436,40.68,2022-10-28 10:32:45.375000
2437,43.92,2022-10-28 10:32:45.390625
2438,47.67,2022-10-28 10:32:45.406250
2439,52.0,2022-10-28 10:32:45.421875
2440,56.68,2022-10-28 10:32:45.437500
2441,61.18,2022-10-28 10:32:45.453125
2442,64.83,2022-10-28 10:32:45.468750
2443,67.07,2022-10-28 10:32:45.484375
2444,67.6,2022-10-28 10:32:45.500000
2445,66.47,2022-10-28 10:32:45.515625
2446,64.01,2022-10-28 10:32:45.531250
2447,60.64,2022-10-28 10:32:45.546875
2448,56.77,2022-10-28 10:32:45.562500
2449,52.68,2022-10-28 10:32:45.578125
2450,48.55,2022-10-28 10:32:45.593750
2451,44.45,2022-10-28 10:32:45.609375
2452,40.45,2022-10-28 10:32:45.625000
2453,36.57,2022-10-28 10:32:45.640625
2454,32.86,2022-10-28 10:32:45.656250
2455,29.28,2022-10-28 10:32:45.671875
2456,25.83,2022-10-28 10:32:45.687500
2457,22.44,2022-10-28 10:32:45.703125
2458,19.13,2022-10-28 10:32:45.718750
2459,15.93,2022-10-28 10:32:45.734375
2460,12.97,2022-10-28 10:32:45.750000
2461,10.36,2022-10-28 10:32:45.765625
2462,8.17,2022-10-28 10:32:45.781250
2463,6.4,2022-10-28 10:32:45.796875
2464,4.87,2022-10-28 10:32:45.812500
2465,3.37,2022-10-28 10:32:45.828125
2466,1.66,2022-10-28 10:32:45.843750
2467,-0.37,2022-10-28 10:32:45.859375
2468,-2.72,2022-10-28 10:32:45.875000
2469,-5.28,2022-10-28 10:32:45.890625
2470,-7.94,2022-10-28 10:32:45.906250
2471,-10.67,2022-10-28 10:32:45.921875
2472,-13.53,2022-10-28 10:32:45.937500
2473,-16.68,2022-10-28 10:32:45.953125
2474,-20.28,2022-10-28 10:32:45.968750
2475,-24.5,2022-10-28 10:32:45.984375
2476,-29.39,2022-10-28 10:32:46.000000
2477,-34.88,2022-10-28 10:32:46.015625
2478,-40.64,2022-10-28 10:32:46.031250
2479,-46.12,2022-10-28 10:32:46.046875
2480,-50.52,2022-10-28 10:32:46.062500
2481,-53.02,2022-10-28 10:32:46.078125
2482,-53.05,2022-10-28 10:32:46.093750
2483,-50.53,2022-10-28 10:32:46.109375
2484,-46.0,2022-10-28 10:32:46.125000
2485,-40.42,2022-10-28 10:32:46.140625
2486,-34.84,2022-10-28 10:32:46.156250
2487,-30.06,2022-10-28 10:32:46.171875
2488,-26.42,2022-10-28 10:32:46.187500
2489,-23.83,2022-10-28 10:32:46.203125
2490,-21.96,2022-10-28 10:32:46.218750
2491,-20.5,2022-10-28 10:32:46.234375
2492,-19.3,2022-10-28 10:32:46.250000
2493,-18.38,2022-10-28 10:32:46.265625
2494,-17.84,2022-10-28 10:32:46.281250
2495,-17.77,2022-10-28 10:32:46.296875
2496,-18.18,2022-10-28 10:32:46.312500
2497,-19.02,2022-10-28 10:32:46.328125
2498,-20.18,2022-10-28 10:32:46.343750
2499,-21.51,2022-10-28 10:32:46.359375
2500,-22.81,2022-10-28 10:32:46.375000
2501,-23.78,2022-10-28 10:32:46.390625
2502,-24.11,2022-10-28 10:32:46.406250
2503,-23.5,2022-10-28 10:32:46.421875
2504,-21.8,2022-10-28 10:32:46.437500
2505,-19.04,2022-10-28 10:32:46.453125
2506,-15.44,2022-10-28 10:32:46.468750
2507,-11.33,2022-10-28 10:32:46.484375
2508,-7.08,2022-10-28 10:32:46.500000
2509,-3.02,2022-10-28 10:32:46.515625
2510,0.63,2022-10-28 10:32:46.531250
2511,3.76,2022-10-28 10:32:46.546875
2512,6.36,2022-10-28 10:32:46.562500
2513,8.5,2022-10-28 10:32:46.578125
2514,10.29,2022-10-28 10:32:46.593750
2515,11.86,2022-10-28 10:32:46.609375
2516,13.31,2022-10-28 10:32:46.625000
2517,14.67,2022-10-28 10:32:46.640625
2518,15.88,2022-10-28 10:32:46.656250
2519,16.8,2022-10-28 10:32:46.671875
2520,17.29,2022-10-28 10:32:46.687500
2521,17.23,2022-10-28 10:32:46.703125
2522,16.6,2022-10-28 10:32:46.718750
2523,15.53,2022-10-28 10:32:46.734375
2524,14.25,2022-10-28 10:32:46.750000
2525,12.99,2022-10-28 10:32:46.765625
2526,12.01,2022-10-28 10:32:46.781250
2527,11.44,2022-10-28 10:32:46.796875
2528,11.32,2022-10-28 10:32:46.812500
2529,11.57,2022-10-28 10:32:46.828125
2530,12.07,2022-10-28 10:32:46.843750
2531,12.7,2022-10-28 10:32:46.859375
2532,13.33,2022-10-28 10:32:46.875000
2533,13.88,2022-10-28 10:32:46.890625
2534,14.29,2022-10-28 10:32:46.906250
2535,14.46,2022-10-28 10:32:46.921875
2536,14.32,2022-10-28 10:32:46.937500
2537,13.73,2022-10-28 10:32:46.953125
2538,12.58,2022-10-28 10:32:46.968750
2539,10.77,2022-10-28 10:32:46.984375
2540,8.25,2022-10-28 10:32:47.000000
2541,5.03,2022-10-28 10:32:47.015625
2542,1.25,2022-10-28 10:32:47.031250
2543,-2.84,2022-10-28 10:32:47.046875
2544,-6.95,2022-10-28 10:32:47.062500
2545,-10.8,2022-10-28 10:32:47.078125
2546,-14.3,2022-10-28 10:32:47.093750
2547,-17.61,2022-10-28 10:32:47.109375
2548,-21.13,2022-10-28 10:32:47.125000
2549,-25.39,2022-10-28 10:32:47.140625
2550,-30.74,2022-10-28 10:32:47.156250
2551,-37.13,2022-10-28 10:32:47.171875
2552,-44.01,2022-10-28 10:32:47.187500
2553,-50.41,2022-10-28 10:32:47.203125
2554,-55.19,2022-10-28 10:32:47.218750
2555,-57.38,2022-10-28 10:32:47.234375
2556,-56.46,2022-10-28 10:32:47.250000
2557,-52.42,2022-10-28 10:32:47.265625
2558,-45.79,2022-10-28 10:32:47.281250
2559,-37.47,2022-10-28 10:32:47.296875
2560,-28.43,2022-10-28 10:32:47.312500
2561,-19.63,2022-10-28 10:32:47.328125
2562,-11.79,2022-10-28 10:32:47.343750
2563,-5.41,2022-10-28 10:32:47.359375
2564,-0.74,2022-10-28 10:32:47.375000
2565,2.23,2022-10-28 10:32:47.390625
2566,3.7,2022-10-28 10:32:47.406250
2567,4.04,2022-10-28 10:32:47.421875
2568,3.75,2022-10-28 10:32:47.437500
2569,3.25,2022-10-28 10:32:47.453125
2570,2.8,2022-10-28 10:32:47.468750
2571,2.42,2022-10-28 10:32:47.484375
2572,1.91,2022-10-28 10:32:47.500000
2573,0.99,2022-10-28 10:32:47.515625
2574,-0.55,2022-10-28 10:32:47.531250
2575,-2.63,2022-10-28 10:32:47.546875
2576,-4.88,2022-10-28 10:32:47.562500
2577,-6.75,2022-10-28 10:32:47.578125
2578,-7.68,2022-10-28 10:32:47.593750
2579,-7.26,2022-10-28 10:32:47.609375
2580,-5.4,2022-10-28 10:32:47.625000
2581,-2.37,2022-10-28 10:32:47.640625
2582,1.15,2022-10-28 10:32:47.656250
2583,4.06,2022-10-28 10:32:47.671875
2584,5.1,2022-10-28 10:32:47.687500
2585,3.35,2022-10-28 10:32:47.703125
2586,-1.0,2022-10-28 10:32:47.718750
2587,-6.1,2022-10-28 10:32:47.734375
2588,-8.38,2022-10-28 10:32:47.750000
2589,-3.29,2022-10-28 10:32:47.765625
2590,13.46,2022-10-28 10:32:47.781250
2591,44.44,2022-10-28 10:32:47.796875
2592,89.57,2022-10-28 10:32:47.812500
2593,146.02,2022-10-28 10:32:47.828125
2594,208.92,2022-10-28 10:32:47.843750
2595,272.4,2022-10-28 10:32:47.859375
2596,330.54,2022-10-28 10:32:47.875000
2597,377.94,2022-10-28 10:32:47.890625
2598,410.04,2022-10-28 10:32:47.906250
2599,423.43,2022-10-28 10:32:47.921875
2600,416.25,2022-10-28 10:32:47.937500
2601,388.57,2022-10-28 10:32:47.953125
2602,342.42,2022-10-28 10:32:47.968750
2603,281.43,2022-10-28 10:32:47.984375
2604,210.41,2022-10-28 10:32:48.000000
2605,134.69,2022-10-28 10:32:48.015625
2606,59.7,2022-10-28 10:32:48.031250
2607,-9.44,2022-10-28 10:32:48.046875
2608,-68.65,2022-10-28 10:32:48.062500
2609,-115.49,2022-10-28 10:32:48.078125
2610,-149.67,2022-10-28 10:32:48.093750
2611,-172.9,2022-10-28 10:32:48.109375
2612,-188.17,2022-10-28 10:32:48.125000
2613,-198.6,2022-10-28 10:32:48.140625
2614,-206.46,2022-10-28 10:32:48.156250
2615,-212.77,2022-10-28 10:32:48.171875
2616,-217.73,2022-10-28 10:32:48.187500
2617,-221.28,2022-10-28 10:32:48.203125
2618,-223.54,2022-10-28 10:32:48.218750
2619,-224.68,2022-10-28 10:32:48.234375
2620,-224.53,2022-10-28 10:32:48.250000
2621,-222.3,2022-10-28 10:32:48.265625
2622,-216.7,2022-10-28 10:32:48.281250
2623,-206.58,2022-10-28 10:32:48.296875
2624,-191.54,2022-10-28 10:32:48.312500
2625,-172.3,2022-10-28 10:32:48.328125
2626,-150.46,2022-10-28 10:32:48.343750
2627,-128.02,2022-10-28 10:32:48.359375
2628,-106.68,2022-10-28 10:32:48.375000
2629,-87.63,2022-10-28 10:32:48.390625
2630,-71.57,2022-10-28 10:32:48.406250
2631,-58.95,2022-10-28 10:32:48.421875
2632,-50.16,2022-10-28 10:32:48.437500
2633,-45.4,2022-10-28 10:32:48.453125
2634,-44.45,2022-10-28 10:32:48.468750
2635,-46.43,2022-10-28 10:32:48.484375
2636,-49.84,2022-10-28 10:32:48.500000
2637,-52.9,2022-10-28 10:32:48.515625
2638,-54.09,2022-10-28 10:32:48.531250
2639,-52.58,2022-10-28 10:32:48.546875
2640,-48.27,2022-10-28 10:32:48.562500
2641,-41.65,2022-10-28 10:32:48.578125
2642,-33.4,2022-10-28 10:32:48.593750
2643,-24.1,2022-10-28 10:32:48.609375
2644,-14.18,2022-10-28 10:32:48.625000
2645,-4.02,2022-10-28 10:32:48.640625
2646,5.9,2022-10-28 10:32:48.656250
2647,14.99,2022-10-28 10:32:48.671875
2648,22.71,2022-10-28 10:32:48.687500
2649,28.69,2022-10-28 10:32:48.703125
2650,32.91,2022-10-28 10:32:48.718750
2651,35.65,2022-10-28 10:32:48.734375
2652,37.31,2022-10-28 10:32:48.750000
2653,38.25,2022-10-28 10:32:48.765625
2654,38.72,2022-10-28 10:32:48.781250
2655,38.73,2022-10-28 10:32:48.796875
2656,38.25,2022-10-28 10:32:48.812500
2657,37.18,2022-10-28 10:32:48.828125
2658,35.56,2022-10-28 10:32:48.843750
2659,33.5,2022-10-28 10:32:48.859375
2660,31.22,2022-10-28 10:32:48.875000
2661,28.91,2022-10-28 10:32:48.890625
2662,26.71,2022-10-28 10:32:48.906250
2663,24.57,2022-10-28 10:32:48.921875
2664,22.29,2022-10-28 10:32:48.937500
2665,19.64,2022-10-28 10:32:48.953125
2666,16.39,2022-10-28 10:32:48.968750
2667,12.51,2022-10-28 10:32:48.984375
2668,8.19,2022-10-28 10:32:49.000000
2669,3.8,2022-10-28 10:32:49.015625
2670,-0.29,2022-10-28 10:32:49.031250
2671,-3.78,2022-10-28 10:32:49.046875
2672,-6.62,2022-10-28 10:32:49.062500
2673,-9.01,2022-10-28 10:32:49.078125
2674,-11.3,2022-10-28 10:32:49.093750
2675,-13.88,2022-10-28 10:32:49.109375
2676,-17.04,2022-10-28 10:32:49.125000
2677,-20.82,2022-10-28 10:32:49.140625
2678,-25.03,2022-10-28 10:32:49.156250
2679,-29.34,2022-10-28 10:32:49.171875
2680,-33.34,2022-10-28 10:32:49.187500
2681,-36.83,2022-10-28 10:32:49.203125
2682,-39.87,2022-10-28 10:32:49.218750
2683,-42.79,2022-10-28 10:32:49.234375
2684,-46.09,2022-10-28 10:32:49.250000
2685,-50.19,2022-10-28 10:32:49.265625
2686,-55.09,2022-10-28 10:32:49.281250
2687,-60.21,2022-10-28 10:32:49.296875
2688,-64.45,2022-10-28 10:32:49.312500
2689,-66.44,2022-10-28 10:32:49.328125
2690,-65.03,2022-10-28 10:32:49.343750
2691,-59.67,2022-10-28 10:32:49.359375
2692,-50.58,2022-10-28 10:32:49.375000
2693,-38.71,2022-10-28 10:32:49.390625
2694,-25.4,2022-10-28 10:32:49.406250
2695,-12.04,2022-10-28 10:32:49.421875
2696,0.24,2022-10-28 10:32:49.437500
2697,10.7,2022-10-28 10:32:49.453125
2698,19.07,2022-10-28 10:32:49.468750
2699,25.44,2022-10-28 10:32:49.484375
2700,30.2,2022-10-28 10:32:49.500000
2701,33.88,2022-10-28 10:32:49.515625
2702,36.94,2022-10-28 10:32:49.531250
2703,39.69,2022-10-28 10:32:49.546875
2704,42.2,2022-10-28 10:32:49.562500
2705,44.31,2022-10-28 10:32:49.578125
2706,45.86,2022-10-28 10:32:49.593750
2707,46.83,2022-10-28 10:32:49.609375
2708,47.41,2022-10-28 10:32:49.625000
2709,47.94,2022-10-28 10:32:49.640625
2710,48.78,2022-10-28 10:32:49.656250
2711,50.15,2022-10-28 10:32:49.671875
2712,52.13,2022-10-28 10:32:49.687500
2713,54.63,2022-10-28 10:32:49.703125
2714,57.5,2022-10-28 10:32:49.718750
2715,60.53,2022-10-28 10:32:49.734375
2716,63.45,2022-10-28 10:32:49.750000
2717,65.9,2022-10-28 10:32:49.765625
2718,67.51,2022-10-28 10:32:49.781250
2719,68.03,2022-10-28 10:32:49.796875
2720,67.38,2022-10-28 10:32:49.812500
2721,65.81,2022-10-28 10:32:49.828125
2722,63.77,2022-10-28 10:32:49.843750
2723,61.77,2022-10-28 10:32:49.859375
2724,60.15,2022-10-28 10:32:49.875000
2725,58.98,2022-10-28 10:32:49.890625
2726,58.03,2022-10-28 10:32:49.906250
2727,56.91,2022-10-28 10:32:49.921875
2728,55.27,2022-10-28 10:32:49.937500
2729,52.94,2022-10-28 10:32:49.953125
2730,49.97,2022-10-28 10:32:49.968750
2731,46.56,2022-10-28 10:32:49.984375
2732,43.0,2022-10-28 10:32:50.000000
2733,39.46,2022-10-28 10:32:50.015625
2734,36.03,2022-10-28 10:32:50.031250
2735,32.67,2022-10-28 10:32:50.046875
2736,29.32,2022-10-28 10:32:50.062500
2737,25.97,2022-10-28 10:32:50.078125
2738,22.67,2022-10-28 10:32:50.093750
2739,19.51,2022-10-28 10:32:50.109375
2740,16.61,2022-10-28 10:32:50.125000
2741,13.99,2022-10-28 10:32:50.140625
2742,11.61,2022-10-28 10:32:50.156250
2743,9.33,2022-10-28 10:32:50.171875
2744,7.0,2022-10-28 10:32:50.187500
2745,4.51,2022-10-28 10:32:50.203125
2746,1.84,2022-10-28 10:32:50.218750
2747,-0.92,2022-10-28 10:32:50.234375
2748,-3.7,2022-10-28 10:32:50.250000
2749,-6.38,2022-10-28 10:32:50.265625
2750,-8.91,2022-10-28 10:32:50.281250
2751,-11.29,2022-10-28 10:32:50.296875
2752,-13.59,2022-10-28 10:32:50.312500
2753,-15.95,2022-10-28 10:32:50.328125
2754,-18.64,2022-10-28 10:32:50.343750
2755,-21.94,2022-10-28 10:32:50.359375
2756,-26.09,2022-10-28 10:32:50.375000
2757,-31.1,2022-10-28 10:32:50.390625
2758,-36.61,2022-10-28 10:32:50.406250
2759,-41.84,2022-10-28 10:32:50.421875
2760,-45.74,2022-10-28 10:32:50.437500
2761,-47.21,2022-10-28 10:32:50.453125
2762,-45.44,2022-10-28 10:32:50.468750
2763,-40.22,2022-10-28 10:32:50.484375
2764,-31.98,2022-10-28 10:32:50.500000
2765,-21.78,2022-10-28 10:32:50.515625
2766,-10.95,2022-10-28 10:32:50.531250
2767,-0.78,2022-10-28 10:32:50.546875
2768,7.77,2022-10-28 10:32:50.562500
2769,14.27,2022-10-28 10:32:50.578125
2770,18.82,2022-10-28 10:32:50.593750
2771,21.89,2022-10-28 10:32:50.609375
2772,24.04,2022-10-28 10:32:50.625000
2773,25.72,2022-10-28 10:32:50.640625
2774,27.16,2022-10-28 10:32:50.656250
2775,28.34,2022-10-28 10:32:50.671875
2776,29.21,2022-10-28 10:32:50.687500
2777,29.75,2022-10-28 10:32:50.703125
2778,30.13,2022-10-28 10:32:50.718750
2779,30.65,2022-10-28 10:32:50.734375
2780,31.62,2022-10-28 10:32:50.750000
2781,33.27,2022-10-28 10:32:50.765625
2782,35.57,2022-10-28 10:32:50.781250
2783,38.36,2022-10-28 10:32:50.796875
2784,41.34,2022-10-28 10:32:50.812500
2785,44.24,2022-10-28 10:32:50.828125
2786,46.85,2022-10-28 10:32:50.843750
2787,49.07,2022-10-28 10:32:50.859375
2788,50.82,2022-10-28 10:32:50.875000
2789,52.01,2022-10-28 10:32:50.890625
2790,52.52,2022-10-28 10:32:50.906250
2791,52.29,2022-10-28 10:32:50.921875
2792,51.3,2022-10-28 10:32:50.937500
2793,49.61,2022-10-28 10:32:50.953125
2794,47.38,2022-10-28 10:32:50.968750
2795,44.78,2022-10-28 10:32:50.984375
2796,41.98,2022-10-28 10:32:51.000000
2797,39.14,2022-10-28 10:32:51.015625
2798,36.34,2022-10-28 10:32:51.031250
2799,33.68,2022-10-28 10:32:51.046875
2800,31.25,2022-10-28 10:32:51.062500
2801,29.14,2022-10-28 10:32:51.078125
2802,27.41,2022-10-28 10:32:51.093750
2803,26.15,2022-10-28 10:32:51.109375
2804,25.35,2022-10-28 10:32:51.125000
2805,24.94,2022-10-28 10:32:51.140625
2806,24.7,2022-10-28 10:32:51.156250
2807,24.29,2022-10-28 10:32:51.171875
2808,23.37,2022-10-28 10:32:51.187500
2809,21.71,2022-10-28 10:32:51.203125
2810,19.3,2022-10-28 10:32:51.218750
2811,16.33,2022-10-28 10:32:51.234375
2812,13.16,2022-10-28 10:32:51.250000
2813,10.06,2022-10-28 10:32:51.265625
2814,7.01,2022-10-28 10:32:51.281250
2815,3.68,2022-10-28 10:32:51.296875
2816,-0.59,2022-10-28 10:32:51.312500
2817,-6.46,2022-10-28 10:32:51.328125
2818,-14.32,2022-10-28 10:32:51.343750
2819,-24.06,2022-10-28 10:32:51.359375
2820,-35.03,2022-10-28 10:32:51.375000
2821,-46.18,2022-10-28 10:32:51.390625
2822,-56.38,2022-10-28 10:32:51.406250
2823,-64.77,2022-10-28 10:32:51.421875
2824,-70.92,2022-10-28 10:32:51.437500
2825,-74.98,2022-10-28 10:32:51.453125
2826,-77.47,2022-10-28 10:32:51.468750
2827,-79.18,2022-10-28 10:32:51.484375
2828,-80.86,2022-10-28 10:32:51.500000
2829,-83.08,2022-10-28 10:32:51.515625
2830,-85.98,2022-10-28 10:32:51.531250
2831,-89.25,2022-10-28 10:32:51.546875
2832,-92.07,2022-10-28 10:32:51.562500
2833,-93.26,2022-10-28 10:32:51.578125
2834,-91.7,2022-10-28 10:32:51.593750
2835,-86.61,2022-10-28 10:32:51.609375
2836,-78.01,2022-10-28 10:32:51.625000
2837,-66.66,2022-10-28 10:32:51.640625
2838,-53.91,2022-10-28 10:32:51.656250
2839,-41.25,2022-10-28 10:32:51.671875
2840,-29.92,2022-10-28 10:32:51.687500
2841,-20.61,2022-10-28 10:32:51.703125
2842,-13.42,2022-10-28 10:32:51.718750
2843,-8.09,2022-10-28 10:32:51.734375
2844,-4.17,2022-10-28 10:32:51.750000
2845,-1.25,2022-10-28 10:32:51.765625
2846,0.94,2022-10-28 10:32:51.781250
2847,2.5,2022-10-28 10:32:51.796875
2848,3.51,2022-10-28 10:32:51.812500
2849,4.01,2022-10-28 10:32:51.828125
2850,4.15,2022-10-28 10:32:51.843750
2851,4.21,2022-10-28 10:32:51.859375
2852,4.46,2022-10-28 10:32:51.875000
2853,5.18,2022-10-28 10:32:51.890625
2854,6.47,2022-10-28 10:32:51.906250
2855,8.28,2022-10-28 10:32:51.921875
2856,10.36,2022-10-28 10:32:51.937500
2857,12.49,2022-10-28 10:32:51.953125
2858,14.47,2022-10-28 10:32:51.968750
2859,16.22,2022-10-28 10:32:51.984375
2860,17.75,2022-10-28 10:32:52.000000
2861,19.07,2022-10-28 10:32:52.015625
2862,20.19,2022-10-28 10:32:52.031250
2863,21.04,2022-10-28 10:32:52.046875
2864,21.55,2022-10-28 10:32:52.062500
2865,21.66,2022-10-28 10:32:52.078125
2866,21.36,2022-10-28 10:32:52.093750
2867,20.72,2022-10-28 10:32:52.109375
2868,19.85,2022-10-28 10:32:52.125000
2869,18.94,2022-10-28 10:32:52.140625
2870,18.13,2022-10-28 10:32:52.156250
2871,17.52,2022-10-28 10:32:52.171875
2872,17.12,2022-10-28 10:32:52.187500
2873,16.83,2022-10-28 10:32:52.203125
2874,16.53,2022-10-28 10:32:52.218750
2875,16.11,2022-10-28 10:32:52.234375
2876,15.58,2022-10-28 10:32:52.250000
2877,14.95,2022-10-28 10:32:52.265625
2878,14.3,2022-10-28 10:32:52.281250
2879,13.63,2022-10-28 10:32:52.296875
2880,12.89,2022-10-28 10:32:52.312500
2881,12.0,2022-10-28 10:32:52.328125
2882,10.96,2022-10-28 10:32:52.343750
2883,9.8,2022-10-28 10:32:52.359375
2884,8.66,2022-10-28 10:32:52.375000
2885,7.64,2022-10-28 10:32:52.390625
2886,6.73,2022-10-28 10:32:52.406250
2887,5.83,2022-10-28 10:32:52.421875
2888,4.68,2022-10-28 10:32:52.437500
2889,3.1,2022-10-28 10:32:52.453125
2890,0.99,2022-10-28 10:32:52.468750
2891,-1.57,2022-10-28 10:32:52.484375
2892,-4.36,2022-10-28 10:32:52.500000
2893,-7.16,2022-10-28 10:32:52.515625
2894,-9.81,2022-10-28 10:32:52.531250
2895,-12.35,2022-10-28 10:32:52.546875
2896,-14.94,2022-10-28 10:32:52.562500
2897,-17.88,2022-10-28 10:32:52.578125
2898,-21.45,2022-10-28 10:32:52.593750
2899,-25.82,2022-10-28 10:32:52.609375
2900,-30.88,2022-10-28 10:32:52.625000
2901,-36.16,2022-10-28 10:32:52.640625
2902,-40.85,2022-10-28 10:32:52.656250
2903,-43.98,2022-10-28 10:32:52.671875
2904,-44.66,2022-10-28 10:32:52.687500
2905,-42.42,2022-10-28 10:32:52.703125
2906,-37.45,2022-10-28 10:32:52.718750
2907,-30.5,2022-10-28 10:32:52.734375
2908,-22.74,2022-10-28 10:32:52.750000
2909,-15.32,2022-10-28 10:32:52.765625
2910,-9.07,2022-10-28 10:32:52.781250
2911,-4.39,2022-10-28 10:32:52.796875
2912,-1.18,2022-10-28 10:32:52.812500
2913,0.92,2022-10-28 10:32:52.828125
2914,2.37,2022-10-28 10:32:52.843750
2915,3.56,2022-10-28 10:32:52.859375
2916,4.77,2022-10-28 10:32:52.875000
2917,6.13,2022-10-28 10:32:52.890625
2918,7.65,2022-10-28 10:32:52.906250
2919,9.24,2022-10-28 10:32:52.921875
2920,10.74,2022-10-28 10:32:52.937500
2921,12.07,2022-10-28 10:32:52.953125
2922,13.25,2022-10-28 10:32:52.968750
2923,14.46,2022-10-28 10:32:52.984375
2924,15.96,2022-10-28 10:32:53.000000
2925,17.95,2022-10-28 10:32:53.015625
2926,20.53,2022-10-28 10:32:53.031250
2927,23.57,2022-10-28 10:32:53.046875
2928,26.86,2022-10-28 10:32:53.062500
2929,30.08,2022-10-28 10:32:53.078125
2930,33.0,2022-10-28 10:32:53.093750
2931,35.41,2022-10-28 10:32:53.109375
2932,37.19,2022-10-28 10:32:53.125000
2933,38.21,2022-10-28 10:32:53.140625
2934,38.38,2022-10-28 10:32:53.156250
2935,37.63,2022-10-28 10:32:53.171875
2936,36.02,2022-10-28 10:32:53.187500
2937,33.74,2022-10-28 10:32:53.203125
2938,31.06,2022-10-28 10:32:53.218750
2939,28.31,2022-10-28 10:32:53.234375
2940,25.69,2022-10-28 10:32:53.250000
2941,23.27,2022-10-28 10:32:53.265625
2942,21.0,2022-10-28 10:32:53.281250
2943,18.76,2022-10-28 10:32:53.296875
2944,16.47,2022-10-28 10:32:53.312500
2945,14.17,2022-10-28 10:32:53.328125
2946,11.97,2022-10-28 10:32:53.343750
2947,10.06,2022-10-28 10:32:53.359375
2948,8.63,2022-10-28 10:32:53.375000
2949,7.78,2022-10-28 10:32:53.390625
2950,7.49,2022-10-28 10:32:53.406250
2951,7.63,2022-10-28 10:32:53.421875
2952,7.94,2022-10-28 10:32:53.437500
2953,8.13,2022-10-28 10:32:53.453125
2954,7.93,2022-10-28 10:32:53.468750
2955,7.2,2022-10-28 10:32:53.484375
2956,5.93,2022-10-28 10:32:53.500000
2957,4.22,2022-10-28 10:32:53.515625
2958,2.29,2022-10-28 10:32:53.531250
2959,0.33,2022-10-28 10:32:53.546875
2960,-1.54,2022-10-28 10:32:53.562500
2961,-3.32,2022-10-28 10:32:53.578125
2962,-5.12,2022-10-28 10:32:53.593750
2963,-7.09,2022-10-28 10:32:53.609375
2964,-9.33,2022-10-28 10:32:53.625000
2965,-11.85,2022-10-28 10:32:53.640625
2966,-14.52,2022-10-28 10:32:53.656250
2967,-17.12,2022-10-28 10:32:53.671875
2968,-19.43,2022-10-28 10:32:53.687500
2969,-21.34,2022-10-28 10:32:53.703125
2970,-22.9,2022-10-28 10:32:53.718750
2971,-24.33,2022-10-28 10:32:53.734375
2972,-25.94,2022-10-28 10:32:53.750000
2973,-28.12,2022-10-28 10:32:53.765625
2974,-31.14,2022-10-28 10:32:53.781250
2975,-35.1,2022-10-28 10:32:53.796875
2976,-39.8,2022-10-28 10:32:53.812500
2977,-44.7,2022-10-28 10:32:53.828125
2978,-48.99,2022-10-28 10:32:53.843750
2979,-51.73,2022-10-28 10:32:53.859375
2980,-52.09,2022-10-28 10:32:53.875000
2981,-49.64,2022-10-28 10:32:53.890625
2982,-44.5,2022-10-28 10:32:53.906250
2983,-37.37,2022-10-28 10:32:53.921875
2984,-29.33,2022-10-28 10:32:53.937500
2985,-21.5,2022-10-28 10:32:53.953125
2986,-14.82,2022-10-28 10:32:53.968750
2987,-9.77,2022-10-28 10:32:53.984375
2988,-6.39,2022-10-28 10:32:54.000000
2989,-4.36,2022-10-28 10:32:54.015625
2990,-3.16,2022-10-28 10:32:54.031250
2991,-2.29,2022-10-28 10:32:54.046875
2992,-1.38,2022-10-28 10:32:54.062500
2993,-0.28,2022-10-28 10:32:54.078125
2994,0.97,2022-10-28 10:32:54.093750
2995,2.15,2022-10-28 10:32:54.109375
2996,3.03,2022-10-28 10:32:54.125000
2997,3.44,2022-10-28 10:32:54.140625
2998,3.36,2022-10-28 10:32:54.156250
2999,3.01,2022-10-28 10:32:54.171875
3000,2.76,2022-10-28 10:32:54.187500
3001,3.09,2022-10-28 10:32:54.203125
3002,4.41,2022-10-28 10:32:54.218750
3003,6.94,2022-10-28 10:32:54.234375
3004,10.63,2022-10-28 10:32:54.250000
3005,15.22,2022-10-28 10:32:54.265625
3006,20.25,2022-10-28 10:32:54.281250
3007,25.23,2022-10-28 10:32:54.296875
3008,29.63,2022-10-28 10:32:54.312500
3009,33.01,2022-10-28 10:32:54.328125
3010,35.03,2022-10-28 10:32:54.343750
3011,35.57,2022-10-28 10:32:54.359375
3012,34.75,2022-10-28 10:32:54.375000
3013,32.95,2022-10-28 10:32:54.390625
3014,30.68,2022-10-28 10:32:54.406250
3015,28.4,2022-10-28 10:32:54.421875
3016,26.39,2022-10-28 10:32:54.437500
3017,24.67,2022-10-28 10:32:54.453125
3018,23.05,2022-10-28 10:32:54.468750
3019,21.28,2022-10-28 10:32:54.484375
3020,19.21,2022-10-28 10:32:54.500000
3021,16.87,2022-10-28 10:32:54.515625
3022,14.43,2022-10-28 10:32:54.531250
3023,12.16,2022-10-28 10:32:54.546875
3024,10.3,2022-10-28 10:32:54.562500
3025,8.99,2022-10-28 10:32:54.578125
3026,8.26,2022-10-28 10:32:54.593750
3027,7.97,2022-10-28 10:32:54.609375
3028,7.87,2022-10-28 10:32:54.625000
3029,7.65,2022-10-28 10:32:54.640625
3030,7.04,2022-10-28 10:32:54.656250
3031,5.94,2022-10-28 10:32:54.671875
3032,4.4,2022-10-28 10:32:54.687500
3033,2.61,2022-10-28 10:32:54.703125
3034,0.77,2022-10-28 10:32:54.718750
3035,-0.99,2022-10-28 10:32:54.734375
3036,-2.67,2022-10-28 10:32:54.750000
3037,-4.43,2022-10-28 10:32:54.765625
3038,-6.44,2022-10-28 10:32:54.781250
3039,-8.97,2022-10-28 10:32:54.796875
3040,-12.19,2022-10-28 10:32:54.812500
3041,-16.2,2022-10-28 10:32:54.828125
3042,-20.9,2022-10-28 10:32:54.843750
3043,-25.87,2022-10-28 10:32:54.859375
3044,-30.36,2022-10-28 10:32:54.875000
3045,-33.43,2022-10-28 10:32:54.890625
3046,-34.25,2022-10-28 10:32:54.906250
3047,-32.4,2022-10-28 10:32:54.921875
3048,-28.08,2022-10-28 10:32:54.937500
3049,-22.06,2022-10-28 10:32:54.953125
3050,-15.45,2022-10-28 10:32:54.968750
3051,-9.34,2022-10-28 10:32:54.984375
3052,-4.5,2022-10-28 10:32:55.000000
3053,-1.29,2022-10-28 10:32:55.015625
3054,0.36,2022-10-28 10:32:55.031250
3055,0.79,2022-10-28 10:32:55.046875
3056,0.5,2022-10-28 10:32:55.062500
3057,0.01,2022-10-28 10:32:55.078125
3058,-0.28,2022-10-28 10:32:55.093750
3059,-0.12,2022-10-28 10:32:55.109375
3060,0.5,2022-10-28 10:32:55.125000
3061,1.47,2022-10-28 10:32:55.140625
3062,2.59,2022-10-28 10:32:55.156250
3063,3.73,2022-10-28 10:32:55.171875
3064,4.9,2022-10-28 10:32:55.187500
3065,6.22,2022-10-28 10:32:55.203125
3066,7.84,2022-10-28 10:32:55.218750
3067,9.83,2022-10-28 10:32:55.234375
3068,12.19,2022-10-28 10:32:55.250000
3069,14.86,2022-10-28 10:32:55.265625
3070,17.72,2022-10-28 10:32:55.281250
3071,20.65,2022-10-28 10:32:55.296875
3072,23.51,2022-10-28 10:32:55.312500
3073,26.07,2022-10-28 10:32:55.328125
3074,28.13,2022-10-28 10:32:55.343750
3075,29.51,2022-10-28 10:32:55.359375
3076,30.27,2022-10-28 10:32:55.375000
3077,30.66,2022-10-28 10:32:55.390625
3078,31.19,2022-10-28 10:32:55.406250
3079,32.23,2022-10-28 10:32:55.421875
3080,33.88,2022-10-28 10:32:55.437500
3081,35.81,2022-10-28 10:32:55.453125
3082,37.36,2022-10-28 10:32:55.468750
3083,37.88,2022-10-28 10:32:55.484375
3084,37.17,2022-10-28 10:32:55.500000
3085,35.75,2022-10-28 10:32:55.515625
3086,34.8,2022-10-28 10:32:55.531250
3087,35.77,2022-10-28 10:32:55.546875
3088,39.81,2022-10-28 10:32:55.562500
3089,47.22,2022-10-28 10:32:55.578125
3090,57.21,2022-10-28 10:32:55.593750
3091,68.13,2022-10-28 10:32:55.609375
3092,77.89,2022-10-28 10:32:55.625000
3093,84.51,2022-10-28 10:32:55.640625
3094,86.59,2022-10-28 10:32:55.656250
3095,83.54,2022-10-28 10:32:55.671875
3096,75.61,2022-10-28 10:32:55.687500
3097,63.8,2022-10-28 10:32:55.703125
3098,49.55,2022-10-28 10:32:55.718750
3099,34.44,2022-10-28 10:32:55.734375
3100,19.77,2022-10-28 10:32:55.750000
3101,6.4,2022-10-28 10:32:55.765625
3102,-5.4,2022-10-28 10:32:55.781250
3103,-15.76,2022-10-28 10:32:55.796875
3104,-24.94,2022-10-28 10:32:55.812500
3105,-33.1,2022-10-28 10:32:55.828125
3106,-40.23,2022-10-28 10:32:55.843750
3107,-46.27,2022-10-28 10:32:55.859375
3108,-51.18,2022-10-28 10:32:55.875000
3109,-55.11,2022-10-28 10:32:55.890625
3110,-58.31,2022-10-28 10:32:55.906250
3111,-61.06,2022-10-28 10:32:55.921875
3112,-63.56,2022-10-28 10:32:55.937500
3113,-65.9,2022-10-28 10:32:55.953125
3114,-68.13,2022-10-28 10:32:55.968750
3115,-70.26,2022-10-28 10:32:55.984375
3116,-72.23,2022-10-28 10:32:56.000000
3117,-73.92,2022-10-28 10:32:56.015625
3118,-75.14,2022-10-28 10:32:56.031250
3119,-75.74,2022-10-28 10:32:56.046875
3120,-75.71,2022-10-28 10:32:56.062500
3121,-75.25,2022-10-28 10:32:56.078125
3122,-74.75,2022-10-28 10:32:56.093750
3123,-74.69,2022-10-28 10:32:56.109375
3124,-75.39,2022-10-28 10:32:56.125000
3125,-76.87,2022-10-28 10:32:56.140625
3126,-78.74,2022-10-28 10:32:56.156250
3127,-80.21,2022-10-28 10:32:56.171875
3128,-80.24,2022-10-28 10:32:56.187500
3129,-77.81,2022-10-28 10:32:56.203125
3130,-72.23,2022-10-28 10:32:56.218750
3131,-63.42,2022-10-28 10:32:56.234375
3132,-51.95,2022-10-28 10:32:56.250000
3133,-38.87,2022-10-28 10:32:56.265625
3134,-25.34,2022-10-28 10:32:56.281250
3135,-12.21,2022-10-28 10:32:56.296875
3136,0.24,2022-10-28 10:32:56.312500
3137,12.39,2022-10-28 10:32:56.328125
3138,24.98,2022-10-28 10:32:56.343750
3139,38.72,2022-10-28 10:32:56.359375
3140,53.96,2022-10-28 10:32:56.375000
3141,70.47,2022-10-28 10:32:56.390625
3142,87.59,2022-10-28 10:32:56.406250
3143,104.35,2022-10-28 10:32:56.421875
3144,119.7,2022-10-28 10:32:56.437500
3145,132.64,2022-10-28 10:32:56.453125
3146,142.24,2022-10-28 10:32:56.468750
3147,147.63,2022-10-28 10:32:56.484375
3148,148.14,2022-10-28 10:32:56.500000
3149,143.42,2022-10-28 10:32:56.515625
3150,133.7,2022-10-28 10:32:56.531250
3151,119.84,2022-10-28 10:32:56.546875
3152,103.22,2022-10-28 10:32:56.562500
3153,85.5,2022-10-28 10:32:56.578125
3154,68.16,2022-10-28 10:32:56.593750
3155,52.23,2022-10-28 10:32:56.609375
3156,38.15,2022-10-28 10:32:56.625000
3157,25.87,2022-10-28 10:32:56.640625
3158,15.03,2022-10-28 10:32:56.656250
3159,5.26,2022-10-28 10:32:56.671875
3160,-3.7,2022-10-28 10:32:56.687500
