,BVP,time
0,-129.61,2021-12-17 17:15:41.843750
1,-145.21,2021-12-17 17:15:41.859375
2,-161.53,2021-12-17 17:15:41.875000
3,-178.06,2021-12-17 17:15:41.890625
4,-193.96,2021-12-17 17:15:41.906250
5,-208.15,2021-12-17 17:15:41.921875
6,-219.37,2021-12-17 17:15:41.937500
7,-226.5,2021-12-17 17:15:41.953125
8,-228.84,2021-12-17 17:15:41.968750
9,-226.33,2021-12-17 17:15:41.984375
10,-219.51,2021-12-17 17:15:42.000000
11,-209.45,2021-12-17 17:15:42.015625
12,-197.51,2021-12-17 17:15:42.031250
13,-185.26,2021-12-17 17:15:42.046875
14,-174.26,2021-12-17 17:15:42.062500
15,-165.91,2021-12-17 17:15:42.078125
16,-161.18,2021-12-17 17:15:42.093750
17,-160.23,2021-12-17 17:15:42.109375
18,-162.13,2021-12-17 17:15:42.125000
19,-164.85,2021-12-17 17:15:42.140625
20,-165.56,2021-12-17 17:15:42.156250
21,-161.41,2021-12-17 17:15:42.171875
22,-150.42,2021-12-17 17:15:42.187500
23,-132.31,2021-12-17 17:15:42.203125
24,-108.62,2021-12-17 17:15:42.218750
25,-82.37,2021-12-17 17:15:42.234375
26,-56.95,2021-12-17 17:15:42.250000
27,-34.95,2021-12-17 17:15:42.265625
28,-17.48,2021-12-17 17:15:42.281250
29,-4.1,2021-12-17 17:15:42.296875
30,6.52,2021-12-17 17:15:42.312500
31,15.73,2021-12-17 17:15:42.328125
32,24.22,2021-12-17 17:15:42.343750
33,31.94,2021-12-17 17:15:42.359375
34,38.42,2021-12-17 17:15:42.375000
35,43.26,2021-12-17 17:15:42.390625
36,46.44,2021-12-17 17:15:42.406250
37,48.28,2021-12-17 17:15:42.421875
38,49.17,2021-12-17 17:15:42.437500
39,49.24,2021-12-17 17:15:42.453125
40,48.37,2021-12-17 17:15:42.468750
41,46.36,2021-12-17 17:15:42.484375
42,43.15,2021-12-17 17:15:42.500000
43,39.02,2021-12-17 17:15:42.515625
44,34.49,2021-12-17 17:15:42.531250
45,30.17,2021-12-17 17:15:42.546875
46,26.46,2021-12-17 17:15:42.562500
47,23.44,2021-12-17 17:15:42.578125
48,20.77,2021-12-17 17:15:42.593750
49,17.89,2021-12-17 17:15:42.609375
50,14.26,2021-12-17 17:15:42.625000
51,9.68,2021-12-17 17:15:42.640625
52,4.43,2021-12-17 17:15:42.656250
53,-0.86,2021-12-17 17:15:42.671875
54,-5.46,2021-12-17 17:15:42.687500
55,-8.93,2021-12-17 17:15:42.703125
56,-11.46,2021-12-17 17:15:42.718750
57,-13.88,2021-12-17 17:15:42.734375
58,-17.48,2021-12-17 17:15:42.750000
59,-23.53,2021-12-17 17:15:42.765625
60,-32.7,2021-12-17 17:15:42.781250
61,-44.57,2021-12-17 17:15:42.796875
62,-57.59,2021-12-17 17:15:42.812500
63,-69.43,2021-12-17 17:15:42.828125
64,-77.68,2021-12-17 17:15:42.843750
65,-80.81,2021-12-17 17:15:42.859375
66,-78.72,2021-12-17 17:15:42.875000
67,-72.9,2021-12-17 17:15:42.890625
68,-65.92,2021-12-17 17:15:42.906250
69,-60.55,2021-12-17 17:15:42.921875
70,-58.99,2021-12-17 17:15:42.937500
71,-62.31,2021-12-17 17:15:42.953125
72,-70.2,2021-12-17 17:15:42.968750
73,-80.82,2021-12-17 17:15:42.984375
74,-90.86,2021-12-17 17:15:43.000000
75,-95.88,2021-12-17 17:15:43.015625
76,-91.34,2021-12-17 17:15:43.031250
77,-74.02,2021-12-17 17:15:43.046875
78,-43.74,2021-12-17 17:15:43.062500
79,-4.13,2021-12-17 17:15:43.078125
80,37.79,2021-12-17 17:15:43.093750
81,73.51,2021-12-17 17:15:43.109375
82,95.52,2021-12-17 17:15:43.125000
83,99.5,2021-12-17 17:15:43.140625
84,85.33,2021-12-17 17:15:43.156250
85,56.54,2021-12-17 17:15:43.171875
86,18.97,2021-12-17 17:15:43.187500
87,-21.09,2021-12-17 17:15:43.203125
88,-58.2,2021-12-17 17:15:43.218750
89,-88.62,2021-12-17 17:15:43.234375
90,-110.54,2021-12-17 17:15:43.250000
91,-123.99,2021-12-17 17:15:43.265625
92,-130.48,2021-12-17 17:15:43.281250
93,-132.51,2021-12-17 17:15:43.296875
94,-132.88,2021-12-17 17:15:43.312500
95,-134.1,2021-12-17 17:15:43.328125
96,-137.86,2021-12-17 17:15:43.343750
97,-144.77,2021-12-17 17:15:43.359375
98,-154.38,2021-12-17 17:15:43.375000
99,-165.51,2021-12-17 17:15:43.390625
100,-176.76,2021-12-17 17:15:43.406250
101,-187.0,2021-12-17 17:15:43.421875
102,-195.82,2021-12-17 17:15:43.437500
103,-203.63,2021-12-17 17:15:43.453125
104,-211.36,2021-12-17 17:15:43.468750
105,-219.68,2021-12-17 17:15:43.484375
106,-228.41,2021-12-17 17:15:43.500000
107,-236.19,2021-12-17 17:15:43.515625
108,-240.73,2021-12-17 17:15:43.531250
109,-239.63,2021-12-17 17:15:43.546875
110,-231.31,2021-12-17 17:15:43.562500
111,-215.75,2021-12-17 17:15:43.578125
112,-194.59,2021-12-17 17:15:43.593750
113,-170.5,2021-12-17 17:15:43.609375
114,-146.26,2021-12-17 17:15:43.625000
115,-123.71,2021-12-17 17:15:43.640625
116,-103.15,2021-12-17 17:15:43.656250
117,-83.3,2021-12-17 17:15:43.671875
118,-61.98,2021-12-17 17:15:43.687500
119,-37.05,2021-12-17 17:15:43.703125
120,-7.36,2021-12-17 17:15:43.718750
121,26.62,2021-12-17 17:15:43.734375
122,62.8,2021-12-17 17:15:43.750000
123,98.12,2021-12-17 17:15:43.765625
124,129.55,2021-12-17 17:15:43.781250
125,155.13,2021-12-17 17:15:43.796875
126,174.42,2021-12-17 17:15:43.812500
127,188.41,2021-12-17 17:15:43.828125
128,198.76,2021-12-17 17:15:43.843750
129,207.06,2021-12-17 17:15:43.859375
130,214.21,2021-12-17 17:15:43.875000
131,220.42,2021-12-17 17:15:43.890625
132,225.26,2021-12-17 17:15:43.906250
133,227.85,2021-12-17 17:15:43.921875
134,226.93,2021-12-17 17:15:43.937500
135,220.88,2021-12-17 17:15:43.953125
136,208.01,2021-12-17 17:15:43.968750
137,187.15,2021-12-17 17:15:43.984375
138,158.48,2021-12-17 17:15:44.000000
139,124.03,2021-12-17 17:15:44.015625
140,87.45,2021-12-17 17:15:44.031250
141,53.16,2021-12-17 17:15:44.046875
142,24.91,2021-12-17 17:15:44.062500
143,4.69,2021-12-17 17:15:44.078125
144,-7.71,2021-12-17 17:15:44.093750
145,-14.21,2021-12-17 17:15:44.109375
146,-17.43,2021-12-17 17:15:44.125000
147,-19.65,2021-12-17 17:15:44.140625
148,-22.22,2021-12-17 17:15:44.156250
149,-25.41,2021-12-17 17:15:44.171875
150,-28.92,2021-12-17 17:15:44.187500
151,-32.28,2021-12-17 17:15:44.203125
152,-35.22,2021-12-17 17:15:44.218750
153,-37.71,2021-12-17 17:15:44.234375
154,-39.83,2021-12-17 17:15:44.250000
155,-41.65,2021-12-17 17:15:44.265625
156,-43.13,2021-12-17 17:15:44.281250
157,-44.27,2021-12-17 17:15:44.296875
158,-45.27,2021-12-17 17:15:44.312500
159,-46.63,2021-12-17 17:15:44.328125
160,-49.02,2021-12-17 17:15:44.343750
161,-53.07,2021-12-17 17:15:44.359375
162,-58.95,2021-12-17 17:15:44.375000
163,-66.1,2021-12-17 17:15:44.390625
164,-73.28,2021-12-17 17:15:44.406250
165,-78.78,2021-12-17 17:15:44.421875
166,-80.96,2021-12-17 17:15:44.437500
167,-78.75,2021-12-17 17:15:44.453125
168,-71.89,2021-12-17 17:15:44.468750
169,-61.05,2021-12-17 17:15:44.484375
170,-47.57,2021-12-17 17:15:44.500000
171,-32.99,2021-12-17 17:15:44.515625
172,-18.78,2021-12-17 17:15:44.531250
173,-5.91,2021-12-17 17:15:44.546875
174,5.14,2021-12-17 17:15:44.562500
175,14.28,2021-12-17 17:15:44.578125
176,21.6,2021-12-17 17:15:44.593750
177,27.18,2021-12-17 17:15:44.609375
178,30.95,2021-12-17 17:15:44.625000
179,32.73,2021-12-17 17:15:44.640625
180,32.34,2021-12-17 17:15:44.656250
181,29.69,2021-12-17 17:15:44.671875
182,24.99,2021-12-17 17:15:44.687500
183,18.72,2021-12-17 17:15:44.703125
184,11.63,2021-12-17 17:15:44.718750
185,4.56,2021-12-17 17:15:44.734375
186,-1.83,2021-12-17 17:15:44.750000
187,-7.25,2021-12-17 17:15:44.765625
188,-11.96,2021-12-17 17:15:44.781250
189,-16.65,2021-12-17 17:15:44.796875
190,-22.22,2021-12-17 17:15:44.812500
191,-29.4,2021-12-17 17:15:44.828125
192,-38.45,2021-12-17 17:15:44.843750
193,-49.01,2021-12-17 17:15:44.859375
194,-60.35,2021-12-17 17:15:44.875000
195,-71.65,2021-12-17 17:15:44.890625
196,-82.36,2021-12-17 17:15:44.906250
197,-92.47,2021-12-17 17:15:44.921875
198,-102.47,2021-12-17 17:15:44.937500
199,-113.28,2021-12-17 17:15:44.953125
200,-126.04,2021-12-17 17:15:44.968750
201,-141.85,2021-12-17 17:15:44.984375
202,-161.36,2021-12-17 17:15:45.000000
203,-184.22,2021-12-17 17:15:45.015625
204,-208.6,2021-12-17 17:15:45.031250
205,-231.21,2021-12-17 17:15:45.046875
206,-247.93,2021-12-17 17:15:45.062500
207,-255.03,2021-12-17 17:15:45.078125
208,-250.49,2021-12-17 17:15:45.093750
209,-234.7,2021-12-17 17:15:45.109375
210,-210.17,2021-12-17 17:15:45.125000
211,-180.32,2021-12-17 17:15:45.140625
212,-148.06,2021-12-17 17:15:45.156250
213,-114.84,2021-12-17 17:15:45.171875
214,-80.7,2021-12-17 17:15:45.187500
215,-45.19,2021-12-17 17:15:45.203125
216,-8.39,2021-12-17 17:15:45.218750
217,28.49,2021-12-17 17:15:45.234375
218,63.54,2021-12-17 17:15:45.250000
219,94.99,2021-12-17 17:15:45.265625
220,122.23,2021-12-17 17:15:45.281250
221,146.28,2021-12-17 17:15:45.296875
222,169.44,2021-12-17 17:15:45.312500
223,194.63,2021-12-17 17:15:45.328125
224,224.41,2021-12-17 17:15:45.343750
225,260.13,2021-12-17 17:15:45.359375
226,301.16,2021-12-17 17:15:45.375000
227,344.34,2021-12-17 17:15:45.390625
228,384.04,2021-12-17 17:15:45.406250
229,413.15,2021-12-17 17:15:45.421875
230,425.07,2021-12-17 17:15:45.437500
231,415.98,2021-12-17 17:15:45.453125
232,386.6,2021-12-17 17:15:45.468750
233,342.43,2021-12-17 17:15:45.484375
234,292.15,2021-12-17 17:15:45.500000
235,244.89,2021-12-17 17:15:45.515625
236,207.52,2021-12-17 17:15:45.531250
237,182.97,2021-12-17 17:15:45.546875
238,170.24,2021-12-17 17:15:45.562500
239,165.8,2021-12-17 17:15:45.578125
240,165.35,2021-12-17 17:15:45.593750
241,165.27,2021-12-17 17:15:45.609375
242,163.19,2021-12-17 17:15:45.625000
243,157.89,2021-12-17 17:15:45.640625
244,148.88,2021-12-17 17:15:45.656250
245,136.27,2021-12-17 17:15:45.671875
246,120.68,2021-12-17 17:15:45.687500
247,103.39,2021-12-17 17:15:45.703125
248,86.3,2021-12-17 17:15:45.718750
249,71.53,2021-12-17 17:15:45.734375
250,60.93,2021-12-17 17:15:45.750000
251,55.34,2021-12-17 17:15:45.765625
252,54.1,2021-12-17 17:15:45.781250
253,55.1,2021-12-17 17:15:45.796875
254,55.42,2021-12-17 17:15:45.812500
255,52.4,2021-12-17 17:15:45.828125
256,44.89,2021-12-17 17:15:45.843750
257,33.82,2021-12-17 17:15:45.859375
258,22.08,2021-12-17 17:15:45.875000
259,13.34,2021-12-17 17:15:45.890625
260,10.54,2021-12-17 17:15:45.906250
261,14.58,2021-12-17 17:15:45.921875
262,23.83,2021-12-17 17:15:45.937500
263,34.75,2021-12-17 17:15:45.953125
264,43.14,2021-12-17 17:15:45.968750
265,45.55,2021-12-17 17:15:45.984375
266,40.07,2021-12-17 17:15:46.000000
267,26.73,2021-12-17 17:15:46.015625
268,7.47,2021-12-17 17:15:46.031250
269,-13.95,2021-12-17 17:15:46.046875
270,-32.5,2021-12-17 17:15:46.062500
271,-42.86,2021-12-17 17:15:46.078125
272,-41.32,2021-12-17 17:15:46.093750
273,-27.49,2021-12-17 17:15:46.109375
274,-5.15,2021-12-17 17:15:46.125000
275,18.81,2021-12-17 17:15:46.140625
276,36.99,2021-12-17 17:15:46.156250
277,44.54,2021-12-17 17:15:46.171875
278,41.02,2021-12-17 17:15:46.187500
279,30.06,2021-12-17 17:15:46.203125
280,17.09,2021-12-17 17:15:46.218750
281,6.73,2021-12-17 17:15:46.234375
282,0.99,2021-12-17 17:15:46.250000
283,-0.79,2021-12-17 17:15:46.265625
284,-0.63,2021-12-17 17:15:46.281250
285,-0.42,2021-12-17 17:15:46.296875
286,-0.97,2021-12-17 17:15:46.312500
287,-2.08,2021-12-17 17:15:46.328125
288,-3.09,2021-12-17 17:15:46.343750
289,-3.49,2021-12-17 17:15:46.359375
290,-3.21,2021-12-17 17:15:46.375000
291,-2.48,2021-12-17 17:15:46.390625
292,-1.64,2021-12-17 17:15:46.406250
293,-0.84,2021-12-17 17:15:46.421875
294,0.07,2021-12-17 17:15:46.437500
295,1.41,2021-12-17 17:15:46.453125
296,3.41,2021-12-17 17:15:46.468750
297,5.83,2021-12-17 17:15:46.484375
298,7.7,2021-12-17 17:15:46.500000
299,7.62,2021-12-17 17:15:46.515625
300,4.38,2021-12-17 17:15:46.531250
301,-2.14,2021-12-17 17:15:46.546875
302,-10.56,2021-12-17 17:15:46.562500
303,-18.2,2021-12-17 17:15:46.578125
304,-22.14,2021-12-17 17:15:46.593750
305,-20.48,2021-12-17 17:15:46.609375
306,-13.18,2021-12-17 17:15:46.625000
307,-2.07,2021-12-17 17:15:46.640625
308,9.93,2021-12-17 17:15:46.656250
309,19.9,2021-12-17 17:15:46.671875
310,25.88,2021-12-17 17:15:46.687500
311,27.2,2021-12-17 17:15:46.703125
312,24.3,2021-12-17 17:15:46.718750
313,18.26,2021-12-17 17:15:46.734375
314,10.28,2021-12-17 17:15:46.750000
315,1.49,2021-12-17 17:15:46.765625
316,-7.12,2021-12-17 17:15:46.781250
317,-14.67,2021-12-17 17:15:46.796875
318,-20.51,2021-12-17 17:15:46.812500
319,-24.39,2021-12-17 17:15:46.828125
320,-26.57,2021-12-17 17:15:46.843750
321,-27.82,2021-12-17 17:15:46.859375
322,-29.17,2021-12-17 17:15:46.875000
323,-31.52,2021-12-17 17:15:46.890625
324,-35.27,2021-12-17 17:15:46.906250
325,-40.19,2021-12-17 17:15:46.921875
326,-45.57,2021-12-17 17:15:46.937500
327,-50.61,2021-12-17 17:15:46.953125
328,-54.71,2021-12-17 17:15:46.968750
329,-57.7,2021-12-17 17:15:46.984375
330,-59.78,2021-12-17 17:15:47.000000
331,-61.23,2021-12-17 17:15:47.015625
332,-62.19,2021-12-17 17:15:47.031250
333,-62.59,2021-12-17 17:15:47.046875
334,-62.28,2021-12-17 17:15:47.062500
335,-61.16,2021-12-17 17:15:47.078125
336,-59.26,2021-12-17 17:15:47.093750
337,-56.68,2021-12-17 17:15:47.109375
338,-53.4,2021-12-17 17:15:47.125000
339,-49.34,2021-12-17 17:15:47.140625
340,-44.44,2021-12-17 17:15:47.156250
341,-38.85,2021-12-17 17:15:47.171875
342,-32.98,2021-12-17 17:15:47.187500
343,-27.41,2021-12-17 17:15:47.203125
344,-22.64,2021-12-17 17:15:47.218750
345,-18.82,2021-12-17 17:15:47.234375
346,-15.7,2021-12-17 17:15:47.250000
347,-12.81,2021-12-17 17:15:47.265625
348,-9.68,2021-12-17 17:15:47.281250
349,-6.12,2021-12-17 17:15:47.296875
350,-2.28,2021-12-17 17:15:47.312500
351,1.39,2021-12-17 17:15:47.328125
352,4.36,2021-12-17 17:15:47.343750
353,6.23,2021-12-17 17:15:47.359375
354,6.85,2021-12-17 17:15:47.375000
355,6.4,2021-12-17 17:15:47.390625
356,5.41,2021-12-17 17:15:47.406250
357,4.58,2021-12-17 17:15:47.421875
358,4.64,2021-12-17 17:15:47.437500
359,6.07,2021-12-17 17:15:47.453125
360,9.16,2021-12-17 17:15:47.468750
361,13.99,2021-12-17 17:15:47.484375
362,20.59,2021-12-17 17:15:47.500000
363,28.89,2021-12-17 17:15:47.515625
364,38.76,2021-12-17 17:15:47.531250
365,49.77,2021-12-17 17:15:47.546875
366,61.05,2021-12-17 17:15:47.562500
367,71.46,2021-12-17 17:15:47.578125
368,79.75,2021-12-17 17:15:47.593750
369,84.99,2021-12-17 17:15:47.609375
370,86.76,2021-12-17 17:15:47.625000
371,85.34,2021-12-17 17:15:47.640625
372,81.58,2021-12-17 17:15:47.656250
373,76.62,2021-12-17 17:15:47.671875
374,71.58,2021-12-17 17:15:47.687500
375,67.23,2021-12-17 17:15:47.703125
376,63.78,2021-12-17 17:15:47.718750
377,60.73,2021-12-17 17:15:47.734375
378,56.93,2021-12-17 17:15:47.750000
379,50.84,2021-12-17 17:15:47.765625
380,41.05,2021-12-17 17:15:47.781250
381,26.83,2021-12-17 17:15:47.796875
382,8.74,2021-12-17 17:15:47.812500
383,-11.28,2021-12-17 17:15:47.828125
384,-30.14,2021-12-17 17:15:47.843750
385,-44.34,2021-12-17 17:15:47.859375
386,-50.95,2021-12-17 17:15:47.875000
387,-48.46,2021-12-17 17:15:47.890625
388,-37.17,2021-12-17 17:15:47.906250
389,-19.05,2021-12-17 17:15:47.921875
390,3.03,2021-12-17 17:15:47.937500
391,26.15,2021-12-17 17:15:47.953125
392,48.14,2021-12-17 17:15:47.968750
393,67.84,2021-12-17 17:15:47.984375
394,84.89,2021-12-17 17:15:48.000000
395,99.21,2021-12-17 17:15:48.015625
396,110.59,2021-12-17 17:15:48.031250
397,118.42,2021-12-17 17:15:48.046875
398,121.89,2021-12-17 17:15:48.062500
399,120.32,2021-12-17 17:15:48.078125
400,113.53,2021-12-17 17:15:48.093750
401,102.1,2021-12-17 17:15:48.109375
402,87.24,2021-12-17 17:15:48.125000
403,70.51,2021-12-17 17:15:48.140625
404,53.51,2021-12-17 17:15:48.156250
405,37.57,2021-12-17 17:15:48.171875
406,23.54,2021-12-17 17:15:48.187500
407,11.77,2021-12-17 17:15:48.203125
408,2.22,2021-12-17 17:15:48.218750
409,-5.27,2021-12-17 17:15:48.234375
410,-10.85,2021-12-17 17:15:48.250000
411,-14.49,2021-12-17 17:15:48.265625
412,-16.22,2021-12-17 17:15:48.281250
413,-16.35,2021-12-17 17:15:48.296875
414,-15.67,2021-12-17 17:15:48.312500
415,-15.27,2021-12-17 17:15:48.328125
416,-16.13,2021-12-17 17:15:48.343750
417,-18.81,2021-12-17 17:15:48.359375
418,-23.38,2021-12-17 17:15:48.375000
419,-29.83,2021-12-17 17:15:48.390625
420,-38.34,2021-12-17 17:15:48.406250
421,-49.33,2021-12-17 17:15:48.421875
422,-62.9,2021-12-17 17:15:48.437500
423,-78.15,2021-12-17 17:15:48.453125
424,-93.06,2021-12-17 17:15:48.468750
425,-105.04,2021-12-17 17:15:48.484375
426,-112.04,2021-12-17 17:15:48.500000
427,-113.62,2021-12-17 17:15:48.515625
428,-111.21,2021-12-17 17:15:48.531250
429,-107.28,2021-12-17 17:15:48.546875
430,-104.21,2021-12-17 17:15:48.562500
431,-103.31,2021-12-17 17:15:48.578125
432,-104.64,2021-12-17 17:15:48.593750
433,-107.61,2021-12-17 17:15:48.609375
434,-111.66,2021-12-17 17:15:48.625000
435,-116.51,2021-12-17 17:15:48.640625
436,-121.84,2021-12-17 17:15:48.656250
437,-126.83,2021-12-17 17:15:48.671875
438,-129.89,2021-12-17 17:15:48.687500
439,-129.11,2021-12-17 17:15:48.703125
440,-123.02,2021-12-17 17:15:48.718750
441,-111.3,2021-12-17 17:15:48.734375
442,-95.08,2021-12-17 17:15:48.750000
443,-76.66,2021-12-17 17:15:48.765625
444,-58.69,2021-12-17 17:15:48.781250
445,-43.41,2021-12-17 17:15:48.796875
446,-32.07,2021-12-17 17:15:48.812500
447,-24.72,2021-12-17 17:15:48.828125
448,-20.53,2021-12-17 17:15:48.843750
449,-18.29,2021-12-17 17:15:48.859375
450,-16.92,2021-12-17 17:15:48.875000
451,-15.81,2021-12-17 17:15:48.890625
452,-14.85,2021-12-17 17:15:48.906250
453,-14.19,2021-12-17 17:15:48.921875
454,-14.02,2021-12-17 17:15:48.937500
455,-14.23,2021-12-17 17:15:48.953125
456,-14.32,2021-12-17 17:15:48.968750
457,-13.43,2021-12-17 17:15:48.984375
458,-10.52,2021-12-17 17:15:49.000000
459,-4.77,2021-12-17 17:15:49.015625
460,4.01,2021-12-17 17:15:49.031250
461,15.17,2021-12-17 17:15:49.046875
462,27.27,2021-12-17 17:15:49.062500
463,38.49,2021-12-17 17:15:49.078125
464,47.26,2021-12-17 17:15:49.093750
465,52.88,2021-12-17 17:15:49.109375
466,55.6,2021-12-17 17:15:49.125000
467,56.46,2021-12-17 17:15:49.140625
468,56.71,2021-12-17 17:15:49.156250
469,57.22,2021-12-17 17:15:49.171875
470,58.24,2021-12-17 17:15:49.187500
471,59.35,2021-12-17 17:15:49.203125
472,59.81,2021-12-17 17:15:49.218750
473,58.84,2021-12-17 17:15:49.234375
474,55.88,2021-12-17 17:15:49.250000
475,50.61,2021-12-17 17:15:49.265625
476,43.01,2021-12-17 17:15:49.281250
477,33.33,2021-12-17 17:15:49.296875
478,21.99,2021-12-17 17:15:49.312500
479,9.62,2021-12-17 17:15:49.328125
480,-3.12,2021-12-17 17:15:49.343750
481,-15.56,2021-12-17 17:15:49.359375
482,-27.12,2021-12-17 17:15:49.375000
483,-37.29,2021-12-17 17:15:49.390625
484,-45.71,2021-12-17 17:15:49.406250
485,-52.2,2021-12-17 17:15:49.421875
486,-56.96,2021-12-17 17:15:49.437500
487,-60.5,2021-12-17 17:15:49.453125
488,-63.51,2021-12-17 17:15:49.468750
489,-66.55,2021-12-17 17:15:49.484375
490,-69.75,2021-12-17 17:15:49.500000
491,-72.68,2021-12-17 17:15:49.515625
492,-74.48,2021-12-17 17:15:49.531250
493,-74.38,2021-12-17 17:15:49.546875
494,-71.96,2021-12-17 17:15:49.562500
495,-67.36,2021-12-17 17:15:49.578125
496,-61.09,2021-12-17 17:15:49.593750
497,-53.67,2021-12-17 17:15:49.609375
498,-45.41,2021-12-17 17:15:49.625000
499,-36.41,2021-12-17 17:15:49.640625
500,-26.8,2021-12-17 17:15:49.656250
501,-16.97,2021-12-17 17:15:49.671875
502,-7.56,2021-12-17 17:15:49.687500
503,0.82,2021-12-17 17:15:49.703125
504,7.9,2021-12-17 17:15:49.718750
505,13.93,2021-12-17 17:15:49.734375
506,19.52,2021-12-17 17:15:49.750000
507,25.26,2021-12-17 17:15:49.765625
508,31.34,2021-12-17 17:15:49.781250
509,37.58,2021-12-17 17:15:49.796875
510,43.56,2021-12-17 17:15:49.812500
511,49.02,2021-12-17 17:15:49.828125
512,54.06,2021-12-17 17:15:49.843750
513,58.98,2021-12-17 17:15:49.859375
514,64.05,2021-12-17 17:15:49.875000
515,69.23,2021-12-17 17:15:49.890625
516,74.18,2021-12-17 17:15:49.906250
517,78.48,2021-12-17 17:15:49.921875
518,81.87,2021-12-17 17:15:49.937500
519,84.46,2021-12-17 17:15:49.953125
520,86.56,2021-12-17 17:15:49.968750
521,88.5,2021-12-17 17:15:49.984375
522,90.42,2021-12-17 17:15:50.000000
523,92.24,2021-12-17 17:15:50.015625
524,93.83,2021-12-17 17:15:50.031250
525,95.12,2021-12-17 17:15:50.046875
526,96.18,2021-12-17 17:15:50.062500
527,97.05,2021-12-17 17:15:50.078125
528,97.64,2021-12-17 17:15:50.093750
529,97.77,2021-12-17 17:15:50.109375
530,97.31,2021-12-17 17:15:50.125000
531,96.42,2021-12-17 17:15:50.140625
532,95.61,2021-12-17 17:15:50.156250
533,95.5,2021-12-17 17:15:50.171875
534,96.43,2021-12-17 17:15:50.187500
535,98.12,2021-12-17 17:15:50.203125
536,99.6,2021-12-17 17:15:50.218750
537,99.54,2021-12-17 17:15:50.234375
538,96.79,2021-12-17 17:15:50.250000
539,90.75,2021-12-17 17:15:50.265625
540,81.55,2021-12-17 17:15:50.281250
541,69.78,2021-12-17 17:15:50.296875
542,56.12,2021-12-17 17:15:50.312500
543,41.1,2021-12-17 17:15:50.328125
544,25.03,2021-12-17 17:15:50.343750
545,8.2,2021-12-17 17:15:50.359375
546,-8.94,2021-12-17 17:15:50.375000
547,-25.69,2021-12-17 17:15:50.390625
548,-41.29,2021-12-17 17:15:50.406250
549,-55.04,2021-12-17 17:15:50.421875
550,-66.56,2021-12-17 17:15:50.437500
551,-75.85,2021-12-17 17:15:50.453125
552,-83.16,2021-12-17 17:15:50.468750
553,-88.91,2021-12-17 17:15:50.484375
554,-93.55,2021-12-17 17:15:50.500000
555,-97.54,2021-12-17 17:15:50.515625
556,-101.32,2021-12-17 17:15:50.531250
557,-105.32,2021-12-17 17:15:50.546875
558,-109.86,2021-12-17 17:15:50.562500
559,-115.06,2021-12-17 17:15:50.578125
560,-120.69,2021-12-17 17:15:50.593750
561,-126.16,2021-12-17 17:15:50.609375
562,-130.77,2021-12-17 17:15:50.625000
563,-133.91,2021-12-17 17:15:50.640625
564,-135.53,2021-12-17 17:15:50.656250
565,-136.31,2021-12-17 17:15:50.671875
566,-137.58,2021-12-17 17:15:50.687500
567,-140.77,2021-12-17 17:15:50.703125
568,-146.95,2021-12-17 17:15:50.718750
569,-156.32,2021-12-17 17:15:50.734375
570,-168.12,2021-12-17 17:15:50.750000
571,-180.83,2021-12-17 17:15:50.765625
572,-192.52,2021-12-17 17:15:50.781250
573,-201.18,2021-12-17 17:15:50.796875
574,-204.78,2021-12-17 17:15:50.812500
575,-201.33,2021-12-17 17:15:50.828125
576,-189.1,2021-12-17 17:15:50.843750
577,-167.19,2021-12-17 17:15:50.859375
578,-136.09,2021-12-17 17:15:50.875000
579,-98.09,2021-12-17 17:15:50.890625
580,-57.01,2021-12-17 17:15:50.906250
581,-17.25,2021-12-17 17:15:50.921875
582,17.36,2021-12-17 17:15:50.937500
583,44.56,2021-12-17 17:15:50.953125
584,64.05,2021-12-17 17:15:50.968750
585,77.11,2021-12-17 17:15:50.984375
586,85.77,2021-12-17 17:15:51.000000
587,92.05,2021-12-17 17:15:51.015625
588,97.5,2021-12-17 17:15:51.031250
589,102.9,2021-12-17 17:15:51.046875
590,108.45,2021-12-17 17:15:51.062500
591,113.84,2021-12-17 17:15:51.078125
592,118.42,2021-12-17 17:15:51.093750
593,121.32,2021-12-17 17:15:51.109375
594,121.74,2021-12-17 17:15:51.125000
595,119.19,2021-12-17 17:15:51.140625
596,113.71,2021-12-17 17:15:51.156250
597,105.87,2021-12-17 17:15:51.171875
598,96.52,2021-12-17 17:15:51.187500
599,86.61,2021-12-17 17:15:51.203125
600,76.97,2021-12-17 17:15:51.218750
601,68.29,2021-12-17 17:15:51.234375
602,61.24,2021-12-17 17:15:51.250000
603,56.54,2021-12-17 17:15:51.265625
604,54.91,2021-12-17 17:15:51.281250
605,56.93,2021-12-17 17:15:51.296875
606,62.84,2021-12-17 17:15:51.312500
607,72.4,2021-12-17 17:15:51.328125
608,84.82,2021-12-17 17:15:51.343750
609,98.9,2021-12-17 17:15:51.359375
610,113.08,2021-12-17 17:15:51.375000
611,125.6,2021-12-17 17:15:51.390625
612,134.59,2021-12-17 17:15:51.406250
613,138.36,2021-12-17 17:15:51.421875
614,135.71,2021-12-17 17:15:51.437500
615,126.34,2021-12-17 17:15:51.453125
616,111.06,2021-12-17 17:15:51.468750
617,91.84,2021-12-17 17:15:51.484375
618,71.32,2021-12-17 17:15:51.500000
619,52.13,2021-12-17 17:15:51.515625
620,36.13,2021-12-17 17:15:51.531250
621,23.87,2021-12-17 17:15:51.546875
622,14.62,2021-12-17 17:15:51.562500
623,6.93,2021-12-17 17:15:51.578125
624,-0.58,2021-12-17 17:15:51.593750
625,-8.6,2021-12-17 17:15:51.609375
626,-16.89,2021-12-17 17:15:51.625000
627,-24.59,2021-12-17 17:15:51.640625
628,-30.82,2021-12-17 17:15:51.656250
629,-35.12,2021-12-17 17:15:51.671875
630,-37.64,2021-12-17 17:15:51.687500
631,-38.94,2021-12-17 17:15:51.703125
632,-39.66,2021-12-17 17:15:51.718750
633,-40.31,2021-12-17 17:15:51.734375
634,-41.28,2021-12-17 17:15:51.750000
635,-42.85,2021-12-17 17:15:51.765625
636,-45.33,2021-12-17 17:15:51.781250
637,-48.8,2021-12-17 17:15:51.796875
638,-53.08,2021-12-17 17:15:51.812500
639,-57.55,2021-12-17 17:15:51.828125
640,-61.43,2021-12-17 17:15:51.843750
641,-64.13,2021-12-17 17:15:51.859375
642,-65.58,2021-12-17 17:15:51.875000
643,-66.36,2021-12-17 17:15:51.890625
644,-67.52,2021-12-17 17:15:51.906250
645,-70.15,2021-12-17 17:15:51.921875
646,-75.02,2021-12-17 17:15:51.937500
647,-82.16,2021-12-17 17:15:51.953125
648,-90.81,2021-12-17 17:15:51.968750
649,-99.51,2021-12-17 17:15:51.984375
650,-106.42,2021-12-17 17:15:52.000000
651,-109.81,2021-12-17 17:15:52.015625
652,-108.51,2021-12-17 17:15:52.031250
653,-102.3,2021-12-17 17:15:52.046875
654,-92.03,2021-12-17 17:15:52.062500
655,-79.4,2021-12-17 17:15:52.078125
656,-66.42,2021-12-17 17:15:52.093750
657,-54.81,2021-12-17 17:15:52.109375
658,-45.58,2021-12-17 17:15:52.125000
659,-38.96,2021-12-17 17:15:52.140625
660,-34.68,2021-12-17 17:15:52.156250
661,-32.27,2021-12-17 17:15:52.171875
662,-31.35,2021-12-17 17:15:52.187500
663,-31.64,2021-12-17 17:15:52.203125
664,-32.82,2021-12-17 17:15:52.218750
665,-34.34,2021-12-17 17:15:52.234375
666,-35.49,2021-12-17 17:15:52.250000
667,-35.48,2021-12-17 17:15:52.265625
668,-33.79,2021-12-17 17:15:52.281250
669,-30.4,2021-12-17 17:15:52.296875
670,-25.92,2021-12-17 17:15:52.312500
671,-21.38,2021-12-17 17:15:52.328125
672,-17.88,2021-12-17 17:15:52.343750
673,-16.32,2021-12-17 17:15:52.359375
674,-16.98,2021-12-17 17:15:52.375000
675,-19.51,2021-12-17 17:15:52.390625
676,-23.02,2021-12-17 17:15:52.406250
677,-26.27,2021-12-17 17:15:52.421875
678,-28.02,2021-12-17 17:15:52.437500
679,-27.32,2021-12-17 17:15:52.453125
680,-23.77,2021-12-17 17:15:52.468750
681,-17.61,2021-12-17 17:15:52.484375
682,-9.74,2021-12-17 17:15:52.500000
683,-1.59,2021-12-17 17:15:52.515625
684,5.14,2021-12-17 17:15:52.531250
685,8.86,2021-12-17 17:15:52.546875
686,8.36,2021-12-17 17:15:52.562500
687,3.23,2021-12-17 17:15:52.578125
688,-6.01,2021-12-17 17:15:52.593750
689,-17.91,2021-12-17 17:15:52.609375
690,-30.34,2021-12-17 17:15:52.625000
691,-41.01,2021-12-17 17:15:52.640625
692,-47.87,2021-12-17 17:15:52.656250
693,-49.71,2021-12-17 17:15:52.671875
694,-46.36,2021-12-17 17:15:52.687500
695,-38.6,2021-12-17 17:15:52.703125
696,-28.06,2021-12-17 17:15:52.718750
697,-16.6,2021-12-17 17:15:52.734375
698,-6.06,2021-12-17 17:15:52.750000
699,2.18,2021-12-17 17:15:52.765625
700,7.34,2021-12-17 17:15:52.781250
701,9.32,2021-12-17 17:15:52.796875
702,8.56,2021-12-17 17:15:52.812500
703,5.87,2021-12-17 17:15:52.828125
704,2.17,2021-12-17 17:15:52.843750
705,-1.74,2021-12-17 17:15:52.859375
706,-5.29,2021-12-17 17:15:52.875000
707,-8.17,2021-12-17 17:15:52.890625
708,-10.28,2021-12-17 17:15:52.906250
709,-11.64,2021-12-17 17:15:52.921875
710,-12.31,2021-12-17 17:15:52.937500
711,-12.4,2021-12-17 17:15:52.953125
712,-12.06,2021-12-17 17:15:52.968750
713,-11.41,2021-12-17 17:15:52.984375
714,-10.62,2021-12-17 17:15:53.000000
715,-9.84,2021-12-17 17:15:53.015625
716,-9.23,2021-12-17 17:15:53.031250
717,-8.91,2021-12-17 17:15:53.046875
718,-9.0,2021-12-17 17:15:53.062500
719,-9.5,2021-12-17 17:15:53.078125
720,-10.27,2021-12-17 17:15:53.093750
721,-10.97,2021-12-17 17:15:53.109375
722,-11.14,2021-12-17 17:15:53.125000
723,-10.44,2021-12-17 17:15:53.140625
724,-8.73,2021-12-17 17:15:53.156250
725,-6.2,2021-12-17 17:15:53.171875
726,-3.36,2021-12-17 17:15:53.187500
727,-0.79,2021-12-17 17:15:53.203125
728,1.0,2021-12-17 17:15:53.218750
729,1.77,2021-12-17 17:15:53.234375
730,1.59,2021-12-17 17:15:53.250000
731,0.89,2021-12-17 17:15:53.265625
732,0.27,2021-12-17 17:15:53.281250
733,0.53,2021-12-17 17:15:53.296875
734,2.5,2021-12-17 17:15:53.312500
735,6.88,2021-12-17 17:15:53.328125
736,13.98,2021-12-17 17:15:53.343750
737,23.41,2021-12-17 17:15:53.359375
738,34.03,2021-12-17 17:15:53.375000
739,44.15,2021-12-17 17:15:53.390625
740,52.1,2021-12-17 17:15:53.406250
741,56.77,2021-12-17 17:15:53.421875
742,58.1,2021-12-17 17:15:53.437500
743,56.92,2021-12-17 17:15:53.453125
744,54.54,2021-12-17 17:15:53.468750
745,52.18,2021-12-17 17:15:53.484375
746,50.45,2021-12-17 17:15:53.500000
747,49.27,2021-12-17 17:15:53.515625
748,48.01,2021-12-17 17:15:53.531250
749,45.92,2021-12-17 17:15:53.546875
750,42.37,2021-12-17 17:15:53.562500
751,37.09,2021-12-17 17:15:53.578125
752,30.19,2021-12-17 17:15:53.593750
753,22.12,2021-12-17 17:15:53.609375
754,13.54,2021-12-17 17:15:53.625000
755,5.17,2021-12-17 17:15:53.640625
756,-2.4,2021-12-17 17:15:53.656250
757,-8.8,2021-12-17 17:15:53.671875
758,-13.93,2021-12-17 17:15:53.687500
759,-17.87,2021-12-17 17:15:53.703125
760,-20.79,2021-12-17 17:15:53.718750
761,-22.87,2021-12-17 17:15:53.734375
762,-24.28,2021-12-17 17:15:53.750000
763,-25.25,2021-12-17 17:15:53.765625
764,-26.06,2021-12-17 17:15:53.781250
765,-27.08,2021-12-17 17:15:53.796875
766,-28.59,2021-12-17 17:15:53.812500
767,-30.79,2021-12-17 17:15:53.828125
768,-33.73,2021-12-17 17:15:53.843750
769,-37.34,2021-12-17 17:15:53.859375
770,-41.51,2021-12-17 17:15:53.875000
771,-46.05,2021-12-17 17:15:53.890625
772,-50.65,2021-12-17 17:15:53.906250
773,-54.8,2021-12-17 17:15:53.921875
774,-57.82,2021-12-17 17:15:53.937500
775,-58.94,2021-12-17 17:15:53.953125
776,-57.58,2021-12-17 17:15:53.968750
777,-53.53,2021-12-17 17:15:53.984375
778,-47.13,2021-12-17 17:15:54.000000
779,-39.16,2021-12-17 17:15:54.015625
780,-30.65,2021-12-17 17:15:54.031250
781,-22.6,2021-12-17 17:15:54.046875
782,-15.74,2021-12-17 17:15:54.062500
783,-10.42,2021-12-17 17:15:54.078125
784,-6.7,2021-12-17 17:15:54.093750
785,-4.44,2021-12-17 17:15:54.109375
786,-3.41,2021-12-17 17:15:54.125000
787,-3.35,2021-12-17 17:15:54.140625
788,-3.86,2021-12-17 17:15:54.156250
789,-4.45,2021-12-17 17:15:54.171875
790,-4.54,2021-12-17 17:15:54.187500
791,-3.63,2021-12-17 17:15:54.203125
792,-1.45,2021-12-17 17:15:54.218750
793,1.96,2021-12-17 17:15:54.234375
794,6.24,2021-12-17 17:15:54.250000
795,10.83,2021-12-17 17:15:54.265625
796,15.15,2021-12-17 17:15:54.281250
797,18.7,2021-12-17 17:15:54.296875
798,21.15,2021-12-17 17:15:54.312500
799,22.41,2021-12-17 17:15:54.328125
800,22.55,2021-12-17 17:15:54.343750
801,21.84,2021-12-17 17:15:54.359375
802,20.68,2021-12-17 17:15:54.375000
803,19.47,2021-12-17 17:15:54.390625
804,18.44,2021-12-17 17:15:54.406250
805,17.55,2021-12-17 17:15:54.421875
806,16.47,2021-12-17 17:15:54.437500
807,14.67,2021-12-17 17:15:54.453125
808,11.72,2021-12-17 17:15:54.468750
809,7.45,2021-12-17 17:15:54.484375
810,2.09,2021-12-17 17:15:54.500000
811,-3.73,2021-12-17 17:15:54.515625
812,-9.14,2021-12-17 17:15:54.531250
813,-13.19,2021-12-17 17:15:54.546875
814,-15.07,2021-12-17 17:15:54.562500
815,-14.23,2021-12-17 17:15:54.578125
816,-10.43,2021-12-17 17:15:54.593750
817,-3.87,2021-12-17 17:15:54.609375
818,4.9,2021-12-17 17:15:54.625000
819,15.11,2021-12-17 17:15:54.640625
820,25.8,2021-12-17 17:15:54.656250
821,36.02,2021-12-17 17:15:54.671875
822,44.94,2021-12-17 17:15:54.687500
823,51.77,2021-12-17 17:15:54.703125
824,55.94,2021-12-17 17:15:54.718750
825,56.98,2021-12-17 17:15:54.734375
826,54.64,2021-12-17 17:15:54.750000
827,49.07,2021-12-17 17:15:54.765625
828,40.88,2021-12-17 17:15:54.781250
829,31.19,2021-12-17 17:15:54.796875
830,21.44,2021-12-17 17:15:54.812500
831,13.1,2021-12-17 17:15:54.828125
832,7.21,2021-12-17 17:15:54.843750
833,4.1,2021-12-17 17:15:54.859375
834,3.31,2021-12-17 17:15:54.875000
835,3.89,2021-12-17 17:15:54.890625
836,4.73,2021-12-17 17:15:54.906250
837,5.01,2021-12-17 17:15:54.921875
838,4.32,2021-12-17 17:15:54.937500
839,2.64,2021-12-17 17:15:54.953125
840,0.09,2021-12-17 17:15:54.968750
841,-3.23,2021-12-17 17:15:54.984375
842,-7.27,2021-12-17 17:15:55.000000
843,-11.97,2021-12-17 17:15:55.015625
844,-17.11,2021-12-17 17:15:55.031250
845,-22.34,2021-12-17 17:15:55.046875
846,-27.33,2021-12-17 17:15:55.062500
847,-31.98,2021-12-17 17:15:55.078125
848,-36.44,2021-12-17 17:15:55.093750
849,-41.05,2021-12-17 17:15:55.109375
850,-46.05,2021-12-17 17:15:55.125000
851,-51.27,2021-12-17 17:15:55.140625
852,-56.09,2021-12-17 17:15:55.156250
853,-59.54,2021-12-17 17:15:55.171875
854,-60.62,2021-12-17 17:15:55.187500
855,-58.72,2021-12-17 17:15:55.203125
856,-53.76,2021-12-17 17:15:55.218750
857,-46.29,2021-12-17 17:15:55.234375
858,-37.28,2021-12-17 17:15:55.250000
859,-27.78,2021-12-17 17:15:55.265625
860,-18.74,2021-12-17 17:15:55.281250
861,-10.83,2021-12-17 17:15:55.296875
862,-4.41,2021-12-17 17:15:55.312500
863,0.41,2021-12-17 17:15:55.328125
864,3.63,2021-12-17 17:15:55.343750
865,5.32,2021-12-17 17:15:55.359375
866,5.54,2021-12-17 17:15:55.375000
867,4.4,2021-12-17 17:15:55.390625
868,2.1,2021-12-17 17:15:55.406250
869,-1.06,2021-12-17 17:15:55.421875
870,-4.69,2021-12-17 17:15:55.437500
871,-8.31,2021-12-17 17:15:55.453125
872,-11.39,2021-12-17 17:15:55.468750
873,-13.41,2021-12-17 17:15:55.484375
874,-13.92,2021-12-17 17:15:55.500000
875,-12.79,2021-12-17 17:15:55.515625
876,-10.3,2021-12-17 17:15:55.531250
877,-7.25,2021-12-17 17:15:55.546875
878,-4.77,2021-12-17 17:15:55.562500
879,-4.06,2021-12-17 17:15:55.578125
880,-5.86,2021-12-17 17:15:55.593750
881,-10.31,2021-12-17 17:15:55.609375
882,-16.81,2021-12-17 17:15:55.625000
883,-24.41,2021-12-17 17:15:55.640625
884,-32.15,2021-12-17 17:15:55.656250
885,-39.55,2021-12-17 17:15:55.671875
886,-46.62,2021-12-17 17:15:55.687500
887,-53.79,2021-12-17 17:15:55.703125
888,-61.59,2021-12-17 17:15:55.718750
889,-70.42,2021-12-17 17:15:55.734375
890,-80.43,2021-12-17 17:15:55.750000
891,-91.45,2021-12-17 17:15:55.765625
892,-102.97,2021-12-17 17:15:55.781250
893,-114.12,2021-12-17 17:15:55.796875
894,-123.75,2021-12-17 17:15:55.812500
895,-130.57,2021-12-17 17:15:55.828125
896,-133.52,2021-12-17 17:15:55.843750
897,-131.96,2021-12-17 17:15:55.859375
898,-125.76,2021-12-17 17:15:55.875000
899,-115.15,2021-12-17 17:15:55.890625
900,-100.5,2021-12-17 17:15:55.906250
901,-82.23,2021-12-17 17:15:55.921875
902,-60.91,2021-12-17 17:15:55.937500
903,-37.43,2021-12-17 17:15:55.953125
904,-13.21,2021-12-17 17:15:55.968750
905,10.09,2021-12-17 17:15:55.984375
906,30.92,2021-12-17 17:15:56.000000
907,48.42,2021-12-17 17:15:56.015625
908,62.55,2021-12-17 17:15:56.031250
909,74.04,2021-12-17 17:15:56.046875
910,83.83,2021-12-17 17:15:56.062500
911,92.59,2021-12-17 17:15:56.078125
912,100.53,2021-12-17 17:15:56.093750
913,107.49,2021-12-17 17:15:56.109375
914,113.23,2021-12-17 17:15:56.125000
915,117.76,2021-12-17 17:15:56.140625
916,121.3,2021-12-17 17:15:56.156250
917,124.19,2021-12-17 17:15:56.171875
918,126.52,2021-12-17 17:15:56.187500
919,127.96,2021-12-17 17:15:56.203125
920,127.68,2021-12-17 17:15:56.218750
921,124.65,2021-12-17 17:15:56.234375
922,117.97,2021-12-17 17:15:56.250000
923,107.32,2021-12-17 17:15:56.265625
924,93.31,2021-12-17 17:15:56.281250
925,77.35,2021-12-17 17:15:56.296875
926,61.35,2021-12-17 17:15:56.312500
927,47.04,2021-12-17 17:15:56.328125
928,35.43,2021-12-17 17:15:56.343750
929,26.62,2021-12-17 17:15:56.359375
930,19.95,2021-12-17 17:15:56.375000
931,14.42,2021-12-17 17:15:56.390625
932,9.24,2021-12-17 17:15:56.406250
933,4.06,2021-12-17 17:15:56.421875
934,-0.97,2021-12-17 17:15:56.437500
935,-5.44,2021-12-17 17:15:56.453125
936,-8.77,2021-12-17 17:15:56.468750
937,-10.31,2021-12-17 17:15:56.484375
938,-9.36,2021-12-17 17:15:56.500000
939,-5.31,2021-12-17 17:15:56.515625
940,2.09,2021-12-17 17:15:56.531250
941,12.45,2021-12-17 17:15:56.546875
942,24.54,2021-12-17 17:15:56.562500
943,36.49,2021-12-17 17:15:56.578125
944,46.23,2021-12-17 17:15:56.593750
945,52.19,2021-12-17 17:15:56.609375
946,53.87,2021-12-17 17:15:56.625000
947,52.07,2021-12-17 17:15:56.640625
948,48.67,2021-12-17 17:15:56.656250
949,46.06,2021-12-17 17:15:56.671875
950,46.29,2021-12-17 17:15:56.687500
951,50.49,2021-12-17 17:15:56.703125
952,58.57,2021-12-17 17:15:56.718750
953,69.33,2021-12-17 17:15:56.734375
954,80.95,2021-12-17 17:15:56.750000
955,91.59,2021-12-17 17:15:56.765625
956,99.89,2021-12-17 17:15:56.781250
957,105.31,2021-12-17 17:15:56.796875
958,108.08,2021-12-17 17:15:56.812500
959,108.98,2021-12-17 17:15:56.828125
960,108.95,2021-12-17 17:15:56.843750
961,108.64,2021-12-17 17:15:56.859375
962,108.09,2021-12-17 17:15:56.875000
963,106.65,2021-12-17 17:15:56.890625
964,103.24,2021-12-17 17:15:56.906250
965,96.8,2021-12-17 17:15:56.921875
966,86.72,2021-12-17 17:15:56.937500
967,72.87,2021-12-17 17:15:56.953125
968,55.52,2021-12-17 17:15:56.968750
969,34.95,2021-12-17 17:15:56.984375
970,11.46,2021-12-17 17:15:57.000000
971,-14.43,2021-12-17 17:15:57.015625
972,-41.72,2021-12-17 17:15:57.031250
973,-68.72,2021-12-17 17:15:57.046875
974,-93.38,2021-12-17 17:15:57.062500
975,-113.88,2021-12-17 17:15:57.078125
976,-129.23,2021-12-17 17:15:57.093750
977,-139.41,2021-12-17 17:15:57.109375
978,-145.1,2021-12-17 17:15:57.125000
979,-147.11,2021-12-17 17:15:57.140625
980,-146.0,2021-12-17 17:15:57.156250
981,-142.01,2021-12-17 17:15:57.171875
982,-135.28,2021-12-17 17:15:57.187500
983,-126.37,2021-12-17 17:15:57.203125
984,-116.37,2021-12-17 17:15:57.218750
985,-106.85,2021-12-17 17:15:57.234375
986,-99.48,2021-12-17 17:15:57.250000
987,-95.68,2021-12-17 17:15:57.265625
988,-96.23,2021-12-17 17:15:57.281250
989,-100.96,2021-12-17 17:15:57.296875
990,-108.65,2021-12-17 17:15:57.312500
991,-117.11,2021-12-17 17:15:57.328125
992,-123.7,2021-12-17 17:15:57.343750
993,-126.11,2021-12-17 17:15:57.359375
994,-123.15,2021-12-17 17:15:57.375000
995,-115.11,2021-12-17 17:15:57.390625
996,-103.58,2021-12-17 17:15:57.406250
997,-90.63,2021-12-17 17:15:57.421875
998,-77.92,2021-12-17 17:15:57.437500
999,-66.16,2021-12-17 17:15:57.453125
1000,-55.2,2021-12-17 17:15:57.468750
1001,-44.39,2021-12-17 17:15:57.484375
1002,-33.25,2021-12-17 17:15:57.500000
1003,-21.64,2021-12-17 17:15:57.515625
1004,-9.62,2021-12-17 17:15:57.531250
1005,2.88,2021-12-17 17:15:57.546875
1006,16.38,2021-12-17 17:15:57.562500
1007,31.7,2021-12-17 17:15:57.578125
1008,49.54,2021-12-17 17:15:57.593750
1009,70.01,2021-12-17 17:15:57.609375
1010,92.3,2021-12-17 17:15:57.625000
1011,114.78,2021-12-17 17:15:57.640625
1012,135.49,2021-12-17 17:15:57.656250
1013,152.57,2021-12-17 17:15:57.671875
1014,164.88,2021-12-17 17:15:57.687500
1015,172.29,2021-12-17 17:15:57.703125
1016,175.56,2021-12-17 17:15:57.718750
1017,176.06,2021-12-17 17:15:57.734375
1018,175.09,2021-12-17 17:15:57.750000
1019,173.39,2021-12-17 17:15:57.765625
1020,170.81,2021-12-17 17:15:57.781250
1021,166.61,2021-12-17 17:15:57.796875
1022,159.98,2021-12-17 17:15:57.812500
1023,150.8,2021-12-17 17:15:57.828125
1024,139.8,2021-12-17 17:15:57.843750
1025,128.3,2021-12-17 17:15:57.859375
1026,117.51,2021-12-17 17:15:57.875000
1027,107.83,2021-12-17 17:15:57.890625
1028,98.68,2021-12-17 17:15:57.906250
1029,88.97,2021-12-17 17:15:57.921875
1030,77.9,2021-12-17 17:15:57.937500
1031,65.6,2021-12-17 17:15:57.953125
1032,53.15,2021-12-17 17:15:57.968750
1033,42.11,2021-12-17 17:15:57.984375
1034,33.75,2021-12-17 17:15:58.000000
1035,28.52,2021-12-17 17:15:58.015625
1036,25.95,2021-12-17 17:15:58.031250
1037,24.86,2021-12-17 17:15:58.046875
1038,23.76,2021-12-17 17:15:58.062500
1039,21.19,2021-12-17 17:15:58.078125
1040,15.85,2021-12-17 17:15:58.093750
1041,6.72,2021-12-17 17:15:58.109375
1042,-6.74,2021-12-17 17:15:58.125000
1043,-24.43,2021-12-17 17:15:58.140625
1044,-45.41,2021-12-17 17:15:58.156250
1045,-67.98,2021-12-17 17:15:58.171875
1046,-90.05,2021-12-17 17:15:58.187500
1047,-109.59,2021-12-17 17:15:58.203125
1048,-125.01,2021-12-17 17:15:58.218750
1049,-135.39,2021-12-17 17:15:58.234375
1050,-140.4,2021-12-17 17:15:58.250000
1051,-140.15,2021-12-17 17:15:58.265625
1052,-135.05,2021-12-17 17:15:58.281250
1053,-125.67,2021-12-17 17:15:58.296875
1054,-112.88,2021-12-17 17:15:58.312500
1055,-97.85,2021-12-17 17:15:58.328125
1056,-81.91,2021-12-17 17:15:58.343750
1057,-66.34,2021-12-17 17:15:58.359375
1058,-51.96,2021-12-17 17:15:58.375000
1059,-38.86,2021-12-17 17:15:58.390625
1060,-26.47,2021-12-17 17:15:58.406250
1061,-13.86,2021-12-17 17:15:58.421875
1062,-0.21,2021-12-17 17:15:58.437500
1063,14.79,2021-12-17 17:15:58.453125
1064,30.66,2021-12-17 17:15:58.468750
1065,46.38,2021-12-17 17:15:58.484375
1066,60.72,2021-12-17 17:15:58.500000
1067,72.69,2021-12-17 17:15:58.515625
1068,81.8,2021-12-17 17:15:58.531250
1069,88.12,2021-12-17 17:15:58.546875
1070,92.09,2021-12-17 17:15:58.562500
1071,94.19,2021-12-17 17:15:58.578125
1072,94.7,2021-12-17 17:15:58.593750
1073,93.62,2021-12-17 17:15:58.609375
1074,90.92,2021-12-17 17:15:58.625000
1075,86.7,2021-12-17 17:15:58.640625
1076,81.51,2021-12-17 17:15:58.656250
1077,76.3,2021-12-17 17:15:58.671875
1078,72.21,2021-12-17 17:15:58.687500
1079,70.06,2021-12-17 17:15:58.703125
1080,70.04,2021-12-17 17:15:58.718750
1081,71.54,2021-12-17 17:15:58.734375
1082,73.29,2021-12-17 17:15:58.750000
1083,73.82,2021-12-17 17:15:58.765625
1084,71.76,2021-12-17 17:15:58.781250
1085,66.06,2021-12-17 17:15:58.796875
1086,55.99,2021-12-17 17:15:58.812500
1087,41.02,2021-12-17 17:15:58.828125
1088,20.98,2021-12-17 17:15:58.843750
1089,-3.74,2021-12-17 17:15:58.859375
1090,-31.87,2021-12-17 17:15:58.875000
1091,-61.3,2021-12-17 17:15:58.890625
1092,-89.43,2021-12-17 17:15:58.906250
1093,-113.82,2021-12-17 17:15:58.921875
1094,-132.82,2021-12-17 17:15:58.937500
1095,-145.83,2021-12-17 17:15:58.953125
1096,-153.07,2021-12-17 17:15:58.968750
1097,-155.07,2021-12-17 17:15:58.984375
1098,-152.24,2021-12-17 17:15:59.000000
1099,-144.65,2021-12-17 17:15:59.015625
1100,-132.25,2021-12-17 17:15:59.031250
1101,-115.24,2021-12-17 17:15:59.046875
1102,-94.25,2021-12-17 17:15:59.062500
1103,-70.29,2021-12-17 17:15:59.078125
1104,-44.55,2021-12-17 17:15:59.093750
1105,-18.11,2021-12-17 17:15:59.109375
1106,8.22,2021-12-17 17:15:59.125000
1107,33.78,2021-12-17 17:15:59.140625
1108,57.88,2021-12-17 17:15:59.156250
1109,79.7,2021-12-17 17:15:59.171875
1110,98.25,2021-12-17 17:15:59.187500
1111,112.52,2021-12-17 17:15:59.203125
1112,121.87,2021-12-17 17:15:59.218750
1113,126.28,2021-12-17 17:15:59.234375
1114,126.48,2021-12-17 17:15:59.250000
1115,123.82,2021-12-17 17:15:59.265625
1116,119.87,2021-12-17 17:15:59.281250
1117,116.07,2021-12-17 17:15:59.296875
1118,113.6,2021-12-17 17:15:59.312500
1119,113.4,2021-12-17 17:15:59.328125
1120,116.14,2021-12-17 17:15:59.343750
1121,122.19,2021-12-17 17:15:59.359375
1122,131.15,2021-12-17 17:15:59.375000
1123,141.5,2021-12-17 17:15:59.390625
1124,150.43,2021-12-17 17:15:59.406250
1125,154.44,2021-12-17 17:15:59.421875
1126,150.38,2021-12-17 17:15:59.437500
1127,136.6,2021-12-17 17:15:59.453125
1128,113.76,2021-12-17 17:15:59.468750
1129,84.71,2021-12-17 17:15:59.484375
1130,53.59,2021-12-17 17:15:59.500000
1131,24.67,2021-12-17 17:15:59.515625
1132,1.22,2021-12-17 17:15:59.531250
1133,-14.98,2021-12-17 17:15:59.546875
1134,-23.75,2021-12-17 17:15:59.562500
1135,-26.13,2021-12-17 17:15:59.578125
1136,-24.02,2021-12-17 17:15:59.593750
1137,-19.8,2021-12-17 17:15:59.609375
1138,-15.89,2021-12-17 17:15:59.625000
1139,-14.36,2021-12-17 17:15:59.640625
1140,-16.39,2021-12-17 17:15:59.656250
1141,-21.98,2021-12-17 17:15:59.671875
1142,-29.84,2021-12-17 17:15:59.687500
1143,-37.83,2021-12-17 17:15:59.703125
1144,-43.57,2021-12-17 17:15:59.718750
1145,-45.15,2021-12-17 17:15:59.734375
1146,-41.74,2021-12-17 17:15:59.750000
1147,-33.74,2021-12-17 17:15:59.765625
1148,-22.59,2021-12-17 17:15:59.781250
1149,-10.29,2021-12-17 17:15:59.796875
1150,1.13,2021-12-17 17:15:59.812500
1151,10.17,2021-12-17 17:15:59.828125
1152,16.05,2021-12-17 17:15:59.843750
1153,18.73,2021-12-17 17:15:59.859375
1154,18.67,2021-12-17 17:15:59.875000
1155,16.53,2021-12-17 17:15:59.890625
1156,12.89,2021-12-17 17:15:59.906250
1157,8.22,2021-12-17 17:15:59.921875
1158,2.88,2021-12-17 17:15:59.937500
1159,-2.72,2021-12-17 17:15:59.953125
1160,-8.08,2021-12-17 17:15:59.968750
1161,-12.72,2021-12-17 17:15:59.984375
1162,-16.3,2021-12-17 17:16:00.000000
1163,-18.77,2021-12-17 17:16:00.015625
1164,-20.42,2021-12-17 17:16:00.031250
1165,-21.73,2021-12-17 17:16:00.046875
1166,-23.17,2021-12-17 17:16:00.062500
1167,-25.07,2021-12-17 17:16:00.078125
1168,-27.62,2021-12-17 17:16:00.093750
1169,-30.87,2021-12-17 17:16:00.109375
1170,-34.87,2021-12-17 17:16:00.125000
1171,-39.62,2021-12-17 17:16:00.140625
1172,-45.08,2021-12-17 17:16:00.156250
1173,-51.04,2021-12-17 17:16:00.171875
1174,-57.04,2021-12-17 17:16:00.187500
1175,-62.38,2021-12-17 17:16:00.203125
1176,-66.28,2021-12-17 17:16:00.218750
1177,-68.0,2021-12-17 17:16:00.234375
1178,-67.12,2021-12-17 17:16:00.250000
1179,-63.72,2021-12-17 17:16:00.265625
1180,-58.39,2021-12-17 17:16:00.281250
1181,-52.21,2021-12-17 17:16:00.296875
1182,-46.38,2021-12-17 17:16:00.312500
1183,-41.96,2021-12-17 17:16:00.328125
1184,-39.53,2021-12-17 17:16:00.343750
1185,-39.06,2021-12-17 17:16:00.359375
1186,-39.98,2021-12-17 17:16:00.375000
1187,-41.38,2021-12-17 17:16:00.390625
1188,-42.28,2021-12-17 17:16:00.406250
1189,-41.87,2021-12-17 17:16:00.421875
1190,-39.57,2021-12-17 17:16:00.437500
1191,-35.16,2021-12-17 17:16:00.453125
1192,-28.71,2021-12-17 17:16:00.468750
1193,-20.63,2021-12-17 17:16:00.484375
1194,-11.65,2021-12-17 17:16:00.500000
1195,-2.66,2021-12-17 17:16:00.515625
1196,5.41,2021-12-17 17:16:00.531250
1197,11.88,2021-12-17 17:16:00.546875
1198,16.37,2021-12-17 17:16:00.562500
1199,18.94,2021-12-17 17:16:00.578125
1200,19.85,2021-12-17 17:16:00.593750
1201,19.48,2021-12-17 17:16:00.609375
1202,18.16,2021-12-17 17:16:00.625000
1203,16.13,2021-12-17 17:16:00.640625
1204,13.59,2021-12-17 17:16:00.656250
1205,10.8,2021-12-17 17:16:00.671875
1206,8.05,2021-12-17 17:16:00.687500
1207,5.6,2021-12-17 17:16:00.703125
1208,3.61,2021-12-17 17:16:00.718750
1209,2.11,2021-12-17 17:16:00.734375
1210,1.04,2021-12-17 17:16:00.750000
1211,0.34,2021-12-17 17:16:00.765625
1212,0.0,2021-12-17 17:16:00.781250
1213,0.03,2021-12-17 17:16:00.796875
1214,0.36,2021-12-17 17:16:00.812500
1215,0.79,2021-12-17 17:16:00.828125
1216,1.0,2021-12-17 17:16:00.843750
1217,0.63,2021-12-17 17:16:00.859375
1218,-0.59,2021-12-17 17:16:00.875000
1219,-2.81,2021-12-17 17:16:00.890625
1220,-6.05,2021-12-17 17:16:00.906250
1221,-10.35,2021-12-17 17:16:00.921875
1222,-15.69,2021-12-17 17:16:00.937500
1223,-22.03,2021-12-17 17:16:00.953125
1224,-29.22,2021-12-17 17:16:00.968750
1225,-36.91,2021-12-17 17:16:00.984375
1226,-44.66,2021-12-17 17:16:01.000000
1227,-52.04,2021-12-17 17:16:01.015625
1228,-58.61,2021-12-17 17:16:01.031250
1229,-63.96,2021-12-17 17:16:01.046875
1230,-67.59,2021-12-17 17:16:01.062500
1231,-68.85,2021-12-17 17:16:01.078125
1232,-67.11,2021-12-17 17:16:01.093750
1233,-61.98,2021-12-17 17:16:01.109375
1234,-53.65,2021-12-17 17:16:01.125000
1235,-42.93,2021-12-17 17:16:01.140625
1236,-31.15,2021-12-17 17:16:01.156250
1237,-19.78,2021-12-17 17:16:01.171875
1238,-9.99,2021-12-17 17:16:01.187500
1239,-2.45,2021-12-17 17:16:01.203125
1240,2.72,2021-12-17 17:16:01.218750
1241,5.72,2021-12-17 17:16:01.234375
1242,6.9,2021-12-17 17:16:01.250000
1243,6.62,2021-12-17 17:16:01.265625
1244,5.3,2021-12-17 17:16:01.281250
1245,3.4,2021-12-17 17:16:01.296875
1246,1.45,2021-12-17 17:16:01.312500
1247,-0.02,2021-12-17 17:16:01.328125
1248,-0.75,2021-12-17 17:16:01.343750
1249,-0.74,2021-12-17 17:16:01.359375
1250,-0.27,2021-12-17 17:16:01.375000
1251,0.26,2021-12-17 17:16:01.390625
1252,0.6,2021-12-17 17:16:01.406250
1253,0.69,2021-12-17 17:16:01.421875
1254,0.68,2021-12-17 17:16:01.437500
1255,0.72,2021-12-17 17:16:01.453125
1256,0.78,2021-12-17 17:16:01.468750
1257,0.62,2021-12-17 17:16:01.484375
1258,-0.18,2021-12-17 17:16:01.500000
1259,-1.88,2021-12-17 17:16:01.515625
1260,-4.47,2021-12-17 17:16:01.531250
1261,-7.61,2021-12-17 17:16:01.546875
1262,-10.77,2021-12-17 17:16:01.562500
1263,-13.55,2021-12-17 17:16:01.578125
1264,-15.8,2021-12-17 17:16:01.593750
1265,-17.76,2021-12-17 17:16:01.609375
1266,-19.87,2021-12-17 17:16:01.625000
1267,-22.58,2021-12-17 17:16:01.640625
1268,-26.2,2021-12-17 17:16:01.656250
1269,-30.91,2021-12-17 17:16:01.671875
1270,-36.75,2021-12-17 17:16:01.687500
1271,-43.52,2021-12-17 17:16:01.703125
1272,-50.69,2021-12-17 17:16:01.718750
1273,-57.27,2021-12-17 17:16:01.734375
1274,-61.88,2021-12-17 17:16:01.750000
1275,-63.19,2021-12-17 17:16:01.765625
1276,-60.37,2021-12-17 17:16:01.781250
1277,-53.54,2021-12-17 17:16:01.796875
1278,-43.76,2021-12-17 17:16:01.812500
1279,-32.71,2021-12-17 17:16:01.828125
1280,-22.08,2021-12-17 17:16:01.843750
1281,-13.13,2021-12-17 17:16:01.859375
1282,-6.31,2021-12-17 17:16:01.875000
1283,-1.46,2021-12-17 17:16:01.890625
1284,1.86,2021-12-17 17:16:01.906250
1285,4.02,2021-12-17 17:16:01.921875
1286,5.21,2021-12-17 17:16:01.937500
1287,5.4,2021-12-17 17:16:01.953125
1288,4.61,2021-12-17 17:16:01.968750
1289,3.04,2021-12-17 17:16:01.984375
1290,1.11,2021-12-17 17:16:02.000000
1291,-0.65,2021-12-17 17:16:02.015625
1292,-1.78,2021-12-17 17:16:02.031250
1293,-2.04,2021-12-17 17:16:02.046875
1294,-1.5,2021-12-17 17:16:02.062500
1295,-0.43,2021-12-17 17:16:02.078125
1296,0.82,2021-12-17 17:16:02.093750
1297,1.96,2021-12-17 17:16:02.109375
1298,2.9,2021-12-17 17:16:02.125000
1299,3.7,2021-12-17 17:16:02.140625
1300,4.56,2021-12-17 17:16:02.156250
1301,5.61,2021-12-17 17:16:02.171875
1302,6.74,2021-12-17 17:16:02.187500
1303,7.5,2021-12-17 17:16:02.203125
1304,7.0,2021-12-17 17:16:02.218750
1305,4.17,2021-12-17 17:16:02.234375
1306,-1.89,2021-12-17 17:16:02.250000
1307,-11.48,2021-12-17 17:16:02.265625
1308,-24.01,2021-12-17 17:16:02.281250
1309,-37.93,2021-12-17 17:16:02.296875
1310,-50.96,2021-12-17 17:16:02.312500
1311,-60.68,2021-12-17 17:16:02.328125
1312,-65.18,2021-12-17 17:16:02.343750
1313,-63.66,2021-12-17 17:16:02.359375
1314,-56.67,2021-12-17 17:16:02.375000
1315,-45.99,2021-12-17 17:16:02.390625
1316,-33.99,2021-12-17 17:16:02.406250
1317,-22.96,2021-12-17 17:16:02.421875
1318,-14.51,2021-12-17 17:16:02.437500
1319,-9.39,2021-12-17 17:16:02.453125
1320,-7.43,2021-12-17 17:16:02.468750
1321,-7.72,2021-12-17 17:16:02.484375
1322,-8.75,2021-12-17 17:16:02.500000
1323,-8.53,2021-12-17 17:16:02.515625
1324,-4.99,2021-12-17 17:16:02.531250
1325,3.37,2021-12-17 17:16:02.546875
1326,16.79,2021-12-17 17:16:02.562500
1327,33.83,2021-12-17 17:16:02.578125
1328,51.58,2021-12-17 17:16:02.593750
1329,66.67,2021-12-17 17:16:02.609375
1330,76.49,2021-12-17 17:16:02.625000
1331,80.02,2021-12-17 17:16:02.640625
1332,77.96,2021-12-17 17:16:02.656250
1333,71.97,2021-12-17 17:16:02.671875
1334,63.73,2021-12-17 17:16:02.687500
1335,54.33,2021-12-17 17:16:02.703125
1336,44.22,2021-12-17 17:16:02.718750
1337,33.63,2021-12-17 17:16:02.734375
1338,23.02,2021-12-17 17:16:02.750000
1339,13.17,2021-12-17 17:16:02.765625
1340,4.87,2021-12-17 17:16:02.781250
1341,-1.44,2021-12-17 17:16:02.796875
1342,-5.93,2021-12-17 17:16:02.812500
1343,-9.26,2021-12-17 17:16:02.828125
1344,-12.24,2021-12-17 17:16:02.843750
1345,-15.47,2021-12-17 17:16:02.859375
1346,-19.18,2021-12-17 17:16:02.875000
1347,-23.31,2021-12-17 17:16:02.890625
1348,-27.6,2021-12-17 17:16:02.906250
1349,-31.86,2021-12-17 17:16:02.921875
1350,-35.89,2021-12-17 17:16:02.937500
1351,-39.55,2021-12-17 17:16:02.953125
1352,-42.62,2021-12-17 17:16:02.968750
1353,-44.82,2021-12-17 17:16:02.984375
1354,-45.88,2021-12-17 17:16:03.000000
1355,-45.8,2021-12-17 17:16:03.015625
1356,-44.97,2021-12-17 17:16:03.031250
1357,-44.21,2021-12-17 17:16:03.046875
1358,-44.49,2021-12-17 17:16:03.062500
1359,-46.49,2021-12-17 17:16:03.078125
1360,-50.24,2021-12-17 17:16:03.093750
1361,-54.91,2021-12-17 17:16:03.109375
1362,-59.15,2021-12-17 17:16:03.125000
1363,-61.46,2021-12-17 17:16:03.140625
1364,-60.81,2021-12-17 17:16:03.156250
1365,-56.92,2021-12-17 17:16:03.171875
1366,-50.18,2021-12-17 17:16:03.187500
1367,-41.37,2021-12-17 17:16:03.203125
1368,-31.32,2021-12-17 17:16:03.218750
1369,-20.74,2021-12-17 17:16:03.234375
1370,-10.21,2021-12-17 17:16:03.250000
1371,-0.3,2021-12-17 17:16:03.265625
1372,8.42,2021-12-17 17:16:03.281250
1373,15.57,2021-12-17 17:16:03.296875
1374,21.01,2021-12-17 17:16:03.312500
1375,24.97,2021-12-17 17:16:03.328125
1376,27.92,2021-12-17 17:16:03.343750
1377,30.38,2021-12-17 17:16:03.359375
1378,32.71,2021-12-17 17:16:03.375000
1379,35.13,2021-12-17 17:16:03.390625
1380,37.66,2021-12-17 17:16:03.406250
1381,40.24,2021-12-17 17:16:03.421875
1382,42.83,2021-12-17 17:16:03.437500
1383,45.42,2021-12-17 17:16:03.453125
1384,48.13,2021-12-17 17:16:03.468750
1385,51.27,2021-12-17 17:16:03.484375
1386,55.23,2021-12-17 17:16:03.500000
1387,60.34,2021-12-17 17:16:03.515625
1388,66.6,2021-12-17 17:16:03.531250
1389,73.51,2021-12-17 17:16:03.546875
1390,80.18,2021-12-17 17:16:03.562500
1391,85.63,2021-12-17 17:16:03.578125
1392,89.45,2021-12-17 17:16:03.593750
1393,92.1,2021-12-17 17:16:03.609375
1394,94.89,2021-12-17 17:16:03.625000
1395,99.42,2021-12-17 17:16:03.640625
1396,106.79,2021-12-17 17:16:03.656250
1397,116.81,2021-12-17 17:16:03.671875
1398,127.8,2021-12-17 17:16:03.687500
1399,136.85,2021-12-17 17:16:03.703125
1400,140.76,2021-12-17 17:16:03.718750
1401,136.92,2021-12-17 17:16:03.734375
1402,124.0,2021-12-17 17:16:03.750000
1403,102.21,2021-12-17 17:16:03.765625
1404,72.97,2021-12-17 17:16:03.781250
1405,38.34,2021-12-17 17:16:03.796875
1406,0.53,2021-12-17 17:16:03.812500
1407,-38.35,2021-12-17 17:16:03.828125
1408,-76.22,2021-12-17 17:16:03.843750
1409,-110.83,2021-12-17 17:16:03.859375
1410,-139.57,2021-12-17 17:16:03.875000
1411,-159.67,2021-12-17 17:16:03.890625
1412,-168.58,2021-12-17 17:16:03.906250
1413,-164.57,2021-12-17 17:16:03.921875
1414,-147.21,2021-12-17 17:16:03.937500
1415,-117.71,2021-12-17 17:16:03.953125
1416,-78.92,2021-12-17 17:16:03.968750
1417,-35.03,2021-12-17 17:16:03.984375
1418,9.06,2021-12-17 17:16:04.000000
1419,48.64,2021-12-17 17:16:04.015625
1420,80.19,2021-12-17 17:16:04.031250
1421,102.22,2021-12-17 17:16:04.046875
1422,115.62,2021-12-17 17:16:04.062500
1423,123.29,2021-12-17 17:16:04.078125
1424,129.18,2021-12-17 17:16:04.093750
1425,136.91,2021-12-17 17:16:04.109375
1426,148.6,2021-12-17 17:16:04.125000
1427,164.4,2021-12-17 17:16:04.140625
1428,182.78,2021-12-17 17:16:04.156250
1429,201.3,2021-12-17 17:16:04.171875
1430,217.69,2021-12-17 17:16:04.187500
1431,230.46,2021-12-17 17:16:04.203125
1432,239.18,2021-12-17 17:16:04.218750
1433,244.17,2021-12-17 17:16:04.234375
1434,245.92,2021-12-17 17:16:04.250000
1435,244.65,2021-12-17 17:16:04.265625
1436,239.89,2021-12-17 17:16:04.281250
1437,230.65,2021-12-17 17:16:04.296875
1438,215.73,2021-12-17 17:16:04.312500
1439,194.54,2021-12-17 17:16:04.328125
1440,167.63,2021-12-17 17:16:04.343750
1441,136.9,2021-12-17 17:16:04.359375
1442,105.27,2021-12-17 17:16:04.375000
1443,75.76,2021-12-17 17:16:04.390625
1444,50.56,2021-12-17 17:16:04.406250
1445,30.42,2021-12-17 17:16:04.421875
1446,14.68,2021-12-17 17:16:04.437500
1447,1.93,2021-12-17 17:16:04.453125
1448,-9.06,2021-12-17 17:16:04.468750
1449,-18.7,2021-12-17 17:16:04.484375
1450,-26.46,2021-12-17 17:16:04.500000
1451,-31.34,2021-12-17 17:16:04.515625
1452,-32.72,2021-12-17 17:16:04.531250
1453,-30.93,2021-12-17 17:16:04.546875
1454,-27.39,2021-12-17 17:16:04.562500
1455,-24.25,2021-12-17 17:16:04.578125
1456,-23.59,2021-12-17 17:16:04.593750
1457,-26.71,2021-12-17 17:16:04.609375
1458,-33.86,2021-12-17 17:16:04.625000
1459,-44.31,2021-12-17 17:16:04.640625
1460,-56.81,2021-12-17 17:16:04.656250
1461,-70.12,2021-12-17 17:16:04.671875
1462,-83.32,2021-12-17 17:16:04.687500
1463,-95.84,2021-12-17 17:16:04.703125
1464,-107.36,2021-12-17 17:16:04.718750
1465,-117.49,2021-12-17 17:16:04.734375
1466,-125.79,2021-12-17 17:16:04.750000
1467,-131.83,2021-12-17 17:16:04.765625
1468,-135.36,2021-12-17 17:16:04.781250
1469,-136.44,2021-12-17 17:16:04.796875
1470,-135.48,2021-12-17 17:16:04.812500
1471,-133.13,2021-12-17 17:16:04.828125
1472,-130.22,2021-12-17 17:16:04.843750
1473,-127.58,2021-12-17 17:16:04.859375
1474,-125.83,2021-12-17 17:16:04.875000
1475,-125.14,2021-12-17 17:16:04.890625
1476,-125.25,2021-12-17 17:16:04.906250
1477,-125.41,2021-12-17 17:16:04.921875
1478,-124.78,2021-12-17 17:16:04.937500
1479,-122.83,2021-12-17 17:16:04.953125
1480,-119.65,2021-12-17 17:16:04.968750
1481,-116.05,2021-12-17 17:16:04.984375
1482,-113.32,2021-12-17 17:16:05.000000
1483,-112.66,2021-12-17 17:16:05.015625
1484,-114.7,2021-12-17 17:16:05.031250
1485,-119.3,2021-12-17 17:16:05.046875
1486,-125.55,2021-12-17 17:16:05.062500
1487,-132.0,2021-12-17 17:16:05.078125
1488,-136.93,2021-12-17 17:16:05.093750
1489,-138.39,2021-12-17 17:16:05.109375
1490,-134.43,2021-12-17 17:16:05.125000
1491,-123.41,2021-12-17 17:16:05.140625
1492,-104.48,2021-12-17 17:16:05.156250
1493,-78.16,2021-12-17 17:16:05.171875
1494,-46.63,2021-12-17 17:16:05.187500
1495,-13.39,2021-12-17 17:16:05.203125
1496,17.61,2021-12-17 17:16:05.218750
1497,43.0,2021-12-17 17:16:05.234375
1498,60.83,2021-12-17 17:16:05.250000
1499,70.74,2021-12-17 17:16:05.265625
1500,73.45,2021-12-17 17:16:05.281250
1501,70.15,2021-12-17 17:16:05.296875
1502,62.01,2021-12-17 17:16:05.312500
1503,50.22,2021-12-17 17:16:05.328125
1504,36.21,2021-12-17 17:16:05.343750
1505,21.88,2021-12-17 17:16:05.359375
1506,9.34,2021-12-17 17:16:05.375000
1507,0.37,2021-12-17 17:16:05.390625
1508,-4.16,2021-12-17 17:16:05.406250
1509,-4.57,2021-12-17 17:16:05.421875
1510,-2.05,2021-12-17 17:16:05.437500
1511,1.96,2021-12-17 17:16:05.453125
1512,6.34,2021-12-17 17:16:05.468750
1513,10.61,2021-12-17 17:16:05.484375
1514,14.75,2021-12-17 17:16:05.500000
1515,18.77,2021-12-17 17:16:05.515625
1516,22.32,2021-12-17 17:16:05.531250
1517,24.7,2021-12-17 17:16:05.546875
1518,24.99,2021-12-17 17:16:05.562500
1519,22.53,2021-12-17 17:16:05.578125
1520,17.19,2021-12-17 17:16:05.593750
1521,9.47,2021-12-17 17:16:05.609375
1522,0.34,2021-12-17 17:16:05.625000
1523,-9.11,2021-12-17 17:16:05.640625
1524,-18.05,2021-12-17 17:16:05.656250
1525,-26.14,2021-12-17 17:16:05.671875
1526,-33.59,2021-12-17 17:16:05.687500
1527,-40.95,2021-12-17 17:16:05.703125
1528,-48.74,2021-12-17 17:16:05.718750
1529,-57.13,2021-12-17 17:16:05.734375
1530,-65.76,2021-12-17 17:16:05.750000
1531,-73.8,2021-12-17 17:16:05.765625
1532,-80.34,2021-12-17 17:16:05.781250
1533,-84.76,2021-12-17 17:16:05.796875
1534,-87.0,2021-12-17 17:16:05.812500
1535,-87.57,2021-12-17 17:16:05.828125
1536,-87.25,2021-12-17 17:16:05.843750
1537,-86.69,2021-12-17 17:16:05.859375
1538,-86.12,2021-12-17 17:16:05.875000
1539,-85.37,2021-12-17 17:16:05.890625
1540,-83.96,2021-12-17 17:16:05.906250
1541,-81.43,2021-12-17 17:16:05.921875
1542,-77.49,2021-12-17 17:16:05.937500
1543,-72.02,2021-12-17 17:16:05.953125
1544,-65.03,2021-12-17 17:16:05.968750
1545,-56.57,2021-12-17 17:16:05.984375
1546,-46.88,2021-12-17 17:16:06.000000
1547,-36.5,2021-12-17 17:16:06.015625
1548,-26.34,2021-12-17 17:16:06.031250
1549,-17.44,2021-12-17 17:16:06.046875
1550,-10.69,2021-12-17 17:16:06.062500
1551,-6.38,2021-12-17 17:16:06.078125
1552,-4.07,2021-12-17 17:16:06.093750
1553,-2.77,2021-12-17 17:16:06.109375
1554,-1.42,2021-12-17 17:16:06.125000
1555,0.73,2021-12-17 17:16:06.140625
1556,3.8,2021-12-17 17:16:06.156250
1557,7.3,2021-12-17 17:16:06.171875
1558,10.47,2021-12-17 17:16:06.187500
1559,12.61,2021-12-17 17:16:06.203125
1560,13.39,2021-12-17 17:16:06.218750
1561,13.03,2021-12-17 17:16:06.234375
1562,12.09,2021-12-17 17:16:06.250000
1563,11.36,2021-12-17 17:16:06.265625
1564,11.46,2021-12-17 17:16:06.281250
1565,12.66,2021-12-17 17:16:06.296875
1566,14.76,2021-12-17 17:16:06.312500
1567,17.19,2021-12-17 17:16:06.328125
1568,19.31,2021-12-17 17:16:06.343750
1569,20.59,2021-12-17 17:16:06.359375
1570,20.83,2021-12-17 17:16:06.375000
1571,20.15,2021-12-17 17:16:06.390625
1572,18.83,2021-12-17 17:16:06.406250
1573,17.09,2021-12-17 17:16:06.421875
1574,15.02,2021-12-17 17:16:06.437500
1575,12.61,2021-12-17 17:16:06.453125
1576,9.87,2021-12-17 17:16:06.468750
1577,6.95,2021-12-17 17:16:06.484375
1578,4.08,2021-12-17 17:16:06.500000
1579,1.45,2021-12-17 17:16:06.515625
1580,-0.97,2021-12-17 17:16:06.531250
1581,-3.51,2021-12-17 17:16:06.546875
1582,-6.69,2021-12-17 17:16:06.562500
1583,-10.95,2021-12-17 17:16:06.578125
1584,-16.25,2021-12-17 17:16:06.593750
1585,-21.97,2021-12-17 17:16:06.609375
1586,-26.94,2021-12-17 17:16:06.625000
1587,-29.8,2021-12-17 17:16:06.640625
1588,-29.48,2021-12-17 17:16:06.656250
1589,-25.59,2021-12-17 17:16:06.671875
1590,-18.57,2021-12-17 17:16:06.687500
1591,-9.54,2021-12-17 17:16:06.703125
1592,-0.0,2021-12-17 17:16:06.718750
1593,8.66,2021-12-17 17:16:06.734375
1594,15.5,2021-12-17 17:16:06.750000
1595,20.2,2021-12-17 17:16:06.765625
1596,22.94,2021-12-17 17:16:06.781250
1597,24.16,2021-12-17 17:16:06.796875
1598,24.29,2021-12-17 17:16:06.812500
1599,23.5,2021-12-17 17:16:06.828125
1600,21.84,2021-12-17 17:16:06.843750
1601,19.38,2021-12-17 17:16:06.859375
1602,16.48,2021-12-17 17:16:06.875000
1603,13.71,2021-12-17 17:16:06.890625
1604,11.74,2021-12-17 17:16:06.906250
1605,10.95,2021-12-17 17:16:06.921875
1606,11.27,2021-12-17 17:16:06.937500
1607,12.17,2021-12-17 17:16:06.953125
1608,13.06,2021-12-17 17:16:06.968750
1609,13.59,2021-12-17 17:16:06.984375
1610,13.78,2021-12-17 17:16:07.000000
1611,13.91,2021-12-17 17:16:07.015625
1612,14.17,2021-12-17 17:16:07.031250
1613,14.46,2021-12-17 17:16:07.046875
1614,14.4,2021-12-17 17:16:07.062500
1615,13.6,2021-12-17 17:16:07.078125
1616,12.05,2021-12-17 17:16:07.093750
1617,10.16,2021-12-17 17:16:07.109375
1618,8.67,2021-12-17 17:16:07.125000
1619,8.2,2021-12-17 17:16:07.140625
1620,9.0,2021-12-17 17:16:07.156250
1621,10.85,2021-12-17 17:16:07.171875
1622,13.3,2021-12-17 17:16:07.187500
1623,15.91,2021-12-17 17:16:07.203125
1624,18.38,2021-12-17 17:16:07.218750
1625,20.5,2021-12-17 17:16:07.234375
1626,22.0,2021-12-17 17:16:07.250000
1627,22.6,2021-12-17 17:16:07.265625
1628,22.05,2021-12-17 17:16:07.281250
1629,20.52,2021-12-17 17:16:07.296875
1630,18.63,2021-12-17 17:16:07.312500
1631,17.38,2021-12-17 17:16:07.328125
1632,17.79,2021-12-17 17:16:07.343750
1633,20.42,2021-12-17 17:16:07.359375
1634,25.11,2021-12-17 17:16:07.375000
1635,30.97,2021-12-17 17:16:07.390625
1636,36.78,2021-12-17 17:16:07.406250
1637,41.32,2021-12-17 17:16:07.421875
1638,43.78,2021-12-17 17:16:07.437500
1639,43.88,2021-12-17 17:16:07.453125
1640,41.66,2021-12-17 17:16:07.468750
1641,37.48,2021-12-17 17:16:07.484375
1642,31.75,2021-12-17 17:16:07.500000
1643,24.95,2021-12-17 17:16:07.515625
1644,17.61,2021-12-17 17:16:07.531250
1645,10.29,2021-12-17 17:16:07.546875
1646,3.57,2021-12-17 17:16:07.562500
1647,-2.05,2021-12-17 17:16:07.578125
1648,-6.23,2021-12-17 17:16:07.593750
1649,-8.93,2021-12-17 17:16:07.609375
1650,-10.43,2021-12-17 17:16:07.625000
1651,-11.19,2021-12-17 17:16:07.640625
1652,-11.71,2021-12-17 17:16:07.656250
1653,-12.38,2021-12-17 17:16:07.671875
1654,-13.36,2021-12-17 17:16:07.687500
1655,-14.61,2021-12-17 17:16:07.703125
1656,-15.92,2021-12-17 17:16:07.718750
1657,-17.08,2021-12-17 17:16:07.734375
1658,-17.94,2021-12-17 17:16:07.750000
1659,-18.47,2021-12-17 17:16:07.765625
1660,-18.76,2021-12-17 17:16:07.781250
1661,-18.95,2021-12-17 17:16:07.796875
1662,-19.17,2021-12-17 17:16:07.812500
1663,-19.44,2021-12-17 17:16:07.828125
1664,-19.74,2021-12-17 17:16:07.843750
1665,-19.95,2021-12-17 17:16:07.859375
1666,-20.05,2021-12-17 17:16:07.875000
1667,-20.18,2021-12-17 17:16:07.890625
1668,-20.67,2021-12-17 17:16:07.906250
1669,-21.95,2021-12-17 17:16:07.921875
1670,-24.31,2021-12-17 17:16:07.937500
1671,-27.72,2021-12-17 17:16:07.953125
1672,-31.55,2021-12-17 17:16:07.968750
1673,-34.78,2021-12-17 17:16:07.984375
1674,-36.12,2021-12-17 17:16:08.000000
1675,-34.53,2021-12-17 17:16:08.015625
1676,-29.55,2021-12-17 17:16:08.031250
1677,-21.48,2021-12-17 17:16:08.046875
1678,-11.33,2021-12-17 17:16:08.062500
1679,-0.42,2021-12-17 17:16:08.078125
1680,9.98,2021-12-17 17:16:08.093750
1681,19.0,2021-12-17 17:16:08.109375
1682,26.3,2021-12-17 17:16:08.125000
1683,31.9,2021-12-17 17:16:08.140625
1684,36.01,2021-12-17 17:16:08.156250
1685,38.8,2021-12-17 17:16:08.171875
1686,40.34,2021-12-17 17:16:08.187500
1687,40.72,2021-12-17 17:16:08.203125
1688,40.1,2021-12-17 17:16:08.218750
1689,38.81,2021-12-17 17:16:08.234375
1690,37.28,2021-12-17 17:16:08.250000
1691,35.86,2021-12-17 17:16:08.265625
1692,34.79,2021-12-17 17:16:08.281250
1693,34.11,2021-12-17 17:16:08.296875
1694,33.73,2021-12-17 17:16:08.312500
1695,33.56,2021-12-17 17:16:08.328125
1696,33.49,2021-12-17 17:16:08.343750
1697,33.4,2021-12-17 17:16:08.359375
1698,33.11,2021-12-17 17:16:08.375000
1699,32.4,2021-12-17 17:16:08.390625
1700,31.06,2021-12-17 17:16:08.406250
1701,28.96,2021-12-17 17:16:08.421875
1702,26.07,2021-12-17 17:16:08.437500
1703,22.44,2021-12-17 17:16:08.453125
1704,18.18,2021-12-17 17:16:08.468750
1705,13.42,2021-12-17 17:16:08.484375
1706,8.43,2021-12-17 17:16:08.500000
1707,3.52,2021-12-17 17:16:08.515625
1708,-1.03,2021-12-17 17:16:08.531250
1709,-5.1,2021-12-17 17:16:08.546875
1710,-8.81,2021-12-17 17:16:08.562500
1711,-12.47,2021-12-17 17:16:08.578125
1712,-16.33,2021-12-17 17:16:08.593750
1713,-20.36,2021-12-17 17:16:08.609375
1714,-24.1,2021-12-17 17:16:08.625000
1715,-26.74,2021-12-17 17:16:08.640625
1716,-27.5,2021-12-17 17:16:08.656250
1717,-25.86,2021-12-17 17:16:08.671875
1718,-21.84,2021-12-17 17:16:08.687500
1719,-15.9,2021-12-17 17:16:08.703125
1720,-8.8,2021-12-17 17:16:08.718750
1721,-1.32,2021-12-17 17:16:08.734375
1722,5.89,2021-12-17 17:16:08.750000
1723,12.35,2021-12-17 17:16:08.765625
1724,17.8,2021-12-17 17:16:08.781250
1725,22.07,2021-12-17 17:16:08.796875
1726,25.09,2021-12-17 17:16:08.812500
1727,26.82,2021-12-17 17:16:08.828125
1728,27.28,2021-12-17 17:16:08.843750
1729,26.56,2021-12-17 17:16:08.859375
1730,24.89,2021-12-17 17:16:08.875000
1731,22.58,2021-12-17 17:16:08.890625
1732,20.09,2021-12-17 17:16:08.906250
1733,17.81,2021-12-17 17:16:08.921875
1734,15.98,2021-12-17 17:16:08.937500
1735,14.58,2021-12-17 17:16:08.953125
1736,13.36,2021-12-17 17:16:08.968750
1737,12.01,2021-12-17 17:16:08.984375
1738,10.32,2021-12-17 17:16:09.000000
1739,8.41,2021-12-17 17:16:09.015625
1740,6.57,2021-12-17 17:16:09.031250
1741,5.19,2021-12-17 17:16:09.046875
1742,4.48,2021-12-17 17:16:09.062500
1743,4.32,2021-12-17 17:16:09.078125
1744,4.27,2021-12-17 17:16:09.093750
1745,3.75,2021-12-17 17:16:09.109375
1746,2.21,2021-12-17 17:16:09.125000
1747,-0.61,2021-12-17 17:16:09.140625
1748,-4.58,2021-12-17 17:16:09.156250
1749,-9.34,2021-12-17 17:16:09.171875
1750,-14.51,2021-12-17 17:16:09.187500
1751,-19.85,2021-12-17 17:16:09.203125
1752,-25.47,2021-12-17 17:16:09.218750
1753,-31.72,2021-12-17 17:16:09.234375
1754,-38.95,2021-12-17 17:16:09.250000
1755,-47.24,2021-12-17 17:16:09.265625
1756,-56.19,2021-12-17 17:16:09.281250
1757,-64.94,2021-12-17 17:16:09.296875
1758,-72.33,2021-12-17 17:16:09.312500
1759,-77.26,2021-12-17 17:16:09.328125
1760,-79.01,2021-12-17 17:16:09.343750
1761,-77.39,2021-12-17 17:16:09.359375
1762,-72.76,2021-12-17 17:16:09.375000
1763,-65.82,2021-12-17 17:16:09.390625
1764,-57.41,2021-12-17 17:16:09.406250
1765,-48.3,2021-12-17 17:16:09.421875
1766,-39.09,2021-12-17 17:16:09.437500
1767,-30.16,2021-12-17 17:16:09.453125
1768,-21.82,2021-12-17 17:16:09.468750
1769,-14.46,2021-12-17 17:16:09.484375
1770,-8.6,2021-12-17 17:16:09.500000
1771,-4.74,2021-12-17 17:16:09.515625
1772,-3.1,2021-12-17 17:16:09.531250
1773,-3.35,2021-12-17 17:16:09.546875
1774,-4.44,2021-12-17 17:16:09.562500
1775,-4.82,2021-12-17 17:16:09.578125
1776,-2.95,2021-12-17 17:16:09.593750
1777,2.09,2021-12-17 17:16:09.609375
1778,10.19,2021-12-17 17:16:09.625000
1779,20.22,2021-12-17 17:16:09.640625
1780,30.64,2021-12-17 17:16:09.656250
1781,40.17,2021-12-17 17:16:09.671875
1782,48.56,2021-12-17 17:16:09.687500
1783,56.6,2021-12-17 17:16:09.703125
1784,65.72,2021-12-17 17:16:09.718750
1785,77.23,2021-12-17 17:16:09.734375
1786,91.56,2021-12-17 17:16:09.750000
1787,107.93,2021-12-17 17:16:09.765625
1788,124.21,2021-12-17 17:16:09.781250
1789,137.26,2021-12-17 17:16:09.796875
1790,143.27,2021-12-17 17:16:09.812500
1791,138.44,2021-12-17 17:16:09.828125
1792,120.03,2021-12-17 17:16:09.843750
1793,87.52,2021-12-17 17:16:09.859375
1794,43.56,2021-12-17 17:16:09.875000
1795,-6.0,2021-12-17 17:16:09.890625
1796,-53.37,2021-12-17 17:16:09.906250
1797,-91.1,2021-12-17 17:16:09.921875
1798,-114.51,2021-12-17 17:16:09.937500
1799,-122.97,2021-12-17 17:16:09.953125
1800,-119.57,2021-12-17 17:16:09.968750
1801,-109.24,2021-12-17 17:16:09.984375
1802,-96.47,2021-12-17 17:16:10.000000
1803,-83.78,2021-12-17 17:16:10.015625
1804,-71.53,2021-12-17 17:16:10.031250
1805,-58.9,2021-12-17 17:16:10.046875
1806,-45.22,2021-12-17 17:16:10.062500
1807,-30.74,2021-12-17 17:16:10.078125
1808,-16.46,2021-12-17 17:16:10.093750
1809,-3.52,2021-12-17 17:16:10.109375
1810,7.47,2021-12-17 17:16:10.125000
1811,16.61,2021-12-17 17:16:10.140625
1812,24.32,2021-12-17 17:16:10.156250
1813,30.83,2021-12-17 17:16:10.171875
1814,35.87,2021-12-17 17:16:10.187500
1815,38.66,2021-12-17 17:16:10.203125
1816,38.38,2021-12-17 17:16:10.218750
1817,34.68,2021-12-17 17:16:10.234375
1818,28.02,2021-12-17 17:16:10.250000
1819,19.72,2021-12-17 17:16:10.265625
1820,11.6,2021-12-17 17:16:10.281250
1821,5.38,2021-12-17 17:16:10.296875
1822,2.1,2021-12-17 17:16:10.312500
1823,1.73,2021-12-17 17:16:10.328125
1824,3.25,2021-12-17 17:16:10.343750
1825,5.12,2021-12-17 17:16:10.359375
1826,6.02,2021-12-17 17:16:10.375000
1827,5.38,2021-12-17 17:16:10.390625
1828,3.57,2021-12-17 17:16:10.406250
1829,1.57,2021-12-17 17:16:10.421875
1830,0.31,2021-12-17 17:16:10.437500
1831,0.18,2021-12-17 17:16:10.453125
1832,0.8,2021-12-17 17:16:10.468750
1833,1.31,2021-12-17 17:16:10.484375
1834,0.81,2021-12-17 17:16:10.500000
1835,-1.18,2021-12-17 17:16:10.515625
1836,-4.59,2021-12-17 17:16:10.531250
1837,-9.01,2021-12-17 17:16:10.546875
1838,-13.94,2021-12-17 17:16:10.562500
1839,-19.1,2021-12-17 17:16:10.578125
1840,-24.36,2021-12-17 17:16:10.593750
1841,-29.62,2021-12-17 17:16:10.609375
1842,-34.56,2021-12-17 17:16:10.625000
1843,-38.51,2021-12-17 17:16:10.640625
1844,-40.53,2021-12-17 17:16:10.656250
1845,-39.81,2021-12-17 17:16:10.671875
1846,-35.92,2021-12-17 17:16:10.687500
1847,-29.08,2021-12-17 17:16:10.703125
1848,-20.09,2021-12-17 17:16:10.718750
1849,-10.05,2021-12-17 17:16:10.734375
1850,-0.07,2021-12-17 17:16:10.750000
1851,9.03,2021-12-17 17:16:10.765625
1852,16.81,2021-12-17 17:16:10.781250
1853,23.11,2021-12-17 17:16:10.796875
1854,27.89,2021-12-17 17:16:10.812500
1855,31.09,2021-12-17 17:16:10.828125
1856,32.62,2021-12-17 17:16:10.843750
1857,32.5,2021-12-17 17:16:10.859375
1858,30.92,2021-12-17 17:16:10.875000
1859,28.32,2021-12-17 17:16:10.890625
1860,25.26,2021-12-17 17:16:10.906250
1861,22.29,2021-12-17 17:16:10.921875
1862,19.67,2021-12-17 17:16:10.937500
1863,17.4,2021-12-17 17:16:10.953125
1864,15.22,2021-12-17 17:16:10.968750
1865,12.79,2021-12-17 17:16:10.984375
1866,9.83,2021-12-17 17:16:11.000000
1867,6.23,2021-12-17 17:16:11.015625
1868,1.99,2021-12-17 17:16:11.031250
1869,-2.81,2021-12-17 17:16:11.046875
1870,-8.11,2021-12-17 17:16:11.062500
1871,-13.81,2021-12-17 17:16:11.078125
1872,-19.76,2021-12-17 17:16:11.093750
1873,-25.73,2021-12-17 17:16:11.109375
1874,-31.39,2021-12-17 17:16:11.125000
1875,-36.4,2021-12-17 17:16:11.140625
1876,-40.51,2021-12-17 17:16:11.156250
1877,-43.67,2021-12-17 17:16:11.171875
1878,-46.06,2021-12-17 17:16:11.187500
1879,-48.09,2021-12-17 17:16:11.203125
1880,-50.21,2021-12-17 17:16:11.218750
1881,-52.84,2021-12-17 17:16:11.234375
1882,-56.1,2021-12-17 17:16:11.250000
1883,-59.7,2021-12-17 17:16:11.265625
1884,-62.94,2021-12-17 17:16:11.281250
1885,-64.9,2021-12-17 17:16:11.296875
1886,-64.7,2021-12-17 17:16:11.312500
1887,-61.77,2021-12-17 17:16:11.328125
1888,-56.11,2021-12-17 17:16:11.343750
1889,-48.11,2021-12-17 17:16:11.359375
1890,-38.48,2021-12-17 17:16:11.375000
1891,-27.97,2021-12-17 17:16:11.390625
1892,-17.12,2021-12-17 17:16:11.406250
1893,-6.25,2021-12-17 17:16:11.421875
1894,4.61,2021-12-17 17:16:11.437500
1895,15.64,2021-12-17 17:16:11.453125
1896,27.03,2021-12-17 17:16:11.468750
1897,38.87,2021-12-17 17:16:11.484375
1898,50.88,2021-12-17 17:16:11.500000
1899,62.35,2021-12-17 17:16:11.515625
1900,72.19,2021-12-17 17:16:11.531250
1901,79.29,2021-12-17 17:16:11.546875
1902,83.0,2021-12-17 17:16:11.562500
1903,83.66,2021-12-17 17:16:11.578125
1904,82.68,2021-12-17 17:16:11.593750
1905,82.34,2021-12-17 17:16:11.609375
1906,84.9,2021-12-17 17:16:11.625000
1907,91.84,2021-12-17 17:16:11.640625
1908,103.16,2021-12-17 17:16:11.656250
1909,117.39,2021-12-17 17:16:11.671875
1910,132.13,2021-12-17 17:16:11.687500
1911,144.87,2021-12-17 17:16:11.703125
1912,153.62,2021-12-17 17:16:11.718750
1913,157.3,2021-12-17 17:16:11.734375
1914,155.59,2021-12-17 17:16:11.750000
1915,148.66,2021-12-17 17:16:11.765625
1916,136.97,2021-12-17 17:16:11.781250
1917,121.16,2021-12-17 17:16:11.796875
1918,102.12,2021-12-17 17:16:11.812500
1919,80.95,2021-12-17 17:16:11.828125
1920,58.85,2021-12-17 17:16:11.843750
1921,36.91,2021-12-17 17:16:11.859375
1922,15.94,2021-12-17 17:16:11.875000
1923,-3.47,2021-12-17 17:16:11.890625
1924,-20.83,2021-12-17 17:16:11.906250
1925,-35.54,2021-12-17 17:16:11.921875
1926,-46.95,2021-12-17 17:16:11.937500
1927,-54.52,2021-12-17 17:16:11.953125
1928,-58.12,2021-12-17 17:16:11.968750
1929,-58.12,2021-12-17 17:16:11.984375
1930,-55.36,2021-12-17 17:16:12.000000
1931,-50.9,2021-12-17 17:16:12.015625
1932,-45.75,2021-12-17 17:16:12.031250
1933,-40.66,2021-12-17 17:16:12.046875
1934,-36.09,2021-12-17 17:16:12.062500
1935,-32.35,2021-12-17 17:16:12.078125
1936,-29.66,2021-12-17 17:16:12.093750
1937,-28.27,2021-12-17 17:16:12.109375
1938,-28.37,2021-12-17 17:16:12.125000
1939,-29.96,2021-12-17 17:16:12.140625
1940,-32.74,2021-12-17 17:16:12.156250
1941,-36.12,2021-12-17 17:16:12.171875
1942,-39.28,2021-12-17 17:16:12.187500
1943,-41.5,2021-12-17 17:16:12.203125
1944,-42.41,2021-12-17 17:16:12.218750
1945,-42.06,2021-12-17 17:16:12.234375
1946,-40.94,2021-12-17 17:16:12.250000
1947,-39.65,2021-12-17 17:16:12.265625
1948,-38.59,2021-12-17 17:16:12.281250
1949,-37.85,2021-12-17 17:16:12.296875
1950,-37.2,2021-12-17 17:16:12.312500
1951,-36.33,2021-12-17 17:16:12.328125
1952,-35.09,2021-12-17 17:16:12.343750
1953,-33.65,2021-12-17 17:16:12.359375
1954,-32.36,2021-12-17 17:16:12.375000
1955,-31.61,2021-12-17 17:16:12.390625
1956,-31.61,2021-12-17 17:16:12.406250
1957,-32.34,2021-12-17 17:16:12.421875
1958,-33.63,2021-12-17 17:16:12.437500
1959,-35.27,2021-12-17 17:16:12.453125
1960,-37.16,2021-12-17 17:16:12.468750
1961,-39.18,2021-12-17 17:16:12.484375
1962,-41.09,2021-12-17 17:16:12.500000
1963,-42.4,2021-12-17 17:16:12.515625
1964,-42.29,2021-12-17 17:16:12.531250
1965,-39.83,2021-12-17 17:16:12.546875
1966,-34.17,2021-12-17 17:16:12.562500
1967,-24.89,2021-12-17 17:16:12.578125
1968,-12.19,2021-12-17 17:16:12.593750
1969,3.04,2021-12-17 17:16:12.609375
1970,19.32,2021-12-17 17:16:12.625000
1971,34.91,2021-12-17 17:16:12.640625
1972,48.26,2021-12-17 17:16:12.656250
1973,58.33,2021-12-17 17:16:12.671875
1974,64.98,2021-12-17 17:16:12.687500
1975,68.95,2021-12-17 17:16:12.703125
1976,71.65,2021-12-17 17:16:12.718750
1977,74.63,2021-12-17 17:16:12.734375
1978,79.04,2021-12-17 17:16:12.750000
1979,85.15,2021-12-17 17:16:12.765625
1980,92.26,2021-12-17 17:16:12.781250
1981,98.89,2021-12-17 17:16:12.796875
1982,103.18,2021-12-17 17:16:12.812500
1983,103.55,2021-12-17 17:16:12.828125
1984,99.13,2021-12-17 17:16:12.843750
1985,90.0,2021-12-17 17:16:12.859375
1986,77.21,2021-12-17 17:16:12.875000
1987,62.35,2021-12-17 17:16:12.890625
1988,47.1,2021-12-17 17:16:12.906250
1989,32.88,2021-12-17 17:16:12.921875
1990,20.72,2021-12-17 17:16:12.937500
1991,11.21,2021-12-17 17:16:12.953125
1992,4.79,2021-12-17 17:16:12.968750
1993,1.73,2021-12-17 17:16:12.984375
1994,2.1,2021-12-17 17:16:13.000000
1995,5.74,2021-12-17 17:16:13.015625
1996,12.31,2021-12-17 17:16:13.031250
1997,21.4,2021-12-17 17:16:13.046875
1998,32.49,2021-12-17 17:16:13.062500
1999,44.63,2021-12-17 17:16:13.078125
2000,55.88,2021-12-17 17:16:13.093750
2001,62.99,2021-12-17 17:16:13.109375
2002,61.9,2021-12-17 17:16:13.125000
2003,49.09,2021-12-17 17:16:13.140625
2004,23.37,2021-12-17 17:16:13.156250
2005,-13.03,2021-12-17 17:16:13.171875
2006,-54.6,2021-12-17 17:16:13.187500
2007,-94.49,2021-12-17 17:16:13.203125
2008,-126.83,2021-12-17 17:16:13.218750
2009,-148.78,2021-12-17 17:16:13.234375
2010,-160.84,2021-12-17 17:16:13.250000
2011,-165.64,2021-12-17 17:16:13.265625
2012,-166.13,2021-12-17 17:16:13.281250
2013,-164.12,2021-12-17 17:16:13.296875
2014,-160.09,2021-12-17 17:16:13.312500
2015,-153.92,2021-12-17 17:16:13.328125
2016,-145.92,2021-12-17 17:16:13.343750
2017,-137.2,2021-12-17 17:16:13.359375
2018,-129.28,2021-12-17 17:16:13.375000
2019,-123.25,2021-12-17 17:16:13.390625
2020,-119.22,2021-12-17 17:16:13.406250
2021,-116.37,2021-12-17 17:16:13.421875
2022,-113.56,2021-12-17 17:16:13.437500
2023,-110.16,2021-12-17 17:16:13.453125
2024,-106.35,2021-12-17 17:16:13.468750
2025,-102.96,2021-12-17 17:16:13.484375
2026,-100.84,2021-12-17 17:16:13.500000
2027,-100.36,2021-12-17 17:16:13.515625
2028,-101.23,2021-12-17 17:16:13.531250
2029,-102.77,2021-12-17 17:16:13.546875
2030,-104.35,2021-12-17 17:16:13.562500
2031,-105.75,2021-12-17 17:16:13.578125
2032,-107.3,2021-12-17 17:16:13.593750
2033,-109.58,2021-12-17 17:16:13.609375
2034,-113.1,2021-12-17 17:16:13.625000
2035,-117.91,2021-12-17 17:16:13.640625
2036,-123.32,2021-12-17 17:16:13.656250
2037,-127.87,2021-12-17 17:16:13.671875
2038,-129.6,2021-12-17 17:16:13.687500
2039,-126.51,2021-12-17 17:16:13.703125
2040,-117.26,2021-12-17 17:16:13.718750
2041,-101.92,2021-12-17 17:16:13.734375
2042,-82.27,2021-12-17 17:16:13.750000
2043,-61.59,2021-12-17 17:16:13.765625
2044,-43.69,2021-12-17 17:16:13.781250
2045,-31.5,2021-12-17 17:16:13.796875
2046,-25.93,2021-12-17 17:16:13.812500
2047,-25.51,2021-12-17 17:16:13.828125
2048,-27.09,2021-12-17 17:16:13.843750
2049,-27.28,2021-12-17 17:16:13.859375
2050,-24.1,2021-12-17 17:16:13.875000
2051,-17.6,2021-12-17 17:16:13.890625
2052,-9.47,2021-12-17 17:16:13.906250
2053,-1.63,2021-12-17 17:16:13.921875
2054,5.31,2021-12-17 17:16:13.937500
2055,12.74,2021-12-17 17:16:13.953125
2056,23.61,2021-12-17 17:16:13.968750
2057,41.05,2021-12-17 17:16:13.984375
2058,66.93,2021-12-17 17:16:14.000000
2059,101.08,2021-12-17 17:16:14.015625
2060,141.35,2021-12-17 17:16:14.031250
2061,184.33,2021-12-17 17:16:14.046875
2062,226.24,2021-12-17 17:16:14.062500
2063,263.59,2021-12-17 17:16:14.078125
2064,293.62,2021-12-17 17:16:14.093750
2065,314.55,2021-12-17 17:16:14.109375
2066,325.75,2021-12-17 17:16:14.125000
2067,327.65,2021-12-17 17:16:14.140625
2068,321.42,2021-12-17 17:16:14.156250
2069,308.32,2021-12-17 17:16:14.171875
2070,288.99,2021-12-17 17:16:14.187500
2071,263.2,2021-12-17 17:16:14.203125
2072,230.38,2021-12-17 17:16:14.218750
2073,190.7,2021-12-17 17:16:14.234375
2074,146.29,2021-12-17 17:16:14.250000
2075,101.54,2021-12-17 17:16:14.265625
2076,62.24,2021-12-17 17:16:14.281250
2077,33.85,2021-12-17 17:16:14.296875
2078,19.52,2021-12-17 17:16:14.312500
2079,18.85,2021-12-17 17:16:14.328125
2080,28.08,2021-12-17 17:16:14.343750
2081,41.42,2021-12-17 17:16:14.359375
2082,52.95,2021-12-17 17:16:14.375000
2083,58.48,2021-12-17 17:16:14.390625
2084,56.38,2021-12-17 17:16:14.406250
2085,47.52,2021-12-17 17:16:14.421875
2086,34.39,2021-12-17 17:16:14.437500
2087,20.09,2021-12-17 17:16:14.453125
2088,7.57,2021-12-17 17:16:14.468750
2089,-0.8,2021-12-17 17:16:14.484375
2090,-3.24,2021-12-17 17:16:14.500000
2091,1.36,2021-12-17 17:16:14.515625
2092,13.37,2021-12-17 17:16:14.531250
2093,32.24,2021-12-17 17:16:14.546875
2094,56.29,2021-12-17 17:16:14.562500
2095,82.77,2021-12-17 17:16:14.578125
2096,108.21,2021-12-17 17:16:14.593750
2097,129.04,2021-12-17 17:16:14.609375
2098,142.36,2021-12-17 17:16:14.625000
2099,146.64,2021-12-17 17:16:14.640625
2100,142.02,2021-12-17 17:16:14.656250
2101,130.16,2021-12-17 17:16:14.671875
2102,113.68,2021-12-17 17:16:14.687500
2103,95.46,2021-12-17 17:16:14.703125
2104,77.76,2021-12-17 17:16:14.718750
2105,61.66,2021-12-17 17:16:14.734375
2106,46.82,2021-12-17 17:16:14.750000
2107,31.72,2021-12-17 17:16:14.765625
2108,14.42,2021-12-17 17:16:14.781250
2109,-6.51,2021-12-17 17:16:14.796875
2110,-31.16,2021-12-17 17:16:14.812500
2111,-58.12,2021-12-17 17:16:14.828125
2112,-84.88,2021-12-17 17:16:14.843750
2113,-108.77,2021-12-17 17:16:14.859375
2114,-127.85,2021-12-17 17:16:14.875000
2115,-141.25,2021-12-17 17:16:14.890625
2116,-149.03,2021-12-17 17:16:14.906250
2117,-151.63,2021-12-17 17:16:14.921875
2118,-149.53,2021-12-17 17:16:14.937500
2119,-143.24,2021-12-17 17:16:14.953125
2120,-133.56,2021-12-17 17:16:14.968750
2121,-121.8,2021-12-17 17:16:14.984375
2122,-109.57,2021-12-17 17:16:15.000000
2123,-98.17,2021-12-17 17:16:15.015625
2124,-87.98,2021-12-17 17:16:15.031250
2125,-78.19,2021-12-17 17:16:15.046875
2126,-67.21,2021-12-17 17:16:15.062500
2127,-53.5,2021-12-17 17:16:15.078125
2128,-36.4,2021-12-17 17:16:15.093750
2129,-16.59,2021-12-17 17:16:15.109375
2130,4.14,2021-12-17 17:16:15.125000
2131,23.46,2021-12-17 17:16:15.140625
2132,39.29,2021-12-17 17:16:15.156250
2133,50.37,2021-12-17 17:16:15.171875
2134,56.54,2021-12-17 17:16:15.187500
2135,58.69,2021-12-17 17:16:15.203125
2136,58.42,2021-12-17 17:16:15.218750
2137,57.66,2021-12-17 17:16:15.234375
2138,58.17,2021-12-17 17:16:15.250000
2139,61.22,2021-12-17 17:16:15.265625
2140,67.32,2021-12-17 17:16:15.281250
2141,76.01,2021-12-17 17:16:15.296875
2142,85.9,2021-12-17 17:16:15.312500
2143,94.87,2021-12-17 17:16:15.328125
2144,100.69,2021-12-17 17:16:15.343750
2145,101.79,2021-12-17 17:16:15.359375
2146,98.04,2021-12-17 17:16:15.375000
2147,90.87,2021-12-17 17:16:15.390625
2148,82.72,2021-12-17 17:16:15.406250
2149,75.77,2021-12-17 17:16:15.421875
2150,70.69,2021-12-17 17:16:15.437500
2151,66.13,2021-12-17 17:16:15.453125
2152,59.37,2021-12-17 17:16:15.468750
2153,47.71,2021-12-17 17:16:15.484375
2154,30.06,2021-12-17 17:16:15.500000
2155,7.62,2021-12-17 17:16:15.515625
2156,-16.47,2021-12-17 17:16:15.531250
2157,-38.38,2021-12-17 17:16:15.546875
2158,-55.07,2021-12-17 17:16:15.562500
2159,-65.19,2021-12-17 17:16:15.578125
2160,-69.22,2021-12-17 17:16:15.593750
2161,-68.92,2021-12-17 17:16:15.609375
2162,-66.53,2021-12-17 17:16:15.625000
2163,-64.13,2021-12-17 17:16:15.640625
2164,-63.24,2021-12-17 17:16:15.656250
2165,-64.71,2021-12-17 17:16:15.671875
2166,-68.86,2021-12-17 17:16:15.687500
2167,-75.62,2021-12-17 17:16:15.703125
2168,-84.68,2021-12-17 17:16:15.718750
2169,-95.55,2021-12-17 17:16:15.734375
2170,-107.5,2021-12-17 17:16:15.750000
2171,-119.43,2021-12-17 17:16:15.765625
2172,-129.87,2021-12-17 17:16:15.781250
2173,-137.21,2021-12-17 17:16:15.796875
2174,-140.23,2021-12-17 17:16:15.812500
2175,-138.56,2021-12-17 17:16:15.828125
2176,-133.07,2021-12-17 17:16:15.843750
2177,-125.52,2021-12-17 17:16:15.859375
2178,-118.01,2021-12-17 17:16:15.875000
2179,-112.04,2021-12-17 17:16:15.890625
2180,-107.97,2021-12-17 17:16:15.906250
2181,-104.87,2021-12-17 17:16:15.921875
2182,-101.09,2021-12-17 17:16:15.937500
2183,-95.08,2021-12-17 17:16:15.953125
2184,-86.05,2021-12-17 17:16:15.968750
2185,-74.26,2021-12-17 17:16:15.984375
2186,-60.91,2021-12-17 17:16:16.000000
2187,-47.69,2021-12-17 17:16:16.015625
2188,-36.3,2021-12-17 17:16:16.031250
2189,-27.98,2021-12-17 17:16:16.046875
2190,-23.27,2021-12-17 17:16:16.062500
2191,-21.78,2021-12-17 17:16:16.078125
2192,-22.24,2021-12-17 17:16:16.093750
2193,-22.94,2021-12-17 17:16:16.109375
2194,-22.28,2021-12-17 17:16:16.125000
2195,-19.6,2021-12-17 17:16:16.140625
2196,-15.4,2021-12-17 17:16:16.156250
2197,-11.24,2021-12-17 17:16:16.171875
2198,-9.01,2021-12-17 17:16:16.187500
2199,-10.04,2021-12-17 17:16:16.203125
2200,-14.7,2021-12-17 17:16:16.218750
2201,-22.48,2021-12-17 17:16:16.234375
2202,-32.56,2021-12-17 17:16:16.250000
2203,-44.45,2021-12-17 17:16:16.265625
2204,-58.16,2021-12-17 17:16:16.281250
2205,-73.82,2021-12-17 17:16:16.296875
2206,-91.08,2021-12-17 17:16:16.312500
2207,-108.84,2021-12-17 17:16:16.328125
2208,-125.62,2021-12-17 17:16:16.343750
2209,-140.31,2021-12-17 17:16:16.359375
2210,-152.92,2021-12-17 17:16:16.375000
2211,-164.6,2021-12-17 17:16:16.390625
2212,-176.94,2021-12-17 17:16:16.406250
2213,-190.96,2021-12-17 17:16:16.421875
2214,-206.37,2021-12-17 17:16:16.437500
2215,-221.6,2021-12-17 17:16:16.453125
2216,-234.47,2021-12-17 17:16:16.468750
2217,-242.84,2021-12-17 17:16:16.484375
2218,-245.06,2021-12-17 17:16:16.500000
2219,-239.92,2021-12-17 17:16:16.515625
2220,-226.5,2021-12-17 17:16:16.531250
2221,-204.13,2021-12-17 17:16:16.546875
2222,-172.81,2021-12-17 17:16:16.562500
2223,-133.57,2021-12-17 17:16:16.578125
2224,-88.51,2021-12-17 17:16:16.593750
2225,-40.23,2021-12-17 17:16:16.609375
2226,9.14,2021-12-17 17:16:16.625000
2227,58.72,2021-12-17 17:16:16.640625
2228,109.19,2021-12-17 17:16:16.656250
2229,161.98,2021-12-17 17:16:16.671875
2230,218.15,2021-12-17 17:16:16.687500
2231,277.2,2021-12-17 17:16:16.703125
2232,336.42,2021-12-17 17:16:16.718750
2233,391.44,2021-12-17 17:16:16.734375
2234,437.48,2021-12-17 17:16:16.750000
2235,470.94,2021-12-17 17:16:16.765625
2236,490.52,2021-12-17 17:16:16.781250
2237,497.35,2021-12-17 17:16:16.796875
2238,494.04,2021-12-17 17:16:16.812500
2239,483.29,2021-12-17 17:16:16.828125
2240,466.8,2021-12-17 17:16:16.843750
2241,445.02,2021-12-17 17:16:16.859375
2242,417.77,2021-12-17 17:16:16.875000
2243,385.12,2021-12-17 17:16:16.890625
2244,347.97,2021-12-17 17:16:16.906250
2245,307.86,2021-12-17 17:16:16.921875
2246,266.34,2021-12-17 17:16:16.937500
2247,224.39,2021-12-17 17:16:16.953125
2248,182.26,2021-12-17 17:16:16.968750
2249,139.85,2021-12-17 17:16:16.984375
2250,97.32,2021-12-17 17:16:17.000000
2251,55.5,2021-12-17 17:16:17.015625
2252,15.91,2021-12-17 17:16:17.031250
2253,-19.54,2021-12-17 17:16:17.046875
2254,-48.99,2021-12-17 17:16:17.062500
2255,-71.18,2021-12-17 17:16:17.078125
2256,-85.79,2021-12-17 17:16:17.093750
2257,-93.51,2021-12-17 17:16:17.109375
2258,-95.8,2021-12-17 17:16:17.125000
2259,-94.37,2021-12-17 17:16:17.140625
2260,-90.57,2021-12-17 17:16:17.156250
2261,-85.05,2021-12-17 17:16:17.171875
2262,-77.85,2021-12-17 17:16:17.187500
2263,-68.55,2021-12-17 17:16:17.203125
2264,-56.54,2021-12-17 17:16:17.218750
2265,-41.03,2021-12-17 17:16:17.234375
2266,-21.35,2021-12-17 17:16:17.250000
2267,2.5,2021-12-17 17:16:17.265625
2268,28.95,2021-12-17 17:16:17.281250
2269,54.25,2021-12-17 17:16:17.296875
2270,73.03,2021-12-17 17:16:17.312500
2271,80.08,2021-12-17 17:16:17.328125
2272,72.89,2021-12-17 17:16:17.343750
2273,53.17,2021-12-17 17:16:17.359375
2274,26.71,2021-12-17 17:16:17.375000
2275,0.95,2021-12-17 17:16:17.390625
2276,-18.25,2021-12-17 17:16:17.406250
2277,-29.0,2021-12-17 17:16:17.421875
2278,-33.74,2021-12-17 17:16:17.437500
2279,-37.43,2021-12-17 17:16:17.453125
2280,-44.81,2021-12-17 17:16:17.468750
2281,-58.29,2021-12-17 17:16:17.484375
2282,-77.31,2021-12-17 17:16:17.500000
2283,-99.18,2021-12-17 17:16:17.515625
2284,-120.41,2021-12-17 17:16:17.531250
2285,-137.91,2021-12-17 17:16:17.546875
2286,-149.56,2021-12-17 17:16:17.562500
2287,-154.44,2021-12-17 17:16:17.578125
2288,-152.89,2021-12-17 17:16:17.593750
2289,-146.37,2021-12-17 17:16:17.609375
2290,-137.16,2021-12-17 17:16:17.625000
2291,-127.82,2021-12-17 17:16:17.640625
2292,-120.41,2021-12-17 17:16:17.656250
2293,-116.09,2021-12-17 17:16:17.671875
2294,-115.03,2021-12-17 17:16:17.687500
2295,-116.58,2021-12-17 17:16:17.703125
2296,-119.7,2021-12-17 17:16:17.718750
2297,-123.08,2021-12-17 17:16:17.734375
2298,-125.42,2021-12-17 17:16:17.750000
2299,-125.43,2021-12-17 17:16:17.765625
2300,-122.13,2021-12-17 17:16:17.781250
2301,-115.01,2021-12-17 17:16:17.796875
2302,-104.33,2021-12-17 17:16:17.812500
2303,-91.06,2021-12-17 17:16:17.828125
2304,-76.69,2021-12-17 17:16:17.843750
2305,-62.74,2021-12-17 17:16:17.859375
2306,-50.44,2021-12-17 17:16:17.875000
2307,-40.36,2021-12-17 17:16:17.890625
2308,-32.45,2021-12-17 17:16:17.906250
2309,-26.16,2021-12-17 17:16:17.921875
2310,-20.8,2021-12-17 17:16:17.937500
2311,-15.94,2021-12-17 17:16:17.953125
2312,-11.71,2021-12-17 17:16:17.968750
2313,-8.83,2021-12-17 17:16:17.984375
2314,-8.2,2021-12-17 17:16:18.000000
2315,-10.32,2021-12-17 17:16:18.015625
2316,-14.71,2021-12-17 17:16:18.031250
2317,-19.91,2021-12-17 17:16:18.046875
2318,-23.98,2021-12-17 17:16:18.062500
2319,-25.41,2021-12-17 17:16:18.078125
2320,-23.89,2021-12-17 17:16:18.093750
2321,-20.43,2021-12-17 17:16:18.109375
2322,-16.72,2021-12-17 17:16:18.125000
2323,-14.11,2021-12-17 17:16:18.140625
2324,-12.78,2021-12-17 17:16:18.156250
2325,-11.63,2021-12-17 17:16:18.171875
2326,-8.74,2021-12-17 17:16:18.187500
2327,-2.23,2021-12-17 17:16:18.203125
2328,9.01,2021-12-17 17:16:18.218750
2329,25.18,2021-12-17 17:16:18.234375
2330,45.73,2021-12-17 17:16:18.250000
2331,69.71,2021-12-17 17:16:18.265625
2332,95.87,2021-12-17 17:16:18.281250
2333,122.62,2021-12-17 17:16:18.296875
2334,147.94,2021-12-17 17:16:18.312500
2335,169.52,2021-12-17 17:16:18.328125
2336,185.18,2021-12-17 17:16:18.343750
2337,193.49,2021-12-17 17:16:18.359375
2338,194.21,2021-12-17 17:16:18.375000
2339,188.27,2021-12-17 17:16:18.390625
2340,177.23,2021-12-17 17:16:18.406250
2341,162.67,2021-12-17 17:16:18.421875
2342,145.61,2021-12-17 17:16:18.437500
2343,126.41,2021-12-17 17:16:18.453125
2344,105.22,2021-12-17 17:16:18.468750
2345,82.34,2021-12-17 17:16:18.484375
2346,58.64,2021-12-17 17:16:18.500000
2347,35.49,2021-12-17 17:16:18.515625
2348,14.4,2021-12-17 17:16:18.531250
2349,-3.51,2021-12-17 17:16:18.546875
2350,-17.9,2021-12-17 17:16:18.562500
2351,-29.24,2021-12-17 17:16:18.578125
2352,-38.44,2021-12-17 17:16:18.593750
2353,-46.49,2021-12-17 17:16:18.609375
2354,-54.04,2021-12-17 17:16:18.625000
2355,-61.35,2021-12-17 17:16:18.640625
2356,-68.49,2021-12-17 17:16:18.656250
2357,-75.65,2021-12-17 17:16:18.671875
2358,-83.3,2021-12-17 17:16:18.687500
2359,-92.16,2021-12-17 17:16:18.703125
2360,-102.81,2021-12-17 17:16:18.718750
2361,-115.35,2021-12-17 17:16:18.734375
2362,-129.21,2021-12-17 17:16:18.750000
2363,-143.16,2021-12-17 17:16:18.765625
2364,-155.65,2021-12-17 17:16:18.781250
2365,-165.2,2021-12-17 17:16:18.796875
2366,-170.52,2021-12-17 17:16:18.812500
2367,-170.81,2021-12-17 17:16:18.828125
2368,-165.72,2021-12-17 17:16:18.843750
2369,-155.57,2021-12-17 17:16:18.859375
2370,-141.41,2021-12-17 17:16:18.875000
2371,-124.94,2021-12-17 17:16:18.890625
2372,-108.11,2021-12-17 17:16:18.906250
2373,-92.48,2021-12-17 17:16:18.921875
2374,-78.72,2021-12-17 17:16:18.937500
2375,-66.29,2021-12-17 17:16:18.953125
2376,-53.85,2021-12-17 17:16:18.968750
2377,-39.89,2021-12-17 17:16:18.984375
2378,-23.59,2021-12-17 17:16:19.000000
2379,-5.25,2021-12-17 17:16:19.015625
2380,13.71,2021-12-17 17:16:19.031250
2381,31.29,2021-12-17 17:16:19.046875
2382,45.57,2021-12-17 17:16:19.062500
2383,55.29,2021-12-17 17:16:19.078125
2384,60.1,2021-12-17 17:16:19.093750
2385,60.36,2021-12-17 17:16:19.109375
2386,56.9,2021-12-17 17:16:19.125000
2387,50.69,2021-12-17 17:16:19.140625
2388,42.67,2021-12-17 17:16:19.156250
2389,33.81,2021-12-17 17:16:19.171875
2390,25.0,2021-12-17 17:16:19.187500
2391,17.02,2021-12-17 17:16:19.203125
2392,10.27,2021-12-17 17:16:19.218750
2393,4.78,2021-12-17 17:16:19.234375
2394,0.2,2021-12-17 17:16:19.250000
2395,-3.94,2021-12-17 17:16:19.265625
2396,-7.92,2021-12-17 17:16:19.281250
2397,-11.87,2021-12-17 17:16:19.296875
2398,-15.68,2021-12-17 17:16:19.312500
2399,-19.28,2021-12-17 17:16:19.328125
2400,-22.69,2021-12-17 17:16:19.343750
2401,-25.94,2021-12-17 17:16:19.359375
2402,-28.97,2021-12-17 17:16:19.375000
2403,-31.61,2021-12-17 17:16:19.390625
2404,-33.72,2021-12-17 17:16:19.406250
2405,-35.39,2021-12-17 17:16:19.421875
2406,-37.03,2021-12-17 17:16:19.437500
2407,-39.1,2021-12-17 17:16:19.453125
2408,-41.71,2021-12-17 17:16:19.468750
2409,-44.41,2021-12-17 17:16:19.484375
2410,-46.34,2021-12-17 17:16:19.500000
2411,-46.65,2021-12-17 17:16:19.515625
2412,-45.04,2021-12-17 17:16:19.531250
2413,-42.02,2021-12-17 17:16:19.546875
2414,-38.64,2021-12-17 17:16:19.562500
2415,-36.05,2021-12-17 17:16:19.578125
2416,-34.94,2021-12-17 17:16:19.593750
2417,-35.39,2021-12-17 17:16:19.609375
2418,-36.79,2021-12-17 17:16:19.625000
2419,-38.21,2021-12-17 17:16:19.640625
2420,-38.61,2021-12-17 17:16:19.656250
2421,-37.05,2021-12-17 17:16:19.671875
2422,-32.87,2021-12-17 17:16:19.687500
2423,-25.79,2021-12-17 17:16:19.703125
2424,-16.12,2021-12-17 17:16:19.718750
2425,-4.67,2021-12-17 17:16:19.734375
2426,7.31,2021-12-17 17:16:19.750000
2427,18.61,2021-12-17 17:16:19.765625
2428,28.28,2021-12-17 17:16:19.781250
2429,35.91,2021-12-17 17:16:19.796875
2430,41.54,2021-12-17 17:16:19.812500
2431,45.45,2021-12-17 17:16:19.828125
2432,47.87,2021-12-17 17:16:19.843750
2433,48.93,2021-12-17 17:16:19.859375
2434,48.68,2021-12-17 17:16:19.875000
2435,47.17,2021-12-17 17:16:19.890625
2436,44.67,2021-12-17 17:16:19.906250
2437,41.57,2021-12-17 17:16:19.921875
2438,38.38,2021-12-17 17:16:19.937500
2439,35.49,2021-12-17 17:16:19.953125
2440,33.11,2021-12-17 17:16:19.968750
2441,31.28,2021-12-17 17:16:19.984375
2442,29.87,2021-12-17 17:16:20.000000
2443,28.78,2021-12-17 17:16:20.015625
2444,27.98,2021-12-17 17:16:20.031250
2445,27.52,2021-12-17 17:16:20.046875
2446,27.43,2021-12-17 17:16:20.062500
2447,27.64,2021-12-17 17:16:20.078125
2448,27.84,2021-12-17 17:16:20.093750
2449,27.52,2021-12-17 17:16:20.109375
2450,26.05,2021-12-17 17:16:20.125000
2451,23.01,2021-12-17 17:16:20.140625
2452,18.33,2021-12-17 17:16:20.156250
2453,12.48,2021-12-17 17:16:20.171875
2454,6.29,2021-12-17 17:16:20.187500
2455,0.61,2021-12-17 17:16:20.203125
2456,-3.99,2021-12-17 17:16:20.218750
2457,-7.48,2021-12-17 17:16:20.234375
2458,-10.3,2021-12-17 17:16:20.250000
2459,-13.16,2021-12-17 17:16:20.265625
2460,-16.68,2021-12-17 17:16:20.281250
2461,-21.28,2021-12-17 17:16:20.296875
2462,-27.02,2021-12-17 17:16:20.312500
2463,-33.61,2021-12-17 17:16:20.328125
2464,-40.43,2021-12-17 17:16:20.343750
2465,-46.52,2021-12-17 17:16:20.359375
2466,-50.69,2021-12-17 17:16:20.375000
2467,-51.75,2021-12-17 17:16:20.390625
2468,-48.91,2021-12-17 17:16:20.406250
2469,-42.12,2021-12-17 17:16:20.421875
2470,-32.17,2021-12-17 17:16:20.437500
2471,-20.49,2021-12-17 17:16:20.453125
2472,-8.66,2021-12-17 17:16:20.468750
2473,2.05,2021-12-17 17:16:20.484375
2474,11.01,2021-12-17 17:16:20.500000
2475,18.12,2021-12-17 17:16:20.515625
2476,23.63,2021-12-17 17:16:20.531250
2477,27.78,2021-12-17 17:16:20.546875
2478,30.64,2021-12-17 17:16:20.562500
2479,32.21,2021-12-17 17:16:20.578125
2480,32.54,2021-12-17 17:16:20.593750
2481,31.81,2021-12-17 17:16:20.609375
2482,30.4,2021-12-17 17:16:20.625000
2483,28.72,2021-12-17 17:16:20.640625
2484,27.1,2021-12-17 17:16:20.656250
2485,25.64,2021-12-17 17:16:20.671875
2486,24.25,2021-12-17 17:16:20.687500
2487,22.77,2021-12-17 17:16:20.703125
2488,21.06,2021-12-17 17:16:20.718750
2489,19.1,2021-12-17 17:16:20.734375
2490,16.96,2021-12-17 17:16:20.750000
2491,14.66,2021-12-17 17:16:20.765625
2492,12.18,2021-12-17 17:16:20.781250
2493,9.37,2021-12-17 17:16:20.796875
2494,6.08,2021-12-17 17:16:20.812500
2495,2.18,2021-12-17 17:16:20.828125
2496,-2.44,2021-12-17 17:16:20.843750
2497,-7.84,2021-12-17 17:16:20.859375
2498,-14.09,2021-12-17 17:16:20.875000
2499,-21.22,2021-12-17 17:16:20.890625
2500,-29.21,2021-12-17 17:16:20.906250
2501,-37.94,2021-12-17 17:16:20.921875
2502,-47.13,2021-12-17 17:16:20.937500
2503,-56.43,2021-12-17 17:16:20.953125
2504,-65.57,2021-12-17 17:16:20.968750
2505,-74.52,2021-12-17 17:16:20.984375
2506,-83.52,2021-12-17 17:16:21.000000
2507,-92.89,2021-12-17 17:16:21.015625
2508,-102.7,2021-12-17 17:16:21.031250
2509,-112.45,2021-12-17 17:16:21.046875
2510,-121.02,2021-12-17 17:16:21.062500
2511,-126.84,2021-12-17 17:16:21.078125
2512,-128.44,2021-12-17 17:16:21.093750
2513,-125.06,2021-12-17 17:16:21.109375
2514,-117.06,2021-12-17 17:16:21.125000
2515,-105.79,2021-12-17 17:16:21.140625
2516,-93.22,2021-12-17 17:16:21.156250
2517,-81.22,2021-12-17 17:16:21.171875
2518,-71.09,2021-12-17 17:16:21.187500
2519,-63.38,2021-12-17 17:16:21.203125
2520,-58.01,2021-12-17 17:16:21.218750
2521,-54.61,2021-12-17 17:16:21.234375
2522,-52.68,2021-12-17 17:16:21.250000
2523,-51.48,2021-12-17 17:16:21.265625
2524,-49.87,2021-12-17 17:16:21.281250
2525,-46.43,2021-12-17 17:16:21.296875
2526,-39.81,2021-12-17 17:16:21.312500
2527,-29.49,2021-12-17 17:16:21.328125
2528,-16.51,2021-12-17 17:16:21.343750
2529,-3.48,2021-12-17 17:16:21.359375
2530,6.1,2021-12-17 17:16:21.375000
2531,9.12,2021-12-17 17:16:21.390625
2532,4.23,2021-12-17 17:16:21.406250
2533,-7.56,2021-12-17 17:16:21.421875
2534,-23.1,2021-12-17 17:16:21.437500
2535,-38.19,2021-12-17 17:16:21.453125
2536,-49.0,2021-12-17 17:16:21.468750
2537,-53.26,2021-12-17 17:16:21.484375
2538,-50.64,2021-12-17 17:16:21.500000
2539,-42.57,2021-12-17 17:16:21.515625
2540,-31.58,2021-12-17 17:16:21.531250
2541,-20.37,2021-12-17 17:16:21.546875
2542,-11.26,2021-12-17 17:16:21.562500
2543,-5.59,2021-12-17 17:16:21.578125
2544,-3.63,2021-12-17 17:16:21.593750
2545,-4.61,2021-12-17 17:16:21.609375
2546,-7.08,2021-12-17 17:16:21.625000
2547,-9.36,2021-12-17 17:16:21.640625
2548,-10.05,2021-12-17 17:16:21.656250
2549,-8.35,2021-12-17 17:16:21.671875
2550,-4.07,2021-12-17 17:16:21.687500
2551,2.51,2021-12-17 17:16:21.703125
2552,10.91,2021-12-17 17:16:21.718750
2553,20.59,2021-12-17 17:16:21.734375
2554,31.13,2021-12-17 17:16:21.750000
2555,42.27,2021-12-17 17:16:21.765625
2556,53.9,2021-12-17 17:16:21.781250
2557,66.13,2021-12-17 17:16:21.796875
2558,79.18,2021-12-17 17:16:21.812500
2559,93.24,2021-12-17 17:16:21.828125
2560,108.31,2021-12-17 17:16:21.843750
2561,123.99,2021-12-17 17:16:21.859375
2562,139.5,2021-12-17 17:16:21.875000
2563,153.7,2021-12-17 17:16:21.890625
2564,165.4,2021-12-17 17:16:21.906250
2565,173.47,2021-12-17 17:16:21.921875
2566,177.15,2021-12-17 17:16:21.937500
2567,176.25,2021-12-17 17:16:21.953125
2568,171.22,2021-12-17 17:16:21.968750
2569,163.06,2021-12-17 17:16:21.984375
2570,153.17,2021-12-17 17:16:22.000000
2571,142.97,2021-12-17 17:16:22.015625
2572,133.48,2021-12-17 17:16:22.031250
2573,125.14,2021-12-17 17:16:22.046875
2574,117.94,2021-12-17 17:16:22.062500
2575,111.69,2021-12-17 17:16:22.078125
2576,106.41,2021-12-17 17:16:22.093750
2577,102.43,2021-12-17 17:16:22.109375
2578,100.32,2021-12-17 17:16:22.125000
2579,100.45,2021-12-17 17:16:22.140625
2580,102.72,2021-12-17 17:16:22.156250
2581,106.52,2021-12-17 17:16:22.171875
2582,111.0,2021-12-17 17:16:22.187500
2583,115.4,2021-12-17 17:16:22.203125
2584,119.24,2021-12-17 17:16:22.218750
2585,122.25,2021-12-17 17:16:22.234375
2586,124.17,2021-12-17 17:16:22.250000
2587,124.58,2021-12-17 17:16:22.265625
2588,122.85,2021-12-17 17:16:22.281250
2589,118.33,2021-12-17 17:16:22.296875
2590,110.65,2021-12-17 17:16:22.312500
2591,99.79,2021-12-17 17:16:22.328125
2592,86.07,2021-12-17 17:16:22.343750
2593,69.89,2021-12-17 17:16:22.359375
2594,51.49,2021-12-17 17:16:22.375000
2595,30.93,2021-12-17 17:16:22.390625
2596,8.29,2021-12-17 17:16:22.406250
2597,-16.01,2021-12-17 17:16:22.421875
2598,-40.89,2021-12-17 17:16:22.437500
2599,-64.7,2021-12-17 17:16:22.453125
2600,-85.47,2021-12-17 17:16:22.468750
2601,-101.41,2021-12-17 17:16:22.484375
2602,-111.41,2021-12-17 17:16:22.500000
2603,-115.25,2021-12-17 17:16:22.515625
2604,-113.57,2021-12-17 17:16:22.531250
2605,-107.61,2021-12-17 17:16:22.546875
2606,-98.81,2021-12-17 17:16:22.562500
2607,-88.54,2021-12-17 17:16:22.578125
2608,-77.96,2021-12-17 17:16:22.593750
2609,-68.13,2021-12-17 17:16:22.609375
2610,-59.98,2021-12-17 17:16:22.625000
2611,-54.2,2021-12-17 17:16:22.640625
2612,-51.09,2021-12-17 17:16:22.656250
2613,-50.24,2021-12-17 17:16:22.671875
2614,-50.53,2021-12-17 17:16:22.687500
2615,-50.29,2021-12-17 17:16:22.703125
2616,-47.83,2021-12-17 17:16:22.718750
2617,-41.97,2021-12-17 17:16:22.734375
2618,-32.59,2021-12-17 17:16:22.750000
2619,-20.66,2021-12-17 17:16:22.765625
2620,-8.01,2021-12-17 17:16:22.781250
2621,3.16,2021-12-17 17:16:22.796875
2622,10.91,2021-12-17 17:16:22.812500
2623,14.01,2021-12-17 17:16:22.828125
2624,12.22,2021-12-17 17:16:22.843750
2625,6.25,2021-12-17 17:16:22.859375
2626,-2.37,2021-12-17 17:16:22.875000
2627,-11.67,2021-12-17 17:16:22.890625
2628,-19.65,2021-12-17 17:16:22.906250
2629,-24.72,2021-12-17 17:16:22.921875
2630,-26.12,2021-12-17 17:16:22.937500
2631,-24.06,2021-12-17 17:16:22.953125
2632,-19.57,2021-12-17 17:16:22.968750
2633,-14.02,2021-12-17 17:16:22.984375
2634,-8.51,2021-12-17 17:16:23.000000
2635,-3.4,2021-12-17 17:16:23.015625
2636,1.8,2021-12-17 17:16:23.031250
2637,7.95,2021-12-17 17:16:23.046875
2638,15.59,2021-12-17 17:16:23.062500
2639,24.25,2021-12-17 17:16:23.078125
2640,32.37,2021-12-17 17:16:23.093750
2641,37.8,2021-12-17 17:16:23.109375
2642,38.97,2021-12-17 17:16:23.125000
2643,35.75,2021-12-17 17:16:23.140625
2644,29.85,2021-12-17 17:16:23.156250
2645,24.23,2021-12-17 17:16:23.171875
2646,21.82,2021-12-17 17:16:23.187500
2647,24.3,2021-12-17 17:16:23.203125
2648,31.26,2021-12-17 17:16:23.218750
2649,40.64,2021-12-17 17:16:23.234375
2650,49.74,2021-12-17 17:16:23.250000
2651,56.56,2021-12-17 17:16:23.265625
2652,60.44,2021-12-17 17:16:23.281250
2653,61.98,2021-12-17 17:16:23.296875
2654,62.28,2021-12-17 17:16:23.312500
2655,62.1,2021-12-17 17:16:23.328125
2656,61.48,2021-12-17 17:16:23.343750
2657,59.97,2021-12-17 17:16:23.359375
2658,57.15,2021-12-17 17:16:23.375000
2659,53.16,2021-12-17 17:16:23.390625
2660,48.56,2021-12-17 17:16:23.406250
2661,43.94,2021-12-17 17:16:23.421875
2662,39.28,2021-12-17 17:16:23.437500
2663,33.66,2021-12-17 17:16:23.453125
2664,25.64,2021-12-17 17:16:23.468750
2665,13.98,2021-12-17 17:16:23.484375
2666,-1.52,2021-12-17 17:16:23.500000
2667,-19.69,2021-12-17 17:16:23.515625
2668,-38.14,2021-12-17 17:16:23.531250
2669,-54.1,2021-12-17 17:16:23.546875
2670,-65.3,2021-12-17 17:16:23.562500
2671,-70.56,2021-12-17 17:16:23.578125
2672,-70.15,2021-12-17 17:16:23.593750
2673,-65.48,2021-12-17 17:16:23.609375
2674,-58.64,2021-12-17 17:16:23.625000
2675,-51.75,2021-12-17 17:16:23.640625
2676,-46.53,2021-12-17 17:16:23.656250
2677,-43.89,2021-12-17 17:16:23.671875
2678,-43.85,2021-12-17 17:16:23.687500
2679,-45.76,2021-12-17 17:16:23.703125
2680,-48.63,2021-12-17 17:16:23.718750
2681,-51.68,2021-12-17 17:16:23.734375
2682,-54.66,2021-12-17 17:16:23.750000
2683,-57.91,2021-12-17 17:16:23.765625
2684,-61.99,2021-12-17 17:16:23.781250
2685,-67.16,2021-12-17 17:16:23.796875
2686,-72.97,2021-12-17 17:16:23.812500
2687,-78.29,2021-12-17 17:16:23.828125
2688,-81.71,2021-12-17 17:16:23.843750
2689,-82.18,2021-12-17 17:16:23.859375
2690,-79.4,2021-12-17 17:16:23.875000
2691,-73.79,2021-12-17 17:16:23.890625
2692,-66.18,2021-12-17 17:16:23.906250
2693,-57.32,2021-12-17 17:16:23.921875
2694,-47.71,2021-12-17 17:16:23.937500
2695,-37.64,2021-12-17 17:16:23.953125
2696,-27.43,2021-12-17 17:16:23.968750
2697,-17.59,2021-12-17 17:16:23.984375
2698,-8.74,2021-12-17 17:16:24.000000
2699,-1.32,2021-12-17 17:16:24.015625
2700,4.76,2021-12-17 17:16:24.031250
2701,10.05,2021-12-17 17:16:24.046875
2702,15.31,2021-12-17 17:16:24.062500
2703,20.93,2021-12-17 17:16:24.078125
2704,26.58,2021-12-17 17:16:24.093750
2705,31.2,2021-12-17 17:16:24.109375
2706,33.59,2021-12-17 17:16:24.125000
2707,33.02,2021-12-17 17:16:24.140625
2708,29.72,2021-12-17 17:16:24.156250
2709,24.8,2021-12-17 17:16:24.171875
2710,19.69,2021-12-17 17:16:24.187500
2711,15.47,2021-12-17 17:16:24.203125
2712,12.52,2021-12-17 17:16:24.218750
2713,10.67,2021-12-17 17:16:24.234375
2714,9.66,2021-12-17 17:16:24.250000
2715,9.5,2021-12-17 17:16:24.265625
2716,10.55,2021-12-17 17:16:24.281250
2717,13.05,2021-12-17 17:16:24.296875
2718,16.66,2021-12-17 17:16:24.312500
2719,20.33,2021-12-17 17:16:24.328125
2720,22.69,2021-12-17 17:16:24.343750
2721,22.71,2021-12-17 17:16:24.359375
2722,20.18,2021-12-17 17:16:24.375000
2723,15.68,2021-12-17 17:16:24.390625
2724,9.99,2021-12-17 17:16:24.406250
2725,3.48,2021-12-17 17:16:24.421875
2726,-4.22,2021-12-17 17:16:24.437500
2727,-13.87,2021-12-17 17:16:24.453125
2728,-25.92,2021-12-17 17:16:24.468750
2729,-39.92,2021-12-17 17:16:24.484375
2730,-54.32,2021-12-17 17:16:24.500000
2731,-66.78,2021-12-17 17:16:24.515625
2732,-74.8,2021-12-17 17:16:24.531250
2733,-76.41,2021-12-17 17:16:24.546875
2734,-70.58,2021-12-17 17:16:24.562500
2735,-57.4,2021-12-17 17:16:24.578125
2736,-38.11,2021-12-17 17:16:24.593750
2737,-14.82,2021-12-17 17:16:24.609375
2738,9.83,2021-12-17 17:16:24.625000
2739,33.24,2021-12-17 17:16:24.640625
2740,53.43,2021-12-17 17:16:24.656250
2741,69.5,2021-12-17 17:16:24.671875
2742,81.67,2021-12-17 17:16:24.687500
2743,90.84,2021-12-17 17:16:24.703125
2744,97.96,2021-12-17 17:16:24.718750
2745,103.45,2021-12-17 17:16:24.734375
2746,106.98,2021-12-17 17:16:24.750000
2747,107.83,2021-12-17 17:16:24.765625
2748,105.35,2021-12-17 17:16:24.781250
2749,99.49,2021-12-17 17:16:24.796875
2750,91.04,2021-12-17 17:16:24.812500
2751,81.26,2021-12-17 17:16:24.828125
2752,71.46,2021-12-17 17:16:24.843750
2753,62.43,2021-12-17 17:16:24.859375
2754,54.16,2021-12-17 17:16:24.875000
2755,45.76,2021-12-17 17:16:24.890625
2756,35.81,2021-12-17 17:16:24.906250
2757,22.72,2021-12-17 17:16:24.921875
2758,5.23,2021-12-17 17:16:24.937500
2759,-17.08,2021-12-17 17:16:24.953125
2760,-43.4,2021-12-17 17:16:24.968750
2761,-71.35,2021-12-17 17:16:24.984375
2762,-97.16,2021-12-17 17:16:25.000000
2763,-116.46,2021-12-17 17:16:25.015625
2764,-125.61,2021-12-17 17:16:25.031250
2765,-123.16,2021-12-17 17:16:25.046875
2766,-110.55,2021-12-17 17:16:25.062500
2767,-91.85,2021-12-17 17:16:25.078125
2768,-72.22,2021-12-17 17:16:25.093750
2769,-55.9,2021-12-17 17:16:25.109375
2770,-44.73,2021-12-17 17:16:25.125000
2771,-37.81,2021-12-17 17:16:25.140625
2772,-32.7,2021-12-17 17:16:25.156250
2773,-27.28,2021-12-17 17:16:25.171875
2774,-21.32,2021-12-17 17:16:25.187500
2775,-16.75,2021-12-17 17:16:25.203125
2776,-16.5,2021-12-17 17:16:25.218750
2777,-22.43,2021-12-17 17:16:25.234375
2778,-33.61,2021-12-17 17:16:25.250000
2779,-46.14,2021-12-17 17:16:25.265625
2780,-54.58,2021-12-17 17:16:25.281250
2781,-54.51,2021-12-17 17:16:25.296875
2782,-44.71,2021-12-17 17:16:25.312500
2783,-27.84,2021-12-17 17:16:25.328125
2784,-9.21,2021-12-17 17:16:25.343750
2785,5.69,2021-12-17 17:16:25.359375
2786,13.57,2021-12-17 17:16:25.375000
2787,14.27,2021-12-17 17:16:25.390625
2788,10.06,2021-12-17 17:16:25.406250
2789,3.95,2021-12-17 17:16:25.421875
2790,-1.93,2021-12-17 17:16:25.437500
2791,-6.8,2021-12-17 17:16:25.453125
2792,-10.66,2021-12-17 17:16:25.468750
2793,-13.19,2021-12-17 17:16:25.484375
2794,-13.26,2021-12-17 17:16:25.500000
2795,-9.38,2021-12-17 17:16:25.515625
2796,-0.7,2021-12-17 17:16:25.531250
2797,12.04,2021-12-17 17:16:25.546875
2798,26.62,2021-12-17 17:16:25.562500
2799,40.09,2021-12-17 17:16:25.578125
2800,50.13,2021-12-17 17:16:25.593750
2801,55.86,2021-12-17 17:16:25.609375
2802,57.98,2021-12-17 17:16:25.625000
2803,58.13,2021-12-17 17:16:25.640625
2804,57.96,2021-12-17 17:16:25.656250
2805,58.42,2021-12-17 17:16:25.671875
2806,59.52,2021-12-17 17:16:25.687500
2807,60.52,2021-12-17 17:16:25.703125
2808,60.28,2021-12-17 17:16:25.718750
2809,57.74,2021-12-17 17:16:25.734375
2810,52.36,2021-12-17 17:16:25.750000
2811,44.45,2021-12-17 17:16:25.765625
2812,35.19,2021-12-17 17:16:25.781250
2813,26.33,2021-12-17 17:16:25.796875
2814,19.57,2021-12-17 17:16:25.812500
2815,15.98,2021-12-17 17:16:25.828125
2816,15.78,2021-12-17 17:16:25.843750
2817,18.46,2021-12-17 17:16:25.859375
2818,23.23,2021-12-17 17:16:25.875000
2819,29.46,2021-12-17 17:16:25.890625
2820,36.74,2021-12-17 17:16:25.906250
2821,44.71,2021-12-17 17:16:25.921875
2822,52.79,2021-12-17 17:16:25.937500
2823,60.01,2021-12-17 17:16:25.953125
2824,65.11,2021-12-17 17:16:25.968750
2825,66.84,2021-12-17 17:16:25.984375
2826,64.27,2021-12-17 17:16:26.000000
2827,56.94,2021-12-17 17:16:26.015625
2828,44.91,2021-12-17 17:16:26.031250
2829,28.81,2021-12-17 17:16:26.046875
2830,9.97,2021-12-17 17:16:26.062500
2831,-9.51,2021-12-17 17:16:26.078125
2832,-26.81,2021-12-17 17:16:26.093750
2833,-38.87,2021-12-17 17:16:26.109375
2834,-43.09,2021-12-17 17:16:26.125000
2835,-38.14,2021-12-17 17:16:26.140625
2836,-24.48,2021-12-17 17:16:26.156250
2837,-4.52,2021-12-17 17:16:26.171875
2838,17.83,2021-12-17 17:16:26.187500
2839,38.02,2021-12-17 17:16:26.203125
2840,51.74,2021-12-17 17:16:26.218750
2841,55.8,2021-12-17 17:16:26.234375
2842,48.73,2021-12-17 17:16:26.250000
2843,31.14,2021-12-17 17:16:26.265625
2844,5.84,2021-12-17 17:16:26.281250
2845,-22.37,2021-12-17 17:16:26.296875
2846,-47.49,2021-12-17 17:16:26.312500
2847,-63.63,2021-12-17 17:16:26.328125
2848,-66.71,2021-12-17 17:16:26.343750
2849,-55.74,2021-12-17 17:16:26.359375
2850,-33.24,2021-12-17 17:16:26.375000
2851,-4.35,2021-12-17 17:16:26.390625
2852,24.97,2021-12-17 17:16:26.406250
2853,49.83,2021-12-17 17:16:26.421875
2854,67.46,2021-12-17 17:16:26.437500
2855,77.06,2021-12-17 17:16:26.453125
2856,78.67,2021-12-17 17:16:26.468750
2857,72.11,2021-12-17 17:16:26.484375
2858,56.8,2021-12-17 17:16:26.500000
2859,32.47,2021-12-17 17:16:26.515625
2860,0.41,2021-12-17 17:16:26.531250
2861,-35.68,2021-12-17 17:16:26.546875
2862,-70.13,2021-12-17 17:16:26.562500
2863,-96.73,2021-12-17 17:16:26.578125
2864,-110.57,2021-12-17 17:16:26.593750
2865,-109.45,2021-12-17 17:16:26.609375
2866,-94.46,2021-12-17 17:16:26.625000
2867,-69.38,2021-12-17 17:16:26.640625
2868,-39.33,2021-12-17 17:16:26.656250
2869,-9.27,2021-12-17 17:16:26.671875
2870,17.17,2021-12-17 17:16:26.687500
2871,38.14,2021-12-17 17:16:26.703125
2872,53.23,2021-12-17 17:16:26.718750
2873,62.68,2021-12-17 17:16:26.734375
2874,66.51,2021-12-17 17:16:26.750000
2875,64.24,2021-12-17 17:16:26.765625
2876,55.19,2021-12-17 17:16:26.781250
2877,39.34,2021-12-17 17:16:26.796875
2878,17.93,2021-12-17 17:16:26.812500
2879,-6.42,2021-12-17 17:16:26.828125
2880,-30.61,2021-12-17 17:16:26.843750
2881,-52.29,2021-12-17 17:16:26.859375
2882,-70.64,2021-12-17 17:16:26.875000
2883,-86.52,2021-12-17 17:16:26.890625
2884,-101.52,2021-12-17 17:16:26.906250
2885,-116.74,2021-12-17 17:16:26.921875
2886,-132.06,2021-12-17 17:16:26.937500
2887,-146.12,2021-12-17 17:16:26.953125
2888,-157.15,2021-12-17 17:16:26.968750
2889,-163.8,2021-12-17 17:16:26.984375
2890,-165.69,2021-12-17 17:16:27.000000
2891,-163.28,2021-12-17 17:16:27.015625
2892,-157.28,2021-12-17 17:16:27.031250
2893,-148.13,2021-12-17 17:16:27.046875
2894,-135.74,2021-12-17 17:16:27.062500
2895,-119.81,2021-12-17 17:16:27.078125
2896,-100.34,2021-12-17 17:16:27.093750
2897,-77.94,2021-12-17 17:16:27.109375
2898,-53.87,2021-12-17 17:16:27.125000
2899,-29.7,2021-12-17 17:16:27.140625
2900,-6.9,2021-12-17 17:16:27.156250
2901,13.48,2021-12-17 17:16:27.171875
2902,30.82,2021-12-17 17:16:27.187500
2903,44.95,2021-12-17 17:16:27.203125
2904,56.04,2021-12-17 17:16:27.218750
2905,64.56,2021-12-17 17:16:27.234375
2906,71.19,2021-12-17 17:16:27.250000
2907,76.56,2021-12-17 17:16:27.265625
2908,80.95,2021-12-17 17:16:27.281250
2909,84.11,2021-12-17 17:16:27.296875
2910,85.25,2021-12-17 17:16:27.312500
2911,83.47,2021-12-17 17:16:27.328125
2912,78.25,2021-12-17 17:16:27.343750
2913,69.79,2021-12-17 17:16:27.359375
2914,59.13,2021-12-17 17:16:27.375000
2915,47.77,2021-12-17 17:16:27.390625
2916,37.25,2021-12-17 17:16:27.406250
2917,28.68,2021-12-17 17:16:27.421875
2918,22.49,2021-12-17 17:16:27.437500
2919,18.34,2021-12-17 17:16:27.453125
2920,15.29,2021-12-17 17:16:27.468750
2921,12.11,2021-12-17 17:16:27.484375
2922,7.56,2021-12-17 17:16:27.500000
2923,0.75,2021-12-17 17:16:27.515625
2924,-8.63,2021-12-17 17:16:27.531250
2925,-20.37,2021-12-17 17:16:27.546875
2926,-33.77,2021-12-17 17:16:27.562500
2927,-47.88,2021-12-17 17:16:27.578125
2928,-61.58,2021-12-17 17:16:27.593750
2929,-73.6,2021-12-17 17:16:27.609375
2930,-82.45,2021-12-17 17:16:27.625000
2931,-86.68,2021-12-17 17:16:27.640625
2932,-85.15,2021-12-17 17:16:27.656250
2933,-77.47,2021-12-17 17:16:27.671875
2934,-64.29,2021-12-17 17:16:27.687500
2935,-47.14,2021-12-17 17:16:27.703125
2936,-27.93,2021-12-17 17:16:27.718750
2937,-8.41,2021-12-17 17:16:27.734375
2938,10.28,2021-12-17 17:16:27.750000
2939,27.55,2021-12-17 17:16:27.765625
2940,43.12,2021-12-17 17:16:27.781250
2941,56.57,2021-12-17 17:16:27.796875
2942,67.29,2021-12-17 17:16:27.812500
2943,74.56,2021-12-17 17:16:27.828125
2944,77.95,2021-12-17 17:16:27.843750
2945,77.64,2021-12-17 17:16:27.859375
2946,74.39,2021-12-17 17:16:27.875000
2947,69.33,2021-12-17 17:16:27.890625
2948,63.52,2021-12-17 17:16:27.906250
2949,57.61,2021-12-17 17:16:27.921875
2950,51.82,2021-12-17 17:16:27.937500
2951,46.01,2021-12-17 17:16:27.953125
2952,39.96,2021-12-17 17:16:27.968750
2953,33.55,2021-12-17 17:16:27.984375
2954,26.79,2021-12-17 17:16:28.000000
2955,19.8,2021-12-17 17:16:28.015625
2956,12.73,2021-12-17 17:16:28.031250
2957,5.8,2021-12-17 17:16:28.046875
2958,-0.77,2021-12-17 17:16:28.062500
2959,-6.69,2021-12-17 17:16:28.078125
2960,-11.72,2021-12-17 17:16:28.093750
2961,-15.83,2021-12-17 17:16:28.109375
2962,-19.21,2021-12-17 17:16:28.125000
2963,-22.3,2021-12-17 17:16:28.140625
2964,-25.63,2021-12-17 17:16:28.156250
2965,-29.66,2021-12-17 17:16:28.171875
2966,-34.56,2021-12-17 17:16:28.187500
2967,-40.13,2021-12-17 17:16:28.203125
2968,-45.73,2021-12-17 17:16:28.218750
2969,-50.4,2021-12-17 17:16:28.234375
2970,-53.0,2021-12-17 17:16:28.250000
2971,-52.54,2021-12-17 17:16:28.265625
2972,-48.44,2021-12-17 17:16:28.281250
2973,-40.81,2021-12-17 17:16:28.296875
2974,-30.46,2021-12-17 17:16:28.312500
2975,-18.68,2021-12-17 17:16:28.328125
2976,-6.91,2021-12-17 17:16:28.343750
2977,3.64,2021-12-17 17:16:28.359375
2978,12.21,2021-12-17 17:16:28.375000
2979,18.56,2021-12-17 17:16:28.390625
2980,22.82,2021-12-17 17:16:28.406250
2981,25.23,2021-12-17 17:16:28.421875
2982,26.03,2021-12-17 17:16:28.437500
2983,25.4,2021-12-17 17:16:28.453125
2984,23.55,2021-12-17 17:16:28.468750
2985,20.73,2021-12-17 17:16:28.484375
2986,17.34,2021-12-17 17:16:28.500000
2987,13.84,2021-12-17 17:16:28.515625
2988,10.7,2021-12-17 17:16:28.531250
2989,8.28,2021-12-17 17:16:28.546875
2990,6.75,2021-12-17 17:16:28.562500
2991,6.05,2021-12-17 17:16:28.578125
2992,5.84,2021-12-17 17:16:28.593750
2993,5.66,2021-12-17 17:16:28.609375
2994,5.04,2021-12-17 17:16:28.625000
2995,3.71,2021-12-17 17:16:28.640625
2996,1.77,2021-12-17 17:16:28.656250
2997,-0.44,2021-12-17 17:16:28.671875
2998,-2.45,2021-12-17 17:16:28.687500
2999,-3.97,2021-12-17 17:16:28.703125
3000,-5.1,2021-12-17 17:16:28.718750
3001,-6.32,2021-12-17 17:16:28.734375
3002,-8.29,2021-12-17 17:16:28.750000
3003,-11.56,2021-12-17 17:16:28.765625
3004,-16.29,2021-12-17 17:16:28.781250
3005,-22.35,2021-12-17 17:16:28.796875
3006,-29.44,2021-12-17 17:16:28.812500
3007,-37.28,2021-12-17 17:16:28.828125
3008,-45.6,2021-12-17 17:16:28.843750
3009,-53.94,2021-12-17 17:16:28.859375
3010,-61.48,2021-12-17 17:16:28.875000
3011,-67.04,2021-12-17 17:16:28.890625
3012,-69.34,2021-12-17 17:16:28.906250
3013,-67.5,2021-12-17 17:16:28.921875
3014,-61.44,2021-12-17 17:16:28.937500
3015,-51.94,2021-12-17 17:16:28.953125
3016,-40.41,2021-12-17 17:16:28.968750
3017,-28.27,2021-12-17 17:16:28.984375
3018,-16.49,2021-12-17 17:16:29.000000
3019,-5.38,2021-12-17 17:16:29.015625
3020,5.22,2021-12-17 17:16:29.031250
3021,15.63,2021-12-17 17:16:29.046875
3022,25.92,2021-12-17 17:16:29.062500
3023,35.95,2021-12-17 17:16:29.078125
3024,45.41,2021-12-17 17:16:29.093750
3025,54.1,2021-12-17 17:16:29.109375
3026,61.97,2021-12-17 17:16:29.125000
3027,69.07,2021-12-17 17:16:29.140625
3028,75.37,2021-12-17 17:16:29.156250
3029,80.63,2021-12-17 17:16:29.171875
3030,84.48,2021-12-17 17:16:29.187500
3031,86.59,2021-12-17 17:16:29.203125
3032,86.94,2021-12-17 17:16:29.218750
3033,85.89,2021-12-17 17:16:29.234375
3034,84.0,2021-12-17 17:16:29.250000
3035,81.88,2021-12-17 17:16:29.265625
3036,79.95,2021-12-17 17:16:29.281250
3037,78.41,2021-12-17 17:16:29.296875
3038,77.29,2021-12-17 17:16:29.312500
3039,76.55,2021-12-17 17:16:29.328125
3040,76.16,2021-12-17 17:16:29.343750
3041,76.07,2021-12-17 17:16:29.359375
3042,76.29,2021-12-17 17:16:29.375000
3043,76.9,2021-12-17 17:16:29.390625
3044,78.13,2021-12-17 17:16:29.406250
3045,80.21,2021-12-17 17:16:29.421875
3046,83.2,2021-12-17 17:16:29.437500
3047,86.57,2021-12-17 17:16:29.453125
3048,89.15,2021-12-17 17:16:29.468750
3049,89.51,2021-12-17 17:16:29.484375
3050,86.46,2021-12-17 17:16:29.500000
3051,79.89,2021-12-17 17:16:29.515625
3052,71.01,2021-12-17 17:16:29.531250
3053,62.09,2021-12-17 17:16:29.546875
3054,55.64,2021-12-17 17:16:29.562500
3055,53.59,2021-12-17 17:16:29.578125
3056,56.56,2021-12-17 17:16:29.593750
3057,63.82,2021-12-17 17:16:29.609375
3058,73.42,2021-12-17 17:16:29.625000
3059,82.59,2021-12-17 17:16:29.640625
3060,88.0,2021-12-17 17:16:29.656250
3061,86.25,2021-12-17 17:16:29.671875
3062,74.46,2021-12-17 17:16:29.687500
3063,51.06,2021-12-17 17:16:29.703125
3064,16.6,2021-12-17 17:16:29.718750
3065,-26.02,2021-12-17 17:16:29.734375
3066,-72.15,2021-12-17 17:16:29.750000
3067,-116.73,2021-12-17 17:16:29.765625
3068,-155.78,2021-12-17 17:16:29.781250
3069,-187.43,2021-12-17 17:16:29.796875
3070,-211.9,2021-12-17 17:16:29.812500
3071,-230.61,2021-12-17 17:16:29.828125
3072,-244.96,2021-12-17 17:16:29.843750
3073,-255.46,2021-12-17 17:16:29.859375
3074,-261.59,2021-12-17 17:16:29.875000
3075,-262.36,2021-12-17 17:16:29.890625
3076,-257.05,2021-12-17 17:16:29.906250
3077,-245.75,2021-12-17 17:16:29.921875
3078,-229.32,2021-12-17 17:16:29.937500
3079,-209.07,2021-12-17 17:16:29.953125
3080,-186.25,2021-12-17 17:16:29.968750
3081,-161.83,2021-12-17 17:16:29.984375
3082,-136.49,2021-12-17 17:16:30.000000
3083,-110.75,2021-12-17 17:16:30.015625
3084,-85.14,2021-12-17 17:16:30.031250
3085,-60.18,2021-12-17 17:16:30.046875
3086,-36.32,2021-12-17 17:16:30.062500
3087,-13.88,2021-12-17 17:16:30.078125
3088,6.89,2021-12-17 17:16:30.093750
3089,25.72,2021-12-17 17:16:30.109375
3090,42.26,2021-12-17 17:16:30.125000
3091,56.0,2021-12-17 17:16:30.140625
3092,66.29,2021-12-17 17:16:30.156250
3093,72.51,2021-12-17 17:16:30.171875
3094,74.26,2021-12-17 17:16:30.187500
3095,71.64,2021-12-17 17:16:30.203125
3096,65.52,2021-12-17 17:16:30.218750
3097,57.61,2021-12-17 17:16:30.234375
3098,50.34,2021-12-17 17:16:30.250000
3099,46.24,2021-12-17 17:16:30.265625
3100,47.29,2021-12-17 17:16:30.281250
3101,54.11,2021-12-17 17:16:30.296875
3102,65.79,2021-12-17 17:16:30.312500
3103,80.13,2021-12-17 17:16:30.328125
3104,94.42,2021-12-17 17:16:30.343750
3105,106.32,2021-12-17 17:16:30.359375
3106,114.5,2021-12-17 17:16:30.375000
3107,118.74,2021-12-17 17:16:30.390625
3108,119.54,2021-12-17 17:16:30.406250
3109,117.54,2021-12-17 17:16:30.421875
3110,113.19,2021-12-17 17:16:30.437500
3111,106.67,2021-12-17 17:16:30.453125
3112,98.13,2021-12-17 17:16:30.468750
3113,87.99,2021-12-17 17:16:30.484375
3114,77.04,2021-12-17 17:16:30.500000
3115,66.17,2021-12-17 17:16:30.515625
3116,56.13,2021-12-17 17:16:30.531250
3117,47.24,2021-12-17 17:16:30.546875
3118,39.41,2021-12-17 17:16:30.562500
3119,32.34,2021-12-17 17:16:30.578125
3120,25.8,2021-12-17 17:16:30.593750
3121,19.74,2021-12-17 17:16:30.609375
3122,14.29,2021-12-17 17:16:30.625000
3123,9.67,2021-12-17 17:16:30.640625
3124,5.98,2021-12-17 17:16:30.656250
3125,3.15,2021-12-17 17:16:30.671875
3126,0.99,2021-12-17 17:16:30.687500
3127,-0.83,2021-12-17 17:16:30.703125
3128,-2.61,2021-12-17 17:16:30.718750
3129,-4.64,2021-12-17 17:16:30.734375
3130,-7.02,2021-12-17 17:16:30.750000
3131,-9.67,2021-12-17 17:16:30.765625
3132,-12.3,2021-12-17 17:16:30.781250
3133,-14.44,2021-12-17 17:16:30.796875
3134,-15.62,2021-12-17 17:16:30.812500
3135,-15.63,2021-12-17 17:16:30.828125
3136,-14.7,2021-12-17 17:16:30.843750
3137,-13.54,2021-12-17 17:16:30.859375
3138,-13.15,2021-12-17 17:16:30.875000
3139,-14.4,2021-12-17 17:16:30.890625
3140,-17.55,2021-12-17 17:16:30.906250
3141,-21.97,2021-12-17 17:16:30.921875
3142,-26.17,2021-12-17 17:16:30.937500
3143,-28.26,2021-12-17 17:16:30.953125
3144,-26.53,2021-12-17 17:16:30.968750
3145,-20.1,2021-12-17 17:16:30.984375
3146,-9.09,2021-12-17 17:16:31.000000
