,BVP,time
0,-145.65,2021-12-17 17:39:02.843750
1,-166.47,2021-12-17 17:39:02.859375
2,-180.59,2021-12-17 17:39:02.875000
3,-186.51,2021-12-17 17:39:02.890625
4,-184.41,2021-12-17 17:39:02.906250
5,-175.32,2021-12-17 17:39:02.921875
6,-160.47,2021-12-17 17:39:02.937500
7,-141.18,2021-12-17 17:39:02.953125
8,-118.54,2021-12-17 17:39:02.968750
9,-93.16,2021-12-17 17:39:02.984375
10,-65.53,2021-12-17 17:39:03.000000
11,-36.41,2021-12-17 17:39:03.015625
12,-6.97,2021-12-17 17:39:03.031250
13,21.68,2021-12-17 17:39:03.046875
14,49.16,2021-12-17 17:39:03.062500
15,75.67,2021-12-17 17:39:03.078125
16,101.37,2021-12-17 17:39:03.093750
17,125.92,2021-12-17 17:39:03.109375
18,148.3,2021-12-17 17:39:03.125000
19,166.69,2021-12-17 17:39:03.140625
20,178.89,2021-12-17 17:39:03.156250
21,182.91,2021-12-17 17:39:03.171875
22,177.93,2021-12-17 17:39:03.187500
23,164.71,2021-12-17 17:39:03.203125
24,145.25,2021-12-17 17:39:03.218750
25,121.79,2021-12-17 17:39:03.234375
26,96.02,2021-12-17 17:39:03.250000
27,68.82,2021-12-17 17:39:03.265625
28,40.43,2021-12-17 17:39:03.281250
29,11.13,2021-12-17 17:39:03.296875
30,-18.09,2021-12-17 17:39:03.312500
31,-45.31,2021-12-17 17:39:03.328125
32,-67.9,2021-12-17 17:39:03.343750
33,-83.5,2021-12-17 17:39:03.359375
34,-90.95,2021-12-17 17:39:03.375000
35,-90.86,2021-12-17 17:39:03.390625
36,-85.35,2021-12-17 17:39:03.406250
37,-77.23,2021-12-17 17:39:03.421875
38,-68.97,2021-12-17 17:39:03.437500
39,-61.93,2021-12-17 17:39:03.453125
40,-56.27,2021-12-17 17:39:03.468750
41,-51.33,2021-12-17 17:39:03.484375
42,-46.31,2021-12-17 17:39:03.500000
43,-40.83,2021-12-17 17:39:03.515625
44,-35.13,2021-12-17 17:39:03.531250
45,-29.8,2021-12-17 17:39:03.546875
46,-25.43,2021-12-17 17:39:03.562500
47,-22.19,2021-12-17 17:39:03.578125
48,-19.68,2021-12-17 17:39:03.593750
49,-17.06,2021-12-17 17:39:03.609375
50,-13.53,2021-12-17 17:39:03.625000
51,-8.55,2021-12-17 17:39:03.640625
52,-2.07,2021-12-17 17:39:03.656250
53,5.38,2021-12-17 17:39:03.671875
54,12.8,2021-12-17 17:39:03.687500
55,19.13,2021-12-17 17:39:03.703125
56,23.7,2021-12-17 17:39:03.718750
57,26.26,2021-12-17 17:39:03.734375
58,27.04,2021-12-17 17:39:03.750000
59,26.35,2021-12-17 17:39:03.765625
60,24.87,2021-12-17 17:39:03.781250
61,23.42,2021-12-17 17:39:03.796875
62,22.58,2021-12-17 17:39:03.812500
63,22.24,2021-12-17 17:39:03.828125
64,21.67,2021-12-17 17:39:03.843750
65,19.75,2021-12-17 17:39:03.859375
66,15.34,2021-12-17 17:39:03.875000
67,7.81,2021-12-17 17:39:03.890625
68,-2.92,2021-12-17 17:39:03.906250
69,-15.4,2021-12-17 17:39:03.921875
70,-27.29,2021-12-17 17:39:03.937500
71,-36.83,2021-12-17 17:39:03.953125
72,-44.06,2021-12-17 17:39:03.968750
73,-50.59,2021-12-17 17:39:03.984375
74,-58.52,2021-12-17 17:39:04.000000
75,-69.01,2021-12-17 17:39:04.015625
76,-81.51,2021-12-17 17:39:04.031250
77,-94.26,2021-12-17 17:39:04.046875
78,-103.8,2021-12-17 17:39:04.062500
79,-106.76,2021-12-17 17:39:04.078125
80,-102.1,2021-12-17 17:39:04.093750
81,-92.32,2021-12-17 17:39:04.109375
82,-82.01,2021-12-17 17:39:04.125000
83,-75.86,2021-12-17 17:39:04.140625
84,-76.9,2021-12-17 17:39:04.156250
85,-85.91,2021-12-17 17:39:04.171875
86,-102.16,2021-12-17 17:39:04.187500
87,-121.79,2021-12-17 17:39:04.203125
88,-138.51,2021-12-17 17:39:04.218750
89,-145.45,2021-12-17 17:39:04.234375
90,-137.24,2021-12-17 17:39:04.250000
91,-110.88,2021-12-17 17:39:04.265625
92,-66.65,2021-12-17 17:39:04.281250
93,-9.0,2021-12-17 17:39:04.296875
94,56.57,2021-12-17 17:39:04.312500
95,115.64,2021-12-17 17:39:04.328125
96,152.59,2021-12-17 17:39:04.343750
97,161.19,2021-12-17 17:39:04.359375
98,148.75,2021-12-17 17:39:04.375000
99,129.21,2021-12-17 17:39:04.390625
100,113.98,2021-12-17 17:39:04.406250
101,106.57,2021-12-17 17:39:04.421875
102,103.12,2021-12-17 17:39:04.437500
103,96.96,2021-12-17 17:39:04.453125
104,81.9,2021-12-17 17:39:04.468750
105,58.32,2021-12-17 17:39:04.484375
106,32.47,2021-12-17 17:39:04.500000
107,12.52,2021-12-17 17:39:04.515625
108,3.97,2021-12-17 17:39:04.531250
109,8.66,2021-12-17 17:39:04.546875
110,24.86,2021-12-17 17:39:04.562500
111,48.33,2021-12-17 17:39:04.578125
112,73.9,2021-12-17 17:39:04.593750
113,92.22,2021-12-17 17:39:04.609375
114,95.18,2021-12-17 17:39:04.625000
115,79.88,2021-12-17 17:39:04.640625
116,51.67,2021-12-17 17:39:04.656250
117,14.53,2021-12-17 17:39:04.671875
118,-29.42,2021-12-17 17:39:04.687500
119,-78.53,2021-12-17 17:39:04.703125
120,-127.44,2021-12-17 17:39:04.718750
121,-167.44,2021-12-17 17:39:04.734375
122,-189.16,2021-12-17 17:39:04.750000
123,-184.09,2021-12-17 17:39:04.765625
124,-147.58,2021-12-17 17:39:04.781250
125,-81.11,2021-12-17 17:39:04.796875
126,7.18,2021-12-17 17:39:04.812500
127,105.75,2021-12-17 17:39:04.828125
128,201.91,2021-12-17 17:39:04.843750
129,283.86,2021-12-17 17:39:04.859375
130,341.56,2021-12-17 17:39:04.875000
131,368.12,2021-12-17 17:39:04.890625
132,362.3,2021-12-17 17:39:04.906250
133,329.18,2021-12-17 17:39:04.921875
134,278.27,2021-12-17 17:39:04.937500
135,219.84,2021-12-17 17:39:04.953125
136,162.24,2021-12-17 17:39:04.968750
137,109.79,2021-12-17 17:39:04.984375
138,62.82,2021-12-17 17:39:05.000000
139,19.35,2021-12-17 17:39:05.015625
140,-22.42,2021-12-17 17:39:05.031250
141,-62.0,2021-12-17 17:39:05.046875
142,-96.96,2021-12-17 17:39:05.062500
143,-124.89,2021-12-17 17:39:05.078125
144,-145.34,2021-12-17 17:39:05.093750
145,-159.77,2021-12-17 17:39:05.109375
146,-170.43,2021-12-17 17:39:05.125000
147,-178.91,2021-12-17 17:39:05.140625
148,-185.48,2021-12-17 17:39:05.156250
149,-189.17,2021-12-17 17:39:05.171875
150,-188.45,2021-12-17 17:39:05.187500
151,-182.44,2021-12-17 17:39:05.203125
152,-171.59,2021-12-17 17:39:05.218750
153,-157.9,2021-12-17 17:39:05.234375
154,-143.92,2021-12-17 17:39:05.250000
155,-131.8,2021-12-17 17:39:05.265625
156,-122.53,2021-12-17 17:39:05.281250
157,-115.92,2021-12-17 17:39:05.296875
158,-110.88,2021-12-17 17:39:05.312500
159,-106.14,2021-12-17 17:39:05.328125
160,-100.86,2021-12-17 17:39:05.343750
161,-95.06,2021-12-17 17:39:05.359375
162,-89.52,2021-12-17 17:39:05.375000
163,-85.17,2021-12-17 17:39:05.390625
164,-82.48,2021-12-17 17:39:05.406250
165,-81.24,2021-12-17 17:39:05.421875
166,-80.63,2021-12-17 17:39:05.437500
167,-79.74,2021-12-17 17:39:05.453125
168,-77.96,2021-12-17 17:39:05.468750
169,-75.33,2021-12-17 17:39:05.484375
170,-72.57,2021-12-17 17:39:05.500000
171,-70.7,2021-12-17 17:39:05.515625
172,-70.58,2021-12-17 17:39:05.531250
173,-72.53,2021-12-17 17:39:05.546875
174,-76.14,2021-12-17 17:39:05.562500
175,-80.48,2021-12-17 17:39:05.578125
176,-84.59,2021-12-17 17:39:05.593750
177,-87.82,2021-12-17 17:39:05.609375
178,-90.05,2021-12-17 17:39:05.625000
179,-91.63,2021-12-17 17:39:05.640625
180,-93.17,2021-12-17 17:39:05.656250
181,-95.32,2021-12-17 17:39:05.671875
182,-98.62,2021-12-17 17:39:05.687500
183,-103.32,2021-12-17 17:39:05.703125
184,-108.89,2021-12-17 17:39:05.718750
185,-113.6,2021-12-17 17:39:05.734375
186,-114.19,2021-12-17 17:39:05.750000
187,-106.59,2021-12-17 17:39:05.765625
188,-87.42,2021-12-17 17:39:05.781250
189,-55.79,2021-12-17 17:39:05.796875
190,-14.54,2021-12-17 17:39:05.812500
191,30.45,2021-12-17 17:39:05.828125
192,72.21,2021-12-17 17:39:05.843750
193,104.99,2021-12-17 17:39:05.859375
194,125.84,2021-12-17 17:39:05.875000
195,134.64,2021-12-17 17:39:05.890625
196,133.02,2021-12-17 17:39:05.906250
197,123.1,2021-12-17 17:39:05.921875
198,107.12,2021-12-17 17:39:05.937500
199,87.98,2021-12-17 17:39:05.953125
200,69.9,2021-12-17 17:39:05.968750
201,58.23,2021-12-17 17:39:05.984375
202,58.05,2021-12-17 17:39:06.000000
203,72.14,2021-12-17 17:39:06.015625
204,99.74,2021-12-17 17:39:06.031250
205,136.66,2021-12-17 17:39:06.046875
206,177.0,2021-12-17 17:39:06.062500
207,215.26,2021-12-17 17:39:06.078125
208,247.72,2021-12-17 17:39:06.093750
209,272.59,2021-12-17 17:39:06.109375
210,289.25,2021-12-17 17:39:06.125000
211,297.51,2021-12-17 17:39:06.140625
212,297.3,2021-12-17 17:39:06.156250
213,289.25,2021-12-17 17:39:06.171875
214,274.91,2021-12-17 17:39:06.187500
215,256.77,2021-12-17 17:39:06.203125
216,237.69,2021-12-17 17:39:06.218750
217,220.14,2021-12-17 17:39:06.234375
218,205.68,2021-12-17 17:39:06.250000
219,194.89,2021-12-17 17:39:06.265625
220,187.43,2021-12-17 17:39:06.281250
221,182.06,2021-12-17 17:39:06.296875
222,176.49,2021-12-17 17:39:06.312500
223,167.32,2021-12-17 17:39:06.328125
224,150.69,2021-12-17 17:39:06.343750
225,123.49,2021-12-17 17:39:06.359375
226,84.65,2021-12-17 17:39:06.375000
227,36.21,2021-12-17 17:39:06.390625
228,-16.97,2021-12-17 17:39:06.406250
229,-68.73,2021-12-17 17:39:06.421875
230,-113.76,2021-12-17 17:39:06.437500
231,-149.32,2021-12-17 17:39:06.453125
232,-175.71,2021-12-17 17:39:06.468750
233,-195.26,2021-12-17 17:39:06.484375
234,-210.52,2021-12-17 17:39:06.500000
235,-222.75,2021-12-17 17:39:06.515625
236,-231.32,2021-12-17 17:39:06.531250
237,-234.29,2021-12-17 17:39:06.546875
238,-229.81,2021-12-17 17:39:06.562500
239,-217.25,2021-12-17 17:39:06.578125
240,-197.6,2021-12-17 17:39:06.593750
241,-172.9,2021-12-17 17:39:06.609375
242,-145.05,2021-12-17 17:39:06.625000
243,-114.98,2021-12-17 17:39:06.640625
244,-82.69,2021-12-17 17:39:06.656250
245,-47.98,2021-12-17 17:39:06.671875
246,-11.56,2021-12-17 17:39:06.687500
247,24.44,2021-12-17 17:39:06.703125
248,56.73,2021-12-17 17:39:06.718750
249,81.82,2021-12-17 17:39:06.734375
250,97.18,2021-12-17 17:39:06.750000
251,102.06,2021-12-17 17:39:06.765625
252,97.6,2021-12-17 17:39:06.781250
253,86.34,2021-12-17 17:39:06.796875
254,71.24,2021-12-17 17:39:06.812500
255,55.01,2021-12-17 17:39:06.828125
256,39.81,2021-12-17 17:39:06.843750
257,27.49,2021-12-17 17:39:06.859375
258,19.81,2021-12-17 17:39:06.875000
259,18.3,2021-12-17 17:39:06.890625
260,23.22,2021-12-17 17:39:06.906250
261,32.22,2021-12-17 17:39:06.921875
262,39.99,2021-12-17 17:39:06.937500
263,39.73,2021-12-17 17:39:06.953125
264,26.37,2021-12-17 17:39:06.968750
265,-0.19,2021-12-17 17:39:06.984375
266,-33.89,2021-12-17 17:39:07.000000
267,-64.7,2021-12-17 17:39:07.015625
268,-83.13,2021-12-17 17:39:07.031250
269,-84.86,2021-12-17 17:39:07.046875
270,-72.49,2021-12-17 17:39:07.062500
271,-53.64,2021-12-17 17:39:07.078125
272,-36.39,2021-12-17 17:39:07.093750
273,-25.21,2021-12-17 17:39:07.109375
274,-19.67,2021-12-17 17:39:07.125000
275,-16.35,2021-12-17 17:39:07.140625
276,-12.22,2021-12-17 17:39:07.156250
277,-7.0,2021-12-17 17:39:07.171875
278,-2.96,2021-12-17 17:39:07.187500
279,-2.79,2021-12-17 17:39:07.203125
280,-7.3,2021-12-17 17:39:07.218750
281,-14.75,2021-12-17 17:39:07.234375
282,-22.15,2021-12-17 17:39:07.250000
283,-27.34,2021-12-17 17:39:07.265625
284,-30.17,2021-12-17 17:39:07.281250
285,-31.85,2021-12-17 17:39:07.296875
286,-33.41,2021-12-17 17:39:07.312500
287,-34.25,2021-12-17 17:39:07.328125
288,-32.17,2021-12-17 17:39:07.343750
289,-24.88,2021-12-17 17:39:07.359375
290,-11.92,2021-12-17 17:39:07.375000
291,4.47,2021-12-17 17:39:07.390625
292,20.3,2021-12-17 17:39:07.406250
293,31.9,2021-12-17 17:39:07.421875
294,37.76,2021-12-17 17:39:07.437500
295,38.98,2021-12-17 17:39:07.453125
296,37.88,2021-12-17 17:39:07.468750
297,36.17,2021-12-17 17:39:07.484375
298,33.75,2021-12-17 17:39:07.500000
299,29.07,2021-12-17 17:39:07.515625
300,20.67,2021-12-17 17:39:07.531250
301,8.76,2021-12-17 17:39:07.546875
302,-4.44,2021-12-17 17:39:07.562500
303,-15.67,2021-12-17 17:39:07.578125
304,-22.47,2021-12-17 17:39:07.593750
305,-24.37,2021-12-17 17:39:07.609375
306,-22.97,2021-12-17 17:39:07.625000
307,-20.83,2021-12-17 17:39:07.640625
308,-20.12,2021-12-17 17:39:07.656250
309,-21.79,2021-12-17 17:39:07.671875
310,-25.43,2021-12-17 17:39:07.687500
311,-29.87,2021-12-17 17:39:07.703125
312,-33.94,2021-12-17 17:39:07.718750
313,-36.94,2021-12-17 17:39:07.734375
314,-38.74,2021-12-17 17:39:07.750000
315,-39.68,2021-12-17 17:39:07.765625
316,-40.2,2021-12-17 17:39:07.781250
317,-40.54,2021-12-17 17:39:07.796875
318,-40.71,2021-12-17 17:39:07.812500
319,-40.6,2021-12-17 17:39:07.828125
320,-40.31,2021-12-17 17:39:07.843750
321,-40.15,2021-12-17 17:39:07.859375
322,-40.61,2021-12-17 17:39:07.875000
323,-41.83,2021-12-17 17:39:07.890625
324,-43.43,2021-12-17 17:39:07.906250
325,-44.47,2021-12-17 17:39:07.921875
326,-43.89,2021-12-17 17:39:07.937500
327,-41.04,2021-12-17 17:39:07.953125
328,-35.97,2021-12-17 17:39:07.968750
329,-29.27,2021-12-17 17:39:07.984375
330,-21.68,2021-12-17 17:39:08.000000
331,-13.6,2021-12-17 17:39:08.015625
332,-5.1,2021-12-17 17:39:08.031250
333,3.83,2021-12-17 17:39:08.046875
334,12.88,2021-12-17 17:39:08.062500
335,21.37,2021-12-17 17:39:08.078125
336,28.42,2021-12-17 17:39:08.093750
337,33.48,2021-12-17 17:39:08.109375
338,36.52,2021-12-17 17:39:08.125000
339,37.89,2021-12-17 17:39:08.140625
340,38.09,2021-12-17 17:39:08.156250
341,37.37,2021-12-17 17:39:08.171875
342,35.77,2021-12-17 17:39:08.187500
343,33.25,2021-12-17 17:39:08.203125
344,29.96,2021-12-17 17:39:08.218750
345,26.27,2021-12-17 17:39:08.234375
346,22.73,2021-12-17 17:39:08.250000
347,19.79,2021-12-17 17:39:08.265625
348,17.64,2021-12-17 17:39:08.281250
349,16.25,2021-12-17 17:39:08.296875
350,15.37,2021-12-17 17:39:08.312500
351,14.73,2021-12-17 17:39:08.328125
352,14.1,2021-12-17 17:39:08.343750
353,13.36,2021-12-17 17:39:08.359375
354,12.45,2021-12-17 17:39:08.375000
355,11.36,2021-12-17 17:39:08.390625
356,10.12,2021-12-17 17:39:08.406250
357,8.8,2021-12-17 17:39:08.421875
358,7.49,2021-12-17 17:39:08.437500
359,6.3,2021-12-17 17:39:08.453125
360,5.21,2021-12-17 17:39:08.468750
361,4.12,2021-12-17 17:39:08.484375
362,2.88,2021-12-17 17:39:08.500000
363,1.32,2021-12-17 17:39:08.515625
364,-0.51,2021-12-17 17:39:08.531250
365,-2.38,2021-12-17 17:39:08.546875
366,-3.86,2021-12-17 17:39:08.562500
367,-4.48,2021-12-17 17:39:08.578125
368,-4.0,2021-12-17 17:39:08.593750
369,-2.48,2021-12-17 17:39:08.609375
370,-0.23,2021-12-17 17:39:08.625000
371,2.29,2021-12-17 17:39:08.640625
372,4.69,2021-12-17 17:39:08.656250
373,6.73,2021-12-17 17:39:08.671875
374,8.36,2021-12-17 17:39:08.687500
375,9.59,2021-12-17 17:39:08.703125
376,10.48,2021-12-17 17:39:08.718750
377,11.06,2021-12-17 17:39:08.734375
378,11.41,2021-12-17 17:39:08.750000
379,11.65,2021-12-17 17:39:08.765625
380,11.86,2021-12-17 17:39:08.781250
381,12.08,2021-12-17 17:39:08.796875
382,12.34,2021-12-17 17:39:08.812500
383,12.64,2021-12-17 17:39:08.828125
384,12.93,2021-12-17 17:39:08.843750
385,13.18,2021-12-17 17:39:08.859375
386,13.28,2021-12-17 17:39:08.875000
387,13.09,2021-12-17 17:39:08.890625
388,12.54,2021-12-17 17:39:08.906250
389,11.66,2021-12-17 17:39:08.921875
390,10.61,2021-12-17 17:39:08.937500
391,9.76,2021-12-17 17:39:08.953125
392,9.44,2021-12-17 17:39:08.968750
393,9.87,2021-12-17 17:39:08.984375
394,10.97,2021-12-17 17:39:09.000000
395,12.42,2021-12-17 17:39:09.015625
396,13.76,2021-12-17 17:39:09.031250
397,14.58,2021-12-17 17:39:09.046875
398,14.77,2021-12-17 17:39:09.062500
399,14.49,2021-12-17 17:39:09.078125
400,14.12,2021-12-17 17:39:09.093750
401,14.0,2021-12-17 17:39:09.109375
402,14.29,2021-12-17 17:39:09.125000
403,14.82,2021-12-17 17:39:09.140625
404,15.2,2021-12-17 17:39:09.156250
405,14.92,2021-12-17 17:39:09.171875
406,13.56,2021-12-17 17:39:09.187500
407,10.93,2021-12-17 17:39:09.203125
408,7.16,2021-12-17 17:39:09.218750
409,2.59,2021-12-17 17:39:09.234375
410,-2.28,2021-12-17 17:39:09.250000
411,-6.85,2021-12-17 17:39:09.265625
412,-10.48,2021-12-17 17:39:09.281250
413,-12.62,2021-12-17 17:39:09.296875
414,-12.98,2021-12-17 17:39:09.312500
415,-11.66,2021-12-17 17:39:09.328125
416,-9.26,2021-12-17 17:39:09.343750
417,-6.77,2021-12-17 17:39:09.359375
418,-5.17,2021-12-17 17:39:09.375000
419,-5.1,2021-12-17 17:39:09.390625
420,-6.63,2021-12-17 17:39:09.406250
421,-9.25,2021-12-17 17:39:09.421875
422,-12.29,2021-12-17 17:39:09.437500
423,-15.22,2021-12-17 17:39:09.453125
424,-17.88,2021-12-17 17:39:09.468750
425,-20.39,2021-12-17 17:39:09.484375
426,-22.89,2021-12-17 17:39:09.500000
427,-25.22,2021-12-17 17:39:09.515625
428,-26.98,2021-12-17 17:39:09.531250
429,-27.66,2021-12-17 17:39:09.546875
430,-27.04,2021-12-17 17:39:09.562500
431,-25.37,2021-12-17 17:39:09.578125
432,-23.24,2021-12-17 17:39:09.593750
433,-21.23,2021-12-17 17:39:09.609375
434,-19.59,2021-12-17 17:39:09.625000
435,-18.07,2021-12-17 17:39:09.640625
436,-16.11,2021-12-17 17:39:09.656250
437,-13.16,2021-12-17 17:39:09.671875
438,-9.01,2021-12-17 17:39:09.687500
439,-3.91,2021-12-17 17:39:09.703125
440,1.54,2021-12-17 17:39:09.718750
441,6.6,2021-12-17 17:39:09.734375
442,10.68,2021-12-17 17:39:09.750000
443,13.52,2021-12-17 17:39:09.765625
444,15.2,2021-12-17 17:39:09.781250
445,16.06,2021-12-17 17:39:09.796875
446,16.44,2021-12-17 17:39:09.812500
447,16.57,2021-12-17 17:39:09.828125
448,16.31,2021-12-17 17:39:09.843750
449,15.24,2021-12-17 17:39:09.859375
450,12.91,2021-12-17 17:39:09.875000
451,9.17,2021-12-17 17:39:09.890625
452,4.49,2021-12-17 17:39:09.906250
453,-0.09,2021-12-17 17:39:09.921875
454,-3.25,2021-12-17 17:39:09.937500
455,-3.95,2021-12-17 17:39:09.953125
456,-1.8,2021-12-17 17:39:09.968750
457,2.67,2021-12-17 17:39:09.984375
458,8.16,2021-12-17 17:39:10.000000
459,13.0,2021-12-17 17:39:10.015625
460,15.62,2021-12-17 17:39:10.031250
461,14.99,2021-12-17 17:39:10.046875
462,10.93,2021-12-17 17:39:10.062500
463,4.29,2021-12-17 17:39:10.078125
464,-3.16,2021-12-17 17:39:10.093750
465,-9.25,2021-12-17 17:39:10.109375
466,-12.17,2021-12-17 17:39:10.125000
467,-11.37,2021-12-17 17:39:10.140625
468,-7.91,2021-12-17 17:39:10.156250
469,-4.25,2021-12-17 17:39:10.171875
470,-3.42,2021-12-17 17:39:10.187500
471,-7.9,2021-12-17 17:39:10.203125
472,-18.58,2021-12-17 17:39:10.218750
473,-34.07,2021-12-17 17:39:10.234375
474,-50.66,2021-12-17 17:39:10.250000
475,-63.08,2021-12-17 17:39:10.265625
476,-66.26,2021-12-17 17:39:10.281250
477,-57.37,2021-12-17 17:39:10.296875
478,-37.28,2021-12-17 17:39:10.312500
479,-10.57,2021-12-17 17:39:10.328125
480,16.16,2021-12-17 17:39:10.343750
481,37.16,2021-12-17 17:39:10.359375
482,49.92,2021-12-17 17:39:10.375000
483,55.92,2021-12-17 17:39:10.390625
484,59.3,2021-12-17 17:39:10.406250
485,64.31,2021-12-17 17:39:10.421875
486,73.06,2021-12-17 17:39:10.437500
487,84.93,2021-12-17 17:39:10.453125
488,97.61,2021-12-17 17:39:10.468750
489,108.93,2021-12-17 17:39:10.484375
490,117.89,2021-12-17 17:39:10.500000
491,124.55,2021-12-17 17:39:10.515625
492,129.17,2021-12-17 17:39:10.531250
493,131.47,2021-12-17 17:39:10.546875
494,130.74,2021-12-17 17:39:10.562500
495,126.57,2021-12-17 17:39:10.578125
496,119.46,2021-12-17 17:39:10.593750
497,110.6,2021-12-17 17:39:10.609375
498,101.0,2021-12-17 17:39:10.625000
499,90.44,2021-12-17 17:39:10.640625
500,77.24,2021-12-17 17:39:10.656250
501,58.95,2021-12-17 17:39:10.671875
502,33.92,2021-12-17 17:39:10.687500
503,2.59,2021-12-17 17:39:10.703125
504,-32.04,2021-12-17 17:39:10.718750
505,-65.06,2021-12-17 17:39:10.734375
506,-91.08,2021-12-17 17:39:10.750000
507,-105.88,2021-12-17 17:39:10.765625
508,-107.52,2021-12-17 17:39:10.781250
509,-96.73,2021-12-17 17:39:10.796875
510,-76.6,2021-12-17 17:39:10.812500
511,-51.79,2021-12-17 17:39:10.828125
512,-27.64,2021-12-17 17:39:10.843750
513,-8.87,2021-12-17 17:39:10.859375
514,1.5,2021-12-17 17:39:10.875000
515,2.9,2021-12-17 17:39:10.890625
516,-2.81,2021-12-17 17:39:10.906250
517,-12.12,2021-12-17 17:39:10.921875
518,-21.25,2021-12-17 17:39:10.937500
519,-27.5,2021-12-17 17:39:10.953125
520,-30.03,2021-12-17 17:39:10.968750
521,-29.65,2021-12-17 17:39:10.984375
522,-28.0,2021-12-17 17:39:11.000000
523,-26.53,2021-12-17 17:39:11.015625
524,-26.03,2021-12-17 17:39:11.031250
525,-26.63,2021-12-17 17:39:11.046875
526,-28.15,2021-12-17 17:39:11.062500
527,-30.47,2021-12-17 17:39:11.078125
528,-33.52,2021-12-17 17:39:11.093750
529,-37.0,2021-12-17 17:39:11.109375
530,-40.19,2021-12-17 17:39:11.125000
531,-42.01,2021-12-17 17:39:11.140625
532,-41.5,2021-12-17 17:39:11.156250
533,-38.45,2021-12-17 17:39:11.171875
534,-33.54,2021-12-17 17:39:11.187500
535,-28.18,2021-12-17 17:39:11.203125
536,-24.0,2021-12-17 17:39:11.218750
537,-22.11,2021-12-17 17:39:11.234375
538,-22.76,2021-12-17 17:39:11.250000
539,-25.24,2021-12-17 17:39:11.265625
540,-28.29,2021-12-17 17:39:11.281250
541,-30.66,2021-12-17 17:39:11.296875
542,-31.56,2021-12-17 17:39:11.312500
543,-30.85,2021-12-17 17:39:11.328125
544,-28.96,2021-12-17 17:39:11.343750
545,-26.57,2021-12-17 17:39:11.359375
546,-24.43,2021-12-17 17:39:11.375000
547,-23.02,2021-12-17 17:39:11.390625
548,-22.58,2021-12-17 17:39:11.406250
549,-22.98,2021-12-17 17:39:11.421875
550,-23.87,2021-12-17 17:39:11.437500
551,-24.65,2021-12-17 17:39:11.453125
552,-24.69,2021-12-17 17:39:11.468750
553,-23.55,2021-12-17 17:39:11.484375
554,-21.16,2021-12-17 17:39:11.500000
555,-17.96,2021-12-17 17:39:11.515625
556,-14.76,2021-12-17 17:39:11.531250
557,-12.45,2021-12-17 17:39:11.546875
558,-11.66,2021-12-17 17:39:11.562500
559,-12.62,2021-12-17 17:39:11.578125
560,-15.22,2021-12-17 17:39:11.593750
561,-19.08,2021-12-17 17:39:11.609375
562,-23.49,2021-12-17 17:39:11.625000
563,-27.3,2021-12-17 17:39:11.640625
564,-28.81,2021-12-17 17:39:11.656250
565,-26.33,2021-12-17 17:39:11.671875
566,-18.96,2021-12-17 17:39:11.687500
567,-7.5,2021-12-17 17:39:11.703125
568,5.21,2021-12-17 17:39:11.718750
569,15.14,2021-12-17 17:39:11.734375
570,18.68,2021-12-17 17:39:11.750000
571,14.37,2021-12-17 17:39:11.765625
572,3.52,2021-12-17 17:39:11.781250
573,-10.53,2021-12-17 17:39:11.796875
574,-24.39,2021-12-17 17:39:11.812500
575,-36.34,2021-12-17 17:39:11.828125
576,-46.86,2021-12-17 17:39:11.843750
577,-57.48,2021-12-17 17:39:11.859375
578,-68.96,2021-12-17 17:39:11.875000
579,-79.9,2021-12-17 17:39:11.890625
580,-86.94,2021-12-17 17:39:11.906250
581,-86.41,2021-12-17 17:39:11.921875
582,-76.16,2021-12-17 17:39:11.937500
583,-56.73,2021-12-17 17:39:11.953125
584,-30.97,2021-12-17 17:39:11.968750
585,-2.69,2021-12-17 17:39:11.984375
586,24.63,2021-12-17 17:39:12.000000
587,48.35,2021-12-17 17:39:12.015625
588,66.42,2021-12-17 17:39:12.031250
589,76.88,2021-12-17 17:39:12.046875
590,78.0,2021-12-17 17:39:12.062500
591,69.05,2021-12-17 17:39:12.078125
592,51.48,2021-12-17 17:39:12.093750
593,29.35,2021-12-17 17:39:12.109375
594,8.4,2021-12-17 17:39:12.125000
595,-5.9,2021-12-17 17:39:12.140625
596,-10.47,2021-12-17 17:39:12.156250
597,-5.74,2021-12-17 17:39:12.171875
598,5.01,2021-12-17 17:39:12.187500
599,17.56,2021-12-17 17:39:12.203125
600,28.71,2021-12-17 17:39:12.218750
601,37.56,2021-12-17 17:39:12.234375
602,45.01,2021-12-17 17:39:12.250000
603,52.47,2021-12-17 17:39:12.265625
604,60.32,2021-12-17 17:39:12.281250
605,67.46,2021-12-17 17:39:12.296875
606,71.94,2021-12-17 17:39:12.312500
607,72.28,2021-12-17 17:39:12.328125
608,68.42,2021-12-17 17:39:12.343750
609,61.74,2021-12-17 17:39:12.359375
610,54.19,2021-12-17 17:39:12.375000
611,47.02,2021-12-17 17:39:12.390625
612,40.26,2021-12-17 17:39:12.406250
613,33.13,2021-12-17 17:39:12.421875
614,24.83,2021-12-17 17:39:12.437500
615,15.36,2021-12-17 17:39:12.453125
616,5.6,2021-12-17 17:39:12.468750
617,-3.23,2021-12-17 17:39:12.484375
618,-10.21,2021-12-17 17:39:12.500000
619,-15.11,2021-12-17 17:39:12.515625
620,-18.29,2021-12-17 17:39:12.531250
621,-20.27,2021-12-17 17:39:12.546875
622,-21.31,2021-12-17 17:39:12.562500
623,-21.36,2021-12-17 17:39:12.578125
624,-20.44,2021-12-17 17:39:12.593750
625,-18.84,2021-12-17 17:39:12.609375
626,-17.36,2021-12-17 17:39:12.625000
627,-17.16,2021-12-17 17:39:12.640625
628,-19.46,2021-12-17 17:39:12.656250
629,-25.24,2021-12-17 17:39:12.671875
630,-34.93,2021-12-17 17:39:12.687500
631,-48.29,2021-12-17 17:39:12.703125
632,-64.34,2021-12-17 17:39:12.718750
633,-81.24,2021-12-17 17:39:12.734375
634,-96.09,2021-12-17 17:39:12.750000
635,-105.19,2021-12-17 17:39:12.765625
636,-104.75,2021-12-17 17:39:12.781250
637,-92.26,2021-12-17 17:39:12.796875
638,-67.75,2021-12-17 17:39:12.812500
639,-34.32,2021-12-17 17:39:12.828125
640,2.68,2021-12-17 17:39:12.843750
641,37.53,2021-12-17 17:39:12.859375
642,66.19,2021-12-17 17:39:12.875000
643,87.3,2021-12-17 17:39:12.890625
644,101.83,2021-12-17 17:39:12.906250
645,111.58,2021-12-17 17:39:12.921875
646,117.62,2021-12-17 17:39:12.937500
647,119.65,2021-12-17 17:39:12.953125
648,116.56,2021-12-17 17:39:12.968750
649,107.77,2021-12-17 17:39:12.984375
650,94.16,2021-12-17 17:39:13.000000
651,78.19,2021-12-17 17:39:13.015625
652,62.86,2021-12-17 17:39:13.031250
653,50.53,2021-12-17 17:39:13.046875
654,42.16,2021-12-17 17:39:13.062500
655,37.39,2021-12-17 17:39:13.078125
656,35.03,2021-12-17 17:39:13.093750
657,33.77,2021-12-17 17:39:13.109375
658,32.58,2021-12-17 17:39:13.125000
659,30.79,2021-12-17 17:39:13.140625
660,28.05,2021-12-17 17:39:13.156250
661,24.23,2021-12-17 17:39:13.171875
662,19.36,2021-12-17 17:39:13.187500
663,13.63,2021-12-17 17:39:13.203125
664,7.38,2021-12-17 17:39:13.218750
665,1.12,2021-12-17 17:39:13.234375
666,-4.56,2021-12-17 17:39:13.250000
667,-9.12,2021-12-17 17:39:13.265625
668,-12.34,2021-12-17 17:39:13.281250
669,-14.4,2021-12-17 17:39:13.296875
670,-15.9,2021-12-17 17:39:13.312500
671,-17.54,2021-12-17 17:39:13.328125
672,-19.83,2021-12-17 17:39:13.343750
673,-22.82,2021-12-17 17:39:13.359375
674,-26.1,2021-12-17 17:39:13.375000
675,-28.95,2021-12-17 17:39:13.390625
676,-30.76,2021-12-17 17:39:13.406250
677,-31.15,2021-12-17 17:39:13.421875
678,-30.16,2021-12-17 17:39:13.437500
679,-28.14,2021-12-17 17:39:13.453125
680,-25.67,2021-12-17 17:39:13.468750
681,-23.49,2021-12-17 17:39:13.484375
682,-22.34,2021-12-17 17:39:13.500000
683,-22.89,2021-12-17 17:39:13.515625
684,-25.48,2021-12-17 17:39:13.531250
685,-29.95,2021-12-17 17:39:13.546875
686,-35.6,2021-12-17 17:39:13.562500
687,-41.43,2021-12-17 17:39:13.578125
688,-46.5,2021-12-17 17:39:13.593750
689,-50.28,2021-12-17 17:39:13.609375
690,-52.78,2021-12-17 17:39:13.625000
691,-54.3,2021-12-17 17:39:13.640625
692,-55.11,2021-12-17 17:39:13.656250
693,-55.16,2021-12-17 17:39:13.671875
694,-54.19,2021-12-17 17:39:13.687500
695,-51.85,2021-12-17 17:39:13.703125
696,-48.09,2021-12-17 17:39:13.718750
697,-43.19,2021-12-17 17:39:13.734375
698,-37.63,2021-12-17 17:39:13.750000
699,-31.84,2021-12-17 17:39:13.765625
700,-26.12,2021-12-17 17:39:13.781250
701,-20.61,2021-12-17 17:39:13.796875
702,-15.45,2021-12-17 17:39:13.812500
703,-10.9,2021-12-17 17:39:13.828125
704,-7.22,2021-12-17 17:39:13.843750
705,-4.46,2021-12-17 17:39:13.859375
706,-2.4,2021-12-17 17:39:13.875000
707,-0.58,2021-12-17 17:39:13.890625
708,1.44,2021-12-17 17:39:13.906250
709,3.79,2021-12-17 17:39:13.921875
710,6.24,2021-12-17 17:39:13.937500
711,8.32,2021-12-17 17:39:13.953125
712,9.58,2021-12-17 17:39:13.968750
713,9.84,2021-12-17 17:39:13.984375
714,9.19,2021-12-17 17:39:14.000000
715,7.91,2021-12-17 17:39:14.015625
716,6.31,2021-12-17 17:39:14.031250
717,4.64,2021-12-17 17:39:14.046875
718,3.04,2021-12-17 17:39:14.062500
719,1.61,2021-12-17 17:39:14.078125
720,0.43,2021-12-17 17:39:14.093750
721,-0.47,2021-12-17 17:39:14.109375
722,-1.09,2021-12-17 17:39:14.125000
723,-1.55,2021-12-17 17:39:14.140625
724,-2.01,2021-12-17 17:39:14.156250
725,-2.57,2021-12-17 17:39:14.171875
726,-3.21,2021-12-17 17:39:14.187500
727,-3.8,2021-12-17 17:39:14.203125
728,-4.09,2021-12-17 17:39:14.218750
729,-3.91,2021-12-17 17:39:14.234375
730,-3.19,2021-12-17 17:39:14.250000
731,-2.02,2021-12-17 17:39:14.265625
732,-0.61,2021-12-17 17:39:14.281250
733,0.89,2021-12-17 17:39:14.296875
734,2.37,2021-12-17 17:39:14.312500
735,3.85,2021-12-17 17:39:14.328125
736,5.33,2021-12-17 17:39:14.343750
737,6.76,2021-12-17 17:39:14.359375
738,7.93,2021-12-17 17:39:14.375000
739,8.55,2021-12-17 17:39:14.390625
740,8.42,2021-12-17 17:39:14.406250
741,7.6,2021-12-17 17:39:14.421875
742,6.43,2021-12-17 17:39:14.437500
743,5.43,2021-12-17 17:39:14.453125
744,5.02,2021-12-17 17:39:14.468750
745,5.26,2021-12-17 17:39:14.484375
746,5.74,2021-12-17 17:39:14.500000
747,5.62,2021-12-17 17:39:14.515625
748,3.99,2021-12-17 17:39:14.531250
749,0.23,2021-12-17 17:39:14.546875
750,-5.75,2021-12-17 17:39:14.562500
751,-13.43,2021-12-17 17:39:14.578125
752,-21.87,2021-12-17 17:39:14.593750
753,-30.06,2021-12-17 17:39:14.609375
754,-37.16,2021-12-17 17:39:14.625000
755,-42.71,2021-12-17 17:39:14.640625
756,-46.63,2021-12-17 17:39:14.656250
757,-49.11,2021-12-17 17:39:14.671875
758,-50.54,2021-12-17 17:39:14.687500
759,-51.35,2021-12-17 17:39:14.703125
760,-51.95,2021-12-17 17:39:14.718750
761,-52.48,2021-12-17 17:39:14.734375
762,-52.59,2021-12-17 17:39:14.750000
763,-51.25,2021-12-17 17:39:14.765625
764,-46.87,2021-12-17 17:39:14.781250
765,-37.83,2021-12-17 17:39:14.796875
766,-23.4,2021-12-17 17:39:14.812500
767,-4.55,2021-12-17 17:39:14.828125
768,15.89,2021-12-17 17:39:14.843750
769,33.96,2021-12-17 17:39:14.859375
770,45.92,2021-12-17 17:39:14.875000
771,49.72,2021-12-17 17:39:14.890625
772,45.77,2021-12-17 17:39:14.906250
773,36.55,2021-12-17 17:39:14.921875
774,25.47,2021-12-17 17:39:14.937500
775,15.48,2021-12-17 17:39:14.953125
776,8.19,2021-12-17 17:39:14.968750
777,4.02,2021-12-17 17:39:14.984375
778,2.65,2021-12-17 17:39:15.000000
779,3.76,2021-12-17 17:39:15.015625
780,7.14,2021-12-17 17:39:15.031250
781,12.48,2021-12-17 17:39:15.046875
782,19.06,2021-12-17 17:39:15.062500
783,25.72,2021-12-17 17:39:15.078125
784,31.16,2021-12-17 17:39:15.093750
785,34.5,2021-12-17 17:39:15.109375
786,35.55,2021-12-17 17:39:15.125000
787,34.79,2021-12-17 17:39:15.140625
788,33.05,2021-12-17 17:39:15.156250
789,31.05,2021-12-17 17:39:15.171875
790,29.2,2021-12-17 17:39:15.187500
791,27.55,2021-12-17 17:39:15.203125
792,25.98,2021-12-17 17:39:15.218750
793,24.37,2021-12-17 17:39:15.234375
794,22.62,2021-12-17 17:39:15.250000
795,20.75,2021-12-17 17:39:15.265625
796,18.83,2021-12-17 17:39:15.281250
797,17.15,2021-12-17 17:39:15.296875
798,16.15,2021-12-17 17:39:15.312500
799,16.44,2021-12-17 17:39:15.328125
800,18.51,2021-12-17 17:39:15.343750
801,22.41,2021-12-17 17:39:15.359375
802,27.59,2021-12-17 17:39:15.375000
803,32.95,2021-12-17 17:39:15.390625
804,37.27,2021-12-17 17:39:15.406250
805,39.72,2021-12-17 17:39:15.421875
806,40.43,2021-12-17 17:39:15.437500
807,40.59,2021-12-17 17:39:15.453125
808,41.98,2021-12-17 17:39:15.468750
809,46.18,2021-12-17 17:39:15.484375
810,53.6,2021-12-17 17:39:15.500000
811,63.13,2021-12-17 17:39:15.515625
812,72.48,2021-12-17 17:39:15.531250
813,79.04,2021-12-17 17:39:15.546875
814,80.95,2021-12-17 17:39:15.562500
815,77.69,2021-12-17 17:39:15.578125
816,70.02,2021-12-17 17:39:15.593750
817,59.53,2021-12-17 17:39:15.609375
818,47.97,2021-12-17 17:39:15.625000
819,36.89,2021-12-17 17:39:15.640625
820,27.53,2021-12-17 17:39:15.656250
821,20.62,2021-12-17 17:39:15.671875
822,16.09,2021-12-17 17:39:15.687500
823,12.62,2021-12-17 17:39:15.703125
824,7.77,2021-12-17 17:39:15.718750
825,-1.1,2021-12-17 17:39:15.734375
826,-15.35,2021-12-17 17:39:15.750000
827,-33.63,2021-12-17 17:39:15.765625
828,-51.88,2021-12-17 17:39:15.781250
829,-64.83,2021-12-17 17:39:15.796875
830,-68.64,2021-12-17 17:39:15.812500
831,-62.86,2021-12-17 17:39:15.828125
832,-50.83,2021-12-17 17:39:15.843750
833,-37.95,2021-12-17 17:39:15.859375
834,-28.85,2021-12-17 17:39:15.875000
835,-25.15,2021-12-17 17:39:15.890625
836,-24.96,2021-12-17 17:39:15.906250
837,-24.22,2021-12-17 17:39:15.921875
838,-18.99,2021-12-17 17:39:15.937500
839,-7.08,2021-12-17 17:39:15.953125
840,11.28,2021-12-17 17:39:15.968750
841,33.7,2021-12-17 17:39:15.984375
842,56.28,2021-12-17 17:39:16.000000
843,74.35,2021-12-17 17:39:16.015625
844,83.39,2021-12-17 17:39:16.031250
845,80.42,2021-12-17 17:39:16.046875
846,65.55,2021-12-17 17:39:16.062500
847,42.73,2021-12-17 17:39:16.078125
848,18.51,2021-12-17 17:39:16.093750
849,-0.74,2021-12-17 17:39:16.109375
850,-12.04,2021-12-17 17:39:16.125000
851,-17.51,2021-12-17 17:39:16.140625
852,-23.31,2021-12-17 17:39:16.156250
853,-36.03,2021-12-17 17:39:16.171875
854,-58.81,2021-12-17 17:39:16.187500
855,-89.28,2021-12-17 17:39:16.203125
856,-120.65,2021-12-17 17:39:16.218750
857,-145.05,2021-12-17 17:39:16.234375
858,-157.38,2021-12-17 17:39:16.250000
859,-157.27,2021-12-17 17:39:16.265625
860,-148.75,2021-12-17 17:39:16.281250
861,-137.88,2021-12-17 17:39:16.296875
862,-130.03,2021-12-17 17:39:16.312500
863,-127.88,2021-12-17 17:39:16.328125
864,-130.76,2021-12-17 17:39:16.343750
865,-135.13,2021-12-17 17:39:16.359375
866,-135.65,2021-12-17 17:39:16.375000
867,-126.88,2021-12-17 17:39:16.390625
868,-105.14,2021-12-17 17:39:16.406250
869,-70.26,2021-12-17 17:39:16.421875
870,-26.38,2021-12-17 17:39:16.437500
871,19.09,2021-12-17 17:39:16.453125
872,58.01,2021-12-17 17:39:16.468750
873,84.42,2021-12-17 17:39:16.484375
874,96.51,2021-12-17 17:39:16.500000
875,96.5,2021-12-17 17:39:16.515625
876,88.68,2021-12-17 17:39:16.531250
877,76.91,2021-12-17 17:39:16.546875
878,63.3,2021-12-17 17:39:16.562500
879,48.48,2021-12-17 17:39:16.578125
880,33.01,2021-12-17 17:39:16.593750
881,18.58,2021-12-17 17:39:16.609375
882,7.96,2021-12-17 17:39:16.625000
883,3.66,2021-12-17 17:39:16.640625
884,6.14,2021-12-17 17:39:16.656250
885,13.13,2021-12-17 17:39:16.671875
886,20.52,2021-12-17 17:39:16.687500
887,24.38,2021-12-17 17:39:16.703125
888,22.82,2021-12-17 17:39:16.718750
889,16.62,2021-12-17 17:39:16.734375
890,8.54,2021-12-17 17:39:16.750000
891,1.72,2021-12-17 17:39:16.765625
892,-1.85,2021-12-17 17:39:16.781250
893,-2.12,2021-12-17 17:39:16.796875
894,-1.01,2021-12-17 17:39:16.812500
895,-1.56,2021-12-17 17:39:16.828125
896,-6.65,2021-12-17 17:39:16.843750
897,-17.64,2021-12-17 17:39:16.859375
898,-33.38,2021-12-17 17:39:16.875000
899,-50.07,2021-12-17 17:39:16.890625
900,-62.23,2021-12-17 17:39:16.906250
901,-64.62,2021-12-17 17:39:16.921875
902,-54.33,2021-12-17 17:39:16.937500
903,-32.1,2021-12-17 17:39:16.953125
904,-2.38,2021-12-17 17:39:16.968750
905,28.17,2021-12-17 17:39:16.984375
906,52.99,2021-12-17 17:39:17.000000
907,67.81,2021-12-17 17:39:17.015625
908,71.59,2021-12-17 17:39:17.031250
909,66.21,2021-12-17 17:39:17.046875
910,55.18,2021-12-17 17:39:17.062500
911,42.28,2021-12-17 17:39:17.078125
912,30.71,2021-12-17 17:39:17.093750
913,22.89,2021-12-17 17:39:17.109375
914,20.63,2021-12-17 17:39:17.125000
915,25.02,2021-12-17 17:39:17.140625
916,36.24,2021-12-17 17:39:17.156250
917,53.01,2021-12-17 17:39:17.171875
918,72.41,2021-12-17 17:39:17.187500
919,90.47,2021-12-17 17:39:17.203125
920,103.22,2021-12-17 17:39:17.218750
921,108.07,2021-12-17 17:39:17.234375
922,104.71,2021-12-17 17:39:17.250000
923,95.07,2021-12-17 17:39:17.265625
924,82.35,2021-12-17 17:39:17.281250
925,69.53,2021-12-17 17:39:17.296875
926,58.42,2021-12-17 17:39:17.312500
927,49.34,2021-12-17 17:39:17.328125
928,41.77,2021-12-17 17:39:17.343750
929,35.08,2021-12-17 17:39:17.359375
930,29.16,2021-12-17 17:39:17.375000
931,24.46,2021-12-17 17:39:17.390625
932,21.66,2021-12-17 17:39:17.406250
933,21.05,2021-12-17 17:39:17.421875
934,22.34,2021-12-17 17:39:17.437500
935,24.73,2021-12-17 17:39:17.453125
936,27.07,2021-12-17 17:39:17.468750
937,28.22,2021-12-17 17:39:17.484375
938,27.26,2021-12-17 17:39:17.500000
939,23.68,2021-12-17 17:39:17.515625
940,17.63,2021-12-17 17:39:17.531250
941,9.99,2021-12-17 17:39:17.546875
942,1.95,2021-12-17 17:39:17.562500
943,-5.44,2021-12-17 17:39:17.578125
944,-11.72,2021-12-17 17:39:17.593750
945,-17.14,2021-12-17 17:39:17.609375
946,-22.3,2021-12-17 17:39:17.625000
947,-27.75,2021-12-17 17:39:17.640625
948,-33.78,2021-12-17 17:39:17.656250
949,-40.34,2021-12-17 17:39:17.671875
950,-47.1,2021-12-17 17:39:17.687500
951,-53.38,2021-12-17 17:39:17.703125
952,-58.14,2021-12-17 17:39:17.718750
953,-59.85,2021-12-17 17:39:17.734375
954,-56.92,2021-12-17 17:39:17.750000
955,-48.38,2021-12-17 17:39:17.765625
956,-34.49,2021-12-17 17:39:17.781250
957,-16.97,2021-12-17 17:39:17.796875
958,1.66,2021-12-17 17:39:17.812500
959,18.95,2021-12-17 17:39:17.828125
960,33.02,2021-12-17 17:39:17.843750
961,42.45,2021-12-17 17:39:17.859375
962,45.87,2021-12-17 17:39:17.875000
963,41.7,2021-12-17 17:39:17.890625
964,28.93,2021-12-17 17:39:17.906250
965,8.1,2021-12-17 17:39:17.921875
966,-17.9,2021-12-17 17:39:17.937500
967,-44.16,2021-12-17 17:39:17.953125
968,-65.4,2021-12-17 17:39:17.968750
969,-77.84,2021-12-17 17:39:17.984375
970,-80.55,2021-12-17 17:39:18.000000
971,-75.39,2021-12-17 17:39:18.015625
972,-65.99,2021-12-17 17:39:18.031250
973,-55.78,2021-12-17 17:39:18.046875
974,-46.4,2021-12-17 17:39:18.062500
975,-37.28,2021-12-17 17:39:18.078125
976,-26.52,2021-12-17 17:39:18.093750
977,-12.8,2021-12-17 17:39:18.109375
978,3.01,2021-12-17 17:39:18.125000
979,17.41,2021-12-17 17:39:18.140625
980,25.57,2021-12-17 17:39:18.156250
981,23.52,2021-12-17 17:39:18.171875
982,10.49,2021-12-17 17:39:18.187500
983,-10.52,2021-12-17 17:39:18.203125
984,-33.93,2021-12-17 17:39:18.218750
985,-54.1,2021-12-17 17:39:18.234375
986,-67.6,2021-12-17 17:39:18.250000
987,-74.12,2021-12-17 17:39:18.265625
988,-75.71,2021-12-17 17:39:18.281250
989,-75.11,2021-12-17 17:39:18.296875
990,-74.38,2021-12-17 17:39:18.312500
991,-74.43,2021-12-17 17:39:18.328125
992,-75.38,2021-12-17 17:39:18.343750
993,-77.25,2021-12-17 17:39:18.359375
994,-80.15,2021-12-17 17:39:18.375000
995,-84.1,2021-12-17 17:39:18.390625
996,-88.78,2021-12-17 17:39:18.406250
997,-93.51,2021-12-17 17:39:18.421875
998,-97.52,2021-12-17 17:39:18.437500
999,-100.15,2021-12-17 17:39:18.453125
1000,-100.96,2021-12-17 17:39:18.468750
1001,-99.78,2021-12-17 17:39:18.484375
1002,-96.62,2021-12-17 17:39:18.500000
1003,-91.72,2021-12-17 17:39:18.515625
1004,-85.73,2021-12-17 17:39:18.531250
1005,-79.68,2021-12-17 17:39:18.546875
1006,-74.72,2021-12-17 17:39:18.562500
1007,-71.57,2021-12-17 17:39:18.578125
1008,-70.34,2021-12-17 17:39:18.593750
1009,-70.44,2021-12-17 17:39:18.609375
1010,-71.07,2021-12-17 17:39:18.625000
1011,-71.52,2021-12-17 17:39:18.640625
1012,-71.3,2021-12-17 17:39:18.656250
1013,-69.93,2021-12-17 17:39:18.671875
1014,-66.83,2021-12-17 17:39:18.687500
1015,-61.37,2021-12-17 17:39:18.703125
1016,-53.09,2021-12-17 17:39:18.718750
1017,-41.99,2021-12-17 17:39:18.734375
1018,-28.29,2021-12-17 17:39:18.750000
1019,-12.22,2021-12-17 17:39:18.765625
1020,6.25,2021-12-17 17:39:18.781250
1021,27.24,2021-12-17 17:39:18.796875
1022,50.66,2021-12-17 17:39:18.812500
1023,75.64,2021-12-17 17:39:18.828125
1024,100.65,2021-12-17 17:39:18.843750
1025,123.86,2021-12-17 17:39:18.859375
1026,143.74,2021-12-17 17:39:18.875000
1027,159.21,2021-12-17 17:39:18.890625
1028,169.45,2021-12-17 17:39:18.906250
1029,173.36,2021-12-17 17:39:18.921875
1030,169.43,2021-12-17 17:39:18.937500
1031,156.42,2021-12-17 17:39:18.953125
1032,134.37,2021-12-17 17:39:18.968750
1033,105.41,2021-12-17 17:39:18.984375
1034,73.85,2021-12-17 17:39:19.000000
1035,45.4,2021-12-17 17:39:19.015625
1036,25.9,2021-12-17 17:39:19.031250
1037,19.77,2021-12-17 17:39:19.046875
1038,28.55,2021-12-17 17:39:19.062500
1039,49.75,2021-12-17 17:39:19.078125
1040,76.82,2021-12-17 17:39:19.093750
1041,100.59,2021-12-17 17:39:19.109375
1042,112.48,2021-12-17 17:39:19.125000
1043,107.85,2021-12-17 17:39:19.140625
1044,87.89,2021-12-17 17:39:19.156250
1045,59.07,2021-12-17 17:39:19.171875
1046,29.82,2021-12-17 17:39:19.187500
1047,6.57,2021-12-17 17:39:19.203125
1048,-8.85,2021-12-17 17:39:19.218750
1049,-18.84,2021-12-17 17:39:19.234375
1050,-27.4,2021-12-17 17:39:19.250000
1051,-37.21,2021-12-17 17:39:19.265625
1052,-48.0,2021-12-17 17:39:19.281250
1053,-57.26,2021-12-17 17:39:19.296875
1054,-62.12,2021-12-17 17:39:19.312500
1055,-61.07,2021-12-17 17:39:19.328125
1056,-54.41,2021-12-17 17:39:19.343750
1057,-43.4,2021-12-17 17:39:19.359375
1058,-28.99,2021-12-17 17:39:19.375000
1059,-11.38,2021-12-17 17:39:19.390625
1060,9.36,2021-12-17 17:39:19.406250
1061,32.37,2021-12-17 17:39:19.421875
1062,55.22,2021-12-17 17:39:19.437500
1063,74.44,2021-12-17 17:39:19.453125
1064,86.7,2021-12-17 17:39:19.468750
1065,90.21,2021-12-17 17:39:19.484375
1066,85.4,2021-12-17 17:39:19.500000
1067,74.61,2021-12-17 17:39:19.515625
1068,61.04,2021-12-17 17:39:19.531250
1069,47.45,2021-12-17 17:39:19.546875
1070,35.4,2021-12-17 17:39:19.562500
1071,25.16,2021-12-17 17:39:19.578125
1072,16.4,2021-12-17 17:39:19.593750
1073,8.91,2021-12-17 17:39:19.609375
1074,3.0,2021-12-17 17:39:19.625000
1075,-0.82,2021-12-17 17:39:19.640625
1076,-2.46,2021-12-17 17:39:19.656250
1077,-2.53,2021-12-17 17:39:19.671875
1078,-2.06,2021-12-17 17:39:19.687500
1079,-1.93,2021-12-17 17:39:19.703125
1080,-2.46,2021-12-17 17:39:19.718750
1081,-3.39,2021-12-17 17:39:19.734375
1082,-4.23,2021-12-17 17:39:19.750000
1083,-4.74,2021-12-17 17:39:19.765625
1084,-4.99,2021-12-17 17:39:19.781250
1085,-5.07,2021-12-17 17:39:19.796875
1086,-4.6,2021-12-17 17:39:19.812500
1087,-2.49,2021-12-17 17:39:19.828125
1088,2.65,2021-12-17 17:39:19.843750
1089,11.72,2021-12-17 17:39:19.859375
1090,24.22,2021-12-17 17:39:19.875000
1091,37.97,2021-12-17 17:39:19.890625
1092,49.71,2021-12-17 17:39:19.906250
1093,56.33,2021-12-17 17:39:19.921875
1094,56.15,2021-12-17 17:39:19.937500
1095,49.51,2021-12-17 17:39:19.953125
1096,38.59,2021-12-17 17:39:19.968750
1097,26.39,2021-12-17 17:39:19.984375
1098,15.5,2021-12-17 17:39:20.000000
1099,6.86,2021-12-17 17:39:20.015625
1100,-0.55,2021-12-17 17:39:20.031250
1101,-9.4,2021-12-17 17:39:20.046875
1102,-22.95,2021-12-17 17:39:20.062500
1103,-43.23,2021-12-17 17:39:20.078125
1104,-69.54,2021-12-17 17:39:20.093750
1105,-97.62,2021-12-17 17:39:20.109375
1106,-120.59,2021-12-17 17:39:20.125000
1107,-131.54,2021-12-17 17:39:20.140625
1108,-126.63,2021-12-17 17:39:20.156250
1109,-107.2,2021-12-17 17:39:20.171875
1110,-79.62,2021-12-17 17:39:20.187500
1111,-52.62,2021-12-17 17:39:20.203125
1112,-33.52,2021-12-17 17:39:20.218750
1113,-25.12,2021-12-17 17:39:20.234375
1114,-25.2,2021-12-17 17:39:20.250000
1115,-28.45,2021-12-17 17:39:20.265625
1116,-29.71,2021-12-17 17:39:20.281250
1117,-26.64,2021-12-17 17:39:20.296875
1118,-20.34,2021-12-17 17:39:20.312500
1119,-13.97,2021-12-17 17:39:20.328125
1120,-10.7,2021-12-17 17:39:20.343750
1121,-12.13,2021-12-17 17:39:20.359375
1122,-18.21,2021-12-17 17:39:20.375000
1123,-27.9,2021-12-17 17:39:20.390625
1124,-40.09,2021-12-17 17:39:20.406250
1125,-53.79,2021-12-17 17:39:20.421875
1126,-67.89,2021-12-17 17:39:20.437500
1127,-80.92,2021-12-17 17:39:20.453125
1128,-91.0,2021-12-17 17:39:20.468750
1129,-96.56,2021-12-17 17:39:20.484375
1130,-97.23,2021-12-17 17:39:20.500000
1131,-94.64,2021-12-17 17:39:20.515625
1132,-92.36,2021-12-17 17:39:20.531250
1133,-94.72,2021-12-17 17:39:20.546875
1134,-104.83,2021-12-17 17:39:20.562500
1135,-122.79,2021-12-17 17:39:20.578125
1136,-145.08,2021-12-17 17:39:20.593750
1137,-165.26,2021-12-17 17:39:20.609375
1138,-176.3,2021-12-17 17:39:20.625000
1139,-173.08,2021-12-17 17:39:20.640625
1140,-154.35,2021-12-17 17:39:20.656250
1141,-122.8,2021-12-17 17:39:20.671875
1142,-83.83,2021-12-17 17:39:20.687500
1143,-43.41,2021-12-17 17:39:20.703125
1144,-6.02,2021-12-17 17:39:20.718750
1145,26.31,2021-12-17 17:39:20.734375
1146,53.97,2021-12-17 17:39:20.750000
1147,78.99,2021-12-17 17:39:20.765625
1148,104.3,2021-12-17 17:39:20.781250
1149,132.48,2021-12-17 17:39:20.796875
1150,164.67,2021-12-17 17:39:20.812500
1151,199.26,2021-12-17 17:39:20.828125
1152,231.52,2021-12-17 17:39:20.843750
1153,254.57,2021-12-17 17:39:20.859375
1154,261.74,2021-12-17 17:39:20.875000
1155,249.53,2021-12-17 17:39:20.890625
1156,219.58,2021-12-17 17:39:20.906250
1157,178.46,2021-12-17 17:39:20.921875
1158,135.38,2021-12-17 17:39:20.937500
1159,98.77,2021-12-17 17:39:20.953125
1160,73.4,2021-12-17 17:39:20.968750
1161,59.33,2021-12-17 17:39:20.984375
1162,53.0,2021-12-17 17:39:21.000000
1163,49.52,2021-12-17 17:39:21.015625
1164,44.92,2021-12-17 17:39:21.031250
1165,37.41,2021-12-17 17:39:21.046875
1166,27.31,2021-12-17 17:39:21.062500
1167,16.14,2021-12-17 17:39:21.078125
1168,5.5,2021-12-17 17:39:21.093750
1169,-3.7,2021-12-17 17:39:21.109375
1170,-11.56,2021-12-17 17:39:21.125000
1171,-18.9,2021-12-17 17:39:21.140625
1172,-26.76,2021-12-17 17:39:21.156250
1173,-35.64,2021-12-17 17:39:21.171875
1174,-45.02,2021-12-17 17:39:21.187500
1175,-53.6,2021-12-17 17:39:21.203125
1176,-59.77,2021-12-17 17:39:21.218750
1177,-62.38,2021-12-17 17:39:21.234375
1178,-61.17,2021-12-17 17:39:21.250000
1179,-56.73,2021-12-17 17:39:21.265625
1180,-49.98,2021-12-17 17:39:21.281250
1181,-41.73,2021-12-17 17:39:21.296875
1182,-32.54,2021-12-17 17:39:21.312500
1183,-22.78,2021-12-17 17:39:21.328125
1184,-13.03,2021-12-17 17:39:21.343750
1185,-4.2,2021-12-17 17:39:21.359375
1186,2.59,2021-12-17 17:39:21.375000
1187,6.48,2021-12-17 17:39:21.390625
1188,7.29,2021-12-17 17:39:21.406250
1189,5.75,2021-12-17 17:39:21.421875
1190,3.16,2021-12-17 17:39:21.437500
1191,0.87,2021-12-17 17:39:21.453125
1192,-0.11,2021-12-17 17:39:21.468750
1193,0.59,2021-12-17 17:39:21.484375
1194,2.8,2021-12-17 17:39:21.500000
1195,6.03,2021-12-17 17:39:21.515625
1196,9.71,2021-12-17 17:39:21.531250
1197,13.22,2021-12-17 17:39:21.546875
1198,16.01,2021-12-17 17:39:21.562500
1199,17.71,2021-12-17 17:39:21.578125
1200,18.1,2021-12-17 17:39:21.593750
1201,17.22,2021-12-17 17:39:21.609375
1202,15.22,2021-12-17 17:39:21.625000
1203,12.35,2021-12-17 17:39:21.640625
1204,8.9,2021-12-17 17:39:21.656250
1205,5.19,2021-12-17 17:39:21.671875
1206,1.58,2021-12-17 17:39:21.687500
1207,-1.47,2021-12-17 17:39:21.703125
1208,-3.41,2021-12-17 17:39:21.718750
1209,-3.81,2021-12-17 17:39:21.734375
1210,-2.4,2021-12-17 17:39:21.750000
1211,0.78,2021-12-17 17:39:21.765625
1212,5.41,2021-12-17 17:39:21.781250
1213,10.87,2021-12-17 17:39:21.796875
1214,16.42,2021-12-17 17:39:21.812500
1215,21.2,2021-12-17 17:39:21.828125
1216,24.42,2021-12-17 17:39:21.843750
1217,25.67,2021-12-17 17:39:21.859375
1218,25.11,2021-12-17 17:39:21.875000
1219,23.59,2021-12-17 17:39:21.890625
1220,22.32,2021-12-17 17:39:21.906250
1221,22.33,2021-12-17 17:39:21.921875
1222,23.84,2021-12-17 17:39:21.937500
1223,26.13,2021-12-17 17:39:21.953125
1224,27.83,2021-12-17 17:39:21.968750
1225,27.7,2021-12-17 17:39:21.984375
1226,25.29,2021-12-17 17:39:22.000000
1227,21.25,2021-12-17 17:39:22.015625
1228,17.2,2021-12-17 17:39:22.031250
1229,14.95,2021-12-17 17:39:22.046875
1230,15.68,2021-12-17 17:39:22.062500
1231,19.43,2021-12-17 17:39:22.078125
1232,25.03,2021-12-17 17:39:22.093750
1233,30.65,2021-12-17 17:39:22.109375
1234,34.5,2021-12-17 17:39:22.125000
1235,35.56,2021-12-17 17:39:22.140625
1236,33.83,2021-12-17 17:39:22.156250
1237,30.26,2021-12-17 17:39:22.171875
1238,26.18,2021-12-17 17:39:22.187500
1239,22.82,2021-12-17 17:39:22.203125
1240,20.83,2021-12-17 17:39:22.218750
1241,20.17,2021-12-17 17:39:22.234375
1242,20.31,2021-12-17 17:39:22.250000
1243,20.56,2021-12-17 17:39:22.265625
1244,20.33,2021-12-17 17:39:22.281250
1245,19.25,2021-12-17 17:39:22.296875
1246,17.21,2021-12-17 17:39:22.312500
1247,14.2,2021-12-17 17:39:22.328125
1248,10.37,2021-12-17 17:39:22.343750
1249,5.99,2021-12-17 17:39:22.359375
1250,1.41,2021-12-17 17:39:22.375000
1251,-3.18,2021-12-17 17:39:22.390625
1252,-8.0,2021-12-17 17:39:22.406250
1253,-13.64,2021-12-17 17:39:22.421875
1254,-20.85,2021-12-17 17:39:22.437500
1255,-29.92,2021-12-17 17:39:22.453125
1256,-40.25,2021-12-17 17:39:22.468750
1257,-50.33,2021-12-17 17:39:22.484375
1258,-58.22,2021-12-17 17:39:22.500000
1259,-62.43,2021-12-17 17:39:22.515625
1260,-62.46,2021-12-17 17:39:22.531250
1261,-58.99,2021-12-17 17:39:22.546875
1262,-53.47,2021-12-17 17:39:22.562500
1263,-47.72,2021-12-17 17:39:22.578125
1264,-43.55,2021-12-17 17:39:22.593750
1265,-42.43,2021-12-17 17:39:22.609375
1266,-45.0,2021-12-17 17:39:22.625000
1267,-50.59,2021-12-17 17:39:22.640625
1268,-56.93,2021-12-17 17:39:22.656250
1269,-60.67,2021-12-17 17:39:22.671875
1270,-58.67,2021-12-17 17:39:22.687500
1271,-49.53,2021-12-17 17:39:22.703125
1272,-34.5,2021-12-17 17:39:22.718750
1273,-17.08,2021-12-17 17:39:22.734375
1274,-1.49,2021-12-17 17:39:22.750000
1275,9.15,2021-12-17 17:39:22.765625
1276,13.8,2021-12-17 17:39:22.781250
1277,13.25,2021-12-17 17:39:22.796875
1278,9.11,2021-12-17 17:39:22.812500
1279,2.76,2021-12-17 17:39:22.828125
1280,-4.98,2021-12-17 17:39:22.843750
1281,-13.35,2021-12-17 17:39:22.859375
1282,-21.23,2021-12-17 17:39:22.875000
1283,-27.03,2021-12-17 17:39:22.890625
1284,-29.41,2021-12-17 17:39:22.906250
1285,-27.99,2021-12-17 17:39:22.921875
1286,-23.77,2021-12-17 17:39:22.937500
1287,-18.54,2021-12-17 17:39:22.953125
1288,-13.99,2021-12-17 17:39:22.968750
1289,-10.66,2021-12-17 17:39:22.984375
1290,-7.53,2021-12-17 17:39:23.000000
1291,-2.47,2021-12-17 17:39:23.015625
1292,6.83,2021-12-17 17:39:23.031250
1293,21.64,2021-12-17 17:39:23.046875
1294,41.39,2021-12-17 17:39:23.062500
1295,63.54,2021-12-17 17:39:23.078125
1296,84.36,2021-12-17 17:39:23.093750
1297,100.17,2021-12-17 17:39:23.109375
1298,108.63,2021-12-17 17:39:23.125000
1299,109.41,2021-12-17 17:39:23.140625
1300,103.99,2021-12-17 17:39:23.156250
1301,94.66,2021-12-17 17:39:23.171875
1302,83.54,2021-12-17 17:39:23.187500
1303,71.88,2021-12-17 17:39:23.203125
1304,60.05,2021-12-17 17:39:23.218750
1305,47.96,2021-12-17 17:39:23.234375
1306,35.67,2021-12-17 17:39:23.250000
1307,23.8,2021-12-17 17:39:23.265625
1308,13.42,2021-12-17 17:39:23.281250
1309,5.62,2021-12-17 17:39:23.296875
1310,0.78,2021-12-17 17:39:23.312500
1311,-1.87,2021-12-17 17:39:23.328125
1312,-4.31,2021-12-17 17:39:23.343750
1313,-9.27,2021-12-17 17:39:23.359375
1314,-19.29,2021-12-17 17:39:23.375000
1315,-35.77,2021-12-17 17:39:23.390625
1316,-58.27,2021-12-17 17:39:23.406250
1317,-84.38,2021-12-17 17:39:23.421875
1318,-110.38,2021-12-17 17:39:23.437500
1319,-132.02,2021-12-17 17:39:23.453125
1320,-145.35,2021-12-17 17:39:23.468750
1321,-147.53,2021-12-17 17:39:23.484375
1322,-137.52,2021-12-17 17:39:23.500000
1323,-116.64,2021-12-17 17:39:23.515625
1324,-88.62,2021-12-17 17:39:23.531250
1325,-58.8,2021-12-17 17:39:23.546875
1326,-32.4,2021-12-17 17:39:23.562500
1327,-12.94,2021-12-17 17:39:23.578125
1328,-1.32,2021-12-17 17:39:23.593750
1329,3.6,2021-12-17 17:39:23.609375
1330,3.85,2021-12-17 17:39:23.625000
1331,1.13,2021-12-17 17:39:23.640625
1332,-3.37,2021-12-17 17:39:23.656250
1333,-8.48,2021-12-17 17:39:23.671875
1334,-12.49,2021-12-17 17:39:23.687500
1335,-13.49,2021-12-17 17:39:23.703125
1336,-10.36,2021-12-17 17:39:23.718750
1337,-3.88,2021-12-17 17:39:23.734375
1338,3.25,2021-12-17 17:39:23.750000
1339,7.66,2021-12-17 17:39:23.765625
1340,7.03,2021-12-17 17:39:23.781250
1341,1.33,2021-12-17 17:39:23.796875
1342,-7.47,2021-12-17 17:39:23.812500
1343,-16.63,2021-12-17 17:39:23.828125
1344,-23.9,2021-12-17 17:39:23.843750
1345,-28.09,2021-12-17 17:39:23.859375
1346,-28.84,2021-12-17 17:39:23.875000
1347,-26.1,2021-12-17 17:39:23.890625
1348,-20.0,2021-12-17 17:39:23.906250
1349,-11.23,2021-12-17 17:39:23.921875
1350,-1.22,2021-12-17 17:39:23.937500
1351,8.12,2021-12-17 17:39:23.953125
1352,15.2,2021-12-17 17:39:23.968750
1353,19.41,2021-12-17 17:39:23.984375
1354,21.3,2021-12-17 17:39:24.000000
1355,22.07,2021-12-17 17:39:24.015625
1356,22.68,2021-12-17 17:39:24.031250
1357,23.33,2021-12-17 17:39:24.046875
1358,23.39,2021-12-17 17:39:24.062500
1359,22.02,2021-12-17 17:39:24.078125
1360,18.8,2021-12-17 17:39:24.093750
1361,14.02,2021-12-17 17:39:24.109375
1362,8.59,2021-12-17 17:39:24.125000
1363,3.57,2021-12-17 17:39:24.140625
1364,-0.19,2021-12-17 17:39:24.156250
1365,-2.29,2021-12-17 17:39:24.171875
1366,-2.67,2021-12-17 17:39:24.187500
1367,-1.4,2021-12-17 17:39:24.203125
1368,1.46,2021-12-17 17:39:24.218750
1369,5.77,2021-12-17 17:39:24.234375
1370,11.14,2021-12-17 17:39:24.250000
1371,16.86,2021-12-17 17:39:24.265625
1372,22.08,2021-12-17 17:39:24.281250
1373,26.1,2021-12-17 17:39:24.296875
1374,28.66,2021-12-17 17:39:24.312500
1375,30.08,2021-12-17 17:39:24.328125
1376,30.92,2021-12-17 17:39:24.343750
1377,31.75,2021-12-17 17:39:24.359375
1378,32.7,2021-12-17 17:39:24.375000
1379,33.56,2021-12-17 17:39:24.390625
1380,33.93,2021-12-17 17:39:24.406250
1381,33.55,2021-12-17 17:39:24.421875
1382,32.53,2021-12-17 17:39:24.437500
1383,31.29,2021-12-17 17:39:24.453125
1384,30.41,2021-12-17 17:39:24.468750
1385,30.25,2021-12-17 17:39:24.484375
1386,30.84,2021-12-17 17:39:24.500000
1387,31.77,2021-12-17 17:39:24.515625
1388,32.5,2021-12-17 17:39:24.531250
1389,32.5,2021-12-17 17:39:24.546875
1390,31.6,2021-12-17 17:39:24.562500
1391,29.93,2021-12-17 17:39:24.578125
1392,27.84,2021-12-17 17:39:24.593750
1393,25.63,2021-12-17 17:39:24.609375
1394,23.43,2021-12-17 17:39:24.625000
1395,21.06,2021-12-17 17:39:24.640625
1396,18.11,2021-12-17 17:39:24.656250
1397,14.19,2021-12-17 17:39:24.671875
1398,8.98,2021-12-17 17:39:24.687500
1399,2.39,2021-12-17 17:39:24.703125
1400,-5.51,2021-12-17 17:39:24.718750
1401,-14.56,2021-12-17 17:39:24.734375
1402,-24.4,2021-12-17 17:39:24.750000
1403,-34.4,2021-12-17 17:39:24.765625
1404,-43.65,2021-12-17 17:39:24.781250
1405,-50.98,2021-12-17 17:39:24.796875
1406,-55.37,2021-12-17 17:39:24.812500
1407,-56.3,2021-12-17 17:39:24.828125
1408,-54.05,2021-12-17 17:39:24.843750
1409,-49.7,2021-12-17 17:39:24.859375
1410,-44.82,2021-12-17 17:39:24.875000
1411,-40.97,2021-12-17 17:39:24.890625
1412,-39.28,2021-12-17 17:39:24.906250
1413,-40.27,2021-12-17 17:39:24.921875
1414,-43.92,2021-12-17 17:39:24.937500
1415,-49.81,2021-12-17 17:39:24.953125
1416,-57.24,2021-12-17 17:39:24.968750
1417,-65.2,2021-12-17 17:39:24.984375
1418,-72.4,2021-12-17 17:39:25.000000
1419,-77.47,2021-12-17 17:39:25.015625
1420,-79.26,2021-12-17 17:39:25.031250
1421,-77.35,2021-12-17 17:39:25.046875
1422,-72.32,2021-12-17 17:39:25.062500
1423,-65.55,2021-12-17 17:39:25.078125
1424,-58.69,2021-12-17 17:39:25.093750
1425,-52.87,2021-12-17 17:39:25.109375
1426,-48.17,2021-12-17 17:39:25.125000
1427,-43.89,2021-12-17 17:39:25.140625
1428,-39.12,2021-12-17 17:39:25.156250
1429,-33.61,2021-12-17 17:39:25.171875
1430,-28.07,2021-12-17 17:39:25.187500
1431,-23.74,2021-12-17 17:39:25.203125
1432,-21.51,2021-12-17 17:39:25.218750
1433,-21.19,2021-12-17 17:39:25.234375
1434,-21.32,2021-12-17 17:39:25.250000
1435,-19.79,2021-12-17 17:39:25.265625
1436,-14.8,2021-12-17 17:39:25.281250
1437,-5.62,2021-12-17 17:39:25.296875
1438,7.05,2021-12-17 17:39:25.312500
1439,21.59,2021-12-17 17:39:25.328125
1440,36.18,2021-12-17 17:39:25.343750
1441,49.35,2021-12-17 17:39:25.359375
1442,60.31,2021-12-17 17:39:25.375000
1443,68.87,2021-12-17 17:39:25.390625
1444,75.17,2021-12-17 17:39:25.406250
1445,79.47,2021-12-17 17:39:25.421875
1446,82.06,2021-12-17 17:39:25.437500
1447,83.1,2021-12-17 17:39:25.453125
1448,82.66,2021-12-17 17:39:25.468750
1449,80.69,2021-12-17 17:39:25.484375
1450,77.01,2021-12-17 17:39:25.500000
1451,71.42,2021-12-17 17:39:25.515625
1452,63.93,2021-12-17 17:39:25.531250
1453,54.87,2021-12-17 17:39:25.546875
1454,45.06,2021-12-17 17:39:25.562500
1455,35.65,2021-12-17 17:39:25.578125
1456,27.79,2021-12-17 17:39:25.593750
1457,22.24,2021-12-17 17:39:25.609375
1458,19.13,2021-12-17 17:39:25.625000
1459,17.94,2021-12-17 17:39:25.640625
1460,17.84,2021-12-17 17:39:25.656250
1461,18.17,2021-12-17 17:39:25.671875
1462,18.61,2021-12-17 17:39:25.687500
1463,19.09,2021-12-17 17:39:25.703125
1464,19.58,2021-12-17 17:39:25.718750
1465,19.76,2021-12-17 17:39:25.734375
1466,19.05,2021-12-17 17:39:25.750000
1467,16.9,2021-12-17 17:39:25.765625
1468,13.11,2021-12-17 17:39:25.781250
1469,8.06,2021-12-17 17:39:25.796875
1470,2.56,2021-12-17 17:39:25.812500
1471,-2.45,2021-12-17 17:39:25.828125
1472,-6.26,2021-12-17 17:39:25.843750
1473,-8.64,2021-12-17 17:39:25.859375
1474,-9.85,2021-12-17 17:39:25.875000
1475,-10.54,2021-12-17 17:39:25.890625
1476,-11.43,2021-12-17 17:39:25.906250
1477,-13.14,2021-12-17 17:39:25.921875
1478,-15.91,2021-12-17 17:39:25.937500
1479,-19.51,2021-12-17 17:39:25.953125
1480,-23.33,2021-12-17 17:39:25.968750
1481,-26.61,2021-12-17 17:39:25.984375
1482,-28.79,2021-12-17 17:39:26.000000
1483,-29.76,2021-12-17 17:39:26.015625
1484,-29.82,2021-12-17 17:39:26.031250
1485,-29.4,2021-12-17 17:39:26.046875
1486,-28.73,2021-12-17 17:39:26.062500
1487,-27.67,2021-12-17 17:39:26.078125
1488,-25.84,2021-12-17 17:39:26.093750
1489,-22.94,2021-12-17 17:39:26.109375
1490,-19.05,2021-12-17 17:39:26.125000
1491,-14.62,2021-12-17 17:39:26.140625
1492,-10.29,2021-12-17 17:39:26.156250
1493,-6.52,2021-12-17 17:39:26.171875
1494,-3.47,2021-12-17 17:39:26.187500
1495,-1.26,2021-12-17 17:39:26.203125
1496,-0.23,2021-12-17 17:39:26.218750
1497,-0.88,2021-12-17 17:39:26.234375
1498,-3.46,2021-12-17 17:39:26.250000
1499,-7.47,2021-12-17 17:39:26.265625
1500,-11.66,2021-12-17 17:39:26.281250
1501,-14.56,2021-12-17 17:39:26.296875
1502,-15.2,2021-12-17 17:39:26.312500
1503,-13.56,2021-12-17 17:39:26.328125
1504,-10.3,2021-12-17 17:39:26.343750
1505,-6.08,2021-12-17 17:39:26.359375
1506,-0.83,2021-12-17 17:39:26.375000
1507,6.21,2021-12-17 17:39:26.390625
1508,15.8,2021-12-17 17:39:26.406250
1509,27.88,2021-12-17 17:39:26.421875
1510,41.13,2021-12-17 17:39:26.437500
1511,53.59,2021-12-17 17:39:26.453125
1512,63.79,2021-12-17 17:39:26.468750
1513,71.47,2021-12-17 17:39:26.484375
1514,77.56,2021-12-17 17:39:26.500000
1515,83.14,2021-12-17 17:39:26.515625
1516,88.39,2021-12-17 17:39:26.531250
1517,92.14,2021-12-17 17:39:26.546875
1518,92.83,2021-12-17 17:39:26.562500
1519,89.59,2021-12-17 17:39:26.578125
1520,83.1,2021-12-17 17:39:26.593750
1521,75.35,2021-12-17 17:39:26.609375
1522,68.57,2021-12-17 17:39:26.625000
1523,63.93,2021-12-17 17:39:26.640625
1524,61.1,2021-12-17 17:39:26.656250
1525,58.97,2021-12-17 17:39:26.671875
1526,56.84,2021-12-17 17:39:26.687500
1527,55.22,2021-12-17 17:39:26.703125
1528,55.24,2021-12-17 17:39:26.718750
1529,57.33,2021-12-17 17:39:26.734375
1530,60.15,2021-12-17 17:39:26.750000
1531,60.69,2021-12-17 17:39:26.765625
1532,55.84,2021-12-17 17:39:26.781250
1533,44.39,2021-12-17 17:39:26.796875
1534,27.98,2021-12-17 17:39:26.812500
1535,10.52,2021-12-17 17:39:26.828125
1536,-3.81,2021-12-17 17:39:26.843750
1537,-12.58,2021-12-17 17:39:26.859375
1538,-15.98,2021-12-17 17:39:26.875000
1539,-16.06,2021-12-17 17:39:26.890625
1540,-15.16,2021-12-17 17:39:26.906250
1541,-14.57,2021-12-17 17:39:26.921875
1542,-14.2,2021-12-17 17:39:26.937500
1543,-13.32,2021-12-17 17:39:26.953125
1544,-11.5,2021-12-17 17:39:26.968750
1545,-8.99,2021-12-17 17:39:26.984375
1546,-6.62,2021-12-17 17:39:27.000000
1547,-5.1,2021-12-17 17:39:27.015625
1548,-4.52,2021-12-17 17:39:27.031250
1549,-4.48,2021-12-17 17:39:27.046875
1550,-4.2,2021-12-17 17:39:27.062500
1551,-3.02,2021-12-17 17:39:27.078125
1552,-0.83,2021-12-17 17:39:27.093750
1553,1.67,2021-12-17 17:39:27.109375
1554,3.12,2021-12-17 17:39:27.125000
1555,1.92,2021-12-17 17:39:27.140625
1556,-2.99,2021-12-17 17:39:27.156250
1557,-11.21,2021-12-17 17:39:27.171875
1558,-20.81,2021-12-17 17:39:27.187500
1559,-28.95,2021-12-17 17:39:27.203125
1560,-33.29,2021-12-17 17:39:27.218750
1561,-33.36,2021-12-17 17:39:27.234375
1562,-30.83,2021-12-17 17:39:27.250000
1563,-28.62,2021-12-17 17:39:27.265625
1564,-29.12,2021-12-17 17:39:27.281250
1565,-32.65,2021-12-17 17:39:27.296875
1566,-37.05,2021-12-17 17:39:27.312500
1567,-38.74,2021-12-17 17:39:27.328125
1568,-34.44,2021-12-17 17:39:27.343750
1569,-22.69,2021-12-17 17:39:27.359375
1570,-4.37,2021-12-17 17:39:27.375000
1571,18.04,2021-12-17 17:39:27.390625
1572,41.69,2021-12-17 17:39:27.406250
1573,64.3,2021-12-17 17:39:27.421875
1574,84.63,2021-12-17 17:39:27.437500
1575,101.98,2021-12-17 17:39:27.453125
1576,115.74,2021-12-17 17:39:27.468750
1577,125.12,2021-12-17 17:39:27.484375
1578,129.45,2021-12-17 17:39:27.500000
1579,128.74,2021-12-17 17:39:27.515625
1580,124.02,2021-12-17 17:39:27.531250
1581,116.97,2021-12-17 17:39:27.546875
1582,109.11,2021-12-17 17:39:27.562500
1583,100.96,2021-12-17 17:39:27.578125
1584,91.74,2021-12-17 17:39:27.593750
1585,79.98,2021-12-17 17:39:27.609375
1586,64.75,2021-12-17 17:39:27.625000
1587,46.68,2021-12-17 17:39:27.640625
1588,28.11,2021-12-17 17:39:27.656250
1589,12.16,2021-12-17 17:39:27.671875
1590,1.14,2021-12-17 17:39:27.687500
1591,-4.49,2021-12-17 17:39:27.703125
1592,-6.17,2021-12-17 17:39:27.718750
1593,-6.48,2021-12-17 17:39:27.734375
1594,-7.79,2021-12-17 17:39:27.750000
1595,-11.57,2021-12-17 17:39:27.765625
1596,-18.41,2021-12-17 17:39:27.781250
1597,-28.28,2021-12-17 17:39:27.796875
1598,-40.78,2021-12-17 17:39:27.812500
1599,-54.99,2021-12-17 17:39:27.828125
1600,-69.21,2021-12-17 17:39:27.843750
1601,-81.1,2021-12-17 17:39:27.859375
1602,-88.47,2021-12-17 17:39:27.875000
1603,-90.22,2021-12-17 17:39:27.890625
1604,-86.9,2021-12-17 17:39:27.906250
1605,-80.53,2021-12-17 17:39:27.921875
1606,-73.59,2021-12-17 17:39:27.937500
1607,-68.04,2021-12-17 17:39:27.953125
1608,-64.8,2021-12-17 17:39:27.968750
1609,-63.93,2021-12-17 17:39:27.984375
1610,-65.14,2021-12-17 17:39:28.000000
1611,-68.21,2021-12-17 17:39:28.015625
1612,-72.82,2021-12-17 17:39:28.031250
1613,-78.39,2021-12-17 17:39:28.046875
1614,-83.99,2021-12-17 17:39:28.062500
1615,-88.59,2021-12-17 17:39:28.078125
1616,-91.55,2021-12-17 17:39:28.093750
1617,-92.8,2021-12-17 17:39:28.109375
1618,-92.66,2021-12-17 17:39:28.125000
1619,-91.34,2021-12-17 17:39:28.140625
1620,-88.53,2021-12-17 17:39:28.156250
1621,-83.57,2021-12-17 17:39:28.171875
1622,-76.05,2021-12-17 17:39:28.187500
1623,-66.56,2021-12-17 17:39:28.203125
1624,-56.85,2021-12-17 17:39:28.218750
1625,-49.29,2021-12-17 17:39:28.234375
1626,-45.9,2021-12-17 17:39:28.250000
1627,-47.38,2021-12-17 17:39:28.265625
1628,-52.76,2021-12-17 17:39:28.281250
1629,-59.88,2021-12-17 17:39:28.296875
1630,-66.29,2021-12-17 17:39:28.312500
1631,-70.17,2021-12-17 17:39:28.328125
1632,-70.84,2021-12-17 17:39:28.343750
1633,-68.53,2021-12-17 17:39:28.359375
1634,-63.95,2021-12-17 17:39:28.375000
1635,-57.86,2021-12-17 17:39:28.390625
1636,-50.82,2021-12-17 17:39:28.406250
1637,-43.37,2021-12-17 17:39:28.421875
1638,-36.22,2021-12-17 17:39:28.437500
1639,-30.32,2021-12-17 17:39:28.453125
1640,-26.56,2021-12-17 17:39:28.468750
1641,-25.29,2021-12-17 17:39:28.484375
1642,-25.91,2021-12-17 17:39:28.500000
1643,-27.03,2021-12-17 17:39:28.515625
1644,-26.95,2021-12-17 17:39:28.531250
1645,-24.4,2021-12-17 17:39:28.546875
1646,-19.08,2021-12-17 17:39:28.562500
1647,-11.68,2021-12-17 17:39:28.578125
1648,-3.52,2021-12-17 17:39:28.593750
1649,4.1,2021-12-17 17:39:28.609375
1650,10.31,2021-12-17 17:39:28.625000
1651,14.77,2021-12-17 17:39:28.640625
1652,17.54,2021-12-17 17:39:28.656250
1653,18.86,2021-12-17 17:39:28.671875
1654,19.14,2021-12-17 17:39:28.687500
1655,18.9,2021-12-17 17:39:28.703125
1656,18.77,2021-12-17 17:39:28.718750
1657,19.33,2021-12-17 17:39:28.734375
1658,20.94,2021-12-17 17:39:28.750000
1659,23.52,2021-12-17 17:39:28.765625
1660,26.49,2021-12-17 17:39:28.781250
1661,29.01,2021-12-17 17:39:28.796875
1662,30.26,2021-12-17 17:39:28.812500
1663,29.86,2021-12-17 17:39:28.828125
1664,27.91,2021-12-17 17:39:28.843750
1665,25.04,2021-12-17 17:39:28.859375
1666,22.07,2021-12-17 17:39:28.875000
1667,19.69,2021-12-17 17:39:28.890625
1668,18.17,2021-12-17 17:39:28.906250
1669,17.31,2021-12-17 17:39:28.921875
1670,16.62,2021-12-17 17:39:28.937500
1671,15.63,2021-12-17 17:39:28.953125
1672,14.1,2021-12-17 17:39:28.968750
1673,12.15,2021-12-17 17:39:28.984375
1674,10.07,2021-12-17 17:39:29.000000
1675,8.21,2021-12-17 17:39:29.015625
1676,6.73,2021-12-17 17:39:29.031250
1677,5.62,2021-12-17 17:39:29.046875
1678,4.83,2021-12-17 17:39:29.062500
1679,4.4,2021-12-17 17:39:29.078125
1680,4.44,2021-12-17 17:39:29.093750
1681,5.03,2021-12-17 17:39:29.109375
1682,6.03,2021-12-17 17:39:29.125000
1683,7.08,2021-12-17 17:39:29.140625
1684,7.75,2021-12-17 17:39:29.156250
1685,7.78,2021-12-17 17:39:29.171875
1686,7.18,2021-12-17 17:39:29.187500
1687,6.25,2021-12-17 17:39:29.203125
1688,5.43,2021-12-17 17:39:29.218750
1689,5.03,2021-12-17 17:39:29.234375
1690,5.19,2021-12-17 17:39:29.250000
1691,5.85,2021-12-17 17:39:29.265625
1692,6.72,2021-12-17 17:39:29.281250
1693,7.42,2021-12-17 17:39:29.296875
1694,7.53,2021-12-17 17:39:29.312500
1695,6.7,2021-12-17 17:39:29.328125
1696,4.7,2021-12-17 17:39:29.343750
1697,1.65,2021-12-17 17:39:29.359375
1698,-2.01,2021-12-17 17:39:29.375000
1699,-5.51,2021-12-17 17:39:29.390625
1700,-7.93,2021-12-17 17:39:29.406250
1701,-8.53,2021-12-17 17:39:29.421875
1702,-6.91,2021-12-17 17:39:29.437500
1703,-3.21,2021-12-17 17:39:29.453125
1704,2.0,2021-12-17 17:39:29.468750
1705,7.92,2021-12-17 17:39:29.484375
1706,13.82,2021-12-17 17:39:29.500000
1707,19.25,2021-12-17 17:39:29.515625
1708,24.14,2021-12-17 17:39:29.531250
1709,28.62,2021-12-17 17:39:29.546875
1710,32.87,2021-12-17 17:39:29.562500
1711,36.99,2021-12-17 17:39:29.578125
1712,40.88,2021-12-17 17:39:29.593750
1713,44.33,2021-12-17 17:39:29.609375
1714,47.07,2021-12-17 17:39:29.625000
1715,48.94,2021-12-17 17:39:29.640625
1716,49.86,2021-12-17 17:39:29.656250
1717,49.92,2021-12-17 17:39:29.671875
1718,49.31,2021-12-17 17:39:29.687500
1719,48.28,2021-12-17 17:39:29.703125
1720,47.17,2021-12-17 17:39:29.718750
1721,46.21,2021-12-17 17:39:29.734375
1722,45.45,2021-12-17 17:39:29.750000
1723,44.83,2021-12-17 17:39:29.765625
1724,44.17,2021-12-17 17:39:29.781250
1725,43.27,2021-12-17 17:39:29.796875
1726,42.09,2021-12-17 17:39:29.812500
1727,40.64,2021-12-17 17:39:29.828125
1728,38.94,2021-12-17 17:39:29.843750
1729,37.02,2021-12-17 17:39:29.859375
1730,34.77,2021-12-17 17:39:29.875000
1731,32.05,2021-12-17 17:39:29.890625
1732,28.72,2021-12-17 17:39:29.906250
1733,24.62,2021-12-17 17:39:29.921875
1734,19.61,2021-12-17 17:39:29.937500
1735,13.51,2021-12-17 17:39:29.953125
1736,6.19,2021-12-17 17:39:29.968750
1737,-2.31,2021-12-17 17:39:29.984375
1738,-11.68,2021-12-17 17:39:30.000000
1739,-21.28,2021-12-17 17:39:30.015625
1740,-30.33,2021-12-17 17:39:30.031250
1741,-38.13,2021-12-17 17:39:30.046875
1742,-44.19,2021-12-17 17:39:30.062500
1743,-48.32,2021-12-17 17:39:30.078125
1744,-50.47,2021-12-17 17:39:30.093750
1745,-50.68,2021-12-17 17:39:30.109375
1746,-49.09,2021-12-17 17:39:30.125000
1747,-46.11,2021-12-17 17:39:30.140625
1748,-42.44,2021-12-17 17:39:30.156250
1749,-39.01,2021-12-17 17:39:30.171875
1750,-36.67,2021-12-17 17:39:30.187500
1751,-35.81,2021-12-17 17:39:30.203125
1752,-36.27,2021-12-17 17:39:30.218750
1753,-37.39,2021-12-17 17:39:30.234375
1754,-38.4,2021-12-17 17:39:30.250000
1755,-38.89,2021-12-17 17:39:30.265625
1756,-38.97,2021-12-17 17:39:30.281250
1757,-39.2,2021-12-17 17:39:30.296875
1758,-40.18,2021-12-17 17:39:30.312500
1759,-42.1,2021-12-17 17:39:30.328125
1760,-44.45,2021-12-17 17:39:30.343750
1761,-46.15,2021-12-17 17:39:30.359375
1762,-45.94,2021-12-17 17:39:30.375000
1763,-42.96,2021-12-17 17:39:30.390625
1764,-37.17,2021-12-17 17:39:30.406250
1765,-29.36,2021-12-17 17:39:30.421875
1766,-20.83,2021-12-17 17:39:30.437500
1767,-12.74,2021-12-17 17:39:30.453125
1768,-5.69,2021-12-17 17:39:30.468750
1769,0.46,2021-12-17 17:39:30.484375
1770,6.28,2021-12-17 17:39:30.500000
1771,12.23,2021-12-17 17:39:30.515625
1772,18.21,2021-12-17 17:39:30.531250
1773,23.55,2021-12-17 17:39:30.546875
1774,27.34,2021-12-17 17:39:30.562500
1775,29.0,2021-12-17 17:39:30.578125
1776,28.67,2021-12-17 17:39:30.593750
1777,27.15,2021-12-17 17:39:30.609375
1778,25.57,2021-12-17 17:39:30.625000
1779,24.85,2021-12-17 17:39:30.640625
1780,25.43,2021-12-17 17:39:30.656250
1781,27.26,2021-12-17 17:39:30.671875
1782,30.11,2021-12-17 17:39:30.687500
1783,33.68,2021-12-17 17:39:30.703125
1784,37.68,2021-12-17 17:39:30.718750
1785,41.58,2021-12-17 17:39:30.734375
1786,44.5,2021-12-17 17:39:30.750000
1787,45.22,2021-12-17 17:39:30.765625
1788,42.64,2021-12-17 17:39:30.781250
1789,36.36,2021-12-17 17:39:30.796875
1790,27.03,2021-12-17 17:39:30.812500
1791,16.3,2021-12-17 17:39:30.828125
1792,6.19,2021-12-17 17:39:30.843750
1793,-1.84,2021-12-17 17:39:30.859375
1794,-7.48,2021-12-17 17:39:30.875000
1795,-11.59,2021-12-17 17:39:30.890625
1796,-15.58,2021-12-17 17:39:30.906250
1797,-20.48,2021-12-17 17:39:30.921875
1798,-26.41,2021-12-17 17:39:30.937500
1799,-32.61,2021-12-17 17:39:30.953125
1800,-37.99,2021-12-17 17:39:30.968750
1801,-41.84,2021-12-17 17:39:30.984375
1802,-44.25,2021-12-17 17:39:31.000000
1803,-45.94,2021-12-17 17:39:31.015625
1804,-47.83,2021-12-17 17:39:31.031250
1805,-50.41,2021-12-17 17:39:31.046875
1806,-53.32,2021-12-17 17:39:31.062500
1807,-55.52,2021-12-17 17:39:31.078125
1808,-55.71,2021-12-17 17:39:31.093750
1809,-53.05,2021-12-17 17:39:31.109375
1810,-47.62,2021-12-17 17:39:31.125000
1811,-40.44,2021-12-17 17:39:31.140625
1812,-33.08,2021-12-17 17:39:31.156250
1813,-26.94,2021-12-17 17:39:31.171875
1814,-22.62,2021-12-17 17:39:31.187500
1815,-19.71,2021-12-17 17:39:31.203125
1816,-17.1,2021-12-17 17:39:31.218750
1817,-13.65,2021-12-17 17:39:31.234375
1818,-8.9,2021-12-17 17:39:31.250000
1819,-3.39,2021-12-17 17:39:31.265625
1820,1.71,2021-12-17 17:39:31.281250
1821,5.29,2021-12-17 17:39:31.296875
1822,6.99,2021-12-17 17:39:31.312500
1823,7.37,2021-12-17 17:39:31.328125
1824,7.55,2021-12-17 17:39:31.343750
1825,8.61,2021-12-17 17:39:31.359375
1826,10.92,2021-12-17 17:39:31.375000
1827,14.08,2021-12-17 17:39:31.390625
1828,17.12,2021-12-17 17:39:31.406250
1829,19.11,2021-12-17 17:39:31.421875
1830,19.57,2021-12-17 17:39:31.437500
1831,18.66,2021-12-17 17:39:31.453125
1832,17.02,2021-12-17 17:39:31.468750
1833,15.29,2021-12-17 17:39:31.484375
1834,13.71,2021-12-17 17:39:31.500000
1835,11.92,2021-12-17 17:39:31.515625
1836,9.14,2021-12-17 17:39:31.531250
1837,4.65,2021-12-17 17:39:31.546875
1838,-1.78,2021-12-17 17:39:31.562500
1839,-9.57,2021-12-17 17:39:31.578125
1840,-17.35,2021-12-17 17:39:31.593750
1841,-23.32,2021-12-17 17:39:31.609375
1842,-25.83,2021-12-17 17:39:31.625000
1843,-23.95,2021-12-17 17:39:31.640625
1844,-17.83,2021-12-17 17:39:31.656250
1845,-8.68,2021-12-17 17:39:31.671875
1846,1.64,2021-12-17 17:39:31.687500
1847,11.26,2021-12-17 17:39:31.703125
1848,18.87,2021-12-17 17:39:31.718750
1849,23.95,2021-12-17 17:39:31.734375
1850,26.71,2021-12-17 17:39:31.750000
1851,27.61,2021-12-17 17:39:31.765625
1852,26.98,2021-12-17 17:39:31.781250
1853,24.92,2021-12-17 17:39:31.796875
1854,21.45,2021-12-17 17:39:31.812500
1855,16.83,2021-12-17 17:39:31.828125
1856,11.67,2021-12-17 17:39:31.843750
1857,6.83,2021-12-17 17:39:31.859375
1858,3.02,2021-12-17 17:39:31.875000
1859,0.5,2021-12-17 17:39:31.890625
1860,-1.06,2021-12-17 17:39:31.906250
1861,-2.38,2021-12-17 17:39:31.921875
1862,-4.17,2021-12-17 17:39:31.937500
1863,-6.85,2021-12-17 17:39:31.953125
1864,-10.32,2021-12-17 17:39:31.968750
1865,-14.1,2021-12-17 17:39:31.984375
1866,-17.49,2021-12-17 17:39:32.000000
1867,-19.81,2021-12-17 17:39:32.015625
1868,-20.59,2021-12-17 17:39:32.031250
1869,-19.66,2021-12-17 17:39:32.046875
1870,-17.24,2021-12-17 17:39:32.062500
1871,-13.79,2021-12-17 17:39:32.078125
1872,-9.92,2021-12-17 17:39:32.093750
1873,-6.11,2021-12-17 17:39:32.109375
1874,-2.59,2021-12-17 17:39:32.125000
1875,0.67,2021-12-17 17:39:32.140625
1876,3.82,2021-12-17 17:39:32.156250
1877,6.95,2021-12-17 17:39:32.171875
1878,9.96,2021-12-17 17:39:32.187500
1879,12.58,2021-12-17 17:39:32.203125
1880,14.52,2021-12-17 17:39:32.218750
1881,15.58,2021-12-17 17:39:32.234375
1882,15.78,2021-12-17 17:39:32.250000
1883,15.32,2021-12-17 17:39:32.265625
1884,14.51,2021-12-17 17:39:32.281250
1885,13.71,2021-12-17 17:39:32.296875
1886,13.26,2021-12-17 17:39:32.312500
1887,13.48,2021-12-17 17:39:32.328125
1888,14.57,2021-12-17 17:39:32.343750
1889,16.62,2021-12-17 17:39:32.359375
1890,19.58,2021-12-17 17:39:32.375000
1891,23.21,2021-12-17 17:39:32.390625
1892,27.17,2021-12-17 17:39:32.406250
1893,30.99,2021-12-17 17:39:32.421875
1894,34.05,2021-12-17 17:39:32.437500
1895,35.7,2021-12-17 17:39:32.453125
1896,35.45,2021-12-17 17:39:32.468750
1897,33.11,2021-12-17 17:39:32.484375
1898,28.97,2021-12-17 17:39:32.500000
1899,23.82,2021-12-17 17:39:32.515625
1900,18.65,2021-12-17 17:39:32.531250
1901,14.26,2021-12-17 17:39:32.546875
1902,10.91,2021-12-17 17:39:32.562500
1903,8.32,2021-12-17 17:39:32.578125
1904,5.81,2021-12-17 17:39:32.593750
1905,2.73,2021-12-17 17:39:32.609375
1906,-1.16,2021-12-17 17:39:32.625000
1907,-5.65,2021-12-17 17:39:32.640625
1908,-10.15,2021-12-17 17:39:32.656250
1909,-14.08,2021-12-17 17:39:32.671875
1910,-17.15,2021-12-17 17:39:32.687500
1911,-19.57,2021-12-17 17:39:32.703125
1912,-21.92,2021-12-17 17:39:32.718750
1913,-24.85,2021-12-17 17:39:32.734375
1914,-28.8,2021-12-17 17:39:32.750000
1915,-33.77,2021-12-17 17:39:32.765625
1916,-39.34,2021-12-17 17:39:32.781250
1917,-44.87,2021-12-17 17:39:32.796875
1918,-49.68,2021-12-17 17:39:32.812500
1919,-53.17,2021-12-17 17:39:32.828125
1920,-54.85,2021-12-17 17:39:32.843750
1921,-54.35,2021-12-17 17:39:32.859375
1922,-51.52,2021-12-17 17:39:32.875000
1923,-46.77,2021-12-17 17:39:32.890625
1924,-41.35,2021-12-17 17:39:32.906250
1925,-37.28,2021-12-17 17:39:32.921875
1926,-36.44,2021-12-17 17:39:32.937500
1927,-39.21,2021-12-17 17:39:32.953125
1928,-43.55,2021-12-17 17:39:32.968750
1929,-45.25,2021-12-17 17:39:32.984375
1930,-39.67,2021-12-17 17:39:33.000000
1931,-23.8,2021-12-17 17:39:33.015625
1932,2.24,2021-12-17 17:39:33.031250
1933,35.31,2021-12-17 17:39:33.046875
1934,70.61,2021-12-17 17:39:33.062500
1935,103.58,2021-12-17 17:39:33.078125
1936,131.04,2021-12-17 17:39:33.093750
1937,151.26,2021-12-17 17:39:33.109375
1938,163.32,2021-12-17 17:39:33.125000
1939,166.7,2021-12-17 17:39:33.140625
1940,161.47,2021-12-17 17:39:33.156250
1941,149.05,2021-12-17 17:39:33.171875
1942,132.58,2021-12-17 17:39:33.187500
1943,116.14,2021-12-17 17:39:33.203125
1944,103.22,2021-12-17 17:39:33.218750
1945,95.22,2021-12-17 17:39:33.234375
1946,90.93,2021-12-17 17:39:33.250000
1947,87.43,2021-12-17 17:39:33.265625
1948,81.63,2021-12-17 17:39:33.281250
1949,71.57,2021-12-17 17:39:33.296875
1950,56.82,2021-12-17 17:39:33.312500
1951,38.24,2021-12-17 17:39:33.328125
1952,17.47,2021-12-17 17:39:33.343750
1953,-3.6,2021-12-17 17:39:33.359375
1954,-23.04,2021-12-17 17:39:33.375000
1955,-39.11,2021-12-17 17:39:33.390625
1956,-50.45,2021-12-17 17:39:33.406250
1957,-56.53,2021-12-17 17:39:33.421875
1958,-57.85,2021-12-17 17:39:33.437500
1959,-55.83,2021-12-17 17:39:33.453125
1960,-52.29,2021-12-17 17:39:33.468750
1961,-48.81,2021-12-17 17:39:33.484375
1962,-46.26,2021-12-17 17:39:33.500000
1963,-44.73,2021-12-17 17:39:33.515625
1964,-43.85,2021-12-17 17:39:33.531250
1965,-43.12,2021-12-17 17:39:33.546875
1966,-42.25,2021-12-17 17:39:33.562500
1967,-41.14,2021-12-17 17:39:33.578125
1968,-39.85,2021-12-17 17:39:33.593750
1969,-38.5,2021-12-17 17:39:33.609375
1970,-37.29,2021-12-17 17:39:33.625000
1971,-36.42,2021-12-17 17:39:33.640625
1972,-36.1,2021-12-17 17:39:33.656250
1973,-36.52,2021-12-17 17:39:33.671875
1974,-37.74,2021-12-17 17:39:33.687500
1975,-39.67,2021-12-17 17:39:33.703125
1976,-42.08,2021-12-17 17:39:33.718750
1977,-44.59,2021-12-17 17:39:33.734375
1978,-46.73,2021-12-17 17:39:33.750000
1979,-47.98,2021-12-17 17:39:33.765625
1980,-47.94,2021-12-17 17:39:33.781250
1981,-46.4,2021-12-17 17:39:33.796875
1982,-43.52,2021-12-17 17:39:33.812500
1983,-39.82,2021-12-17 17:39:33.828125
1984,-36.13,2021-12-17 17:39:33.843750
1985,-33.26,2021-12-17 17:39:33.859375
1986,-31.75,2021-12-17 17:39:33.875000
1987,-31.63,2021-12-17 17:39:33.890625
1988,-32.4,2021-12-17 17:39:33.906250
1989,-33.36,2021-12-17 17:39:33.921875
1990,-33.98,2021-12-17 17:39:33.937500
1991,-34.27,2021-12-17 17:39:33.953125
1992,-34.8,2021-12-17 17:39:33.968750
1993,-36.54,2021-12-17 17:39:33.984375
1994,-40.44,2021-12-17 17:39:34.000000
1995,-46.94,2021-12-17 17:39:34.015625
1996,-55.6,2021-12-17 17:39:34.031250
1997,-65.0,2021-12-17 17:39:34.046875
1998,-72.86,2021-12-17 17:39:34.062500
1999,-76.53,2021-12-17 17:39:34.078125
2000,-73.68,2021-12-17 17:39:34.093750
2001,-63.05,2021-12-17 17:39:34.109375
2002,-45.1,2021-12-17 17:39:34.125000
2003,-22.09,2021-12-17 17:39:34.140625
2004,2.44,2021-12-17 17:39:34.156250
2005,24.63,2021-12-17 17:39:34.171875
2006,41.32,2021-12-17 17:39:34.187500
2007,50.9,2021-12-17 17:39:34.203125
2008,53.49,2021-12-17 17:39:34.218750
2009,50.67,2021-12-17 17:39:34.234375
2010,44.92,2021-12-17 17:39:34.250000
2011,38.83,2021-12-17 17:39:34.265625
2012,34.43,2021-12-17 17:39:34.281250
2013,32.71,2021-12-17 17:39:34.296875
2014,33.43,2021-12-17 17:39:34.312500
2015,35.46,2021-12-17 17:39:34.328125
2016,37.43,2021-12-17 17:39:34.343750
2017,38.34,2021-12-17 17:39:34.359375
2018,37.98,2021-12-17 17:39:34.375000
2019,36.78,2021-12-17 17:39:34.390625
2020,35.35,2021-12-17 17:39:34.406250
2021,33.97,2021-12-17 17:39:34.421875
2022,32.43,2021-12-17 17:39:34.437500
2023,30.33,2021-12-17 17:39:34.453125
2024,27.48,2021-12-17 17:39:34.468750
2025,24.23,2021-12-17 17:39:34.484375
2026,21.18,2021-12-17 17:39:34.500000
2027,18.84,2021-12-17 17:39:34.515625
2028,17.15,2021-12-17 17:39:34.531250
2029,15.56,2021-12-17 17:39:34.546875
2030,13.39,2021-12-17 17:39:34.562500
2031,10.28,2021-12-17 17:39:34.578125
2032,6.42,2021-12-17 17:39:34.593750
2033,2.23,2021-12-17 17:39:34.609375
2034,-2.01,2021-12-17 17:39:34.625000
2035,-6.44,2021-12-17 17:39:34.640625
2036,-11.46,2021-12-17 17:39:34.656250
2037,-17.29,2021-12-17 17:39:34.671875
2038,-23.64,2021-12-17 17:39:34.687500
2039,-29.69,2021-12-17 17:39:34.703125
2040,-34.52,2021-12-17 17:39:34.718750
2041,-37.68,2021-12-17 17:39:34.734375
2042,-39.4,2021-12-17 17:39:34.750000
2043,-40.31,2021-12-17 17:39:34.765625
2044,-40.79,2021-12-17 17:39:34.781250
2045,-40.41,2021-12-17 17:39:34.796875
2046,-38.03,2021-12-17 17:39:34.812500
2047,-32.43,2021-12-17 17:39:34.828125
2048,-23.38,2021-12-17 17:39:34.843750
2049,-12.22,2021-12-17 17:39:34.859375
2050,-1.6,2021-12-17 17:39:34.875000
2051,5.69,2021-12-17 17:39:34.890625
2052,8.2,2021-12-17 17:39:34.906250
2053,6.64,2021-12-17 17:39:34.921875
2054,3.66,2021-12-17 17:39:34.937500
2055,2.43,2021-12-17 17:39:34.953125
2056,5.19,2021-12-17 17:39:34.968750
2057,12.51,2021-12-17 17:39:34.984375
2058,23.89,2021-12-17 17:39:35.000000
2059,38.93,2021-12-17 17:39:35.015625
2060,57.85,2021-12-17 17:39:35.031250
2061,80.73,2021-12-17 17:39:35.046875
2062,105.9,2021-12-17 17:39:35.062500
2063,129.16,2021-12-17 17:39:35.078125
2064,144.9,2021-12-17 17:39:35.093750
2065,148.75,2021-12-17 17:39:35.109375
2066,140.29,2021-12-17 17:39:35.125000
2067,123.67,2021-12-17 17:39:35.140625
2068,105.51,2021-12-17 17:39:35.156250
2069,91.27,2021-12-17 17:39:35.171875
2070,82.39,2021-12-17 17:39:35.187500
2071,76.1,2021-12-17 17:39:35.203125
2072,67.93,2021-12-17 17:39:35.218750
2073,55.18,2021-12-17 17:39:35.234375
2074,38.88,2021-12-17 17:39:35.250000
2075,23.15,2021-12-17 17:39:35.265625
2076,12.46,2021-12-17 17:39:35.281250
2077,8.9,2021-12-17 17:39:35.296875
2078,11.11,2021-12-17 17:39:35.312500
2079,15.45,2021-12-17 17:39:35.328125
2080,18.22,2021-12-17 17:39:35.343750
2081,17.48,2021-12-17 17:39:35.359375
2082,13.43,2021-12-17 17:39:35.375000
2083,7.66,2021-12-17 17:39:35.390625
2084,1.91,2021-12-17 17:39:35.406250
2085,-2.88,2021-12-17 17:39:35.421875
2086,-6.85,2021-12-17 17:39:35.437500
2087,-10.88,2021-12-17 17:39:35.453125
2088,-15.86,2021-12-17 17:39:35.468750
2089,-22.07,2021-12-17 17:39:35.484375
2090,-28.96,2021-12-17 17:39:35.500000
2091,-35.4,2021-12-17 17:39:35.515625
2092,-40.16,2021-12-17 17:39:35.531250
2093,-42.46,2021-12-17 17:39:35.546875
2094,-42.23,2021-12-17 17:39:35.562500
2095,-39.98,2021-12-17 17:39:35.578125
2096,-36.56,2021-12-17 17:39:35.593750
2097,-32.72,2021-12-17 17:39:35.609375
2098,-28.88,2021-12-17 17:39:35.625000
2099,-25.12,2021-12-17 17:39:35.640625
2100,-21.26,2021-12-17 17:39:35.656250
2101,-17.09,2021-12-17 17:39:35.671875
2102,-12.62,2021-12-17 17:39:35.687500
2103,-8.11,2021-12-17 17:39:35.703125
2104,-3.98,2021-12-17 17:39:35.718750
2105,-0.6,2021-12-17 17:39:35.734375
2106,1.91,2021-12-17 17:39:35.750000
2107,3.81,2021-12-17 17:39:35.765625
2108,5.5,2021-12-17 17:39:35.781250
2109,7.36,2021-12-17 17:39:35.796875
2110,9.53,2021-12-17 17:39:35.812500
2111,11.8,2021-12-17 17:39:35.828125
2112,13.63,2021-12-17 17:39:35.843750
2113,14.49,2021-12-17 17:39:35.859375
2114,14.1,2021-12-17 17:39:35.875000
2115,12.54,2021-12-17 17:39:35.890625
2116,10.29,2021-12-17 17:39:35.906250
2117,7.96,2021-12-17 17:39:35.921875
2118,6.12,2021-12-17 17:39:35.937500
2119,5.09,2021-12-17 17:39:35.953125
2120,4.82,2021-12-17 17:39:35.968750
2121,4.93,2021-12-17 17:39:35.984375
2122,5.0,2021-12-17 17:39:36.000000
2123,4.83,2021-12-17 17:39:36.015625
2124,4.78,2021-12-17 17:39:36.031250
2125,5.66,2021-12-17 17:39:36.046875
2126,8.3,2021-12-17 17:39:36.062500
2127,13.17,2021-12-17 17:39:36.078125
2128,19.91,2021-12-17 17:39:36.093750
2129,27.43,2021-12-17 17:39:36.109375
2130,34.46,2021-12-17 17:39:36.125000
2131,40.06,2021-12-17 17:39:36.140625
2132,44.06,2021-12-17 17:39:36.156250
2133,46.95,2021-12-17 17:39:36.171875
2134,49.39,2021-12-17 17:39:36.187500
2135,51.62,2021-12-17 17:39:36.203125
2136,53.3,2021-12-17 17:39:36.218750
2137,53.68,2021-12-17 17:39:36.234375
2138,52.08,2021-12-17 17:39:36.250000
2139,48.28,2021-12-17 17:39:36.265625
2140,42.58,2021-12-17 17:39:36.281250
2141,35.42,2021-12-17 17:39:36.296875
2142,26.95,2021-12-17 17:39:36.312500
2143,16.78,2021-12-17 17:39:36.328125
2144,4.07,2021-12-17 17:39:36.343750
2145,-11.76,2021-12-17 17:39:36.359375
2146,-30.46,2021-12-17 17:39:36.375000
2147,-50.39,2021-12-17 17:39:36.390625
2148,-68.9,2021-12-17 17:39:36.406250
2149,-83.14,2021-12-17 17:39:36.421875
2150,-91.04,2021-12-17 17:39:36.437500
2151,-92.02,2021-12-17 17:39:36.453125
2152,-86.85,2021-12-17 17:39:36.468750
2153,-76.99,2021-12-17 17:39:36.484375
2154,-63.81,2021-12-17 17:39:36.500000
2155,-48.28,2021-12-17 17:39:36.515625
2156,-31.28,2021-12-17 17:39:36.531250
2157,-14.26,2021-12-17 17:39:36.546875
2158,0.51,2021-12-17 17:39:36.562500
2159,10.36,2021-12-17 17:39:36.578125
2160,13.3,2021-12-17 17:39:36.593750
2161,9.01,2021-12-17 17:39:36.609375
2162,-0.79,2021-12-17 17:39:36.625000
2163,-12.99,2021-12-17 17:39:36.640625
2164,-24.42,2021-12-17 17:39:36.656250
2165,-33.0,2021-12-17 17:39:36.671875
2166,-38.3,2021-12-17 17:39:36.687500
2167,-41.13,2021-12-17 17:39:36.703125
2168,-42.61,2021-12-17 17:39:36.718750
2169,-43.43,2021-12-17 17:39:36.734375
2170,-43.48,2021-12-17 17:39:36.750000
2171,-42.23,2021-12-17 17:39:36.765625
2172,-39.22,2021-12-17 17:39:36.781250
2173,-34.66,2021-12-17 17:39:36.796875
2174,-29.48,2021-12-17 17:39:36.812500
2175,-25.05,2021-12-17 17:39:36.828125
2176,-22.62,2021-12-17 17:39:36.843750
2177,-22.77,2021-12-17 17:39:36.859375
2178,-25.19,2021-12-17 17:39:36.875000
2179,-28.83,2021-12-17 17:39:36.890625
2180,-32.22,2021-12-17 17:39:36.906250
2181,-34.12,2021-12-17 17:39:36.921875
2182,-33.89,2021-12-17 17:39:36.937500
2183,-31.69,2021-12-17 17:39:36.953125
2184,-28.44,2021-12-17 17:39:36.968750
2185,-25.33,2021-12-17 17:39:36.984375
2186,-23.37,2021-12-17 17:39:37.000000
2187,-22.79,2021-12-17 17:39:37.015625
2188,-22.83,2021-12-17 17:39:37.031250
2189,-21.92,2021-12-17 17:39:37.046875
2190,-18.35,2021-12-17 17:39:37.062500
2191,-11.02,2021-12-17 17:39:37.078125
2192,0.13,2021-12-17 17:39:37.093750
2193,14.05,2021-12-17 17:39:37.109375
2194,29.06,2021-12-17 17:39:37.125000
2195,43.42,2021-12-17 17:39:37.140625
2196,55.63,2021-12-17 17:39:37.156250
2197,64.58,2021-12-17 17:39:37.171875
2198,69.47,2021-12-17 17:39:37.187500
2199,69.69,2021-12-17 17:39:37.203125
2200,64.97,2021-12-17 17:39:37.218750
2201,55.52,2021-12-17 17:39:37.234375
2202,42.19,2021-12-17 17:39:37.250000
2203,26.41,2021-12-17 17:39:37.265625
2204,9.85,2021-12-17 17:39:37.281250
2205,-5.8,2021-12-17 17:39:37.296875
2206,-19.08,2021-12-17 17:39:37.312500
2207,-28.88,2021-12-17 17:39:37.328125
2208,-34.53,2021-12-17 17:39:37.343750
2209,-36.02,2021-12-17 17:39:37.359375
2210,-34.12,2021-12-17 17:39:37.375000
2211,-30.35,2021-12-17 17:39:37.390625
2212,-26.55,2021-12-17 17:39:37.406250
2213,-24.14,2021-12-17 17:39:37.421875
2214,-23.6,2021-12-17 17:39:37.437500
2215,-24.19,2021-12-17 17:39:37.453125
2216,-24.52,2021-12-17 17:39:37.468750
2217,-23.18,2021-12-17 17:39:37.484375
2218,-19.43,2021-12-17 17:39:37.500000
2219,-13.36,2021-12-17 17:39:37.515625
2220,-5.71,2021-12-17 17:39:37.531250
2221,2.63,2021-12-17 17:39:37.546875
2222,11.0,2021-12-17 17:39:37.562500
2223,18.98,2021-12-17 17:39:37.578125
2224,26.21,2021-12-17 17:39:37.593750
2225,32.09,2021-12-17 17:39:37.609375
2226,35.92,2021-12-17 17:39:37.625000
2227,37.19,2021-12-17 17:39:37.640625
2228,36.02,2021-12-17 17:39:37.656250
2229,33.3,2021-12-17 17:39:37.671875
2230,30.47,2021-12-17 17:39:37.687500
2231,29.03,2021-12-17 17:39:37.703125
2232,29.95,2021-12-17 17:39:37.718750
2233,33.43,2021-12-17 17:39:37.734375
2234,38.91,2021-12-17 17:39:37.750000
2235,45.33,2021-12-17 17:39:37.765625
2236,51.55,2021-12-17 17:39:37.781250
2237,56.7,2021-12-17 17:39:37.796875
2238,60.33,2021-12-17 17:39:37.812500
2239,62.49,2021-12-17 17:39:37.828125
2240,63.61,2021-12-17 17:39:37.843750
2241,64.22,2021-12-17 17:39:37.859375
2242,64.65,2021-12-17 17:39:37.875000
2243,64.79,2021-12-17 17:39:37.890625
2244,64.05,2021-12-17 17:39:37.906250
2245,61.69,2021-12-17 17:39:37.921875
2246,57.13,2021-12-17 17:39:37.937500
2247,50.48,2021-12-17 17:39:37.953125
2248,42.78,2021-12-17 17:39:37.968750
2249,35.88,2021-12-17 17:39:37.984375
2250,31.97,2021-12-17 17:39:38.000000
2251,32.85,2021-12-17 17:39:38.015625
2252,39.18,2021-12-17 17:39:38.031250
2253,49.91,2021-12-17 17:39:38.046875
2254,62.5,2021-12-17 17:39:38.062500
2255,73.76,2021-12-17 17:39:38.078125
2256,80.93,2021-12-17 17:39:38.093750
2257,82.75,2021-12-17 17:39:38.109375
2258,79.72,2021-12-17 17:39:38.125000
2259,73.62,2021-12-17 17:39:38.140625
2260,66.61,2021-12-17 17:39:38.156250
2261,60.02,2021-12-17 17:39:38.171875
2262,53.8,2021-12-17 17:39:38.187500
2263,46.88,2021-12-17 17:39:38.203125
2264,37.74,2021-12-17 17:39:38.218750
2265,25.24,2021-12-17 17:39:38.234375
2266,9.02,2021-12-17 17:39:38.250000
2267,-10.39,2021-12-17 17:39:38.265625
2268,-31.6,2021-12-17 17:39:38.281250
2269,-52.53,2021-12-17 17:39:38.296875
2270,-70.68,2021-12-17 17:39:38.312500
2271,-83.8,2021-12-17 17:39:38.328125
2272,-90.53,2021-12-17 17:39:38.343750
2273,-91.0,2021-12-17 17:39:38.359375
2274,-86.81,2021-12-17 17:39:38.375000
2275,-80.38,2021-12-17 17:39:38.390625
2276,-74.1,2021-12-17 17:39:38.406250
2277,-69.79,2021-12-17 17:39:38.421875
2278,-68.61,2021-12-17 17:39:38.437500
2279,-71.42,2021-12-17 17:39:38.453125
2280,-78.79,2021-12-17 17:39:38.468750
2281,-90.6,2021-12-17 17:39:38.484375
2282,-105.41,2021-12-17 17:39:38.500000
2283,-120.16,2021-12-17 17:39:38.515625
2284,-130.57,2021-12-17 17:39:38.531250
2285,-132.65,2021-12-17 17:39:38.546875
2286,-124.03,2021-12-17 17:39:38.562500
2287,-104.87,2021-12-17 17:39:38.578125
2288,-77.65,2021-12-17 17:39:38.593750
2289,-46.32,2021-12-17 17:39:38.609375
2290,-15.29,2021-12-17 17:39:38.625000
2291,11.4,2021-12-17 17:39:38.640625
2292,30.7,2021-12-17 17:39:38.656250
2293,41.11,2021-12-17 17:39:38.671875
2294,43.07,2021-12-17 17:39:38.687500
2295,39.12,2021-12-17 17:39:38.703125
2296,33.23,2021-12-17 17:39:38.718750
2297,29.54,2021-12-17 17:39:38.734375
2298,30.94,2021-12-17 17:39:38.750000
2299,38.08,2021-12-17 17:39:38.765625
2300,49.44,2021-12-17 17:39:38.781250
2301,62.31,2021-12-17 17:39:38.796875
2302,73.99,2021-12-17 17:39:38.812500
2303,82.64,2021-12-17 17:39:38.828125
2304,87.46,2021-12-17 17:39:38.843750
2305,88.37,2021-12-17 17:39:38.859375
2306,85.58,2021-12-17 17:39:38.875000
2307,79.28,2021-12-17 17:39:38.890625
2308,69.71,2021-12-17 17:39:38.906250
2309,57.25,2021-12-17 17:39:38.921875
2310,42.52,2021-12-17 17:39:38.937500
2311,26.48,2021-12-17 17:39:38.953125
2312,10.23,2021-12-17 17:39:38.968750
2313,-5.24,2021-12-17 17:39:38.984375
2314,-19.19,2021-12-17 17:39:39.000000
2315,-31.36,2021-12-17 17:39:39.015625
2316,-41.82,2021-12-17 17:39:39.031250
2317,-50.75,2021-12-17 17:39:39.046875
2318,-58.24,2021-12-17 17:39:39.062500
2319,-64.15,2021-12-17 17:39:39.078125
2320,-68.2,2021-12-17 17:39:39.093750
2321,-70.17,2021-12-17 17:39:39.109375
2322,-70.15,2021-12-17 17:39:39.125000
2323,-68.71,2021-12-17 17:39:39.140625
2324,-66.75,2021-12-17 17:39:39.156250
2325,-65.36,2021-12-17 17:39:39.171875
2326,-65.43,2021-12-17 17:39:39.187500
2327,-67.32,2021-12-17 17:39:39.203125
2328,-70.71,2021-12-17 17:39:39.218750
2329,-74.66,2021-12-17 17:39:39.234375
2330,-77.9,2021-12-17 17:39:39.250000
2331,-79.32,2021-12-17 17:39:39.265625
2332,-78.4,2021-12-17 17:39:39.281250
2333,-75.46,2021-12-17 17:39:39.296875
2334,-71.51,2021-12-17 17:39:39.312500
2335,-67.85,2021-12-17 17:39:39.328125
2336,-65.52,2021-12-17 17:39:39.343750
2337,-64.91,2021-12-17 17:39:39.359375
2338,-65.68,2021-12-17 17:39:39.375000
2339,-66.98,2021-12-17 17:39:39.390625
2340,-67.83,2021-12-17 17:39:39.406250
2341,-67.37,2021-12-17 17:39:39.421875
2342,-65.11,2021-12-17 17:39:39.437500
2343,-60.83,2021-12-17 17:39:39.453125
2344,-54.62,2021-12-17 17:39:39.468750
2345,-46.81,2021-12-17 17:39:39.484375
2346,-38.0,2021-12-17 17:39:39.500000
2347,-28.95,2021-12-17 17:39:39.515625
2348,-20.42,2021-12-17 17:39:39.531250
2349,-12.93,2021-12-17 17:39:39.546875
2350,-6.56,2021-12-17 17:39:39.562500
2351,-1.08,2021-12-17 17:39:39.578125
2352,3.86,2021-12-17 17:39:39.593750
2353,8.46,2021-12-17 17:39:39.609375
2354,12.62,2021-12-17 17:39:39.625000
2355,16.17,2021-12-17 17:39:39.640625
2356,18.97,2021-12-17 17:39:39.656250
2357,21.11,2021-12-17 17:39:39.671875
2358,22.84,2021-12-17 17:39:39.687500
2359,24.45,2021-12-17 17:39:39.703125
2360,26.04,2021-12-17 17:39:39.718750
2361,27.54,2021-12-17 17:39:39.734375
2362,28.79,2021-12-17 17:39:39.750000
2363,29.62,2021-12-17 17:39:39.765625
2364,30.06,2021-12-17 17:39:39.781250
2365,30.22,2021-12-17 17:39:39.796875
2366,30.26,2021-12-17 17:39:39.812500
2367,30.32,2021-12-17 17:39:39.828125
2368,30.42,2021-12-17 17:39:39.843750
2369,30.49,2021-12-17 17:39:39.859375
2370,30.44,2021-12-17 17:39:39.875000
2371,30.15,2021-12-17 17:39:39.890625
2372,29.51,2021-12-17 17:39:39.906250
2373,28.43,2021-12-17 17:39:39.921875
2374,26.97,2021-12-17 17:39:39.937500
2375,25.26,2021-12-17 17:39:39.953125
2376,23.56,2021-12-17 17:39:39.968750
2377,22.14,2021-12-17 17:39:39.984375
2378,21.19,2021-12-17 17:39:40.000000
2379,20.74,2021-12-17 17:39:40.015625
2380,20.67,2021-12-17 17:39:40.031250
2381,20.72,2021-12-17 17:39:40.046875
2382,20.61,2021-12-17 17:39:40.062500
2383,20.17,2021-12-17 17:39:40.078125
2384,19.4,2021-12-17 17:39:40.093750
2385,18.48,2021-12-17 17:39:40.109375
2386,17.59,2021-12-17 17:39:40.125000
2387,16.78,2021-12-17 17:39:40.140625
2388,15.9,2021-12-17 17:39:40.156250
2389,14.63,2021-12-17 17:39:40.171875
2390,12.67,2021-12-17 17:39:40.187500
2391,9.94,2021-12-17 17:39:40.203125
2392,6.6,2021-12-17 17:39:40.218750
2393,2.93,2021-12-17 17:39:40.234375
2394,-0.87,2021-12-17 17:39:40.250000
2395,-4.75,2021-12-17 17:39:40.265625
2396,-8.83,2021-12-17 17:39:40.281250
2397,-13.17,2021-12-17 17:39:40.296875
2398,-17.53,2021-12-17 17:39:40.312500
2399,-21.34,2021-12-17 17:39:40.328125
2400,-23.84,2021-12-17 17:39:40.343750
2401,-24.35,2021-12-17 17:39:40.359375
2402,-22.68,2021-12-17 17:39:40.375000
2403,-19.16,2021-12-17 17:39:40.390625
2404,-14.59,2021-12-17 17:39:40.406250
2405,-9.95,2021-12-17 17:39:40.421875
2406,-6.0,2021-12-17 17:39:40.437500
2407,-3.03,2021-12-17 17:39:40.453125
2408,-0.92,2021-12-17 17:39:40.468750
2409,0.68,2021-12-17 17:39:40.484375
2410,2.04,2021-12-17 17:39:40.500000
2411,3.19,2021-12-17 17:39:40.515625
2412,3.88,2021-12-17 17:39:40.531250
2413,3.92,2021-12-17 17:39:40.546875
2414,3.29,2021-12-17 17:39:40.562500
2415,2.29,2021-12-17 17:39:40.578125
2416,1.46,2021-12-17 17:39:40.593750
2417,1.22,2021-12-17 17:39:40.609375
2418,1.72,2021-12-17 17:39:40.625000
2419,2.75,2021-12-17 17:39:40.640625
2420,3.91,2021-12-17 17:39:40.656250
2421,4.89,2021-12-17 17:39:40.671875
2422,5.64,2021-12-17 17:39:40.687500
2423,6.35,2021-12-17 17:39:40.703125
2424,7.25,2021-12-17 17:39:40.718750
2425,8.41,2021-12-17 17:39:40.734375
2426,9.63,2021-12-17 17:39:40.750000
2427,10.54,2021-12-17 17:39:40.765625
2428,10.86,2021-12-17 17:39:40.781250
2429,10.44,2021-12-17 17:39:40.796875
2430,9.37,2021-12-17 17:39:40.812500
2431,7.91,2021-12-17 17:39:40.828125
2432,6.37,2021-12-17 17:39:40.843750
2433,5.1,2021-12-17 17:39:40.859375
2434,4.37,2021-12-17 17:39:40.875000
2435,4.33,2021-12-17 17:39:40.890625
2436,4.89,2021-12-17 17:39:40.906250
2437,5.71,2021-12-17 17:39:40.921875
2438,6.26,2021-12-17 17:39:40.937500
2439,6.09,2021-12-17 17:39:40.953125
2440,5.1,2021-12-17 17:39:40.968750
2441,3.69,2021-12-17 17:39:40.984375
2442,2.56,2021-12-17 17:39:41.000000
2443,2.4,2021-12-17 17:39:41.015625
2444,3.41,2021-12-17 17:39:41.031250
2445,5.21,2021-12-17 17:39:41.046875
2446,7.12,2021-12-17 17:39:41.062500
2447,8.42,2021-12-17 17:39:41.078125
2448,8.75,2021-12-17 17:39:41.093750
2449,8.18,2021-12-17 17:39:41.109375
2450,7.01,2021-12-17 17:39:41.125000
2451,5.47,2021-12-17 17:39:41.140625
2452,3.71,2021-12-17 17:39:41.156250
2453,1.78,2021-12-17 17:39:41.171875
2454,-0.18,2021-12-17 17:39:41.187500
2455,-1.87,2021-12-17 17:39:41.203125
2456,-2.89,2021-12-17 17:39:41.218750
2457,-2.95,2021-12-17 17:39:41.234375
2458,-1.95,2021-12-17 17:39:41.250000
2459,-0.08,2021-12-17 17:39:41.265625
2460,2.32,2021-12-17 17:39:41.281250
2461,4.96,2021-12-17 17:39:41.296875
2462,7.54,2021-12-17 17:39:41.312500
2463,9.77,2021-12-17 17:39:41.328125
2464,11.33,2021-12-17 17:39:41.343750
2465,11.86,2021-12-17 17:39:41.359375
2466,11.19,2021-12-17 17:39:41.375000
2467,9.45,2021-12-17 17:39:41.390625
2468,7.07,2021-12-17 17:39:41.406250
2469,4.68,2021-12-17 17:39:41.421875
2470,2.76,2021-12-17 17:39:41.437500
2471,1.4,2021-12-17 17:39:41.453125
2472,0.31,2021-12-17 17:39:41.468750
2473,-1.01,2021-12-17 17:39:41.484375
2474,-2.96,2021-12-17 17:39:41.500000
2475,-5.52,2021-12-17 17:39:41.515625
2476,-8.27,2021-12-17 17:39:41.531250
2477,-10.59,2021-12-17 17:39:41.546875
2478,-12.0,2021-12-17 17:39:41.562500
2479,-12.33,2021-12-17 17:39:41.578125
2480,-11.76,2021-12-17 17:39:41.593750
2481,-10.7,2021-12-17 17:39:41.609375
2482,-9.59,2021-12-17 17:39:41.625000
2483,-8.89,2021-12-17 17:39:41.640625
2484,-9.09,2021-12-17 17:39:41.656250
2485,-10.73,2021-12-17 17:39:41.671875
2486,-14.3,2021-12-17 17:39:41.687500
2487,-19.89,2021-12-17 17:39:41.703125
2488,-26.98,2021-12-17 17:39:41.718750
2489,-34.36,2021-12-17 17:39:41.734375
2490,-40.51,2021-12-17 17:39:41.750000
2491,-44.18,2021-12-17 17:39:41.765625
2492,-44.95,2021-12-17 17:39:41.781250
2493,-43.27,2021-12-17 17:39:41.796875
2494,-40.12,2021-12-17 17:39:41.812500
2495,-36.34,2021-12-17 17:39:41.828125
2496,-32.12,2021-12-17 17:39:41.843750
2497,-27.1,2021-12-17 17:39:41.859375
2498,-20.81,2021-12-17 17:39:41.875000
2499,-13.36,2021-12-17 17:39:41.890625
2500,-5.84,2021-12-17 17:39:41.906250
2501,0.03,2021-12-17 17:39:41.921875
2502,2.54,2021-12-17 17:39:41.937500
2503,0.92,2021-12-17 17:39:41.953125
2504,-4.3,2021-12-17 17:39:41.968750
2505,-11.35,2021-12-17 17:39:41.984375
2506,-17.88,2021-12-17 17:39:42.000000
2507,-21.74,2021-12-17 17:39:42.015625
2508,-21.6,2021-12-17 17:39:42.031250
2509,-17.27,2021-12-17 17:39:42.046875
2510,-9.8,2021-12-17 17:39:42.062500
2511,-1.13,2021-12-17 17:39:42.078125
2512,6.55,2021-12-17 17:39:42.093750
2513,11.36,2021-12-17 17:39:42.109375
2514,12.41,2021-12-17 17:39:42.125000
2515,9.91,2021-12-17 17:39:42.140625
2516,5.02,2021-12-17 17:39:42.156250
2517,-0.64,2021-12-17 17:39:42.171875
2518,-5.66,2021-12-17 17:39:42.187500
2519,-9.23,2021-12-17 17:39:42.203125
2520,-11.33,2021-12-17 17:39:42.218750
2521,-12.58,2021-12-17 17:39:42.234375
2522,-13.99,2021-12-17 17:39:42.250000
2523,-16.59,2021-12-17 17:39:42.265625
2524,-21.2,2021-12-17 17:39:42.281250
2525,-27.93,2021-12-17 17:39:42.296875
2526,-36.07,2021-12-17 17:39:42.312500
2527,-44.07,2021-12-17 17:39:42.328125
2528,-50.17,2021-12-17 17:39:42.343750
2529,-53.13,2021-12-17 17:39:42.359375
2530,-52.75,2021-12-17 17:39:42.375000
2531,-49.98,2021-12-17 17:39:42.390625
2532,-46.13,2021-12-17 17:39:42.406250
2533,-42.08,2021-12-17 17:39:42.421875
2534,-37.79,2021-12-17 17:39:42.437500
2535,-32.42,2021-12-17 17:39:42.453125
2536,-25.08,2021-12-17 17:39:42.468750
2537,-15.64,2021-12-17 17:39:42.484375
2538,-5.01,2021-12-17 17:39:42.500000
2539,5.23,2021-12-17 17:39:42.515625
2540,13.56,2021-12-17 17:39:42.531250
2541,19.29,2021-12-17 17:39:42.546875
2542,22.73,2021-12-17 17:39:42.562500
2543,24.87,2021-12-17 17:39:42.578125
2544,26.85,2021-12-17 17:39:42.593750
2545,29.49,2021-12-17 17:39:42.609375
2546,33.16,2021-12-17 17:39:42.625000
2547,37.84,2021-12-17 17:39:42.640625
2548,43.23,2021-12-17 17:39:42.656250
2549,48.73,2021-12-17 17:39:42.671875
2550,53.32,2021-12-17 17:39:42.687500
2551,55.53,2021-12-17 17:39:42.703125
2552,53.63,2021-12-17 17:39:42.718750
2553,46.38,2021-12-17 17:39:42.734375
2554,33.71,2021-12-17 17:39:42.750000
2555,17.18,2021-12-17 17:39:42.765625
2556,-0.35,2021-12-17 17:39:42.781250
2557,-15.56,2021-12-17 17:39:42.796875
2558,-25.76,2021-12-17 17:39:42.812500
2559,-29.6,2021-12-17 17:39:42.828125
2560,-27.16,2021-12-17 17:39:42.843750
2561,-19.57,2021-12-17 17:39:42.859375
2562,-8.5,2021-12-17 17:39:42.875000
2563,4.13,2021-12-17 17:39:42.890625
2564,16.27,2021-12-17 17:39:42.906250
2565,25.81,2021-12-17 17:39:42.921875
2566,30.96,2021-12-17 17:39:42.937500
2567,30.88,2021-12-17 17:39:42.953125
2568,26.15,2021-12-17 17:39:42.968750
2569,18.75,2021-12-17 17:39:42.984375
2570,11.26,2021-12-17 17:39:43.000000
2571,5.79,2021-12-17 17:39:43.015625
2572,3.1,2021-12-17 17:39:43.031250
2573,2.64,2021-12-17 17:39:43.046875
2574,3.13,2021-12-17 17:39:43.062500
2575,3.48,2021-12-17 17:39:43.078125
2576,3.32,2021-12-17 17:39:43.093750
2577,2.97,2021-12-17 17:39:43.109375
2578,3.05,2021-12-17 17:39:43.125000
2579,3.88,2021-12-17 17:39:43.140625
2580,5.24,2021-12-17 17:39:43.156250
2581,6.45,2021-12-17 17:39:43.171875
2582,6.67,2021-12-17 17:39:43.187500
2583,5.32,2021-12-17 17:39:43.203125
2584,2.33,2021-12-17 17:39:43.218750
2585,-1.89,2021-12-17 17:39:43.234375
2586,-6.55,2021-12-17 17:39:43.250000
2587,-10.82,2021-12-17 17:39:43.265625
2588,-14.06,2021-12-17 17:39:43.281250
2589,-15.97,2021-12-17 17:39:43.296875
2590,-16.66,2021-12-17 17:39:43.312500
2591,-16.6,2021-12-17 17:39:43.328125
2592,-16.28,2021-12-17 17:39:43.343750
2593,-16.12,2021-12-17 17:39:43.359375
2594,-16.24,2021-12-17 17:39:43.375000
2595,-16.5,2021-12-17 17:39:43.390625
2596,-16.53,2021-12-17 17:39:43.406250
2597,-15.92,2021-12-17 17:39:43.421875
2598,-14.38,2021-12-17 17:39:43.437500
2599,-11.94,2021-12-17 17:39:43.453125
2600,-9.0,2021-12-17 17:39:43.468750
2601,-6.16,2021-12-17 17:39:43.484375
2602,-4.11,2021-12-17 17:39:43.500000
2603,-3.4,2021-12-17 17:39:43.515625
2604,-4.26,2021-12-17 17:39:43.531250
2605,-6.46,2021-12-17 17:39:43.546875
2606,-9.42,2021-12-17 17:39:43.562500
2607,-12.27,2021-12-17 17:39:43.578125
2608,-14.2,2021-12-17 17:39:43.593750
2609,-14.66,2021-12-17 17:39:43.609375
2610,-13.55,2021-12-17 17:39:43.625000
2611,-11.33,2021-12-17 17:39:43.640625
2612,-8.81,2021-12-17 17:39:43.656250
2613,-6.81,2021-12-17 17:39:43.671875
2614,-5.82,2021-12-17 17:39:43.687500
2615,-5.79,2021-12-17 17:39:43.703125
2616,-6.24,2021-12-17 17:39:43.718750
2617,-6.53,2021-12-17 17:39:43.734375
2618,-6.27,2021-12-17 17:39:43.750000
2619,-5.52,2021-12-17 17:39:43.765625
2620,-4.57,2021-12-17 17:39:43.781250
2621,-3.67,2021-12-17 17:39:43.796875
2622,-2.58,2021-12-17 17:39:43.812500
2623,-0.66,2021-12-17 17:39:43.828125
2624,2.94,2021-12-17 17:39:43.843750
2625,8.7,2021-12-17 17:39:43.859375
2626,16.46,2021-12-17 17:39:43.875000
2627,25.27,2021-12-17 17:39:43.890625
2628,33.72,2021-12-17 17:39:43.906250
2629,40.44,2021-12-17 17:39:43.921875
2630,44.58,2021-12-17 17:39:43.937500
2631,46.11,2021-12-17 17:39:43.953125
2632,45.87,2021-12-17 17:39:43.968750
2633,45.59,2021-12-17 17:39:43.984375
2634,47.58,2021-12-17 17:39:44.000000
2635,54.31,2021-12-17 17:39:44.015625
2636,67.53,2021-12-17 17:39:44.031250
2637,87.34,2021-12-17 17:39:44.046875
2638,111.63,2021-12-17 17:39:44.062500
2639,136.32,2021-12-17 17:39:44.078125
2640,156.47,2021-12-17 17:39:44.093750
2641,168.02,2021-12-17 17:39:44.109375
2642,169.13,2021-12-17 17:39:44.125000
2643,160.56,2021-12-17 17:39:44.140625
2644,144.94,2021-12-17 17:39:44.156250
2645,125.56,2021-12-17 17:39:44.171875
2646,105.2,2021-12-17 17:39:44.187500
2647,85.71,2021-12-17 17:39:44.203125
2648,68.04,2021-12-17 17:39:44.218750
2649,52.59,2021-12-17 17:39:44.234375
2650,39.37,2021-12-17 17:39:44.250000
2651,28.09,2021-12-17 17:39:44.265625
2652,18.12,2021-12-17 17:39:44.281250
2653,8.65,2021-12-17 17:39:44.296875
2654,-1.01,2021-12-17 17:39:44.312500
2655,-11.19,2021-12-17 17:39:44.328125
2656,-21.89,2021-12-17 17:39:44.343750
2657,-32.85,2021-12-17 17:39:44.359375
2658,-43.66,2021-12-17 17:39:44.375000
2659,-53.66,2021-12-17 17:39:44.390625
2660,-61.82,2021-12-17 17:39:44.406250
2661,-66.9,2021-12-17 17:39:44.421875
2662,-67.95,2021-12-17 17:39:44.437500
2663,-64.88,2021-12-17 17:39:44.453125
2664,-58.84,2021-12-17 17:39:44.468750
2665,-51.84,2021-12-17 17:39:44.484375
2666,-45.89,2021-12-17 17:39:44.500000
2667,-42.27,2021-12-17 17:39:44.515625
2668,-40.96,2021-12-17 17:39:44.531250
2669,-40.98,2021-12-17 17:39:44.546875
2670,-41.07,2021-12-17 17:39:44.562500
2671,-40.35,2021-12-17 17:39:44.578125
2672,-38.59,2021-12-17 17:39:44.593750
2673,-36.08,2021-12-17 17:39:44.609375
2674,-33.21,2021-12-17 17:39:44.625000
2675,-30.17,2021-12-17 17:39:44.640625
2676,-26.91,2021-12-17 17:39:44.656250
2677,-23.34,2021-12-17 17:39:44.671875
2678,-19.6,2021-12-17 17:39:44.687500
2679,-16.16,2021-12-17 17:39:44.703125
2680,-13.74,2021-12-17 17:39:44.718750
2681,-13.13,2021-12-17 17:39:44.734375
2682,-14.75,2021-12-17 17:39:44.750000
2683,-18.5,2021-12-17 17:39:44.765625
2684,-23.69,2021-12-17 17:39:44.781250
2685,-29.29,2021-12-17 17:39:44.796875
2686,-34.34,2021-12-17 17:39:44.812500
2687,-38.3,2021-12-17 17:39:44.828125
2688,-41.2,2021-12-17 17:39:44.843750
2689,-43.45,2021-12-17 17:39:44.859375
2690,-45.49,2021-12-17 17:39:44.875000
2691,-47.43,2021-12-17 17:39:44.890625
2692,-48.94,2021-12-17 17:39:44.906250
2693,-49.4,2021-12-17 17:39:44.921875
2694,-48.35,2021-12-17 17:39:44.937500
2695,-45.74,2021-12-17 17:39:44.953125
2696,-41.99,2021-12-17 17:39:44.968750
2697,-37.78,2021-12-17 17:39:44.984375
2698,-33.6,2021-12-17 17:39:45.000000
2699,-29.66,2021-12-17 17:39:45.015625
2700,-25.85,2021-12-17 17:39:45.031250
2701,-22.03,2021-12-17 17:39:45.046875
2702,-18.16,2021-12-17 17:39:45.062500
2703,-14.45,2021-12-17 17:39:45.078125
2704,-11.24,2021-12-17 17:39:45.093750
2705,-8.82,2021-12-17 17:39:45.109375
2706,-7.34,2021-12-17 17:39:45.125000
2707,-6.85,2021-12-17 17:39:45.140625
2708,-7.35,2021-12-17 17:39:45.156250
2709,-8.85,2021-12-17 17:39:45.171875
2710,-11.39,2021-12-17 17:39:45.187500
2711,-14.88,2021-12-17 17:39:45.203125
2712,-18.99,2021-12-17 17:39:45.218750
2713,-23.19,2021-12-17 17:39:45.234375
2714,-26.91,2021-12-17 17:39:45.250000
2715,-29.76,2021-12-17 17:39:45.265625
2716,-31.71,2021-12-17 17:39:45.281250
2717,-33.07,2021-12-17 17:39:45.296875
2718,-34.26,2021-12-17 17:39:45.312500
2719,-35.48,2021-12-17 17:39:45.328125
2720,-36.49,2021-12-17 17:39:45.343750
2721,-36.73,2021-12-17 17:39:45.359375
2722,-35.64,2021-12-17 17:39:45.375000
2723,-33.04,2021-12-17 17:39:45.390625
2724,-29.22,2021-12-17 17:39:45.406250
2725,-24.91,2021-12-17 17:39:45.421875
2726,-20.8,2021-12-17 17:39:45.437500
2727,-17.27,2021-12-17 17:39:45.453125
2728,-14.17,2021-12-17 17:39:45.468750
2729,-10.94,2021-12-17 17:39:45.484375
2730,-6.88,2021-12-17 17:39:45.500000
2731,-1.48,2021-12-17 17:39:45.515625
2732,5.6,2021-12-17 17:39:45.531250
2733,14.53,2021-12-17 17:39:45.546875
2734,25.33,2021-12-17 17:39:45.562500
2735,37.67,2021-12-17 17:39:45.578125
2736,50.6,2021-12-17 17:39:45.593750
2737,62.46,2021-12-17 17:39:45.609375
2738,71.15,2021-12-17 17:39:45.625000
2739,74.83,2021-12-17 17:39:45.640625
2740,72.68,2021-12-17 17:39:45.656250
2741,65.33,2021-12-17 17:39:45.671875
2742,54.7,2021-12-17 17:39:45.687500
2743,43.37,2021-12-17 17:39:45.703125
2744,33.63,2021-12-17 17:39:45.718750
2745,26.86,2021-12-17 17:39:45.734375
2746,23.29,2021-12-17 17:39:45.750000
2747,22.33,2021-12-17 17:39:45.765625
2748,23.07,2021-12-17 17:39:45.781250
2749,24.85,2021-12-17 17:39:45.796875
2750,27.4,2021-12-17 17:39:45.812500
2751,30.74,2021-12-17 17:39:45.828125
2752,34.89,2021-12-17 17:39:45.843750
2753,39.66,2021-12-17 17:39:45.859375
2754,44.57,2021-12-17 17:39:45.875000
2755,49.02,2021-12-17 17:39:45.890625
2756,52.59,2021-12-17 17:39:45.906250
2757,55.2,2021-12-17 17:39:45.921875
2758,57.16,2021-12-17 17:39:45.937500
2759,58.96,2021-12-17 17:39:45.953125
2760,60.99,2021-12-17 17:39:45.968750
2761,63.26,2021-12-17 17:39:45.984375
2762,65.44,2021-12-17 17:39:46.000000
2763,66.96,2021-12-17 17:39:46.015625
2764,67.34,2021-12-17 17:39:46.031250
2765,66.55,2021-12-17 17:39:46.046875
2766,65.03,2021-12-17 17:39:46.062500
2767,63.58,2021-12-17 17:39:46.078125
2768,62.86,2021-12-17 17:39:46.093750
2769,62.98,2021-12-17 17:39:46.109375
2770,63.24,2021-12-17 17:39:46.125000
2771,62.44,2021-12-17 17:39:46.140625
2772,59.5,2021-12-17 17:39:46.156250
2773,54.17,2021-12-17 17:39:46.171875
2774,47.21,2021-12-17 17:39:46.187500
2775,39.9,2021-12-17 17:39:46.203125
2776,33.26,2021-12-17 17:39:46.218750
2777,27.36,2021-12-17 17:39:46.234375
2778,21.46,2021-12-17 17:39:46.250000
2779,14.77,2021-12-17 17:39:46.265625
2780,7.44,2021-12-17 17:39:46.281250
2781,0.95,2021-12-17 17:39:46.296875
2782,-2.44,2021-12-17 17:39:46.312500
2783,-0.85,2021-12-17 17:39:46.328125
2784,6.24,2021-12-17 17:39:46.343750
2785,17.53,2021-12-17 17:39:46.359375
2786,30.44,2021-12-17 17:39:46.375000
2787,42.2,2021-12-17 17:39:46.390625
2788,50.74,2021-12-17 17:39:46.406250
2789,55.11,2021-12-17 17:39:46.421875
2790,55.23,2021-12-17 17:39:46.437500
2791,51.44,2021-12-17 17:39:46.453125
2792,44.36,2021-12-17 17:39:46.468750
2793,34.73,2021-12-17 17:39:46.484375
2794,23.52,2021-12-17 17:39:46.500000
2795,11.8,2021-12-17 17:39:46.515625
2796,0.51,2021-12-17 17:39:46.531250
2797,-9.64,2021-12-17 17:39:46.546875
2798,-18.38,2021-12-17 17:39:46.562500
2799,-25.75,2021-12-17 17:39:46.578125
2800,-32.16,2021-12-17 17:39:46.593750
2801,-38.14,2021-12-17 17:39:46.609375
2802,-44.38,2021-12-17 17:39:46.625000
2803,-51.39,2021-12-17 17:39:46.640625
2804,-59.37,2021-12-17 17:39:46.656250
2805,-68.03,2021-12-17 17:39:46.671875
2806,-76.56,2021-12-17 17:39:46.687500
2807,-83.8,2021-12-17 17:39:46.703125
2808,-88.52,2021-12-17 17:39:46.718750
2809,-89.77,2021-12-17 17:39:46.734375
2810,-87.28,2021-12-17 17:39:46.750000
2811,-81.56,2021-12-17 17:39:46.765625
2812,-73.82,2021-12-17 17:39:46.781250
2813,-65.5,2021-12-17 17:39:46.796875
2814,-57.99,2021-12-17 17:39:46.812500
2815,-52.2,2021-12-17 17:39:46.828125
2816,-48.45,2021-12-17 17:39:46.843750
2817,-46.49,2021-12-17 17:39:46.859375
2818,-45.9,2021-12-17 17:39:46.875000
2819,-46.3,2021-12-17 17:39:46.890625
2820,-47.5,2021-12-17 17:39:46.906250
2821,-49.24,2021-12-17 17:39:46.921875
2822,-51.02,2021-12-17 17:39:46.937500
2823,-51.87,2021-12-17 17:39:46.953125
2824,-50.67,2021-12-17 17:39:46.968750
2825,-46.63,2021-12-17 17:39:46.984375
2826,-39.74,2021-12-17 17:39:47.000000
2827,-31.03,2021-12-17 17:39:47.015625
2828,-22.13,2021-12-17 17:39:47.031250
2829,-14.71,2021-12-17 17:39:47.046875
2830,-9.81,2021-12-17 17:39:47.062500
2831,-7.62,2021-12-17 17:39:47.078125
2832,-7.63,2021-12-17 17:39:47.093750
2833,-8.97,2021-12-17 17:39:47.109375
2834,-10.82,2021-12-17 17:39:47.125000
2835,-12.6,2021-12-17 17:39:47.140625
2836,-14.01,2021-12-17 17:39:47.156250
2837,-14.9,2021-12-17 17:39:47.171875
2838,-15.15,2021-12-17 17:39:47.187500
2839,-14.7,2021-12-17 17:39:47.203125
2840,-13.58,2021-12-17 17:39:47.218750
2841,-12.01,2021-12-17 17:39:47.234375
2842,-10.34,2021-12-17 17:39:47.250000
2843,-8.9,2021-12-17 17:39:47.265625
2844,-7.89,2021-12-17 17:39:47.281250
2845,-7.29,2021-12-17 17:39:47.296875
2846,-6.96,2021-12-17 17:39:47.312500
2847,-6.75,2021-12-17 17:39:47.328125
2848,-6.58,2021-12-17 17:39:47.343750
2849,-6.49,2021-12-17 17:39:47.359375
2850,-6.59,2021-12-17 17:39:47.375000
2851,-6.93,2021-12-17 17:39:47.390625
2852,-7.56,2021-12-17 17:39:47.406250
2853,-8.42,2021-12-17 17:39:47.421875
2854,-9.41,2021-12-17 17:39:47.437500
2855,-10.34,2021-12-17 17:39:47.453125
2856,-10.89,2021-12-17 17:39:47.468750
2857,-10.78,2021-12-17 17:39:47.484375
2858,-9.8,2021-12-17 17:39:47.500000
2859,-7.92,2021-12-17 17:39:47.515625
2860,-5.37,2021-12-17 17:39:47.531250
2861,-2.53,2021-12-17 17:39:47.546875
2862,0.18,2021-12-17 17:39:47.562500
2863,2.48,2021-12-17 17:39:47.578125
2864,4.19,2021-12-17 17:39:47.593750
2865,5.21,2021-12-17 17:39:47.609375
2866,5.44,2021-12-17 17:39:47.625000
2867,4.79,2021-12-17 17:39:47.640625
2868,3.14,2021-12-17 17:39:47.656250
2869,0.45,2021-12-17 17:39:47.671875
2870,-3.23,2021-12-17 17:39:47.687500
2871,-7.68,2021-12-17 17:39:47.703125
2872,-12.56,2021-12-17 17:39:47.718750
2873,-17.42,2021-12-17 17:39:47.734375
2874,-21.73,2021-12-17 17:39:47.750000
2875,-24.99,2021-12-17 17:39:47.765625
2876,-26.77,2021-12-17 17:39:47.781250
2877,-26.89,2021-12-17 17:39:47.796875
2878,-25.45,2021-12-17 17:39:47.812500
2879,-22.76,2021-12-17 17:39:47.828125
2880,-19.33,2021-12-17 17:39:47.843750
2881,-15.69,2021-12-17 17:39:47.859375
2882,-12.33,2021-12-17 17:39:47.875000
2883,-9.64,2021-12-17 17:39:47.890625
2884,-7.89,2021-12-17 17:39:47.906250
2885,-7.14,2021-12-17 17:39:47.921875
2886,-7.39,2021-12-17 17:39:47.937500
2887,-8.44,2021-12-17 17:39:47.953125
2888,-9.99,2021-12-17 17:39:47.968750
2889,-11.61,2021-12-17 17:39:47.984375
2890,-12.81,2021-12-17 17:39:48.000000
2891,-13.08,2021-12-17 17:39:48.015625
2892,-12.11,2021-12-17 17:39:48.031250
2893,-9.99,2021-12-17 17:39:48.046875
2894,-7.34,2021-12-17 17:39:48.062500
2895,-5.24,2021-12-17 17:39:48.078125
2896,-4.85,2021-12-17 17:39:48.093750
2897,-6.99,2021-12-17 17:39:48.109375
2898,-11.72,2021-12-17 17:39:48.125000
2899,-18.29,2021-12-17 17:39:48.140625
2900,-25.38,2021-12-17 17:39:48.156250
2901,-31.6,2021-12-17 17:39:48.171875
2902,-35.98,2021-12-17 17:39:48.187500
2903,-38.26,2021-12-17 17:39:48.203125
2904,-38.87,2021-12-17 17:39:48.218750
2905,-38.81,2021-12-17 17:39:48.234375
2906,-39.43,2021-12-17 17:39:48.250000
2907,-42.41,2021-12-17 17:39:48.265625
2908,-49.37,2021-12-17 17:39:48.281250
2909,-61.39,2021-12-17 17:39:48.296875
2910,-78.08,2021-12-17 17:39:48.312500
2911,-97.09,2021-12-17 17:39:48.328125
2912,-114.23,2021-12-17 17:39:48.343750
2913,-124.72,2021-12-17 17:39:48.359375
2914,-125.06,2021-12-17 17:39:48.375000
2915,-114.51,2021-12-17 17:39:48.390625
2916,-95.56,2021-12-17 17:39:48.406250
2917,-72.84,2021-12-17 17:39:48.421875
2918,-51.31,2021-12-17 17:39:48.437500
2919,-34.53,2021-12-17 17:39:48.453125
2920,-23.81,2021-12-17 17:39:48.468750
2921,-18.58,2021-12-17 17:39:48.484375
2922,-17.36,2021-12-17 17:39:48.500000
2923,-18.71,2021-12-17 17:39:48.515625
2924,-21.65,2021-12-17 17:39:48.531250
2925,-25.38,2021-12-17 17:39:48.546875
2926,-28.64,2021-12-17 17:39:48.562500
2927,-29.55,2021-12-17 17:39:48.578125
2928,-25.89,2021-12-17 17:39:48.593750
2929,-16.08,2021-12-17 17:39:48.609375
2930,-0.05,2021-12-17 17:39:48.625000
2931,20.29,2021-12-17 17:39:48.640625
2932,41.41,2021-12-17 17:39:48.656250
2933,59.34,2021-12-17 17:39:48.671875
2934,71.04,2021-12-17 17:39:48.687500
2935,75.6,2021-12-17 17:39:48.703125
2936,74.28,2021-12-17 17:39:48.718750
2937,69.72,2021-12-17 17:39:48.734375
2938,64.51,2021-12-17 17:39:48.750000
2939,59.98,2021-12-17 17:39:48.765625
2940,55.94,2021-12-17 17:39:48.781250
2941,51.36,2021-12-17 17:39:48.796875
2942,45.55,2021-12-17 17:39:48.812500
2943,38.88,2021-12-17 17:39:48.828125
2944,32.77,2021-12-17 17:39:48.843750
2945,28.96,2021-12-17 17:39:48.859375
2946,28.5,2021-12-17 17:39:48.875000
2947,31.21,2021-12-17 17:39:48.890625
2948,35.73,2021-12-17 17:39:48.906250
2949,40.27,2021-12-17 17:39:48.921875
2950,43.37,2021-12-17 17:39:48.937500
2951,44.48,2021-12-17 17:39:48.953125
2952,43.91,2021-12-17 17:39:48.968750
2953,42.39,2021-12-17 17:39:48.984375
2954,40.66,2021-12-17 17:39:49.000000
2955,39.11,2021-12-17 17:39:49.015625
2956,37.92,2021-12-17 17:39:49.031250
2957,37.15,2021-12-17 17:39:49.046875
2958,36.9,2021-12-17 17:39:49.062500
2959,37.34,2021-12-17 17:39:49.078125
2960,38.54,2021-12-17 17:39:49.093750
2961,40.45,2021-12-17 17:39:49.109375
2962,42.89,2021-12-17 17:39:49.125000
2963,45.61,2021-12-17 17:39:49.140625
2964,48.45,2021-12-17 17:39:49.156250
2965,51.34,2021-12-17 17:39:49.171875
2966,54.24,2021-12-17 17:39:49.187500
2967,57.2,2021-12-17 17:39:49.203125
2968,60.18,2021-12-17 17:39:49.218750
2969,63.14,2021-12-17 17:39:49.234375
2970,65.91,2021-12-17 17:39:49.250000
2971,68.15,2021-12-17 17:39:49.265625
2972,69.33,2021-12-17 17:39:49.281250
2973,68.78,2021-12-17 17:39:49.296875
2974,65.85,2021-12-17 17:39:49.312500
2975,60.15,2021-12-17 17:39:49.328125
2976,51.81,2021-12-17 17:39:49.343750
2977,41.55,2021-12-17 17:39:49.359375
2978,30.47,2021-12-17 17:39:49.375000
2979,19.6,2021-12-17 17:39:49.390625
2980,9.46,2021-12-17 17:39:49.406250
2981,-0.22,2021-12-17 17:39:49.421875
2982,-10.23,2021-12-17 17:39:49.437500
2983,-21.42,2021-12-17 17:39:49.453125
2984,-34.0,2021-12-17 17:39:49.468750
2985,-47.25,2021-12-17 17:39:49.484375
2986,-59.57,2021-12-17 17:39:49.500000
2987,-69.12,2021-12-17 17:39:49.515625
2988,-74.59,2021-12-17 17:39:49.531250
2989,-75.68,2021-12-17 17:39:49.546875
2990,-73.13,2021-12-17 17:39:49.562500
2991,-68.19,2021-12-17 17:39:49.578125
2992,-61.98,2021-12-17 17:39:49.593750
2993,-55.05,2021-12-17 17:39:49.609375
2994,-47.35,2021-12-17 17:39:49.625000
2995,-38.62,2021-12-17 17:39:49.640625
2996,-28.8,2021-12-17 17:39:49.656250
2997,-18.24,2021-12-17 17:39:49.671875
2998,-7.57,2021-12-17 17:39:49.687500
2999,2.64,2021-12-17 17:39:49.703125
3000,12.08,2021-12-17 17:39:49.718750
3001,20.75,2021-12-17 17:39:49.734375
3002,28.73,2021-12-17 17:39:49.750000
3003,35.74,2021-12-17 17:39:49.765625
3004,41.12,2021-12-17 17:39:49.781250
3005,43.95,2021-12-17 17:39:49.796875
3006,43.54,2021-12-17 17:39:49.812500
3007,39.82,2021-12-17 17:39:49.828125
3008,33.52,2021-12-17 17:39:49.843750
3009,25.97,2021-12-17 17:39:49.859375
3010,18.76,2021-12-17 17:39:49.875000
3011,13.32,2021-12-17 17:39:49.890625
3012,10.57,2021-12-17 17:39:49.906250
3013,10.85,2021-12-17 17:39:49.921875
3014,13.93,2021-12-17 17:39:49.937500
3015,19.2,2021-12-17 17:39:49.953125
3016,25.81,2021-12-17 17:39:49.968750
3017,32.92,2021-12-17 17:39:49.984375
3018,39.84,2021-12-17 17:39:50.000000
3019,46.13,2021-12-17 17:39:50.015625
3020,51.54,2021-12-17 17:39:50.031250
3021,55.92,2021-12-17 17:39:50.046875
3022,59.14,2021-12-17 17:39:50.062500
3023,61.01,2021-12-17 17:39:50.078125
3024,61.28,2021-12-17 17:39:50.093750
3025,59.82,2021-12-17 17:39:50.109375
3026,56.7,2021-12-17 17:39:50.125000
3027,52.24,2021-12-17 17:39:50.140625
3028,47.08,2021-12-17 17:39:50.156250
3029,42.03,2021-12-17 17:39:50.171875
3030,37.88,2021-12-17 17:39:50.187500
3031,35.23,2021-12-17 17:39:50.203125
3032,34.29,2021-12-17 17:39:50.218750
3033,34.76,2021-12-17 17:39:50.234375
3034,36.01,2021-12-17 17:39:50.250000
3035,37.18,2021-12-17 17:39:50.265625
3036,37.49,2021-12-17 17:39:50.281250
3037,36.34,2021-12-17 17:39:50.296875
3038,33.42,2021-12-17 17:39:50.312500
3039,28.65,2021-12-17 17:39:50.328125
3040,22.2,2021-12-17 17:39:50.343750
3041,14.38,2021-12-17 17:39:50.359375
3042,5.64,2021-12-17 17:39:50.375000
3043,-3.49,2021-12-17 17:39:50.390625
3044,-12.48,2021-12-17 17:39:50.406250
3045,-20.94,2021-12-17 17:39:50.421875
3046,-28.54,2021-12-17 17:39:50.437500
3047,-35.14,2021-12-17 17:39:50.453125
3048,-40.7,2021-12-17 17:39:50.468750
3049,-45.34,2021-12-17 17:39:50.484375
3050,-49.32,2021-12-17 17:39:50.500000
3051,-52.92,2021-12-17 17:39:50.515625
3052,-56.37,2021-12-17 17:39:50.531250
3053,-59.71,2021-12-17 17:39:50.546875
3054,-62.73,2021-12-17 17:39:50.562500
3055,-65.04,2021-12-17 17:39:50.578125
3056,-66.27,2021-12-17 17:39:50.593750
3057,-66.19,2021-12-17 17:39:50.609375
3058,-64.79,2021-12-17 17:39:50.625000
3059,-62.16,2021-12-17 17:39:50.640625
3060,-58.31,2021-12-17 17:39:50.656250
3061,-53.13,2021-12-17 17:39:50.671875
3062,-46.62,2021-12-17 17:39:50.687500
3063,-39.03,2021-12-17 17:39:50.703125
3064,-31.05,2021-12-17 17:39:50.718750
3065,-23.62,2021-12-17 17:39:50.734375
3066,-17.56,2021-12-17 17:39:50.750000
3067,-13.07,2021-12-17 17:39:50.765625
3068,-9.49,2021-12-17 17:39:50.781250
3069,-5.54,2021-12-17 17:39:50.796875
3070,0.13,2021-12-17 17:39:50.812500
3071,8.2,2021-12-17 17:39:50.828125
3072,18.32,2021-12-17 17:39:50.843750
3073,29.1,2021-12-17 17:39:50.859375
3074,38.61,2021-12-17 17:39:50.875000
3075,45.11,2021-12-17 17:39:50.890625
3076,47.64,2021-12-17 17:39:50.906250
3077,46.34,2021-12-17 17:39:50.921875
3078,42.34,2021-12-17 17:39:50.937500
3079,37.43,2021-12-17 17:39:50.953125
3080,33.51,2021-12-17 17:39:50.968750
3081,31.96,2021-12-17 17:39:50.984375
3082,33.24,2021-12-17 17:39:51.000000
3083,36.63,2021-12-17 17:39:51.015625
3084,40.55,2021-12-17 17:39:51.031250
3085,43.03,2021-12-17 17:39:51.046875
3086,42.41,2021-12-17 17:39:51.062500
3087,37.87,2021-12-17 17:39:51.078125
3088,29.62,2021-12-17 17:39:51.093750
3089,18.71,2021-12-17 17:39:51.109375
3090,6.57,2021-12-17 17:39:51.125000
3091,-5.39,2021-12-17 17:39:51.140625
3092,-16.13,2021-12-17 17:39:51.156250
3093,-24.91,2021-12-17 17:39:51.171875
3094,-31.4,2021-12-17 17:39:51.187500
3095,-35.58,2021-12-17 17:39:51.203125
3096,-37.84,2021-12-17 17:39:51.218750
3097,-38.95,2021-12-17 17:39:51.234375
3098,-39.84,2021-12-17 17:39:51.250000
3099,-41.23,2021-12-17 17:39:51.265625
3100,-43.2,2021-12-17 17:39:51.281250
3101,-45.09,2021-12-17 17:39:51.296875
3102,-45.98,2021-12-17 17:39:51.312500
3103,-45.39,2021-12-17 17:39:51.328125
3104,-43.76,2021-12-17 17:39:51.343750
3105,-42.48,2021-12-17 17:39:51.359375
3106,-43.11,2021-12-17 17:39:51.375000
3107,-46.4,2021-12-17 17:39:51.390625
3108,-51.62,2021-12-17 17:39:51.406250
3109,-56.66,2021-12-17 17:39:51.421875
3110,-59.0,2021-12-17 17:39:51.437500
3111,-56.76,2021-12-17 17:39:51.453125
3112,-49.58,2021-12-17 17:39:51.468750
3113,-38.57,2021-12-17 17:39:51.484375
3114,-25.64,2021-12-17 17:39:51.500000
3115,-12.73,2021-12-17 17:39:51.515625
3116,-1.21,2021-12-17 17:39:51.531250
3117,7.99,2021-12-17 17:39:51.546875
3118,14.08,2021-12-17 17:39:51.562500
3119,16.32,2021-12-17 17:39:51.578125
3120,14.17,2021-12-17 17:39:51.593750
3121,7.86,2021-12-17 17:39:51.609375
3122,-1.38,2021-12-17 17:39:51.625000
3123,-11.52,2021-12-17 17:39:51.640625
3124,-20.43,2021-12-17 17:39:51.656250
3125,-26.68,2021-12-17 17:39:51.671875
3126,-30.03,2021-12-17 17:39:51.687500
3127,-31.28,2021-12-17 17:39:51.703125
3128,-31.72,2021-12-17 17:39:51.718750
3129,-32.41,2021-12-17 17:39:51.734375
3130,-33.66,2021-12-17 17:39:51.750000
3131,-35.26,2021-12-17 17:39:51.765625
3132,-36.73,2021-12-17 17:39:51.781250
3133,-37.72,2021-12-17 17:39:51.796875
3134,-38.14,2021-12-17 17:39:51.812500
3135,-37.87,2021-12-17 17:39:51.828125
3136,-36.59,2021-12-17 17:39:51.843750
3137,-33.72,2021-12-17 17:39:51.859375
3138,-28.75,2021-12-17 17:39:51.875000
3139,-21.56,2021-12-17 17:39:51.890625
3140,-12.66,2021-12-17 17:39:51.906250
3141,-3.0,2021-12-17 17:39:51.921875
3142,6.27,2021-12-17 17:39:51.937500
3143,14.2,2021-12-17 17:39:51.953125
3144,20.16,2021-12-17 17:39:51.968750
3145,23.89,2021-12-17 17:39:51.984375
3146,25.34,2021-12-17 17:39:52.000000
3147,24.56,2021-12-17 17:39:52.015625
3148,21.7,2021-12-17 17:39:52.031250
3149,17.13,2021-12-17 17:39:52.046875
3150,11.49,2021-12-17 17:39:52.062500
3151,5.69,2021-12-17 17:39:52.078125
3152,0.71,2021-12-17 17:39:52.093750
3153,-2.67,2021-12-17 17:39:52.109375
3154,-4.07,2021-12-17 17:39:52.125000
3155,-3.63,2021-12-17 17:39:52.140625
3156,-1.94,2021-12-17 17:39:52.156250
3157,0.17,2021-12-17 17:39:52.171875
3158,1.92,2021-12-17 17:39:52.187500
3159,2.89,2021-12-17 17:39:52.203125
3160,3.22,2021-12-17 17:39:52.218750
3161,3.56,2021-12-17 17:39:52.234375
