,BVP,time
0,35.6,2021-12-17 16:56:36.484375
1,39.9,2021-12-17 16:56:36.500000
2,43.79,2021-12-17 16:56:36.515625
3,48.12,2021-12-17 16:56:36.531250
4,54.5,2021-12-17 16:56:36.546875
5,64.6,2021-12-17 16:56:36.562500
6,79.27,2021-12-17 16:56:36.578125
7,98.7,2021-12-17 16:56:36.593750
8,121.67,2021-12-17 16:56:36.609375
9,145.76,2021-12-17 16:56:36.625000
10,167.88,2021-12-17 16:56:36.640625
11,185.08,2021-12-17 16:56:36.656250
12,195.1,2021-12-17 16:56:36.671875
13,196.98,2021-12-17 16:56:36.687500
14,191.24,2021-12-17 16:56:36.703125
15,179.58,2021-12-17 16:56:36.718750
16,164.61,2021-12-17 16:56:36.734375
17,148.54,2021-12-17 16:56:36.750000
18,132.55,2021-12-17 16:56:36.765625
19,116.63,2021-12-17 16:56:36.781250
20,100.17,2021-12-17 16:56:36.796875
21,82.67,2021-12-17 16:56:36.812500
22,64.55,2021-12-17 16:56:36.828125
23,47.63,2021-12-17 16:56:36.843750
24,35.04,2021-12-17 16:56:36.859375
25,30.55,2021-12-17 16:56:36.875000
26,36.86,2021-12-17 16:56:36.890625
27,54.1,2021-12-17 16:56:36.906250
28,79.06,2021-12-17 16:56:36.921875
29,105.75,2021-12-17 16:56:36.937500
30,127.15,2021-12-17 16:56:36.953125
31,137.6,2021-12-17 16:56:36.968750
32,134.61,2021-12-17 16:56:36.984375
33,119.37,2021-12-17 16:56:37.000000
34,95.9,2021-12-17 16:56:37.015625
35,69.26,2021-12-17 16:56:37.031250
36,43.87,2021-12-17 16:56:37.046875
37,22.79,2021-12-17 16:56:37.062500
38,7.8,2021-12-17 16:56:37.078125
39,-0.3,2021-12-17 16:56:37.093750
40,-1.48,2021-12-17 16:56:37.109375
41,3.12,2021-12-17 16:56:37.125000
42,11.05,2021-12-17 16:56:37.140625
43,18.77,2021-12-17 16:56:37.156250
44,22.61,2021-12-17 16:56:37.171875
45,20.0,2021-12-17 16:56:37.187500
46,10.34,2021-12-17 16:56:37.203125
47,-4.84,2021-12-17 16:56:37.218750
48,-22.54,2021-12-17 16:56:37.234375
49,-39.32,2021-12-17 16:56:37.250000
50,-52.29,2021-12-17 16:56:37.265625
51,-59.51,2021-12-17 16:56:37.281250
52,-60.03,2021-12-17 16:56:37.296875
53,-53.52,2021-12-17 16:56:37.312500
54,-40.23,2021-12-17 16:56:37.328125
55,-20.88,2021-12-17 16:56:37.343750
56,3.14,2021-12-17 16:56:37.359375
57,29.73,2021-12-17 16:56:37.375000
58,56.2,2021-12-17 16:56:37.390625
59,79.55,2021-12-17 16:56:37.406250
60,97.01,2021-12-17 16:56:37.421875
61,106.48,2021-12-17 16:56:37.437500
62,106.88,2021-12-17 16:56:37.453125
63,97.99,2021-12-17 16:56:37.468750
64,80.43,2021-12-17 16:56:37.484375
65,55.22,2021-12-17 16:56:37.500000
66,23.65,2021-12-17 16:56:37.515625
67,-12.99,2021-12-17 16:56:37.531250
68,-53.49,2021-12-17 16:56:37.546875
69,-96.54,2021-12-17 16:56:37.562500
70,-140.37,2021-12-17 16:56:37.578125
71,-182.29,2021-12-17 16:56:37.593750
72,-218.58,2021-12-17 16:56:37.609375
73,-245.04,2021-12-17 16:56:37.625000
74,-257.91,2021-12-17 16:56:37.640625
75,-255.18,2021-12-17 16:56:37.656250
76,-237.47,2021-12-17 16:56:37.671875
77,-208.04,2021-12-17 16:56:37.687500
78,-171.89,2021-12-17 16:56:37.703125
79,-134.25,2021-12-17 16:56:37.718750
80,-99.11,2021-12-17 16:56:37.734375
81,-68.59,2021-12-17 16:56:37.750000
82,-43.1,2021-12-17 16:56:37.765625
83,-22.12,2021-12-17 16:56:37.781250
84,-4.97,2021-12-17 16:56:37.796875
85,8.8,2021-12-17 16:56:37.812500
86,19.48,2021-12-17 16:56:37.828125
87,27.62,2021-12-17 16:56:37.843750
88,34.04,2021-12-17 16:56:37.859375
89,39.78,2021-12-17 16:56:37.875000
90,45.62,2021-12-17 16:56:37.890625
91,51.66,2021-12-17 16:56:37.906250
92,57.27,2021-12-17 16:56:37.921875
93,61.37,2021-12-17 16:56:37.937500
94,62.96,2021-12-17 16:56:37.953125
95,61.63,2021-12-17 16:56:37.968750
96,57.88,2021-12-17 16:56:37.984375
97,52.81,2021-12-17 16:56:38.000000
98,47.73,2021-12-17 16:56:38.015625
99,43.7,2021-12-17 16:56:38.031250
100,41.24,2021-12-17 16:56:38.046875
101,40.39,2021-12-17 16:56:38.062500
102,40.84,2021-12-17 16:56:38.078125
103,42.18,2021-12-17 16:56:38.093750
104,44.06,2021-12-17 16:56:38.109375
105,46.25,2021-12-17 16:56:38.125000
106,48.66,2021-12-17 16:56:38.140625
107,51.34,2021-12-17 16:56:38.156250
108,54.39,2021-12-17 16:56:38.171875
109,57.81,2021-12-17 16:56:38.187500
110,61.34,2021-12-17 16:56:38.203125
111,64.41,2021-12-17 16:56:38.218750
112,66.32,2021-12-17 16:56:38.234375
113,66.46,2021-12-17 16:56:38.250000
114,64.59,2021-12-17 16:56:38.265625
115,60.93,2021-12-17 16:56:38.281250
116,56.15,2021-12-17 16:56:38.296875
117,51.07,2021-12-17 16:56:38.312500
118,46.39,2021-12-17 16:56:38.328125
119,42.45,2021-12-17 16:56:38.343750
120,39.06,2021-12-17 16:56:38.359375
121,35.83,2021-12-17 16:56:38.375000
122,32.33,2021-12-17 16:56:38.390625
123,28.38,2021-12-17 16:56:38.406250
124,24.04,2021-12-17 16:56:38.421875
125,19.66,2021-12-17 16:56:38.437500
126,15.67,2021-12-17 16:56:38.453125
127,12.4,2021-12-17 16:56:38.468750
128,10.02,2021-12-17 16:56:38.484375
129,8.5,2021-12-17 16:56:38.500000
130,7.65,2021-12-17 16:56:38.515625
131,7.26,2021-12-17 16:56:38.531250
132,7.09,2021-12-17 16:56:38.546875
133,6.99,2021-12-17 16:56:38.562500
134,6.83,2021-12-17 16:56:38.578125
135,6.57,2021-12-17 16:56:38.593750
136,6.1,2021-12-17 16:56:38.609375
137,5.35,2021-12-17 16:56:38.625000
138,4.17,2021-12-17 16:56:38.640625
139,2.47,2021-12-17 16:56:38.656250
140,0.19,2021-12-17 16:56:38.671875
141,-2.6,2021-12-17 16:56:38.687500
142,-5.63,2021-12-17 16:56:38.703125
143,-8.54,2021-12-17 16:56:38.718750
144,-10.85,2021-12-17 16:56:38.734375
145,-12.02,2021-12-17 16:56:38.750000
146,-11.4,2021-12-17 16:56:38.765625
147,-8.31,2021-12-17 16:56:38.781250
148,-2.0,2021-12-17 16:56:38.796875
149,8.18,2021-12-17 16:56:38.812500
150,22.64,2021-12-17 16:56:38.828125
151,41.37,2021-12-17 16:56:38.843750
152,63.69,2021-12-17 16:56:38.859375
153,88.41,2021-12-17 16:56:38.875000
154,113.94,2021-12-17 16:56:38.890625
155,138.84,2021-12-17 16:56:38.906250
156,162.12,2021-12-17 16:56:38.921875
157,183.49,2021-12-17 16:56:38.937500
158,203.21,2021-12-17 16:56:38.953125
159,221.79,2021-12-17 16:56:38.968750
160,239.47,2021-12-17 16:56:38.984375
161,255.96,2021-12-17 16:56:39.000000
162,270.39,2021-12-17 16:56:39.015625
163,281.51,2021-12-17 16:56:39.031250
164,288.06,2021-12-17 16:56:39.046875
165,289.07,2021-12-17 16:56:39.062500
166,284.08,2021-12-17 16:56:39.078125
167,273.14,2021-12-17 16:56:39.093750
168,256.86,2021-12-17 16:56:39.109375
169,236.29,2021-12-17 16:56:39.125000
170,212.75,2021-12-17 16:56:39.140625
171,187.58,2021-12-17 16:56:39.156250
172,161.66,2021-12-17 16:56:39.171875
173,135.2,2021-12-17 16:56:39.187500
174,107.52,2021-12-17 16:56:39.203125
175,77.56,2021-12-17 16:56:39.218750
176,44.7,2021-12-17 16:56:39.234375
177,9.76,2021-12-17 16:56:39.250000
178,-24.39,2021-12-17 16:56:39.265625
179,-53.23,2021-12-17 16:56:39.281250
180,-71.81,2021-12-17 16:56:39.296875
181,-76.58,2021-12-17 16:56:39.312500
182,-66.64,2021-12-17 16:56:39.328125
183,-44.18,2021-12-17 16:56:39.343750
184,-13.54,2021-12-17 16:56:39.359375
185,20.4,2021-12-17 16:56:39.375000
186,53.72,2021-12-17 16:56:39.390625
187,84.16,2021-12-17 16:56:39.406250
188,110.9,2021-12-17 16:56:39.421875
189,133.7,2021-12-17 16:56:39.437500
190,152.05,2021-12-17 16:56:39.453125
191,164.99,2021-12-17 16:56:39.468750
192,171.4,2021-12-17 16:56:39.484375
193,170.56,2021-12-17 16:56:39.500000
194,162.62,2021-12-17 16:56:39.515625
195,148.54,2021-12-17 16:56:39.531250
196,129.75,2021-12-17 16:56:39.546875
197,107.77,2021-12-17 16:56:39.562500
198,84.03,2021-12-17 16:56:39.578125
199,59.75,2021-12-17 16:56:39.593750
200,36.06,2021-12-17 16:56:39.609375
201,13.94,2021-12-17 16:56:39.625000
202,-5.84,2021-12-17 16:56:39.640625
203,-22.88,2021-12-17 16:56:39.656250
204,-37.49,2021-12-17 16:56:39.671875
205,-50.53,2021-12-17 16:56:39.687500
206,-63.42,2021-12-17 16:56:39.703125
207,-77.77,2021-12-17 16:56:39.718750
208,-95.0,2021-12-17 16:56:39.734375
209,-115.9,2021-12-17 16:56:39.750000
210,-140.44,2021-12-17 16:56:39.765625
211,-167.79,2021-12-17 16:56:39.781250
212,-196.47,2021-12-17 16:56:39.796875
213,-224.74,2021-12-17 16:56:39.812500
214,-250.82,2021-12-17 16:56:39.828125
215,-273.2,2021-12-17 16:56:39.843750
216,-290.82,2021-12-17 16:56:39.859375
217,-303.19,2021-12-17 16:56:39.875000
218,-310.28,2021-12-17 16:56:39.890625
219,-312.69,2021-12-17 16:56:39.906250
220,-311.56,2021-12-17 16:56:39.921875
221,-308.43,2021-12-17 16:56:39.937500
222,-304.97,2021-12-17 16:56:39.953125
223,-302.49,2021-12-17 16:56:39.968750
224,-301.61,2021-12-17 16:56:39.984375
225,-302.06,2021-12-17 16:56:40.000000
226,-302.84,2021-12-17 16:56:40.015625
227,-302.46,2021-12-17 16:56:40.031250
228,-299.62,2021-12-17 16:56:40.046875
229,-293.51,2021-12-17 16:56:40.062500
230,-284.14,2021-12-17 16:56:40.078125
231,-272.16,2021-12-17 16:56:40.093750
232,-258.27,2021-12-17 16:56:40.109375
233,-242.94,2021-12-17 16:56:40.125000
234,-226.08,2021-12-17 16:56:40.140625
235,-207.4,2021-12-17 16:56:40.156250
236,-186.75,2021-12-17 16:56:40.171875
237,-164.7,2021-12-17 16:56:40.187500
238,-142.75,2021-12-17 16:56:40.203125
239,-123.14,2021-12-17 16:56:40.218750
240,-108.7,2021-12-17 16:56:40.234375
241,-102.44,2021-12-17 16:56:40.250000
242,-107.45,2021-12-17 16:56:40.265625
243,-126.26,2021-12-17 16:56:40.281250
244,-159.78,2021-12-17 16:56:40.296875
245,-205.82,2021-12-17 16:56:40.312500
246,-258.32,2021-12-17 16:56:40.328125
247,-307.91,2021-12-17 16:56:40.343750
248,-344.28,2021-12-17 16:56:40.359375
249,-359.63,2021-12-17 16:56:40.375000
250,-351.28,2021-12-17 16:56:40.390625
251,-322.27,2021-12-17 16:56:40.406250
252,-279.68,2021-12-17 16:56:40.421875
253,-231.59,2021-12-17 16:56:40.437500
254,-184.37,2021-12-17 16:56:40.453125
255,-141.5,2021-12-17 16:56:40.468750
256,-103.96,2021-12-17 16:56:40.484375
257,-71.46,2021-12-17 16:56:40.500000
258,-43.42,2021-12-17 16:56:40.515625
259,-19.12,2021-12-17 16:56:40.531250
260,2.56,2021-12-17 16:56:40.546875
261,23.3,2021-12-17 16:56:40.562500
262,44.88,2021-12-17 16:56:40.578125
263,68.19,2021-12-17 16:56:40.593750
264,92.58,2021-12-17 16:56:40.609375
265,115.86,2021-12-17 16:56:40.625000
266,135.09,2021-12-17 16:56:40.640625
267,147.25,2021-12-17 16:56:40.656250
268,150.28,2021-12-17 16:56:40.671875
269,143.34,2021-12-17 16:56:40.687500
270,127.02,2021-12-17 16:56:40.703125
271,103.28,2021-12-17 16:56:40.718750
272,75.34,2021-12-17 16:56:40.734375
273,47.27,2021-12-17 16:56:40.750000
274,23.55,2021-12-17 16:56:40.765625
275,8.23,2021-12-17 16:56:40.781250
276,4.2,2021-12-17 16:56:40.796875
277,12.78,2021-12-17 16:56:40.812500
278,33.8,2021-12-17 16:56:40.828125
279,65.79,2021-12-17 16:56:40.843750
280,106.08,2021-12-17 16:56:40.859375
281,150.67,2021-12-17 16:56:40.875000
282,193.87,2021-12-17 16:56:40.890625
283,228.82,2021-12-17 16:56:40.906250
284,248.55,2021-12-17 16:56:40.921875
285,248.11,2021-12-17 16:56:40.937500
286,226.45,2021-12-17 16:56:40.953125
287,187.29,2021-12-17 16:56:40.968750
288,138.2,2021-12-17 16:56:40.984375
289,88.36,2021-12-17 16:56:41.000000
290,45.96,2021-12-17 16:56:41.015625
291,15.92,2021-12-17 16:56:41.031250
292,-0.57,2021-12-17 16:56:41.046875
293,-5.75,2021-12-17 16:56:41.062500
294,-3.96,2021-12-17 16:56:41.078125
295,-0.19,2021-12-17 16:56:41.093750
296,1.17,2021-12-17 16:56:41.109375
297,-2.58,2021-12-17 16:56:41.125000
298,-11.79,2021-12-17 16:56:41.140625
299,-24.33,2021-12-17 16:56:41.156250
300,-36.47,2021-12-17 16:56:41.171875
301,-44.46,2021-12-17 16:56:41.187500
302,-46.3,2021-12-17 16:56:41.203125
303,-42.96,2021-12-17 16:56:41.218750
304,-38.4,2021-12-17 16:56:41.234375
305,-38.23,2021-12-17 16:56:41.250000
306,-47.86,2021-12-17 16:56:41.265625
307,-70.72,2021-12-17 16:56:41.281250
308,-107.37,2021-12-17 16:56:41.296875
309,-155.46,2021-12-17 16:56:41.312500
310,-209.91,2021-12-17 16:56:41.328125
311,-263.61,2021-12-17 16:56:41.343750
312,-308.37,2021-12-17 16:56:41.359375
313,-336.42,2021-12-17 16:56:41.375000
314,-342.21,2021-12-17 16:56:41.390625
315,-323.98,2021-12-17 16:56:41.406250
316,-284.36,2021-12-17 16:56:41.421875
317,-229.37,2021-12-17 16:56:41.437500
318,-166.42,2021-12-17 16:56:41.453125
319,-101.89,2021-12-17 16:56:41.468750
320,-39.78,2021-12-17 16:56:41.484375
321,18.2,2021-12-17 16:56:41.500000
322,71.46,2021-12-17 16:56:41.515625
323,119.08,2021-12-17 16:56:41.531250
324,159.27,2021-12-17 16:56:41.546875
325,190.11,2021-12-17 16:56:41.562500
326,210.78,2021-12-17 16:56:41.578125
327,222.33,2021-12-17 16:56:41.593750
328,227.29,2021-12-17 16:56:41.609375
329,228.45,2021-12-17 16:56:41.625000
330,227.43,2021-12-17 16:56:41.640625
331,224.43,2021-12-17 16:56:41.656250
332,218.73,2021-12-17 16:56:41.671875
333,209.78,2021-12-17 16:56:41.687500
334,198.23,2021-12-17 16:56:41.703125
335,185.89,2021-12-17 16:56:41.718750
336,174.88,2021-12-17 16:56:41.734375
337,166.44,2021-12-17 16:56:41.750000
338,160.21,2021-12-17 16:56:41.765625
339,154.46,2021-12-17 16:56:41.781250
340,147.27,2021-12-17 16:56:41.796875
341,137.56,2021-12-17 16:56:41.812500
342,125.86,2021-12-17 16:56:41.828125
343,114.06,2021-12-17 16:56:41.843750
344,104.41,2021-12-17 16:56:41.859375
345,98.49,2021-12-17 16:56:41.875000
346,96.57,2021-12-17 16:56:41.890625
347,97.64,2021-12-17 16:56:41.906250
348,99.81,2021-12-17 16:56:41.921875
349,101.22,2021-12-17 16:56:41.937500
350,100.48,2021-12-17 16:56:41.953125
351,97.18,2021-12-17 16:56:41.968750
352,91.76,2021-12-17 16:56:41.984375
353,84.95,2021-12-17 16:56:42.000000
354,77.35,2021-12-17 16:56:42.015625
355,69.17,2021-12-17 16:56:42.031250
356,60.17,2021-12-17 16:56:42.046875
357,50.1,2021-12-17 16:56:42.062500
358,39.23,2021-12-17 16:56:42.078125
359,28.34,2021-12-17 16:56:42.093750
360,18.72,2021-12-17 16:56:42.109375
361,11.58,2021-12-17 16:56:42.125000
362,7.5,2021-12-17 16:56:42.140625
363,6.34,2021-12-17 16:56:42.156250
364,7.43,2021-12-17 16:56:42.171875
365,9.86,2021-12-17 16:56:42.187500
366,12.92,2021-12-17 16:56:42.203125
367,16.15,2021-12-17 16:56:42.218750
368,19.17,2021-12-17 16:56:42.234375
369,21.65,2021-12-17 16:56:42.250000
370,23.23,2021-12-17 16:56:42.265625
371,23.68,2021-12-17 16:56:42.281250
372,23.14,2021-12-17 16:56:42.296875
373,22.12,2021-12-17 16:56:42.312500
374,21.33,2021-12-17 16:56:42.328125
375,21.47,2021-12-17 16:56:42.343750
376,23.03,2021-12-17 16:56:42.359375
377,26.21,2021-12-17 16:56:42.375000
378,31.07,2021-12-17 16:56:42.390625
379,37.67,2021-12-17 16:56:42.406250
380,46.0,2021-12-17 16:56:42.421875
381,56.01,2021-12-17 16:56:42.437500
382,67.34,2021-12-17 16:56:42.453125
383,79.27,2021-12-17 16:56:42.468750
384,90.7,2021-12-17 16:56:42.484375
385,100.68,2021-12-17 16:56:42.500000
386,109.23,2021-12-17 16:56:42.515625
387,117.0,2021-12-17 16:56:42.531250
388,125.0,2021-12-17 16:56:42.546875
389,134.26,2021-12-17 16:56:42.562500
390,145.35,2021-12-17 16:56:42.578125
391,157.81,2021-12-17 16:56:42.593750
392,170.19,2021-12-17 16:56:42.609375
393,180.4,2021-12-17 16:56:42.625000
394,186.87,2021-12-17 16:56:42.640625
395,189.82,2021-12-17 16:56:42.656250
396,190.8,2021-12-17 16:56:42.671875
397,191.94,2021-12-17 16:56:42.687500
398,195.16,2021-12-17 16:56:42.703125
399,201.3,2021-12-17 16:56:42.718750
400,209.66,2021-12-17 16:56:42.734375
401,218.05,2021-12-17 16:56:42.750000
402,222.98,2021-12-17 16:56:42.765625
403,220.98,2021-12-17 16:56:42.781250
404,210.69,2021-12-17 16:56:42.796875
405,191.93,2021-12-17 16:56:42.812500
406,165.25,2021-12-17 16:56:42.828125
407,132.56,2021-12-17 16:56:42.843750
408,96.97,2021-12-17 16:56:42.859375
409,62.43,2021-12-17 16:56:42.875000
410,33.16,2021-12-17 16:56:42.890625
411,11.12,2021-12-17 16:56:42.906250
412,-3.46,2021-12-17 16:56:42.921875
413,-9.79,2021-12-17 16:56:42.937500
414,-10.19,2021-12-17 16:56:42.953125
415,-10.42,2021-12-17 16:56:42.968750
416,-15.33,2021-12-17 16:56:42.984375
417,-26.58,2021-12-17 16:56:43.000000
418,-41.8,2021-12-17 16:56:43.015625
419,-56.1,2021-12-17 16:56:43.031250
420,-68.26,2021-12-17 16:56:43.046875
421,-79.9,2021-12-17 16:56:43.062500
422,-89.6,2021-12-17 16:56:43.078125
423,-99.18,2021-12-17 16:56:43.093750
424,-113.46,2021-12-17 16:56:43.109375
425,-133.68,2021-12-17 16:56:43.125000
426,-156.89,2021-12-17 16:56:43.140625
427,-177.64,2021-12-17 16:56:43.156250
428,-191.09,2021-12-17 16:56:43.171875
429,-200.72,2021-12-17 16:56:43.187500
430,-213.03,2021-12-17 16:56:43.203125
431,-225.25,2021-12-17 16:56:43.218750
432,-235.95,2021-12-17 16:56:43.234375
433,-248.4,2021-12-17 16:56:43.250000
434,-264.19,2021-12-17 16:56:43.265625
435,-284.18,2021-12-17 16:56:43.281250
436,-309.55,2021-12-17 16:56:43.296875
437,-342.1,2021-12-17 16:56:43.312500
438,-390.78,2021-12-17 16:56:43.328125
439,-463.02,2021-12-17 16:56:43.343750
440,-549.28,2021-12-17 16:56:43.359375
441,-639.13,2021-12-17 16:56:43.375000
442,-727.74,2021-12-17 16:56:43.390625
443,-809.25,2021-12-17 16:56:43.406250
444,-878.23,2021-12-17 16:56:43.421875
445,-931.09,2021-12-17 16:56:43.437500
446,-923.03,2021-12-17 16:56:43.453125
447,-823.78,2021-12-17 16:56:43.468750
448,-698.09,2021-12-17 16:56:43.484375
449,-584.97,2021-12-17 16:56:43.500000
450,-476.76,2021-12-17 16:56:43.515625
451,-374.01,2021-12-17 16:56:43.531250
452,-277.1,2021-12-17 16:56:43.546875
453,-186.65,2021-12-17 16:56:43.562500
454,-104.06,2021-12-17 16:56:43.578125
455,-31.47,2021-12-17 16:56:43.593750
456,21.75,2021-12-17 16:56:43.609375
457,47.25,2021-12-17 16:56:43.625000
458,52.62,2021-12-17 16:56:43.640625
459,45.03,2021-12-17 16:56:43.656250
460,25.24,2021-12-17 16:56:43.671875
461,-4.7,2021-12-17 16:56:43.687500
462,-41.5,2021-12-17 16:56:43.703125
463,-80.41,2021-12-17 16:56:43.718750
464,-115.32,2021-12-17 16:56:43.734375
465,-144.97,2021-12-17 16:56:43.750000
466,-168.68,2021-12-17 16:56:43.765625
467,-177.09,2021-12-17 16:56:43.781250
468,-165.72,2021-12-17 16:56:43.796875
469,-139.15,2021-12-17 16:56:43.812500
470,-103.27,2021-12-17 16:56:43.828125
471,-63.44,2021-12-17 16:56:43.843750
472,-23.18,2021-12-17 16:56:43.859375
473,15.87,2021-12-17 16:56:43.875000
474,49.86,2021-12-17 16:56:43.890625
475,75.52,2021-12-17 16:56:43.906250
476,96.64,2021-12-17 16:56:43.921875
477,116.19,2021-12-17 16:56:43.937500
478,133.46,2021-12-17 16:56:43.953125
479,148.0,2021-12-17 16:56:43.968750
480,159.31,2021-12-17 16:56:43.984375
481,166.98,2021-12-17 16:56:44.000000
482,171.04,2021-12-17 16:56:44.015625
483,170.81,2021-12-17 16:56:44.031250
484,167.03,2021-12-17 16:56:44.046875
485,164.64,2021-12-17 16:56:44.062500
486,168.03,2021-12-17 16:56:44.078125
487,178.21,2021-12-17 16:56:44.093750
488,194.29,2021-12-17 16:56:44.109375
489,213.68,2021-12-17 16:56:44.125000
490,233.27,2021-12-17 16:56:44.140625
491,250.4,2021-12-17 16:56:44.156250
492,262.9,2021-12-17 16:56:44.171875
493,269.68,2021-12-17 16:56:44.187500
494,271.61,2021-12-17 16:56:44.203125
495,270.15,2021-12-17 16:56:44.218750
496,266.83,2021-12-17 16:56:44.234375
497,264.43,2021-12-17 16:56:44.250000
498,266.28,2021-12-17 16:56:44.265625
499,274.55,2021-12-17 16:56:44.281250
500,287.86,2021-12-17 16:56:44.296875
501,300.06,2021-12-17 16:56:44.312500
502,301.41,2021-12-17 16:56:44.328125
503,282.63,2021-12-17 16:56:44.343750
504,240.05,2021-12-17 16:56:44.359375
505,178.66,2021-12-17 16:56:44.375000
506,111.5,2021-12-17 16:56:44.390625
507,55.01,2021-12-17 16:56:44.406250
508,22.84,2021-12-17 16:56:44.421875
509,21.03,2021-12-17 16:56:44.437500
510,46.72,2021-12-17 16:56:44.453125
511,90.04,2021-12-17 16:56:44.468750
512,137.97,2021-12-17 16:56:44.484375
513,177.72,2021-12-17 16:56:44.500000
514,198.91,2021-12-17 16:56:44.515625
515,194.57,2021-12-17 16:56:44.531250
516,162.07,2021-12-17 16:56:44.546875
517,104.02,2021-12-17 16:56:44.562500
518,28.84,2021-12-17 16:56:44.578125
519,-50.13,2021-12-17 16:56:44.593750
520,-117.57,2021-12-17 16:56:44.609375
521,-160.44,2021-12-17 16:56:44.625000
522,-171.37,2021-12-17 16:56:44.640625
523,-150.68,2021-12-17 16:56:44.656250
524,-105.44,2021-12-17 16:56:44.671875
525,-46.79,2021-12-17 16:56:44.687500
526,13.52,2021-12-17 16:56:44.703125
527,66.34,2021-12-17 16:56:44.718750
528,106.98,2021-12-17 16:56:44.734375
529,135.56,2021-12-17 16:56:44.750000
530,155.97,2021-12-17 16:56:44.765625
531,173.79,2021-12-17 16:56:44.781250
532,193.33,2021-12-17 16:56:44.796875
533,215.43,2021-12-17 16:56:44.812500
534,236.62,2021-12-17 16:56:44.828125
535,250.38,2021-12-17 16:56:44.843750
536,250.16,2021-12-17 16:56:44.859375
537,232.54,2021-12-17 16:56:44.875000
538,198.77,2021-12-17 16:56:44.890625
539,154.38,2021-12-17 16:56:44.906250
540,106.73,2021-12-17 16:56:44.921875
541,62.32,2021-12-17 16:56:44.937500
542,25.62,2021-12-17 16:56:44.953125
543,-0.82,2021-12-17 16:56:44.968750
544,-15.39,2021-12-17 16:56:44.984375
545,-16.98,2021-12-17 16:56:45.000000
546,-5.44,2021-12-17 16:56:45.015625
547,17.05,2021-12-17 16:56:45.031250
548,45.66,2021-12-17 16:56:45.046875
549,73.73,2021-12-17 16:56:45.062500
550,94.79,2021-12-17 16:56:45.078125
551,104.96,2021-12-17 16:56:45.093750
552,103.97,2021-12-17 16:56:45.109375
553,94.88,2021-12-17 16:56:45.125000
554,82.47,2021-12-17 16:56:45.140625
555,71.5,2021-12-17 16:56:45.156250
556,65.02,2021-12-17 16:56:45.171875
557,63.88,2021-12-17 16:56:45.187500
558,66.93,2021-12-17 16:56:45.203125
559,71.95,2021-12-17 16:56:45.218750
560,77.06,2021-12-17 16:56:45.234375
561,81.56,2021-12-17 16:56:45.250000
562,86.06,2021-12-17 16:56:45.265625
563,91.76,2021-12-17 16:56:45.281250
564,99.4,2021-12-17 16:56:45.296875
565,108.46,2021-12-17 16:56:45.312500
566,117.26,2021-12-17 16:56:45.328125
567,123.66,2021-12-17 16:56:45.343750
568,125.71,2021-12-17 16:56:45.359375
569,122.05,2021-12-17 16:56:45.375000
570,111.63,2021-12-17 16:56:45.390625
571,93.39,2021-12-17 16:56:45.406250
572,66.26,2021-12-17 16:56:45.421875
573,29.6,2021-12-17 16:56:45.437500
574,-16.1,2021-12-17 16:56:45.453125
575,-68.95,2021-12-17 16:56:45.468750
576,-125.87,2021-12-17 16:56:45.484375
577,-183.5,2021-12-17 16:56:45.500000
578,-239.06,2021-12-17 16:56:45.515625
579,-291.01,2021-12-17 16:56:45.531250
580,-338.89,2021-12-17 16:56:45.546875
581,-382.68,2021-12-17 16:56:45.562500
582,-422.24,2021-12-17 16:56:45.578125
583,-456.94,2021-12-17 16:56:45.593750
584,-485.94,2021-12-17 16:56:45.609375
585,-508.42,2021-12-17 16:56:45.625000
586,-523.84,2021-12-17 16:56:45.640625
587,-531.52,2021-12-17 16:56:45.656250
588,-530.29,2021-12-17 16:56:45.671875
589,-518.4,2021-12-17 16:56:45.687500
590,-493.9,2021-12-17 16:56:45.703125
591,-456.0,2021-12-17 16:56:45.718750
592,-406.07,2021-12-17 16:56:45.734375
593,-348.0,2021-12-17 16:56:45.750000
594,-287.27,2021-12-17 16:56:45.765625
595,-229.28,2021-12-17 16:56:45.781250
596,-177.67,2021-12-17 16:56:45.796875
597,-133.49,2021-12-17 16:56:45.812500
598,-95.69,2021-12-17 16:56:45.828125
599,-62.29,2021-12-17 16:56:45.843750
600,-31.73,2021-12-17 16:56:45.859375
601,-3.32,2021-12-17 16:56:45.875000
602,22.8,2021-12-17 16:56:45.890625
603,46.41,2021-12-17 16:56:45.906250
604,67.7,2021-12-17 16:56:45.921875
605,87.46,2021-12-17 16:56:45.937500
606,106.85,2021-12-17 16:56:45.953125
607,127.0,2021-12-17 16:56:45.968750
608,148.81,2021-12-17 16:56:45.984375
609,172.79,2021-12-17 16:56:46.000000
610,198.98,2021-12-17 16:56:46.015625
611,226.64,2021-12-17 16:56:46.031250
612,253.95,2021-12-17 16:56:46.046875
613,277.91,2021-12-17 16:56:46.062500
614,294.92,2021-12-17 16:56:46.078125
615,301.82,2021-12-17 16:56:46.093750
616,297.03,2021-12-17 16:56:46.109375
617,281.4,2021-12-17 16:56:46.125000
618,257.91,2021-12-17 16:56:46.140625
619,230.79,2021-12-17 16:56:46.156250
620,204.14,2021-12-17 16:56:46.171875
621,180.9,2021-12-17 16:56:46.187500
622,162.6,2021-12-17 16:56:46.203125
623,149.72,2021-12-17 16:56:46.218750
624,142.25,2021-12-17 16:56:46.234375
625,139.98,2021-12-17 16:56:46.250000
626,142.41,2021-12-17 16:56:46.265625
627,148.37,2021-12-17 16:56:46.281250
628,156.0,2021-12-17 16:56:46.296875
629,162.99,2021-12-17 16:56:46.312500
630,167.14,2021-12-17 16:56:46.328125
631,167.07,2021-12-17 16:56:46.343750
632,162.43,2021-12-17 16:56:46.359375
633,153.86,2021-12-17 16:56:46.375000
634,142.57,2021-12-17 16:56:46.390625
635,129.76,2021-12-17 16:56:46.406250
636,116.35,2021-12-17 16:56:46.421875
637,102.9,2021-12-17 16:56:46.437500
638,89.78,2021-12-17 16:56:46.453125
639,77.18,2021-12-17 16:56:46.468750
640,65.4,2021-12-17 16:56:46.484375
641,54.72,2021-12-17 16:56:46.500000
642,45.31,2021-12-17 16:56:46.515625
643,37.12,2021-12-17 16:56:46.531250
644,29.75,2021-12-17 16:56:46.546875
645,22.49,2021-12-17 16:56:46.562500
646,14.41,2021-12-17 16:56:46.578125
647,4.76,2021-12-17 16:56:46.593750
648,-6.84,2021-12-17 16:56:46.609375
649,-20.1,2021-12-17 16:56:46.625000
650,-34.06,2021-12-17 16:56:46.640625
651,-47.46,2021-12-17 16:56:46.656250
652,-58.89,2021-12-17 16:56:46.671875
653,-67.24,2021-12-17 16:56:46.687500
654,-71.78,2021-12-17 16:56:46.703125
655,-72.24,2021-12-17 16:56:46.718750
656,-68.74,2021-12-17 16:56:46.734375
657,-61.76,2021-12-17 16:56:46.750000
658,-52.12,2021-12-17 16:56:46.765625
659,-41.05,2021-12-17 16:56:46.781250
660,-29.96,2021-12-17 16:56:46.796875
661,-20.16,2021-12-17 16:56:46.812500
662,-12.53,2021-12-17 16:56:46.828125
663,-7.38,2021-12-17 16:56:46.843750
664,-4.48,2021-12-17 16:56:46.859375
665,-3.25,2021-12-17 16:56:46.875000
666,-2.99,2021-12-17 16:56:46.890625
667,-3.0,2021-12-17 16:56:46.906250
668,-2.67,2021-12-17 16:56:46.921875
669,-1.55,2021-12-17 16:56:46.937500
670,0.69,2021-12-17 16:56:46.953125
671,4.05,2021-12-17 16:56:46.968750
672,8.15,2021-12-17 16:56:46.984375
673,12.29,2021-12-17 16:56:47.000000
674,15.64,2021-12-17 16:56:47.015625
675,17.55,2021-12-17 16:56:47.031250
676,17.85,2021-12-17 16:56:47.046875
677,16.95,2021-12-17 16:56:47.062500
678,15.61,2021-12-17 16:56:47.078125
679,14.71,2021-12-17 16:56:47.093750
680,14.91,2021-12-17 16:56:47.109375
681,16.41,2021-12-17 16:56:47.125000
682,19.16,2021-12-17 16:56:47.140625
683,22.86,2021-12-17 16:56:47.156250
684,27.2,2021-12-17 16:56:47.171875
685,31.88,2021-12-17 16:56:47.187500
686,36.61,2021-12-17 16:56:47.203125
687,41.02,2021-12-17 16:56:47.218750
688,44.68,2021-12-17 16:56:47.234375
689,47.13,2021-12-17 16:56:47.250000
690,47.96,2021-12-17 16:56:47.265625
691,46.94,2021-12-17 16:56:47.281250
692,43.89,2021-12-17 16:56:47.296875
693,38.72,2021-12-17 16:56:47.312500
694,31.33,2021-12-17 16:56:47.328125
695,21.75,2021-12-17 16:56:47.343750
696,10.28,2021-12-17 16:56:47.359375
697,-2.38,2021-12-17 16:56:47.375000
698,-15.17,2021-12-17 16:56:47.390625
699,-26.84,2021-12-17 16:56:47.406250
700,-36.33,2021-12-17 16:56:47.421875
701,-43.02,2021-12-17 16:56:47.437500
702,-47.0,2021-12-17 16:56:47.453125
703,-48.98,2021-12-17 16:56:47.468750
704,-50.06,2021-12-17 16:56:47.484375
705,-51.22,2021-12-17 16:56:47.500000
706,-53.13,2021-12-17 16:56:47.515625
707,-55.94,2021-12-17 16:56:47.531250
708,-59.38,2021-12-17 16:56:47.546875
709,-62.99,2021-12-17 16:56:47.562500
710,-66.29,2021-12-17 16:56:47.578125
711,-68.82,2021-12-17 16:56:47.593750
712,-70.15,2021-12-17 16:56:47.609375
713,-69.87,2021-12-17 16:56:47.625000
714,-67.62,2021-12-17 16:56:47.640625
715,-63.32,2021-12-17 16:56:47.656250
716,-57.32,2021-12-17 16:56:47.671875
717,-50.36,2021-12-17 16:56:47.687500
718,-43.43,2021-12-17 16:56:47.703125
719,-37.53,2021-12-17 16:56:47.718750
720,-33.3,2021-12-17 16:56:47.734375
721,-30.91,2021-12-17 16:56:47.750000
722,-30.15,2021-12-17 16:56:47.765625
723,-30.55,2021-12-17 16:56:47.781250
724,-31.75,2021-12-17 16:56:47.796875
725,-33.57,2021-12-17 16:56:47.812500
726,-35.99,2021-12-17 16:56:47.828125
727,-39.08,2021-12-17 16:56:47.843750
728,-42.83,2021-12-17 16:56:47.859375
729,-47.04,2021-12-17 16:56:47.875000
730,-51.34,2021-12-17 16:56:47.890625
731,-55.26,2021-12-17 16:56:47.906250
732,-58.47,2021-12-17 16:56:47.921875
733,-60.79,2021-12-17 16:56:47.937500
734,-62.21,2021-12-17 16:56:47.953125
735,-62.73,2021-12-17 16:56:47.968750
736,-62.36,2021-12-17 16:56:47.984375
737,-61.06,2021-12-17 16:56:48.000000
738,-58.85,2021-12-17 16:56:48.015625
739,-55.88,2021-12-17 16:56:48.031250
740,-52.41,2021-12-17 16:56:48.046875
741,-48.79,2021-12-17 16:56:48.062500
742,-45.36,2021-12-17 16:56:48.078125
743,-42.26,2021-12-17 16:56:48.093750
744,-39.53,2021-12-17 16:56:48.109375
745,-37.08,2021-12-17 16:56:48.125000
746,-34.91,2021-12-17 16:56:48.140625
747,-33.13,2021-12-17 16:56:48.156250
748,-32.09,2021-12-17 16:56:48.171875
749,-32.2,2021-12-17 16:56:48.187500
750,-33.82,2021-12-17 16:56:48.203125
751,-37.08,2021-12-17 16:56:48.218750
752,-41.72,2021-12-17 16:56:48.234375
753,-47.12,2021-12-17 16:56:48.250000
754,-52.41,2021-12-17 16:56:48.265625
755,-56.65,2021-12-17 16:56:48.281250
756,-59.02,2021-12-17 16:56:48.296875
757,-59.19,2021-12-17 16:56:48.312500
758,-57.37,2021-12-17 16:56:48.328125
759,-54.4,2021-12-17 16:56:48.343750
760,-51.61,2021-12-17 16:56:48.359375
761,-50.36,2021-12-17 16:56:48.375000
762,-51.37,2021-12-17 16:56:48.390625
763,-54.28,2021-12-17 16:56:48.406250
764,-57.38,2021-12-17 16:56:48.421875
765,-57.89,2021-12-17 16:56:48.437500
766,-52.92,2021-12-17 16:56:48.453125
767,-40.24,2021-12-17 16:56:48.468750
768,-18.98,2021-12-17 16:56:48.484375
769,10.09,2021-12-17 16:56:48.500000
770,44.8,2021-12-17 16:56:48.515625
771,81.94,2021-12-17 16:56:48.531250
772,117.66,2021-12-17 16:56:48.546875
773,147.89,2021-12-17 16:56:48.562500
774,168.87,2021-12-17 16:56:48.578125
775,177.71,2021-12-17 16:56:48.593750
776,173.16,2021-12-17 16:56:48.609375
777,156.12,2021-12-17 16:56:48.625000
778,129.55,2021-12-17 16:56:48.640625
779,97.95,2021-12-17 16:56:48.656250
780,66.3,2021-12-17 16:56:48.671875
781,39.06,2021-12-17 16:56:48.687500
782,19.44,2021-12-17 16:56:48.703125
783,9.17,2021-12-17 16:56:48.718750
784,8.53,2021-12-17 16:56:48.734375
785,16.65,2021-12-17 16:56:48.750000
786,31.77,2021-12-17 16:56:48.765625
787,51.27,2021-12-17 16:56:48.781250
788,72.08,2021-12-17 16:56:48.796875
789,90.87,2021-12-17 16:56:48.812500
790,104.57,2021-12-17 16:56:48.828125
791,110.94,2021-12-17 16:56:48.843750
792,109.1,2021-12-17 16:56:48.859375
793,99.6,2021-12-17 16:56:48.875000
794,84.33,2021-12-17 16:56:48.890625
795,66.07,2021-12-17 16:56:48.906250
796,47.6,2021-12-17 16:56:48.921875
797,31.34,2021-12-17 16:56:48.937500
798,18.8,2021-12-17 16:56:48.953125
799,10.56,2021-12-17 16:56:48.968750
800,6.52,2021-12-17 16:56:48.984375
801,6.11,2021-12-17 16:56:49.000000
802,8.47,2021-12-17 16:56:49.015625
803,12.64,2021-12-17 16:56:49.031250
804,17.57,2021-12-17 16:56:49.046875
805,22.13,2021-12-17 16:56:49.062500
806,25.46,2021-12-17 16:56:49.078125
807,27.09,2021-12-17 16:56:49.093750
808,27.0,2021-12-17 16:56:49.109375
809,25.71,2021-12-17 16:56:49.125000
810,23.89,2021-12-17 16:56:49.140625
811,22.07,2021-12-17 16:56:49.156250
812,20.4,2021-12-17 16:56:49.171875
813,18.65,2021-12-17 16:56:49.187500
814,16.33,2021-12-17 16:56:49.203125
815,13.16,2021-12-17 16:56:49.218750
816,9.23,2021-12-17 16:56:49.234375
817,5.01,2021-12-17 16:56:49.250000
818,1.3,2021-12-17 16:56:49.265625
819,-1.19,2021-12-17 16:56:49.281250
820,-2.1,2021-12-17 16:56:49.296875
821,-1.49,2021-12-17 16:56:49.312500
822,0.17,2021-12-17 16:56:49.328125
823,2.26,2021-12-17 16:56:49.343750
824,4.36,2021-12-17 16:56:49.359375
825,6.4,2021-12-17 16:56:49.375000
826,8.59,2021-12-17 16:56:49.390625
827,11.35,2021-12-17 16:56:49.406250
828,14.98,2021-12-17 16:56:49.421875
829,19.5,2021-12-17 16:56:49.437500
830,24.71,2021-12-17 16:56:49.453125
831,30.11,2021-12-17 16:56:49.468750
832,35.16,2021-12-17 16:56:49.484375
833,39.41,2021-12-17 16:56:49.500000
834,42.57,2021-12-17 16:56:49.515625
835,44.46,2021-12-17 16:56:49.531250
836,45.09,2021-12-17 16:56:49.546875
837,44.55,2021-12-17 16:56:49.562500
838,43.02,2021-12-17 16:56:49.578125
839,40.73,2021-12-17 16:56:49.593750
840,37.8,2021-12-17 16:56:49.609375
841,34.19,2021-12-17 16:56:49.625000
842,29.68,2021-12-17 16:56:49.640625
843,23.84,2021-12-17 16:56:49.656250
844,16.35,2021-12-17 16:56:49.671875
845,7.2,2021-12-17 16:56:49.687500
846,-3.19,2021-12-17 16:56:49.703125
847,-13.97,2021-12-17 16:56:49.718750
848,-23.95,2021-12-17 16:56:49.734375
849,-32.05,2021-12-17 16:56:49.750000
850,-37.49,2021-12-17 16:56:49.765625
851,-39.93,2021-12-17 16:56:49.781250
852,-39.59,2021-12-17 16:56:49.796875
853,-36.97,2021-12-17 16:56:49.812500
854,-32.62,2021-12-17 16:56:49.828125
855,-27.1,2021-12-17 16:56:49.843750
856,-20.94,2021-12-17 16:56:49.859375
857,-14.59,2021-12-17 16:56:49.875000
858,-8.65,2021-12-17 16:56:49.890625
859,-3.75,2021-12-17 16:56:49.906250
860,-0.35,2021-12-17 16:56:49.921875
861,1.26,2021-12-17 16:56:49.937500
862,1.32,2021-12-17 16:56:49.953125
863,0.48,2021-12-17 16:56:49.968750
864,-0.51,2021-12-17 16:56:49.984375
865,-0.93,2021-12-17 16:56:50.000000
866,-0.38,2021-12-17 16:56:50.015625
867,1.19,2021-12-17 16:56:50.031250
868,3.56,2021-12-17 16:56:50.046875
869,6.54,2021-12-17 16:56:50.062500
870,9.85,2021-12-17 16:56:50.078125
871,13.26,2021-12-17 16:56:50.093750
872,16.48,2021-12-17 16:56:50.109375
873,19.09,2021-12-17 16:56:50.125000
874,20.79,2021-12-17 16:56:50.140625
875,21.52,2021-12-17 16:56:50.156250
876,21.57,2021-12-17 16:56:50.171875
877,21.59,2021-12-17 16:56:50.187500
878,22.41,2021-12-17 16:56:50.203125
879,24.62,2021-12-17 16:56:50.218750
880,28.48,2021-12-17 16:56:50.234375
881,33.7,2021-12-17 16:56:50.250000
882,39.55,2021-12-17 16:56:50.265625
883,45.0,2021-12-17 16:56:50.281250
884,48.88,2021-12-17 16:56:50.296875
885,50.0,2021-12-17 16:56:50.312500
886,47.44,2021-12-17 16:56:50.328125
887,40.75,2021-12-17 16:56:50.343750
888,30.02,2021-12-17 16:56:50.359375
889,16.16,2021-12-17 16:56:50.375000
890,0.6,2021-12-17 16:56:50.390625
891,-14.87,2021-12-17 16:56:50.406250
892,-28.39,2021-12-17 16:56:50.421875
893,-38.48,2021-12-17 16:56:50.437500
894,-44.18,2021-12-17 16:56:50.453125
895,-45.06,2021-12-17 16:56:50.468750
896,-41.32,2021-12-17 16:56:50.484375
897,-33.73,2021-12-17 16:56:50.500000
898,-23.46,2021-12-17 16:56:50.515625
899,-12.09,2021-12-17 16:56:50.531250
900,-1.34,2021-12-17 16:56:50.546875
901,7.38,2021-12-17 16:56:50.562500
902,13.14,2021-12-17 16:56:50.578125
903,15.79,2021-12-17 16:56:50.593750
904,15.91,2021-12-17 16:56:50.609375
905,14.44,2021-12-17 16:56:50.625000
906,12.45,2021-12-17 16:56:50.640625
907,10.76,2021-12-17 16:56:50.656250
908,9.85,2021-12-17 16:56:50.671875
909,9.73,2021-12-17 16:56:50.687500
910,10.21,2021-12-17 16:56:50.703125
911,10.89,2021-12-17 16:56:50.718750
912,11.3,2021-12-17 16:56:50.734375
913,11.06,2021-12-17 16:56:50.750000
914,9.89,2021-12-17 16:56:50.765625
915,7.8,2021-12-17 16:56:50.781250
916,5.12,2021-12-17 16:56:50.796875
917,2.41,2021-12-17 16:56:50.812500
918,0.27,2021-12-17 16:56:50.828125
919,-0.81,2021-12-17 16:56:50.843750
920,-0.69,2021-12-17 16:56:50.859375
921,0.45,2021-12-17 16:56:50.875000
922,2.15,2021-12-17 16:56:50.890625
923,3.87,2021-12-17 16:56:50.906250
924,5.07,2021-12-17 16:56:50.921875
925,5.36,2021-12-17 16:56:50.937500
926,4.48,2021-12-17 16:56:50.953125
927,2.31,2021-12-17 16:56:50.968750
928,-1.01,2021-12-17 16:56:50.984375
929,-5.19,2021-12-17 16:56:51.000000
930,-9.68,2021-12-17 16:56:51.015625
931,-13.86,2021-12-17 16:56:51.031250
932,-17.21,2021-12-17 16:56:51.046875
933,-19.45,2021-12-17 16:56:51.062500
934,-20.51,2021-12-17 16:56:51.078125
935,-20.57,2021-12-17 16:56:51.093750
936,-19.87,2021-12-17 16:56:51.109375
937,-18.56,2021-12-17 16:56:51.125000
938,-16.8,2021-12-17 16:56:51.140625
939,-14.7,2021-12-17 16:56:51.156250
940,-12.48,2021-12-17 16:56:51.171875
941,-10.44,2021-12-17 16:56:51.187500
942,-8.93,2021-12-17 16:56:51.203125
943,-8.18,2021-12-17 16:56:51.218750
944,-8.27,2021-12-17 16:56:51.234375
945,-9.1,2021-12-17 16:56:51.250000
946,-10.52,2021-12-17 16:56:51.265625
947,-12.39,2021-12-17 16:56:51.281250
948,-14.64,2021-12-17 16:56:51.296875
949,-17.19,2021-12-17 16:56:51.312500
950,-19.89,2021-12-17 16:56:51.328125
951,-22.51,2021-12-17 16:56:51.343750
952,-24.75,2021-12-17 16:56:51.359375
953,-26.34,2021-12-17 16:56:51.375000
954,-27.08,2021-12-17 16:56:51.390625
955,-26.97,2021-12-17 16:56:51.406250
956,-26.21,2021-12-17 16:56:51.421875
957,-25.08,2021-12-17 16:56:51.437500
958,-23.96,2021-12-17 16:56:51.453125
959,-23.09,2021-12-17 16:56:51.468750
960,-22.54,2021-12-17 16:56:51.484375
961,-22.2,2021-12-17 16:56:51.500000
962,-21.81,2021-12-17 16:56:51.515625
963,-21.03,2021-12-17 16:56:51.531250
964,-19.56,2021-12-17 16:56:51.546875
965,-17.31,2021-12-17 16:56:51.562500
966,-14.36,2021-12-17 16:56:51.578125
967,-10.97,2021-12-17 16:56:51.593750
968,-7.52,2021-12-17 16:56:51.609375
969,-4.41,2021-12-17 16:56:51.625000
970,-1.91,2021-12-17 16:56:51.640625
971,-0.12,2021-12-17 16:56:51.656250
972,1.05,2021-12-17 16:56:51.671875
973,1.92,2021-12-17 16:56:51.687500
974,2.82,2021-12-17 16:56:51.703125
975,3.93,2021-12-17 16:56:51.718750
976,5.24,2021-12-17 16:56:51.734375
977,6.61,2021-12-17 16:56:51.750000
978,7.74,2021-12-17 16:56:51.765625
979,8.42,2021-12-17 16:56:51.781250
980,8.52,2021-12-17 16:56:51.796875
981,7.96,2021-12-17 16:56:51.812500
982,6.77,2021-12-17 16:56:51.828125
983,5.02,2021-12-17 16:56:51.843750
984,2.92,2021-12-17 16:56:51.859375
985,0.8,2021-12-17 16:56:51.875000
986,-0.87,2021-12-17 16:56:51.890625
987,-1.78,2021-12-17 16:56:51.906250
988,-1.79,2021-12-17 16:56:51.921875
989,-1.14,2021-12-17 16:56:51.937500
990,-0.29,2021-12-17 16:56:51.953125
991,0.24,2021-12-17 16:56:51.968750
992,0.15,2021-12-17 16:56:51.984375
993,-0.5,2021-12-17 16:56:52.000000
994,-1.41,2021-12-17 16:56:52.015625
995,-2.12,2021-12-17 16:56:52.031250
996,-2.28,2021-12-17 16:56:52.046875
997,-1.72,2021-12-17 16:56:52.062500
998,-0.5,2021-12-17 16:56:52.078125
999,1.13,2021-12-17 16:56:52.093750
1000,2.84,2021-12-17 16:56:52.109375
1001,4.27,2021-12-17 16:56:52.125000
1002,5.16,2021-12-17 16:56:52.140625
1003,5.46,2021-12-17 16:56:52.156250
1004,5.32,2021-12-17 16:56:52.171875
1005,4.95,2021-12-17 16:56:52.187500
1006,4.64,2021-12-17 16:56:52.203125
1007,4.55,2021-12-17 16:56:52.218750
1008,4.79,2021-12-17 16:56:52.234375
1009,5.39,2021-12-17 16:56:52.250000
1010,6.33,2021-12-17 16:56:52.265625
1011,7.47,2021-12-17 16:56:52.281250
1012,8.59,2021-12-17 16:56:52.296875
1013,9.39,2021-12-17 16:56:52.312500
1014,9.52,2021-12-17 16:56:52.328125
1015,8.82,2021-12-17 16:56:52.343750
1016,7.28,2021-12-17 16:56:52.359375
1017,5.21,2021-12-17 16:56:52.375000
1018,3.04,2021-12-17 16:56:52.390625
1019,1.27,2021-12-17 16:56:52.406250
1020,0.25,2021-12-17 16:56:52.421875
1021,0.18,2021-12-17 16:56:52.437500
1022,0.99,2021-12-17 16:56:52.453125
1023,2.44,2021-12-17 16:56:52.468750
1024,4.16,2021-12-17 16:56:52.484375
1025,5.75,2021-12-17 16:56:52.500000
1026,6.81,2021-12-17 16:56:52.515625
1027,7.19,2021-12-17 16:56:52.531250
1028,6.96,2021-12-17 16:56:52.546875
1029,6.42,2021-12-17 16:56:52.562500
1030,5.94,2021-12-17 16:56:52.578125
1031,5.82,2021-12-17 16:56:52.593750
1032,6.17,2021-12-17 16:56:52.609375
1033,6.98,2021-12-17 16:56:52.625000
1034,8.01,2021-12-17 16:56:52.640625
1035,8.91,2021-12-17 16:56:52.656250
1036,9.41,2021-12-17 16:56:52.671875
1037,9.28,2021-12-17 16:56:52.687500
1038,8.5,2021-12-17 16:56:52.703125
1039,7.17,2021-12-17 16:56:52.718750
1040,5.56,2021-12-17 16:56:52.734375
1041,3.96,2021-12-17 16:56:52.750000
1042,2.77,2021-12-17 16:56:52.765625
1043,2.28,2021-12-17 16:56:52.781250
1044,2.49,2021-12-17 16:56:52.796875
1045,3.32,2021-12-17 16:56:52.812500
1046,4.35,2021-12-17 16:56:52.828125
1047,5.15,2021-12-17 16:56:52.843750
1048,5.37,2021-12-17 16:56:52.859375
1049,4.88,2021-12-17 16:56:52.875000
1050,3.75,2021-12-17 16:56:52.890625
1051,2.24,2021-12-17 16:56:52.906250
1052,0.65,2021-12-17 16:56:52.921875
1053,-0.83,2021-12-17 16:56:52.937500
1054,-2.04,2021-12-17 16:56:52.953125
1055,-2.98,2021-12-17 16:56:52.968750
1056,-3.7,2021-12-17 16:56:52.984375
1057,-4.22,2021-12-17 16:56:53.000000
1058,-4.57,2021-12-17 16:56:53.015625
1059,-4.82,2021-12-17 16:56:53.031250
1060,-5.07,2021-12-17 16:56:53.046875
1061,-5.43,2021-12-17 16:56:53.062500
1062,-5.97,2021-12-17 16:56:53.078125
1063,-6.71,2021-12-17 16:56:53.093750
1064,-7.6,2021-12-17 16:56:53.109375
1065,-8.53,2021-12-17 16:56:53.125000
1066,-9.29,2021-12-17 16:56:53.140625
1067,-9.67,2021-12-17 16:56:53.156250
1068,-9.52,2021-12-17 16:56:53.171875
1069,-8.8,2021-12-17 16:56:53.187500
1070,-7.62,2021-12-17 16:56:53.203125
1071,-6.21,2021-12-17 16:56:53.218750
1072,-4.86,2021-12-17 16:56:53.234375
1073,-3.76,2021-12-17 16:56:53.250000
1074,-3.0,2021-12-17 16:56:53.265625
1075,-2.43,2021-12-17 16:56:53.281250
1076,-1.82,2021-12-17 16:56:53.296875
1077,-0.92,2021-12-17 16:56:53.312500
1078,0.46,2021-12-17 16:56:53.328125
1079,2.32,2021-12-17 16:56:53.343750
1080,4.58,2021-12-17 16:56:53.359375
1081,7.03,2021-12-17 16:56:53.375000
1082,9.4,2021-12-17 16:56:53.390625
1083,11.33,2021-12-17 16:56:53.406250
1084,12.58,2021-12-17 16:56:53.421875
1085,13.02,2021-12-17 16:56:53.437500
1086,12.78,2021-12-17 16:56:53.453125
1087,12.21,2021-12-17 16:56:53.468750
1088,11.67,2021-12-17 16:56:53.484375
1089,11.47,2021-12-17 16:56:53.500000
1090,11.69,2021-12-17 16:56:53.515625
1091,12.18,2021-12-17 16:56:53.531250
1092,12.66,2021-12-17 16:56:53.546875
1093,12.95,2021-12-17 16:56:53.562500
1094,13.02,2021-12-17 16:56:53.578125
1095,12.94,2021-12-17 16:56:53.593750
1096,12.8,2021-12-17 16:56:53.609375
1097,12.67,2021-12-17 16:56:53.625000
1098,12.5,2021-12-17 16:56:53.640625
1099,12.34,2021-12-17 16:56:53.656250
1100,12.26,2021-12-17 16:56:53.671875
1101,12.35,2021-12-17 16:56:53.687500
1102,12.65,2021-12-17 16:56:53.703125
1103,13.06,2021-12-17 16:56:53.718750
1104,13.33,2021-12-17 16:56:53.734375
1105,13.25,2021-12-17 16:56:53.750000
1106,12.72,2021-12-17 16:56:53.765625
1107,11.8,2021-12-17 16:56:53.781250
1108,10.75,2021-12-17 16:56:53.796875
1109,9.87,2021-12-17 16:56:53.812500
1110,9.32,2021-12-17 16:56:53.828125
1111,9.08,2021-12-17 16:56:53.843750
1112,8.89,2021-12-17 16:56:53.859375
1113,8.45,2021-12-17 16:56:53.875000
1114,7.56,2021-12-17 16:56:53.890625
1115,6.15,2021-12-17 16:56:53.906250
1116,4.33,2021-12-17 16:56:53.921875
1117,2.28,2021-12-17 16:56:53.937500
1118,0.17,2021-12-17 16:56:53.953125
1119,-1.79,2021-12-17 16:56:53.968750
1120,-3.5,2021-12-17 16:56:53.984375
1121,-4.84,2021-12-17 16:56:54.000000
1122,-5.72,2021-12-17 16:56:54.015625
1123,-6.1,2021-12-17 16:56:54.031250
1124,-6.07,2021-12-17 16:56:54.046875
1125,-5.82,2021-12-17 16:56:54.062500
1126,-5.62,2021-12-17 16:56:54.078125
1127,-5.75,2021-12-17 16:56:54.093750
1128,-6.4,2021-12-17 16:56:54.109375
1129,-7.61,2021-12-17 16:56:54.125000
1130,-9.31,2021-12-17 16:56:54.140625
1131,-11.33,2021-12-17 16:56:54.156250
1132,-13.42,2021-12-17 16:56:54.171875
1133,-15.34,2021-12-17 16:56:54.187500
1134,-16.87,2021-12-17 16:56:54.203125
1135,-17.85,2021-12-17 16:56:54.218750
1136,-18.3,2021-12-17 16:56:54.234375
1137,-18.3,2021-12-17 16:56:54.250000
1138,-17.99,2021-12-17 16:56:54.265625
1139,-17.46,2021-12-17 16:56:54.281250
1140,-16.78,2021-12-17 16:56:54.296875
1141,-15.93,2021-12-17 16:56:54.312500
1142,-14.95,2021-12-17 16:56:54.328125
1143,-13.88,2021-12-17 16:56:54.343750
1144,-12.89,2021-12-17 16:56:54.359375
1145,-12.24,2021-12-17 16:56:54.375000
1146,-12.14,2021-12-17 16:56:54.390625
1147,-12.65,2021-12-17 16:56:54.406250
1148,-13.61,2021-12-17 16:56:54.421875
1149,-14.61,2021-12-17 16:56:54.437500
1150,-15.2,2021-12-17 16:56:54.453125
1151,-15.04,2021-12-17 16:56:54.468750
1152,-14.11,2021-12-17 16:56:54.484375
1153,-12.69,2021-12-17 16:56:54.500000
1154,-11.32,2021-12-17 16:56:54.515625
1155,-10.58,2021-12-17 16:56:54.531250
1156,-10.87,2021-12-17 16:56:54.546875
1157,-12.26,2021-12-17 16:56:54.562500
1158,-14.51,2021-12-17 16:56:54.578125
1159,-17.18,2021-12-17 16:56:54.593750
1160,-19.79,2021-12-17 16:56:54.609375
1161,-22.0,2021-12-17 16:56:54.625000
1162,-23.58,2021-12-17 16:56:54.640625
1163,-24.48,2021-12-17 16:56:54.656250
1164,-24.74,2021-12-17 16:56:54.671875
1165,-24.55,2021-12-17 16:56:54.687500
1166,-24.15,2021-12-17 16:56:54.703125
1167,-23.83,2021-12-17 16:56:54.718750
1168,-23.82,2021-12-17 16:56:54.734375
1169,-24.22,2021-12-17 16:56:54.750000
1170,-24.99,2021-12-17 16:56:54.765625
1171,-25.81,2021-12-17 16:56:54.781250
1172,-26.19,2021-12-17 16:56:54.796875
1173,-25.64,2021-12-17 16:56:54.812500
1174,-23.83,2021-12-17 16:56:54.828125
1175,-20.76,2021-12-17 16:56:54.843750
1176,-16.68,2021-12-17 16:56:54.859375
1177,-12.14,2021-12-17 16:56:54.875000
1178,-7.66,2021-12-17 16:56:54.890625
1179,-3.73,2021-12-17 16:56:54.906250
1180,-0.65,2021-12-17 16:56:54.921875
1181,1.5,2021-12-17 16:56:54.937500
1182,2.76,2021-12-17 16:56:54.953125
1183,3.34,2021-12-17 16:56:54.968750
1184,3.47,2021-12-17 16:56:54.984375
1185,3.39,2021-12-17 16:56:55.000000
1186,3.26,2021-12-17 16:56:55.015625
1187,3.14,2021-12-17 16:56:55.031250
1188,3.06,2021-12-17 16:56:55.046875
1189,2.97,2021-12-17 16:56:55.062500
1190,2.84,2021-12-17 16:56:55.078125
1191,2.59,2021-12-17 16:56:55.093750
1192,2.21,2021-12-17 16:56:55.109375
1193,1.72,2021-12-17 16:56:55.125000
1194,1.15,2021-12-17 16:56:55.140625
1195,0.55,2021-12-17 16:56:55.156250
1196,0.01,2021-12-17 16:56:55.171875
1197,-0.37,2021-12-17 16:56:55.187500
1198,-0.57,2021-12-17 16:56:55.203125
1199,-0.6,2021-12-17 16:56:55.218750
1200,-0.58,2021-12-17 16:56:55.234375
1201,-0.58,2021-12-17 16:56:55.250000
1202,-0.71,2021-12-17 16:56:55.265625
1203,-1.03,2021-12-17 16:56:55.281250
1204,-1.55,2021-12-17 16:56:55.296875
1205,-2.28,2021-12-17 16:56:55.312500
1206,-3.12,2021-12-17 16:56:55.328125
1207,-3.96,2021-12-17 16:56:55.343750
1208,-4.51,2021-12-17 16:56:55.359375
1209,-4.45,2021-12-17 16:56:55.375000
1210,-3.53,2021-12-17 16:56:55.390625
1211,-1.7,2021-12-17 16:56:55.406250
1212,0.78,2021-12-17 16:56:55.421875
1213,3.46,2021-12-17 16:56:55.437500
1214,5.79,2021-12-17 16:56:55.453125
1215,7.45,2021-12-17 16:56:55.468750
1216,8.3,2021-12-17 16:56:55.484375
1217,8.51,2021-12-17 16:56:55.500000
1218,8.4,2021-12-17 16:56:55.515625
1219,8.21,2021-12-17 16:56:55.531250
1220,8.07,2021-12-17 16:56:55.546875
1221,7.96,2021-12-17 16:56:55.562500
1222,7.84,2021-12-17 16:56:55.578125
1223,7.64,2021-12-17 16:56:55.593750
1224,7.44,2021-12-17 16:56:55.609375
1225,7.25,2021-12-17 16:56:55.625000
1226,7.09,2021-12-17 16:56:55.640625
1227,6.86,2021-12-17 16:56:55.656250
1228,6.47,2021-12-17 16:56:55.671875
1229,5.88,2021-12-17 16:56:55.687500
1230,5.18,2021-12-17 16:56:55.703125
1231,4.59,2021-12-17 16:56:55.718750
1232,4.31,2021-12-17 16:56:55.734375
1233,4.45,2021-12-17 16:56:55.750000
1234,4.92,2021-12-17 16:56:55.765625
1235,5.49,2021-12-17 16:56:55.781250
1236,5.84,2021-12-17 16:56:55.796875
1237,5.72,2021-12-17 16:56:55.812500
1238,5.02,2021-12-17 16:56:55.828125
1239,3.79,2021-12-17 16:56:55.843750
1240,2.23,2021-12-17 16:56:55.859375
1241,0.6,2021-12-17 16:56:55.875000
1242,-0.75,2021-12-17 16:56:55.890625
1243,-1.52,2021-12-17 16:56:55.906250
1244,-1.49,2021-12-17 16:56:55.921875
1245,-0.62,2021-12-17 16:56:55.937500
1246,0.96,2021-12-17 16:56:55.953125
1247,2.92,2021-12-17 16:56:55.968750
1248,4.89,2021-12-17 16:56:55.984375
1249,6.48,2021-12-17 16:56:56.000000
1250,7.47,2021-12-17 16:56:56.015625
1251,7.81,2021-12-17 16:56:56.031250
1252,7.6,2021-12-17 16:56:56.046875
1253,6.99,2021-12-17 16:56:56.062500
1254,6.18,2021-12-17 16:56:56.078125
1255,5.32,2021-12-17 16:56:56.093750
1256,4.55,2021-12-17 16:56:56.109375
1257,3.91,2021-12-17 16:56:56.125000
1258,3.45,2021-12-17 16:56:56.140625
1259,3.21,2021-12-17 16:56:56.156250
1260,3.22,2021-12-17 16:56:56.171875
1261,3.52,2021-12-17 16:56:56.187500
1262,4.03,2021-12-17 16:56:56.203125
1263,4.62,2021-12-17 16:56:56.218750
1264,5.16,2021-12-17 16:56:56.234375
1265,5.46,2021-12-17 16:56:56.250000
1266,5.35,2021-12-17 16:56:56.265625
1267,4.77,2021-12-17 16:56:56.281250
1268,3.78,2021-12-17 16:56:56.296875
1269,2.54,2021-12-17 16:56:56.312500
1270,1.32,2021-12-17 16:56:56.328125
1271,0.34,2021-12-17 16:56:56.343750
1272,-0.16,2021-12-17 16:56:56.359375
1273,-0.11,2021-12-17 16:56:56.375000
1274,0.44,2021-12-17 16:56:56.390625
1275,1.26,2021-12-17 16:56:56.406250
1276,2.13,2021-12-17 16:56:56.421875
1277,2.85,2021-12-17 16:56:56.437500
1278,3.31,2021-12-17 16:56:56.453125
1279,3.59,2021-12-17 16:56:56.468750
1280,3.86,2021-12-17 16:56:56.484375
1281,4.34,2021-12-17 16:56:56.500000
1282,5.19,2021-12-17 16:56:56.515625
1283,6.47,2021-12-17 16:56:56.531250
1284,8.08,2021-12-17 16:56:56.546875
1285,9.79,2021-12-17 16:56:56.562500
1286,11.28,2021-12-17 16:56:56.578125
1287,12.31,2021-12-17 16:56:56.593750
1288,12.82,2021-12-17 16:56:56.609375
1289,12.85,2021-12-17 16:56:56.625000
1290,12.65,2021-12-17 16:56:56.640625
1291,12.51,2021-12-17 16:56:56.656250
1292,12.65,2021-12-17 16:56:56.671875
1293,13.15,2021-12-17 16:56:56.687500
1294,13.94,2021-12-17 16:56:56.703125
1295,14.74,2021-12-17 16:56:56.718750
1296,15.32,2021-12-17 16:56:56.734375
1297,15.53,2021-12-17 16:56:56.750000
1298,15.33,2021-12-17 16:56:56.765625
1299,14.79,2021-12-17 16:56:56.781250
1300,14.09,2021-12-17 16:56:56.796875
1301,13.33,2021-12-17 16:56:56.812500
1302,12.58,2021-12-17 16:56:56.828125
1303,11.82,2021-12-17 16:56:56.843750
1304,11.01,2021-12-17 16:56:56.859375
1305,10.16,2021-12-17 16:56:56.875000
1306,9.35,2021-12-17 16:56:56.890625
1307,8.62,2021-12-17 16:56:56.906250
1308,7.9,2021-12-17 16:56:56.921875
1309,7.09,2021-12-17 16:56:56.937500
1310,6.03,2021-12-17 16:56:56.953125
1311,4.67,2021-12-17 16:56:56.968750
1312,3.06,2021-12-17 16:56:56.984375
1313,1.38,2021-12-17 16:56:57.000000
1314,-0.2,2021-12-17 16:56:57.015625
1315,-1.49,2021-12-17 16:56:57.031250
1316,-2.48,2021-12-17 16:56:57.046875
1317,-3.23,2021-12-17 16:56:57.062500
1318,-3.87,2021-12-17 16:56:57.078125
1319,-4.47,2021-12-17 16:56:57.093750
1320,-5.07,2021-12-17 16:56:57.109375
1321,-5.67,2021-12-17 16:56:57.125000
1322,-6.26,2021-12-17 16:56:57.140625
1323,-6.91,2021-12-17 16:56:57.156250
1324,-7.67,2021-12-17 16:56:57.171875
1325,-8.56,2021-12-17 16:56:57.187500
1326,-9.57,2021-12-17 16:56:57.203125
1327,-10.68,2021-12-17 16:56:57.218750
1328,-11.88,2021-12-17 16:56:57.234375
1329,-13.19,2021-12-17 16:56:57.250000
1330,-14.59,2021-12-17 16:56:57.265625
1331,-15.99,2021-12-17 16:56:57.281250
1332,-17.21,2021-12-17 16:56:57.296875
1333,-17.99,2021-12-17 16:56:57.312500
1334,-18.14,2021-12-17 16:56:57.328125
1335,-17.53,2021-12-17 16:56:57.343750
1336,-16.26,2021-12-17 16:56:57.359375
1337,-14.6,2021-12-17 16:56:57.375000
1338,-12.98,2021-12-17 16:56:57.390625
1339,-11.78,2021-12-17 16:56:57.406250
1340,-11.28,2021-12-17 16:56:57.421875
1341,-11.56,2021-12-17 16:56:57.437500
1342,-12.55,2021-12-17 16:56:57.453125
1343,-14.05,2021-12-17 16:56:57.468750
1344,-15.76,2021-12-17 16:56:57.484375
1345,-17.34,2021-12-17 16:56:57.500000
1346,-18.61,2021-12-17 16:56:57.515625
1347,-19.47,2021-12-17 16:56:57.531250
1348,-19.91,2021-12-17 16:56:57.546875
1349,-20.04,2021-12-17 16:56:57.562500
1350,-19.95,2021-12-17 16:56:57.578125
1351,-19.71,2021-12-17 16:56:57.593750
1352,-19.35,2021-12-17 16:56:57.609375
1353,-18.9,2021-12-17 16:56:57.625000
1354,-18.39,2021-12-17 16:56:57.640625
1355,-17.97,2021-12-17 16:56:57.656250
1356,-17.9,2021-12-17 16:56:57.671875
1357,-18.42,2021-12-17 16:56:57.687500
1358,-19.76,2021-12-17 16:56:57.703125
1359,-21.85,2021-12-17 16:56:57.718750
1360,-24.43,2021-12-17 16:56:57.734375
1361,-27.02,2021-12-17 16:56:57.750000
1362,-29.19,2021-12-17 16:56:57.765625
1363,-30.56,2021-12-17 16:56:57.781250
1364,-30.98,2021-12-17 16:56:57.796875
1365,-30.58,2021-12-17 16:56:57.812500
1366,-29.62,2021-12-17 16:56:57.828125
1367,-28.52,2021-12-17 16:56:57.843750
1368,-27.63,2021-12-17 16:56:57.859375
1369,-27.15,2021-12-17 16:56:57.875000
1370,-27.02,2021-12-17 16:56:57.890625
1371,-26.97,2021-12-17 16:56:57.906250
1372,-26.62,2021-12-17 16:56:57.921875
1373,-25.52,2021-12-17 16:56:57.937500
1374,-23.5,2021-12-17 16:56:57.953125
1375,-20.6,2021-12-17 16:56:57.968750
1376,-17.22,2021-12-17 16:56:57.984375
1377,-13.8,2021-12-17 16:56:58.000000
1378,-10.85,2021-12-17 16:56:58.015625
1379,-8.73,2021-12-17 16:56:58.031250
1380,-7.57,2021-12-17 16:56:58.046875
1381,-7.44,2021-12-17 16:56:58.062500
1382,-8.08,2021-12-17 16:56:58.078125
1383,-9.07,2021-12-17 16:56:58.093750
1384,-9.62,2021-12-17 16:56:58.109375
1385,-8.83,2021-12-17 16:56:58.125000
1386,-5.79,2021-12-17 16:56:58.140625
1387,0.06,2021-12-17 16:56:58.156250
1388,8.67,2021-12-17 16:56:58.171875
1389,19.35,2021-12-17 16:56:58.187500
1390,30.77,2021-12-17 16:56:58.203125
1391,41.41,2021-12-17 16:56:58.218750
1392,49.75,2021-12-17 16:56:58.234375
1393,54.55,2021-12-17 16:56:58.250000
1394,54.82,2021-12-17 16:56:58.265625
1395,49.99,2021-12-17 16:56:58.281250
1396,40.08,2021-12-17 16:56:58.296875
1397,26.02,2021-12-17 16:56:58.312500
1398,9.84,2021-12-17 16:56:58.328125
1399,-5.47,2021-12-17 16:56:58.343750
1400,-16.55,2021-12-17 16:56:58.359375
1401,-20.7,2021-12-17 16:56:58.375000
1402,-16.89,2021-12-17 16:56:58.390625
1403,-6.17,2021-12-17 16:56:58.406250
1404,8.6,2021-12-17 16:56:58.421875
1405,23.73,2021-12-17 16:56:58.437500
1406,35.83,2021-12-17 16:56:58.453125
1407,42.76,2021-12-17 16:56:58.468750
1408,43.82,2021-12-17 16:56:58.484375
1409,39.58,2021-12-17 16:56:58.500000
1410,31.3,2021-12-17 16:56:58.515625
1411,20.48,2021-12-17 16:56:58.531250
1412,8.6,2021-12-17 16:56:58.546875
1413,-2.89,2021-12-17 16:56:58.562500
1414,-12.6,2021-12-17 16:56:58.578125
1415,-19.42,2021-12-17 16:56:58.593750
1416,-22.71,2021-12-17 16:56:58.609375
1417,-22.55,2021-12-17 16:56:58.625000
1418,-19.65,2021-12-17 16:56:58.640625
1419,-15.12,2021-12-17 16:56:58.656250
1420,-10.17,2021-12-17 16:56:58.671875
1421,-5.7,2021-12-17 16:56:58.687500
1422,-2.26,2021-12-17 16:56:58.703125
1423,-0.0,2021-12-17 16:56:58.718750
1424,1.16,2021-12-17 16:56:58.734375
1425,1.47,2021-12-17 16:56:58.750000
1426,1.18,2021-12-17 16:56:58.765625
1427,0.54,2021-12-17 16:56:58.781250
1428,-0.25,2021-12-17 16:56:58.796875
1429,-0.99,2021-12-17 16:56:58.812500
1430,-1.46,2021-12-17 16:56:58.828125
1431,-1.42,2021-12-17 16:56:58.843750
1432,-0.74,2021-12-17 16:56:58.859375
1433,0.64,2021-12-17 16:56:58.875000
1434,2.57,2021-12-17 16:56:58.890625
1435,4.7,2021-12-17 16:56:58.906250
1436,6.61,2021-12-17 16:56:58.921875
1437,7.97,2021-12-17 16:56:58.937500
1438,8.64,2021-12-17 16:56:58.953125
1439,8.75,2021-12-17 16:56:58.968750
1440,8.65,2021-12-17 16:56:58.984375
1441,8.7,2021-12-17 16:56:59.000000
1442,9.22,2021-12-17 16:56:59.015625
1443,10.33,2021-12-17 16:56:59.031250
1444,11.91,2021-12-17 16:56:59.046875
1445,13.76,2021-12-17 16:56:59.062500
1446,15.55,2021-12-17 16:56:59.078125
1447,16.93,2021-12-17 16:56:59.093750
1448,17.59,2021-12-17 16:56:59.109375
1449,17.33,2021-12-17 16:56:59.125000
1450,16.1,2021-12-17 16:56:59.140625
1451,14.13,2021-12-17 16:56:59.156250
1452,11.85,2021-12-17 16:56:59.171875
1453,9.78,2021-12-17 16:56:59.187500
1454,8.46,2021-12-17 16:56:59.203125
1455,8.16,2021-12-17 16:56:59.218750
1456,8.8,2021-12-17 16:56:59.234375
1457,10.03,2021-12-17 16:56:59.250000
1458,11.33,2021-12-17 16:56:59.265625
1459,12.19,2021-12-17 16:56:59.281250
1460,12.37,2021-12-17 16:56:59.296875
1461,11.82,2021-12-17 16:56:59.312500
1462,10.72,2021-12-17 16:56:59.328125
1463,9.35,2021-12-17 16:56:59.343750
1464,7.94,2021-12-17 16:56:59.359375
1465,6.65,2021-12-17 16:56:59.375000
1466,5.56,2021-12-17 16:56:59.390625
1467,4.64,2021-12-17 16:56:59.406250
1468,3.8,2021-12-17 16:56:59.421875
1469,2.9,2021-12-17 16:56:59.437500
1470,1.79,2021-12-17 16:56:59.453125
1471,0.34,2021-12-17 16:56:59.468750
1472,-1.47,2021-12-17 16:56:59.484375
1473,-3.53,2021-12-17 16:56:59.500000
1474,-5.57,2021-12-17 16:56:59.515625
1475,-7.27,2021-12-17 16:56:59.531250
1476,-8.41,2021-12-17 16:56:59.546875
1477,-8.93,2021-12-17 16:56:59.562500
1478,-8.89,2021-12-17 16:56:59.578125
1479,-8.5,2021-12-17 16:56:59.593750
1480,-7.89,2021-12-17 16:56:59.609375
1481,-7.18,2021-12-17 16:56:59.625000
1482,-6.48,2021-12-17 16:56:59.640625
1483,-5.95,2021-12-17 16:56:59.656250
1484,-5.88,2021-12-17 16:56:59.671875
1485,-6.61,2021-12-17 16:56:59.687500
1486,-8.34,2021-12-17 16:56:59.703125
1487,-10.85,2021-12-17 16:56:59.718750
1488,-13.63,2021-12-17 16:56:59.734375
1489,-15.86,2021-12-17 16:56:59.750000
1490,-16.75,2021-12-17 16:56:59.765625
1491,-15.83,2021-12-17 16:56:59.781250
1492,-13.1,2021-12-17 16:56:59.796875
1493,-9.02,2021-12-17 16:56:59.812500
1494,-4.32,2021-12-17 16:56:59.828125
1495,0.24,2021-12-17 16:56:59.843750
1496,4.03,2021-12-17 16:56:59.859375
1497,6.57,2021-12-17 16:56:59.875000
1498,7.67,2021-12-17 16:56:59.890625
1499,7.37,2021-12-17 16:56:59.906250
1500,5.91,2021-12-17 16:56:59.921875
1501,3.77,2021-12-17 16:56:59.937500
1502,1.47,2021-12-17 16:56:59.953125
1503,-0.52,2021-12-17 16:56:59.968750
1504,-1.81,2021-12-17 16:56:59.984375
1505,-2.21,2021-12-17 16:57:00.000000
1506,-1.73,2021-12-17 16:57:00.015625
1507,-0.49,2021-12-17 16:57:00.031250
1508,1.29,2021-12-17 16:57:00.046875
1509,3.26,2021-12-17 16:57:00.062500
1510,5.12,2021-12-17 16:57:00.078125
1511,6.68,2021-12-17 16:57:00.093750
1512,7.95,2021-12-17 16:57:00.109375
1513,9.21,2021-12-17 16:57:00.125000
1514,10.8,2021-12-17 16:57:00.140625
1515,13.01,2021-12-17 16:57:00.156250
1516,15.89,2021-12-17 16:57:00.171875
1517,19.15,2021-12-17 16:57:00.187500
1518,22.26,2021-12-17 16:57:00.203125
1519,24.77,2021-12-17 16:57:00.218750
1520,26.38,2021-12-17 16:57:00.234375
1521,26.99,2021-12-17 16:57:00.250000
1522,26.63,2021-12-17 16:57:00.265625
1523,25.33,2021-12-17 16:57:00.281250
1524,23.13,2021-12-17 16:57:00.296875
1525,20.19,2021-12-17 16:57:00.312500
1526,16.89,2021-12-17 16:57:00.328125
1527,13.79,2021-12-17 16:57:00.343750
1528,11.57,2021-12-17 16:57:00.359375
1529,10.69,2021-12-17 16:57:00.375000
1530,11.18,2021-12-17 16:57:00.390625
1531,12.71,2021-12-17 16:57:00.406250
1532,14.55,2021-12-17 16:57:00.421875
1533,15.85,2021-12-17 16:57:00.437500
1534,15.96,2021-12-17 16:57:00.453125
1535,14.45,2021-12-17 16:57:00.468750
1536,11.27,2021-12-17 16:57:00.484375
1537,6.71,2021-12-17 16:57:00.500000
1538,1.35,2021-12-17 16:57:00.515625
1539,-4.07,2021-12-17 16:57:00.531250
1540,-8.8,2021-12-17 16:57:00.546875
1541,-12.39,2021-12-17 16:57:00.562500
1542,-14.69,2021-12-17 16:57:00.578125
1543,-15.87,2021-12-17 16:57:00.593750
1544,-16.3,2021-12-17 16:57:00.609375
1545,-16.37,2021-12-17 16:57:00.625000
1546,-16.4,2021-12-17 16:57:00.640625
1547,-16.63,2021-12-17 16:57:00.656250
1548,-17.26,2021-12-17 16:57:00.671875
1549,-18.37,2021-12-17 16:57:00.687500
1550,-19.98,2021-12-17 16:57:00.703125
1551,-21.98,2021-12-17 16:57:00.718750
1552,-23.99,2021-12-17 16:57:00.734375
1553,-25.63,2021-12-17 16:57:00.750000
1554,-26.5,2021-12-17 16:57:00.765625
1555,-26.49,2021-12-17 16:57:00.781250
1556,-25.72,2021-12-17 16:57:00.796875
1557,-24.63,2021-12-17 16:57:00.812500
1558,-23.62,2021-12-17 16:57:00.828125
1559,-23.02,2021-12-17 16:57:00.843750
1560,-22.91,2021-12-17 16:57:00.859375
1561,-23.1,2021-12-17 16:57:00.875000
1562,-23.35,2021-12-17 16:57:00.890625
1563,-23.44,2021-12-17 16:57:00.906250
1564,-23.22,2021-12-17 16:57:00.921875
1565,-22.68,2021-12-17 16:57:00.937500
1566,-21.89,2021-12-17 16:57:00.953125
1567,-20.89,2021-12-17 16:57:00.968750
1568,-19.75,2021-12-17 16:57:00.984375
1569,-18.54,2021-12-17 16:57:01.000000
1570,-17.31,2021-12-17 16:57:01.015625
1571,-16.1,2021-12-17 16:57:01.031250
1572,-14.83,2021-12-17 16:57:01.046875
1573,-13.39,2021-12-17 16:57:01.062500
1574,-11.54,2021-12-17 16:57:01.078125
1575,-9.05,2021-12-17 16:57:01.093750
1576,-5.8,2021-12-17 16:57:01.109375
1577,-1.86,2021-12-17 16:57:01.125000
1578,2.47,2021-12-17 16:57:01.140625
1579,6.81,2021-12-17 16:57:01.156250
1580,10.71,2021-12-17 16:57:01.171875
1581,13.84,2021-12-17 16:57:01.187500
1582,16.06,2021-12-17 16:57:01.203125
1583,17.31,2021-12-17 16:57:01.218750
1584,17.65,2021-12-17 16:57:01.234375
1585,17.24,2021-12-17 16:57:01.250000
1586,16.25,2021-12-17 16:57:01.265625
1587,15.02,2021-12-17 16:57:01.281250
1588,13.94,2021-12-17 16:57:01.296875
1589,13.39,2021-12-17 16:57:01.312500
1590,13.69,2021-12-17 16:57:01.328125
1591,14.95,2021-12-17 16:57:01.343750
1592,17.03,2021-12-17 16:57:01.359375
1593,19.67,2021-12-17 16:57:01.375000
1594,22.52,2021-12-17 16:57:01.390625
1595,25.27,2021-12-17 16:57:01.406250
1596,27.73,2021-12-17 16:57:01.421875
1597,29.82,2021-12-17 16:57:01.437500
1598,31.54,2021-12-17 16:57:01.453125
1599,33.07,2021-12-17 16:57:01.468750
1600,34.64,2021-12-17 16:57:01.484375
1601,36.48,2021-12-17 16:57:01.500000
1602,38.76,2021-12-17 16:57:01.515625
1603,41.56,2021-12-17 16:57:01.531250
1604,44.87,2021-12-17 16:57:01.546875
1605,48.68,2021-12-17 16:57:01.562500
1606,52.99,2021-12-17 16:57:01.578125
1607,57.83,2021-12-17 16:57:01.593750
1608,63.2,2021-12-17 16:57:01.609375
1609,69.02,2021-12-17 16:57:01.625000
1610,75.07,2021-12-17 16:57:01.640625
1611,81.16,2021-12-17 16:57:01.656250
1612,87.08,2021-12-17 16:57:01.671875
1613,92.81,2021-12-17 16:57:01.687500
1614,98.5,2021-12-17 16:57:01.703125
1615,104.4,2021-12-17 16:57:01.718750
1616,110.86,2021-12-17 16:57:01.734375
1617,118.12,2021-12-17 16:57:01.750000
1618,126.35,2021-12-17 16:57:01.765625
1619,135.52,2021-12-17 16:57:01.781250
1620,145.34,2021-12-17 16:57:01.796875
1621,155.16,2021-12-17 16:57:01.812500
1622,164.15,2021-12-17 16:57:01.828125
1623,171.52,2021-12-17 16:57:01.843750
1624,176.88,2021-12-17 16:57:01.859375
1625,180.52,2021-12-17 16:57:01.875000
1626,183.38,2021-12-17 16:57:01.890625
1627,186.55,2021-12-17 16:57:01.906250
1628,190.51,2021-12-17 16:57:01.921875
1629,194.44,2021-12-17 16:57:01.937500
1630,195.97,2021-12-17 16:57:01.953125
1631,191.72,2021-12-17 16:57:01.968750
1632,178.48,2021-12-17 16:57:01.984375
1633,154.54,2021-12-17 16:57:02.000000
1634,120.41,2021-12-17 16:57:02.015625
1635,78.97,2021-12-17 16:57:02.031250
1636,34.59,2021-12-17 16:57:02.046875
1637,-7.97,2021-12-17 16:57:02.062500
1638,-44.5,2021-12-17 16:57:02.078125
1639,-72.17,2021-12-17 16:57:02.093750
1640,-89.96,2021-12-17 16:57:02.109375
1641,-98.95,2021-12-17 16:57:02.125000
1642,-102.19,2021-12-17 16:57:02.140625
1643,-103.87,2021-12-17 16:57:02.156250
1644,-107.89,2021-12-17 16:57:02.171875
1645,-115.98,2021-12-17 16:57:02.187500
1646,-126.48,2021-12-17 16:57:02.203125
1647,-134.66,2021-12-17 16:57:02.218750
1648,-134.35,2021-12-17 16:57:02.234375
1649,-120.44,2021-12-17 16:57:02.250000
1650,-90.9,2021-12-17 16:57:02.265625
1651,-47.67,2021-12-17 16:57:02.281250
1652,3.79,2021-12-17 16:57:02.296875
1653,55.54,2021-12-17 16:57:02.312500
1654,98.79,2021-12-17 16:57:02.328125
1655,125.39,2021-12-17 16:57:02.343750
1656,129.36,2021-12-17 16:57:02.359375
1657,108.23,2021-12-17 16:57:02.375000
1658,63.88,2021-12-17 16:57:02.390625
1659,2.3,2021-12-17 16:57:02.406250
1660,-67.78,2021-12-17 16:57:02.421875
1661,-137.29,2021-12-17 16:57:02.437500
1662,-198.84,2021-12-17 16:57:02.453125
1663,-248.08,2021-12-17 16:57:02.468750
1664,-283.77,2021-12-17 16:57:02.484375
1665,-306.84,2021-12-17 16:57:02.500000
1666,-319.59,2021-12-17 16:57:02.515625
1667,-325.38,2021-12-17 16:57:02.531250
1668,-328.52,2021-12-17 16:57:02.546875
1669,-333.67,2021-12-17 16:57:02.562500
1670,-344.5,2021-12-17 16:57:02.578125
1671,-361.56,2021-12-17 16:57:02.593750
1672,-381.17,2021-12-17 16:57:02.609375
1673,-395.84,2021-12-17 16:57:02.625000
1674,-396.86,2021-12-17 16:57:02.640625
1675,-377.47,2021-12-17 16:57:02.656250
1676,-335.78,2021-12-17 16:57:02.671875
1677,-275.36,2021-12-17 16:57:02.687500
1678,-203.69,2021-12-17 16:57:02.703125
1679,-129.37,2021-12-17 16:57:02.718750
1680,-59.45,2021-12-17 16:57:02.734375
1681,1.88,2021-12-17 16:57:02.750000
1682,52.81,2021-12-17 16:57:02.765625
1683,92.82,2021-12-17 16:57:02.781250
1684,121.75,2021-12-17 16:57:02.796875
1685,139.59,2021-12-17 16:57:02.812500
1686,146.87,2021-12-17 16:57:02.828125
1687,144.98,2021-12-17 16:57:02.843750
1688,135.67,2021-12-17 16:57:02.859375
1689,119.99,2021-12-17 16:57:02.875000
1690,97.75,2021-12-17 16:57:02.890625
1691,67.45,2021-12-17 16:57:02.906250
1692,27.57,2021-12-17 16:57:02.921875
1693,-22.06,2021-12-17 16:57:02.937500
1694,-79.32,2021-12-17 16:57:02.953125
1695,-140.17,2021-12-17 16:57:02.968750
1696,-200.1,2021-12-17 16:57:02.984375
1697,-255.41,2021-12-17 16:57:03.000000
1698,-303.53,2021-12-17 16:57:03.015625
1699,-342.1,2021-12-17 16:57:03.031250
1700,-367.65,2021-12-17 16:57:03.046875
1701,-374.99,2021-12-17 16:57:03.062500
1702,-358.59,2021-12-17 16:57:03.078125
1703,-315.06,2021-12-17 16:57:03.093750
1704,-245.66,2021-12-17 16:57:03.109375
1705,-157.0,2021-12-17 16:57:03.125000
1706,-59.28,2021-12-17 16:57:03.140625
1707,36.75,2021-12-17 16:57:03.156250
1708,123.15,2021-12-17 16:57:03.171875
1709,196.22,2021-12-17 16:57:03.187500
1710,256.06,2021-12-17 16:57:03.203125
1711,304.44,2021-12-17 16:57:03.218750
1712,342.78,2021-12-17 16:57:03.234375
1713,371.0,2021-12-17 16:57:03.250000
1714,387.91,2021-12-17 16:57:03.265625
1715,392.45,2021-12-17 16:57:03.281250
1716,384.73,2021-12-17 16:57:03.296875
1717,366.32,2021-12-17 16:57:03.312500
1718,339.79,2021-12-17 16:57:03.328125
1719,308.01,2021-12-17 16:57:03.343750
1720,273.78,2021-12-17 16:57:03.359375
1721,239.22,2021-12-17 16:57:03.375000
1722,205.36,2021-12-17 16:57:03.390625
1723,172.48,2021-12-17 16:57:03.406250
1724,141.02,2021-12-17 16:57:03.421875
1725,112.64,2021-12-17 16:57:03.437500
1726,90.38,2021-12-17 16:57:03.453125
1727,77.62,2021-12-17 16:57:03.468750
1728,75.63,2021-12-17 16:57:03.484375
1729,81.56,2021-12-17 16:57:03.500000
1730,88.33,2021-12-17 16:57:03.515625
1731,86.54,2021-12-17 16:57:03.531250
1732,68.86,2021-12-17 16:57:03.546875
1733,33.65,2021-12-17 16:57:03.562500
1734,-13.98,2021-12-17 16:57:03.578125
1735,-65.44,2021-12-17 16:57:03.593750
1736,-113.26,2021-12-17 16:57:03.609375
1737,-154.82,2021-12-17 16:57:03.625000
1738,-190.93,2021-12-17 16:57:03.640625
1739,-221.81,2021-12-17 16:57:03.656250
1740,-245.43,2021-12-17 16:57:03.671875
1741,-257.29,2021-12-17 16:57:03.687500
1742,-253.04,2021-12-17 16:57:03.703125
1743,-231.17,2021-12-17 16:57:03.718750
1744,-194.57,2021-12-17 16:57:03.734375
1745,-149.17,2021-12-17 16:57:03.750000
1746,-101.79,2021-12-17 16:57:03.765625
1747,-59.44,2021-12-17 16:57:03.781250
1748,-24.42,2021-12-17 16:57:03.796875
1749,1.54,2021-12-17 16:57:03.812500
1750,16.78,2021-12-17 16:57:03.828125
1751,20.23,2021-12-17 16:57:03.843750
1752,13.17,2021-12-17 16:57:03.859375
1753,-0.92,2021-12-17 16:57:03.875000
1754,-17.4,2021-12-17 16:57:03.890625
1755,-32.28,2021-12-17 16:57:03.906250
1756,-44.94,2021-12-17 16:57:03.921875
1757,-54.2,2021-12-17 16:57:03.937500
1758,-59.94,2021-12-17 16:57:03.953125
1759,-62.07,2021-12-17 16:57:03.968750
1760,-59.24,2021-12-17 16:57:03.984375
1761,-47.6,2021-12-17 16:57:04.000000
1762,-22.32,2021-12-17 16:57:04.015625
1763,20.2,2021-12-17 16:57:04.031250
1764,80.18,2021-12-17 16:57:04.046875
1765,152.4,2021-12-17 16:57:04.062500
1766,230.55,2021-12-17 16:57:04.078125
1767,307.02,2021-12-17 16:57:04.093750
1768,374.78,2021-12-17 16:57:04.109375
1769,421.71,2021-12-17 16:57:04.125000
1770,439.2,2021-12-17 16:57:04.140625
1771,425.82,2021-12-17 16:57:04.156250
1772,388.48,2021-12-17 16:57:04.171875
1773,348.72,2021-12-17 16:57:04.187500
1774,314.1,2021-12-17 16:57:04.203125
1775,286.11,2021-12-17 16:57:04.218750
1776,263.63,2021-12-17 16:57:04.234375
1777,242.31,2021-12-17 16:57:04.250000
1778,221.59,2021-12-17 16:57:04.265625
1779,204.12,2021-12-17 16:57:04.281250
1780,193.68,2021-12-17 16:57:04.296875
1781,192.81,2021-12-17 16:57:04.312500
1782,200.47,2021-12-17 16:57:04.328125
1783,210.04,2021-12-17 16:57:04.343750
1784,214.23,2021-12-17 16:57:04.359375
1785,206.82,2021-12-17 16:57:04.375000
1786,185.04,2021-12-17 16:57:04.390625
1787,151.53,2021-12-17 16:57:04.406250
1788,113.64,2021-12-17 16:57:04.421875
1789,79.81,2021-12-17 16:57:04.437500
1790,56.28,2021-12-17 16:57:04.453125
1791,45.66,2021-12-17 16:57:04.468750
1792,47.14,2021-12-17 16:57:04.484375
1793,61.26,2021-12-17 16:57:04.500000
1794,89.68,2021-12-17 16:57:04.515625
1795,132.84,2021-12-17 16:57:04.531250
1796,186.85,2021-12-17 16:57:04.546875
1797,242.19,2021-12-17 16:57:04.562500
1798,285.02,2021-12-17 16:57:04.578125
1799,302.3,2021-12-17 16:57:04.593750
1800,287.08,2021-12-17 16:57:04.609375
1801,241.01,2021-12-17 16:57:04.625000
1802,174.53,2021-12-17 16:57:04.640625
1803,101.62,2021-12-17 16:57:04.656250
1804,34.27,2021-12-17 16:57:04.671875
1805,-20.74,2021-12-17 16:57:04.687500
1806,-61.7,2021-12-17 16:57:04.703125
1807,-89.67,2021-12-17 16:57:04.718750
1808,-105.99,2021-12-17 16:57:04.734375
1809,-111.46,2021-12-17 16:57:04.750000
1810,-107.2,2021-12-17 16:57:04.765625
1811,-94.87,2021-12-17 16:57:04.781250
1812,-77.46,2021-12-17 16:57:04.796875
1813,-58.77,2021-12-17 16:57:04.812500
1814,-42.43,2021-12-17 16:57:04.828125
1815,-30.74,2021-12-17 16:57:04.843750
1816,-24.22,2021-12-17 16:57:04.859375
1817,-21.89,2021-12-17 16:57:04.875000
1818,-22.2,2021-12-17 16:57:04.890625
1819,-24.12,2021-12-17 16:57:04.906250
1820,-27.31,2021-12-17 16:57:04.921875
1821,-32.2,2021-12-17 16:57:04.937500
1822,-39.54,2021-12-17 16:57:04.953125
1823,-49.75,2021-12-17 16:57:04.968750
1824,-62.3,2021-12-17 16:57:04.984375
1825,-75.69,2021-12-17 16:57:05.000000
1826,-87.79,2021-12-17 16:57:05.015625
1827,-96.6,2021-12-17 16:57:05.031250
1828,-100.85,2021-12-17 16:57:05.046875
1829,-100.31,2021-12-17 16:57:05.062500
1830,-95.81,2021-12-17 16:57:05.078125
1831,-88.7,2021-12-17 16:57:05.093750
1832,-80.46,2021-12-17 16:57:05.109375
1833,-72.2,2021-12-17 16:57:05.125000
1834,-64.42,2021-12-17 16:57:05.140625
1835,-57.25,2021-12-17 16:57:05.156250
1836,-50.67,2021-12-17 16:57:05.171875
1837,-44.72,2021-12-17 16:57:05.187500
1838,-39.57,2021-12-17 16:57:05.203125
1839,-35.56,2021-12-17 16:57:05.218750
1840,-33.01,2021-12-17 16:57:05.234375
1841,-32.2,2021-12-17 16:57:05.250000
1842,-33.12,2021-12-17 16:57:05.265625
1843,-35.56,2021-12-17 16:57:05.281250
1844,-39.15,2021-12-17 16:57:05.296875
1845,-43.36,2021-12-17 16:57:05.312500
1846,-47.46,2021-12-17 16:57:05.328125
1847,-50.61,2021-12-17 16:57:05.343750
1848,-52.03,2021-12-17 16:57:05.359375
1849,-51.12,2021-12-17 16:57:05.375000
1850,-47.83,2021-12-17 16:57:05.390625
1851,-42.72,2021-12-17 16:57:05.406250
1852,-36.9,2021-12-17 16:57:05.421875
1853,-31.89,2021-12-17 16:57:05.437500
1854,-29.02,2021-12-17 16:57:05.453125
1855,-29.09,2021-12-17 16:57:05.468750
1856,-32.33,2021-12-17 16:57:05.484375
1857,-38.34,2021-12-17 16:57:05.500000
1858,-46.65,2021-12-17 16:57:05.515625
1859,-57.29,2021-12-17 16:57:05.531250
1860,-71.05,2021-12-17 16:57:05.546875
1861,-89.42,2021-12-17 16:57:05.562500
1862,-114.01,2021-12-17 16:57:05.578125
1863,-145.84,2021-12-17 16:57:05.593750
1864,-184.62,2021-12-17 16:57:05.609375
1865,-228.68,2021-12-17 16:57:05.625000
1866,-275.4,2021-12-17 16:57:05.640625
1867,-321.86,2021-12-17 16:57:05.656250
1868,-365.93,2021-12-17 16:57:05.671875
1869,-406.67,2021-12-17 16:57:05.687500
1870,-444.41,2021-12-17 16:57:05.703125
1871,-480.47,2021-12-17 16:57:05.718750
1872,-516.86,2021-12-17 16:57:05.734375
1873,-555.73,2021-12-17 16:57:05.750000
1874,-598.56,2021-12-17 16:57:05.765625
1875,-644.91,2021-12-17 16:57:05.781250
1876,-691.4,2021-12-17 16:57:05.796875
1877,-731.56,2021-12-17 16:57:05.812500
1878,-757.17,2021-12-17 16:57:05.828125
1879,-760.83,2021-12-17 16:57:05.843750
1880,-738.87,2021-12-17 16:57:05.859375
1881,-693.01,2021-12-17 16:57:05.875000
1882,-629.84,2021-12-17 16:57:05.890625
1883,-558.21,2021-12-17 16:57:05.906250
1884,-486.09,2021-12-17 16:57:05.921875
1885,-418.26,2021-12-17 16:57:05.937500
1886,-355.87,2021-12-17 16:57:05.953125
1887,-297.72,2021-12-17 16:57:05.968750
1888,-242.16,2021-12-17 16:57:05.984375
1889,-188.53,2021-12-17 16:57:06.000000
1890,-137.5,2021-12-17 16:57:06.015625
1891,-90.58,2021-12-17 16:57:06.031250
1892,-49.42,2021-12-17 16:57:06.046875
1893,-15.22,2021-12-17 16:57:06.062500
1894,11.63,2021-12-17 16:57:06.078125
1895,31.63,2021-12-17 16:57:06.093750
1896,46.32,2021-12-17 16:57:06.109375
1897,57.8,2021-12-17 16:57:06.125000
1898,67.98,2021-12-17 16:57:06.140625
1899,78.06,2021-12-17 16:57:06.156250
1900,88.11,2021-12-17 16:57:06.171875
1901,97.38,2021-12-17 16:57:06.187500
1902,104.96,2021-12-17 16:57:06.203125
1903,110.5,2021-12-17 16:57:06.218750
1904,114.45,2021-12-17 16:57:06.234375
1905,117.6,2021-12-17 16:57:06.250000
1906,120.6,2021-12-17 16:57:06.265625
1907,123.56,2021-12-17 16:57:06.281250
1908,126.4,2021-12-17 16:57:06.296875
1909,129.27,2021-12-17 16:57:06.312500
1910,132.83,2021-12-17 16:57:06.328125
1911,137.77,2021-12-17 16:57:06.343750
1912,143.98,2021-12-17 16:57:06.359375
1913,150.04,2021-12-17 16:57:06.375000
1914,153.21,2021-12-17 16:57:06.390625
1915,150.44,2021-12-17 16:57:06.406250
1916,139.76,2021-12-17 16:57:06.421875
1917,121.37,2021-12-17 16:57:06.437500
1918,97.97,2021-12-17 16:57:06.453125
1919,73.72,2021-12-17 16:57:06.468750
1920,52.8,2021-12-17 16:57:06.484375
1921,38.12,2021-12-17 16:57:06.500000
1922,30.64,2021-12-17 16:57:06.515625
1923,29.42,2021-12-17 16:57:06.531250
1924,32.22,2021-12-17 16:57:06.546875
1925,36.33,2021-12-17 16:57:06.562500
1926,39.1,2021-12-17 16:57:06.578125
1927,38.66,2021-12-17 16:57:06.593750
1928,34.65,2021-12-17 16:57:06.609375
1929,28.47,2021-12-17 16:57:06.625000
1930,23.05,2021-12-17 16:57:06.640625
1931,21.99,2021-12-17 16:57:06.656250
1932,27.82,2021-12-17 16:57:06.671875
1933,40.73,2021-12-17 16:57:06.687500
1934,58.06,2021-12-17 16:57:06.703125
1935,75.0,2021-12-17 16:57:06.718750
1936,86.64,2021-12-17 16:57:06.734375
1937,90.0,2021-12-17 16:57:06.750000
1938,85.38,2021-12-17 16:57:06.765625
1939,75.95,2021-12-17 16:57:06.781250
1940,66.35,2021-12-17 16:57:06.796875
1941,60.4,2021-12-17 16:57:06.812500
1942,59.95,2021-12-17 16:57:06.828125
1943,64.74,2021-12-17 16:57:06.843750
1944,73.3,2021-12-17 16:57:06.859375
1945,84.11,2021-12-17 16:57:06.875000
1946,96.16,2021-12-17 16:57:06.890625
1947,108.63,2021-12-17 16:57:06.906250
1948,120.24,2021-12-17 16:57:06.921875
1949,129.04,2021-12-17 16:57:06.937500
1950,133.18,2021-12-17 16:57:06.953125
1951,132.07,2021-12-17 16:57:06.968750
1952,127.29,2021-12-17 16:57:06.984375
1953,122.31,2021-12-17 16:57:07.000000
1954,120.93,2021-12-17 16:57:07.015625
1955,125.25,2021-12-17 16:57:07.031250
1956,134.49,2021-12-17 16:57:07.046875
1957,145.36,2021-12-17 16:57:07.062500
1958,153.82,2021-12-17 16:57:07.078125
1959,157.13,2021-12-17 16:57:07.093750
1960,155.13,2021-12-17 16:57:07.109375
1961,149.79,2021-12-17 16:57:07.125000
1962,143.65,2021-12-17 16:57:07.140625
1963,138.21,2021-12-17 16:57:07.156250
1964,133.15,2021-12-17 16:57:07.171875
1965,127.05,2021-12-17 16:57:07.187500
1966,118.85,2021-12-17 16:57:07.203125
1967,109.15,2021-12-17 16:57:07.218750
1968,100.09,2021-12-17 16:57:07.234375
1969,94.32,2021-12-17 16:57:07.250000
1970,93.2,2021-12-17 16:57:07.265625
1971,95.84,2021-12-17 16:57:07.281250
1972,99.42,2021-12-17 16:57:07.296875
1973,100.58,2021-12-17 16:57:07.312500
1974,97.23,2021-12-17 16:57:07.328125
1975,89.52,2021-12-17 16:57:07.343750
1976,79.55,2021-12-17 16:57:07.359375
1977,69.8,2021-12-17 16:57:07.375000
1978,61.74,2021-12-17 16:57:07.390625
1979,54.99,2021-12-17 16:57:07.406250
1980,47.89,2021-12-17 16:57:07.421875
1981,38.89,2021-12-17 16:57:07.437500
1982,27.94,2021-12-17 16:57:07.453125
1983,16.81,2021-12-17 16:57:07.468750
1984,8.44,2021-12-17 16:57:07.484375
1985,5.52,2021-12-17 16:57:07.500000
1986,9.21,2021-12-17 16:57:07.515625
1987,18.7,2021-12-17 16:57:07.531250
1988,31.4,2021-12-17 16:57:07.546875
1989,44.19,2021-12-17 16:57:07.562500
1990,54.48,2021-12-17 16:57:07.578125
1991,61.17,2021-12-17 16:57:07.593750
1992,64.61,2021-12-17 16:57:07.609375
1993,65.77,2021-12-17 16:57:07.625000
1994,65.33,2021-12-17 16:57:07.640625
1995,63.16,2021-12-17 16:57:07.656250
1996,58.45,2021-12-17 16:57:07.671875
1997,50.54,2021-12-17 16:57:07.687500
1998,39.68,2021-12-17 16:57:07.703125
1999,27.39,2021-12-17 16:57:07.718750
2000,15.92,2021-12-17 16:57:07.734375
2001,7.33,2021-12-17 16:57:07.750000
2002,2.31,2021-12-17 16:57:07.765625
2003,-0.08,2021-12-17 16:57:07.781250
2004,-1.79,2021-12-17 16:57:07.796875
2005,-4.57,2021-12-17 16:57:07.812500
2006,-9.06,2021-12-17 16:57:07.828125
2007,-14.56,2021-12-17 16:57:07.843750
2008,-19.6,2021-12-17 16:57:07.859375
2009,-23.14,2021-12-17 16:57:07.875000
2010,-25.1,2021-12-17 16:57:07.890625
2011,-26.23,2021-12-17 16:57:07.906250
2012,-27.43,2021-12-17 16:57:07.921875
2013,-29.01,2021-12-17 16:57:07.937500
2014,-30.38,2021-12-17 16:57:07.953125
2015,-30.69,2021-12-17 16:57:07.968750
2016,-29.56,2021-12-17 16:57:07.984375
2017,-27.57,2021-12-17 16:57:08.000000
2018,-26.11,2021-12-17 16:57:08.015625
2019,-26.47,2021-12-17 16:57:08.031250
2020,-29.01,2021-12-17 16:57:08.046875
2021,-32.74,2021-12-17 16:57:08.062500
2022,-35.98,2021-12-17 16:57:08.078125
2023,-37.31,2021-12-17 16:57:08.093750
2024,-36.38,2021-12-17 16:57:08.109375
2025,-34.23,2021-12-17 16:57:08.125000
2026,-32.32,2021-12-17 16:57:08.140625
2027,-31.91,2021-12-17 16:57:08.156250
2028,-33.36,2021-12-17 16:57:08.171875
2029,-36.16,2021-12-17 16:57:08.187500
2030,-39.5,2021-12-17 16:57:08.203125
2031,-42.8,2021-12-17 16:57:08.218750
2032,-45.86,2021-12-17 16:57:08.234375
2033,-48.79,2021-12-17 16:57:08.250000
2034,-51.68,2021-12-17 16:57:08.265625
2035,-54.3,2021-12-17 16:57:08.281250
2036,-56.3,2021-12-17 16:57:08.296875
2037,-57.55,2021-12-17 16:57:08.312500
2038,-58.43,2021-12-17 16:57:08.328125
2039,-59.9,2021-12-17 16:57:08.343750
2040,-63.28,2021-12-17 16:57:08.359375
2041,-69.61,2021-12-17 16:57:08.375000
2042,-79.37,2021-12-17 16:57:08.390625
2043,-92.09,2021-12-17 16:57:08.406250
2044,-106.42,2021-12-17 16:57:08.421875
2045,-120.56,2021-12-17 16:57:08.437500
2046,-132.77,2021-12-17 16:57:08.453125
2047,-141.96,2021-12-17 16:57:08.468750
2048,-148.16,2021-12-17 16:57:08.484375
2049,-152.46,2021-12-17 16:57:08.500000
2050,-156.26,2021-12-17 16:57:08.515625
2051,-160.51,2021-12-17 16:57:08.531250
2052,-165.25,2021-12-17 16:57:08.546875
2053,-169.7,2021-12-17 16:57:08.562500
2054,-172.3,2021-12-17 16:57:08.578125
2055,-171.28,2021-12-17 16:57:08.593750
2056,-164.77,2021-12-17 16:57:08.609375
2057,-151.23,2021-12-17 16:57:08.625000
2058,-130.05,2021-12-17 16:57:08.640625
2059,-102.3,2021-12-17 16:57:08.656250
2060,-71.91,2021-12-17 16:57:08.671875
2061,-45.71,2021-12-17 16:57:08.687500
2062,-31.78,2021-12-17 16:57:08.703125
2063,-36.3,2021-12-17 16:57:08.718750
2064,-60.35,2021-12-17 16:57:08.734375
2065,-98.33,2021-12-17 16:57:08.750000
2066,-139.82,2021-12-17 16:57:08.765625
2067,-173.63,2021-12-17 16:57:08.781250
2068,-191.63,2021-12-17 16:57:08.796875
2069,-191.86,2021-12-17 16:57:08.812500
2070,-178.04,2021-12-17 16:57:08.828125
2071,-156.25,2021-12-17 16:57:08.843750
2072,-131.39,2021-12-17 16:57:08.859375
2073,-105.49,2021-12-17 16:57:08.875000
2074,-77.66,2021-12-17 16:57:08.890625
2075,-46.58,2021-12-17 16:57:08.906250
2076,-12.35,2021-12-17 16:57:08.921875
2077,24.42,2021-12-17 16:57:08.937500
2078,62.69,2021-12-17 16:57:08.953125
2079,102.08,2021-12-17 16:57:08.968750
2080,143.13,2021-12-17 16:57:08.984375
2081,185.96,2021-12-17 16:57:09.000000
2082,227.74,2021-12-17 16:57:09.015625
2083,263.24,2021-12-17 16:57:09.031250
2084,285.55,2021-12-17 16:57:09.046875
2085,289.4,2021-12-17 16:57:09.062500
2086,276.95,2021-12-17 16:57:09.078125
2087,256.98,2021-12-17 16:57:09.093750
2088,241.49,2021-12-17 16:57:09.109375
2089,240.89,2021-12-17 16:57:09.125000
2090,259.84,2021-12-17 16:57:09.140625
2091,294.97,2021-12-17 16:57:09.156250
2092,339.22,2021-12-17 16:57:09.171875
2093,384.7,2021-12-17 16:57:09.187500
2094,426.11,2021-12-17 16:57:09.203125
2095,464.74,2021-12-17 16:57:09.218750
2096,503.84,2021-12-17 16:57:09.234375
2097,543.97,2021-12-17 16:57:09.250000
2098,580.56,2021-12-17 16:57:09.265625
2099,605.31,2021-12-17 16:57:09.281250
2100,609.02,2021-12-17 16:57:09.296875
2101,588.78,2021-12-17 16:57:09.312500
2102,548.33,2021-12-17 16:57:09.328125
2103,480.31,2021-12-17 16:57:09.343750
2104,387.91,2021-12-17 16:57:09.359375
2105,282.95,2021-12-17 16:57:09.375000
2106,181.54,2021-12-17 16:57:09.390625
2107,96.59,2021-12-17 16:57:09.406250
2108,41.4,2021-12-17 16:57:09.421875
2109,9.32,2021-12-17 16:57:09.437500
2110,-8.05,2021-12-17 16:57:09.453125
2111,-16.32,2021-12-17 16:57:09.468750
2112,-18.74,2021-12-17 16:57:09.484375
2113,-18.48,2021-12-17 16:57:09.500000
2114,-17.66,2021-12-17 16:57:09.515625
2115,-19.33,2021-12-17 16:57:09.531250
2116,-26.63,2021-12-17 16:57:09.546875
2117,-41.47,2021-12-17 16:57:09.562500
2118,-64.7,2021-12-17 16:57:09.578125
2119,-93.24,2021-12-17 16:57:09.593750
2120,-122.97,2021-12-17 16:57:09.609375
2121,-150.63,2021-12-17 16:57:09.625000
2122,-172.7,2021-12-17 16:57:09.640625
2123,-187.75,2021-12-17 16:57:09.656250
2124,-197.65,2021-12-17 16:57:09.671875
2125,-206.43,2021-12-17 16:57:09.687500
2126,-217.9,2021-12-17 16:57:09.703125
2127,-234.2,2021-12-17 16:57:09.718750
2128,-252.2,2021-12-17 16:57:09.734375
2129,-265.53,2021-12-17 16:57:09.750000
2130,-267.34,2021-12-17 16:57:09.765625
2131,-251.95,2021-12-17 16:57:09.781250
2132,-217.78,2021-12-17 16:57:09.796875
2133,-168.27,2021-12-17 16:57:09.812500
2134,-109.57,2021-12-17 16:57:09.828125
2135,-47.45,2021-12-17 16:57:09.843750
2136,13.41,2021-12-17 16:57:09.859375
2137,70.27,2021-12-17 16:57:09.875000
2138,119.72,2021-12-17 16:57:09.890625
2139,156.41,2021-12-17 16:57:09.906250
2140,175.11,2021-12-17 16:57:09.921875
2141,172.97,2021-12-17 16:57:09.937500
2142,151.27,2021-12-17 16:57:09.953125
2143,115.9,2021-12-17 16:57:09.968750
2144,75.71,2021-12-17 16:57:09.984375
2145,38.36,2021-12-17 16:57:10.000000
2146,8.14,2021-12-17 16:57:10.015625
2147,-14.93,2021-12-17 16:57:10.031250
2148,-33.65,2021-12-17 16:57:10.046875
2149,-50.94,2021-12-17 16:57:10.062500
2150,-68.14,2021-12-17 16:57:10.078125
2151,-85.03,2021-12-17 16:57:10.093750
2152,-99.73,2021-12-17 16:57:10.109375
2153,-109.25,2021-12-17 16:57:10.125000
2154,-110.93,2021-12-17 16:57:10.140625
2155,-103.34,2021-12-17 16:57:10.156250
2156,-87.54,2021-12-17 16:57:10.171875
2157,-67.58,2021-12-17 16:57:10.187500
2158,-49.2,2021-12-17 16:57:10.203125
2159,-37.26,2021-12-17 16:57:10.218750
2160,-33.79,2021-12-17 16:57:10.234375
2161,-36.28,2021-12-17 16:57:10.250000
2162,-38.79,2021-12-17 16:57:10.265625
2163,-35.25,2021-12-17 16:57:10.281250
2164,-22.61,2021-12-17 16:57:10.296875
2165,-2.44,2021-12-17 16:57:10.312500
2166,19.81,2021-12-17 16:57:10.328125
2167,37.36,2021-12-17 16:57:10.343750
2168,44.15,2021-12-17 16:57:10.359375
2169,35.42,2021-12-17 16:57:10.375000
2170,10.21,2021-12-17 16:57:10.390625
2171,-28.21,2021-12-17 16:57:10.406250
2172,-72.49,2021-12-17 16:57:10.421875
2173,-113.15,2021-12-17 16:57:10.437500
2174,-141.95,2021-12-17 16:57:10.453125
2175,-155.55,2021-12-17 16:57:10.468750
2176,-157.25,2021-12-17 16:57:10.484375
2177,-156.09,2021-12-17 16:57:10.500000
2178,-164.71,2021-12-17 16:57:10.515625
2179,-191.22,2021-12-17 16:57:10.531250
2180,-235.58,2021-12-17 16:57:10.546875
2181,-290.5,2021-12-17 16:57:10.562500
2182,-345.85,2021-12-17 16:57:10.578125
2183,-393.98,2021-12-17 16:57:10.593750
2184,-431.86,2021-12-17 16:57:10.609375
2185,-459.36,2021-12-17 16:57:10.625000
2186,-476.73,2021-12-17 16:57:10.640625
2187,-484.82,2021-12-17 16:57:10.656250
2188,-481.79,2021-12-17 16:57:10.671875
2189,-464.96,2021-12-17 16:57:10.687500
2190,-433.22,2021-12-17 16:57:10.703125
2191,-388.67,2021-12-17 16:57:10.718750
2192,-335.3,2021-12-17 16:57:10.734375
2193,-276.54,2021-12-17 16:57:10.750000
2194,-213.35,2021-12-17 16:57:10.765625
2195,-131.51,2021-12-17 16:57:10.781250
2196,-29.17,2021-12-17 16:57:10.796875
2197,81.92,2021-12-17 16:57:10.812500
2198,181.22,2021-12-17 16:57:10.828125
2199,251.22,2021-12-17 16:57:10.843750
2200,285.41,2021-12-17 16:57:10.859375
2201,288.21,2021-12-17 16:57:10.875000
2202,269.26,2021-12-17 16:57:10.890625
2203,238.51,2021-12-17 16:57:10.906250
2204,202.73,2021-12-17 16:57:10.921875
2205,163.29,2021-12-17 16:57:10.937500
2206,120.95,2021-12-17 16:57:10.953125
2207,77.97,2021-12-17 16:57:10.968750
2208,38.23,2021-12-17 16:57:10.984375
2209,5.39,2021-12-17 16:57:11.000000
2210,-18.43,2021-12-17 16:57:11.015625
2211,-35.17,2021-12-17 16:57:11.031250
2212,-45.96,2021-12-17 16:57:11.046875
2213,-52.13,2021-12-17 16:57:11.062500
2214,-56.01,2021-12-17 16:57:11.078125
2215,-58.25,2021-12-17 16:57:11.093750
2216,-57.54,2021-12-17 16:57:11.109375
2217,-51.64,2021-12-17 16:57:11.125000
2218,-38.98,2021-12-17 16:57:11.140625
2219,-19.25,2021-12-17 16:57:11.156250
2220,6.23,2021-12-17 16:57:11.171875
2221,35.58,2021-12-17 16:57:11.187500
2222,66.66,2021-12-17 16:57:11.203125
2223,96.82,2021-12-17 16:57:11.218750
2224,124.79,2021-12-17 16:57:11.234375
2225,151.24,2021-12-17 16:57:11.250000
2226,178.47,2021-12-17 16:57:11.265625
2227,205.88,2021-12-17 16:57:11.281250
2228,233.34,2021-12-17 16:57:11.296875
2229,260.47,2021-12-17 16:57:11.312500
2230,286.84,2021-12-17 16:57:11.328125
2231,311.59,2021-12-17 16:57:11.343750
2232,333.1,2021-12-17 16:57:11.359375
2233,349.92,2021-12-17 16:57:11.375000
2234,361.27,2021-12-17 16:57:11.390625
2235,367.1,2021-12-17 16:57:11.406250
2236,367.78,2021-12-17 16:57:11.421875
2237,364.21,2021-12-17 16:57:11.437500
2238,357.22,2021-12-17 16:57:11.453125
2239,347.67,2021-12-17 16:57:11.468750
2240,336.26,2021-12-17 16:57:11.484375
2241,323.93,2021-12-17 16:57:11.500000
2242,312.46,2021-12-17 16:57:11.515625
2243,304.15,2021-12-17 16:57:11.531250
2244,300.28,2021-12-17 16:57:11.546875
2245,299.36,2021-12-17 16:57:11.562500
2246,296.5,2021-12-17 16:57:11.578125
2247,284.68,2021-12-17 16:57:11.593750
2248,257.52,2021-12-17 16:57:11.609375
2249,212.07,2021-12-17 16:57:11.625000
2250,150.76,2021-12-17 16:57:11.640625
2251,80.9,2021-12-17 16:57:11.656250
2252,12.16,2021-12-17 16:57:11.671875
2253,-46.92,2021-12-17 16:57:11.687500
2254,-91.4,2021-12-17 16:57:11.703125
2255,-121.14,2021-12-17 16:57:11.718750
2256,-139.13,2021-12-17 16:57:11.734375
2257,-150.04,2021-12-17 16:57:11.750000
2258,-159.46,2021-12-17 16:57:11.765625
2259,-172.98,2021-12-17 16:57:11.781250
2260,-195.83,2021-12-17 16:57:11.796875
2261,-231.51,2021-12-17 16:57:11.812500
2262,-280.09,2021-12-17 16:57:11.828125
2263,-336.91,2021-12-17 16:57:11.843750
2264,-393.21,2021-12-17 16:57:11.859375
2265,-437.11,2021-12-17 16:57:11.875000
2266,-457.29,2021-12-17 16:57:11.890625
2267,-447.4,2021-12-17 16:57:11.906250
2268,-408.45,2021-12-17 16:57:11.921875
2269,-348.91,2021-12-17 16:57:11.937500
2270,-282.39,2021-12-17 16:57:11.953125
2271,-223.55,2021-12-17 16:57:11.968750
2272,-179.5,2021-12-17 16:57:11.984375
2273,-154.83,2021-12-17 16:57:12.000000
2274,-147.27,2021-12-17 16:57:12.015625
2275,-147.74,2021-12-17 16:57:12.031250
2276,-145.2,2021-12-17 16:57:12.046875
2277,-131.7,2021-12-17 16:57:12.062500
2278,-105.6,2021-12-17 16:57:12.078125
2279,-70.98,2021-12-17 16:57:12.093750
2280,-34.14,2021-12-17 16:57:12.109375
2281,-0.41,2021-12-17 16:57:12.125000
2282,27.05,2021-12-17 16:57:12.140625
2283,48.36,2021-12-17 16:57:12.156250
2284,65.35,2021-12-17 16:57:12.171875
2285,78.96,2021-12-17 16:57:12.187500
2286,89.75,2021-12-17 16:57:12.203125
2287,98.33,2021-12-17 16:57:12.218750
2288,105.8,2021-12-17 16:57:12.234375
2289,114.01,2021-12-17 16:57:12.250000
2290,124.79,2021-12-17 16:57:12.265625
2291,138.74,2021-12-17 16:57:12.281250
2292,155.44,2021-12-17 16:57:12.296875
2293,175.16,2021-12-17 16:57:12.312500
2294,194.83,2021-12-17 16:57:12.328125
2295,210.7,2021-12-17 16:57:12.343750
2296,219.4,2021-12-17 16:57:12.359375
2297,218.51,2021-12-17 16:57:12.375000
2298,206.86,2021-12-17 16:57:12.390625
2299,184.59,2021-12-17 16:57:12.406250
2300,152.35,2021-12-17 16:57:12.421875
2301,109.31,2021-12-17 16:57:12.437500
2302,58.8,2021-12-17 16:57:12.453125
2303,3.74,2021-12-17 16:57:12.468750
2304,-52.19,2021-12-17 16:57:12.484375
2305,-103.77,2021-12-17 16:57:12.500000
2306,-144.16,2021-12-17 16:57:12.515625
2307,-166.46,2021-12-17 16:57:12.531250
2308,-166.41,2021-12-17 16:57:12.546875
2309,-145.23,2021-12-17 16:57:12.562500
2310,-109.53,2021-12-17 16:57:12.578125
2311,-69.12,2021-12-17 16:57:12.593750
2312,-34.32,2021-12-17 16:57:12.609375
2313,-11.48,2021-12-17 16:57:12.625000
2314,-1.72,2021-12-17 16:57:12.640625
2315,-2.06,2021-12-17 16:57:12.656250
2316,-8.23,2021-12-17 16:57:12.671875
2317,-17.08,2021-12-17 16:57:12.687500
2318,-27.76,2021-12-17 16:57:12.703125
2319,-40.52,2021-12-17 16:57:12.718750
2320,-55.07,2021-12-17 16:57:12.734375
2321,-70.31,2021-12-17 16:57:12.750000
2322,-83.94,2021-12-17 16:57:12.765625
2323,-93.64,2021-12-17 16:57:12.781250
2324,-98.3,2021-12-17 16:57:12.796875
2325,-99.05,2021-12-17 16:57:12.812500
2326,-97.02,2021-12-17 16:57:12.828125
2327,-93.62,2021-12-17 16:57:12.843750
2328,-89.36,2021-12-17 16:57:12.859375
2329,-83.24,2021-12-17 16:57:12.875000
2330,-73.61,2021-12-17 16:57:12.890625
2331,-58.69,2021-12-17 16:57:12.906250
2332,-37.66,2021-12-17 16:57:12.921875
2333,-11.53,2021-12-17 16:57:12.937500
2334,16.98,2021-12-17 16:57:12.953125
2335,44.32,2021-12-17 16:57:12.968750
2336,67.02,2021-12-17 16:57:12.984375
2337,83.08,2021-12-17 16:57:13.000000
2338,92.75,2021-12-17 16:57:13.015625
2339,98.14,2021-12-17 16:57:13.031250
2340,102.43,2021-12-17 16:57:13.046875
2341,108.53,2021-12-17 16:57:13.062500
2342,117.71,2021-12-17 16:57:13.078125
2343,129.15,2021-12-17 16:57:13.093750
2344,140.62,2021-12-17 16:57:13.109375
2345,148.98,2021-12-17 16:57:13.125000
2346,151.86,2021-12-17 16:57:13.140625
2347,148.64,2021-12-17 16:57:13.156250
2348,140.54,2021-12-17 16:57:13.171875
2349,130.45,2021-12-17 16:57:13.187500
2350,122.09,2021-12-17 16:57:13.203125
2351,118.84,2021-12-17 16:57:13.218750
2352,122.42,2021-12-17 16:57:13.234375
2353,131.75,2021-12-17 16:57:13.250000
2354,142.12,2021-12-17 16:57:13.265625
2355,146.25,2021-12-17 16:57:13.281250
2356,136.82,2021-12-17 16:57:13.296875
2357,109.46,2021-12-17 16:57:13.312500
2358,65.37,2021-12-17 16:57:13.328125
2359,11.43,2021-12-17 16:57:13.343750
2360,-42.02,2021-12-17 16:57:13.359375
2361,-85.49,2021-12-17 16:57:13.375000
2362,-112.84,2021-12-17 16:57:13.390625
2363,-123.24,2021-12-17 16:57:13.406250
2364,-121.22,2021-12-17 16:57:13.421875
2365,-114.47,2021-12-17 16:57:13.437500
2366,-110.71,2021-12-17 16:57:13.453125
2367,-114.55,2021-12-17 16:57:13.468750
2368,-126.07,2021-12-17 16:57:13.484375
2369,-140.86,2021-12-17 16:57:13.500000
2370,-151.86,2021-12-17 16:57:13.515625
2371,-152.22,2021-12-17 16:57:13.531250
2372,-138.44,2021-12-17 16:57:13.546875
2373,-112.59,2021-12-17 16:57:13.562500
2374,-82.35,2021-12-17 16:57:13.578125
2375,-59.08,2021-12-17 16:57:13.593750
2376,-54.08,2021-12-17 16:57:13.609375
2377,-74.49,2021-12-17 16:57:13.625000
2378,-120.16,2021-12-17 16:57:13.640625
2379,-183.24,2021-12-17 16:57:13.656250
2380,-250.35,2021-12-17 16:57:13.671875
2381,-306.43,2021-12-17 16:57:13.687500
2382,-339.12,2021-12-17 16:57:13.703125
2383,-341.6,2021-12-17 16:57:13.718750
2384,-313.67,2021-12-17 16:57:13.734375
2385,-261.06,2021-12-17 16:57:13.750000
2386,-193.27,2021-12-17 16:57:13.765625
2387,-120.97,2021-12-17 16:57:13.781250
2388,-53.69,2021-12-17 16:57:13.796875
2389,1.58,2021-12-17 16:57:13.812500
2390,40.39,2021-12-17 16:57:13.828125
2391,60.62,2021-12-17 16:57:13.843750
2392,62.24,2021-12-17 16:57:13.859375
2393,47.16,2021-12-17 16:57:13.875000
2394,19.48,2021-12-17 16:57:13.890625
2395,-14.9,2021-12-17 16:57:13.906250
2396,-48.84,2021-12-17 16:57:13.921875
2397,-75.43,2021-12-17 16:57:13.937500
2398,-90.09,2021-12-17 16:57:13.953125
2399,-92.26,2021-12-17 16:57:13.968750
2400,-85.96,2021-12-17 16:57:13.984375
2401,-78.38,2021-12-17 16:57:14.000000
2402,-76.76,2021-12-17 16:57:14.015625
2403,-85.11,2021-12-17 16:57:14.031250
2404,-102.39,2021-12-17 16:57:14.046875
2405,-123.41,2021-12-17 16:57:14.062500
2406,-142.11,2021-12-17 16:57:14.078125
2407,-154.49,2021-12-17 16:57:14.093750
2408,-160.26,2021-12-17 16:57:14.109375
2409,-161.86,2021-12-17 16:57:14.125000
2410,-161.32,2021-12-17 16:57:14.140625
2411,-158.18,2021-12-17 16:57:14.156250
2412,-149.63,2021-12-17 16:57:14.171875
2413,-132.81,2021-12-17 16:57:14.187500
2414,-107.86,2021-12-17 16:57:14.203125
2415,-79.2,2021-12-17 16:57:14.218750
2416,-53.95,2021-12-17 16:57:14.234375
2417,-38.51,2021-12-17 16:57:14.250000
2418,-35.61,2021-12-17 16:57:14.265625
2419,-43.14,2021-12-17 16:57:14.281250
2420,-55.58,2021-12-17 16:57:14.296875
2421,-66.58,2021-12-17 16:57:14.312500
2422,-71.66,2021-12-17 16:57:14.328125
2423,-69.29,2021-12-17 16:57:14.343750
2424,-60.47,2021-12-17 16:57:14.359375
2425,-47.5,2021-12-17 16:57:14.375000
2426,-32.61,2021-12-17 16:57:14.390625
2427,-17.33,2021-12-17 16:57:14.406250
2428,-2.27,2021-12-17 16:57:14.421875
2429,12.48,2021-12-17 16:57:14.437500
2430,27.07,2021-12-17 16:57:14.453125
2431,41.31,2021-12-17 16:57:14.468750
2432,54.83,2021-12-17 16:57:14.484375
2433,67.18,2021-12-17 16:57:14.500000
2434,78.22,2021-12-17 16:57:14.515625
2435,88.29,2021-12-17 16:57:14.531250
2436,98.3,2021-12-17 16:57:14.546875
2437,109.57,2021-12-17 16:57:14.562500
2438,123.34,2021-12-17 16:57:14.578125
2439,140.58,2021-12-17 16:57:14.593750
2440,161.83,2021-12-17 16:57:14.609375
2441,187.18,2021-12-17 16:57:14.625000
2442,216.14,2021-12-17 16:57:14.640625
2443,247.41,2021-12-17 16:57:14.656250
2444,278.59,2021-12-17 16:57:14.671875
2445,306.22,2021-12-17 16:57:14.687500
2446,326.5,2021-12-17 16:57:14.703125
2447,336.48,2021-12-17 16:57:14.718750
2448,335.26,2021-12-17 16:57:14.734375
2449,324.54,2021-12-17 16:57:14.750000
2450,308.17,2021-12-17 16:57:14.765625
2451,290.61,2021-12-17 16:57:14.781250
2452,275.19,2021-12-17 16:57:14.796875
2453,262.97,2021-12-17 16:57:14.812500
2454,252.7,2021-12-17 16:57:14.828125
2455,241.89,2021-12-17 16:57:14.843750
2456,228.24,2021-12-17 16:57:14.859375
2457,210.69,2021-12-17 16:57:14.875000
2458,189.67,2021-12-17 16:57:14.890625
2459,166.73,2021-12-17 16:57:14.906250
2460,143.72,2021-12-17 16:57:14.921875
2461,122.18,2021-12-17 16:57:14.937500
2462,103.06,2021-12-17 16:57:14.953125
2463,86.76,2021-12-17 16:57:14.968750
2464,73.3,2021-12-17 16:57:14.984375
2465,62.49,2021-12-17 16:57:15.000000
2466,54.01,2021-12-17 16:57:15.015625
2467,47.28,2021-12-17 16:57:15.031250
2468,41.67,2021-12-17 16:57:15.046875
2469,36.62,2021-12-17 16:57:15.062500
2470,31.7,2021-12-17 16:57:15.078125
2471,26.72,2021-12-17 16:57:15.093750
2472,21.71,2021-12-17 16:57:15.109375
2473,16.86,2021-12-17 16:57:15.125000
2474,12.48,2021-12-17 16:57:15.140625
2475,8.92,2021-12-17 16:57:15.156250
2476,6.47,2021-12-17 16:57:15.171875
2477,5.25,2021-12-17 16:57:15.187500
2478,5.13,2021-12-17 16:57:15.203125
2479,5.7,2021-12-17 16:57:15.218750
2480,6.29,2021-12-17 16:57:15.234375
2481,6.22,2021-12-17 16:57:15.250000
2482,5.07,2021-12-17 16:57:15.265625
2483,2.9,2021-12-17 16:57:15.281250
2484,0.2,2021-12-17 16:57:15.296875
2485,-2.3,2021-12-17 16:57:15.312500
2486,-3.95,2021-12-17 16:57:15.328125
2487,-4.58,2021-12-17 16:57:15.343750
2488,-4.39,2021-12-17 16:57:15.359375
2489,-4.0,2021-12-17 16:57:15.375000
2490,-3.97,2021-12-17 16:57:15.390625
2491,-4.57,2021-12-17 16:57:15.406250
2492,-5.62,2021-12-17 16:57:15.421875
2493,-6.62,2021-12-17 16:57:15.437500
2494,-7.09,2021-12-17 16:57:15.453125
2495,-6.9,2021-12-17 16:57:15.468750
2496,-6.35,2021-12-17 16:57:15.484375
2497,-6.0,2021-12-17 16:57:15.500000
2498,-6.39,2021-12-17 16:57:15.515625
2499,-7.78,2021-12-17 16:57:15.531250
2500,-10.02,2021-12-17 16:57:15.546875
2501,-12.66,2021-12-17 16:57:15.562500
2502,-15.16,2021-12-17 16:57:15.578125
2503,-17.12,2021-12-17 16:57:15.593750
2504,-18.3,2021-12-17 16:57:15.609375
2505,-18.71,2021-12-17 16:57:15.625000
2506,-18.43,2021-12-17 16:57:15.640625
2507,-17.58,2021-12-17 16:57:15.656250
2508,-16.38,2021-12-17 16:57:15.671875
2509,-15.07,2021-12-17 16:57:15.687500
2510,-13.89,2021-12-17 16:57:15.703125
2511,-13.0,2021-12-17 16:57:15.718750
2512,-12.44,2021-12-17 16:57:15.734375
2513,-12.08,2021-12-17 16:57:15.750000
2514,-11.76,2021-12-17 16:57:15.765625
2515,-11.45,2021-12-17 16:57:15.781250
2516,-11.28,2021-12-17 16:57:15.796875
2517,-11.57,2021-12-17 16:57:15.812500
2518,-12.55,2021-12-17 16:57:15.828125
2519,-14.19,2021-12-17 16:57:15.843750
2520,-16.13,2021-12-17 16:57:15.859375
2521,-17.69,2021-12-17 16:57:15.875000
2522,-18.27,2021-12-17 16:57:15.890625
2523,-17.51,2021-12-17 16:57:15.906250
2524,-15.52,2021-12-17 16:57:15.921875
2525,-12.77,2021-12-17 16:57:15.937500
2526,-9.83,2021-12-17 16:57:15.953125
2527,-7.12,2021-12-17 16:57:15.968750
2528,-4.81,2021-12-17 16:57:15.984375
2529,-2.81,2021-12-17 16:57:16.000000
2530,-0.93,2021-12-17 16:57:16.015625
2531,0.91,2021-12-17 16:57:16.031250
2532,2.72,2021-12-17 16:57:16.046875
2533,4.37,2021-12-17 16:57:16.062500
2534,5.75,2021-12-17 16:57:16.078125
2535,6.8,2021-12-17 16:57:16.093750
2536,7.42,2021-12-17 16:57:16.109375
2537,7.48,2021-12-17 16:57:16.125000
2538,6.88,2021-12-17 16:57:16.140625
2539,5.57,2021-12-17 16:57:16.156250
2540,3.68,2021-12-17 16:57:16.171875
2541,1.54,2021-12-17 16:57:16.187500
2542,-0.39,2021-12-17 16:57:16.203125
2543,-1.71,2021-12-17 16:57:16.218750
2544,-2.22,2021-12-17 16:57:16.234375
2545,-2.08,2021-12-17 16:57:16.250000
2546,-1.7,2021-12-17 16:57:16.265625
2547,-1.55,2021-12-17 16:57:16.281250
2548,-1.94,2021-12-17 16:57:16.296875
2549,-2.8,2021-12-17 16:57:16.312500
2550,-3.83,2021-12-17 16:57:16.328125
2551,-4.64,2021-12-17 16:57:16.343750
2552,-4.93,2021-12-17 16:57:16.359375
2553,-4.63,2021-12-17 16:57:16.375000
2554,-3.9,2021-12-17 16:57:16.390625
2555,-3.1,2021-12-17 16:57:16.406250
2556,-2.62,2021-12-17 16:57:16.421875
2557,-2.88,2021-12-17 16:57:16.437500
2558,-4.16,2021-12-17 16:57:16.453125
2559,-6.56,2021-12-17 16:57:16.468750
2560,-9.98,2021-12-17 16:57:16.484375
2561,-14.07,2021-12-17 16:57:16.500000
2562,-18.3,2021-12-17 16:57:16.515625
2563,-22.1,2021-12-17 16:57:16.531250
2564,-25.04,2021-12-17 16:57:16.546875
2565,-26.91,2021-12-17 16:57:16.562500
2566,-27.78,2021-12-17 16:57:16.578125
2567,-27.84,2021-12-17 16:57:16.593750
2568,-27.32,2021-12-17 16:57:16.609375
2569,-26.44,2021-12-17 16:57:16.625000
2570,-25.31,2021-12-17 16:57:16.640625
2571,-24.0,2021-12-17 16:57:16.656250
2572,-22.56,2021-12-17 16:57:16.671875
2573,-21.02,2021-12-17 16:57:16.687500
2574,-19.36,2021-12-17 16:57:16.703125
2575,-17.6,2021-12-17 16:57:16.718750
2576,-15.72,2021-12-17 16:57:16.734375
2577,-13.71,2021-12-17 16:57:16.750000
2578,-11.63,2021-12-17 16:57:16.765625
2579,-9.56,2021-12-17 16:57:16.781250
2580,-7.62,2021-12-17 16:57:16.796875
2581,-5.94,2021-12-17 16:57:16.812500
2582,-4.61,2021-12-17 16:57:16.828125
2583,-3.6,2021-12-17 16:57:16.843750
2584,-2.81,2021-12-17 16:57:16.859375
2585,-2.07,2021-12-17 16:57:16.875000
2586,-1.15,2021-12-17 16:57:16.890625
2587,0.06,2021-12-17 16:57:16.906250
2588,1.6,2021-12-17 16:57:16.921875
2589,3.38,2021-12-17 16:57:16.937500
2590,5.2,2021-12-17 16:57:16.953125
2591,6.87,2021-12-17 16:57:16.968750
2592,8.21,2021-12-17 16:57:16.984375
2593,9.04,2021-12-17 16:57:17.000000
2594,9.3,2021-12-17 16:57:17.015625
2595,8.99,2021-12-17 16:57:17.031250
2596,8.15,2021-12-17 16:57:17.046875
2597,6.88,2021-12-17 16:57:17.062500
2598,5.31,2021-12-17 16:57:17.078125
2599,3.45,2021-12-17 16:57:17.093750
2600,1.36,2021-12-17 16:57:17.109375
2601,-0.93,2021-12-17 16:57:17.125000
2602,-3.28,2021-12-17 16:57:17.140625
2603,-5.42,2021-12-17 16:57:17.156250
2604,-6.94,2021-12-17 16:57:17.171875
2605,-7.59,2021-12-17 16:57:17.187500
2606,-7.21,2021-12-17 16:57:17.203125
2607,-5.89,2021-12-17 16:57:17.218750
2608,-3.96,2021-12-17 16:57:17.234375
2609,-1.82,2021-12-17 16:57:17.250000
2610,0.19,2021-12-17 16:57:17.265625
2611,1.92,2021-12-17 16:57:17.281250
2612,3.4,2021-12-17 16:57:17.296875
2613,4.82,2021-12-17 16:57:17.312500
2614,6.27,2021-12-17 16:57:17.328125
2615,7.8,2021-12-17 16:57:17.343750
2616,9.26,2021-12-17 16:57:17.359375
2617,10.39,2021-12-17 16:57:17.375000
2618,10.9,2021-12-17 16:57:17.390625
2619,10.6,2021-12-17 16:57:17.406250
2620,9.48,2021-12-17 16:57:17.421875
2621,7.76,2021-12-17 16:57:17.437500
2622,5.84,2021-12-17 16:57:17.453125
2623,4.26,2021-12-17 16:57:17.468750
2624,3.5,2021-12-17 16:57:17.484375
2625,3.9,2021-12-17 16:57:17.500000
2626,5.5,2021-12-17 16:57:17.515625
2627,8.03,2021-12-17 16:57:17.531250
2628,11.0,2021-12-17 16:57:17.546875
2629,13.8,2021-12-17 16:57:17.562500
2630,15.98,2021-12-17 16:57:17.578125
2631,17.24,2021-12-17 16:57:17.593750
2632,17.56,2021-12-17 16:57:17.609375
2633,17.14,2021-12-17 16:57:17.625000
2634,16.33,2021-12-17 16:57:17.640625
2635,15.61,2021-12-17 16:57:17.656250
2636,15.53,2021-12-17 16:57:17.671875
2637,16.54,2021-12-17 16:57:17.687500
2638,18.83,2021-12-17 16:57:17.703125
2639,22.26,2021-12-17 16:57:17.718750
2640,26.36,2021-12-17 16:57:17.734375
2641,30.48,2021-12-17 16:57:17.750000
2642,34.2,2021-12-17 16:57:17.765625
2643,37.44,2021-12-17 16:57:17.781250
2644,40.61,2021-12-17 16:57:17.796875
2645,44.42,2021-12-17 16:57:17.812500
2646,49.48,2021-12-17 16:57:17.828125
2647,55.9,2021-12-17 16:57:17.843750
2648,63.18,2021-12-17 16:57:17.859375
2649,70.25,2021-12-17 16:57:17.875000
2650,75.93,2021-12-17 16:57:17.890625
2651,79.32,2021-12-17 16:57:17.906250
2652,80.16,2021-12-17 16:57:17.921875
2653,78.78,2021-12-17 16:57:17.937500
2654,75.88,2021-12-17 16:57:17.953125
2655,72.23,2021-12-17 16:57:17.968750
2656,68.49,2021-12-17 16:57:17.984375
2657,65.22,2021-12-17 16:57:18.000000
2658,62.68,2021-12-17 16:57:18.015625
2659,60.7,2021-12-17 16:57:18.031250
2660,58.41,2021-12-17 16:57:18.046875
2661,54.18,2021-12-17 16:57:18.062500
2662,46.27,2021-12-17 16:57:18.078125
2663,33.81,2021-12-17 16:57:18.093750
2664,17.7,2021-12-17 16:57:18.109375
2665,0.96,2021-12-17 16:57:18.125000
2666,-12.08,2021-12-17 16:57:18.140625
2667,-17.63,2021-12-17 16:57:18.156250
2668,-14.2,2021-12-17 16:57:18.171875
2669,-3.52,2021-12-17 16:57:18.187500
2670,10.09,2021-12-17 16:57:18.203125
2671,21.68,2021-12-17 16:57:18.218750
2672,27.67,2021-12-17 16:57:18.234375
2673,26.92,2021-12-17 16:57:18.250000
2674,20.46,2021-12-17 16:57:18.265625
2675,10.26,2021-12-17 16:57:18.281250
2676,-1.98,2021-12-17 16:57:18.296875
2677,-15.35,2021-12-17 16:57:18.312500
2678,-29.37,2021-12-17 16:57:18.328125
2679,-43.65,2021-12-17 16:57:18.343750
2680,-57.53,2021-12-17 16:57:18.359375
2681,-70.24,2021-12-17 16:57:18.375000
2682,-81.2,2021-12-17 16:57:18.390625
2683,-90.15,2021-12-17 16:57:18.406250
2684,-96.98,2021-12-17 16:57:18.421875
2685,-101.43,2021-12-17 16:57:18.437500
2686,-103.08,2021-12-17 16:57:18.453125
2687,-101.55,2021-12-17 16:57:18.468750
2688,-96.95,2021-12-17 16:57:18.484375
2689,-89.97,2021-12-17 16:57:18.500000
2690,-81.76,2021-12-17 16:57:18.515625
2691,-73.3,2021-12-17 16:57:18.531250
2692,-65.09,2021-12-17 16:57:18.546875
2693,-57.18,2021-12-17 16:57:18.562500
2694,-49.39,2021-12-17 16:57:18.578125
2695,-41.5,2021-12-17 16:57:18.593750
2696,-33.14,2021-12-17 16:57:18.609375
2697,-23.55,2021-12-17 16:57:18.625000
2698,-11.41,2021-12-17 16:57:18.640625
2699,4.81,2021-12-17 16:57:18.656250
2700,26.22,2021-12-17 16:57:18.671875
2701,52.91,2021-12-17 16:57:18.687500
2702,83.75,2021-12-17 16:57:18.703125
2703,116.44,2021-12-17 16:57:18.718750
2704,148.19,2021-12-17 16:57:18.734375
2705,176.21,2021-12-17 16:57:18.750000
2706,198.28,2021-12-17 16:57:18.765625
2707,213.19,2021-12-17 16:57:18.781250
2708,221.07,2021-12-17 16:57:18.796875
2709,223.42,2021-12-17 16:57:18.812500
2710,222.77,2021-12-17 16:57:18.828125
2711,222.0,2021-12-17 16:57:18.843750
2712,223.12,2021-12-17 16:57:18.859375
2713,226.61,2021-12-17 16:57:18.875000
2714,231.36,2021-12-17 16:57:18.890625
2715,235.63,2021-12-17 16:57:18.906250
2716,238.21,2021-12-17 16:57:18.921875
2717,239.24,2021-12-17 16:57:18.937500
2718,240.44,2021-12-17 16:57:18.953125
2719,244.39,2021-12-17 16:57:18.968750
2720,253.84,2021-12-17 16:57:18.984375
2721,270.71,2021-12-17 16:57:19.000000
2722,295.23,2021-12-17 16:57:19.015625
2723,325.23,2021-12-17 16:57:19.031250
2724,355.99,2021-12-17 16:57:19.046875
2725,380.84,2021-12-17 16:57:19.062500
2726,392.93,2021-12-17 16:57:19.078125
2727,387.45,2021-12-17 16:57:19.093750
2728,363.06,2021-12-17 16:57:19.109375
2729,322.51,2021-12-17 16:57:19.125000
2730,271.55,2021-12-17 16:57:19.140625
2731,216.52,2021-12-17 16:57:19.156250
2732,162.29,2021-12-17 16:57:19.171875
2733,111.24,2021-12-17 16:57:19.187500
2734,63.81,2021-12-17 16:57:19.203125
2735,19.8,2021-12-17 16:57:19.218750
2736,-20.66,2021-12-17 16:57:19.234375
2737,-57.19,2021-12-17 16:57:19.250000
2738,-89.64,2021-12-17 16:57:19.265625
2739,-118.61,2021-12-17 16:57:19.281250
2740,-145.5,2021-12-17 16:57:19.296875
2741,-171.93,2021-12-17 16:57:19.312500
2742,-198.93,2021-12-17 16:57:19.328125
2743,-226.36,2021-12-17 16:57:19.343750
2744,-252.92,2021-12-17 16:57:19.359375
2745,-276.63,2021-12-17 16:57:19.375000
2746,-296.0,2021-12-17 16:57:19.390625
2747,-310.09,2021-12-17 16:57:19.406250
2748,-318.51,2021-12-17 16:57:19.421875
2749,-321.19,2021-12-17 16:57:19.437500
2750,-318.01,2021-12-17 16:57:19.453125
2751,-308.56,2021-12-17 16:57:19.468750
2752,-292.24,2021-12-17 16:57:19.484375
2753,-268.54,2021-12-17 16:57:19.500000
2754,-237.48,2021-12-17 16:57:19.515625
2755,-201.65,2021-12-17 16:57:19.531250
2756,-164.73,2021-12-17 16:57:19.546875
2757,-130.83,2021-12-17 16:57:19.562500
2758,-103.6,2021-12-17 16:57:19.578125
2759,-85.71,2021-12-17 16:57:19.593750
2760,-78.5,2021-12-17 16:57:19.609375
2761,-82.22,2021-12-17 16:57:19.625000
2762,-96.03,2021-12-17 16:57:19.640625
2763,-118.38,2021-12-17 16:57:19.656250
2764,-150.46,2021-12-17 16:57:19.671875
2765,-192.99,2021-12-17 16:57:19.687500
2766,-245.47,2021-12-17 16:57:19.703125
2767,-305.37,2021-12-17 16:57:19.718750
2768,-368.51,2021-12-17 16:57:19.734375
2769,-429.92,2021-12-17 16:57:19.750000
2770,-485.05,2021-12-17 16:57:19.765625
2771,-530.4,2021-12-17 16:57:19.781250
2772,-564.06,2021-12-17 16:57:19.796875
2773,-590.67,2021-12-17 16:57:19.812500
2774,-615.55,2021-12-17 16:57:19.828125
2775,-642.69,2021-12-17 16:57:19.843750
2776,-672.89,2021-12-17 16:57:19.859375
2777,-703.8,2021-12-17 16:57:19.875000
2778,-731.09,2021-12-17 16:57:19.890625
2779,-750.1,2021-12-17 16:57:19.906250
2780,-757.29,2021-12-17 16:57:19.921875
2781,-750.72,2021-12-17 16:57:19.937500
2782,-737.03,2021-12-17 16:57:19.953125
2783,-723.85,2021-12-17 16:57:19.968750
2784,-717.48,2021-12-17 16:57:19.984375
2785,-720.75,2021-12-17 16:57:20.000000
2786,-733.94,2021-12-17 16:57:20.015625
2787,-756.54,2021-12-17 16:57:20.031250
2788,-788.88,2021-12-17 16:57:20.046875
2789,-831.83,2021-12-17 16:57:20.062500
2790,-845.08,2021-12-17 16:57:20.078125
2791,-799.89,2021-12-17 16:57:20.093750
2792,-682.14,2021-12-17 16:57:20.109375
2793,-500.17,2021-12-17 16:57:20.125000
2794,-280.34,2021-12-17 16:57:20.140625
2795,-55.08,2021-12-17 16:57:20.156250
2796,148.81,2021-12-17 16:57:20.171875
2797,314.92,2021-12-17 16:57:20.187500
2798,437.67,2021-12-17 16:57:20.203125
2799,520.48,2021-12-17 16:57:20.218750
2800,566.04,2021-12-17 16:57:20.234375
2801,579.82,2021-12-17 16:57:20.250000
2802,565.89,2021-12-17 16:57:20.265625
2803,532.53,2021-12-17 16:57:20.281250
2804,487.62,2021-12-17 16:57:20.296875
2805,438.4,2021-12-17 16:57:20.312500
2806,391.08,2021-12-17 16:57:20.328125
2807,350.62,2021-12-17 16:57:20.343750
2808,320.33,2021-12-17 16:57:20.359375
2809,296.51,2021-12-17 16:57:20.375000
2810,274.3,2021-12-17 16:57:20.390625
2811,249.66,2021-12-17 16:57:20.406250
2812,221.72,2021-12-17 16:57:20.421875
2813,192.27,2021-12-17 16:57:20.437500
2814,165.54,2021-12-17 16:57:20.453125
2815,145.79,2021-12-17 16:57:20.468750
2816,136.4,2021-12-17 16:57:20.484375
2817,139.15,2021-12-17 16:57:20.500000
2818,150.8,2021-12-17 16:57:20.515625
2819,166.65,2021-12-17 16:57:20.531250
2820,181.96,2021-12-17 16:57:20.546875
2821,193.86,2021-12-17 16:57:20.562500
2822,200.99,2021-12-17 16:57:20.578125
2823,203.86,2021-12-17 16:57:20.593750
2824,204.06,2021-12-17 16:57:20.609375
2825,203.52,2021-12-17 16:57:20.625000
2826,203.84,2021-12-17 16:57:20.640625
2827,204.08,2021-12-17 16:57:20.656250
2828,202.02,2021-12-17 16:57:20.671875
2829,194.86,2021-12-17 16:57:20.687500
2830,180.84,2021-12-17 16:57:20.703125
2831,159.01,2021-12-17 16:57:20.718750
2832,130.79,2021-12-17 16:57:20.734375
2833,99.7,2021-12-17 16:57:20.750000
2834,70.57,2021-12-17 16:57:20.765625
2835,48.34,2021-12-17 16:57:20.781250
2836,35.95,2021-12-17 16:57:20.796875
2837,33.72,2021-12-17 16:57:20.812500
2838,39.55,2021-12-17 16:57:20.828125
2839,50.92,2021-12-17 16:57:20.843750
2840,64.24,2021-12-17 16:57:20.859375
2841,78.52,2021-12-17 16:57:20.875000
2842,94.95,2021-12-17 16:57:20.890625
2843,116.11,2021-12-17 16:57:20.906250
2844,144.37,2021-12-17 16:57:20.921875
2845,180.28,2021-12-17 16:57:20.937500
2846,221.97,2021-12-17 16:57:20.953125
2847,266.03,2021-12-17 16:57:20.968750
2848,310.69,2021-12-17 16:57:20.984375
2849,351.49,2021-12-17 16:57:21.000000
2850,385.34,2021-12-17 16:57:21.015625
2851,407.94,2021-12-17 16:57:21.031250
2852,413.93,2021-12-17 16:57:21.046875
2853,399.82,2021-12-17 16:57:21.062500
2854,366.41,2021-12-17 16:57:21.078125
2855,320.03,2021-12-17 16:57:21.093750
2856,270.68,2021-12-17 16:57:21.109375
2857,230.73,2021-12-17 16:57:21.125000
2858,201.83,2021-12-17 16:57:21.140625
2859,180.53,2021-12-17 16:57:21.156250
2860,158.93,2021-12-17 16:57:21.171875
2861,130.18,2021-12-17 16:57:21.187500
2862,95.66,2021-12-17 16:57:21.203125
2863,65.11,2021-12-17 16:57:21.218750
2864,51.63,2021-12-17 16:57:21.234375
2865,64.67,2021-12-17 16:57:21.250000
2866,108.91,2021-12-17 16:57:21.265625
2867,172.87,2021-12-17 16:57:21.281250
2868,242.91,2021-12-17 16:57:21.296875
2869,306.5,2021-12-17 16:57:21.312500
2870,355.61,2021-12-17 16:57:21.328125
2871,390.5,2021-12-17 16:57:21.343750
2872,416.35,2021-12-17 16:57:21.359375
2873,438.46,2021-12-17 16:57:21.375000
2874,440.84,2021-12-17 16:57:21.390625
2875,446.74,2021-12-17 16:57:21.406250
2876,448.67,2021-12-17 16:57:21.421875
2877,441.14,2021-12-17 16:57:21.437500
2878,420.14,2021-12-17 16:57:21.453125
2879,383.17,2021-12-17 16:57:21.468750
2880,333.66,2021-12-17 16:57:21.484375
2881,278.51,2021-12-17 16:57:21.500000
2882,224.84,2021-12-17 16:57:21.515625
2883,164.49,2021-12-17 16:57:21.531250
2884,96.8,2021-12-17 16:57:21.546875
2885,18.74,2021-12-17 16:57:21.562500
2886,-64.53,2021-12-17 16:57:21.578125
2887,-131.86,2021-12-17 16:57:21.593750
2888,-175.97,2021-12-17 16:57:21.609375
2889,-194.79,2021-12-17 16:57:21.625000
2890,-190.09,2021-12-17 16:57:21.640625
2891,-171.21,2021-12-17 16:57:21.656250
2892,-147.42,2021-12-17 16:57:21.671875
2893,-123.16,2021-12-17 16:57:21.687500
2894,-105.56,2021-12-17 16:57:21.703125
2895,-96.58,2021-12-17 16:57:21.718750
2896,-95.51,2021-12-17 16:57:21.734375
2897,-102.36,2021-12-17 16:57:21.750000
2898,-115.59,2021-12-17 16:57:21.765625
2899,-134.29,2021-12-17 16:57:21.781250
2900,-159.21,2021-12-17 16:57:21.796875
2901,-191.76,2021-12-17 16:57:21.812500
2902,-230.77,2021-12-17 16:57:21.828125
2903,-277.56,2021-12-17 16:57:21.843750
2904,-330.36,2021-12-17 16:57:21.859375
2905,-384.87,2021-12-17 16:57:21.875000
2906,-435.86,2021-12-17 16:57:21.890625
2907,-475.14,2021-12-17 16:57:21.906250
2908,-495.28,2021-12-17 16:57:21.921875
2909,-493.02,2021-12-17 16:57:21.937500
2910,-470.19,2021-12-17 16:57:21.953125
2911,-431.78,2021-12-17 16:57:21.968750
2912,-386.77,2021-12-17 16:57:21.984375
2913,-342.52,2021-12-17 16:57:22.000000
2914,-303.19,2021-12-17 16:57:22.015625
2915,-270.2,2021-12-17 16:57:22.031250
2916,-241.32,2021-12-17 16:57:22.046875
2917,-213.26,2021-12-17 16:57:22.062500
2918,-183.59,2021-12-17 16:57:22.078125
2919,-150.87,2021-12-17 16:57:22.093750
2920,-114.31,2021-12-17 16:57:22.109375
2921,-75.06,2021-12-17 16:57:22.125000
2922,-35.11,2021-12-17 16:57:22.140625
2923,3.18,2021-12-17 16:57:22.156250
2924,37.16,2021-12-17 16:57:22.171875
2925,65.3,2021-12-17 16:57:22.187500
2926,86.42,2021-12-17 16:57:22.203125
2927,98.99,2021-12-17 16:57:22.218750
2928,101.63,2021-12-17 16:57:22.234375
2929,94.65,2021-12-17 16:57:22.250000
2930,81.03,2021-12-17 16:57:22.265625
2931,67.02,2021-12-17 16:57:22.281250
2932,60.55,2021-12-17 16:57:22.296875
2933,67.69,2021-12-17 16:57:22.312500
2934,90.16,2021-12-17 16:57:22.328125
2935,123.26,2021-12-17 16:57:22.343750
2936,157.11,2021-12-17 16:57:22.359375
2937,180.41,2021-12-17 16:57:22.375000
2938,184.41,2021-12-17 16:57:22.390625
2939,164.98,2021-12-17 16:57:22.406250
2940,123.01,2021-12-17 16:57:22.421875
2941,62.85,2021-12-17 16:57:22.437500
2942,-10.22,2021-12-17 16:57:22.453125
2943,-86.4,2021-12-17 16:57:22.468750
2944,-152.96,2021-12-17 16:57:22.484375
2945,-197.98,2021-12-17 16:57:22.500000
2946,-215.08,2021-12-17 16:57:22.515625
2947,-205.44,2021-12-17 16:57:22.531250
2948,-176.56,2021-12-17 16:57:22.546875
2949,-137.68,2021-12-17 16:57:22.562500
2950,-96.73,2021-12-17 16:57:22.578125
2951,-58.87,2021-12-17 16:57:22.593750
2952,-26.43,2021-12-17 16:57:22.609375
2953,-0.48,2021-12-17 16:57:22.625000
2954,18.31,2021-12-17 16:57:22.640625
2955,30.05,2021-12-17 16:57:22.656250
2956,36.39,2021-12-17 16:57:22.671875
2957,39.64,2021-12-17 16:57:22.687500
2958,42.78,2021-12-17 16:57:22.703125
2959,48.56,2021-12-17 16:57:22.718750
2960,58.57,2021-12-17 16:57:22.734375
2961,73.54,2021-12-17 16:57:22.750000
2962,92.9,2021-12-17 16:57:22.765625
2963,114.95,2021-12-17 16:57:22.781250
2964,137.5,2021-12-17 16:57:22.796875
2965,159.95,2021-12-17 16:57:22.812500
2966,179.82,2021-12-17 16:57:22.828125
2967,194.47,2021-12-17 16:57:22.843750
2968,201.32,2021-12-17 16:57:22.859375
2969,198.18,2021-12-17 16:57:22.875000
2970,183.98,2021-12-17 16:57:22.890625
2971,158.85,2021-12-17 16:57:22.906250
2972,124.13,2021-12-17 16:57:22.921875
2973,80.5,2021-12-17 16:57:22.937500
2974,32.68,2021-12-17 16:57:22.953125
2975,-15.19,2021-12-17 16:57:22.968750
2976,-59.75,2021-12-17 16:57:22.984375
2977,-98.81,2021-12-17 16:57:23.000000
2978,-131.3,2021-12-17 16:57:23.015625
2979,-157.22,2021-12-17 16:57:23.031250
2980,-177.57,2021-12-17 16:57:23.046875
2981,-193.71,2021-12-17 16:57:23.062500
2982,-206.11,2021-12-17 16:57:23.078125
2983,-213.09,2021-12-17 16:57:23.093750
2984,-211.5,2021-12-17 16:57:23.109375
2985,-197.44,2021-12-17 16:57:23.125000
2986,-168.73,2021-12-17 16:57:23.140625
2987,-127.15,2021-12-17 16:57:23.156250
2988,-78.81,2021-12-17 16:57:23.171875
2989,-32.38,2021-12-17 16:57:23.187500
2990,4.32,2021-12-17 16:57:23.203125
2991,27.27,2021-12-17 16:57:23.218750
2992,37.35,2021-12-17 16:57:23.234375
2993,38.46,2021-12-17 16:57:23.250000
2994,35.38,2021-12-17 16:57:23.265625
2995,31.3,2021-12-17 16:57:23.281250
2996,27.02,2021-12-17 16:57:23.296875
2997,22.09,2021-12-17 16:57:23.312500
2998,16.1,2021-12-17 16:57:23.328125
2999,9.66,2021-12-17 16:57:23.343750
3000,4.21,2021-12-17 16:57:23.359375
3001,1.04,2021-12-17 16:57:23.375000
3002,0.08,2021-12-17 16:57:23.390625
3003,0.12,2021-12-17 16:57:23.406250
3004,-0.55,2021-12-17 16:57:23.421875
3005,-3.63,2021-12-17 16:57:23.437500
3006,-9.42,2021-12-17 16:57:23.453125
3007,-16.79,2021-12-17 16:57:23.468750
3008,-23.69,2021-12-17 16:57:23.484375
3009,-28.04,2021-12-17 16:57:23.500000
3010,-28.76,2021-12-17 16:57:23.515625
3011,-26.44,2021-12-17 16:57:23.531250
3012,-23.26,2021-12-17 16:57:23.546875
3013,-22.14,2021-12-17 16:57:23.562500
3014,-26.06,2021-12-17 16:57:23.578125
3015,-36.76,2021-12-17 16:57:23.593750
3016,-54.24,2021-12-17 16:57:23.609375
3017,-76.62,2021-12-17 16:57:23.625000
3018,-101.08,2021-12-17 16:57:23.640625
3019,-124.0,2021-12-17 16:57:23.656250
3020,-142.01,2021-12-17 16:57:23.671875
3021,-152.64,2021-12-17 16:57:23.687500
3022,-154.48,2021-12-17 16:57:23.703125
3023,-147.15,2021-12-17 16:57:23.718750
3024,-130.67,2021-12-17 16:57:23.734375
3025,-105.51,2021-12-17 16:57:23.750000
3026,-72.35,2021-12-17 16:57:23.765625
3027,-32.04,2021-12-17 16:57:23.781250
3028,12.83,2021-12-17 16:57:23.796875
3029,58.95,2021-12-17 16:57:23.812500
3030,102.51,2021-12-17 16:57:23.828125
3031,139.74,2021-12-17 16:57:23.843750
3032,167.7,2021-12-17 16:57:23.859375
3033,185.18,2021-12-17 16:57:23.875000
3034,192.71,2021-12-17 16:57:23.890625
3035,192.31,2021-12-17 16:57:23.906250
3036,186.97,2021-12-17 16:57:23.921875
3037,179.55,2021-12-17 16:57:23.937500
3038,172.41,2021-12-17 16:57:23.953125
3039,167.13,2021-12-17 16:57:23.968750
3040,164.97,2021-12-17 16:57:23.984375
3041,165.16,2021-12-17 16:57:24.000000
3042,165.48,2021-12-17 16:57:24.015625
3043,162.17,2021-12-17 16:57:24.031250
3044,150.57,2021-12-17 16:57:24.046875
3045,127.33,2021-12-17 16:57:24.062500
3046,92.35,2021-12-17 16:57:24.078125
3047,49.7,2021-12-17 16:57:24.093750
3048,6.53,2021-12-17 16:57:24.109375
3049,-29.58,2021-12-17 16:57:24.125000
3050,-53.77,2021-12-17 16:57:24.140625
3051,-65.26,2021-12-17 16:57:24.156250
3052,-67.01,2021-12-17 16:57:24.171875
3053,-63.59,2021-12-17 16:57:24.187500
3054,-58.73,2021-12-17 16:57:24.203125
3055,-54.11,2021-12-17 16:57:24.218750
3056,-49.66,2021-12-17 16:57:24.234375
3057,-44.84,2021-12-17 16:57:24.250000
3058,-39.79,2021-12-17 16:57:24.265625
3059,-35.64,2021-12-17 16:57:24.281250
3060,-33.61,2021-12-17 16:57:24.296875
3061,-34.1,2021-12-17 16:57:24.312500
3062,-36.32,2021-12-17 16:57:24.328125
3063,-38.62,2021-12-17 16:57:24.343750
3064,-39.34,2021-12-17 16:57:24.359375
3065,-37.61,2021-12-17 16:57:24.375000
3066,-33.8,2021-12-17 16:57:24.390625
3067,-29.18,2021-12-17 16:57:24.406250
3068,-25.37,2021-12-17 16:57:24.421875
3069,-23.49,2021-12-17 16:57:24.437500
3070,-23.66,2021-12-17 16:57:24.453125
3071,-25.08,2021-12-17 16:57:24.468750
3072,-26.41,2021-12-17 16:57:24.484375
3073,-26.5,2021-12-17 16:57:24.500000
3074,-24.87,2021-12-17 16:57:24.515625
3075,-21.89,2021-12-17 16:57:24.531250
3076,-18.43,2021-12-17 16:57:24.546875
3077,-15.52,2021-12-17 16:57:24.562500
3078,-13.81,2021-12-17 16:57:24.578125
3079,-13.32,2021-12-17 16:57:24.593750
3080,-13.48,2021-12-17 16:57:24.609375
3081,-13.3,2021-12-17 16:57:24.625000
3082,-11.6,2021-12-17 16:57:24.640625
3083,-7.33,2021-12-17 16:57:24.656250
3084,0.15,2021-12-17 16:57:24.671875
3085,11.08,2021-12-17 16:57:24.687500
3086,24.84,2021-12-17 16:57:24.703125
3087,40.11,2021-12-17 16:57:24.718750
3088,55.16,2021-12-17 16:57:24.734375
3089,68.28,2021-12-17 16:57:24.750000
3090,78.42,2021-12-17 16:57:24.765625
3091,85.41,2021-12-17 16:57:24.781250
3092,89.28,2021-12-17 16:57:24.796875
3093,90.09,2021-12-17 16:57:24.812500
3094,87.7,2021-12-17 16:57:24.828125
3095,81.65,2021-12-17 16:57:24.843750
3096,71.64,2021-12-17 16:57:24.859375
3097,58.05,2021-12-17 16:57:24.875000
3098,42.04,2021-12-17 16:57:24.890625
3099,25.42,2021-12-17 16:57:24.906250
3100,9.9,2021-12-17 16:57:24.921875
3101,-3.38,2021-12-17 16:57:24.937500
3102,-14.03,2021-12-17 16:57:24.953125
3103,-22.19,2021-12-17 16:57:24.968750
3104,-28.3,2021-12-17 16:57:24.984375
3105,-32.66,2021-12-17 16:57:25.000000
3106,-35.28,2021-12-17 16:57:25.015625
3107,-36.23,2021-12-17 16:57:25.031250
3108,-35.6,2021-12-17 16:57:25.046875
3109,-33.83,2021-12-17 16:57:25.062500
3110,-31.38,2021-12-17 16:57:25.078125
3111,-28.6,2021-12-17 16:57:25.093750
3112,-25.79,2021-12-17 16:57:25.109375
3113,-23.09,2021-12-17 16:57:25.125000
3114,-20.63,2021-12-17 16:57:25.140625
3115,-18.36,2021-12-17 16:57:25.156250
3116,-16.4,2021-12-17 16:57:25.171875
3117,-14.76,2021-12-17 16:57:25.187500
3118,-13.67,2021-12-17 16:57:25.203125
3119,-13.03,2021-12-17 16:57:25.218750
3120,-12.67,2021-12-17 16:57:25.234375
3121,-12.38,2021-12-17 16:57:25.250000
3122,-11.98,2021-12-17 16:57:25.265625
3123,-11.39,2021-12-17 16:57:25.281250
3124,-10.79,2021-12-17 16:57:25.296875
3125,-10.73,2021-12-17 16:57:25.312500
3126,-11.98,2021-12-17 16:57:25.328125
3127,-15.6,2021-12-17 16:57:25.343750
3128,-22.0,2021-12-17 16:57:25.359375
3129,-30.78,2021-12-17 16:57:25.375000
3130,-40.79,2021-12-17 16:57:25.390625
3131,-50.26,2021-12-17 16:57:25.406250
3132,-57.39,2021-12-17 16:57:25.421875
3133,-60.97,2021-12-17 16:57:25.437500
3134,-60.85,2021-12-17 16:57:25.453125
3135,-57.77,2021-12-17 16:57:25.468750
3136,-53.48,2021-12-17 16:57:25.484375
3137,-49.22,2021-12-17 16:57:25.500000
3138,-45.65,2021-12-17 16:57:25.515625
3139,-42.87,2021-12-17 16:57:25.531250
3140,-40.55,2021-12-17 16:57:25.546875
3141,-38.3,2021-12-17 16:57:25.562500
3142,-36.11,2021-12-17 16:57:25.578125
3143,-34.18,2021-12-17 16:57:25.593750
3144,-30.5,2021-12-17 16:57:25.609375
3145,-25.59,2021-12-17 16:57:25.625000
