,BVP,time
0,-28.28,2022-10-26 16:41:35.281250
1,-32.82,2022-10-26 16:41:35.296875
2,-37.76,2022-10-26 16:41:35.312500
3,-42.88,2022-10-26 16:41:35.328125
4,-47.66,2022-10-26 16:41:35.343750
5,-51.36,2022-10-26 16:41:35.359375
6,-53.1,2022-10-26 16:41:35.375000
7,-52.14,2022-10-26 16:41:35.390625
8,-48.09,2022-10-26 16:41:35.406250
9,-41.11,2022-10-26 16:41:35.421875
10,-31.97,2022-10-26 16:41:35.437500
11,-21.84,2022-10-26 16:41:35.453125
12,-11.97,2022-10-26 16:41:35.468750
13,-3.33,2022-10-26 16:41:35.484375
14,3.6,2022-10-26 16:41:35.500000
15,8.88,2022-10-26 16:41:35.515625
16,13.0,2022-10-26 16:41:35.531250
17,16.53,2022-10-26 16:41:35.546875
18,19.87,2022-10-26 16:41:35.562500
19,23.05,2022-10-26 16:41:35.578125
20,25.7,2022-10-26 16:41:35.593750
21,27.24,2022-10-26 16:41:35.609375
22,27.26,2022-10-26 16:41:35.625000
23,25.78,2022-10-26 16:41:35.640625
24,23.42,2022-10-26 16:41:35.656250
25,21.29,2022-10-26 16:41:35.671875
26,20.62,2022-10-26 16:41:35.687500
27,22.29,2022-10-26 16:41:35.703125
28,26.51,2022-10-26 16:41:35.718750
29,32.74,2022-10-26 16:41:35.734375
30,40.0,2022-10-26 16:41:35.750000
31,47.35,2022-10-26 16:41:35.765625
32,54.33,2022-10-26 16:41:35.781250
33,61.19,2022-10-26 16:41:35.796875
34,68.77,2022-10-26 16:41:35.812500
35,78.03,2022-10-26 16:41:35.828125
36,89.47,2022-10-26 16:41:35.843750
37,102.76,2022-10-26 16:41:35.859375
38,116.72,2022-10-26 16:41:35.875000
39,129.65,2022-10-26 16:41:35.890625
40,139.97,2022-10-26 16:41:35.906250
41,146.78,2022-10-26 16:41:35.921875
42,150.09,2022-10-26 16:41:35.937500
43,150.69,2022-10-26 16:41:35.953125
44,149.84,2022-10-26 16:41:35.968750
45,148.91,2022-10-26 16:41:35.984375
46,149.1,2022-10-26 16:41:36.000000
47,151.1,2022-10-26 16:41:36.015625
48,154.64,2022-10-26 16:41:36.031250
49,158.1,2022-10-26 16:41:36.046875
50,158.43,2022-10-26 16:41:36.062500
51,151.64,2022-10-26 16:41:36.078125
52,134.27,2022-10-26 16:41:36.093750
53,104.95,2022-10-26 16:41:36.109375
54,65.55,2022-10-26 16:41:36.125000
55,21.03,2022-10-26 16:41:36.140625
56,-22.07,2022-10-26 16:41:36.156250
57,-57.9,2022-10-26 16:41:36.171875
58,-83.12,2022-10-26 16:41:36.187500
59,-97.39,2022-10-26 16:41:36.203125
60,-102.68,2022-10-26 16:41:36.218750
61,-101.57,2022-10-26 16:41:36.234375
62,-96.11,2022-10-26 16:41:36.250000
63,-87.41,2022-10-26 16:41:36.265625
64,-76.12,2022-10-26 16:41:36.281250
65,-63.24,2022-10-26 16:41:36.296875
66,-50.36,2022-10-26 16:41:36.312500
67,-39.56,2022-10-26 16:41:36.328125
68,-32.69,2022-10-26 16:41:36.343750
69,-30.92,2022-10-26 16:41:36.359375
70,-34.35,2022-10-26 16:41:36.375000
71,-42.16,2022-10-26 16:41:36.390625
72,-52.8,2022-10-26 16:41:36.406250
73,-64.44,2022-10-26 16:41:36.421875
74,-75.28,2022-10-26 16:41:36.437500
75,-84.04,2022-10-26 16:41:36.453125
76,-90.24,2022-10-26 16:41:36.468750
77,-94.25,2022-10-26 16:41:36.484375
78,-97.0,2022-10-26 16:41:36.500000
79,-99.45,2022-10-26 16:41:36.515625
80,-102.19,2022-10-26 16:41:36.531250
81,-105.09,2022-10-26 16:41:36.546875
82,-107.29,2022-10-26 16:41:36.562500
83,-107.51,2022-10-26 16:41:36.578125
84,-104.54,2022-10-26 16:41:36.593750
85,-97.66,2022-10-26 16:41:36.609375
86,-87.07,2022-10-26 16:41:36.625000
87,-73.94,2022-10-26 16:41:36.640625
88,-60.25,2022-10-26 16:41:36.656250
89,-48.35,2022-10-26 16:41:36.671875
90,-40.1,2022-10-26 16:41:36.687500
91,-36.27,2022-10-26 16:41:36.703125
92,-36.2,2022-10-26 16:41:36.718750
93,-38.05,2022-10-26 16:41:36.734375
94,-39.52,2022-10-26 16:41:36.750000
95,-38.54,2022-10-26 16:41:36.765625
96,-33.6,2022-10-26 16:41:36.781250
97,-23.53,2022-10-26 16:41:36.796875
98,-7.19,2022-10-26 16:41:36.812500
99,16.65,2022-10-26 16:41:36.828125
100,48.79,2022-10-26 16:41:36.843750
101,88.85,2022-10-26 16:41:36.859375
102,134.56,2022-10-26 16:41:36.875000
103,181.86,2022-10-26 16:41:36.890625
104,225.79,2022-10-26 16:41:36.906250
105,261.78,2022-10-26 16:41:36.921875
106,287.09,2022-10-26 16:41:36.937500
107,301.33,2022-10-26 16:41:36.953125
108,306.08,2022-10-26 16:41:36.968750
109,303.91,2022-10-26 16:41:36.984375
110,297.3,2022-10-26 16:41:37.000000
111,288.22,2022-10-26 16:41:37.015625
112,278.22,2022-10-26 16:41:37.031250
113,268.62,2022-10-26 16:41:37.046875
114,260.61,2022-10-26 16:41:37.062500
115,254.85,2022-10-26 16:41:37.078125
116,251.1,2022-10-26 16:41:37.093750
117,248.12,2022-10-26 16:41:37.109375
118,244.04,2022-10-26 16:41:37.125000
119,237.12,2022-10-26 16:41:37.140625
120,226.52,2022-10-26 16:41:37.156250
121,212.46,2022-10-26 16:41:37.171875
122,195.98,2022-10-26 16:41:37.187500
123,178.23,2022-10-26 16:41:37.203125
124,159.9,2022-10-26 16:41:37.218750
125,140.88,2022-10-26 16:41:37.234375
126,120.48,2022-10-26 16:41:37.250000
127,97.76,2022-10-26 16:41:37.265625
128,71.79,2022-10-26 16:41:37.281250
129,41.8,2022-10-26 16:41:37.296875
130,7.12,2022-10-26 16:41:37.312500
131,-32.51,2022-10-26 16:41:37.328125
132,-76.67,2022-10-26 16:41:37.343750
133,-123.74,2022-10-26 16:41:37.359375
134,-170.8,2022-10-26 16:41:37.375000
135,-213.95,2022-10-26 16:41:37.390625
136,-249.04,2022-10-26 16:41:37.406250
137,-272.74,2022-10-26 16:41:37.421875
138,-283.11,2022-10-26 16:41:37.437500
139,-280.0,2022-10-26 16:41:37.453125
140,-264.72,2022-10-26 16:41:37.468750
141,-239.35,2022-10-26 16:41:37.484375
142,-206.04,2022-10-26 16:41:37.500000
143,-166.51,2022-10-26 16:41:37.515625
144,-122.13,2022-10-26 16:41:37.531250
145,-74.53,2022-10-26 16:41:37.546875
146,-26.36,2022-10-26 16:41:37.562500
147,18.44,2022-10-26 16:41:37.578125
148,55.06,2022-10-26 16:41:37.593750
149,78.98,2022-10-26 16:41:37.609375
150,87.4,2022-10-26 16:41:37.625000
151,80.22,2022-10-26 16:41:37.640625
152,59.99,2022-10-26 16:41:37.656250
153,30.9,2022-10-26 16:41:37.671875
154,-2.65,2022-10-26 16:41:37.687500
155,-37.13,2022-10-26 16:41:37.703125
156,-70.24,2022-10-26 16:41:37.718750
157,-100.48,2022-10-26 16:41:37.734375
158,-126.63,2022-10-26 16:41:37.750000
159,-147.53,2022-10-26 16:41:37.765625
160,-162.41,2022-10-26 16:41:37.781250
161,-171.34,2022-10-26 16:41:37.796875
162,-175.41,2022-10-26 16:41:37.812500
163,-176.4,2022-10-26 16:41:37.828125
164,-176.11,2022-10-26 16:41:37.843750
165,-175.6,2022-10-26 16:41:37.859375
166,-174.93,2022-10-26 16:41:37.875000
167,-173.35,2022-10-26 16:41:37.890625
168,-169.74,2022-10-26 16:41:37.906250
169,-163.27,2022-10-26 16:41:37.921875
170,-153.71,2022-10-26 16:41:37.937500
171,-141.55,2022-10-26 16:41:37.953125
172,-127.82,2022-10-26 16:41:37.968750
173,-113.75,2022-10-26 16:41:37.984375
174,-100.38,2022-10-26 16:41:38.000000
175,-88.29,2022-10-26 16:41:38.015625
176,-77.43,2022-10-26 16:41:38.031250
177,-67.31,2022-10-26 16:41:38.046875
178,-57.34,2022-10-26 16:41:38.062500
179,-47.18,2022-10-26 16:41:38.078125
180,-36.99,2022-10-26 16:41:38.093750
181,-27.37,2022-10-26 16:41:38.109375
182,-19.04,2022-10-26 16:41:38.125000
183,-12.5,2022-10-26 16:41:38.140625
184,-7.74,2022-10-26 16:41:38.156250
185,-4.31,2022-10-26 16:41:38.171875
186,-1.57,2022-10-26 16:41:38.187500
187,1.02,2022-10-26 16:41:38.203125
188,3.61,2022-10-26 16:41:38.218750
189,6.07,2022-10-26 16:41:38.234375
190,8.14,2022-10-26 16:41:38.250000
191,9.72,2022-10-26 16:41:38.265625
192,10.97,2022-10-26 16:41:38.281250
193,12.22,2022-10-26 16:41:38.296875
194,13.74,2022-10-26 16:41:38.312500
195,15.57,2022-10-26 16:41:38.328125
196,17.43,2022-10-26 16:41:38.343750
197,18.89,2022-10-26 16:41:38.359375
198,19.56,2022-10-26 16:41:38.375000
199,19.33,2022-10-26 16:41:38.390625
200,18.35,2022-10-26 16:41:38.406250
201,16.92,2022-10-26 16:41:38.421875
202,15.32,2022-10-26 16:41:38.437500
203,13.65,2022-10-26 16:41:38.453125
204,11.86,2022-10-26 16:41:38.468750
205,9.83,2022-10-26 16:41:38.484375
206,7.48,2022-10-26 16:41:38.500000
207,4.85,2022-10-26 16:41:38.515625
208,2.09,2022-10-26 16:41:38.531250
209,-0.65,2022-10-26 16:41:38.546875
210,-3.23,2022-10-26 16:41:38.562500
211,-5.57,2022-10-26 16:41:38.578125
212,-7.66,2022-10-26 16:41:38.593750
213,-9.56,2022-10-26 16:41:38.609375
214,-11.31,2022-10-26 16:41:38.625000
215,-12.99,2022-10-26 16:41:38.640625
216,-14.66,2022-10-26 16:41:38.656250
217,-16.38,2022-10-26 16:41:38.671875
218,-18.23,2022-10-26 16:41:38.687500
219,-20.29,2022-10-26 16:41:38.703125
220,-22.65,2022-10-26 16:41:38.718750
221,-25.32,2022-10-26 16:41:38.734375
222,-28.17,2022-10-26 16:41:38.750000
223,-30.79,2022-10-26 16:41:38.765625
224,-32.57,2022-10-26 16:41:38.781250
225,-32.82,2022-10-26 16:41:38.796875
226,-31.0,2022-10-26 16:41:38.812500
227,-26.95,2022-10-26 16:41:38.828125
228,-20.87,2022-10-26 16:41:38.843750
229,-13.3,2022-10-26 16:41:38.859375
230,-4.89,2022-10-26 16:41:38.875000
231,3.74,2022-10-26 16:41:38.890625
232,12.04,2022-10-26 16:41:38.906250
233,19.55,2022-10-26 16:41:38.921875
234,25.83,2022-10-26 16:41:38.937500
235,30.49,2022-10-26 16:41:38.953125
236,33.32,2022-10-26 16:41:38.968750
237,34.31,2022-10-26 16:41:38.984375
238,33.74,2022-10-26 16:41:39.000000
239,32.07,2022-10-26 16:41:39.015625
240,29.76,2022-10-26 16:41:39.031250
241,27.23,2022-10-26 16:41:39.046875
242,24.77,2022-10-26 16:41:39.062500
243,22.58,2022-10-26 16:41:39.078125
244,20.79,2022-10-26 16:41:39.093750
245,19.55,2022-10-26 16:41:39.109375
246,18.96,2022-10-26 16:41:39.125000
247,19.01,2022-10-26 16:41:39.140625
248,19.64,2022-10-26 16:41:39.156250
249,20.64,2022-10-26 16:41:39.171875
250,21.8,2022-10-26 16:41:39.187500
251,22.95,2022-10-26 16:41:39.203125
252,23.97,2022-10-26 16:41:39.218750
253,24.81,2022-10-26 16:41:39.234375
254,25.42,2022-10-26 16:41:39.250000
255,25.76,2022-10-26 16:41:39.265625
256,25.69,2022-10-26 16:41:39.281250
257,25.14,2022-10-26 16:41:39.296875
258,24.06,2022-10-26 16:41:39.312500
259,22.5,2022-10-26 16:41:39.328125
260,20.63,2022-10-26 16:41:39.343750
261,18.6,2022-10-26 16:41:39.359375
262,16.55,2022-10-26 16:41:39.375000
263,14.5,2022-10-26 16:41:39.390625
264,12.38,2022-10-26 16:41:39.406250
265,10.05,2022-10-26 16:41:39.421875
266,7.42,2022-10-26 16:41:39.437500
267,4.44,2022-10-26 16:41:39.453125
268,1.19,2022-10-26 16:41:39.468750
269,-2.15,2022-10-26 16:41:39.484375
270,-5.37,2022-10-26 16:41:39.500000
271,-8.34,2022-10-26 16:41:39.515625
272,-11.01,2022-10-26 16:41:39.531250
273,-13.48,2022-10-26 16:41:39.546875
274,-15.95,2022-10-26 16:41:39.562500
275,-18.6,2022-10-26 16:41:39.578125
276,-21.59,2022-10-26 16:41:39.593750
277,-24.91,2022-10-26 16:41:39.609375
278,-28.34,2022-10-26 16:41:39.625000
279,-31.43,2022-10-26 16:41:39.640625
280,-33.53,2022-10-26 16:41:39.656250
281,-34.01,2022-10-26 16:41:39.671875
282,-32.39,2022-10-26 16:41:39.687500
283,-28.52,2022-10-26 16:41:39.703125
284,-22.68,2022-10-26 16:41:39.718750
285,-15.48,2022-10-26 16:41:39.734375
286,-7.65,2022-10-26 16:41:39.750000
287,0.13,2022-10-26 16:41:39.765625
288,7.36,2022-10-26 16:41:39.781250
289,13.76,2022-10-26 16:41:39.796875
290,19.15,2022-10-26 16:41:39.812500
291,23.42,2022-10-26 16:41:39.828125
292,26.44,2022-10-26 16:41:39.843750
293,28.13,2022-10-26 16:41:39.859375
294,28.51,2022-10-26 16:41:39.875000
295,27.71,2022-10-26 16:41:39.890625
296,25.96,2022-10-26 16:41:39.906250
297,23.56,2022-10-26 16:41:39.921875
298,20.81,2022-10-26 16:41:39.937500
299,18.03,2022-10-26 16:41:39.953125
300,15.55,2022-10-26 16:41:39.968750
301,13.64,2022-10-26 16:41:39.984375
302,12.51,2022-10-26 16:41:40.000000
303,12.22,2022-10-26 16:41:40.015625
304,12.69,2022-10-26 16:41:40.031250
305,13.72,2022-10-26 16:41:40.046875
306,15.03,2022-10-26 16:41:40.062500
307,16.33,2022-10-26 16:41:40.078125
308,17.41,2022-10-26 16:41:40.093750
309,18.14,2022-10-26 16:41:40.109375
310,18.42,2022-10-26 16:41:40.125000
311,18.26,2022-10-26 16:41:40.140625
312,17.69,2022-10-26 16:41:40.156250
313,16.73,2022-10-26 16:41:40.171875
314,15.39,2022-10-26 16:41:40.187500
315,13.68,2022-10-26 16:41:40.203125
316,11.59,2022-10-26 16:41:40.218750
317,9.11,2022-10-26 16:41:40.234375
318,6.29,2022-10-26 16:41:40.250000
319,3.19,2022-10-26 16:41:40.265625
320,-0.06,2022-10-26 16:41:40.281250
321,-3.31,2022-10-26 16:41:40.296875
322,-6.45,2022-10-26 16:41:40.312500
323,-9.44,2022-10-26 16:41:40.328125
324,-12.32,2022-10-26 16:41:40.343750
325,-15.22,2022-10-26 16:41:40.359375
326,-18.31,2022-10-26 16:41:40.375000
327,-21.75,2022-10-26 16:41:40.390625
328,-25.62,2022-10-26 16:41:40.406250
329,-29.88,2022-10-26 16:41:40.421875
330,-34.34,2022-10-26 16:41:40.437500
331,-38.58,2022-10-26 16:41:40.453125
332,-42.0,2022-10-26 16:41:40.468750
333,-43.88,2022-10-26 16:41:40.484375
334,-43.6,2022-10-26 16:41:40.500000
335,-40.8,2022-10-26 16:41:40.515625
336,-35.53,2022-10-26 16:41:40.531250
337,-28.2,2022-10-26 16:41:40.546875
338,-19.54,2022-10-26 16:41:40.562500
339,-10.37,2022-10-26 16:41:40.578125
340,-1.4,2022-10-26 16:41:40.593750
341,6.8,2022-10-26 16:41:40.609375
342,13.9,2022-10-26 16:41:40.625000
343,19.65,2022-10-26 16:41:40.640625
344,23.93,2022-10-26 16:41:40.656250
345,26.74,2022-10-26 16:41:40.671875
346,28.18,2022-10-26 16:41:40.687500
347,28.43,2022-10-26 16:41:40.703125
348,27.71,2022-10-26 16:41:40.718750
349,26.2,2022-10-26 16:41:40.734375
350,24.02,2022-10-26 16:41:40.750000
351,21.33,2022-10-26 16:41:40.765625
352,18.31,2022-10-26 16:41:40.781250
353,15.36,2022-10-26 16:41:40.796875
354,12.91,2022-10-26 16:41:40.812500
355,11.35,2022-10-26 16:41:40.828125
356,10.85,2022-10-26 16:41:40.843750
357,11.32,2022-10-26 16:41:40.859375
358,12.47,2022-10-26 16:41:40.875000
359,13.91,2022-10-26 16:41:40.890625
360,15.32,2022-10-26 16:41:40.906250
361,16.49,2022-10-26 16:41:40.921875
362,17.37,2022-10-26 16:41:40.937500
363,17.89,2022-10-26 16:41:40.953125
364,18.04,2022-10-26 16:41:40.968750
365,17.71,2022-10-26 16:41:40.984375
366,16.8,2022-10-26 16:41:41.000000
367,15.24,2022-10-26 16:41:41.015625
368,13.05,2022-10-26 16:41:41.031250
369,10.33,2022-10-26 16:41:41.046875
370,7.3,2022-10-26 16:41:41.062500
371,4.17,2022-10-26 16:41:41.078125
372,1.1,2022-10-26 16:41:41.093750
373,-1.81,2022-10-26 16:41:41.109375
374,-4.6,2022-10-26 16:41:41.125000
375,-7.36,2022-10-26 16:41:41.140625
376,-10.18,2022-10-26 16:41:41.156250
377,-13.2,2022-10-26 16:41:41.171875
378,-16.53,2022-10-26 16:41:41.187500
379,-20.29,2022-10-26 16:41:41.203125
380,-24.56,2022-10-26 16:41:41.218750
381,-29.3,2022-10-26 16:41:41.234375
382,-34.16,2022-10-26 16:41:41.250000
383,-38.53,2022-10-26 16:41:41.265625
384,-41.6,2022-10-26 16:41:41.281250
385,-42.6,2022-10-26 16:41:41.296875
386,-41.03,2022-10-26 16:41:41.312500
387,-36.85,2022-10-26 16:41:41.328125
388,-30.51,2022-10-26 16:41:41.343750
389,-22.71,2022-10-26 16:41:41.359375
390,-14.21,2022-10-26 16:41:41.375000
391,-5.61,2022-10-26 16:41:41.390625
392,2.68,2022-10-26 16:41:41.406250
393,10.42,2022-10-26 16:41:41.421875
394,17.42,2022-10-26 16:41:41.437500
395,23.41,2022-10-26 16:41:41.453125
396,28.08,2022-10-26 16:41:41.468750
397,31.15,2022-10-26 16:41:41.484375
398,32.45,2022-10-26 16:41:41.500000
399,32.07,2022-10-26 16:41:41.515625
400,30.31,2022-10-26 16:41:41.531250
401,27.67,2022-10-26 16:41:41.546875
402,24.63,2022-10-26 16:41:41.562500
403,21.6,2022-10-26 16:41:41.578125
404,18.78,2022-10-26 16:41:41.593750
405,16.23,2022-10-26 16:41:41.609375
406,13.98,2022-10-26 16:41:41.625000
407,12.13,2022-10-26 16:41:41.640625
408,10.85,2022-10-26 16:41:41.656250
409,10.32,2022-10-26 16:41:41.671875
410,10.62,2022-10-26 16:41:41.687500
411,11.6,2022-10-26 16:41:41.703125
412,12.92,2022-10-26 16:41:41.718750
413,14.15,2022-10-26 16:41:41.734375
414,14.96,2022-10-26 16:41:41.750000
415,15.18,2022-10-26 16:41:41.765625
416,14.81,2022-10-26 16:41:41.781250
417,13.92,2022-10-26 16:41:41.796875
418,12.57,2022-10-26 16:41:41.812500
419,10.74,2022-10-26 16:41:41.828125
420,8.42,2022-10-26 16:41:41.843750
421,5.63,2022-10-26 16:41:41.859375
422,2.5,2022-10-26 16:41:41.875000
423,-0.76,2022-10-26 16:41:41.890625
424,-3.93,2022-10-26 16:41:41.906250
425,-6.83,2022-10-26 16:41:41.921875
426,-9.41,2022-10-26 16:41:41.937500
427,-11.75,2022-10-26 16:41:41.953125
428,-14.0,2022-10-26 16:41:41.968750
429,-16.37,2022-10-26 16:41:41.984375
430,-19.07,2022-10-26 16:41:42.000000
431,-22.19,2022-10-26 16:41:42.015625
432,-25.71,2022-10-26 16:41:42.031250
433,-29.44,2022-10-26 16:41:42.046875
434,-33.03,2022-10-26 16:41:42.062500
435,-36.01,2022-10-26 16:41:42.078125
436,-37.78,2022-10-26 16:41:42.093750
437,-37.79,2022-10-26 16:41:42.109375
438,-35.59,2022-10-26 16:41:42.125000
439,-31.02,2022-10-26 16:41:42.140625
440,-24.27,2022-10-26 16:41:42.156250
441,-15.89,2022-10-26 16:41:42.171875
442,-6.65,2022-10-26 16:41:42.187500
443,2.61,2022-10-26 16:41:42.203125
444,11.17,2022-10-26 16:41:42.218750
445,18.54,2022-10-26 16:41:42.234375
446,24.4,2022-10-26 16:41:42.250000
447,28.66,2022-10-26 16:41:42.265625
448,31.33,2022-10-26 16:41:42.281250
449,32.52,2022-10-26 16:41:42.296875
450,32.41,2022-10-26 16:41:42.312500
451,31.27,2022-10-26 16:41:42.328125
452,29.48,2022-10-26 16:41:42.343750
453,27.38,2022-10-26 16:41:42.359375
454,25.35,2022-10-26 16:41:42.375000
455,23.67,2022-10-26 16:41:42.390625
456,22.51,2022-10-26 16:41:42.406250
457,21.93,2022-10-26 16:41:42.421875
458,21.86,2022-10-26 16:41:42.437500
459,22.14,2022-10-26 16:41:42.453125
460,22.59,2022-10-26 16:41:42.468750
461,23.04,2022-10-26 16:41:42.484375
462,23.39,2022-10-26 16:41:42.500000
463,23.61,2022-10-26 16:41:42.515625
464,23.76,2022-10-26 16:41:42.531250
465,23.87,2022-10-26 16:41:42.546875
466,23.89,2022-10-26 16:41:42.562500
467,23.6,2022-10-26 16:41:42.578125
468,22.61,2022-10-26 16:41:42.593750
469,20.44,2022-10-26 16:41:42.609375
470,16.69,2022-10-26 16:41:42.625000
471,11.21,2022-10-26 16:41:42.640625
472,4.21,2022-10-26 16:41:42.656250
473,-3.72,2022-10-26 16:41:42.671875
474,-11.81,2022-10-26 16:41:42.687500
475,-19.24,2022-10-26 16:41:42.703125
476,-25.41,2022-10-26 16:41:42.718750
477,-30.0,2022-10-26 16:41:42.734375
478,-33.07,2022-10-26 16:41:42.750000
479,-34.93,2022-10-26 16:41:42.765625
480,-36.07,2022-10-26 16:41:42.781250
481,-36.96,2022-10-26 16:41:42.796875
482,-37.96,2022-10-26 16:41:42.812500
483,-39.15,2022-10-26 16:41:42.828125
484,-40.41,2022-10-26 16:41:42.843750
485,-41.39,2022-10-26 16:41:42.859375
486,-41.71,2022-10-26 16:41:42.875000
487,-41.05,2022-10-26 16:41:42.890625
488,-39.2,2022-10-26 16:41:42.906250
489,-36.12,2022-10-26 16:41:42.921875
490,-31.87,2022-10-26 16:41:42.937500
491,-26.57,2022-10-26 16:41:42.953125
492,-20.48,2022-10-26 16:41:42.968750
493,-13.89,2022-10-26 16:41:42.984375
494,-7.18,2022-10-26 16:41:43.000000
495,-0.67,2022-10-26 16:41:43.015625
496,5.37,2022-10-26 16:41:43.031250
497,10.83,2022-10-26 16:41:43.046875
498,15.71,2022-10-26 16:41:43.062500
499,20.07,2022-10-26 16:41:43.078125
500,23.92,2022-10-26 16:41:43.093750
501,27.23,2022-10-26 16:41:43.109375
502,29.93,2022-10-26 16:41:43.125000
503,31.95,2022-10-26 16:41:43.140625
504,33.28,2022-10-26 16:41:43.156250
505,33.96,2022-10-26 16:41:43.171875
506,34.09,2022-10-26 16:41:43.187500
507,33.85,2022-10-26 16:41:43.203125
508,33.47,2022-10-26 16:41:43.218750
509,33.21,2022-10-26 16:41:43.234375
510,33.38,2022-10-26 16:41:43.250000
511,34.33,2022-10-26 16:41:43.265625
512,36.46,2022-10-26 16:41:43.281250
513,40.09,2022-10-26 16:41:43.296875
514,45.51,2022-10-26 16:41:43.312500
515,52.89,2022-10-26 16:41:43.328125
516,62.26,2022-10-26 16:41:43.343750
517,73.6,2022-10-26 16:41:43.359375
518,86.79,2022-10-26 16:41:43.375000
519,101.68,2022-10-26 16:41:43.390625
520,118.03,2022-10-26 16:41:43.406250
521,135.43,2022-10-26 16:41:43.421875
522,153.16,2022-10-26 16:41:43.437500
523,170.06,2022-10-26 16:41:43.453125
524,184.63,2022-10-26 16:41:43.468750
525,195.17,2022-10-26 16:41:43.484375
526,200.23,2022-10-26 16:41:43.500000
527,198.87,2022-10-26 16:41:43.515625
528,190.96,2022-10-26 16:41:43.531250
529,177.11,2022-10-26 16:41:43.546875
530,158.46,2022-10-26 16:41:43.562500
531,136.43,2022-10-26 16:41:43.578125
532,112.39,2022-10-26 16:41:43.593750
533,87.48,2022-10-26 16:41:43.609375
534,62.63,2022-10-26 16:41:43.625000
535,38.57,2022-10-26 16:41:43.640625
536,15.91,2022-10-26 16:41:43.656250
537,-4.79,2022-10-26 16:41:43.671875
538,-23.02,2022-10-26 16:41:43.687500
539,-38.34,2022-10-26 16:41:43.703125
540,-50.34,2022-10-26 16:41:43.718750
541,-58.69,2022-10-26 16:41:43.734375
542,-63.23,2022-10-26 16:41:43.750000
543,-63.96,2022-10-26 16:41:43.765625
544,-61.24,2022-10-26 16:41:43.781250
545,-55.72,2022-10-26 16:41:43.796875
546,-48.39,2022-10-26 16:41:43.812500
547,-40.37,2022-10-26 16:41:43.828125
548,-32.8,2022-10-26 16:41:43.843750
549,-26.65,2022-10-26 16:41:43.859375
550,-22.56,2022-10-26 16:41:43.875000
551,-20.85,2022-10-26 16:41:43.890625
552,-21.47,2022-10-26 16:41:43.906250
553,-24.16,2022-10-26 16:41:43.921875
554,-28.41,2022-10-26 16:41:43.937500
555,-33.68,2022-10-26 16:41:43.953125
556,-39.28,2022-10-26 16:41:43.968750
557,-44.53,2022-10-26 16:41:43.984375
558,-48.84,2022-10-26 16:41:44.000000
559,-51.81,2022-10-26 16:41:44.015625
560,-53.48,2022-10-26 16:41:44.031250
561,-54.41,2022-10-26 16:41:44.046875
562,-55.61,2022-10-26 16:41:44.062500
563,-58.17,2022-10-26 16:41:44.078125
564,-62.85,2022-10-26 16:41:44.093750
565,-69.68,2022-10-26 16:41:44.109375
566,-78.01,2022-10-26 16:41:44.125000
567,-86.85,2022-10-26 16:41:44.140625
568,-95.35,2022-10-26 16:41:44.156250
569,-103.06,2022-10-26 16:41:44.171875
570,-109.79,2022-10-26 16:41:44.187500
571,-115.26,2022-10-26 16:41:44.203125
572,-118.82,2022-10-26 16:41:44.218750
573,-119.56,2022-10-26 16:41:44.234375
574,-116.92,2022-10-26 16:41:44.250000
575,-111.17,2022-10-26 16:41:44.265625
576,-103.58,2022-10-26 16:41:44.281250
577,-95.79,2022-10-26 16:41:44.296875
578,-89.04,2022-10-26 16:41:44.312500
579,-83.49,2022-10-26 16:41:44.328125
580,-78.46,2022-10-26 16:41:44.343750
581,-73.12,2022-10-26 16:41:44.359375
582,-67.34,2022-10-26 16:41:44.375000
583,-62.02,2022-10-26 16:41:44.390625
584,-58.61,2022-10-26 16:41:44.406250
585,-58.1,2022-10-26 16:41:44.421875
586,-60.23,2022-10-26 16:41:44.437500
587,-63.39,2022-10-26 16:41:44.453125
588,-65.33,2022-10-26 16:41:44.468750
589,-64.18,2022-10-26 16:41:44.484375
590,-59.19,2022-10-26 16:41:44.500000
591,-50.64,2022-10-26 16:41:44.515625
592,-39.47,2022-10-26 16:41:44.531250
593,-26.64,2022-10-26 16:41:44.546875
594,-12.79,2022-10-26 16:41:44.562500
595,1.83,2022-10-26 16:41:44.578125
596,17.06,2022-10-26 16:41:44.593750
597,32.48,2022-10-26 16:41:44.609375
598,47.29,2022-10-26 16:41:44.625000
599,60.61,2022-10-26 16:41:44.640625
600,71.93,2022-10-26 16:41:44.656250
601,81.2,2022-10-26 16:41:44.671875
602,88.68,2022-10-26 16:41:44.687500
603,94.62,2022-10-26 16:41:44.703125
604,99.09,2022-10-26 16:41:44.718750
605,101.81,2022-10-26 16:41:44.734375
606,102.28,2022-10-26 16:41:44.750000
607,99.96,2022-10-26 16:41:44.765625
608,94.98,2022-10-26 16:41:44.781250
609,88.36,2022-10-26 16:41:44.796875
610,81.51,2022-10-26 16:41:44.812500
611,75.4,2022-10-26 16:41:44.828125
612,69.89,2022-10-26 16:41:44.843750
613,63.9,2022-10-26 16:41:44.859375
614,55.85,2022-10-26 16:41:44.875000
615,44.48,2022-10-26 16:41:44.890625
616,29.17,2022-10-26 16:41:44.906250
617,10.6,2022-10-26 16:41:44.921875
618,-9.29,2022-10-26 16:41:44.937500
619,-27.85,2022-10-26 16:41:44.953125
620,-42.57,2022-10-26 16:41:44.968750
621,-51.63,2022-10-26 16:41:44.984375
622,-54.05,2022-10-26 16:41:45.000000
623,-50.0,2022-10-26 16:41:45.015625
624,-39.32,2022-10-26 16:41:45.031250
625,-24.45,2022-10-26 16:41:45.046875
626,-10.14,2022-10-26 16:41:45.062500
627,-0.88,2022-10-26 16:41:45.078125
628,2.39,2022-10-26 16:41:45.093750
629,2.02,2022-10-26 16:41:45.109375
630,1.43,2022-10-26 16:41:45.125000
631,2.98,2022-10-26 16:41:45.140625
632,7.21,2022-10-26 16:41:45.156250
633,13.14,2022-10-26 16:41:45.171875
634,19.19,2022-10-26 16:41:45.187500
635,24.45,2022-10-26 16:41:45.203125
636,28.97,2022-10-26 16:41:45.218750
637,33.68,2022-10-26 16:41:45.234375
638,39.16,2022-10-26 16:41:45.250000
639,45.11,2022-10-26 16:41:45.265625
640,50.56,2022-10-26 16:41:45.281250
641,54.51,2022-10-26 16:41:45.296875
642,56.4,2022-10-26 16:41:45.312500
643,56.1,2022-10-26 16:41:45.328125
644,54.01,2022-10-26 16:41:45.343750
645,50.42,2022-10-26 16:41:45.359375
646,45.89,2022-10-26 16:41:45.375000
647,40.4,2022-10-26 16:41:45.390625
648,33.33,2022-10-26 16:41:45.406250
649,23.98,2022-10-26 16:41:45.421875
650,11.89,2022-10-26 16:41:45.437500
651,-2.77,2022-10-26 16:41:45.453125
652,-19.43,2022-10-26 16:41:45.468750
653,-34.72,2022-10-26 16:41:45.484375
654,-47.71,2022-10-26 16:41:45.500000
655,-57.73,2022-10-26 16:41:45.515625
656,-64.6,2022-10-26 16:41:45.531250
657,-68.69,2022-10-26 16:41:45.546875
658,-70.64,2022-10-26 16:41:45.562500
659,-71.11,2022-10-26 16:41:45.578125
660,-70.53,2022-10-26 16:41:45.593750
661,-69.1,2022-10-26 16:41:45.609375
662,-66.85,2022-10-26 16:41:45.625000
663,-64.01,2022-10-26 16:41:45.640625
664,-60.57,2022-10-26 16:41:45.656250
665,-56.69,2022-10-26 16:41:45.671875
666,-52.78,2022-10-26 16:41:45.687500
667,-49.29,2022-10-26 16:41:45.703125
668,-46.54,2022-10-26 16:41:45.718750
669,-44.55,2022-10-26 16:41:45.734375
670,-43.11,2022-10-26 16:41:45.750000
671,-41.8,2022-10-26 16:41:45.765625
672,-40.5,2022-10-26 16:41:45.781250
673,-39.04,2022-10-26 16:41:45.796875
674,-37.43,2022-10-26 16:41:45.812500
675,-36.02,2022-10-26 16:41:45.828125
676,-35.22,2022-10-26 16:41:45.843750
677,-35.28,2022-10-26 16:41:45.859375
678,-36.13,2022-10-26 16:41:45.875000
679,-37.39,2022-10-26 16:41:45.890625
680,-38.56,2022-10-26 16:41:45.906250
681,-39.41,2022-10-26 16:41:45.921875
682,-39.85,2022-10-26 16:41:45.937500
683,-40.04,2022-10-26 16:41:45.953125
684,-40.53,2022-10-26 16:41:45.968750
685,-41.88,2022-10-26 16:41:45.984375
686,-44.33,2022-10-26 16:41:46.000000
687,-47.72,2022-10-26 16:41:46.015625
688,-51.63,2022-10-26 16:41:46.031250
689,-55.56,2022-10-26 16:41:46.046875
690,-59.23,2022-10-26 16:41:46.062500
691,-62.42,2022-10-26 16:41:46.078125
692,-64.9,2022-10-26 16:41:46.093750
693,-66.64,2022-10-26 16:41:46.109375
694,-67.6,2022-10-26 16:41:46.125000
695,-67.84,2022-10-26 16:41:46.140625
696,-67.66,2022-10-26 16:41:46.156250
697,-67.43,2022-10-26 16:41:46.171875
698,-67.25,2022-10-26 16:41:46.187500
699,-66.59,2022-10-26 16:41:46.203125
700,-65.07,2022-10-26 16:41:46.218750
701,-60.39,2022-10-26 16:41:46.234375
702,-51.2,2022-10-26 16:41:46.250000
703,-37.28,2022-10-26 16:41:46.265625
704,-19.61,2022-10-26 16:41:46.281250
705,-0.07,2022-10-26 16:41:46.296875
706,19.29,2022-10-26 16:41:46.312500
707,36.9,2022-10-26 16:41:46.328125
708,51.97,2022-10-26 16:41:46.343750
709,64.36,2022-10-26 16:41:46.359375
710,74.3,2022-10-26 16:41:46.375000
711,81.59,2022-10-26 16:41:46.390625
712,85.8,2022-10-26 16:41:46.406250
713,86.42,2022-10-26 16:41:46.421875
714,83.25,2022-10-26 16:41:46.437500
715,76.85,2022-10-26 16:41:46.453125
716,68.64,2022-10-26 16:41:46.468750
717,60.46,2022-10-26 16:41:46.484375
718,54.02,2022-10-26 16:41:46.500000
719,50.3,2022-10-26 16:41:46.515625
720,48.92,2022-10-26 16:41:46.531250
721,48.5,2022-10-26 16:41:46.546875
722,47.26,2022-10-26 16:41:46.562500
723,43.93,2022-10-26 16:41:46.578125
724,38.33,2022-10-26 16:41:46.593750
725,31.42,2022-10-26 16:41:46.609375
726,24.72,2022-10-26 16:41:46.625000
727,19.5,2022-10-26 16:41:46.640625
728,16.29,2022-10-26 16:41:46.656250
729,14.49,2022-10-26 16:41:46.671875
730,12.92,2022-10-26 16:41:46.687500
731,10.44,2022-10-26 16:41:46.703125
732,6.72,2022-10-26 16:41:46.718750
733,2.32,2022-10-26 16:41:46.734375
734,-1.38,2022-10-26 16:41:46.750000
735,-2.92,2022-10-26 16:41:46.765625
736,-1.37,2022-10-26 16:41:46.781250
737,3.37,2022-10-26 16:41:46.796875
738,10.23,2022-10-26 16:41:46.812500
739,17.38,2022-10-26 16:41:46.828125
740,22.69,2022-10-26 16:41:46.843750
741,24.4,2022-10-26 16:41:46.859375
742,21.67,2022-10-26 16:41:46.875000
743,15.04,2022-10-26 16:41:46.890625
744,6.09,2022-10-26 16:41:46.906250
745,-3.01,2022-10-26 16:41:46.921875
746,-10.15,2022-10-26 16:41:46.937500
747,-14.07,2022-10-26 16:41:46.953125
748,-14.47,2022-10-26 16:41:46.968750
749,-11.96,2022-10-26 16:41:46.984375
750,-7.68,2022-10-26 16:41:47.000000
751,-2.95,2022-10-26 16:41:47.015625
752,1.01,2022-10-26 16:41:47.031250
753,3.0,2022-10-26 16:41:47.046875
754,1.91,2022-10-26 16:41:47.062500
755,-3.05,2022-10-26 16:41:47.078125
756,-12.1,2022-10-26 16:41:47.093750
757,-24.58,2022-10-26 16:41:47.109375
758,-39.08,2022-10-26 16:41:47.125000
759,-53.89,2022-10-26 16:41:47.140625
760,-68.21,2022-10-26 16:41:47.156250
761,-81.99,2022-10-26 16:41:47.171875
762,-96.59,2022-10-26 16:41:47.187500
763,-114.32,2022-10-26 16:41:47.203125
764,-137.16,2022-10-26 16:41:47.218750
765,-165.59,2022-10-26 16:41:47.234375
766,-197.96,2022-10-26 16:41:47.250000
767,-231.06,2022-10-26 16:41:47.265625
768,-261.18,2022-10-26 16:41:47.281250
769,-285.33,2022-10-26 16:41:47.296875
770,-301.6,2022-10-26 16:41:47.312500
771,-309.04,2022-10-26 16:41:47.328125
772,-307.01,2022-10-26 16:41:47.343750
773,-294.94,2022-10-26 16:41:47.359375
774,-272.65,2022-10-26 16:41:47.375000
775,-241.18,2022-10-26 16:41:47.390625
776,-203.22,2022-10-26 16:41:47.406250
777,-162.74,2022-10-26 16:41:47.421875
778,-123.74,2022-10-26 16:41:47.437500
779,-88.88,2022-10-26 16:41:47.453125
780,-58.86,2022-10-26 16:41:47.468750
781,-32.84,2022-10-26 16:41:47.484375
782,-9.67,2022-10-26 16:41:47.500000
783,11.16,2022-10-26 16:41:47.515625
784,29.15,2022-10-26 16:41:47.531250
785,43.39,2022-10-26 16:41:47.546875
786,53.52,2022-10-26 16:41:47.562500
787,60.37,2022-10-26 16:41:47.578125
788,65.84,2022-10-26 16:41:47.593750
789,72.18,2022-10-26 16:41:47.609375
790,81.12,2022-10-26 16:41:47.625000
791,93.45,2022-10-26 16:41:47.640625
792,109.25,2022-10-26 16:41:47.656250
793,128.54,2022-10-26 16:41:47.671875
794,151.5,2022-10-26 16:41:47.687500
795,178.1,2022-10-26 16:41:47.703125
796,207.03,2022-10-26 16:41:47.718750
797,234.96,2022-10-26 16:41:47.734375
798,256.8,2022-10-26 16:41:47.750000
799,267.34,2022-10-26 16:41:47.765625
800,263.55,2022-10-26 16:41:47.781250
801,246.3,2022-10-26 16:41:47.796875
802,220.41,2022-10-26 16:41:47.812500
803,192.74,2022-10-26 16:41:47.828125
804,169.54,2022-10-26 16:41:47.843750
805,154.09,2022-10-26 16:41:47.859375
806,146.14,2022-10-26 16:41:47.875000
807,142.97,2022-10-26 16:41:47.890625
808,141.39,2022-10-26 16:41:47.906250
809,139.49,2022-10-26 16:41:47.921875
810,137.03,2022-10-26 16:41:47.937500
811,134.78,2022-10-26 16:41:47.953125
812,133.34,2022-10-26 16:41:47.968750
813,132.42,2022-10-26 16:41:47.984375
814,130.74,2022-10-26 16:41:48.000000
815,126.73,2022-10-26 16:41:48.015625
816,119.16,2022-10-26 16:41:48.031250
817,107.62,2022-10-26 16:41:48.046875
818,92.74,2022-10-26 16:41:48.062500
819,76.04,2022-10-26 16:41:48.078125
820,59.64,2022-10-26 16:41:48.093750
821,45.8,2022-10-26 16:41:48.109375
822,36.32,2022-10-26 16:41:48.125000
823,31.87,2022-10-26 16:41:48.140625
824,31.62,2022-10-26 16:41:48.156250
825,33.34,2022-10-26 16:41:48.171875
826,34.07,2022-10-26 16:41:48.187500
827,31.2,2022-10-26 16:41:48.203125
828,23.33,2022-10-26 16:41:48.218750
829,10.68,2022-10-26 16:41:48.234375
830,-5.2,2022-10-26 16:41:48.250000
831,-22.12,2022-10-26 16:41:48.265625
832,-38.12,2022-10-26 16:41:48.281250
833,-51.88,2022-10-26 16:41:48.296875
834,-62.8,2022-10-26 16:41:48.312500
835,-70.69,2022-10-26 16:41:48.328125
836,-75.5,2022-10-26 16:41:48.343750
837,-77.14,2022-10-26 16:41:48.359375
838,-75.59,2022-10-26 16:41:48.375000
839,-70.88,2022-10-26 16:41:48.390625
840,-63.2,2022-10-26 16:41:48.406250
841,-52.64,2022-10-26 16:41:48.421875
842,-39.13,2022-10-26 16:41:48.437500
843,-22.39,2022-10-26 16:41:48.453125
844,-2.23,2022-10-26 16:41:48.468750
845,21.19,2022-10-26 16:41:48.484375
846,47.08,2022-10-26 16:41:48.500000
847,73.87,2022-10-26 16:41:48.515625
848,99.43,2022-10-26 16:41:48.531250
849,121.34,2022-10-26 16:41:48.546875
850,137.25,2022-10-26 16:41:48.562500
851,145.35,2022-10-26 16:41:48.578125
852,144.72,2022-10-26 16:41:48.593750
853,135.62,2022-10-26 16:41:48.609375
854,119.59,2022-10-26 16:41:48.625000
855,99.02,2022-10-26 16:41:48.640625
856,76.74,2022-10-26 16:41:48.656250
857,55.36,2022-10-26 16:41:48.671875
858,36.85,2022-10-26 16:41:48.687500
859,22.41,2022-10-26 16:41:48.703125
860,12.53,2022-10-26 16:41:48.718750
861,6.93,2022-10-26 16:41:48.734375
862,4.41,2022-10-26 16:41:48.750000
863,3.03,2022-10-26 16:41:48.765625
864,0.72,2022-10-26 16:41:48.781250
865,-3.51,2022-10-26 16:41:48.796875
866,-8.66,2022-10-26 16:41:48.812500
867,-11.67,2022-10-26 16:41:48.828125
868,-8.74,2022-10-26 16:41:48.843750
869,2.57,2022-10-26 16:41:48.859375
870,21.44,2022-10-26 16:41:48.875000
871,43.4,2022-10-26 16:41:48.890625
872,61.81,2022-10-26 16:41:48.906250
873,70.41,2022-10-26 16:41:48.921875
874,65.9,2022-10-26 16:41:48.937500
875,48.96,2022-10-26 16:41:48.953125
876,23.53,2022-10-26 16:41:48.968750
877,-5.15,2022-10-26 16:41:48.984375
878,-32.64,2022-10-26 16:41:49.000000
879,-56.57,2022-10-26 16:41:49.015625
880,-76.72,2022-10-26 16:41:49.031250
881,-94.32,2022-10-26 16:41:49.046875
882,-111.01,2022-10-26 16:41:49.062500
883,-128.09,2022-10-26 16:41:49.078125
884,-146.13,2022-10-26 16:41:49.093750
885,-164.92,2022-10-26 16:41:49.109375
886,-183.55,2022-10-26 16:41:49.125000
887,-200.89,2022-10-26 16:41:49.140625
888,-215.67,2022-10-26 16:41:49.156250
889,-226.66,2022-10-26 16:41:49.171875
890,-232.91,2022-10-26 16:41:49.187500
891,-233.85,2022-10-26 16:41:49.203125
892,-229.5,2022-10-26 16:41:49.218750
893,-220.55,2022-10-26 16:41:49.234375
894,-208.2,2022-10-26 16:41:49.250000
895,-193.8,2022-10-26 16:41:49.265625
896,-178.36,2022-10-26 16:41:49.281250
897,-162.13,2022-10-26 16:41:49.296875
898,-144.41,2022-10-26 16:41:49.312500
899,-123.79,2022-10-26 16:41:49.328125
900,-98.57,2022-10-26 16:41:49.343750
901,-67.34,2022-10-26 16:41:49.359375
902,-29.33,2022-10-26 16:41:49.375000
903,15.45,2022-10-26 16:41:49.390625
904,66.14,2022-10-26 16:41:49.406250
905,120.87,2022-10-26 16:41:49.421875
906,176.76,2022-10-26 16:41:49.437500
907,230.08,2022-10-26 16:41:49.453125
908,276.9,2022-10-26 16:41:49.468750
909,314.04,2022-10-26 16:41:49.484375
910,340.05,2022-10-26 16:41:49.500000
911,355.39,2022-10-26 16:41:49.515625
912,361.85,2022-10-26 16:41:49.531250
913,361.21,2022-10-26 16:41:49.546875
914,354.19,2022-10-26 16:41:49.562500
915,340.0,2022-10-26 16:41:49.578125
916,317.01,2022-10-26 16:41:49.593750
917,284.02,2022-10-26 16:41:49.609375
918,241.39,2022-10-26 16:41:49.625000
919,191.37,2022-10-26 16:41:49.640625
920,137.51,2022-10-26 16:41:49.656250
921,83.68,2022-10-26 16:41:49.671875
922,33.12,2022-10-26 16:41:49.687500
923,-11.89,2022-10-26 16:41:49.703125
924,-49.91,2022-10-26 16:41:49.718750
925,-79.99,2022-10-26 16:41:49.734375
926,-101.63,2022-10-26 16:41:49.750000
927,-114.88,2022-10-26 16:41:49.765625
928,-120.64,2022-10-26 16:41:49.781250
929,-120.72,2022-10-26 16:41:49.796875
930,-117.64,2022-10-26 16:41:49.812500
931,-114.08,2022-10-26 16:41:49.828125
932,-112.18,2022-10-26 16:41:49.843750
933,-113.02,2022-10-26 16:41:49.859375
934,-116.51,2022-10-26 16:41:49.875000
935,-121.57,2022-10-26 16:41:49.890625
936,-126.72,2022-10-26 16:41:49.906250
937,-130.74,2022-10-26 16:41:49.921875
938,-133.01,2022-10-26 16:41:49.937500
939,-133.46,2022-10-26 16:41:49.953125
940,-132.36,2022-10-26 16:41:49.968750
941,-129.88,2022-10-26 16:41:49.984375
942,-125.95,2022-10-26 16:41:50.000000
943,-120.35,2022-10-26 16:41:50.015625
944,-112.95,2022-10-26 16:41:50.031250
945,-103.84,2022-10-26 16:41:50.046875
946,-93.48,2022-10-26 16:41:50.062500
947,-82.46,2022-10-26 16:41:50.078125
948,-71.4,2022-10-26 16:41:50.093750
949,-60.85,2022-10-26 16:41:50.109375
950,-51.29,2022-10-26 16:41:50.125000
951,-43.08,2022-10-26 16:41:50.140625
952,-36.51,2022-10-26 16:41:50.156250
953,-31.58,2022-10-26 16:41:50.171875
954,-27.84,2022-10-26 16:41:50.187500
955,-24.4,2022-10-26 16:41:50.203125
956,-20.14,2022-10-26 16:41:50.218750
957,-14.14,2022-10-26 16:41:50.234375
958,-6.14,2022-10-26 16:41:50.250000
959,3.26,2022-10-26 16:41:50.265625
960,12.84,2022-10-26 16:41:50.281250
961,21.21,2022-10-26 16:41:50.296875
962,27.47,2022-10-26 16:41:50.312500
963,31.59,2022-10-26 16:41:50.328125
964,34.35,2022-10-26 16:41:50.343750
965,36.88,2022-10-26 16:41:50.359375
966,40.0,2022-10-26 16:41:50.375000
967,43.77,2022-10-26 16:41:50.390625
968,47.42,2022-10-26 16:41:50.406250
969,49.74,2022-10-26 16:41:50.421875
970,49.67,2022-10-26 16:41:50.437500
971,46.78,2022-10-26 16:41:50.453125
972,41.42,2022-10-26 16:41:50.468750
973,34.37,2022-10-26 16:41:50.484375
974,26.42,2022-10-26 16:41:50.500000
975,18.03,2022-10-26 16:41:50.515625
976,9.25,2022-10-26 16:41:50.531250
977,0.05,2022-10-26 16:41:50.546875
978,-9.24,2022-10-26 16:41:50.562500
979,-17.71,2022-10-26 16:41:50.578125
980,-23.98,2022-10-26 16:41:50.593750
981,-26.72,2022-10-26 16:41:50.609375
982,-25.28,2022-10-26 16:41:50.625000
983,-19.92,2022-10-26 16:41:50.640625
984,-11.78,2022-10-26 16:41:50.656250
985,-2.43,2022-10-26 16:41:50.671875
986,6.62,2022-10-26 16:41:50.687500
987,14.32,2022-10-26 16:41:50.703125
988,20.11,2022-10-26 16:41:50.718750
989,23.75,2022-10-26 16:41:50.734375
990,25.14,2022-10-26 16:41:50.750000
991,24.23,2022-10-26 16:41:50.765625
992,21.11,2022-10-26 16:41:50.781250
993,16.08,2022-10-26 16:41:50.796875
994,9.82,2022-10-26 16:41:50.812500
995,3.38,2022-10-26 16:41:50.828125
996,-2.02,2022-10-26 16:41:50.843750
997,-5.18,2022-10-26 16:41:50.859375
998,-5.3,2022-10-26 16:41:50.875000
999,-2.16,2022-10-26 16:41:50.890625
1000,3.69,2022-10-26 16:41:50.906250
1001,11.07,2022-10-26 16:41:50.921875
1002,18.51,2022-10-26 16:41:50.937500
1003,24.64,2022-10-26 16:41:50.953125
1004,28.62,2022-10-26 16:41:50.968750
1005,30.3,2022-10-26 16:41:50.984375
1006,30.13,2022-10-26 16:41:51.000000
1007,28.86,2022-10-26 16:41:51.015625
1008,27.23,2022-10-26 16:41:51.031250
1009,25.78,2022-10-26 16:41:51.046875
1010,24.77,2022-10-26 16:41:51.062500
1011,24.24,2022-10-26 16:41:51.078125
1012,24.06,2022-10-26 16:41:51.093750
1013,23.95,2022-10-26 16:41:51.109375
1014,23.5,2022-10-26 16:41:51.125000
1015,22.27,2022-10-26 16:41:51.140625
1016,19.97,2022-10-26 16:41:51.156250
1017,16.63,2022-10-26 16:41:51.171875
1018,12.71,2022-10-26 16:41:51.187500
1019,9.01,2022-10-26 16:41:51.203125
1020,6.36,2022-10-26 16:41:51.218750
1021,5.27,2022-10-26 16:41:51.234375
1022,5.66,2022-10-26 16:41:51.250000
1023,6.82,2022-10-26 16:41:51.265625
1024,7.69,2022-10-26 16:41:51.281250
1025,7.19,2022-10-26 16:41:51.296875
1026,4.7,2022-10-26 16:41:51.312500
1027,0.24,2022-10-26 16:41:51.328125
1028,-5.63,2022-10-26 16:41:51.343750
1029,-12.1,2022-10-26 16:41:51.359375
1030,-18.45,2022-10-26 16:41:51.375000
1031,-24.34,2022-10-26 16:41:51.390625
1032,-29.83,2022-10-26 16:41:51.406250
1033,-35.24,2022-10-26 16:41:51.421875
1034,-40.78,2022-10-26 16:41:51.437500
1035,-46.38,2022-10-26 16:41:51.453125
1036,-51.64,2022-10-26 16:41:51.468750
1037,-56.06,2022-10-26 16:41:51.484375
1038,-59.41,2022-10-26 16:41:51.500000
1039,-61.92,2022-10-26 16:41:51.515625
1040,-64.27,2022-10-26 16:41:51.531250
1041,-67.25,2022-10-26 16:41:51.546875
1042,-71.4,2022-10-26 16:41:51.562500
1043,-76.75,2022-10-26 16:41:51.578125
1044,-82.74,2022-10-26 16:41:51.593750
1045,-88.47,2022-10-26 16:41:51.609375
1046,-92.82,2022-10-26 16:41:51.625000
1047,-94.56,2022-10-26 16:41:51.640625
1048,-92.42,2022-10-26 16:41:51.656250
1049,-85.4,2022-10-26 16:41:51.671875
1050,-73.11,2022-10-26 16:41:51.687500
1051,-56.19,2022-10-26 16:41:51.703125
1052,-36.57,2022-10-26 16:41:51.718750
1053,-17.01,2022-10-26 16:41:51.734375
1054,-0.29,2022-10-26 16:41:51.750000
1055,11.79,2022-10-26 16:41:51.765625
1056,19.05,2022-10-26 16:41:51.781250
1057,22.82,2022-10-26 16:41:51.796875
1058,25.17,2022-10-26 16:41:51.812500
1059,27.91,2022-10-26 16:41:51.828125
1060,31.85,2022-10-26 16:41:51.843750
1061,36.65,2022-10-26 16:41:51.859375
1062,41.33,2022-10-26 16:41:51.875000
1063,44.91,2022-10-26 16:41:51.890625
1064,46.85,2022-10-26 16:41:51.906250
1065,47.11,2022-10-26 16:41:51.921875
1066,45.95,2022-10-26 16:41:51.937500
1067,43.59,2022-10-26 16:41:51.953125
1068,40.11,2022-10-26 16:41:51.968750
1069,35.53,2022-10-26 16:41:51.984375
1070,29.87,2022-10-26 16:41:52.000000
1071,23.28,2022-10-26 16:41:52.015625
1072,15.97,2022-10-26 16:41:52.031250
1073,8.21,2022-10-26 16:41:52.046875
1074,0.31,2022-10-26 16:41:52.062500
1075,-7.3,2022-10-26 16:41:52.078125
1076,-13.91,2022-10-26 16:41:52.093750
1077,-18.66,2022-10-26 16:41:52.109375
1078,-20.7,2022-10-26 16:41:52.125000
1079,-19.68,2022-10-26 16:41:52.140625
1080,-15.99,2022-10-26 16:41:52.156250
1081,-10.78,2022-10-26 16:41:52.171875
1082,-5.62,2022-10-26 16:41:52.187500
1083,-1.87,2022-10-26 16:41:52.203125
1084,-0.18,2022-10-26 16:41:52.218750
1085,-0.22,2022-10-26 16:41:52.234375
1086,-0.88,2022-10-26 16:41:52.250000
1087,-0.68,2022-10-26 16:41:52.265625
1088,1.58,2022-10-26 16:41:52.281250
1089,6.35,2022-10-26 16:41:52.296875
1090,13.05,2022-10-26 16:41:52.312500
1091,19.87,2022-10-26 16:41:52.328125
1092,24.02,2022-10-26 16:41:52.343750
1093,22.17,2022-10-26 16:41:52.359375
1094,11.7,2022-10-26 16:41:52.375000
1095,-7.91,2022-10-26 16:41:52.390625
1096,-33.89,2022-10-26 16:41:52.406250
1097,-60.2,2022-10-26 16:41:52.421875
1098,-79.24,2022-10-26 16:41:52.437500
1099,-84.57,2022-10-26 16:41:52.453125
1100,-73.72,2022-10-26 16:41:52.468750
1101,-49.31,2022-10-26 16:41:52.484375
1102,-17.91,2022-10-26 16:41:52.500000
1103,12.9,2022-10-26 16:41:52.515625
1104,37.78,2022-10-26 16:41:52.531250
1105,55.5,2022-10-26 16:41:52.546875
1106,68.67,2022-10-26 16:41:52.562500
1107,81.74,2022-10-26 16:41:52.578125
1108,98.72,2022-10-26 16:41:52.593750
1109,121.45,2022-10-26 16:41:52.609375
1110,149.19,2022-10-26 16:41:52.625000
1111,179.0,2022-10-26 16:41:52.640625
1112,206.54,2022-10-26 16:41:52.656250
1113,226.93,2022-10-26 16:41:52.671875
1114,235.67,2022-10-26 16:41:52.687500
1115,229.67,2022-10-26 16:41:52.703125
1116,208.13,2022-10-26 16:41:52.718750
1117,173.15,2022-10-26 16:41:52.734375
1118,129.32,2022-10-26 16:41:52.750000
1119,82.73,2022-10-26 16:41:52.765625
1120,39.45,2022-10-26 16:41:52.781250
1121,4.22,2022-10-26 16:41:52.796875
1122,-20.24,2022-10-26 16:41:52.812500
1123,-33.38,2022-10-26 16:41:52.828125
1124,-36.4,2022-10-26 16:41:52.843750
1125,-31.7,2022-10-26 16:41:52.859375
1126,-22.25,2022-10-26 16:41:52.875000
1127,-11.08,2022-10-26 16:41:52.890625
1128,-0.71,2022-10-26 16:41:52.906250
1129,7.15,2022-10-26 16:41:52.921875
1130,11.8,2022-10-26 16:41:52.937500
1131,13.43,2022-10-26 16:41:52.953125
1132,12.93,2022-10-26 16:41:52.968750
1133,11.47,2022-10-26 16:41:52.984375
1134,10.23,2022-10-26 16:41:53.000000
1135,9.96,2022-10-26 16:41:53.015625
1136,10.64,2022-10-26 16:41:53.031250
1137,11.57,2022-10-26 16:41:53.046875
1138,11.64,2022-10-26 16:41:53.062500
1139,10.05,2022-10-26 16:41:53.078125
1140,6.8,2022-10-26 16:41:53.093750
1141,2.95,2022-10-26 16:41:53.109375
1142,0.13,2022-10-26 16:41:53.125000
1143,-0.26,2022-10-26 16:41:53.140625
1144,2.09,2022-10-26 16:41:53.156250
1145,6.09,2022-10-26 16:41:53.171875
1146,9.76,2022-10-26 16:41:53.187500
1147,11.19,2022-10-26 16:41:53.203125
1148,9.42,2022-10-26 16:41:53.218750
1149,4.86,2022-10-26 16:41:53.234375
1150,-1.08,2022-10-26 16:41:53.250000
1151,-6.73,2022-10-26 16:41:53.265625
1152,-10.9,2022-10-26 16:41:53.281250
1153,-13.17,2022-10-26 16:41:53.296875
1154,-13.81,2022-10-26 16:41:53.312500
1155,-13.3,2022-10-26 16:41:53.328125
1156,-12.21,2022-10-26 16:41:53.343750
1157,-11.08,2022-10-26 16:41:53.359375
1158,-10.46,2022-10-26 16:41:53.375000
1159,-10.93,2022-10-26 16:41:53.390625
1160,-12.89,2022-10-26 16:41:53.406250
1161,-16.33,2022-10-26 16:41:53.421875
1162,-20.78,2022-10-26 16:41:53.437500
1163,-25.53,2022-10-26 16:41:53.453125
1164,-30.16,2022-10-26 16:41:53.468750
1165,-34.75,2022-10-26 16:41:53.484375
1166,-39.93,2022-10-26 16:41:53.500000
1167,-46.28,2022-10-26 16:41:53.515625
1168,-53.77,2022-10-26 16:41:53.531250
1169,-61.39,2022-10-26 16:41:53.546875
1170,-67.52,2022-10-26 16:41:53.562500
1171,-70.61,2022-10-26 16:41:53.578125
1172,-69.99,2022-10-26 16:41:53.593750
1173,-66.17,2022-10-26 16:41:53.609375
1174,-60.49,2022-10-26 16:41:53.625000
1175,-54.35,2022-10-26 16:41:53.640625
1176,-48.5,2022-10-26 16:41:53.656250
1177,-42.86,2022-10-26 16:41:53.671875
1178,-36.92,2022-10-26 16:41:53.687500
1179,-30.46,2022-10-26 16:41:53.703125
1180,-23.9,2022-10-26 16:41:53.718750
1181,-18.19,2022-10-26 16:41:53.734375
1182,-14.23,2022-10-26 16:41:53.750000
1183,-12.27,2022-10-26 16:41:53.765625
1184,-11.83,2022-10-26 16:41:53.781250
1185,-11.98,2022-10-26 16:41:53.796875
1186,-12.02,2022-10-26 16:41:53.812500
1187,-11.82,2022-10-26 16:41:53.828125
1188,-11.93,2022-10-26 16:41:53.843750
1189,-13.05,2022-10-26 16:41:53.859375
1190,-15.55,2022-10-26 16:41:53.875000
1191,-19.2,2022-10-26 16:41:53.890625
1192,-23.2,2022-10-26 16:41:53.906250
1193,-26.64,2022-10-26 16:41:53.921875
1194,-28.79,2022-10-26 16:41:53.937500
1195,-29.31,2022-10-26 16:41:53.953125
1196,-28.25,2022-10-26 16:41:53.968750
1197,-25.84,2022-10-26 16:41:53.984375
1198,-22.43,2022-10-26 16:41:54.000000
1199,-18.4,2022-10-26 16:41:54.015625
1200,-14.23,2022-10-26 16:41:54.031250
1201,-10.37,2022-10-26 16:41:54.046875
1202,-7.25,2022-10-26 16:41:54.062500
1203,-5.06,2022-10-26 16:41:54.078125
1204,-3.76,2022-10-26 16:41:54.093750
1205,-3.17,2022-10-26 16:41:54.109375
1206,-3.14,2022-10-26 16:41:54.125000
1207,-3.71,2022-10-26 16:41:54.140625
1208,-5.06,2022-10-26 16:41:54.156250
1209,-7.39,2022-10-26 16:41:54.171875
1210,-10.64,2022-10-26 16:41:54.187500
1211,-14.4,2022-10-26 16:41:54.203125
1212,-18.11,2022-10-26 16:41:54.218750
1213,-21.38,2022-10-26 16:41:54.234375
1214,-24.28,2022-10-26 16:41:54.250000
1215,-27.38,2022-10-26 16:41:54.265625
1216,-31.41,2022-10-26 16:41:54.281250
1217,-36.82,2022-10-26 16:41:54.296875
1218,-43.41,2022-10-26 16:41:54.312500
1219,-50.32,2022-10-26 16:41:54.328125
1220,-56.48,2022-10-26 16:41:54.343750
1221,-61.05,2022-10-26 16:41:54.359375
1222,-63.7,2022-10-26 16:41:54.375000
1223,-64.48,2022-10-26 16:41:54.390625
1224,-63.46,2022-10-26 16:41:54.406250
1225,-60.45,2022-10-26 16:41:54.421875
1226,-55.07,2022-10-26 16:41:54.437500
1227,-47.06,2022-10-26 16:41:54.453125
1228,-36.66,2022-10-26 16:41:54.468750
1229,-24.84,2022-10-26 16:41:54.484375
1230,-13.01,2022-10-26 16:41:54.500000
1231,-2.7,2022-10-26 16:41:54.515625
1232,5.0,2022-10-26 16:41:54.531250
1233,9.62,2022-10-26 16:41:54.546875
1234,11.22,2022-10-26 16:41:54.562500
1235,10.26,2022-10-26 16:41:54.578125
1236,7.42,2022-10-26 16:41:54.593750
1237,3.49,2022-10-26 16:41:54.609375
1238,-0.58,2022-10-26 16:41:54.625000
1239,-3.72,2022-10-26 16:41:54.640625
1240,-4.81,2022-10-26 16:41:54.656250
1241,-2.91,2022-10-26 16:41:54.671875
1242,2.66,2022-10-26 16:41:54.687500
1243,12.05,2022-10-26 16:41:54.703125
1244,24.8,2022-10-26 16:41:54.718750
1245,39.73,2022-10-26 16:41:54.734375
1246,55.17,2022-10-26 16:41:54.750000
1247,69.27,2022-10-26 16:41:54.765625
1248,80.54,2022-10-26 16:41:54.781250
1249,88.1,2022-10-26 16:41:54.796875
1250,91.7,2022-10-26 16:41:54.812500
1251,91.39,2022-10-26 16:41:54.828125
1252,87.16,2022-10-26 16:41:54.843750
1253,78.89,2022-10-26 16:41:54.859375
1254,66.7,2022-10-26 16:41:54.875000
1255,51.39,2022-10-26 16:41:54.890625
1256,34.78,2022-10-26 16:41:54.906250
1257,19.4,2022-10-26 16:41:54.921875
1258,7.61,2022-10-26 16:41:54.937500
1259,0.67,2022-10-26 16:41:54.953125
1260,-1.88,2022-10-26 16:41:54.968750
1261,-2.07,2022-10-26 16:41:54.984375
1262,-2.73,2022-10-26 16:41:55.000000
1263,-6.35,2022-10-26 16:41:55.015625
1264,-14.39,2022-10-26 16:41:55.031250
1265,-26.87,2022-10-26 16:41:55.046875
1266,-42.68,2022-10-26 16:41:55.062500
1267,-59.95,2022-10-26 16:41:55.078125
1268,-76.57,2022-10-26 16:41:55.093750
1269,-90.62,2022-10-26 16:41:55.109375
1270,-100.67,2022-10-26 16:41:55.125000
1271,-105.96,2022-10-26 16:41:55.140625
1272,-106.39,2022-10-26 16:41:55.156250
1273,-102.45,2022-10-26 16:41:55.171875
1274,-94.99,2022-10-26 16:41:55.187500
1275,-85.02,2022-10-26 16:41:55.203125
1276,-73.48,2022-10-26 16:41:55.218750
1277,-61.23,2022-10-26 16:41:55.234375
1278,-48.99,2022-10-26 16:41:55.250000
1279,-37.31,2022-10-26 16:41:55.265625
1280,-26.53,2022-10-26 16:41:55.281250
1281,-16.73,2022-10-26 16:41:55.296875
1282,-7.83,2022-10-26 16:41:55.312500
1283,0.35,2022-10-26 16:41:55.328125
1284,7.86,2022-10-26 16:41:55.343750
1285,14.51,2022-10-26 16:41:55.359375
1286,19.9,2022-10-26 16:41:55.375000
1287,23.54,2022-10-26 16:41:55.390625
1288,25.18,2022-10-26 16:41:55.406250
1289,24.92,2022-10-26 16:41:55.421875
1290,23.27,2022-10-26 16:41:55.437500
1291,20.89,2022-10-26 16:41:55.453125
1292,18.29,2022-10-26 16:41:55.468750
1293,15.71,2022-10-26 16:41:55.484375
1294,13.14,2022-10-26 16:41:55.500000
1295,10.56,2022-10-26 16:41:55.515625
1296,8.15,2022-10-26 16:41:55.531250
1297,6.41,2022-10-26 16:41:55.546875
1298,5.92,2022-10-26 16:41:55.562500
1299,7.02,2022-10-26 16:41:55.578125
1300,9.49,2022-10-26 16:41:55.593750
1301,12.48,2022-10-26 16:41:55.609375
1302,14.8,2022-10-26 16:41:55.625000
1303,15.32,2022-10-26 16:41:55.640625
1304,13.56,2022-10-26 16:41:55.656250
1305,9.77,2022-10-26 16:41:55.671875
1306,4.91,2022-10-26 16:41:55.687500
1307,0.14,2022-10-26 16:41:55.703125
1308,-3.62,2022-10-26 16:41:55.718750
1309,-6.05,2022-10-26 16:41:55.734375
1310,-7.49,2022-10-26 16:41:55.750000
1311,-8.64,2022-10-26 16:41:55.765625
1312,-10.27,2022-10-26 16:41:55.781250
1313,-12.92,2022-10-26 16:41:55.796875
1314,-16.78,2022-10-26 16:41:55.812500
1315,-21.54,2022-10-26 16:41:55.828125
1316,-26.28,2022-10-26 16:41:55.843750
1317,-29.33,2022-10-26 16:41:55.859375
1318,-28.46,2022-10-26 16:41:55.875000
1319,-21.44,2022-10-26 16:41:55.890625
1320,-6.97,2022-10-26 16:41:55.906250
1321,14.43,2022-10-26 16:41:55.921875
1322,40.05,2022-10-26 16:41:55.937500
1323,65.64,2022-10-26 16:41:55.953125
1324,86.8,2022-10-26 16:41:55.968750
1325,100.63,2022-10-26 16:41:55.984375
1326,106.62,2022-10-26 16:41:56.000000
1327,106.5,2022-10-26 16:41:56.015625
1328,103.01,2022-10-26 16:41:56.031250
1329,98.47,2022-10-26 16:41:56.046875
1330,93.73,2022-10-26 16:41:56.062500
1331,88.3,2022-10-26 16:41:56.078125
1332,81.12,2022-10-26 16:41:56.093750
1333,71.63,2022-10-26 16:41:56.109375
1334,60.28,2022-10-26 16:41:56.125000
1335,48.41,2022-10-26 16:41:56.140625
1336,37.43,2022-10-26 16:41:56.156250
1337,28.14,2022-10-26 16:41:56.171875
1338,20.42,2022-10-26 16:41:56.187500
1339,13.51,2022-10-26 16:41:56.203125
1340,6.66,2022-10-26 16:41:56.218750
1341,-0.32,2022-10-26 16:41:56.234375
1342,-6.94,2022-10-26 16:41:56.250000
1343,-12.3,2022-10-26 16:41:56.265625
1344,-15.72,2022-10-26 16:41:56.281250
1345,-17.13,2022-10-26 16:41:56.296875
1346,-17.2,2022-10-26 16:41:56.312500
1347,-17.07,2022-10-26 16:41:56.328125
1348,-17.91,2022-10-26 16:41:56.343750
1349,-20.41,2022-10-26 16:41:56.359375
1350,-24.57,2022-10-26 16:41:56.375000
1351,-29.83,2022-10-26 16:41:56.390625
1352,-35.37,2022-10-26 16:41:56.406250
1353,-40.49,2022-10-26 16:41:56.421875
1354,-44.92,2022-10-26 16:41:56.437500
1355,-48.83,2022-10-26 16:41:56.453125
1356,-52.66,2022-10-26 16:41:56.468750
1357,-56.84,2022-10-26 16:41:56.484375
1358,-61.43,2022-10-26 16:41:56.500000
1359,-66.0,2022-10-26 16:41:56.515625
1360,-69.7,2022-10-26 16:41:56.531250
1361,-71.5,2022-10-26 16:41:56.546875
1362,-70.51,2022-10-26 16:41:56.562500
1363,-66.28,2022-10-26 16:41:56.578125
1364,-58.95,2022-10-26 16:41:56.593750
1365,-49.19,2022-10-26 16:41:56.609375
1366,-38.06,2022-10-26 16:41:56.625000
1367,-26.74,2022-10-26 16:41:56.640625
1368,-16.31,2022-10-26 16:41:56.656250
1369,-7.53,2022-10-26 16:41:56.671875
1370,-0.77,2022-10-26 16:41:56.687500
1371,3.95,2022-10-26 16:41:56.703125
1372,6.87,2022-10-26 16:41:56.718750
1373,8.34,2022-10-26 16:41:56.734375
1374,8.68,2022-10-26 16:41:56.750000
1375,8.13,2022-10-26 16:41:56.765625
1376,6.92,2022-10-26 16:41:56.781250
1377,5.28,2022-10-26 16:41:56.796875
1378,3.55,2022-10-26 16:41:56.812500
1379,2.1,2022-10-26 16:41:56.828125
1380,1.29,2022-10-26 16:41:56.843750
1381,1.38,2022-10-26 16:41:56.859375
1382,2.44,2022-10-26 16:41:56.875000
1383,4.36,2022-10-26 16:41:56.890625
1384,6.91,2022-10-26 16:41:56.906250
1385,9.8,2022-10-26 16:41:56.921875
1386,12.72,2022-10-26 16:41:56.937500
1387,15.4,2022-10-26 16:41:56.953125
1388,17.63,2022-10-26 16:41:56.968750
1389,19.23,2022-10-26 16:41:56.984375
1390,20.07,2022-10-26 16:41:57.000000
1391,20.01,2022-10-26 16:41:57.015625
1392,18.96,2022-10-26 16:41:57.031250
1393,16.8,2022-10-26 16:41:57.046875
1394,13.57,2022-10-26 16:41:57.062500
1395,9.41,2022-10-26 16:41:57.078125
1396,4.58,2022-10-26 16:41:57.093750
1397,-0.65,2022-10-26 16:41:57.109375
1398,-6.15,2022-10-26 16:41:57.125000
1399,-11.89,2022-10-26 16:41:57.140625
1400,-17.96,2022-10-26 16:41:57.156250
1401,-24.24,2022-10-26 16:41:57.171875
1402,-30.29,2022-10-26 16:41:57.187500
1403,-35.34,2022-10-26 16:41:57.203125
1404,-38.5,2022-10-26 16:41:57.218750
1405,-39.01,2022-10-26 16:41:57.234375
1406,-36.6,2022-10-26 16:41:57.250000
1407,-31.66,2022-10-26 16:41:57.265625
1408,-25.12,2022-10-26 16:41:57.281250
1409,-18.3,2022-10-26 16:41:57.296875
1410,-12.68,2022-10-26 16:41:57.312500
1411,-9.66,2022-10-26 16:41:57.328125
1412,-10.3,2022-10-26 16:41:57.343750
1413,-15.07,2022-10-26 16:41:57.359375
1414,-23.58,2022-10-26 16:41:57.375000
1415,-34.55,2022-10-26 16:41:57.390625
1416,-46.08,2022-10-26 16:41:57.406250
1417,-56.13,2022-10-26 16:41:57.421875
1418,-63.24,2022-10-26 16:41:57.437500
1419,-66.95,2022-10-26 16:41:57.453125
1420,-67.84,2022-10-26 16:41:57.468750
1421,-67.1,2022-10-26 16:41:57.484375
1422,-65.91,2022-10-26 16:41:57.500000
1423,-64.89,2022-10-26 16:41:57.515625
1424,-63.95,2022-10-26 16:41:57.531250
1425,-62.54,2022-10-26 16:41:57.546875
1426,-60.09,2022-10-26 16:41:57.562500
1427,-56.34,2022-10-26 16:41:57.578125
1428,-51.45,2022-10-26 16:41:57.593750
1429,-45.87,2022-10-26 16:41:57.609375
1430,-40.07,2022-10-26 16:41:57.625000
1431,-34.42,2022-10-26 16:41:57.640625
1432,-29.17,2022-10-26 16:41:57.656250
1433,-24.52,2022-10-26 16:41:57.671875
1434,-20.6,2022-10-26 16:41:57.687500
1435,-17.53,2022-10-26 16:41:57.703125
1436,-15.29,2022-10-26 16:41:57.718750
1437,-13.71,2022-10-26 16:41:57.734375
1438,-12.55,2022-10-26 16:41:57.750000
1439,-11.64,2022-10-26 16:41:57.765625
1440,-10.95,2022-10-26 16:41:57.781250
1441,-10.62,2022-10-26 16:41:57.796875
1442,-10.9,2022-10-26 16:41:57.812500
1443,-11.88,2022-10-26 16:41:57.828125
1444,-13.42,2022-10-26 16:41:57.843750
1445,-15.11,2022-10-26 16:41:57.859375
1446,-16.31,2022-10-26 16:41:57.875000
1447,-16.35,2022-10-26 16:41:57.890625
1448,-14.75,2022-10-26 16:41:57.906250
1449,-11.27,2022-10-26 16:41:57.921875
1450,-5.96,2022-10-26 16:41:57.937500
1451,0.89,2022-10-26 16:41:57.953125
1452,8.76,2022-10-26 16:41:57.968750
1453,16.94,2022-10-26 16:41:57.984375
1454,24.55,2022-10-26 16:41:58.000000
1455,30.64,2022-10-26 16:41:58.015625
1456,34.47,2022-10-26 16:41:58.031250
1457,35.67,2022-10-26 16:41:58.046875
1458,34.39,2022-10-26 16:41:58.062500
1459,31.29,2022-10-26 16:41:58.078125
1460,27.29,2022-10-26 16:41:58.093750
1461,23.24,2022-10-26 16:41:58.109375
1462,19.7,2022-10-26 16:41:58.125000
1463,16.86,2022-10-26 16:41:58.140625
1464,14.68,2022-10-26 16:41:58.156250
1465,13.01,2022-10-26 16:41:58.171875
1466,11.8,2022-10-26 16:41:58.187500
1467,11.13,2022-10-26 16:41:58.203125
1468,11.19,2022-10-26 16:41:58.218750
1469,12.17,2022-10-26 16:41:58.234375
1470,14.21,2022-10-26 16:41:58.250000
1471,17.28,2022-10-26 16:41:58.265625
1472,21.13,2022-10-26 16:41:58.281250
1473,25.36,2022-10-26 16:41:58.296875
1474,29.45,2022-10-26 16:41:58.312500
1475,32.93,2022-10-26 16:41:58.328125
1476,35.39,2022-10-26 16:41:58.343750
1477,36.68,2022-10-26 16:41:58.359375
1478,36.78,2022-10-26 16:41:58.375000
1479,35.87,2022-10-26 16:41:58.390625
1480,34.23,2022-10-26 16:41:58.406250
1481,32.18,2022-10-26 16:41:58.421875
1482,30.06,2022-10-26 16:41:58.437500
1483,28.11,2022-10-26 16:41:58.453125
1484,26.41,2022-10-26 16:41:58.468750
1485,24.84,2022-10-26 16:41:58.484375
1486,23.21,2022-10-26 16:41:58.500000
1487,21.26,2022-10-26 16:41:58.515625
1488,18.93,2022-10-26 16:41:58.531250
1489,16.29,2022-10-26 16:41:58.546875
1490,13.56,2022-10-26 16:41:58.562500
1491,10.92,2022-10-26 16:41:58.578125
1492,8.41,2022-10-26 16:41:58.593750
1493,5.83,2022-10-26 16:41:58.609375
1494,2.82,2022-10-26 16:41:58.625000
1495,-1.03,2022-10-26 16:41:58.640625
1496,-6.0,2022-10-26 16:41:58.656250
1497,-12.09,2022-10-26 16:41:58.671875
1498,-18.91,2022-10-26 16:41:58.687500
1499,-25.71,2022-10-26 16:41:58.703125
1500,-31.43,2022-10-26 16:41:58.718750
1501,-35.04,2022-10-26 16:41:58.734375
1502,-35.72,2022-10-26 16:41:58.750000
1503,-33.24,2022-10-26 16:41:58.765625
1504,-27.97,2022-10-26 16:41:58.781250
1505,-20.75,2022-10-26 16:41:58.796875
1506,-12.65,2022-10-26 16:41:58.812500
1507,-4.68,2022-10-26 16:41:58.828125
1508,2.39,2022-10-26 16:41:58.843750
1509,8.1,2022-10-26 16:41:58.859375
1510,12.18,2022-10-26 16:41:58.875000
1511,14.59,2022-10-26 16:41:58.890625
1512,15.45,2022-10-26 16:41:58.906250
1513,15.09,2022-10-26 16:41:58.921875
1514,13.96,2022-10-26 16:41:58.937500
1515,12.56,2022-10-26 16:41:58.953125
1516,11.31,2022-10-26 16:41:58.968750
1517,10.42,2022-10-26 16:41:58.984375
1518,9.88,2022-10-26 16:41:59.000000
1519,9.57,2022-10-26 16:41:59.015625
1520,9.43,2022-10-26 16:41:59.031250
1521,9.51,2022-10-26 16:41:59.046875
1522,10.1,2022-10-26 16:41:59.062500
1523,11.54,2022-10-26 16:41:59.078125
1524,14.2,2022-10-26 16:41:59.093750
1525,18.28,2022-10-26 16:41:59.109375
1526,23.66,2022-10-26 16:41:59.125000
1527,29.95,2022-10-26 16:41:59.140625
1528,36.5,2022-10-26 16:41:59.156250
1529,42.61,2022-10-26 16:41:59.171875
1530,47.66,2022-10-26 16:41:59.187500
1531,51.26,2022-10-26 16:41:59.203125
1532,53.31,2022-10-26 16:41:59.218750
1533,54.03,2022-10-26 16:41:59.234375
1534,54.02,2022-10-26 16:41:59.250000
1535,54.21,2022-10-26 16:41:59.265625
1536,55.72,2022-10-26 16:41:59.281250
1537,59.53,2022-10-26 16:41:59.296875
1538,66.03,2022-10-26 16:41:59.312500
1539,74.75,2022-10-26 16:41:59.328125
1540,84.32,2022-10-26 16:41:59.343750
1541,92.84,2022-10-26 16:41:59.359375
1542,98.48,2022-10-26 16:41:59.375000
1543,100.05,2022-10-26 16:41:59.390625
1544,97.27,2022-10-26 16:41:59.406250
1545,90.68,2022-10-26 16:41:59.421875
1546,81.31,2022-10-26 16:41:59.437500
1547,70.28,2022-10-26 16:41:59.453125
1548,58.53,2022-10-26 16:41:59.468750
1549,46.79,2022-10-26 16:41:59.484375
1550,35.68,2022-10-26 16:41:59.500000
1551,25.76,2022-10-26 16:41:59.515625
1552,17.49,2022-10-26 16:41:59.531250
1553,11.1,2022-10-26 16:41:59.546875
1554,6.51,2022-10-26 16:41:59.562500
1555,3.24,2022-10-26 16:41:59.578125
1556,0.57,2022-10-26 16:41:59.593750
1557,-2.39,2022-10-26 16:41:59.609375
1558,-6.46,2022-10-26 16:41:59.625000
1559,-12.15,2022-10-26 16:41:59.640625
1560,-19.41,2022-10-26 16:41:59.656250
1561,-27.62,2022-10-26 16:41:59.671875
1562,-35.62,2022-10-26 16:41:59.687500
1563,-42.0,2022-10-26 16:41:59.703125
1564,-45.5,2022-10-26 16:41:59.718750
1565,-45.41,2022-10-26 16:41:59.734375
1566,-41.81,2022-10-26 16:41:59.750000
1567,-35.54,2022-10-26 16:41:59.765625
1568,-27.88,2022-10-26 16:41:59.781250
1569,-20.14,2022-10-26 16:41:59.796875
1570,-13.35,2022-10-26 16:41:59.812500
1571,-7.94,2022-10-26 16:41:59.828125
1572,-3.86,2022-10-26 16:41:59.843750
1573,-0.83,2022-10-26 16:41:59.859375
1574,1.49,2022-10-26 16:41:59.875000
1575,3.35,2022-10-26 16:41:59.890625
1576,4.83,2022-10-26 16:41:59.906250
1577,5.98,2022-10-26 16:41:59.921875
1578,6.71,2022-10-26 16:41:59.937500
1579,6.71,2022-10-26 16:41:59.953125
1580,5.37,2022-10-26 16:41:59.968750
1581,1.89,2022-10-26 16:41:59.984375
1582,-4.26,2022-10-26 16:42:00.000000
1583,-12.87,2022-10-26 16:42:00.015625
1584,-22.72,2022-10-26 16:42:00.031250
1585,-31.82,2022-10-26 16:42:00.046875
1586,-38.18,2022-10-26 16:42:00.062500
1587,-40.67,2022-10-26 16:42:00.078125
1588,-39.51,2022-10-26 16:42:00.093750
1589,-36.06,2022-10-26 16:42:00.109375
1590,-32.1,2022-10-26 16:42:00.125000
1591,-28.99,2022-10-26 16:42:00.140625
1592,-27.22,2022-10-26 16:42:00.156250
1593,-26.6,2022-10-26 16:42:00.171875
1594,-26.67,2022-10-26 16:42:00.187500
1595,-27.24,2022-10-26 16:42:00.203125
1596,-28.35,2022-10-26 16:42:00.218750
1597,-29.99,2022-10-26 16:42:00.234375
1598,-31.86,2022-10-26 16:42:00.250000
1599,-33.24,2022-10-26 16:42:00.265625
1600,-33.39,2022-10-26 16:42:00.281250
1601,-31.98,2022-10-26 16:42:00.296875
1602,-29.33,2022-10-26 16:42:00.312500
1603,-26.26,2022-10-26 16:42:00.328125
1604,-23.63,2022-10-26 16:42:00.343750
1605,-21.95,2022-10-26 16:42:00.359375
1606,-21.14,2022-10-26 16:42:00.375000
1607,-20.65,2022-10-26 16:42:00.390625
1608,-19.86,2022-10-26 16:42:00.406250
1609,-18.41,2022-10-26 16:42:00.421875
1610,-16.42,2022-10-26 16:42:00.437500
1611,-14.49,2022-10-26 16:42:00.453125
1612,-13.42,2022-10-26 16:42:00.468750
1613,-13.87,2022-10-26 16:42:00.484375
1614,-16.1,2022-10-26 16:42:00.500000
1615,-19.8,2022-10-26 16:42:00.515625
1616,-24.24,2022-10-26 16:42:00.531250
1617,-28.54,2022-10-26 16:42:00.546875
1618,-32.02,2022-10-26 16:42:00.562500
1619,-34.58,2022-10-26 16:42:00.578125
1620,-36.72,2022-10-26 16:42:00.593750
1621,-39.38,2022-10-26 16:42:00.609375
1622,-43.33,2022-10-26 16:42:00.625000
1623,-48.51,2022-10-26 16:42:00.640625
1624,-53.57,2022-10-26 16:42:00.656250
1625,-55.81,2022-10-26 16:42:00.671875
1626,-51.89,2022-10-26 16:42:00.687500
1627,-38.83,2022-10-26 16:42:00.703125
1628,-15.3,2022-10-26 16:42:00.718750
1629,17.71,2022-10-26 16:42:00.734375
1630,56.83,2022-10-26 16:42:00.750000
1631,97.19,2022-10-26 16:42:00.765625
1632,133.68,2022-10-26 16:42:00.781250
1633,162.24,2022-10-26 16:42:00.796875
1634,180.65,2022-10-26 16:42:00.812500
1635,188.63,2022-10-26 16:42:00.828125
1636,187.44,2022-10-26 16:42:00.843750
1637,179.18,2022-10-26 16:42:00.859375
1638,166.19,2022-10-26 16:42:00.875000
1639,150.7,2022-10-26 16:42:00.890625
1640,134.64,2022-10-26 16:42:00.906250
1641,119.52,2022-10-26 16:42:00.921875
1642,106.37,2022-10-26 16:42:00.937500
1643,95.68,2022-10-26 16:42:00.953125
1644,87.35,2022-10-26 16:42:00.968750
1645,80.84,2022-10-26 16:42:00.984375
1646,75.37,2022-10-26 16:42:01.000000
1647,70.26,2022-10-26 16:42:01.015625
1648,65.2,2022-10-26 16:42:01.031250
1649,60.26,2022-10-26 16:42:01.046875
1650,55.76,2022-10-26 16:42:01.062500
1651,52.03,2022-10-26 16:42:01.078125
1652,49.11,2022-10-26 16:42:01.093750
1653,46.64,2022-10-26 16:42:01.109375
1654,43.96,2022-10-26 16:42:01.125000
1655,40.33,2022-10-26 16:42:01.140625
1656,35.27,2022-10-26 16:42:01.156250
1657,28.73,2022-10-26 16:42:01.171875
1658,21.09,2022-10-26 16:42:01.187500
1659,13.04,2022-10-26 16:42:01.203125
1660,5.3,2022-10-26 16:42:01.218750
1661,-1.66,2022-10-26 16:42:01.234375
1662,-7.7,2022-10-26 16:42:01.250000
1663,-13.03,2022-10-26 16:42:01.265625
1664,-18.01,2022-10-26 16:42:01.281250
1665,-23.01,2022-10-26 16:42:01.296875
1666,-28.3,2022-10-26 16:42:01.312500
1667,-33.98,2022-10-26 16:42:01.328125
1668,-39.98,2022-10-26 16:42:01.343750
1669,-46.08,2022-10-26 16:42:01.359375
1670,-51.94,2022-10-26 16:42:01.375000
1671,-57.16,2022-10-26 16:42:01.390625
1672,-61.32,2022-10-26 16:42:01.406250
1673,-64.12,2022-10-26 16:42:01.421875
1674,-65.53,2022-10-26 16:42:01.437500
1675,-65.8,2022-10-26 16:42:01.453125
1676,-65.39,2022-10-26 16:42:01.468750
1677,-64.81,2022-10-26 16:42:01.484375
1678,-64.45,2022-10-26 16:42:01.500000
1679,-64.55,2022-10-26 16:42:01.515625
1680,-65.21,2022-10-26 16:42:01.531250
1681,-66.42,2022-10-26 16:42:01.546875
1682,-68.12,2022-10-26 16:42:01.562500
1683,-70.13,2022-10-26 16:42:01.578125
1684,-71.96,2022-10-26 16:42:01.593750
1685,-72.86,2022-10-26 16:42:01.609375
1686,-71.87,2022-10-26 16:42:01.625000
1687,-68.16,2022-10-26 16:42:01.640625
1688,-61.37,2022-10-26 16:42:01.656250
1689,-51.77,2022-10-26 16:42:01.671875
1690,-40.21,2022-10-26 16:42:01.687500
1691,-27.81,2022-10-26 16:42:01.703125
1692,-15.59,2022-10-26 16:42:01.718750
1693,-4.22,2022-10-26 16:42:01.734375
1694,5.95,2022-10-26 16:42:01.750000
1695,14.74,2022-10-26 16:42:01.765625
1696,21.98,2022-10-26 16:42:01.781250
1697,27.42,2022-10-26 16:42:01.796875
1698,30.93,2022-10-26 16:42:01.812500
1699,32.54,2022-10-26 16:42:01.828125
1700,32.49,2022-10-26 16:42:01.843750
1701,31.1,2022-10-26 16:42:01.859375
1702,28.57,2022-10-26 16:42:01.875000
1703,24.94,2022-10-26 16:42:01.890625
1704,20.17,2022-10-26 16:42:01.906250
1705,14.47,2022-10-26 16:42:01.921875
1706,8.47,2022-10-26 16:42:01.937500
1707,3.1,2022-10-26 16:42:01.953125
1708,-0.66,2022-10-26 16:42:01.968750
1709,-2.24,2022-10-26 16:42:01.984375
1710,-1.71,2022-10-26 16:42:02.000000
1711,0.3,2022-10-26 16:42:02.015625
1712,2.92,2022-10-26 16:42:02.031250
1713,5.45,2022-10-26 16:42:02.046875
1714,7.57,2022-10-26 16:42:02.062500
1715,9.28,2022-10-26 16:42:02.078125
1716,10.72,2022-10-26 16:42:02.093750
1717,11.89,2022-10-26 16:42:02.109375
1718,12.52,2022-10-26 16:42:02.125000
1719,12.24,2022-10-26 16:42:02.140625
1720,10.71,2022-10-26 16:42:02.156250
1721,7.87,2022-10-26 16:42:02.171875
1722,3.95,2022-10-26 16:42:02.187500
1723,-0.61,2022-10-26 16:42:02.203125
1724,-5.35,2022-10-26 16:42:02.218750
1725,-9.93,2022-10-26 16:42:02.234375
1726,-14.2,2022-10-26 16:42:02.250000
1727,-18.13,2022-10-26 16:42:02.265625
1728,-21.74,2022-10-26 16:42:02.281250
1729,-25.06,2022-10-26 16:42:02.296875
1730,-28.06,2022-10-26 16:42:02.312500
1731,-30.73,2022-10-26 16:42:02.328125
1732,-33.11,2022-10-26 16:42:02.343750
1733,-35.26,2022-10-26 16:42:02.359375
1734,-37.22,2022-10-26 16:42:02.375000
1735,-38.97,2022-10-26 16:42:02.390625
1736,-40.43,2022-10-26 16:42:02.406250
1737,-41.57,2022-10-26 16:42:02.421875
1738,-42.55,2022-10-26 16:42:02.437500
1739,-43.7,2022-10-26 16:42:02.453125
1740,-45.54,2022-10-26 16:42:02.468750
1741,-48.49,2022-10-26 16:42:02.484375
1742,-52.7,2022-10-26 16:42:02.500000
1743,-57.76,2022-10-26 16:42:02.515625
1744,-62.75,2022-10-26 16:42:02.531250
1745,-66.39,2022-10-26 16:42:02.546875
1746,-67.44,2022-10-26 16:42:02.562500
1747,-65.11,2022-10-26 16:42:02.578125
1748,-59.33,2022-10-26 16:42:02.593750
1749,-50.86,2022-10-26 16:42:02.609375
1750,-40.98,2022-10-26 16:42:02.625000
1751,-31.16,2022-10-26 16:42:02.640625
1752,-22.62,2022-10-26 16:42:02.656250
1753,-16.0,2022-10-26 16:42:02.671875
1754,-11.37,2022-10-26 16:42:02.687500
1755,-8.35,2022-10-26 16:42:02.703125
1756,-6.44,2022-10-26 16:42:02.718750
1757,-5.31,2022-10-26 16:42:02.734375
1758,-4.91,2022-10-26 16:42:02.750000
1759,-5.48,2022-10-26 16:42:02.765625
1760,-7.37,2022-10-26 16:42:02.781250
1761,-10.86,2022-10-26 16:42:02.796875
1762,-15.94,2022-10-26 16:42:02.812500
1763,-22.32,2022-10-26 16:42:02.828125
1764,-29.33,2022-10-26 16:42:02.843750
1765,-36.07,2022-10-26 16:42:02.859375
1766,-41.46,2022-10-26 16:42:02.875000
1767,-44.47,2022-10-26 16:42:02.890625
1768,-44.31,2022-10-26 16:42:02.906250
1769,-40.77,2022-10-26 16:42:02.921875
1770,-34.31,2022-10-26 16:42:02.937500
1771,-25.98,2022-10-26 16:42:02.953125
1772,-17.13,2022-10-26 16:42:02.968750
1773,-8.95,2022-10-26 16:42:02.984375
1774,-2.24,2022-10-26 16:42:03.000000
1775,2.83,2022-10-26 16:42:03.015625
1776,6.54,2022-10-26 16:42:03.031250
1777,9.41,2022-10-26 16:42:03.046875
1778,11.9,2022-10-26 16:42:03.062500
1779,14.3,2022-10-26 16:42:03.078125
1780,16.58,2022-10-26 16:42:03.093750
1781,18.52,2022-10-26 16:42:03.109375
1782,19.77,2022-10-26 16:42:03.125000
1783,19.97,2022-10-26 16:42:03.140625
1784,18.79,2022-10-26 16:42:03.156250
1785,16.06,2022-10-26 16:42:03.171875
1786,11.76,2022-10-26 16:42:03.187500
1787,6.14,2022-10-26 16:42:03.203125
1788,-0.27,2022-10-26 16:42:03.218750
1789,-6.72,2022-10-26 16:42:03.234375
1790,-12.37,2022-10-26 16:42:03.250000
1791,-16.54,2022-10-26 16:42:03.265625
1792,-18.9,2022-10-26 16:42:03.281250
1793,-19.73,2022-10-26 16:42:03.296875
1794,-19.71,2022-10-26 16:42:03.312500
1795,-19.78,2022-10-26 16:42:03.328125
1796,-20.74,2022-10-26 16:42:03.343750
1797,-22.93,2022-10-26 16:42:03.359375
1798,-26.21,2022-10-26 16:42:03.375000
1799,-30.0,2022-10-26 16:42:03.390625
1800,-33.5,2022-10-26 16:42:03.406250
1801,-35.95,2022-10-26 16:42:03.421875
1802,-36.73,2022-10-26 16:42:03.437500
1803,-35.42,2022-10-26 16:42:03.453125
1804,-31.82,2022-10-26 16:42:03.468750
1805,-25.99,2022-10-26 16:42:03.484375
1806,-18.23,2022-10-26 16:42:03.500000
1807,-9.09,2022-10-26 16:42:03.515625
1808,0.74,2022-10-26 16:42:03.531250
1809,10.58,2022-10-26 16:42:03.546875
1810,19.84,2022-10-26 16:42:03.562500
1811,28.05,2022-10-26 16:42:03.578125
1812,34.87,2022-10-26 16:42:03.593750
1813,40.01,2022-10-26 16:42:03.609375
1814,43.25,2022-10-26 16:42:03.625000
1815,44.49,2022-10-26 16:42:03.640625
1816,43.84,2022-10-26 16:42:03.656250
1817,41.66,2022-10-26 16:42:03.671875
1818,38.5,2022-10-26 16:42:03.687500
1819,35.06,2022-10-26 16:42:03.703125
1820,32.03,2022-10-26 16:42:03.718750
1821,29.97,2022-10-26 16:42:03.734375
1822,29.26,2022-10-26 16:42:03.750000
1823,30.04,2022-10-26 16:42:03.765625
1824,32.17,2022-10-26 16:42:03.781250
1825,35.3,2022-10-26 16:42:03.796875
1826,38.93,2022-10-26 16:42:03.812500
1827,42.55,2022-10-26 16:42:03.828125
1828,45.7,2022-10-26 16:42:03.843750
1829,48.04,2022-10-26 16:42:03.859375
1830,49.38,2022-10-26 16:42:03.875000
1831,49.66,2022-10-26 16:42:03.890625
1832,48.9,2022-10-26 16:42:03.906250
1833,47.22,2022-10-26 16:42:03.921875
1834,44.79,2022-10-26 16:42:03.937500
1835,41.8,2022-10-26 16:42:03.953125
1836,38.44,2022-10-26 16:42:03.968750
1837,34.82,2022-10-26 16:42:03.984375
1838,31.04,2022-10-26 16:42:04.000000
1839,27.11,2022-10-26 16:42:04.015625
1840,23.07,2022-10-26 16:42:04.031250
1841,18.96,2022-10-26 16:42:04.046875
1842,14.89,2022-10-26 16:42:04.062500
1843,10.99,2022-10-26 16:42:04.078125
1844,7.44,2022-10-26 16:42:04.093750
1845,4.34,2022-10-26 16:42:04.109375
1846,1.66,2022-10-26 16:42:04.125000
1847,-0.79,2022-10-26 16:42:04.140625
1848,-3.42,2022-10-26 16:42:04.156250
1849,-6.74,2022-10-26 16:42:04.171875
1850,-11.25,2022-10-26 16:42:04.187500
1851,-17.17,2022-10-26 16:42:04.203125
1852,-24.31,2022-10-26 16:42:04.218750
1853,-31.96,2022-10-26 16:42:04.234375
1854,-39.05,2022-10-26 16:42:04.250000
1855,-44.4,2022-10-26 16:42:04.265625
1856,-47.07,2022-10-26 16:42:04.281250
1857,-46.62,2022-10-26 16:42:04.296875
1858,-43.16,2022-10-26 16:42:04.312500
1859,-37.29,2022-10-26 16:42:04.328125
1860,-29.82,2022-10-26 16:42:04.343750
1861,-21.63,2022-10-26 16:42:04.359375
1862,-13.46,2022-10-26 16:42:04.375000
1863,-5.91,2022-10-26 16:42:04.390625
1864,0.55,2022-10-26 16:42:04.406250
1865,5.57,2022-10-26 16:42:04.421875
1866,8.91,2022-10-26 16:42:04.437500
1867,10.46,2022-10-26 16:42:04.453125
1868,10.27,2022-10-26 16:42:04.468750
1869,8.53,2022-10-26 16:42:04.484375
1870,5.55,2022-10-26 16:42:04.500000
1871,1.78,2022-10-26 16:42:04.515625
1872,-2.29,2022-10-26 16:42:04.531250
1873,-6.14,2022-10-26 16:42:04.546875
1874,-9.37,2022-10-26 16:42:04.562500
1875,-11.88,2022-10-26 16:42:04.578125
1876,-13.78,2022-10-26 16:42:04.593750
1877,-15.35,2022-10-26 16:42:04.609375
1878,-16.86,2022-10-26 16:42:04.625000
1879,-18.3,2022-10-26 16:42:04.640625
1880,-19.42,2022-10-26 16:42:04.656250
1881,-19.81,2022-10-26 16:42:04.671875
1882,-19.14,2022-10-26 16:42:04.687500
1883,-17.35,2022-10-26 16:42:04.703125
1884,-14.76,2022-10-26 16:42:04.718750
1885,-11.94,2022-10-26 16:42:04.734375
1886,-9.54,2022-10-26 16:42:04.750000
1887,-8.0,2022-10-26 16:42:04.765625
1888,-7.44,2022-10-26 16:42:04.781250
1889,-7.65,2022-10-26 16:42:04.796875
1890,-8.22,2022-10-26 16:42:04.812500
1891,-8.78,2022-10-26 16:42:04.828125
1892,-9.17,2022-10-26 16:42:04.843750
1893,-9.5,2022-10-26 16:42:04.859375
1894,-10.12,2022-10-26 16:42:04.875000
1895,-11.47,2022-10-26 16:42:04.890625
1896,-13.91,2022-10-26 16:42:04.906250
1897,-17.54,2022-10-26 16:42:04.921875
1898,-22.25,2022-10-26 16:42:04.937500
1899,-27.7,2022-10-26 16:42:04.953125
1900,-33.52,2022-10-26 16:42:04.968750
1901,-39.26,2022-10-26 16:42:04.984375
1902,-44.45,2022-10-26 16:42:05.000000
1903,-48.53,2022-10-26 16:42:05.015625
1904,-51.06,2022-10-26 16:42:05.031250
1905,-51.88,2022-10-26 16:42:05.046875
1906,-51.33,2022-10-26 16:42:05.062500
1907,-50.2,2022-10-26 16:42:05.078125
1908,-49.41,2022-10-26 16:42:05.093750
1909,-49.55,2022-10-26 16:42:05.109375
1910,-50.43,2022-10-26 16:42:05.125000
1911,-51.09,2022-10-26 16:42:05.140625
1912,-50.29,2022-10-26 16:42:05.156250
1913,-47.1,2022-10-26 16:42:05.171875
1914,-41.51,2022-10-26 16:42:05.187500
1915,-34.48,2022-10-26 16:42:05.203125
1916,-27.49,2022-10-26 16:42:05.218750
1917,-21.87,2022-10-26 16:42:05.234375
1918,-18.27,2022-10-26 16:42:05.250000
1919,-16.5,2022-10-26 16:42:05.265625
1920,-15.83,2022-10-26 16:42:05.281250
1921,-15.56,2022-10-26 16:42:05.296875
1922,-15.35,2022-10-26 16:42:05.312500
1923,-15.42,2022-10-26 16:42:05.328125
1924,-16.29,2022-10-26 16:42:05.343750
1925,-18.51,2022-10-26 16:42:05.359375
1926,-22.39,2022-10-26 16:42:05.375000
1927,-27.92,2022-10-26 16:42:05.390625
1928,-34.77,2022-10-26 16:42:05.406250
1929,-42.42,2022-10-26 16:42:05.421875
1930,-50.21,2022-10-26 16:42:05.437500
1931,-57.4,2022-10-26 16:42:05.453125
1932,-63.11,2022-10-26 16:42:05.468750
1933,-66.49,2022-10-26 16:42:05.484375
1934,-66.87,2022-10-26 16:42:05.500000
1935,-64.06,2022-10-26 16:42:05.515625
1936,-58.44,2022-10-26 16:42:05.531250
1937,-51.06,2022-10-26 16:42:05.546875
1938,-43.39,2022-10-26 16:42:05.562500
1939,-37.0,2022-10-26 16:42:05.578125
1940,-33.11,2022-10-26 16:42:05.593750
1941,-32.36,2022-10-26 16:42:05.609375
1942,-34.66,2022-10-26 16:42:05.625000
1943,-39.34,2022-10-26 16:42:05.640625
1944,-45.55,2022-10-26 16:42:05.656250
1945,-52.56,2022-10-26 16:42:05.671875
1946,-60.18,2022-10-26 16:42:05.687500
1947,-68.79,2022-10-26 16:42:05.703125
1948,-79.23,2022-10-26 16:42:05.718750
1949,-92.42,2022-10-26 16:42:05.734375
1950,-109.0,2022-10-26 16:42:05.750000
1951,-128.98,2022-10-26 16:42:05.765625
1952,-151.65,2022-10-26 16:42:05.781250
1953,-175.54,2022-10-26 16:42:05.796875
1954,-198.7,2022-10-26 16:42:05.812500
1955,-219.15,2022-10-26 16:42:05.828125
1956,-235.55,2022-10-26 16:42:05.843750
1957,-247.79,2022-10-26 16:42:05.859375
1958,-257.25,2022-10-26 16:42:05.875000
1959,-266.27,2022-10-26 16:42:05.890625
1960,-276.94,2022-10-26 16:42:05.906250
1961,-289.73,2022-10-26 16:42:05.921875
1962,-302.69,2022-10-26 16:42:05.937500
1963,-311.85,2022-10-26 16:42:05.953125
1964,-312.6,2022-10-26 16:42:05.968750
1965,-301.59,2022-10-26 16:42:05.984375
1966,-277.93,2022-10-26 16:42:06.000000
1967,-243.32,2022-10-26 16:42:06.015625
1968,-201.2,2022-10-26 16:42:06.031250
1969,-155.2,2022-10-26 16:42:06.046875
1970,-107.99,2022-10-26 16:42:06.062500
1971,-60.76,2022-10-26 16:42:06.078125
1972,-13.39,2022-10-26 16:42:06.093750
1973,35.15,2022-10-26 16:42:06.109375
1974,86.31,2022-10-26 16:42:06.125000
1975,141.5,2022-10-26 16:42:06.140625
1976,201.56,2022-10-26 16:42:06.156250
1977,266.07,2022-10-26 16:42:06.171875
1978,332.75,2022-10-26 16:42:06.187500
1979,397.36,2022-10-26 16:42:06.203125
1980,454.26,2022-10-26 16:42:06.218750
1981,497.74,2022-10-26 16:42:06.234375
1982,523.52,2022-10-26 16:42:06.250000
1983,530.01,2022-10-26 16:42:06.265625
1984,518.66,2022-10-26 16:42:06.281250
1985,493.49,2022-10-26 16:42:06.296875
1986,459.81,2022-10-26 16:42:06.312500
1987,422.89,2022-10-26 16:42:06.328125
1988,386.96,2022-10-26 16:42:06.343750
1989,354.64,2022-10-26 16:42:06.359375
1990,326.97,2022-10-26 16:42:06.375000
1991,303.79,2022-10-26 16:42:06.390625
1992,284.1,2022-10-26 16:42:06.406250
1993,266.51,2022-10-26 16:42:06.421875
1994,249.62,2022-10-26 16:42:06.437500
1995,232.36,2022-10-26 16:42:06.453125
1996,214.2,2022-10-26 16:42:06.468750
1997,195.14,2022-10-26 16:42:06.484375
1998,175.52,2022-10-26 16:42:06.500000
1999,155.86,2022-10-26 16:42:06.515625
2000,136.61,2022-10-26 16:42:06.531250
2001,118.25,2022-10-26 16:42:06.546875
2002,101.46,2022-10-26 16:42:06.562500
2003,87.33,2022-10-26 16:42:06.578125
2004,77.25,2022-10-26 16:42:06.593750
2005,72.63,2022-10-26 16:42:06.609375
2006,74.26,2022-10-26 16:42:06.625000
2007,81.86,2022-10-26 16:42:06.640625
2008,93.77,2022-10-26 16:42:06.656250
2009,107.06,2022-10-26 16:42:06.671875
2010,118.1,2022-10-26 16:42:06.687500
2011,123.36,2022-10-26 16:42:06.703125
2012,120.4,2022-10-26 16:42:06.718750
2013,108.41,2022-10-26 16:42:06.734375
2014,88.32,2022-10-26 16:42:06.750000
2015,62.21,2022-10-26 16:42:06.765625
2016,32.38,2022-10-26 16:42:06.781250
2017,0.63,2022-10-26 16:42:06.796875
2018,-31.91,2022-10-26 16:42:06.812500
2019,-64.21,2022-10-26 16:42:06.828125
2020,-94.51,2022-10-26 16:42:06.843750
2021,-119.95,2022-10-26 16:42:06.859375
2022,-136.93,2022-10-26 16:42:06.875000
2023,-142.33,2022-10-26 16:42:06.890625
2024,-134.65,2022-10-26 16:42:06.906250
2025,-114.74,2022-10-26 16:42:06.921875
2026,-85.38,2022-10-26 16:42:06.937500
2027,-50.43,2022-10-26 16:42:06.953125
2028,-13.74,2022-10-26 16:42:06.968750
2029,21.22,2022-10-26 16:42:06.984375
2030,51.3,2022-10-26 16:42:07.000000
2031,73.47,2022-10-26 16:42:07.015625
2032,85.03,2022-10-26 16:42:07.031250
2033,84.3,2022-10-26 16:42:07.046875
2034,71.42,2022-10-26 16:42:07.062500
2035,48.61,2022-10-26 16:42:07.078125
2036,19.47,2022-10-26 16:42:07.093750
2037,-12.29,2022-10-26 16:42:07.109375
2038,-44.13,2022-10-26 16:42:07.125000
2039,-75.1,2022-10-26 16:42:07.140625
2040,-105.27,2022-10-26 16:42:07.156250
2041,-134.48,2022-10-26 16:42:07.171875
2042,-161.19,2022-10-26 16:42:07.187500
2043,-182.19,2022-10-26 16:42:07.203125
2044,-193.27,2022-10-26 16:42:07.218750
2045,-190.66,2022-10-26 16:42:07.234375
2046,-172.36,2022-10-26 16:42:07.250000
2047,-138.98,2022-10-26 16:42:07.265625
2048,-93.75,2022-10-26 16:42:07.281250
2049,-41.83,2022-10-26 16:42:07.296875
2050,10.59,2022-10-26 16:42:07.312500
2051,57.3,2022-10-26 16:42:07.328125
2052,93.09,2022-10-26 16:42:07.343750
2053,114.71,2022-10-26 16:42:07.359375
2054,121.49,2022-10-26 16:42:07.375000
2055,115.55,2022-10-26 16:42:07.390625
2056,101.09,2022-10-26 16:42:07.406250
2057,83.03,2022-10-26 16:42:07.421875
2058,65.28,2022-10-26 16:42:07.437500
2059,49.59,2022-10-26 16:42:07.453125
2060,35.7,2022-10-26 16:42:07.468750
2061,22.55,2022-10-26 16:42:07.484375
2062,9.99,2022-10-26 16:42:07.500000
2063,-0.08,2022-10-26 16:42:07.515625
2064,-3.96,2022-10-26 16:42:07.531250
2065,2.4,2022-10-26 16:42:07.546875
2066,21.53,2022-10-26 16:42:07.562500
2067,53.17,2022-10-26 16:42:07.578125
2068,94.32,2022-10-26 16:42:07.593750
2069,140.18,2022-10-26 16:42:07.609375
2070,185.41,2022-10-26 16:42:07.625000
2071,225.08,2022-10-26 16:42:07.640625
2072,255.02,2022-10-26 16:42:07.656250
2073,271.89,2022-10-26 16:42:07.671875
2074,273.51,2022-10-26 16:42:07.687500
2075,259.44,2022-10-26 16:42:07.703125
2076,231.49,2022-10-26 16:42:07.718750
2077,193.65,2022-10-26 16:42:07.734375
2078,151.04,2022-10-26 16:42:07.750000
2079,108.17,2022-10-26 16:42:07.765625
2080,67.31,2022-10-26 16:42:07.781250
2081,27.94,2022-10-26 16:42:07.796875
2082,-12.25,2022-10-26 16:42:07.812500
2083,-55.28,2022-10-26 16:42:07.828125
2084,-100.71,2022-10-26 16:42:07.843750
2085,-144.8,2022-10-26 16:42:07.859375
2086,-181.4,2022-10-26 16:42:07.875000
2087,-204.18,2022-10-26 16:42:07.890625
2088,-209.04,2022-10-26 16:42:07.906250
2089,-195.44,2022-10-26 16:42:07.921875
2090,-166.37,2022-10-26 16:42:07.937500
2091,-126.96,2022-10-26 16:42:07.953125
2092,-82.83,2022-10-26 16:42:07.968750
2093,-38.79,2022-10-26 16:42:07.984375
2094,1.61,2022-10-26 16:42:08.000000
2095,35.89,2022-10-26 16:42:08.015625
2096,62.16,2022-10-26 16:42:08.031250
2097,79.09,2022-10-26 16:42:08.046875
2098,86.21,2022-10-26 16:42:08.062500
2099,84.4,2022-10-26 16:42:08.078125
2100,76.21,2022-10-26 16:42:08.093750
2101,65.39,2022-10-26 16:42:08.109375
2102,55.91,2022-10-26 16:42:08.125000
2103,50.67,2022-10-26 16:42:08.140625
2104,50.75,2022-10-26 16:42:08.156250
2105,55.24,2022-10-26 16:42:08.171875
2106,61.93,2022-10-26 16:42:08.187500
2107,68.33,2022-10-26 16:42:08.203125
2108,72.36,2022-10-26 16:42:08.218750
2109,72.56,2022-10-26 16:42:08.234375
2110,67.8,2022-10-26 16:42:08.250000
2111,57.26,2022-10-26 16:42:08.265625
2112,40.91,2022-10-26 16:42:08.281250
2113,20.24,2022-10-26 16:42:08.296875
2114,-1.42,2022-10-26 16:42:08.312500
2115,-19.46,2022-10-26 16:42:08.328125
2116,-29.7,2022-10-26 16:42:08.343750
2117,-30.29,2022-10-26 16:42:08.359375
2118,-22.76,2022-10-26 16:42:08.375000
2119,-11.76,2022-10-26 16:42:08.390625
2120,-3.43,2022-10-26 16:42:08.406250
2121,-3.3,2022-10-26 16:42:08.421875
2122,-14.58,2022-10-26 16:42:08.437500
2123,-37.34,2022-10-26 16:42:08.453125
2124,-68.9,2022-10-26 16:42:08.468750
2125,-104.88,2022-10-26 16:42:08.484375
2126,-140.64,2022-10-26 16:42:08.500000
2127,-172.58,2022-10-26 16:42:08.515625
2128,-199.05,2022-10-26 16:42:08.531250
2129,-220.6,2022-10-26 16:42:08.546875
2130,-239.33,2022-10-26 16:42:08.562500
2131,-257.55,2022-10-26 16:42:08.578125
2132,-276.31,2022-10-26 16:42:08.593750
2133,-294.47,2022-10-26 16:42:08.609375
2134,-308.65,2022-10-26 16:42:08.625000
2135,-314.42,2022-10-26 16:42:08.640625
2136,-307.75,2022-10-26 16:42:08.656250
2137,-286.38,2022-10-26 16:42:08.671875
2138,-250.42,2022-10-26 16:42:08.687500
2139,-202.29,2022-10-26 16:42:08.703125
2140,-146.09,2022-10-26 16:42:08.718750
2141,-86.9,2022-10-26 16:42:08.734375
2142,-30.21,2022-10-26 16:42:08.750000
2143,18.79,2022-10-26 16:42:08.765625
2144,55.75,2022-10-26 16:42:08.781250
2145,78.16,2022-10-26 16:42:08.796875
2146,85.94,2022-10-26 16:42:08.812500
2147,81.7,2022-10-26 16:42:08.828125
2148,70.08,2022-10-26 16:42:08.843750
2149,56.3,2022-10-26 16:42:08.859375
2150,44.38,2022-10-26 16:42:08.875000
2151,35.85,2022-10-26 16:42:08.890625
2152,29.45,2022-10-26 16:42:08.906250
2153,22.08,2022-10-26 16:42:08.921875
2154,10.59,2022-10-26 16:42:08.937500
2155,-6.39,2022-10-26 16:42:08.953125
2156,-27.43,2022-10-26 16:42:08.968750
2157,-48.3,2022-10-26 16:42:08.984375
2158,-63.29,2022-10-26 16:42:09.000000
2159,-66.91,2022-10-26 16:42:09.015625
2160,-55.64,2022-10-26 16:42:09.031250
2161,-29.03,2022-10-26 16:42:09.046875
2162,10.01,2022-10-26 16:42:09.062500
2163,55.87,2022-10-26 16:42:09.078125
2164,101.38,2022-10-26 16:42:09.093750
2165,139.41,2022-10-26 16:42:09.109375
2166,164.32,2022-10-26 16:42:09.125000
2167,173.22,2022-10-26 16:42:09.140625
2168,166.45,2022-10-26 16:42:09.156250
2169,147.12,2022-10-26 16:42:09.171875
2170,119.91,2022-10-26 16:42:09.187500
2171,89.34,2022-10-26 16:42:09.203125
2172,58.35,2022-10-26 16:42:09.218750
2173,27.63,2022-10-26 16:42:09.234375
2174,-3.93,2022-10-26 16:42:09.250000
2175,-37.79,2022-10-26 16:42:09.265625
2176,-74.24,2022-10-26 16:42:09.281250
2177,-111.33,2022-10-26 16:42:09.296875
2178,-144.95,2022-10-26 16:42:09.312500
2179,-169.94,2022-10-26 16:42:09.328125
2180,-181.75,2022-10-26 16:42:09.343750
2181,-177.89,2022-10-26 16:42:09.359375
2182,-158.6,2022-10-26 16:42:09.375000
2183,-126.62,2022-10-26 16:42:09.390625
2184,-86.47,2022-10-26 16:42:09.406250
2185,-43.4,2022-10-26 16:42:09.421875
2186,-2.72,2022-10-26 16:42:09.437500
2187,30.67,2022-10-26 16:42:09.453125
2188,52.64,2022-10-26 16:42:09.468750
2189,60.17,2022-10-26 16:42:09.484375
2190,52.15,2022-10-26 16:42:09.500000
2191,30.14,2022-10-26 16:42:09.515625
2192,-1.3,2022-10-26 16:42:09.531250
2193,-35.19,2022-10-26 16:42:09.546875
2194,-63.62,2022-10-26 16:42:09.562500
2195,-79.96,2022-10-26 16:42:09.578125
2196,-80.71,2022-10-26 16:42:09.593750
2197,-66.44,2022-10-26 16:42:09.609375
2198,-41.35,2022-10-26 16:42:09.625000
2199,-11.81,2022-10-26 16:42:09.640625
2200,15.62,2022-10-26 16:42:09.656250
2201,35.82,2022-10-26 16:42:09.671875
2202,46.16,2022-10-26 16:42:09.687500
2203,46.83,2022-10-26 16:42:09.703125
2204,40.55,2022-10-26 16:42:09.718750
2205,31.85,2022-10-26 16:42:09.734375
2206,25.89,2022-10-26 16:42:09.750000
2207,27.09,2022-10-26 16:42:09.765625
2208,37.74,2022-10-26 16:42:09.781250
2209,57.32,2022-10-26 16:42:09.796875
2210,82.51,2022-10-26 16:42:09.812500
2211,108.36,2022-10-26 16:42:09.828125
2212,129.73,2022-10-26 16:42:09.843750
2213,142.7,2022-10-26 16:42:09.859375
2214,145.33,2022-10-26 16:42:09.875000
2215,137.7,2022-10-26 16:42:09.890625
2216,121.52,2022-10-26 16:42:09.906250
2217,99.39,2022-10-26 16:42:09.921875
2218,74.03,2022-10-26 16:42:09.937500
2219,47.6,2022-10-26 16:42:09.953125
2220,21.22,2022-10-26 16:42:09.968750
2221,-5.04,2022-10-26 16:42:09.984375
2222,-31.69,2022-10-26 16:42:10.000000
2223,-58.94,2022-10-26 16:42:10.015625
2224,-85.81,2022-10-26 16:42:10.031250
2225,-109.8,2022-10-26 16:42:10.046875
2226,-127.1,2022-10-26 16:42:10.062500
2227,-133.49,2022-10-26 16:42:10.078125
2228,-125.52,2022-10-26 16:42:10.093750
2229,-101.59,2022-10-26 16:42:10.109375
2230,-62.56,2022-10-26 16:42:10.125000
2231,-11.88,2022-10-26 16:42:10.140625
2232,44.81,2022-10-26 16:42:10.156250
2233,100.51,2022-10-26 16:42:10.171875
2234,147.98,2022-10-26 16:42:10.187500
2235,181.21,2022-10-26 16:42:10.203125
2236,196.74,2022-10-26 16:42:10.218750
2237,194.56,2022-10-26 16:42:10.234375
2238,177.95,2022-10-26 16:42:10.250000
2239,152.38,2022-10-26 16:42:10.265625
2240,123.42,2022-10-26 16:42:10.281250
2241,94.92,2022-10-26 16:42:10.296875
2242,67.95,2022-10-26 16:42:10.312500
2243,41.25,2022-10-26 16:42:10.328125
2244,12.91,2022-10-26 16:42:10.343750
2245,-17.74,2022-10-26 16:42:10.359375
2246,-48.9,2022-10-26 16:42:10.375000
2247,-76.59,2022-10-26 16:42:10.390625
2248,-96.09,2022-10-26 16:42:10.406250
2249,-103.91,2022-10-26 16:42:10.421875
2250,-98.88,2022-10-26 16:42:10.437500
2251,-82.3,2022-10-26 16:42:10.453125
2252,-57.17,2022-10-26 16:42:10.468750
2253,-27.11,2022-10-26 16:42:10.484375
2254,4.23,2022-10-26 16:42:10.500000
2255,33.44,2022-10-26 16:42:10.515625
2256,57.33,2022-10-26 16:42:10.531250
2257,73.27,2022-10-26 16:42:10.546875
2258,79.6,2022-10-26 16:42:10.562500
2259,76.16,2022-10-26 16:42:10.578125
2260,64.32,2022-10-26 16:42:10.593750
2261,46.3,2022-10-26 16:42:10.609375
2262,24.14,2022-10-26 16:42:10.625000
2263,-1.13,2022-10-26 16:42:10.640625
2264,-29.6,2022-10-26 16:42:10.656250
2265,-61.57,2022-10-26 16:42:10.671875
2266,-96.2,2022-10-26 16:42:10.687500
2267,-130.65,2022-10-26 16:42:10.703125
2268,-160.19,2022-10-26 16:42:10.718750
2269,-179.5,2022-10-26 16:42:10.734375
2270,-184.55,2022-10-26 16:42:10.750000
2271,-174.07,2022-10-26 16:42:10.765625
2272,-149.99,2022-10-26 16:42:10.781250
2273,-116.65,2022-10-26 16:42:10.796875
2274,-79.23,2022-10-26 16:42:10.812500
2275,-42.31,2022-10-26 16:42:10.828125
2276,-9.18,2022-10-26 16:42:10.843750
2277,17.95,2022-10-26 16:42:10.859375
2278,37.3,2022-10-26 16:42:10.875000
2279,47.32,2022-10-26 16:42:10.890625
2280,47.17,2022-10-26 16:42:10.906250
2281,37.82,2022-10-26 16:42:10.921875
2282,22.73,2022-10-26 16:42:10.937500
2283,7.42,2022-10-26 16:42:10.953125
2284,-2.12,2022-10-26 16:42:10.968750
2285,-1.6,2022-10-26 16:42:10.984375
2286,9.98,2022-10-26 16:42:11.000000
2287,30.07,2022-10-26 16:42:11.015625
2288,53.58,2022-10-26 16:42:11.031250
2289,74.62,2022-10-26 16:42:11.046875
2290,88.12,2022-10-26 16:42:11.062500
2291,90.8,2022-10-26 16:42:11.078125
2292,81.54,2022-10-26 16:42:11.093750
2293,61.43,2022-10-26 16:42:11.109375
2294,33.72,2022-10-26 16:42:11.125000
2295,3.46,2022-10-26 16:42:11.140625
2296,-23.37,2022-10-26 16:42:11.156250
2297,-41.44,2022-10-26 16:42:11.171875
2298,-47.5,2022-10-26 16:42:11.187500
2299,-41.39,2022-10-26 16:42:11.203125
2300,-25.77,2022-10-26 16:42:11.218750
2301,-4.94,2022-10-26 16:42:11.234375
2302,16.77,2022-10-26 16:42:11.250000
2303,36.02,2022-10-26 16:42:11.265625
2304,50.79,2022-10-26 16:42:11.281250
2305,59.97,2022-10-26 16:42:11.296875
2306,62.89,2022-10-26 16:42:11.312500
2307,59.03,2022-10-26 16:42:11.328125
2308,48.22,2022-10-26 16:42:11.343750
2309,30.85,2022-10-26 16:42:11.359375
2310,8.23,2022-10-26 16:42:11.375000
2311,-17.51,2022-10-26 16:42:11.390625
2312,-43.65,2022-10-26 16:42:11.406250
2313,-67.29,2022-10-26 16:42:11.421875
2314,-85.77,2022-10-26 16:42:11.437500
2315,-97.19,2022-10-26 16:42:11.453125
2316,-100.72,2022-10-26 16:42:11.468750
2317,-96.86,2022-10-26 16:42:11.484375
2318,-87.26,2022-10-26 16:42:11.500000
2319,-74.2,2022-10-26 16:42:11.515625
2320,-59.79,2022-10-26 16:42:11.531250
2321,-45.27,2022-10-26 16:42:11.546875
2322,-30.55,2022-10-26 16:42:11.562500
2323,-14.54,2022-10-26 16:42:11.578125
2324,4.16,2022-10-26 16:42:11.593750
2325,26.32,2022-10-26 16:42:11.609375
2326,51.51,2022-10-26 16:42:11.625000
2327,77.93,2022-10-26 16:42:11.640625
2328,102.86,2022-10-26 16:42:11.656250
2329,123.25,2022-10-26 16:42:11.671875
2330,136.41,2022-10-26 16:42:11.687500
2331,140.57,2022-10-26 16:42:11.703125
2332,135.27,2022-10-26 16:42:11.718750
2333,121.55,2022-10-26 16:42:11.734375
2334,101.86,2022-10-26 16:42:11.750000
2335,79.56,2022-10-26 16:42:11.765625
2336,58.14,2022-10-26 16:42:11.781250
2337,40.25,2022-10-26 16:42:11.796875
2338,26.93,2022-10-26 16:42:11.812500
2339,17.3,2022-10-26 16:42:11.828125
2340,8.94,2022-10-26 16:42:11.843750
2341,-1.11,2022-10-26 16:42:11.859375
2342,-15.17,2022-10-26 16:42:11.875000
2343,-33.8,2022-10-26 16:42:11.890625
2344,-55.34,2022-10-26 16:42:11.906250
2345,-76.23,2022-10-26 16:42:11.921875
2346,-91.94,2022-10-26 16:42:11.937500
2347,-98.21,2022-10-26 16:42:11.953125
2348,-92.19,2022-10-26 16:42:11.968750
2349,-73.2,2022-10-26 16:42:11.984375
2350,-42.87,2022-10-26 16:42:12.000000
2351,-4.88,2022-10-26 16:42:12.015625
2352,35.68,2022-10-26 16:42:12.031250
2353,73.1,2022-10-26 16:42:12.046875
2354,102.05,2022-10-26 16:42:12.062500
2355,118.59,2022-10-26 16:42:12.078125
2356,121.06,2022-10-26 16:42:12.093750
2357,110.61,2022-10-26 16:42:12.109375
2358,90.99,2022-10-26 16:42:12.125000
2359,67.36,2022-10-26 16:42:12.140625
2360,44.75,2022-10-26 16:42:12.156250
2361,26.37,2022-10-26 16:42:12.171875
2362,12.52,2022-10-26 16:42:12.187500
2363,0.54,2022-10-26 16:42:12.203125
2364,-14.22,2022-10-26 16:42:12.218750
2365,-36.48,2022-10-26 16:42:12.234375
2366,-68.94,2022-10-26 16:42:12.250000
2367,-110.59,2022-10-26 16:42:12.265625
2368,-156.41,2022-10-26 16:42:12.281250
2369,-198.58,2022-10-26 16:42:12.296875
2370,-228.87,2022-10-26 16:42:12.312500
2371,-241.19,2022-10-26 16:42:12.328125
2372,-233.22,2022-10-26 16:42:12.343750
2373,-206.73,2022-10-26 16:42:12.359375
2374,-166.42,2022-10-26 16:42:12.375000
2375,-118.33,2022-10-26 16:42:12.390625
2376,-68.29,2022-10-26 16:42:12.406250
2377,-21.13,2022-10-26 16:42:12.421875
2378,19.47,2022-10-26 16:42:12.437500
2379,50.68,2022-10-26 16:42:12.453125
2380,70.5,2022-10-26 16:42:12.468750
2381,78.02,2022-10-26 16:42:12.484375
2382,74.19,2022-10-26 16:42:12.500000
2383,62.19,2022-10-26 16:42:12.515625
2384,47.23,2022-10-26 16:42:12.531250
2385,35.32,2022-10-26 16:42:12.546875
2386,31.4,2022-10-26 16:42:12.562500
2387,37.57,2022-10-26 16:42:12.578125
2388,52.23,2022-10-26 16:42:12.593750
2389,70.58,2022-10-26 16:42:12.609375
2390,86.48,2022-10-26 16:42:12.625000
2391,94.66,2022-10-26 16:42:12.640625
2392,92.55,2022-10-26 16:42:12.656250
2393,80.79,2022-10-26 16:42:12.671875
2394,62.63,2022-10-26 16:42:12.687500
2395,42.7,2022-10-26 16:42:12.703125
2396,25.76,2022-10-26 16:42:12.718750
2397,15.81,2022-10-26 16:42:12.734375
2398,15.4,2022-10-26 16:42:12.750000
2399,25.02,2022-10-26 16:42:12.765625
2400,42.67,2022-10-26 16:42:12.781250
2401,63.93,2022-10-26 16:42:12.796875
2402,83.01,2022-10-26 16:42:12.812500
2403,94.38,2022-10-26 16:42:12.828125
2404,94.73,2022-10-26 16:42:12.843750
2405,83.98,2022-10-26 16:42:12.859375
2406,65.02,2022-10-26 16:42:12.875000
2407,42.0,2022-10-26 16:42:12.890625
2408,18.12,2022-10-26 16:42:12.906250
2409,-5.92,2022-10-26 16:42:12.921875
2410,-32.07,2022-10-26 16:42:12.937500
2411,-63.61,2022-10-26 16:42:12.953125
2412,-103.05,2022-10-26 16:42:12.968750
2413,-150.42,2022-10-26 16:42:12.984375
2414,-202.72,2022-10-26 16:42:13.000000
2415,-254.75,2022-10-26 16:42:13.015625
2416,-300.7,2022-10-26 16:42:13.031250
2417,-335.85,2022-10-26 16:42:13.046875
2418,-357.48,2022-10-26 16:42:13.062500
2419,-364.83,2022-10-26 16:42:13.078125
2420,-358.27,2022-10-26 16:42:13.093750
2421,-338.43,2022-10-26 16:42:13.109375
2422,-305.68,2022-10-26 16:42:13.125000
2423,-260.24,2022-10-26 16:42:13.140625
2424,-203.1,2022-10-26 16:42:13.156250
2425,-136.98,2022-10-26 16:42:13.171875
2426,-67.0,2022-10-26 16:42:13.187500
2427,-0.23,2022-10-26 16:42:13.203125
2428,55.7,2022-10-26 16:42:13.218750
2429,94.8,2022-10-26 16:42:13.234375
2430,114.53,2022-10-26 16:42:13.250000
2431,116.56,2022-10-26 16:42:13.265625
2432,105.97,2022-10-26 16:42:13.281250
2433,89.17,2022-10-26 16:42:13.296875
2434,71.61,2022-10-26 16:42:13.312500
2435,56.13,2022-10-26 16:42:13.328125
2436,42.73,2022-10-26 16:42:13.343750
2437,29.68,2022-10-26 16:42:13.359375
2438,15.32,2022-10-26 16:42:13.375000
2439,-0.46,2022-10-26 16:42:13.390625
2440,-15.66,2022-10-26 16:42:13.406250
2441,-26.85,2022-10-26 16:42:13.421875
2442,-30.49,2022-10-26 16:42:13.437500
2443,-24.35,2022-10-26 16:42:13.453125
2444,-8.1,2022-10-26 16:42:13.468750
2445,16.88,2022-10-26 16:42:13.484375
2446,48.1,2022-10-26 16:42:13.500000
2447,82.67,2022-10-26 16:42:13.515625
2448,117.25,2022-10-26 16:42:13.531250
2449,147.94,2022-10-26 16:42:13.546875
2450,170.35,2022-10-26 16:42:13.562500
2451,180.53,2022-10-26 16:42:13.578125
2452,176.58,2022-10-26 16:42:13.593750
2453,160.02,2022-10-26 16:42:13.609375
2454,135.9,2022-10-26 16:42:13.625000
2455,111.01,2022-10-26 16:42:13.640625
2456,90.85,2022-10-26 16:42:13.656250
2457,76.86,2022-10-26 16:42:13.671875
2458,65.37,2022-10-26 16:42:13.687500
2459,49.28,2022-10-26 16:42:13.703125
2460,21.5,2022-10-26 16:42:13.718750
2461,-21.22,2022-10-26 16:42:13.734375
2462,-76.18,2022-10-26 16:42:13.750000
2463,-135.34,2022-10-26 16:42:13.765625
2464,-188.16,2022-10-26 16:42:13.781250
2465,-225.47,2022-10-26 16:42:13.796875
2466,-242.3,2022-10-26 16:42:13.812500
2467,-238.69,2022-10-26 16:42:13.828125
2468,-218.42,2022-10-26 16:42:13.843750
2469,-186.71,2022-10-26 16:42:13.859375
2470,-148.26,2022-10-26 16:42:13.875000
2471,-106.51,2022-10-26 16:42:13.890625
2472,-64.14,2022-10-26 16:42:13.906250
2473,-24.09,2022-10-26 16:42:13.921875
2474,9.87,2022-10-26 16:42:13.937500
2475,33.72,2022-10-26 16:42:13.953125
2476,44.68,2022-10-26 16:42:13.968750
2477,42.9,2022-10-26 16:42:13.984375
2478,32.2,2022-10-26 16:42:14.000000
2479,19.28,2022-10-26 16:42:14.015625
2480,11.43,2022-10-26 16:42:14.031250
2481,13.91,2022-10-26 16:42:14.046875
2482,27.99,2022-10-26 16:42:14.062500
2483,50.67,2022-10-26 16:42:14.078125
2484,75.94,2022-10-26 16:42:14.093750
2485,97.08,2022-10-26 16:42:14.109375
2486,109.01,2022-10-26 16:42:14.125000
2487,109.6,2022-10-26 16:42:14.140625
2488,99.9,2022-10-26 16:42:14.156250
2489,83.3,2022-10-26 16:42:14.171875
2490,64.41,2022-10-26 16:42:14.187500
2491,47.94,2022-10-26 16:42:14.203125
2492,37.9,2022-10-26 16:42:14.218750
2493,36.93,2022-10-26 16:42:14.234375
2494,45.7,2022-10-26 16:42:14.250000
2495,62.4,2022-10-26 16:42:14.265625
2496,82.74,2022-10-26 16:42:14.281250
2497,100.69,2022-10-26 16:42:14.296875
2498,110.19,2022-10-26 16:42:14.312500
2499,107.2,2022-10-26 16:42:14.328125
2500,91.08,2022-10-26 16:42:14.343750
2501,64.83,2022-10-26 16:42:14.359375
2502,33.73,2022-10-26 16:42:14.375000
2503,3.08,2022-10-26 16:42:14.390625
2504,-23.95,2022-10-26 16:42:14.406250
2505,-47.27,2022-10-26 16:42:14.421875
2506,-69.28,2022-10-26 16:42:14.437500
2507,-93.06,2022-10-26 16:42:14.453125
2508,-120.46,2022-10-26 16:42:14.468750
2509,-151.08,2022-10-26 16:42:14.484375
2510,-182.46,2022-10-26 16:42:14.500000
2511,-211.16,2022-10-26 16:42:14.515625
2512,-234.03,2022-10-26 16:42:14.531250
2513,-248.83,2022-10-26 16:42:14.546875
2514,-254.15,2022-10-26 16:42:14.562500
2515,-248.93,2022-10-26 16:42:14.578125
2516,-232.16,2022-10-26 16:42:14.593750
2517,-202.97,2022-10-26 16:42:14.609375
2518,-161.07,2022-10-26 16:42:14.625000
2519,-107.42,2022-10-26 16:42:14.640625
2520,-44.88,2022-10-26 16:42:14.656250
2521,21.51,2022-10-26 16:42:14.671875
2522,84.87,2022-10-26 16:42:14.687500
2523,137.46,2022-10-26 16:42:14.703125
2524,172.55,2022-10-26 16:42:14.718750
2525,186.36,2022-10-26 16:42:14.734375
2526,179.41,2022-10-26 16:42:14.750000
2527,156.47,2022-10-26 16:42:14.765625
2528,124.82,2022-10-26 16:42:14.781250
2529,91.53,2022-10-26 16:42:14.796875
2530,60.95,2022-10-26 16:42:14.812500
2531,33.79,2022-10-26 16:42:14.828125
2532,8.18,2022-10-26 16:42:14.843750
2533,-18.06,2022-10-26 16:42:14.859375
2534,-45.19,2022-10-26 16:42:14.875000
2535,-70.81,2022-10-26 16:42:14.890625
2536,-90.83,2022-10-26 16:42:14.906250
2537,-101.41,2022-10-26 16:42:14.921875
2538,-100.48,2022-10-26 16:42:14.937500
2539,-88.13,2022-10-26 16:42:14.953125
2540,-65.65,2022-10-26 16:42:14.968750
2541,-34.38,2022-10-26 16:42:14.984375
2542,4.72,2022-10-26 16:42:15.000000
2543,50.21,2022-10-26 16:42:15.015625
2544,98.91,2022-10-26 16:42:15.031250
2545,144.99,2022-10-26 16:42:15.046875
2546,180.86,2022-10-26 16:42:15.062500
2547,199.56,2022-10-26 16:42:15.078125
2548,197.5,2022-10-26 16:42:15.093750
2549,176.24,2022-10-26 16:42:15.109375
2550,141.93,2022-10-26 16:42:15.125000
2551,102.8,2022-10-26 16:42:15.140625
2552,65.7,2022-10-26 16:42:15.156250
2553,33.55,2022-10-26 16:42:15.171875
2554,4.74,2022-10-26 16:42:15.187500
2555,-25.22,2022-10-26 16:42:15.203125
2556,-60.79,2022-10-26 16:42:15.218750
2557,-103.84,2022-10-26 16:42:15.234375
2558,-152.4,2022-10-26 16:42:15.250000
2559,-201.28,2022-10-26 16:42:15.265625
2560,-243.97,2022-10-26 16:42:15.281250
2561,-274.8,2022-10-26 16:42:15.296875
2562,-290.55,2022-10-26 16:42:15.312500
2563,-290.83,2022-10-26 16:42:15.328125
2564,-277.34,2022-10-26 16:42:15.343750
2565,-252.57,2022-10-26 16:42:15.359375
2566,-218.66,2022-10-26 16:42:15.375000
2567,-176.9,2022-10-26 16:42:15.390625
2568,-128.27,2022-10-26 16:42:15.406250
2569,-74.45,2022-10-26 16:42:15.421875
2570,-18.88,2022-10-26 16:42:15.437500
2571,32.97,2022-10-26 16:42:15.453125
2572,74.56,2022-10-26 16:42:15.468750
2573,100.26,2022-10-26 16:42:15.484375
2574,107.57,2022-10-26 16:42:15.500000
2575,98.53,2022-10-26 16:42:15.515625
2576,79.44,2022-10-26 16:42:15.531250
2577,58.93,2022-10-26 16:42:15.546875
2578,45.06,2022-10-26 16:42:15.562500
2579,42.71,2022-10-26 16:42:15.578125
2580,52.43,2022-10-26 16:42:15.593750
2581,70.99,2022-10-26 16:42:15.609375
2582,93.0,2022-10-26 16:42:15.625000
2583,112.77,2022-10-26 16:42:15.640625
2584,125.52,2022-10-26 16:42:15.656250
2585,128.17,2022-10-26 16:42:15.671875
2586,119.64,2022-10-26 16:42:15.687500
2587,101.39,2022-10-26 16:42:15.703125
2588,77.44,2022-10-26 16:42:15.718750
2589,53.71,2022-10-26 16:42:15.734375
2590,36.38,2022-10-26 16:42:15.750000
2591,29.61,2022-10-26 16:42:15.765625
2592,33.63,2022-10-26 16:42:15.781250
2593,44.28,2022-10-26 16:42:15.796875
2594,54.36,2022-10-26 16:42:15.812500
2595,56.41,2022-10-26 16:42:15.828125
2596,45.62,2022-10-26 16:42:15.843750
2597,21.67,2022-10-26 16:42:15.859375
2598,-11.3,2022-10-26 16:42:15.875000
2599,-46.42,2022-10-26 16:42:15.890625
2600,-76.44,2022-10-26 16:42:15.906250
2601,-96.05,2022-10-26 16:42:15.921875
2602,-103.03,2022-10-26 16:42:15.937500
2603,-98.27,2022-10-26 16:42:15.953125
2604,-85.01,2022-10-26 16:42:15.968750
2605,-67.56,2022-10-26 16:42:15.984375
2606,-50.13,2022-10-26 16:42:16.000000
2607,-36.04,2022-10-26 16:42:16.015625
2608,-27.22,2022-10-26 16:42:16.031250
2609,-24.18,2022-10-26 16:42:16.046875
2610,-26.13,2022-10-26 16:42:16.062500
2611,-31.41,2022-10-26 16:42:16.078125
2612,-37.91,2022-10-26 16:42:16.093750
2613,-43.67,2022-10-26 16:42:16.109375
2614,-47.4,2022-10-26 16:42:16.125000
2615,-48.67,2022-10-26 16:42:16.140625
2616,-47.88,2022-10-26 16:42:16.156250
2617,-45.91,2022-10-26 16:42:16.171875
2618,-43.59,2022-10-26 16:42:16.187500
2619,-41.33,2022-10-26 16:42:16.203125
2620,-38.95,2022-10-26 16:42:16.218750
2621,-35.73,2022-10-26 16:42:16.234375
2622,-30.72,2022-10-26 16:42:16.250000
2623,-23.1,2022-10-26 16:42:16.265625
2624,-12.46,2022-10-26 16:42:16.281250
2625,1.05,2022-10-26 16:42:16.296875
2626,16.75,2022-10-26 16:42:16.312500
2627,33.61,2022-10-26 16:42:16.328125
2628,50.39,2022-10-26 16:42:16.343750
2629,65.89,2022-10-26 16:42:16.359375
2630,79.05,2022-10-26 16:42:16.375000
2631,89.06,2022-10-26 16:42:16.390625
2632,95.43,2022-10-26 16:42:16.406250
2633,98.25,2022-10-26 16:42:16.421875
2634,98.13,2022-10-26 16:42:16.437500
2635,96.29,2022-10-26 16:42:16.453125
2636,94.2,2022-10-26 16:42:16.468750
2637,93.33,2022-10-26 16:42:16.484375
2638,94.67,2022-10-26 16:42:16.500000
2639,98.57,2022-10-26 16:42:16.515625
2640,104.73,2022-10-26 16:42:16.531250
2641,112.43,2022-10-26 16:42:16.546875
2642,120.91,2022-10-26 16:42:16.562500
2643,129.56,2022-10-26 16:42:16.578125
2644,137.91,2022-10-26 16:42:16.593750
2645,145.47,2022-10-26 16:42:16.609375
2646,151.57,2022-10-26 16:42:16.625000
2647,155.33,2022-10-26 16:42:16.640625
2648,155.94,2022-10-26 16:42:16.656250
2649,152.88,2022-10-26 16:42:16.671875
2650,145.98,2022-10-26 16:42:16.687500
2651,135.33,2022-10-26 16:42:16.703125
2652,121.02,2022-10-26 16:42:16.718750
2653,103.15,2022-10-26 16:42:16.734375
2654,81.93,2022-10-26 16:42:16.750000
2655,58.09,2022-10-26 16:42:16.765625
2656,32.94,2022-10-26 16:42:16.781250
2657,8.13,2022-10-26 16:42:16.796875
2658,-14.88,2022-10-26 16:42:16.812500
2659,-35.19,2022-10-26 16:42:16.828125
2660,-52.36,2022-10-26 16:42:16.843750
2661,-65.88,2022-10-26 16:42:16.859375
2662,-74.48,2022-10-26 16:42:16.875000
2663,-76.04,2022-10-26 16:42:16.890625
2664,-68.22,2022-10-26 16:42:16.906250
2665,-49.57,2022-10-26 16:42:16.921875
2666,-20.78,2022-10-26 16:42:16.937500
2667,14.86,2022-10-26 16:42:16.953125
2668,51.8,2022-10-26 16:42:16.968750
2669,83.52,2022-10-26 16:42:16.984375
2670,104.06,2022-10-26 16:42:17.000000
2671,109.64,2022-10-26 16:42:17.015625
2672,99.5,2022-10-26 16:42:17.031250
2673,76.18,2022-10-26 16:42:17.046875
2674,44.74,2022-10-26 16:42:17.062500
2675,11.42,2022-10-26 16:42:17.078125
2676,-18.03,2022-10-26 16:42:17.093750
2677,-39.81,2022-10-26 16:42:17.109375
2678,-52.6,2022-10-26 16:42:17.125000
2679,-57.23,2022-10-26 16:42:17.140625
2680,-55.62,2022-10-26 16:42:17.156250
2681,-49.6,2022-10-26 16:42:17.171875
2682,-40.38,2022-10-26 16:42:17.187500
2683,-28.57,2022-10-26 16:42:17.203125
2684,-14.86,2022-10-26 16:42:17.218750
2685,-0.52,2022-10-26 16:42:17.234375
2686,12.6,2022-10-26 16:42:17.250000
2687,22.58,2022-10-26 16:42:17.265625
2688,28.12,2022-10-26 16:42:17.281250
2689,29.08,2022-10-26 16:42:17.296875
2690,26.34,2022-10-26 16:42:17.312500
2691,21.29,2022-10-26 16:42:17.328125
2692,15.17,2022-10-26 16:42:17.343750
2693,8.65,2022-10-26 16:42:17.359375
2694,1.93,2022-10-26 16:42:17.375000
2695,-4.87,2022-10-26 16:42:17.390625
2696,-11.3,2022-10-26 16:42:17.406250
2697,-16.53,2022-10-26 16:42:17.421875
2698,-19.58,2022-10-26 16:42:17.437500
2699,-19.8,2022-10-26 16:42:17.453125
2700,-17.27,2022-10-26 16:42:17.468750
2701,-12.77,2022-10-26 16:42:17.484375
2702,-7.49,2022-10-26 16:42:17.500000
2703,-2.49,2022-10-26 16:42:17.515625
2704,1.71,2022-10-26 16:42:17.531250
2705,5.19,2022-10-26 16:42:17.546875
2706,8.38,2022-10-26 16:42:17.562500
2707,11.72,2022-10-26 16:42:17.578125
2708,15.3,2022-10-26 16:42:17.593750
2709,18.88,2022-10-26 16:42:17.609375
2710,22.08,2022-10-26 16:42:17.625000
2711,24.69,2022-10-26 16:42:17.640625
2712,26.77,2022-10-26 16:42:17.656250
2713,28.49,2022-10-26 16:42:17.671875
2714,29.95,2022-10-26 16:42:17.687500
2715,30.97,2022-10-26 16:42:17.703125
2716,31.26,2022-10-26 16:42:17.718750
2717,30.67,2022-10-26 16:42:17.734375
2718,29.49,2022-10-26 16:42:17.750000
2719,28.3,2022-10-26 16:42:17.765625
2720,27.65,2022-10-26 16:42:17.781250
2721,27.5,2022-10-26 16:42:17.796875
2722,26.98,2022-10-26 16:42:17.812500
2723,24.66,2022-10-26 16:42:17.828125
2724,19.06,2022-10-26 16:42:17.843750
2725,9.32,2022-10-26 16:42:17.859375
2726,-4.44,2022-10-26 16:42:17.875000
2727,-21.21,2022-10-26 16:42:17.890625
2728,-39.29,2022-10-26 16:42:17.906250
2729,-56.48,2022-10-26 16:42:17.921875
2730,-70.27,2022-10-26 16:42:17.937500
2731,-77.91,2022-10-26 16:42:17.953125
2732,-76.81,2022-10-26 16:42:17.968750
2733,-65.2,2022-10-26 16:42:17.984375
2734,-42.91,2022-10-26 16:42:18.000000
2735,-11.85,2022-10-26 16:42:18.015625
2736,24.17,2022-10-26 16:42:18.031250
2737,60.28,2022-10-26 16:42:18.046875
2738,91.93,2022-10-26 16:42:18.062500
2739,116.0,2022-10-26 16:42:18.078125
2740,131.41,2022-10-26 16:42:18.093750
2741,138.87,2022-10-26 16:42:18.109375
2742,140.06,2022-10-26 16:42:18.125000
2743,136.66,2022-10-26 16:42:18.140625
2744,129.7,2022-10-26 16:42:18.156250
2745,119.43,2022-10-26 16:42:18.171875
2746,105.76,2022-10-26 16:42:18.187500
2747,88.85,2022-10-26 16:42:18.203125
2748,69.5,2022-10-26 16:42:18.218750
2749,49.15,2022-10-26 16:42:18.234375
2750,29.54,2022-10-26 16:42:18.250000
2751,12.06,2022-10-26 16:42:18.265625
2752,-2.64,2022-10-26 16:42:18.281250
2753,-14.73,2022-10-26 16:42:18.296875
2754,-24.92,2022-10-26 16:42:18.312500
2755,-33.94,2022-10-26 16:42:18.328125
2756,-42.22,2022-10-26 16:42:18.343750
2757,-49.73,2022-10-26 16:42:18.359375
2758,-56.14,2022-10-26 16:42:18.375000
2759,-61.06,2022-10-26 16:42:18.390625
2760,-64.34,2022-10-26 16:42:18.406250
2761,-66.08,2022-10-26 16:42:18.421875
2762,-66.55,2022-10-26 16:42:18.437500
2763,-65.95,2022-10-26 16:42:18.453125
2764,-64.33,2022-10-26 16:42:18.468750
2765,-61.52,2022-10-26 16:42:18.484375
2766,-57.36,2022-10-26 16:42:18.500000
2767,-51.94,2022-10-26 16:42:18.515625
2768,-45.72,2022-10-26 16:42:18.531250
2769,-39.56,2022-10-26 16:42:18.546875
2770,-34.38,2022-10-26 16:42:18.562500
2771,-30.84,2022-10-26 16:42:18.578125
2772,-29.06,2022-10-26 16:42:18.593750
2773,-28.62,2022-10-26 16:42:18.609375
2774,-28.71,2022-10-26 16:42:18.625000
2775,-28.57,2022-10-26 16:42:18.640625
2776,-27.78,2022-10-26 16:42:18.656250
2777,-26.42,2022-10-26 16:42:18.671875
2778,-24.93,2022-10-26 16:42:18.687500
2779,-23.91,2022-10-26 16:42:18.703125
2780,-23.83,2022-10-26 16:42:18.718750
2781,-24.87,2022-10-26 16:42:18.734375
2782,-26.9,2022-10-26 16:42:18.750000
2783,-29.67,2022-10-26 16:42:18.765625
2784,-32.85,2022-10-26 16:42:18.781250
2785,-36.26,2022-10-26 16:42:18.796875
2786,-39.88,2022-10-26 16:42:18.812500
2787,-43.84,2022-10-26 16:42:18.828125
2788,-48.29,2022-10-26 16:42:18.843750
2789,-53.16,2022-10-26 16:42:18.859375
2790,-58.02,2022-10-26 16:42:18.875000
2791,-62.03,2022-10-26 16:42:18.890625
2792,-64.08,2022-10-26 16:42:18.906250
2793,-63.2,2022-10-26 16:42:18.921875
2794,-58.87,2022-10-26 16:42:18.937500
2795,-51.27,2022-10-26 16:42:18.953125
2796,-41.17,2022-10-26 16:42:18.968750
2797,-29.74,2022-10-26 16:42:18.984375
2798,-18.15,2022-10-26 16:42:19.000000
2799,-7.35,2022-10-26 16:42:19.015625
2800,1.98,2022-10-26 16:42:19.031250
2801,9.41,2022-10-26 16:42:19.046875
2802,14.68,2022-10-26 16:42:19.062500
2803,17.68,2022-10-26 16:42:19.078125
2804,18.6,2022-10-26 16:42:19.093750
2805,17.95,2022-10-26 16:42:19.109375
2806,16.49,2022-10-26 16:42:19.125000
2807,15.06,2022-10-26 16:42:19.140625
2808,14.28,2022-10-26 16:42:19.156250
2809,14.44,2022-10-26 16:42:19.171875
2810,15.43,2022-10-26 16:42:19.187500
2811,17.0,2022-10-26 16:42:19.203125
2812,19.0,2022-10-26 16:42:19.218750
2813,21.4,2022-10-26 16:42:19.234375
2814,24.38,2022-10-26 16:42:19.250000
2815,28.05,2022-10-26 16:42:19.265625
2816,32.3,2022-10-26 16:42:19.281250
2817,36.74,2022-10-26 16:42:19.296875
2818,40.8,2022-10-26 16:42:19.312500
2819,43.94,2022-10-26 16:42:19.328125
2820,45.86,2022-10-26 16:42:19.343750
2821,46.47,2022-10-26 16:42:19.359375
2822,45.9,2022-10-26 16:42:19.375000
2823,44.33,2022-10-26 16:42:19.390625
2824,41.88,2022-10-26 16:42:19.406250
2825,38.68,2022-10-26 16:42:19.421875
2826,34.94,2022-10-26 16:42:19.437500
2827,30.92,2022-10-26 16:42:19.453125
2828,27.01,2022-10-26 16:42:19.468750
2829,23.49,2022-10-26 16:42:19.484375
2830,20.45,2022-10-26 16:42:19.500000
2831,17.73,2022-10-26 16:42:19.515625
2832,14.96,2022-10-26 16:42:19.531250
2833,11.75,2022-10-26 16:42:19.546875
2834,7.88,2022-10-26 16:42:19.562500
2835,3.35,2022-10-26 16:42:19.578125
2836,-1.68,2022-10-26 16:42:19.593750
2837,-7.04,2022-10-26 16:42:19.609375
2838,-12.65,2022-10-26 16:42:19.625000
2839,-18.55,2022-10-26 16:42:19.640625
2840,-24.74,2022-10-26 16:42:19.656250
2841,-30.98,2022-10-26 16:42:19.671875
2842,-36.66,2022-10-26 16:42:19.687500
2843,-40.87,2022-10-26 16:42:19.703125
2844,-42.65,2022-10-26 16:42:19.718750
2845,-41.29,2022-10-26 16:42:19.734375
2846,-36.62,2022-10-26 16:42:19.750000
2847,-29.04,2022-10-26 16:42:19.765625
2848,-19.43,2022-10-26 16:42:19.781250
2849,-8.84,2022-10-26 16:42:19.796875
2850,1.75,2022-10-26 16:42:19.812500
2851,11.54,2022-10-26 16:42:19.828125
2852,20.07,2022-10-26 16:42:19.843750
2853,27.08,2022-10-26 16:42:19.859375
2854,32.51,2022-10-26 16:42:19.875000
2855,36.45,2022-10-26 16:42:19.890625
2856,39.08,2022-10-26 16:42:19.906250
2857,40.63,2022-10-26 16:42:19.921875
2858,41.35,2022-10-26 16:42:19.937500
2859,41.47,2022-10-26 16:42:19.953125
2860,41.12,2022-10-26 16:42:19.968750
2861,40.37,2022-10-26 16:42:19.984375
2862,39.25,2022-10-26 16:42:20.000000
2863,37.84,2022-10-26 16:42:20.015625
2864,36.37,2022-10-26 16:42:20.031250
2865,35.19,2022-10-26 16:42:20.046875
2866,34.73,2022-10-26 16:42:20.062500
2867,35.3,2022-10-26 16:42:20.078125
2868,36.87,2022-10-26 16:42:20.093750
2869,39.06,2022-10-26 16:42:20.109375
2870,41.18,2022-10-26 16:42:20.125000
2871,42.44,2022-10-26 16:42:20.140625
2872,42.25,2022-10-26 16:42:20.156250
2873,40.4,2022-10-26 16:42:20.171875
2874,37.07,2022-10-26 16:42:20.187500
2875,32.69,2022-10-26 16:42:20.203125
2876,27.74,2022-10-26 16:42:20.218750
2877,22.56,2022-10-26 16:42:20.234375
2878,17.31,2022-10-26 16:42:20.250000
2879,11.97,2022-10-26 16:42:20.265625
2880,6.42,2022-10-26 16:42:20.281250
2881,0.53,2022-10-26 16:42:20.296875
2882,-5.79,2022-10-26 16:42:20.312500
2883,-12.54,2022-10-26 16:42:20.328125
2884,-19.63,2022-10-26 16:42:20.343750
2885,-26.84,2022-10-26 16:42:20.359375
2886,-33.94,2022-10-26 16:42:20.375000
2887,-40.71,2022-10-26 16:42:20.390625
2888,-47.02,2022-10-26 16:42:20.406250
2889,-52.9,2022-10-26 16:42:20.421875
2890,-58.46,2022-10-26 16:42:20.437500
2891,-63.88,2022-10-26 16:42:20.453125
2892,-69.2,2022-10-26 16:42:20.468750
2893,-74.17,2022-10-26 16:42:20.484375
2894,-78.25,2022-10-26 16:42:20.500000
2895,-80.66,2022-10-26 16:42:20.515625
2896,-80.62,2022-10-26 16:42:20.531250
2897,-77.61,2022-10-26 16:42:20.546875
2898,-71.57,2022-10-26 16:42:20.562500
2899,-62.92,2022-10-26 16:42:20.578125
2900,-52.48,2022-10-26 16:42:20.593750
2901,-41.24,2022-10-26 16:42:20.609375
2902,-30.18,2022-10-26 16:42:20.625000
2903,-20.05,2022-10-26 16:42:20.640625
2904,-11.45,2022-10-26 16:42:20.656250
2905,-4.79,2022-10-26 16:42:20.671875
2906,-0.25,2022-10-26 16:42:20.687500
2907,2.21,2022-10-26 16:42:20.703125
2908,2.87,2022-10-26 16:42:20.718750
2909,2.25,2022-10-26 16:42:20.734375
2910,0.95,2022-10-26 16:42:20.750000
2911,-0.45,2022-10-26 16:42:20.765625
2912,-1.52,2022-10-26 16:42:20.781250
2913,-1.98,2022-10-26 16:42:20.796875
2914,-1.72,2022-10-26 16:42:20.812500
2915,-0.74,2022-10-26 16:42:20.828125
2916,0.81,2022-10-26 16:42:20.843750
2917,2.79,2022-10-26 16:42:20.859375
2918,5.09,2022-10-26 16:42:20.875000
2919,7.7,2022-10-26 16:42:20.890625
2920,10.68,2022-10-26 16:42:20.906250
2921,14.13,2022-10-26 16:42:20.921875
2922,18.03,2022-10-26 16:42:20.937500
2923,22.15,2022-10-26 16:42:20.953125
2924,26.09,2022-10-26 16:42:20.968750
2925,29.39,2022-10-26 16:42:20.984375
2926,31.73,2022-10-26 16:42:21.000000
2927,33.06,2022-10-26 16:42:21.015625
2928,33.54,2022-10-26 16:42:21.031250
2929,33.44,2022-10-26 16:42:21.046875
2930,32.92,2022-10-26 16:42:21.062500
2931,32.03,2022-10-26 16:42:21.078125
2932,30.69,2022-10-26 16:42:21.093750
2933,28.86,2022-10-26 16:42:21.109375
2934,26.67,2022-10-26 16:42:21.125000
2935,24.32,2022-10-26 16:42:21.140625
2936,22.02,2022-10-26 16:42:21.156250
2937,19.8,2022-10-26 16:42:21.171875
2938,17.45,2022-10-26 16:42:21.187500
2939,14.56,2022-10-26 16:42:21.203125
2940,10.7,2022-10-26 16:42:21.218750
2941,5.69,2022-10-26 16:42:21.234375
2942,-0.26,2022-10-26 16:42:21.250000
2943,-6.51,2022-10-26 16:42:21.265625
2944,-12.15,2022-10-26 16:42:21.281250
2945,-16.25,2022-10-26 16:42:21.296875
2946,-18.1,2022-10-26 16:42:21.312500
2947,-17.4,2022-10-26 16:42:21.328125
2948,-14.24,2022-10-26 16:42:21.343750
2949,-9.09,2022-10-26 16:42:21.359375
2950,-2.64,2022-10-26 16:42:21.375000
2951,4.32,2022-10-26 16:42:21.390625
2952,10.97,2022-10-26 16:42:21.406250
2953,16.61,2022-10-26 16:42:21.421875
2954,20.68,2022-10-26 16:42:21.437500
2955,22.83,2022-10-26 16:42:21.453125
2956,22.89,2022-10-26 16:42:21.468750
2957,20.86,2022-10-26 16:42:21.484375
2958,16.89,2022-10-26 16:42:21.500000
2959,11.27,2022-10-26 16:42:21.515625
2960,4.45,2022-10-26 16:42:21.531250
2961,-2.98,2022-10-26 16:42:21.546875
2962,-10.31,2022-10-26 16:42:21.562500
2963,-16.89,2022-10-26 16:42:21.578125
2964,-22.21,2022-10-26 16:42:21.593750
2965,-26.04,2022-10-26 16:42:21.609375
2966,-28.37,2022-10-26 16:42:21.625000
2967,-29.41,2022-10-26 16:42:21.640625
2968,-29.37,2022-10-26 16:42:21.656250
2969,-28.5,2022-10-26 16:42:21.671875
2970,-26.95,2022-10-26 16:42:21.687500
2971,-24.82,2022-10-26 16:42:21.703125
2972,-22.21,2022-10-26 16:42:21.718750
2973,-19.24,2022-10-26 16:42:21.734375
2974,-16.09,2022-10-26 16:42:21.750000
2975,-12.96,2022-10-26 16:42:21.765625
2976,-10.16,2022-10-26 16:42:21.781250
2977,-8.02,2022-10-26 16:42:21.796875
2978,-6.83,2022-10-26 16:42:21.812500
2979,-6.87,2022-10-26 16:42:21.828125
2980,-8.19,2022-10-26 16:42:21.843750
2981,-10.68,2022-10-26 16:42:21.859375
2982,-14.0,2022-10-26 16:42:21.875000
2983,-17.7,2022-10-26 16:42:21.890625
2984,-21.28,2022-10-26 16:42:21.906250
2985,-24.42,2022-10-26 16:42:21.921875
2986,-26.95,2022-10-26 16:42:21.937500
2987,-29.0,2022-10-26 16:42:21.953125
2988,-30.87,2022-10-26 16:42:21.968750
2989,-32.91,2022-10-26 16:42:21.984375
2990,-35.31,2022-10-26 16:42:22.000000
2991,-37.89,2022-10-26 16:42:22.015625
2992,-40.08,2022-10-26 16:42:22.031250
2993,-41.0,2022-10-26 16:42:22.046875
2994,-39.76,2022-10-26 16:42:22.062500
2995,-35.73,2022-10-26 16:42:22.078125
2996,-28.83,2022-10-26 16:42:22.093750
2997,-19.53,2022-10-26 16:42:22.109375
2998,-8.73,2022-10-26 16:42:22.125000
2999,2.53,2022-10-26 16:42:22.140625
3000,13.26,2022-10-26 16:42:22.156250
3001,22.7,2022-10-26 16:42:22.171875
3002,30.4,2022-10-26 16:42:22.187500
3003,36.12,2022-10-26 16:42:22.203125
3004,39.85,2022-10-26 16:42:22.218750
3005,41.7,2022-10-26 16:42:22.234375
3006,41.89,2022-10-26 16:42:22.250000
3007,40.74,2022-10-26 16:42:22.265625
3008,38.59,2022-10-26 16:42:22.281250
3009,35.78,2022-10-26 16:42:22.296875
3010,32.61,2022-10-26 16:42:22.312500
3011,29.36,2022-10-26 16:42:22.328125
3012,26.26,2022-10-26 16:42:22.343750
3013,23.47,2022-10-26 16:42:22.359375
3014,21.1,2022-10-26 16:42:22.375000
3015,19.2,2022-10-26 16:42:22.390625
3016,17.74,2022-10-26 16:42:22.406250
3017,16.69,2022-10-26 16:42:22.421875
3018,16.03,2022-10-26 16:42:22.437500
3019,15.71,2022-10-26 16:42:22.453125
3020,15.65,2022-10-26 16:42:22.468750
3021,15.7,2022-10-26 16:42:22.484375
3022,15.6,2022-10-26 16:42:22.500000
3023,15.06,2022-10-26 16:42:22.515625
3024,13.86,2022-10-26 16:42:22.531250
3025,11.87,2022-10-26 16:42:22.546875
3026,9.12,2022-10-26 16:42:22.562500
3027,5.78,2022-10-26 16:42:22.578125
3028,2.11,2022-10-26 16:42:22.593750
3029,-1.67,2022-10-26 16:42:22.609375
3030,-5.38,2022-10-26 16:42:22.625000
3031,-8.93,2022-10-26 16:42:22.640625
3032,-12.28,2022-10-26 16:42:22.656250
3033,-15.5,2022-10-26 16:42:22.671875
3034,-18.74,2022-10-26 16:42:22.687500
3035,-22.23,2022-10-26 16:42:22.703125
3036,-26.13,2022-10-26 16:42:22.718750
3037,-30.4,2022-10-26 16:42:22.734375
3038,-34.65,2022-10-26 16:42:22.750000
3039,-38.15,2022-10-26 16:42:22.765625
3040,-39.91,2022-10-26 16:42:22.781250
3041,-39.07,2022-10-26 16:42:22.796875
3042,-35.08,2022-10-26 16:42:22.812500
3043,-27.89,2022-10-26 16:42:22.828125
3044,-17.9,2022-10-26 16:42:22.843750
3045,-5.81,2022-10-26 16:42:22.859375
3046,7.5,2022-10-26 16:42:22.875000
3047,21.06,2022-10-26 16:42:22.890625
3048,33.87,2022-10-26 16:42:22.906250
3049,44.91,2022-10-26 16:42:22.921875
3050,53.3,2022-10-26 16:42:22.937500
3051,58.42,2022-10-26 16:42:22.953125
3052,60.1,2022-10-26 16:42:22.968750
3053,58.59,2022-10-26 16:42:22.984375
3054,54.54,2022-10-26 16:42:23.000000
3055,48.77,2022-10-26 16:42:23.015625
3056,42.14,2022-10-26 16:42:23.031250
3057,35.38,2022-10-26 16:42:23.046875
3058,29.06,2022-10-26 16:42:23.062500
3059,23.55,2022-10-26 16:42:23.078125
3060,19.06,2022-10-26 16:42:23.093750
3061,15.68,2022-10-26 16:42:23.109375
3062,13.41,2022-10-26 16:42:23.125000
3063,12.21,2022-10-26 16:42:23.140625
3064,12.0,2022-10-26 16:42:23.156250
3065,12.62,2022-10-26 16:42:23.171875
3066,13.79,2022-10-26 16:42:23.187500
3067,15.13,2022-10-26 16:42:23.203125
3068,16.24,2022-10-26 16:42:23.218750
3069,16.82,2022-10-26 16:42:23.234375
3070,16.71,2022-10-26 16:42:23.250000
3071,15.92,2022-10-26 16:42:23.265625
3072,14.54,2022-10-26 16:42:23.281250
3073,12.66,2022-10-26 16:42:23.296875
3074,10.37,2022-10-26 16:42:23.312500
3075,7.71,2022-10-26 16:42:23.328125
3076,4.79,2022-10-26 16:42:23.343750
3077,1.7,2022-10-26 16:42:23.359375
3078,-1.43,2022-10-26 16:42:23.375000
3079,-4.57,2022-10-26 16:42:23.390625
3080,-7.82,2022-10-26 16:42:23.406250
3081,-11.4,2022-10-26 16:42:23.421875
3082,-15.58,2022-10-26 16:42:23.437500
3083,-20.58,2022-10-26 16:42:23.453125
3084,-26.43,2022-10-26 16:42:23.468750
3085,-32.83,2022-10-26 16:42:23.484375
3086,-39.13,2022-10-26 16:42:23.500000
3087,-44.41,2022-10-26 16:42:23.515625
3088,-47.65,2022-10-26 16:42:23.531250
3089,-47.98,2022-10-26 16:42:23.546875
3090,-44.97,2022-10-26 16:42:23.562500
3091,-38.74,2022-10-26 16:42:23.578125
3092,-29.95,2022-10-26 16:42:23.593750
3093,-19.59,2022-10-26 16:42:23.609375
3094,-8.74,2022-10-26 16:42:23.625000
3095,1.69,2022-10-26 16:42:23.640625
3096,11.04,2022-10-26 16:42:23.656250
3097,18.88,2022-10-26 16:42:23.671875
3098,25.01,2022-10-26 16:42:23.687500
3099,29.32,2022-10-26 16:42:23.703125
3100,31.88,2022-10-26 16:42:23.718750
3101,32.89,2022-10-26 16:42:23.734375
3102,32.72,2022-10-26 16:42:23.750000
3103,31.76,2022-10-26 16:42:23.765625
3104,30.35,2022-10-26 16:42:23.781250
3105,28.64,2022-10-26 16:42:23.796875
3106,26.69,2022-10-26 16:42:23.812500
3107,24.5,2022-10-26 16:42:23.828125
3108,22.22,2022-10-26 16:42:23.843750
3109,20.2,2022-10-26 16:42:23.859375
3110,18.88,2022-10-26 16:42:23.875000
3111,18.7,2022-10-26 16:42:23.890625
3112,19.8,2022-10-26 16:42:23.906250
3113,21.97,2022-10-26 16:42:23.921875
3114,24.68,2022-10-26 16:42:23.937500
3115,27.29,2022-10-26 16:42:23.953125
3116,29.23,2022-10-26 16:42:23.968750
3117,30.2,2022-10-26 16:42:23.984375
3118,30.18,2022-10-26 16:42:24.000000
3119,29.39,2022-10-26 16:42:24.015625
3120,28.14,2022-10-26 16:42:24.031250
3121,26.69,2022-10-26 16:42:24.046875
3122,25.17,2022-10-26 16:42:24.062500
3123,23.54,2022-10-26 16:42:24.078125
3124,21.62,2022-10-26 16:42:24.093750
3125,19.17,2022-10-26 16:42:24.109375
3126,16.04,2022-10-26 16:42:24.125000
3127,12.27,2022-10-26 16:42:24.140625
3128,8.15,2022-10-26 16:42:24.156250
3129,4.14,2022-10-26 16:42:24.171875
3130,0.64,2022-10-26 16:42:24.187500
3131,-2.13,2022-10-26 16:42:24.203125
3132,-4.24,2022-10-26 16:42:24.218750
3133,-6.12,2022-10-26 16:42:24.234375
3134,-8.36,2022-10-26 16:42:24.250000
3135,-11.48,2022-10-26 16:42:24.265625
3136,-15.81,2022-10-26 16:42:24.281250
3137,-21.26,2022-10-26 16:42:24.296875
3138,-27.33,2022-10-26 16:42:24.312500
3139,-33.14,2022-10-26 16:42:24.328125
3140,-37.57,2022-10-26 16:42:24.343750
3141,-39.5,2022-10-26 16:42:24.359375
3142,-38.09,2022-10-26 16:42:24.375000
3143,-33.05,2022-10-26 16:42:24.390625
3144,-24.74,2022-10-26 16:42:24.406250
3145,-14.14,2022-10-26 16:42:24.421875
3146,-2.55,2022-10-26 16:42:24.437500
3147,8.76,2022-10-26 16:42:24.453125
3148,18.85,2022-10-26 16:42:24.468750
3149,27.23,2022-10-26 16:42:24.484375
3150,33.85,2022-10-26 16:42:24.500000
3151,38.84,2022-10-26 16:42:24.515625
