,BVP,time
0,91.72,2022-08-17 13:23:51.734375
1,88.05,2022-08-17 13:23:51.750000
2,82.26,2022-08-17 13:23:51.765625
3,74.34,2022-08-17 13:23:51.781250
4,64.25,2022-08-17 13:23:51.796875
5,52.16,2022-08-17 13:23:51.812500
6,38.52,2022-08-17 13:23:51.828125
7,24.05,2022-08-17 13:23:51.843750
8,9.61,2022-08-17 13:23:51.859375
9,-3.98,2022-08-17 13:23:51.875000
10,-16.11,2022-08-17 13:23:51.890625
11,-26.48,2022-08-17 13:23:51.906250
12,-35.02,2022-08-17 13:23:51.921875
13,-41.94,2022-08-17 13:23:51.937500
14,-47.6,2022-08-17 13:23:51.953125
15,-52.5,2022-08-17 13:23:51.968750
16,-57.13,2022-08-17 13:23:51.984375
17,-61.77,2022-08-17 13:23:52.000000
18,-66.31,2022-08-17 13:23:52.015625
19,-70.13,2022-08-17 13:23:52.031250
20,-72.24,2022-08-17 13:23:52.046875
21,-71.6,2022-08-17 13:23:52.062500
22,-67.57,2022-08-17 13:23:52.078125
23,-60.23,2022-08-17 13:23:52.093750
24,-50.47,2022-08-17 13:23:52.109375
25,-39.7,2022-08-17 13:23:52.125000
26,-29.4,2022-08-17 13:23:52.140625
27,-20.63,2022-08-17 13:23:52.156250
28,-13.82,2022-08-17 13:23:52.171875
29,-8.85,2022-08-17 13:23:52.187500
30,-5.29,2022-08-17 13:23:52.203125
31,-2.74,2022-08-17 13:23:52.218750
32,-0.98,2022-08-17 13:23:52.234375
33,0.02,2022-08-17 13:23:52.250000
34,0.2,2022-08-17 13:23:52.265625
35,-0.44,2022-08-17 13:23:52.281250
36,-1.77,2022-08-17 13:23:52.296875
37,-3.48,2022-08-17 13:23:52.312500
38,-5.13,2022-08-17 13:23:52.328125
39,-6.14,2022-08-17 13:23:52.343750
40,-5.92,2022-08-17 13:23:52.359375
41,-3.96,2022-08-17 13:23:52.375000
42,0.02,2022-08-17 13:23:52.390625
43,5.92,2022-08-17 13:23:52.406250
44,13.2,2022-08-17 13:23:52.421875
45,20.87,2022-08-17 13:23:52.437500
46,27.8,2022-08-17 13:23:52.453125
47,33.02,2022-08-17 13:23:52.468750
48,36.01,2022-08-17 13:23:52.484375
49,36.92,2022-08-17 13:23:52.500000
50,36.45,2022-08-17 13:23:52.515625
51,35.59,2022-08-17 13:23:52.531250
52,35.25,2022-08-17 13:23:52.546875
53,35.94,2022-08-17 13:23:52.562500
54,37.59,2022-08-17 13:23:52.578125
55,39.69,2022-08-17 13:23:52.593750
56,41.5,2022-08-17 13:23:52.609375
57,42.36,2022-08-17 13:23:52.625000
58,42.05,2022-08-17 13:23:52.640625
59,40.91,2022-08-17 13:23:52.656250
60,39.8,2022-08-17 13:23:52.671875
61,39.7,2022-08-17 13:23:52.687500
62,41.39,2022-08-17 13:23:52.703125
63,44.9,2022-08-17 13:23:52.718750
64,49.23,2022-08-17 13:23:52.734375
65,52.49,2022-08-17 13:23:52.750000
66,52.49,2022-08-17 13:23:52.765625
67,47.62,2022-08-17 13:23:52.781250
68,37.51,2022-08-17 13:23:52.796875
69,23.38,2022-08-17 13:23:52.812500
70,7.79,2022-08-17 13:23:52.828125
71,-5.9,2022-08-17 13:23:52.843750
72,-14.38,2022-08-17 13:23:52.859375
73,-15.2,2022-08-17 13:23:52.875000
74,-7.39,2022-08-17 13:23:52.890625
75,8.44,2022-08-17 13:23:52.906250
76,30.42,2022-08-17 13:23:52.921875
77,56.04,2022-08-17 13:23:52.937500
78,82.78,2022-08-17 13:23:52.953125
79,108.43,2022-08-17 13:23:52.968750
80,131.56,2022-08-17 13:23:52.984375
81,151.43,2022-08-17 13:23:53.000000
82,167.57,2022-08-17 13:23:53.015625
83,179.67,2022-08-17 13:23:53.031250
84,187.63,2022-08-17 13:23:53.046875
85,191.9,2022-08-17 13:23:53.062500
86,193.92,2022-08-17 13:23:53.078125
87,195.51,2022-08-17 13:23:53.093750
88,197.95,2022-08-17 13:23:53.109375
89,201.9,2022-08-17 13:23:53.125000
90,207.11,2022-08-17 13:23:53.140625
91,212.23,2022-08-17 13:23:53.156250
92,215.43,2022-08-17 13:23:53.171875
93,215.26,2022-08-17 13:23:53.187500
94,211.27,2022-08-17 13:23:53.203125
95,204.71,2022-08-17 13:23:53.218750
96,197.25,2022-08-17 13:23:53.234375
97,189.41,2022-08-17 13:23:53.250000
98,181.48,2022-08-17 13:23:53.265625
99,173.55,2022-08-17 13:23:53.281250
100,165.14,2022-08-17 13:23:53.296875
101,155.89,2022-08-17 13:23:53.312500
102,145.94,2022-08-17 13:23:53.328125
103,136.3,2022-08-17 13:23:53.343750
104,129.44,2022-08-17 13:23:53.359375
105,127.43,2022-08-17 13:23:53.375000
106,129.91,2022-08-17 13:23:53.390625
107,135.87,2022-08-17 13:23:53.406250
108,143.96,2022-08-17 13:23:53.421875
109,151.88,2022-08-17 13:23:53.437500
110,156.91,2022-08-17 13:23:53.453125
111,156.34,2022-08-17 13:23:53.468750
112,147.8,2022-08-17 13:23:53.484375
113,130.92,2022-08-17 13:23:53.500000
114,106.29,2022-08-17 13:23:53.515625
115,74.49,2022-08-17 13:23:53.531250
116,39.32,2022-08-17 13:23:53.546875
117,7.33,2022-08-17 13:23:53.562500
118,-15.55,2022-08-17 13:23:53.578125
119,-26.56,2022-08-17 13:23:53.593750
120,-27.72,2022-08-17 13:23:53.609375
121,-32.93,2022-08-17 13:23:53.625000
122,-53.3,2022-08-17 13:23:53.640625
123,-84.08,2022-08-17 13:23:53.656250
124,-123.1,2022-08-17 13:23:53.671875
125,-170.07,2022-08-17 13:23:53.687500
126,-220.23,2022-08-17 13:23:53.703125
127,-268.3,2022-08-17 13:23:53.718750
128,-310.41,2022-08-17 13:23:53.734375
129,-344.64,2022-08-17 13:23:53.750000
130,-370.43,2022-08-17 13:23:53.765625
131,-386.43,2022-08-17 13:23:53.781250
132,-391.87,2022-08-17 13:23:53.796875
133,-388.55,2022-08-17 13:23:53.812500
134,-378.48,2022-08-17 13:23:53.828125
135,-363.54,2022-08-17 13:23:53.843750
136,-346.38,2022-08-17 13:23:53.859375
137,-329.65,2022-08-17 13:23:53.875000
138,-315.22,2022-08-17 13:23:53.890625
139,-303.64,2022-08-17 13:23:53.906250
140,-293.27,2022-08-17 13:23:53.921875
141,-282.03,2022-08-17 13:23:53.937500
142,-269.54,2022-08-17 13:23:53.953125
143,-255.44,2022-08-17 13:23:53.968750
144,-239.39,2022-08-17 13:23:53.984375
145,-222.06,2022-08-17 13:23:54.000000
146,-204.78,2022-08-17 13:23:54.015625
147,-188.96,2022-08-17 13:23:54.031250
148,-175.52,2022-08-17 13:23:54.046875
149,-163.92,2022-08-17 13:23:54.062500
150,-152.8,2022-08-17 13:23:54.078125
151,-141.25,2022-08-17 13:23:54.093750
152,-127.98,2022-08-17 13:23:54.109375
153,-111.81,2022-08-17 13:23:54.125000
154,-92.75,2022-08-17 13:23:54.140625
155,-71.96,2022-08-17 13:23:54.156250
156,-51.31,2022-08-17 13:23:54.171875
157,-32.62,2022-08-17 13:23:54.187500
158,-16.8,2022-08-17 13:23:54.203125
159,-3.99,2022-08-17 13:23:54.218750
160,5.81,2022-08-17 13:23:54.234375
161,12.92,2022-08-17 13:23:54.250000
162,17.78,2022-08-17 13:23:54.265625
163,20.49,2022-08-17 13:23:54.281250
164,20.98,2022-08-17 13:23:54.296875
165,19.38,2022-08-17 13:23:54.312500
166,16.16,2022-08-17 13:23:54.328125
167,12.28,2022-08-17 13:23:54.343750
168,8.78,2022-08-17 13:23:54.359375
169,6.31,2022-08-17 13:23:54.375000
170,5.16,2022-08-17 13:23:54.390625
171,5.29,2022-08-17 13:23:54.406250
172,6.36,2022-08-17 13:23:54.421875
173,7.94,2022-08-17 13:23:54.437500
174,9.68,2022-08-17 13:23:54.453125
175,11.32,2022-08-17 13:23:54.468750
176,12.68,2022-08-17 13:23:54.484375
177,13.55,2022-08-17 13:23:54.500000
178,13.78,2022-08-17 13:23:54.515625
179,13.23,2022-08-17 13:23:54.531250
180,11.94,2022-08-17 13:23:54.546875
181,10.08,2022-08-17 13:23:54.562500
182,7.93,2022-08-17 13:23:54.578125
183,5.8,2022-08-17 13:23:54.593750
184,3.85,2022-08-17 13:23:54.609375
185,2.1,2022-08-17 13:23:54.625000
186,0.35,2022-08-17 13:23:54.640625
187,-1.66,2022-08-17 13:23:54.656250
188,-4.26,2022-08-17 13:23:54.671875
189,-7.64,2022-08-17 13:23:54.687500
190,-11.78,2022-08-17 13:23:54.703125
191,-16.34,2022-08-17 13:23:54.718750
192,-20.6,2022-08-17 13:23:54.734375
193,-23.5,2022-08-17 13:23:54.750000
194,-23.9,2022-08-17 13:23:54.765625
195,-20.92,2022-08-17 13:23:54.781250
196,-14.29,2022-08-17 13:23:54.796875
197,-4.55,2022-08-17 13:23:54.812500
198,7.04,2022-08-17 13:23:54.828125
199,18.85,2022-08-17 13:23:54.843750
200,29.38,2022-08-17 13:23:54.859375
201,37.62,2022-08-17 13:23:54.875000
202,43.2,2022-08-17 13:23:54.890625
203,46.34,2022-08-17 13:23:54.906250
204,47.5,2022-08-17 13:23:54.921875
205,47.16,2022-08-17 13:23:54.937500
206,45.68,2022-08-17 13:23:54.953125
207,43.32,2022-08-17 13:23:54.968750
208,40.29,2022-08-17 13:23:54.984375
209,36.83,2022-08-17 13:23:55.000000
210,33.3,2022-08-17 13:23:55.015625
211,30.04,2022-08-17 13:23:55.031250
212,27.46,2022-08-17 13:23:55.046875
213,25.86,2022-08-17 13:23:55.062500
214,25.34,2022-08-17 13:23:55.078125
215,25.79,2022-08-17 13:23:55.093750
216,26.83,2022-08-17 13:23:55.109375
217,27.9,2022-08-17 13:23:55.125000
218,28.45,2022-08-17 13:23:55.140625
219,28.15,2022-08-17 13:23:55.156250
220,26.88,2022-08-17 13:23:55.171875
221,24.8,2022-08-17 13:23:55.187500
222,22.02,2022-08-17 13:23:55.203125
223,18.45,2022-08-17 13:23:55.218750
224,13.78,2022-08-17 13:23:55.234375
225,7.62,2022-08-17 13:23:55.250000
226,-0.18,2022-08-17 13:23:55.265625
227,-9.25,2022-08-17 13:23:55.281250
228,-18.73,2022-08-17 13:23:55.296875
229,-27.55,2022-08-17 13:23:55.312500
230,-34.88,2022-08-17 13:23:55.328125
231,-40.41,2022-08-17 13:23:55.343750
232,-44.43,2022-08-17 13:23:55.359375
233,-47.56,2022-08-17 13:23:55.375000
234,-50.31,2022-08-17 13:23:55.390625
235,-52.63,2022-08-17 13:23:55.406250
236,-53.87,2022-08-17 13:23:55.421875
237,-52.99,2022-08-17 13:23:55.437500
238,-49.03,2022-08-17 13:23:55.453125
239,-41.57,2022-08-17 13:23:55.468750
240,-30.99,2022-08-17 13:23:55.484375
241,-18.38,2022-08-17 13:23:55.500000
242,-5.21,2022-08-17 13:23:55.515625
243,7.14,2022-08-17 13:23:55.531250
244,17.72,2022-08-17 13:23:55.546875
245,26.09,2022-08-17 13:23:55.562500
246,32.28,2022-08-17 13:23:55.578125
247,36.67,2022-08-17 13:23:55.593750
248,39.89,2022-08-17 13:23:55.609375
249,42.78,2022-08-17 13:23:55.625000
250,46.06,2022-08-17 13:23:55.640625
251,49.9,2022-08-17 13:23:55.656250
252,53.63,2022-08-17 13:23:55.671875
253,55.68,2022-08-17 13:23:55.687500
254,54.15,2022-08-17 13:23:55.703125
255,47.63,2022-08-17 13:23:55.718750
256,36.1,2022-08-17 13:23:55.734375
257,21.33,2022-08-17 13:23:55.750000
258,6.44,2022-08-17 13:23:55.765625
259,-5.09,2022-08-17 13:23:55.781250
260,-10.69,2022-08-17 13:23:55.796875
261,-9.5,2022-08-17 13:23:55.812500
262,-2.62,2022-08-17 13:23:55.828125
263,7.44,2022-08-17 13:23:55.843750
264,17.75,2022-08-17 13:23:55.859375
265,25.8,2022-08-17 13:23:55.875000
266,30.05,2022-08-17 13:23:55.890625
267,30.08,2022-08-17 13:23:55.906250
268,26.33,2022-08-17 13:23:55.921875
269,19.91,2022-08-17 13:23:55.937500
270,12.17,2022-08-17 13:23:55.953125
271,4.44,2022-08-17 13:23:55.968750
272,-2.11,2022-08-17 13:23:55.984375
273,-6.64,2022-08-17 13:23:56.000000
274,-8.88,2022-08-17 13:23:56.015625
275,-9.17,2022-08-17 13:23:56.031250
276,-8.4,2022-08-17 13:23:56.046875
277,-7.76,2022-08-17 13:23:56.062500
278,-8.28,2022-08-17 13:23:56.078125
279,-10.33,2022-08-17 13:23:56.093750
280,-13.4,2022-08-17 13:23:56.109375
281,-16.24,2022-08-17 13:23:56.125000
282,-17.27,2022-08-17 13:23:56.140625
283,-15.23,2022-08-17 13:23:56.156250
284,-9.69,2022-08-17 13:23:56.171875
285,-1.22,2022-08-17 13:23:56.187500
286,8.84,2022-08-17 13:23:56.203125
287,18.83,2022-08-17 13:23:56.218750
288,27.32,2022-08-17 13:23:56.234375
289,33.45,2022-08-17 13:23:56.250000
290,37.07,2022-08-17 13:23:56.265625
291,38.43,2022-08-17 13:23:56.281250
292,38.02,2022-08-17 13:23:56.296875
293,36.28,2022-08-17 13:23:56.312500
294,33.57,2022-08-17 13:23:56.328125
295,30.17,2022-08-17 13:23:56.343750
296,26.35,2022-08-17 13:23:56.359375
297,22.44,2022-08-17 13:23:56.375000
298,18.68,2022-08-17 13:23:56.390625
299,15.28,2022-08-17 13:23:56.406250
300,12.33,2022-08-17 13:23:56.421875
301,9.85,2022-08-17 13:23:56.437500
302,7.85,2022-08-17 13:23:56.453125
303,6.37,2022-08-17 13:23:56.468750
304,5.47,2022-08-17 13:23:56.484375
305,5.09,2022-08-17 13:23:56.500000
306,5.02,2022-08-17 13:23:56.515625
307,4.86,2022-08-17 13:23:56.531250
308,4.14,2022-08-17 13:23:56.546875
309,2.49,2022-08-17 13:23:56.562500
310,-0.21,2022-08-17 13:23:56.578125
311,-3.75,2022-08-17 13:23:56.593750
312,-7.72,2022-08-17 13:23:56.609375
313,-11.63,2022-08-17 13:23:56.625000
314,-15.14,2022-08-17 13:23:56.640625
315,-18.13,2022-08-17 13:23:56.656250
316,-20.74,2022-08-17 13:23:56.671875
317,-23.31,2022-08-17 13:23:56.687500
318,-26.27,2022-08-17 13:23:56.703125
319,-29.97,2022-08-17 13:23:56.718750
320,-34.5,2022-08-17 13:23:56.734375
321,-39.53,2022-08-17 13:23:56.750000
322,-44.23,2022-08-17 13:23:56.765625
323,-47.39,2022-08-17 13:23:56.781250
324,-47.81,2022-08-17 13:23:56.796875
325,-44.69,2022-08-17 13:23:56.812500
326,-37.95,2022-08-17 13:23:56.828125
327,-28.35,2022-08-17 13:23:56.843750
328,-17.2,2022-08-17 13:23:56.859375
329,-5.99,2022-08-17 13:23:56.875000
330,4.1,2022-08-17 13:23:56.890625
331,12.37,2022-08-17 13:23:56.906250
332,18.64,2022-08-17 13:23:56.921875
333,23.01,2022-08-17 13:23:56.937500
334,25.7,2022-08-17 13:23:56.953125
335,26.86,2022-08-17 13:23:56.968750
336,26.64,2022-08-17 13:23:56.984375
337,25.23,2022-08-17 13:23:57.000000
338,22.97,2022-08-17 13:23:57.015625
339,20.28,2022-08-17 13:23:57.031250
340,17.63,2022-08-17 13:23:57.046875
341,15.36,2022-08-17 13:23:57.062500
342,13.55,2022-08-17 13:23:57.078125
343,12.14,2022-08-17 13:23:57.093750
344,10.97,2022-08-17 13:23:57.109375
345,9.94,2022-08-17 13:23:57.125000
346,9.1,2022-08-17 13:23:57.140625
347,8.55,2022-08-17 13:23:57.156250
348,8.36,2022-08-17 13:23:57.171875
349,8.38,2022-08-17 13:23:57.187500
350,8.29,2022-08-17 13:23:57.203125
351,7.63,2022-08-17 13:23:57.218750
352,6.15,2022-08-17 13:23:57.234375
353,3.84,2022-08-17 13:23:57.250000
354,0.97,2022-08-17 13:23:57.265625
355,-2.03,2022-08-17 13:23:57.281250
356,-4.79,2022-08-17 13:23:57.296875
357,-7.2,2022-08-17 13:23:57.312500
358,-9.43,2022-08-17 13:23:57.328125
359,-11.84,2022-08-17 13:23:57.343750
360,-14.81,2022-08-17 13:23:57.359375
361,-18.67,2022-08-17 13:23:57.375000
362,-23.47,2022-08-17 13:23:57.390625
363,-28.92,2022-08-17 13:23:57.406250
364,-34.35,2022-08-17 13:23:57.421875
365,-38.75,2022-08-17 13:23:57.437500
366,-40.97,2022-08-17 13:23:57.453125
367,-40.0,2022-08-17 13:23:57.468750
368,-35.34,2022-08-17 13:23:57.484375
369,-27.23,2022-08-17 13:23:57.500000
370,-16.66,2022-08-17 13:23:57.515625
371,-5.12,2022-08-17 13:23:57.531250
372,5.85,2022-08-17 13:23:57.546875
373,15.1,2022-08-17 13:23:57.562500
374,22.05,2022-08-17 13:23:57.578125
375,26.71,2022-08-17 13:23:57.593750
376,29.48,2022-08-17 13:23:57.609375
377,30.78,2022-08-17 13:23:57.625000
378,30.93,2022-08-17 13:23:57.640625
379,30.1,2022-08-17 13:23:57.656250
380,28.4,2022-08-17 13:23:57.671875
381,25.97,2022-08-17 13:23:57.687500
382,23.13,2022-08-17 13:23:57.703125
383,20.2,2022-08-17 13:23:57.718750
384,17.48,2022-08-17 13:23:57.734375
385,15.14,2022-08-17 13:23:57.750000
386,13.23,2022-08-17 13:23:57.765625
387,11.79,2022-08-17 13:23:57.781250
388,10.85,2022-08-17 13:23:57.796875
389,10.47,2022-08-17 13:23:57.812500
390,10.62,2022-08-17 13:23:57.828125
391,11.09,2022-08-17 13:23:57.843750
392,11.53,2022-08-17 13:23:57.859375
393,11.54,2022-08-17 13:23:57.875000
394,10.78,2022-08-17 13:23:57.890625
395,9.1,2022-08-17 13:23:57.906250
396,6.62,2022-08-17 13:23:57.921875
397,3.57,2022-08-17 13:23:57.937500
398,0.32,2022-08-17 13:23:57.953125
399,-2.85,2022-08-17 13:23:57.968750
400,-5.69,2022-08-17 13:23:57.984375
401,-8.15,2022-08-17 13:23:58.000000
402,-10.32,2022-08-17 13:23:58.015625
403,-12.54,2022-08-17 13:23:58.031250
404,-15.24,2022-08-17 13:23:58.046875
405,-18.82,2022-08-17 13:23:58.062500
406,-23.35,2022-08-17 13:23:58.078125
407,-28.33,2022-08-17 13:23:58.093750
408,-32.7,2022-08-17 13:23:58.109375
409,-35.11,2022-08-17 13:23:58.125000
410,-34.32,2022-08-17 13:23:58.140625
411,-29.76,2022-08-17 13:23:58.156250
412,-21.73,2022-08-17 13:23:58.171875
413,-11.32,2022-08-17 13:23:58.187500
414,-0.05,2022-08-17 13:23:58.203125
415,10.65,2022-08-17 13:23:58.218750
416,19.85,2022-08-17 13:23:58.234375
417,27.15,2022-08-17 13:23:58.250000
418,32.61,2022-08-17 13:23:58.265625
419,36.42,2022-08-17 13:23:58.281250
420,38.72,2022-08-17 13:23:58.296875
421,39.6,2022-08-17 13:23:58.312500
422,39.2,2022-08-17 13:23:58.328125
423,37.86,2022-08-17 13:23:58.343750
424,36.14,2022-08-17 13:23:58.359375
425,34.74,2022-08-17 13:23:58.375000
426,34.25,2022-08-17 13:23:58.390625
427,34.94,2022-08-17 13:23:58.406250
428,36.72,2022-08-17 13:23:58.421875
429,39.19,2022-08-17 13:23:58.437500
430,41.85,2022-08-17 13:23:58.453125
431,44.23,2022-08-17 13:23:58.468750
432,46.02,2022-08-17 13:23:58.484375
433,46.99,2022-08-17 13:23:58.500000
434,46.99,2022-08-17 13:23:58.515625
435,45.83,2022-08-17 13:23:58.531250
436,43.34,2022-08-17 13:23:58.546875
437,39.45,2022-08-17 13:23:58.562500
438,34.21,2022-08-17 13:23:58.578125
439,27.93,2022-08-17 13:23:58.593750
440,21.01,2022-08-17 13:23:58.609375
441,13.86,2022-08-17 13:23:58.625000
442,6.8,2022-08-17 13:23:58.640625
443,0.04,2022-08-17 13:23:58.656250
444,-6.33,2022-08-17 13:23:58.671875
445,-12.34,2022-08-17 13:23:58.687500
446,-18.03,2022-08-17 13:23:58.703125
447,-23.56,2022-08-17 13:23:58.718750
448,-29.06,2022-08-17 13:23:58.734375
449,-34.6,2022-08-17 13:23:58.750000
450,-40.01,2022-08-17 13:23:58.765625
451,-44.87,2022-08-17 13:23:58.781250
452,-48.46,2022-08-17 13:23:58.796875
453,-50.02,2022-08-17 13:23:58.812500
454,-48.98,2022-08-17 13:23:58.828125
455,-45.16,2022-08-17 13:23:58.843750
456,-38.93,2022-08-17 13:23:58.859375
457,-31.08,2022-08-17 13:23:58.875000
458,-22.58,2022-08-17 13:23:58.890625
459,-14.31,2022-08-17 13:23:58.906250
460,-6.9,2022-08-17 13:23:58.921875
461,-0.65,2022-08-17 13:23:58.937500
462,4.4,2022-08-17 13:23:58.953125
463,8.3,2022-08-17 13:23:58.968750
464,11.12,2022-08-17 13:23:58.984375
465,12.93,2022-08-17 13:23:59.000000
466,13.86,2022-08-17 13:23:59.015625
467,14.19,2022-08-17 13:23:59.031250
468,14.31,2022-08-17 13:23:59.046875
469,14.71,2022-08-17 13:23:59.062500
470,15.79,2022-08-17 13:23:59.078125
471,17.8,2022-08-17 13:23:59.093750
472,20.71,2022-08-17 13:23:59.109375
473,24.38,2022-08-17 13:23:59.125000
474,28.5,2022-08-17 13:23:59.140625
475,32.81,2022-08-17 13:23:59.156250
476,37.08,2022-08-17 13:23:59.171875
477,41.06,2022-08-17 13:23:59.187500
478,44.52,2022-08-17 13:23:59.203125
479,47.15,2022-08-17 13:23:59.218750
480,48.78,2022-08-17 13:23:59.234375
481,49.3,2022-08-17 13:23:59.250000
482,48.81,2022-08-17 13:23:59.265625
483,47.51,2022-08-17 13:23:59.281250
484,45.62,2022-08-17 13:23:59.296875
485,43.36,2022-08-17 13:23:59.312500
486,40.87,2022-08-17 13:23:59.328125
487,38.25,2022-08-17 13:23:59.343750
488,35.47,2022-08-17 13:23:59.359375
489,32.41,2022-08-17 13:23:59.375000
490,28.85,2022-08-17 13:23:59.390625
491,24.47,2022-08-17 13:23:59.406250
492,19.14,2022-08-17 13:23:59.421875
493,13.01,2022-08-17 13:23:59.437500
494,6.71,2022-08-17 13:23:59.453125
495,1.22,2022-08-17 13:23:59.468750
496,-2.35,2022-08-17 13:23:59.484375
497,-3.16,2022-08-17 13:23:59.500000
498,-1.01,2022-08-17 13:23:59.515625
499,3.61,2022-08-17 13:23:59.531250
500,9.73,2022-08-17 13:23:59.546875
501,16.22,2022-08-17 13:23:59.562500
502,22.21,2022-08-17 13:23:59.578125
503,27.23,2022-08-17 13:23:59.593750
504,31.15,2022-08-17 13:23:59.609375
505,34.02,2022-08-17 13:23:59.625000
506,35.85,2022-08-17 13:23:59.640625
507,36.62,2022-08-17 13:23:59.656250
508,36.33,2022-08-17 13:23:59.671875
509,35.09,2022-08-17 13:23:59.687500
510,33.2,2022-08-17 13:23:59.703125
511,31.01,2022-08-17 13:23:59.718750
512,28.86,2022-08-17 13:23:59.734375
513,26.94,2022-08-17 13:23:59.750000
514,25.33,2022-08-17 13:23:59.765625
515,24.06,2022-08-17 13:23:59.781250
516,23.18,2022-08-17 13:23:59.796875
517,22.83,2022-08-17 13:23:59.812500
518,23.1,2022-08-17 13:23:59.828125
519,24.0,2022-08-17 13:23:59.843750
520,25.34,2022-08-17 13:23:59.859375
521,26.69,2022-08-17 13:23:59.875000
522,27.52,2022-08-17 13:23:59.890625
523,27.3,2022-08-17 13:23:59.906250
524,25.76,2022-08-17 13:23:59.921875
525,22.88,2022-08-17 13:23:59.937500
526,19.0,2022-08-17 13:23:59.953125
527,14.64,2022-08-17 13:23:59.968750
528,10.25,2022-08-17 13:23:59.984375
529,6.13,2022-08-17 13:24:00.000000
530,2.23,2022-08-17 13:24:00.015625
531,-1.67,2022-08-17 13:24:00.031250
532,-5.88,2022-08-17 13:24:00.046875
533,-10.56,2022-08-17 13:24:00.062500
534,-15.61,2022-08-17 13:24:00.078125
535,-20.66,2022-08-17 13:24:00.093750
536,-25.06,2022-08-17 13:24:00.109375
537,-28.02,2022-08-17 13:24:00.125000
538,-28.76,2022-08-17 13:24:00.140625
539,-26.7,2022-08-17 13:24:00.156250
540,-21.7,2022-08-17 13:24:00.171875
541,-14.17,2022-08-17 13:24:00.187500
542,-4.94,2022-08-17 13:24:00.203125
543,4.87,2022-08-17 13:24:00.218750
544,14.35,2022-08-17 13:24:00.234375
545,22.91,2022-08-17 13:24:00.250000
546,30.38,2022-08-17 13:24:00.265625
547,36.83,2022-08-17 13:24:00.281250
548,42.29,2022-08-17 13:24:00.296875
549,46.54,2022-08-17 13:24:00.312500
550,49.17,2022-08-17 13:24:00.328125
551,49.76,2022-08-17 13:24:00.343750
552,48.1,2022-08-17 13:24:00.359375
553,44.45,2022-08-17 13:24:00.375000
554,39.42,2022-08-17 13:24:00.390625
555,33.81,2022-08-17 13:24:00.406250
556,28.41,2022-08-17 13:24:00.421875
557,23.8,2022-08-17 13:24:00.437500
558,20.31,2022-08-17 13:24:00.453125
559,18.01,2022-08-17 13:24:00.468750
560,16.85,2022-08-17 13:24:00.484375
561,16.57,2022-08-17 13:24:00.500000
562,16.79,2022-08-17 13:24:00.515625
563,16.98,2022-08-17 13:24:00.531250
564,16.6,2022-08-17 13:24:00.546875
565,15.21,2022-08-17 13:24:00.562500
566,12.71,2022-08-17 13:24:00.578125
567,9.34,2022-08-17 13:24:00.593750
568,5.58,2022-08-17 13:24:00.609375
569,1.98,2022-08-17 13:24:00.625000
570,-1.21,2022-08-17 13:24:00.640625
571,-4.2,2022-08-17 13:24:00.656250
572,-7.61,2022-08-17 13:24:00.671875
573,-12.26,2022-08-17 13:24:00.687500
574,-18.95,2022-08-17 13:24:00.703125
575,-28.08,2022-08-17 13:24:00.718750
576,-39.46,2022-08-17 13:24:00.734375
577,-52.33,2022-08-17 13:24:00.750000
578,-65.37,2022-08-17 13:24:00.765625
579,-76.99,2022-08-17 13:24:00.781250
580,-85.58,2022-08-17 13:24:00.796875
581,-89.88,2022-08-17 13:24:00.812500
582,-89.33,2022-08-17 13:24:00.828125
583,-84.25,2022-08-17 13:24:00.843750
584,-75.7,2022-08-17 13:24:00.859375
585,-65.27,2022-08-17 13:24:00.875000
586,-54.55,2022-08-17 13:24:00.890625
587,-44.76,2022-08-17 13:24:00.906250
588,-36.59,2022-08-17 13:24:00.921875
589,-30.14,2022-08-17 13:24:00.937500
590,-25.25,2022-08-17 13:24:00.953125
591,-21.68,2022-08-17 13:24:00.968750
592,-19.25,2022-08-17 13:24:00.984375
593,-17.9,2022-08-17 13:24:01.000000
594,-17.51,2022-08-17 13:24:01.015625
595,-17.84,2022-08-17 13:24:01.031250
596,-18.43,2022-08-17 13:24:01.046875
597,-18.77,2022-08-17 13:24:01.062500
598,-18.36,2022-08-17 13:24:01.078125
599,-16.9,2022-08-17 13:24:01.093750
600,-14.41,2022-08-17 13:24:01.109375
601,-11.15,2022-08-17 13:24:01.125000
602,-7.52,2022-08-17 13:24:01.140625
603,-3.95,2022-08-17 13:24:01.156250
604,-0.73,2022-08-17 13:24:01.171875
605,2.03,2022-08-17 13:24:01.187500
606,4.37,2022-08-17 13:24:01.203125
607,6.34,2022-08-17 13:24:01.218750
608,7.97,2022-08-17 13:24:01.234375
609,9.24,2022-08-17 13:24:01.250000
610,10.07,2022-08-17 13:24:01.265625
611,10.45,2022-08-17 13:24:01.281250
612,10.44,2022-08-17 13:24:01.296875
613,10.17,2022-08-17 13:24:01.312500
614,9.74,2022-08-17 13:24:01.328125
615,9.13,2022-08-17 13:24:01.343750
616,8.29,2022-08-17 13:24:01.359375
617,7.12,2022-08-17 13:24:01.375000
618,5.64,2022-08-17 13:24:01.390625
619,3.97,2022-08-17 13:24:01.406250
620,2.24,2022-08-17 13:24:01.421875
621,0.46,2022-08-17 13:24:01.437500
622,-1.5,2022-08-17 13:24:01.453125
623,-3.95,2022-08-17 13:24:01.468750
624,-7.17,2022-08-17 13:24:01.484375
625,-11.19,2022-08-17 13:24:01.500000
626,-15.63,2022-08-17 13:24:01.515625
627,-19.7,2022-08-17 13:24:01.531250
628,-22.63,2022-08-17 13:24:01.546875
629,-23.71,2022-08-17 13:24:01.562500
630,-22.61,2022-08-17 13:24:01.578125
631,-19.5,2022-08-17 13:24:01.593750
632,-15.08,2022-08-17 13:24:01.609375
633,-10.34,2022-08-17 13:24:01.625000
634,-6.29,2022-08-17 13:24:01.640625
635,-3.52,2022-08-17 13:24:01.656250
636,-1.98,2022-08-17 13:24:01.671875
637,-1.57,2022-08-17 13:24:01.687500
638,-2.24,2022-08-17 13:24:01.703125
639,-4.18,2022-08-17 13:24:01.718750
640,-7.7,2022-08-17 13:24:01.734375
641,-13.01,2022-08-17 13:24:01.750000
642,-19.77,2022-08-17 13:24:01.765625
643,-27.11,2022-08-17 13:24:01.781250
644,-33.7,2022-08-17 13:24:01.796875
645,-38.16,2022-08-17 13:24:01.812500
646,-40.43,2022-08-17 13:24:01.828125
647,-41.36,2022-08-17 13:24:01.843750
648,-42.23,2022-08-17 13:24:01.859375
649,-43.88,2022-08-17 13:24:01.875000
650,-46.17,2022-08-17 13:24:01.890625
651,-47.57,2022-08-17 13:24:01.906250
652,-46.26,2022-08-17 13:24:01.921875
653,-40.39,2022-08-17 13:24:01.937500
654,-28.75,2022-08-17 13:24:01.953125
655,-12.73,2022-08-17 13:24:01.968750
656,5.77,2022-08-17 13:24:01.984375
657,25.54,2022-08-17 13:24:02.000000
658,46.54,2022-08-17 13:24:02.015625
659,68.9,2022-08-17 13:24:02.031250
660,92.23,2022-08-17 13:24:02.046875
661,113.5,2022-08-17 13:24:02.062500
662,129.29,2022-08-17 13:24:02.078125
663,137.69,2022-08-17 13:24:02.093750
664,136.16,2022-08-17 13:24:02.109375
665,125.15,2022-08-17 13:24:02.125000
666,108.23,2022-08-17 13:24:02.140625
667,90.25,2022-08-17 13:24:02.156250
668,74.28,2022-08-17 13:24:02.171875
669,61.32,2022-08-17 13:24:02.187500
670,47.57,2022-08-17 13:24:02.203125
671,29.53,2022-08-17 13:24:02.218750
672,6.53,2022-08-17 13:24:02.234375
673,-24.57,2022-08-17 13:24:02.250000
674,-64.89,2022-08-17 13:24:02.265625
675,-112.5,2022-08-17 13:24:02.281250
676,-162.9,2022-08-17 13:24:02.296875
677,-211.48,2022-08-17 13:24:02.312500
678,-253.16,2022-08-17 13:24:02.328125
679,-288.59,2022-08-17 13:24:02.343750
680,-318.97,2022-08-17 13:24:02.359375
681,-344.74,2022-08-17 13:24:02.375000
682,-372.73,2022-08-17 13:24:02.390625
683,-408.93,2022-08-17 13:24:02.406250
684,-454.63,2022-08-17 13:24:02.421875
685,-505.65,2022-08-17 13:24:02.437500
686,-555.15,2022-08-17 13:24:02.453125
687,-594.45,2022-08-17 13:24:02.468750
688,-622.35,2022-08-17 13:24:02.484375
689,-639.44,2022-08-17 13:24:02.500000
690,-604.24,2022-08-17 13:24:02.515625
691,-492.86,2022-08-17 13:24:02.531250
692,-311.08,2022-08-17 13:24:02.546875
693,-94.39,2022-08-17 13:24:02.562500
694,114.8,2022-08-17 13:24:02.578125
695,270.07,2022-08-17 13:24:02.593750
696,379.7,2022-08-17 13:24:02.609375
697,457.14,2022-08-17 13:24:02.625000
698,513.01,2022-08-17 13:24:02.640625
699,554.29,2022-08-17 13:24:02.656250
700,582.03,2022-08-17 13:24:02.671875
701,593.29,2022-08-17 13:24:02.687500
702,588.18,2022-08-17 13:24:02.703125
703,571.45,2022-08-17 13:24:02.718750
704,549.73,2022-08-17 13:24:02.734375
705,531.05,2022-08-17 13:24:02.750000
706,515.57,2022-08-17 13:24:02.765625
707,501.74,2022-08-17 13:24:02.781250
708,488.15,2022-08-17 13:24:02.796875
709,468.44,2022-08-17 13:24:02.812500
710,436.74,2022-08-17 13:24:02.828125
711,391.12,2022-08-17 13:24:02.843750
712,334.21,2022-08-17 13:24:02.859375
713,271.01,2022-08-17 13:24:02.875000
714,208.58,2022-08-17 13:24:02.890625
715,148.87,2022-08-17 13:24:02.906250
716,93.16,2022-08-17 13:24:02.921875
717,43.04,2022-08-17 13:24:02.937500
718,-3.23,2022-08-17 13:24:02.953125
719,-47.95,2022-08-17 13:24:02.968750
720,-91.82,2022-08-17 13:24:02.984375
721,-133.74,2022-08-17 13:24:03.000000
722,-172.14,2022-08-17 13:24:03.015625
723,-205.13,2022-08-17 13:24:03.031250
724,-234.74,2022-08-17 13:24:03.046875
725,-263.2,2022-08-17 13:24:03.062500
726,-291.23,2022-08-17 13:24:03.078125
727,-318.85,2022-08-17 13:24:03.093750
728,-344.06,2022-08-17 13:24:03.109375
729,-362.87,2022-08-17 13:24:03.125000
730,-371.07,2022-08-17 13:24:03.140625
731,-366.73,2022-08-17 13:24:03.156250
732,-350.76,2022-08-17 13:24:03.171875
733,-328.19,2022-08-17 13:24:03.187500
734,-304.7,2022-08-17 13:24:03.203125
735,-284.27,2022-08-17 13:24:03.218750
736,-268.96,2022-08-17 13:24:03.234375
737,-258.87,2022-08-17 13:24:03.250000
738,-253.04,2022-08-17 13:24:03.265625
739,-250.48,2022-08-17 13:24:03.281250
740,-250.55,2022-08-17 13:24:03.296875
741,-252.23,2022-08-17 13:24:03.312500
742,-254.11,2022-08-17 13:24:03.328125
743,-253.65,2022-08-17 13:24:03.343750
744,-247.64,2022-08-17 13:24:03.359375
745,-233.57,2022-08-17 13:24:03.375000
746,-210.73,2022-08-17 13:24:03.390625
747,-180.41,2022-08-17 13:24:03.406250
748,-145.51,2022-08-17 13:24:03.421875
749,-109.27,2022-08-17 13:24:03.437500
750,-73.9,2022-08-17 13:24:03.453125
751,-39.9,2022-08-17 13:24:03.468750
752,-5.95,2022-08-17 13:24:03.484375
753,30.69,2022-08-17 13:24:03.500000
754,73.15,2022-08-17 13:24:03.515625
755,123.67,2022-08-17 13:24:03.531250
756,182.04,2022-08-17 13:24:03.546875
757,244.44,2022-08-17 13:24:03.562500
758,303.43,2022-08-17 13:24:03.578125
759,349.5,2022-08-17 13:24:03.593750
760,373.78,2022-08-17 13:24:03.609375
761,371.06,2022-08-17 13:24:03.625000
762,341.51,2022-08-17 13:24:03.640625
763,290.71,2022-08-17 13:24:03.656250
764,227.86,2022-08-17 13:24:03.671875
765,163.29,2022-08-17 13:24:03.687500
766,106.1,2022-08-17 13:24:03.703125
767,62.81,2022-08-17 13:24:03.718750
768,36.87,2022-08-17 13:24:03.734375
769,28.83,2022-08-17 13:24:03.750000
770,36.86,2022-08-17 13:24:03.765625
771,57.34,2022-08-17 13:24:03.781250
772,85.77,2022-08-17 13:24:03.796875
773,117.69,2022-08-17 13:24:03.812500
774,149.37,2022-08-17 13:24:03.828125
775,178.03,2022-08-17 13:24:03.843750
776,201.61,2022-08-17 13:24:03.859375
777,218.19,2022-08-17 13:24:03.875000
778,225.97,2022-08-17 13:24:03.890625
779,223.79,2022-08-17 13:24:03.906250
780,211.73,2022-08-17 13:24:03.921875
781,191.47,2022-08-17 13:24:03.937500
782,166.05,2022-08-17 13:24:03.953125
783,139.06,2022-08-17 13:24:03.968750
784,113.81,2022-08-17 13:24:03.984375
785,92.66,2022-08-17 13:24:04.000000
786,76.79,2022-08-17 13:24:04.015625
787,66.09,2022-08-17 13:24:04.031250
788,59.4,2022-08-17 13:24:04.046875
789,54.81,2022-08-17 13:24:04.062500
790,50.05,2022-08-17 13:24:04.078125
791,43.12,2022-08-17 13:24:04.093750
792,32.75,2022-08-17 13:24:04.109375
793,18.78,2022-08-17 13:24:04.125000
794,2.0,2022-08-17 13:24:04.140625
795,-16.09,2022-08-17 13:24:04.156250
796,-33.86,2022-08-17 13:24:04.171875
797,-49.91,2022-08-17 13:24:04.187500
798,-63.41,2022-08-17 13:24:04.203125
799,-74.1,2022-08-17 13:24:04.218750
800,-82.4,2022-08-17 13:24:04.234375
801,-89.19,2022-08-17 13:24:04.250000
802,-95.5,2022-08-17 13:24:04.265625
803,-102.08,2022-08-17 13:24:04.281250
804,-108.91,2022-08-17 13:24:04.296875
805,-114.95,2022-08-17 13:24:04.312500
806,-118.33,2022-08-17 13:24:04.328125
807,-117.02,2022-08-17 13:24:04.343750
808,-109.74,2022-08-17 13:24:04.359375
809,-96.68,2022-08-17 13:24:04.375000
810,-79.62,2022-08-17 13:24:04.390625
811,-61.4,2022-08-17 13:24:04.406250
812,-45.03,2022-08-17 13:24:04.421875
813,-32.73,2022-08-17 13:24:04.437500
814,-25.38,2022-08-17 13:24:04.453125
815,-22.57,2022-08-17 13:24:04.468750
816,-22.98,2022-08-17 13:24:04.484375
817,-25.09,2022-08-17 13:24:04.500000
818,-27.62,2022-08-17 13:24:04.515625
819,-29.89,2022-08-17 13:24:04.531250
820,-31.83,2022-08-17 13:24:04.546875
821,-33.73,2022-08-17 13:24:04.562500
822,-35.96,2022-08-17 13:24:04.578125
823,-38.69,2022-08-17 13:24:04.593750
824,-41.64,2022-08-17 13:24:04.609375
825,-44.19,2022-08-17 13:24:04.625000
826,-45.62,2022-08-17 13:24:04.640625
827,-45.42,2022-08-17 13:24:04.656250
828,-43.58,2022-08-17 13:24:04.671875
829,-40.7,2022-08-17 13:24:04.687500
830,-37.73,2022-08-17 13:24:04.703125
831,-35.64,2022-08-17 13:24:04.718750
832,-35.06,2022-08-17 13:24:04.734375
833,-36.08,2022-08-17 13:24:04.750000
834,-38.28,2022-08-17 13:24:04.765625
835,-40.9,2022-08-17 13:24:04.781250
836,-43.22,2022-08-17 13:24:04.796875
837,-44.73,2022-08-17 13:24:04.812500
838,-45.32,2022-08-17 13:24:04.828125
839,-45.32,2022-08-17 13:24:04.843750
840,-45.3,2022-08-17 13:24:04.859375
841,-46.01,2022-08-17 13:24:04.875000
842,-48.14,2022-08-17 13:24:04.890625
843,-51.92,2022-08-17 13:24:04.906250
844,-56.87,2022-08-17 13:24:04.921875
845,-61.63,2022-08-17 13:24:04.937500
846,-64.13,2022-08-17 13:24:04.953125
847,-62.1,2022-08-17 13:24:04.968750
848,-53.91,2022-08-17 13:24:04.984375
849,-39.2,2022-08-17 13:24:05.000000
850,-19.23,2022-08-17 13:24:05.015625
851,3.41,2022-08-17 13:24:05.031250
852,25.57,2022-08-17 13:24:05.046875
853,44.44,2022-08-17 13:24:05.062500
854,58.27,2022-08-17 13:24:05.078125
855,66.64,2022-08-17 13:24:05.093750
856,70.22,2022-08-17 13:24:05.109375
857,70.14,2022-08-17 13:24:05.125000
858,67.59,2022-08-17 13:24:05.140625
859,63.34,2022-08-17 13:24:05.156250
860,57.78,2022-08-17 13:24:05.171875
861,51.11,2022-08-17 13:24:05.187500
862,43.58,2022-08-17 13:24:05.203125
863,35.66,2022-08-17 13:24:05.218750
864,28.01,2022-08-17 13:24:05.234375
865,21.35,2022-08-17 13:24:05.250000
866,16.19,2022-08-17 13:24:05.265625
867,12.76,2022-08-17 13:24:05.281250
868,10.84,2022-08-17 13:24:05.296875
869,9.85,2022-08-17 13:24:05.312500
870,9.06,2022-08-17 13:24:05.328125
871,7.75,2022-08-17 13:24:05.343750
872,5.46,2022-08-17 13:24:05.359375
873,2.03,2022-08-17 13:24:05.375000
874,-2.45,2022-08-17 13:24:05.390625
875,-7.72,2022-08-17 13:24:05.406250
876,-13.6,2022-08-17 13:24:05.421875
877,-19.95,2022-08-17 13:24:05.437500
878,-26.75,2022-08-17 13:24:05.453125
879,-33.91,2022-08-17 13:24:05.468750
880,-41.24,2022-08-17 13:24:05.484375
881,-48.51,2022-08-17 13:24:05.500000
882,-55.59,2022-08-17 13:24:05.515625
883,-62.48,2022-08-17 13:24:05.531250
884,-69.26,2022-08-17 13:24:05.546875
885,-75.63,2022-08-17 13:24:05.562500
886,-80.69,2022-08-17 13:24:05.578125
887,-82.82,2022-08-17 13:24:05.593750
888,-80.1,2022-08-17 13:24:05.609375
889,-71.11,2022-08-17 13:24:05.625000
890,-55.65,2022-08-17 13:24:05.640625
891,-35.08,2022-08-17 13:24:05.656250
892,-12.04,2022-08-17 13:24:05.671875
893,10.42,2022-08-17 13:24:05.687500
894,29.72,2022-08-17 13:24:05.703125
895,44.4,2022-08-17 13:24:05.718750
896,54.1,2022-08-17 13:24:05.734375
897,59.32,2022-08-17 13:24:05.750000
898,60.84,2022-08-17 13:24:05.765625
899,59.37,2022-08-17 13:24:05.781250
900,55.53,2022-08-17 13:24:05.796875
901,49.85,2022-08-17 13:24:05.812500
902,42.97,2022-08-17 13:24:05.828125
903,35.58,2022-08-17 13:24:05.843750
904,28.36,2022-08-17 13:24:05.859375
905,21.83,2022-08-17 13:24:05.875000
906,16.31,2022-08-17 13:24:05.890625
907,11.91,2022-08-17 13:24:05.906250
908,8.61,2022-08-17 13:24:05.921875
909,6.38,2022-08-17 13:24:05.937500
910,5.05,2022-08-17 13:24:05.953125
911,4.39,2022-08-17 13:24:05.968750
912,3.97,2022-08-17 13:24:05.984375
913,3.22,2022-08-17 13:24:06.000000
914,1.56,2022-08-17 13:24:06.015625
915,-1.53,2022-08-17 13:24:06.031250
916,-6.22,2022-08-17 13:24:06.046875
917,-12.32,2022-08-17 13:24:06.062500
918,-19.26,2022-08-17 13:24:06.078125
919,-26.28,2022-08-17 13:24:06.093750
920,-32.66,2022-08-17 13:24:06.109375
921,-38.06,2022-08-17 13:24:06.125000
922,-42.63,2022-08-17 13:24:06.140625
923,-46.99,2022-08-17 13:24:06.156250
924,-52.0,2022-08-17 13:24:06.171875
925,-58.4,2022-08-17 13:24:06.187500
926,-66.37,2022-08-17 13:24:06.203125
927,-75.25,2022-08-17 13:24:06.218750
928,-83.43,2022-08-17 13:24:06.234375
929,-88.57,2022-08-17 13:24:06.250000
930,-88.25,2022-08-17 13:24:06.265625
931,-80.74,2022-08-17 13:24:06.281250
932,-65.61,2022-08-17 13:24:06.296875
933,-44.14,2022-08-17 13:24:06.312500
934,-18.94,2022-08-17 13:24:06.328125
935,6.76,2022-08-17 13:24:06.343750
936,29.93,2022-08-17 13:24:06.359375
937,48.61,2022-08-17 13:24:06.375000
938,62.02,2022-08-17 13:24:06.390625
939,70.34,2022-08-17 13:24:06.406250
940,74.23,2022-08-17 13:24:06.421875
941,74.37,2022-08-17 13:24:06.437500
942,71.27,2022-08-17 13:24:06.453125
943,65.46,2022-08-17 13:24:06.468750
944,57.66,2022-08-17 13:24:06.484375
945,48.84,2022-08-17 13:24:06.500000
946,40.1,2022-08-17 13:24:06.515625
947,32.37,2022-08-17 13:24:06.531250
948,26.18,2022-08-17 13:24:06.546875
949,21.58,2022-08-17 13:24:06.562500
950,18.3,2022-08-17 13:24:06.578125
951,15.96,2022-08-17 13:24:06.593750
952,14.31,2022-08-17 13:24:06.609375
953,13.23,2022-08-17 13:24:06.625000
954,12.63,2022-08-17 13:24:06.640625
955,12.27,2022-08-17 13:24:06.656250
956,11.74,2022-08-17 13:24:06.671875
957,10.44,2022-08-17 13:24:06.687500
958,7.81,2022-08-17 13:24:06.703125
959,3.5,2022-08-17 13:24:06.718750
960,-2.4,2022-08-17 13:24:06.734375
961,-9.44,2022-08-17 13:24:06.750000
962,-16.87,2022-08-17 13:24:06.765625
963,-23.94,2022-08-17 13:24:06.781250
964,-30.04,2022-08-17 13:24:06.796875
965,-34.94,2022-08-17 13:24:06.812500
966,-38.87,2022-08-17 13:24:06.828125
967,-42.48,2022-08-17 13:24:06.843750
968,-46.64,2022-08-17 13:24:06.859375
969,-52.1,2022-08-17 13:24:06.875000
970,-59.23,2022-08-17 13:24:06.890625
971,-67.53,2022-08-17 13:24:06.906250
972,-75.63,2022-08-17 13:24:06.921875
973,-81.31,2022-08-17 13:24:06.937500
974,-82.11,2022-08-17 13:24:06.953125
975,-76.05,2022-08-17 13:24:06.968750
976,-62.46,2022-08-17 13:24:06.984375
977,-42.3,2022-08-17 13:24:07.000000
978,-18.01,2022-08-17 13:24:07.015625
979,7.11,2022-08-17 13:24:07.031250
980,29.97,2022-08-17 13:24:07.046875
981,48.4,2022-08-17 13:24:07.062500
982,61.54,2022-08-17 13:24:07.078125
983,69.61,2022-08-17 13:24:07.093750
984,73.38,2022-08-17 13:24:07.109375
985,73.61,2022-08-17 13:24:07.125000
986,70.85,2022-08-17 13:24:07.140625
987,65.5,2022-08-17 13:24:07.156250
988,58.09,2022-08-17 13:24:07.171875
989,49.53,2022-08-17 13:24:07.187500
990,41.0,2022-08-17 13:24:07.203125
991,33.67,2022-08-17 13:24:07.218750
992,28.25,2022-08-17 13:24:07.234375
993,24.79,2022-08-17 13:24:07.250000
994,22.73,2022-08-17 13:24:07.265625
995,21.31,2022-08-17 13:24:07.281250
996,19.87,2022-08-17 13:24:07.296875
997,18.23,2022-08-17 13:24:07.312500
998,16.58,2022-08-17 13:24:07.328125
999,15.26,2022-08-17 13:24:07.343750
1000,14.39,2022-08-17 13:24:07.359375
1001,13.73,2022-08-17 13:24:07.375000
1002,12.57,2022-08-17 13:24:07.390625
1003,10.15,2022-08-17 13:24:07.406250
1004,5.88,2022-08-17 13:24:07.421875
1005,-0.31,2022-08-17 13:24:07.437500
1006,-7.88,2022-08-17 13:24:07.453125
1007,-15.91,2022-08-17 13:24:07.468750
1008,-23.36,2022-08-17 13:24:07.484375
1009,-29.47,2022-08-17 13:24:07.500000
1010,-33.97,2022-08-17 13:24:07.515625
1011,-37.13,2022-08-17 13:24:07.531250
1012,-39.64,2022-08-17 13:24:07.546875
1013,-42.44,2022-08-17 13:24:07.562500
1014,-46.4,2022-08-17 13:24:07.578125
1015,-52.1,2022-08-17 13:24:07.593750
1016,-59.49,2022-08-17 13:24:07.609375
1017,-67.72,2022-08-17 13:24:07.625000
1018,-75.06,2022-08-17 13:24:07.640625
1019,-79.13,2022-08-17 13:24:07.656250
1020,-77.49,2022-08-17 13:24:07.671875
1021,-68.45,2022-08-17 13:24:07.687500
1022,-51.74,2022-08-17 13:24:07.703125
1023,-28.74,2022-08-17 13:24:07.718750
1024,-2.21,2022-08-17 13:24:07.734375
1025,24.42,2022-08-17 13:24:07.750000
1026,47.96,2022-08-17 13:24:07.765625
1027,66.14,2022-08-17 13:24:07.781250
1028,77.87,2022-08-17 13:24:07.796875
1029,83.16,2022-08-17 13:24:07.812500
1030,82.63,2022-08-17 13:24:07.828125
1031,77.18,2022-08-17 13:24:07.843750
1032,67.8,2022-08-17 13:24:07.859375
1033,55.53,2022-08-17 13:24:07.875000
1034,41.57,2022-08-17 13:24:07.890625
1035,27.3,2022-08-17 13:24:07.906250
1036,14.23,2022-08-17 13:24:07.921875
1037,3.76,2022-08-17 13:24:07.937500
1038,-3.25,2022-08-17 13:24:07.953125
1039,-6.76,2022-08-17 13:24:07.968750
1040,-7.57,2022-08-17 13:24:07.984375
1041,-7.02,2022-08-17 13:24:08.000000
1042,-6.36,2022-08-17 13:24:08.015625
1043,-6.21,2022-08-17 13:24:08.031250
1044,-6.22,2022-08-17 13:24:08.046875
1045,-5.46,2022-08-17 13:24:08.062500
1046,-2.99,2022-08-17 13:24:08.078125
1047,1.41,2022-08-17 13:24:08.093750
1048,6.9,2022-08-17 13:24:08.109375
1049,11.76,2022-08-17 13:24:08.125000
1050,14.05,2022-08-17 13:24:08.140625
1051,12.45,2022-08-17 13:24:08.156250
1052,6.75,2022-08-17 13:24:08.171875
1053,-2.13,2022-08-17 13:24:08.187500
1054,-12.54,2022-08-17 13:24:08.203125
1055,-22.8,2022-08-17 13:24:08.218750
1056,-31.59,2022-08-17 13:24:08.234375
1057,-38.25,2022-08-17 13:24:08.250000
1058,-42.72,2022-08-17 13:24:08.265625
1059,-45.45,2022-08-17 13:24:08.281250
1060,-47.19,2022-08-17 13:24:08.296875
1061,-48.91,2022-08-17 13:24:08.312500
1062,-51.62,2022-08-17 13:24:08.328125
1063,-56.01,2022-08-17 13:24:08.343750
1064,-62.09,2022-08-17 13:24:08.359375
1065,-68.8,2022-08-17 13:24:08.375000
1066,-74.06,2022-08-17 13:24:08.390625
1067,-75.23,2022-08-17 13:24:08.406250
1068,-69.91,2022-08-17 13:24:08.421875
1069,-56.89,2022-08-17 13:24:08.437500
1070,-36.76,2022-08-17 13:24:08.453125
1071,-11.87,2022-08-17 13:24:08.468750
1072,14.36,2022-08-17 13:24:08.484375
1073,38.41,2022-08-17 13:24:08.500000
1074,57.65,2022-08-17 13:24:08.515625
1075,70.77,2022-08-17 13:24:08.531250
1076,77.85,2022-08-17 13:24:08.546875
1077,79.75,2022-08-17 13:24:08.562500
1078,77.61,2022-08-17 13:24:08.578125
1079,72.4,2022-08-17 13:24:08.593750
1080,64.89,2022-08-17 13:24:08.609375
1081,55.83,2022-08-17 13:24:08.625000
1082,46.13,2022-08-17 13:24:08.640625
1083,36.86,2022-08-17 13:24:08.656250
1084,29.08,2022-08-17 13:24:08.671875
1085,23.58,2022-08-17 13:24:08.687500
1086,20.46,2022-08-17 13:24:08.703125
1087,19.23,2022-08-17 13:24:08.718750
1088,18.98,2022-08-17 13:24:08.734375
1089,18.81,2022-08-17 13:24:08.750000
1090,18.18,2022-08-17 13:24:08.765625
1091,17.04,2022-08-17 13:24:08.781250
1092,15.74,2022-08-17 13:24:08.796875
1093,14.76,2022-08-17 13:24:08.812500
1094,14.32,2022-08-17 13:24:08.828125
1095,14.22,2022-08-17 13:24:08.843750
1096,13.83,2022-08-17 13:24:08.859375
1097,12.41,2022-08-17 13:24:08.875000
1098,9.39,2022-08-17 13:24:08.890625
1099,4.66,2022-08-17 13:24:08.906250
1100,-1.39,2022-08-17 13:24:08.921875
1101,-8.06,2022-08-17 13:24:08.937500
1102,-14.6,2022-08-17 13:24:08.953125
1103,-20.48,2022-08-17 13:24:08.968750
1104,-25.55,2022-08-17 13:24:08.984375
1105,-29.96,2022-08-17 13:24:09.000000
1106,-34.17,2022-08-17 13:24:09.015625
1107,-38.73,2022-08-17 13:24:09.031250
1108,-44.31,2022-08-17 13:24:09.046875
1109,-51.4,2022-08-17 13:24:09.062500
1110,-60.18,2022-08-17 13:24:09.078125
1111,-70.11,2022-08-17 13:24:09.093750
1112,-79.67,2022-08-17 13:24:09.109375
1113,-86.53,2022-08-17 13:24:09.125000
1114,-88.0,2022-08-17 13:24:09.140625
1115,-81.95,2022-08-17 13:24:09.156250
1116,-67.73,2022-08-17 13:24:09.171875
1117,-46.44,2022-08-17 13:24:09.187500
1118,-20.79,2022-08-17 13:24:09.203125
1119,5.76,2022-08-17 13:24:09.218750
1120,29.98,2022-08-17 13:24:09.234375
1121,49.61,2022-08-17 13:24:09.250000
1122,63.77,2022-08-17 13:24:09.265625
1123,72.61,2022-08-17 13:24:09.281250
1124,76.84,2022-08-17 13:24:09.296875
1125,77.24,2022-08-17 13:24:09.312500
1126,74.42,2022-08-17 13:24:09.328125
1127,68.97,2022-08-17 13:24:09.343750
1128,61.54,2022-08-17 13:24:09.359375
1129,53.05,2022-08-17 13:24:09.375000
1130,44.56,2022-08-17 13:24:09.390625
1131,37.13,2022-08-17 13:24:09.406250
1132,31.47,2022-08-17 13:24:09.421875
1133,27.78,2022-08-17 13:24:09.437500
1134,25.76,2022-08-17 13:24:09.453125
1135,24.74,2022-08-17 13:24:09.468750
1136,24.03,2022-08-17 13:24:09.484375
1137,23.11,2022-08-17 13:24:09.500000
1138,21.79,2022-08-17 13:24:09.515625
1139,20.2,2022-08-17 13:24:09.531250
1140,18.56,2022-08-17 13:24:09.546875
1141,17.0,2022-08-17 13:24:09.562500
1142,15.38,2022-08-17 13:24:09.578125
1143,13.3,2022-08-17 13:24:09.593750
1144,10.21,2022-08-17 13:24:09.609375
1145,5.72,2022-08-17 13:24:09.625000
1146,-0.2,2022-08-17 13:24:09.640625
1147,-7.11,2022-08-17 13:24:09.656250
1148,-14.24,2022-08-17 13:24:09.671875
1149,-20.81,2022-08-17 13:24:09.687500
1150,-26.24,2022-08-17 13:24:09.703125
1151,-30.45,2022-08-17 13:24:09.718750
1152,-33.7,2022-08-17 13:24:09.734375
1153,-36.57,2022-08-17 13:24:09.750000
1154,-39.77,2022-08-17 13:24:09.765625
1155,-44.0,2022-08-17 13:24:09.781250
1156,-49.8,2022-08-17 13:24:09.796875
1157,-57.4,2022-08-17 13:24:09.812500
1158,-66.44,2022-08-17 13:24:09.828125
1159,-75.63,2022-08-17 13:24:09.843750
1160,-82.85,2022-08-17 13:24:09.859375
1161,-85.45,2022-08-17 13:24:09.875000
1162,-81.16,2022-08-17 13:24:09.890625
1163,-68.87,2022-08-17 13:24:09.906250
1164,-49.24,2022-08-17 13:24:09.921875
1165,-24.67,2022-08-17 13:24:09.937500
1166,1.45,2022-08-17 13:24:09.953125
1167,25.72,2022-08-17 13:24:09.968750
1168,45.68,2022-08-17 13:24:09.984375
1169,60.27,2022-08-17 13:24:10.000000
1170,69.59,2022-08-17 13:24:10.015625
1171,74.4,2022-08-17 13:24:10.031250
1172,75.47,2022-08-17 13:24:10.046875
1173,73.34,2022-08-17 13:24:10.062500
1174,68.37,2022-08-17 13:24:10.078125
1175,61.02,2022-08-17 13:24:10.093750
1176,52.1,2022-08-17 13:24:10.109375
1177,42.84,2022-08-17 13:24:10.125000
1178,34.58,2022-08-17 13:24:10.140625
1179,28.4,2022-08-17 13:24:10.156250
1180,24.71,2022-08-17 13:24:10.171875
1181,23.18,2022-08-17 13:24:10.187500
1182,22.91,2022-08-17 13:24:10.203125
1183,22.88,2022-08-17 13:24:10.218750
1184,22.35,2022-08-17 13:24:10.234375
1185,21.09,2022-08-17 13:24:10.250000
1186,19.33,2022-08-17 13:24:10.265625
1187,17.55,2022-08-17 13:24:10.281250
1188,16.13,2022-08-17 13:24:10.296875
1189,15.17,2022-08-17 13:24:10.312500
1190,14.34,2022-08-17 13:24:10.328125
1191,13.06,2022-08-17 13:24:10.343750
1192,10.62,2022-08-17 13:24:10.359375
1193,6.58,2022-08-17 13:24:10.375000
1194,0.86,2022-08-17 13:24:10.390625
1195,-6.07,2022-08-17 13:24:10.406250
1196,-13.41,2022-08-17 13:24:10.421875
1197,-20.22,2022-08-17 13:24:10.437500
1198,-25.79,2022-08-17 13:24:10.453125
1199,-29.9,2022-08-17 13:24:10.468750
1200,-32.84,2022-08-17 13:24:10.484375
1201,-35.37,2022-08-17 13:24:10.500000
1202,-38.44,2022-08-17 13:24:10.515625
1203,-42.94,2022-08-17 13:24:10.531250
1204,-49.33,2022-08-17 13:24:10.546875
1205,-57.42,2022-08-17 13:24:10.562500
1206,-66.04,2022-08-17 13:24:10.578125
1207,-73.12,2022-08-17 13:24:10.593750
1208,-76.02,2022-08-17 13:24:10.609375
1209,-72.25,2022-08-17 13:24:10.625000
1210,-60.32,2022-08-17 13:24:10.640625
1211,-40.5,2022-08-17 13:24:10.656250
1212,-14.92,2022-08-17 13:24:10.671875
1213,12.95,2022-08-17 13:24:10.687500
1214,39.23,2022-08-17 13:24:10.703125
1215,60.7,2022-08-17 13:24:10.718750
1216,75.54,2022-08-17 13:24:10.734375
1217,83.5,2022-08-17 13:24:10.750000
1218,85.48,2022-08-17 13:24:10.765625
1219,83.03,2022-08-17 13:24:10.781250
1220,77.59,2022-08-17 13:24:10.796875
1221,70.28,2022-08-17 13:24:10.812500
1222,61.78,2022-08-17 13:24:10.828125
1223,52.71,2022-08-17 13:24:10.843750
1224,43.76,2022-08-17 13:24:10.859375
1225,35.86,2022-08-17 13:24:10.875000
1226,30.08,2022-08-17 13:24:10.890625
1227,27.21,2022-08-17 13:24:10.906250
1228,27.49,2022-08-17 13:24:10.921875
1229,30.36,2022-08-17 13:24:10.937500
1230,34.73,2022-08-17 13:24:10.953125
1231,39.36,2022-08-17 13:24:10.968750
1232,43.26,2022-08-17 13:24:10.984375
1233,46.03,2022-08-17 13:24:11.000000
1234,47.68,2022-08-17 13:24:11.015625
1235,48.36,2022-08-17 13:24:11.031250
1236,47.95,2022-08-17 13:24:11.046875
1237,45.99,2022-08-17 13:24:11.062500
1238,41.83,2022-08-17 13:24:11.078125
1239,34.98,2022-08-17 13:24:11.093750
1240,25.57,2022-08-17 13:24:11.109375
1241,14.45,2022-08-17 13:24:11.125000
1242,3.02,2022-08-17 13:24:11.140625
1243,-7.21,2022-08-17 13:24:11.156250
1244,-15.17,2022-08-17 13:24:11.171875
1245,-20.6,2022-08-17 13:24:11.187500
1246,-24.11,2022-08-17 13:24:11.203125
1247,-26.9,2022-08-17 13:24:11.218750
1248,-30.35,2022-08-17 13:24:11.234375
1249,-35.58,2022-08-17 13:24:11.250000
1250,-43.19,2022-08-17 13:24:11.265625
1251,-53.05,2022-08-17 13:24:11.281250
1252,-64.2,2022-08-17 13:24:11.296875
1253,-74.88,2022-08-17 13:24:11.312500
1254,-82.71,2022-08-17 13:24:11.328125
1255,-85.19,2022-08-17 13:24:11.343750
1256,-80.37,2022-08-17 13:24:11.359375
1257,-67.57,2022-08-17 13:24:11.375000
1258,-47.67,2022-08-17 13:24:11.390625
1259,-23.0,2022-08-17 13:24:11.406250
1260,3.37,2022-08-17 13:24:11.421875
1261,28.44,2022-08-17 13:24:11.437500
1262,49.91,2022-08-17 13:24:11.453125
1263,66.51,2022-08-17 13:24:11.468750
1264,77.71,2022-08-17 13:24:11.484375
1265,83.51,2022-08-17 13:24:11.500000
1266,84.24,2022-08-17 13:24:11.515625
1267,80.44,2022-08-17 13:24:11.531250
1268,72.99,2022-08-17 13:24:11.546875
1269,63.07,2022-08-17 13:24:11.562500
1270,51.95,2022-08-17 13:24:11.578125
1271,40.71,2022-08-17 13:24:11.593750
1272,30.03,2022-08-17 13:24:11.609375
1273,20.03,2022-08-17 13:24:11.625000
1274,10.42,2022-08-17 13:24:11.640625
1275,0.72,2022-08-17 13:24:11.656250
1276,-9.29,2022-08-17 13:24:11.671875
1277,-19.45,2022-08-17 13:24:11.687500
1278,-28.92,2022-08-17 13:24:11.703125
1279,-36.35,2022-08-17 13:24:11.718750
1280,-40.26,2022-08-17 13:24:11.734375
1281,-39.63,2022-08-17 13:24:11.750000
1282,-34.59,2022-08-17 13:24:11.765625
1283,-26.88,2022-08-17 13:24:11.781250
1284,-19.71,2022-08-17 13:24:11.796875
1285,-16.95,2022-08-17 13:24:11.812500
1286,-21.89,2022-08-17 13:24:11.828125
1287,-35.89,2022-08-17 13:24:11.843750
1288,-57.67,2022-08-17 13:24:11.859375
1289,-83.6,2022-08-17 13:24:11.875000
1290,-108.8,2022-08-17 13:24:11.890625
1291,-128.78,2022-08-17 13:24:11.906250
1292,-140.8,2022-08-17 13:24:11.921875
1293,-144.68,2022-08-17 13:24:11.937500
1294,-142.47,2022-08-17 13:24:11.953125
1295,-137.48,2022-08-17 13:24:11.968750
1296,-132.93,2022-08-17 13:24:11.984375
1297,-130.66,2022-08-17 13:24:12.000000
1298,-130.42,2022-08-17 13:24:12.015625
1299,-129.9,2022-08-17 13:24:12.031250
1300,-125.57,2022-08-17 13:24:12.046875
1301,-114.01,2022-08-17 13:24:12.062500
1302,-93.23,2022-08-17 13:24:12.078125
1303,-63.6,2022-08-17 13:24:12.093750
1304,-27.94,2022-08-17 13:24:12.109375
1305,9.3,2022-08-17 13:24:12.125000
1306,43.34,2022-08-17 13:24:12.140625
1307,70.34,2022-08-17 13:24:12.156250
1308,88.26,2022-08-17 13:24:12.171875
1309,96.96,2022-08-17 13:24:12.187500
1310,97.68,2022-08-17 13:24:12.203125
1311,92.45,2022-08-17 13:24:12.218750
1312,83.37,2022-08-17 13:24:12.234375
1313,72.33,2022-08-17 13:24:12.250000
1314,60.86,2022-08-17 13:24:12.265625
1315,50.16,2022-08-17 13:24:12.281250
1316,41.04,2022-08-17 13:24:12.296875
1317,33.91,2022-08-17 13:24:12.312500
1318,28.65,2022-08-17 13:24:12.328125
1319,24.77,2022-08-17 13:24:12.343750
1320,21.55,2022-08-17 13:24:12.359375
1321,18.42,2022-08-17 13:24:12.375000
1322,15.22,2022-08-17 13:24:12.390625
1323,12.22,2022-08-17 13:24:12.406250
1324,10.05,2022-08-17 13:24:12.421875
1325,9.23,2022-08-17 13:24:12.437500
1326,9.78,2022-08-17 13:24:12.453125
1327,11.08,2022-08-17 13:24:12.468750
1328,12.04,2022-08-17 13:24:12.484375
1329,11.47,2022-08-17 13:24:12.500000
1330,8.64,2022-08-17 13:24:12.515625
1331,3.56,2022-08-17 13:24:12.531250
1332,-3.04,2022-08-17 13:24:12.546875
1333,-10.01,2022-08-17 13:24:12.562500
1334,-16.32,2022-08-17 13:24:12.578125
1335,-21.44,2022-08-17 13:24:12.593750
1336,-25.61,2022-08-17 13:24:12.609375
1337,-29.67,2022-08-17 13:24:12.625000
1338,-34.85,2022-08-17 13:24:12.640625
1339,-42.23,2022-08-17 13:24:12.656250
1340,-52.32,2022-08-17 13:24:12.671875
1341,-64.57,2022-08-17 13:24:12.687500
1342,-77.19,2022-08-17 13:24:12.703125
1343,-87.32,2022-08-17 13:24:12.718750
1344,-91.68,2022-08-17 13:24:12.734375
1345,-87.6,2022-08-17 13:24:12.750000
1346,-74.01,2022-08-17 13:24:12.765625
1347,-52.03,2022-08-17 13:24:12.781250
1348,-24.69,2022-08-17 13:24:12.796875
1349,3.86,2022-08-17 13:24:12.812500
1350,29.68,2022-08-17 13:24:12.828125
1351,50.02,2022-08-17 13:24:12.843750
1352,63.8,2022-08-17 13:24:12.859375
1353,71.31,2022-08-17 13:24:12.875000
1354,73.66,2022-08-17 13:24:12.890625
1355,71.99,2022-08-17 13:24:12.906250
1356,67.26,2022-08-17 13:24:12.921875
1357,60.19,2022-08-17 13:24:12.937500
1358,51.48,2022-08-17 13:24:12.953125
1359,41.96,2022-08-17 13:24:12.968750
1360,32.55,2022-08-17 13:24:12.984375
1361,24.07,2022-08-17 13:24:13.000000
1362,17.13,2022-08-17 13:24:13.015625
1363,11.94,2022-08-17 13:24:13.031250
1364,8.47,2022-08-17 13:24:13.046875
1365,6.51,2022-08-17 13:24:13.062500
1366,5.86,2022-08-17 13:24:13.078125
1367,6.36,2022-08-17 13:24:13.093750
1368,7.72,2022-08-17 13:24:13.109375
1369,9.46,2022-08-17 13:24:13.125000
1370,10.81,2022-08-17 13:24:13.140625
1371,10.87,2022-08-17 13:24:13.156250
1372,8.86,2022-08-17 13:24:13.171875
1373,4.43,2022-08-17 13:24:13.187500
1374,-2.16,2022-08-17 13:24:13.203125
1375,-10.1,2022-08-17 13:24:13.218750
1376,-18.34,2022-08-17 13:24:13.234375
1377,-25.97,2022-08-17 13:24:13.250000
1378,-32.58,2022-08-17 13:24:13.265625
1379,-38.46,2022-08-17 13:24:13.281250
1380,-44.48,2022-08-17 13:24:13.296875
1381,-51.8,2022-08-17 13:24:13.312500
1382,-61.4,2022-08-17 13:24:13.328125
1383,-73.42,2022-08-17 13:24:13.343750
1384,-86.9,2022-08-17 13:24:13.359375
1385,-99.54,2022-08-17 13:24:13.375000
1386,-108.19,2022-08-17 13:24:13.390625
1387,-109.54,2022-08-17 13:24:13.406250
1388,-101.32,2022-08-17 13:24:13.421875
1389,-83.09,2022-08-17 13:24:13.437500
1390,-56.58,2022-08-17 13:24:13.453125
1391,-25.31,2022-08-17 13:24:13.468750
1392,6.43,2022-08-17 13:24:13.484375
1393,34.75,2022-08-17 13:24:13.500000
1394,57.0,2022-08-17 13:24:13.515625
1395,72.14,2022-08-17 13:24:13.531250
1396,80.5,2022-08-17 13:24:13.546875
1397,83.17,2022-08-17 13:24:13.562500
1398,81.51,2022-08-17 13:24:13.578125
1399,76.73,2022-08-17 13:24:13.593750
1400,69.9,2022-08-17 13:24:13.609375
1401,61.89,2022-08-17 13:24:13.625000
1402,53.55,2022-08-17 13:24:13.640625
1403,45.57,2022-08-17 13:24:13.656250
1404,38.44,2022-08-17 13:24:13.671875
1405,32.36,2022-08-17 13:24:13.687500
1406,27.3,2022-08-17 13:24:13.703125
1407,23.13,2022-08-17 13:24:13.718750
1408,19.82,2022-08-17 13:24:13.734375
1409,17.51,2022-08-17 13:24:13.750000
1410,16.36,2022-08-17 13:24:13.765625
1411,16.3,2022-08-17 13:24:13.781250
1412,16.85,2022-08-17 13:24:13.796875
1413,17.09,2022-08-17 13:24:13.812500
1414,15.91,2022-08-17 13:24:13.828125
1415,12.47,2022-08-17 13:24:13.843750
1416,6.55,2022-08-17 13:24:13.859375
1417,-1.33,2022-08-17 13:24:13.875000
1418,-10.13,2022-08-17 13:24:13.890625
1419,-18.69,2022-08-17 13:24:13.906250
1420,-26.23,2022-08-17 13:24:13.921875
1421,-32.58,2022-08-17 13:24:13.937500
1422,-38.24,2022-08-17 13:24:13.953125
1423,-44.2,2022-08-17 13:24:13.968750
1424,-51.66,2022-08-17 13:24:13.984375
1425,-61.57,2022-08-17 13:24:14.000000
1426,-74.18,2022-08-17 13:24:14.015625
1427,-88.59,2022-08-17 13:24:14.031250
1428,-102.54,2022-08-17 13:24:14.046875
1429,-112.72,2022-08-17 13:24:14.062500
1430,-115.59,2022-08-17 13:24:14.078125
1431,-108.46,2022-08-17 13:24:14.093750
1432,-90.59,2022-08-17 13:24:14.109375
1433,-63.58,2022-08-17 13:24:14.125000
1434,-31.05,2022-08-17 13:24:14.140625
1435,2.45,2022-08-17 13:24:14.156250
1436,32.82,2022-08-17 13:24:14.171875
1437,57.34,2022-08-17 13:24:14.187500
1438,75.04,2022-08-17 13:24:14.203125
1439,86.34,2022-08-17 13:24:14.218750
1440,92.25,2022-08-17 13:24:14.234375
1441,93.86,2022-08-17 13:24:14.250000
1442,92.01,2022-08-17 13:24:14.265625
1443,87.35,2022-08-17 13:24:14.281250
1444,80.65,2022-08-17 13:24:14.296875
1445,72.85,2022-08-17 13:24:14.312500
1446,64.98,2022-08-17 13:24:14.328125
1447,57.89,2022-08-17 13:24:14.343750
1448,52.0,2022-08-17 13:24:14.359375
1449,47.35,2022-08-17 13:24:14.375000
1450,43.61,2022-08-17 13:24:14.390625
1451,40.47,2022-08-17 13:24:14.406250
1452,37.78,2022-08-17 13:24:14.421875
1453,35.57,2022-08-17 13:24:14.437500
1454,33.94,2022-08-17 13:24:14.453125
1455,32.79,2022-08-17 13:24:14.468750
1456,31.73,2022-08-17 13:24:14.484375
1457,30.04,2022-08-17 13:24:14.500000
1458,26.89,2022-08-17 13:24:14.515625
1459,21.68,2022-08-17 13:24:14.531250
1460,14.2,2022-08-17 13:24:14.546875
1461,4.84,2022-08-17 13:24:14.562500
1462,-5.51,2022-08-17 13:24:14.578125
1463,-15.68,2022-08-17 13:24:14.593750
1464,-24.71,2022-08-17 13:24:14.609375
1465,-32.16,2022-08-17 13:24:14.625000
1466,-38.34,2022-08-17 13:24:14.640625
1467,-44.31,2022-08-17 13:24:14.656250
1468,-51.52,2022-08-17 13:24:14.671875
1469,-61.31,2022-08-17 13:24:14.687500
1470,-74.23,2022-08-17 13:24:14.703125
1471,-89.51,2022-08-17 13:24:14.718750
1472,-104.83,2022-08-17 13:24:14.734375
1473,-116.67,2022-08-17 13:24:14.750000
1474,-121.19,2022-08-17 13:24:14.765625
1475,-115.4,2022-08-17 13:24:14.781250
1476,-98.25,2022-08-17 13:24:14.796875
1477,-71.2,2022-08-17 13:24:14.812500
1478,-37.85,2022-08-17 13:24:14.828125
1479,-2.88,2022-08-17 13:24:14.843750
1480,29.25,2022-08-17 13:24:14.859375
1481,55.51,2022-08-17 13:24:14.875000
1482,74.7,2022-08-17 13:24:14.890625
1483,87.06,2022-08-17 13:24:14.906250
1484,93.65,2022-08-17 13:24:14.921875
1485,95.57,2022-08-17 13:24:14.937500
1486,93.68,2022-08-17 13:24:14.953125
1487,88.63,2022-08-17 13:24:14.968750
1488,81.2,2022-08-17 13:24:14.984375
1489,72.5,2022-08-17 13:24:15.000000
1490,63.89,2022-08-17 13:24:15.015625
1491,56.67,2022-08-17 13:24:15.031250
1492,51.69,2022-08-17 13:24:15.046875
1493,49.07,2022-08-17 13:24:15.062500
1494,48.16,2022-08-17 13:24:15.078125
1495,47.92,2022-08-17 13:24:15.093750
1496,47.35,2022-08-17 13:24:15.109375
1497,45.92,2022-08-17 13:24:15.125000
1498,43.77,2022-08-17 13:24:15.140625
1499,41.44,2022-08-17 13:24:15.156250
1500,39.48,2022-08-17 13:24:15.171875
1501,37.95,2022-08-17 13:24:15.187500
1502,36.22,2022-08-17 13:24:15.203125
1503,33.17,2022-08-17 13:24:15.218750
1504,27.67,2022-08-17 13:24:15.234375
1505,19.19,2022-08-17 13:24:15.250000
1506,8.1,2022-08-17 13:24:15.265625
1507,-4.31,2022-08-17 13:24:15.281250
1508,-16.38,2022-08-17 13:24:15.296875
1509,-26.63,2022-08-17 13:24:15.312500
1510,-34.4,2022-08-17 13:24:15.328125
1511,-40.04,2022-08-17 13:24:15.343750
1512,-44.82,2022-08-17 13:24:15.359375
1513,-50.47,2022-08-17 13:24:15.375000
1514,-58.55,2022-08-17 13:24:15.390625
1515,-69.94,2022-08-17 13:24:15.406250
1516,-84.27,2022-08-17 13:24:15.421875
1517,-99.68,2022-08-17 13:24:15.437500
1518,-113.02,2022-08-17 13:24:15.453125
1519,-120.41,2022-08-17 13:24:15.468750
1520,-118.41,2022-08-17 13:24:15.484375
1521,-105.06,2022-08-17 13:24:15.500000
1522,-80.78,2022-08-17 13:24:15.515625
1523,-48.41,2022-08-17 13:24:15.531250
1524,-12.5,2022-08-17 13:24:15.546875
1525,22.01,2022-08-17 13:24:15.562500
1526,51.07,2022-08-17 13:24:15.578125
1527,72.46,2022-08-17 13:24:15.593750
1528,85.82,2022-08-17 13:24:15.609375
1529,92.1,2022-08-17 13:24:15.625000
1530,92.83,2022-08-17 13:24:15.640625
1531,89.47,2022-08-17 13:24:15.656250
1532,83.14,2022-08-17 13:24:15.671875
1533,74.88,2022-08-17 13:24:15.687500
1534,65.77,2022-08-17 13:24:15.703125
1535,57.0,2022-08-17 13:24:15.718750
1536,49.72,2022-08-17 13:24:15.734375
1537,44.68,2022-08-17 13:24:15.750000
1538,41.92,2022-08-17 13:24:15.765625
1539,40.85,2022-08-17 13:24:15.781250
1540,40.48,2022-08-17 13:24:15.796875
1541,39.92,2022-08-17 13:24:15.812500
1542,38.67,2022-08-17 13:24:15.828125
1543,36.83,2022-08-17 13:24:15.843750
1544,34.95,2022-08-17 13:24:15.859375
1545,33.54,2022-08-17 13:24:15.875000
1546,32.78,2022-08-17 13:24:15.890625
1547,32.16,2022-08-17 13:24:15.906250
1548,30.67,2022-08-17 13:24:15.921875
1549,27.15,2022-08-17 13:24:15.937500
1550,20.79,2022-08-17 13:24:15.953125
1551,11.62,2022-08-17 13:24:15.968750
1552,0.58,2022-08-17 13:24:15.984375
1553,-10.8,2022-08-17 13:24:16.000000
1554,-20.98,2022-08-17 13:24:16.015625
1555,-28.99,2022-08-17 13:24:16.031250
1556,-34.91,2022-08-17 13:24:16.046875
1557,-39.74,2022-08-17 13:24:16.062500
1558,-45.1,2022-08-17 13:24:16.078125
1559,-52.6,2022-08-17 13:24:16.093750
1560,-63.26,2022-08-17 13:24:16.109375
1561,-77.04,2022-08-17 13:24:16.125000
1562,-92.56,2022-08-17 13:24:16.140625
1563,-107.21,2022-08-17 13:24:16.156250
1564,-117.5,2022-08-17 13:24:16.171875
1565,-119.95,2022-08-17 13:24:16.187500
1566,-112.15,2022-08-17 13:24:16.203125
1567,-93.6,2022-08-17 13:24:16.218750
1568,-66.06,2022-08-17 13:24:16.234375
1569,-33.21,2022-08-17 13:24:16.250000
1570,0.49,2022-08-17 13:24:16.265625
1571,30.93,2022-08-17 13:24:16.281250
1572,55.43,2022-08-17 13:24:16.296875
1573,72.98,2022-08-17 13:24:16.312500
1574,83.92,2022-08-17 13:24:16.328125
1575,89.25,2022-08-17 13:24:16.343750
1576,90.04,2022-08-17 13:24:16.359375
1577,87.16,2022-08-17 13:24:16.375000
1578,81.29,2022-08-17 13:24:16.390625
1579,73.2,2022-08-17 13:24:16.406250
1580,63.94,2022-08-17 13:24:16.421875
1581,54.77,2022-08-17 13:24:16.437500
1582,46.89,2022-08-17 13:24:16.453125
1583,41.05,2022-08-17 13:24:16.468750
1584,37.41,2022-08-17 13:24:16.484375
1585,35.54,2022-08-17 13:24:16.500000
1586,34.67,2022-08-17 13:24:16.515625
1587,34.08,2022-08-17 13:24:16.531250
1588,33.41,2022-08-17 13:24:16.546875
1589,32.71,2022-08-17 13:24:16.562500
1590,32.2,2022-08-17 13:24:16.578125
1591,31.96,2022-08-17 13:24:16.593750
1592,31.55,2022-08-17 13:24:16.609375
1593,30.07,2022-08-17 13:24:16.625000
1594,26.42,2022-08-17 13:24:16.640625
1595,19.82,2022-08-17 13:24:16.656250
1596,10.29,2022-08-17 13:24:16.671875
1597,-1.21,2022-08-17 13:24:16.687500
1598,-13.15,2022-08-17 13:24:16.703125
1599,-23.92,2022-08-17 13:24:16.718750
1600,-32.51,2022-08-17 13:24:16.734375
1601,-38.87,2022-08-17 13:24:16.750000
1602,-43.93,2022-08-17 13:24:16.765625
1603,-49.23,2022-08-17 13:24:16.781250
1604,-56.44,2022-08-17 13:24:16.796875
1605,-66.73,2022-08-17 13:24:16.812500
1606,-80.3,2022-08-17 13:24:16.828125
1607,-96.05,2022-08-17 13:24:16.843750
1608,-111.44,2022-08-17 13:24:16.859375
1609,-122.94,2022-08-17 13:24:16.875000
1610,-126.8,2022-08-17 13:24:16.890625
1611,-120.21,2022-08-17 13:24:16.906250
1612,-102.36,2022-08-17 13:24:16.921875
1613,-74.91,2022-08-17 13:24:16.937500
1614,-41.69,2022-08-17 13:24:16.953125
1615,-7.42,2022-08-17 13:24:16.968750
1616,23.58,2022-08-17 13:24:16.984375
1617,48.6,2022-08-17 13:24:17.000000
1618,66.84,2022-08-17 13:24:17.015625
1619,78.95,2022-08-17 13:24:17.031250
1620,86.22,2022-08-17 13:24:17.046875
1621,89.68,2022-08-17 13:24:17.062500
1622,89.94,2022-08-17 13:24:17.078125
1623,87.22,2022-08-17 13:24:17.093750
1624,81.9,2022-08-17 13:24:17.109375
1625,74.66,2022-08-17 13:24:17.125000
1626,66.65,2022-08-17 13:24:17.140625
1627,59.14,2022-08-17 13:24:17.156250
1628,53.11,2022-08-17 13:24:17.171875
1629,48.99,2022-08-17 13:24:17.187500
1630,46.54,2022-08-17 13:24:17.203125
1631,45.11,2022-08-17 13:24:17.218750
1632,43.98,2022-08-17 13:24:17.234375
1633,42.68,2022-08-17 13:24:17.250000
1634,41.16,2022-08-17 13:24:17.265625
1635,39.67,2022-08-17 13:24:17.281250
1636,38.48,2022-08-17 13:24:17.296875
1637,37.47,2022-08-17 13:24:17.312500
1638,36.0,2022-08-17 13:24:17.328125
1639,33.06,2022-08-17 13:24:17.343750
1640,27.72,2022-08-17 13:24:17.359375
1641,19.46,2022-08-17 13:24:17.375000
1642,8.64,2022-08-17 13:24:17.390625
1643,-3.57,2022-08-17 13:24:17.406250
1644,-15.7,2022-08-17 13:24:17.421875
1645,-26.36,2022-08-17 13:24:17.437500
1646,-34.88,2022-08-17 13:24:17.453125
1647,-41.39,2022-08-17 13:24:17.468750
1648,-46.82,2022-08-17 13:24:17.484375
1649,-52.46,2022-08-17 13:24:17.500000
1650,-59.66,2022-08-17 13:24:17.515625
1651,-69.39,2022-08-17 13:24:17.531250
1652,-81.9,2022-08-17 13:24:17.546875
1653,-96.38,2022-08-17 13:24:17.562500
1654,-110.7,2022-08-17 13:24:17.578125
1655,-121.74,2022-08-17 13:24:17.593750
1656,-125.88,2022-08-17 13:24:17.609375
1657,-120.22,2022-08-17 13:24:17.625000
1658,-103.6,2022-08-17 13:24:17.640625
1659,-77.26,2022-08-17 13:24:17.656250
1660,-44.55,2022-08-17 13:24:17.671875
1661,-10.01,2022-08-17 13:24:17.687500
1662,22.0,2022-08-17 13:24:17.703125
1663,48.48,2022-08-17 13:24:17.718750
1664,68.24,2022-08-17 13:24:17.734375
1665,81.65,2022-08-17 13:24:17.750000
1666,89.93,2022-08-17 13:24:17.765625
1667,94.29,2022-08-17 13:24:17.781250
1668,95.59,2022-08-17 13:24:17.796875
1669,94.21,2022-08-17 13:24:17.812500
1670,90.42,2022-08-17 13:24:17.828125
1671,84.62,2022-08-17 13:24:17.843750
1672,77.55,2022-08-17 13:24:17.859375
1673,70.19,2022-08-17 13:24:17.875000
1674,63.56,2022-08-17 13:24:17.890625
1675,58.41,2022-08-17 13:24:17.906250
1676,55.02,2022-08-17 13:24:17.921875
1677,53.14,2022-08-17 13:24:17.937500
1678,52.17,2022-08-17 13:24:17.953125
1679,51.46,2022-08-17 13:24:17.968750
1680,50.45,2022-08-17 13:24:17.984375
1681,48.93,2022-08-17 13:24:18.000000
1682,46.93,2022-08-17 13:24:18.015625
1683,44.58,2022-08-17 13:24:18.031250
1684,41.92,2022-08-17 13:24:18.046875
1685,38.68,2022-08-17 13:24:18.062500
1686,34.46,2022-08-17 13:24:18.078125
1687,28.74,2022-08-17 13:24:18.093750
1688,21.21,2022-08-17 13:24:18.109375
1689,11.98,2022-08-17 13:24:18.125000
1690,1.57,2022-08-17 13:24:18.140625
1691,-9.19,2022-08-17 13:24:18.156250
1692,-19.42,2022-08-17 13:24:18.171875
1693,-28.43,2022-08-17 13:24:18.187500
1694,-35.94,2022-08-17 13:24:18.203125
1695,-42.1,2022-08-17 13:24:18.218750
1696,-47.49,2022-08-17 13:24:18.234375
1697,-52.98,2022-08-17 13:24:18.250000
1698,-59.61,2022-08-17 13:24:18.265625
1699,-68.32,2022-08-17 13:24:18.281250
1700,-79.68,2022-08-17 13:24:18.296875
1701,-93.35,2022-08-17 13:24:18.312500
1702,-107.79,2022-08-17 13:24:18.328125
1703,-120.21,2022-08-17 13:24:18.343750
1704,-127.08,2022-08-17 13:24:18.359375
1705,-125.16,2022-08-17 13:24:18.375000
1706,-112.54,2022-08-17 13:24:18.390625
1707,-89.56,2022-08-17 13:24:18.406250
1708,-58.81,2022-08-17 13:24:18.421875
1709,-24.43,2022-08-17 13:24:18.437500
1710,9.06,2022-08-17 13:24:18.453125
1711,38.07,2022-08-17 13:24:18.468750
1712,60.58,2022-08-17 13:24:18.484375
1713,76.25,2022-08-17 13:24:18.500000
1714,85.93,2022-08-17 13:24:18.515625
1715,90.91,2022-08-17 13:24:18.531250
1716,92.43,2022-08-17 13:24:18.546875
1717,91.35,2022-08-17 13:24:18.562500
1718,88.26,2022-08-17 13:24:18.578125
1719,83.63,2022-08-17 13:24:18.593750
1720,77.98,2022-08-17 13:24:18.609375
1721,71.91,2022-08-17 13:24:18.625000
1722,66.07,2022-08-17 13:24:18.640625
1723,61.01,2022-08-17 13:24:18.656250
1724,57.09,2022-08-17 13:24:18.671875
1725,54.37,2022-08-17 13:24:18.687500
1726,52.73,2022-08-17 13:24:18.703125
1727,51.88,2022-08-17 13:24:18.718750
1728,51.45,2022-08-17 13:24:18.734375
1729,51.0,2022-08-17 13:24:18.750000
1730,50.1,2022-08-17 13:24:18.765625
1731,48.36,2022-08-17 13:24:18.781250
1732,45.43,2022-08-17 13:24:18.796875
1733,41.2,2022-08-17 13:24:18.812500
1734,35.68,2022-08-17 13:24:18.828125
1735,29.14,2022-08-17 13:24:18.843750
1736,21.86,2022-08-17 13:24:18.859375
1737,14.1,2022-08-17 13:24:18.875000
1738,6.0,2022-08-17 13:24:18.890625
1739,-2.43,2022-08-17 13:24:18.906250
1740,-11.15,2022-08-17 13:24:18.921875
1741,-20.05,2022-08-17 13:24:18.937500
1742,-28.84,2022-08-17 13:24:18.953125
1743,-37.12,2022-08-17 13:24:18.968750
1744,-44.48,2022-08-17 13:24:18.984375
1745,-50.75,2022-08-17 13:24:19.000000
1746,-56.02,2022-08-17 13:24:19.015625
1747,-60.8,2022-08-17 13:24:19.031250
1748,-65.89,2022-08-17 13:24:19.046875
1749,-72.33,2022-08-17 13:24:19.062500
1750,-80.93,2022-08-17 13:24:19.078125
1751,-91.86,2022-08-17 13:24:19.093750
1752,-104.07,2022-08-17 13:24:19.109375
1753,-115.08,2022-08-17 13:24:19.125000
1754,-121.46,2022-08-17 13:24:19.140625
1755,-119.66,2022-08-17 13:24:19.156250
1756,-107.3,2022-08-17 13:24:19.171875
1757,-84.2,2022-08-17 13:24:19.187500
1758,-52.66,2022-08-17 13:24:19.203125
1759,-16.89,2022-08-17 13:24:19.218750
1760,18.24,2022-08-17 13:24:19.234375
1761,48.56,2022-08-17 13:24:19.250000
1762,71.6,2022-08-17 13:24:19.265625
1763,86.83,2022-08-17 13:24:19.281250
1764,95.26,2022-08-17 13:24:19.296875
1765,98.68,2022-08-17 13:24:19.312500
1766,98.82,2022-08-17 13:24:19.328125
1767,96.9,2022-08-17 13:24:19.343750
1768,93.52,2022-08-17 13:24:19.359375
1769,88.84,2022-08-17 13:24:19.375000
1770,82.88,2022-08-17 13:24:19.390625
1771,75.8,2022-08-17 13:24:19.406250
1772,68.03,2022-08-17 13:24:19.421875
1773,60.28,2022-08-17 13:24:19.437500
1774,53.27,2022-08-17 13:24:19.453125
1775,47.48,2022-08-17 13:24:19.468750
1776,43.01,2022-08-17 13:24:19.484375
1777,39.51,2022-08-17 13:24:19.500000
1778,36.37,2022-08-17 13:24:19.515625
1779,32.97,2022-08-17 13:24:19.531250
1780,28.88,2022-08-17 13:24:19.546875
1781,23.9,2022-08-17 13:24:19.562500
1782,18.02,2022-08-17 13:24:19.578125
1783,11.37,2022-08-17 13:24:19.593750
1784,4.02,2022-08-17 13:24:19.609375
1785,-3.85,2022-08-17 13:24:19.625000
1786,-11.99,2022-08-17 13:24:19.640625
1787,-19.95,2022-08-17 13:24:19.656250
1788,-27.25,2022-08-17 13:24:19.671875
1789,-33.51,2022-08-17 13:24:19.687500
1790,-38.63,2022-08-17 13:24:19.703125
1791,-42.77,2022-08-17 13:24:19.718750
1792,-46.26,2022-08-17 13:24:19.734375
1793,-49.4,2022-08-17 13:24:19.750000
1794,-52.36,2022-08-17 13:24:19.765625
1795,-55.19,2022-08-17 13:24:19.781250
1796,-58.04,2022-08-17 13:24:19.796875
1797,-61.33,2022-08-17 13:24:19.812500
1798,-65.81,2022-08-17 13:24:19.828125
1799,-72.33,2022-08-17 13:24:19.843750
1800,-81.45,2022-08-17 13:24:19.859375
1801,-92.75,2022-08-17 13:24:19.875000
1802,-104.48,2022-08-17 13:24:19.890625
1803,-113.64,2022-08-17 13:24:19.906250
1804,-116.65,2022-08-17 13:24:19.921875
1805,-110.5,2022-08-17 13:24:19.937500
1806,-93.89,2022-08-17 13:24:19.953125
1807,-67.96,2022-08-17 13:24:19.968750
1808,-36.02,2022-08-17 13:24:19.984375
1809,-2.69,2022-08-17 13:24:20.000000
1810,27.64,2022-08-17 13:24:20.015625
1811,51.92,2022-08-17 13:24:20.031250
1812,69.02,2022-08-17 13:24:20.046875
1813,79.47,2022-08-17 13:24:20.062500
1814,84.56,2022-08-17 13:24:20.078125
1815,85.56,2022-08-17 13:24:20.093750
1816,83.28,2022-08-17 13:24:20.109375
1817,78.07,2022-08-17 13:24:20.125000
1818,70.3,2022-08-17 13:24:20.140625
1819,60.72,2022-08-17 13:24:20.156250
1820,50.56,2022-08-17 13:24:20.171875
1821,41.28,2022-08-17 13:24:20.187500
1822,34.12,2022-08-17 13:24:20.203125
1823,29.63,2022-08-17 13:24:20.218750
1824,27.56,2022-08-17 13:24:20.234375
1825,26.96,2022-08-17 13:24:20.250000
1826,26.66,2022-08-17 13:24:20.265625
1827,25.71,2022-08-17 13:24:20.281250
1828,23.71,2022-08-17 13:24:20.296875
1829,20.75,2022-08-17 13:24:20.312500
1830,17.21,2022-08-17 13:24:20.328125
1831,13.41,2022-08-17 13:24:20.343750
1832,9.32,2022-08-17 13:24:20.359375
1833,4.57,2022-08-17 13:24:20.375000
1834,-1.4,2022-08-17 13:24:20.390625
1835,-9.01,2022-08-17 13:24:20.406250
1836,-18.26,2022-08-17 13:24:20.421875
1837,-28.67,2022-08-17 13:24:20.437500
1838,-39.45,2022-08-17 13:24:20.453125
1839,-49.75,2022-08-17 13:24:20.468750
1840,-58.97,2022-08-17 13:24:20.484375
1841,-66.98,2022-08-17 13:24:20.500000
1842,-74.13,2022-08-17 13:24:20.515625
1843,-81.12,2022-08-17 13:24:20.531250
1844,-88.86,2022-08-17 13:24:20.546875
1845,-98.24,2022-08-17 13:24:20.562500
1846,-109.88,2022-08-17 13:24:20.578125
1847,-123.86,2022-08-17 13:24:20.593750
1848,-139.23,2022-08-17 13:24:20.609375
1849,-153.74,2022-08-17 13:24:20.625000
1850,-164.06,2022-08-17 13:24:20.640625
1851,-166.34,2022-08-17 13:24:20.656250
1852,-157.43,2022-08-17 13:24:20.671875
1853,-136.07,2022-08-17 13:24:20.687500
1854,-103.51,2022-08-17 13:24:20.703125
1855,-63.42,2022-08-17 13:24:20.718750
1856,-20.84,2022-08-17 13:24:20.734375
1857,19.29,2022-08-17 13:24:20.750000
1858,53.29,2022-08-17 13:24:20.765625
1859,79.4,2022-08-17 13:24:20.781250
1860,97.56,2022-08-17 13:24:20.796875
1861,108.74,2022-08-17 13:24:20.812500
1862,114.13,2022-08-17 13:24:20.828125
1863,114.84,2022-08-17 13:24:20.843750
1864,111.78,2022-08-17 13:24:20.859375
1865,105.85,2022-08-17 13:24:20.875000
1866,98.14,2022-08-17 13:24:20.890625
1867,89.86,2022-08-17 13:24:20.906250
1868,82.07,2022-08-17 13:24:20.921875
1869,75.52,2022-08-17 13:24:20.937500
1870,70.41,2022-08-17 13:24:20.953125
1871,66.46,2022-08-17 13:24:20.968750
1872,63.19,2022-08-17 13:24:20.984375
1873,60.23,2022-08-17 13:24:21.000000
1874,57.47,2022-08-17 13:24:21.015625
1875,55.12,2022-08-17 13:24:21.031250
1876,53.4,2022-08-17 13:24:21.046875
1877,52.37,2022-08-17 13:24:21.062500
1878,51.58,2022-08-17 13:24:21.078125
1879,50.14,2022-08-17 13:24:21.093750
1880,46.86,2022-08-17 13:24:21.109375
1881,40.71,2022-08-17 13:24:21.125000
1882,31.24,2022-08-17 13:24:21.140625
1883,18.79,2022-08-17 13:24:21.156250
1884,4.48,2022-08-17 13:24:21.171875
1885,-10.16,2022-08-17 13:24:21.187500
1886,-23.61,2022-08-17 13:24:21.203125
1887,-34.97,2022-08-17 13:24:21.218750
1888,-44.03,2022-08-17 13:24:21.234375
1889,-51.38,2022-08-17 13:24:21.250000
1890,-58.04,2022-08-17 13:24:21.265625
1891,-65.19,2022-08-17 13:24:21.281250
1892,-73.77,2022-08-17 13:24:21.296875
1893,-84.25,2022-08-17 13:24:21.312500
1894,-96.23,2022-08-17 13:24:21.328125
1895,-108.22,2022-08-17 13:24:21.343750
1896,-117.61,2022-08-17 13:24:21.359375
1897,-121.09,2022-08-17 13:24:21.375000
1898,-115.57,2022-08-17 13:24:21.390625
1899,-99.32,2022-08-17 13:24:21.406250
1900,-72.8,2022-08-17 13:24:21.421875
1901,-38.88,2022-08-17 13:24:21.437500
1902,-2.12,2022-08-17 13:24:21.453125
1903,32.58,2022-08-17 13:24:21.468750
1904,61.49,2022-08-17 13:24:21.484375
1905,82.71,2022-08-17 13:24:21.500000
1906,96.32,2022-08-17 13:24:21.515625
1907,103.6,2022-08-17 13:24:21.531250
1908,106.19,2022-08-17 13:24:21.546875
1909,105.46,2022-08-17 13:24:21.562500
1910,102.28,2022-08-17 13:24:21.578125
1911,97.3,2022-08-17 13:24:21.593750
1912,91.18,2022-08-17 13:24:21.609375
1913,84.73,2022-08-17 13:24:21.625000
1914,78.8,2022-08-17 13:24:21.640625
1915,74.04,2022-08-17 13:24:21.656250
1916,70.75,2022-08-17 13:24:21.671875
1917,68.85,2022-08-17 13:24:21.687500
1918,67.96,2022-08-17 13:24:21.703125
1919,67.66,2022-08-17 13:24:21.718750
1920,67.64,2022-08-17 13:24:21.734375
1921,67.74,2022-08-17 13:24:21.750000
1922,67.9,2022-08-17 13:24:21.765625
1923,68.0,2022-08-17 13:24:21.781250
1924,67.66,2022-08-17 13:24:21.796875
1925,66.15,2022-08-17 13:24:21.812500
1926,62.53,2022-08-17 13:24:21.828125
1927,55.93,2022-08-17 13:24:21.843750
1928,45.87,2022-08-17 13:24:21.859375
1929,32.66,2022-08-17 13:24:21.875000
1930,17.32,2022-08-17 13:24:21.890625
1931,1.37,2022-08-17 13:24:21.906250
1932,-13.7,2022-08-17 13:24:21.921875
1933,-26.96,2022-08-17 13:24:21.937500
1934,-38.35,2022-08-17 13:24:21.953125
1935,-48.75,2022-08-17 13:24:21.968750
1936,-59.64,2022-08-17 13:24:21.984375
1937,-72.65,2022-08-17 13:24:22.000000
1938,-89.02,2022-08-17 13:24:22.015625
1939,-108.94,2022-08-17 13:24:22.031250
1940,-131.25,2022-08-17 13:24:22.046875
1941,-153.29,2022-08-17 13:24:22.062500
1942,-171.34,2022-08-17 13:24:22.078125
1943,-181.5,2022-08-17 13:24:22.093750
1944,-180.82,2022-08-17 13:24:22.109375
1945,-168.36,2022-08-17 13:24:22.125000
1946,-145.56,2022-08-17 13:24:22.140625
1947,-115.93,2022-08-17 13:24:22.156250
1948,-83.98,2022-08-17 13:24:22.171875
1949,-53.94,2022-08-17 13:24:22.187500
1950,-28.79,2022-08-17 13:24:22.203125
1951,-9.87,2022-08-17 13:24:22.218750
1952,2.85,2022-08-17 13:24:22.234375
1953,10.16,2022-08-17 13:24:22.250000
1954,13.09,2022-08-17 13:24:22.265625
1955,12.65,2022-08-17 13:24:22.281250
1956,9.88,2022-08-17 13:24:22.296875
1957,6.05,2022-08-17 13:24:22.312500
1958,2.64,2022-08-17 13:24:22.328125
1959,1.09,2022-08-17 13:24:22.343750
1960,2.44,2022-08-17 13:24:22.359375
1961,6.84,2022-08-17 13:24:22.375000
1962,13.65,2022-08-17 13:24:22.390625
1963,21.59,2022-08-17 13:24:22.406250
1964,29.41,2022-08-17 13:24:22.421875
1965,36.47,2022-08-17 13:24:22.437500
1966,42.97,2022-08-17 13:24:22.453125
1967,49.66,2022-08-17 13:24:22.468750
1968,57.23,2022-08-17 13:24:22.484375
1969,65.67,2022-08-17 13:24:22.500000
1970,74.0,2022-08-17 13:24:22.515625
1971,80.64,2022-08-17 13:24:22.531250
1972,84.02,2022-08-17 13:24:22.546875
1973,83.44,2022-08-17 13:24:22.562500
1974,79.26,2022-08-17 13:24:22.578125
1975,72.67,2022-08-17 13:24:22.593750
1976,65.04,2022-08-17 13:24:22.609375
1977,57.24,2022-08-17 13:24:22.625000
1978,49.27,2022-08-17 13:24:22.640625
1979,40.5,2022-08-17 13:24:22.656250
1980,30.03,2022-08-17 13:24:22.671875
1981,17.2,2022-08-17 13:24:22.687500
1982,1.98,2022-08-17 13:24:22.703125
1983,-14.9,2022-08-17 13:24:22.718750
1984,-31.8,2022-08-17 13:24:22.734375
1985,-46.38,2022-08-17 13:24:22.750000
1986,-55.88,2022-08-17 13:24:22.765625
1987,-57.76,2022-08-17 13:24:22.781250
1988,-50.55,2022-08-17 13:24:22.796875
1989,-34.45,2022-08-17 13:24:22.812500
1990,-11.66,2022-08-17 13:24:22.828125
1991,14.24,2022-08-17 13:24:22.843750
1992,39.19,2022-08-17 13:24:22.859375
1993,59.84,2022-08-17 13:24:22.875000
1994,74.28,2022-08-17 13:24:22.890625
1995,82.16,2022-08-17 13:24:22.906250
1996,84.19,2022-08-17 13:24:22.921875
1997,81.46,2022-08-17 13:24:22.937500
1998,74.93,2022-08-17 13:24:22.953125
1999,65.19,2022-08-17 13:24:22.968750
2000,52.74,2022-08-17 13:24:22.984375
2001,38.25,2022-08-17 13:24:23.000000
2002,22.73,2022-08-17 13:24:23.015625
2003,7.49,2022-08-17 13:24:23.031250
2004,-6.1,2022-08-17 13:24:23.046875
2005,-16.95,2022-08-17 13:24:23.062500
2006,-24.49,2022-08-17 13:24:23.078125
2007,-28.75,2022-08-17 13:24:23.093750
2008,-30.2,2022-08-17 13:24:23.109375
2009,-29.63,2022-08-17 13:24:23.125000
2010,-28.0,2022-08-17 13:24:23.140625
2011,-26.29,2022-08-17 13:24:23.156250
2012,-25.48,2022-08-17 13:24:23.171875
2013,-26.41,2022-08-17 13:24:23.187500
2014,-29.59,2022-08-17 13:24:23.203125
2015,-35.05,2022-08-17 13:24:23.218750
2016,-42.33,2022-08-17 13:24:23.234375
2017,-50.5,2022-08-17 13:24:23.250000
2018,-58.62,2022-08-17 13:24:23.265625
2019,-65.95,2022-08-17 13:24:23.281250
2020,-72.29,2022-08-17 13:24:23.296875
2021,-78.02,2022-08-17 13:24:23.312500
2022,-84.11,2022-08-17 13:24:23.328125
2023,-91.71,2022-08-17 13:24:23.343750
2024,-101.69,2022-08-17 13:24:23.359375
2025,-114.01,2022-08-17 13:24:23.375000
2026,-127.29,2022-08-17 13:24:23.390625
2027,-138.66,2022-08-17 13:24:23.406250
2028,-144.43,2022-08-17 13:24:23.421875
2029,-141.05,2022-08-17 13:24:23.437500
2030,-126.44,2022-08-17 13:24:23.453125
2031,-100.85,2022-08-17 13:24:23.468750
2032,-67.07,2022-08-17 13:24:23.484375
2033,-29.59,2022-08-17 13:24:23.500000
2034,6.62,2022-08-17 13:24:23.515625
2035,37.51,2022-08-17 13:24:23.531250
2036,60.74,2022-08-17 13:24:23.546875
2037,75.74,2022-08-17 13:24:23.562500
2038,83.28,2022-08-17 13:24:23.578125
2039,84.8,2022-08-17 13:24:23.593750
2040,81.84,2022-08-17 13:24:23.609375
2041,75.79,2022-08-17 13:24:23.625000
2042,67.86,2022-08-17 13:24:23.640625
2043,59.14,2022-08-17 13:24:23.656250
2044,50.59,2022-08-17 13:24:23.671875
2045,42.87,2022-08-17 13:24:23.687500
2046,36.36,2022-08-17 13:24:23.703125
2047,31.13,2022-08-17 13:24:23.718750
2048,26.99,2022-08-17 13:24:23.734375
2049,23.73,2022-08-17 13:24:23.750000
2050,21.22,2022-08-17 13:24:23.765625
2051,19.46,2022-08-17 13:24:23.781250
2052,18.5,2022-08-17 13:24:23.796875
2053,18.26,2022-08-17 13:24:23.812500
2054,18.34,2022-08-17 13:24:23.828125
2055,17.98,2022-08-17 13:24:23.843750
2056,16.17,2022-08-17 13:24:23.859375
2057,11.97,2022-08-17 13:24:23.875000
2058,4.88,2022-08-17 13:24:23.890625
2059,-4.84,2022-08-17 13:24:23.906250
2060,-16.15,2022-08-17 13:24:23.921875
2061,-27.6,2022-08-17 13:24:23.937500
2062,-37.88,2022-08-17 13:24:23.953125
2063,-46.27,2022-08-17 13:24:23.968750
2064,-53.08,2022-08-17 13:24:23.984375
2065,-59.45,2022-08-17 13:24:24.000000
2066,-67.07,2022-08-17 13:24:24.015625
2067,-77.35,2022-08-17 13:24:24.031250
2068,-90.8,2022-08-17 13:24:24.046875
2069,-106.45,2022-08-17 13:24:24.062500
2070,-121.82,2022-08-17 13:24:24.078125
2071,-133.21,2022-08-17 13:24:24.093750
2072,-136.69,2022-08-17 13:24:24.109375
2073,-129.21,2022-08-17 13:24:24.125000
2074,-109.69,2022-08-17 13:24:24.140625
2075,-79.57,2022-08-17 13:24:24.156250
2076,-42.53,2022-08-17 13:24:24.171875
2077,-3.56,2022-08-17 13:24:24.187500
2078,32.46,2022-08-17 13:24:24.203125
2079,61.93,2022-08-17 13:24:24.218750
2080,83.21,2022-08-17 13:24:24.234375
2081,96.44,2022-08-17 13:24:24.250000
2082,102.93,2022-08-17 13:24:24.265625
2083,104.28,2022-08-17 13:24:24.281250
2084,101.89,2022-08-17 13:24:24.296875
2085,96.77,2022-08-17 13:24:24.312500
2086,89.6,2022-08-17 13:24:24.328125
2087,81.14,2022-08-17 13:24:24.343750
2088,72.29,2022-08-17 13:24:24.359375
2089,64.09,2022-08-17 13:24:24.375000
2090,57.3,2022-08-17 13:24:24.390625
2091,52.21,2022-08-17 13:24:24.406250
2092,48.46,2022-08-17 13:24:24.421875
2093,45.39,2022-08-17 13:24:24.437500
2094,42.35,2022-08-17 13:24:24.453125
2095,39.08,2022-08-17 13:24:24.468750
2096,35.86,2022-08-17 13:24:24.484375
2097,33.2,2022-08-17 13:24:24.500000
2098,31.51,2022-08-17 13:24:24.515625
2099,30.63,2022-08-17 13:24:24.531250
2100,29.74,2022-08-17 13:24:24.546875
2101,27.59,2022-08-17 13:24:24.562500
2102,22.98,2022-08-17 13:24:24.578125
2103,15.32,2022-08-17 13:24:24.593750
2104,4.93,2022-08-17 13:24:24.609375
2105,-7.08,2022-08-17 13:24:24.625000
2106,-19.12,2022-08-17 13:24:24.640625
2107,-29.74,2022-08-17 13:24:24.656250
2108,-38.12,2022-08-17 13:24:24.671875
2109,-44.34,2022-08-17 13:24:24.687500
2110,-49.44,2022-08-17 13:24:24.703125
2111,-55.01,2022-08-17 13:24:24.718750
2112,-62.8,2022-08-17 13:24:24.734375
2113,-74.0,2022-08-17 13:24:24.750000
2114,-88.66,2022-08-17 13:24:24.765625
2115,-105.28,2022-08-17 13:24:24.781250
2116,-120.83,2022-08-17 13:24:24.796875
2117,-131.3,2022-08-17 13:24:24.812500
2118,-132.81,2022-08-17 13:24:24.828125
2119,-122.94,2022-08-17 13:24:24.843750
2120,-101.63,2022-08-17 13:24:24.859375
2121,-71.41,2022-08-17 13:24:24.875000
2122,-36.68,2022-08-17 13:24:24.890625
2123,-2.31,2022-08-17 13:24:24.906250
2124,27.71,2022-08-17 13:24:24.921875
2125,51.18,2022-08-17 13:24:24.937500
2126,67.76,2022-08-17 13:24:24.953125
2127,78.33,2022-08-17 13:24:24.968750
2128,84.12,2022-08-17 13:24:24.984375
2129,86.06,2022-08-17 13:24:25.000000
2130,84.62,2022-08-17 13:24:25.015625
2131,80.11,2022-08-17 13:24:25.031250
2132,73.11,2022-08-17 13:24:25.046875
2133,64.68,2022-08-17 13:24:25.062500
2134,56.21,2022-08-17 13:24:25.078125
2135,48.97,2022-08-17 13:24:25.093750
2136,43.62,2022-08-17 13:24:25.109375
2137,40.08,2022-08-17 13:24:25.125000
2138,37.63,2022-08-17 13:24:25.140625
2139,35.44,2022-08-17 13:24:25.156250
2140,33.03,2022-08-17 13:24:25.171875
2141,30.54,2022-08-17 13:24:25.187500
2142,28.45,2022-08-17 13:24:25.203125
2143,27.3,2022-08-17 13:24:25.218750
2144,27.06,2022-08-17 13:24:25.234375
2145,26.99,2022-08-17 13:24:25.250000
2146,25.86,2022-08-17 13:24:25.265625
2147,22.35,2022-08-17 13:24:25.281250
2148,15.69,2022-08-17 13:24:25.296875
2149,5.97,2022-08-17 13:24:25.312500
2150,-5.78,2022-08-17 13:24:25.328125
2151,-18.02,2022-08-17 13:24:25.343750
2152,-29.18,2022-08-17 13:24:25.359375
2153,-38.23,2022-08-17 13:24:25.375000
2154,-45.04,2022-08-17 13:24:25.390625
2155,-50.31,2022-08-17 13:24:25.406250
2156,-55.41,2022-08-17 13:24:25.421875
2157,-61.86,2022-08-17 13:24:25.437500
2158,-70.86,2022-08-17 13:24:25.453125
2159,-82.81,2022-08-17 13:24:25.468750
2160,-96.97,2022-08-17 13:24:25.484375
2161,-111.29,2022-08-17 13:24:25.500000
2162,-122.6,2022-08-17 13:24:25.515625
2163,-127.24,2022-08-17 13:24:25.531250
2164,-122.13,2022-08-17 13:24:25.546875
2165,-105.85,2022-08-17 13:24:25.562500
2166,-79.29,2022-08-17 13:24:25.578125
2167,-45.64,2022-08-17 13:24:25.593750
2168,-9.43,2022-08-17 13:24:25.609375
2169,24.73,2022-08-17 13:24:25.625000
2170,53.42,2022-08-17 13:24:25.640625
2171,75.01,2022-08-17 13:24:25.656250
2172,89.45,2022-08-17 13:24:25.671875
2173,97.67,2022-08-17 13:24:25.687500
2174,100.75,2022-08-17 13:24:25.703125
2175,99.54,2022-08-17 13:24:25.718750
2176,94.67,2022-08-17 13:24:25.734375
2177,86.87,2022-08-17 13:24:25.750000
2178,77.15,2022-08-17 13:24:25.765625
2179,66.87,2022-08-17 13:24:25.781250
2180,57.43,2022-08-17 13:24:25.796875
2181,49.87,2022-08-17 13:24:25.812500
2182,44.67,2022-08-17 13:24:25.828125
2183,41.59,2022-08-17 13:24:25.843750
2184,39.95,2022-08-17 13:24:25.859375
2185,39.01,2022-08-17 13:24:25.875000
2186,38.22,2022-08-17 13:24:25.890625
2187,37.39,2022-08-17 13:24:25.906250
2188,36.59,2022-08-17 13:24:25.921875
2189,35.82,2022-08-17 13:24:25.937500
2190,34.79,2022-08-17 13:24:25.953125
2191,32.88,2022-08-17 13:24:25.968750
2192,29.28,2022-08-17 13:24:25.984375
2193,23.34,2022-08-17 13:24:26.000000
2194,14.97,2022-08-17 13:24:26.015625
2195,4.69,2022-08-17 13:24:26.031250
2196,-6.5,2022-08-17 13:24:26.046875
2197,-17.46,2022-08-17 13:24:26.062500
2198,-27.41,2022-08-17 13:24:26.078125
2199,-36.14,2022-08-17 13:24:26.093750
2200,-44.08,2022-08-17 13:24:26.109375
2201,-52.11,2022-08-17 13:24:26.125000
2202,-61.27,2022-08-17 13:24:26.140625
2203,-72.36,2022-08-17 13:24:26.156250
2204,-85.61,2022-08-17 13:24:26.171875
2205,-100.55,2022-08-17 13:24:26.187500
2206,-115.74,2022-08-17 13:24:26.203125
2207,-128.93,2022-08-17 13:24:26.218750
2208,-137.33,2022-08-17 13:24:26.234375
2209,-138.2,2022-08-17 13:24:26.250000
2210,-129.68,2022-08-17 13:24:26.265625
2211,-111.48,2022-08-17 13:24:26.281250
2212,-85.14,2022-08-17 13:24:26.296875
2213,-53.75,2022-08-17 13:24:26.312500
2214,-21.05,2022-08-17 13:24:26.328125
2215,9.57,2022-08-17 13:24:26.343750
2216,35.88,2022-08-17 13:24:26.359375
2217,56.87,2022-08-17 13:24:26.375000
2218,72.43,2022-08-17 13:24:26.390625
2219,82.68,2022-08-17 13:24:26.406250
2220,87.64,2022-08-17 13:24:26.421875
2221,87.34,2022-08-17 13:24:26.437500
2222,82.29,2022-08-17 13:24:26.453125
2223,73.77,2022-08-17 13:24:26.468750
2224,63.74,2022-08-17 13:24:26.484375
2225,54.22,2022-08-17 13:24:26.500000
2226,46.52,2022-08-17 13:24:26.515625
2227,40.74,2022-08-17 13:24:26.531250
2228,35.97,2022-08-17 13:24:26.546875
2229,30.85,2022-08-17 13:24:26.562500
2230,24.47,2022-08-17 13:24:26.578125
2231,16.94,2022-08-17 13:24:26.593750
2232,9.2,2022-08-17 13:24:26.609375
2233,2.64,2022-08-17 13:24:26.625000
2234,-1.66,2022-08-17 13:24:26.640625
2235,-3.56,2022-08-17 13:24:26.656250
2236,-4.07,2022-08-17 13:24:26.671875
2237,-5.12,2022-08-17 13:24:26.687500
2238,-9.19,2022-08-17 13:24:26.703125
2239,-18.55,2022-08-17 13:24:26.718750
2240,-34.38,2022-08-17 13:24:26.734375
2241,-55.91,2022-08-17 13:24:26.750000
2242,-79.97,2022-08-17 13:24:26.765625
2243,-101.22,2022-08-17 13:24:26.781250
2244,-113.55,2022-08-17 13:24:26.796875
2245,-112.29,2022-08-17 13:24:26.812500
2246,-96.19,2022-08-17 13:24:26.828125
2247,-68.5,2022-08-17 13:24:26.843750
2248,-36.21,2022-08-17 13:24:26.859375
2249,-7.72,2022-08-17 13:24:26.875000
2250,9.91,2022-08-17 13:24:26.890625
2251,12.86,2022-08-17 13:24:26.906250
2252,0.93,2022-08-17 13:24:26.921875
2253,-23.52,2022-08-17 13:24:26.937500
2254,-57.19,2022-08-17 13:24:26.953125
2255,-96.61,2022-08-17 13:24:26.968750
2256,-138.06,2022-08-17 13:24:26.984375
2257,-176.66,2022-08-17 13:24:27.000000
2258,-205.84,2022-08-17 13:24:27.015625
2259,-218.1,2022-08-17 13:24:27.031250
2260,-206.77,2022-08-17 13:24:27.046875
2261,-168.4,2022-08-17 13:24:27.062500
2262,-104.44,2022-08-17 13:24:27.078125
2263,-21.62,2022-08-17 13:24:27.093750
2264,69.42,2022-08-17 13:24:27.109375
2265,156.68,2022-08-17 13:24:27.125000
2266,229.17,2022-08-17 13:24:27.140625
2267,278.98,2022-08-17 13:24:27.156250
2268,302.07,2022-08-17 13:24:27.171875
2269,298.52,2022-08-17 13:24:27.187500
2270,272.47,2022-08-17 13:24:27.203125
2271,231.82,2022-08-17 13:24:27.218750
2272,187.3,2022-08-17 13:24:27.234375
2273,150.22,2022-08-17 13:24:27.250000
2274,129.32,2022-08-17 13:24:27.265625
2275,127.53,2022-08-17 13:24:27.281250
2276,140.67,2022-08-17 13:24:27.296875
2277,158.64,2022-08-17 13:24:27.312500
2278,169.22,2022-08-17 13:24:27.328125
2279,162.69,2022-08-17 13:24:27.343750
2280,135.23,2022-08-17 13:24:27.359375
2281,89.61,2022-08-17 13:24:27.375000
2282,33.3,2022-08-17 13:24:27.390625
2283,-24.78,2022-08-17 13:24:27.406250
2284,-77.08,2022-08-17 13:24:27.421875
2285,-118.69,2022-08-17 13:24:27.437500
2286,-147.05,2022-08-17 13:24:27.453125
2287,-161.1,2022-08-17 13:24:27.468750
2288,-160.66,2022-08-17 13:24:27.484375
2289,-146.62,2022-08-17 13:24:27.500000
2290,-121.54,2022-08-17 13:24:27.515625
2291,-90.1,2022-08-17 13:24:27.531250
2292,-58.93,2022-08-17 13:24:27.546875
2293,-35.4,2022-08-17 13:24:27.562500
2294,-25.35,2022-08-17 13:24:27.578125
2295,-30.67,2022-08-17 13:24:27.593750
2296,-47.74,2022-08-17 13:24:27.609375
2297,-67.76,2022-08-17 13:24:27.625000
2298,-79.53,2022-08-17 13:24:27.640625
2299,-73.69,2022-08-17 13:24:27.656250
2300,-46.85,2022-08-17 13:24:27.671875
2301,-3.65,2022-08-17 13:24:27.687500
2302,44.66,2022-08-17 13:24:27.703125
2303,84.43,2022-08-17 13:24:27.718750
2304,105.05,2022-08-17 13:24:27.734375
2305,103.11,2022-08-17 13:24:27.750000
2306,83.32,2022-08-17 13:24:27.765625
2307,55.99,2022-08-17 13:24:27.781250
2308,32.27,2022-08-17 13:24:27.796875
2309,19.6,2022-08-17 13:24:27.812500
2310,19.26,2022-08-17 13:24:27.828125
2311,27.25,2022-08-17 13:24:27.843750
2312,37.21,2022-08-17 13:24:27.859375
2313,44.14,2022-08-17 13:24:27.875000
2314,46.66,2022-08-17 13:24:27.890625
2315,46.94,2022-08-17 13:24:27.906250
2316,48.99,2022-08-17 13:24:27.921875
2317,55.77,2022-08-17 13:24:27.937500
2318,67.32,2022-08-17 13:24:27.953125
2319,80.59,2022-08-17 13:24:27.968750
2320,91.28,2022-08-17 13:24:27.984375
2321,96.39,2022-08-17 13:24:28.000000
2322,96.08,2022-08-17 13:24:28.015625
2323,93.51,2022-08-17 13:24:28.031250
2324,92.73,2022-08-17 13:24:28.046875
2325,95.72,2022-08-17 13:24:28.062500
2326,100.47,2022-08-17 13:24:28.078125
2327,101.5,2022-08-17 13:24:28.093750
2328,92.72,2022-08-17 13:24:28.109375
2329,70.98,2022-08-17 13:24:28.125000
2330,38.32,2022-08-17 13:24:28.140625
2331,1.32,2022-08-17 13:24:28.156250
2332,-32.07,2022-08-17 13:24:28.171875
2333,-56.49,2022-08-17 13:24:28.187500
2334,-71.5,2022-08-17 13:24:28.203125
2335,-81.38,2022-08-17 13:24:28.218750
2336,-92.5,2022-08-17 13:24:28.234375
2337,-109.93,2022-08-17 13:24:28.250000
2338,-135.3,2022-08-17 13:24:28.265625
2339,-166.67,2022-08-17 13:24:28.281250
2340,-199.75,2022-08-17 13:24:28.296875
2341,-229.67,2022-08-17 13:24:28.312500
2342,-252.22,2022-08-17 13:24:28.328125
2343,-264.48,2022-08-17 13:24:28.343750
2344,-265.28,2022-08-17 13:24:28.359375
2345,-254.96,2022-08-17 13:24:28.375000
2346,-235.02,2022-08-17 13:24:28.390625
2347,-207.74,2022-08-17 13:24:28.406250
2348,-175.19,2022-08-17 13:24:28.421875
2349,-138.47,2022-08-17 13:24:28.437500
2350,-97.48,2022-08-17 13:24:28.453125
2351,-51.25,2022-08-17 13:24:28.468750
2352,1.48,2022-08-17 13:24:28.484375
2353,61.24,2022-08-17 13:24:28.500000
2354,127.03,2022-08-17 13:24:28.515625
2355,195.61,2022-08-17 13:24:28.531250
2356,261.31,2022-08-17 13:24:28.546875
2357,316.76,2022-08-17 13:24:28.562500
2358,354.31,2022-08-17 13:24:28.578125
2359,368.11,2022-08-17 13:24:28.593750
2360,356.26,2022-08-17 13:24:28.609375
2361,321.85,2022-08-17 13:24:28.625000
2362,272.27,2022-08-17 13:24:28.640625
2363,216.97,2022-08-17 13:24:28.656250
2364,164.39,2022-08-17 13:24:28.671875
2365,119.63,2022-08-17 13:24:28.687500
2366,83.98,2022-08-17 13:24:28.703125
2367,56.19,2022-08-17 13:24:28.718750
2368,34.27,2022-08-17 13:24:28.734375
2369,16.99,2022-08-17 13:24:28.750000
2370,4.02,2022-08-17 13:24:28.765625
2371,-4.95,2022-08-17 13:24:28.781250
2372,-11.13,2022-08-17 13:24:28.796875
2373,-16.79,2022-08-17 13:24:28.812500
2374,-24.64,2022-08-17 13:24:28.828125
2375,-36.51,2022-08-17 13:24:28.843750
2376,-52.6,2022-08-17 13:24:28.859375
2377,-71.32,2022-08-17 13:24:28.875000
2378,-90.22,2022-08-17 13:24:28.890625
2379,-107.38,2022-08-17 13:24:28.906250
2380,-122.36,2022-08-17 13:24:28.921875
2381,-136.41,2022-08-17 13:24:28.937500
2382,-151.63,2022-08-17 13:24:28.953125
2383,-169.68,2022-08-17 13:24:28.968750
2384,-190.31,2022-08-17 13:24:28.984375
2385,-210.72,2022-08-17 13:24:29.000000
2386,-225.85,2022-08-17 13:24:29.015625
2387,-229.88,2022-08-17 13:24:29.031250
2388,-218.32,2022-08-17 13:24:29.046875
2389,-189.78,2022-08-17 13:24:29.062500
2390,-146.95,2022-08-17 13:24:29.078125
2391,-95.95,2022-08-17 13:24:29.093750
2392,-44.39,2022-08-17 13:24:29.109375
2393,0.9,2022-08-17 13:24:29.125000
2394,35.75,2022-08-17 13:24:29.140625
2395,59.23,2022-08-17 13:24:29.156250
2396,72.79,2022-08-17 13:24:29.171875
2397,78.91,2022-08-17 13:24:29.187500
2398,79.7,2022-08-17 13:24:29.203125
2399,76.2,2022-08-17 13:24:29.218750
2400,68.75,2022-08-17 13:24:29.234375
2401,57.43,2022-08-17 13:24:29.250000
2402,42.81,2022-08-17 13:24:29.265625
2403,26.1,2022-08-17 13:24:29.281250
2404,8.95,2022-08-17 13:24:29.296875
2405,-7.02,2022-08-17 13:24:29.312500
2406,-20.64,2022-08-17 13:24:29.328125
2407,-31.44,2022-08-17 13:24:29.343750
2408,-39.64,2022-08-17 13:24:29.359375
2409,-45.91,2022-08-17 13:24:29.375000
2410,-51.17,2022-08-17 13:24:29.390625
2411,-56.34,2022-08-17 13:24:29.406250
2412,-62.33,2022-08-17 13:24:29.421875
2413,-69.94,2022-08-17 13:24:29.437500
2414,-79.84,2022-08-17 13:24:29.453125
2415,-92.39,2022-08-17 13:24:29.468750
2416,-107.7,2022-08-17 13:24:29.484375
2417,-125.51,2022-08-17 13:24:29.500000
2418,-145.3,2022-08-17 13:24:29.515625
2419,-166.58,2022-08-17 13:24:29.531250
2420,-188.95,2022-08-17 13:24:29.546875
2421,-212.43,2022-08-17 13:24:29.562500
2422,-237.51,2022-08-17 13:24:29.578125
2423,-265.25,2022-08-17 13:24:29.593750
2424,-296.83,2022-08-17 13:24:29.609375
2425,-332.74,2022-08-17 13:24:29.625000
2426,-371.75,2022-08-17 13:24:29.640625
2427,-410.35,2022-08-17 13:24:29.656250
2428,-443.17,2022-08-17 13:24:29.671875
2429,-464.47,2022-08-17 13:24:29.687500
2430,-470.21,2022-08-17 13:24:29.703125
2431,-459.65,2022-08-17 13:24:29.718750
2432,-435.63,2022-08-17 13:24:29.734375
2433,-403.36,2022-08-17 13:24:29.750000
2434,-368.35,2022-08-17 13:24:29.765625
2435,-334.6,2022-08-17 13:24:29.781250
2436,-303.87,2022-08-17 13:24:29.796875
2437,-276.14,2022-08-17 13:24:29.812500
2438,-250.72,2022-08-17 13:24:29.828125
2439,-227.22,2022-08-17 13:24:29.843750
2440,-205.71,2022-08-17 13:24:29.859375
2441,-186.38,2022-08-17 13:24:29.875000
2442,-168.99,2022-08-17 13:24:29.890625
2443,-152.73,2022-08-17 13:24:29.906250
2444,-136.53,2022-08-17 13:24:29.921875
2445,-119.67,2022-08-17 13:24:29.937500
2446,-102.16,2022-08-17 13:24:29.953125
2447,-84.66,2022-08-17 13:24:29.968750
2448,-68.23,2022-08-17 13:24:29.984375
2449,-53.72,2022-08-17 13:24:30.000000
2450,-41.38,2022-08-17 13:24:30.015625
2451,-30.76,2022-08-17 13:24:30.031250
2452,-21.03,2022-08-17 13:24:30.046875
2453,-11.33,2022-08-17 13:24:30.062500
2454,-1.19,2022-08-17 13:24:30.078125
2455,9.27,2022-08-17 13:24:30.093750
2456,19.47,2022-08-17 13:24:30.109375
2457,28.73,2022-08-17 13:24:30.125000
2458,36.61,2022-08-17 13:24:30.140625
2459,43.11,2022-08-17 13:24:30.156250
2460,48.74,2022-08-17 13:24:30.171875
2461,54.12,2022-08-17 13:24:30.187500
2462,59.81,2022-08-17 13:24:30.203125
2463,65.96,2022-08-17 13:24:30.218750
2464,72.37,2022-08-17 13:24:30.234375
2465,78.65,2022-08-17 13:24:30.250000
2466,84.46,2022-08-17 13:24:30.265625
2467,89.83,2022-08-17 13:24:30.281250
2468,95.1,2022-08-17 13:24:30.296875
2469,100.79,2022-08-17 13:24:30.312500
2470,107.36,2022-08-17 13:24:30.328125
2471,114.91,2022-08-17 13:24:30.343750
2472,123.11,2022-08-17 13:24:30.359375
2473,131.38,2022-08-17 13:24:30.375000
2474,139.19,2022-08-17 13:24:30.390625
2475,146.35,2022-08-17 13:24:30.406250
2476,153.16,2022-08-17 13:24:30.421875
2477,160.35,2022-08-17 13:24:30.437500
2478,168.72,2022-08-17 13:24:30.453125
2479,178.81,2022-08-17 13:24:30.468750
2480,190.57,2022-08-17 13:24:30.484375
2481,203.54,2022-08-17 13:24:30.500000
2482,216.97,2022-08-17 13:24:30.515625
2483,230.23,2022-08-17 13:24:30.531250
2484,243.1,2022-08-17 13:24:30.546875
2485,255.84,2022-08-17 13:24:30.562500
2486,269.15,2022-08-17 13:24:30.578125
2487,284.1,2022-08-17 13:24:30.593750
2488,301.87,2022-08-17 13:24:30.609375
2489,323.46,2022-08-17 13:24:30.625000
2490,349.0,2022-08-17 13:24:30.640625
2491,377.14,2022-08-17 13:24:30.656250
2492,404.71,2022-08-17 13:24:30.671875
2493,427.25,2022-08-17 13:24:30.687500
2494,440.23,2022-08-17 13:24:30.703125
2495,440.7,2022-08-17 13:24:30.718750
2496,428.42,2022-08-17 13:24:30.734375
2497,405.82,2022-08-17 13:24:30.750000
2498,376.88,2022-08-17 13:24:30.765625
2499,345.48,2022-08-17 13:24:30.781250
2500,314.01,2022-08-17 13:24:30.796875
2501,283.03,2022-08-17 13:24:30.812500
2502,251.97,2022-08-17 13:24:30.828125
2503,220.23,2022-08-17 13:24:30.843750
2504,187.93,2022-08-17 13:24:30.859375
2505,155.98,2022-08-17 13:24:30.875000
2506,125.43,2022-08-17 13:24:30.890625
2507,96.88,2022-08-17 13:24:30.906250
2508,70.2,2022-08-17 13:24:30.921875
2509,44.87,2022-08-17 13:24:30.937500
2510,20.47,2022-08-17 13:24:30.953125
2511,-3.04,2022-08-17 13:24:30.968750
2512,-25.29,2022-08-17 13:24:30.984375
2513,-45.54,2022-08-17 13:24:31.000000
2514,-62.86,2022-08-17 13:24:31.015625
2515,-75.96,2022-08-17 13:24:31.031250
2516,-83.16,2022-08-17 13:24:31.046875
2517,-82.55,2022-08-17 13:24:31.062500
2518,-72.55,2022-08-17 13:24:31.078125
2519,-52.72,2022-08-17 13:24:31.093750
2520,-24.36,2022-08-17 13:24:31.109375
2521,9.48,2022-08-17 13:24:31.125000
2522,44.82,2022-08-17 13:24:31.140625
2523,77.7,2022-08-17 13:24:31.156250
2524,105.4,2022-08-17 13:24:31.171875
2525,126.8,2022-08-17 13:24:31.187500
2526,142.1,2022-08-17 13:24:31.203125
2527,152.13,2022-08-17 13:24:31.218750
2528,157.69,2022-08-17 13:24:31.234375
2529,159.21,2022-08-17 13:24:31.250000
2530,156.95,2022-08-17 13:24:31.265625
2531,151.3,2022-08-17 13:24:31.281250
2532,143.07,2022-08-17 13:24:31.296875
2533,133.39,2022-08-17 13:24:31.312500
2534,123.48,2022-08-17 13:24:31.328125
2535,114.31,2022-08-17 13:24:31.343750
2536,106.51,2022-08-17 13:24:31.359375
2537,100.38,2022-08-17 13:24:31.375000
2538,96.11,2022-08-17 13:24:31.390625
2539,93.82,2022-08-17 13:24:31.406250
2540,93.49,2022-08-17 13:24:31.421875
2541,94.74,2022-08-17 13:24:31.437500
2542,96.56,2022-08-17 13:24:31.453125
2543,97.36,2022-08-17 13:24:31.468750
2544,95.27,2022-08-17 13:24:31.484375
2545,88.74,2022-08-17 13:24:31.500000
2546,77.13,2022-08-17 13:24:31.515625
2547,61.02,2022-08-17 13:24:31.531250
2548,42.13,2022-08-17 13:24:31.546875
2549,22.72,2022-08-17 13:24:31.562500
2550,4.82,2022-08-17 13:24:31.578125
2551,-10.39,2022-08-17 13:24:31.593750
2552,-22.97,2022-08-17 13:24:31.609375
2553,-34.12,2022-08-17 13:24:31.625000
2554,-45.62,2022-08-17 13:24:31.640625
2555,-59.32,2022-08-17 13:24:31.656250
2556,-76.35,2022-08-17 13:24:31.671875
2557,-96.58,2022-08-17 13:24:31.687500
2558,-118.28,2022-08-17 13:24:31.703125
2559,-138.09,2022-08-17 13:24:31.718750
2560,-151.7,2022-08-17 13:24:31.734375
2561,-155.01,2022-08-17 13:24:31.750000
2562,-145.56,2022-08-17 13:24:31.765625
2563,-123.55,2022-08-17 13:24:31.781250
2564,-92.02,2022-08-17 13:24:31.796875
2565,-55.97,2022-08-17 13:24:31.812500
2566,-20.82,2022-08-17 13:24:31.828125
2567,9.23,2022-08-17 13:24:31.843750
2568,31.98,2022-08-17 13:24:31.859375
2569,47.23,2022-08-17 13:24:31.875000
2570,55.91,2022-08-17 13:24:31.890625
2571,59.13,2022-08-17 13:24:31.906250
2572,57.6,2022-08-17 13:24:31.921875
2573,51.67,2022-08-17 13:24:31.937500
2574,41.81,2022-08-17 13:24:31.953125
2575,29.01,2022-08-17 13:24:31.968750
2576,14.85,2022-08-17 13:24:31.984375
2577,1.05,2022-08-17 13:24:32.000000
2578,-11.03,2022-08-17 13:24:32.015625
2579,-20.9,2022-08-17 13:24:32.031250
2580,-28.93,2022-08-17 13:24:32.046875
2581,-36.0,2022-08-17 13:24:32.062500
2582,-42.9,2022-08-17 13:24:32.078125
2583,-49.92,2022-08-17 13:24:32.093750
2584,-56.76,2022-08-17 13:24:32.109375
2585,-62.95,2022-08-17 13:24:32.125000
2586,-68.33,2022-08-17 13:24:32.140625
2587,-73.5,2022-08-17 13:24:32.156250
2588,-79.8,2022-08-17 13:24:32.171875
2589,-88.89,2022-08-17 13:24:32.187500
2590,-102.09,2022-08-17 13:24:32.203125
2591,-119.87,2022-08-17 13:24:32.218750
2592,-141.78,2022-08-17 13:24:32.234375
2593,-166.65,2022-08-17 13:24:32.250000
2594,-192.93,2022-08-17 13:24:32.265625
2595,-218.97,2022-08-17 13:24:32.281250
2596,-243.12,2022-08-17 13:24:32.296875
2597,-263.88,2022-08-17 13:24:32.312500
2598,-280.26,2022-08-17 13:24:32.328125
2599,-292.21,2022-08-17 13:24:32.343750
2600,-300.86,2022-08-17 13:24:32.359375
2601,-308.14,2022-08-17 13:24:32.375000
2602,-315.81,2022-08-17 13:24:32.390625
2603,-324.26,2022-08-17 13:24:32.406250
2604,-331.91,2022-08-17 13:24:32.421875
2605,-335.58,2022-08-17 13:24:32.437500
2606,-331.87,2022-08-17 13:24:32.453125
2607,-318.78,2022-08-17 13:24:32.468750
2608,-296.65,2022-08-17 13:24:32.484375
2609,-267.96,2022-08-17 13:24:32.500000
2610,-236.08,2022-08-17 13:24:32.515625
2611,-203.84,2022-08-17 13:24:32.531250
2612,-172.69,2022-08-17 13:24:32.546875
2613,-142.85,2022-08-17 13:24:32.562500
2614,-114.2,2022-08-17 13:24:32.578125
2615,-87.08,2022-08-17 13:24:32.593750
2616,-62.68,2022-08-17 13:24:32.609375
2617,-42.62,2022-08-17 13:24:32.625000
2618,-28.31,2022-08-17 13:24:32.640625
2619,-19.81,2022-08-17 13:24:32.656250
2620,-16.43,2022-08-17 13:24:32.671875
2621,-17.36,2022-08-17 13:24:32.687500
2622,-22.17,2022-08-17 13:24:32.703125
2623,-30.91,2022-08-17 13:24:32.718750
2624,-43.81,2022-08-17 13:24:32.734375
2625,-60.94,2022-08-17 13:24:32.750000
2626,-81.8,2022-08-17 13:24:32.765625
2627,-105.19,2022-08-17 13:24:32.781250
2628,-128.65,2022-08-17 13:24:32.796875
2629,-149.61,2022-08-17 13:24:32.812500
2630,-165.99,2022-08-17 13:24:32.828125
2631,-176.7,2022-08-17 13:24:32.843750
2632,-181.57,2022-08-17 13:24:32.859375
2633,-181.03,2022-08-17 13:24:32.875000
2634,-175.68,2022-08-17 13:24:32.890625
2635,-165.95,2022-08-17 13:24:32.906250
2636,-151.96,2022-08-17 13:24:32.921875
2637,-132.09,2022-08-17 13:24:32.937500
2638,-105.0,2022-08-17 13:24:32.953125
2639,-70.45,2022-08-17 13:24:32.968750
2640,-29.76,2022-08-17 13:24:32.984375
2641,14.77,2022-08-17 13:24:33.000000
2642,60.62,2022-08-17 13:24:33.015625
2643,105.63,2022-08-17 13:24:33.031250
2644,148.34,2022-08-17 13:24:33.046875
2645,188.09,2022-08-17 13:24:33.062500
2646,228.82,2022-08-17 13:24:33.078125
2647,273.88,2022-08-17 13:24:33.093750
2648,324.31,2022-08-17 13:24:33.109375
2649,377.91,2022-08-17 13:24:33.125000
2650,430.73,2022-08-17 13:24:33.140625
2651,478.99,2022-08-17 13:24:33.156250
2652,520.03,2022-08-17 13:24:33.171875
2653,552.59,2022-08-17 13:24:33.187500
2654,577.14,2022-08-17 13:24:33.203125
2655,603.8,2022-08-17 13:24:33.218750
2656,642.03,2022-08-17 13:24:33.234375
2657,696.5,2022-08-17 13:24:33.250000
2658,764.71,2022-08-17 13:24:33.265625
2659,839.02,2022-08-17 13:24:33.281250
2660,909.78,2022-08-17 13:24:33.296875
2661,967.62,2022-08-17 13:24:33.312500
2662,1004.78,2022-08-17 13:24:33.328125
2663,1016.4,2022-08-17 13:24:33.343750
2664,1013.73,2022-08-17 13:24:33.359375
2665,1007.88,2022-08-17 13:24:33.375000
2666,1004.06,2022-08-17 13:24:33.390625
2667,999.68,2022-08-17 13:24:33.406250
2668,989.58,2022-08-17 13:24:33.421875
2669,972.36,2022-08-17 13:24:33.437500
2670,951.75,2022-08-17 13:24:33.453125
2671,933.55,2022-08-17 13:24:33.468750
2672,921.3,2022-08-17 13:24:33.484375
2673,929.75,2022-08-17 13:24:33.500000
2674,964.67,2022-08-17 13:24:33.515625
2675,1020.18,2022-08-17 13:24:33.531250
2676,1082.03,2022-08-17 13:24:33.546875
2677,1137.3,2022-08-17 13:24:33.562500
2678,1181.72,2022-08-17 13:24:33.578125
2679,1218.23,2022-08-17 13:24:33.593750
2680,1250.95,2022-08-17 13:24:33.609375
2681,1179.96,2022-08-17 13:24:33.625000
2682,949.78,2022-08-17 13:24:33.640625
2683,568.24,2022-08-17 13:24:33.656250
2684,108.22,2022-08-17 13:24:33.671875
2685,-340.15,2022-08-17 13:24:33.687500
2686,-716.72,2022-08-17 13:24:33.703125
2687,-1001.7,2022-08-17 13:24:33.718750
2688,-1202.75,2022-08-17 13:24:33.734375
2689,-1338.99,2022-08-17 13:24:33.750000
2690,-1430.41,2022-08-17 13:24:33.765625
2691,-1476.37,2022-08-17 13:24:33.781250
2692,-1475.26,2022-08-17 13:24:33.796875
2693,-1431.97,2022-08-17 13:24:33.812500
2694,-1360.91,2022-08-17 13:24:33.828125
2695,-1280.57,2022-08-17 13:24:33.843750
2696,-1205.33,2022-08-17 13:24:33.859375
2697,-1143.41,2022-08-17 13:24:33.875000
2698,-1097.13,2022-08-17 13:24:33.890625
2699,-1065.35,2022-08-17 13:24:33.906250
2700,-1032.65,2022-08-17 13:24:33.921875
2701,-986.58,2022-08-17 13:24:33.937500
2702,-923.32,2022-08-17 13:24:33.953125
2703,-849.17,2022-08-17 13:24:33.968750
2704,-775.19,2022-08-17 13:24:33.984375
2705,-710.16,2022-08-17 13:24:34.000000
2706,-658.53,2022-08-17 13:24:34.015625
2707,-620.99,2022-08-17 13:24:34.031250
2708,-595.93,2022-08-17 13:24:34.046875
2709,-572.64,2022-08-17 13:24:34.062500
2710,-542.13,2022-08-17 13:24:34.078125
2711,-500.68,2022-08-17 13:24:34.093750
2712,-450.51,2022-08-17 13:24:34.109375
2713,-399.59,2022-08-17 13:24:34.125000
2714,-353.56,2022-08-17 13:24:34.140625
2715,-315.14,2022-08-17 13:24:34.156250
2716,-284.73,2022-08-17 13:24:34.171875
2717,-261.54,2022-08-17 13:24:34.187500
2718,-240.36,2022-08-17 13:24:34.203125
2719,-216.96,2022-08-17 13:24:34.218750
2720,-189.88,2022-08-17 13:24:34.234375
2721,-160.67,2022-08-17 13:24:34.250000
2722,-132.14,2022-08-17 13:24:34.265625
2723,-106.1,2022-08-17 13:24:34.281250
2724,-83.29,2022-08-17 13:24:34.296875
2725,-63.62,2022-08-17 13:24:34.312500
2726,-46.87,2022-08-17 13:24:34.328125
2727,-31.07,2022-08-17 13:24:34.343750
2728,-14.68,2022-08-17 13:24:34.359375
2729,2.89,2022-08-17 13:24:34.375000
2730,21.33,2022-08-17 13:24:34.390625
2731,40.34,2022-08-17 13:24:34.406250
2732,60.06,2022-08-17 13:24:34.421875
2733,80.59,2022-08-17 13:24:34.437500
2734,101.75,2022-08-17 13:24:34.453125
2735,122.82,2022-08-17 13:24:34.468750
2736,143.64,2022-08-17 13:24:34.484375
2737,164.31,2022-08-17 13:24:34.500000
2738,185.05,2022-08-17 13:24:34.515625
2739,206.17,2022-08-17 13:24:34.531250
2740,228.99,2022-08-17 13:24:34.546875
2741,254.47,2022-08-17 13:24:34.562500
2742,282.8,2022-08-17 13:24:34.578125
2743,313.74,2022-08-17 13:24:34.593750
2744,346.27,2022-08-17 13:24:34.609375
2745,380.6,2022-08-17 13:24:34.625000
2746,416.63,2022-08-17 13:24:34.640625
2747,452.8,2022-08-17 13:24:34.656250
2748,486.05,2022-08-17 13:24:34.671875
2749,514.09,2022-08-17 13:24:34.687500
2750,534.48,2022-08-17 13:24:34.703125
2751,545.38,2022-08-17 13:24:34.718750
2752,545.91,2022-08-17 13:24:34.734375
2753,535.12,2022-08-17 13:24:34.750000
2754,514.53,2022-08-17 13:24:34.765625
2755,485.94,2022-08-17 13:24:34.781250
2756,450.38,2022-08-17 13:24:34.796875
2757,408.64,2022-08-17 13:24:34.812500
2758,363.85,2022-08-17 13:24:34.828125
2759,318.86,2022-08-17 13:24:34.843750
2760,275.64,2022-08-17 13:24:34.859375
2761,234.61,2022-08-17 13:24:34.875000
2762,193.66,2022-08-17 13:24:34.890625
2763,152.63,2022-08-17 13:24:34.906250
2764,112.16,2022-08-17 13:24:34.921875
2765,73.14,2022-08-17 13:24:34.937500
2766,21.82,2022-08-17 13:24:34.953125
2767,-46.84,2022-08-17 13:24:34.968750
2768,-129.56,2022-08-17 13:24:34.984375
2769,-216.1,2022-08-17 13:24:35.000000
2770,-285.62,2022-08-17 13:24:35.015625
2771,-338.03,2022-08-17 13:24:35.031250
2772,-378.31,2022-08-17 13:24:35.046875
2773,-410.75,2022-08-17 13:24:35.062500
2774,-438.76,2022-08-17 13:24:35.078125
2775,-461.03,2022-08-17 13:24:35.093750
2776,-472.58,2022-08-17 13:24:35.109375
2777,-470.48,2022-08-17 13:24:35.125000
2778,-455.82,2022-08-17 13:24:35.140625
2779,-433.66,2022-08-17 13:24:35.156250
2780,-412.03,2022-08-17 13:24:35.171875
2781,-394.89,2022-08-17 13:24:35.187500
2782,-382.24,2022-08-17 13:24:35.203125
2783,-371.19,2022-08-17 13:24:35.218750
2784,-357.64,2022-08-17 13:24:35.234375
2785,-337.05,2022-08-17 13:24:35.250000
2786,-307.87,2022-08-17 13:24:35.265625
2787,-271.65,2022-08-17 13:24:35.281250
2788,-231.61,2022-08-17 13:24:35.296875
2789,-192.01,2022-08-17 13:24:35.312500
2790,-153.92,2022-08-17 13:24:35.328125
2791,-117.02,2022-08-17 13:24:35.343750
2792,-81.28,2022-08-17 13:24:35.359375
2793,-47.5,2022-08-17 13:24:35.375000
2794,-16.36,2022-08-17 13:24:35.390625
2795,10.84,2022-08-17 13:24:35.406250
2796,32.88,2022-08-17 13:24:35.421875
2797,49.04,2022-08-17 13:24:35.437500
2798,58.57,2022-08-17 13:24:35.453125
2799,62.5,2022-08-17 13:24:35.468750
2800,62.29,2022-08-17 13:24:35.484375
2801,59.12,2022-08-17 13:24:35.500000
2802,54.02,2022-08-17 13:24:35.515625
2803,48.5,2022-08-17 13:24:35.531250
2804,44.31,2022-08-17 13:24:35.546875
2805,43.25,2022-08-17 13:24:35.562500
2806,46.78,2022-08-17 13:24:35.578125
2807,54.98,2022-08-17 13:24:35.593750
2808,67.04,2022-08-17 13:24:35.609375
2809,80.74,2022-08-17 13:24:35.625000
2810,92.86,2022-08-17 13:24:35.640625
2811,100.33,2022-08-17 13:24:35.656250
2812,101.61,2022-08-17 13:24:35.671875
2813,97.09,2022-08-17 13:24:35.687500
2814,88.83,2022-08-17 13:24:35.703125
2815,79.51,2022-08-17 13:24:35.718750
2816,71.08,2022-08-17 13:24:35.734375
2817,64.21,2022-08-17 13:24:35.750000
2818,58.19,2022-08-17 13:24:35.765625
2819,51.67,2022-08-17 13:24:35.781250
2820,43.59,2022-08-17 13:24:35.796875
2821,33.85,2022-08-17 13:24:35.812500
2822,23.3,2022-08-17 13:24:35.828125
2823,13.17,2022-08-17 13:24:35.843750
2824,4.53,2022-08-17 13:24:35.859375
2825,-1.89,2022-08-17 13:24:35.875000
2826,-5.45,2022-08-17 13:24:35.890625
2827,-5.26,2022-08-17 13:24:35.906250
2828,-0.4,2022-08-17 13:24:35.921875
2829,9.54,2022-08-17 13:24:35.937500
2830,23.82,2022-08-17 13:24:35.953125
2831,40.48,2022-08-17 13:24:35.968750
2832,57.09,2022-08-17 13:24:35.984375
2833,72.09,2022-08-17 13:24:36.000000
2834,85.73,2022-08-17 13:24:36.015625
2835,99.9,2022-08-17 13:24:36.031250
2836,116.94,2022-08-17 13:24:36.046875
2837,137.85,2022-08-17 13:24:36.062500
2838,161.21,2022-08-17 13:24:36.078125
2839,183.53,2022-08-17 13:24:36.093750
2840,200.73,2022-08-17 13:24:36.109375
2841,210.14,2022-08-17 13:24:36.125000
2842,211.73,2022-08-17 13:24:36.140625
2843,207.85,2022-08-17 13:24:36.156250
2844,201.74,2022-08-17 13:24:36.171875
2845,195.75,2022-08-17 13:24:36.187500
2846,190.23,2022-08-17 13:24:36.203125
2847,183.64,2022-08-17 13:24:36.218750
2848,173.68,2022-08-17 13:24:36.234375
2849,158.64,2022-08-17 13:24:36.250000
2850,138.25,2022-08-17 13:24:36.265625
2851,113.7,2022-08-17 13:24:36.281250
2852,86.83,2022-08-17 13:24:36.296875
2853,59.3,2022-08-17 13:24:36.312500
2854,32.22,2022-08-17 13:24:36.328125
2855,6.32,2022-08-17 13:24:36.343750
2856,-17.39,2022-08-17 13:24:36.359375
2857,-37.35,2022-08-17 13:24:36.375000
2858,-51.81,2022-08-17 13:24:36.390625
2859,-59.58,2022-08-17 13:24:36.406250
2860,-60.87,2022-08-17 13:24:36.421875
2861,-57.41,2022-08-17 13:24:36.437500
2862,-51.86,2022-08-17 13:24:36.453125
2863,-46.71,2022-08-17 13:24:36.468750
2864,-43.44,2022-08-17 13:24:36.484375
2865,-42.26,2022-08-17 13:24:36.500000
2866,-42.49,2022-08-17 13:24:36.515625
2867,-43.26,2022-08-17 13:24:36.531250
2868,-44.05,2022-08-17 13:24:36.546875
2869,-44.85,2022-08-17 13:24:36.562500
2870,-45.93,2022-08-17 13:24:36.578125
2871,-47.67,2022-08-17 13:24:36.593750
2872,-50.4,2022-08-17 13:24:36.609375
2873,-54.41,2022-08-17 13:24:36.625000
2874,-59.79,2022-08-17 13:24:36.640625
2875,-66.34,2022-08-17 13:24:36.656250
2876,-73.3,2022-08-17 13:24:36.671875
2877,-79.49,2022-08-17 13:24:36.687500
2878,-83.59,2022-08-17 13:24:36.703125
2879,-84.65,2022-08-17 13:24:36.718750
2880,-82.51,2022-08-17 13:24:36.734375
2881,-77.82,2022-08-17 13:24:36.750000
2882,-71.73,2022-08-17 13:24:36.765625
2883,-65.36,2022-08-17 13:24:36.781250
2884,-59.45,2022-08-17 13:24:36.796875
2885,-54.32,2022-08-17 13:24:36.812500
2886,-50.02,2022-08-17 13:24:36.828125
2887,-46.68,2022-08-17 13:24:36.843750
2888,-44.55,2022-08-17 13:24:36.859375
2889,-43.97,2022-08-17 13:24:36.875000
2890,-45.1,2022-08-17 13:24:36.890625
2891,-47.79,2022-08-17 13:24:36.906250
2892,-51.51,2022-08-17 13:24:36.921875
2893,-55.61,2022-08-17 13:24:36.937500
2894,-59.55,2022-08-17 13:24:36.953125
2895,-62.99,2022-08-17 13:24:36.968750
2896,-65.84,2022-08-17 13:24:36.984375
2897,-68.04,2022-08-17 13:24:37.000000
2898,-69.51,2022-08-17 13:24:37.015625
2899,-70.05,2022-08-17 13:24:37.031250
2900,-69.55,2022-08-17 13:24:37.046875
2901,-68.05,2022-08-17 13:24:37.062500
2902,-65.79,2022-08-17 13:24:37.078125
2903,-63.23,2022-08-17 13:24:37.093750
2904,-60.83,2022-08-17 13:24:37.109375
2905,-59.03,2022-08-17 13:24:37.125000
2906,-58.23,2022-08-17 13:24:37.140625
2907,-58.8,2022-08-17 13:24:37.156250
2908,-61.12,2022-08-17 13:24:37.171875
2909,-65.35,2022-08-17 13:24:37.187500
2910,-71.2,2022-08-17 13:24:37.203125
2911,-77.77,2022-08-17 13:24:37.218750
2912,-83.64,2022-08-17 13:24:37.234375
2913,-87.27,2022-08-17 13:24:37.250000
2914,-87.63,2022-08-17 13:24:37.265625
2915,-84.56,2022-08-17 13:24:37.281250
2916,-78.81,2022-08-17 13:24:37.296875
2917,-71.69,2022-08-17 13:24:37.312500
2918,-64.42,2022-08-17 13:24:37.328125
2919,-57.76,2022-08-17 13:24:37.343750
2920,-51.73,2022-08-17 13:24:37.359375
2921,-45.88,2022-08-17 13:24:37.375000
2922,-39.66,2022-08-17 13:24:37.390625
2923,-32.81,2022-08-17 13:24:37.406250
2924,-25.59,2022-08-17 13:24:37.421875
2925,-18.67,2022-08-17 13:24:37.437500
2926,-12.8,2022-08-17 13:24:37.453125
2927,-8.47,2022-08-17 13:24:37.468750
2928,-5.72,2022-08-17 13:24:37.484375
2929,-4.17,2022-08-17 13:24:37.500000
2930,-3.33,2022-08-17 13:24:37.515625
2931,-2.95,2022-08-17 13:24:37.531250
2932,-3.16,2022-08-17 13:24:37.546875
2933,-4.39,2022-08-17 13:24:37.562500
2934,-6.98,2022-08-17 13:24:37.578125
2935,-10.84,2022-08-17 13:24:37.593750
2936,-15.32,2022-08-17 13:24:37.609375
2937,-19.51,2022-08-17 13:24:37.625000
2938,-22.65,2022-08-17 13:24:37.640625
2939,-24.49,2022-08-17 13:24:37.656250
2940,-25.49,2022-08-17 13:24:37.671875
2941,-26.45,2022-08-17 13:24:37.687500
2942,-28.16,2022-08-17 13:24:37.703125
2943,-31.02,2022-08-17 13:24:37.718750
2944,-34.88,2022-08-17 13:24:37.734375
2945,-39.23,2022-08-17 13:24:37.750000
2946,-43.36,2022-08-17 13:24:37.765625
2947,-46.57,2022-08-17 13:24:37.781250
2948,-48.21,2022-08-17 13:24:37.796875
2949,-47.74,2022-08-17 13:24:37.812500
2950,-44.77,2022-08-17 13:24:37.828125
2951,-39.19,2022-08-17 13:24:37.843750
2952,-31.25,2022-08-17 13:24:37.859375
2953,-21.71,2022-08-17 13:24:37.875000
2954,-11.64,2022-08-17 13:24:37.890625
2955,-2.23,2022-08-17 13:24:37.906250
2956,5.48,2022-08-17 13:24:37.921875
2957,10.93,2022-08-17 13:24:37.937500
2958,14.02,2022-08-17 13:24:37.953125
2959,15.12,2022-08-17 13:24:37.968750
2960,14.91,2022-08-17 13:24:37.984375
2961,14.19,2022-08-17 13:24:38.000000
2962,13.73,2022-08-17 13:24:38.015625
2963,14.26,2022-08-17 13:24:38.031250
2964,16.34,2022-08-17 13:24:38.046875
2965,20.26,2022-08-17 13:24:38.062500
2966,25.97,2022-08-17 13:24:38.078125
2967,32.93,2022-08-17 13:24:38.093750
2968,40.23,2022-08-17 13:24:38.109375
2969,46.81,2022-08-17 13:24:38.125000
2970,51.79,2022-08-17 13:24:38.140625
2971,54.68,2022-08-17 13:24:38.156250
2972,55.51,2022-08-17 13:24:38.171875
2973,54.7,2022-08-17 13:24:38.187500
2974,52.88,2022-08-17 13:24:38.203125
2975,50.6,2022-08-17 13:24:38.218750
2976,48.23,2022-08-17 13:24:38.234375
2977,45.92,2022-08-17 13:24:38.250000
2978,43.69,2022-08-17 13:24:38.265625
2979,41.4,2022-08-17 13:24:38.281250
2980,38.94,2022-08-17 13:24:38.296875
2981,36.25,2022-08-17 13:24:38.312500
2982,33.59,2022-08-17 13:24:38.328125
2983,31.58,2022-08-17 13:24:38.343750
2984,30.98,2022-08-17 13:24:38.359375
2985,32.39,2022-08-17 13:24:38.375000
2986,35.95,2022-08-17 13:24:38.390625
2987,41.27,2022-08-17 13:24:38.406250
2988,47.44,2022-08-17 13:24:38.421875
2989,53.42,2022-08-17 13:24:38.437500
2990,58.49,2022-08-17 13:24:38.453125
2991,62.57,2022-08-17 13:24:38.468750
2992,66.15,2022-08-17 13:24:38.484375
2993,69.49,2022-08-17 13:24:38.500000
2994,72.19,2022-08-17 13:24:38.515625
2995,73.14,2022-08-17 13:24:38.531250
2996,71.09,2022-08-17 13:24:38.546875
2997,65.45,2022-08-17 13:24:38.562500
2998,56.78,2022-08-17 13:24:38.578125
2999,46.82,2022-08-17 13:24:38.593750
3000,37.93,2022-08-17 13:24:38.609375
3001,32.26,2022-08-17 13:24:38.625000
3002,30.5,2022-08-17 13:24:38.640625
3003,31.77,2022-08-17 13:24:38.656250
3004,34.27,2022-08-17 13:24:38.671875
3005,36.42,2022-08-17 13:24:38.687500
3006,37.64,2022-08-17 13:24:38.703125
3007,38.26,2022-08-17 13:24:38.718750
3008,39.07,2022-08-17 13:24:38.734375
3009,40.67,2022-08-17 13:24:38.750000
3010,43.03,2022-08-17 13:24:38.765625
3011,44.67,2022-08-17 13:24:38.781250
3012,43.08,2022-08-17 13:24:38.796875
3013,35.5,2022-08-17 13:24:38.812500
3014,20.08,2022-08-17 13:24:38.828125
3015,-3.43,2022-08-17 13:24:38.843750
3016,-33.83,2022-08-17 13:24:38.859375
3017,-68.74,2022-08-17 13:24:38.875000
3018,-105.24,2022-08-17 13:24:38.890625
3019,-136.53,2022-08-17 13:24:38.906250
3020,-155.2,2022-08-17 13:24:38.921875
3021,-156.13,2022-08-17 13:24:38.937500
3022,-139.54,2022-08-17 13:24:38.953125
3023,-110.68,2022-08-17 13:24:38.968750
3024,-76.23,2022-08-17 13:24:38.984375
3025,-41.35,2022-08-17 13:24:39.000000
3026,-8.43,2022-08-17 13:24:39.015625
3027,22.1,2022-08-17 13:24:39.031250
3028,50.48,2022-08-17 13:24:39.046875
3029,76.2,2022-08-17 13:24:39.062500
3030,97.97,2022-08-17 13:24:39.078125
3031,114.39,2022-08-17 13:24:39.093750
3032,124.88,2022-08-17 13:24:39.109375
3033,130.26,2022-08-17 13:24:39.125000
3034,131.86,2022-08-17 13:24:39.140625
3035,131.5,2022-08-17 13:24:39.156250
3036,130.9,2022-08-17 13:24:39.171875
3037,131.11,2022-08-17 13:24:39.187500
3038,131.8,2022-08-17 13:24:39.203125
3039,131.53,2022-08-17 13:24:39.218750
3040,128.4,2022-08-17 13:24:39.234375
3041,121.14,2022-08-17 13:24:39.250000
3042,109.91,2022-08-17 13:24:39.265625
3043,95.63,2022-08-17 13:24:39.281250
3044,80.35,2022-08-17 13:24:39.296875
3045,66.35,2022-08-17 13:24:39.312500
3046,55.27,2022-08-17 13:24:39.328125
3047,47.1,2022-08-17 13:24:39.343750
3048,40.01,2022-08-17 13:24:39.359375
3049,30.85,2022-08-17 13:24:39.375000
3050,16.1,2022-08-17 13:24:39.390625
3051,-2.53,2022-08-17 13:24:39.406250
3052,-23.75,2022-08-17 13:24:39.421875
3053,-45.69,2022-08-17 13:24:39.437500
3054,-66.36,2022-08-17 13:24:39.453125
3055,-83.89,2022-08-17 13:24:39.468750
3056,-96.42,2022-08-17 13:24:39.484375
3057,-101.74,2022-08-17 13:24:39.500000
3058,-97.38,2022-08-17 13:24:39.515625
3059,-81.29,2022-08-17 13:24:39.531250
3060,-53.18,2022-08-17 13:24:39.546875
3061,-16.21,2022-08-17 13:24:39.562500
3062,24.41,2022-08-17 13:24:39.578125
3063,63.48,2022-08-17 13:24:39.593750
3064,98.51,2022-08-17 13:24:39.609375
3065,131.0,2022-08-17 13:24:39.625000
3066,165.11,2022-08-17 13:24:39.640625
3067,204.21,2022-08-17 13:24:39.656250
3068,247.44,2022-08-17 13:24:39.671875
3069,288.55,2022-08-17 13:24:39.687500
3070,317.63,2022-08-17 13:24:39.703125
3071,326.37,2022-08-17 13:24:39.718750
3072,312.21,2022-08-17 13:24:39.734375
3073,279.66,2022-08-17 13:24:39.750000
3074,238.02,2022-08-17 13:24:39.765625
3075,196.72,2022-08-17 13:24:39.781250
3076,161.39,2022-08-17 13:24:39.796875
3077,132.45,2022-08-17 13:24:39.812500
3078,106.52,2022-08-17 13:24:39.828125
3079,79.3,2022-08-17 13:24:39.843750
3080,48.33,2022-08-17 13:24:39.859375
3081,13.48,2022-08-17 13:24:39.875000
3082,-24.32,2022-08-17 13:24:39.890625
3083,-64.47,2022-08-17 13:24:39.906250
3084,-107.26,2022-08-17 13:24:39.921875
3085,-153.0,2022-08-17 13:24:39.937500
3086,-200.69,2022-08-17 13:24:39.953125
3087,-247.24,2022-08-17 13:24:39.968750
3088,-288.25,2022-08-17 13:24:39.984375
3089,-319.17,2022-08-17 13:24:40.000000
3090,-337.17,2022-08-17 13:24:40.015625
3091,-341.98,2022-08-17 13:24:40.031250
3092,-335.59,2022-08-17 13:24:40.046875
3093,-321.24,2022-08-17 13:24:40.062500
3094,-302.04,2022-08-17 13:24:40.078125
3095,-280.18,2022-08-17 13:24:40.093750
3096,-256.94,2022-08-17 13:24:40.109375
3097,-233.2,2022-08-17 13:24:40.125000
3098,-209.99,2022-08-17 13:24:40.140625
3099,-188.68,2022-08-17 13:24:40.156250
3100,-170.67,2022-08-17 13:24:40.171875
3101,-156.82,2022-08-17 13:24:40.187500
3102,-147.04,2022-08-17 13:24:40.203125
3103,-140.23,2022-08-17 13:24:40.218750
3104,-134.72,2022-08-17 13:24:40.234375
3105,-128.92,2022-08-17 13:24:40.250000
3106,-121.93,2022-08-17 13:24:40.265625
3107,-113.81,2022-08-17 13:24:40.281250
3108,-105.36,2022-08-17 13:24:40.296875
3109,-97.44,2022-08-17 13:24:40.312500
3110,-90.43,2022-08-17 13:24:40.328125
3111,-84.03,2022-08-17 13:24:40.343750
3112,-77.57,2022-08-17 13:24:40.359375
3113,-70.54,2022-08-17 13:24:40.375000
3114,-63.08,2022-08-17 13:24:40.390625
3115,-55.91,2022-08-17 13:24:40.406250
3116,-49.83,2022-08-17 13:24:40.421875
3117,-45.17,2022-08-17 13:24:40.437500
3118,-41.54,2022-08-17 13:24:40.453125
3119,-37.92,2022-08-17 13:24:40.468750
3120,-33.27,2022-08-17 13:24:40.484375
3121,-27.06,2022-08-17 13:24:40.500000
3122,-19.5,2022-08-17 13:24:40.515625
3123,-11.34,2022-08-17 13:24:40.531250
3124,-3.48,2022-08-17 13:24:40.546875
3125,3.56,2022-08-17 13:24:40.562500
3126,9.71,2022-08-17 13:24:40.578125
3127,15.2,2022-08-17 13:24:40.593750
3128,20.27,2022-08-17 13:24:40.609375
3129,24.86,2022-08-17 13:24:40.625000
3130,28.59,2022-08-17 13:24:40.640625
3131,30.86,2022-08-17 13:24:40.656250
3132,31.14,2022-08-17 13:24:40.671875
3133,29.34,2022-08-17 13:24:40.687500
3134,26.11,2022-08-17 13:24:40.703125
3135,22.93,2022-08-17 13:24:40.718750
3136,21.82,2022-08-17 13:24:40.734375
3137,24.68,2022-08-17 13:24:40.750000
3138,32.54,2022-08-17 13:24:40.765625
3139,44.83,2022-08-17 13:24:40.781250
3140,59.41,2022-08-17 13:24:40.796875
3141,73.14,2022-08-17 13:24:40.812500
3142,83.02,2022-08-17 13:24:40.828125
3143,87.18,2022-08-17 13:24:40.843750
3144,85.46,2022-08-17 13:24:40.859375
3145,79.22,2022-08-17 13:24:40.875000
3146,70.55,2022-08-17 13:24:40.890625
