,BVP,time
0,8.03,2021-12-17 16:24:54.093750
1,7.34,2021-12-17 16:24:54.109375
2,6.51,2021-12-17 16:24:54.125000
3,5.46,2021-12-17 16:24:54.140625
4,4.19,2021-12-17 16:24:54.156250
5,2.72,2021-12-17 16:24:54.171875
6,1.12,2021-12-17 16:24:54.187500
7,-0.57,2021-12-17 16:24:54.203125
8,-2.31,2021-12-17 16:24:54.218750
9,-4.13,2021-12-17 16:24:54.234375
10,-6.13,2021-12-17 16:24:54.250000
11,-8.39,2021-12-17 16:24:54.265625
12,-10.88,2021-12-17 16:24:54.281250
13,-13.5,2021-12-17 16:24:54.296875
14,-16.07,2021-12-17 16:24:54.312500
15,-18.43,2021-12-17 16:24:54.328125
16,-20.5,2021-12-17 16:24:54.343750
17,-22.31,2021-12-17 16:24:54.359375
18,-23.98,2021-12-17 16:24:54.375000
19,-25.64,2021-12-17 16:24:54.390625
20,-27.4,2021-12-17 16:24:54.406250
21,-29.32,2021-12-17 16:24:54.421875
22,-31.34,2021-12-17 16:24:54.437500
23,-33.32,2021-12-17 16:24:54.453125
24,-35.03,2021-12-17 16:24:54.468750
25,-36.11,2021-12-17 16:24:54.484375
26,-36.18,2021-12-17 16:24:54.500000
27,-34.94,2021-12-17 16:24:54.515625
28,-32.31,2021-12-17 16:24:54.531250
29,-28.41,2021-12-17 16:24:54.546875
30,-23.6,2021-12-17 16:24:54.562500
31,-18.33,2021-12-17 16:24:54.578125
32,-13.1,2021-12-17 16:24:54.593750
33,-8.33,2021-12-17 16:24:54.609375
34,-4.33,2021-12-17 16:24:54.625000
35,-1.27,2021-12-17 16:24:54.640625
36,0.82,2021-12-17 16:24:54.656250
37,2.12,2021-12-17 16:24:54.671875
38,2.93,2021-12-17 16:24:54.687500
39,3.63,2021-12-17 16:24:54.703125
40,4.48,2021-12-17 16:24:54.718750
41,5.45,2021-12-17 16:24:54.734375
42,6.28,2021-12-17 16:24:54.750000
43,6.48,2021-12-17 16:24:54.765625
44,5.66,2021-12-17 16:24:54.781250
45,3.79,2021-12-17 16:24:54.796875
46,1.41,2021-12-17 16:24:54.812500
47,-0.54,2021-12-17 16:24:54.828125
48,-1.0,2021-12-17 16:24:54.843750
49,0.64,2021-12-17 16:24:54.859375
50,4.19,2021-12-17 16:24:54.875000
51,8.62,2021-12-17 16:24:54.890625
52,12.46,2021-12-17 16:24:54.906250
53,14.44,2021-12-17 16:24:54.921875
54,14.02,2021-12-17 16:24:54.937500
55,11.68,2021-12-17 16:24:54.953125
56,8.57,2021-12-17 16:24:54.968750
57,5.99,2021-12-17 16:24:54.984375
58,4.77,2021-12-17 16:24:55.000000
59,4.95,2021-12-17 16:24:55.015625
60,5.84,2021-12-17 16:24:55.031250
61,6.43,2021-12-17 16:24:55.046875
62,5.92,2021-12-17 16:24:55.062500
63,4.09,2021-12-17 16:24:55.078125
64,1.52,2021-12-17 16:24:55.093750
65,-0.29,2021-12-17 16:24:55.109375
66,0.99,2021-12-17 16:24:55.125000
67,8.28,2021-12-17 16:24:55.140625
68,24.54,2021-12-17 16:24:55.156250
69,52.1,2021-12-17 16:24:55.171875
70,91.91,2021-12-17 16:24:55.187500
71,142.96,2021-12-17 16:24:55.203125
72,202.14,2021-12-17 16:24:55.218750
73,264.58,2021-12-17 16:24:55.234375
74,324.17,2021-12-17 16:24:55.250000
75,374.54,2021-12-17 16:24:55.265625
76,409.9,2021-12-17 16:24:55.281250
77,425.92,2021-12-17 16:24:55.296875
78,420.54,2021-12-17 16:24:55.312500
79,394.26,2021-12-17 16:24:55.328125
80,350.02,2021-12-17 16:24:55.343750
81,292.23,2021-12-17 16:24:55.359375
82,225.89,2021-12-17 16:24:55.375000
83,155.86,2021-12-17 16:24:55.390625
84,86.74,2021-12-17 16:24:55.406250
85,22.96,2021-12-17 16:24:55.421875
86,-31.65,2021-12-17 16:24:55.437500
87,-74.9,2021-12-17 16:24:55.453125
88,-107.37,2021-12-17 16:24:55.468750
89,-132.75,2021-12-17 16:24:55.484375
90,-156.45,2021-12-17 16:24:55.500000
91,-182.92,2021-12-17 16:24:55.515625
92,-213.2,2021-12-17 16:24:55.531250
93,-244.13,2021-12-17 16:24:55.546875
94,-270.17,2021-12-17 16:24:55.562500
95,-286.68,2021-12-17 16:24:55.578125
96,-292.85,2021-12-17 16:24:55.593750
97,-292.44,2021-12-17 16:24:55.609375
98,-291.43,2021-12-17 16:24:55.625000
99,-294.18,2021-12-17 16:24:55.640625
100,-300.18,2021-12-17 16:24:55.656250
101,-303.68,2021-12-17 16:24:55.671875
102,-296.34,2021-12-17 16:24:55.687500
103,-271.61,2021-12-17 16:24:55.703125
104,-228.58,2021-12-17 16:24:55.718750
105,-173.29,2021-12-17 16:24:55.734375
106,-117.07,2021-12-17 16:24:55.750000
107,-72.48,2021-12-17 16:24:55.765625
108,-48.89,2021-12-17 16:24:55.781250
109,-49.45,2021-12-17 16:24:55.796875
110,-70.52,2021-12-17 16:24:55.812500
111,-103.44,2021-12-17 16:24:55.828125
112,-137.88,2021-12-17 16:24:55.843750
113,-165.36,2021-12-17 16:24:55.859375
114,-181.43,2021-12-17 16:24:55.875000
115,-185.99,2021-12-17 16:24:55.890625
116,-181.76,2021-12-17 16:24:55.906250
117,-171.94,2021-12-17 16:24:55.921875
118,-158.4,2021-12-17 16:24:55.937500
119,-141.3,2021-12-17 16:24:55.953125
120,-120.05,2021-12-17 16:24:55.968750
121,-94.62,2021-12-17 16:24:55.984375
122,-66.39,2021-12-17 16:24:56.000000
123,-37.65,2021-12-17 16:24:56.015625
124,-10.35,2021-12-17 16:24:56.031250
125,15.02,2021-12-17 16:24:56.046875
126,39.47,2021-12-17 16:24:56.062500
127,64.42,2021-12-17 16:24:56.078125
128,90.24,2021-12-17 16:24:56.093750
129,115.25,2021-12-17 16:24:56.109375
130,136.14,2021-12-17 16:24:56.125000
131,149.44,2021-12-17 16:24:56.140625
132,153.33,2021-12-17 16:24:56.156250
133,148.76,2021-12-17 16:24:56.171875
134,139.17,2021-12-17 16:24:56.187500
135,129.19,2021-12-17 16:24:56.203125
136,122.92,2021-12-17 16:24:56.218750
137,122.42,2021-12-17 16:24:56.234375
138,127.18,2021-12-17 16:24:56.250000
139,134.62,2021-12-17 16:24:56.265625
140,141.3,2021-12-17 16:24:56.281250
141,144.39,2021-12-17 16:24:56.296875
142,142.7,2021-12-17 16:24:56.312500
143,136.79,2021-12-17 16:24:56.328125
144,128.35,2021-12-17 16:24:56.343750
145,119.08,2021-12-17 16:24:56.359375
146,110.02,2021-12-17 16:24:56.375000
147,101.5,2021-12-17 16:24:56.390625
148,93.6,2021-12-17 16:24:56.406250
149,86.6,2021-12-17 16:24:56.421875
150,81.17,2021-12-17 16:24:56.437500
151,77.88,2021-12-17 16:24:56.453125
152,76.65,2021-12-17 16:24:56.468750
153,76.46,2021-12-17 16:24:56.484375
154,75.62,2021-12-17 16:24:56.500000
155,72.43,2021-12-17 16:24:56.515625
156,65.93,2021-12-17 16:24:56.531250
157,56.33,2021-12-17 16:24:56.546875
158,44.96,2021-12-17 16:24:56.562500
159,33.63,2021-12-17 16:24:56.578125
160,24.04,2021-12-17 16:24:56.593750
161,17.23,2021-12-17 16:24:56.609375
162,13.43,2021-12-17 16:24:56.625000
163,12.3,2021-12-17 16:24:56.640625
164,13.15,2021-12-17 16:24:56.656250
165,15.26,2021-12-17 16:24:56.671875
166,17.86,2021-12-17 16:24:56.687500
167,20.23,2021-12-17 16:24:56.703125
168,21.74,2021-12-17 16:24:56.718750
169,22.03,2021-12-17 16:24:56.734375
170,21.32,2021-12-17 16:24:56.750000
171,20.38,2021-12-17 16:24:56.765625
172,20.47,2021-12-17 16:24:56.781250
173,22.75,2021-12-17 16:24:56.796875
174,27.87,2021-12-17 16:24:56.812500
175,35.62,2021-12-17 16:24:56.828125
176,45.05,2021-12-17 16:24:56.843750
177,54.79,2021-12-17 16:24:56.859375
178,63.64,2021-12-17 16:24:56.875000
179,70.83,2021-12-17 16:24:56.890625
180,76.2,2021-12-17 16:24:56.906250
181,80.13,2021-12-17 16:24:56.921875
182,83.32,2021-12-17 16:24:56.937500
183,86.66,2021-12-17 16:24:56.953125
184,91.0,2021-12-17 16:24:56.968750
185,97.02,2021-12-17 16:24:56.984375
186,104.92,2021-12-17 16:24:57.000000
187,114.36,2021-12-17 16:24:57.015625
188,124.45,2021-12-17 16:24:57.031250
189,133.92,2021-12-17 16:24:57.046875
190,141.45,2021-12-17 16:24:57.062500
191,145.98,2021-12-17 16:24:57.078125
192,147.08,2021-12-17 16:24:57.093750
193,144.95,2021-12-17 16:24:57.109375
194,140.13,2021-12-17 16:24:57.125000
195,132.98,2021-12-17 16:24:57.140625
196,123.14,2021-12-17 16:24:57.156250
197,109.35,2021-12-17 16:24:57.171875
198,89.64,2021-12-17 16:24:57.187500
199,62.0,2021-12-17 16:24:57.203125
200,25.29,2021-12-17 16:24:57.218750
201,-19.92,2021-12-17 16:24:57.234375
202,-70.98,2021-12-17 16:24:57.250000
203,-123.41,2021-12-17 16:24:57.265625
204,-171.87,2021-12-17 16:24:57.281250
205,-211.47,2021-12-17 16:24:57.296875
206,-239.03,2021-12-17 16:24:57.312500
207,-253.82,2021-12-17 16:24:57.328125
208,-257.4,2021-12-17 16:24:57.343750
209,-252.9,2021-12-17 16:24:57.359375
210,-243.79,2021-12-17 16:24:57.375000
211,-232.93,2021-12-17 16:24:57.390625
212,-221.98,2021-12-17 16:24:57.406250
213,-211.49,2021-12-17 16:24:57.421875
214,-201.47,2021-12-17 16:24:57.437500
215,-191.91,2021-12-17 16:24:57.453125
216,-183.0,2021-12-17 16:24:57.468750
217,-175.01,2021-12-17 16:24:57.484375
218,-168.01,2021-12-17 16:24:57.500000
219,-161.79,2021-12-17 16:24:57.515625
220,-155.99,2021-12-17 16:24:57.531250
221,-150.37,2021-12-17 16:24:57.546875
222,-145.01,2021-12-17 16:24:57.562500
223,-140.22,2021-12-17 16:24:57.578125
224,-136.34,2021-12-17 16:24:57.593750
225,-133.39,2021-12-17 16:24:57.609375
226,-130.84,2021-12-17 16:24:57.625000
227,-127.68,2021-12-17 16:24:57.640625
228,-122.75,2021-12-17 16:24:57.656250
229,-115.16,2021-12-17 16:24:57.671875
230,-104.74,2021-12-17 16:24:57.687500
231,-92.14,2021-12-17 16:24:57.703125
232,-78.62,2021-12-17 16:24:57.718750
233,-65.69,2021-12-17 16:24:57.734375
234,-54.54,2021-12-17 16:24:57.750000
235,-45.69,2021-12-17 16:24:57.765625
236,-39.0,2021-12-17 16:24:57.781250
237,-33.84,2021-12-17 16:24:57.796875
238,-29.47,2021-12-17 16:24:57.812500
239,-25.38,2021-12-17 16:24:57.828125
240,-21.43,2021-12-17 16:24:57.843750
241,-17.77,2021-12-17 16:24:57.859375
242,-14.68,2021-12-17 16:24:57.875000
243,-12.29,2021-12-17 16:24:57.890625
244,-10.46,2021-12-17 16:24:57.906250
245,-8.84,2021-12-17 16:24:57.921875
246,-7.0,2021-12-17 16:24:57.937500
247,-4.6,2021-12-17 16:24:57.953125
248,-1.56,2021-12-17 16:24:57.968750
249,1.92,2021-12-17 16:24:57.984375
250,5.47,2021-12-17 16:24:58.000000
251,8.68,2021-12-17 16:24:58.015625
252,11.26,2021-12-17 16:24:58.031250
253,13.11,2021-12-17 16:24:58.046875
254,14.39,2021-12-17 16:24:58.062500
255,15.37,2021-12-17 16:24:58.078125
256,16.29,2021-12-17 16:24:58.093750
257,17.21,2021-12-17 16:24:58.109375
258,18.0,2021-12-17 16:24:58.125000
259,18.45,2021-12-17 16:24:58.140625
260,18.47,2021-12-17 16:24:58.156250
261,18.15,2021-12-17 16:24:58.171875
262,17.69,2021-12-17 16:24:58.187500
263,17.24,2021-12-17 16:24:58.203125
264,16.8,2021-12-17 16:24:58.218750
265,16.2,2021-12-17 16:24:58.234375
266,15.28,2021-12-17 16:24:58.250000
267,14.04,2021-12-17 16:24:58.265625
268,12.7,2021-12-17 16:24:58.281250
269,11.55,2021-12-17 16:24:58.296875
270,10.74,2021-12-17 16:24:58.312500
271,10.2,2021-12-17 16:24:58.328125
272,9.62,2021-12-17 16:24:58.343750
273,8.75,2021-12-17 16:24:58.359375
274,7.5,2021-12-17 16:24:58.375000
275,5.97,2021-12-17 16:24:58.390625
276,4.34,2021-12-17 16:24:58.406250
277,2.61,2021-12-17 16:24:58.421875
278,0.58,2021-12-17 16:24:58.437500
279,-2.03,2021-12-17 16:24:58.453125
280,-5.33,2021-12-17 16:24:58.468750
281,-9.11,2021-12-17 16:24:58.484375
282,-12.95,2021-12-17 16:24:58.500000
283,-16.45,2021-12-17 16:24:58.515625
284,-19.52,2021-12-17 16:24:58.531250
285,-22.42,2021-12-17 16:24:58.546875
286,-25.57,2021-12-17 16:24:58.562500
287,-29.22,2021-12-17 16:24:58.578125
288,-33.15,2021-12-17 16:24:58.593750
289,-36.7,2021-12-17 16:24:58.609375
290,-39.05,2021-12-17 16:24:58.625000
291,-39.49,2021-12-17 16:24:58.640625
292,-37.61,2021-12-17 16:24:58.656250
293,-33.04,2021-12-17 16:24:58.671875
294,-25.38,2021-12-17 16:24:58.687500
295,-14.22,2021-12-17 16:24:58.703125
296,0.31,2021-12-17 16:24:58.718750
297,16.95,2021-12-17 16:24:58.734375
298,33.25,2021-12-17 16:24:58.750000
299,46.14,2021-12-17 16:24:58.765625
300,53.2,2021-12-17 16:24:58.781250
301,53.64,2021-12-17 16:24:58.796875
302,48.68,2021-12-17 16:24:58.812500
303,40.88,2021-12-17 16:24:58.828125
304,33.16,2021-12-17 16:24:58.843750
305,27.77,2021-12-17 16:24:58.859375
306,25.75,2021-12-17 16:24:58.875000
307,26.86,2021-12-17 16:24:58.890625
308,29.81,2021-12-17 16:24:58.906250
309,32.57,2021-12-17 16:24:58.921875
310,32.94,2021-12-17 16:24:58.937500
311,29.31,2021-12-17 16:24:58.953125
312,21.25,2021-12-17 16:24:58.968750
313,9.86,2021-12-17 16:24:58.984375
314,-2.56,2021-12-17 16:24:59.000000
315,-13.47,2021-12-17 16:24:59.015625
316,-21.06,2021-12-17 16:24:59.031250
317,-24.7,2021-12-17 16:24:59.046875
318,-24.71,2021-12-17 16:24:59.062500
319,-21.61,2021-12-17 16:24:59.078125
320,-15.6,2021-12-17 16:24:59.093750
321,-6.59,2021-12-17 16:24:59.109375
322,5.2,2021-12-17 16:24:59.125000
323,18.76,2021-12-17 16:24:59.140625
324,32.24,2021-12-17 16:24:59.156250
325,43.74,2021-12-17 16:24:59.171875
326,52.19,2021-12-17 16:24:59.187500
327,57.74,2021-12-17 16:24:59.203125
328,61.3,2021-12-17 16:24:59.218750
329,63.41,2021-12-17 16:24:59.234375
330,63.31,2021-12-17 16:24:59.250000
331,59.05,2021-12-17 16:24:59.265625
332,48.67,2021-12-17 16:24:59.281250
333,31.89,2021-12-17 16:24:59.296875
334,11.07,2021-12-17 16:24:59.312500
335,-9.36,2021-12-17 16:24:59.328125
336,-24.85,2021-12-17 16:24:59.343750
337,-33.02,2021-12-17 16:24:59.359375
338,-34.97,2021-12-17 16:24:59.375000
339,-34.54,2021-12-17 16:24:59.390625
340,-35.88,2021-12-17 16:24:59.406250
341,-41.02,2021-12-17 16:24:59.421875
342,-48.73,2021-12-17 16:24:59.437500
343,-55.57,2021-12-17 16:24:59.453125
344,-58.37,2021-12-17 16:24:59.468750
345,-56.42,2021-12-17 16:24:59.484375
346,-52.04,2021-12-17 16:24:59.500000
347,-49.19,2021-12-17 16:24:59.515625
348,-50.96,2021-12-17 16:24:59.531250
349,-57.67,2021-12-17 16:24:59.546875
350,-66.59,2021-12-17 16:24:59.562500
351,-73.39,2021-12-17 16:24:59.578125
352,-74.37,2021-12-17 16:24:59.593750
353,-68.2,2021-12-17 16:24:59.609375
354,-56.24,2021-12-17 16:24:59.625000
355,-41.59,2021-12-17 16:24:59.640625
356,-27.49,2021-12-17 16:24:59.656250
357,-16.09,2021-12-17 16:24:59.671875
358,-8.01,2021-12-17 16:24:59.687500
359,-2.74,2021-12-17 16:24:59.703125
360,0.82,2021-12-17 16:24:59.718750
361,3.77,2021-12-17 16:24:59.734375
362,6.87,2021-12-17 16:24:59.750000
363,10.31,2021-12-17 16:24:59.765625
364,13.63,2021-12-17 16:24:59.781250
365,15.82,2021-12-17 16:24:59.796875
366,15.93,2021-12-17 16:24:59.812500
367,13.78,2021-12-17 16:24:59.828125
368,10.49,2021-12-17 16:24:59.843750
369,8.18,2021-12-17 16:24:59.859375
370,8.89,2021-12-17 16:24:59.875000
371,13.11,2021-12-17 16:24:59.890625
372,19.17,2021-12-17 16:24:59.906250
373,23.92,2021-12-17 16:24:59.921875
374,24.45,2021-12-17 16:24:59.937500
375,19.98,2021-12-17 16:24:59.953125
376,12.53,2021-12-17 16:24:59.968750
377,5.94,2021-12-17 16:24:59.984375
378,3.91,2021-12-17 16:25:00.000000
379,8.2,2021-12-17 16:25:00.015625
380,18.17,2021-12-17 16:25:00.031250
381,31.54,2021-12-17 16:25:00.046875
382,45.62,2021-12-17 16:25:00.062500
383,58.13,2021-12-17 16:25:00.078125
384,67.43,2021-12-17 16:25:00.093750
385,72.31,2021-12-17 16:25:00.109375
386,72.24,2021-12-17 16:25:00.125000
387,67.81,2021-12-17 16:25:00.140625
388,61.11,2021-12-17 16:25:00.156250
389,55.48,2021-12-17 16:25:00.171875
390,54.47,2021-12-17 16:25:00.187500
391,60.43,2021-12-17 16:25:00.203125
392,73.66,2021-12-17 16:25:00.218750
393,92.26,2021-12-17 16:25:00.234375
394,112.87,2021-12-17 16:25:00.250000
395,131.84,2021-12-17 16:25:00.265625
396,145.94,2021-12-17 16:25:00.281250
397,152.89,2021-12-17 16:25:00.296875
398,151.64,2021-12-17 16:25:00.312500
399,142.51,2021-12-17 16:25:00.328125
400,127.33,2021-12-17 16:25:00.343750
401,109.2,2021-12-17 16:25:00.359375
402,91.67,2021-12-17 16:25:00.375000
403,77.76,2021-12-17 16:25:00.390625
404,69.18,2021-12-17 16:25:00.406250
405,66.14,2021-12-17 16:25:00.421875
406,67.66,2021-12-17 16:25:00.437500
407,72.08,2021-12-17 16:25:00.453125
408,77.45,2021-12-17 16:25:00.468750
409,81.77,2021-12-17 16:25:00.484375
410,83.07,2021-12-17 16:25:00.500000
411,79.75,2021-12-17 16:25:00.515625
412,70.84,2021-12-17 16:25:00.531250
413,56.42,2021-12-17 16:25:00.546875
414,37.71,2021-12-17 16:25:00.562500
415,16.83,2021-12-17 16:25:00.578125
416,-3.64,2021-12-17 16:25:00.593750
417,-21.42,2021-12-17 16:25:00.609375
418,-34.98,2021-12-17 16:25:00.625000
419,-43.81,2021-12-17 16:25:00.640625
420,-48.35,2021-12-17 16:25:00.656250
421,-49.74,2021-12-17 16:25:00.671875
422,-49.47,2021-12-17 16:25:00.687500
423,-48.89,2021-12-17 16:25:00.703125
424,-48.67,2021-12-17 16:25:00.718750
425,-48.21,2021-12-17 16:25:00.734375
426,-45.47,2021-12-17 16:25:00.750000
427,-37.44,2021-12-17 16:25:00.765625
428,-21.42,2021-12-17 16:25:00.781250
429,3.46,2021-12-17 16:25:00.796875
430,35.18,2021-12-17 16:25:00.812500
431,68.86,2021-12-17 16:25:00.828125
432,98.14,2021-12-17 16:25:00.843750
433,117.37,2021-12-17 16:25:00.859375
434,123.58,2021-12-17 16:25:00.875000
435,117.26,2021-12-17 16:25:00.890625
436,101.9,2021-12-17 16:25:00.906250
437,82.37,2021-12-17 16:25:00.921875
438,63.11,2021-12-17 16:25:00.937500
439,46.78,2021-12-17 16:25:00.953125
440,33.9,2021-12-17 16:25:00.968750
441,23.07,2021-12-17 16:25:00.984375
442,11.81,2021-12-17 16:25:01.000000
443,-2.4,2021-12-17 16:25:01.015625
444,-21.23,2021-12-17 16:25:01.031250
445,-44.9,2021-12-17 16:25:01.046875
446,-72.19,2021-12-17 16:25:01.062500
447,-100.95,2021-12-17 16:25:01.078125
448,-128.79,2021-12-17 16:25:01.093750
449,-153.8,2021-12-17 16:25:01.109375
450,-174.89,2021-12-17 16:25:01.125000
451,-191.82,2021-12-17 16:25:01.140625
452,-205.01,2021-12-17 16:25:01.156250
453,-215.16,2021-12-17 16:25:01.171875
454,-222.75,2021-12-17 16:25:01.187500
455,-227.69,2021-12-17 16:25:01.203125
456,-229.47,2021-12-17 16:25:01.218750
457,-227.58,2021-12-17 16:25:01.234375
458,-222.27,2021-12-17 16:25:01.250000
459,-214.97,2021-12-17 16:25:01.265625
460,-207.96,2021-12-17 16:25:01.281250
461,-203.45,2021-12-17 16:25:01.296875
462,-202.52,2021-12-17 16:25:01.312500
463,-204.46,2021-12-17 16:25:01.328125
464,-207.0,2021-12-17 16:25:01.343750
465,-207.17,2021-12-17 16:25:01.359375
466,-202.46,2021-12-17 16:25:01.375000
467,-191.62,2021-12-17 16:25:01.390625
468,-174.69,2021-12-17 16:25:01.406250
469,-152.78,2021-12-17 16:25:01.421875
470,-127.59,2021-12-17 16:25:01.437500
471,-101.15,2021-12-17 16:25:01.453125
472,-75.58,2021-12-17 16:25:01.468750
473,-52.77,2021-12-17 16:25:01.484375
474,-33.98,2021-12-17 16:25:01.500000
475,-19.37,2021-12-17 16:25:01.515625
476,-8.12,2021-12-17 16:25:01.531250
477,1.13,2021-12-17 16:25:01.546875
478,9.72,2021-12-17 16:25:01.562500
479,18.58,2021-12-17 16:25:01.578125
480,28.22,2021-12-17 16:25:01.593750
481,38.88,2021-12-17 16:25:01.609375
482,50.64,2021-12-17 16:25:01.625000
483,63.39,2021-12-17 16:25:01.640625
484,76.44,2021-12-17 16:25:01.656250
485,88.56,2021-12-17 16:25:01.671875
486,98.25,2021-12-17 16:25:01.687500
487,104.29,2021-12-17 16:25:01.703125
488,106.46,2021-12-17 16:25:01.718750
489,105.78,2021-12-17 16:25:01.734375
490,104.28,2021-12-17 16:25:01.750000
491,104.11,2021-12-17 16:25:01.765625
492,106.6,2021-12-17 16:25:01.781250
493,111.75,2021-12-17 16:25:01.796875
494,118.41,2021-12-17 16:25:01.812500
495,124.97,2021-12-17 16:25:01.828125
496,130.29,2021-12-17 16:25:01.843750
497,134.3,2021-12-17 16:25:01.859375
498,137.67,2021-12-17 16:25:01.875000
499,140.96,2021-12-17 16:25:01.890625
500,143.87,2021-12-17 16:25:01.906250
501,145.12,2021-12-17 16:25:01.921875
502,143.25,2021-12-17 16:25:01.937500
503,137.74,2021-12-17 16:25:01.953125
504,129.77,2021-12-17 16:25:01.968750
505,121.79,2021-12-17 16:25:01.984375
506,116.15,2021-12-17 16:25:02.000000
507,113.5,2021-12-17 16:25:02.015625
508,112.29,2021-12-17 16:25:02.031250
509,109.74,2021-12-17 16:25:02.046875
510,103.64,2021-12-17 16:25:02.062500
511,93.71,2021-12-17 16:25:02.078125
512,81.44,2021-12-17 16:25:02.093750
513,68.5,2021-12-17 16:25:02.109375
514,54.97,2021-12-17 16:25:02.125000
515,39.18,2021-12-17 16:25:02.140625
516,19.34,2021-12-17 16:25:02.156250
517,-4.05,2021-12-17 16:25:02.171875
518,-27.07,2021-12-17 16:25:02.187500
519,-43.85,2021-12-17 16:25:02.203125
520,-50.0,2021-12-17 16:25:02.218750
521,-45.38,2021-12-17 16:25:02.234375
522,-34.32,2021-12-17 16:25:02.250000
523,-22.83,2021-12-17 16:25:02.265625
524,-14.77,2021-12-17 16:25:02.281250
525,-9.69,2021-12-17 16:25:02.296875
526,-3.85,2021-12-17 16:25:02.312500
527,6.49,2021-12-17 16:25:02.328125
528,21.93,2021-12-17 16:25:02.343750
529,39.54,2021-12-17 16:25:02.359375
530,55.06,2021-12-17 16:25:02.375000
531,65.99,2021-12-17 16:25:02.390625
532,73.05,2021-12-17 16:25:02.406250
533,78.99,2021-12-17 16:25:02.421875
534,85.75,2021-12-17 16:25:02.437500
535,92.4,2021-12-17 16:25:02.453125
536,95.39,2021-12-17 16:25:02.468750
537,91.18,2021-12-17 16:25:02.484375
538,79.09,2021-12-17 16:25:02.500000
539,62.15,2021-12-17 16:25:02.515625
540,45.4,2021-12-17 16:25:02.531250
541,32.91,2021-12-17 16:25:02.546875
542,25.81,2021-12-17 16:25:02.562500
543,22.65,2021-12-17 16:25:02.578125
544,21.37,2021-12-17 16:25:02.593750
545,21.3,2021-12-17 16:25:02.609375
546,23.66,2021-12-17 16:25:02.625000
547,30.46,2021-12-17 16:25:02.640625
548,42.44,2021-12-17 16:25:02.656250
549,58.02,2021-12-17 16:25:02.671875
550,73.49,2021-12-17 16:25:02.687500
551,84.55,2021-12-17 16:25:02.703125
552,87.79,2021-12-17 16:25:02.718750
553,81.55,2021-12-17 16:25:02.734375
554,65.73,2021-12-17 16:25:02.750000
555,41.17,2021-12-17 16:25:02.765625
556,9.45,2021-12-17 16:25:02.781250
557,-26.43,2021-12-17 16:25:02.796875
558,-61.22,2021-12-17 16:25:02.812500
559,-87.62,2021-12-17 16:25:02.828125
560,-98.19,2021-12-17 16:25:02.843750
561,-88.42,2021-12-17 16:25:02.859375
562,-59.52,2021-12-17 16:25:02.875000
563,-19.08,2021-12-17 16:25:02.890625
564,20.74,2021-12-17 16:25:02.906250
565,47.06,2021-12-17 16:25:02.921875
566,50.22,2021-12-17 16:25:02.937500
567,26.53,2021-12-17 16:25:02.953125
568,-21.03,2021-12-17 16:25:02.968750
569,-83.84,2021-12-17 16:25:02.984375
570,-150.08,2021-12-17 16:25:03.000000
571,-207.66,2021-12-17 16:25:03.015625
572,-247.17,2021-12-17 16:25:03.031250
573,-264.11,2021-12-17 16:25:03.046875
574,-259.36,2021-12-17 16:25:03.062500
575,-237.89,2021-12-17 16:25:03.078125
576,-206.2,2021-12-17 16:25:03.093750
577,-169.99,2021-12-17 16:25:03.109375
578,-132.92,2021-12-17 16:25:03.125000
579,-97.18,2021-12-17 16:25:03.140625
580,-64.96,2021-12-17 16:25:03.156250
581,-39.29,2021-12-17 16:25:03.171875
582,-23.52,2021-12-17 16:25:03.187500
583,-19.3,2021-12-17 16:25:03.203125
584,-25.24,2021-12-17 16:25:03.218750
585,-36.9,2021-12-17 16:25:03.234375
586,-48.86,2021-12-17 16:25:03.250000
587,-57.42,2021-12-17 16:25:03.265625
588,-62.37,2021-12-17 16:25:03.281250
589,-66.7,2021-12-17 16:25:03.296875
590,-74.41,2021-12-17 16:25:03.312500
591,-88.12,2021-12-17 16:25:03.328125
592,-107.61,2021-12-17 16:25:03.343750
593,-129.96,2021-12-17 16:25:03.359375
594,-151.27,2021-12-17 16:25:03.375000
595,-168.64,2021-12-17 16:25:03.390625
596,-181.76,2021-12-17 16:25:03.406250
597,-192.81,2021-12-17 16:25:03.421875
598,-204.95,2021-12-17 16:25:03.437500
599,-220.08,2021-12-17 16:25:03.453125
600,-237.34,2021-12-17 16:25:03.468750
601,-253.28,2021-12-17 16:25:03.484375
602,-263.79,2021-12-17 16:25:03.500000
603,-266.51,2021-12-17 16:25:03.515625
604,-262.19,2021-12-17 16:25:03.531250
605,-253.92,2021-12-17 16:25:03.546875
606,-244.71,2021-12-17 16:25:03.562500
607,-235.08,2021-12-17 16:25:03.578125
608,-222.18,2021-12-17 16:25:03.593750
609,-201.29,2021-12-17 16:25:03.609375
610,-168.92,2021-12-17 16:25:03.625000
611,-125.56,2021-12-17 16:25:03.640625
612,-75.96,2021-12-17 16:25:03.656250
613,-27.07,2021-12-17 16:25:03.671875
614,15.44,2021-12-17 16:25:03.687500
615,50.14,2021-12-17 16:25:03.703125
616,80.04,2021-12-17 16:25:03.718750
617,110.1,2021-12-17 16:25:03.734375
618,143.49,2021-12-17 16:25:03.750000
619,179.22,2021-12-17 16:25:03.765625
620,212.54,2021-12-17 16:25:03.781250
621,237.98,2021-12-17 16:25:03.796875
622,252.91,2021-12-17 16:25:03.812500
623,259.27,2021-12-17 16:25:03.828125
624,262.0,2021-12-17 16:25:03.843750
625,265.63,2021-12-17 16:25:03.859375
626,271.16,2021-12-17 16:25:03.875000
627,275.59,2021-12-17 16:25:03.890625
628,274.27,2021-12-17 16:25:03.906250
629,264.29,2021-12-17 16:25:03.921875
630,246.56,2021-12-17 16:25:03.937500
631,225.06,2021-12-17 16:25:03.953125
632,204.13,2021-12-17 16:25:03.968750
633,185.89,2021-12-17 16:25:03.984375
634,169.48,2021-12-17 16:25:04.000000
635,152.75,2021-12-17 16:25:04.015625
636,134.75,2021-12-17 16:25:04.031250
637,117.29,2021-12-17 16:25:04.046875
638,104.29,2021-12-17 16:25:04.062500
639,99.33,2021-12-17 16:25:04.078125
640,102.97,2021-12-17 16:25:04.093750
641,111.69,2021-12-17 16:25:04.109375
642,118.71,2021-12-17 16:25:04.125000
643,116.58,2021-12-17 16:25:04.140625
644,100.32,2021-12-17 16:25:04.156250
645,69.38,2021-12-17 16:25:04.171875
646,27.84,2021-12-17 16:25:04.187500
647,-17.22,2021-12-17 16:25:04.203125
648,-58.3,2021-12-17 16:25:04.218750
649,-90.0,2021-12-17 16:25:04.234375
650,-110.41,2021-12-17 16:25:04.250000
651,-121.0,2021-12-17 16:25:04.265625
652,-125.3,2021-12-17 16:25:04.281250
653,-127.17,2021-12-17 16:25:04.296875
654,-129.51,2021-12-17 16:25:04.312500
655,-133.42,2021-12-17 16:25:04.328125
656,-138.23,2021-12-17 16:25:04.343750
657,-141.68,2021-12-17 16:25:04.359375
658,-140.57,2021-12-17 16:25:04.375000
659,-131.56,2021-12-17 16:25:04.390625
660,-112.12,2021-12-17 16:25:04.406250
661,-81.37,2021-12-17 16:25:04.421875
662,-40.6,2021-12-17 16:25:04.437500
663,6.94,2021-12-17 16:25:04.453125
664,56.78,2021-12-17 16:25:04.468750
665,104.43,2021-12-17 16:25:04.484375
666,146.53,2021-12-17 16:25:04.500000
667,181.34,2021-12-17 16:25:04.515625
668,208.85,2021-12-17 16:25:04.531250
669,230.14,2021-12-17 16:25:04.546875
670,246.58,2021-12-17 16:25:04.562500
671,259.02,2021-12-17 16:25:04.578125
672,267.45,2021-12-17 16:25:04.593750
673,271.33,2021-12-17 16:25:04.609375
674,270.29,2021-12-17 16:25:04.625000
675,264.97,2021-12-17 16:25:04.640625
676,257.28,2021-12-17 16:25:04.656250
677,249.87,2021-12-17 16:25:04.671875
678,244.78,2021-12-17 16:25:04.687500
679,242.02,2021-12-17 16:25:04.703125
680,239.02,2021-12-17 16:25:04.718750
681,231.41,2021-12-17 16:25:04.734375
682,214.96,2021-12-17 16:25:04.750000
683,187.57,2021-12-17 16:25:04.765625
684,150.37,2021-12-17 16:25:04.781250
685,107.21,2021-12-17 16:25:04.796875
686,62.8,2021-12-17 16:25:04.812500
687,20.76,2021-12-17 16:25:04.828125
688,-17.49,2021-12-17 16:25:04.843750
689,-52.55,2021-12-17 16:25:04.859375
690,-85.73,2021-12-17 16:25:04.875000
691,-117.77,2021-12-17 16:25:04.890625
692,-148.16,2021-12-17 16:25:04.906250
693,-175.39,2021-12-17 16:25:04.921875
694,-197.47,2021-12-17 16:25:04.937500
695,-212.42,2021-12-17 16:25:04.953125
696,-218.5,2021-12-17 16:25:04.968750
697,-214.53,2021-12-17 16:25:04.984375
698,-200.24,2021-12-17 16:25:05.000000
699,-176.82,2021-12-17 16:25:05.015625
700,-147.21,2021-12-17 16:25:05.031250
701,-115.85,2021-12-17 16:25:05.046875
702,-87.64,2021-12-17 16:25:05.062500
703,-66.72,2021-12-17 16:25:05.078125
704,-55.24,2021-12-17 16:25:05.093750
705,-52.79,2021-12-17 16:25:05.109375
706,-56.53,2021-12-17 16:25:05.125000
707,-61.97,2021-12-17 16:25:05.140625
708,-64.09,2021-12-17 16:25:05.156250
709,-58.63,2021-12-17 16:25:05.171875
710,-43.22,2021-12-17 16:25:05.187500
711,-18.15,2021-12-17 16:25:05.203125
712,13.46,2021-12-17 16:25:05.218750
713,46.22,2021-12-17 16:25:05.234375
714,73.99,2021-12-17 16:25:05.250000
715,91.86,2021-12-17 16:25:05.265625
716,97.92,2021-12-17 16:25:05.281250
717,93.92,2021-12-17 16:25:05.296875
718,84.22,2021-12-17 16:25:05.312500
719,73.69,2021-12-17 16:25:05.328125
720,65.32,2021-12-17 16:25:05.343750
721,58.97,2021-12-17 16:25:05.359375
722,51.72,2021-12-17 16:25:05.375000
723,39.73,2021-12-17 16:25:05.390625
724,20.23,2021-12-17 16:25:05.406250
725,-7.14,2021-12-17 16:25:05.421875
726,-40.18,2021-12-17 16:25:05.437500
727,-74.97,2021-12-17 16:25:05.453125
728,-107.26,2021-12-17 16:25:05.468750
729,-133.7,2021-12-17 16:25:05.484375
730,-152.68,2021-12-17 16:25:05.500000
731,-164.59,2021-12-17 16:25:05.515625
732,-171.29,2021-12-17 16:25:05.531250
733,-175.01,2021-12-17 16:25:05.546875
734,-176.99,2021-12-17 16:25:05.562500
735,-176.64,2021-12-17 16:25:05.578125
736,-171.91,2021-12-17 16:25:05.593750
737,-160.97,2021-12-17 16:25:05.609375
738,-144.03,2021-12-17 16:25:05.625000
739,-124.25,2021-12-17 16:25:05.640625
740,-106.5,2021-12-17 16:25:05.656250
741,-94.79,2021-12-17 16:25:05.671875
742,-89.82,2021-12-17 16:25:05.687500
743,-88.48,2021-12-17 16:25:05.703125
744,-85.58,2021-12-17 16:25:05.718750
745,-76.91,2021-12-17 16:25:05.734375
746,-61.59,2021-12-17 16:25:05.750000
747,-42.43,2021-12-17 16:25:05.765625
748,-24.29,2021-12-17 16:25:05.781250
749,-11.64,2021-12-17 16:25:05.796875
750,-6.62,2021-12-17 16:25:05.812500
751,-8.51,2021-12-17 16:25:05.828125
752,-14.64,2021-12-17 16:25:05.843750
753,-21.98,2021-12-17 16:25:05.859375
754,-28.49,2021-12-17 16:25:05.875000
755,-33.7,2021-12-17 16:25:05.890625
756,-38.25,2021-12-17 16:25:05.906250
757,-42.91,2021-12-17 16:25:05.921875
758,-47.53,2021-12-17 16:25:05.937500
759,-50.82,2021-12-17 16:25:05.953125
760,-51.05,2021-12-17 16:25:05.968750
761,-47.14,2021-12-17 16:25:05.984375
762,-39.52,2021-12-17 16:25:06.000000
763,-30.12,2021-12-17 16:25:06.015625
764,-21.4,2021-12-17 16:25:06.031250
765,-15.09,2021-12-17 16:25:06.046875
766,-11.59,2021-12-17 16:25:06.062500
767,-9.96,2021-12-17 16:25:06.078125
768,-8.67,2021-12-17 16:25:06.093750
769,-6.27,2021-12-17 16:25:06.109375
770,-1.67,2021-12-17 16:25:06.125000
771,5.86,2021-12-17 16:25:06.140625
772,16.78,2021-12-17 16:25:06.156250
773,30.96,2021-12-17 16:25:06.171875
774,47.25,2021-12-17 16:25:06.187500
775,63.31,2021-12-17 16:25:06.203125
776,76.13,2021-12-17 16:25:06.218750
777,83.26,2021-12-17 16:25:06.234375
778,83.81,2021-12-17 16:25:06.250000
779,78.87,2021-12-17 16:25:06.265625
780,70.91,2021-12-17 16:25:06.281250
781,62.55,2021-12-17 16:25:06.296875
782,55.42,2021-12-17 16:25:06.312500
783,49.92,2021-12-17 16:25:06.328125
784,45.63,2021-12-17 16:25:06.343750
785,42.13,2021-12-17 16:25:06.359375
786,39.58,2021-12-17 16:25:06.375000
787,38.61,2021-12-17 16:25:06.390625
788,39.77,2021-12-17 16:25:06.406250
789,42.73,2021-12-17 16:25:06.421875
790,46.17,2021-12-17 16:25:06.437500
791,48.05,2021-12-17 16:25:06.453125
792,46.45,2021-12-17 16:25:06.468750
793,40.28,2021-12-17 16:25:06.484375
794,29.61,2021-12-17 16:25:06.500000
795,15.51,2021-12-17 16:25:06.515625
796,-0.29,2021-12-17 16:25:06.531250
797,-15.8,2021-12-17 16:25:06.546875
798,-29.11,2021-12-17 16:25:06.562500
799,-38.62,2021-12-17 16:25:06.578125
800,-43.46,2021-12-17 16:25:06.593750
801,-43.72,2021-12-17 16:25:06.609375
802,-40.6,2021-12-17 16:25:06.625000
803,-36.01,2021-12-17 16:25:06.640625
804,-31.89,2021-12-17 16:25:06.656250
805,-29.38,2021-12-17 16:25:06.671875
806,-28.45,2021-12-17 16:25:06.687500
807,-28.2,2021-12-17 16:25:06.703125
808,-27.6,2021-12-17 16:25:06.718750
809,-26.32,2021-12-17 16:25:06.734375
810,-24.93,2021-12-17 16:25:06.750000
811,-24.52,2021-12-17 16:25:06.765625
812,-25.78,2021-12-17 16:25:06.781250
813,-28.32,2021-12-17 16:25:06.796875
814,-30.62,2021-12-17 16:25:06.812500
815,-30.68,2021-12-17 16:25:06.828125
816,-27.02,2021-12-17 16:25:06.843750
817,-19.38,2021-12-17 16:25:06.859375
818,-8.67,2021-12-17 16:25:06.875000
819,3.67,2021-12-17 16:25:06.890625
820,16.42,2021-12-17 16:25:06.906250
821,29.02,2021-12-17 16:25:06.921875
822,41.33,2021-12-17 16:25:06.937500
823,53.14,2021-12-17 16:25:06.953125
824,63.73,2021-12-17 16:25:06.968750
825,72.02,2021-12-17 16:25:06.984375
826,77.14,2021-12-17 16:25:07.000000
827,79.12,2021-12-17 16:25:07.015625
828,79.02,2021-12-17 16:25:07.031250
829,78.54,2021-12-17 16:25:07.046875
830,79.08,2021-12-17 16:25:07.062500
831,81.02,2021-12-17 16:25:07.078125
832,83.48,2021-12-17 16:25:07.093750
833,84.83,2021-12-17 16:25:07.109375
834,83.6,2021-12-17 16:25:07.125000
835,79.32,2021-12-17 16:25:07.140625
836,72.72,2021-12-17 16:25:07.156250
837,65.29,2021-12-17 16:25:07.171875
838,58.47,2021-12-17 16:25:07.187500
839,52.87,2021-12-17 16:25:07.203125
840,48.1,2021-12-17 16:25:07.218750
841,43.13,2021-12-17 16:25:07.234375
842,37.0,2021-12-17 16:25:07.250000
843,29.29,2021-12-17 16:25:07.265625
844,20.32,2021-12-17 16:25:07.281250
845,10.84,2021-12-17 16:25:07.296875
846,1.66,2021-12-17 16:25:07.312500
847,-6.51,2021-12-17 16:25:07.328125
848,-13.14,2021-12-17 16:25:07.343750
849,-17.75,2021-12-17 16:25:07.359375
850,-19.97,2021-12-17 16:25:07.375000
851,-19.71,2021-12-17 16:25:07.390625
852,-17.39,2021-12-17 16:25:07.406250
853,-14.04,2021-12-17 16:25:07.421875
854,-10.95,2021-12-17 16:25:07.437500
855,-9.12,2021-12-17 16:25:07.453125
856,-8.8,2021-12-17 16:25:07.468750
857,-9.32,2021-12-17 16:25:07.484375
858,-9.38,2021-12-17 16:25:07.500000
859,-7.61,2021-12-17 16:25:07.515625
860,-3.23,2021-12-17 16:25:07.531250
861,3.56,2021-12-17 16:25:07.546875
862,11.59,2021-12-17 16:25:07.562500
863,19.19,2021-12-17 16:25:07.578125
864,24.82,2021-12-17 16:25:07.593750
865,27.82,2021-12-17 16:25:07.609375
866,28.65,2021-12-17 16:25:07.625000
867,28.6,2021-12-17 16:25:07.640625
868,29.04,2021-12-17 16:25:07.656250
869,30.67,2021-12-17 16:25:07.671875
870,33.12,2021-12-17 16:25:07.687500
871,35.14,2021-12-17 16:25:07.703125
872,35.43,2021-12-17 16:25:07.718750
873,33.34,2021-12-17 16:25:07.734375
874,29.39,2021-12-17 16:25:07.750000
875,24.97,2021-12-17 16:25:07.765625
876,21.71,2021-12-17 16:25:07.781250
877,20.67,2021-12-17 16:25:07.796875
878,21.97,2021-12-17 16:25:07.812500
879,24.87,2021-12-17 16:25:07.828125
880,28.23,2021-12-17 16:25:07.843750
881,31.05,2021-12-17 16:25:07.859375
882,32.7,2021-12-17 16:25:07.875000
883,33.03,2021-12-17 16:25:07.890625
884,32.18,2021-12-17 16:25:07.906250
885,30.48,2021-12-17 16:25:07.921875
886,28.33,2021-12-17 16:25:07.937500
887,26.16,2021-12-17 16:25:07.953125
888,24.39,2021-12-17 16:25:07.968750
889,23.27,2021-12-17 16:25:07.984375
890,22.82,2021-12-17 16:25:08.000000
891,22.78,2021-12-17 16:25:08.015625
892,22.78,2021-12-17 16:25:08.031250
893,22.52,2021-12-17 16:25:08.046875
894,21.92,2021-12-17 16:25:08.062500
895,21.26,2021-12-17 16:25:08.078125
896,20.98,2021-12-17 16:25:08.093750
897,21.49,2021-12-17 16:25:08.109375
898,22.83,2021-12-17 16:25:08.125000
899,24.57,2021-12-17 16:25:08.140625
900,25.89,2021-12-17 16:25:08.156250
901,25.81,2021-12-17 16:25:08.171875
902,23.58,2021-12-17 16:25:08.187500
903,19.03,2021-12-17 16:25:08.203125
904,12.62,2021-12-17 16:25:08.218750
905,5.33,2021-12-17 16:25:08.234375
906,-1.73,2021-12-17 16:25:08.250000
907,-7.69,2021-12-17 16:25:08.265625
908,-12.22,2021-12-17 16:25:08.281250
909,-15.51,2021-12-17 16:25:08.296875
910,-18.08,2021-12-17 16:25:08.312500
911,-20.48,2021-12-17 16:25:08.328125
912,-23.15,2021-12-17 16:25:08.343750
913,-26.43,2021-12-17 16:25:08.359375
914,-30.56,2021-12-17 16:25:08.375000
915,-35.73,2021-12-17 16:25:08.390625
916,-41.98,2021-12-17 16:25:08.406250
917,-49.03,2021-12-17 16:25:08.421875
918,-56.06,2021-12-17 16:25:08.437500
919,-61.88,2021-12-17 16:25:08.453125
920,-65.19,2021-12-17 16:25:08.468750
921,-65.05,2021-12-17 16:25:08.484375
922,-61.28,2021-12-17 16:25:08.500000
923,-54.63,2021-12-17 16:25:08.515625
924,-46.45,2021-12-17 16:25:08.531250
925,-38.24,2021-12-17 16:25:08.546875
926,-31.07,2021-12-17 16:25:08.562500
927,-25.29,2021-12-17 16:25:08.578125
928,-20.62,2021-12-17 16:25:08.593750
929,-16.51,2021-12-17 16:25:08.609375
930,-12.52,2021-12-17 16:25:08.625000
931,-8.61,2021-12-17 16:25:08.640625
932,-5.04,2021-12-17 16:25:08.656250
933,-2.15,2021-12-17 16:25:08.671875
934,-0.07,2021-12-17 16:25:08.687500
935,1.31,2021-12-17 16:25:08.703125
936,2.27,2021-12-17 16:25:08.718750
937,3.05,2021-12-17 16:25:08.734375
938,3.78,2021-12-17 16:25:08.750000
939,4.45,2021-12-17 16:25:08.765625
940,5.09,2021-12-17 16:25:08.781250
941,5.85,2021-12-17 16:25:08.796875
942,6.98,2021-12-17 16:25:08.812500
943,8.7,2021-12-17 16:25:08.828125
944,10.99,2021-12-17 16:25:08.843750
945,13.5,2021-12-17 16:25:08.859375
946,15.67,2021-12-17 16:25:08.875000
947,16.92,2021-12-17 16:25:08.890625
948,16.92,2021-12-17 16:25:08.906250
949,15.72,2021-12-17 16:25:08.921875
950,13.7,2021-12-17 16:25:08.937500
951,11.46,2021-12-17 16:25:08.953125
952,9.52,2021-12-17 16:25:08.968750
953,8.14,2021-12-17 16:25:08.984375
954,7.25,2021-12-17 16:25:09.000000
955,6.51,2021-12-17 16:25:09.015625
956,5.52,2021-12-17 16:25:09.031250
957,4.0,2021-12-17 16:25:09.046875
958,1.9,2021-12-17 16:25:09.062500
959,-0.56,2021-12-17 16:25:09.078125
960,-3.09,2021-12-17 16:25:09.093750
961,-5.45,2021-12-17 16:25:09.109375
962,-7.56,2021-12-17 16:25:09.125000
963,-9.51,2021-12-17 16:25:09.140625
964,-11.45,2021-12-17 16:25:09.156250
965,-13.53,2021-12-17 16:25:09.171875
966,-15.76,2021-12-17 16:25:09.187500
967,-18.15,2021-12-17 16:25:09.203125
968,-20.73,2021-12-17 16:25:09.218750
969,-23.58,2021-12-17 16:25:09.234375
970,-26.73,2021-12-17 16:25:09.250000
971,-29.97,2021-12-17 16:25:09.265625
972,-32.79,2021-12-17 16:25:09.281250
973,-34.43,2021-12-17 16:25:09.296875
974,-34.16,2021-12-17 16:25:09.312500
975,-31.66,2021-12-17 16:25:09.328125
976,-27.15,2021-12-17 16:25:09.343750
977,-21.39,2021-12-17 16:25:09.359375
978,-15.34,2021-12-17 16:25:09.375000
979,-9.83,2021-12-17 16:25:09.390625
980,-5.19,2021-12-17 16:25:09.406250
981,-1.37,2021-12-17 16:25:09.421875
982,1.98,2021-12-17 16:25:09.437500
983,5.13,2021-12-17 16:25:09.453125
984,8.13,2021-12-17 16:25:09.468750
985,10.8,2021-12-17 16:25:09.484375
986,12.9,2021-12-17 16:25:09.500000
987,14.27,2021-12-17 16:25:09.515625
988,14.95,2021-12-17 16:25:09.531250
989,15.14,2021-12-17 16:25:09.546875
990,15.08,2021-12-17 16:25:09.562500
991,14.96,2021-12-17 16:25:09.578125
992,14.89,2021-12-17 16:25:09.593750
993,14.88,2021-12-17 16:25:09.609375
994,14.92,2021-12-17 16:25:09.625000
995,14.94,2021-12-17 16:25:09.640625
996,14.87,2021-12-17 16:25:09.656250
997,14.59,2021-12-17 16:25:09.671875
998,14.0,2021-12-17 16:25:09.687500
999,13.1,2021-12-17 16:25:09.703125
1000,11.91,2021-12-17 16:25:09.718750
1001,10.58,2021-12-17 16:25:09.734375
1002,9.2,2021-12-17 16:25:09.750000
1003,7.83,2021-12-17 16:25:09.765625
1004,6.42,2021-12-17 16:25:09.781250
1005,4.9,2021-12-17 16:25:09.796875
1006,3.23,2021-12-17 16:25:09.812500
1007,1.49,2021-12-17 16:25:09.828125
1008,-0.2,2021-12-17 16:25:09.843750
1009,-1.67,2021-12-17 16:25:09.859375
1010,-2.82,2021-12-17 16:25:09.875000
1011,-3.62,2021-12-17 16:25:09.890625
1012,-4.11,2021-12-17 16:25:09.906250
1013,-4.52,2021-12-17 16:25:09.921875
1014,-5.24,2021-12-17 16:25:09.937500
1015,-6.78,2021-12-17 16:25:09.953125
1016,-9.64,2021-12-17 16:25:09.968750
1017,-13.99,2021-12-17 16:25:09.984375
1018,-19.55,2021-12-17 16:25:10.000000
1019,-25.57,2021-12-17 16:25:10.015625
1020,-31.02,2021-12-17 16:25:10.031250
1021,-34.93,2021-12-17 16:25:10.046875
1022,-36.71,2021-12-17 16:25:10.062500
1023,-36.21,2021-12-17 16:25:10.078125
1024,-33.67,2021-12-17 16:25:10.093750
1025,-29.54,2021-12-17 16:25:10.109375
1026,-24.3,2021-12-17 16:25:10.125000
1027,-18.45,2021-12-17 16:25:10.140625
1028,-12.51,2021-12-17 16:25:10.156250
1029,-7.01,2021-12-17 16:25:10.171875
1030,-2.39,2021-12-17 16:25:10.187500
1031,1.13,2021-12-17 16:25:10.203125
1032,3.64,2021-12-17 16:25:10.218750
1033,5.44,2021-12-17 16:25:10.234375
1034,6.94,2021-12-17 16:25:10.250000
1035,8.41,2021-12-17 16:25:10.265625
1036,9.92,2021-12-17 16:25:10.281250
1037,11.37,2021-12-17 16:25:10.296875
1038,12.62,2021-12-17 16:25:10.312500
1039,13.57,2021-12-17 16:25:10.328125
1040,14.17,2021-12-17 16:25:10.343750
1041,14.48,2021-12-17 16:25:10.359375
1042,14.55,2021-12-17 16:25:10.375000
1043,14.5,2021-12-17 16:25:10.390625
1044,14.5,2021-12-17 16:25:10.406250
1045,14.8,2021-12-17 16:25:10.421875
1046,15.59,2021-12-17 16:25:10.437500
1047,16.85,2021-12-17 16:25:10.453125
1048,18.34,2021-12-17 16:25:10.468750
1049,19.58,2021-12-17 16:25:10.484375
1050,20.06,2021-12-17 16:25:10.500000
1051,19.5,2021-12-17 16:25:10.515625
1052,17.96,2021-12-17 16:25:10.531250
1053,15.85,2021-12-17 16:25:10.546875
1054,13.66,2021-12-17 16:25:10.562500
1055,11.78,2021-12-17 16:25:10.578125
1056,10.34,2021-12-17 16:25:10.593750
1057,9.28,2021-12-17 16:25:10.609375
1058,8.45,2021-12-17 16:25:10.625000
1059,7.77,2021-12-17 16:25:10.640625
1060,7.21,2021-12-17 16:25:10.656250
1061,6.72,2021-12-17 16:25:10.671875
1062,6.09,2021-12-17 16:25:10.687500
1063,4.97,2021-12-17 16:25:10.703125
1064,3.01,2021-12-17 16:25:10.718750
1065,-0.03,2021-12-17 16:25:10.734375
1066,-4.12,2021-12-17 16:25:10.750000
1067,-9.02,2021-12-17 16:25:10.765625
1068,-14.41,2021-12-17 16:25:10.781250
1069,-20.04,2021-12-17 16:25:10.796875
1070,-25.78,2021-12-17 16:25:10.812500
1071,-31.52,2021-12-17 16:25:10.828125
1072,-37.01,2021-12-17 16:25:10.843750
1073,-41.76,2021-12-17 16:25:10.859375
1074,-45.04,2021-12-17 16:25:10.875000
1075,-46.15,2021-12-17 16:25:10.890625
1076,-44.66,2021-12-17 16:25:10.906250
1077,-40.65,2021-12-17 16:25:10.921875
1078,-34.7,2021-12-17 16:25:10.937500
1079,-27.75,2021-12-17 16:25:10.953125
1080,-20.76,2021-12-17 16:25:10.968750
1081,-14.44,2021-12-17 16:25:10.984375
1082,-9.12,2021-12-17 16:25:11.000000
1083,-4.74,2021-12-17 16:25:11.015625
1084,-1.11,2021-12-17 16:25:11.031250
1085,2.02,2021-12-17 16:25:11.046875
1086,4.78,2021-12-17 16:25:11.062500
1087,7.17,2021-12-17 16:25:11.078125
1088,9.21,2021-12-17 16:25:11.093750
1089,10.98,2021-12-17 16:25:11.109375
1090,12.67,2021-12-17 16:25:11.125000
1091,14.49,2021-12-17 16:25:11.140625
1092,16.53,2021-12-17 16:25:11.156250
1093,18.64,2021-12-17 16:25:11.171875
1094,20.5,2021-12-17 16:25:11.187500
1095,21.75,2021-12-17 16:25:11.203125
1096,22.2,2021-12-17 16:25:11.218750
1097,21.93,2021-12-17 16:25:11.234375
1098,21.28,2021-12-17 16:25:11.250000
1099,20.68,2021-12-17 16:25:11.265625
1100,20.5,2021-12-17 16:25:11.281250
1101,20.86,2021-12-17 16:25:11.296875
1102,21.66,2021-12-17 16:25:11.312500
1103,22.62,2021-12-17 16:25:11.328125
1104,23.41,2021-12-17 16:25:11.343750
1105,23.74,2021-12-17 16:25:11.359375
1106,23.45,2021-12-17 16:25:11.375000
1107,22.49,2021-12-17 16:25:11.390625
1108,20.91,2021-12-17 16:25:11.406250
1109,18.85,2021-12-17 16:25:11.421875
1110,16.5,2021-12-17 16:25:11.437500
1111,14.04,2021-12-17 16:25:11.453125
1112,11.67,2021-12-17 16:25:11.468750
1113,9.55,2021-12-17 16:25:11.484375
1114,7.77,2021-12-17 16:25:11.500000
1115,6.32,2021-12-17 16:25:11.515625
1116,5.15,2021-12-17 16:25:11.531250
1117,4.15,2021-12-17 16:25:11.546875
1118,3.15,2021-12-17 16:25:11.562500
1119,1.99,2021-12-17 16:25:11.578125
1120,0.54,2021-12-17 16:25:11.593750
1121,-1.29,2021-12-17 16:25:11.609375
1122,-3.49,2021-12-17 16:25:11.625000
1123,-5.95,2021-12-17 16:25:11.640625
1124,-8.5,2021-12-17 16:25:11.656250
1125,-10.98,2021-12-17 16:25:11.671875
1126,-13.29,2021-12-17 16:25:11.687500
1127,-15.45,2021-12-17 16:25:11.703125
1128,-17.6,2021-12-17 16:25:11.718750
1129,-20.01,2021-12-17 16:25:11.734375
1130,-22.93,2021-12-17 16:25:11.750000
1131,-26.57,2021-12-17 16:25:11.765625
1132,-30.94,2021-12-17 16:25:11.781250
1133,-35.76,2021-12-17 16:25:11.796875
1134,-40.46,2021-12-17 16:25:11.812500
1135,-44.23,2021-12-17 16:25:11.828125
1136,-46.18,2021-12-17 16:25:11.843750
1137,-45.61,2021-12-17 16:25:11.859375
1138,-42.29,2021-12-17 16:25:11.875000
1139,-36.51,2021-12-17 16:25:11.890625
1140,-29.11,2021-12-17 16:25:11.906250
1141,-21.16,2021-12-17 16:25:11.921875
1142,-13.68,2021-12-17 16:25:11.937500
1143,-7.31,2021-12-17 16:25:11.953125
1144,-2.27,2021-12-17 16:25:11.968750
1145,1.62,2021-12-17 16:25:11.984375
1146,4.74,2021-12-17 16:25:12.000000
1147,7.44,2021-12-17 16:25:12.015625
1148,9.91,2021-12-17 16:25:12.031250
1149,12.16,2021-12-17 16:25:12.046875
1150,14.09,2021-12-17 16:25:12.062500
1151,15.58,2021-12-17 16:25:12.078125
1152,16.59,2021-12-17 16:25:12.093750
1153,17.11,2021-12-17 16:25:12.109375
1154,17.18,2021-12-17 16:25:12.125000
1155,16.84,2021-12-17 16:25:12.140625
1156,16.12,2021-12-17 16:25:12.156250
1157,15.15,2021-12-17 16:25:12.171875
1158,14.14,2021-12-17 16:25:12.187500
1159,13.37,2021-12-17 16:25:12.203125
1160,13.14,2021-12-17 16:25:12.218750
1161,13.56,2021-12-17 16:25:12.234375
1162,14.53,2021-12-17 16:25:12.250000
1163,15.72,2021-12-17 16:25:12.265625
1164,16.75,2021-12-17 16:25:12.281250
1165,17.29,2021-12-17 16:25:12.296875
1166,17.15,2021-12-17 16:25:12.312500
1167,16.38,2021-12-17 16:25:12.328125
1168,15.14,2021-12-17 16:25:12.343750
1169,13.64,2021-12-17 16:25:12.359375
1170,12.05,2021-12-17 16:25:12.375000
1171,10.53,2021-12-17 16:25:12.390625
1172,9.19,2021-12-17 16:25:12.406250
1173,8.14,2021-12-17 16:25:12.421875
1174,7.51,2021-12-17 16:25:12.437500
1175,7.39,2021-12-17 16:25:12.453125
1176,7.8,2021-12-17 16:25:12.468750
1177,8.62,2021-12-17 16:25:12.484375
1178,9.62,2021-12-17 16:25:12.500000
1179,10.48,2021-12-17 16:25:12.515625
1180,10.88,2021-12-17 16:25:12.531250
1181,10.56,2021-12-17 16:25:12.546875
1182,9.41,2021-12-17 16:25:12.562500
1183,7.47,2021-12-17 16:25:12.578125
1184,4.89,2021-12-17 16:25:12.593750
1185,1.89,2021-12-17 16:25:12.609375
1186,-1.24,2021-12-17 16:25:12.625000
1187,-4.28,2021-12-17 16:25:12.640625
1188,-7.05,2021-12-17 16:25:12.656250
1189,-9.5,2021-12-17 16:25:12.671875
1190,-11.66,2021-12-17 16:25:12.687500
1191,-13.7,2021-12-17 16:25:12.703125
1192,-15.8,2021-12-17 16:25:12.718750
1193,-18.08,2021-12-17 16:25:12.734375
1194,-20.55,2021-12-17 16:25:12.750000
1195,-22.97,2021-12-17 16:25:12.765625
1196,-24.9,2021-12-17 16:25:12.781250
1197,-25.81,2021-12-17 16:25:12.796875
1198,-25.23,2021-12-17 16:25:12.812500
1199,-22.98,2021-12-17 16:25:12.828125
1200,-19.23,2021-12-17 16:25:12.843750
1201,-14.53,2021-12-17 16:25:12.859375
1202,-9.6,2021-12-17 16:25:12.875000
1203,-5.11,2021-12-17 16:25:12.890625
1204,-1.43,2021-12-17 16:25:12.906250
1205,1.42,2021-12-17 16:25:12.921875
1206,3.7,2021-12-17 16:25:12.937500
1207,5.7,2021-12-17 16:25:12.953125
1208,7.56,2021-12-17 16:25:12.968750
1209,9.17,2021-12-17 16:25:12.984375
1210,10.31,2021-12-17 16:25:13.000000
1211,10.73,2021-12-17 16:25:13.015625
1212,10.41,2021-12-17 16:25:13.031250
1213,9.56,2021-12-17 16:25:13.046875
1214,8.5,2021-12-17 16:25:13.062500
1215,7.59,2021-12-17 16:25:13.078125
1216,7.01,2021-12-17 16:25:13.093750
1217,6.76,2021-12-17 16:25:13.109375
1218,6.75,2021-12-17 16:25:13.125000
1219,6.85,2021-12-17 16:25:13.140625
1220,7.01,2021-12-17 16:25:13.156250
1221,7.27,2021-12-17 16:25:13.171875
1222,7.61,2021-12-17 16:25:13.187500
1223,7.99,2021-12-17 16:25:13.203125
1224,8.29,2021-12-17 16:25:13.218750
1225,8.35,2021-12-17 16:25:13.234375
1226,8.03,2021-12-17 16:25:13.250000
1227,7.34,2021-12-17 16:25:13.265625
1228,6.32,2021-12-17 16:25:13.281250
1229,5.06,2021-12-17 16:25:13.296875
1230,3.64,2021-12-17 16:25:13.312500
1231,2.13,2021-12-17 16:25:13.328125
1232,0.56,2021-12-17 16:25:13.343750
1233,-1.02,2021-12-17 16:25:13.359375
1234,-2.51,2021-12-17 16:25:13.375000
1235,-3.84,2021-12-17 16:25:13.390625
1236,-4.98,2021-12-17 16:25:13.406250
1237,-5.98,2021-12-17 16:25:13.421875
1238,-6.95,2021-12-17 16:25:13.437500
1239,-8.01,2021-12-17 16:25:13.453125
1240,-9.23,2021-12-17 16:25:13.468750
1241,-10.59,2021-12-17 16:25:13.484375
1242,-12.0,2021-12-17 16:25:13.500000
1243,-13.35,2021-12-17 16:25:13.515625
1244,-14.58,2021-12-17 16:25:13.531250
1245,-15.71,2021-12-17 16:25:13.546875
1246,-16.83,2021-12-17 16:25:13.562500
1247,-18.14,2021-12-17 16:25:13.578125
1248,-19.8,2021-12-17 16:25:13.593750
1249,-21.92,2021-12-17 16:25:13.609375
1250,-24.51,2021-12-17 16:25:13.625000
1251,-27.38,2021-12-17 16:25:13.640625
1252,-30.17,2021-12-17 16:25:13.656250
1253,-32.46,2021-12-17 16:25:13.671875
1254,-33.78,2021-12-17 16:25:13.687500
1255,-33.82,2021-12-17 16:25:13.703125
1256,-32.44,2021-12-17 16:25:13.718750
1257,-29.72,2021-12-17 16:25:13.734375
1258,-25.89,2021-12-17 16:25:13.750000
1259,-21.25,2021-12-17 16:25:13.765625
1260,-16.15,2021-12-17 16:25:13.781250
1261,-10.91,2021-12-17 16:25:13.796875
1262,-5.85,2021-12-17 16:25:13.812500
1263,-1.27,2021-12-17 16:25:13.828125
1264,2.6,2021-12-17 16:25:13.843750
1265,5.63,2021-12-17 16:25:13.859375
1266,7.8,2021-12-17 16:25:13.875000
1267,9.2,2021-12-17 16:25:13.890625
1268,9.97,2021-12-17 16:25:13.906250
1269,10.29,2021-12-17 16:25:13.921875
1270,10.33,2021-12-17 16:25:13.937500
1271,10.23,2021-12-17 16:25:13.953125
1272,10.08,2021-12-17 16:25:13.968750
1273,9.91,2021-12-17 16:25:13.984375
1274,9.72,2021-12-17 16:25:14.000000
1275,9.47,2021-12-17 16:25:14.015625
1276,9.11,2021-12-17 16:25:14.031250
1277,8.66,2021-12-17 16:25:14.046875
1278,8.17,2021-12-17 16:25:14.062500
1279,7.76,2021-12-17 16:25:14.078125
1280,7.58,2021-12-17 16:25:14.093750
1281,7.73,2021-12-17 16:25:14.109375
1282,8.24,2021-12-17 16:25:14.125000
1283,9.03,2021-12-17 16:25:14.140625
1284,9.87,2021-12-17 16:25:14.156250
1285,10.47,2021-12-17 16:25:14.171875
1286,10.59,2021-12-17 16:25:14.187500
1287,10.09,2021-12-17 16:25:14.203125
1288,9.04,2021-12-17 16:25:14.218750
1289,7.61,2021-12-17 16:25:14.234375
1290,6.01,2021-12-17 16:25:14.250000
1291,4.44,2021-12-17 16:25:14.265625
1292,2.99,2021-12-17 16:25:14.281250
1293,1.73,2021-12-17 16:25:14.296875
1294,0.7,2021-12-17 16:25:14.312500
1295,-0.06,2021-12-17 16:25:14.328125
1296,-0.63,2021-12-17 16:25:14.343750
1297,-1.21,2021-12-17 16:25:14.359375
1298,-2.11,2021-12-17 16:25:14.375000
1299,-3.63,2021-12-17 16:25:14.390625
1300,-5.86,2021-12-17 16:25:14.406250
1301,-8.6,2021-12-17 16:25:14.421875
1302,-11.46,2021-12-17 16:25:14.437500
1303,-14.06,2021-12-17 16:25:14.453125
1304,-16.24,2021-12-17 16:25:14.468750
1305,-18.1,2021-12-17 16:25:14.484375
1306,-19.9,2021-12-17 16:25:14.500000
1307,-21.84,2021-12-17 16:25:14.515625
1308,-23.85,2021-12-17 16:25:14.531250
1309,-25.62,2021-12-17 16:25:14.546875
1310,-26.68,2021-12-17 16:25:14.562500
1311,-26.68,2021-12-17 16:25:14.578125
1312,-25.46,2021-12-17 16:25:14.593750
1313,-23.09,2021-12-17 16:25:14.609375
1314,-19.8,2021-12-17 16:25:14.625000
1315,-15.87,2021-12-17 16:25:14.640625
1316,-11.58,2021-12-17 16:25:14.656250
1317,-7.22,2021-12-17 16:25:14.671875
1318,-3.11,2021-12-17 16:25:14.687500
1319,0.43,2021-12-17 16:25:14.703125
1320,3.17,2021-12-17 16:25:14.718750
1321,5.0,2021-12-17 16:25:14.734375
1322,6.02,2021-12-17 16:25:14.750000
1323,6.43,2021-12-17 16:25:14.765625
1324,6.48,2021-12-17 16:25:14.781250
1325,6.39,2021-12-17 16:25:14.796875
1326,6.29,2021-12-17 16:25:14.812500
1327,6.23,2021-12-17 16:25:14.828125
1328,6.25,2021-12-17 16:25:14.843750
1329,6.35,2021-12-17 16:25:14.859375
1330,6.61,2021-12-17 16:25:14.875000
1331,7.04,2021-12-17 16:25:14.890625
1332,7.63,2021-12-17 16:25:14.906250
1333,8.33,2021-12-17 16:25:14.921875
1334,9.03,2021-12-17 16:25:14.937500
1335,9.67,2021-12-17 16:25:14.953125
1336,10.18,2021-12-17 16:25:14.968750
1337,10.51,2021-12-17 16:25:14.984375
1338,10.61,2021-12-17 16:25:15.000000
1339,10.43,2021-12-17 16:25:15.015625
1340,9.92,2021-12-17 16:25:15.031250
1341,9.07,2021-12-17 16:25:15.046875
1342,7.91,2021-12-17 16:25:15.062500
1343,6.52,2021-12-17 16:25:15.078125
1344,5.0,2021-12-17 16:25:15.093750
1345,3.42,2021-12-17 16:25:15.109375
1346,1.79,2021-12-17 16:25:15.125000
1347,0.06,2021-12-17 16:25:15.140625
1348,-1.81,2021-12-17 16:25:15.156250
1349,-3.83,2021-12-17 16:25:15.171875
1350,-5.95,2021-12-17 16:25:15.187500
1351,-8.09,2021-12-17 16:25:15.203125
1352,-10.14,2021-12-17 16:25:15.218750
1353,-12.11,2021-12-17 16:25:15.234375
1354,-14.08,2021-12-17 16:25:15.250000
1355,-16.16,2021-12-17 16:25:15.265625
1356,-18.48,2021-12-17 16:25:15.281250
1357,-21.07,2021-12-17 16:25:15.296875
1358,-23.85,2021-12-17 16:25:15.312500
1359,-26.57,2021-12-17 16:25:15.328125
1360,-28.94,2021-12-17 16:25:15.343750
1361,-30.61,2021-12-17 16:25:15.359375
1362,-31.29,2021-12-17 16:25:15.375000
1363,-30.79,2021-12-17 16:25:15.390625
1364,-29.06,2021-12-17 16:25:15.406250
1365,-26.13,2021-12-17 16:25:15.421875
1366,-22.2,2021-12-17 16:25:15.437500
1367,-17.51,2021-12-17 16:25:15.453125
1368,-12.37,2021-12-17 16:25:15.468750
1369,-7.06,2021-12-17 16:25:15.484375
1370,-1.8,2021-12-17 16:25:15.500000
1371,3.22,2021-12-17 16:25:15.515625
1372,7.79,2021-12-17 16:25:15.531250
1373,11.67,2021-12-17 16:25:15.546875
1374,14.58,2021-12-17 16:25:15.562500
1375,16.28,2021-12-17 16:25:15.578125
1376,16.71,2021-12-17 16:25:15.593750
1377,16.02,2021-12-17 16:25:15.609375
1378,14.6,2021-12-17 16:25:15.625000
1379,12.92,2021-12-17 16:25:15.640625
1380,11.42,2021-12-17 16:25:15.656250
1381,10.38,2021-12-17 16:25:15.671875
1382,9.91,2021-12-17 16:25:15.687500
1383,9.98,2021-12-17 16:25:15.703125
1384,10.46,2021-12-17 16:25:15.718750
1385,11.22,2021-12-17 16:25:15.734375
1386,12.09,2021-12-17 16:25:15.750000
1387,12.95,2021-12-17 16:25:15.765625
1388,13.68,2021-12-17 16:25:15.781250
1389,14.19,2021-12-17 16:25:15.796875
1390,14.41,2021-12-17 16:25:15.812500
1391,14.34,2021-12-17 16:25:15.828125
1392,13.93,2021-12-17 16:25:15.843750
1393,13.16,2021-12-17 16:25:15.859375
1394,11.96,2021-12-17 16:25:15.875000
1395,10.32,2021-12-17 16:25:15.890625
1396,8.16,2021-12-17 16:25:15.906250
1397,5.44,2021-12-17 16:25:15.921875
1398,2.12,2021-12-17 16:25:15.937500
1399,-1.82,2021-12-17 16:25:15.953125
1400,-6.23,2021-12-17 16:25:15.968750
1401,-10.84,2021-12-17 16:25:15.984375
1402,-15.22,2021-12-17 16:25:16.000000
1403,-18.96,2021-12-17 16:25:16.015625
1404,-21.77,2021-12-17 16:25:16.031250
1405,-23.67,2021-12-17 16:25:16.046875
1406,-24.94,2021-12-17 16:25:16.062500
1407,-26.02,2021-12-17 16:25:16.078125
1408,-27.34,2021-12-17 16:25:16.093750
1409,-28.99,2021-12-17 16:25:16.109375
1410,-30.79,2021-12-17 16:25:16.125000
1411,-32.22,2021-12-17 16:25:16.140625
1412,-32.75,2021-12-17 16:25:16.156250
1413,-31.98,2021-12-17 16:25:16.171875
1414,-29.84,2021-12-17 16:25:16.187500
1415,-26.58,2021-12-17 16:25:16.203125
1416,-22.6,2021-12-17 16:25:16.218750
1417,-18.33,2021-12-17 16:25:16.234375
1418,-14.09,2021-12-17 16:25:16.250000
1419,-10.06,2021-12-17 16:25:16.265625
1420,-6.34,2021-12-17 16:25:16.281250
1421,-2.96,2021-12-17 16:25:16.296875
1422,0.04,2021-12-17 16:25:16.312500
1423,2.63,2021-12-17 16:25:16.328125
1424,4.79,2021-12-17 16:25:16.343750
1425,6.54,2021-12-17 16:25:16.359375
1426,7.94,2021-12-17 16:25:16.375000
1427,9.09,2021-12-17 16:25:16.390625
1428,10.14,2021-12-17 16:25:16.406250
1429,11.19,2021-12-17 16:25:16.421875
1430,12.34,2021-12-17 16:25:16.437500
1431,13.63,2021-12-17 16:25:16.453125
1432,15.01,2021-12-17 16:25:16.468750
1433,16.32,2021-12-17 16:25:16.484375
1434,17.4,2021-12-17 16:25:16.500000
1435,18.06,2021-12-17 16:25:16.515625
1436,18.12,2021-12-17 16:25:16.531250
1437,17.52,2021-12-17 16:25:16.546875
1438,16.26,2021-12-17 16:25:16.562500
1439,14.45,2021-12-17 16:25:16.578125
1440,12.27,2021-12-17 16:25:16.593750
1441,9.95,2021-12-17 16:25:16.609375
1442,7.65,2021-12-17 16:25:16.625000
1443,5.47,2021-12-17 16:25:16.640625
1444,3.36,2021-12-17 16:25:16.656250
1445,1.22,2021-12-17 16:25:16.671875
1446,-1.05,2021-12-17 16:25:16.687500
1447,-3.51,2021-12-17 16:25:16.703125
1448,-6.13,2021-12-17 16:25:16.718750
1449,-8.79,2021-12-17 16:25:16.734375
1450,-11.38,2021-12-17 16:25:16.750000
1451,-13.79,2021-12-17 16:25:16.765625
1452,-16.04,2021-12-17 16:25:16.781250
1453,-18.17,2021-12-17 16:25:16.796875
1454,-20.35,2021-12-17 16:25:16.812500
1455,-22.72,2021-12-17 16:25:16.828125
1456,-25.48,2021-12-17 16:25:16.843750
1457,-28.65,2021-12-17 16:25:16.859375
1458,-32.09,2021-12-17 16:25:16.875000
1459,-35.36,2021-12-17 16:25:16.890625
1460,-37.77,2021-12-17 16:25:16.906250
1461,-38.51,2021-12-17 16:25:16.921875
1462,-36.96,2021-12-17 16:25:16.937500
1463,-32.86,2021-12-17 16:25:16.953125
1464,-26.49,2021-12-17 16:25:16.968750
1465,-18.6,2021-12-17 16:25:16.984375
1466,-10.14,2021-12-17 16:25:17.000000
1467,-2.0,2021-12-17 16:25:17.015625
1468,5.16,2021-12-17 16:25:17.031250
1469,11.07,2021-12-17 16:25:17.046875
1470,15.7,2021-12-17 16:25:17.062500
1471,19.2,2021-12-17 16:25:17.078125
1472,21.74,2021-12-17 16:25:17.093750
1473,23.47,2021-12-17 16:25:17.109375
1474,24.5,2021-12-17 16:25:17.125000
1475,24.95,2021-12-17 16:25:17.140625
1476,24.97,2021-12-17 16:25:17.156250
1477,24.76,2021-12-17 16:25:17.171875
1478,24.55,2021-12-17 16:25:17.187500
1479,24.53,2021-12-17 16:25:17.203125
1480,24.78,2021-12-17 16:25:17.218750
1481,25.19,2021-12-17 16:25:17.234375
1482,25.58,2021-12-17 16:25:17.250000
1483,25.75,2021-12-17 16:25:17.265625
1484,25.64,2021-12-17 16:25:17.281250
1485,25.37,2021-12-17 16:25:17.296875
1486,25.17,2021-12-17 16:25:17.312500
1487,25.19,2021-12-17 16:25:17.328125
1488,25.37,2021-12-17 16:25:17.343750
1489,25.46,2021-12-17 16:25:17.359375
1490,25.09,2021-12-17 16:25:17.375000
1491,23.99,2021-12-17 16:25:17.390625
1492,22.19,2021-12-17 16:25:17.406250
1493,19.97,2021-12-17 16:25:17.421875
1494,17.76,2021-12-17 16:25:17.437500
1495,15.84,2021-12-17 16:25:17.453125
1496,14.31,2021-12-17 16:25:17.468750
1497,12.95,2021-12-17 16:25:17.484375
1498,11.44,2021-12-17 16:25:17.500000
1499,9.51,2021-12-17 16:25:17.515625
1500,7.03,2021-12-17 16:25:17.531250
1501,4.11,2021-12-17 16:25:17.546875
1502,0.94,2021-12-17 16:25:17.562500
1503,-2.25,2021-12-17 16:25:17.578125
1504,-5.32,2021-12-17 16:25:17.593750
1505,-8.22,2021-12-17 16:25:17.609375
1506,-10.94,2021-12-17 16:25:17.625000
1507,-13.52,2021-12-17 16:25:17.640625
1508,-16.02,2021-12-17 16:25:17.656250
1509,-18.56,2021-12-17 16:25:17.671875
1510,-21.29,2021-12-17 16:25:17.687500
1511,-24.38,2021-12-17 16:25:17.703125
1512,-27.87,2021-12-17 16:25:17.718750
1513,-31.62,2021-12-17 16:25:17.734375
1514,-35.2,2021-12-17 16:25:17.750000
1515,-37.94,2021-12-17 16:25:17.765625
1516,-39.15,2021-12-17 16:25:17.781250
1517,-38.27,2021-12-17 16:25:17.796875
1518,-35.12,2021-12-17 16:25:17.812500
1519,-29.97,2021-12-17 16:25:17.828125
1520,-23.4,2021-12-17 16:25:17.843750
1521,-16.2,2021-12-17 16:25:17.859375
1522,-9.08,2021-12-17 16:25:17.875000
1523,-2.52,2021-12-17 16:25:17.890625
1524,3.23,2021-12-17 16:25:17.906250
1525,8.12,2021-12-17 16:25:17.921875
1526,12.16,2021-12-17 16:25:17.937500
1527,15.39,2021-12-17 16:25:17.953125
1528,17.81,2021-12-17 16:25:17.968750
1529,19.48,2021-12-17 16:25:17.984375
1530,20.52,2021-12-17 16:25:18.000000
1531,21.17,2021-12-17 16:25:18.015625
1532,21.68,2021-12-17 16:25:18.031250
1533,22.25,2021-12-17 16:25:18.046875
1534,22.99,2021-12-17 16:25:18.062500
1535,23.86,2021-12-17 16:25:18.078125
1536,24.74,2021-12-17 16:25:18.093750
1537,25.49,2021-12-17 16:25:18.109375
1538,26.03,2021-12-17 16:25:18.125000
1539,26.33,2021-12-17 16:25:18.140625
1540,26.4,2021-12-17 16:25:18.156250
1541,26.26,2021-12-17 16:25:18.171875
1542,25.91,2021-12-17 16:25:18.187500
1543,25.28,2021-12-17 16:25:18.203125
1544,24.29,2021-12-17 16:25:18.218750
1545,22.91,2021-12-17 16:25:18.234375
1546,21.13,2021-12-17 16:25:18.250000
1547,19.0,2021-12-17 16:25:18.265625
1548,16.71,2021-12-17 16:25:18.281250
1549,14.5,2021-12-17 16:25:18.296875
1550,12.65,2021-12-17 16:25:18.312500
1551,11.31,2021-12-17 16:25:18.328125
1552,10.49,2021-12-17 16:25:18.343750
1553,9.98,2021-12-17 16:25:18.359375
1554,9.47,2021-12-17 16:25:18.375000
1555,8.64,2021-12-17 16:25:18.390625
1556,7.35,2021-12-17 16:25:18.406250
1557,5.66,2021-12-17 16:25:18.421875
1558,3.79,2021-12-17 16:25:18.437500
1559,1.97,2021-12-17 16:25:18.453125
1560,0.31,2021-12-17 16:25:18.468750
1561,-1.27,2021-12-17 16:25:18.484375
1562,-2.96,2021-12-17 16:25:18.500000
1563,-4.88,2021-12-17 16:25:18.515625
1564,-7.05,2021-12-17 16:25:18.531250
1565,-9.36,2021-12-17 16:25:18.546875
1566,-11.61,2021-12-17 16:25:18.562500
1567,-13.69,2021-12-17 16:25:18.578125
1568,-15.59,2021-12-17 16:25:18.593750
1569,-17.44,2021-12-17 16:25:18.609375
1570,-19.35,2021-12-17 16:25:18.625000
1571,-21.34,2021-12-17 16:25:18.640625
1572,-23.3,2021-12-17 16:25:18.656250
1573,-25.04,2021-12-17 16:25:18.671875
1574,-26.35,2021-12-17 16:25:18.687500
1575,-27.17,2021-12-17 16:25:18.703125
1576,-27.52,2021-12-17 16:25:18.718750
1577,-27.48,2021-12-17 16:25:18.734375
1578,-27.08,2021-12-17 16:25:18.750000
1579,-26.28,2021-12-17 16:25:18.765625
1580,-24.96,2021-12-17 16:25:18.781250
1581,-22.99,2021-12-17 16:25:18.796875
1582,-20.35,2021-12-17 16:25:18.812500
1583,-17.19,2021-12-17 16:25:18.828125
1584,-13.81,2021-12-17 16:25:18.843750
1585,-10.57,2021-12-17 16:25:18.859375
1586,-7.71,2021-12-17 16:25:18.875000
1587,-5.32,2021-12-17 16:25:18.890625
1588,-3.27,2021-12-17 16:25:18.906250
1589,-1.32,2021-12-17 16:25:18.921875
1590,0.81,2021-12-17 16:25:18.937500
1591,3.32,2021-12-17 16:25:18.953125
1592,6.29,2021-12-17 16:25:18.968750
1593,9.64,2021-12-17 16:25:18.984375
1594,13.19,2021-12-17 16:25:19.000000
1595,16.61,2021-12-17 16:25:19.015625
1596,19.54,2021-12-17 16:25:19.031250
1597,21.64,2021-12-17 16:25:19.046875
1598,22.7,2021-12-17 16:25:19.062500
1599,22.74,2021-12-17 16:25:19.078125
1600,21.96,2021-12-17 16:25:19.093750
1601,20.68,2021-12-17 16:25:19.109375
1602,19.23,2021-12-17 16:25:19.125000
1603,17.8,2021-12-17 16:25:19.140625
1604,16.44,2021-12-17 16:25:19.156250
1605,15.09,2021-12-17 16:25:19.171875
1606,13.62,2021-12-17 16:25:19.187500
1607,11.97,2021-12-17 16:25:19.203125
1608,10.17,2021-12-17 16:25:19.218750
1609,8.35,2021-12-17 16:25:19.234375
1610,6.66,2021-12-17 16:25:19.250000
1611,5.22,2021-12-17 16:25:19.265625
1612,4.09,2021-12-17 16:25:19.281250
1613,3.21,2021-12-17 16:25:19.296875
1614,2.5,2021-12-17 16:25:19.312500
1615,1.84,2021-12-17 16:25:19.328125
1616,1.17,2021-12-17 16:25:19.343750
1617,0.46,2021-12-17 16:25:19.359375
1618,-0.26,2021-12-17 16:25:19.375000
1619,-1.0,2021-12-17 16:25:19.390625
1620,-1.8,2021-12-17 16:25:19.406250
1621,-2.75,2021-12-17 16:25:19.421875
1622,-3.91,2021-12-17 16:25:19.437500
1623,-5.32,2021-12-17 16:25:19.453125
1624,-6.97,2021-12-17 16:25:19.468750
1625,-8.87,2021-12-17 16:25:19.484375
1626,-11.04,2021-12-17 16:25:19.500000
1627,-13.58,2021-12-17 16:25:19.515625
1628,-16.52,2021-12-17 16:25:19.531250
1629,-19.83,2021-12-17 16:25:19.546875
1630,-23.29,2021-12-17 16:25:19.562500
1631,-26.54,2021-12-17 16:25:19.578125
1632,-29.08,2021-12-17 16:25:19.593750
1633,-30.45,2021-12-17 16:25:19.609375
1634,-30.3,2021-12-17 16:25:19.625000
1635,-28.51,2021-12-17 16:25:19.640625
1636,-25.2,2021-12-17 16:25:19.656250
1637,-20.71,2021-12-17 16:25:19.671875
1638,-15.51,2021-12-17 16:25:19.687500
1639,-10.1,2021-12-17 16:25:19.703125
1640,-4.88,2021-12-17 16:25:19.718750
1641,-0.12,2021-12-17 16:25:19.734375
1642,4.09,2021-12-17 16:25:19.750000
1643,7.75,2021-12-17 16:25:19.765625
1644,10.97,2021-12-17 16:25:19.781250
1645,13.83,2021-12-17 16:25:19.796875
1646,16.36,2021-12-17 16:25:19.812500
1647,18.5,2021-12-17 16:25:19.828125
1648,20.14,2021-12-17 16:25:19.843750
1649,21.16,2021-12-17 16:25:19.859375
1650,21.5,2021-12-17 16:25:19.875000
1651,21.21,2021-12-17 16:25:19.890625
1652,20.47,2021-12-17 16:25:19.906250
1653,19.48,2021-12-17 16:25:19.921875
1654,18.43,2021-12-17 16:25:19.937500
1655,17.43,2021-12-17 16:25:19.953125
1656,16.51,2021-12-17 16:25:19.968750
1657,15.69,2021-12-17 16:25:19.984375
1658,14.99,2021-12-17 16:25:20.000000
1659,14.5,2021-12-17 16:25:20.015625
1660,14.31,2021-12-17 16:25:20.031250
1661,14.47,2021-12-17 16:25:20.046875
1662,14.91,2021-12-17 16:25:20.062500
1663,15.48,2021-12-17 16:25:20.078125
1664,15.98,2021-12-17 16:25:20.093750
1665,16.26,2021-12-17 16:25:20.109375
1666,16.26,2021-12-17 16:25:20.125000
1667,15.98,2021-12-17 16:25:20.140625
1668,15.44,2021-12-17 16:25:20.156250
1669,14.65,2021-12-17 16:25:20.171875
1670,13.57,2021-12-17 16:25:20.187500
1671,12.17,2021-12-17 16:25:20.203125
1672,10.45,2021-12-17 16:25:20.218750
1673,8.49,2021-12-17 16:25:20.234375
1674,6.37,2021-12-17 16:25:20.250000
1675,4.15,2021-12-17 16:25:20.265625
1676,1.87,2021-12-17 16:25:20.281250
1677,-0.46,2021-12-17 16:25:20.296875
1678,-2.72,2021-12-17 16:25:20.312500
1679,-4.65,2021-12-17 16:25:20.328125
1680,-5.92,2021-12-17 16:25:20.343750
1681,-6.21,2021-12-17 16:25:20.359375
1682,-5.47,2021-12-17 16:25:20.375000
1683,-3.93,2021-12-17 16:25:20.390625
1684,-2.18,2021-12-17 16:25:20.406250
1685,-0.93,2021-12-17 16:25:20.421875
1686,-0.88,2021-12-17 16:25:20.437500
1687,-2.43,2021-12-17 16:25:20.453125
1688,-5.59,2021-12-17 16:25:20.468750
1689,-9.97,2021-12-17 16:25:20.484375
1690,-14.85,2021-12-17 16:25:20.500000
1691,-19.34,2021-12-17 16:25:20.515625
1692,-22.56,2021-12-17 16:25:20.531250
1693,-23.87,2021-12-17 16:25:20.546875
1694,-23.06,2021-12-17 16:25:20.562500
1695,-20.42,2021-12-17 16:25:20.578125
1696,-16.64,2021-12-17 16:25:20.593750
1697,-12.55,2021-12-17 16:25:20.609375
1698,-8.78,2021-12-17 16:25:20.625000
1699,-5.57,2021-12-17 16:25:20.640625
1700,-2.72,2021-12-17 16:25:20.656250
1701,0.22,2021-12-17 16:25:20.671875
1702,3.53,2021-12-17 16:25:20.687500
1703,7.19,2021-12-17 16:25:20.703125
1704,10.74,2021-12-17 16:25:20.718750
1705,13.58,2021-12-17 16:25:20.734375
1706,15.2,2021-12-17 16:25:20.750000
1707,15.45,2021-12-17 16:25:20.765625
1708,14.59,2021-12-17 16:25:20.781250
1709,13.07,2021-12-17 16:25:20.796875
1710,11.31,2021-12-17 16:25:20.812500
1711,9.62,2021-12-17 16:25:20.828125
1712,8.12,2021-12-17 16:25:20.843750
1713,6.92,2021-12-17 16:25:20.859375
1714,6.1,2021-12-17 16:25:20.875000
1715,5.76,2021-12-17 16:25:20.890625
1716,5.92,2021-12-17 16:25:20.906250
1717,6.49,2021-12-17 16:25:20.921875
1718,7.25,2021-12-17 16:25:20.937500
1719,7.96,2021-12-17 16:25:20.953125
1720,8.37,2021-12-17 16:25:20.968750
1721,8.4,2021-12-17 16:25:20.984375
1722,8.05,2021-12-17 16:25:21.000000
1723,7.43,2021-12-17 16:25:21.015625
1724,6.68,2021-12-17 16:25:21.031250
1725,5.95,2021-12-17 16:25:21.046875
1726,5.3,2021-12-17 16:25:21.062500
1727,4.74,2021-12-17 16:25:21.078125
1728,4.19,2021-12-17 16:25:21.093750
1729,3.51,2021-12-17 16:25:21.109375
1730,2.62,2021-12-17 16:25:21.125000
1731,1.51,2021-12-17 16:25:21.140625
1732,0.29,2021-12-17 16:25:21.156250
1733,-0.89,2021-12-17 16:25:21.171875
1734,-1.91,2021-12-17 16:25:21.187500
1735,-2.73,2021-12-17 16:25:21.203125
1736,-3.39,2021-12-17 16:25:21.218750
1737,-4.03,2021-12-17 16:25:21.234375
1738,-4.75,2021-12-17 16:25:21.250000
1739,-5.62,2021-12-17 16:25:21.265625
1740,-6.69,2021-12-17 16:25:21.281250
1741,-7.96,2021-12-17 16:25:21.296875
1742,-9.45,2021-12-17 16:25:21.312500
1743,-11.17,2021-12-17 16:25:21.328125
1744,-13.03,2021-12-17 16:25:21.343750
1745,-14.93,2021-12-17 16:25:21.359375
1746,-16.75,2021-12-17 16:25:21.375000
1747,-18.39,2021-12-17 16:25:21.390625
1748,-19.93,2021-12-17 16:25:21.406250
1749,-21.48,2021-12-17 16:25:21.421875
1750,-23.12,2021-12-17 16:25:21.437500
1751,-24.8,2021-12-17 16:25:21.453125
1752,-26.27,2021-12-17 16:25:21.468750
1753,-27.07,2021-12-17 16:25:21.484375
1754,-26.77,2021-12-17 16:25:21.500000
1755,-25.12,2021-12-17 16:25:21.515625
1756,-22.19,2021-12-17 16:25:21.531250
1757,-18.32,2021-12-17 16:25:21.546875
1758,-14.04,2021-12-17 16:25:21.562500
1759,-9.77,2021-12-17 16:25:21.578125
1760,-5.82,2021-12-17 16:25:21.593750
1761,-2.21,2021-12-17 16:25:21.609375
1762,1.09,2021-12-17 16:25:21.625000
1763,4.15,2021-12-17 16:25:21.640625
1764,6.94,2021-12-17 16:25:21.656250
1765,9.31,2021-12-17 16:25:21.671875
1766,11.13,2021-12-17 16:25:21.687500
1767,12.34,2021-12-17 16:25:21.703125
1768,13.01,2021-12-17 16:25:21.718750
1769,13.3,2021-12-17 16:25:21.734375
1770,13.37,2021-12-17 16:25:21.750000
1771,13.31,2021-12-17 16:25:21.765625
1772,13.12,2021-12-17 16:25:21.781250
1773,12.79,2021-12-17 16:25:21.796875
1774,12.35,2021-12-17 16:25:21.812500
1775,11.93,2021-12-17 16:25:21.828125
1776,11.68,2021-12-17 16:25:21.843750
1777,11.72,2021-12-17 16:25:21.859375
1778,12.05,2021-12-17 16:25:21.875000
1779,12.54,2021-12-17 16:25:21.890625
1780,12.98,2021-12-17 16:25:21.906250
1781,13.18,2021-12-17 16:25:21.921875
1782,13.0,2021-12-17 16:25:21.937500
1783,12.44,2021-12-17 16:25:21.953125
1784,11.55,2021-12-17 16:25:21.968750
1785,10.45,2021-12-17 16:25:21.984375
1786,9.3,2021-12-17 16:25:22.000000
1787,8.22,2021-12-17 16:25:22.015625
1788,7.3,2021-12-17 16:25:22.031250
1789,6.53,2021-12-17 16:25:22.046875
1790,5.86,2021-12-17 16:25:22.062500
1791,5.22,2021-12-17 16:25:22.078125
1792,4.58,2021-12-17 16:25:22.093750
1793,3.99,2021-12-17 16:25:22.109375
1794,3.53,2021-12-17 16:25:22.125000
1795,3.26,2021-12-17 16:25:22.140625
1796,3.12,2021-12-17 16:25:22.156250
1797,2.95,2021-12-17 16:25:22.171875
1798,2.55,2021-12-17 16:25:22.187500
1799,1.71,2021-12-17 16:25:22.203125
1800,0.36,2021-12-17 16:25:22.218750
1801,-1.45,2021-12-17 16:25:22.234375
1802,-3.55,2021-12-17 16:25:22.250000
1803,-5.75,2021-12-17 16:25:22.265625
1804,-7.86,2021-12-17 16:25:22.281250
1805,-9.7,2021-12-17 16:25:22.296875
1806,-11.13,2021-12-17 16:25:22.312500
1807,-12.11,2021-12-17 16:25:22.328125
1808,-12.68,2021-12-17 16:25:22.343750
1809,-13.05,2021-12-17 16:25:22.359375
1810,-13.54,2021-12-17 16:25:22.375000
1811,-14.46,2021-12-17 16:25:22.390625
1812,-16.05,2021-12-17 16:25:22.406250
1813,-18.25,2021-12-17 16:25:22.421875
1814,-20.76,2021-12-17 16:25:22.437500
1815,-23.04,2021-12-17 16:25:22.453125
1816,-24.45,2021-12-17 16:25:22.468750
1817,-24.51,2021-12-17 16:25:22.484375
1818,-22.96,2021-12-17 16:25:22.500000
1819,-19.91,2021-12-17 16:25:22.515625
1820,-15.76,2021-12-17 16:25:22.531250
1821,-11.09,2021-12-17 16:25:22.546875
1822,-6.51,2021-12-17 16:25:22.562500
1823,-2.5,2021-12-17 16:25:22.578125
1824,0.65,2021-12-17 16:25:22.593750
1825,2.89,2021-12-17 16:25:22.609375
1826,4.3,2021-12-17 16:25:22.625000
1827,5.13,2021-12-17 16:25:22.640625
1828,5.62,2021-12-17 16:25:22.656250
1829,6.04,2021-12-17 16:25:22.671875
1830,6.56,2021-12-17 16:25:22.687500
1831,7.27,2021-12-17 16:25:22.703125
1832,8.2,2021-12-17 16:25:22.718750
1833,9.27,2021-12-17 16:25:22.734375
1834,10.38,2021-12-17 16:25:22.750000
1835,11.4,2021-12-17 16:25:22.765625
1836,12.17,2021-12-17 16:25:22.781250
1837,12.57,2021-12-17 16:25:22.796875
1838,12.56,2021-12-17 16:25:22.812500
1839,12.12,2021-12-17 16:25:22.828125
1840,11.39,2021-12-17 16:25:22.843750
1841,10.57,2021-12-17 16:25:22.859375
1842,9.92,2021-12-17 16:25:22.875000
1843,9.67,2021-12-17 16:25:22.890625
1844,9.95,2021-12-17 16:25:22.906250
1845,10.71,2021-12-17 16:25:22.921875
1846,11.72,2021-12-17 16:25:22.937500
1847,12.66,2021-12-17 16:25:22.953125
1848,13.22,2021-12-17 16:25:22.968750
1849,13.2,2021-12-17 16:25:22.984375
1850,12.68,2021-12-17 16:25:23.000000
1851,11.89,2021-12-17 16:25:23.015625
1852,11.18,2021-12-17 16:25:23.031250
1853,10.87,2021-12-17 16:25:23.046875
1854,11.08,2021-12-17 16:25:23.062500
1855,11.7,2021-12-17 16:25:23.078125
1856,12.41,2021-12-17 16:25:23.093750
1857,12.82,2021-12-17 16:25:23.109375
1858,12.57,2021-12-17 16:25:23.125000
1859,11.43,2021-12-17 16:25:23.140625
1860,9.33,2021-12-17 16:25:23.156250
1861,6.33,2021-12-17 16:25:23.171875
1862,2.66,2021-12-17 16:25:23.187500
1863,-1.33,2021-12-17 16:25:23.203125
1864,-5.21,2021-12-17 16:25:23.218750
1865,-8.47,2021-12-17 16:25:23.234375
1866,-10.74,2021-12-17 16:25:23.250000
1867,-11.89,2021-12-17 16:25:23.265625
1868,-12.16,2021-12-17 16:25:23.281250
1869,-12.08,2021-12-17 16:25:23.296875
1870,-12.37,2021-12-17 16:25:23.312500
1871,-13.6,2021-12-17 16:25:23.328125
1872,-16.01,2021-12-17 16:25:23.343750
1873,-19.37,2021-12-17 16:25:23.359375
1874,-23.02,2021-12-17 16:25:23.375000
1875,-26.09,2021-12-17 16:25:23.390625
1876,-27.72,2021-12-17 16:25:23.406250
1877,-27.32,2021-12-17 16:25:23.421875
1878,-24.76,2021-12-17 16:25:23.437500
1879,-20.37,2021-12-17 16:25:23.453125
1880,-14.88,2021-12-17 16:25:23.468750
1881,-9.2,2021-12-17 16:25:23.484375
1882,-4.17,2021-12-17 16:25:23.500000
1883,-0.35,2021-12-17 16:25:23.515625
1884,2.1,2021-12-17 16:25:23.531250
1885,3.41,2021-12-17 16:25:23.546875
1886,4.0,2021-12-17 16:25:23.562500
1887,4.33,2021-12-17 16:25:23.578125
1888,4.74,2021-12-17 16:25:23.593750
1889,5.38,2021-12-17 16:25:23.609375
1890,6.22,2021-12-17 16:25:23.625000
1891,7.14,2021-12-17 16:25:23.640625
1892,8.01,2021-12-17 16:25:23.656250
1893,8.72,2021-12-17 16:25:23.671875
1894,9.21,2021-12-17 16:25:23.687500
1895,9.44,2021-12-17 16:25:23.703125
1896,9.43,2021-12-17 16:25:23.718750
1897,9.14,2021-12-17 16:25:23.734375
1898,8.62,2021-12-17 16:25:23.750000
1899,7.95,2021-12-17 16:25:23.765625
1900,7.34,2021-12-17 16:25:23.781250
1901,7.04,2021-12-17 16:25:23.796875
1902,7.22,2021-12-17 16:25:23.812500
1903,7.9,2021-12-17 16:25:23.828125
1904,8.86,2021-12-17 16:25:23.843750
1905,9.76,2021-12-17 16:25:23.859375
1906,10.23,2021-12-17 16:25:23.875000
1907,10.12,2021-12-17 16:25:23.890625
1908,9.49,2021-12-17 16:25:23.906250
1909,8.59,2021-12-17 16:25:23.921875
1910,7.7,2021-12-17 16:25:23.937500
1911,6.94,2021-12-17 16:25:23.953125
1912,6.27,2021-12-17 16:25:23.968750
1913,5.5,2021-12-17 16:25:23.984375
1914,4.48,2021-12-17 16:25:24.000000
1915,3.17,2021-12-17 16:25:24.015625
1916,1.68,2021-12-17 16:25:24.031250
1917,0.22,2021-12-17 16:25:24.046875
1918,-1.0,2021-12-17 16:25:24.062500
1919,-1.89,2021-12-17 16:25:24.078125
1920,-2.54,2021-12-17 16:25:24.093750
1921,-3.08,2021-12-17 16:25:24.109375
1922,-3.68,2021-12-17 16:25:24.125000
1923,-4.37,2021-12-17 16:25:24.140625
1924,-5.04,2021-12-17 16:25:24.156250
1925,-5.52,2021-12-17 16:25:24.171875
1926,-5.7,2021-12-17 16:25:24.187500
1927,-5.59,2021-12-17 16:25:24.203125
1928,-5.39,2021-12-17 16:25:24.218750
1929,-5.41,2021-12-17 16:25:24.234375
1930,-5.92,2021-12-17 16:25:24.250000
1931,-7.02,2021-12-17 16:25:24.265625
1932,-8.56,2021-12-17 16:25:24.281250
1933,-10.27,2021-12-17 16:25:24.296875
1934,-11.78,2021-12-17 16:25:24.312500
1935,-12.78,2021-12-17 16:25:24.328125
1936,-13.05,2021-12-17 16:25:24.343750
1937,-12.5,2021-12-17 16:25:24.359375
1938,-11.13,2021-12-17 16:25:24.375000
1939,-9.02,2021-12-17 16:25:24.390625
1940,-6.36,2021-12-17 16:25:24.406250
1941,-3.4,2021-12-17 16:25:24.421875
1942,-0.49,2021-12-17 16:25:24.437500
1943,2.06,2021-12-17 16:25:24.453125
1944,4.0,2021-12-17 16:25:24.468750
1945,5.21,2021-12-17 16:25:24.484375
1946,5.78,2021-12-17 16:25:24.500000
1947,5.86,2021-12-17 16:25:24.515625
1948,5.67,2021-12-17 16:25:24.531250
1949,5.38,2021-12-17 16:25:24.546875
1950,5.11,2021-12-17 16:25:24.562500
1951,4.93,2021-12-17 16:25:24.578125
1952,4.9,2021-12-17 16:25:24.593750
1953,5.06,2021-12-17 16:25:24.609375
1954,5.43,2021-12-17 16:25:24.625000
1955,5.97,2021-12-17 16:25:24.640625
1956,6.6,2021-12-17 16:25:24.656250
1957,7.14,2021-12-17 16:25:24.671875
1958,7.46,2021-12-17 16:25:24.687500
1959,7.5,2021-12-17 16:25:24.703125
1960,7.33,2021-12-17 16:25:24.718750
1961,7.15,2021-12-17 16:25:24.734375
1962,7.21,2021-12-17 16:25:24.750000
1963,7.71,2021-12-17 16:25:24.765625
1964,8.72,2021-12-17 16:25:24.781250
1965,10.13,2021-12-17 16:25:24.796875
1966,11.65,2021-12-17 16:25:24.812500
1967,12.84,2021-12-17 16:25:24.828125
1968,13.18,2021-12-17 16:25:24.843750
1969,12.23,2021-12-17 16:25:24.859375
1970,9.7,2021-12-17 16:25:24.875000
1971,5.61,2021-12-17 16:25:24.890625
1972,0.34,2021-12-17 16:25:24.906250
1973,-5.45,2021-12-17 16:25:24.921875
1974,-10.89,2021-12-17 16:25:24.937500
1975,-15.2,2021-12-17 16:25:24.953125
1976,-17.85,2021-12-17 16:25:24.968750
1977,-18.71,2021-12-17 16:25:24.984375
1978,-18.06,2021-12-17 16:25:25.000000
1979,-16.48,2021-12-17 16:25:25.015625
1980,-14.65,2021-12-17 16:25:25.031250
1981,-13.14,2021-12-17 16:25:25.046875
1982,-12.28,2021-12-17 16:25:25.062500
1983,-12.14,2021-12-17 16:25:25.078125
1984,-12.47,2021-12-17 16:25:25.093750
1985,-12.94,2021-12-17 16:25:25.109375
1986,-13.17,2021-12-17 16:25:25.125000
1987,-12.87,2021-12-17 16:25:25.140625
1988,-11.91,2021-12-17 16:25:25.156250
1989,-10.31,2021-12-17 16:25:25.171875
1990,-8.28,2021-12-17 16:25:25.187500
1991,-6.1,2021-12-17 16:25:25.203125
1992,-4.09,2021-12-17 16:25:25.218750
1993,-2.52,2021-12-17 16:25:25.234375
1994,-1.54,2021-12-17 16:25:25.250000
1995,-1.14,2021-12-17 16:25:25.265625
1996,-1.2,2021-12-17 16:25:25.281250
1997,-1.48,2021-12-17 16:25:25.296875
1998,-1.72,2021-12-17 16:25:25.312500
1999,-1.75,2021-12-17 16:25:25.328125
2000,-1.49,2021-12-17 16:25:25.343750
2001,-0.99,2021-12-17 16:25:25.359375
2002,-0.37,2021-12-17 16:25:25.375000
2003,0.25,2021-12-17 16:25:25.390625
2004,0.78,2021-12-17 16:25:25.406250
2005,1.18,2021-12-17 16:25:25.421875
2006,1.45,2021-12-17 16:25:25.437500
2007,1.56,2021-12-17 16:25:25.453125
2008,1.42,2021-12-17 16:25:25.468750
2009,0.97,2021-12-17 16:25:25.484375
2010,0.16,2021-12-17 16:25:25.500000
2011,-0.94,2021-12-17 16:25:25.515625
2012,-2.2,2021-12-17 16:25:25.531250
2013,-3.4,2021-12-17 16:25:25.546875
2014,-4.41,2021-12-17 16:25:25.562500
2015,-5.18,2021-12-17 16:25:25.578125
2016,-5.78,2021-12-17 16:25:25.593750
2017,-6.3,2021-12-17 16:25:25.609375
2018,-6.81,2021-12-17 16:25:25.625000
2019,-7.25,2021-12-17 16:25:25.640625
2020,-7.46,2021-12-17 16:25:25.656250
2021,-7.31,2021-12-17 16:25:25.671875
2022,-6.78,2021-12-17 16:25:25.687500
2023,-6.04,2021-12-17 16:25:25.703125
2024,-5.42,2021-12-17 16:25:25.718750
2025,-5.25,2021-12-17 16:25:25.734375
2026,-5.73,2021-12-17 16:25:25.750000
2027,-6.76,2021-12-17 16:25:25.765625
2028,-8.0,2021-12-17 16:25:25.781250
2029,-8.94,2021-12-17 16:25:25.796875
2030,-9.12,2021-12-17 16:25:25.812500
2031,-8.29,2021-12-17 16:25:25.828125
2032,-6.46,2021-12-17 16:25:25.843750
2033,-3.93,2021-12-17 16:25:25.859375
2034,-1.14,2021-12-17 16:25:25.875000
2035,1.45,2021-12-17 16:25:25.890625
2036,3.48,2021-12-17 16:25:25.906250
2037,4.71,2021-12-17 16:25:25.921875
2038,5.02,2021-12-17 16:25:25.937500
2039,4.32,2021-12-17 16:25:25.953125
2040,2.62,2021-12-17 16:25:25.968750
2041,0.05,2021-12-17 16:25:25.984375
2042,-3.06,2021-12-17 16:25:26.000000
2043,-6.1,2021-12-17 16:25:26.015625
2044,-8.34,2021-12-17 16:25:26.031250
2045,-9.11,2021-12-17 16:25:26.046875
2046,-8.08,2021-12-17 16:25:26.062500
2047,-5.39,2021-12-17 16:25:26.078125
2048,-1.66,2021-12-17 16:25:26.093750
2049,2.33,2021-12-17 16:25:26.109375
2050,5.9,2021-12-17 16:25:26.125000
2051,8.7,2021-12-17 16:25:26.140625
2052,10.78,2021-12-17 16:25:26.156250
2053,12.41,2021-12-17 16:25:26.171875
2054,13.86,2021-12-17 16:25:26.187500
2055,15.19,2021-12-17 16:25:26.203125
2056,16.28,2021-12-17 16:25:26.218750
2057,16.85,2021-12-17 16:25:26.234375
2058,16.67,2021-12-17 16:25:26.250000
2059,15.63,2021-12-17 16:25:26.265625
2060,13.77,2021-12-17 16:25:26.281250
2061,11.31,2021-12-17 16:25:26.296875
2062,8.46,2021-12-17 16:25:26.312500
2063,5.45,2021-12-17 16:25:26.328125
2064,2.46,2021-12-17 16:25:26.343750
2065,-0.36,2021-12-17 16:25:26.359375
2066,-2.89,2021-12-17 16:25:26.375000
2067,-5.12,2021-12-17 16:25:26.390625
2068,-7.12,2021-12-17 16:25:26.406250
2069,-9.08,2021-12-17 16:25:26.421875
2070,-11.28,2021-12-17 16:25:26.437500
2071,-13.88,2021-12-17 16:25:26.453125
2072,-16.84,2021-12-17 16:25:26.468750
2073,-19.85,2021-12-17 16:25:26.484375
2074,-22.38,2021-12-17 16:25:26.500000
2075,-23.9,2021-12-17 16:25:26.515625
2076,-24.0,2021-12-17 16:25:26.531250
2077,-22.52,2021-12-17 16:25:26.546875
2078,-19.54,2021-12-17 16:25:26.562500
2079,-15.34,2021-12-17 16:25:26.578125
2080,-10.33,2021-12-17 16:25:26.593750
2081,-5.0,2021-12-17 16:25:26.609375
2082,0.08,2021-12-17 16:25:26.625000
2083,4.34,2021-12-17 16:25:26.640625
2084,7.35,2021-12-17 16:25:26.656250
2085,8.94,2021-12-17 16:25:26.671875
2086,9.24,2021-12-17 16:25:26.687500
2087,8.69,2021-12-17 16:25:26.703125
2088,7.81,2021-12-17 16:25:26.718750
2089,7.06,2021-12-17 16:25:26.734375
2090,6.65,2021-12-17 16:25:26.750000
2091,6.57,2021-12-17 16:25:26.765625
2092,6.64,2021-12-17 16:25:26.781250
2093,6.67,2021-12-17 16:25:26.796875
2094,6.55,2021-12-17 16:25:26.812500
2095,6.3,2021-12-17 16:25:26.828125
2096,6.06,2021-12-17 16:25:26.843750
2097,6.02,2021-12-17 16:25:26.859375
2098,6.32,2021-12-17 16:25:26.875000
2099,7.03,2021-12-17 16:25:26.890625
2100,8.07,2021-12-17 16:25:26.906250
2101,9.29,2021-12-17 16:25:26.921875
2102,10.49,2021-12-17 16:25:26.937500
2103,11.49,2021-12-17 16:25:26.953125
2104,12.1,2021-12-17 16:25:26.968750
2105,12.21,2021-12-17 16:25:26.984375
2106,11.72,2021-12-17 16:25:27.000000
2107,10.61,2021-12-17 16:25:27.015625
2108,8.96,2021-12-17 16:25:27.031250
2109,6.98,2021-12-17 16:25:27.046875
2110,5.01,2021-12-17 16:25:27.062500
2111,3.37,2021-12-17 16:25:27.078125
2112,2.3,2021-12-17 16:25:27.093750
2113,1.85,2021-12-17 16:25:27.109375
2114,1.86,2021-12-17 16:25:27.125000
2115,2.12,2021-12-17 16:25:27.140625
2116,2.41,2021-12-17 16:25:27.156250
2117,2.61,2021-12-17 16:25:27.171875
2118,2.66,2021-12-17 16:25:27.187500
2119,2.57,2021-12-17 16:25:27.203125
2120,2.26,2021-12-17 16:25:27.218750
2121,1.66,2021-12-17 16:25:27.234375
2122,0.68,2021-12-17 16:25:27.250000
2123,-0.66,2021-12-17 16:25:27.265625
2124,-2.24,2021-12-17 16:25:27.281250
2125,-3.88,2021-12-17 16:25:27.296875
2126,-5.38,2021-12-17 16:25:27.312500
2127,-6.7,2021-12-17 16:25:27.328125
2128,-7.85,2021-12-17 16:25:27.343750
2129,-8.93,2021-12-17 16:25:27.359375
2130,-9.99,2021-12-17 16:25:27.375000
2131,-11.01,2021-12-17 16:25:27.390625
2132,-11.98,2021-12-17 16:25:27.406250
2133,-12.92,2021-12-17 16:25:27.421875
2134,-13.95,2021-12-17 16:25:27.437500
2135,-15.3,2021-12-17 16:25:27.453125
2136,-17.15,2021-12-17 16:25:27.468750
2137,-19.55,2021-12-17 16:25:27.484375
2138,-22.31,2021-12-17 16:25:27.500000
2139,-25.0,2021-12-17 16:25:27.515625
2140,-27.01,2021-12-17 16:25:27.531250
2141,-27.72,2021-12-17 16:25:27.546875
2142,-26.67,2021-12-17 16:25:27.562500
2143,-23.69,2021-12-17 16:25:27.578125
2144,-18.92,2021-12-17 16:25:27.593750
2145,-12.78,2021-12-17 16:25:27.609375
2146,-5.85,2021-12-17 16:25:27.625000
2147,1.26,2021-12-17 16:25:27.640625
2148,8.03,2021-12-17 16:25:27.656250
2149,14.0,2021-12-17 16:25:27.671875
2150,18.8,2021-12-17 16:25:27.687500
2151,22.08,2021-12-17 16:25:27.703125
2152,23.68,2021-12-17 16:25:27.718750
2153,23.66,2021-12-17 16:25:27.734375
2154,22.37,2021-12-17 16:25:27.750000
2155,20.41,2021-12-17 16:25:27.765625
2156,18.39,2021-12-17 16:25:27.781250
2157,16.7,2021-12-17 16:25:27.796875
2158,15.43,2021-12-17 16:25:27.812500
2159,14.42,2021-12-17 16:25:27.828125
2160,13.45,2021-12-17 16:25:27.843750
2161,12.41,2021-12-17 16:25:27.859375
2162,11.35,2021-12-17 16:25:27.875000
2163,10.45,2021-12-17 16:25:27.890625
2164,9.84,2021-12-17 16:25:27.906250
2165,9.58,2021-12-17 16:25:27.921875
2166,9.57,2021-12-17 16:25:27.937500
2167,9.69,2021-12-17 16:25:27.953125
2168,9.81,2021-12-17 16:25:27.968750
2169,9.89,2021-12-17 16:25:27.984375
2170,9.93,2021-12-17 16:25:28.000000
2171,9.89,2021-12-17 16:25:28.015625
2172,9.74,2021-12-17 16:25:28.031250
2173,9.38,2021-12-17 16:25:28.046875
2174,8.7,2021-12-17 16:25:28.062500
2175,7.63,2021-12-17 16:25:28.078125
2176,6.16,2021-12-17 16:25:28.093750
2177,4.39,2021-12-17 16:25:28.109375
2178,2.49,2021-12-17 16:25:28.125000
2179,0.64,2021-12-17 16:25:28.140625
2180,-0.99,2021-12-17 16:25:28.156250
2181,-2.32,2021-12-17 16:25:28.171875
2182,-3.32,2021-12-17 16:25:28.187500
2183,-4.02,2021-12-17 16:25:28.203125
2184,-4.45,2021-12-17 16:25:28.218750
2185,-4.66,2021-12-17 16:25:28.234375
2186,-4.71,2021-12-17 16:25:28.250000
2187,-4.73,2021-12-17 16:25:28.265625
2188,-4.86,2021-12-17 16:25:28.281250
2189,-5.19,2021-12-17 16:25:28.296875
2190,-5.71,2021-12-17 16:25:28.312500
2191,-6.32,2021-12-17 16:25:28.328125
2192,-6.9,2021-12-17 16:25:28.343750
2193,-7.33,2021-12-17 16:25:28.359375
2194,-7.6,2021-12-17 16:25:28.375000
2195,-7.81,2021-12-17 16:25:28.390625
2196,-8.04,2021-12-17 16:25:28.406250
2197,-8.42,2021-12-17 16:25:28.421875
2198,-8.97,2021-12-17 16:25:28.437500
2199,-9.72,2021-12-17 16:25:28.453125
2200,-10.6,2021-12-17 16:25:28.468750
2201,-11.46,2021-12-17 16:25:28.484375
2202,-12.08,2021-12-17 16:25:28.500000
2203,-12.17,2021-12-17 16:25:28.515625
2204,-11.47,2021-12-17 16:25:28.531250
2205,-9.86,2021-12-17 16:25:28.546875
2206,-7.44,2021-12-17 16:25:28.562500
2207,-4.61,2021-12-17 16:25:28.578125
2208,-1.84,2021-12-17 16:25:28.593750
2209,0.43,2021-12-17 16:25:28.609375
2210,2.01,2021-12-17 16:25:28.625000
2211,2.95,2021-12-17 16:25:28.640625
2212,3.52,2021-12-17 16:25:28.656250
2213,4.0,2021-12-17 16:25:28.671875
2214,4.6,2021-12-17 16:25:28.687500
2215,5.34,2021-12-17 16:25:28.703125
2216,6.13,2021-12-17 16:25:28.718750
2217,6.8,2021-12-17 16:25:28.734375
2218,7.2,2021-12-17 16:25:28.750000
2219,7.28,2021-12-17 16:25:28.765625
2220,7.1,2021-12-17 16:25:28.781250
2221,6.77,2021-12-17 16:25:28.796875
2222,6.38,2021-12-17 16:25:28.812500
2223,6.05,2021-12-17 16:25:28.828125
2224,5.83,2021-12-17 16:25:28.843750
2225,5.8,2021-12-17 16:25:28.859375
2226,6.06,2021-12-17 16:25:28.875000
2227,6.66,2021-12-17 16:25:28.890625
2228,7.6,2021-12-17 16:25:28.906250
2229,8.79,2021-12-17 16:25:28.921875
2230,10.03,2021-12-17 16:25:28.937500
2231,11.1,2021-12-17 16:25:28.953125
2232,11.77,2021-12-17 16:25:28.968750
2233,11.94,2021-12-17 16:25:28.984375
2234,11.63,2021-12-17 16:25:29.000000
2235,10.99,2021-12-17 16:25:29.015625
2236,10.2,2021-12-17 16:25:29.031250
2237,9.42,2021-12-17 16:25:29.046875
2238,8.76,2021-12-17 16:25:29.062500
2239,8.25,2021-12-17 16:25:29.078125
2240,7.88,2021-12-17 16:25:29.093750
2241,7.63,2021-12-17 16:25:29.109375
2242,7.45,2021-12-17 16:25:29.125000
2243,7.23,2021-12-17 16:25:29.140625
2244,6.87,2021-12-17 16:25:29.156250
2245,6.24,2021-12-17 16:25:29.171875
2246,5.34,2021-12-17 16:25:29.187500
2247,4.26,2021-12-17 16:25:29.203125
2248,3.19,2021-12-17 16:25:29.218750
2249,2.34,2021-12-17 16:25:29.234375
2250,1.67,2021-12-17 16:25:29.250000
2251,0.94,2021-12-17 16:25:29.265625
2252,-0.28,2021-12-17 16:25:29.281250
2253,-2.37,2021-12-17 16:25:29.296875
2254,-5.4,2021-12-17 16:25:29.312500
2255,-9.03,2021-12-17 16:25:29.328125
2256,-12.68,2021-12-17 16:25:29.343750
2257,-15.72,2021-12-17 16:25:29.359375
2258,-17.78,2021-12-17 16:25:29.375000
2259,-18.82,2021-12-17 16:25:29.390625
2260,-19.13,2021-12-17 16:25:29.406250
2261,-19.11,2021-12-17 16:25:29.421875
2262,-19.12,2021-12-17 16:25:29.437500
2263,-19.38,2021-12-17 16:25:29.453125
2264,-19.93,2021-12-17 16:25:29.468750
2265,-20.61,2021-12-17 16:25:29.484375
2266,-21.12,2021-12-17 16:25:29.500000
2267,-21.02,2021-12-17 16:25:29.515625
2268,-19.88,2021-12-17 16:25:29.531250
2269,-17.51,2021-12-17 16:25:29.546875
2270,-14.05,2021-12-17 16:25:29.562500
2271,-10.03,2021-12-17 16:25:29.578125
2272,-6.25,2021-12-17 16:25:29.593750
2273,-3.47,2021-12-17 16:25:29.609375
2274,-2.18,2021-12-17 16:25:29.625000
2275,-2.35,2021-12-17 16:25:29.640625
2276,-3.49,2021-12-17 16:25:29.656250
2277,-4.73,2021-12-17 16:25:29.671875
2278,-5.16,2021-12-17 16:25:29.687500
2279,-4.08,2021-12-17 16:25:29.703125
2280,-1.22,2021-12-17 16:25:29.718750
2281,3.2,2021-12-17 16:25:29.734375
2282,8.57,2021-12-17 16:25:29.750000
2283,14.08,2021-12-17 16:25:29.765625
2284,19.03,2021-12-17 16:25:29.781250
2285,22.89,2021-12-17 16:25:29.796875
2286,25.44,2021-12-17 16:25:29.812500
2287,26.7,2021-12-17 16:25:29.828125
2288,26.84,2021-12-17 16:25:29.843750
2289,26.11,2021-12-17 16:25:29.859375
2290,24.79,2021-12-17 16:25:29.875000
2291,23.1,2021-12-17 16:25:29.890625
2292,21.21,2021-12-17 16:25:29.906250
2293,19.22,2021-12-17 16:25:29.921875
2294,17.16,2021-12-17 16:25:29.937500
2295,15.06,2021-12-17 16:25:29.953125
2296,13.03,2021-12-17 16:25:29.968750
2297,11.2,2021-12-17 16:25:29.984375
2298,9.69,2021-12-17 16:25:30.000000
2299,8.53,2021-12-17 16:25:30.015625
2300,7.62,2021-12-17 16:25:30.031250
2301,6.8,2021-12-17 16:25:30.046875
2302,6.0,2021-12-17 16:25:30.062500
2303,5.23,2021-12-17 16:25:30.078125
2304,4.64,2021-12-17 16:25:30.093750
2305,4.38,2021-12-17 16:25:30.109375
2306,4.46,2021-12-17 16:25:30.125000
2307,4.75,2021-12-17 16:25:30.140625
2308,4.99,2021-12-17 16:25:30.156250
2309,5.01,2021-12-17 16:25:30.171875
2310,4.73,2021-12-17 16:25:30.187500
2311,4.24,2021-12-17 16:25:30.203125
2312,3.7,2021-12-17 16:25:30.218750
2313,3.21,2021-12-17 16:25:30.234375
2314,2.75,2021-12-17 16:25:30.250000
2315,2.19,2021-12-17 16:25:30.265625
2316,1.42,2021-12-17 16:25:30.281250
2317,0.45,2021-12-17 16:25:30.296875
2318,-0.59,2021-12-17 16:25:30.312500
2319,-1.48,2021-12-17 16:25:30.328125
2320,-2.09,2021-12-17 16:25:30.343750
2321,-2.4,2021-12-17 16:25:30.359375
2322,-2.62,2021-12-17 16:25:30.375000
2323,-3.06,2021-12-17 16:25:30.390625
2324,-4.07,2021-12-17 16:25:30.406250
2325,-5.87,2021-12-17 16:25:30.421875
2326,-8.5,2021-12-17 16:25:30.437500
2327,-11.78,2021-12-17 16:25:30.453125
2328,-15.32,2021-12-17 16:25:30.468750
2329,-18.63,2021-12-17 16:25:30.484375
2330,-21.19,2021-12-17 16:25:30.500000
2331,-22.59,2021-12-17 16:25:30.515625
2332,-22.6,2021-12-17 16:25:30.531250
2333,-21.24,2021-12-17 16:25:30.546875
2334,-18.7,2021-12-17 16:25:30.562500
2335,-15.33,2021-12-17 16:25:30.578125
2336,-11.5,2021-12-17 16:25:30.593750
2337,-7.59,2021-12-17 16:25:30.609375
2338,-4.0,2021-12-17 16:25:30.625000
2339,-1.07,2021-12-17 16:25:30.640625
2340,0.91,2021-12-17 16:25:30.656250
2341,1.8,2021-12-17 16:25:30.671875
2342,1.67,2021-12-17 16:25:30.687500
2343,0.85,2021-12-17 16:25:30.703125
2344,-0.2,2021-12-17 16:25:30.718750
2345,-1.04,2021-12-17 16:25:30.734375
2346,-1.4,2021-12-17 16:25:30.750000
2347,-1.28,2021-12-17 16:25:30.765625
2348,-0.86,2021-12-17 16:25:30.781250
2349,-0.37,2021-12-17 16:25:30.796875
2350,-0.02,2021-12-17 16:25:30.812500
2351,0.14,2021-12-17 16:25:30.828125
2352,0.15,2021-12-17 16:25:30.843750
2353,0.12,2021-12-17 16:25:30.859375
2354,0.18,2021-12-17 16:25:30.875000
2355,0.4,2021-12-17 16:25:30.890625
2356,0.83,2021-12-17 16:25:30.906250
2357,1.44,2021-12-17 16:25:30.921875
2358,2.12,2021-12-17 16:25:30.937500
2359,2.73,2021-12-17 16:25:30.953125
2360,3.13,2021-12-17 16:25:30.968750
2361,3.23,2021-12-17 16:25:30.984375
2362,3.03,2021-12-17 16:25:31.000000
2363,2.61,2021-12-17 16:25:31.015625
2364,2.07,2021-12-17 16:25:31.031250
2365,1.47,2021-12-17 16:25:31.046875
2366,0.86,2021-12-17 16:25:31.062500
2367,0.25,2021-12-17 16:25:31.078125
2368,-0.31,2021-12-17 16:25:31.093750
2369,-0.79,2021-12-17 16:25:31.109375
2370,-1.21,2021-12-17 16:25:31.125000
2371,-1.61,2021-12-17 16:25:31.140625
2372,-2.07,2021-12-17 16:25:31.156250
2373,-2.66,2021-12-17 16:25:31.171875
2374,-3.35,2021-12-17 16:25:31.187500
2375,-4.05,2021-12-17 16:25:31.203125
2376,-4.65,2021-12-17 16:25:31.218750
2377,-5.16,2021-12-17 16:25:31.234375
2378,-5.68,2021-12-17 16:25:31.250000
2379,-6.39,2021-12-17 16:25:31.265625
2380,-7.43,2021-12-17 16:25:31.281250
2381,-8.74,2021-12-17 16:25:31.296875
2382,-10.04,2021-12-17 16:25:31.312500
2383,-10.96,2021-12-17 16:25:31.328125
2384,-11.13,2021-12-17 16:25:31.343750
2385,-10.39,2021-12-17 16:25:31.359375
2386,-8.86,2021-12-17 16:25:31.375000
2387,-6.83,2021-12-17 16:25:31.390625
2388,-4.66,2021-12-17 16:25:31.406250
2389,-2.67,2021-12-17 16:25:31.421875
2390,-1.07,2021-12-17 16:25:31.437500
2391,0.07,2021-12-17 16:25:31.453125
2392,0.75,2021-12-17 16:25:31.468750
2393,1.05,2021-12-17 16:25:31.484375
2394,1.12,2021-12-17 16:25:31.500000
2395,1.14,2021-12-17 16:25:31.515625
2396,1.35,2021-12-17 16:25:31.531250
2397,1.94,2021-12-17 16:25:31.546875
2398,2.96,2021-12-17 16:25:31.562500
2399,4.25,2021-12-17 16:25:31.578125
2400,5.49,2021-12-17 16:25:31.593750
2401,6.31,2021-12-17 16:25:31.609375
2402,6.44,2021-12-17 16:25:31.625000
2403,5.92,2021-12-17 16:25:31.640625
2404,5.09,2021-12-17 16:25:31.656250
2405,4.51,2021-12-17 16:25:31.671875
2406,4.73,2021-12-17 16:25:31.687500
2407,5.98,2021-12-17 16:25:31.703125
2408,8.01,2021-12-17 16:25:31.718750
2409,10.16,2021-12-17 16:25:31.734375
2410,11.58,2021-12-17 16:25:31.750000
2411,11.6,2021-12-17 16:25:31.765625
2412,10.05,2021-12-17 16:25:31.781250
2413,7.25,2021-12-17 16:25:31.796875
2414,3.94,2021-12-17 16:25:31.812500
2415,0.91,2021-12-17 16:25:31.828125
2416,-1.31,2021-12-17 16:25:31.843750
2417,-2.59,2021-12-17 16:25:31.859375
2418,-3.17,2021-12-17 16:25:31.875000
2419,-3.48,2021-12-17 16:25:31.890625
2420,-3.91,2021-12-17 16:25:31.906250
2421,-4.61,2021-12-17 16:25:31.921875
2422,-5.49,2021-12-17 16:25:31.937500
2423,-6.3,2021-12-17 16:25:31.953125
2424,-6.74,2021-12-17 16:25:31.968750
2425,-6.66,2021-12-17 16:25:31.984375
2426,-6.05,2021-12-17 16:25:32.000000
2427,-5.13,2021-12-17 16:25:32.015625
2428,-4.17,2021-12-17 16:25:32.031250
2429,-3.39,2021-12-17 16:25:32.046875
2430,-2.85,2021-12-17 16:25:32.062500
2431,-2.43,2021-12-17 16:25:32.078125
2432,-1.89,2021-12-17 16:25:32.093750
2433,-1.0,2021-12-17 16:25:32.109375
2434,0.37,2021-12-17 16:25:32.125000
2435,2.23,2021-12-17 16:25:32.140625
2436,4.44,2021-12-17 16:25:32.156250
2437,6.77,2021-12-17 16:25:32.171875
2438,8.99,2021-12-17 16:25:32.187500
2439,10.92,2021-12-17 16:25:32.203125
2440,12.42,2021-12-17 16:25:32.218750
2441,13.47,2021-12-17 16:25:32.234375
2442,14.12,2021-12-17 16:25:32.250000
2443,14.42,2021-12-17 16:25:32.265625
2444,14.39,2021-12-17 16:25:32.281250
2445,13.97,2021-12-17 16:25:32.296875
2446,13.07,2021-12-17 16:25:32.312500
2447,11.66,2021-12-17 16:25:32.328125
2448,9.82,2021-12-17 16:25:32.343750
2449,7.74,2021-12-17 16:25:32.359375
2450,5.65,2021-12-17 16:25:32.375000
2451,3.72,2021-12-17 16:25:32.390625
2452,1.96,2021-12-17 16:25:32.406250
2453,0.3,2021-12-17 16:25:32.421875
2454,-1.36,2021-12-17 16:25:32.437500
2455,-3.0,2021-12-17 16:25:32.453125
2456,-4.5,2021-12-17 16:25:32.468750
2457,-5.64,2021-12-17 16:25:32.484375
2458,-6.3,2021-12-17 16:25:32.500000
2459,-6.55,2021-12-17 16:25:32.515625
2460,-6.59,2021-12-17 16:25:32.531250
2461,-6.69,2021-12-17 16:25:32.546875
2462,-7.01,2021-12-17 16:25:32.562500
2463,-7.52,2021-12-17 16:25:32.578125
2464,-8.06,2021-12-17 16:25:32.593750
2465,-8.39,2021-12-17 16:25:32.609375
2466,-8.37,2021-12-17 16:25:32.625000
2467,-8.05,2021-12-17 16:25:32.640625
2468,-7.59,2021-12-17 16:25:32.656250
2469,-7.22,2021-12-17 16:25:32.671875
2470,-7.09,2021-12-17 16:25:32.687500
2471,-7.21,2021-12-17 16:25:32.703125
2472,-7.47,2021-12-17 16:25:32.718750
2473,-7.71,2021-12-17 16:25:32.734375
2474,-7.78,2021-12-17 16:25:32.750000
2475,-7.65,2021-12-17 16:25:32.765625
2476,-7.43,2021-12-17 16:25:32.781250
2477,-7.28,2021-12-17 16:25:32.796875
2478,-7.41,2021-12-17 16:25:32.812500
2479,-7.98,2021-12-17 16:25:32.828125
2480,-9.04,2021-12-17 16:25:32.843750
2481,-10.48,2021-12-17 16:25:32.859375
2482,-12.05,2021-12-17 16:25:32.875000
2483,-13.43,2021-12-17 16:25:32.890625
2484,-14.23,2021-12-17 16:25:32.906250
2485,-14.18,2021-12-17 16:25:32.921875
2486,-13.14,2021-12-17 16:25:32.937500
2487,-11.24,2021-12-17 16:25:32.953125
2488,-8.76,2021-12-17 16:25:32.968750
2489,-6.13,2021-12-17 16:25:32.984375
2490,-3.73,2021-12-17 16:25:33.000000
2491,-1.75,2021-12-17 16:25:33.015625
2492,-0.16,2021-12-17 16:25:33.031250
2493,1.31,2021-12-17 16:25:33.046875
2494,2.98,2021-12-17 16:25:33.062500
2495,5.05,2021-12-17 16:25:33.078125
2496,7.48,2021-12-17 16:25:33.093750
2497,10.02,2021-12-17 16:25:33.109375
2498,12.26,2021-12-17 16:25:33.125000
2499,13.85,2021-12-17 16:25:33.140625
2500,14.64,2021-12-17 16:25:33.156250
2501,14.6,2021-12-17 16:25:33.171875
2502,13.9,2021-12-17 16:25:33.187500
2503,12.74,2021-12-17 16:25:33.203125
2504,11.33,2021-12-17 16:25:33.218750
2505,9.82,2021-12-17 16:25:33.234375
2506,8.38,2021-12-17 16:25:33.250000
2507,7.16,2021-12-17 16:25:33.265625
2508,6.29,2021-12-17 16:25:33.281250
2509,5.83,2021-12-17 16:25:33.296875
2510,5.79,2021-12-17 16:25:33.312500
2511,6.13,2021-12-17 16:25:33.328125
2512,6.79,2021-12-17 16:25:33.343750
2513,7.75,2021-12-17 16:25:33.359375
2514,9.0,2021-12-17 16:25:33.375000
2515,10.45,2021-12-17 16:25:33.390625
2516,11.95,2021-12-17 16:25:33.406250
2517,13.26,2021-12-17 16:25:33.421875
2518,14.14,2021-12-17 16:25:33.437500
2519,14.43,2021-12-17 16:25:33.453125
2520,14.17,2021-12-17 16:25:33.468750
2521,13.49,2021-12-17 16:25:33.484375
2522,12.62,2021-12-17 16:25:33.500000
2523,11.66,2021-12-17 16:25:33.515625
2524,10.62,2021-12-17 16:25:33.531250
2525,9.33,2021-12-17 16:25:33.546875
2526,7.59,2021-12-17 16:25:33.562500
2527,5.24,2021-12-17 16:25:33.578125
2528,2.25,2021-12-17 16:25:33.593750
2529,-1.23,2021-12-17 16:25:33.609375
2530,-4.97,2021-12-17 16:25:33.625000
2531,-8.68,2021-12-17 16:25:33.640625
2532,-12.11,2021-12-17 16:25:33.656250
2533,-15.11,2021-12-17 16:25:33.671875
2534,-17.61,2021-12-17 16:25:33.687500
2535,-19.63,2021-12-17 16:25:33.703125
2536,-21.21,2021-12-17 16:25:33.718750
2537,-22.44,2021-12-17 16:25:33.734375
2538,-23.33,2021-12-17 16:25:33.750000
2539,-23.93,2021-12-17 16:25:33.765625
2540,-24.26,2021-12-17 16:25:33.781250
2541,-24.41,2021-12-17 16:25:33.796875
2542,-24.51,2021-12-17 16:25:33.812500
2543,-24.63,2021-12-17 16:25:33.828125
2544,-24.74,2021-12-17 16:25:33.843750
2545,-24.67,2021-12-17 16:25:33.859375
2546,-24.11,2021-12-17 16:25:33.875000
2547,-22.79,2021-12-17 16:25:33.890625
2548,-20.55,2021-12-17 16:25:33.906250
2549,-17.47,2021-12-17 16:25:33.921875
2550,-13.83,2021-12-17 16:25:33.937500
2551,-10.0,2021-12-17 16:25:33.953125
2552,-6.3,2021-12-17 16:25:33.968750
2553,-2.91,2021-12-17 16:25:33.984375
2554,0.16,2021-12-17 16:25:34.000000
2555,2.99,2021-12-17 16:25:34.015625
2556,5.67,2021-12-17 16:25:34.031250
2557,8.24,2021-12-17 16:25:34.046875
2558,10.63,2021-12-17 16:25:34.062500
2559,12.73,2021-12-17 16:25:34.078125
2560,14.35,2021-12-17 16:25:34.093750
2561,15.37,2021-12-17 16:25:34.109375
2562,15.79,2021-12-17 16:25:34.125000
2563,15.74,2021-12-17 16:25:34.140625
2564,15.47,2021-12-17 16:25:34.156250
2565,15.25,2021-12-17 16:25:34.171875
2566,15.27,2021-12-17 16:25:34.187500
2567,15.58,2021-12-17 16:25:34.203125
2568,16.06,2021-12-17 16:25:34.218750
2569,16.53,2021-12-17 16:25:34.234375
2570,16.88,2021-12-17 16:25:34.250000
2571,17.07,2021-12-17 16:25:34.265625
2572,17.17,2021-12-17 16:25:34.281250
2573,17.26,2021-12-17 16:25:34.296875
2574,17.35,2021-12-17 16:25:34.312500
2575,17.32,2021-12-17 16:25:34.328125
2576,16.97,2021-12-17 16:25:34.343750
2577,16.14,2021-12-17 16:25:34.359375
2578,14.76,2021-12-17 16:25:34.375000
2579,12.96,2021-12-17 16:25:34.390625
2580,10.95,2021-12-17 16:25:34.406250
2581,8.98,2021-12-17 16:25:34.421875
2582,7.22,2021-12-17 16:25:34.437500
2583,5.72,2021-12-17 16:25:34.453125
2584,4.43,2021-12-17 16:25:34.468750
2585,3.32,2021-12-17 16:25:34.484375
2586,2.4,2021-12-17 16:25:34.500000
2587,1.75,2021-12-17 16:25:34.515625
2588,1.49,2021-12-17 16:25:34.531250
2589,1.67,2021-12-17 16:25:34.546875
2590,2.25,2021-12-17 16:25:34.562500
2591,3.07,2021-12-17 16:25:34.578125
2592,3.93,2021-12-17 16:25:34.593750
2593,4.62,2021-12-17 16:25:34.609375
2594,4.97,2021-12-17 16:25:34.625000
2595,4.89,2021-12-17 16:25:34.640625
2596,4.32,2021-12-17 16:25:34.656250
2597,3.24,2021-12-17 16:25:34.671875
2598,1.69,2021-12-17 16:25:34.687500
2599,-0.26,2021-12-17 16:25:34.703125
2600,-2.46,2021-12-17 16:25:34.718750
2601,-4.75,2021-12-17 16:25:34.734375
2602,-7.01,2021-12-17 16:25:34.750000
2603,-9.2,2021-12-17 16:25:34.765625
2604,-11.37,2021-12-17 16:25:34.781250
2605,-13.57,2021-12-17 16:25:34.796875
2606,-15.79,2021-12-17 16:25:34.812500
2607,-17.87,2021-12-17 16:25:34.828125
2608,-19.53,2021-12-17 16:25:34.843750
2609,-20.41,2021-12-17 16:25:34.859375
2610,-20.2,2021-12-17 16:25:34.875000
2611,-18.78,2021-12-17 16:25:34.890625
2612,-16.19,2021-12-17 16:25:34.906250
2613,-12.69,2021-12-17 16:25:34.921875
2614,-8.68,2021-12-17 16:25:34.937500
2615,-4.62,2021-12-17 16:25:34.953125
2616,-0.96,2021-12-17 16:25:34.968750
2617,1.97,2021-12-17 16:25:34.984375
2618,4.07,2021-12-17 16:25:35.000000
2619,5.45,2021-12-17 16:25:35.015625
2620,6.39,2021-12-17 16:25:35.031250
2621,7.21,2021-12-17 16:25:35.046875
2622,8.11,2021-12-17 16:25:35.062500
2623,9.07,2021-12-17 16:25:35.078125
2624,9.86,2021-12-17 16:25:35.093750
2625,10.25,2021-12-17 16:25:35.109375
2626,10.09,2021-12-17 16:25:35.125000
2627,9.45,2021-12-17 16:25:35.140625
2628,8.61,2021-12-17 16:25:35.156250
2629,7.87,2021-12-17 16:25:35.171875
2630,7.47,2021-12-17 16:25:35.187500
2631,7.47,2021-12-17 16:25:35.203125
2632,7.76,2021-12-17 16:25:35.218750
2633,8.14,2021-12-17 16:25:35.234375
2634,8.44,2021-12-17 16:25:35.250000
2635,8.56,2021-12-17 16:25:35.265625
2636,8.48,2021-12-17 16:25:35.281250
2637,8.27,2021-12-17 16:25:35.296875
2638,8.01,2021-12-17 16:25:35.312500
2639,7.78,2021-12-17 16:25:35.328125
2640,7.64,2021-12-17 16:25:35.343750
2641,7.61,2021-12-17 16:25:35.359375
2642,7.69,2021-12-17 16:25:35.375000
2643,7.77,2021-12-17 16:25:35.390625
2644,7.78,2021-12-17 16:25:35.406250
2645,7.58,2021-12-17 16:25:35.421875
2646,7.05,2021-12-17 16:25:35.437500
2647,6.13,2021-12-17 16:25:35.453125
2648,4.81,2021-12-17 16:25:35.468750
2649,3.13,2021-12-17 16:25:35.484375
2650,1.21,2021-12-17 16:25:35.500000
2651,-0.79,2021-12-17 16:25:35.515625
2652,-2.69,2021-12-17 16:25:35.531250
2653,-4.27,2021-12-17 16:25:35.546875
2654,-5.35,2021-12-17 16:25:35.562500
2655,-5.82,2021-12-17 16:25:35.578125
2656,-5.68,2021-12-17 16:25:35.593750
2657,-5.04,2021-12-17 16:25:35.609375
2658,-4.09,2021-12-17 16:25:35.625000
2659,-3.06,2021-12-17 16:25:35.640625
2660,-2.18,2021-12-17 16:25:35.656250
2661,-1.58,2021-12-17 16:25:35.671875
2662,-1.36,2021-12-17 16:25:35.687500
2663,-1.57,2021-12-17 16:25:35.703125
2664,-2.22,2021-12-17 16:25:35.718750
2665,-3.32,2021-12-17 16:25:35.734375
2666,-4.78,2021-12-17 16:25:35.750000
2667,-6.52,2021-12-17 16:25:35.765625
2668,-8.38,2021-12-17 16:25:35.781250
2669,-10.21,2021-12-17 16:25:35.796875
2670,-11.83,2021-12-17 16:25:35.812500
2671,-13.09,2021-12-17 16:25:35.828125
2672,-13.82,2021-12-17 16:25:35.843750
2673,-13.93,2021-12-17 16:25:35.859375
2674,-13.36,2021-12-17 16:25:35.875000
2675,-12.19,2021-12-17 16:25:35.890625
2676,-10.62,2021-12-17 16:25:35.906250
2677,-8.85,2021-12-17 16:25:35.921875
2678,-7.04,2021-12-17 16:25:35.937500
2679,-5.25,2021-12-17 16:25:35.953125
2680,-3.44,2021-12-17 16:25:35.968750
2681,-1.56,2021-12-17 16:25:35.984375
2682,0.36,2021-12-17 16:25:36.000000
2683,2.17,2021-12-17 16:25:36.015625
2684,3.68,2021-12-17 16:25:36.031250
2685,4.7,2021-12-17 16:25:36.046875
2686,5.21,2021-12-17 16:25:36.062500
2687,5.29,2021-12-17 16:25:36.078125
2688,5.13,2021-12-17 16:25:36.093750
2689,4.92,2021-12-17 16:25:36.109375
2690,4.78,2021-12-17 16:25:36.125000
2691,4.8,2021-12-17 16:25:36.140625
2692,5.03,2021-12-17 16:25:36.156250
2693,5.5,2021-12-17 16:25:36.171875
2694,6.19,2021-12-17 16:25:36.187500
2695,7.05,2021-12-17 16:25:36.203125
2696,7.95,2021-12-17 16:25:36.218750
2697,8.73,2021-12-17 16:25:36.234375
2698,9.27,2021-12-17 16:25:36.250000
2699,9.5,2021-12-17 16:25:36.265625
2700,9.46,2021-12-17 16:25:36.281250
2701,9.23,2021-12-17 16:25:36.296875
2702,8.91,2021-12-17 16:25:36.312500
2703,8.54,2021-12-17 16:25:36.328125
2704,8.15,2021-12-17 16:25:36.343750
2705,7.71,2021-12-17 16:25:36.359375
2706,7.2,2021-12-17 16:25:36.375000
2707,6.64,2021-12-17 16:25:36.390625
2708,6.02,2021-12-17 16:25:36.406250
2709,5.38,2021-12-17 16:25:36.421875
2710,4.69,2021-12-17 16:25:36.437500
2711,3.9,2021-12-17 16:25:36.453125
2712,2.97,2021-12-17 16:25:36.468750
2713,1.86,2021-12-17 16:25:36.484375
2714,0.56,2021-12-17 16:25:36.500000
2715,-0.88,2021-12-17 16:25:36.515625
2716,-2.36,2021-12-17 16:25:36.531250
2717,-3.77,2021-12-17 16:25:36.546875
2718,-5.03,2021-12-17 16:25:36.562500
2719,-6.13,2021-12-17 16:25:36.578125
2720,-7.09,2021-12-17 16:25:36.593750
2721,-8.01,2021-12-17 16:25:36.609375
2722,-8.95,2021-12-17 16:25:36.625000
2723,-9.96,2021-12-17 16:25:36.640625
2724,-11.06,2021-12-17 16:25:36.656250
2725,-12.23,2021-12-17 16:25:36.671875
2726,-13.48,2021-12-17 16:25:36.687500
2727,-14.81,2021-12-17 16:25:36.703125
2728,-16.21,2021-12-17 16:25:36.718750
2729,-17.57,2021-12-17 16:25:36.734375
2730,-18.7,2021-12-17 16:25:36.750000
2731,-19.31,2021-12-17 16:25:36.765625
2732,-19.13,2021-12-17 16:25:36.781250
2733,-18.07,2021-12-17 16:25:36.796875
2734,-16.18,2021-12-17 16:25:36.812500
2735,-13.76,2021-12-17 16:25:36.828125
2736,-11.17,2021-12-17 16:25:36.843750
2737,-8.69,2021-12-17 16:25:36.859375
2738,-6.5,2021-12-17 16:25:36.875000
2739,-4.62,2021-12-17 16:25:36.890625
2740,-2.98,2021-12-17 16:25:36.906250
2741,-1.49,2021-12-17 16:25:36.921875
2742,-0.12,2021-12-17 16:25:36.937500
2743,1.15,2021-12-17 16:25:36.953125
2744,2.29,2021-12-17 16:25:36.968750
2745,3.22,2021-12-17 16:25:36.984375
2746,3.88,2021-12-17 16:25:37.000000
2747,4.23,2021-12-17 16:25:37.015625
2748,4.31,2021-12-17 16:25:37.031250
2749,4.2,2021-12-17 16:25:37.046875
2750,4.09,2021-12-17 16:25:37.062500
2751,4.1,2021-12-17 16:25:37.078125
2752,4.32,2021-12-17 16:25:37.093750
2753,4.77,2021-12-17 16:25:37.109375
2754,5.4,2021-12-17 16:25:37.125000
2755,6.15,2021-12-17 16:25:37.140625
2756,6.96,2021-12-17 16:25:37.156250
2757,7.84,2021-12-17 16:25:37.171875
2758,8.77,2021-12-17 16:25:37.187500
2759,9.74,2021-12-17 16:25:37.203125
2760,10.67,2021-12-17 16:25:37.218750
2761,11.42,2021-12-17 16:25:37.234375
2762,11.79,2021-12-17 16:25:37.250000
2763,11.56,2021-12-17 16:25:37.265625
2764,10.56,2021-12-17 16:25:37.281250
2765,8.74,2021-12-17 16:25:37.296875
2766,6.27,2021-12-17 16:25:37.312500
2767,3.44,2021-12-17 16:25:37.328125
2768,0.66,2021-12-17 16:25:37.343750
2769,-1.75,2021-12-17 16:25:37.359375
2770,-3.56,2021-12-17 16:25:37.375000
2771,-4.72,2021-12-17 16:25:37.390625
2772,-5.3,2021-12-17 16:25:37.406250
2773,-5.4,2021-12-17 16:25:37.421875
2774,-5.14,2021-12-17 16:25:37.437500
2775,-4.68,2021-12-17 16:25:37.453125
2776,-4.19,2021-12-17 16:25:37.468750
2777,-3.86,2021-12-17 16:25:37.484375
2778,-3.82,2021-12-17 16:25:37.500000
2779,-4.15,2021-12-17 16:25:37.515625
2780,-4.78,2021-12-17 16:25:37.531250
2781,-5.6,2021-12-17 16:25:37.546875
2782,-6.47,2021-12-17 16:25:37.562500
2783,-7.31,2021-12-17 16:25:37.578125
2784,-8.19,2021-12-17 16:25:37.593750
2785,-9.25,2021-12-17 16:25:37.609375
2786,-10.63,2021-12-17 16:25:37.625000
2787,-12.41,2021-12-17 16:25:37.640625
2788,-14.52,2021-12-17 16:25:37.656250
2789,-16.71,2021-12-17 16:25:37.671875
2790,-18.61,2021-12-17 16:25:37.687500
2791,-19.85,2021-12-17 16:25:37.703125
2792,-20.14,2021-12-17 16:25:37.718750
2793,-19.35,2021-12-17 16:25:37.734375
2794,-17.55,2021-12-17 16:25:37.750000
2795,-14.97,2021-12-17 16:25:37.765625
2796,-11.93,2021-12-17 16:25:37.781250
2797,-8.7,2021-12-17 16:25:37.796875
2798,-5.51,2021-12-17 16:25:37.812500
2799,-2.49,2021-12-17 16:25:37.828125
2800,0.29,2021-12-17 16:25:37.843750
2801,2.81,2021-12-17 16:25:37.859375
2802,4.99,2021-12-17 16:25:37.875000
2803,6.77,2021-12-17 16:25:37.890625
2804,8.07,2021-12-17 16:25:37.906250
2805,8.88,2021-12-17 16:25:37.921875
2806,9.3,2021-12-17 16:25:37.937500
2807,9.5,2021-12-17 16:25:37.953125
2808,9.7,2021-12-17 16:25:37.968750
2809,10.05,2021-12-17 16:25:37.984375
2810,10.61,2021-12-17 16:25:38.000000
2811,11.35,2021-12-17 16:25:38.015625
2812,12.1,2021-12-17 16:25:38.031250
2813,12.72,2021-12-17 16:25:38.046875
2814,13.05,2021-12-17 16:25:38.062500
2815,13.01,2021-12-17 16:25:38.078125
2816,12.61,2021-12-17 16:25:38.093750
2817,11.94,2021-12-17 16:25:38.109375
2818,11.22,2021-12-17 16:25:38.125000
2819,10.64,2021-12-17 16:25:38.140625
2820,10.37,2021-12-17 16:25:38.156250
2821,10.47,2021-12-17 16:25:38.171875
2822,10.86,2021-12-17 16:25:38.187500
2823,11.3,2021-12-17 16:25:38.203125
2824,11.56,2021-12-17 16:25:38.218750
2825,11.41,2021-12-17 16:25:38.234375
2826,10.78,2021-12-17 16:25:38.250000
2827,9.71,2021-12-17 16:25:38.265625
2828,8.38,2021-12-17 16:25:38.281250
2829,7.01,2021-12-17 16:25:38.296875
2830,5.76,2021-12-17 16:25:38.312500
2831,4.76,2021-12-17 16:25:38.328125
2832,3.96,2021-12-17 16:25:38.343750
2833,3.24,2021-12-17 16:25:38.359375
2834,2.42,2021-12-17 16:25:38.375000
2835,1.31,2021-12-17 16:25:38.390625
2836,-0.18,2021-12-17 16:25:38.406250
2837,-2.01,2021-12-17 16:25:38.421875
2838,-4.04,2021-12-17 16:25:38.437500
2839,-6.04,2021-12-17 16:25:38.453125
2840,-7.75,2021-12-17 16:25:38.468750
2841,-9.02,2021-12-17 16:25:38.484375
2842,-9.82,2021-12-17 16:25:38.500000
2843,-10.34,2021-12-17 16:25:38.515625
2844,-10.88,2021-12-17 16:25:38.531250
2845,-11.81,2021-12-17 16:25:38.546875
2846,-13.32,2021-12-17 16:25:38.562500
2847,-15.36,2021-12-17 16:25:38.578125
2848,-17.54,2021-12-17 16:25:38.593750
2849,-19.31,2021-12-17 16:25:38.609375
2850,-20.16,2021-12-17 16:25:38.625000
2851,-19.81,2021-12-17 16:25:38.640625
2852,-18.33,2021-12-17 16:25:38.656250
2853,-16.08,2021-12-17 16:25:38.671875
2854,-13.51,2021-12-17 16:25:38.687500
2855,-10.92,2021-12-17 16:25:38.703125
2856,-8.41,2021-12-17 16:25:38.718750
2857,-5.85,2021-12-17 16:25:38.734375
2858,-3.09,2021-12-17 16:25:38.750000
2859,-0.11,2021-12-17 16:25:38.765625
2860,2.94,2021-12-17 16:25:38.781250
2861,5.75,2021-12-17 16:25:38.796875
2862,8.01,2021-12-17 16:25:38.812500
2863,9.56,2021-12-17 16:25:38.828125
2864,10.43,2021-12-17 16:25:38.843750
2865,10.83,2021-12-17 16:25:38.859375
2866,11.04,2021-12-17 16:25:38.875000
2867,11.3,2021-12-17 16:25:38.890625
2868,11.75,2021-12-17 16:25:38.906250
2869,12.42,2021-12-17 16:25:38.921875
2870,13.37,2021-12-17 16:25:38.937500
2871,14.62,2021-12-17 16:25:38.953125
2872,16.17,2021-12-17 16:25:38.968750
2873,17.94,2021-12-17 16:25:38.984375
2874,19.72,2021-12-17 16:25:39.000000
2875,21.2,2021-12-17 16:25:39.015625
2876,22.05,2021-12-17 16:25:39.031250
2877,22.1,2021-12-17 16:25:39.046875
2878,21.32,2021-12-17 16:25:39.062500
2879,19.91,2021-12-17 16:25:39.078125
2880,18.16,2021-12-17 16:25:39.093750
2881,16.3,2021-12-17 16:25:39.109375
2882,14.46,2021-12-17 16:25:39.125000
2883,12.67,2021-12-17 16:25:39.140625
2884,10.96,2021-12-17 16:25:39.156250
2885,9.41,2021-12-17 16:25:39.171875
2886,8.14,2021-12-17 16:25:39.187500
2887,7.26,2021-12-17 16:25:39.203125
2888,6.74,2021-12-17 16:25:39.218750
2889,6.36,2021-12-17 16:25:39.234375
2890,5.82,2021-12-17 16:25:39.250000
2891,4.87,2021-12-17 16:25:39.265625
2892,3.41,2021-12-17 16:25:39.281250
2893,1.58,2021-12-17 16:25:39.296875
2894,-0.35,2021-12-17 16:25:39.312500
2895,-2.08,2021-12-17 16:25:39.328125
2896,-3.51,2021-12-17 16:25:39.343750
2897,-4.69,2021-12-17 16:25:39.359375
2898,-5.83,2021-12-17 16:25:39.375000
2899,-7.14,2021-12-17 16:25:39.390625
2900,-8.74,2021-12-17 16:25:39.406250
2901,-10.61,2021-12-17 16:25:39.421875
2902,-12.61,2021-12-17 16:25:39.437500
2903,-14.57,2021-12-17 16:25:39.453125
2904,-16.28,2021-12-17 16:25:39.468750
2905,-17.58,2021-12-17 16:25:39.484375
2906,-18.3,2021-12-17 16:25:39.500000
2907,-18.3,2021-12-17 16:25:39.515625
2908,-17.49,2021-12-17 16:25:39.531250
2909,-15.85,2021-12-17 16:25:39.546875
2910,-13.46,2021-12-17 16:25:39.562500
2911,-10.51,2021-12-17 16:25:39.578125
2912,-7.27,2021-12-17 16:25:39.593750
2913,-3.99,2021-12-17 16:25:39.609375
2914,-0.91,2021-12-17 16:25:39.625000
2915,1.86,2021-12-17 16:25:39.640625
2916,4.25,2021-12-17 16:25:39.656250
2917,6.29,2021-12-17 16:25:39.671875
2918,7.94,2021-12-17 16:25:39.687500
2919,9.18,2021-12-17 16:25:39.703125
2920,9.93,2021-12-17 16:25:39.718750
2921,10.18,2021-12-17 16:25:39.734375
2922,9.99,2021-12-17 16:25:39.750000
2923,9.59,2021-12-17 16:25:39.765625
2924,9.26,2021-12-17 16:25:39.781250
2925,9.3,2021-12-17 16:25:39.796875
2926,9.89,2021-12-17 16:25:39.812500
2927,11.0,2021-12-17 16:25:39.828125
2928,12.4,2021-12-17 16:25:39.843750
2929,13.72,2021-12-17 16:25:39.859375
2930,14.6,2021-12-17 16:25:39.875000
2931,14.75,2021-12-17 16:25:39.890625
2932,14.05,2021-12-17 16:25:39.906250
2933,12.56,2021-12-17 16:25:39.921875
2934,10.47,2021-12-17 16:25:39.937500
2935,7.99,2021-12-17 16:25:39.953125
2936,5.33,2021-12-17 16:25:39.968750
2937,2.65,2021-12-17 16:25:39.984375
2938,0.05,2021-12-17 16:25:40.000000
2939,-2.4,2021-12-17 16:25:40.015625
2940,-4.66,2021-12-17 16:25:40.031250
2941,-6.66,2021-12-17 16:25:40.046875
2942,-8.32,2021-12-17 16:25:40.062500
2943,-9.55,2021-12-17 16:25:40.078125
2944,-10.28,2021-12-17 16:25:40.093750
2945,-10.52,2021-12-17 16:25:40.109375
2946,-10.42,2021-12-17 16:25:40.125000
2947,-10.21,2021-12-17 16:25:40.140625
2948,-10.19,2021-12-17 16:25:40.156250
2949,-10.6,2021-12-17 16:25:40.171875
2950,-11.6,2021-12-17 16:25:40.187500
2951,-13.17,2021-12-17 16:25:40.203125
2952,-15.19,2021-12-17 16:25:40.218750
2953,-17.42,2021-12-17 16:25:40.234375
2954,-19.62,2021-12-17 16:25:40.250000
2955,-21.47,2021-12-17 16:25:40.265625
2956,-22.7,2021-12-17 16:25:40.281250
2957,-23.08,2021-12-17 16:25:40.296875
2958,-22.52,2021-12-17 16:25:40.312500
2959,-21.1,2021-12-17 16:25:40.328125
2960,-19.03,2021-12-17 16:25:40.343750
2961,-16.56,2021-12-17 16:25:40.359375
2962,-13.92,2021-12-17 16:25:40.375000
2963,-11.19,2021-12-17 16:25:40.390625
2964,-8.39,2021-12-17 16:25:40.406250
2965,-5.53,2021-12-17 16:25:40.421875
2966,-2.7,2021-12-17 16:25:40.437500
2967,-0.11,2021-12-17 16:25:40.453125
2968,2.03,2021-12-17 16:25:40.468750
2969,3.63,2021-12-17 16:25:40.484375
2970,4.71,2021-12-17 16:25:40.500000
2971,5.45,2021-12-17 16:25:40.515625
2972,6.0,2021-12-17 16:25:40.531250
2973,6.51,2021-12-17 16:25:40.546875
2974,7.03,2021-12-17 16:25:40.562500
2975,7.53,2021-12-17 16:25:40.578125
2976,8.03,2021-12-17 16:25:40.593750
2977,8.55,2021-12-17 16:25:40.609375
2978,9.1,2021-12-17 16:25:40.625000
2979,9.64,2021-12-17 16:25:40.640625
2980,10.02,2021-12-17 16:25:40.656250
2981,10.05,2021-12-17 16:25:40.671875
2982,9.6,2021-12-17 16:25:40.687500
2983,8.64,2021-12-17 16:25:40.703125
2984,7.27,2021-12-17 16:25:40.718750
2985,5.67,2021-12-17 16:25:40.734375
2986,4.01,2021-12-17 16:25:40.750000
2987,2.4,2021-12-17 16:25:40.765625
2988,0.88,2021-12-17 16:25:40.781250
2989,-0.56,2021-12-17 16:25:40.796875
2990,-1.91,2021-12-17 16:25:40.812500
2991,-3.13,2021-12-17 16:25:40.828125
2992,-4.16,2021-12-17 16:25:40.843750
2993,-5.03,2021-12-17 16:25:40.859375
2994,-5.81,2021-12-17 16:25:40.875000
2995,-6.71,2021-12-17 16:25:40.890625
2996,-7.92,2021-12-17 16:25:40.906250
2997,-9.59,2021-12-17 16:25:40.921875
2998,-11.73,2021-12-17 16:25:40.937500
2999,-14.25,2021-12-17 16:25:40.953125
3000,-16.96,2021-12-17 16:25:40.968750
3001,-19.64,2021-12-17 16:25:40.984375
3002,-22.01,2021-12-17 16:25:41.000000
3003,-23.71,2021-12-17 16:25:41.015625
3004,-24.38,2021-12-17 16:25:41.031250
3005,-23.69,2021-12-17 16:25:41.046875
3006,-21.5,2021-12-17 16:25:41.062500
3007,-17.96,2021-12-17 16:25:41.078125
3008,-13.5,2021-12-17 16:25:41.093750
3009,-8.64,2021-12-17 16:25:41.109375
3010,-3.9,2021-12-17 16:25:41.125000
3011,0.37,2021-12-17 16:25:41.140625
3012,3.96,2021-12-17 16:25:41.156250
3013,6.78,2021-12-17 16:25:41.171875
3014,8.78,2021-12-17 16:25:41.187500
3015,10.05,2021-12-17 16:25:41.203125
3016,10.79,2021-12-17 16:25:41.218750
3017,11.38,2021-12-17 16:25:41.234375
3018,12.17,2021-12-17 16:25:41.250000
3019,13.38,2021-12-17 16:25:41.265625
3020,14.87,2021-12-17 16:25:41.281250
3021,16.21,2021-12-17 16:25:41.296875
3022,16.77,2021-12-17 16:25:41.312500
3023,15.99,2021-12-17 16:25:41.328125
3024,13.55,2021-12-17 16:25:41.343750
3025,9.5,2021-12-17 16:25:41.359375
3026,4.2,2021-12-17 16:25:41.375000
3027,-1.71,2021-12-17 16:25:41.390625
3028,-7.49,2021-12-17 16:25:41.406250
3029,-12.29,2021-12-17 16:25:41.421875
3030,-15.36,2021-12-17 16:25:41.437500
3031,-16.16,2021-12-17 16:25:41.453125
3032,-14.57,2021-12-17 16:25:41.468750
3033,-10.95,2021-12-17 16:25:41.484375
3034,-6.13,2021-12-17 16:25:41.500000
3035,-1.15,2021-12-17 16:25:41.515625
3036,2.95,2021-12-17 16:25:41.531250
3037,5.48,2021-12-17 16:25:41.546875
3038,6.21,2021-12-17 16:25:41.562500
3039,5.35,2021-12-17 16:25:41.578125
3040,3.39,2021-12-17 16:25:41.593750
3041,0.89,2021-12-17 16:25:41.609375
3042,-1.65,2021-12-17 16:25:41.625000
3043,-3.87,2021-12-17 16:25:41.640625
3044,-5.56,2021-12-17 16:25:41.656250
3045,-6.61,2021-12-17 16:25:41.671875
3046,-7.07,2021-12-17 16:25:41.687500
3047,-7.15,2021-12-17 16:25:41.703125
3048,-7.16,2021-12-17 16:25:41.718750
3049,-7.39,2021-12-17 16:25:41.734375
3050,-7.99,2021-12-17 16:25:41.750000
3051,-8.86,2021-12-17 16:25:41.765625
3052,-9.68,2021-12-17 16:25:41.781250
3053,-10.07,2021-12-17 16:25:41.796875
3054,-9.79,2021-12-17 16:25:41.812500
3055,-8.83,2021-12-17 16:25:41.828125
3056,-7.4,2021-12-17 16:25:41.843750
3057,-5.79,2021-12-17 16:25:41.859375
3058,-4.25,2021-12-17 16:25:41.875000
3059,-2.84,2021-12-17 16:25:41.890625
3060,-1.5,2021-12-17 16:25:41.906250
3061,-0.09,2021-12-17 16:25:41.921875
3062,1.54,2021-12-17 16:25:41.937500
3063,3.46,2021-12-17 16:25:41.953125
3064,5.68,2021-12-17 16:25:41.968750
3065,8.16,2021-12-17 16:25:41.984375
3066,10.78,2021-12-17 16:25:42.000000
3067,13.43,2021-12-17 16:25:42.015625
3068,16.01,2021-12-17 16:25:42.031250
3069,18.43,2021-12-17 16:25:42.046875
3070,20.63,2021-12-17 16:25:42.062500
3071,22.58,2021-12-17 16:25:42.078125
3072,24.22,2021-12-17 16:25:42.093750
3073,25.5,2021-12-17 16:25:42.109375
3074,26.4,2021-12-17 16:25:42.125000
3075,26.95,2021-12-17 16:25:42.140625
3076,27.22,2021-12-17 16:25:42.156250
3077,27.31,2021-12-17 16:25:42.171875
3078,27.29,2021-12-17 16:25:42.187500
3079,27.17,2021-12-17 16:25:42.203125
3080,26.91,2021-12-17 16:25:42.218750
3081,26.47,2021-12-17 16:25:42.234375
3082,25.82,2021-12-17 16:25:42.250000
3083,25.04,2021-12-17 16:25:42.265625
3084,24.22,2021-12-17 16:25:42.281250
3085,23.47,2021-12-17 16:25:42.296875
3086,22.83,2021-12-17 16:25:42.312500
3087,22.24,2021-12-17 16:25:42.328125
3088,21.58,2021-12-17 16:25:42.343750
3089,20.72,2021-12-17 16:25:42.359375
3090,19.62,2021-12-17 16:25:42.375000
3091,18.31,2021-12-17 16:25:42.390625
3092,16.89,2021-12-17 16:25:42.406250
3093,15.49,2021-12-17 16:25:42.421875
3094,14.21,2021-12-17 16:25:42.437500
3095,13.06,2021-12-17 16:25:42.453125
3096,11.97,2021-12-17 16:25:42.468750
3097,10.8,2021-12-17 16:25:42.484375
3098,9.4,2021-12-17 16:25:42.500000
3099,7.66,2021-12-17 16:25:42.515625
3100,5.51,2021-12-17 16:25:42.531250
3101,2.99,2021-12-17 16:25:42.546875
3102,0.23,2021-12-17 16:25:42.562500
3103,-2.57,2021-12-17 16:25:42.578125
3104,-5.2,2021-12-17 16:25:42.593750
3105,-7.49,2021-12-17 16:25:42.609375
3106,-9.42,2021-12-17 16:25:42.625000
3107,-11.14,2021-12-17 16:25:42.640625
3108,-12.92,2021-12-17 16:25:42.656250
3109,-15.04,2021-12-17 16:25:42.671875
3110,-17.69,2021-12-17 16:25:42.687500
3111,-20.95,2021-12-17 16:25:42.703125
3112,-24.76,2021-12-17 16:25:42.718750
3113,-28.89,2021-12-17 16:25:42.734375
3114,-33.05,2021-12-17 16:25:42.750000
3115,-36.82,2021-12-17 16:25:42.765625
3116,-39.73,2021-12-17 16:25:42.781250
3117,-41.35,2021-12-17 16:25:42.796875
3118,-41.37,2021-12-17 16:25:42.812500
3119,-39.7,2021-12-17 16:25:42.828125
3120,-36.53,2021-12-17 16:25:42.843750
3121,-32.24,2021-12-17 16:25:42.859375
3122,-27.3,2021-12-17 16:25:42.875000
3123,-22.15,2021-12-17 16:25:42.890625
3124,-17.08,2021-12-17 16:25:42.906250
3125,-12.21,2021-12-17 16:25:42.921875
3126,-7.54,2021-12-17 16:25:42.937500
3127,-2.99,2021-12-17 16:25:42.953125
3128,1.49,2021-12-17 16:25:42.968750
3129,5.91,2021-12-17 16:25:42.984375
3130,10.24,2021-12-17 16:25:43.000000
3131,14.47,2021-12-17 16:25:43.015625
3132,18.53,2021-12-17 16:25:43.031250
3133,22.34,2021-12-17 16:25:43.046875
3134,25.71,2021-12-17 16:25:43.062500
3135,28.44,2021-12-17 16:25:43.078125
3136,30.33,2021-12-17 16:25:43.093750
3137,31.32,2021-12-17 16:25:43.109375
3138,31.59,2021-12-17 16:25:43.125000
3139,31.47,2021-12-17 16:25:43.140625
3140,31.34,2021-12-17 16:25:43.156250
3141,31.45,2021-12-17 16:25:43.171875
3142,31.82,2021-12-17 16:25:43.187500
3143,32.27,2021-12-17 16:25:43.203125
3144,32.48,2021-12-17 16:25:43.218750
3145,32.2,2021-12-17 16:25:43.234375
3146,31.27,2021-12-17 16:25:43.250000
3147,29.73,2021-12-17 16:25:43.265625
3148,27.68,2021-12-17 16:25:43.281250
3149,25.29,2021-12-17 16:25:43.296875
3150,22.73,2021-12-17 16:25:43.312500
3151,20.14,2021-12-17 16:25:43.328125
3152,17.63,2021-12-17 16:25:43.343750
3153,15.27,2021-12-17 16:25:43.359375
3154,13.07,2021-12-17 16:25:43.375000
3155,11.03,2021-12-17 16:25:43.390625
3156,9.11,2021-12-17 16:25:43.406250
3157,7.26,2021-12-17 16:25:43.421875
3158,5.45,2021-12-17 16:25:43.437500
3159,3.67,2021-12-17 16:25:43.453125
3160,1.95,2021-12-17 16:25:43.468750
3161,0.37,2021-12-17 16:25:43.484375
3162,-0.96,2021-12-17 16:25:43.500000
3163,-1.94,2021-12-17 16:25:43.515625
3164,-2.57,2021-12-17 16:25:43.531250
3165,-2.97,2021-12-17 16:25:43.546875
3166,-3.38,2021-12-17 16:25:43.562500
3167,-4.11,2021-12-17 16:25:43.578125
3168,-5.39,2021-12-17 16:25:43.593750
3169,-7.3,2021-12-17 16:25:43.609375
3170,-9.71,2021-12-17 16:25:43.625000
3171,-12.36,2021-12-17 16:25:43.640625
3172,-14.99,2021-12-17 16:25:43.656250
3173,-17.39,2021-12-17 16:25:43.671875
3174,-19.5,2021-12-17 16:25:43.687500
3175,-21.35,2021-12-17 16:25:43.703125
3176,-23.03,2021-12-17 16:25:43.718750
3177,-24.69,2021-12-17 16:25:43.734375
3178,-26.5,2021-12-17 16:25:43.750000
3179,-28.63,2021-12-17 16:25:43.765625
3180,-31.16,2021-12-17 16:25:43.781250
3181,-34.05,2021-12-17 16:25:43.796875
3182,-37.02,2021-12-17 16:25:43.812500
3183,-39.62,2021-12-17 16:25:43.828125
