,BVP,time
0,41.03,2022-10-26 16:22:49.531250
1,4.55,2022-10-26 16:22:49.546875
2,-30.65,2022-10-26 16:22:49.562500
3,-56.68,2022-10-26 16:22:49.578125
4,-70.53,2022-10-26 16:22:49.593750
5,-73.45,2022-10-26 16:22:49.609375
6,-69.01,2022-10-26 16:22:49.625000
7,-59.87,2022-10-26 16:22:49.640625
8,-47.58,2022-10-26 16:22:49.656250
9,-33.4,2022-10-26 16:22:49.671875
10,-19.29,2022-10-26 16:22:49.687500
11,-8.89,2022-10-26 16:22:49.703125
12,-5.36,2022-10-26 16:22:49.718750
13,-9.96,2022-10-26 16:22:49.734375
14,-20.34,2022-10-26 16:22:49.750000
15,-31.69,2022-10-26 16:22:49.765625
16,-39.3,2022-10-26 16:22:49.781250
17,-40.82,2022-10-26 16:22:49.796875
18,-36.7,2022-10-26 16:22:49.812500
19,-29.44,2022-10-26 16:22:49.828125
20,-21.53,2022-10-26 16:22:49.843750
21,-14.63,2022-10-26 16:22:49.859375
22,-9.55,2022-10-26 16:22:49.875000
23,-6.74,2022-10-26 16:22:49.890625
24,-6.72,2022-10-26 16:22:49.906250
25,-9.78,2022-10-26 16:22:49.921875
26,-15.29,2022-10-26 16:22:49.937500
27,-21.33,2022-10-26 16:22:49.953125
28,-24.21,2022-10-26 16:22:49.968750
29,-19.87,2022-10-26 16:22:49.984375
30,-5.07,2022-10-26 16:22:50.000000
31,20.72,2022-10-26 16:22:50.015625
32,54.05,2022-10-26 16:22:50.031250
33,88.14,2022-10-26 16:22:50.046875
34,114.45,2022-10-26 16:22:50.062500
35,126.14,2022-10-26 16:22:50.078125
36,120.64,2022-10-26 16:22:50.093750
37,100.15,2022-10-26 16:22:50.109375
38,69.68,2022-10-26 16:22:50.125000
39,34.91,2022-10-26 16:22:50.140625
40,-0.05,2022-10-26 16:22:50.156250
41,-32.59,2022-10-26 16:22:50.171875
42,-60.22,2022-10-26 16:22:50.187500
43,-79.41,2022-10-26 16:22:50.203125
44,-86.43,2022-10-26 16:22:50.218750
45,-79.65,2022-10-26 16:22:50.234375
46,-62.01,2022-10-26 16:22:50.250000
47,-41.91,2022-10-26 16:22:50.265625
48,-30.18,2022-10-26 16:22:50.281250
49,-35.44,2022-10-26 16:22:50.296875
50,-59.46,2022-10-26 16:22:50.312500
51,-95.61,2022-10-26 16:22:50.328125
52,-131.44,2022-10-26 16:22:50.343750
53,-154.19,2022-10-26 16:22:50.359375
54,-155.04,2022-10-26 16:22:50.375000
55,-131.95,2022-10-26 16:22:50.390625
56,-89.63,2022-10-26 16:22:50.406250
57,-37.58,2022-10-26 16:22:50.421875
58,13.11,2022-10-26 16:22:50.437500
59,52.37,2022-10-26 16:22:50.453125
60,74.35,2022-10-26 16:22:50.468750
61,79.58,2022-10-26 16:22:50.484375
62,74.29,2022-10-26 16:22:50.500000
63,67.64,2022-10-26 16:22:50.515625
64,67.54,2022-10-26 16:22:50.531250
65,77.28,2022-10-26 16:22:50.546875
66,94.78,2022-10-26 16:22:50.562500
67,113.92,2022-10-26 16:22:50.578125
68,129.17,2022-10-26 16:22:50.593750
69,138.06,2022-10-26 16:22:50.609375
70,141.39,2022-10-26 16:22:50.625000
71,140.97,2022-10-26 16:22:50.640625
72,137.25,2022-10-26 16:22:50.656250
73,128.73,2022-10-26 16:22:50.671875
74,113.97,2022-10-26 16:22:50.687500
75,94.7,2022-10-26 16:22:50.703125
76,76.1,2022-10-26 16:22:50.718750
77,64.84,2022-10-26 16:22:50.734375
78,64.9,2022-10-26 16:22:50.750000
79,75.48,2022-10-26 16:22:50.765625
80,91.28,2022-10-26 16:22:50.781250
81,105.65,2022-10-26 16:22:50.796875
82,113.74,2022-10-26 16:22:50.812500
83,113.98,2022-10-26 16:22:50.828125
84,106.14,2022-10-26 16:22:50.843750
85,88.68,2022-10-26 16:22:50.859375
86,58.45,2022-10-26 16:22:50.875000
87,12.02,2022-10-26 16:22:50.890625
88,-50.15,2022-10-26 16:22:50.906250
89,-120.95,2022-10-26 16:22:50.921875
90,-186.9,2022-10-26 16:22:50.937500
91,-232.68,2022-10-26 16:22:50.953125
92,-248.54,2022-10-26 16:22:50.968750
93,-234.62,2022-10-26 16:22:50.984375
94,-201.52,2022-10-26 16:22:51.000000
95,-165.8,2022-10-26 16:22:51.015625
96,-142.62,2022-10-26 16:22:51.031250
97,-139.77,2022-10-26 16:22:51.046875
98,-154.9,2022-10-26 16:22:51.062500
99,-178.67,2022-10-26 16:22:51.078125
100,-199.06,2022-10-26 16:22:51.093750
101,-206.57,2022-10-26 16:22:51.109375
102,-196.58,2022-10-26 16:22:51.125000
103,-169.96,2022-10-26 16:22:51.140625
104,-131.26,2022-10-26 16:22:51.156250
105,-86.59,2022-10-26 16:22:51.171875
106,-42.27,2022-10-26 16:22:51.187500
107,-2.65,2022-10-26 16:22:51.203125
108,30.24,2022-10-26 16:22:51.218750
109,57.04,2022-10-26 16:22:51.234375
110,79.97,2022-10-26 16:22:51.250000
111,101.04,2022-10-26 16:22:51.265625
112,120.97,2022-10-26 16:22:51.281250
113,139.29,2022-10-26 16:22:51.296875
114,155.34,2022-10-26 16:22:51.312500
115,169.69,2022-10-26 16:22:51.328125
116,184.14,2022-10-26 16:22:51.343750
117,199.77,2022-10-26 16:22:51.359375
118,215.42,2022-10-26 16:22:51.375000
119,226.96,2022-10-26 16:22:51.390625
120,229.14,2022-10-26 16:22:51.406250
121,218.95,2022-10-26 16:22:51.421875
122,197.42,2022-10-26 16:22:51.437500
123,169.17,2022-10-26 16:22:51.453125
124,138.91,2022-10-26 16:22:51.468750
125,109.05,2022-10-26 16:22:51.484375
126,79.11,2022-10-26 16:22:51.500000
127,48.03,2022-10-26 16:22:51.515625
128,17.19,2022-10-26 16:22:51.531250
129,-8.64,2022-10-26 16:22:51.546875
130,-23.33,2022-10-26 16:22:51.562500
131,-23.85,2022-10-26 16:22:51.578125
132,-12.56,2022-10-26 16:22:51.593750
133,2.72,2022-10-26 16:22:51.609375
134,13.31,2022-10-26 16:22:51.625000
135,13.59,2022-10-26 16:22:51.640625
136,3.53,2022-10-26 16:22:51.656250
137,-12.37,2022-10-26 16:22:51.671875
138,-29.4,2022-10-26 16:22:51.687500
139,-45.31,2022-10-26 16:22:51.703125
140,-60.49,2022-10-26 16:22:51.718750
141,-75.54,2022-10-26 16:22:51.734375
142,-87.93,2022-10-26 16:22:51.750000
143,-91.66,2022-10-26 16:22:51.765625
144,-80.49,2022-10-26 16:22:51.781250
145,-52.01,2022-10-26 16:22:51.796875
146,-10.57,2022-10-26 16:22:51.812500
147,33.19,2022-10-26 16:22:51.828125
148,66.75,2022-10-26 16:22:51.843750
149,80.96,2022-10-26 16:22:51.859375
150,73.24,2022-10-26 16:22:51.875000
151,48.41,2022-10-26 16:22:51.890625
152,15.37,2022-10-26 16:22:51.906250
153,-15.62,2022-10-26 16:22:51.921875
154,-36.29,2022-10-26 16:22:51.937500
155,-41.87,2022-10-26 16:22:51.953125
156,-32.52,2022-10-26 16:22:51.968750
157,-12.89,2022-10-26 16:22:51.984375
158,8.78,2022-10-26 16:22:52.000000
159,22.74,2022-10-26 16:22:52.015625
160,21.03,2022-10-26 16:22:52.031250
161,0.92,2022-10-26 16:22:52.046875
162,-34.56,2022-10-26 16:22:52.062500
163,-78.0,2022-10-26 16:22:52.078125
164,-120.71,2022-10-26 16:22:52.093750
165,-156.2,2022-10-26 16:22:52.109375
166,-180.78,2022-10-26 16:22:52.125000
167,-193.47,2022-10-26 16:22:52.140625
168,-195.18,2022-10-26 16:22:52.156250
169,-188.09,2022-10-26 16:22:52.171875
170,-175.73,2022-10-26 16:22:52.187500
171,-163.19,2022-10-26 16:22:52.203125
172,-155.29,2022-10-26 16:22:52.218750
173,-154.74,2022-10-26 16:22:52.234375
174,-160.69,2022-10-26 16:22:52.250000
175,-167.89,2022-10-26 16:22:52.265625
176,-168.82,2022-10-26 16:22:52.281250
177,-156.37,2022-10-26 16:22:52.296875
178,-126.34,2022-10-26 16:22:52.312500
179,-79.26,2022-10-26 16:22:52.328125
180,-20.47,2022-10-26 16:22:52.343750
181,40.93,2022-10-26 16:22:52.359375
182,94.55,2022-10-26 16:22:52.375000
183,131.95,2022-10-26 16:22:52.390625
184,149.32,2022-10-26 16:22:52.406250
185,148.61,2022-10-26 16:22:52.421875
186,136.16,2022-10-26 16:22:52.437500
187,120.0,2022-10-26 16:22:52.453125
188,106.08,2022-10-26 16:22:52.468750
189,96.31,2022-10-26 16:22:52.484375
190,88.65,2022-10-26 16:22:52.500000
191,79.23,2022-10-26 16:22:52.515625
192,64.97,2022-10-26 16:22:52.531250
193,46.0,2022-10-26 16:22:52.546875
194,25.35,2022-10-26 16:22:52.562500
195,7.98,2022-10-26 16:22:52.578125
196,-0.53,2022-10-26 16:22:52.593750
197,3.58,2022-10-26 16:22:52.609375
198,20.89,2022-10-26 16:22:52.625000
199,47.98,2022-10-26 16:22:52.640625
200,77.21,2022-10-26 16:22:52.656250
201,98.91,2022-10-26 16:22:52.671875
202,105.39,2022-10-26 16:22:52.687500
203,93.73,2022-10-26 16:22:52.703125
204,68.27,2022-10-26 16:22:52.718750
205,38.27,2022-10-26 16:22:52.734375
206,13.52,2022-10-26 16:22:52.750000
207,-0.1,2022-10-26 16:22:52.765625
208,-3.43,2022-10-26 16:22:52.781250
209,-2.29,2022-10-26 16:22:52.796875
210,-3.98,2022-10-26 16:22:52.812500
211,-13.17,2022-10-26 16:22:52.828125
212,-29.53,2022-10-26 16:22:52.843750
213,-49.21,2022-10-26 16:22:52.859375
214,-67.23,2022-10-26 16:22:52.875000
215,-80.46,2022-10-26 16:22:52.890625
216,-87.94,2022-10-26 16:22:52.906250
217,-90.52,2022-10-26 16:22:52.921875
218,-89.43,2022-10-26 16:22:52.937500
219,-86.07,2022-10-26 16:22:52.953125
220,-82.43,2022-10-26 16:22:52.968750
221,-81.19,2022-10-26 16:22:52.984375
222,-84.89,2022-10-26 16:22:53.000000
223,-93.78,2022-10-26 16:22:53.015625
224,-104.97,2022-10-26 16:22:53.031250
225,-113.53,2022-10-26 16:22:53.046875
226,-114.57,2022-10-26 16:22:53.062500
227,-106.22,2022-10-26 16:22:53.078125
228,-89.7,2022-10-26 16:22:53.093750
229,-68.45,2022-10-26 16:22:53.109375
230,-45.98,2022-10-26 16:22:53.125000
231,-23.8,2022-10-26 16:22:53.140625
232,-2.62,2022-10-26 16:22:53.156250
233,16.28,2022-10-26 16:22:53.171875
234,30.66,2022-10-26 16:22:53.187500
235,37.75,2022-10-26 16:22:53.203125
236,36.67,2022-10-26 16:22:53.218750
237,29.51,2022-10-26 16:22:53.234375
238,20.69,2022-10-26 16:22:53.250000
239,14.5,2022-10-26 16:22:53.265625
240,12.48,2022-10-26 16:22:53.281250
241,13.1,2022-10-26 16:22:53.296875
242,13.48,2022-10-26 16:22:53.312500
243,11.97,2022-10-26 16:22:53.328125
244,9.64,2022-10-26 16:22:53.343750
245,9.31,2022-10-26 16:22:53.359375
246,14.07,2022-10-26 16:22:53.375000
247,25.9,2022-10-26 16:22:53.390625
248,45.5,2022-10-26 16:22:53.406250
249,72.76,2022-10-26 16:22:53.421875
250,106.08,2022-10-26 16:22:53.437500
251,142.02,2022-10-26 16:22:53.453125
252,174.47,2022-10-26 16:22:53.468750
253,195.46,2022-10-26 16:22:53.484375
254,198.29,2022-10-26 16:22:53.500000
255,181.02,2022-10-26 16:22:53.515625
256,148.39,2022-10-26 16:22:53.531250
257,110.27,2022-10-26 16:22:53.546875
258,77.39,2022-10-26 16:22:53.562500
259,56.23,2022-10-26 16:22:53.578125
260,47.11,2022-10-26 16:22:53.593750
261,45.03,2022-10-26 16:22:53.609375
262,43.4,2022-10-26 16:22:53.625000
263,37.92,2022-10-26 16:22:53.640625
264,27.51,2022-10-26 16:22:53.656250
265,13.13,2022-10-26 16:22:53.671875
266,-3.87,2022-10-26 16:22:53.687500
267,-22.73,2022-10-26 16:22:53.703125
268,-42.5,2022-10-26 16:22:53.718750
269,-61.45,2022-10-26 16:22:53.734375
270,-77.1,2022-10-26 16:22:53.750000
271,-88.12,2022-10-26 16:22:53.765625
272,-94.95,2022-10-26 16:22:53.781250
273,-99.94,2022-10-26 16:22:53.796875
274,-105.44,2022-10-26 16:22:53.812500
275,-110.8,2022-10-26 16:22:53.828125
276,-112.15,2022-10-26 16:22:53.843750
277,-104.63,2022-10-26 16:22:53.859375
278,-85.62,2022-10-26 16:22:53.875000
279,-57.27,2022-10-26 16:22:53.890625
280,-26.63,2022-10-26 16:22:53.906250
281,-1.85,2022-10-26 16:22:53.921875
282,11.3,2022-10-26 16:22:53.937500
283,11.39,2022-10-26 16:22:53.953125
284,0.75,2022-10-26 16:22:53.968750
285,-17.87,2022-10-26 16:22:53.984375
286,-42.85,2022-10-26 16:22:54.000000
287,-73.46,2022-10-26 16:22:54.015625
288,-108.32,2022-10-26 16:22:54.031250
289,-142.73,2022-10-26 16:22:54.046875
290,-169.26,2022-10-26 16:22:54.062500
291,-180.0,2022-10-26 16:22:54.078125
292,-170.01,2022-10-26 16:22:54.093750
293,-139.86,2022-10-26 16:22:54.109375
294,-96.02,2022-10-26 16:22:54.125000
295,-48.2,2022-10-26 16:22:54.140625
296,-5.68,2022-10-26 16:22:54.156250
297,25.88,2022-10-26 16:22:54.171875
298,45.43,2022-10-26 16:22:54.187500
299,55.06,2022-10-26 16:22:54.203125
300,58.25,2022-10-26 16:22:54.218750
301,57.19,2022-10-26 16:22:54.234375
302,52.95,2022-10-26 16:22:54.250000
303,46.26,2022-10-26 16:22:54.265625
304,39.75,2022-10-26 16:22:54.281250
305,37.89,2022-10-26 16:22:54.296875
306,45.34,2022-10-26 16:22:54.312500
307,64.54,2022-10-26 16:22:54.328125
308,93.13,2022-10-26 16:22:54.343750
309,124.06,2022-10-26 16:22:54.359375
310,148.78,2022-10-26 16:22:54.375000
311,161.55,2022-10-26 16:22:54.390625
312,162.21,2022-10-26 16:22:54.406250
313,155.82,2022-10-26 16:22:54.421875
314,148.65,2022-10-26 16:22:54.437500
315,143.19,2022-10-26 16:22:54.453125
316,136.43,2022-10-26 16:22:54.468750
317,121.83,2022-10-26 16:22:54.484375
318,94.15,2022-10-26 16:22:54.500000
319,54.2,2022-10-26 16:22:54.515625
320,9.34,2022-10-26 16:22:54.531250
321,-29.45,2022-10-26 16:22:54.546875
322,-52.47,2022-10-26 16:22:54.562500
323,-55.35,2022-10-26 16:22:54.578125
324,-40.66,2022-10-26 16:22:54.593750
325,-16.18,2022-10-26 16:22:54.609375
326,7.87,2022-10-26 16:22:54.625000
327,22.41,2022-10-26 16:22:54.640625
328,22.4,2022-10-26 16:22:54.656250
329,8.94,2022-10-26 16:22:54.671875
330,-10.38,2022-10-26 16:22:54.687500
331,-24.75,2022-10-26 16:22:54.703125
332,-24.46,2022-10-26 16:22:54.718750
333,-5.68,2022-10-26 16:22:54.734375
334,26.96,2022-10-26 16:22:54.750000
335,63.1,2022-10-26 16:22:54.765625
336,92.19,2022-10-26 16:22:54.781250
337,108.96,2022-10-26 16:22:54.796875
338,115.57,2022-10-26 16:22:54.812500
339,118.52,2022-10-26 16:22:54.828125
340,123.41,2022-10-26 16:22:54.843750
341,131.06,2022-10-26 16:22:54.859375
342,137.92,2022-10-26 16:22:54.875000
343,139.63,2022-10-26 16:22:54.890625
344,135.14,2022-10-26 16:22:54.906250
345,127.14,2022-10-26 16:22:54.921875
346,119.02,2022-10-26 16:22:54.937500
347,111.96,2022-10-26 16:22:54.953125
348,102.88,2022-10-26 16:22:54.968750
349,86.71,2022-10-26 16:22:54.984375
350,59.93,2022-10-26 16:22:55.000000
351,23.36,2022-10-26 16:22:55.015625
352,-17.96,2022-10-26 16:22:55.031250
353,-57.96,2022-10-26 16:22:55.046875
354,-92.91,2022-10-26 16:22:55.062500
355,-122.85,2022-10-26 16:22:55.078125
356,-150.29,2022-10-26 16:22:55.093750
357,-177.43,2022-10-26 16:22:55.109375
358,-203.01,2022-10-26 16:22:55.125000
359,-222.37,2022-10-26 16:22:55.140625
360,-230.24,2022-10-26 16:22:55.156250
361,-224.62,2022-10-26 16:22:55.171875
362,-208.38,2022-10-26 16:22:55.187500
363,-187.84,2022-10-26 16:22:55.203125
364,-169.22,2022-10-26 16:22:55.218750
365,-154.53,2022-10-26 16:22:55.234375
366,-140.83,2022-10-26 16:22:55.250000
367,-122.31,2022-10-26 16:22:55.265625
368,-95.01,2022-10-26 16:22:55.281250
369,-60.89,2022-10-26 16:22:55.296875
370,-27.75,2022-10-26 16:22:55.312500
371,-6.29,2022-10-26 16:22:55.328125
372,-4.85,2022-10-26 16:22:55.343750
373,-24.84,2022-10-26 16:22:55.359375
374,-60.14,2022-10-26 16:22:55.375000
375,-99.95,2022-10-26 16:22:55.390625
376,-133.41,2022-10-26 16:22:55.406250
377,-153.37,2022-10-26 16:22:55.421875
378,-158.36,2022-10-26 16:22:55.437500
379,-150.25,2022-10-26 16:22:55.453125
380,-131.42,2022-10-26 16:22:55.468750
381,-102.8,2022-10-26 16:22:55.484375
382,-64.24,2022-10-26 16:22:55.500000
383,-16.98,2022-10-26 16:22:55.515625
384,33.87,2022-10-26 16:22:55.531250
385,78.81,2022-10-26 16:22:55.546875
386,106.71,2022-10-26 16:22:55.562500
387,109.73,2022-10-26 16:22:55.578125
388,88.24,2022-10-26 16:22:55.593750
389,51.69,2022-10-26 16:22:55.609375
390,14.84,2022-10-26 16:22:55.625000
391,-8.89,2022-10-26 16:22:55.640625
392,-13.59,2022-10-26 16:22:55.656250
393,-2.14,2022-10-26 16:22:55.671875
394,16.32,2022-10-26 16:22:55.687500
395,32.9,2022-10-26 16:22:55.703125
396,42.73,2022-10-26 16:22:55.718750
397,45.42,2022-10-26 16:22:55.734375
398,42.96,2022-10-26 16:22:55.750000
399,36.64,2022-10-26 16:22:55.765625
400,27.3,2022-10-26 16:22:55.781250
401,16.25,2022-10-26 16:22:55.796875
402,7.12,2022-10-26 16:22:55.812500
403,5.26,2022-10-26 16:22:55.828125
404,14.93,2022-10-26 16:22:55.843750
405,35.87,2022-10-26 16:22:55.859375
406,62.07,2022-10-26 16:22:55.875000
407,84.4,2022-10-26 16:22:55.890625
408,94.53,2022-10-26 16:22:55.906250
409,89.94,2022-10-26 16:22:55.921875
410,74.34,2022-10-26 16:22:55.937500
411,55.96,2022-10-26 16:22:55.953125
412,43.24,2022-10-26 16:22:55.968750
413,41.27,2022-10-26 16:22:55.984375
414,49.84,2022-10-26 16:22:56.000000
415,64.3,2022-10-26 16:22:56.015625
416,77.67,2022-10-26 16:22:56.031250
417,83.66,2022-10-26 16:22:56.046875
418,79.61,2022-10-26 16:22:56.062500
419,66.63,2022-10-26 16:22:56.078125
420,48.65,2022-10-26 16:22:56.093750
421,29.96,2022-10-26 16:22:56.109375
422,12.28,2022-10-26 16:22:56.125000
423,-5.93,2022-10-26 16:22:56.140625
424,-27.78,2022-10-26 16:22:56.156250
425,-54.17,2022-10-26 16:22:56.171875
426,-82.04,2022-10-26 16:22:56.187500
427,-103.65,2022-10-26 16:22:56.203125
428,-110.29,2022-10-26 16:22:56.218750
429,-96.74,2022-10-26 16:22:56.234375
430,-64.02,2022-10-26 16:22:56.250000
431,-20.33,2022-10-26 16:22:56.265625
432,22.01,2022-10-26 16:22:56.281250
433,51.38,2022-10-26 16:22:56.296875
434,60.67,2022-10-26 16:22:56.312500
435,49.31,2022-10-26 16:22:56.328125
436,22.84,2022-10-26 16:22:56.343750
437,-10.34,2022-10-26 16:22:56.359375
438,-41.74,2022-10-26 16:22:56.375000
439,-65.17,2022-10-26 16:22:56.390625
440,-77.65,2022-10-26 16:22:56.406250
441,-78.88,2022-10-26 16:22:56.421875
442,-70.44,2022-10-26 16:22:56.437500
443,-54.41,2022-10-26 16:22:56.453125
444,-32.44,2022-10-26 16:22:56.468750
445,-5.51,2022-10-26 16:22:56.484375
446,24.67,2022-10-26 16:22:56.500000
447,55.68,2022-10-26 16:22:56.515625
448,83.82,2022-10-26 16:22:56.531250
449,105.64,2022-10-26 16:22:56.546875
450,119.99,2022-10-26 16:22:56.562500
451,128.15,2022-10-26 16:22:56.578125
452,132.89,2022-10-26 16:22:56.593750
453,136.01,2022-10-26 16:22:56.609375
454,136.14,2022-10-26 16:22:56.625000
455,128.54,2022-10-26 16:22:56.640625
456,107.7,2022-10-26 16:22:56.656250
457,71.65,2022-10-26 16:22:56.671875
458,24.71,2022-10-26 16:22:56.687500
459,-22.38,2022-10-26 16:22:56.703125
460,-57.55,2022-10-26 16:22:56.718750
461,-73.69,2022-10-26 16:22:56.734375
462,-72.94,2022-10-26 16:22:56.750000
463,-65.22,2022-10-26 16:22:56.765625
464,-62.58,2022-10-26 16:22:56.781250
465,-71.48,2022-10-26 16:22:56.796875
466,-89.26,2022-10-26 16:22:56.812500
467,-106.1,2022-10-26 16:22:56.828125
468,-111.24,2022-10-26 16:22:56.843750
469,-99.51,2022-10-26 16:22:56.859375
470,-73.68,2022-10-26 16:22:56.875000
471,-42.6,2022-10-26 16:22:56.890625
472,-15.94,2022-10-26 16:22:56.906250
473,0.08,2022-10-26 16:22:56.921875
474,4.42,2022-10-26 16:22:56.937500
475,0.4,2022-10-26 16:22:56.953125
476,-7.46,2022-10-26 16:22:56.968750
477,-15.85,2022-10-26 16:22:56.984375
478,-23.96,2022-10-26 16:22:57.000000
479,-31.96,2022-10-26 16:22:57.015625
480,-39.7,2022-10-26 16:22:57.031250
481,-45.27,2022-10-26 16:22:57.046875
482,-44.98,2022-10-26 16:22:57.062500
483,-35.16,2022-10-26 16:22:57.078125
484,-15.03,2022-10-26 16:22:57.093750
485,12.14,2022-10-26 16:22:57.109375
486,39.39,2022-10-26 16:22:57.125000
487,58.59,2022-10-26 16:22:57.140625
488,64.73,2022-10-26 16:22:57.156250
489,58.02,2022-10-26 16:22:57.171875
490,44.37,2022-10-26 16:22:57.187500
491,32.57,2022-10-26 16:22:57.203125
492,29.61,2022-10-26 16:22:57.218750
493,37.45,2022-10-26 16:22:57.234375
494,51.68,2022-10-26 16:22:57.250000
495,64.28,2022-10-26 16:22:57.265625
496,67.65,2022-10-26 16:22:57.281250
497,57.97,2022-10-26 16:22:57.296875
498,36.39,2022-10-26 16:22:57.312500
499,8.01,2022-10-26 16:22:57.328125
500,-20.11,2022-10-26 16:22:57.343750
501,-40.91,2022-10-26 16:22:57.359375
502,-49.02,2022-10-26 16:22:57.375000
503,-42.01,2022-10-26 16:22:57.390625
504,-21.48,2022-10-26 16:22:57.406250
505,6.77,2022-10-26 16:22:57.421875
506,33.79,2022-10-26 16:22:57.437500
507,51.19,2022-10-26 16:22:57.453125
508,55.18,2022-10-26 16:22:57.468750
509,48.5,2022-10-26 16:22:57.484375
510,38.98,2022-10-26 16:22:57.500000
511,35.16,2022-10-26 16:22:57.515625
512,40.22,2022-10-26 16:22:57.531250
513,49.36,2022-10-26 16:22:57.546875
514,52.87,2022-10-26 16:22:57.562500
515,43.24,2022-10-26 16:22:57.578125
516,21.0,2022-10-26 16:22:57.593750
517,-3.76,2022-10-26 16:22:57.609375
518,-17.18,2022-10-26 16:22:57.625000
519,-10.54,2022-10-26 16:22:57.640625
520,14.13,2022-10-26 16:22:57.656250
521,44.2,2022-10-26 16:22:57.671875
522,64.01,2022-10-26 16:22:57.687500
523,62.66,2022-10-26 16:22:57.703125
524,39.19,2022-10-26 16:22:57.718750
525,1.83,2022-10-26 16:22:57.734375
526,-37.13,2022-10-26 16:22:57.750000
527,-66.86,2022-10-26 16:22:57.765625
528,-81.31,2022-10-26 16:22:57.781250
529,-79.13,2022-10-26 16:22:57.796875
530,-62.24,2022-10-26 16:22:57.812500
531,-34.18,2022-10-26 16:22:57.828125
532,-0.16,2022-10-26 16:22:57.843750
533,33.37,2022-10-26 16:22:57.859375
534,59.34,2022-10-26 16:22:57.875000
535,71.71,2022-10-26 16:22:57.890625
536,68.2,2022-10-26 16:22:57.906250
537,51.51,2022-10-26 16:22:57.921875
538,29.41,2022-10-26 16:22:57.937500
539,12.06,2022-10-26 16:22:57.953125
540,8.58,2022-10-26 16:22:57.968750
541,22.8,2022-10-26 16:22:57.984375
542,51.43,2022-10-26 16:22:58.000000
543,85.2,2022-10-26 16:22:58.015625
544,112.61,2022-10-26 16:22:58.031250
545,124.85,2022-10-26 16:22:58.046875
546,119.75,2022-10-26 16:22:58.062500
547,102.73,2022-10-26 16:22:58.078125
548,83.56,2022-10-26 16:22:58.093750
549,71.81,2022-10-26 16:22:58.109375
550,72.97,2022-10-26 16:22:58.125000
551,87.5,2022-10-26 16:22:58.140625
552,112.57,2022-10-26 16:22:58.156250
553,144.69,2022-10-26 16:22:58.171875
554,181.14,2022-10-26 16:22:58.187500
555,219.47,2022-10-26 16:22:58.203125
556,255.52,2022-10-26 16:22:58.218750
557,282.38,2022-10-26 16:22:58.234375
558,291.8,2022-10-26 16:22:58.250000
559,277.46,2022-10-26 16:22:58.265625
560,238.19,2022-10-26 16:22:58.281250
561,179.72,2022-10-26 16:22:58.296875
562,112.92,2022-10-26 16:22:58.312500
563,50.48,2022-10-26 16:22:58.328125
564,2.68,2022-10-26 16:22:58.343750
565,-25.24,2022-10-26 16:22:58.359375
566,-33.27,2022-10-26 16:22:58.375000
567,-25.52,2022-10-26 16:22:58.390625
568,-8.08,2022-10-26 16:22:58.406250
569,12.43,2022-10-26 16:22:58.421875
570,30.14,2022-10-26 16:22:58.437500
571,40.62,2022-10-26 16:22:58.453125
572,41.76,2022-10-26 16:22:58.468750
573,33.65,2022-10-26 16:22:58.484375
574,17.74,2022-10-26 16:22:58.500000
575,-4.15,2022-10-26 16:22:58.515625
576,-31.07,2022-10-26 16:22:58.531250
577,-63.4,2022-10-26 16:22:58.546875
578,-102.56,2022-10-26 16:22:58.562500
579,-149.41,2022-10-26 16:22:58.578125
580,-202.4,2022-10-26 16:22:58.593750
581,-257.02,2022-10-26 16:22:58.609375
582,-306.24,2022-10-26 16:22:58.625000
583,-342.78,2022-10-26 16:22:58.640625
584,-361.87,2022-10-26 16:22:58.656250
585,-362.25,2022-10-26 16:22:58.671875
586,-346.26,2022-10-26 16:22:58.687500
587,-317.32,2022-10-26 16:22:58.703125
588,-278.4,2022-10-26 16:22:58.718750
589,-231.33,2022-10-26 16:22:58.734375
590,-177.15,2022-10-26 16:22:58.750000
591,-117.38,2022-10-26 16:22:58.765625
592,-54.37,2022-10-26 16:22:58.781250
593,9.34,2022-10-26 16:22:58.796875
594,72.07,2022-10-26 16:22:58.812500
595,132.96,2022-10-26 16:22:58.828125
596,191.42,2022-10-26 16:22:58.843750
597,245.12,2022-10-26 16:22:58.859375
598,289.77,2022-10-26 16:22:58.875000
599,319.75,2022-10-26 16:22:58.890625
600,330.31,2022-10-26 16:22:58.906250
601,319.52,2022-10-26 16:22:58.921875
602,288.85,2022-10-26 16:22:58.937500
603,242.23,2022-10-26 16:22:58.953125
604,184.61,2022-10-26 16:22:58.968750
605,121.26,2022-10-26 16:22:58.984375
606,57.38,2022-10-26 16:22:59.000000
607,-0.96,2022-10-26 16:22:59.015625
608,-47.11,2022-10-26 16:22:59.031250
609,-74.86,2022-10-26 16:22:59.046875
610,-80.73,2022-10-26 16:22:59.062500
611,-65.95,2022-10-26 16:22:59.078125
612,-36.96,2022-10-26 16:22:59.093750
613,-4.61,2022-10-26 16:22:59.109375
614,19.44,2022-10-26 16:22:59.125000
615,25.98,2022-10-26 16:22:59.140625
616,10.82,2022-10-26 16:22:59.156250
617,-24.39,2022-10-26 16:22:59.171875
618,-74.38,2022-10-26 16:22:59.187500
619,-133.2,2022-10-26 16:22:59.203125
620,-197.43,2022-10-26 16:22:59.218750
621,-266.78,2022-10-26 16:22:59.234375
622,-342.36,2022-10-26 16:22:59.250000
623,-423.36,2022-10-26 16:22:59.265625
624,-504.43,2022-10-26 16:22:59.281250
625,-575.84,2022-10-26 16:22:59.296875
626,-626.59,2022-10-26 16:22:59.312500
627,-649.19,2022-10-26 16:22:59.328125
628,-642.71,2022-10-26 16:22:59.343750
629,-613.41,2022-10-26 16:22:59.359375
630,-571.44,2022-10-26 16:22:59.375000
631,-526.92,2022-10-26 16:22:59.390625
632,-486.1,2022-10-26 16:22:59.406250
633,-450.28,2022-10-26 16:22:59.421875
634,-417.48,2022-10-26 16:22:59.437500
635,-385.04,2022-10-26 16:22:59.453125
636,-351.53,2022-10-26 16:22:59.468750
637,-317.37,2022-10-26 16:22:59.484375
638,-283.8,2022-10-26 16:22:59.500000
639,-251.35,2022-10-26 16:22:59.515625
640,-219.12,2022-10-26 16:22:59.531250
641,-185.07,2022-10-26 16:22:59.546875
642,-146.86,2022-10-26 16:22:59.562500
643,-103.11,2022-10-26 16:22:59.578125
644,-54.07,2022-10-26 16:22:59.593750
645,-1.6,2022-10-26 16:22:59.609375
646,51.7,2022-10-26 16:22:59.625000
647,103.68,2022-10-26 16:22:59.640625
648,153.84,2022-10-26 16:22:59.656250
649,202.93,2022-10-26 16:22:59.671875
650,252.2,2022-10-26 16:22:59.687500
651,301.64,2022-10-26 16:22:59.703125
652,348.8,2022-10-26 16:22:59.718750
653,389.2,2022-10-26 16:22:59.734375
654,418.66,2022-10-26 16:22:59.750000
655,435.78,2022-10-26 16:22:59.765625
656,442.97,2022-10-26 16:22:59.781250
657,445.95,2022-10-26 16:22:59.796875
658,451.18,2022-10-26 16:22:59.812500
659,463.69,2022-10-26 16:22:59.828125
660,485.28,2022-10-26 16:22:59.843750
661,514.89,2022-10-26 16:22:59.859375
662,549.18,2022-10-26 16:22:59.875000
663,583.59,2022-10-26 16:22:59.890625
664,613.44,2022-10-26 16:22:59.906250
665,634.61,2022-10-26 16:22:59.921875
666,644.41,2022-10-26 16:22:59.937500
667,641.94,2022-10-26 16:22:59.953125
668,628.71,2022-10-26 16:22:59.968750
669,607.93,2022-10-26 16:22:59.984375
670,583.59,2022-10-26 16:23:00.000000
671,558.99,2022-10-26 16:23:00.015625
672,535.74,2022-10-26 16:23:00.031250
673,513.35,2022-10-26 16:23:00.046875
674,490.14,2022-10-26 16:23:00.062500
675,464.11,2022-10-26 16:23:00.078125
676,433.73,2022-10-26 16:23:00.093750
677,398.69,2022-10-26 16:23:00.109375
678,360.01,2022-10-26 16:23:00.125000
679,319.67,2022-10-26 16:23:00.140625
680,280.53,2022-10-26 16:23:00.156250
681,245.09,2022-10-26 16:23:00.171875
682,215.05,2022-10-26 16:23:00.187500
683,190.9,2022-10-26 16:23:00.203125
684,172.37,2022-10-26 16:23:00.218750
685,158.78,2022-10-26 16:23:00.234375
686,149.39,2022-10-26 16:23:00.250000
687,143.57,2022-10-26 16:23:00.265625
688,140.23,2022-10-26 16:23:00.281250
689,138.12,2022-10-26 16:23:00.296875
690,135.89,2022-10-26 16:23:00.312500
691,132.55,2022-10-26 16:23:00.328125
692,127.39,2022-10-26 16:23:00.343750
693,120.27,2022-10-26 16:23:00.359375
694,111.21,2022-10-26 16:23:00.375000
695,100.13,2022-10-26 16:23:00.390625
696,86.81,2022-10-26 16:23:00.406250
697,70.81,2022-10-26 16:23:00.421875
698,51.81,2022-10-26 16:23:00.437500
699,29.71,2022-10-26 16:23:00.453125
700,4.84,2022-10-26 16:23:00.468750
701,-21.82,2022-10-26 16:23:00.484375
702,-48.88,2022-10-26 16:23:00.500000
703,-74.72,2022-10-26 16:23:00.515625
704,-97.67,2022-10-26 16:23:00.531250
705,-116.27,2022-10-26 16:23:00.546875
706,-129.41,2022-10-26 16:23:00.562500
707,-136.29,2022-10-26 16:23:00.578125
708,-136.58,2022-10-26 16:23:00.593750
709,-130.24,2022-10-26 16:23:00.609375
710,-117.68,2022-10-26 16:23:00.625000
711,-99.62,2022-10-26 16:23:00.640625
712,-77.11,2022-10-26 16:23:00.656250
713,-51.55,2022-10-26 16:23:00.671875
714,-24.46,2022-10-26 16:23:00.687500
715,2.63,2022-10-26 16:23:00.703125
716,28.28,2022-10-26 16:23:00.718750
717,51.21,2022-10-26 16:23:00.734375
718,70.23,2022-10-26 16:23:00.750000
719,84.33,2022-10-26 16:23:00.765625
720,92.82,2022-10-26 16:23:00.781250
721,95.37,2022-10-26 16:23:00.796875
722,92.22,2022-10-26 16:23:00.812500
723,84.26,2022-10-26 16:23:00.828125
724,72.86,2022-10-26 16:23:00.843750
725,59.65,2022-10-26 16:23:00.859375
726,46.11,2022-10-26 16:23:00.875000
727,33.12,2022-10-26 16:23:00.890625
728,20.8,2022-10-26 16:23:00.906250
729,8.57,2022-10-26 16:23:00.921875
730,-4.47,2022-10-26 16:23:00.937500
731,-18.9,2022-10-26 16:23:00.953125
732,-34.68,2022-10-26 16:23:00.968750
733,-51.07,2022-10-26 16:23:00.984375
734,-66.89,2022-10-26 16:23:01.000000
735,-81.21,2022-10-26 16:23:01.015625
736,-93.47,2022-10-26 16:23:01.031250
737,-103.94,2022-10-26 16:23:01.046875
738,-113.48,2022-10-26 16:23:01.062500
739,-122.96,2022-10-26 16:23:01.078125
740,-133.24,2022-10-26 16:23:01.093750
741,-144.86,2022-10-26 16:23:01.109375
742,-158.02,2022-10-26 16:23:01.125000
743,-172.19,2022-10-26 16:23:01.140625
744,-185.53,2022-10-26 16:23:01.156250
745,-194.81,2022-10-26 16:23:01.171875
746,-196.16,2022-10-26 16:23:01.187500
747,-186.49,2022-10-26 16:23:01.203125
748,-165.4,2022-10-26 16:23:01.218750
749,-135.76,2022-10-26 16:23:01.234375
750,-102.98,2022-10-26 16:23:01.250000
751,-72.85,2022-10-26 16:23:01.265625
752,-49.02,2022-10-26 16:23:01.281250
753,-31.72,2022-10-26 16:23:01.296875
754,-18.38,2022-10-26 16:23:01.312500
755,-5.68,2022-10-26 16:23:01.328125
756,8.32,2022-10-26 16:23:01.343750
757,23.18,2022-10-26 16:23:01.359375
758,36.69,2022-10-26 16:23:01.375000
759,46.6,2022-10-26 16:23:01.390625
760,51.77,2022-10-26 16:23:01.406250
761,52.45,2022-10-26 16:23:01.421875
762,49.44,2022-10-26 16:23:01.437500
763,43.17,2022-10-26 16:23:01.453125
764,33.49,2022-10-26 16:23:01.468750
765,20.17,2022-10-26 16:23:01.484375
766,3.56,2022-10-26 16:23:01.500000
767,-15.48,2022-10-26 16:23:01.515625
768,-35.7,2022-10-26 16:23:01.531250
769,-56.18,2022-10-26 16:23:01.546875
770,-76.72,2022-10-26 16:23:01.562500
771,-97.68,2022-10-26 16:23:01.578125
772,-119.48,2022-10-26 16:23:01.593750
773,-142.13,2022-10-26 16:23:01.609375
774,-165.28,2022-10-26 16:23:01.625000
775,-188.24,2022-10-26 16:23:01.640625
776,-210.2,2022-10-26 16:23:01.656250
777,-230.25,2022-10-26 16:23:01.671875
778,-247.46,2022-10-26 16:23:01.687500
779,-260.68,2022-10-26 16:23:01.703125
780,-269.05,2022-10-26 16:23:01.718750
781,-272.83,2022-10-26 16:23:01.734375
782,-273.54,2022-10-26 16:23:01.750000
783,-274.18,2022-10-26 16:23:01.765625
784,-278.31,2022-10-26 16:23:01.781250
785,-289.02,2022-10-26 16:23:01.796875
786,-307.92,2022-10-26 16:23:01.812500
787,-335.5,2022-10-26 16:23:01.828125
788,-371.24,2022-10-26 16:23:01.843750
789,-413.98,2022-10-26 16:23:01.859375
790,-461.99,2022-10-26 16:23:01.875000
791,-512.77,2022-10-26 16:23:01.890625
792,-563.67,2022-10-26 16:23:01.906250
793,-612.76,2022-10-26 16:23:01.921875
794,-659.74,2022-10-26 16:23:01.937500
795,-706.01,2022-10-26 16:23:01.953125
796,-753.36,2022-10-26 16:23:01.968750
797,-801.7,2022-10-26 16:23:01.984375
798,-847.33,2022-10-26 16:23:02.000000
799,-883.24,2022-10-26 16:23:02.015625
800,-901.34,2022-10-26 16:23:02.031250
801,-895.87,2022-10-26 16:23:02.046875
802,-865.95,2022-10-26 16:23:02.062500
803,-816.03,2022-10-26 16:23:02.078125
804,-753.64,2022-10-26 16:23:02.093750
805,-686.09,2022-10-26 16:23:02.109375
806,-618.1,2022-10-26 16:23:02.125000
807,-551.22,2022-10-26 16:23:02.140625
808,-485.16,2022-10-26 16:23:02.156250
809,-419.61,2022-10-26 16:23:02.171875
810,-355.54,2022-10-26 16:23:02.187500
811,-294.88,2022-10-26 16:23:02.203125
812,-239.6,2022-10-26 16:23:02.218750
813,-190.85,2022-10-26 16:23:02.234375
814,-148.34,2022-10-26 16:23:02.250000
815,-110.87,2022-10-26 16:23:02.265625
816,-77.3,2022-10-26 16:23:02.281250
817,-47.37,2022-10-26 16:23:02.296875
818,-21.73,2022-10-26 16:23:02.312500
819,-1.77,2022-10-26 16:23:02.328125
820,11.3,2022-10-26 16:23:02.343750
821,17.19,2022-10-26 16:23:02.359375
822,16.8,2022-10-26 16:23:02.375000
823,12.08,2022-10-26 16:23:02.390625
824,5.38,2022-10-26 16:23:02.406250
825,-1.3,2022-10-26 16:23:02.421875
826,-6.83,2022-10-26 16:23:02.437500
827,-10.95,2022-10-26 16:23:02.453125
828,-14.11,2022-10-26 16:23:02.468750
829,-16.9,2022-10-26 16:23:02.484375
830,-19.63,2022-10-26 16:23:02.500000
831,-22.13,2022-10-26 16:23:02.515625
832,-23.89,2022-10-26 16:23:02.531250
833,-24.42,2022-10-26 16:23:02.546875
834,-23.45,2022-10-26 16:23:02.562500
835,-21.21,2022-10-26 16:23:02.578125
836,-18.49,2022-10-26 16:23:02.593750
837,-16.3,2022-10-26 16:23:02.609375
838,-15.58,2022-10-26 16:23:02.625000
839,-16.92,2022-10-26 16:23:02.640625
840,-20.51,2022-10-26 16:23:02.656250
841,-26.02,2022-10-26 16:23:02.671875
842,-32.94,2022-10-26 16:23:02.687500
843,-40.71,2022-10-26 16:23:02.703125
844,-48.88,2022-10-26 16:23:02.718750
845,-56.98,2022-10-26 16:23:02.734375
846,-64.56,2022-10-26 16:23:02.750000
847,-71.06,2022-10-26 16:23:02.765625
848,-75.9,2022-10-26 16:23:02.781250
849,-78.39,2022-10-26 16:23:02.796875
850,-77.89,2022-10-26 16:23:02.812500
851,-73.86,2022-10-26 16:23:02.828125
852,-66.01,2022-10-26 16:23:02.843750
853,-54.34,2022-10-26 16:23:02.859375
854,-39.19,2022-10-26 16:23:02.875000
855,-21.22,2022-10-26 16:23:02.890625
856,-1.32,2022-10-26 16:23:02.906250
857,19.53,2022-10-26 16:23:02.921875
858,40.21,2022-10-26 16:23:02.937500
859,59.68,2022-10-26 16:23:02.953125
860,76.95,2022-10-26 16:23:02.968750
861,91.24,2022-10-26 16:23:02.984375
862,102.12,2022-10-26 16:23:03.000000
863,109.56,2022-10-26 16:23:03.015625
864,113.87,2022-10-26 16:23:03.031250
865,115.55,2022-10-26 16:23:03.046875
866,115.24,2022-10-26 16:23:03.062500
867,113.58,2022-10-26 16:23:03.078125
868,111.1,2022-10-26 16:23:03.093750
869,108.22,2022-10-26 16:23:03.109375
870,105.13,2022-10-26 16:23:03.125000
871,101.92,2022-10-26 16:23:03.140625
872,98.49,2022-10-26 16:23:03.156250
873,94.73,2022-10-26 16:23:03.171875
874,90.51,2022-10-26 16:23:03.187500
875,85.69,2022-10-26 16:23:03.203125
876,80.07,2022-10-26 16:23:03.218750
877,73.36,2022-10-26 16:23:03.234375
878,65.29,2022-10-26 16:23:03.250000
879,55.68,2022-10-26 16:23:03.265625
880,44.49,2022-10-26 16:23:03.281250
881,32.06,2022-10-26 16:23:03.296875
882,18.97,2022-10-26 16:23:03.312500
883,5.96,2022-10-26 16:23:03.328125
884,-6.29,2022-10-26 16:23:03.343750
885,-17.32,2022-10-26 16:23:03.359375
886,-26.9,2022-10-26 16:23:03.375000
887,-35.02,2022-10-26 16:23:03.390625
888,-41.77,2022-10-26 16:23:03.406250
889,-47.11,2022-10-26 16:23:03.421875
890,-50.75,2022-10-26 16:23:03.437500
891,-52.2,2022-10-26 16:23:03.453125
892,-50.9,2022-10-26 16:23:03.468750
893,-46.56,2022-10-26 16:23:03.484375
894,-39.43,2022-10-26 16:23:03.500000
895,-30.42,2022-10-26 16:23:03.515625
896,-20.87,2022-10-26 16:23:03.531250
897,-11.98,2022-10-26 16:23:03.546875
898,-4.41,2022-10-26 16:23:03.562500
899,2.18,2022-10-26 16:23:03.578125
900,9.01,2022-10-26 16:23:03.593750
901,17.73,2022-10-26 16:23:03.609375
902,29.66,2022-10-26 16:23:03.625000
903,45.08,2022-10-26 16:23:03.640625
904,62.94,2022-10-26 16:23:03.656250
905,81.04,2022-10-26 16:23:03.671875
906,97.02,2022-10-26 16:23:03.687500
907,108.85,2022-10-26 16:23:03.703125
908,115.9,2022-10-26 16:23:03.718750
909,118.88,2022-10-26 16:23:03.734375
910,119.49,2022-10-26 16:23:03.750000
911,119.91,2022-10-26 16:23:03.765625
912,122.04,2022-10-26 16:23:03.781250
913,127.11,2022-10-26 16:23:03.796875
914,135.02,2022-10-26 16:23:03.812500
915,144.18,2022-10-26 16:23:03.828125
916,151.68,2022-10-26 16:23:03.843750
917,154.64,2022-10-26 16:23:03.859375
918,151.52,2022-10-26 16:23:03.875000
919,143.7,2022-10-26 16:23:03.890625
920,135.52,2022-10-26 16:23:03.906250
921,132.88,2022-10-26 16:23:03.921875
922,141.04,2022-10-26 16:23:03.937500
923,162.54,2022-10-26 16:23:03.953125
924,196.31,2022-10-26 16:23:03.968750
925,238.11,2022-10-26 16:23:03.984375
926,282.36,2022-10-26 16:23:04.000000
927,323.73,2022-10-26 16:23:04.015625
928,358.46,2022-10-26 16:23:04.031250
929,385.72,2022-10-26 16:23:04.046875
930,407.23,2022-10-26 16:23:04.062500
931,427.24,2022-10-26 16:23:04.078125
932,450.09,2022-10-26 16:23:04.093750
933,478.4,2022-10-26 16:23:04.109375
934,510.51,2022-10-26 16:23:04.125000
935,540.4,2022-10-26 16:23:04.140625
936,559.39,2022-10-26 16:23:04.156250
937,559.87,2022-10-26 16:23:04.171875
938,539.35,2022-10-26 16:23:04.187500
939,501.18,2022-10-26 16:23:04.203125
940,453.34,2022-10-26 16:23:04.218750
941,404.07,2022-10-26 16:23:04.234375
942,358.23,2022-10-26 16:23:04.250000
943,316.43,2022-10-26 16:23:04.265625
944,277.04,2022-10-26 16:23:04.281250
945,239.46,2022-10-26 16:23:04.296875
946,206.54,2022-10-26 16:23:04.312500
947,183.33,2022-10-26 16:23:04.328125
948,174.3,2022-10-26 16:23:04.343750
949,181.05,2022-10-26 16:23:04.359375
950,200.99,2022-10-26 16:23:04.375000
951,229.56,2022-10-26 16:23:04.390625
952,262.33,2022-10-26 16:23:04.406250
953,296.65,2022-10-26 16:23:04.421875
954,331.68,2022-10-26 16:23:04.437500
955,366.63,2022-10-26 16:23:04.453125
956,399.36,2022-10-26 16:23:04.468750
957,425.69,2022-10-26 16:23:04.484375
958,441.47,2022-10-26 16:23:04.500000
959,444.72,2022-10-26 16:23:04.515625
960,436.97,2022-10-26 16:23:04.531250
961,423.14,2022-10-26 16:23:04.546875
962,408.86,2022-10-26 16:23:04.562500
963,398.31,2022-10-26 16:23:04.578125
964,392.18,2022-10-26 16:23:04.593750
965,388.38,2022-10-26 16:23:04.609375
966,383.2,2022-10-26 16:23:04.625000
967,373.5,2022-10-26 16:23:04.640625
968,357.83,2022-10-26 16:23:04.656250
969,336.63,2022-10-26 16:23:04.671875
970,311.66,2022-10-26 16:23:04.687500
971,284.7,2022-10-26 16:23:04.703125
972,257.2,2022-10-26 16:23:04.718750
973,230.22,2022-10-26 16:23:04.734375
974,204.82,2022-10-26 16:23:04.750000
975,182.42,2022-10-26 16:23:04.765625
976,164.21,2022-10-26 16:23:04.781250
977,150.29,2022-10-26 16:23:04.796875
978,139.45,2022-10-26 16:23:04.812500
979,129.23,2022-10-26 16:23:04.828125
980,116.86,2022-10-26 16:23:04.843750
981,100.19,2022-10-26 16:23:04.859375
982,77.58,2022-10-26 16:23:04.875000
983,48.16,2022-10-26 16:23:04.890625
984,11.77,2022-10-26 16:23:04.906250
985,-30.62,2022-10-26 16:23:04.921875
986,-76.46,2022-10-26 16:23:04.937500
987,-121.76,2022-10-26 16:23:04.953125
988,-162.08,2022-10-26 16:23:04.968750
989,-194.2,2022-10-26 16:23:04.984375
990,-217.5,2022-10-26 16:23:05.000000
991,-234.08,2022-10-26 16:23:05.015625
992,-247.77,2022-10-26 16:23:05.031250
993,-262.02,2022-10-26 16:23:05.046875
994,-278.54,2022-10-26 16:23:05.062500
995,-296.63,2022-10-26 16:23:05.078125
996,-313.92,2022-10-26 16:23:05.093750
997,-328.03,2022-10-26 16:23:05.109375
998,-337.86,2022-10-26 16:23:05.125000
999,-343.91,2022-10-26 16:23:05.140625
1000,-347.3,2022-10-26 16:23:05.156250
1001,-348.16,2022-10-26 16:23:05.171875
1002,-345.42,2022-10-26 16:23:05.187500
1003,-337.01,2022-10-26 16:23:05.203125
1004,-322.38,2022-10-26 16:23:05.218750
1005,-304.26,2022-10-26 16:23:05.234375
1006,-288.85,2022-10-26 16:23:05.250000
1007,-283.1,2022-10-26 16:23:05.265625
1008,-290.79,2022-10-26 16:23:05.281250
1009,-308.72,2022-10-26 16:23:05.296875
1010,-326.55,2022-10-26 16:23:05.312500
1011,-330.92,2022-10-26 16:23:05.328125
1012,-312.09,2022-10-26 16:23:05.343750
1013,-269.45,2022-10-26 16:23:05.359375
1014,-212.59,2022-10-26 16:23:05.375000
1015,-157.52,2022-10-26 16:23:05.390625
1016,-119.1,2022-10-26 16:23:05.406250
1017,-104.47,2022-10-26 16:23:05.421875
1018,-110.58,2022-10-26 16:23:05.437500
1019,-126.82,2022-10-26 16:23:05.453125
1020,-141.66,2022-10-26 16:23:05.468750
1021,-148.53,2022-10-26 16:23:05.484375
1022,-147.57,2022-10-26 16:23:05.500000
1023,-142.88,2022-10-26 16:23:05.515625
1024,-138.53,2022-10-26 16:23:05.531250
1025,-134.56,2022-10-26 16:23:05.546875
1026,-127.47,2022-10-26 16:23:05.562500
1027,-113.18,2022-10-26 16:23:05.578125
1028,-90.31,2022-10-26 16:23:05.593750
1029,-62.05,2022-10-26 16:23:05.609375
1030,-34.4,2022-10-26 16:23:05.625000
1031,-12.98,2022-10-26 16:23:05.640625
1032,0.22,2022-10-26 16:23:05.656250
1033,7.02,2022-10-26 16:23:05.671875
1034,10.51,2022-10-26 16:23:05.687500
1035,12.36,2022-10-26 16:23:05.703125
1036,11.43,2022-10-26 16:23:05.718750
1037,5.55,2022-10-26 16:23:05.734375
1038,-6.2,2022-10-26 16:23:05.750000
1039,-21.15,2022-10-26 16:23:05.765625
1040,-33.93,2022-10-26 16:23:05.781250
1041,-39.09,2022-10-26 16:23:05.796875
1042,-33.61,2022-10-26 16:23:05.812500
1043,-18.73,2022-10-26 16:23:05.828125
1044,0.79,2022-10-26 16:23:05.843750
1045,19.24,2022-10-26 16:23:05.859375
1046,33.39,2022-10-26 16:23:05.875000
1047,43.73,2022-10-26 16:23:05.890625
1048,54.36,2022-10-26 16:23:05.906250
1049,69.5,2022-10-26 16:23:05.921875
1050,90.16,2022-10-26 16:23:05.937500
1051,111.98,2022-10-26 16:23:05.953125
1052,126.06,2022-10-26 16:23:05.968750
1053,122.1,2022-10-26 16:23:05.984375
1054,93.18,2022-10-26 16:23:06.000000
1055,39.56,2022-10-26 16:23:06.015625
1056,-31.25,2022-10-26 16:23:06.031250
1057,-106.5,2022-10-26 16:23:06.046875
1058,-173.49,2022-10-26 16:23:06.062500
1059,-224.13,2022-10-26 16:23:06.078125
1060,-257.57,2022-10-26 16:23:06.093750
1061,-279.35,2022-10-26 16:23:06.109375
1062,-298.52,2022-10-26 16:23:06.125000
1063,-323.73,2022-10-26 16:23:06.140625
1064,-359.37,2022-10-26 16:23:06.156250
1065,-403.63,2022-10-26 16:23:06.171875
1066,-448.24,2022-10-26 16:23:06.187500
1067,-481.06,2022-10-26 16:23:06.203125
1068,-490.37,2022-10-26 16:23:06.218750
1069,-469.39,2022-10-26 16:23:06.234375
1070,-419.11,2022-10-26 16:23:06.250000
1071,-347.19,2022-10-26 16:23:06.265625
1072,-264.79,2022-10-26 16:23:06.281250
1073,-183.66,2022-10-26 16:23:06.296875
1074,-112.04,2022-10-26 16:23:06.312500
1075,-53.84,2022-10-26 16:23:06.328125
1076,-9.68,2022-10-26 16:23:06.343750
1077,21.71,2022-10-26 16:23:06.359375
1078,43.72,2022-10-26 16:23:06.375000
1079,60.01,2022-10-26 16:23:06.390625
1080,74.12,2022-10-26 16:23:06.406250
1081,87.99,2022-10-26 16:23:06.421875
1082,101.52,2022-10-26 16:23:06.437500
1083,112.41,2022-10-26 16:23:06.453125
1084,117.55,2022-10-26 16:23:06.468750
1085,114.65,2022-10-26 16:23:06.484375
1086,103.82,2022-10-26 16:23:06.500000
1087,88.25,2022-10-26 16:23:06.515625
1088,72.04,2022-10-26 16:23:06.531250
1089,57.96,2022-10-26 16:23:06.546875
1090,45.91,2022-10-26 16:23:06.562500
1091,33.1,2022-10-26 16:23:06.578125
1092,16.19,2022-10-26 16:23:06.593750
1093,-5.7,2022-10-26 16:23:06.609375
1094,-29.24,2022-10-26 16:23:06.625000
1095,-47.9,2022-10-26 16:23:06.640625
1096,-54.63,2022-10-26 16:23:06.656250
1097,-45.81,2022-10-26 16:23:06.671875
1098,-23.58,2022-10-26 16:23:06.687500
1099,4.68,2022-10-26 16:23:06.703125
1100,29.65,2022-10-26 16:23:06.718750
1101,44.2,2022-10-26 16:23:06.734375
1102,46.42,2022-10-26 16:23:06.750000
1103,39.6,2022-10-26 16:23:06.765625
1104,29.78,2022-10-26 16:23:06.781250
1105,22.47,2022-10-26 16:23:06.796875
1106,19.65,2022-10-26 16:23:06.812500
1107,19.95,2022-10-26 16:23:06.828125
1108,20.43,2022-10-26 16:23:06.843750
1109,19.22,2022-10-26 16:23:06.859375
1110,17.46,2022-10-26 16:23:06.875000
1111,18.82,2022-10-26 16:23:06.890625
1112,27.7,2022-10-26 16:23:06.906250
1113,45.84,2022-10-26 16:23:06.921875
1114,70.91,2022-10-26 16:23:06.937500
1115,96.66,2022-10-26 16:23:06.953125
1116,116.24,2022-10-26 16:23:06.968750
1117,125.97,2022-10-26 16:23:06.984375
1118,127.53,2022-10-26 16:23:07.000000
1119,127.13,2022-10-26 16:23:07.015625
1120,131.86,2022-10-26 16:23:07.031250
1121,145.6,2022-10-26 16:23:07.046875
1122,167.59,2022-10-26 16:23:07.062500
1123,193.79,2022-10-26 16:23:07.078125
1124,220.29,2022-10-26 16:23:07.093750
1125,245.28,2022-10-26 16:23:07.109375
1126,268.88,2022-10-26 16:23:07.125000
1127,290.54,2022-10-26 16:23:07.140625
1128,307.87,2022-10-26 16:23:07.156250
1129,316.94,2022-10-26 16:23:07.171875
1130,314.49,2022-10-26 16:23:07.187500
1131,300.28,2022-10-26 16:23:07.203125
1132,277.98,2022-10-26 16:23:07.218750
1133,253.25,2022-10-26 16:23:07.234375
1134,231.01,2022-10-26 16:23:07.250000
1135,212.96,2022-10-26 16:23:07.265625
1136,196.67,2022-10-26 16:23:07.281250
1137,177.24,2022-10-26 16:23:07.296875
1138,149.71,2022-10-26 16:23:07.312500
1139,111.64,2022-10-26 16:23:07.328125
1140,63.92,2022-10-26 16:23:07.343750
1141,11.07,2022-10-26 16:23:07.359375
1142,-40.88,2022-10-26 16:23:07.375000
1143,-86.24,2022-10-26 16:23:07.390625
1144,-121.26,2022-10-26 16:23:07.406250
1145,-145.56,2022-10-26 16:23:07.421875
1146,-161.84,2022-10-26 16:23:07.437500
1147,-174.22,2022-10-26 16:23:07.453125
1148,-186.98,2022-10-26 16:23:07.468750
1149,-202.75,2022-10-26 16:23:07.484375
1150,-221.78,2022-10-26 16:23:07.500000
1151,-242.26,2022-10-26 16:23:07.515625
1152,-260.38,2022-10-26 16:23:07.531250
1153,-271.23,2022-10-26 16:23:07.546875
1154,-270.22,2022-10-26 16:23:07.562500
1155,-255.03,2022-10-26 16:23:07.578125
1156,-226.51,2022-10-26 16:23:07.593750
1157,-189.33,2022-10-26 16:23:07.609375
1158,-150.71,2022-10-26 16:23:07.625000
1159,-118.44,2022-10-26 16:23:07.640625
1160,-97.97,2022-10-26 16:23:07.656250
1161,-90.11,2022-10-26 16:23:07.671875
1162,-90.86,2022-10-26 16:23:07.687500
1163,-92.95,2022-10-26 16:23:07.703125
1164,-88.56,2022-10-26 16:23:07.718750
1165,-72.5,2022-10-26 16:23:07.734375
1166,-45.16,2022-10-26 16:23:07.750000
1167,-12.49,2022-10-26 16:23:07.765625
1168,16.91,2022-10-26 16:23:07.781250
1169,35.67,2022-10-26 16:23:07.796875
1170,41.3,2022-10-26 16:23:07.812500
1171,37.53,2022-10-26 16:23:07.828125
1172,31.24,2022-10-26 16:23:07.843750
1173,29.15,2022-10-26 16:23:07.859375
1174,34.51,2022-10-26 16:23:07.875000
1175,46.65,2022-10-26 16:23:07.890625
1176,62.87,2022-10-26 16:23:07.906250
1177,81.01,2022-10-26 16:23:07.921875
1178,99.93,2022-10-26 16:23:07.937500
1179,119.28,2022-10-26 16:23:07.953125
1180,137.79,2022-10-26 16:23:07.968750
1181,152.93,2022-10-26 16:23:07.984375
1182,162.02,2022-10-26 16:23:08.000000
1183,163.58,2022-10-26 16:23:08.015625
1184,158.25,2022-10-26 16:23:08.031250
1185,147.9,2022-10-26 16:23:08.046875
1186,133.83,2022-10-26 16:23:08.062500
1187,114.46,2022-10-26 16:23:08.078125
1188,86.67,2022-10-26 16:23:08.093750
1189,48.12,2022-10-26 16:23:08.109375
1190,0.47,2022-10-26 16:23:08.125000
1191,-48.97,2022-10-26 16:23:08.140625
1192,-89.41,2022-10-26 16:23:08.156250
1193,-111.01,2022-10-26 16:23:08.171875
1194,-109.43,2022-10-26 16:23:08.187500
1195,-88.17,2022-10-26 16:23:08.203125
1196,-57.06,2022-10-26 16:23:08.218750
1197,-27.22,2022-10-26 16:23:08.234375
1198,-5.96,2022-10-26 16:23:08.250000
1199,5.25,2022-10-26 16:23:08.265625
1200,9.44,2022-10-26 16:23:08.281250
1201,10.56,2022-10-26 16:23:08.296875
1202,9.97,2022-10-26 16:23:08.312500
1203,6.63,2022-10-26 16:23:08.328125
1204,-1.3,2022-10-26 16:23:08.343750
1205,-14.03,2022-10-26 16:23:08.359375
1206,-28.55,2022-10-26 16:23:08.375000
1207,-40.15,2022-10-26 16:23:08.390625
1208,-44.95,2022-10-26 16:23:08.406250
1209,-41.07,2022-10-26 16:23:08.421875
1210,-29.52,2022-10-26 16:23:08.437500
1211,-12.38,2022-10-26 16:23:08.453125
1212,8.85,2022-10-26 16:23:08.468750
1213,33.33,2022-10-26 16:23:08.484375
1214,59.62,2022-10-26 16:23:08.500000
1215,84.19,2022-10-26 16:23:08.515625
1216,101.27,2022-10-26 16:23:08.531250
1217,104.7,2022-10-26 16:23:08.546875
1218,91.17,2022-10-26 16:23:08.562500
1219,62.31,2022-10-26 16:23:08.578125
1220,25.0,2022-10-26 16:23:08.593750
1221,-10.47,2022-10-26 16:23:08.609375
1222,-34.66,2022-10-26 16:23:08.625000
1223,-43.11,2022-10-26 16:23:08.640625
1224,-38.24,2022-10-26 16:23:08.656250
1225,-28.54,2022-10-26 16:23:08.671875
1226,-23.96,2022-10-26 16:23:08.687500
1227,-30.23,2022-10-26 16:23:08.703125
1228,-45.81,2022-10-26 16:23:08.718750
1229,-62.31,2022-10-26 16:23:08.734375
1230,-68.0,2022-10-26 16:23:08.750000
1231,-53.36,2022-10-26 16:23:08.765625
1232,-14.66,2022-10-26 16:23:08.781250
1233,45.47,2022-10-26 16:23:08.796875
1234,119.5,2022-10-26 16:23:08.812500
1235,198.24,2022-10-26 16:23:08.828125
1236,273.34,2022-10-26 16:23:08.843750
1237,337.84,2022-10-26 16:23:08.859375
1238,386.29,2022-10-26 16:23:08.875000
1239,414.51,2022-10-26 16:23:08.890625
1240,420.08,2022-10-26 16:23:08.906250
1241,404.54,2022-10-26 16:23:08.921875
1242,373.69,2022-10-26 16:23:08.937500
1243,337.01,2022-10-26 16:23:08.953125
1244,304.37,2022-10-26 16:23:08.968750
1245,282.34,2022-10-26 16:23:08.984375
1246,271.93,2022-10-26 16:23:09.000000
1247,268.58,2022-10-26 16:23:09.015625
1248,264.9,2022-10-26 16:23:09.031250
1249,254.36,2022-10-26 16:23:09.046875
1250,233.7,2022-10-26 16:23:09.062500
1251,203.63,2022-10-26 16:23:09.078125
1252,167.04,2022-10-26 16:23:09.093750
1253,127.05,2022-10-26 16:23:09.109375
1254,85.76,2022-10-26 16:23:09.125000
1255,44.68,2022-10-26 16:23:09.140625
1256,6.16,2022-10-26 16:23:09.156250
1257,-25.88,2022-10-26 16:23:09.171875
1258,-46.67,2022-10-26 16:23:09.187500
1259,-52.54,2022-10-26 16:23:09.203125
1260,-43.16,2022-10-26 16:23:09.218750
1261,-22.18,2022-10-26 16:23:09.234375
1262,4.02,2022-10-26 16:23:09.250000
1263,29.05,2022-10-26 16:23:09.265625
1264,49.11,2022-10-26 16:23:09.281250
1265,63.97,2022-10-26 16:23:09.296875
1266,76.16,2022-10-26 16:23:09.312500
1267,88.8,2022-10-26 16:23:09.328125
1268,103.29,2022-10-26 16:23:09.343750
1269,118.08,2022-10-26 16:23:09.359375
1270,129.52,2022-10-26 16:23:09.375000
1271,133.44,2022-10-26 16:23:09.390625
1272,127.19,2022-10-26 16:23:09.406250
1273,110.61,2022-10-26 16:23:09.421875
1274,85.96,2022-10-26 16:23:09.437500
1275,56.55,2022-10-26 16:23:09.453125
1276,25.55,2022-10-26 16:23:09.468750
1277,-5.22,2022-10-26 16:23:09.484375
1278,-35.15,2022-10-26 16:23:09.500000
1279,-64.24,2022-10-26 16:23:09.515625
1280,-92.59,2022-10-26 16:23:09.531250
1281,-119.57,2022-10-26 16:23:09.546875
1282,-144.1,2022-10-26 16:23:09.562500
1283,-164.93,2022-10-26 16:23:09.578125
1284,-181.73,2022-10-26 16:23:09.593750
1285,-195.28,2022-10-26 16:23:09.609375
1286,-207.64,2022-10-26 16:23:09.625000
1287,-221.66,2022-10-26 16:23:09.640625
1288,-240.11,2022-10-26 16:23:09.656250
1289,-265.38,2022-10-26 16:23:09.671875
1290,-299.26,2022-10-26 16:23:09.687500
1291,-343.17,2022-10-26 16:23:09.703125
1292,-397.84,2022-10-26 16:23:09.718750
1293,-462.78,2022-10-26 16:23:09.734375
1294,-535.39,2022-10-26 16:23:09.750000
1295,-610.77,2022-10-26 16:23:09.765625
1296,-682.44,2022-10-26 16:23:09.781250
1297,-743.83,2022-10-26 16:23:09.796875
1298,-790.04,2022-10-26 16:23:09.812500
1299,-818.65,2022-10-26 16:23:09.828125
1300,-829.76,2022-10-26 16:23:09.843750
1301,-824.98,2022-10-26 16:23:09.859375
1302,-806.07,2022-10-26 16:23:09.875000
1303,-774.77,2022-10-26 16:23:09.890625
1304,-732.77,2022-10-26 16:23:09.906250
1305,-682.19,2022-10-26 16:23:09.921875
1306,-625.6,2022-10-26 16:23:09.937500
1307,-565.77,2022-10-26 16:23:09.953125
1308,-504.92,2022-10-26 16:23:09.968750
1309,-444.23,2022-10-26 16:23:09.984375
1310,-384.16,2022-10-26 16:23:10.000000
1311,-325.13,2022-10-26 16:23:10.015625
1312,-268.06,2022-10-26 16:23:10.031250
1313,-214.56,2022-10-26 16:23:10.046875
1314,-166.71,2022-10-26 16:23:10.062500
1315,-126.44,2022-10-26 16:23:10.078125
1316,-95.36,2022-10-26 16:23:10.093750
1317,-74.17,2022-10-26 16:23:10.109375
1318,-62.53,2022-10-26 16:23:10.125000
1319,-59.37,2022-10-26 16:23:10.140625
1320,-62.85,2022-10-26 16:23:10.156250
1321,-70.75,2022-10-26 16:23:10.171875
1322,-80.91,2022-10-26 16:23:10.187500
1323,-91.39,2022-10-26 16:23:10.203125
1324,-100.67,2022-10-26 16:23:10.218750
1325,-107.56,2022-10-26 16:23:10.234375
1326,-111.18,2022-10-26 16:23:10.250000
1327,-110.89,2022-10-26 16:23:10.265625
1328,-106.45,2022-10-26 16:23:10.281250
1329,-97.91,2022-10-26 16:23:10.296875
1330,-85.78,2022-10-26 16:23:10.312500
1331,-70.87,2022-10-26 16:23:10.328125
1332,-54.29,2022-10-26 16:23:10.343750
1333,-37.22,2022-10-26 16:23:10.359375
1334,-20.65,2022-10-26 16:23:10.375000
1335,-5.26,2022-10-26 16:23:10.390625
1336,8.6,2022-10-26 16:23:10.406250
1337,20.97,2022-10-26 16:23:10.421875
1338,32.14,2022-10-26 16:23:10.437500
1339,42.47,2022-10-26 16:23:10.453125
1340,52.31,2022-10-26 16:23:10.468750
1341,61.82,2022-10-26 16:23:10.484375
1342,70.99,2022-10-26 16:23:10.500000
1343,79.52,2022-10-26 16:23:10.515625
1344,86.88,2022-10-26 16:23:10.531250
1345,92.39,2022-10-26 16:23:10.546875
1346,95.35,2022-10-26 16:23:10.562500
1347,95.14,2022-10-26 16:23:10.578125
1348,91.23,2022-10-26 16:23:10.593750
1349,83.2,2022-10-26 16:23:10.609375
1350,71.02,2022-10-26 16:23:10.625000
1351,54.98,2022-10-26 16:23:10.640625
1352,35.68,2022-10-26 16:23:10.656250
1353,14.32,2022-10-26 16:23:10.671875
1354,-7.54,2022-10-26 16:23:10.687500
1355,-27.97,2022-10-26 16:23:10.703125
1356,-45.15,2022-10-26 16:23:10.718750
1357,-57.47,2022-10-26 16:23:10.734375
1358,-63.83,2022-10-26 16:23:10.750000
1359,-63.86,2022-10-26 16:23:10.765625
1360,-57.81,2022-10-26 16:23:10.781250
1361,-46.25,2022-10-26 16:23:10.796875
1362,-29.9,2022-10-26 16:23:10.812500
1363,-9.24,2022-10-26 16:23:10.828125
1364,15.48,2022-10-26 16:23:10.843750
1365,44.02,2022-10-26 16:23:10.859375
1366,76.14,2022-10-26 16:23:10.875000
1367,111.27,2022-10-26 16:23:10.890625
1368,148.54,2022-10-26 16:23:10.906250
1369,186.8,2022-10-26 16:23:10.921875
1370,224.85,2022-10-26 16:23:10.937500
1371,261.83,2022-10-26 16:23:10.953125
1372,296.98,2022-10-26 16:23:10.968750
1373,329.87,2022-10-26 16:23:10.984375
1374,359.84,2022-10-26 16:23:11.000000
1375,385.9,2022-10-26 16:23:11.015625
1376,406.73,2022-10-26 16:23:11.031250
1377,421.3,2022-10-26 16:23:11.046875
1378,429.18,2022-10-26 16:23:11.062500
1379,430.42,2022-10-26 16:23:11.078125
1380,425.54,2022-10-26 16:23:11.093750
1381,414.44,2022-10-26 16:23:11.109375
1382,396.75,2022-10-26 16:23:11.125000
1383,371.96,2022-10-26 16:23:11.140625
1384,340.54,2022-10-26 16:23:11.156250
1385,304.5,2022-10-26 16:23:11.171875
1386,267.28,2022-10-26 16:23:11.187500
1387,232.61,2022-10-26 16:23:11.203125
1388,203.09,2022-10-26 16:23:11.218750
1389,179.02,2022-10-26 16:23:11.234375
1390,158.87,2022-10-26 16:23:11.250000
1391,140.87,2022-10-26 16:23:11.265625
1392,124.18,2022-10-26 16:23:11.281250
1393,109.59,2022-10-26 16:23:11.296875
1394,98.49,2022-10-26 16:23:11.312500
1395,91.29,2022-10-26 16:23:11.328125
1396,86.13,2022-10-26 16:23:11.343750
1397,79.29,2022-10-26 16:23:11.359375
1398,67.0,2022-10-26 16:23:11.375000
1399,48.07,2022-10-26 16:23:11.390625
1400,25.29,2022-10-26 16:23:11.406250
1401,4.85,2022-10-26 16:23:11.421875
1402,-6.7,2022-10-26 16:23:11.437500
1403,-4.98,2022-10-26 16:23:11.453125
1404,9.91,2022-10-26 16:23:11.468750
1405,33.94,2022-10-26 16:23:11.484375
1406,61.36,2022-10-26 16:23:11.500000
1407,87.4,2022-10-26 16:23:11.515625
1408,109.96,2022-10-26 16:23:11.531250
1409,130.12,2022-10-26 16:23:11.546875
1410,151.23,2022-10-26 16:23:11.562500
1411,176.51,2022-10-26 16:23:11.578125
1412,208.14,2022-10-26 16:23:11.593750
1413,245.36,2022-10-26 16:23:11.609375
1414,284.32,2022-10-26 16:23:11.625000
1415,318.63,2022-10-26 16:23:11.640625
1416,340.58,2022-10-26 16:23:11.656250
1417,343.39,2022-10-26 16:23:11.671875
1418,322.71,2022-10-26 16:23:11.687500
1419,278.01,2022-10-26 16:23:11.703125
1420,213.73,2022-10-26 16:23:11.718750
1421,139.0,2022-10-26 16:23:11.734375
1422,66.16,2022-10-26 16:23:11.750000
1423,8.17,2022-10-26 16:23:11.765625
1424,-24.68,2022-10-26 16:23:11.781250
1425,-28.19,2022-10-26 16:23:11.796875
1426,-6.59,2022-10-26 16:23:11.812500
1427,27.85,2022-10-26 16:23:11.828125
1428,58.83,2022-10-26 16:23:11.843750
1429,72.0,2022-10-26 16:23:11.859375
1430,59.75,2022-10-26 16:23:11.875000
1431,24.37,2022-10-26 16:23:11.890625
1432,-23.6,2022-10-26 16:23:11.906250
1433,-69.62,2022-10-26 16:23:11.921875
1434,-101.09,2022-10-26 16:23:11.937500
1435,-110.6,2022-10-26 16:23:11.953125
1436,-98.14,2022-10-26 16:23:11.968750
1437,-69.83,2022-10-26 16:23:11.984375
1438,-34.63,2022-10-26 16:23:12.000000
1439,-1.03,2022-10-26 16:23:12.015625
1440,25.61,2022-10-26 16:23:12.031250
1441,43.85,2022-10-26 16:23:12.046875
1442,55.94,2022-10-26 16:23:12.062500
1443,64.58,2022-10-26 16:23:12.078125
1444,71.57,2022-10-26 16:23:12.093750
1445,77.13,2022-10-26 16:23:12.109375
1446,80.15,2022-10-26 16:23:12.125000
1447,79.87,2022-10-26 16:23:12.140625
1448,76.18,2022-10-26 16:23:12.156250
1449,69.44,2022-10-26 16:23:12.171875
1450,59.46,2022-10-26 16:23:12.187500
1451,45.27,2022-10-26 16:23:12.203125
1452,25.33,2022-10-26 16:23:12.218750
1453,-0.23,2022-10-26 16:23:12.234375
1454,-28.79,2022-10-26 16:23:12.250000
1455,-56.08,2022-10-26 16:23:12.265625
1456,-78.1,2022-10-26 16:23:12.281250
1457,-93.75,2022-10-26 16:23:12.296875
1458,-104.42,2022-10-26 16:23:12.312500
1459,-112.79,2022-10-26 16:23:12.328125
1460,-120.28,2022-10-26 16:23:12.343750
1461,-125.73,2022-10-26 16:23:12.359375
1462,-127.16,2022-10-26 16:23:12.375000
1463,-123.65,2022-10-26 16:23:12.390625
1464,-116.74,2022-10-26 16:23:12.406250
1465,-109.46,2022-10-26 16:23:12.421875
1466,-104.7,2022-10-26 16:23:12.437500
1467,-103.15,2022-10-26 16:23:12.453125
1468,-103.4,2022-10-26 16:23:12.468750
1469,-103.63,2022-10-26 16:23:12.484375
1470,-103.02,2022-10-26 16:23:12.500000
1471,-101.93,2022-10-26 16:23:12.515625
1472,-100.78,2022-10-26 16:23:12.531250
1473,-98.85,2022-10-26 16:23:12.546875
1474,-93.09,2022-10-26 16:23:12.562500
1475,-80.02,2022-10-26 16:23:12.578125
1476,-56.61,2022-10-26 16:23:12.593750
1477,-20.97,2022-10-26 16:23:12.609375
1478,27.48,2022-10-26 16:23:12.625000
1479,88.14,2022-10-26 16:23:12.640625
1480,158.81,2022-10-26 16:23:12.656250
1481,234.22,2022-10-26 16:23:12.671875
1482,306.38,2022-10-26 16:23:12.687500
1483,366.5,2022-10-26 16:23:12.703125
1484,407.68,2022-10-26 16:23:12.718750
1485,428.12,2022-10-26 16:23:12.734375
1486,431.39,2022-10-26 16:23:12.750000
1487,424.92,2022-10-26 16:23:12.765625
1488,416.95,2022-10-26 16:23:12.781250
1489,412.97,2022-10-26 16:23:12.796875
1490,414.68,2022-10-26 16:23:12.812500
1491,419.73,2022-10-26 16:23:12.828125
1492,423.1,2022-10-26 16:23:12.843750
1493,418.9,2022-10-26 16:23:12.859375
1494,402.12,2022-10-26 16:23:12.875000
1495,370.25,2022-10-26 16:23:12.890625
1496,323.51,2022-10-26 16:23:12.906250
1497,264.96,2022-10-26 16:23:12.921875
1498,199.23,2022-10-26 16:23:12.937500
1499,130.61,2022-10-26 16:23:12.953125
1500,62.06,2022-10-26 16:23:12.968750
1501,-4.99,2022-10-26 16:23:12.984375
1502,-69.47,2022-10-26 16:23:13.000000
1503,-129.56,2022-10-26 16:23:13.015625
1504,-182.9,2022-10-26 16:23:13.031250
1505,-227.71,2022-10-26 16:23:13.046875
1506,-264.02,2022-10-26 16:23:13.062500
1507,-294.22,2022-10-26 16:23:13.078125
1508,-322.16,2022-10-26 16:23:13.093750
1509,-351.27,2022-10-26 16:23:13.109375
1510,-383.79,2022-10-26 16:23:13.125000
1511,-420.58,2022-10-26 16:23:13.140625
1512,-461.4,2022-10-26 16:23:13.156250
1513,-505.2,2022-10-26 16:23:13.171875
1514,-549.65,2022-10-26 16:23:13.187500
1515,-590.8,2022-10-26 16:23:13.203125
1516,-623.4,2022-10-26 16:23:13.218750
1517,-642.2,2022-10-26 16:23:13.234375
1518,-643.82,2022-10-26 16:23:13.250000
1519,-627.57,2022-10-26 16:23:13.265625
1520,-595.39,2022-10-26 16:23:13.281250
1521,-550.55,2022-10-26 16:23:13.296875
1522,-496.49,2022-10-26 16:23:13.312500
1523,-436.05,2022-10-26 16:23:13.328125
1524,-371.85,2022-10-26 16:23:13.343750
1525,-306.92,2022-10-26 16:23:13.359375
1526,-244.68,2022-10-26 16:23:13.375000
1527,-188.27,2022-10-26 16:23:13.390625
1528,-139.48,2022-10-26 16:23:13.406250
1529,-98.05,2022-10-26 16:23:13.421875
1530,-62.52,2022-10-26 16:23:13.437500
1531,-31.23,2022-10-26 16:23:13.453125
1532,-3.21,2022-10-26 16:23:13.468750
1533,21.55,2022-10-26 16:23:13.484375
1534,42.37,2022-10-26 16:23:13.500000
1535,58.6,2022-10-26 16:23:13.515625
1536,69.08,2022-10-26 16:23:13.531250
1537,72.83,2022-10-26 16:23:13.546875
1538,69.48,2022-10-26 16:23:13.562500
1539,61.07,2022-10-26 16:23:13.578125
1540,51.71,2022-10-26 16:23:13.593750
1541,47.35,2022-10-26 16:23:13.609375
1542,52.9,2022-10-26 16:23:13.625000
1543,69.29,2022-10-26 16:23:13.640625
1544,92.26,2022-10-26 16:23:13.656250
1545,113.95,2022-10-26 16:23:13.671875
1546,126.75,2022-10-26 16:23:13.687500
1547,127.47,2022-10-26 16:23:13.703125
1548,118.88,2022-10-26 16:23:13.718750
1549,108.35,2022-10-26 16:23:13.734375
1550,103.17,2022-10-26 16:23:13.750000
1551,105.93,2022-10-26 16:23:13.765625
1552,113.12,2022-10-26 16:23:13.781250
1553,117.29,2022-10-26 16:23:13.796875
1554,112.34,2022-10-26 16:23:13.812500
1555,97.95,2022-10-26 16:23:13.828125
1556,80.49,2022-10-26 16:23:13.843750
1557,70.16,2022-10-26 16:23:13.859375
1558,75.24,2022-10-26 16:23:13.875000
1559,97.39,2022-10-26 16:23:13.890625
1560,131.08,2022-10-26 16:23:13.906250
1561,166.55,2022-10-26 16:23:13.921875
1562,195.0,2022-10-26 16:23:13.937500
1563,212.55,2022-10-26 16:23:13.953125
1564,220.08,2022-10-26 16:23:13.968750
1565,221.04,2022-10-26 16:23:13.984375
1566,217.39,2022-10-26 16:23:14.000000
1567,208.25,2022-10-26 16:23:14.015625
1568,191.23,2022-10-26 16:23:14.031250
1569,165.23,2022-10-26 16:23:14.046875
1570,132.75,2022-10-26 16:23:14.062500
1571,100.15,2022-10-26 16:23:14.078125
1572,74.62,2022-10-26 16:23:14.093750
1573,60.46,2022-10-26 16:23:14.109375
1574,56.6,2022-10-26 16:23:14.125000
1575,56.56,2022-10-26 16:23:14.140625
1576,51.08,2022-10-26 16:23:14.156250
1577,32.39,2022-10-26 16:23:14.171875
1578,-1.9,2022-10-26 16:23:14.187500
1579,-46.26,2022-10-26 16:23:14.203125
1580,-89.6,2022-10-26 16:23:14.218750
1581,-118.67,2022-10-26 16:23:14.234375
1582,-123.46,2022-10-26 16:23:14.250000
1583,-101.49,2022-10-26 16:23:14.265625
1584,-58.95,2022-10-26 16:23:14.281250
1585,-8.83,2022-10-26 16:23:14.296875
1586,33.92,2022-10-26 16:23:14.312500
1587,57.55,2022-10-26 16:23:14.328125
1588,57.34,2022-10-26 16:23:14.343750
1589,36.64,2022-10-26 16:23:14.359375
1590,4.88,2022-10-26 16:23:14.375000
1591,-26.07,2022-10-26 16:23:14.390625
1592,-45.85,2022-10-26 16:23:14.406250
1593,-48.92,2022-10-26 16:23:14.421875
1594,-35.32,2022-10-26 16:23:14.437500
1595,-10.01,2022-10-26 16:23:14.453125
1596,18.83,2022-10-26 16:23:14.468750
1597,43.61,2022-10-26 16:23:14.484375
1598,59.3,2022-10-26 16:23:14.500000
1599,65.12,2022-10-26 16:23:14.515625
1600,64.46,2022-10-26 16:23:14.531250
1601,62.16,2022-10-26 16:23:14.546875
1602,62.45,2022-10-26 16:23:14.562500
1603,66.73,2022-10-26 16:23:14.578125
1604,73.21,2022-10-26 16:23:14.593750
1605,77.45,2022-10-26 16:23:14.609375
1606,75.04,2022-10-26 16:23:14.625000
1607,63.71,2022-10-26 16:23:14.640625
1608,44.52,2022-10-26 16:23:14.656250
1609,21.52,2022-10-26 16:23:14.671875
1610,-0.08,2022-10-26 16:23:14.687500
1611,-15.56,2022-10-26 16:23:14.703125
1612,-21.81,2022-10-26 16:23:14.718750
1613,-17.14,2022-10-26 16:23:14.734375
1614,-1.47,2022-10-26 16:23:14.750000
1615,24.19,2022-10-26 16:23:14.765625
1616,57.17,2022-10-26 16:23:14.781250
1617,93.27,2022-10-26 16:23:14.796875
1618,128.31,2022-10-26 16:23:14.812500
1619,158.97,2022-10-26 16:23:14.828125
1620,184.28,2022-10-26 16:23:14.843750
1621,204.79,2022-10-26 16:23:14.859375
1622,221.48,2022-10-26 16:23:14.875000
1623,234.94,2022-10-26 16:23:14.890625
1624,245.2,2022-10-26 16:23:14.906250
1625,252.53,2022-10-26 16:23:14.921875
1626,259.08,2022-10-26 16:23:14.937500
1627,268.79,2022-10-26 16:23:14.953125
1628,285.59,2022-10-26 16:23:14.968750
1629,311.56,2022-10-26 16:23:14.984375
1630,344.48,2022-10-26 16:23:15.000000
1631,378.2,2022-10-26 16:23:15.015625
1632,405.25,2022-10-26 16:23:15.031250
1633,419.72,2022-10-26 16:23:15.046875
1634,419.72,2022-10-26 16:23:15.062500
1635,407.42,2022-10-26 16:23:15.078125
1636,387.45,2022-10-26 16:23:15.093750
1637,364.25,2022-10-26 16:23:15.109375
1638,340.55,2022-10-26 16:23:15.125000
1639,316.89,2022-10-26 16:23:15.140625
1640,292.26,2022-10-26 16:23:15.156250
1641,265.36,2022-10-26 16:23:15.171875
1642,236.01,2022-10-26 16:23:15.187500
1643,205.17,2022-10-26 16:23:15.203125
1644,174.84,2022-10-26 16:23:15.218750
1645,147.34,2022-10-26 16:23:15.234375
1646,124.05,2022-10-26 16:23:15.250000
1647,105.3,2022-10-26 16:23:15.265625
1648,90.75,2022-10-26 16:23:15.281250
1649,79.96,2022-10-26 16:23:15.296875
1650,73.42,2022-10-26 16:23:15.312500
1651,72.04,2022-10-26 16:23:15.328125
1652,77.07,2022-10-26 16:23:15.343750
1653,89.08,2022-10-26 16:23:15.359375
1654,107.06,2022-10-26 16:23:15.375000
1655,128.32,2022-10-26 16:23:15.390625
1656,149.0,2022-10-26 16:23:15.406250
1657,164.92,2022-10-26 16:23:15.421875
1658,172.33,2022-10-26 16:23:15.437500
1659,169.16,2022-10-26 16:23:15.453125
1660,154.97,2022-10-26 16:23:15.468750
1661,130.87,2022-10-26 16:23:15.484375
1662,99.09,2022-10-26 16:23:15.500000
1663,62.42,2022-10-26 16:23:15.515625
1664,23.59,2022-10-26 16:23:15.531250
1665,-14.91,2022-10-26 16:23:15.546875
1666,-50.95,2022-10-26 16:23:15.562500
1667,-82.7,2022-10-26 16:23:15.578125
1668,-108.79,2022-10-26 16:23:15.593750
1669,-128.3,2022-10-26 16:23:15.609375
1670,-140.91,2022-10-26 16:23:15.625000
1671,-147.04,2022-10-26 16:23:15.640625
1672,-147.69,2022-10-26 16:23:15.656250
1673,-144.35,2022-10-26 16:23:15.671875
1674,-138.63,2022-10-26 16:23:15.687500
1675,-131.82,2022-10-26 16:23:15.703125
1676,-124.74,2022-10-26 16:23:15.718750
1677,-117.44,2022-10-26 16:23:15.734375
1678,-109.43,2022-10-26 16:23:15.750000
1679,-99.76,2022-10-26 16:23:15.765625
1680,-87.44,2022-10-26 16:23:15.781250
1681,-71.6,2022-10-26 16:23:15.796875
1682,-51.77,2022-10-26 16:23:15.812500
1683,-28.08,2022-10-26 16:23:15.828125
1684,-1.27,2022-10-26 16:23:15.843750
1685,27.34,2022-10-26 16:23:15.859375
1686,55.96,2022-10-26 16:23:15.875000
1687,82.46,2022-10-26 16:23:15.890625
1688,104.57,2022-10-26 16:23:15.906250
1689,120.37,2022-10-26 16:23:15.921875
1690,128.4,2022-10-26 16:23:15.937500
1691,128.01,2022-10-26 16:23:15.953125
1692,119.43,2022-10-26 16:23:15.968750
1693,103.68,2022-10-26 16:23:15.984375
1694,82.43,2022-10-26 16:23:16.000000
1695,57.7,2022-10-26 16:23:16.015625
1696,31.52,2022-10-26 16:23:16.031250
1697,5.74,2022-10-26 16:23:16.046875
1698,-18.25,2022-10-26 16:23:16.062500
1699,-39.48,2022-10-26 16:23:16.078125
1700,-57.51,2022-10-26 16:23:16.093750
1701,-72.12,2022-10-26 16:23:16.109375
1702,-83.4,2022-10-26 16:23:16.125000
1703,-91.59,2022-10-26 16:23:16.140625
1704,-97.07,2022-10-26 16:23:16.156250
1705,-100.28,2022-10-26 16:23:16.171875
1706,-101.73,2022-10-26 16:23:16.187500
1707,-101.84,2022-10-26 16:23:16.203125
1708,-100.94,2022-10-26 16:23:16.218750
1709,-99.17,2022-10-26 16:23:16.234375
1710,-96.53,2022-10-26 16:23:16.250000
1711,-92.98,2022-10-26 16:23:16.265625
1712,-88.88,2022-10-26 16:23:16.281250
1713,-85.07,2022-10-26 16:23:16.296875
1714,-83.03,2022-10-26 16:23:16.312500
1715,-84.68,2022-10-26 16:23:16.328125
1716,-91.99,2022-10-26 16:23:16.343750
1717,-106.29,2022-10-26 16:23:16.359375
1718,-127.82,2022-10-26 16:23:16.375000
1719,-155.44,2022-10-26 16:23:16.390625
1720,-186.96,2022-10-26 16:23:16.406250
1721,-219.82,2022-10-26 16:23:16.421875
1722,-251.89,2022-10-26 16:23:16.437500
1723,-281.98,2022-10-26 16:23:16.453125
1724,-310.06,2022-10-26 16:23:16.468750
1725,-336.9,2022-10-26 16:23:16.484375
1726,-363.29,2022-10-26 16:23:16.500000
1727,-389.49,2022-10-26 16:23:16.515625
1728,-414.86,2022-10-26 16:23:16.531250
1729,-438.3,2022-10-26 16:23:16.546875
1730,-458.5,2022-10-26 16:23:16.562500
1731,-474.77,2022-10-26 16:23:16.578125
1732,-487.36,2022-10-26 16:23:16.593750
1733,-497.32,2022-10-26 16:23:16.609375
1734,-506.27,2022-10-26 16:23:16.625000
1735,-516.32,2022-10-26 16:23:16.640625
1736,-529.85,2022-10-26 16:23:16.656250
1737,-549.24,2022-10-26 16:23:16.671875
1738,-575.9,2022-10-26 16:23:16.687500
1739,-608.93,2022-10-26 16:23:16.703125
1740,-644.24,2022-10-26 16:23:16.718750
1741,-674.59,2022-10-26 16:23:16.734375
1742,-691.75,2022-10-26 16:23:16.750000
1743,-689.16,2022-10-26 16:23:16.765625
1744,-664.5,2022-10-26 16:23:16.781250
1745,-620.62,2022-10-26 16:23:16.796875
1746,-564.17,2022-10-26 16:23:16.812500
1747,-502.8,2022-10-26 16:23:16.828125
1748,-442.6,2022-10-26 16:23:16.843750
1749,-386.84,2022-10-26 16:23:16.859375
1750,-336.52,2022-10-26 16:23:16.875000
1751,-291.6,2022-10-26 16:23:16.890625
1752,-252.05,2022-10-26 16:23:16.906250
1753,-218.02,2022-10-26 16:23:16.921875
1754,-189.32,2022-10-26 16:23:16.937500
1755,-164.93,2022-10-26 16:23:16.953125
1756,-143.27,2022-10-26 16:23:16.968750
1757,-122.87,2022-10-26 16:23:16.984375
1758,-103.26,2022-10-26 16:23:17.000000
1759,-84.93,2022-10-26 16:23:17.015625
1760,-68.74,2022-10-26 16:23:17.031250
1761,-55.06,2022-10-26 16:23:17.046875
1762,-42.67,2022-10-26 16:23:17.062500
1763,-28.73,2022-10-26 16:23:17.078125
1764,-9.31,2022-10-26 16:23:17.093750
1765,19.72,2022-10-26 16:23:17.109375
1766,61.38,2022-10-26 16:23:17.125000
1767,116.11,2022-10-26 16:23:17.140625
1768,181.02,2022-10-26 16:23:17.156250
1769,249.96,2022-10-26 16:23:17.171875
1770,315.42,2022-10-26 16:23:17.187500
1771,371.01,2022-10-26 16:23:17.203125
1772,413.87,2022-10-26 16:23:17.218750
1773,446.08,2022-10-26 16:23:17.234375
1774,473.78,2022-10-26 16:23:17.250000
1775,504.67,2022-10-26 16:23:17.265625
1776,544.74,2022-10-26 16:23:17.281250
1777,595.53,2022-10-26 16:23:17.296875
1778,653.05,2022-10-26 16:23:17.312500
1779,708.94,2022-10-26 16:23:17.328125
1780,753.44,2022-10-26 16:23:17.343750
1781,778.66,2022-10-26 16:23:17.359375
1782,781.08,2022-10-26 16:23:17.375000
1783,761.98,2022-10-26 16:23:17.390625
1784,726.31,2022-10-26 16:23:17.406250
1785,680.16,2022-10-26 16:23:17.421875
1786,628.92,2022-10-26 16:23:17.437500
1787,575.88,2022-10-26 16:23:17.453125
1788,522.41,2022-10-26 16:23:17.468750
1789,469.02,2022-10-26 16:23:17.484375
1790,416.37,2022-10-26 16:23:17.500000
1791,365.61,2022-10-26 16:23:17.515625
1792,317.74,2022-10-26 16:23:17.531250
1793,273.09,2022-10-26 16:23:17.546875
1794,231.57,2022-10-26 16:23:17.562500
1795,193.16,2022-10-26 16:23:17.578125
1796,158.57,2022-10-26 16:23:17.593750
1797,129.46,2022-10-26 16:23:17.609375
1798,107.54,2022-10-26 16:23:17.625000
1799,93.36,2022-10-26 16:23:17.640625
1800,85.84,2022-10-26 16:23:17.656250
1801,82.31,2022-10-26 16:23:17.671875
1802,79.79,2022-10-26 16:23:17.687500
1803,76.0,2022-10-26 16:23:17.703125
1804,70.07,2022-10-26 16:23:17.718750
1805,62.63,2022-10-26 16:23:17.734375
1806,55.09,2022-10-26 16:23:17.750000
1807,48.98,2022-10-26 16:23:17.765625
1808,45.47,2022-10-26 16:23:17.781250
1809,45.07,2022-10-26 16:23:17.796875
1810,47.5,2022-10-26 16:23:17.812500
1811,51.49,2022-10-26 16:23:17.828125
1812,55.15,2022-10-26 16:23:17.843750
1813,56.37,2022-10-26 16:23:17.859375
1814,53.59,2022-10-26 16:23:17.875000
1815,46.5,2022-10-26 16:23:17.890625
1816,36.19,2022-10-26 16:23:17.906250
1817,24.49,2022-10-26 16:23:17.921875
1818,13.22,2022-10-26 16:23:17.937500
1819,3.31,2022-10-26 16:23:17.953125
1820,-5.7,2022-10-26 16:23:17.968750
1821,-15.21,2022-10-26 16:23:17.984375
1822,-26.92,2022-10-26 16:23:18.000000
1823,-42.16,2022-10-26 16:23:18.015625
1824,-61.31,2022-10-26 16:23:18.031250
1825,-84.16,2022-10-26 16:23:18.046875
1826,-109.92,2022-10-26 16:23:18.062500
1827,-137.43,2022-10-26 16:23:18.078125
1828,-165.62,2022-10-26 16:23:18.093750
1829,-193.7,2022-10-26 16:23:18.109375
1830,-221.85,2022-10-26 16:23:18.125000
1831,-251.79,2022-10-26 16:23:18.140625
1832,-286.84,2022-10-26 16:23:18.156250
1833,-330.45,2022-10-26 16:23:18.171875
1834,-383.34,2022-10-26 16:23:18.187500
1835,-441.14,2022-10-26 16:23:18.203125
1836,-494.43,2022-10-26 16:23:18.218750
1837,-531.63,2022-10-26 16:23:18.234375
1838,-544.42,2022-10-26 16:23:18.250000
1839,-532.15,2022-10-26 16:23:18.265625
1840,-503.17,2022-10-26 16:23:18.281250
1841,-471.63,2022-10-26 16:23:18.296875
1842,-451.62,2022-10-26 16:23:18.312500
1843,-451.96,2022-10-26 16:23:18.328125
1844,-473.92,2022-10-26 16:23:18.343750
1845,-512.06,2022-10-26 16:23:18.359375
1846,-557.3,2022-10-26 16:23:18.375000
1847,-599.82,2022-10-26 16:23:18.390625
1848,-631.03,2022-10-26 16:23:18.406250
1849,-644.16,2022-10-26 16:23:18.421875
1850,-635.33,2022-10-26 16:23:18.437500
1851,-603.46,2022-10-26 16:23:18.453125
1852,-550.65,2022-10-26 16:23:18.468750
1853,-481.54,2022-10-26 16:23:18.484375
1854,-401.42,2022-10-26 16:23:18.500000
1855,-314.24,2022-10-26 16:23:18.515625
1856,-222.38,2022-10-26 16:23:18.531250
1857,-127.53,2022-10-26 16:23:18.546875
1858,-32.37,2022-10-26 16:23:18.562500
1859,58.83,2022-10-26 16:23:18.578125
1860,140.77,2022-10-26 16:23:18.593750
1861,208.9,2022-10-26 16:23:18.609375
1862,259.88,2022-10-26 16:23:18.625000
1863,291.74,2022-10-26 16:23:18.640625
1864,302.87,2022-10-26 16:23:18.656250
1865,292.49,2022-10-26 16:23:18.671875
1866,261.69,2022-10-26 16:23:18.687500
1867,214.74,2022-10-26 16:23:18.703125
1868,158.3,2022-10-26 16:23:18.718750
1869,98.88,2022-10-26 16:23:18.734375
1870,39.78,2022-10-26 16:23:18.750000
1871,-19.68,2022-10-26 16:23:18.765625
1872,-82.36,2022-10-26 16:23:18.781250
1873,-148.92,2022-10-26 16:23:18.796875
1874,-214.64,2022-10-26 16:23:18.812500
1875,-269.65,2022-10-26 16:23:18.828125
1876,-302.96,2022-10-26 16:23:18.843750
1877,-308.07,2022-10-26 16:23:18.859375
1878,-286.27,2022-10-26 16:23:18.875000
1879,-246.39,2022-10-26 16:23:18.890625
1880,-200.67,2022-10-26 16:23:18.906250
1881,-159.5,2022-10-26 16:23:18.921875
1882,-128.65,2022-10-26 16:23:18.937500
1883,-109.14,2022-10-26 16:23:18.953125
1884,-98.94,2022-10-26 16:23:18.968750
1885,-95.43,2022-10-26 16:23:18.984375
1886,-96.5,2022-10-26 16:23:19.000000
1887,-100.6,2022-10-26 16:23:19.015625
1888,-106.63,2022-10-26 16:23:19.031250
1889,-113.66,2022-10-26 16:23:19.046875
1890,-120.9,2022-10-26 16:23:19.062500
1891,-127.96,2022-10-26 16:23:19.078125
1892,-134.71,2022-10-26 16:23:19.093750
1893,-141.48,2022-10-26 16:23:19.109375
1894,-149.47,2022-10-26 16:23:19.125000
1895,-160.45,2022-10-26 16:23:19.140625
1896,-176.39,2022-10-26 16:23:19.156250
1897,-198.32,2022-10-26 16:23:19.171875
1898,-225.62,2022-10-26 16:23:19.187500
1899,-255.59,2022-10-26 16:23:19.203125
1900,-284.25,2022-10-26 16:23:19.218750
1901,-307.77,2022-10-26 16:23:19.234375
1902,-323.63,2022-10-26 16:23:19.250000
1903,-331.02,2022-10-26 16:23:19.265625
1904,-330.75,2022-10-26 16:23:19.281250
1905,-324.11,2022-10-26 16:23:19.296875
1906,-312.11,2022-10-26 16:23:19.312500
1907,-294.86,2022-10-26 16:23:19.328125
1908,-271.69,2022-10-26 16:23:19.343750
1909,-241.82,2022-10-26 16:23:19.359375
1910,-204.96,2022-10-26 16:23:19.375000
1911,-161.73,2022-10-26 16:23:19.390625
1912,-113.63,2022-10-26 16:23:19.406250
1913,-62.92,2022-10-26 16:23:19.421875
1914,-11.87,2022-10-26 16:23:19.437500
1915,37.66,2022-10-26 16:23:19.453125
1916,84.51,2022-10-26 16:23:19.468750
1917,127.8,2022-10-26 16:23:19.484375
1918,166.79,2022-10-26 16:23:19.500000
1919,200.69,2022-10-26 16:23:19.515625
1920,228.52,2022-10-26 16:23:19.531250
1921,249.47,2022-10-26 16:23:19.546875
1922,263.26,2022-10-26 16:23:19.562500
1923,270.14,2022-10-26 16:23:19.578125
1924,270.93,2022-10-26 16:23:19.593750
1925,266.7,2022-10-26 16:23:19.609375
1926,258.45,2022-10-26 16:23:19.625000
1927,246.79,2022-10-26 16:23:19.640625
1928,232.15,2022-10-26 16:23:19.656250
1929,214.81,2022-10-26 16:23:19.671875
1930,195.35,2022-10-26 16:23:19.687500
1931,174.55,2022-10-26 16:23:19.703125
1932,153.79,2022-10-26 16:23:19.718750
1933,134.49,2022-10-26 16:23:19.734375
1934,118.28,2022-10-26 16:23:19.750000
1935,106.99,2022-10-26 16:23:19.765625
1936,101.97,2022-10-26 16:23:19.781250
1937,103.81,2022-10-26 16:23:19.796875
1938,111.33,2022-10-26 16:23:19.812500
1939,121.28,2022-10-26 16:23:19.828125
1940,128.81,2022-10-26 16:23:19.843750
1941,129.07,2022-10-26 16:23:19.859375
1942,119.22,2022-10-26 16:23:19.875000
1943,99.73,2022-10-26 16:23:19.890625
1944,74.26,2022-10-26 16:23:19.906250
1945,48.2,2022-10-26 16:23:19.921875
1946,26.5,2022-10-26 16:23:19.937500
1947,12.26,2022-10-26 16:23:19.953125
1948,6.8,2022-10-26 16:23:19.968750
1949,10.34,2022-10-26 16:23:19.984375
1950,22.62,2022-10-26 16:23:20.000000
1951,43.19,2022-10-26 16:23:20.015625
1952,70.63,2022-10-26 16:23:20.031250
1953,101.8,2022-10-26 16:23:20.046875
1954,131.84,2022-10-26 16:23:20.062500
1955,155.54,2022-10-26 16:23:20.078125
1956,168.62,2022-10-26 16:23:20.093750
1957,169.16,2022-10-26 16:23:20.109375
1958,157.75,2022-10-26 16:23:20.125000
1959,136.69,2022-10-26 16:23:20.140625
1960,109.37,2022-10-26 16:23:20.156250
1961,79.41,2022-10-26 16:23:20.171875
1962,50.57,2022-10-26 16:23:20.187500
1963,25.98,2022-10-26 16:23:20.203125
1964,7.33,2022-10-26 16:23:20.218750
1965,-5.84,2022-10-26 16:23:20.234375
1966,-15.46,2022-10-26 16:23:20.250000
1967,-23.21,2022-10-26 16:23:20.265625
1968,-28.84,2022-10-26 16:23:20.281250
1969,-29.2,2022-10-26 16:23:20.296875
1970,-20.15,2022-10-26 16:23:20.312500
1971,1.11,2022-10-26 16:23:20.328125
1972,34.07,2022-10-26 16:23:20.343750
1973,75.13,2022-10-26 16:23:20.359375
1974,119.16,2022-10-26 16:23:20.375000
1975,161.85,2022-10-26 16:23:20.390625
1976,199.82,2022-10-26 16:23:20.406250
1977,229.8,2022-10-26 16:23:20.421875
1978,247.5,2022-10-26 16:23:20.437500
1979,247.94,2022-10-26 16:23:20.453125
1980,227.57,2022-10-26 16:23:20.468750
1981,186.84,2022-10-26 16:23:20.484375
1982,130.62,2022-10-26 16:23:20.500000
1983,66.51,2022-10-26 16:23:20.515625
1984,2.25,2022-10-26 16:23:20.531250
1985,-56.08,2022-10-26 16:23:20.546875
1986,-104.41,2022-10-26 16:23:20.562500
1987,-139.0,2022-10-26 16:23:20.578125
1988,-156.09,2022-10-26 16:23:20.593750
1989,-152.96,2022-10-26 16:23:20.609375
1990,-129.81,2022-10-26 16:23:20.625000
1991,-91.17,2022-10-26 16:23:20.640625
1992,-44.84,2022-10-26 16:23:20.656250
1993,1.29,2022-10-26 16:23:20.671875
1994,41.35,2022-10-26 16:23:20.687500
1995,73.58,2022-10-26 16:23:20.703125
1996,99.42,2022-10-26 16:23:20.718750
1997,122.19,2022-10-26 16:23:20.734375
1998,145.12,2022-10-26 16:23:20.750000
1999,169.97,2022-10-26 16:23:20.765625
2000,195.9,2022-10-26 16:23:20.781250
2001,219.63,2022-10-26 16:23:20.796875
2002,236.36,2022-10-26 16:23:20.812500
2003,241.97,2022-10-26 16:23:20.828125
2004,235.14,2022-10-26 16:23:20.843750
2005,218.7,2022-10-26 16:23:20.859375
2006,198.3,2022-10-26 16:23:20.875000
2007,180.06,2022-10-26 16:23:20.890625
2008,168.7,2022-10-26 16:23:20.906250
2009,166.13,2022-10-26 16:23:20.921875
2010,171.32,2022-10-26 16:23:20.937500
2011,181.38,2022-10-26 16:23:20.953125
2012,192.03,2022-10-26 16:23:20.968750
2013,198.35,2022-10-26 16:23:20.984375
2014,196.4,2022-10-26 16:23:21.000000
2015,184.63,2022-10-26 16:23:21.015625
2016,164.68,2022-10-26 16:23:21.031250
2017,141.92,2022-10-26 16:23:21.046875
2018,122.75,2022-10-26 16:23:21.062500
2019,111.51,2022-10-26 16:23:21.078125
2020,108.42,2022-10-26 16:23:21.093750
2021,109.7,2022-10-26 16:23:21.109375
2022,110.88,2022-10-26 16:23:21.125000
2023,110.61,2022-10-26 16:23:21.140625
2024,112.15,2022-10-26 16:23:21.156250
2025,122.7,2022-10-26 16:23:21.171875
2026,148.36,2022-10-26 16:23:21.187500
2027,190.23,2022-10-26 16:23:21.203125
2028,241.5,2022-10-26 16:23:21.218750
2029,289.67,2022-10-26 16:23:21.234375
2030,321.17,2022-10-26 16:23:21.250000
2031,327.3,2022-10-26 16:23:21.265625
2032,307.93,2022-10-26 16:23:21.281250
2033,271.74,2022-10-26 16:23:21.296875
2034,231.73,2022-10-26 16:23:21.312500
2035,199.33,2022-10-26 16:23:21.328125
2036,179.83,2022-10-26 16:23:21.343750
2037,171.48,2022-10-26 16:23:21.359375
2038,169.16,2022-10-26 16:23:21.375000
2039,167.36,2022-10-26 16:23:21.390625
2040,163.25,2022-10-26 16:23:21.406250
2041,156.35,2022-10-26 16:23:21.421875
2042,145.92,2022-10-26 16:23:21.437500
2043,130.34,2022-10-26 16:23:21.453125
2044,107.61,2022-10-26 16:23:21.468750
2045,77.71,2022-10-26 16:23:21.484375
2046,44.0,2022-10-26 16:23:21.500000
2047,12.65,2022-10-26 16:23:21.515625
2048,-11.13,2022-10-26 16:23:21.531250
2049,-26.28,2022-10-26 16:23:21.546875
2050,-37.14,2022-10-26 16:23:21.562500
2051,-50.72,2022-10-26 16:23:21.578125
2052,-72.3,2022-10-26 16:23:21.593750
2053,-102.56,2022-10-26 16:23:21.609375
2054,-137.12,2022-10-26 16:23:21.625000
2055,-169.07,2022-10-26 16:23:21.640625
2056,-192.05,2022-10-26 16:23:21.656250
2057,-202.07,2022-10-26 16:23:21.671875
2058,-198.19,2022-10-26 16:23:21.687500
2059,-182.29,2022-10-26 16:23:21.703125
2060,-159.37,2022-10-26 16:23:21.718750
2061,-137.63,2022-10-26 16:23:21.734375
2062,-127.16,2022-10-26 16:23:21.750000
2063,-136.58,2022-10-26 16:23:21.765625
2064,-169.04,2022-10-26 16:23:21.781250
2065,-219.43,2022-10-26 16:23:21.796875
2066,-276.22,2022-10-26 16:23:21.812500
2067,-325.55,2022-10-26 16:23:21.828125
2068,-356.77,2022-10-26 16:23:21.843750
2069,-365.6,2022-10-26 16:23:21.859375
2070,-353.26,2022-10-26 16:23:21.875000
2071,-323.72,2022-10-26 16:23:21.890625
2072,-281.38,2022-10-26 16:23:21.906250
2073,-230.62,2022-10-26 16:23:21.921875
2074,-176.76,2022-10-26 16:23:21.937500
2075,-126.54,2022-10-26 16:23:21.953125
2076,-86.89,2022-10-26 16:23:21.968750
2077,-61.07,2022-10-26 16:23:21.984375
2078,-46.81,2022-10-26 16:23:22.000000
2079,-36.45,2022-10-26 16:23:22.015625
2080,-21.22,2022-10-26 16:23:22.031250
2081,4.33,2022-10-26 16:23:22.046875
2082,39.72,2022-10-26 16:23:22.062500
2083,79.71,2022-10-26 16:23:22.078125
2084,117.64,2022-10-26 16:23:22.093750
2085,148.99,2022-10-26 16:23:22.109375
2086,172.53,2022-10-26 16:23:22.125000
2087,188.49,2022-10-26 16:23:22.140625
2088,196.34,2022-10-26 16:23:22.156250
2089,194.34,2022-10-26 16:23:22.171875
2090,181.38,2022-10-26 16:23:22.187500
2091,159.08,2022-10-26 16:23:22.203125
2092,133.02,2022-10-26 16:23:22.218750
2093,110.4,2022-10-26 16:23:22.234375
2094,96.65,2022-10-26 16:23:22.250000
2095,92.02,2022-10-26 16:23:22.265625
2096,91.47,2022-10-26 16:23:22.281250
2097,87.88,2022-10-26 16:23:22.296875
2098,75.65,2022-10-26 16:23:22.312500
2099,53.73,2022-10-26 16:23:22.328125
2100,25.06,2022-10-26 16:23:22.343750
2101,-5.28,2022-10-26 16:23:22.359375
2102,-33.65,2022-10-26 16:23:22.375000
2103,-58.89,2022-10-26 16:23:22.390625
2104,-82.28,2022-10-26 16:23:22.406250
2105,-105.96,2022-10-26 16:23:22.421875
2106,-130.07,2022-10-26 16:23:22.437500
2107,-151.5,2022-10-26 16:23:22.453125
2108,-163.87,2022-10-26 16:23:22.468750
2109,-160.23,2022-10-26 16:23:22.484375
2110,-136.57,2022-10-26 16:23:22.500000
2111,-94.73,2022-10-26 16:23:22.515625
2112,-42.95,2022-10-26 16:23:22.531250
2113,6.42,2022-10-26 16:23:22.546875
2114,41.73,2022-10-26 16:23:22.562500
2115,56.77,2022-10-26 16:23:22.578125
2116,51.02,2022-10-26 16:23:22.593750
2117,28.51,2022-10-26 16:23:22.609375
2118,-6.22,2022-10-26 16:23:22.625000
2119,-49.48,2022-10-26 16:23:22.640625
2120,-97.9,2022-10-26 16:23:22.656250
2121,-146.65,2022-10-26 16:23:22.671875
2122,-188.15,2022-10-26 16:23:22.687500
2123,-213.97,2022-10-26 16:23:22.703125
2124,-218.53,2022-10-26 16:23:22.718750
2125,-203.35,2022-10-26 16:23:22.734375
2126,-175.71,2022-10-26 16:23:22.750000
2127,-145.47,2022-10-26 16:23:22.765625
2128,-120.04,2022-10-26 16:23:22.781250
2129,-101.57,2022-10-26 16:23:22.796875
2130,-88.24,2022-10-26 16:23:22.812500
2131,-77.22,2022-10-26 16:23:22.828125
2132,-67.9,2022-10-26 16:23:22.843750
2133,-61.77,2022-10-26 16:23:22.859375
2134,-60.72,2022-10-26 16:23:22.875000
2135,-64.07,2022-10-26 16:23:22.890625
2136,-68.47,2022-10-26 16:23:22.906250
2137,-69.0,2022-10-26 16:23:22.921875
2138,-61.84,2022-10-26 16:23:22.937500
2139,-46.33,2022-10-26 16:23:22.953125
2140,-24.53,2022-10-26 16:23:22.968750
2141,-0.02,2022-10-26 16:23:22.984375
2142,23.98,2022-10-26 16:23:23.000000
2143,44.94,2022-10-26 16:23:23.015625
2144,61.12,2022-10-26 16:23:23.031250
2145,71.83,2022-10-26 16:23:23.046875
2146,77.03,2022-10-26 16:23:23.062500
2147,77.92,2022-10-26 16:23:23.078125
2148,75.63,2022-10-26 16:23:23.093750
2149,70.26,2022-10-26 16:23:23.109375
2150,59.3,2022-10-26 16:23:23.125000
2151,38.87,2022-10-26 16:23:23.140625
2152,5.93,2022-10-26 16:23:23.156250
2153,-38.88,2022-10-26 16:23:23.171875
2154,-90.04,2022-10-26 16:23:23.187500
2155,-137.9,2022-10-26 16:23:23.203125
2156,-172.11,2022-10-26 16:23:23.218750
2157,-186.84,2022-10-26 16:23:23.234375
2158,-182.69,2022-10-26 16:23:23.250000
2159,-166.67,2022-10-26 16:23:23.265625
2160,-149.35,2022-10-26 16:23:23.281250
2161,-140.12,2022-10-26 16:23:23.296875
2162,-144.53,2022-10-26 16:23:23.312500
2163,-162.34,2022-10-26 16:23:23.328125
2164,-188.61,2022-10-26 16:23:23.343750
2165,-214.77,2022-10-26 16:23:23.359375
2166,-231.27,2022-10-26 16:23:23.375000
2167,-229.87,2022-10-26 16:23:23.390625
2168,-206.77,2022-10-26 16:23:23.406250
2169,-163.68,2022-10-26 16:23:23.421875
2170,-107.53,2022-10-26 16:23:23.437500
2171,-47.88,2022-10-26 16:23:23.453125
2172,7.16,2022-10-26 16:23:23.468750
2173,53.69,2022-10-26 16:23:23.484375
2174,92.77,2022-10-26 16:23:23.500000
2175,128.9,2022-10-26 16:23:23.515625
2176,166.85,2022-10-26 16:23:23.531250
2177,209.31,2022-10-26 16:23:23.546875
2178,255.52,2022-10-26 16:23:23.562500
2179,302.01,2022-10-26 16:23:23.578125
2180,344.25,2022-10-26 16:23:23.593750
2181,377.59,2022-10-26 16:23:23.609375
2182,397.83,2022-10-26 16:23:23.625000
2183,402.48,2022-10-26 16:23:23.640625
2184,391.19,2022-10-26 16:23:23.656250
2185,366.88,2022-10-26 16:23:23.671875
2186,335.19,2022-10-26 16:23:23.687500
2187,303.43,2022-10-26 16:23:23.703125
2188,278.67,2022-10-26 16:23:23.718750
2189,265.1,2022-10-26 16:23:23.734375
2190,262.39,2022-10-26 16:23:23.750000
2191,266.38,2022-10-26 16:23:23.765625
2192,270.5,2022-10-26 16:23:23.781250
2193,268.45,2022-10-26 16:23:23.796875
2194,255.86,2022-10-26 16:23:23.812500
2195,231.19,2022-10-26 16:23:23.828125
2196,195.67,2022-10-26 16:23:23.843750
2197,152.68,2022-10-26 16:23:23.859375
2198,107.26,2022-10-26 16:23:23.875000
2199,65.68,2022-10-26 16:23:23.890625
2200,33.62,2022-10-26 16:23:23.906250
2201,14.64,2022-10-26 16:23:23.921875
2202,8.27,2022-10-26 16:23:23.937500
2203,9.65,2022-10-26 16:23:23.953125
2204,11.57,2022-10-26 16:23:23.968750
2205,7.85,2022-10-26 16:23:23.984375
2206,-3.81,2022-10-26 16:23:24.000000
2207,-20.78,2022-10-26 16:23:24.015625
2208,-36.85,2022-10-26 16:23:24.031250
2209,-45.24,2022-10-26 16:23:24.046875
2210,-41.51,2022-10-26 16:23:24.062500
2211,-25.0,2022-10-26 16:23:24.078125
2212,1.63,2022-10-26 16:23:24.093750
2213,33.49,2022-10-26 16:23:24.109375
2214,63.63,2022-10-26 16:23:24.125000
2215,83.6,2022-10-26 16:23:24.140625
2216,84.14,2022-10-26 16:23:24.156250
2217,57.9,2022-10-26 16:23:24.171875
2218,2.93,2022-10-26 16:23:24.187500
2219,-74.5,2022-10-26 16:23:24.203125
2220,-160.77,2022-10-26 16:23:24.218750
2221,-238.87,2022-10-26 16:23:24.234375
2222,-294.38,2022-10-26 16:23:24.250000
2223,-320.15,2022-10-26 16:23:24.265625
2224,-317.31,2022-10-26 16:23:24.281250
2225,-293.71,2022-10-26 16:23:24.296875
2226,-259.05,2022-10-26 16:23:24.312500
2227,-220.88,2022-10-26 16:23:24.328125
2228,-181.93,2022-10-26 16:23:24.343750
2229,-141.44,2022-10-26 16:23:24.359375
2230,-97.73,2022-10-26 16:23:24.375000
2231,-50.49,2022-10-26 16:23:24.390625
2232,-2.78,2022-10-26 16:23:24.406250
2233,39.99,2022-10-26 16:23:24.421875
2234,72.88,2022-10-26 16:23:24.437500
2235,93.75,2022-10-26 16:23:24.453125
2236,104.15,2022-10-26 16:23:24.468750
2237,108.44,2022-10-26 16:23:24.484375
2238,110.97,2022-10-26 16:23:24.500000
2239,113.87,2022-10-26 16:23:24.515625
2240,116.32,2022-10-26 16:23:24.531250
2241,115.98,2022-10-26 16:23:24.546875
2242,111.08,2022-10-26 16:23:24.562500
2243,101.55,2022-10-26 16:23:24.578125
2244,89.22,2022-10-26 16:23:24.593750
2245,76.81,2022-10-26 16:23:24.609375
2246,66.8,2022-10-26 16:23:24.625000
2247,61.14,2022-10-26 16:23:24.640625
2248,61.11,2022-10-26 16:23:24.656250
2249,67.11,2022-10-26 16:23:24.671875
2250,77.22,2022-10-26 16:23:24.687500
2251,87.58,2022-10-26 16:23:24.703125
2252,93.13,2022-10-26 16:23:24.718750
2253,89.96,2022-10-26 16:23:24.734375
2254,78.0,2022-10-26 16:23:24.750000
2255,61.42,2022-10-26 16:23:24.765625
2256,46.84,2022-10-26 16:23:24.781250
2257,39.98,2022-10-26 16:23:24.796875
2258,42.49,2022-10-26 16:23:24.812500
2259,50.37,2022-10-26 16:23:24.828125
2260,56.23,2022-10-26 16:23:24.843750
2261,52.49,2022-10-26 16:23:24.859375
2262,34.77,2022-10-26 16:23:24.875000
2263,3.81,2022-10-26 16:23:24.890625
2264,-35.18,2022-10-26 16:23:24.906250
2265,-75.56,2022-10-26 16:23:24.921875
2266,-110.52,2022-10-26 16:23:24.937500
2267,-135.31,2022-10-26 16:23:24.953125
2268,-148.03,2022-10-26 16:23:24.968750
2269,-149.67,2022-10-26 16:23:24.984375
2270,-144.53,2022-10-26 16:23:25.000000
2271,-139.17,2022-10-26 16:23:25.015625
2272,-140.91,2022-10-26 16:23:25.031250
2273,-154.52,2022-10-26 16:23:25.046875
2274,-180.49,2022-10-26 16:23:25.062500
2275,-213.96,2022-10-26 16:23:25.078125
2276,-246.55,2022-10-26 16:23:25.093750
2277,-269.93,2022-10-26 16:23:25.109375
2278,-279.0,2022-10-26 16:23:25.125000
2279,-273.92,2022-10-26 16:23:25.140625
2280,-258.68,2022-10-26 16:23:25.156250
2281,-237.8,2022-10-26 16:23:25.171875
2282,-213.87,2022-10-26 16:23:25.187500
2283,-185.95,2022-10-26 16:23:25.203125
2284,-151.4,2022-10-26 16:23:25.218750
2285,-108.37,2022-10-26 16:23:25.234375
2286,-57.43,2022-10-26 16:23:25.250000
2287,-1.58,2022-10-26 16:23:25.265625
2288,54.13,2022-10-26 16:23:25.281250
2289,104.18,2022-10-26 16:23:25.296875
2290,143.58,2022-10-26 16:23:25.312500
2291,168.43,2022-10-26 16:23:25.328125
2292,176.94,2022-10-26 16:23:25.343750
2293,170.86,2022-10-26 16:23:25.359375
2294,155.92,2022-10-26 16:23:25.375000
2295,140.96,2022-10-26 16:23:25.390625
2296,134.82,2022-10-26 16:23:25.406250
2297,141.26,2022-10-26 16:23:25.421875
2298,156.91,2022-10-26 16:23:25.437500
2299,171.76,2022-10-26 16:23:25.453125
2300,175.0,2022-10-26 16:23:25.468750
2301,161.45,2022-10-26 16:23:25.484375
2302,134.85,2022-10-26 16:23:25.500000
2303,105.94,2022-10-26 16:23:25.515625
2304,85.54,2022-10-26 16:23:25.531250
2305,78.18,2022-10-26 16:23:25.546875
2306,79.31,2022-10-26 16:23:25.562500
2307,79.82,2022-10-26 16:23:25.578125
2308,72.58,2022-10-26 16:23:25.593750
2309,57.89,2022-10-26 16:23:25.609375
2310,43.07,2022-10-26 16:23:25.625000
2311,36.81,2022-10-26 16:23:25.640625
2312,42.42,2022-10-26 16:23:25.656250
2313,55.91,2022-10-26 16:23:25.671875
2314,68.95,2022-10-26 16:23:25.687500
2315,75.08,2022-10-26 16:23:25.703125
2316,73.95,2022-10-26 16:23:25.718750
2317,70.04,2022-10-26 16:23:25.734375
2318,67.78,2022-10-26 16:23:25.750000
2319,66.71,2022-10-26 16:23:25.765625
2320,60.62,2022-10-26 16:23:25.781250
2321,41.54,2022-10-26 16:23:25.796875
2322,6.14,2022-10-26 16:23:25.812500
2323,-40.1,2022-10-26 16:23:25.828125
2324,-85.28,2022-10-26 16:23:25.843750
2325,-116.73,2022-10-26 16:23:25.859375
2326,-128.02,2022-10-26 16:23:25.875000
2327,-121.47,2022-10-26 16:23:25.890625
2328,-106.06,2022-10-26 16:23:25.906250
2329,-92.32,2022-10-26 16:23:25.921875
2330,-87.66,2022-10-26 16:23:25.937500
2331,-94.93,2022-10-26 16:23:25.953125
2332,-113.08,2022-10-26 16:23:25.968750
2333,-139.82,2022-10-26 16:23:25.984375
2334,-172.47,2022-10-26 16:23:26.000000
2335,-207.36,2022-10-26 16:23:26.015625
2336,-239.18,2022-10-26 16:23:26.031250
2337,-260.86,2022-10-26 16:23:26.046875
2338,-266.2,2022-10-26 16:23:26.062500
2339,-252.72,2022-10-26 16:23:26.078125
2340,-223.74,2022-10-26 16:23:26.093750
2341,-187.28,2022-10-26 16:23:26.109375
2342,-153.8,2022-10-26 16:23:26.125000
2343,-131.45,2022-10-26 16:23:26.140625
2344,-123.89,2022-10-26 16:23:26.156250
2345,-129.62,2022-10-26 16:23:26.171875
2346,-143.29,2022-10-26 16:23:26.187500
2347,-158.49,2022-10-26 16:23:26.203125
2348,-169.29,2022-10-26 16:23:26.218750
2349,-170.99,2022-10-26 16:23:26.234375
2350,-160.75,2022-10-26 16:23:26.250000
2351,-137.88,2022-10-26 16:23:26.265625
2352,-104.07,2022-10-26 16:23:26.281250
2353,-63.83,2022-10-26 16:23:26.296875
2354,-23.43,2022-10-26 16:23:26.312500
2355,11.42,2022-10-26 16:23:26.328125
2356,38.0,2022-10-26 16:23:26.343750
2357,57.16,2022-10-26 16:23:26.359375
2358,72.95,2022-10-26 16:23:26.375000
2359,90.43,2022-10-26 16:23:26.390625
2360,113.49,2022-10-26 16:23:26.406250
2361,144.17,2022-10-26 16:23:26.421875
2362,181.68,2022-10-26 16:23:26.437500
2363,222.07,2022-10-26 16:23:26.453125
2364,259.3,2022-10-26 16:23:26.468750
2365,285.5,2022-10-26 16:23:26.484375
2366,293.39,2022-10-26 16:23:26.500000
2367,278.65,2022-10-26 16:23:26.515625
2368,242.09,2022-10-26 16:23:26.531250
2369,190.4,2022-10-26 16:23:26.546875
2370,135.08,2022-10-26 16:23:26.562500
2371,88.91,2022-10-26 16:23:26.578125
2372,61.71,2022-10-26 16:23:26.593750
2373,57.39,2022-10-26 16:23:26.609375
2374,72.37,2022-10-26 16:23:26.625000
2375,96.81,2022-10-26 16:23:26.640625
2376,117.83,2022-10-26 16:23:26.656250
2377,123.35,2022-10-26 16:23:26.671875
2378,106.55,2022-10-26 16:23:26.687500
2379,68.78,2022-10-26 16:23:26.703125
2380,18.96,2022-10-26 16:23:26.718750
2381,-29.28,2022-10-26 16:23:26.734375
2382,-64.11,2022-10-26 16:23:26.750000
2383,-80.28,2022-10-26 16:23:26.765625
2384,-80.89,2022-10-26 16:23:26.781250
2385,-73.9,2022-10-26 16:23:26.796875
2386,-67.68,2022-10-26 16:23:26.812500
2387,-66.88,2022-10-26 16:23:26.828125
2388,-71.78,2022-10-26 16:23:26.843750
2389,-80.75,2022-10-26 16:23:26.859375
2390,-92.22,2022-10-26 16:23:26.875000
2391,-105.73,2022-10-26 16:23:26.890625
2392,-120.45,2022-10-26 16:23:26.906250
2393,-133.31,2022-10-26 16:23:26.921875
2394,-139.16,2022-10-26 16:23:26.937500
2395,-132.63,2022-10-26 16:23:26.953125
2396,-111.57,2022-10-26 16:23:26.968750
2397,-79.3,2022-10-26 16:23:26.984375
2398,-43.71,2022-10-26 16:23:27.000000
2399,-14.3,2022-10-26 16:23:27.015625
2400,2.14,2022-10-26 16:23:27.031250
2401,3.78,2022-10-26 16:23:27.046875
2402,-6.32,2022-10-26 16:23:27.062500
2403,-22.74,2022-10-26 16:23:27.078125
2404,-40.69,2022-10-26 16:23:27.093750
2405,-58.34,2022-10-26 16:23:27.109375
2406,-76.55,2022-10-26 16:23:27.125000
2407,-97.38,2022-10-26 16:23:27.140625
2408,-121.06,2022-10-26 16:23:27.156250
2409,-144.19,2022-10-26 16:23:27.171875
2410,-159.62,2022-10-26 16:23:27.187500
2411,-158.73,2022-10-26 16:23:27.203125
2412,-135.96,2022-10-26 16:23:27.218750
2413,-91.61,2022-10-26 16:23:27.234375
2414,-32.75,2022-10-26 16:23:27.250000
2415,29.68,2022-10-26 16:23:27.265625
2416,85.25,2022-10-26 16:23:27.281250
2417,127.9,2022-10-26 16:23:27.296875
2418,156.44,2022-10-26 16:23:27.312500
2419,172.99,2022-10-26 16:23:27.328125
2420,179.72,2022-10-26 16:23:27.343750
2421,176.87,2022-10-26 16:23:27.359375
2422,163.51,2022-10-26 16:23:27.375000
2423,139.19,2022-10-26 16:23:27.390625
2424,106.39,2022-10-26 16:23:27.406250
2425,70.22,2022-10-26 16:23:27.421875
2426,35.69,2022-10-26 16:23:27.437500
2427,5.2,2022-10-26 16:23:27.453125
2428,-22.02,2022-10-26 16:23:27.468750
2429,-48.87,2022-10-26 16:23:27.484375
2430,-76.43,2022-10-26 16:23:27.500000
2431,-101.45,2022-10-26 16:23:27.515625
2432,-117.04,2022-10-26 16:23:27.531250
2433,-115.66,2022-10-26 16:23:27.546875
2434,-93.42,2022-10-26 16:23:27.562500
2435,-53.08,2022-10-26 16:23:27.578125
2436,-3.31,2022-10-26 16:23:27.593750
2437,44.03,2022-10-26 16:23:27.609375
2438,78.48,2022-10-26 16:23:27.625000
2439,93.79,2022-10-26 16:23:27.640625
2440,89.87,2022-10-26 16:23:27.656250
2441,71.7,2022-10-26 16:23:27.671875
2442,46.89,2022-10-26 16:23:27.687500
2443,23.26,2022-10-26 16:23:27.703125
2444,5.62,2022-10-26 16:23:27.718750
2445,-4.96,2022-10-26 16:23:27.734375
2446,-10.39,2022-10-26 16:23:27.750000
2447,-14.16,2022-10-26 16:23:27.765625
2448,-17.99,2022-10-26 16:23:27.781250
2449,-20.54,2022-10-26 16:23:27.796875
2450,-17.91,2022-10-26 16:23:27.812500
2451,-6.1,2022-10-26 16:23:27.828125
2452,15.96,2022-10-26 16:23:27.843750
2453,44.84,2022-10-26 16:23:27.859375
2454,73.39,2022-10-26 16:23:27.875000
2455,94.01,2022-10-26 16:23:27.890625
2456,102.36,2022-10-26 16:23:27.906250
2457,100.18,2022-10-26 16:23:27.921875
2458,94.56,2022-10-26 16:23:27.937500
2459,93.61,2022-10-26 16:23:27.953125
2460,102.41,2022-10-26 16:23:27.968750
2461,119.86,2022-10-26 16:23:27.984375
2462,139.22,2022-10-26 16:23:28.000000
2463,152.01,2022-10-26 16:23:28.015625
2464,152.96,2022-10-26 16:23:28.031250
2465,142.46,2022-10-26 16:23:28.046875
2466,126.26,2022-10-26 16:23:28.062500
2467,111.85,2022-10-26 16:23:28.078125
2468,103.56,2022-10-26 16:23:28.093750
2469,100.18,2022-10-26 16:23:28.109375
2470,96.43,2022-10-26 16:23:28.125000
2471,86.21,2022-10-26 16:23:28.140625
2472,66.83,2022-10-26 16:23:28.156250
2473,40.64,2022-10-26 16:23:28.171875
2474,13.53,2022-10-26 16:23:28.187500
2475,-8.59,2022-10-26 16:23:28.203125
2476,-23.22,2022-10-26 16:23:28.218750
2477,-32.75,2022-10-26 16:23:28.234375
2478,-41.5,2022-10-26 16:23:28.250000
2479,-52.91,2022-10-26 16:23:28.265625
2480,-65.88,2022-10-26 16:23:28.281250
2481,-74.38,2022-10-26 16:23:28.296875
2482,-70.19,2022-10-26 16:23:28.312500
2483,-47.16,2022-10-26 16:23:28.328125
2484,-5.02,2022-10-26 16:23:28.343750
2485,50.74,2022-10-26 16:23:28.359375
2486,110.85,2022-10-26 16:23:28.375000
2487,166.78,2022-10-26 16:23:28.390625
2488,213.93,2022-10-26 16:23:28.406250
2489,251.92,2022-10-26 16:23:28.421875
2490,282.02,2022-10-26 16:23:28.437500
2491,303.94,2022-10-26 16:23:28.453125
2492,313.95,2022-10-26 16:23:28.468750
2493,306.63,2022-10-26 16:23:28.484375
2494,278.41,2022-10-26 16:23:28.500000
2495,229.9,2022-10-26 16:23:28.515625
2496,167.2,2022-10-26 16:23:28.531250
2497,98.45,2022-10-26 16:23:28.546875
2498,29.38,2022-10-26 16:23:28.562500
2499,-37.83,2022-10-26 16:23:28.578125
2500,-104.18,2022-10-26 16:23:28.593750
2501,-170.06,2022-10-26 16:23:28.609375
2502,-232.21,2022-10-26 16:23:28.625000
2503,-283.31,2022-10-26 16:23:28.640625
2504,-314.82,2022-10-26 16:23:28.656250
2505,-321.52,2022-10-26 16:23:28.671875
2506,-304.27,2022-10-26 16:23:28.687500
2507,-270.41,2022-10-26 16:23:28.703125
2508,-230.19,2022-10-26 16:23:28.718750
2509,-192.49,2022-10-26 16:23:28.734375
2510,-161.65,2022-10-26 16:23:28.750000
2511,-137.86,2022-10-26 16:23:28.765625
2512,-119.71,2022-10-26 16:23:28.781250
2513,-106.58,2022-10-26 16:23:28.796875
2514,-99.31,2022-10-26 16:23:28.812500
2515,-98.02,2022-10-26 16:23:28.828125
2516,-101.21,2022-10-26 16:23:28.843750
2517,-104.82,2022-10-26 16:23:28.859375
2518,-104.53,2022-10-26 16:23:28.875000
2519,-99.52,2022-10-26 16:23:28.890625
2520,-92.71,2022-10-26 16:23:28.906250
2521,-89.25,2022-10-26 16:23:28.921875
2522,-92.64,2022-10-26 16:23:28.937500
2523,-101.23,2022-10-26 16:23:28.953125
2524,-108.33,2022-10-26 16:23:28.968750
2525,-105.92,2022-10-26 16:23:28.984375
2526,-88.68,2022-10-26 16:23:29.000000
2527,-57.58,2022-10-26 16:23:29.015625
2528,-18.85,2022-10-26 16:23:29.031250
2529,19.78,2022-10-26 16:23:29.046875
2530,52.08,2022-10-26 16:23:29.062500
2531,75.43,2022-10-26 16:23:29.078125
2532,89.98,2022-10-26 16:23:29.093750
2533,97.99,2022-10-26 16:23:29.109375
2534,102.16,2022-10-26 16:23:29.125000
2535,105.01,2022-10-26 16:23:29.140625
2536,108.4,2022-10-26 16:23:29.156250
2537,112.66,2022-10-26 16:23:29.171875
2538,116.43,2022-10-26 16:23:29.187500
2539,117.7,2022-10-26 16:23:29.203125
2540,114.78,2022-10-26 16:23:29.218750
2541,107.64,2022-10-26 16:23:29.234375
2542,98.1,2022-10-26 16:23:29.250000
2543,88.18,2022-10-26 16:23:29.265625
2544,78.27,2022-10-26 16:23:29.281250
2545,65.96,2022-10-26 16:23:29.296875
2546,47.7,2022-10-26 16:23:29.312500
2547,21.8,2022-10-26 16:23:29.328125
2548,-9.6,2022-10-26 16:23:29.343750
2549,-40.61,2022-10-26 16:23:29.359375
2550,-63.93,2022-10-26 16:23:29.375000
2551,-74.61,2022-10-26 16:23:29.390625
2552,-71.98,2022-10-26 16:23:29.406250
2553,-58.86,2022-10-26 16:23:29.421875
2554,-39.48,2022-10-26 16:23:29.437500
2555,-17.35,2022-10-26 16:23:29.453125
2556,5.09,2022-10-26 16:23:29.468750
2557,25.35,2022-10-26 16:23:29.484375
2558,40.51,2022-10-26 16:23:29.500000
2559,47.18,2022-10-26 16:23:29.515625
2560,42.57,2022-10-26 16:23:29.531250
2561,26.82,2022-10-26 16:23:29.546875
2562,3.75,2022-10-26 16:23:29.562500
2563,-20.59,2022-10-26 16:23:29.578125
2564,-41.36,2022-10-26 16:23:29.593750
2565,-57.38,2022-10-26 16:23:29.609375
2566,-71.85,2022-10-26 16:23:29.625000
2567,-89.62,2022-10-26 16:23:29.640625
2568,-112.42,2022-10-26 16:23:29.656250
2569,-136.46,2022-10-26 16:23:29.671875
2570,-153.58,2022-10-26 16:23:29.687500
2571,-155.45,2022-10-26 16:23:29.703125
2572,-139.78,2022-10-26 16:23:29.718750
2573,-113.11,2022-10-26 16:23:29.734375
2574,-88.23,2022-10-26 16:23:29.750000
2575,-79.28,2022-10-26 16:23:29.765625
2576,-94.46,2022-10-26 16:23:29.781250
2577,-132.42,2022-10-26 16:23:29.796875
2578,-183.09,2022-10-26 16:23:29.812500
2579,-232.17,2022-10-26 16:23:29.828125
2580,-267.45,2022-10-26 16:23:29.843750
2581,-283.38,2022-10-26 16:23:29.859375
2582,-281.87,2022-10-26 16:23:29.875000
2583,-269.4,2022-10-26 16:23:29.890625
2584,-253.2,2022-10-26 16:23:29.906250
2585,-237.85,2022-10-26 16:23:29.921875
2586,-224.72,2022-10-26 16:23:29.937500
2587,-212.75,2022-10-26 16:23:29.953125
2588,-200.37,2022-10-26 16:23:29.968750
2589,-187.02,2022-10-26 16:23:29.984375
2590,-173.18,2022-10-26 16:23:30.000000
2591,-159.58,2022-10-26 16:23:30.015625
2592,-145.67,2022-10-26 16:23:30.031250
2593,-129.78,2022-10-26 16:23:30.046875
2594,-109.79,2022-10-26 16:23:30.062500
2595,-85.27,2022-10-26 16:23:30.078125
2596,-59.24,2022-10-26 16:23:30.093750
2597,-37.66,2022-10-26 16:23:30.109375
2598,-27.19,2022-10-26 16:23:30.125000
2599,-31.66,2022-10-26 16:23:30.140625
2600,-50.21,2022-10-26 16:23:30.156250
2601,-77.65,2022-10-26 16:23:30.171875
2602,-106.75,2022-10-26 16:23:30.187500
2603,-130.99,2022-10-26 16:23:30.203125
2604,-146.2,2022-10-26 16:23:30.218750
2605,-150.89,2022-10-26 16:23:30.234375
2606,-144.87,2022-10-26 16:23:30.250000
2607,-129.01,2022-10-26 16:23:30.265625
2608,-104.74,2022-10-26 16:23:30.281250
2609,-74.13,2022-10-26 16:23:30.296875
2610,-39.41,2022-10-26 16:23:30.312500
2611,-2.06,2022-10-26 16:23:30.328125
2612,38.29,2022-10-26 16:23:30.343750
2613,82.94,2022-10-26 16:23:30.359375
2614,131.87,2022-10-26 16:23:30.375000
2615,181.3,2022-10-26 16:23:30.390625
2616,223.05,2022-10-26 16:23:30.406250
2617,247.11,2022-10-26 16:23:30.421875
2618,245.98,2022-10-26 16:23:30.437500
2619,219.42,2022-10-26 16:23:30.453125
2620,174.86,2022-10-26 16:23:30.468750
2621,124.68,2022-10-26 16:23:30.484375
2622,80.91,2022-10-26 16:23:30.500000
2623,50.0,2022-10-26 16:23:30.515625
2624,32.51,2022-10-26 16:23:30.531250
2625,25.07,2022-10-26 16:23:30.546875
2626,24.92,2022-10-26 16:23:30.562500
2627,32.36,2022-10-26 16:23:30.578125
2628,50.49,2022-10-26 16:23:30.593750
2629,82.21,2022-10-26 16:23:30.609375
2630,126.7,2022-10-26 16:23:30.625000
2631,178.45,2022-10-26 16:23:30.640625
2632,227.96,2022-10-26 16:23:30.656250
2633,264.91,2022-10-26 16:23:30.671875
2634,281.23,2022-10-26 16:23:30.687500
2635,273.01,2022-10-26 16:23:30.703125
2636,240.73,2022-10-26 16:23:30.718750
2637,187.6,2022-10-26 16:23:30.734375
2638,117.99,2022-10-26 16:23:30.750000
2639,36.5,2022-10-26 16:23:30.765625
2640,-51.39,2022-10-26 16:23:30.781250
2641,-139.18,2022-10-26 16:23:30.796875
2642,-218.95,2022-10-26 16:23:30.812500
2643,-283.23,2022-10-26 16:23:30.828125
2644,-326.66,2022-10-26 16:23:30.843750
2645,-347.81,2022-10-26 16:23:30.859375
2646,-349.55,2022-10-26 16:23:30.875000
2647,-338.23,2022-10-26 16:23:30.890625
2648,-321.17,2022-10-26 16:23:30.906250
2649,-304.48,2022-10-26 16:23:30.921875
2650,-291.54,2022-10-26 16:23:30.937500
2651,-282.45,2022-10-26 16:23:30.953125
2652,-275.05,2022-10-26 16:23:30.968750
2653,-266.58,2022-10-26 16:23:30.984375
2654,-254.49,2022-10-26 16:23:31.000000
2655,-237.56,2022-10-26 16:23:31.015625
2656,-215.6,2022-10-26 16:23:31.031250
2657,-189.28,2022-10-26 16:23:31.046875
2658,-159.63,2022-10-26 16:23:31.062500
2659,-127.78,2022-10-26 16:23:31.078125
2660,-94.38,2022-10-26 16:23:31.093750
2661,-59.69,2022-10-26 16:23:31.109375
2662,-23.49,2022-10-26 16:23:31.125000
2663,14.6,2022-10-26 16:23:31.140625
2664,54.73,2022-10-26 16:23:31.156250
2665,96.24,2022-10-26 16:23:31.171875
2666,137.92,2022-10-26 16:23:31.187500
2667,177.7,2022-10-26 16:23:31.203125
2668,213.62,2022-10-26 16:23:31.218750
2669,244.49,2022-10-26 16:23:31.234375
2670,270.4,2022-10-26 16:23:31.250000
2671,293.04,2022-10-26 16:23:31.265625
2672,315.41,2022-10-26 16:23:31.281250
2673,340.47,2022-10-26 16:23:31.296875
2674,370.04,2022-10-26 16:23:31.312500
2675,403.61,2022-10-26 16:23:31.328125
2676,437.84,2022-10-26 16:23:31.343750
2677,466.92,2022-10-26 16:23:31.359375
2678,484.21,2022-10-26 16:23:31.375000
2679,484.4,2022-10-26 16:23:31.390625
2680,466.07,2022-10-26 16:23:31.406250
2681,433.36,2022-10-26 16:23:31.421875
2682,395.64,2022-10-26 16:23:31.437500
2683,364.94,2022-10-26 16:23:31.453125
2684,351.55,2022-10-26 16:23:31.468750
2685,359.53,2022-10-26 16:23:31.484375
2686,384.25,2022-10-26 16:23:31.500000
2687,413.4,2022-10-26 16:23:31.515625
2688,431.66,2022-10-26 16:23:31.531250
2689,426.74,2022-10-26 16:23:31.546875
2690,393.49,2022-10-26 16:23:31.562500
2691,335.02,2022-10-26 16:23:31.578125
2692,260.53,2022-10-26 16:23:31.593750
2693,181.32,2022-10-26 16:23:31.609375
2694,108.03,2022-10-26 16:23:31.625000
2695,48.29,2022-10-26 16:23:31.640625
2696,6.47,2022-10-26 16:23:31.656250
2697,-16.84,2022-10-26 16:23:31.671875
2698,-24.95,2022-10-26 16:23:31.687500
2699,-24.62,2022-10-26 16:23:31.703125
2700,-24.76,2022-10-26 16:23:31.718750
2701,-33.56,2022-10-26 16:23:31.734375
2702,-55.88,2022-10-26 16:23:31.750000
2703,-91.37,2022-10-26 16:23:31.765625
2704,-134.26,2022-10-26 16:23:31.781250
2705,-176.03,2022-10-26 16:23:31.796875
2706,-208.4,2022-10-26 16:23:31.812500
2707,-226.11,2022-10-26 16:23:31.828125
2708,-228.25,2022-10-26 16:23:31.843750
2709,-217.57,2022-10-26 16:23:31.859375
2710,-197.68,2022-10-26 16:23:31.875000
2711,-170.65,2022-10-26 16:23:31.890625
2712,-135.82,2022-10-26 16:23:31.906250
2713,-91.11,2022-10-26 16:23:31.921875
2714,-35.86,2022-10-26 16:23:31.937500
2715,25.77,2022-10-26 16:23:31.953125
2716,84.0,2022-10-26 16:23:31.968750
2717,127.01,2022-10-26 16:23:31.984375
2718,146.24,2022-10-26 16:23:32.000000
2719,141.2,2022-10-26 16:23:32.015625
2720,119.92,2022-10-26 16:23:32.031250
2721,94.92,2022-10-26 16:23:32.046875
2722,76.63,2022-10-26 16:23:32.062500
2723,68.43,2022-10-26 16:23:32.078125
2724,65.87,2022-10-26 16:23:32.093750
2725,60.31,2022-10-26 16:23:32.109375
2726,44.9,2022-10-26 16:23:32.125000
2727,18.56,2022-10-26 16:23:32.140625
2728,-12.86,2022-10-26 16:23:32.156250
2729,-39.15,2022-10-26 16:23:32.171875
2730,-50.26,2022-10-26 16:23:32.187500
2731,-39.34,2022-10-26 16:23:32.203125
2732,-5.55,2022-10-26 16:23:32.218750
2733,46.54,2022-10-26 16:23:32.234375
2734,108.88,2022-10-26 16:23:32.250000
2735,172.0,2022-10-26 16:23:32.265625
2736,227.73,2022-10-26 16:23:32.281250
2737,270.23,2022-10-26 16:23:32.296875
2738,295.98,2022-10-26 16:23:32.312500
2739,303.09,2022-10-26 16:23:32.328125
2740,290.59,2022-10-26 16:23:32.343750
2741,258.74,2022-10-26 16:23:32.359375
2742,210.48,2022-10-26 16:23:32.375000
2743,151.6,2022-10-26 16:23:32.390625
2744,90.0,2022-10-26 16:23:32.406250
2745,33.31,2022-10-26 16:23:32.421875
2746,-13.09,2022-10-26 16:23:32.437500
2747,-46.6,2022-10-26 16:23:32.453125
2748,-67.43,2022-10-26 16:23:32.468750
2749,-76.91,2022-10-26 16:23:32.484375
2750,-77.6,2022-10-26 16:23:32.500000
2751,-73.72,2022-10-26 16:23:32.515625
2752,-71.57,2022-10-26 16:23:32.531250
2753,-79.36,2022-10-26 16:23:32.546875
2754,-104.69,2022-10-26 16:23:32.562500
2755,-151.13,2022-10-26 16:23:32.578125
2756,-216.6,2022-10-26 16:23:32.593750
2757,-293.27,2022-10-26 16:23:32.609375
2758,-369.96,2022-10-26 16:23:32.625000
2759,-436.18,2022-10-26 16:23:32.640625
2760,-484.85,2022-10-26 16:23:32.656250
2761,-513.17,2022-10-26 16:23:32.671875
2762,-522.37,2022-10-26 16:23:32.687500
2763,-515.83,2022-10-26 16:23:32.703125
2764,-498.57,2022-10-26 16:23:32.718750
2765,-477.0,2022-10-26 16:23:32.734375
2766,-457.32,2022-10-26 16:23:32.750000
2767,-444.51,2022-10-26 16:23:32.765625
2768,-440.04,2022-10-26 16:23:32.781250
2769,-441.76,2022-10-26 16:23:32.796875
2770,-444.49,2022-10-26 16:23:32.812500
2771,-442.24,2022-10-26 16:23:32.828125
2772,-430.25,2022-10-26 16:23:32.843750
2773,-406.11,2022-10-26 16:23:32.859375
2774,-369.46,2022-10-26 16:23:32.875000
2775,-321.52,2022-10-26 16:23:32.890625
2776,-265.21,2022-10-26 16:23:32.906250
2777,-204.74,2022-10-26 16:23:32.921875
2778,-146.7,2022-10-26 16:23:32.937500
2779,-98.29,2022-10-26 16:23:32.953125
2780,-64.82,2022-10-26 16:23:32.968750
2781,-46.64,2022-10-26 16:23:32.984375
2782,-37.01,2022-10-26 16:23:33.000000
2783,-24.5,2022-10-26 16:23:33.015625
2784,2.52,2022-10-26 16:23:33.031250
2785,49.75,2022-10-26 16:23:33.046875
2786,113.86,2022-10-26 16:23:33.062500
2787,184.05,2022-10-26 16:23:33.078125
2788,247.63,2022-10-26 16:23:33.093750
2789,295.73,2022-10-26 16:23:33.109375
2790,326.24,2022-10-26 16:23:33.125000
2791,342.85,2022-10-26 16:23:33.140625
2792,350.72,2022-10-26 16:23:33.156250
2793,353.7,2022-10-26 16:23:33.171875
2794,352.27,2022-10-26 16:23:33.187500
2795,345.71,2022-10-26 16:23:33.203125
2796,334.45,2022-10-26 16:23:33.218750
2797,321.01,2022-10-26 16:23:33.234375
2798,309.06,2022-10-26 16:23:33.250000
2799,300.35,2022-10-26 16:23:33.265625
2800,293.33,2022-10-26 16:23:33.281250
2801,283.37,2022-10-26 16:23:33.296875
2802,265.97,2022-10-26 16:23:33.312500
2803,239.59,2022-10-26 16:23:33.328125
2804,207.21,2022-10-26 16:23:33.343750
2805,174.13,2022-10-26 16:23:33.359375
2806,144.47,2022-10-26 16:23:33.375000
2807,117.5,2022-10-26 16:23:33.390625
2808,87.33,2022-10-26 16:23:33.406250
2809,46.41,2022-10-26 16:23:33.421875
2810,-9.1,2022-10-26 16:23:33.437500
2811,-74.9,2022-10-26 16:23:33.453125
2812,-138.5,2022-10-26 16:23:33.468750
2813,-183.34,2022-10-26 16:23:33.484375
2814,-195.93,2022-10-26 16:23:33.500000
2815,-172.15,2022-10-26 16:23:33.515625
2816,-119.28,2022-10-26 16:23:33.531250
2817,-52.98,2022-10-26 16:23:33.546875
2818,9.56,2022-10-26 16:23:33.562500
2819,56.47,2022-10-26 16:23:33.578125
2820,84.48,2022-10-26 16:23:33.593750
2821,98.2,2022-10-26 16:23:33.609375
2822,105.91,2022-10-26 16:23:33.625000
2823,115.62,2022-10-26 16:23:33.640625
2824,132.05,2022-10-26 16:23:33.656250
2825,156.88,2022-10-26 16:23:33.671875
2826,189.56,2022-10-26 16:23:33.687500
2827,228.3,2022-10-26 16:23:33.703125
2828,270.03,2022-10-26 16:23:33.718750
2829,310.2,2022-10-26 16:23:33.734375
2830,342.6,2022-10-26 16:23:33.750000
2831,360.94,2022-10-26 16:23:33.765625
2832,360.81,2022-10-26 16:23:33.781250
2833,342.64,2022-10-26 16:23:33.796875
2834,312.12,2022-10-26 16:23:33.812500
2835,278.72,2022-10-26 16:23:33.828125
2836,251.66,2022-10-26 16:23:33.843750
2837,235.85,2022-10-26 16:23:33.859375
2838,230.31,2022-10-26 16:23:33.875000
2839,228.94,2022-10-26 16:23:33.890625
2840,224.38,2022-10-26 16:23:33.906250
2841,211.36,2022-10-26 16:23:33.921875
2842,188.65,2022-10-26 16:23:33.937500
2843,159.58,2022-10-26 16:23:33.953125
2844,129.19,2022-10-26 16:23:33.968750
2845,101.93,2022-10-26 16:23:33.984375
2846,80.08,2022-10-26 16:23:34.000000
2847,63.26,2022-10-26 16:23:34.015625
2848,49.5,2022-10-26 16:23:34.031250
2849,36.67,2022-10-26 16:23:34.046875
2850,22.72,2022-10-26 16:23:34.062500
2851,6.74,2022-10-26 16:23:34.078125
2852,-11.52,2022-10-26 16:23:34.093750
2853,-30.95,2022-10-26 16:23:34.109375
2854,-49.05,2022-10-26 16:23:34.125000
2855,-62.38,2022-10-26 16:23:34.140625
2856,-68.3,2022-10-26 16:23:34.156250
2857,-66.15,2022-10-26 16:23:34.171875
2858,-57.85,2022-10-26 16:23:34.187500
2859,-46.81,2022-10-26 16:23:34.203125
2860,-36.2,2022-10-26 16:23:34.218750
2861,-28.31,2022-10-26 16:23:34.234375
2862,-24.69,2022-10-26 16:23:34.250000
2863,-27.26,2022-10-26 16:23:34.265625
2864,-39.1,2022-10-26 16:23:34.281250
2865,-63.52,2022-10-26 16:23:34.296875
2866,-102.21,2022-10-26 16:23:34.312500
2867,-151.96,2022-10-26 16:23:34.328125
2868,-204.62,2022-10-26 16:23:34.343750
2869,-249.14,2022-10-26 16:23:34.359375
2870,-276.7,2022-10-26 16:23:34.375000
2871,-284.77,2022-10-26 16:23:34.390625
2872,-278.39,2022-10-26 16:23:34.406250
2873,-267.03,2022-10-26 16:23:34.421875
2874,-259.46,2022-10-26 16:23:34.437500
2875,-258.64,2022-10-26 16:23:34.453125
2876,-261.12,2022-10-26 16:23:34.468750
2877,-260.03,2022-10-26 16:23:34.484375
2878,-249.39,2022-10-26 16:23:34.500000
2879,-228.11,2022-10-26 16:23:34.515625
2880,-200.53,2022-10-26 16:23:34.531250
2881,-173.82,2022-10-26 16:23:34.546875
2882,-154.24,2022-10-26 16:23:34.562500
2883,-143.36,2022-10-26 16:23:34.578125
2884,-137.47,2022-10-26 16:23:34.593750
2885,-129.54,2022-10-26 16:23:34.609375
2886,-113.28,2022-10-26 16:23:34.625000
2887,-86.24,2022-10-26 16:23:34.640625
2888,-51.79,2022-10-26 16:23:34.656250
2889,-17.58,2022-10-26 16:23:34.671875
2890,6.65,2022-10-26 16:23:34.687500
2891,13.0,2022-10-26 16:23:34.703125
2892,-1.32,2022-10-26 16:23:34.718750
2893,-33.12,2022-10-26 16:23:34.734375
2894,-73.47,2022-10-26 16:23:34.750000
2895,-110.07,2022-10-26 16:23:34.765625
2896,-130.27,2022-10-26 16:23:34.781250
2897,-124.15,2022-10-26 16:23:34.796875
2898,-87.81,2022-10-26 16:23:34.812500
2899,-24.84,2022-10-26 16:23:34.828125
2900,53.46,2022-10-26 16:23:34.843750
2901,131.21,2022-10-26 16:23:34.859375
2902,191.79,2022-10-26 16:23:34.875000
2903,223.66,2022-10-26 16:23:34.890625
2904,223.45,2022-10-26 16:23:34.906250
2905,196.52,2022-10-26 16:23:34.921875
2906,153.96,2022-10-26 16:23:34.937500
2907,108.0,2022-10-26 16:23:34.953125
2908,67.38,2022-10-26 16:23:34.968750
2909,35.83,2022-10-26 16:23:34.984375
2910,13.15,2022-10-26 16:23:35.000000
2911,-2.14,2022-10-26 16:23:35.015625
2912,-10.71,2022-10-26 16:23:35.031250
2913,-12.76,2022-10-26 16:23:35.046875
2914,-9.47,2022-10-26 16:23:35.062500
2915,-4.72,2022-10-26 16:23:35.078125
2916,-4.01,2022-10-26 16:23:35.093750
2917,-11.59,2022-10-26 16:23:35.109375
2918,-26.47,2022-10-26 16:23:35.125000
2919,-42.22,2022-10-26 16:23:35.140625
2920,-50.16,2022-10-26 16:23:35.156250
2921,-44.52,2022-10-26 16:23:35.171875
2922,-26.79,2022-10-26 16:23:35.187500
2923,-4.91,2022-10-26 16:23:35.203125
2924,11.31,2022-10-26 16:23:35.218750
2925,16.17,2022-10-26 16:23:35.234375
2926,10.77,2022-10-26 16:23:35.250000
2927,1.79,2022-10-26 16:23:35.265625
2928,-3.23,2022-10-26 16:23:35.281250
2929,-0.1,2022-10-26 16:23:35.296875
2930,10.1,2022-10-26 16:23:35.312500
2931,22.42,2022-10-26 16:23:35.328125
2932,30.69,2022-10-26 16:23:35.343750
2933,31.14,2022-10-26 16:23:35.359375
2934,23.43,2022-10-26 16:23:35.375000
2935,10.2,2022-10-26 16:23:35.390625
2936,-5.0,2022-10-26 16:23:35.406250
2937,-20.09,2022-10-26 16:23:35.421875
2938,-35.31,2022-10-26 16:23:35.437500
2939,-52.76,2022-10-26 16:23:35.453125
2940,-74.27,2022-10-26 16:23:35.468750
2941,-98.93,2022-10-26 16:23:35.484375
2942,-122.14,2022-10-26 16:23:35.500000
2943,-136.76,2022-10-26 16:23:35.515625
2944,-136.92,2022-10-26 16:23:35.531250
2945,-122.36,2022-10-26 16:23:35.546875
2946,-99.44,2022-10-26 16:23:35.562500
2947,-78.81,2022-10-26 16:23:35.578125
2948,-70.64,2022-10-26 16:23:35.593750
2949,-80.59,2022-10-26 16:23:35.609375
2950,-107.31,2022-10-26 16:23:35.625000
2951,-144.19,2022-10-26 16:23:35.640625
2952,-182.29,2022-10-26 16:23:35.656250
2953,-214.02,2022-10-26 16:23:35.671875
2954,-235.24,2022-10-26 16:23:35.687500
2955,-245.22,2022-10-26 16:23:35.703125
2956,-245.37,2022-10-26 16:23:35.718750
2957,-237.64,2022-10-26 16:23:35.734375
2958,-222.45,2022-10-26 16:23:35.750000
2959,-198.7,2022-10-26 16:23:35.765625
2960,-164.92,2022-10-26 16:23:35.781250
2961,-120.4,2022-10-26 16:23:35.796875
2962,-66.62,2022-10-26 16:23:35.812500
2963,-6.43,2022-10-26 16:23:35.828125
2964,56.27,2022-10-26 16:23:35.843750
2965,118.31,2022-10-26 16:23:35.859375
2966,177.5,2022-10-26 16:23:35.875000
2967,231.42,2022-10-26 16:23:35.890625
2968,276.49,2022-10-26 16:23:35.906250
2969,307.63,2022-10-26 16:23:35.921875
2970,319.95,2022-10-26 16:23:35.937500
2971,311.42,2022-10-26 16:23:35.953125
2972,284.78,2022-10-26 16:23:35.968750
2973,247.16,2022-10-26 16:23:35.984375
2974,206.66,2022-10-26 16:23:36.000000
2975,168.85,2022-10-26 16:23:36.015625
2976,134.57,2022-10-26 16:23:36.031250
2977,99.83,2022-10-26 16:23:36.046875
2978,58.61,2022-10-26 16:23:36.062500
2979,7.34,2022-10-26 16:23:36.078125
2980,-52.17,2022-10-26 16:23:36.093750
2981,-112.33,2022-10-26 16:23:36.109375
2982,-161.84,2022-10-26 16:23:36.125000
2983,-190.33,2022-10-26 16:23:36.140625
2984,-192.43,2022-10-26 16:23:36.156250
2985,-170.14,2022-10-26 16:23:36.171875
2986,-132.23,2022-10-26 16:23:36.187500
2987,-90.03,2022-10-26 16:23:36.203125
2988,-52.59,2022-10-26 16:23:36.218750
2989,-24.32,2022-10-26 16:23:36.234375
2990,-4.99,2022-10-26 16:23:36.250000
2991,6.65,2022-10-26 16:23:36.265625
2992,9.67,2022-10-26 16:23:36.281250
2993,0.5,2022-10-26 16:23:36.296875
2994,-25.0,2022-10-26 16:23:36.312500
2995,-66.96,2022-10-26 16:23:36.328125
2996,-119.86,2022-10-26 16:23:36.343750
2997,-173.0,2022-10-26 16:23:36.359375
2998,-215.48,2022-10-26 16:23:36.375000
2999,-241.17,2022-10-26 16:23:36.390625
3000,-251.12,2022-10-26 16:23:36.406250
3001,-251.91,2022-10-26 16:23:36.421875
3002,-251.23,2022-10-26 16:23:36.437500
3003,-253.07,2022-10-26 16:23:36.453125
3004,-256.27,2022-10-26 16:23:36.468750
3005,-256.53,2022-10-26 16:23:36.484375
3006,-249.69,2022-10-26 16:23:36.500000
3007,-234.52,2022-10-26 16:23:36.515625
3008,-212.33,2022-10-26 16:23:36.531250
3009,-185.61,2022-10-26 16:23:36.546875
3010,-156.56,2022-10-26 16:23:36.562500
3011,-126.38,2022-10-26 16:23:36.578125
3012,-96.13,2022-10-26 16:23:36.593750
3013,-67.75,2022-10-26 16:23:36.609375
3014,-44.26,2022-10-26 16:23:36.625000
3015,-28.9,2022-10-26 16:23:36.640625
3016,-24.2,2022-10-26 16:23:36.656250
3017,-30.75,2022-10-26 16:23:36.671875
3018,-46.72,2022-10-26 16:23:36.687500
3019,-68.09,2022-10-26 16:23:36.703125
3020,-89.74,2022-10-26 16:23:36.718750
3021,-105.99,2022-10-26 16:23:36.734375
3022,-111.69,2022-10-26 16:23:36.750000
3023,-103.54,2022-10-26 16:23:36.765625
3024,-80.86,2022-10-26 16:23:36.781250
3025,-46.23,2022-10-26 16:23:36.796875
3026,-5.24,2022-10-26 16:23:36.812500
3027,36.33,2022-10-26 16:23:36.828125
3028,73.81,2022-10-26 16:23:36.843750
3029,106.04,2022-10-26 16:23:36.859375
3030,134.54,2022-10-26 16:23:36.875000
3031,162.0,2022-10-26 16:23:36.890625
3032,190.35,2022-10-26 16:23:36.906250
3033,219.46,2022-10-26 16:23:36.921875
3034,247.39,2022-10-26 16:23:36.937500
3035,271.71,2022-10-26 16:23:36.953125
3036,291.38,2022-10-26 16:23:36.968750
3037,307.08,2022-10-26 16:23:36.984375
3038,320.49,2022-10-26 16:23:37.000000
3039,332.27,2022-10-26 16:23:37.015625
3040,340.45,2022-10-26 16:23:37.031250
3041,340.92,2022-10-26 16:23:37.046875
3042,329.37,2022-10-26 16:23:37.062500
3043,304.61,2022-10-26 16:23:37.078125
3044,270.38,2022-10-26 16:23:37.093750
3045,233.74,2022-10-26 16:23:37.109375
3046,201.73,2022-10-26 16:23:37.125000
3047,177.55,2022-10-26 16:23:37.140625
3048,159.16,2022-10-26 16:23:37.156250
3049,141.01,2022-10-26 16:23:37.171875
3050,117.99,2022-10-26 16:23:37.187500
3051,89.49,2022-10-26 16:23:37.203125
3052,60.15,2022-10-26 16:23:37.218750
3053,37.41,2022-10-26 16:23:37.234375
3054,26.78,2022-10-26 16:23:37.250000
3055,27.68,2022-10-26 16:23:37.265625
3056,33.07,2022-10-26 16:23:37.281250
3057,33.09,2022-10-26 16:23:37.296875
3058,19.76,2022-10-26 16:23:37.312500
3059,-8.26,2022-10-26 16:23:37.328125
3060,-46.61,2022-10-26 16:23:37.343750
3061,-87.9,2022-10-26 16:23:37.359375
3062,-125.93,2022-10-26 16:23:37.375000
3063,-157.31,2022-10-26 16:23:37.390625
3064,-180.68,2022-10-26 16:23:37.406250
3065,-194.64,2022-10-26 16:23:37.421875
3066,-196.16,2022-10-26 16:23:37.437500
3067,-181.93,2022-10-26 16:23:37.453125
3068,-150.38,2022-10-26 16:23:37.468750
3069,-104.58,2022-10-26 16:23:37.484375
3070,-53.12,2022-10-26 16:23:37.500000
3071,-8.01,2022-10-26 16:23:37.515625
3072,18.31,2022-10-26 16:23:37.531250
3073,18.03,2022-10-26 16:23:37.546875
3074,-9.03,2022-10-26 16:23:37.562500
3075,-54.91,2022-10-26 16:23:37.578125
3076,-105.47,2022-10-26 16:23:37.593750
3077,-145.68,2022-10-26 16:23:37.609375
3078,-164.01,2022-10-26 16:23:37.625000
3079,-156.02,2022-10-26 16:23:37.640625
3080,-124.97,2022-10-26 16:23:37.656250
3081,-78.76,2022-10-26 16:23:37.671875
3082,-26.79,2022-10-26 16:23:37.687500
3083,23.12,2022-10-26 16:23:37.703125
3084,65.3,2022-10-26 16:23:37.718750
3085,94.9,2022-10-26 16:23:37.734375
3086,107.28,2022-10-26 16:23:37.750000
3087,99.49,2022-10-26 16:23:37.765625
3088,73.12,2022-10-26 16:23:37.781250
3089,35.93,2022-10-26 16:23:37.796875
3090,0.1,2022-10-26 16:23:37.812500
3091,-21.79,2022-10-26 16:23:37.828125
3092,-22.71,2022-10-26 16:23:37.843750
3093,-3.82,2022-10-26 16:23:37.859375
3094,26.8,2022-10-26 16:23:37.875000
3095,58.54,2022-10-26 16:23:37.890625
3096,83.42,2022-10-26 16:23:37.906250
3097,98.2,2022-10-26 16:23:37.921875
3098,103.99,2022-10-26 16:23:37.937500
3099,103.36,2022-10-26 16:23:37.953125
3100,98.18,2022-10-26 16:23:37.968750
3101,88.44,2022-10-26 16:23:37.984375
3102,73.04,2022-10-26 16:23:38.000000
3103,51.35,2022-10-26 16:23:38.015625
3104,23.49,2022-10-26 16:23:38.031250
3105,-9.22,2022-10-26 16:23:38.046875
3106,-44.44,2022-10-26 16:23:38.062500
3107,-78.7,2022-10-26 16:23:38.078125
3108,-106.95,2022-10-26 16:23:38.093750
3109,-123.69,2022-10-26 16:23:38.109375
3110,-123.9,2022-10-26 16:23:38.125000
3111,-104.47,2022-10-26 16:23:38.140625
3112,-66.15,2022-10-26 16:23:38.156250
3113,-13.81,2022-10-26 16:23:38.171875
3114,43.69,2022-10-26 16:23:38.187500
3115,95.33,2022-10-26 16:23:38.203125
3116,130.86,2022-10-26 16:23:38.218750
