,BVP,time
0,-21.44,2022-10-28 11:00:30.000000
1,-32.31,2022-10-28 11:00:30.015625
2,-44.98,2022-10-28 11:00:30.031250
3,-59.73,2022-10-28 11:00:30.046875
4,-76.39,2022-10-28 11:00:30.062500
5,-94.18,2022-10-28 11:00:30.078125
6,-111.79,2022-10-28 11:00:30.093750
7,-127.52,2022-10-28 11:00:30.109375
8,-139.54,2022-10-28 11:00:30.125000
9,-146.22,2022-10-28 11:00:30.140625
10,-146.47,2022-10-28 11:00:30.156250
11,-139.97,2022-10-28 11:00:30.171875
12,-127.3,2022-10-28 11:00:30.187500
13,-109.9,2022-10-28 11:00:30.203125
14,-89.78,2022-10-28 11:00:30.218750
15,-69.1,2022-10-28 11:00:30.234375
16,-49.7,2022-10-28 11:00:30.250000
17,-32.86,2022-10-28 11:00:30.265625
18,-19.18,2022-10-28 11:00:30.281250
19,-8.72,2022-10-28 11:00:30.296875
20,-1.3,2022-10-28 11:00:30.312500
21,3.4,2022-10-28 11:00:30.328125
22,5.72,2022-10-28 11:00:30.343750
23,6.11,2022-10-28 11:00:30.359375
24,5.17,2022-10-28 11:00:30.375000
25,3.68,2022-10-28 11:00:30.390625
26,2.51,2022-10-28 11:00:30.406250
27,2.42,2022-10-28 11:00:30.421875
28,3.92,2022-10-28 11:00:30.437500
29,7.27,2022-10-28 11:00:30.453125
30,12.44,2022-10-28 11:00:30.468750
31,19.11,2022-10-28 11:00:30.484375
32,26.75,2022-10-28 11:00:30.500000
33,34.64,2022-10-28 11:00:30.515625
34,41.94,2022-10-28 11:00:30.531250
35,47.91,2022-10-28 11:00:30.546875
36,52.05,2022-10-28 11:00:30.562500
37,54.28,2022-10-28 11:00:30.578125
38,54.84,2022-10-28 11:00:30.593750
39,54.18,2022-10-28 11:00:30.609375
40,52.77,2022-10-28 11:00:30.625000
41,50.9,2022-10-28 11:00:30.640625
42,48.62,2022-10-28 11:00:30.656250
43,45.79,2022-10-28 11:00:30.671875
44,42.17,2022-10-28 11:00:30.687500
45,37.5,2022-10-28 11:00:30.703125
46,31.67,2022-10-28 11:00:30.718750
47,24.74,2022-10-28 11:00:30.734375
48,16.99,2022-10-28 11:00:30.750000
49,8.95,2022-10-28 11:00:30.765625
50,1.17,2022-10-28 11:00:30.781250
51,-5.82,2022-10-28 11:00:30.796875
52,-11.82,2022-10-28 11:00:30.812500
53,-16.96,2022-10-28 11:00:30.828125
54,-21.87,2022-10-28 11:00:30.843750
55,-27.52,2022-10-28 11:00:30.859375
56,-34.95,2022-10-28 11:00:30.875000
57,-44.88,2022-10-28 11:00:30.890625
58,-57.16,2022-10-28 11:00:30.906250
59,-70.59,2022-10-28 11:00:30.921875
60,-82.95,2022-10-28 11:00:30.937500
61,-91.62,2022-10-28 11:00:30.953125
62,-94.39,2022-10-28 11:00:30.968750
63,-90.23,2022-10-28 11:00:30.984375
64,-79.61,2022-10-28 11:00:31.000000
65,-64.28,2022-10-28 11:00:31.015625
66,-46.69,2022-10-28 11:00:31.031250
67,-29.24,2022-10-28 11:00:31.046875
68,-13.75,2022-10-28 11:00:31.062500
69,-1.22,2022-10-28 11:00:31.078125
70,8.17,2022-10-28 11:00:31.093750
71,14.79,2022-10-28 11:00:31.109375
72,19.3,2022-10-28 11:00:31.125000
73,22.36,2022-10-28 11:00:31.140625
74,24.51,2022-10-28 11:00:31.156250
75,26.03,2022-10-28 11:00:31.171875
76,27.11,2022-10-28 11:00:31.187500
77,27.84,2022-10-28 11:00:31.203125
78,28.46,2022-10-28 11:00:31.218750
79,29.29,2022-10-28 11:00:31.234375
80,30.67,2022-10-28 11:00:31.250000
81,32.76,2022-10-28 11:00:31.265625
82,35.42,2022-10-28 11:00:31.281250
83,38.3,2022-10-28 11:00:31.296875
84,41.01,2022-10-28 11:00:31.312500
85,43.31,2022-10-28 11:00:31.328125
86,45.19,2022-10-28 11:00:31.343750
87,46.71,2022-10-28 11:00:31.359375
88,47.82,2022-10-28 11:00:31.375000
89,48.25,2022-10-28 11:00:31.390625
90,47.42,2022-10-28 11:00:31.406250
91,44.74,2022-10-28 11:00:31.421875
92,39.8,2022-10-28 11:00:31.437500
93,32.58,2022-10-28 11:00:31.453125
94,23.55,2022-10-28 11:00:31.468750
95,13.5,2022-10-28 11:00:31.484375
96,3.35,2022-10-28 11:00:31.500000
97,-6.1,2022-10-28 11:00:31.515625
98,-14.21,2022-10-28 11:00:31.531250
99,-20.48,2022-10-28 11:00:31.546875
100,-24.49,2022-10-28 11:00:31.562500
101,-25.84,2022-10-28 11:00:31.578125
102,-24.33,2022-10-28 11:00:31.593750
103,-20.09,2022-10-28 11:00:31.609375
104,-13.77,2022-10-28 11:00:31.625000
105,-6.49,2022-10-28 11:00:31.640625
106,0.35,2022-10-28 11:00:31.656250
107,5.41,2022-10-28 11:00:31.671875
108,7.72,2022-10-28 11:00:31.687500
109,6.77,2022-10-28 11:00:31.703125
110,2.56,2022-10-28 11:00:31.718750
111,-4.47,2022-10-28 11:00:31.734375
112,-13.43,2022-10-28 11:00:31.750000
113,-22.94,2022-10-28 11:00:31.765625
114,-31.27,2022-10-28 11:00:31.781250
115,-36.62,2022-10-28 11:00:31.796875
116,-37.66,2022-10-28 11:00:31.812500
117,-33.96,2022-10-28 11:00:31.828125
118,-26.16,2022-10-28 11:00:31.843750
119,-15.83,2022-10-28 11:00:31.859375
120,-4.86,2022-10-28 11:00:31.875000
121,5.16,2022-10-28 11:00:31.890625
122,13.34,2022-10-28 11:00:31.906250
123,19.53,2022-10-28 11:00:31.921875
124,24.06,2022-10-28 11:00:31.937500
125,27.29,2022-10-28 11:00:31.953125
126,29.34,2022-10-28 11:00:31.968750
127,30.03,2022-10-28 11:00:31.984375
128,29.07,2022-10-28 11:00:32.000000
129,26.37,2022-10-28 11:00:32.015625
130,22.27,2022-10-28 11:00:32.031250
131,17.57,2022-10-28 11:00:32.046875
132,13.26,2022-10-28 11:00:32.062500
133,10.19,2022-10-28 11:00:32.078125
134,8.73,2022-10-28 11:00:32.093750
135,8.69,2022-10-28 11:00:32.109375
136,9.43,2022-10-28 11:00:32.125000
137,10.21,2022-10-28 11:00:32.140625
138,10.52,2022-10-28 11:00:32.156250
139,10.18,2022-10-28 11:00:32.171875
140,9.3,2022-10-28 11:00:32.187500
141,7.98,2022-10-28 11:00:32.203125
142,6.16,2022-10-28 11:00:32.218750
143,3.58,2022-10-28 11:00:32.234375
144,-0.1,2022-10-28 11:00:32.250000
145,-5.01,2022-10-28 11:00:32.265625
146,-10.97,2022-10-28 11:00:32.281250
147,-17.52,2022-10-28 11:00:32.296875
148,-24.2,2022-10-28 11:00:32.312500
149,-30.73,2022-10-28 11:00:32.328125
150,-37.24,2022-10-28 11:00:32.343750
151,-44.1,2022-10-28 11:00:32.359375
152,-51.8,2022-10-28 11:00:32.375000
153,-60.55,2022-10-28 11:00:32.390625
154,-70.23,2022-10-28 11:00:32.406250
155,-80.44,2022-10-28 11:00:32.421875
156,-90.73,2022-10-28 11:00:32.437500
157,-100.95,2022-10-28 11:00:32.453125
158,-111.33,2022-10-28 11:00:32.468750
159,-122.45,2022-10-28 11:00:32.484375
160,-134.89,2022-10-28 11:00:32.500000
161,-148.97,2022-10-28 11:00:32.515625
162,-164.5,2022-10-28 11:00:32.531250
163,-180.88,2022-10-28 11:00:32.546875
164,-197.31,2022-10-28 11:00:32.562500
165,-213.14,2022-10-28 11:00:32.578125
166,-228.22,2022-10-28 11:00:32.593750
167,-243.01,2022-10-28 11:00:32.609375
168,-258.48,2022-10-28 11:00:32.625000
169,-275.6,2022-10-28 11:00:32.640625
170,-294.7,2022-10-28 11:00:32.656250
171,-314.87,2022-10-28 11:00:32.671875
172,-333.67,2022-10-28 11:00:32.687500
173,-347.47,2022-10-28 11:00:32.703125
174,-352.24,2022-10-28 11:00:32.718750
175,-344.79,2022-10-28 11:00:32.734375
176,-323.68,2022-10-28 11:00:32.750000
177,-289.68,2022-10-28 11:00:32.765625
178,-245.6,2022-10-28 11:00:32.781250
179,-195.73,2022-10-28 11:00:32.796875
180,-144.84,2022-10-28 11:00:32.812500
181,-97.28,2022-10-28 11:00:32.828125
182,-55.92,2022-10-28 11:00:32.843750
183,-21.16,2022-10-28 11:00:32.859375
184,9.35,2022-10-28 11:00:32.875000
185,40.27,2022-10-28 11:00:32.890625
186,77.11,2022-10-28 11:00:32.906250
187,124.16,2022-10-28 11:00:32.921875
188,182.61,2022-10-28 11:00:32.937500
189,249.78,2022-10-28 11:00:32.953125
190,319.81,2022-10-28 11:00:32.968750
191,385.56,2022-10-28 11:00:32.984375
192,441.02,2022-10-28 11:00:33.000000
193,482.94,2022-10-28 11:00:33.015625
194,511.27,2022-10-28 11:00:33.031250
195,528.22,2022-10-28 11:00:33.046875
196,536.59,2022-10-28 11:00:33.062500
197,538.24,2022-10-28 11:00:33.078125
198,533.32,2022-10-28 11:00:33.093750
199,520.42,2022-10-28 11:00:33.109375
200,497.51,2022-10-28 11:00:33.125000
201,463.16,2022-10-28 11:00:33.140625
202,417.45,2022-10-28 11:00:33.156250
203,362.46,2022-10-28 11:00:33.171875
204,302.16,2022-10-28 11:00:33.187500
205,241.9,2022-10-28 11:00:33.203125
206,187.57,2022-10-28 11:00:33.218750
207,144.56,2022-10-28 11:00:33.234375
208,116.62,2022-10-28 11:00:33.250000
209,105.0,2022-10-28 11:00:33.265625
210,108.02,2022-10-28 11:00:33.281250
211,121.47,2022-10-28 11:00:33.296875
212,139.73,2022-10-28 11:00:33.312500
213,157.24,2022-10-28 11:00:33.328125
214,169.69,2022-10-28 11:00:33.343750
215,174.65,2022-10-28 11:00:33.359375
216,171.42,2022-10-28 11:00:33.375000
217,160.46,2022-10-28 11:00:33.390625
218,142.88,2022-10-28 11:00:33.406250
219,120.16,2022-10-28 11:00:33.421875
220,94.06,2022-10-28 11:00:33.437500
221,66.63,2022-10-28 11:00:33.453125
222,39.9,2022-10-28 11:00:33.468750
223,15.36,2022-10-28 11:00:33.484375
224,-6.47,2022-10-28 11:00:33.500000
225,-26.21,2022-10-28 11:00:33.515625
226,-45.11,2022-10-28 11:00:33.531250
227,-64.24,2022-10-28 11:00:33.546875
228,-83.69,2022-10-28 11:00:33.562500
229,-102.19,2022-10-28 11:00:33.578125
230,-117.49,2022-10-28 11:00:33.593750
231,-127.4,2022-10-28 11:00:33.609375
232,-130.82,2022-10-28 11:00:33.625000
233,-128.3,2022-10-28 11:00:33.640625
234,-121.9,2022-10-28 11:00:33.656250
235,-114.25,2022-10-28 11:00:33.671875
236,-107.51,2022-10-28 11:00:33.687500
237,-102.61,2022-10-28 11:00:33.703125
238,-99.25,2022-10-28 11:00:33.718750
239,-96.42,2022-10-28 11:00:33.734375
240,-93.19,2022-10-28 11:00:33.750000
241,-89.26,2022-10-28 11:00:33.765625
242,-84.95,2022-10-28 11:00:33.781250
243,-80.88,2022-10-28 11:00:33.796875
244,-77.5,2022-10-28 11:00:33.812500
245,-74.74,2022-10-28 11:00:33.828125
246,-72.1,2022-10-28 11:00:33.843750
247,-68.92,2022-10-28 11:00:33.859375
248,-64.68,2022-10-28 11:00:33.875000
249,-59.24,2022-10-28 11:00:33.890625
250,-52.93,2022-10-28 11:00:33.906250
251,-46.33,2022-10-28 11:00:33.921875
252,-40.08,2022-10-28 11:00:33.937500
253,-34.6,2022-10-28 11:00:33.953125
254,-30.01,2022-10-28 11:00:33.968750
255,-26.18,2022-10-28 11:00:33.984375
256,-22.83,2022-10-28 11:00:34.000000
257,-19.8,2022-10-28 11:00:34.015625
258,-17.12,2022-10-28 11:00:34.031250
259,-14.98,2022-10-28 11:00:34.046875
260,-13.63,2022-10-28 11:00:34.062500
261,-13.14,2022-10-28 11:00:34.078125
262,-13.35,2022-10-28 11:00:34.093750
263,-13.9,2022-10-28 11:00:34.109375
264,-14.45,2022-10-28 11:00:34.125000
265,-14.85,2022-10-28 11:00:34.140625
266,-15.23,2022-10-28 11:00:34.156250
267,-15.95,2022-10-28 11:00:34.171875
268,-17.34,2022-10-28 11:00:34.187500
269,-19.5,2022-10-28 11:00:34.203125
270,-22.25,2022-10-28 11:00:34.218750
271,-25.3,2022-10-28 11:00:34.234375
272,-28.39,2022-10-28 11:00:34.250000
273,-31.57,2022-10-28 11:00:34.265625
274,-35.14,2022-10-28 11:00:34.281250
275,-39.48,2022-10-28 11:00:34.296875
276,-44.77,2022-10-28 11:00:34.312500
277,-50.88,2022-10-28 11:00:34.328125
278,-57.32,2022-10-28 11:00:34.343750
279,-63.51,2022-10-28 11:00:34.359375
280,-68.95,2022-10-28 11:00:34.375000
281,-73.32,2022-10-28 11:00:34.390625
282,-76.43,2022-10-28 11:00:34.406250
283,-78.04,2022-10-28 11:00:34.421875
284,-77.8,2022-10-28 11:00:34.437500
285,-75.33,2022-10-28 11:00:34.453125
286,-70.45,2022-10-28 11:00:34.468750
287,-63.48,2022-10-28 11:00:34.484375
288,-55.22,2022-10-28 11:00:34.500000
289,-46.72,2022-10-28 11:00:34.515625
290,-38.94,2022-10-28 11:00:34.531250
291,-32.36,2022-10-28 11:00:34.546875
292,-26.93,2022-10-28 11:00:34.562500
293,-22.19,2022-10-28 11:00:34.578125
294,-17.66,2022-10-28 11:00:34.593750
295,-13.14,2022-10-28 11:00:34.609375
296,-8.72,2022-10-28 11:00:34.625000
297,-4.63,2022-10-28 11:00:34.640625
298,-0.96,2022-10-28 11:00:34.656250
299,2.59,2022-10-28 11:00:34.671875
300,6.59,2022-10-28 11:00:34.687500
301,11.64,2022-10-28 11:00:34.703125
302,17.99,2022-10-28 11:00:34.718750
303,25.34,2022-10-28 11:00:34.734375
304,32.88,2022-10-28 11:00:34.750000
305,39.62,2022-10-28 11:00:34.765625
306,44.78,2022-10-28 11:00:34.781250
307,48.06,2022-10-28 11:00:34.796875
308,49.72,2022-10-28 11:00:34.812500
309,50.31,2022-10-28 11:00:34.828125
310,50.4,2022-10-28 11:00:34.843750
311,50.28,2022-10-28 11:00:34.859375
312,49.89,2022-10-28 11:00:34.875000
313,48.95,2022-10-28 11:00:34.890625
314,47.11,2022-10-28 11:00:34.906250
315,44.28,2022-10-28 11:00:34.921875
316,40.67,2022-10-28 11:00:34.937500
317,36.67,2022-10-28 11:00:34.953125
318,32.68,2022-10-28 11:00:34.968750
319,28.85,2022-10-28 11:00:34.984375
320,25.0,2022-10-28 11:00:35.000000
321,20.68,2022-10-28 11:00:35.015625
322,15.51,2022-10-28 11:00:35.031250
323,9.34,2022-10-28 11:00:35.046875
324,2.46,2022-10-28 11:00:35.062500
325,-4.57,2022-10-28 11:00:35.078125
326,-11.12,2022-10-28 11:00:35.093750
327,-16.81,2022-10-28 11:00:35.109375
328,-21.62,2022-10-28 11:00:35.125000
329,-25.87,2022-10-28 11:00:35.140625
330,-30.01,2022-10-28 11:00:35.156250
331,-34.47,2022-10-28 11:00:35.171875
332,-39.47,2022-10-28 11:00:35.187500
333,-44.98,2022-10-28 11:00:35.203125
334,-50.74,2022-10-28 11:00:35.218750
335,-56.2,2022-10-28 11:00:35.234375
336,-60.59,2022-10-28 11:00:35.250000
337,-62.99,2022-10-28 11:00:35.265625
338,-62.54,2022-10-28 11:00:35.281250
339,-58.73,2022-10-28 11:00:35.296875
340,-51.62,2022-10-28 11:00:35.312500
341,-41.89,2022-10-28 11:00:35.328125
342,-30.68,2022-10-28 11:00:35.343750
343,-19.29,2022-10-28 11:00:35.359375
344,-8.79,2022-10-28 11:00:35.375000
345,0.2,2022-10-28 11:00:35.390625
346,7.43,2022-10-28 11:00:35.406250
347,12.92,2022-10-28 11:00:35.421875
348,16.74,2022-10-28 11:00:35.437500
349,18.93,2022-10-28 11:00:35.453125
350,19.52,2022-10-28 11:00:35.468750
351,18.67,2022-10-28 11:00:35.484375
352,16.82,2022-10-28 11:00:35.500000
353,14.59,2022-10-28 11:00:35.515625
354,12.75,2022-10-28 11:00:35.531250
355,11.91,2022-10-28 11:00:35.546875
356,12.43,2022-10-28 11:00:35.562500
357,14.26,2022-10-28 11:00:35.578125
358,17.07,2022-10-28 11:00:35.593750
359,20.32,2022-10-28 11:00:35.609375
360,23.51,2022-10-28 11:00:35.625000
361,26.23,2022-10-28 11:00:35.640625
362,28.29,2022-10-28 11:00:35.656250
363,29.62,2022-10-28 11:00:35.671875
364,30.27,2022-10-28 11:00:35.687500
365,30.31,2022-10-28 11:00:35.703125
366,29.76,2022-10-28 11:00:35.718750
367,28.65,2022-10-28 11:00:35.734375
368,26.98,2022-10-28 11:00:35.750000
369,24.76,2022-10-28 11:00:35.765625
370,22.08,2022-10-28 11:00:35.781250
371,19.07,2022-10-28 11:00:35.796875
372,15.91,2022-10-28 11:00:35.812500
373,12.75,2022-10-28 11:00:35.828125
374,9.68,2022-10-28 11:00:35.843750
375,6.68,2022-10-28 11:00:35.859375
376,3.62,2022-10-28 11:00:35.875000
377,0.35,2022-10-28 11:00:35.890625
378,-3.22,2022-10-28 11:00:35.906250
379,-7.07,2022-10-28 11:00:35.921875
380,-10.98,2022-10-28 11:00:35.937500
381,-14.67,2022-10-28 11:00:35.953125
382,-17.84,2022-10-28 11:00:35.968750
383,-20.35,2022-10-28 11:00:35.984375
384,-22.32,2022-10-28 11:00:36.000000
385,-24.08,2022-10-28 11:00:36.015625
386,-26.07,2022-10-28 11:00:36.031250
387,-28.74,2022-10-28 11:00:36.046875
388,-32.29,2022-10-28 11:00:36.062500
389,-36.63,2022-10-28 11:00:36.078125
390,-41.31,2022-10-28 11:00:36.093750
391,-45.59,2022-10-28 11:00:36.109375
392,-48.53,2022-10-28 11:00:36.125000
393,-49.19,2022-10-28 11:00:36.140625
394,-46.88,2022-10-28 11:00:36.156250
395,-41.32,2022-10-28 11:00:36.171875
396,-32.84,2022-10-28 11:00:36.187500
397,-22.27,2022-10-28 11:00:36.203125
398,-10.86,2022-10-28 11:00:36.218750
399,0.13,2022-10-28 11:00:36.234375
400,9.68,2022-10-28 11:00:36.250000
401,17.22,2022-10-28 11:00:36.265625
402,22.63,2022-10-28 11:00:36.281250
403,26.08,2022-10-28 11:00:36.296875
404,27.88,2022-10-28 11:00:36.312500
405,28.27,2022-10-28 11:00:36.328125
406,27.45,2022-10-28 11:00:36.343750
407,25.64,2022-10-28 11:00:36.359375
408,23.15,2022-10-28 11:00:36.375000
409,20.46,2022-10-28 11:00:36.390625
410,18.13,2022-10-28 11:00:36.406250
411,16.66,2022-10-28 11:00:36.421875
412,16.35,2022-10-28 11:00:36.437500
413,17.17,2022-10-28 11:00:36.453125
414,18.74,2022-10-28 11:00:36.468750
415,20.5,2022-10-28 11:00:36.484375
416,21.84,2022-10-28 11:00:36.500000
417,22.38,2022-10-28 11:00:36.515625
418,22.03,2022-10-28 11:00:36.531250
419,20.96,2022-10-28 11:00:36.546875
420,19.43,2022-10-28 11:00:36.562500
421,17.53,2022-10-28 11:00:36.578125
422,15.11,2022-10-28 11:00:36.593750
423,11.87,2022-10-28 11:00:36.609375
424,7.57,2022-10-28 11:00:36.625000
425,2.37,2022-10-28 11:00:36.640625
426,-3.19,2022-10-28 11:00:36.656250
427,-8.31,2022-10-28 11:00:36.671875
428,-12.38,2022-10-28 11:00:36.687500
429,-15.2,2022-10-28 11:00:36.703125
430,-17.11,2022-10-28 11:00:36.718750
431,-18.69,2022-10-28 11:00:36.734375
432,-20.48,2022-10-28 11:00:36.750000
433,-22.62,2022-10-28 11:00:36.765625
434,-24.85,2022-10-28 11:00:36.781250
435,-26.75,2022-10-28 11:00:36.796875
436,-28.01,2022-10-28 11:00:36.812500
437,-28.68,2022-10-28 11:00:36.828125
438,-29.19,2022-10-28 11:00:36.843750
439,-30.11,2022-10-28 11:00:36.859375
440,-32.0,2022-10-28 11:00:36.875000
441,-35.18,2022-10-28 11:00:36.890625
442,-39.67,2022-10-28 11:00:36.906250
443,-45.18,2022-10-28 11:00:36.921875
444,-51.13,2022-10-28 11:00:36.937500
445,-56.69,2022-10-28 11:00:36.953125
446,-60.84,2022-10-28 11:00:36.968750
447,-62.51,2022-10-28 11:00:36.984375
448,-60.82,2022-10-28 11:00:37.000000
449,-55.36,2022-10-28 11:00:37.015625
450,-46.45,2022-10-28 11:00:37.031250
451,-35.07,2022-10-28 11:00:37.046875
452,-22.71,2022-10-28 11:00:37.062500
453,-10.94,2022-10-28 11:00:37.078125
454,-0.99,2022-10-28 11:00:37.093750
455,6.58,2022-10-28 11:00:37.109375
456,11.81,2022-10-28 11:00:37.125000
457,15.18,2022-10-28 11:00:37.140625
458,17.22,2022-10-28 11:00:37.156250
459,18.31,2022-10-28 11:00:37.171875
460,18.55,2022-10-28 11:00:37.187500
461,17.91,2022-10-28 11:00:37.203125
462,16.45,2022-10-28 11:00:37.218750
463,14.47,2022-10-28 11:00:37.234375
464,12.52,2022-10-28 11:00:37.250000
465,11.22,2022-10-28 11:00:37.265625
466,11.01,2022-10-28 11:00:37.281250
467,11.98,2022-10-28 11:00:37.296875
468,13.79,2022-10-28 11:00:37.312500
469,15.87,2022-10-28 11:00:37.328125
470,17.68,2022-10-28 11:00:37.343750
471,18.85,2022-10-28 11:00:37.359375
472,19.31,2022-10-28 11:00:37.375000
473,19.2,2022-10-28 11:00:37.390625
474,18.67,2022-10-28 11:00:37.406250
475,17.73,2022-10-28 11:00:37.421875
476,16.24,2022-10-28 11:00:37.437500
477,14.02,2022-10-28 11:00:37.453125
478,10.97,2022-10-28 11:00:37.468750
479,7.27,2022-10-28 11:00:37.484375
480,3.28,2022-10-28 11:00:37.500000
481,-0.52,2022-10-28 11:00:37.515625
482,-3.76,2022-10-28 11:00:37.531250
483,-6.34,2022-10-28 11:00:37.546875
484,-8.37,2022-10-28 11:00:37.562500
485,-10.08,2022-10-28 11:00:37.578125
486,-11.62,2022-10-28 11:00:37.593750
487,-12.9,2022-10-28 11:00:37.609375
488,-13.64,2022-10-28 11:00:37.625000
489,-13.53,2022-10-28 11:00:37.640625
490,-12.44,2022-10-28 11:00:37.656250
491,-10.55,2022-10-28 11:00:37.671875
492,-8.38,2022-10-28 11:00:37.687500
493,-6.62,2022-10-28 11:00:37.703125
494,-5.94,2022-10-28 11:00:37.718750
495,-6.79,2022-10-28 11:00:37.734375
496,-9.39,2022-10-28 11:00:37.750000
497,-13.66,2022-10-28 11:00:37.765625
498,-19.18,2022-10-28 11:00:37.781250
499,-25.15,2022-10-28 11:00:37.796875
500,-30.42,2022-10-28 11:00:37.812500
501,-33.65,2022-10-28 11:00:37.828125
502,-33.67,2022-10-28 11:00:37.843750
503,-29.93,2022-10-28 11:00:37.859375
504,-22.78,2022-10-28 11:00:37.875000
505,-13.45,2022-10-28 11:00:37.890625
506,-3.62,2022-10-28 11:00:37.906250
507,5.13,2022-10-28 11:00:37.921875
508,11.8,2022-10-28 11:00:37.937500
509,16.25,2022-10-28 11:00:37.953125
510,18.91,2022-10-28 11:00:37.968750
511,20.5,2022-10-28 11:00:37.984375
512,21.48,2022-10-28 11:00:38.000000
513,22.03,2022-10-28 11:00:38.015625
514,22.04,2022-10-28 11:00:38.031250
515,21.38,2022-10-28 11:00:38.046875
516,20.18,2022-10-28 11:00:38.062500
517,18.79,2022-10-28 11:00:38.078125
518,17.76,2022-10-28 11:00:38.093750
519,17.49,2022-10-28 11:00:38.109375
520,18.16,2022-10-28 11:00:38.125000
521,19.6,2022-10-28 11:00:38.140625
522,21.41,2022-10-28 11:00:38.156250
523,23.16,2022-10-28 11:00:38.171875
524,24.6,2022-10-28 11:00:38.187500
525,25.69,2022-10-28 11:00:38.203125
526,26.55,2022-10-28 11:00:38.218750
527,27.32,2022-10-28 11:00:38.234375
528,27.95,2022-10-28 11:00:38.250000
529,28.17,2022-10-28 11:00:38.265625
530,27.58,2022-10-28 11:00:38.281250
531,25.86,2022-10-28 11:00:38.296875
532,22.98,2022-10-28 11:00:38.312500
533,19.29,2022-10-28 11:00:38.328125
534,15.4,2022-10-28 11:00:38.343750
535,11.93,2022-10-28 11:00:38.359375
536,9.24,2022-10-28 11:00:38.375000
537,7.23,2022-10-28 11:00:38.390625
538,5.5,2022-10-28 11:00:38.406250
539,3.46,2022-10-28 11:00:38.421875
540,0.69,2022-10-28 11:00:38.437500
541,-2.9,2022-10-28 11:00:38.453125
542,-7.07,2022-10-28 11:00:38.468750
543,-11.3,2022-10-28 11:00:38.484375
544,-15.11,2022-10-28 11:00:38.500000
545,-18.23,2022-10-28 11:00:38.515625
546,-20.72,2022-10-28 11:00:38.531250
547,-22.9,2022-10-28 11:00:38.546875
548,-25.25,2022-10-28 11:00:38.562500
549,-28.23,2022-10-28 11:00:38.578125
550,-32.11,2022-10-28 11:00:38.593750
551,-36.94,2022-10-28 11:00:38.609375
552,-42.46,2022-10-28 11:00:38.625000
553,-48.06,2022-10-28 11:00:38.640625
554,-52.75,2022-10-28 11:00:38.656250
555,-55.32,2022-10-28 11:00:38.671875
556,-54.65,2022-10-28 11:00:38.687500
557,-49.99,2022-10-28 11:00:38.703125
558,-41.37,2022-10-28 11:00:38.718750
559,-29.59,2022-10-28 11:00:38.734375
560,-16.02,2022-10-28 11:00:38.750000
561,-2.14,2022-10-28 11:00:38.765625
562,10.94,2022-10-28 11:00:38.781250
563,22.64,2022-10-28 11:00:38.796875
564,32.86,2022-10-28 11:00:38.812500
565,41.67,2022-10-28 11:00:38.828125
566,49.03,2022-10-28 11:00:38.843750
567,54.61,2022-10-28 11:00:38.859375
568,58.03,2022-10-28 11:00:38.875000
569,59.04,2022-10-28 11:00:38.890625
570,57.86,2022-10-28 11:00:38.906250
571,55.12,2022-10-28 11:00:38.921875
572,51.81,2022-10-28 11:00:38.937500
573,48.89,2022-10-28 11:00:38.953125
574,47.01,2022-10-28 11:00:38.968750
575,46.31,2022-10-28 11:00:38.984375
576,46.49,2022-10-28 11:00:39.000000
577,47.06,2022-10-28 11:00:39.015625
578,47.52,2022-10-28 11:00:39.031250
579,47.67,2022-10-28 11:00:39.046875
580,47.53,2022-10-28 11:00:39.062500
581,47.31,2022-10-28 11:00:39.078125
582,47.12,2022-10-28 11:00:39.093750
583,46.86,2022-10-28 11:00:39.109375
584,46.21,2022-10-28 11:00:39.125000
585,44.81,2022-10-28 11:00:39.140625
586,42.47,2022-10-28 11:00:39.156250
587,39.25,2022-10-28 11:00:39.171875
588,35.53,2022-10-28 11:00:39.187500
589,31.77,2022-10-28 11:00:39.203125
590,28.38,2022-10-28 11:00:39.218750
591,25.51,2022-10-28 11:00:39.234375
592,23.05,2022-10-28 11:00:39.250000
593,20.76,2022-10-28 11:00:39.265625
594,18.34,2022-10-28 11:00:39.281250
595,15.63,2022-10-28 11:00:39.296875
596,12.56,2022-10-28 11:00:39.312500
597,9.2,2022-10-28 11:00:39.328125
598,5.71,2022-10-28 11:00:39.343750
599,2.29,2022-10-28 11:00:39.359375
600,-0.85,2022-10-28 11:00:39.375000
601,-3.6,2022-10-28 11:00:39.390625
602,-5.97,2022-10-28 11:00:39.406250
603,-8.13,2022-10-28 11:00:39.421875
604,-10.37,2022-10-28 11:00:39.437500
605,-13.04,2022-10-28 11:00:39.453125
606,-16.43,2022-10-28 11:00:39.468750
607,-20.7,2022-10-28 11:00:39.484375
608,-25.86,2022-10-28 11:00:39.500000
609,-31.69,2022-10-28 11:00:39.515625
610,-37.72,2022-10-28 11:00:39.531250
611,-43.17,2022-10-28 11:00:39.546875
612,-47.08,2022-10-28 11:00:39.562500
613,-48.42,2022-10-28 11:00:39.578125
614,-46.51,2022-10-28 11:00:39.593750
615,-41.29,2022-10-28 11:00:39.609375
616,-33.45,2022-10-28 11:00:39.625000
617,-24.23,2022-10-28 11:00:39.640625
618,-15.04,2022-10-28 11:00:39.656250
619,-7.0,2022-10-28 11:00:39.671875
620,-0.69,2022-10-28 11:00:39.687500
621,3.91,2022-10-28 11:00:39.703125
622,7.06,2022-10-28 11:00:39.718750
623,9.06,2022-10-28 11:00:39.734375
624,9.97,2022-10-28 11:00:39.750000
625,9.78,2022-10-28 11:00:39.765625
626,8.47,2022-10-28 11:00:39.781250
627,6.34,2022-10-28 11:00:39.796875
628,3.9,2022-10-28 11:00:39.812500
629,1.87,2022-10-28 11:00:39.828125
630,0.86,2022-10-28 11:00:39.843750
631,1.17,2022-10-28 11:00:39.859375
632,2.69,2022-10-28 11:00:39.875000
633,4.98,2022-10-28 11:00:39.890625
634,7.48,2022-10-28 11:00:39.906250
635,9.69,2022-10-28 11:00:39.921875
636,11.34,2022-10-28 11:00:39.937500
637,12.39,2022-10-28 11:00:39.953125
638,12.95,2022-10-28 11:00:39.968750
639,13.16,2022-10-28 11:00:39.984375
640,13.04,2022-10-28 11:00:40.000000
641,12.48,2022-10-28 11:00:40.015625
642,11.3,2022-10-28 11:00:40.031250
643,9.4,2022-10-28 11:00:40.046875
644,6.84,2022-10-28 11:00:40.062500
645,3.92,2022-10-28 11:00:40.078125
646,1.11,2022-10-28 11:00:40.093750
647,-1.14,2022-10-28 11:00:40.109375
648,-2.6,2022-10-28 11:00:40.125000
649,-3.41,2022-10-28 11:00:40.140625
650,-4.04,2022-10-28 11:00:40.156250
651,-5.09,2022-10-28 11:00:40.171875
652,-7.02,2022-10-28 11:00:40.187500
653,-9.91,2022-10-28 11:00:40.203125
654,-13.44,2022-10-28 11:00:40.218750
655,-16.99,2022-10-28 11:00:40.234375
656,-20.04,2022-10-28 11:00:40.250000
657,-22.28,2022-10-28 11:00:40.265625
658,-23.85,2022-10-28 11:00:40.281250
659,-25.21,2022-10-28 11:00:40.296875
660,-26.94,2022-10-28 11:00:40.312500
661,-29.55,2022-10-28 11:00:40.328125
662,-33.34,2022-10-28 11:00:40.343750
663,-38.29,2022-10-28 11:00:40.359375
664,-44.04,2022-10-28 11:00:40.375000
665,-49.85,2022-10-28 11:00:40.390625
666,-54.71,2022-10-28 11:00:40.406250
667,-57.53,2022-10-28 11:00:40.421875
668,-57.41,2022-10-28 11:00:40.437500
669,-53.96,2022-10-28 11:00:40.453125
670,-47.39,2022-10-28 11:00:40.468750
671,-38.52,2022-10-28 11:00:40.484375
672,-28.52,2022-10-28 11:00:40.500000
673,-18.55,2022-10-28 11:00:40.515625
674,-9.54,2022-10-28 11:00:40.531250
675,-2.01,2022-10-28 11:00:40.546875
676,3.9,2022-10-28 11:00:40.562500
677,8.3,2022-10-28 11:00:40.578125
678,11.37,2022-10-28 11:00:40.593750
679,13.28,2022-10-28 11:00:40.609375
680,14.11,2022-10-28 11:00:40.625000
681,13.91,2022-10-28 11:00:40.640625
682,12.79,2022-10-28 11:00:40.656250
683,11.04,2022-10-28 11:00:40.671875
684,9.16,2022-10-28 11:00:40.687500
685,7.78,2022-10-28 11:00:40.703125
686,7.48,2022-10-28 11:00:40.718750
687,8.56,2022-10-28 11:00:40.734375
688,10.86,2022-10-28 11:00:40.750000
689,13.84,2022-10-28 11:00:40.765625
690,16.76,2022-10-28 11:00:40.781250
691,19.04,2022-10-28 11:00:40.796875
692,20.35,2022-10-28 11:00:40.812500
693,20.76,2022-10-28 11:00:40.828125
694,20.49,2022-10-28 11:00:40.843750
695,19.78,2022-10-28 11:00:40.859375
696,18.67,2022-10-28 11:00:40.875000
697,17.07,2022-10-28 11:00:40.890625
698,14.84,2022-10-28 11:00:40.906250
699,11.95,2022-10-28 11:00:40.921875
700,8.61,2022-10-28 11:00:40.937500
701,5.2,2022-10-28 11:00:40.953125
702,2.21,2022-10-28 11:00:40.968750
703,-0.09,2022-10-28 11:00:40.984375
704,-1.7,2022-10-28 11:00:41.000000
705,-2.92,2022-10-28 11:00:41.015625
706,-4.26,2022-10-28 11:00:41.031250
707,-6.15,2022-10-28 11:00:41.046875
708,-8.85,2022-10-28 11:00:41.062500
709,-12.28,2022-10-28 11:00:41.078125
710,-16.12,2022-10-28 11:00:41.093750
711,-19.93,2022-10-28 11:00:41.109375
712,-23.38,2022-10-28 11:00:41.125000
713,-26.32,2022-10-28 11:00:41.140625
714,-28.79,2022-10-28 11:00:41.156250
715,-30.99,2022-10-28 11:00:41.171875
716,-33.19,2022-10-28 11:00:41.187500
717,-35.77,2022-10-28 11:00:41.203125
718,-39.08,2022-10-28 11:00:41.218750
719,-43.35,2022-10-28 11:00:41.234375
720,-48.45,2022-10-28 11:00:41.250000
721,-53.79,2022-10-28 11:00:41.265625
722,-58.3,2022-10-28 11:00:41.281250
723,-60.67,2022-10-28 11:00:41.296875
724,-59.8,2022-10-28 11:00:41.312500
725,-55.21,2022-10-28 11:00:41.328125
726,-47.23,2022-10-28 11:00:41.343750
727,-36.88,2022-10-28 11:00:41.359375
728,-25.57,2022-10-28 11:00:41.375000
729,-14.63,2022-10-28 11:00:41.390625
730,-5.0,2022-10-28 11:00:41.406250
731,2.83,2022-10-28 11:00:41.421875
732,8.79,2022-10-28 11:00:41.437500
733,12.97,2022-10-28 11:00:41.453125
734,15.62,2022-10-28 11:00:41.468750
735,17.03,2022-10-28 11:00:41.484375
736,17.48,2022-10-28 11:00:41.500000
737,17.35,2022-10-28 11:00:41.515625
738,17.0,2022-10-28 11:00:41.531250
739,16.8,2022-10-28 11:00:41.546875
740,16.99,2022-10-28 11:00:41.562500
741,17.69,2022-10-28 11:00:41.578125
742,18.92,2022-10-28 11:00:41.593750
743,20.6,2022-10-28 11:00:41.609375
744,22.56,2022-10-28 11:00:41.625000
745,24.61,2022-10-28 11:00:41.640625
746,26.55,2022-10-28 11:00:41.656250
747,28.18,2022-10-28 11:00:41.671875
748,29.4,2022-10-28 11:00:41.687500
749,30.16,2022-10-28 11:00:41.703125
750,30.48,2022-10-28 11:00:41.718750
751,30.43,2022-10-28 11:00:41.734375
752,30.11,2022-10-28 11:00:41.750000
753,29.57,2022-10-28 11:00:41.765625
754,28.79,2022-10-28 11:00:41.781250
755,27.68,2022-10-28 11:00:41.796875
756,26.08,2022-10-28 11:00:41.812500
757,23.9,2022-10-28 11:00:41.828125
758,21.16,2022-10-28 11:00:41.843750
759,18.06,2022-10-28 11:00:41.859375
760,14.85,2022-10-28 11:00:41.875000
761,11.86,2022-10-28 11:00:41.890625
762,9.27,2022-10-28 11:00:41.906250
763,7.11,2022-10-28 11:00:41.921875
764,5.25,2022-10-28 11:00:41.937500
765,3.45,2022-10-28 11:00:41.953125
766,1.5,2022-10-28 11:00:41.968750
767,-0.71,2022-10-28 11:00:41.984375
768,-3.17,2022-10-28 11:00:42.000000
769,-5.73,2022-10-28 11:00:42.015625
770,-8.28,2022-10-28 11:00:42.031250
771,-10.71,2022-10-28 11:00:42.046875
772,-13.09,2022-10-28 11:00:42.062500
773,-15.56,2022-10-28 11:00:42.078125
774,-18.3,2022-10-28 11:00:42.093750
775,-21.46,2022-10-28 11:00:42.109375
776,-25.16,2022-10-28 11:00:42.125000
777,-29.46,2022-10-28 11:00:42.140625
778,-34.3,2022-10-28 11:00:42.156250
779,-39.5,2022-10-28 11:00:42.171875
780,-44.54,2022-10-28 11:00:42.187500
781,-48.66,2022-10-28 11:00:42.203125
782,-50.87,2022-10-28 11:00:42.218750
783,-50.25,2022-10-28 11:00:42.234375
784,-46.3,2022-10-28 11:00:42.250000
785,-39.19,2022-10-28 11:00:42.265625
786,-29.82,2022-10-28 11:00:42.281250
787,-19.55,2022-10-28 11:00:42.296875
788,-9.83,2022-10-28 11:00:42.312500
789,-1.73,2022-10-28 11:00:42.328125
790,4.31,2022-10-28 11:00:42.343750
791,8.41,2022-10-28 11:00:42.359375
792,11.05,2022-10-28 11:00:42.375000
793,12.68,2022-10-28 11:00:42.390625
794,13.56,2022-10-28 11:00:42.406250
795,13.73,2022-10-28 11:00:42.421875
796,13.15,2022-10-28 11:00:42.437500
797,11.91,2022-10-28 11:00:42.453125
798,10.32,2022-10-28 11:00:42.468750
799,8.88,2022-10-28 11:00:42.484375
800,8.08,2022-10-28 11:00:42.500000
801,8.29,2022-10-28 11:00:42.515625
802,9.57,2022-10-28 11:00:42.531250
803,11.75,2022-10-28 11:00:42.546875
804,14.44,2022-10-28 11:00:42.562500
805,17.27,2022-10-28 11:00:42.578125
806,19.85,2022-10-28 11:00:42.593750
807,21.97,2022-10-28 11:00:42.609375
808,23.46,2022-10-28 11:00:42.625000
809,24.22,2022-10-28 11:00:42.640625
810,24.19,2022-10-28 11:00:42.656250
811,23.32,2022-10-28 11:00:42.671875
812,21.68,2022-10-28 11:00:42.687500
813,19.45,2022-10-28 11:00:42.703125
814,16.94,2022-10-28 11:00:42.718750
815,14.54,2022-10-28 11:00:42.734375
816,12.54,2022-10-28 11:00:42.750000
817,11.0,2022-10-28 11:00:42.765625
818,9.69,2022-10-28 11:00:42.781250
819,8.23,2022-10-28 11:00:42.796875
820,6.28,2022-10-28 11:00:42.812500
821,3.78,2022-10-28 11:00:42.828125
822,0.99,2022-10-28 11:00:42.843750
823,-1.7,2022-10-28 11:00:42.859375
824,-3.98,2022-10-28 11:00:42.875000
825,-5.82,2022-10-28 11:00:42.890625
826,-7.51,2022-10-28 11:00:42.906250
827,-9.48,2022-10-28 11:00:42.921875
828,-12.04,2022-10-28 11:00:42.937500
829,-15.2,2022-10-28 11:00:42.953125
830,-18.71,2022-10-28 11:00:42.968750
831,-22.21,2022-10-28 11:00:42.984375
832,-25.4,2022-10-28 11:00:43.000000
833,-28.21,2022-10-28 11:00:43.015625
834,-30.79,2022-10-28 11:00:43.031250
835,-33.44,2022-10-28 11:00:43.046875
836,-36.53,2022-10-28 11:00:43.062500
837,-40.34,2022-10-28 11:00:43.078125
838,-45.07,2022-10-28 11:00:43.093750
839,-50.59,2022-10-28 11:00:43.109375
840,-56.43,2022-10-28 11:00:43.125000
841,-61.67,2022-10-28 11:00:43.140625
842,-65.07,2022-10-28 11:00:43.156250
843,-65.44,2022-10-28 11:00:43.171875
844,-62.04,2022-10-28 11:00:43.187500
845,-54.86,2022-10-28 11:00:43.203125
846,-44.73,2022-10-28 11:00:43.218750
847,-33.09,2022-10-28 11:00:43.234375
848,-21.49,2022-10-28 11:00:43.250000
849,-11.2,2022-10-28 11:00:43.265625
850,-2.92,2022-10-28 11:00:43.281250
851,3.24,2022-10-28 11:00:43.296875
852,7.59,2022-10-28 11:00:43.312500
853,10.62,2022-10-28 11:00:43.328125
854,12.73,2022-10-28 11:00:43.343750
855,14.15,2022-10-28 11:00:43.359375
856,14.98,2022-10-28 11:00:43.375000
857,15.25,2022-10-28 11:00:43.390625
858,15.12,2022-10-28 11:00:43.406250
859,14.84,2022-10-28 11:00:43.421875
860,14.84,2022-10-28 11:00:43.437500
861,15.5,2022-10-28 11:00:43.453125
862,17.06,2022-10-28 11:00:43.468750
863,19.44,2022-10-28 11:00:43.484375
864,22.37,2022-10-28 11:00:43.500000
865,25.37,2022-10-28 11:00:43.515625
866,28.07,2022-10-28 11:00:43.531250
867,30.24,2022-10-28 11:00:43.546875
868,31.83,2022-10-28 11:00:43.562500
869,32.93,2022-10-28 11:00:43.578125
870,33.61,2022-10-28 11:00:43.593750
871,33.86,2022-10-28 11:00:43.609375
872,33.63,2022-10-28 11:00:43.625000
873,32.8,2022-10-28 11:00:43.640625
874,31.38,2022-10-28 11:00:43.656250
875,29.45,2022-10-28 11:00:43.671875
876,27.24,2022-10-28 11:00:43.687500
877,25.01,2022-10-28 11:00:43.703125
878,22.98,2022-10-28 11:00:43.718750
879,21.24,2022-10-28 11:00:43.734375
880,19.78,2022-10-28 11:00:43.750000
881,18.46,2022-10-28 11:00:43.765625
882,17.07,2022-10-28 11:00:43.781250
883,15.46,2022-10-28 11:00:43.796875
884,13.53,2022-10-28 11:00:43.812500
885,11.29,2022-10-28 11:00:43.828125
886,8.88,2022-10-28 11:00:43.843750
887,6.47,2022-10-28 11:00:43.859375
888,4.22,2022-10-28 11:00:43.875000
889,2.23,2022-10-28 11:00:43.890625
890,0.45,2022-10-28 11:00:43.906250
891,-1.28,2022-10-28 11:00:43.921875
892,-3.22,2022-10-28 11:00:43.937500
893,-5.63,2022-10-28 11:00:43.953125
894,-8.67,2022-10-28 11:00:43.968750
895,-12.31,2022-10-28 11:00:43.984375
896,-16.34,2022-10-28 11:00:44.000000
897,-20.37,2022-10-28 11:00:44.015625
898,-24.03,2022-10-28 11:00:44.031250
899,-27.09,2022-10-28 11:00:44.046875
900,-29.63,2022-10-28 11:00:44.062500
901,-32.0,2022-10-28 11:00:44.078125
902,-34.79,2022-10-28 11:00:44.093750
903,-38.54,2022-10-28 11:00:44.109375
904,-43.55,2022-10-28 11:00:44.125000
905,-49.68,2022-10-28 11:00:44.140625
906,-56.22,2022-10-28 11:00:44.156250
907,-62.04,2022-10-28 11:00:44.171875
908,-65.78,2022-10-28 11:00:44.187500
909,-66.23,2022-10-28 11:00:44.203125
910,-62.66,2022-10-28 11:00:44.218750
911,-55.11,2022-10-28 11:00:44.234375
912,-44.38,2022-10-28 11:00:44.250000
913,-31.89,2022-10-28 11:00:44.265625
914,-19.25,2022-10-28 11:00:44.281250
915,-7.84,2022-10-28 11:00:44.296875
916,1.46,2022-10-28 11:00:44.312500
917,8.45,2022-10-28 11:00:44.328125
918,13.36,2022-10-28 11:00:44.343750
919,16.69,2022-10-28 11:00:44.359375
920,18.85,2022-10-28 11:00:44.375000
921,20.08,2022-10-28 11:00:44.390625
922,20.46,2022-10-28 11:00:44.406250
923,20.12,2022-10-28 11:00:44.421875
924,19.32,2022-10-28 11:00:44.437500
925,18.5,2022-10-28 11:00:44.453125
926,18.23,2022-10-28 11:00:44.468750
927,18.92,2022-10-28 11:00:44.484375
928,20.76,2022-10-28 11:00:44.500000
929,23.54,2022-10-28 11:00:44.515625
930,26.86,2022-10-28 11:00:44.531250
931,30.24,2022-10-28 11:00:44.546875
932,33.28,2022-10-28 11:00:44.562500
933,35.79,2022-10-28 11:00:44.578125
934,37.72,2022-10-28 11:00:44.593750
935,39.13,2022-10-28 11:00:44.609375
936,39.96,2022-10-28 11:00:44.625000
937,40.15,2022-10-28 11:00:44.640625
938,39.58,2022-10-28 11:00:44.656250
939,38.2,2022-10-28 11:00:44.671875
940,36.11,2022-10-28 11:00:44.687500
941,33.52,2022-10-28 11:00:44.703125
942,30.72,2022-10-28 11:00:44.718750
943,27.97,2022-10-28 11:00:44.734375
944,25.47,2022-10-28 11:00:44.750000
945,23.23,2022-10-28 11:00:44.765625
946,21.15,2022-10-28 11:00:44.781250
947,19.06,2022-10-28 11:00:44.796875
948,16.76,2022-10-28 11:00:44.812500
949,14.19,2022-10-28 11:00:44.828125
950,11.38,2022-10-28 11:00:44.843750
951,8.42,2022-10-28 11:00:44.859375
952,5.49,2022-10-28 11:00:44.875000
953,2.69,2022-10-28 11:00:44.890625
954,0.1,2022-10-28 11:00:44.906250
955,-2.26,2022-10-28 11:00:44.921875
956,-4.38,2022-10-28 11:00:44.937500
957,-6.32,2022-10-28 11:00:44.953125
958,-8.23,2022-10-28 11:00:44.968750
959,-10.31,2022-10-28 11:00:44.984375
960,-12.83,2022-10-28 11:00:45.000000
961,-15.92,2022-10-28 11:00:45.015625
962,-19.5,2022-10-28 11:00:45.031250
963,-23.27,2022-10-28 11:00:45.046875
964,-26.78,2022-10-28 11:00:45.062500
965,-29.66,2022-10-28 11:00:45.078125
966,-31.83,2022-10-28 11:00:45.093750
967,-33.56,2022-10-28 11:00:45.109375
968,-35.43,2022-10-28 11:00:45.125000
969,-38.11,2022-10-28 11:00:45.140625
970,-42.16,2022-10-28 11:00:45.156250
971,-47.78,2022-10-28 11:00:45.171875
972,-54.68,2022-10-28 11:00:45.187500
973,-61.99,2022-10-28 11:00:45.203125
974,-68.36,2022-10-28 11:00:45.218750
975,-72.28,2022-10-28 11:00:45.234375
976,-72.43,2022-10-28 11:00:45.250000
977,-68.15,2022-10-28 11:00:45.265625
978,-59.67,2022-10-28 11:00:45.281250
979,-48.08,2022-10-28 11:00:45.296875
980,-35.01,2022-10-28 11:00:45.312500
981,-22.11,2022-10-28 11:00:45.328125
982,-10.61,2022-10-28 11:00:45.343750
983,-1.14,2022-10-28 11:00:45.359375
984,6.22,2022-10-28 11:00:45.375000
985,11.7,2022-10-28 11:00:45.390625
986,15.62,2022-10-28 11:00:45.406250
987,18.19,2022-10-28 11:00:45.421875
988,19.56,2022-10-28 11:00:45.437500
989,19.9,2022-10-28 11:00:45.453125
990,19.41,2022-10-28 11:00:45.468750
991,18.41,2022-10-28 11:00:45.484375
992,17.29,2022-10-28 11:00:45.500000
993,16.5,2022-10-28 11:00:45.515625
994,16.49,2022-10-28 11:00:45.531250
995,17.54,2022-10-28 11:00:45.546875
996,19.69,2022-10-28 11:00:45.562500
997,22.74,2022-10-28 11:00:45.578125
998,26.27,2022-10-28 11:00:45.593750
999,29.77,2022-10-28 11:00:45.609375
1000,32.85,2022-10-28 11:00:45.625000
1001,35.31,2022-10-28 11:00:45.640625
1002,37.11,2022-10-28 11:00:45.656250
1003,38.3,2022-10-28 11:00:45.671875
1004,38.86,2022-10-28 11:00:45.687500
1005,38.71,2022-10-28 11:00:45.703125
1006,37.74,2022-10-28 11:00:45.718750
1007,35.92,2022-10-28 11:00:45.734375
1008,33.43,2022-10-28 11:00:45.750000
1009,30.57,2022-10-28 11:00:45.765625
1010,27.72,2022-10-28 11:00:45.781250
1011,25.17,2022-10-28 11:00:45.796875
1012,22.98,2022-10-28 11:00:45.812500
1013,21.07,2022-10-28 11:00:45.828125
1014,19.25,2022-10-28 11:00:45.843750
1015,17.34,2022-10-28 11:00:45.859375
1016,15.31,2022-10-28 11:00:45.875000
1017,13.16,2022-10-28 11:00:45.890625
1018,10.93,2022-10-28 11:00:45.906250
1019,8.67,2022-10-28 11:00:45.921875
1020,6.37,2022-10-28 11:00:45.937500
1021,4.03,2022-10-28 11:00:45.953125
1022,1.7,2022-10-28 11:00:45.968750
1023,-0.64,2022-10-28 11:00:45.984375
1024,-3.06,2022-10-28 11:00:46.000000
1025,-5.72,2022-10-28 11:00:46.015625
1026,-8.79,2022-10-28 11:00:46.031250
1027,-12.36,2022-10-28 11:00:46.046875
1028,-16.29,2022-10-28 11:00:46.062500
1029,-20.29,2022-10-28 11:00:46.078125
1030,-23.98,2022-10-28 11:00:46.093750
1031,-27.13,2022-10-28 11:00:46.109375
1032,-29.83,2022-10-28 11:00:46.125000
1033,-32.4,2022-10-28 11:00:46.140625
1034,-35.36,2022-10-28 11:00:46.156250
1035,-39.2,2022-10-28 11:00:46.171875
1036,-44.23,2022-10-28 11:00:46.187500
1037,-50.47,2022-10-28 11:00:46.203125
1038,-57.49,2022-10-28 11:00:46.218750
1039,-64.42,2022-10-28 11:00:46.234375
1040,-70.01,2022-10-28 11:00:46.250000
1041,-72.85,2022-10-28 11:00:46.265625
1042,-71.71,2022-10-28 11:00:46.281250
1043,-66.06,2022-10-28 11:00:46.296875
1044,-56.21,2022-10-28 11:00:46.312500
1045,-43.37,2022-10-28 11:00:46.328125
1046,-29.24,2022-10-28 11:00:46.343750
1047,-15.55,2022-10-28 11:00:46.359375
1048,-3.64,2022-10-28 11:00:46.375000
1049,5.88,2022-10-28 11:00:46.390625
1050,12.96,2022-10-28 11:00:46.406250
1051,18.04,2022-10-28 11:00:46.421875
1052,21.72,2022-10-28 11:00:46.437500
1053,24.53,2022-10-28 11:00:46.453125
1054,26.79,2022-10-28 11:00:46.468750
1055,28.63,2022-10-28 11:00:46.484375
1056,30.0,2022-10-28 11:00:46.500000
1057,30.85,2022-10-28 11:00:46.515625
1058,31.23,2022-10-28 11:00:46.531250
1059,31.32,2022-10-28 11:00:46.546875
1060,31.46,2022-10-28 11:00:46.562500
1061,32.03,2022-10-28 11:00:46.578125
1062,33.3,2022-10-28 11:00:46.593750
1063,35.32,2022-10-28 11:00:46.609375
1064,37.9,2022-10-28 11:00:46.625000
1065,40.7,2022-10-28 11:00:46.640625
1066,43.31,2022-10-28 11:00:46.656250
1067,45.34,2022-10-28 11:00:46.671875
1068,46.57,2022-10-28 11:00:46.687500
1069,46.95,2022-10-28 11:00:46.703125
1070,46.55,2022-10-28 11:00:46.718750
1071,45.5,2022-10-28 11:00:46.734375
1072,43.93,2022-10-28 11:00:46.750000
1073,41.87,2022-10-28 11:00:46.765625
1074,39.36,2022-10-28 11:00:46.781250
1075,36.42,2022-10-28 11:00:46.796875
1076,33.23,2022-10-28 11:00:46.812500
1077,30.0,2022-10-28 11:00:46.828125
1078,27.04,2022-10-28 11:00:46.843750
1079,24.54,2022-10-28 11:00:46.859375
1080,22.52,2022-10-28 11:00:46.875000
1081,20.85,2022-10-28 11:00:46.890625
1082,19.22,2022-10-28 11:00:46.906250
1083,17.43,2022-10-28 11:00:46.921875
1084,15.33,2022-10-28 11:00:46.937500
1085,13.0,2022-10-28 11:00:46.953125
1086,10.62,2022-10-28 11:00:46.968750
1087,8.38,2022-10-28 11:00:46.984375
1088,6.44,2022-10-28 11:00:47.000000
1089,4.79,2022-10-28 11:00:47.015625
1090,3.3,2022-10-28 11:00:47.031250
1091,1.73,2022-10-28 11:00:47.046875
1092,-0.14,2022-10-28 11:00:47.062500
1093,-2.48,2022-10-28 11:00:47.078125
1094,-5.32,2022-10-28 11:00:47.093750
1095,-8.6,2022-10-28 11:00:47.109375
1096,-12.16,2022-10-28 11:00:47.125000
1097,-15.79,2022-10-28 11:00:47.140625
1098,-19.32,2022-10-28 11:00:47.156250
1099,-22.59,2022-10-28 11:00:47.171875
1100,-25.53,2022-10-28 11:00:47.187500
1101,-28.2,2022-10-28 11:00:47.203125
1102,-30.86,2022-10-28 11:00:47.218750
1103,-33.93,2022-10-28 11:00:47.234375
1104,-37.94,2022-10-28 11:00:47.250000
1105,-43.3,2022-10-28 11:00:47.265625
1106,-49.93,2022-10-28 11:00:47.281250
1107,-57.16,2022-10-28 11:00:47.296875
1108,-63.64,2022-10-28 11:00:47.312500
1109,-67.71,2022-10-28 11:00:47.328125
1110,-67.87,2022-10-28 11:00:47.343750
1111,-63.35,2022-10-28 11:00:47.359375
1112,-54.35,2022-10-28 11:00:47.375000
1113,-42.02,2022-10-28 11:00:47.390625
1114,-28.12,2022-10-28 11:00:47.406250
1115,-14.43,2022-10-28 11:00:47.421875
1116,-2.33,2022-10-28 11:00:47.437500
1117,7.51,2022-10-28 11:00:47.453125
1118,15.0,2022-10-28 11:00:47.468750
1119,20.46,2022-10-28 11:00:47.484375
1120,24.32,2022-10-28 11:00:47.500000
1121,26.85,2022-10-28 11:00:47.515625
1122,28.23,2022-10-28 11:00:47.531250
1123,28.55,2022-10-28 11:00:47.546875
1124,28.03,2022-10-28 11:00:47.562500
1125,26.99,2022-10-28 11:00:47.578125
1126,25.92,2022-10-28 11:00:47.593750
1127,25.32,2022-10-28 11:00:47.609375
1128,25.56,2022-10-28 11:00:47.625000
1129,26.78,2022-10-28 11:00:47.640625
1130,28.81,2022-10-28 11:00:47.656250
1131,31.29,2022-10-28 11:00:47.671875
1132,33.83,2022-10-28 11:00:47.687500
1133,36.1,2022-10-28 11:00:47.703125
1134,37.94,2022-10-28 11:00:47.718750
1135,39.32,2022-10-28 11:00:47.734375
1136,40.24,2022-10-28 11:00:47.750000
1137,40.57,2022-10-28 11:00:47.765625
1138,40.16,2022-10-28 11:00:47.781250
1139,38.84,2022-10-28 11:00:47.796875
1140,36.6,2022-10-28 11:00:47.812500
1141,33.6,2022-10-28 11:00:47.828125
1142,30.22,2022-10-28 11:00:47.843750
1143,26.86,2022-10-28 11:00:47.859375
1144,23.79,2022-10-28 11:00:47.875000
1145,21.13,2022-10-28 11:00:47.890625
1146,18.76,2022-10-28 11:00:47.906250
1147,16.49,2022-10-28 11:00:47.921875
1148,14.1,2022-10-28 11:00:47.937500
1149,11.44,2022-10-28 11:00:47.953125
1150,8.46,2022-10-28 11:00:47.968750
1151,5.28,2022-10-28 11:00:47.984375
1152,2.11,2022-10-28 11:00:48.000000
1153,-0.78,2022-10-28 11:00:48.015625
1154,-3.1,2022-10-28 11:00:48.031250
1155,-4.75,2022-10-28 11:00:48.046875
1156,-5.88,2022-10-28 11:00:48.062500
1157,-6.93,2022-10-28 11:00:48.078125
1158,-8.37,2022-10-28 11:00:48.093750
1159,-10.61,2022-10-28 11:00:48.109375
1160,-13.72,2022-10-28 11:00:48.125000
1161,-17.45,2022-10-28 11:00:48.140625
1162,-21.39,2022-10-28 11:00:48.156250
1163,-25.12,2022-10-28 11:00:48.171875
1164,-28.45,2022-10-28 11:00:48.187500
1165,-31.41,2022-10-28 11:00:48.203125
1166,-34.25,2022-10-28 11:00:48.218750
1167,-37.3,2022-10-28 11:00:48.234375
1168,-40.95,2022-10-28 11:00:48.250000
1169,-45.47,2022-10-28 11:00:48.265625
1170,-51.01,2022-10-28 11:00:48.281250
1171,-57.37,2022-10-28 11:00:48.296875
1172,-63.9,2022-10-28 11:00:48.312500
1173,-69.48,2022-10-28 11:00:48.328125
1174,-72.72,2022-10-28 11:00:48.343750
1175,-72.39,2022-10-28 11:00:48.359375
1176,-67.82,2022-10-28 11:00:48.375000
1177,-59.22,2022-10-28 11:00:48.390625
1178,-47.64,2022-10-28 11:00:48.406250
1179,-34.64,2022-10-28 11:00:48.421875
1180,-21.83,2022-10-28 11:00:48.437500
1181,-10.37,2022-10-28 11:00:48.453125
1182,-0.9,2022-10-28 11:00:48.468750
1183,6.56,2022-10-28 11:00:48.484375
1184,12.28,2022-10-28 11:00:48.500000
1185,16.59,2022-10-28 11:00:48.515625
1186,19.76,2022-10-28 11:00:48.531250
1187,21.84,2022-10-28 11:00:48.546875
1188,22.84,2022-10-28 11:00:48.562500
1189,22.75,2022-10-28 11:00:48.578125
1190,21.81,2022-10-28 11:00:48.593750
1191,20.45,2022-10-28 11:00:48.609375
1192,19.32,2022-10-28 11:00:48.625000
1193,19.06,2022-10-28 11:00:48.640625
1194,20.06,2022-10-28 11:00:48.656250
1195,22.32,2022-10-28 11:00:48.671875
1196,25.44,2022-10-28 11:00:48.687500
1197,28.79,2022-10-28 11:00:48.703125
1198,31.75,2022-10-28 11:00:48.718750
1199,33.97,2022-10-28 11:00:48.734375
1200,35.39,2022-10-28 11:00:48.750000
1201,36.12,2022-10-28 11:00:48.765625
1202,36.29,2022-10-28 11:00:48.781250
1203,35.9,2022-10-28 11:00:48.796875
1204,34.83,2022-10-28 11:00:48.812500
1205,32.97,2022-10-28 11:00:48.828125
1206,30.31,2022-10-28 11:00:48.843750
1207,27.07,2022-10-28 11:00:48.859375
1208,23.57,2022-10-28 11:00:48.875000
1209,20.17,2022-10-28 11:00:48.890625
1210,17.07,2022-10-28 11:00:48.906250
1211,14.32,2022-10-28 11:00:48.921875
1212,11.8,2022-10-28 11:00:48.937500
1213,9.34,2022-10-28 11:00:48.953125
1214,6.78,2022-10-28 11:00:48.968750
1215,4.01,2022-10-28 11:00:48.984375
1216,0.98,2022-10-28 11:00:49.000000
1217,-2.37,2022-10-28 11:00:49.015625
1218,-6.06,2022-10-28 11:00:49.031250
1219,-10.06,2022-10-28 11:00:49.046875
1220,-14.23,2022-10-28 11:00:49.062500
1221,-18.34,2022-10-28 11:00:49.078125
1222,-22.08,2022-10-28 11:00:49.093750
1223,-25.26,2022-10-28 11:00:49.109375
1224,-27.88,2022-10-28 11:00:49.125000
1225,-30.17,2022-10-28 11:00:49.140625
1226,-32.56,2022-10-28 11:00:49.156250
1227,-35.59,2022-10-28 11:00:49.171875
1228,-39.66,2022-10-28 11:00:49.187500
1229,-44.85,2022-10-28 11:00:49.203125
1230,-50.77,2022-10-28 11:00:49.218750
1231,-56.5,2022-10-28 11:00:49.234375
1232,-60.8,2022-10-28 11:00:49.250000
1233,-62.37,2022-10-28 11:00:49.265625
1234,-60.15,2022-10-28 11:00:49.281250
1235,-53.79,2022-10-28 11:00:49.296875
1236,-43.77,2022-10-28 11:00:49.312500
1237,-31.29,2022-10-28 11:00:49.328125
1238,-17.97,2022-10-28 11:00:49.343750
1239,-5.4,2022-10-28 11:00:49.359375
1240,5.27,2022-10-28 11:00:49.375000
1241,13.56,2022-10-28 11:00:49.390625
1242,19.57,2022-10-28 11:00:49.406250
1243,23.68,2022-10-28 11:00:49.421875
1244,26.33,2022-10-28 11:00:49.437500
1245,27.81,2022-10-28 11:00:49.453125
1246,28.19,2022-10-28 11:00:49.468750
1247,27.57,2022-10-28 11:00:49.484375
1248,26.16,2022-10-28 11:00:49.500000
1249,24.48,2022-10-28 11:00:49.515625
1250,23.2,2022-10-28 11:00:49.531250
1251,22.92,2022-10-28 11:00:49.546875
1252,23.95,2022-10-28 11:00:49.562500
1253,26.16,2022-10-28 11:00:49.578125
1254,29.09,2022-10-28 11:00:49.593750
1255,32.12,2022-10-28 11:00:49.609375
1256,34.77,2022-10-28 11:00:49.625000
1257,36.76,2022-10-28 11:00:49.640625
1258,38.1,2022-10-28 11:00:49.656250
1259,38.9,2022-10-28 11:00:49.671875
1260,39.3,2022-10-28 11:00:49.687500
1261,39.3,2022-10-28 11:00:49.703125
1262,38.83,2022-10-28 11:00:49.718750
1263,37.78,2022-10-28 11:00:49.734375
1264,36.06,2022-10-28 11:00:49.750000
1265,33.64,2022-10-28 11:00:49.765625
1266,30.63,2022-10-28 11:00:49.781250
1267,27.24,2022-10-28 11:00:49.796875
1268,23.74,2022-10-28 11:00:49.812500
1269,20.41,2022-10-28 11:00:49.828125
1270,17.45,2022-10-28 11:00:49.843750
1271,14.86,2022-10-28 11:00:49.859375
1272,12.52,2022-10-28 11:00:49.875000
1273,10.19,2022-10-28 11:00:49.890625
1274,7.69,2022-10-28 11:00:49.906250
1275,4.91,2022-10-28 11:00:49.921875
1276,1.9,2022-10-28 11:00:49.937500
1277,-1.23,2022-10-28 11:00:49.953125
1278,-4.38,2022-10-28 11:00:49.968750
1279,-7.45,2022-10-28 11:00:49.984375
1280,-10.44,2022-10-28 11:00:50.000000
1281,-13.44,2022-10-28 11:00:50.015625
1282,-16.6,2022-10-28 11:00:50.031250
1283,-20.17,2022-10-28 11:00:50.046875
1284,-24.46,2022-10-28 11:00:50.062500
1285,-29.7,2022-10-28 11:00:50.078125
1286,-35.81,2022-10-28 11:00:50.093750
1287,-42.33,2022-10-28 11:00:50.109375
1288,-48.28,2022-10-28 11:00:50.125000
1289,-52.34,2022-10-28 11:00:50.140625
1290,-53.23,2022-10-28 11:00:50.156250
1291,-50.09,2022-10-28 11:00:50.171875
1292,-42.85,2022-10-28 11:00:50.187500
1293,-32.32,2022-10-28 11:00:50.203125
1294,-19.96,2022-10-28 11:00:50.218750
1295,-7.39,2022-10-28 11:00:50.234375
1296,3.97,2022-10-28 11:00:50.250000
1297,13.35,2022-10-28 11:00:50.265625
1298,20.56,2022-10-28 11:00:50.281250
1299,25.82,2022-10-28 11:00:50.296875
1300,29.43,2022-10-28 11:00:50.312500
1301,31.55,2022-10-28 11:00:50.328125
1302,32.16,2022-10-28 11:00:50.343750
1303,31.23,2022-10-28 11:00:50.359375
1304,29.0,2022-10-28 11:00:50.375000
1305,25.99,2022-10-28 11:00:50.390625
1306,23.02,2022-10-28 11:00:50.406250
1307,20.92,2022-10-28 11:00:50.421875
1308,20.24,2022-10-28 11:00:50.437500
1309,21.12,2022-10-28 11:00:50.453125
1310,23.26,2022-10-28 11:00:50.468750
1311,26.15,2022-10-28 11:00:50.484375
1312,29.25,2022-10-28 11:00:50.500000
1313,32.22,2022-10-28 11:00:50.515625
1314,34.88,2022-10-28 11:00:50.531250
1315,37.16,2022-10-28 11:00:50.546875
1316,38.95,2022-10-28 11:00:50.562500
1317,40.01,2022-10-28 11:00:50.578125
1318,40.05,2022-10-28 11:00:50.593750
1319,38.82,2022-10-28 11:00:50.609375
1320,36.25,2022-10-28 11:00:50.625000
1321,32.57,2022-10-28 11:00:50.640625
1322,28.2,2022-10-28 11:00:50.656250
1323,23.72,2022-10-28 11:00:50.671875
1324,19.61,2022-10-28 11:00:50.687500
1325,16.16,2022-10-28 11:00:50.703125
1326,13.34,2022-10-28 11:00:50.718750
1327,10.82,2022-10-28 11:00:50.734375
1328,8.06,2022-10-28 11:00:50.750000
1329,4.55,2022-10-28 11:00:50.765625
1330,-0.02,2022-10-28 11:00:50.781250
1331,-5.53,2022-10-28 11:00:50.796875
1332,-11.45,2022-10-28 11:00:50.812500
1333,-17.02,2022-10-28 11:00:50.828125
1334,-21.56,2022-10-28 11:00:50.843750
1335,-24.8,2022-10-28 11:00:50.859375
1336,-27.06,2022-10-28 11:00:50.875000
1337,-29.14,2022-10-28 11:00:50.890625
1338,-31.97,2022-10-28 11:00:50.906250
1339,-36.24,2022-10-28 11:00:50.921875
1340,-42.1,2022-10-28 11:00:50.937500
1341,-49.05,2022-10-28 11:00:50.953125
1342,-56.08,2022-10-28 11:00:50.968750
1343,-61.92,2022-10-28 11:00:50.984375
1344,-65.3,2022-10-28 11:00:51.000000
1345,-65.18,2022-10-28 11:00:51.015625
1346,-60.97,2022-10-28 11:00:51.031250
1347,-52.74,2022-10-28 11:00:51.046875
1348,-41.28,2022-10-28 11:00:51.062500
1349,-28.04,2022-10-28 11:00:51.078125
1350,-14.76,2022-10-28 11:00:51.093750
1351,-3.06,2022-10-28 11:00:51.109375
1352,5.99,2022-10-28 11:00:51.125000
1353,12.04,2022-10-28 11:00:51.140625
1354,15.41,2022-10-28 11:00:51.156250
1355,16.77,2022-10-28 11:00:51.171875
1356,16.81,2022-10-28 11:00:51.187500
1357,16.06,2022-10-28 11:00:51.203125
1358,14.81,2022-10-28 11:00:51.218750
1359,13.28,2022-10-28 11:00:51.234375
1360,11.69,2022-10-28 11:00:51.250000
1361,10.39,2022-10-28 11:00:51.265625
1362,9.7,2022-10-28 11:00:51.281250
1363,9.87,2022-10-28 11:00:51.296875
1364,10.91,2022-10-28 11:00:51.312500
1365,12.55,2022-10-28 11:00:51.328125
1366,14.31,2022-10-28 11:00:51.343750
1367,15.68,2022-10-28 11:00:51.359375
1368,16.28,2022-10-28 11:00:51.375000
1369,15.99,2022-10-28 11:00:51.390625
1370,14.99,2022-10-28 11:00:51.406250
1371,13.68,2022-10-28 11:00:51.421875
1372,12.49,2022-10-28 11:00:51.437500
1373,11.78,2022-10-28 11:00:51.453125
1374,11.7,2022-10-28 11:00:51.468750
1375,12.26,2022-10-28 11:00:51.484375
1376,13.35,2022-10-28 11:00:51.500000
1377,14.86,2022-10-28 11:00:51.515625
1378,16.63,2022-10-28 11:00:51.531250
1379,18.49,2022-10-28 11:00:51.546875
1380,20.2,2022-10-28 11:00:51.562500
1381,21.44,2022-10-28 11:00:51.578125
1382,21.92,2022-10-28 11:00:51.593750
1383,21.41,2022-10-28 11:00:51.609375
1384,19.89,2022-10-28 11:00:51.625000
1385,17.51,2022-10-28 11:00:51.640625
1386,14.55,2022-10-28 11:00:51.656250
1387,11.27,2022-10-28 11:00:51.671875
1388,7.92,2022-10-28 11:00:51.687500
1389,4.69,2022-10-28 11:00:51.703125
1390,1.66,2022-10-28 11:00:51.718750
1391,-1.13,2022-10-28 11:00:51.734375
1392,-3.77,2022-10-28 11:00:51.750000
1393,-6.46,2022-10-28 11:00:51.765625
1394,-9.5,2022-10-28 11:00:51.781250
1395,-13.12,2022-10-28 11:00:51.796875
1396,-17.42,2022-10-28 11:00:51.812500
1397,-22.21,2022-10-28 11:00:51.828125
1398,-27.07,2022-10-28 11:00:51.843750
1399,-31.53,2022-10-28 11:00:51.859375
1400,-35.22,2022-10-28 11:00:51.875000
1401,-38.09,2022-10-28 11:00:51.890625
1402,-40.45,2022-10-28 11:00:51.906250
1403,-42.84,2022-10-28 11:00:51.921875
1404,-45.93,2022-10-28 11:00:51.937500
1405,-50.24,2022-10-28 11:00:51.953125
1406,-55.97,2022-10-28 11:00:51.968750
1407,-62.79,2022-10-28 11:00:51.984375
1408,-69.79,2022-10-28 11:00:52.000000
1409,-75.54,2022-10-28 11:00:52.015625
1410,-78.45,2022-10-28 11:00:52.031250
1411,-77.2,2022-10-28 11:00:52.046875
1412,-71.22,2022-10-28 11:00:52.062500
1413,-60.92,2022-10-28 11:00:52.078125
1414,-47.59,2022-10-28 11:00:52.093750
1415,-33.04,2022-10-28 11:00:52.109375
1416,-19.01,2022-10-28 11:00:52.125000
1417,-6.75,2022-10-28 11:00:52.140625
1418,3.2,2022-10-28 11:00:52.156250
1419,10.93,2022-10-28 11:00:52.171875
1420,16.95,2022-10-28 11:00:52.187500
1421,21.79,2022-10-28 11:00:52.203125
1422,25.85,2022-10-28 11:00:52.218750
1423,29.26,2022-10-28 11:00:52.234375
1424,31.98,2022-10-28 11:00:52.250000
1425,33.93,2022-10-28 11:00:52.265625
1426,35.09,2022-10-28 11:00:52.281250
1427,35.59,2022-10-28 11:00:52.296875
1428,35.7,2022-10-28 11:00:52.312500
1429,35.71,2022-10-28 11:00:52.328125
1430,35.9,2022-10-28 11:00:52.343750
1431,36.48,2022-10-28 11:00:52.359375
1432,37.55,2022-10-28 11:00:52.375000
1433,39.11,2022-10-28 11:00:52.390625
1434,41.09,2022-10-28 11:00:52.406250
1435,43.25,2022-10-28 11:00:52.421875
1436,45.28,2022-10-28 11:00:52.437500
1437,46.78,2022-10-28 11:00:52.453125
1438,47.39,2022-10-28 11:00:52.468750
1439,46.94,2022-10-28 11:00:52.484375
1440,45.47,2022-10-28 11:00:52.500000
1441,43.25,2022-10-28 11:00:52.515625
1442,40.61,2022-10-28 11:00:52.531250
1443,37.82,2022-10-28 11:00:52.546875
1444,34.96,2022-10-28 11:00:52.562500
1445,32.0,2022-10-28 11:00:52.578125
1446,28.8,2022-10-28 11:00:52.593750
1447,25.33,2022-10-28 11:00:52.609375
1448,21.64,2022-10-28 11:00:52.625000
1449,17.92,2022-10-28 11:00:52.640625
1450,14.36,2022-10-28 11:00:52.656250
1451,11.07,2022-10-28 11:00:52.671875
1452,8.1,2022-10-28 11:00:52.687500
1453,5.34,2022-10-28 11:00:52.703125
1454,2.68,2022-10-28 11:00:52.718750
1455,-0.04,2022-10-28 11:00:52.734375
1456,-2.95,2022-10-28 11:00:52.750000
1457,-6.17,2022-10-28 11:00:52.765625
1458,-9.77,2022-10-28 11:00:52.781250
1459,-13.74,2022-10-28 11:00:52.796875
1460,-17.98,2022-10-28 11:00:52.812500
1461,-22.32,2022-10-28 11:00:52.828125
1462,-26.63,2022-10-28 11:00:52.843750
1463,-30.82,2022-10-28 11:00:52.859375
1464,-34.94,2022-10-28 11:00:52.875000
1465,-39.16,2022-10-28 11:00:52.890625
1466,-43.74,2022-10-28 11:00:52.906250
1467,-48.88,2022-10-28 11:00:52.921875
1468,-54.61,2022-10-28 11:00:52.937500
1469,-60.57,2022-10-28 11:00:52.953125
1470,-65.86,2022-10-28 11:00:52.968750
1471,-69.26,2022-10-28 11:00:52.984375
1472,-69.34,2022-10-28 11:00:53.000000
1473,-65.1,2022-10-28 11:00:53.015625
1474,-56.32,2022-10-28 11:00:53.031250
1475,-43.81,2022-10-28 11:00:53.046875
1476,-29.25,2022-10-28 11:00:53.062500
1477,-14.69,2022-10-28 11:00:53.078125
1478,-1.86,2022-10-28 11:00:53.093750
1479,8.3,2022-10-28 11:00:53.109375
1480,15.69,2022-10-28 11:00:53.125000
1481,20.9,2022-10-28 11:00:53.140625
1482,24.65,2022-10-28 11:00:53.156250
1483,27.47,2022-10-28 11:00:53.171875
1484,29.47,2022-10-28 11:00:53.187500
1485,30.51,2022-10-28 11:00:53.203125
1486,30.46,2022-10-28 11:00:53.218750
1487,29.47,2022-10-28 11:00:53.234375
1488,28.04,2022-10-28 11:00:53.250000
1489,26.87,2022-10-28 11:00:53.265625
1490,26.64,2022-10-28 11:00:53.281250
1491,27.64,2022-10-28 11:00:53.296875
1492,29.78,2022-10-28 11:00:53.312500
1493,32.58,2022-10-28 11:00:53.328125
1494,35.45,2022-10-28 11:00:53.343750
1495,37.98,2022-10-28 11:00:53.359375
1496,39.98,2022-10-28 11:00:53.375000
1497,41.53,2022-10-28 11:00:53.390625
1498,42.76,2022-10-28 11:00:53.406250
1499,43.66,2022-10-28 11:00:53.421875
1500,44.03,2022-10-28 11:00:53.437500
1501,43.52,2022-10-28 11:00:53.453125
1502,41.87,2022-10-28 11:00:53.468750
1503,39.09,2022-10-28 11:00:53.484375
1504,35.53,2022-10-28 11:00:53.500000
1505,31.73,2022-10-28 11:00:53.515625
1506,28.24,2022-10-28 11:00:53.531250
1507,25.38,2022-10-28 11:00:53.546875
1508,23.07,2022-10-28 11:00:53.562500
1509,21.02,2022-10-28 11:00:53.578125
1510,18.8,2022-10-28 11:00:53.593750
1511,16.14,2022-10-28 11:00:53.609375
1512,13.01,2022-10-28 11:00:53.625000
1513,9.65,2022-10-28 11:00:53.640625
1514,6.39,2022-10-28 11:00:53.656250
1515,3.54,2022-10-28 11:00:53.671875
1516,1.28,2022-10-28 11:00:53.687500
1517,-0.51,2022-10-28 11:00:53.703125
1518,-2.1,2022-10-28 11:00:53.718750
1519,-3.97,2022-10-28 11:00:53.734375
1520,-6.51,2022-10-28 11:00:53.750000
1521,-9.98,2022-10-28 11:00:53.765625
1522,-14.33,2022-10-28 11:00:53.781250
1523,-19.22,2022-10-28 11:00:53.796875
1524,-24.17,2022-10-28 11:00:53.812500
1525,-28.7,2022-10-28 11:00:53.828125
1526,-32.54,2022-10-28 11:00:53.843750
1527,-35.71,2022-10-28 11:00:53.859375
1528,-38.54,2022-10-28 11:00:53.875000
1529,-41.52,2022-10-28 11:00:53.890625
1530,-45.15,2022-10-28 11:00:53.906250
1531,-49.83,2022-10-28 11:00:53.921875
1532,-55.59,2022-10-28 11:00:53.937500
1533,-62.09,2022-10-28 11:00:53.953125
1534,-68.44,2022-10-28 11:00:53.968750
1535,-73.4,2022-10-28 11:00:53.984375
1536,-75.59,2022-10-28 11:00:54.000000
1537,-73.93,2022-10-28 11:00:54.015625
1538,-67.99,2022-10-28 11:00:54.031250
1539,-58.25,2022-10-28 11:00:54.046875
1540,-45.93,2022-10-28 11:00:54.062500
1541,-32.66,2022-10-28 11:00:54.078125
1542,-20.04,2022-10-28 11:00:54.093750
1543,-9.13,2022-10-28 11:00:54.109375
1544,-0.43,2022-10-28 11:00:54.125000
1545,6.14,2022-10-28 11:00:54.140625
1546,11.01,2022-10-28 11:00:54.156250
1547,14.63,2022-10-28 11:00:54.171875
1548,17.33,2022-10-28 11:00:54.187500
1549,19.25,2022-10-28 11:00:54.203125
1550,20.38,2022-10-28 11:00:54.218750
1551,20.7,2022-10-28 11:00:54.234375
1552,20.39,2022-10-28 11:00:54.250000
1553,19.76,2022-10-28 11:00:54.265625
1554,19.34,2022-10-28 11:00:54.281250
1555,19.6,2022-10-28 11:00:54.296875
1556,20.85,2022-10-28 11:00:54.312500
1557,23.05,2022-10-28 11:00:54.328125
1558,25.89,2022-10-28 11:00:54.343750
1559,28.94,2022-10-28 11:00:54.359375
1560,31.77,2022-10-28 11:00:54.375000
1561,34.17,2022-10-28 11:00:54.390625
1562,36.05,2022-10-28 11:00:54.406250
1563,37.36,2022-10-28 11:00:54.421875
1564,38.04,2022-10-28 11:00:54.437500
1565,37.93,2022-10-28 11:00:54.453125
1566,36.93,2022-10-28 11:00:54.468750
1567,35.01,2022-10-28 11:00:54.484375
1568,32.33,2022-10-28 11:00:54.500000
1569,29.17,2022-10-28 11:00:54.515625
1570,25.89,2022-10-28 11:00:54.531250
1571,22.78,2022-10-28 11:00:54.546875
1572,20.01,2022-10-28 11:00:54.562500
1573,17.63,2022-10-28 11:00:54.578125
1574,15.57,2022-10-28 11:00:54.593750
1575,13.71,2022-10-28 11:00:54.609375
1576,11.91,2022-10-28 11:00:54.625000
1577,10.07,2022-10-28 11:00:54.640625
1578,8.11,2022-10-28 11:00:54.656250
1579,6.01,2022-10-28 11:00:54.671875
1580,3.79,2022-10-28 11:00:54.687500
1581,1.5,2022-10-28 11:00:54.703125
1582,-0.78,2022-10-28 11:00:54.718750
1583,-2.99,2022-10-28 11:00:54.734375
1584,-5.06,2022-10-28 11:00:54.750000
1585,-7.01,2022-10-28 11:00:54.765625
1586,-8.9,2022-10-28 11:00:54.781250
1587,-10.84,2022-10-28 11:00:54.796875
1588,-12.97,2022-10-28 11:00:54.812500
1589,-15.36,2022-10-28 11:00:54.828125
1590,-18.0,2022-10-28 11:00:54.843750
1591,-20.76,2022-10-28 11:00:54.859375
1592,-23.51,2022-10-28 11:00:54.875000
1593,-26.11,2022-10-28 11:00:54.890625
1594,-28.55,2022-10-28 11:00:54.906250
1595,-30.94,2022-10-28 11:00:54.921875
1596,-33.48,2022-10-28 11:00:54.937500
1597,-36.42,2022-10-28 11:00:54.953125
1598,-39.97,2022-10-28 11:00:54.968750
1599,-44.33,2022-10-28 11:00:54.984375
1600,-49.49,2022-10-28 11:00:55.000000
1601,-55.2,2022-10-28 11:00:55.015625
1602,-60.75,2022-10-28 11:00:55.031250
1603,-65.06,2022-10-28 11:00:55.046875
1604,-66.87,2022-10-28 11:00:55.062500
1605,-65.15,2022-10-28 11:00:55.078125
1606,-59.48,2022-10-28 11:00:55.093750
1607,-50.27,2022-10-28 11:00:55.109375
1608,-38.68,2022-10-28 11:00:55.125000
1609,-26.21,2022-10-28 11:00:55.140625
1610,-14.32,2022-10-28 11:00:55.156250
1611,-4.02,2022-10-28 11:00:55.171875
1612,4.23,2022-10-28 11:00:55.187500
1613,10.39,2022-10-28 11:00:55.203125
1614,14.7,2022-10-28 11:00:55.218750
1615,17.45,2022-10-28 11:00:55.234375
1616,18.97,2022-10-28 11:00:55.250000
1617,19.53,2022-10-28 11:00:55.265625
1618,19.44,2022-10-28 11:00:55.281250
1619,19.04,2022-10-28 11:00:55.296875
1620,18.6,2022-10-28 11:00:55.312500
1621,18.42,2022-10-28 11:00:55.328125
1622,18.72,2022-10-28 11:00:55.343750
1623,19.6,2022-10-28 11:00:55.359375
1624,21.07,2022-10-28 11:00:55.375000
1625,22.99,2022-10-28 11:00:55.390625
1626,25.14,2022-10-28 11:00:55.406250
1627,27.31,2022-10-28 11:00:55.421875
1628,29.32,2022-10-28 11:00:55.437500
1629,31.13,2022-10-28 11:00:55.453125
1630,32.7,2022-10-28 11:00:55.468750
1631,34.02,2022-10-28 11:00:55.484375
1632,34.97,2022-10-28 11:00:55.500000
1633,35.33,2022-10-28 11:00:55.515625
1634,34.87,2022-10-28 11:00:55.531250
1635,33.46,2022-10-28 11:00:55.546875
1636,31.17,2022-10-28 11:00:55.562500
1637,28.29,2022-10-28 11:00:55.578125
1638,25.23,2022-10-28 11:00:55.593750
1639,22.41,2022-10-28 11:00:55.609375
1640,20.04,2022-10-28 11:00:55.625000
1641,18.13,2022-10-28 11:00:55.640625
1642,16.53,2022-10-28 11:00:55.656250
1643,15.04,2022-10-28 11:00:55.671875
1644,13.53,2022-10-28 11:00:55.687500
1645,11.89,2022-10-28 11:00:55.703125
1646,10.1,2022-10-28 11:00:55.718750
1647,8.09,2022-10-28 11:00:55.734375
1648,5.8,2022-10-28 11:00:55.750000
1649,3.24,2022-10-28 11:00:55.765625
1650,0.54,2022-10-28 11:00:55.781250
1651,-2.1,2022-10-28 11:00:55.796875
1652,-4.45,2022-10-28 11:00:55.812500
1653,-6.46,2022-10-28 11:00:55.828125
1654,-8.27,2022-10-28 11:00:55.843750
1655,-10.16,2022-10-28 11:00:55.859375
1656,-12.46,2022-10-28 11:00:55.875000
1657,-15.3,2022-10-28 11:00:55.890625
1658,-18.61,2022-10-28 11:00:55.906250
1659,-22.11,2022-10-28 11:00:55.921875
1660,-25.49,2022-10-28 11:00:55.937500
1661,-28.56,2022-10-28 11:00:55.953125
1662,-31.32,2022-10-28 11:00:55.968750
1663,-33.95,2022-10-28 11:00:55.984375
1664,-36.76,2022-10-28 11:00:56.000000
1665,-40.07,2022-10-28 11:00:56.015625
1666,-44.18,2022-10-28 11:00:56.031250
1667,-49.23,2022-10-28 11:00:56.046875
1668,-55.13,2022-10-28 11:00:56.062500
1669,-61.39,2022-10-28 11:00:56.078125
1670,-67.09,2022-10-28 11:00:56.093750
1671,-70.98,2022-10-28 11:00:56.109375
1672,-71.83,2022-10-28 11:00:56.125000
1673,-68.81,2022-10-28 11:00:56.140625
1674,-61.85,2022-10-28 11:00:56.156250
1675,-51.69,2022-10-28 11:00:56.171875
1676,-39.72,2022-10-28 11:00:56.187500
1677,-27.5,2022-10-28 11:00:56.203125
1678,-16.37,2022-10-28 11:00:56.218750
1679,-7.12,2022-10-28 11:00:56.234375
1680,0.08,2022-10-28 11:00:56.250000
1681,5.44,2022-10-28 11:00:56.265625
1682,9.38,2022-10-28 11:00:56.281250
1683,12.23,2022-10-28 11:00:56.296875
1684,14.24,2022-10-28 11:00:56.312500
1685,15.52,2022-10-28 11:00:56.328125
1686,16.12,2022-10-28 11:00:56.343750
1687,16.21,2022-10-28 11:00:56.359375
1688,16.04,2022-10-28 11:00:56.375000
1689,15.97,2022-10-28 11:00:56.390625
1690,16.31,2022-10-28 11:00:56.406250
1691,17.21,2022-10-28 11:00:56.421875
1692,18.66,2022-10-28 11:00:56.437500
1693,20.51,2022-10-28 11:00:56.453125
1694,22.58,2022-10-28 11:00:56.468750
1695,24.77,2022-10-28 11:00:56.484375
1696,27.09,2022-10-28 11:00:56.500000
1697,29.52,2022-10-28 11:00:56.515625
1698,31.92,2022-10-28 11:00:56.531250
1699,33.95,2022-10-28 11:00:56.546875
1700,35.18,2022-10-28 11:00:56.562500
1701,35.28,2022-10-28 11:00:56.578125
1702,34.21,2022-10-28 11:00:56.593750
1703,32.26,2022-10-28 11:00:56.609375
1704,29.86,2022-10-28 11:00:56.625000
1705,27.49,2022-10-28 11:00:56.640625
1706,25.34,2022-10-28 11:00:56.656250
1707,23.39,2022-10-28 11:00:56.671875
1708,21.41,2022-10-28 11:00:56.687500
1709,19.22,2022-10-28 11:00:56.703125
1710,16.71,2022-10-28 11:00:56.718750
1711,14.02,2022-10-28 11:00:56.734375
1712,11.34,2022-10-28 11:00:56.750000
1713,8.9,2022-10-28 11:00:56.765625
1714,6.85,2022-10-28 11:00:56.781250
1715,5.18,2022-10-28 11:00:56.796875
1716,3.79,2022-10-28 11:00:56.812500
1717,2.48,2022-10-28 11:00:56.828125
1718,1.05,2022-10-28 11:00:56.843750
1719,-0.63,2022-10-28 11:00:56.859375
1720,-2.6,2022-10-28 11:00:56.875000
1721,-4.73,2022-10-28 11:00:56.890625
1722,-6.86,2022-10-28 11:00:56.906250
1723,-8.83,2022-10-28 11:00:56.921875
1724,-10.67,2022-10-28 11:00:56.937500
1725,-12.57,2022-10-28 11:00:56.953125
1726,-14.79,2022-10-28 11:00:56.968750
1727,-17.59,2022-10-28 11:00:56.984375
1728,-21.01,2022-10-28 11:00:57.000000
1729,-24.88,2022-10-28 11:00:57.015625
1730,-28.89,2022-10-28 11:00:57.031250
1731,-32.74,2022-10-28 11:00:57.046875
1732,-36.22,2022-10-28 11:00:57.062500
1733,-39.35,2022-10-28 11:00:57.078125
1734,-42.28,2022-10-28 11:00:57.093750
1735,-45.27,2022-10-28 11:00:57.109375
1736,-48.69,2022-10-28 11:00:57.125000
1737,-52.91,2022-10-28 11:00:57.140625
1738,-58.19,2022-10-28 11:00:57.156250
1739,-64.45,2022-10-28 11:00:57.171875
1740,-71.08,2022-10-28 11:00:57.187500
1741,-76.86,2022-10-28 11:00:57.203125
1742,-80.26,2022-10-28 11:00:57.218750
1743,-79.83,2022-10-28 11:00:57.234375
1744,-74.81,2022-10-28 11:00:57.250000
1745,-65.39,2022-10-28 11:00:57.265625
1746,-52.73,2022-10-28 11:00:57.281250
1747,-38.56,2022-10-28 11:00:57.296875
1748,-24.63,2022-10-28 11:00:57.312500
1749,-12.27,2022-10-28 11:00:57.328125
1750,-2.14,2022-10-28 11:00:57.343750
1751,5.74,2022-10-28 11:00:57.359375
1752,11.76,2022-10-28 11:00:57.375000
1753,16.43,2022-10-28 11:00:57.390625
1754,20.17,2022-10-28 11:00:57.406250
1755,23.23,2022-10-28 11:00:57.421875
1756,25.68,2022-10-28 11:00:57.437500
1757,27.49,2022-10-28 11:00:57.453125
1758,28.68,2022-10-28 11:00:57.468750
1759,29.4,2022-10-28 11:00:57.484375
1760,29.97,2022-10-28 11:00:57.500000
1761,30.75,2022-10-28 11:00:57.515625
1762,32.1,2022-10-28 11:00:57.531250
1763,34.18,2022-10-28 11:00:57.546875
1764,36.96,2022-10-28 11:00:57.562500
1765,40.25,2022-10-28 11:00:57.578125
1766,43.8,2022-10-28 11:00:57.593750
1767,47.4,2022-10-28 11:00:57.609375
1768,50.9,2022-10-28 11:00:57.625000
1769,54.11,2022-10-28 11:00:57.640625
1770,56.73,2022-10-28 11:00:57.656250
1771,58.4,2022-10-28 11:00:57.671875
1772,58.73,2022-10-28 11:00:57.687500
1773,57.59,2022-10-28 11:00:57.703125
1774,55.2,2022-10-28 11:00:57.718750
1775,52.06,2022-10-28 11:00:57.734375
1776,48.87,2022-10-28 11:00:57.750000
1777,46.12,2022-10-28 11:00:57.765625
1778,44.0,2022-10-28 11:00:57.781250
1779,42.23,2022-10-28 11:00:57.796875
1780,40.35,2022-10-28 11:00:57.812500
1781,37.91,2022-10-28 11:00:57.828125
1782,34.74,2022-10-28 11:00:57.843750
1783,31.07,2022-10-28 11:00:57.859375
1784,27.29,2022-10-28 11:00:57.875000
1785,23.84,2022-10-28 11:00:57.890625
1786,20.89,2022-10-28 11:00:57.906250
1787,18.35,2022-10-28 11:00:57.921875
1788,15.93,2022-10-28 11:00:57.937500
1789,13.32,2022-10-28 11:00:57.953125
1790,10.41,2022-10-28 11:00:57.968750
1791,7.23,2022-10-28 11:00:57.984375
1792,3.97,2022-10-28 11:00:58.000000
1793,0.83,2022-10-28 11:00:58.015625
1794,-2.01,2022-10-28 11:00:58.031250
1795,-4.49,2022-10-28 11:00:58.046875
1796,-6.54,2022-10-28 11:00:58.062500
1797,-8.23,2022-10-28 11:00:58.078125
1798,-9.73,2022-10-28 11:00:58.093750
1799,-11.32,2022-10-28 11:00:58.109375
1800,-13.42,2022-10-28 11:00:58.125000
1801,-16.35,2022-10-28 11:00:58.140625
1802,-20.21,2022-10-28 11:00:58.156250
1803,-24.79,2022-10-28 11:00:58.171875
1804,-29.6,2022-10-28 11:00:58.187500
1805,-34.12,2022-10-28 11:00:58.203125
1806,-38.04,2022-10-28 11:00:58.218750
1807,-41.38,2022-10-28 11:00:58.234375
1808,-44.49,2022-10-28 11:00:58.250000
1809,-47.97,2022-10-28 11:00:58.265625
1810,-52.42,2022-10-28 11:00:58.281250
1811,-58.23,2022-10-28 11:00:58.296875
1812,-65.37,2022-10-28 11:00:58.312500
1813,-73.25,2022-10-28 11:00:58.328125
1814,-80.7,2022-10-28 11:00:58.343750
1815,-86.17,2022-10-28 11:00:58.359375
1816,-88.06,2022-10-28 11:00:58.375000
1817,-85.25,2022-10-28 11:00:58.390625
1818,-77.44,2022-10-28 11:00:58.406250
1819,-65.3,2022-10-28 11:00:58.421875
1820,-50.32,2022-10-28 11:00:58.437500
1821,-34.31,2022-10-28 11:00:58.453125
1822,-18.97,2022-10-28 11:00:58.468750
1823,-5.52,2022-10-28 11:00:58.484375
1824,5.44,2022-10-28 11:00:58.500000
1825,13.78,2022-10-28 11:00:58.515625
1826,19.66,2022-10-28 11:00:58.531250
1827,23.28,2022-10-28 11:00:58.546875
1828,24.86,2022-10-28 11:00:58.562500
1829,24.62,2022-10-28 11:00:58.578125
1830,22.92,2022-10-28 11:00:58.593750
1831,20.29,2022-10-28 11:00:58.609375
1832,17.45,2022-10-28 11:00:58.625000
1833,15.13,2022-10-28 11:00:58.640625
1834,13.93,2022-10-28 11:00:58.656250
1835,14.13,2022-10-28 11:00:58.671875
1836,15.65,2022-10-28 11:00:58.687500
1837,18.24,2022-10-28 11:00:58.703125
1838,21.53,2022-10-28 11:00:58.718750
1839,25.25,2022-10-28 11:00:58.734375
1840,29.24,2022-10-28 11:00:58.750000
1841,33.35,2022-10-28 11:00:58.765625
1842,37.4,2022-10-28 11:00:58.781250
1843,40.98,2022-10-28 11:00:58.796875
1844,43.61,2022-10-28 11:00:58.812500
1845,44.78,2022-10-28 11:00:58.828125
1846,44.17,2022-10-28 11:00:58.843750
1847,41.73,2022-10-28 11:00:58.859375
1848,37.75,2022-10-28 11:00:58.875000
1849,32.82,2022-10-28 11:00:58.890625
1850,27.67,2022-10-28 11:00:58.906250
1851,22.96,2022-10-28 11:00:58.921875
1852,19.06,2022-10-28 11:00:58.937500
1853,16.01,2022-10-28 11:00:58.953125
1854,13.52,2022-10-28 11:00:58.968750
1855,11.19,2022-10-28 11:00:58.984375
1856,8.68,2022-10-28 11:00:59.000000
1857,5.92,2022-10-28 11:00:59.015625
1858,3.05,2022-10-28 11:00:59.031250
1859,0.25,2022-10-28 11:00:59.046875
1860,-2.41,2022-10-28 11:00:59.062500
1861,-5.09,2022-10-28 11:00:59.078125
1862,-8.15,2022-10-28 11:00:59.093750
1863,-11.91,2022-10-28 11:00:59.109375
1864,-16.52,2022-10-28 11:00:59.125000
1865,-21.86,2022-10-28 11:00:59.140625
1866,-27.59,2022-10-28 11:00:59.156250
1867,-33.31,2022-10-28 11:00:59.171875
1868,-38.79,2022-10-28 11:00:59.187500
1869,-44.05,2022-10-28 11:00:59.203125
1870,-49.38,2022-10-28 11:00:59.218750
1871,-55.27,2022-10-28 11:00:59.234375
1872,-62.13,2022-10-28 11:00:59.250000
1873,-70.03,2022-10-28 11:00:59.265625
1874,-78.53,2022-10-28 11:00:59.281250
1875,-86.54,2022-10-28 11:00:59.296875
1876,-92.48,2022-10-28 11:00:59.312500
1877,-94.73,2022-10-28 11:00:59.328125
1878,-92.06,2022-10-28 11:00:59.343750
1879,-84.15,2022-10-28 11:00:59.359375
1880,-71.66,2022-10-28 11:00:59.375000
1881,-56.19,2022-10-28 11:00:59.390625
1882,-39.73,2022-10-28 11:00:59.406250
1883,-24.09,2022-10-28 11:00:59.421875
1884,-10.54,2022-10-28 11:00:59.437500
1885,0.44,2022-10-28 11:00:59.453125
1886,8.96,2022-10-28 11:00:59.468750
1887,15.51,2022-10-28 11:00:59.484375
1888,20.59,2022-10-28 11:00:59.500000
1889,24.57,2022-10-28 11:00:59.515625
1890,27.61,2022-10-28 11:00:59.531250
1891,29.77,2022-10-28 11:00:59.546875
1892,31.12,2022-10-28 11:00:59.562500
1893,31.79,2022-10-28 11:00:59.578125
1894,32.09,2022-10-28 11:00:59.593750
1895,32.38,2022-10-28 11:00:59.609375
1896,33.06,2022-10-28 11:00:59.625000
1897,34.43,2022-10-28 11:00:59.640625
1898,36.62,2022-10-28 11:00:59.656250
1899,39.6,2022-10-28 11:00:59.671875
1900,43.15,2022-10-28 11:00:59.687500
1901,47.03,2022-10-28 11:00:59.703125
1902,50.91,2022-10-28 11:00:59.718750
1903,54.47,2022-10-28 11:00:59.734375
1904,57.35,2022-10-28 11:00:59.750000
1905,59.2,2022-10-28 11:00:59.765625
1906,59.71,2022-10-28 11:00:59.781250
1907,58.7,2022-10-28 11:00:59.796875
1908,56.27,2022-10-28 11:00:59.812500
1909,52.7,2022-10-28 11:00:59.828125
1910,48.52,2022-10-28 11:00:59.843750
1911,44.22,2022-10-28 11:00:59.859375
1912,40.17,2022-10-28 11:00:59.875000
1913,36.41,2022-10-28 11:00:59.890625
1914,32.76,2022-10-28 11:00:59.906250
1915,28.9,2022-10-28 11:00:59.921875
1916,24.61,2022-10-28 11:00:59.937500
1917,19.95,2022-10-28 11:00:59.953125
1918,15.15,2022-10-28 11:00:59.968750
1919,10.62,2022-10-28 11:00:59.984375
1920,6.64,2022-10-28 11:01:00.000000
1921,3.3,2022-10-28 11:01:00.015625
1922,0.46,2022-10-28 11:01:00.031250
1923,-2.15,2022-10-28 11:01:00.046875
1924,-4.81,2022-10-28 11:01:00.062500
1925,-7.68,2022-10-28 11:01:00.078125
1926,-10.83,2022-10-28 11:01:00.093750
1927,-14.21,2022-10-28 11:01:00.109375
1928,-17.72,2022-10-28 11:01:00.125000
1929,-21.27,2022-10-28 11:01:00.140625
1930,-24.79,2022-10-28 11:01:00.156250
1931,-28.38,2022-10-28 11:01:00.171875
1932,-32.27,2022-10-28 11:01:00.187500
1933,-36.92,2022-10-28 11:01:00.203125
1934,-42.88,2022-10-28 11:01:00.218750
1935,-50.48,2022-10-28 11:01:00.234375
1936,-59.53,2022-10-28 11:01:00.250000
1937,-69.12,2022-10-28 11:01:00.265625
1938,-77.56,2022-10-28 11:01:00.281250
1939,-82.9,2022-10-28 11:01:00.296875
1940,-83.44,2022-10-28 11:01:00.312500
1941,-78.34,2022-10-28 11:01:00.328125
1942,-67.93,2022-10-28 11:01:00.343750
1943,-53.57,2022-10-28 11:01:00.359375
1944,-37.18,2022-10-28 11:01:00.375000
1945,-20.76,2022-10-28 11:01:00.390625
1946,-5.83,2022-10-28 11:01:00.406250
1947,6.69,2022-10-28 11:01:00.421875
1948,16.5,2022-10-28 11:01:00.437500
1949,23.74,2022-10-28 11:01:00.453125
1950,28.75,2022-10-28 11:01:00.468750
1951,31.95,2022-10-28 11:01:00.484375
1952,33.74,2022-10-28 11:01:00.500000
1953,34.46,2022-10-28 11:01:00.515625
1954,34.39,2022-10-28 11:01:00.531250
1955,33.77,2022-10-28 11:01:00.546875
1956,32.84,2022-10-28 11:01:00.562500
1957,31.91,2022-10-28 11:01:00.578125
1958,31.28,2022-10-28 11:01:00.593750
1959,31.23,2022-10-28 11:01:00.609375
1960,31.93,2022-10-28 11:01:00.625000
1961,33.4,2022-10-28 11:01:00.640625
1962,35.51,2022-10-28 11:01:00.656250
1963,38.0,2022-10-28 11:01:00.671875
1964,40.56,2022-10-28 11:01:00.687500
1965,42.89,2022-10-28 11:01:00.703125
1966,44.74,2022-10-28 11:01:00.718750
1967,45.88,2022-10-28 11:01:00.734375
1968,46.17,2022-10-28 11:01:00.750000
1969,45.56,2022-10-28 11:01:00.765625
1970,44.08,2022-10-28 11:01:00.781250
1971,41.85,2022-10-28 11:01:00.796875
1972,39.03,2022-10-28 11:01:00.812500
1973,35.77,2022-10-28 11:01:00.828125
1974,32.2,2022-10-28 11:01:00.843750
1975,28.38,2022-10-28 11:01:00.859375
1976,24.4,2022-10-28 11:01:00.875000
1977,20.3,2022-10-28 11:01:00.890625
1978,16.19,2022-10-28 11:01:00.906250
1979,12.18,2022-10-28 11:01:00.921875
1980,8.3,2022-10-28 11:01:00.937500
1981,4.5,2022-10-28 11:01:00.953125
1982,0.62,2022-10-28 11:01:00.968750
1983,-3.52,2022-10-28 11:01:00.984375
1984,-8.0,2022-10-28 11:01:01.000000
1985,-12.72,2022-10-28 11:01:01.015625
1986,-17.48,2022-10-28 11:01:01.031250
1987,-22.0,2022-10-28 11:01:01.046875
1988,-26.1,2022-10-28 11:01:01.062500
1989,-29.8,2022-10-28 11:01:01.078125
1990,-33.29,2022-10-28 11:01:01.093750
1991,-36.94,2022-10-28 11:01:01.109375
1992,-41.22,2022-10-28 11:01:01.125000
1993,-46.6,2022-10-28 11:01:01.140625
1994,-53.43,2022-10-28 11:01:01.156250
1995,-61.69,2022-10-28 11:01:01.171875
1996,-70.77,2022-10-28 11:01:01.187500
1997,-79.33,2022-10-28 11:01:01.203125
1998,-85.53,2022-10-28 11:01:01.218750
1999,-87.41,2022-10-28 11:01:01.234375
2000,-83.62,2022-10-28 11:01:01.250000
2001,-73.93,2022-10-28 11:01:01.265625
2002,-59.37,2022-10-28 11:01:01.281250
2003,-41.93,2022-10-28 11:01:01.296875
2004,-23.96,2022-10-28 11:01:01.312500
2005,-7.44,2022-10-28 11:01:01.328125
2006,6.43,2022-10-28 11:01:01.343750
2007,17.25,2022-10-28 11:01:01.359375
2008,25.18,2022-10-28 11:01:01.375000
2009,30.5,2022-10-28 11:01:01.390625
2010,33.45,2022-10-28 11:01:01.406250
2011,34.16,2022-10-28 11:01:01.421875
2012,32.8,2022-10-28 11:01:01.437500
2013,29.85,2022-10-28 11:01:01.453125
2014,26.09,2022-10-28 11:01:01.468750
2015,22.56,2022-10-28 11:01:01.484375
2016,20.23,2022-10-28 11:01:01.500000
2017,19.76,2022-10-28 11:01:01.515625
2018,21.25,2022-10-28 11:01:01.531250
2019,24.31,2022-10-28 11:01:01.546875
2020,28.28,2022-10-28 11:01:01.562500
2021,32.49,2022-10-28 11:01:01.578125
2022,36.44,2022-10-28 11:01:01.593750
2023,39.95,2022-10-28 11:01:01.609375
2024,42.98,2022-10-28 11:01:01.625000
2025,45.52,2022-10-28 11:01:01.640625
2026,47.44,2022-10-28 11:01:01.656250
2027,48.45,2022-10-28 11:01:01.671875
2028,48.22,2022-10-28 11:01:01.687500
2029,46.46,2022-10-28 11:01:01.703125
2030,43.08,2022-10-28 11:01:01.718750
2031,38.31,2022-10-28 11:01:01.734375
2032,32.58,2022-10-28 11:01:01.750000
2033,26.51,2022-10-28 11:01:01.765625
2034,20.69,2022-10-28 11:01:01.781250
2035,15.55,2022-10-28 11:01:01.796875
2036,11.19,2022-10-28 11:01:01.812500
2037,7.44,2022-10-28 11:01:01.828125
2038,3.93,2022-10-28 11:01:01.843750
2039,0.27,2022-10-28 11:01:01.859375
2040,-3.81,2022-10-28 11:01:01.875000
2041,-8.37,2022-10-28 11:01:01.890625
2042,-13.26,2022-10-28 11:01:01.906250
2043,-18.23,2022-10-28 11:01:01.921875
2044,-22.97,2022-10-28 11:01:01.937500
2045,-27.27,2022-10-28 11:01:01.953125
2046,-31.07,2022-10-28 11:01:01.968750
2047,-34.6,2022-10-28 11:01:01.984375
2048,-38.36,2022-10-28 11:01:02.000000
2049,-43.02,2022-10-28 11:01:02.015625
2050,-49.29,2022-10-28 11:01:02.031250
2051,-57.52,2022-10-28 11:01:02.046875
2052,-67.42,2022-10-28 11:01:02.062500
2053,-77.88,2022-10-28 11:01:02.078125
2054,-87.04,2022-10-28 11:01:02.093750
2055,-92.7,2022-10-28 11:01:02.109375
2056,-92.96,2022-10-28 11:01:02.125000
2057,-86.81,2022-10-28 11:01:02.140625
2058,-74.54,2022-10-28 11:01:02.156250
2059,-57.69,2022-10-28 11:01:02.171875
2060,-38.59,2022-10-28 11:01:02.187500
2061,-19.69,2022-10-28 11:01:02.203125
2062,-2.9,2022-10-28 11:01:02.218750
2063,10.77,2022-10-28 11:01:02.234375
2064,21.24,2022-10-28 11:01:02.250000
2065,29.07,2022-10-28 11:01:02.265625
2066,35.06,2022-10-28 11:01:02.281250
2067,39.95,2022-10-28 11:01:02.296875
2068,44.14,2022-10-28 11:01:02.312500
2069,47.72,2022-10-28 11:01:02.328125
2070,50.52,2022-10-28 11:01:02.343750
2071,52.4,2022-10-28 11:01:02.359375
2072,53.36,2022-10-28 11:01:02.375000
2073,53.68,2022-10-28 11:01:02.390625
2074,53.83,2022-10-28 11:01:02.406250
2075,54.24,2022-10-28 11:01:02.421875
2076,55.24,2022-10-28 11:01:02.437500
2077,56.81,2022-10-28 11:01:02.453125
2078,58.77,2022-10-28 11:01:02.468750
2079,60.81,2022-10-28 11:01:02.484375
2080,62.71,2022-10-28 11:01:02.500000
2081,64.28,2022-10-28 11:01:02.515625
2082,65.39,2022-10-28 11:01:02.531250
2083,65.81,2022-10-28 11:01:02.546875
2084,65.24,2022-10-28 11:01:02.562500
2085,63.39,2022-10-28 11:01:02.578125
2086,60.12,2022-10-28 11:01:02.593750
2087,55.56,2022-10-28 11:01:02.609375
2088,50.1,2022-10-28 11:01:02.625000
2089,44.25,2022-10-28 11:01:02.640625
2090,38.47,2022-10-28 11:01:02.656250
2091,33.05,2022-10-28 11:01:02.671875
2092,28.04,2022-10-28 11:01:02.687500
2093,23.35,2022-10-28 11:01:02.703125
2094,18.83,2022-10-28 11:01:02.718750
2095,14.36,2022-10-28 11:01:02.734375
2096,9.92,2022-10-28 11:01:02.750000
2097,5.5,2022-10-28 11:01:02.765625
2098,1.01,2022-10-28 11:01:02.781250
2099,-3.66,2022-10-28 11:01:02.796875
2100,-8.67,2022-10-28 11:01:02.812500
2101,-14.09,2022-10-28 11:01:02.828125
2102,-19.8,2022-10-28 11:01:02.843750
2103,-25.5,2022-10-28 11:01:02.859375
2104,-30.78,2022-10-28 11:01:02.875000
2105,-35.35,2022-10-28 11:01:02.890625
2106,-39.2,2022-10-28 11:01:02.906250
2107,-42.74,2022-10-28 11:01:02.921875
2108,-46.67,2022-10-28 11:01:02.937500
2109,-51.77,2022-10-28 11:01:02.953125
2110,-58.61,2022-10-28 11:01:02.968750
2111,-67.11,2022-10-28 11:01:02.984375
2112,-76.38,2022-10-28 11:01:03.000000
2113,-84.73,2022-10-28 11:01:03.015625
2114,-90.03,2022-10-28 11:01:03.031250
2115,-90.37,2022-10-28 11:01:03.046875
2116,-84.69,2022-10-28 11:01:03.062500
2117,-73.22,2022-10-28 11:01:03.078125
2118,-57.37,2022-10-28 11:01:03.093750
2119,-39.27,2022-10-28 11:01:03.109375
2120,-21.1,2022-10-28 11:01:03.125000
2121,-4.49,2022-10-28 11:01:03.140625
2122,9.68,2022-10-28 11:01:03.156250
2123,21.15,2022-10-28 11:01:03.171875
2124,30.07,2022-10-28 11:01:03.187500
2125,36.63,2022-10-28 11:01:03.203125
2126,41.04,2022-10-28 11:01:03.218750
2127,43.49,2022-10-28 11:01:03.234375
2128,44.24,2022-10-28 11:01:03.250000
2129,43.65,2022-10-28 11:01:03.265625
2130,42.11,2022-10-28 11:01:03.281250
2131,40.01,2022-10-28 11:01:03.296875
2132,37.65,2022-10-28 11:01:03.312500
2133,35.26,2022-10-28 11:01:03.328125
2134,33.09,2022-10-28 11:01:03.343750
2135,31.43,2022-10-28 11:01:03.359375
2136,30.68,2022-10-28 11:01:03.375000
2137,31.24,2022-10-28 11:01:03.390625
2138,33.39,2022-10-28 11:01:03.406250
2139,37.02,2022-10-28 11:01:03.421875
2140,41.69,2022-10-28 11:01:03.437500
2141,46.61,2022-10-28 11:01:03.453125
2142,50.94,2022-10-28 11:01:03.468750
2143,54.02,2022-10-28 11:01:03.484375
2144,55.56,2022-10-28 11:01:03.500000
2145,55.6,2022-10-28 11:01:03.515625
2146,54.38,2022-10-28 11:01:03.531250
2147,52.2,2022-10-28 11:01:03.546875
2148,49.31,2022-10-28 11:01:03.562500
2149,45.88,2022-10-28 11:01:03.578125
2150,42.02,2022-10-28 11:01:03.593750
2151,37.82,2022-10-28 11:01:03.609375
2152,33.31,2022-10-28 11:01:03.625000
2153,28.46,2022-10-28 11:01:03.640625
2154,23.3,2022-10-28 11:01:03.656250
2155,17.93,2022-10-28 11:01:03.671875
2156,12.61,2022-10-28 11:01:03.687500
2157,7.68,2022-10-28 11:01:03.703125
2158,3.41,2022-10-28 11:01:03.718750
2159,-0.16,2022-10-28 11:01:03.734375
2160,-3.28,2022-10-28 11:01:03.750000
2161,-6.35,2022-10-28 11:01:03.765625
2162,-9.79,2022-10-28 11:01:03.781250
2163,-13.79,2022-10-28 11:01:03.796875
2164,-18.34,2022-10-28 11:01:03.812500
2165,-23.15,2022-10-28 11:01:03.828125
2166,-27.86,2022-10-28 11:01:03.843750
2167,-32.2,2022-10-28 11:01:03.859375
2168,-36.09,2022-10-28 11:01:03.875000
2169,-39.79,2022-10-28 11:01:03.890625
2170,-43.78,2022-10-28 11:01:03.906250
2171,-48.67,2022-10-28 11:01:03.921875
2172,-54.92,2022-10-28 11:01:03.937500
2173,-62.57,2022-10-28 11:01:03.953125
2174,-70.97,2022-10-28 11:01:03.968750
2175,-78.8,2022-10-28 11:01:03.984375
2176,-84.22,2022-10-28 11:01:04.000000
2177,-85.46,2022-10-28 11:01:04.015625
2178,-81.34,2022-10-28 11:01:04.031250
2179,-71.72,2022-10-28 11:01:04.046875
2180,-57.69,2022-10-28 11:01:04.062500
2181,-41.17,2022-10-28 11:01:04.078125
2182,-24.39,2022-10-28 11:01:04.093750
2183,-9.21,2022-10-28 11:01:04.109375
2184,3.3,2022-10-28 11:01:04.125000
2185,12.89,2022-10-28 11:01:04.140625
2186,19.97,2022-10-28 11:01:04.156250
2187,25.18,2022-10-28 11:01:04.171875
2188,29.03,2022-10-28 11:01:04.187500
2189,31.76,2022-10-28 11:01:04.203125
2190,33.35,2022-10-28 11:01:04.218750
2191,33.72,2022-10-28 11:01:04.234375
2192,32.96,2022-10-28 11:01:04.250000
2193,31.39,2022-10-28 11:01:04.265625
2194,29.65,2022-10-28 11:01:04.281250
2195,28.47,2022-10-28 11:01:04.296875
2196,28.48,2022-10-28 11:01:04.312500
2197,29.9,2022-10-28 11:01:04.328125
2198,32.5,2022-10-28 11:01:04.343750
2199,35.72,2022-10-28 11:01:04.359375
2200,38.89,2022-10-28 11:01:04.375000
2201,41.46,2022-10-28 11:01:04.390625
2202,43.13,2022-10-28 11:01:04.406250
2203,43.8,2022-10-28 11:01:04.421875
2204,43.41,2022-10-28 11:01:04.437500
2205,41.87,2022-10-28 11:01:04.453125
2206,39.08,2022-10-28 11:01:04.468750
2207,35.02,2022-10-28 11:01:04.484375
2208,29.98,2022-10-28 11:01:04.500000
2209,24.44,2022-10-28 11:01:04.515625
2210,19.08,2022-10-28 11:01:04.531250
2211,14.47,2022-10-28 11:01:04.546875
2212,10.93,2022-10-28 11:01:04.562500
2213,8.44,2022-10-28 11:01:04.578125
2214,6.74,2022-10-28 11:01:04.593750
2215,5.45,2022-10-28 11:01:04.609375
2216,4.22,2022-10-28 11:01:04.625000
2217,2.75,2022-10-28 11:01:04.640625
2218,0.87,2022-10-28 11:01:04.656250
2219,-1.52,2022-10-28 11:01:04.671875
2220,-4.38,2022-10-28 11:01:04.687500
2221,-7.62,2022-10-28 11:01:04.703125
2222,-11.08,2022-10-28 11:01:04.718750
2223,-14.62,2022-10-28 11:01:04.734375
2224,-18.16,2022-10-28 11:01:04.750000
2225,-21.69,2022-10-28 11:01:04.765625
2226,-25.23,2022-10-28 11:01:04.781250
2227,-28.89,2022-10-28 11:01:04.796875
2228,-32.79,2022-10-28 11:01:04.812500
2229,-37.14,2022-10-28 11:01:04.828125
2230,-42.23,2022-10-28 11:01:04.843750
2231,-48.21,2022-10-28 11:01:04.859375
2232,-54.98,2022-10-28 11:01:04.875000
2233,-61.9,2022-10-28 11:01:04.890625
2234,-67.79,2022-10-28 11:01:04.906250
2235,-71.07,2022-10-28 11:01:04.921875
2236,-70.28,2022-10-28 11:01:04.937500
2237,-64.59,2022-10-28 11:01:04.953125
2238,-54.24,2022-10-28 11:01:04.968750
2239,-40.52,2022-10-28 11:01:04.984375
2240,-25.39,2022-10-28 11:01:05.000000
2241,-10.91,2022-10-28 11:01:05.015625
2242,1.43,2022-10-28 11:01:05.031250
2243,10.9,2022-10-28 11:01:05.046875
2244,17.6,2022-10-28 11:01:05.062500
2245,22.07,2022-10-28 11:01:05.078125
2246,24.91,2022-10-28 11:01:05.093750
2247,26.56,2022-10-28 11:01:05.109375
2248,27.25,2022-10-28 11:01:05.125000
2249,27.12,2022-10-28 11:01:05.140625
2250,26.41,2022-10-28 11:01:05.156250
2251,25.52,2022-10-28 11:01:05.171875
2252,24.93,2022-10-28 11:01:05.187500
2253,25.1,2022-10-28 11:01:05.203125
2254,26.25,2022-10-28 11:01:05.218750
2255,28.29,2022-10-28 11:01:05.234375
2256,30.92,2022-10-28 11:01:05.250000
2257,33.69,2022-10-28 11:01:05.265625
2258,36.24,2022-10-28 11:01:05.281250
2259,38.33,2022-10-28 11:01:05.296875
2260,39.95,2022-10-28 11:01:05.312500
2261,41.15,2022-10-28 11:01:05.328125
2262,41.92,2022-10-28 11:01:05.343750
2263,42.13,2022-10-28 11:01:05.359375
2264,41.53,2022-10-28 11:01:05.375000
2265,39.88,2022-10-28 11:01:05.390625
2266,37.16,2022-10-28 11:01:05.406250
2267,33.58,2022-10-28 11:01:05.421875
2268,29.61,2022-10-28 11:01:05.437500
2269,25.74,2022-10-28 11:01:05.453125
2270,22.35,2022-10-28 11:01:05.468750
2271,19.57,2022-10-28 11:01:05.484375
2272,17.23,2022-10-28 11:01:05.500000
2273,15.02,2022-10-28 11:01:05.515625
2274,12.57,2022-10-28 11:01:05.531250
2275,9.6,2022-10-28 11:01:05.546875
2276,5.93,2022-10-28 11:01:05.562500
2277,1.51,2022-10-28 11:01:05.578125
2278,-3.53,2022-10-28 11:01:05.593750
2279,-8.91,2022-10-28 11:01:05.609375
2280,-14.22,2022-10-28 11:01:05.625000
2281,-19.0,2022-10-28 11:01:05.640625
2282,-22.96,2022-10-28 11:01:05.656250
2283,-26.09,2022-10-28 11:01:05.671875
2284,-28.68,2022-10-28 11:01:05.687500
2285,-31.21,2022-10-28 11:01:05.703125
2286,-34.19,2022-10-28 11:01:05.718750
2287,-37.99,2022-10-28 11:01:05.734375
2288,-42.67,2022-10-28 11:01:05.750000
2289,-48.01,2022-10-28 11:01:05.765625
2290,-53.43,2022-10-28 11:01:05.781250
2291,-58.08,2022-10-28 11:01:05.796875
2292,-60.86,2022-10-28 11:01:05.812500
2293,-60.7,2022-10-28 11:01:05.828125
2294,-56.79,2022-10-28 11:01:05.843750
2295,-48.98,2022-10-28 11:01:05.859375
2296,-37.93,2022-10-28 11:01:05.875000
2297,-24.97,2022-10-28 11:01:05.890625
2298,-11.83,2022-10-28 11:01:05.906250
2299,-0.02,2022-10-28 11:01:05.921875
2300,9.53,2022-10-28 11:01:05.937500
2301,16.55,2022-10-28 11:01:05.953125
2302,21.35,2022-10-28 11:01:05.968750
2303,24.34,2022-10-28 11:01:05.984375
2304,25.82,2022-10-28 11:01:06.000000
2305,25.91,2022-10-28 11:01:06.015625
2306,24.65,2022-10-28 11:01:06.031250
2307,22.28,2022-10-28 11:01:06.046875
2308,19.33,2022-10-28 11:01:06.062500
2309,16.57,2022-10-28 11:01:06.078125
2310,14.78,2022-10-28 11:01:06.093750
2311,14.43,2022-10-28 11:01:06.109375
2312,15.56,2022-10-28 11:01:06.125000
2313,17.78,2022-10-28 11:01:06.140625
2314,20.49,2022-10-28 11:01:06.156250
2315,23.09,2022-10-28 11:01:06.171875
2316,25.19,2022-10-28 11:01:06.187500
2317,26.69,2022-10-28 11:01:06.203125
2318,27.65,2022-10-28 11:01:06.218750
2319,28.2,2022-10-28 11:01:06.234375
2320,28.33,2022-10-28 11:01:06.250000
2321,27.94,2022-10-28 11:01:06.265625
2322,26.85,2022-10-28 11:01:06.281250
2323,24.91,2022-10-28 11:01:06.296875
2324,22.1,2022-10-28 11:01:06.312500
2325,18.59,2022-10-28 11:01:06.328125
2326,14.67,2022-10-28 11:01:06.343750
2327,10.68,2022-10-28 11:01:06.359375
2328,6.89,2022-10-28 11:01:06.375000
2329,3.46,2022-10-28 11:01:06.390625
2330,0.35,2022-10-28 11:01:06.406250
2331,-2.59,2022-10-28 11:01:06.421875
2332,-5.5,2022-10-28 11:01:06.437500
2333,-8.53,2022-10-28 11:01:06.453125
2334,-11.7,2022-10-28 11:01:06.468750
2335,-14.96,2022-10-28 11:01:06.484375
2336,-18.13,2022-10-28 11:01:06.500000
2337,-21.08,2022-10-28 11:01:06.515625
2338,-23.73,2022-10-28 11:01:06.531250
2339,-26.1,2022-10-28 11:01:06.546875
2340,-28.31,2022-10-28 11:01:06.562500
2341,-30.56,2022-10-28 11:01:06.578125
2342,-33.06,2022-10-28 11:01:06.593750
2343,-36.08,2022-10-28 11:01:06.609375
2344,-39.91,2022-10-28 11:01:06.625000
2345,-44.79,2022-10-28 11:01:06.640625
2346,-50.82,2022-10-28 11:01:06.656250
2347,-57.6,2022-10-28 11:01:06.671875
2348,-64.2,2022-10-28 11:01:06.687500
2349,-69.17,2022-10-28 11:01:06.703125
2350,-70.96,2022-10-28 11:01:06.718750
2351,-68.44,2022-10-28 11:01:06.734375
2352,-61.37,2022-10-28 11:01:06.750000
2353,-50.61,2022-10-28 11:01:06.765625
2354,-37.76,2022-10-28 11:01:06.781250
2355,-24.67,2022-10-28 11:01:06.796875
2356,-12.82,2022-10-28 11:01:06.812500
2357,-3.04,2022-10-28 11:01:06.828125
2358,4.52,2022-10-28 11:01:06.843750
2359,10.05,2022-10-28 11:01:06.859375
2360,13.75,2022-10-28 11:01:06.875000
2361,15.73,2022-10-28 11:01:06.890625
2362,16.0,2022-10-28 11:01:06.906250
2363,14.72,2022-10-28 11:01:06.921875
2364,12.29,2022-10-28 11:01:06.937500
2365,9.45,2022-10-28 11:01:06.953125
2366,6.98,2022-10-28 11:01:06.968750
2367,5.58,2022-10-28 11:01:06.984375
2368,5.58,2022-10-28 11:01:07.000000
2369,6.9,2022-10-28 11:01:07.015625
2370,9.15,2022-10-28 11:01:07.031250
2371,11.84,2022-10-28 11:01:07.046875
2372,14.57,2022-10-28 11:01:07.062500
2373,17.12,2022-10-28 11:01:07.078125
2374,19.46,2022-10-28 11:01:07.093750
2375,21.62,2022-10-28 11:01:07.109375
2376,23.56,2022-10-28 11:01:07.125000
2377,25.16,2022-10-28 11:01:07.140625
2378,26.17,2022-10-28 11:01:07.156250
2379,26.33,2022-10-28 11:01:07.171875
2380,25.39,2022-10-28 11:01:07.187500
2381,23.27,2022-10-28 11:01:07.203125
2382,20.02,2022-10-28 11:01:07.218750
2383,15.98,2022-10-28 11:01:07.234375
2384,11.68,2022-10-28 11:01:07.250000
2385,7.68,2022-10-28 11:01:07.265625
2386,4.39,2022-10-28 11:01:07.281250
2387,1.84,2022-10-28 11:01:07.296875
2388,-0.36,2022-10-28 11:01:07.312500
2389,-2.8,2022-10-28 11:01:07.328125
2390,-6.0,2022-10-28 11:01:07.343750
2391,-10.09,2022-10-28 11:01:07.359375
2392,-14.71,2022-10-28 11:01:07.375000
2393,-19.21,2022-10-28 11:01:07.390625
2394,-22.99,2022-10-28 11:01:07.406250
2395,-25.76,2022-10-28 11:01:07.421875
2396,-27.73,2022-10-28 11:01:07.437500
2397,-29.47,2022-10-28 11:01:07.453125
2398,-31.7,2022-10-28 11:01:07.468750
2399,-35.06,2022-10-28 11:01:07.484375
2400,-39.89,2022-10-28 11:01:07.500000
2401,-46.18,2022-10-28 11:01:07.515625
2402,-53.49,2022-10-28 11:01:07.531250
2403,-60.96,2022-10-28 11:01:07.546875
2404,-67.33,2022-10-28 11:01:07.562500
2405,-71.19,2022-10-28 11:01:07.578125
2406,-71.27,2022-10-28 11:01:07.593750
2407,-66.83,2022-10-28 11:01:07.609375
2408,-57.98,2022-10-28 11:01:07.625000
2409,-45.67,2022-10-28 11:01:07.640625
2410,-31.47,2022-10-28 11:01:07.656250
2411,-17.18,2022-10-28 11:01:07.671875
2412,-4.3,2022-10-28 11:01:07.687500
2413,6.24,2022-10-28 11:01:07.703125
2414,14.18,2022-10-28 11:01:07.718750
2415,19.77,2022-10-28 11:01:07.734375
2416,23.53,2022-10-28 11:01:07.750000
2417,25.98,2022-10-28 11:01:07.765625
2418,27.46,2022-10-28 11:01:07.781250
2419,28.17,2022-10-28 11:01:07.796875
2420,28.22,2022-10-28 11:01:07.812500
2421,27.7,2022-10-28 11:01:07.828125
2422,26.83,2022-10-28 11:01:07.843750
2423,25.98,2022-10-28 11:01:07.859375
2424,25.59,2022-10-28 11:01:07.875000
2425,26.07,2022-10-28 11:01:07.890625
2426,27.66,2022-10-28 11:01:07.906250
2427,30.26,2022-10-28 11:01:07.921875
2428,33.49,2022-10-28 11:01:07.937500
2429,36.78,2022-10-28 11:01:07.953125
2430,39.56,2022-10-28 11:01:07.968750
2431,41.43,2022-10-28 11:01:07.984375
2432,42.25,2022-10-28 11:01:08.000000
2433,42.12,2022-10-28 11:01:08.015625
2434,41.19,2022-10-28 11:01:08.031250
2435,39.63,2022-10-28 11:01:08.046875
2436,37.51,2022-10-28 11:01:08.062500
2437,34.87,2022-10-28 11:01:08.078125
2438,31.74,2022-10-28 11:01:08.093750
2439,28.23,2022-10-28 11:01:08.109375
2440,24.53,2022-10-28 11:01:08.125000
2441,20.87,2022-10-28 11:01:08.140625
2442,17.43,2022-10-28 11:01:08.156250
2443,14.34,2022-10-28 11:01:08.171875
2444,11.52,2022-10-28 11:01:08.187500
2445,8.84,2022-10-28 11:01:08.203125
2446,6.05,2022-10-28 11:01:08.218750
2447,2.96,2022-10-28 11:01:08.234375
2448,-0.54,2022-10-28 11:01:08.250000
2449,-4.43,2022-10-28 11:01:08.265625
2450,-8.52,2022-10-28 11:01:08.281250
2451,-12.62,2022-10-28 11:01:08.296875
2452,-16.48,2022-10-28 11:01:08.312500
2453,-20.02,2022-10-28 11:01:08.328125
2454,-23.25,2022-10-28 11:01:08.343750
2455,-26.3,2022-10-28 11:01:08.359375
2456,-29.37,2022-10-28 11:01:08.375000
2457,-32.71,2022-10-28 11:01:08.390625
2458,-36.61,2022-10-28 11:01:08.406250
2459,-41.32,2022-10-28 11:01:08.421875
2460,-47.03,2022-10-28 11:01:08.437500
2461,-53.71,2022-10-28 11:01:08.453125
2462,-60.93,2022-10-28 11:01:08.468750
2463,-67.73,2022-10-28 11:01:08.484375
2464,-72.75,2022-10-28 11:01:08.500000
2465,-74.5,2022-10-28 11:01:08.515625
2466,-71.88,2022-10-28 11:01:08.531250
2467,-64.6,2022-10-28 11:01:08.546875
2468,-53.33,2022-10-28 11:01:08.562500
2469,-39.64,2022-10-28 11:01:08.578125
2470,-25.42,2022-10-28 11:01:08.593750
2471,-12.4,2022-10-28 11:01:08.609375
2472,-1.6,2022-10-28 11:01:08.625000
2473,6.69,2022-10-28 11:01:08.640625
2474,12.73,2022-10-28 11:01:08.656250
2475,17.01,2022-10-28 11:01:08.671875
2476,19.93,2022-10-28 11:01:08.687500
2477,21.71,2022-10-28 11:01:08.703125
2478,22.44,2022-10-28 11:01:08.718750
2479,22.3,2022-10-28 11:01:08.734375
2480,21.64,2022-10-28 11:01:08.750000
2481,20.93,2022-10-28 11:01:08.765625
2482,20.71,2022-10-28 11:01:08.781250
2483,21.34,2022-10-28 11:01:08.796875
2484,23.01,2022-10-28 11:01:08.812500
2485,25.6,2022-10-28 11:01:08.828125
2486,28.83,2022-10-28 11:01:08.843750
2487,32.3,2022-10-28 11:01:08.859375
2488,35.62,2022-10-28 11:01:08.875000
2489,38.47,2022-10-28 11:01:08.890625
2490,40.62,2022-10-28 11:01:08.906250
2491,41.99,2022-10-28 11:01:08.921875
2492,42.52,2022-10-28 11:01:08.937500
2493,42.2,2022-10-28 11:01:08.953125
2494,40.98,2022-10-28 11:01:08.968750
2495,38.86,2022-10-28 11:01:08.984375
2496,35.95,2022-10-28 11:01:09.000000
2497,32.5,2022-10-28 11:01:09.015625
2498,28.83,2022-10-28 11:01:09.031250
2499,25.28,2022-10-28 11:01:09.046875
2500,22.03,2022-10-28 11:01:09.062500
2501,19.03,2022-10-28 11:01:09.078125
2502,16.08,2022-10-28 11:01:09.093750
2503,12.89,2022-10-28 11:01:09.109375
2504,9.37,2022-10-28 11:01:09.125000
2505,5.6,2022-10-28 11:01:09.140625
2506,1.82,2022-10-28 11:01:09.156250
2507,-1.73,2022-10-28 11:01:09.171875
2508,-4.96,2022-10-28 11:01:09.187500
2509,-7.99,2022-10-28 11:01:09.203125
2510,-11.14,2022-10-28 11:01:09.218750
2511,-14.63,2022-10-28 11:01:09.234375
2512,-18.54,2022-10-28 11:01:09.250000
2513,-22.63,2022-10-28 11:01:09.265625
2514,-26.55,2022-10-28 11:01:09.281250
2515,-29.98,2022-10-28 11:01:09.296875
2516,-32.84,2022-10-28 11:01:09.312500
2517,-35.41,2022-10-28 11:01:09.328125
2518,-38.23,2022-10-28 11:01:09.343750
2519,-41.92,2022-10-28 11:01:09.359375
2520,-46.94,2022-10-28 11:01:09.375000
2521,-53.37,2022-10-28 11:01:09.390625
2522,-60.78,2022-10-28 11:01:09.406250
2523,-68.19,2022-10-28 11:01:09.421875
2524,-74.2,2022-10-28 11:01:09.437500
2525,-77.24,2022-10-28 11:01:09.453125
2526,-76.04,2022-10-28 11:01:09.468750
2527,-69.93,2022-10-28 11:01:09.484375
2528,-59.23,2022-10-28 11:01:09.500000
2529,-45.15,2022-10-28 11:01:09.515625
2530,-29.49,2022-10-28 11:01:09.531250
2531,-14.15,2022-10-28 11:01:09.546875
2532,-0.6,2022-10-28 11:01:09.562500
2533,10.36,2022-10-28 11:01:09.578125
2534,18.65,2022-10-28 11:01:09.593750
2535,24.55,2022-10-28 11:01:09.609375
2536,28.53,2022-10-28 11:01:09.625000
2537,30.97,2022-10-28 11:01:09.640625
2538,32.12,2022-10-28 11:01:09.656250
2539,32.22,2022-10-28 11:01:09.671875
2540,31.6,2022-10-28 11:01:09.687500
2541,30.71,2022-10-28 11:01:09.703125
2542,30.05,2022-10-28 11:01:09.718750
2543,30.03,2022-10-28 11:01:09.734375
2544,30.86,2022-10-28 11:01:09.750000
2545,32.46,2022-10-28 11:01:09.765625
2546,34.56,2022-10-28 11:01:09.781250
2547,36.83,2022-10-28 11:01:09.796875
2548,39.01,2022-10-28 11:01:09.812500
2549,41.04,2022-10-28 11:01:09.828125
2550,42.94,2022-10-28 11:01:09.843750
2551,44.69,2022-10-28 11:01:09.859375
2552,46.15,2022-10-28 11:01:09.875000
2553,47.0,2022-10-28 11:01:09.890625
2554,46.88,2022-10-28 11:01:09.906250
2555,45.57,2022-10-28 11:01:09.921875
2556,43.09,2022-10-28 11:01:09.937500
2557,39.78,2022-10-28 11:01:09.953125
2558,36.15,2022-10-28 11:01:09.968750
2559,32.71,2022-10-28 11:01:09.984375
2560,29.78,2022-10-28 11:01:10.000000
2561,27.4,2022-10-28 11:01:10.015625
2562,25.35,2022-10-28 11:01:10.031250
2563,23.31,2022-10-28 11:01:10.046875
2564,20.98,2022-10-28 11:01:10.062500
2565,18.21,2022-10-28 11:01:10.078125
2566,15.02,2022-10-28 11:01:10.093750
2567,11.54,2022-10-28 11:01:10.109375
2568,7.98,2022-10-28 11:01:10.125000
2569,4.57,2022-10-28 11:01:10.140625
2570,1.48,2022-10-28 11:01:10.156250
2571,-1.18,2022-10-28 11:01:10.171875
2572,-3.43,2022-10-28 11:01:10.187500
2573,-5.38,2022-10-28 11:01:10.203125
2574,-7.31,2022-10-28 11:01:10.218750
2575,-9.49,2022-10-28 11:01:10.234375
2576,-12.13,2022-10-28 11:01:10.250000
2577,-15.26,2022-10-28 11:01:10.265625
2578,-18.69,2022-10-28 11:01:10.281250
2579,-22.12,2022-10-28 11:01:10.296875
2580,-25.3,2022-10-28 11:01:10.312500
2581,-28.17,2022-10-28 11:01:10.328125
2582,-30.94,2022-10-28 11:01:10.343750
2583,-34.05,2022-10-28 11:01:10.359375
2584,-37.94,2022-10-28 11:01:10.375000
2585,-42.87,2022-10-28 11:01:10.390625
2586,-48.64,2022-10-28 11:01:10.406250
2587,-54.56,2022-10-28 11:01:10.421875
2588,-59.45,2022-10-28 11:01:10.437500
2589,-61.96,2022-10-28 11:01:10.453125
2590,-60.88,2022-10-28 11:01:10.468750
2591,-55.6,2022-10-28 11:01:10.484375
2592,-46.36,2022-10-28 11:01:10.500000
2593,-34.23,2022-10-28 11:01:10.515625
2594,-20.84,2022-10-28 11:01:10.531250
2595,-7.86,2022-10-28 11:01:10.546875
2596,3.4,2022-10-28 11:01:10.562500
2597,12.23,2022-10-28 11:01:10.578125
2598,18.56,2022-10-28 11:01:10.593750
2599,22.65,2022-10-28 11:01:10.609375
2600,24.96,2022-10-28 11:01:10.625000
2601,25.88,2022-10-28 11:01:10.640625
2602,25.74,2022-10-28 11:01:10.656250
2603,24.84,2022-10-28 11:01:10.671875
2604,23.5,2022-10-28 11:01:10.687500
2605,22.07,2022-10-28 11:01:10.703125
2606,20.86,2022-10-28 11:01:10.718750
2607,20.19,2022-10-28 11:01:10.734375
2608,20.22,2022-10-28 11:01:10.750000
2609,21.04,2022-10-28 11:01:10.765625
2610,22.6,2022-10-28 11:01:10.781250
2611,24.73,2022-10-28 11:01:10.796875
2612,27.17,2022-10-28 11:01:10.812500
2613,29.64,2022-10-28 11:01:10.828125
2614,31.9,2022-10-28 11:01:10.843750
2615,33.76,2022-10-28 11:01:10.859375
2616,35.12,2022-10-28 11:01:10.875000
2617,35.9,2022-10-28 11:01:10.890625
2618,36.07,2022-10-28 11:01:10.906250
2619,35.54,2022-10-28 11:01:10.921875
2620,34.28,2022-10-28 11:01:10.937500
2621,32.32,2022-10-28 11:01:10.953125
2622,29.77,2022-10-28 11:01:10.968750
2623,26.9,2022-10-28 11:01:10.984375
2624,24.01,2022-10-28 11:01:11.000000
2625,21.39,2022-10-28 11:01:11.015625
2626,19.13,2022-10-28 11:01:11.031250
2627,17.16,2022-10-28 11:01:11.046875
2628,15.25,2022-10-28 11:01:11.062500
2629,13.16,2022-10-28 11:01:11.078125
2630,10.79,2022-10-28 11:01:11.093750
2631,8.19,2022-10-28 11:01:11.109375
2632,5.6,2022-10-28 11:01:11.125000
2633,3.3,2022-10-28 11:01:11.140625
2634,1.48,2022-10-28 11:01:11.156250
2635,0.11,2022-10-28 11:01:11.171875
2636,-1.0,2022-10-28 11:01:11.187500
2637,-2.2,2022-10-28 11:01:11.203125
2638,-3.84,2022-10-28 11:01:11.218750
2639,-6.12,2022-10-28 11:01:11.234375
2640,-9.01,2022-10-28 11:01:11.250000
2641,-12.28,2022-10-28 11:01:11.265625
2642,-15.59,2022-10-28 11:01:11.281250
2643,-18.57,2022-10-28 11:01:11.296875
2644,-21.06,2022-10-28 11:01:11.312500
2645,-23.09,2022-10-28 11:01:11.328125
2646,-24.86,2022-10-28 11:01:11.343750
2647,-26.72,2022-10-28 11:01:11.359375
2648,-28.97,2022-10-28 11:01:11.375000
2649,-31.87,2022-10-28 11:01:11.390625
2650,-35.52,2022-10-28 11:01:11.406250
2651,-39.84,2022-10-28 11:01:11.421875
2652,-44.43,2022-10-28 11:01:11.437500
2653,-48.56,2022-10-28 11:01:11.453125
2654,-51.28,2022-10-28 11:01:11.468750
2655,-51.6,2022-10-28 11:01:11.484375
2656,-48.81,2022-10-28 11:01:11.500000
2657,-42.79,2022-10-28 11:01:11.515625
2658,-34.1,2022-10-28 11:01:11.531250
2659,-23.86,2022-10-28 11:01:11.546875
2660,-13.41,2022-10-28 11:01:11.562500
2661,-3.91,2022-10-28 11:01:11.578125
2662,3.92,2022-10-28 11:01:11.593750
2663,9.82,2022-10-28 11:01:11.609375
2664,13.91,2022-10-28 11:01:11.625000
2665,16.48,2022-10-28 11:01:11.640625
2666,17.75,2022-10-28 11:01:11.656250
2667,17.88,2022-10-28 11:01:11.671875
2668,16.99,2022-10-28 11:01:11.687500
2669,15.26,2022-10-28 11:01:11.703125
2670,13.02,2022-10-28 11:01:11.718750
2671,10.74,2022-10-28 11:01:11.734375
2672,8.95,2022-10-28 11:01:11.750000
2673,8.09,2022-10-28 11:01:11.765625
2674,8.38,2022-10-28 11:01:11.781250
2675,9.77,2022-10-28 11:01:11.796875
2676,11.96,2022-10-28 11:01:11.812500
2677,14.51,2022-10-28 11:01:11.828125
2678,17.07,2022-10-28 11:01:11.843750
2679,19.44,2022-10-28 11:01:11.859375
2680,21.6,2022-10-28 11:01:11.875000
2681,23.61,2022-10-28 11:01:11.890625
2682,25.44,2022-10-28 11:01:11.906250
2683,26.89,2022-10-28 11:01:11.921875
2684,27.61,2022-10-28 11:01:11.937500
2685,27.3,2022-10-28 11:01:11.953125
2686,25.82,2022-10-28 11:01:11.968750
2687,23.36,2022-10-28 11:01:11.984375
2688,20.42,2022-10-28 11:01:12.000000
2689,17.58,2022-10-28 11:01:12.015625
2690,15.26,2022-10-28 11:01:12.031250
2691,13.61,2022-10-28 11:01:12.046875
2692,12.37,2022-10-28 11:01:12.062500
2693,11.1,2022-10-28 11:01:12.078125
2694,9.34,2022-10-28 11:01:12.093750
2695,6.92,2022-10-28 11:01:12.109375
2696,3.98,2022-10-28 11:01:12.125000
2697,0.96,2022-10-28 11:01:12.140625
2698,-1.69,2022-10-28 11:01:12.156250
2699,-3.68,2022-10-28 11:01:12.171875
2700,-5.08,2022-10-28 11:01:12.187500
2701,-6.25,2022-10-28 11:01:12.203125
2702,-7.62,2022-10-28 11:01:12.218750
2703,-9.49,2022-10-28 11:01:12.234375
2704,-11.8,2022-10-28 11:01:12.250000
2705,-14.21,2022-10-28 11:01:12.265625
2706,-16.35,2022-10-28 11:01:12.281250
2707,-17.98,2022-10-28 11:01:12.296875
2708,-19.22,2022-10-28 11:01:12.312500
2709,-20.43,2022-10-28 11:01:12.328125
2710,-22.1,2022-10-28 11:01:12.343750
2711,-24.58,2022-10-28 11:01:12.359375
2712,-28.0,2022-10-28 11:01:12.375000
2713,-32.25,2022-10-28 11:01:12.390625
2714,-37.09,2022-10-28 11:01:12.406250
2715,-42.12,2022-10-28 11:01:12.421875
2716,-46.8,2022-10-28 11:01:12.437500
2717,-50.44,2022-10-28 11:01:12.453125
2718,-52.23,2022-10-28 11:01:12.468750
2719,-51.44,2022-10-28 11:01:12.484375
2720,-47.68,2022-10-28 11:01:12.500000
2721,-41.12,2022-10-28 11:01:12.515625
2722,-32.47,2022-10-28 11:01:12.531250
2723,-22.88,2022-10-28 11:01:12.546875
2724,-13.56,2022-10-28 11:01:12.562500
2725,-5.5,2022-10-28 11:01:12.578125
2726,0.77,2022-10-28 11:01:12.593750
2727,5.17,2022-10-28 11:01:12.609375
2728,7.85,2022-10-28 11:01:12.625000
2729,9.07,2022-10-28 11:01:12.640625
2730,9.0,2022-10-28 11:01:12.656250
2731,7.74,2022-10-28 11:01:12.671875
2732,5.42,2022-10-28 11:01:12.687500
2733,2.34,2022-10-28 11:01:12.703125
2734,-0.97,2022-10-28 11:01:12.718750
2735,-3.77,2022-10-28 11:01:12.734375
2736,-5.31,2022-10-28 11:01:12.750000
2737,-5.08,2022-10-28 11:01:12.765625
2738,-2.97,2022-10-28 11:01:12.781250
2739,0.68,2022-10-28 11:01:12.796875
2740,5.17,2022-10-28 11:01:12.812500
2741,9.71,2022-10-28 11:01:12.828125
2742,13.6,2022-10-28 11:01:12.843750
2743,16.47,2022-10-28 11:01:12.859375
2744,18.23,2022-10-28 11:01:12.875000
2745,19.03,2022-10-28 11:01:12.890625
2746,19.07,2022-10-28 11:01:12.906250
2747,18.45,2022-10-28 11:01:12.921875
2748,17.23,2022-10-28 11:01:12.937500
2749,15.35,2022-10-28 11:01:12.953125
2750,12.84,2022-10-28 11:01:12.968750
2751,9.85,2022-10-28 11:01:12.984375
2752,6.63,2022-10-28 11:01:13.000000
2753,3.45,2022-10-28 11:01:13.015625
2754,0.47,2022-10-28 11:01:13.031250
2755,-2.31,2022-10-28 11:01:13.046875
2756,-5.05,2022-10-28 11:01:13.062500
2757,-7.94,2022-10-28 11:01:13.078125
2758,-11.15,2022-10-28 11:01:13.093750
2759,-14.67,2022-10-28 11:01:13.109375
2760,-18.41,2022-10-28 11:01:13.125000
2761,-22.18,2022-10-28 11:01:13.140625
2762,-25.88,2022-10-28 11:01:13.156250
2763,-29.48,2022-10-28 11:01:13.171875
2764,-33.03,2022-10-28 11:01:13.187500
2765,-36.55,2022-10-28 11:01:13.203125
2766,-39.93,2022-10-28 11:01:13.218750
2767,-43.0,2022-10-28 11:01:13.234375
2768,-45.6,2022-10-28 11:01:13.250000
2769,-47.76,2022-10-28 11:01:13.265625
2770,-49.8,2022-10-28 11:01:13.281250
2771,-52.32,2022-10-28 11:01:13.296875
2772,-55.96,2022-10-28 11:01:13.312500
2773,-61.06,2022-10-28 11:01:13.328125
2774,-67.43,2022-10-28 11:01:13.343750
2775,-74.13,2022-10-28 11:01:13.359375
2776,-79.72,2022-10-28 11:01:13.375000
2777,-82.54,2022-10-28 11:01:13.390625
2778,-81.33,2022-10-28 11:01:13.406250
2779,-75.53,2022-10-28 11:01:13.421875
2780,-65.56,2022-10-28 11:01:13.437500
2781,-52.62,2022-10-28 11:01:13.453125
2782,-38.36,2022-10-28 11:01:13.468750
2783,-24.43,2022-10-28 11:01:13.484375
2784,-11.99,2022-10-28 11:01:13.500000
2785,-1.64,2022-10-28 11:01:13.515625
2786,6.66,2022-10-28 11:01:13.531250
2787,13.24,2022-10-28 11:01:13.546875
2788,18.5,2022-10-28 11:01:13.562500
2789,22.65,2022-10-28 11:01:13.578125
2790,25.69,2022-10-28 11:01:13.593750
2791,27.56,2022-10-28 11:01:13.609375
2792,28.23,2022-10-28 11:01:13.625000
2793,27.95,2022-10-28 11:01:13.640625
2794,27.23,2022-10-28 11:01:13.656250
2795,26.73,2022-10-28 11:01:13.671875
2796,27.01,2022-10-28 11:01:13.687500
2797,28.36,2022-10-28 11:01:13.703125
2798,30.67,2022-10-28 11:01:13.718750
2799,33.54,2022-10-28 11:01:13.734375
2800,36.46,2022-10-28 11:01:13.750000
2801,39.05,2022-10-28 11:01:13.765625
2802,41.12,2022-10-28 11:01:13.781250
2803,42.61,2022-10-28 11:01:13.796875
2804,43.5,2022-10-28 11:01:13.812500
2805,43.66,2022-10-28 11:01:13.828125
2806,42.91,2022-10-28 11:01:13.843750
2807,41.13,2022-10-28 11:01:13.859375
2808,38.37,2022-10-28 11:01:13.875000
2809,34.92,2022-10-28 11:01:13.890625
2810,31.19,2022-10-28 11:01:13.906250
2811,27.59,2022-10-28 11:01:13.921875
2812,24.34,2022-10-28 11:01:13.937500
2813,21.47,2022-10-28 11:01:13.953125
2814,18.82,2022-10-28 11:01:13.968750
2815,16.22,2022-10-28 11:01:13.984375
2816,13.52,2022-10-28 11:01:14.000000
2817,10.61,2022-10-28 11:01:14.015625
2818,7.45,2022-10-28 11:01:14.031250
2819,4.02,2022-10-28 11:01:14.046875
2820,0.32,2022-10-28 11:01:14.062500
2821,-3.57,2022-10-28 11:01:14.078125
2822,-7.52,2022-10-28 11:01:14.093750
2823,-11.35,2022-10-28 11:01:14.109375
2824,-14.92,2022-10-28 11:01:14.125000
2825,-18.15,2022-10-28 11:01:14.140625
2826,-21.12,2022-10-28 11:01:14.156250
2827,-24.08,2022-10-28 11:01:14.171875
2828,-27.44,2022-10-28 11:01:14.187500
2829,-31.68,2022-10-28 11:01:14.203125
2830,-37.24,2022-10-28 11:01:14.218750
2831,-44.22,2022-10-28 11:01:14.234375
2832,-52.22,2022-10-28 11:01:14.250000
2833,-60.16,2022-10-28 11:01:14.265625
2834,-66.47,2022-10-28 11:01:14.281250
2835,-69.5,2022-10-28 11:01:14.296875
2836,-68.04,2022-10-28 11:01:14.312500
2837,-61.76,2022-10-28 11:01:14.328125
2838,-51.36,2022-10-28 11:01:14.343750
2839,-38.29,2022-10-28 11:01:14.359375
2840,-24.28,2022-10-28 11:01:14.375000
2841,-10.82,2022-10-28 11:01:14.390625
2842,1.06,2022-10-28 11:01:14.406250
2843,10.97,2022-10-28 11:01:14.421875
2844,18.87,2022-10-28 11:01:14.437500
2845,24.94,2022-10-28 11:01:14.453125
2846,29.37,2022-10-28 11:01:14.468750
2847,32.3,2022-10-28 11:01:14.484375
2848,33.89,2022-10-28 11:01:14.500000
2849,34.35,2022-10-28 11:01:14.515625
2850,34.03,2022-10-28 11:01:14.531250
2851,33.37,2022-10-28 11:01:14.546875
2852,32.9,2022-10-28 11:01:14.562500
2853,33.09,2022-10-28 11:01:14.578125
2854,34.26,2022-10-28 11:01:14.593750
2855,36.48,2022-10-28 11:01:14.609375
2856,39.54,2022-10-28 11:01:14.625000
2857,43.05,2022-10-28 11:01:14.640625
2858,46.52,2022-10-28 11:01:14.656250
2859,49.53,2022-10-28 11:01:14.671875
2860,51.83,2022-10-28 11:01:14.687500
2861,53.26,2022-10-28 11:01:14.703125
2862,53.77,2022-10-28 11:01:14.718750
2863,53.32,2022-10-28 11:01:14.734375
2864,51.86,2022-10-28 11:01:14.750000
2865,49.35,2022-10-28 11:01:14.765625
2866,45.9,2022-10-28 11:01:14.781250
2867,41.7,2022-10-28 11:01:14.796875
2868,37.13,2022-10-28 11:01:14.812500
2869,32.6,2022-10-28 11:01:14.828125
2870,28.47,2022-10-28 11:01:14.843750
2871,24.97,2022-10-28 11:01:14.859375
2872,22.07,2022-10-28 11:01:14.875000
2873,19.59,2022-10-28 11:01:14.890625
2874,17.19,2022-10-28 11:01:14.906250
2875,14.55,2022-10-28 11:01:14.921875
2876,11.44,2022-10-28 11:01:14.937500
2877,7.77,2022-10-28 11:01:14.953125
2878,3.62,2022-10-28 11:01:14.968750
2879,-0.81,2022-10-28 11:01:14.984375
2880,-5.25,2022-10-28 11:01:15.000000
2881,-9.52,2022-10-28 11:01:15.015625
2882,-13.55,2022-10-28 11:01:15.031250
2883,-17.47,2022-10-28 11:01:15.046875
2884,-21.53,2022-10-28 11:01:15.062500
2885,-26.07,2022-10-28 11:01:15.078125
2886,-31.38,2022-10-28 11:01:15.093750
2887,-37.63,2022-10-28 11:01:15.109375
2888,-44.8,2022-10-28 11:01:15.125000
2889,-52.57,2022-10-28 11:01:15.140625
2890,-60.24,2022-10-28 11:01:15.156250
2891,-66.72,2022-10-28 11:01:15.171875
2892,-70.68,2022-10-28 11:01:15.187500
2893,-70.87,2022-10-28 11:01:15.203125
2894,-66.54,2022-10-28 11:01:15.218750
2895,-57.76,2022-10-28 11:01:15.234375
2896,-45.52,2022-10-28 11:01:15.250000
2897,-31.47,2022-10-28 11:01:15.265625
2898,-17.39,2022-10-28 11:01:15.281250
2899,-4.73,2022-10-28 11:01:15.296875
2900,5.72,2022-10-28 11:01:15.312500
2901,13.82,2022-10-28 11:01:15.328125
2902,19.84,2022-10-28 11:01:15.343750
2903,24.14,2022-10-28 11:01:15.359375
2904,26.92,2022-10-28 11:01:15.375000
2905,28.23,2022-10-28 11:01:15.390625
2906,28.11,2022-10-28 11:01:15.406250
2907,26.85,2022-10-28 11:01:15.421875
2908,25.0,2022-10-28 11:01:15.437500
2909,23.32,2022-10-28 11:01:15.453125
2910,22.54,2022-10-28 11:01:15.468750
2911,23.09,2022-10-28 11:01:15.484375
2912,24.97,2022-10-28 11:01:15.500000
2913,27.8,2022-10-28 11:01:15.515625
2914,31.0,2022-10-28 11:01:15.531250
2915,34.01,2022-10-28 11:01:15.546875
2916,36.49,2022-10-28 11:01:15.562500
2917,38.34,2022-10-28 11:01:15.578125
2918,39.55,2022-10-28 11:01:15.593750
2919,40.14,2022-10-28 11:01:15.609375
2920,40.03,2022-10-28 11:01:15.625000
2921,39.07,2022-10-28 11:01:15.640625
2922,37.13,2022-10-28 11:01:15.656250
2923,34.25,2022-10-28 11:01:15.671875
2924,30.59,2022-10-28 11:01:15.687500
2925,26.49,2022-10-28 11:01:15.703125
2926,22.31,2022-10-28 11:01:15.718750
2927,18.34,2022-10-28 11:01:15.734375
2928,14.76,2022-10-28 11:01:15.750000
2929,11.55,2022-10-28 11:01:15.765625
2930,8.56,2022-10-28 11:01:15.781250
2931,5.51,2022-10-28 11:01:15.796875
2932,2.18,2022-10-28 11:01:15.812500
2933,-1.61,2022-10-28 11:01:15.828125
2934,-5.87,2022-10-28 11:01:15.843750
2935,-10.36,2022-10-28 11:01:15.859375
2936,-14.77,2022-10-28 11:01:15.875000
2937,-18.76,2022-10-28 11:01:15.890625
2938,-22.15,2022-10-28 11:01:15.906250
2939,-25.03,2022-10-28 11:01:15.921875
2940,-27.76,2022-10-28 11:01:15.937500
2941,-30.85,2022-10-28 11:01:15.953125
2942,-34.87,2022-10-28 11:01:15.968750
2943,-40.21,2022-10-28 11:01:15.984375
2944,-46.9,2022-10-28 11:01:16.000000
2945,-54.61,2022-10-28 11:01:16.015625
2946,-62.46,2022-10-28 11:01:16.031250
2947,-69.18,2022-10-28 11:01:16.046875
2948,-73.21,2022-10-28 11:01:16.062500
2949,-73.2,2022-10-28 11:01:16.078125
2950,-68.35,2022-10-28 11:01:16.093750
2951,-58.78,2022-10-28 11:01:16.109375
2952,-45.6,2022-10-28 11:01:16.125000
2953,-30.56,2022-10-28 11:01:16.140625
2954,-15.57,2022-10-28 11:01:16.156250
2955,-2.15,2022-10-28 11:01:16.171875
2956,8.93,2022-10-28 11:01:16.187500
2957,17.62,2022-10-28 11:01:16.203125
2958,24.38,2022-10-28 11:01:16.218750
2959,29.78,2022-10-28 11:01:16.234375
2960,34.2,2022-10-28 11:01:16.250000
2961,37.7,2022-10-28 11:01:16.265625
2962,40.2,2022-10-28 11:01:16.281250
2963,41.55,2022-10-28 11:01:16.296875
2964,41.92,2022-10-28 11:01:16.312500
2965,41.7,2022-10-28 11:01:16.328125
2966,41.5,2022-10-28 11:01:16.343750
2967,41.89,2022-10-28 11:01:16.359375
2968,43.17,2022-10-28 11:01:16.375000
2969,45.25,2022-10-28 11:01:16.390625
2970,47.72,2022-10-28 11:01:16.406250
2971,50.02,2022-10-28 11:01:16.421875
2972,51.65,2022-10-28 11:01:16.437500
2973,52.41,2022-10-28 11:01:16.453125
2974,52.31,2022-10-28 11:01:16.468750
2975,51.54,2022-10-28 11:01:16.484375
2976,50.26,2022-10-28 11:01:16.500000
2977,48.56,2022-10-28 11:01:16.515625
2978,46.4,2022-10-28 11:01:16.531250
2979,43.68,2022-10-28 11:01:16.546875
2980,40.43,2022-10-28 11:01:16.562500
2981,36.77,2022-10-28 11:01:16.578125
2982,32.96,2022-10-28 11:01:16.593750
2983,29.32,2022-10-28 11:01:16.609375
2984,26.1,2022-10-28 11:01:16.625000
2985,23.39,2022-10-28 11:01:16.640625
2986,21.13,2022-10-28 11:01:16.656250
2987,19.09,2022-10-28 11:01:16.671875
2988,17.0,2022-10-28 11:01:16.687500
2989,14.65,2022-10-28 11:01:16.703125
2990,11.92,2022-10-28 11:01:16.718750
2991,8.85,2022-10-28 11:01:16.734375
2992,5.52,2022-10-28 11:01:16.750000
2993,2.05,2022-10-28 11:01:16.765625
2994,-1.4,2022-10-28 11:01:16.781250
2995,-4.78,2022-10-28 11:01:16.796875
2996,-8.01,2022-10-28 11:01:16.812500
2997,-11.11,2022-10-28 11:01:16.828125
2998,-14.12,2022-10-28 11:01:16.843750
2999,-17.22,2022-10-28 11:01:16.859375
3000,-20.66,2022-10-28 11:01:16.875000
3001,-24.72,2022-10-28 11:01:16.890625
3002,-29.71,2022-10-28 11:01:16.906250
3003,-35.66,2022-10-28 11:01:16.921875
3004,-42.31,2022-10-28 11:01:16.937500
3005,-48.9,2022-10-28 11:01:16.953125
3006,-54.3,2022-10-28 11:01:16.968750
3007,-57.29,2022-10-28 11:01:16.984375
3008,-56.9,2022-10-28 11:01:17.000000
3009,-52.72,2022-10-28 11:01:17.015625
3010,-45.08,2022-10-28 11:01:17.031250
3011,-34.96,2022-10-28 11:01:17.046875
3012,-23.64,2022-10-28 11:01:17.062500
3013,-12.42,2022-10-28 11:01:17.078125
3014,-2.24,2022-10-28 11:01:17.093750
3015,6.42,2022-10-28 11:01:17.109375
3016,13.47,2022-10-28 11:01:17.125000
3017,19.11,2022-10-28 11:01:17.140625
3018,23.58,2022-10-28 11:01:17.156250
3019,27.05,2022-10-28 11:01:17.171875
3020,29.53,2022-10-28 11:01:17.187500
3021,31.06,2022-10-28 11:01:17.203125
3022,31.73,2022-10-28 11:01:17.218750
3023,31.81,2022-10-28 11:01:17.234375
3024,31.73,2022-10-28 11:01:17.250000
3025,31.93,2022-10-28 11:01:17.265625
3026,32.76,2022-10-28 11:01:17.281250
3027,34.26,2022-10-28 11:01:17.296875
3028,36.22,2022-10-28 11:01:17.312500
3029,38.23,2022-10-28 11:01:17.328125
3030,39.97,2022-10-28 11:01:17.343750
3031,41.26,2022-10-28 11:01:17.359375
3032,42.13,2022-10-28 11:01:17.375000
3033,42.69,2022-10-28 11:01:17.390625
3034,42.97,2022-10-28 11:01:17.406250
3035,42.9,2022-10-28 11:01:17.421875
3036,42.25,2022-10-28 11:01:17.437500
3037,40.81,2022-10-28 11:01:17.453125
3038,38.47,2022-10-28 11:01:17.468750
3039,35.4,2022-10-28 11:01:17.484375
3040,31.91,2022-10-28 11:01:17.500000
3041,28.48,2022-10-28 11:01:17.515625
3042,25.51,2022-10-28 11:01:17.531250
3043,23.21,2022-10-28 11:01:17.546875
3044,21.53,2022-10-28 11:01:17.562500
3045,20.18,2022-10-28 11:01:17.578125
3046,18.82,2022-10-28 11:01:17.593750
3047,17.13,2022-10-28 11:01:17.609375
3048,15.01,2022-10-28 11:01:17.625000
3049,12.55,2022-10-28 11:01:17.640625
3050,10.03,2022-10-28 11:01:17.656250
3051,7.76,2022-10-28 11:01:17.671875
3052,5.9,2022-10-28 11:01:17.687500
3053,4.4,2022-10-28 11:01:17.703125
3054,3.0,2022-10-28 11:01:17.718750
3055,1.36,2022-10-28 11:01:17.734375
3056,-0.8,2022-10-28 11:01:17.750000
3057,-3.52,2022-10-28 11:01:17.765625
3058,-6.63,2022-10-28 11:01:17.781250
3059,-9.86,2022-10-28 11:01:17.796875
3060,-12.9,2022-10-28 11:01:17.812500
3061,-15.62,2022-10-28 11:01:17.828125
3062,-18.01,2022-10-28 11:01:17.843750
3063,-20.23,2022-10-28 11:01:17.859375
3064,-22.46,2022-10-28 11:01:17.875000
3065,-24.95,2022-10-28 11:01:17.890625
3066,-27.93,2022-10-28 11:01:17.906250
3067,-31.6,2022-10-28 11:01:17.921875
3068,-36.11,2022-10-28 11:01:17.937500
3069,-41.3,2022-10-28 11:01:17.953125
3070,-46.67,2022-10-28 11:01:17.968750
3071,-51.32,2022-10-28 11:01:17.984375
3072,-54.08,2022-10-28 11:01:18.000000
3073,-53.95,2022-10-28 11:01:18.015625
3074,-50.4,2022-10-28 11:01:18.031250
3075,-43.71,2022-10-28 11:01:18.046875
3076,-34.89,2022-10-28 11:01:18.062500
3077,-25.39,2022-10-28 11:01:18.078125
3078,-16.64,2022-10-28 11:01:18.093750
3079,-9.58,2022-10-28 11:01:18.109375
3080,-4.47,2022-10-28 11:01:18.125000
3081,-1.0,2022-10-28 11:01:18.140625
3082,1.41,2022-10-28 11:01:18.156250
3083,3.27,2022-10-28 11:01:18.171875
3084,4.75,2022-10-28 11:01:18.187500
3085,5.77,2022-10-28 11:01:18.203125
3086,6.12,2022-10-28 11:01:18.218750
3087,5.72,2022-10-28 11:01:18.234375
3088,4.78,2022-10-28 11:01:18.250000
3089,3.76,2022-10-28 11:01:18.265625
3090,3.22,2022-10-28 11:01:18.281250
3091,3.51,2022-10-28 11:01:18.296875
3092,4.7,2022-10-28 11:01:18.312500
3093,6.46,2022-10-28 11:01:18.328125
3094,8.35,2022-10-28 11:01:18.343750
3095,9.9,2022-10-28 11:01:18.359375
3096,10.93,2022-10-28 11:01:18.375000
3097,11.51,2022-10-28 11:01:18.390625
3098,11.91,2022-10-28 11:01:18.406250
3099,12.37,2022-10-28 11:01:18.421875
3100,12.92,2022-10-28 11:01:18.437500
3101,13.41,2022-10-28 11:01:18.453125
3102,13.49,2022-10-28 11:01:18.468750
3103,12.92,2022-10-28 11:01:18.484375
3104,11.6,2022-10-28 11:01:18.500000
3105,9.68,2022-10-28 11:01:18.515625
3106,7.48,2022-10-28 11:01:18.531250
3107,5.33,2022-10-28 11:01:18.546875
3108,3.52,2022-10-28 11:01:18.562500
3109,2.11,2022-10-28 11:01:18.578125
3110,1.01,2022-10-28 11:01:18.593750
3111,-0.02,2022-10-28 11:01:18.609375
3112,-1.23,2022-10-28 11:01:18.625000
3113,-2.78,2022-10-28 11:01:18.640625
3114,-4.68,2022-10-28 11:01:18.656250
3115,-6.8,2022-10-28 11:01:18.671875
3116,-8.91,2022-10-28 11:01:18.687500
3117,-10.81,2022-10-28 11:01:18.703125
3118,-12.48,2022-10-28 11:01:18.718750
3119,-14.06,2022-10-28 11:01:18.734375
3120,-15.8,2022-10-28 11:01:18.750000
3121,-17.94,2022-10-28 11:01:18.765625
3122,-20.54,2022-10-28 11:01:18.781250
3123,-23.48,2022-10-28 11:01:18.796875
3124,-26.49,2022-10-28 11:01:18.812500
3125,-29.3,2022-10-28 11:01:18.828125
3126,-31.73,2022-10-28 11:01:18.843750
3127,-33.79,2022-10-28 11:01:18.859375
3128,-35.54,2022-10-28 11:01:18.875000
3129,-37.18,2022-10-28 11:01:18.890625
3130,-38.93,2022-10-28 11:01:18.906250
3131,-40.98,2022-10-28 11:01:18.921875
3132,-43.54,2022-10-28 11:01:18.937500
3133,-46.69,2022-10-28 11:01:18.953125
3134,-50.28,2022-10-28 11:01:18.968750
3135,-53.86,2022-10-28 11:01:18.984375
3136,-56.64,2022-10-28 11:01:19.000000
3137,-57.72,2022-10-28 11:01:19.015625
3138,-56.32,2022-10-28 11:01:19.031250
3139,-52.15,2022-10-28 11:01:19.046875
3140,-45.47,2022-10-28 11:01:19.062500
3141,-37.17,2022-10-28 11:01:19.078125
3142,-28.35,2022-10-28 11:01:19.093750
3143,-20.04,2022-10-28 11:01:19.109375
3144,-12.9,2022-10-28 11:01:19.125000
3145,-7.07,2022-10-28 11:01:19.140625
3146,-2.34,2022-10-28 11:01:19.156250
3147,1.65,2022-10-28 11:01:19.171875
3148,5.21,2022-10-28 11:01:19.187500
3149,8.41,2022-10-28 11:01:19.203125
3150,11.14,2022-10-28 11:01:19.218750
3151,13.17,2022-10-28 11:01:19.234375
3152,14.35,2022-10-28 11:01:19.250000
3153,14.71,2022-10-28 11:01:19.265625
3154,14.5,2022-10-28 11:01:19.281250
3155,14.15,2022-10-28 11:01:19.296875
3156,14.11,2022-10-28 11:01:19.312500
3157,14.71,2022-10-28 11:01:19.328125
3158,16.05,2022-10-28 11:01:19.343750
3159,17.99,2022-10-28 11:01:19.359375
3160,20.27,2022-10-28 11:01:19.375000
3161,22.6,2022-10-28 11:01:19.390625
3162,24.78,2022-10-28 11:01:19.406250
3163,26.71,2022-10-28 11:01:19.421875
3164,28.31,2022-10-28 11:01:19.437500
3165,29.47,2022-10-28 11:01:19.453125
3166,29.95,2022-10-28 11:01:19.468750
3167,29.47,2022-10-28 11:01:19.484375
3168,27.86,2022-10-28 11:01:19.500000
3169,25.18,2022-10-28 11:01:19.515625
3170,21.73,2022-10-28 11:01:19.531250
3171,17.98,2022-10-28 11:01:19.546875
