,BVP,time
0,-544.96,2022-10-26 16:10:32.734375
1,-570.56,2022-10-26 16:10:32.750000
2,-583.52,2022-10-26 16:10:32.765625
3,-585.75,2022-10-26 16:10:32.781250
4,-579.39,2022-10-26 16:10:32.796875
5,-565.31,2022-10-26 16:10:32.812500
6,-543.46,2022-10-26 16:10:32.828125
7,-513.96,2022-10-26 16:10:32.843750
8,-478.65,2022-10-26 16:10:32.859375
9,-440.83,2022-10-26 16:10:32.875000
10,-404.38,2022-10-26 16:10:32.890625
11,-372.34,2022-10-26 16:10:32.906250
12,-345.41,2022-10-26 16:10:32.921875
13,-322.32,2022-10-26 16:10:32.937500
14,-300.47,2022-10-26 16:10:32.953125
15,-277.56,2022-10-26 16:10:32.968750
16,-252.61,2022-10-26 16:10:32.984375
17,-226.12,2022-10-26 16:10:33.000000
18,-199.81,2022-10-26 16:10:33.015625
19,-175.41,2022-10-26 16:10:33.031250
20,-154.21,2022-10-26 16:10:33.046875
21,-136.5,2022-10-26 16:10:33.062500
22,-121.48,2022-10-26 16:10:33.078125
23,-107.87,2022-10-26 16:10:33.093750
24,-94.52,2022-10-26 16:10:33.109375
25,-80.84,2022-10-26 16:10:33.125000
26,-67.11,2022-10-26 16:10:33.140625
27,-54.14,2022-10-26 16:10:33.156250
28,-42.84,2022-10-26 16:10:33.171875
29,-33.78,2022-10-26 16:10:33.187500
30,-26.86,2022-10-26 16:10:33.203125
31,-21.38,2022-10-26 16:10:33.218750
32,-16.29,2022-10-26 16:10:33.234375
33,-10.68,2022-10-26 16:10:33.250000
34,-4.1,2022-10-26 16:10:33.265625
35,3.34,2022-10-26 16:10:33.281250
36,11.03,2022-10-26 16:10:33.296875
37,18.25,2022-10-26 16:10:33.312500
38,24.5,2022-10-26 16:10:33.328125
39,29.87,2022-10-26 16:10:33.343750
40,35.01,2022-10-26 16:10:33.359375
41,40.83,2022-10-26 16:10:33.375000
42,48.15,2022-10-26 16:10:33.390625
43,57.19,2022-10-26 16:10:33.406250
44,67.35,2022-10-26 16:10:33.421875
45,77.42,2022-10-26 16:10:33.437500
46,86.02,2022-10-26 16:10:33.453125
47,92.22,2022-10-26 16:10:33.468750
48,96.12,2022-10-26 16:10:33.484375
49,98.79,2022-10-26 16:10:33.500000
50,101.92,2022-10-26 16:10:33.515625
51,107.0,2022-10-26 16:10:33.531250
52,114.6,2022-10-26 16:10:33.546875
53,124.06,2022-10-26 16:10:33.562500
54,133.72,2022-10-26 16:10:33.578125
55,141.89,2022-10-26 16:10:33.593750
56,147.57,2022-10-26 16:10:33.609375
57,151.33,2022-10-26 16:10:33.625000
58,155.22,2022-10-26 16:10:33.640625
59,161.85,2022-10-26 16:10:33.656250
60,173.47,2022-10-26 16:10:33.671875
61,191.09,2022-10-26 16:10:33.687500
62,214.03,2022-10-26 16:10:33.703125
63,240.14,2022-10-26 16:10:33.718750
64,266.56,2022-10-26 16:10:33.734375
65,290.33,2022-10-26 16:10:33.750000
66,309.11,2022-10-26 16:10:33.765625
67,321.56,2022-10-26 16:10:33.781250
68,327.68,2022-10-26 16:10:33.796875
69,328.8,2022-10-26 16:10:33.812500
70,327.64,2022-10-26 16:10:33.828125
71,327.83,2022-10-26 16:10:33.843750
72,332.77,2022-10-26 16:10:33.859375
73,343.73,2022-10-26 16:10:33.875000
74,358.85,2022-10-26 16:10:33.890625
75,373.86,2022-10-26 16:10:33.906250
76,383.6,2022-10-26 16:10:33.921875
77,384.99,2022-10-26 16:10:33.937500
78,379.3,2022-10-26 16:10:33.953125
79,371.93,2022-10-26 16:10:33.968750
80,369.99,2022-10-26 16:10:33.984375
81,378.6,2022-10-26 16:10:34.000000
82,397.14,2022-10-26 16:10:34.015625
83,419.28,2022-10-26 16:10:34.031250
84,435.85,2022-10-26 16:10:34.046875
85,439.88,2022-10-26 16:10:34.062500
86,430.47,2022-10-26 16:10:34.078125
87,413.5,2022-10-26 16:10:34.093750
88,397.55,2022-10-26 16:10:34.109375
89,389.03,2022-10-26 16:10:34.125000
90,388.76,2022-10-26 16:10:34.140625
91,392.08,2022-10-26 16:10:34.156250
92,392.06,2022-10-26 16:10:34.171875
93,383.86,2022-10-26 16:10:34.187500
94,367.3,2022-10-26 16:10:34.203125
95,346.39,2022-10-26 16:10:34.218750
96,326.77,2022-10-26 16:10:34.234375
97,312.01,2022-10-26 16:10:34.250000
98,302.0,2022-10-26 16:10:34.265625
99,293.71,2022-10-26 16:10:34.281250
100,283.2,2022-10-26 16:10:34.296875
101,267.65,2022-10-26 16:10:34.312500
102,245.76,2022-10-26 16:10:34.328125
103,217.41,2022-10-26 16:10:34.343750
104,183.79,2022-10-26 16:10:34.359375
105,147.85,2022-10-26 16:10:34.375000
106,114.97,2022-10-26 16:10:34.390625
107,93.16,2022-10-26 16:10:34.406250
108,90.67,2022-10-26 16:10:34.421875
109,112.72,2022-10-26 16:10:34.437500
110,158.73,2022-10-26 16:10:34.453125
111,221.23,2022-10-26 16:10:34.468750
112,287.79,2022-10-26 16:10:34.484375
113,345.48,2022-10-26 16:10:34.500000
114,384.81,2022-10-26 16:10:34.515625
115,402.57,2022-10-26 16:10:34.531250
116,401.31,2022-10-26 16:10:34.546875
117,386.55,2022-10-26 16:10:34.562500
118,363.68,2022-10-26 16:10:34.578125
119,336.24,2022-10-26 16:10:34.593750
120,305.94,2022-10-26 16:10:34.609375
121,273.94,2022-10-26 16:10:34.625000
122,241.72,2022-10-26 16:10:34.640625
123,211.18,2022-10-26 16:10:34.656250
124,183.78,2022-10-26 16:10:34.671875
125,160.13,2022-10-26 16:10:34.687500
126,140.29,2022-10-26 16:10:34.703125
127,124.39,2022-10-26 16:10:34.718750
128,113.38,2022-10-26 16:10:34.734375
129,108.57,2022-10-26 16:10:34.750000
130,110.62,2022-10-26 16:10:34.765625
131,118.73,2022-10-26 16:10:34.781250
132,130.01,2022-10-26 16:10:34.796875
133,140.75,2022-10-26 16:10:34.812500
134,147.73,2022-10-26 16:10:34.828125
135,149.41,2022-10-26 16:10:34.843750
136,146.12,2022-10-26 16:10:34.859375
137,139.27,2022-10-26 16:10:34.875000
138,130.21,2022-10-26 16:10:34.890625
139,119.68,2022-10-26 16:10:34.906250
140,108.03,2022-10-26 16:10:34.921875
141,95.89,2022-10-26 16:10:34.937500
142,84.46,2022-10-26 16:10:34.953125
143,75.17,2022-10-26 16:10:34.968750
144,68.85,2022-10-26 16:10:34.984375
145,65.09,2022-10-26 16:10:35.000000
146,62.27,2022-10-26 16:10:35.015625
147,58.34,2022-10-26 16:10:35.031250
148,51.84,2022-10-26 16:10:35.046875
149,42.33,2022-10-26 16:10:35.062500
150,30.77,2022-10-26 16:10:35.078125
151,18.85,2022-10-26 16:10:35.093750
152,8.28,2022-10-26 16:10:35.109375
153,0.05,2022-10-26 16:10:35.125000
154,-5.88,2022-10-26 16:10:35.140625
155,-10.37,2022-10-26 16:10:35.156250
156,-14.65,2022-10-26 16:10:35.171875
157,-19.77,2022-10-26 16:10:35.187500
158,-26.08,2022-10-26 16:10:35.203125
159,-33.22,2022-10-26 16:10:35.218750
160,-40.26,2022-10-26 16:10:35.234375
161,-46.23,2022-10-26 16:10:35.250000
162,-50.46,2022-10-26 16:10:35.265625
163,-52.87,2022-10-26 16:10:35.281250
164,-53.98,2022-10-26 16:10:35.296875
165,-54.56,2022-10-26 16:10:35.312500
166,-55.42,2022-10-26 16:10:35.328125
167,-56.98,2022-10-26 16:10:35.343750
168,-59.16,2022-10-26 16:10:35.359375
169,-61.49,2022-10-26 16:10:35.375000
170,-63.28,2022-10-26 16:10:35.390625
171,-63.98,2022-10-26 16:10:35.406250
172,-63.43,2022-10-26 16:10:35.421875
173,-61.98,2022-10-26 16:10:35.437500
174,-60.36,2022-10-26 16:10:35.453125
175,-59.43,2022-10-26 16:10:35.468750
176,-59.8,2022-10-26 16:10:35.484375
177,-61.56,2022-10-26 16:10:35.500000
178,-64.23,2022-10-26 16:10:35.515625
179,-66.94,2022-10-26 16:10:35.531250
180,-68.88,2022-10-26 16:10:35.546875
181,-69.7,2022-10-26 16:10:35.562500
182,-69.78,2022-10-26 16:10:35.578125
183,-70.18,2022-10-26 16:10:35.593750
184,-72.2,2022-10-26 16:10:35.609375
185,-76.77,2022-10-26 16:10:35.625000
186,-83.94,2022-10-26 16:10:35.640625
187,-92.78,2022-10-26 16:10:35.656250
188,-101.73,2022-10-26 16:10:35.671875
189,-109.29,2022-10-26 16:10:35.687500
190,-114.77,2022-10-26 16:10:35.703125
191,-118.76,2022-10-26 16:10:35.718750
192,-122.94,2022-10-26 16:10:35.734375
193,-129.49,2022-10-26 16:10:35.750000
194,-139.97,2022-10-26 16:10:35.765625
195,-154.64,2022-10-26 16:10:35.781250
196,-172.23,2022-10-26 16:10:35.796875
197,-190.72,2022-10-26 16:10:35.812500
198,-208.14,2022-10-26 16:10:35.828125
199,-223.63,2022-10-26 16:10:35.843750
200,-237.8,2022-10-26 16:10:35.859375
201,-252.04,2022-10-26 16:10:35.875000
202,-267.97,2022-10-26 16:10:35.890625
203,-286.78,2022-10-26 16:10:35.906250
204,-309.21,2022-10-26 16:10:35.921875
205,-335.76,2022-10-26 16:10:35.937500
206,-366.21,2022-10-26 16:10:35.953125
207,-398.23,2022-10-26 16:10:35.968750
208,-426.01,2022-10-26 16:10:35.984375
209,-440.62,2022-10-26 16:10:36.000000
210,-432.33,2022-10-26 16:10:36.015625
211,-395.36,2022-10-26 16:10:36.031250
212,-332.01,2022-10-26 16:10:36.046875
213,-253.53,2022-10-26 16:10:36.062500
214,-177.34,2022-10-26 16:10:36.078125
215,-120.79,2022-10-26 16:10:36.093750
216,-95.11,2022-10-26 16:10:36.109375
217,-101.83,2022-10-26 16:10:36.125000
218,-134.07,2022-10-26 16:10:36.140625
219,-180.75,2022-10-26 16:10:36.156250
220,-231.2,2022-10-26 16:10:36.171875
221,-277.93,2022-10-26 16:10:36.187500
222,-315.86,2022-10-26 16:10:36.203125
223,-340.74,2022-10-26 16:10:36.218750
224,-348.96,2022-10-26 16:10:36.234375
225,-338.76,2022-10-26 16:10:36.250000
226,-312.57,2022-10-26 16:10:36.265625
227,-277.73,2022-10-26 16:10:36.281250
228,-244.22,2022-10-26 16:10:36.296875
229,-220.55,2022-10-26 16:10:36.312500
230,-209.43,2022-10-26 16:10:36.328125
231,-206.45,2022-10-26 16:10:36.343750
232,-202.48,2022-10-26 16:10:36.359375
233,-188.07,2022-10-26 16:10:36.375000
234,-158.73,2022-10-26 16:10:36.390625
235,-117.33,2022-10-26 16:10:36.406250
236,-73.14,2022-10-26 16:10:36.421875
237,-38.48,2022-10-26 16:10:36.437500
238,-24.26,2022-10-26 16:10:36.453125
239,-36.2,2022-10-26 16:10:36.468750
240,-72.68,2022-10-26 16:10:36.484375
241,-125.73,2022-10-26 16:10:36.500000
242,-183.24,2022-10-26 16:10:36.515625
243,-232.93,2022-10-26 16:10:36.531250
244,-266.02,2022-10-26 16:10:36.546875
245,-279.49,2022-10-26 16:10:36.562500
246,-276.45,2022-10-26 16:10:36.578125
247,-264.25,2022-10-26 16:10:36.593750
248,-251.41,2022-10-26 16:10:36.609375
249,-244.08,2022-10-26 16:10:36.625000
250,-244.53,2022-10-26 16:10:36.640625
251,-250.16,2022-10-26 16:10:36.656250
252,-254.78,2022-10-26 16:10:36.671875
253,-251.41,2022-10-26 16:10:36.687500
254,-234.33,2022-10-26 16:10:36.703125
255,-200.91,2022-10-26 16:10:36.718750
256,-152.33,2022-10-26 16:10:36.734375
257,-92.55,2022-10-26 16:10:36.750000
258,-26.91,2022-10-26 16:10:36.765625
259,38.6,2022-10-26 16:10:36.781250
260,98.19,2022-10-26 16:10:36.796875
261,146.15,2022-10-26 16:10:36.812500
262,177.94,2022-10-26 16:10:36.828125
263,191.7,2022-10-26 16:10:36.843750
264,189.56,2022-10-26 16:10:36.859375
265,177.87,2022-10-26 16:10:36.875000
266,164.47,2022-10-26 16:10:36.890625
267,154.91,2022-10-26 16:10:36.906250
268,149.62,2022-10-26 16:10:36.921875
269,143.76,2022-10-26 16:10:36.937500
270,130.6,2022-10-26 16:10:36.953125
271,106.08,2022-10-26 16:10:36.968750
272,72.56,2022-10-26 16:10:36.984375
273,38.76,2022-10-26 16:10:37.000000
274,16.7,2022-10-26 16:10:37.015625
275,16.56,2022-10-26 16:10:37.031250
276,42.5,2022-10-26 16:10:37.046875
277,91.33,2022-10-26 16:10:37.062500
278,153.65,2022-10-26 16:10:37.078125
279,216.93,2022-10-26 16:10:37.093750
280,268.95,2022-10-26 16:10:37.109375
281,301.03,2022-10-26 16:10:37.125000
282,308.51,2022-10-26 16:10:37.140625
283,291.79,2022-10-26 16:10:37.156250
284,254.92,2022-10-26 16:10:37.171875
285,204.22,2022-10-26 16:10:37.187500
286,146.66,2022-10-26 16:10:37.203125
287,87.77,2022-10-26 16:10:37.218750
288,31.0,2022-10-26 16:10:37.234375
289,-22.16,2022-10-26 16:10:37.250000
290,-71.19,2022-10-26 16:10:37.265625
291,-115.31,2022-10-26 16:10:37.281250
292,-152.24,2022-10-26 16:10:37.296875
293,-179.13,2022-10-26 16:10:37.312500
294,-193.66,2022-10-26 16:10:37.328125
295,-195.85,2022-10-26 16:10:37.343750
296,-188.87,2022-10-26 16:10:37.359375
297,-178.49,2022-10-26 16:10:37.375000
298,-171.07,2022-10-26 16:10:37.390625
299,-170.68,2022-10-26 16:10:37.406250
300,-177.26,2022-10-26 16:10:37.421875
301,-186.17,2022-10-26 16:10:37.437500
302,-189.71,2022-10-26 16:10:37.453125
303,-179.74,2022-10-26 16:10:37.468750
304,-150.82,2022-10-26 16:10:37.484375
305,-102.69,2022-10-26 16:10:37.500000
306,-41.43,2022-10-26 16:10:37.515625
307,21.01,2022-10-26 16:10:37.531250
308,70.3,2022-10-26 16:10:37.546875
309,94.61,2022-10-26 16:10:37.562500
310,89.89,2022-10-26 16:10:37.578125
311,61.99,2022-10-26 16:10:37.593750
312,25.25,2022-10-26 16:10:37.609375
313,-3.01,2022-10-26 16:10:37.625000
314,-9.58,2022-10-26 16:10:37.640625
315,9.88,2022-10-26 16:10:37.656250
316,49.49,2022-10-26 16:10:37.671875
317,97.28,2022-10-26 16:10:37.687500
318,141.08,2022-10-26 16:10:37.703125
319,173.2,2022-10-26 16:10:37.718750
320,192.5,2022-10-26 16:10:37.734375
321,202.89,2022-10-26 16:10:37.750000
322,209.27,2022-10-26 16:10:37.765625
323,214.78,2022-10-26 16:10:37.781250
324,219.27,2022-10-26 16:10:37.796875
325,220.75,2022-10-26 16:10:37.812500
326,217.15,2022-10-26 16:10:37.828125
327,207.9,2022-10-26 16:10:37.843750
328,193.95,2022-10-26 16:10:37.859375
329,176.36,2022-10-26 16:10:37.875000
330,155.49,2022-10-26 16:10:37.890625
331,130.97,2022-10-26 16:10:37.906250
332,102.16,2022-10-26 16:10:37.921875
333,70.2,2022-10-26 16:10:37.937500
334,38.34,2022-10-26 16:10:37.953125
335,11.35,2022-10-26 16:10:37.968750
336,-6.88,2022-10-26 16:10:37.984375
337,-15.31,2022-10-26 16:10:38.000000
338,-16.07,2022-10-26 16:10:38.015625
339,-13.43,2022-10-26 16:10:38.031250
340,-10.74,2022-10-26 16:10:38.046875
341,-8.96,2022-10-26 16:10:38.062500
342,-6.44,2022-10-26 16:10:38.078125
343,-1.07,2022-10-26 16:10:38.093750
344,7.47,2022-10-26 16:10:38.109375
345,16.22,2022-10-26 16:10:38.125000
346,19.78,2022-10-26 16:10:38.140625
347,12.79,2022-10-26 16:10:38.156250
348,-8.41,2022-10-26 16:10:38.171875
349,-44.39,2022-10-26 16:10:38.187500
350,-93.14,2022-10-26 16:10:38.203125
351,-150.68,2022-10-26 16:10:38.218750
352,-211.57,2022-10-26 16:10:38.234375
353,-269.05,2022-10-26 16:10:38.250000
354,-316.18,2022-10-26 16:10:38.265625
355,-347.15,2022-10-26 16:10:38.281250
356,-359.35,2022-10-26 16:10:38.296875
357,-354.17,2022-10-26 16:10:38.312500
358,-336.12,2022-10-26 16:10:38.328125
359,-310.62,2022-10-26 16:10:38.343750
360,-281.71,2022-10-26 16:10:38.359375
361,-251.62,2022-10-26 16:10:38.375000
362,-221.17,2022-10-26 16:10:38.390625
363,-190.83,2022-10-26 16:10:38.406250
364,-161.9,2022-10-26 16:10:38.421875
365,-135.76,2022-10-26 16:10:38.437500
366,-113.0,2022-10-26 16:10:38.453125
367,-91.92,2022-10-26 16:10:38.468750
368,-69.28,2022-10-26 16:10:38.484375
369,-42.43,2022-10-26 16:10:38.500000
370,-11.13,2022-10-26 16:10:38.515625
371,21.9,2022-10-26 16:10:38.531250
372,52.11,2022-10-26 16:10:38.546875
373,75.9,2022-10-26 16:10:38.562500
374,91.82,2022-10-26 16:10:38.578125
375,101.31,2022-10-26 16:10:38.593750
376,107.43,2022-10-26 16:10:38.609375
377,113.15,2022-10-26 16:10:38.625000
378,120.08,2022-10-26 16:10:38.640625
379,128.72,2022-10-26 16:10:38.656250
380,138.38,2022-10-26 16:10:38.671875
381,148.32,2022-10-26 16:10:38.687500
382,158.14,2022-10-26 16:10:38.703125
383,167.55,2022-10-26 16:10:38.718750
384,175.51,2022-10-26 16:10:38.734375
385,180.3,2022-10-26 16:10:38.750000
386,179.66,2022-10-26 16:10:38.765625
387,171.77,2022-10-26 16:10:38.781250
388,156.85,2022-10-26 16:10:38.796875
389,137.45,2022-10-26 16:10:38.812500
390,117.82,2022-10-26 16:10:38.828125
391,102.04,2022-10-26 16:10:38.843750
392,92.17,2022-10-26 16:10:38.859375
393,86.68,2022-10-26 16:10:38.875000
394,82.04,2022-10-26 16:10:38.890625
395,75.08,2022-10-26 16:10:38.906250
396,65.38,2022-10-26 16:10:38.921875
397,56.29,2022-10-26 16:10:38.937500
398,52.23,2022-10-26 16:10:38.953125
399,56.07,2022-10-26 16:10:38.968750
400,67.1,2022-10-26 16:10:38.984375
401,81.36,2022-10-26 16:10:39.000000
402,94.17,2022-10-26 16:10:39.015625
403,103.12,2022-10-26 16:10:39.031250
404,109.15,2022-10-26 16:10:39.046875
405,115.12,2022-10-26 16:10:39.062500
406,122.68,2022-10-26 16:10:39.078125
407,130.26,2022-10-26 16:10:39.093750
408,133.49,2022-10-26 16:10:39.109375
409,127.34,2022-10-26 16:10:39.125000
410,109.37,2022-10-26 16:10:39.140625
411,81.2,2022-10-26 16:10:39.156250
412,46.95,2022-10-26 16:10:39.171875
413,11.43,2022-10-26 16:10:39.187500
414,-21.67,2022-10-26 16:10:39.203125
415,-49.17,2022-10-26 16:10:39.218750
416,-67.83,2022-10-26 16:10:39.234375
417,-74.22,2022-10-26 16:10:39.250000
418,-66.37,2022-10-26 16:10:39.265625
419,-46.47,2022-10-26 16:10:39.281250
420,-21.66,2022-10-26 16:10:39.296875
421,-2.49,2022-10-26 16:10:39.312500
422,1.64,2022-10-26 16:10:39.328125
423,-13.45,2022-10-26 16:10:39.343750
424,-44.51,2022-10-26 16:10:39.359375
425,-83.56,2022-10-26 16:10:39.375000
426,-121.12,2022-10-26 16:10:39.390625
427,-150.08,2022-10-26 16:10:39.406250
428,-167.06,2022-10-26 16:10:39.421875
429,-170.92,2022-10-26 16:10:39.437500
430,-161.3,2022-10-26 16:10:39.453125
431,-138.21,2022-10-26 16:10:39.468750
432,-103.41,2022-10-26 16:10:39.484375
433,-61.21,2022-10-26 16:10:39.500000
434,-18.42,2022-10-26 16:10:39.515625
435,17.16,2022-10-26 16:10:39.531250
436,39.7,2022-10-26 16:10:39.546875
437,46.23,2022-10-26 16:10:39.562500
438,37.52,2022-10-26 16:10:39.578125
439,17.64,2022-10-26 16:10:39.593750
440,-6.73,2022-10-26 16:10:39.609375
441,-28.18,2022-10-26 16:10:39.625000
442,-40.79,2022-10-26 16:10:39.640625
443,-43.16,2022-10-26 16:10:39.656250
444,-39.76,2022-10-26 16:10:39.671875
445,-38.15,2022-10-26 16:10:39.687500
446,-44.93,2022-10-26 16:10:39.703125
447,-60.31,2022-10-26 16:10:39.718750
448,-77.57,2022-10-26 16:10:39.734375
449,-86.51,2022-10-26 16:10:39.750000
450,-80.34,2022-10-26 16:10:39.765625
451,-60.53,2022-10-26 16:10:39.781250
452,-36.79,2022-10-26 16:10:39.796875
453,-21.77,2022-10-26 16:10:39.812500
454,-23.44,2022-10-26 16:10:39.828125
455,-41.01,2022-10-26 16:10:39.843750
456,-65.71,2022-10-26 16:10:39.859375
457,-87.36,2022-10-26 16:10:39.875000
458,-99.66,2022-10-26 16:10:39.890625
459,-102.57,2022-10-26 16:10:39.906250
460,-99.63,2022-10-26 16:10:39.921875
461,-93.37,2022-10-26 16:10:39.937500
462,-82.86,2022-10-26 16:10:39.953125
463,-64.85,2022-10-26 16:10:39.968750
464,-38.25,2022-10-26 16:10:39.984375
465,-7.12,2022-10-26 16:10:40.000000
466,19.13,2022-10-26 16:10:40.015625
467,29.3,2022-10-26 16:10:40.031250
468,16.2,2022-10-26 16:10:40.046875
469,-19.28,2022-10-26 16:10:40.062500
470,-67.86,2022-10-26 16:10:40.078125
471,-115.76,2022-10-26 16:10:40.093750
472,-150.01,2022-10-26 16:10:40.109375
473,-164.06,2022-10-26 16:10:40.125000
474,-158.77,2022-10-26 16:10:40.140625
475,-140.92,2022-10-26 16:10:40.156250
476,-119.2,2022-10-26 16:10:40.171875
477,-99.9,2022-10-26 16:10:40.187500
478,-85.05,2022-10-26 16:10:40.203125
479,-72.44,2022-10-26 16:10:40.218750
480,-58.85,2022-10-26 16:10:40.234375
481,-42.36,2022-10-26 16:10:40.250000
482,-24.09,2022-10-26 16:10:40.265625
483,-6.59,2022-10-26 16:10:40.281250
484,8.07,2022-10-26 16:10:40.296875
485,20.06,2022-10-26 16:10:40.312500
486,31.52,2022-10-26 16:10:40.328125
487,44.58,2022-10-26 16:10:40.343750
488,59.43,2022-10-26 16:10:40.359375
489,74.5,2022-10-26 16:10:40.375000
490,88.79,2022-10-26 16:10:40.390625
491,103.46,2022-10-26 16:10:40.406250
492,121.76,2022-10-26 16:10:40.421875
493,146.45,2022-10-26 16:10:40.437500
494,176.91,2022-10-26 16:10:40.453125
495,208.71,2022-10-26 16:10:40.468750
496,235.33,2022-10-26 16:10:40.484375
497,252.34,2022-10-26 16:10:40.500000
498,260.06,2022-10-26 16:10:40.515625
499,262.56,2022-10-26 16:10:40.531250
500,263.86,2022-10-26 16:10:40.546875
501,264.01,2022-10-26 16:10:40.562500
502,257.7,2022-10-26 16:10:40.578125
503,236.33,2022-10-26 16:10:40.593750
504,192.74,2022-10-26 16:10:40.609375
505,125.48,2022-10-26 16:10:40.625000
506,40.63,2022-10-26 16:10:40.640625
507,-49.45,2022-10-26 16:10:40.656250
508,-129.4,2022-10-26 16:10:40.671875
509,-185.15,2022-10-26 16:10:40.687500
510,-207.37,2022-10-26 16:10:40.703125
511,-193.46,2022-10-26 16:10:40.718750
512,-147.66,2022-10-26 16:10:40.734375
513,-79.45,2022-10-26 16:10:40.750000
514,-1.0,2022-10-26 16:10:40.765625
515,75.44,2022-10-26 16:10:40.781250
516,139.14,2022-10-26 16:10:40.796875
517,181.88,2022-10-26 16:10:40.812500
518,198.85,2022-10-26 16:10:40.828125
519,190.72,2022-10-26 16:10:40.843750
520,164.54,2022-10-26 16:10:40.859375
521,133.93,2022-10-26 16:10:40.875000
522,115.82,2022-10-26 16:10:40.890625
523,124.43,2022-10-26 16:10:40.906250
524,164.68,2022-10-26 16:10:40.921875
525,229.48,2022-10-26 16:10:40.937500
526,301.88,2022-10-26 16:10:40.953125
527,362.61,2022-10-26 16:10:40.968750
528,398.03,2022-10-26 16:10:40.984375
529,404.97,2022-10-26 16:10:41.000000
530,389.46,2022-10-26 16:10:41.015625
531,361.18,2022-10-26 16:10:41.031250
532,327.97,2022-10-26 16:10:41.046875
533,293.07,2022-10-26 16:10:41.062500
534,256.71,2022-10-26 16:10:41.078125
535,219.55,2022-10-26 16:10:41.093750
536,184.48,2022-10-26 16:10:41.109375
537,155.26,2022-10-26 16:10:41.125000
538,133.56,2022-10-26 16:10:41.140625
539,116.8,2022-10-26 16:10:41.156250
540,99.15,2022-10-26 16:10:41.171875
541,74.7,2022-10-26 16:10:41.187500
542,41.27,2022-10-26 16:10:41.203125
543,1.5,2022-10-26 16:10:41.218750
544,-38.74,2022-10-26 16:10:41.234375
545,-73.33,2022-10-26 16:10:41.250000
546,-98.26,2022-10-26 16:10:41.265625
547,-112.23,2022-10-26 16:10:41.281250
548,-116.45,2022-10-26 16:10:41.296875
549,-113.5,2022-10-26 16:10:41.312500
550,-107.71,2022-10-26 16:10:41.328125
551,-104.41,2022-10-26 16:10:41.343750
552,-109.36,2022-10-26 16:10:41.359375
553,-126.99,2022-10-26 16:10:41.375000
554,-158.36,2022-10-26 16:10:41.390625
555,-200.23,2022-10-26 16:10:41.406250
556,-246.54,2022-10-26 16:10:41.421875
557,-290.16,2022-10-26 16:10:41.437500
558,-325.44,2022-10-26 16:10:41.453125
559,-349.01,2022-10-26 16:10:41.468750
560,-358.86,2022-10-26 16:10:41.484375
561,-353.53,2022-10-26 16:10:41.500000
562,-332.78,2022-10-26 16:10:41.515625
563,-298.82,2022-10-26 16:10:41.531250
564,-257.49,2022-10-26 16:10:41.546875
565,-218.19,2022-10-26 16:10:41.562500
566,-191.23,2022-10-26 16:10:41.578125
567,-184.54,2022-10-26 16:10:41.593750
568,-200.11,2022-10-26 16:10:41.609375
569,-233.3,2022-10-26 16:10:41.625000
570,-274.55,2022-10-26 16:10:41.640625
571,-313.0,2022-10-26 16:10:41.656250
572,-339.58,2022-10-26 16:10:41.671875
573,-348.6,2022-10-26 16:10:41.687500
574,-338.23,2022-10-26 16:10:41.703125
575,-310.47,2022-10-26 16:10:41.718750
576,-270.85,2022-10-26 16:10:41.734375
577,-227.91,2022-10-26 16:10:41.750000
578,-191.35,2022-10-26 16:10:41.765625
579,-168.37,2022-10-26 16:10:41.781250
580,-160.69,2022-10-26 16:10:41.796875
581,-162.65,2022-10-26 16:10:41.812500
582,-163.09,2022-10-26 16:10:41.828125
583,-149.43,2022-10-26 16:10:41.843750
584,-113.1,2022-10-26 16:10:41.859375
585,-53.08,2022-10-26 16:10:41.875000
586,23.23,2022-10-26 16:10:41.890625
587,102.11,2022-10-26 16:10:41.906250
588,167.34,2022-10-26 16:10:41.921875
589,205.58,2022-10-26 16:10:41.937500
590,210.18,2022-10-26 16:10:41.953125
591,182.89,2022-10-26 16:10:41.968750
592,133.35,2022-10-26 16:10:41.984375
593,76.04,2022-10-26 16:10:42.000000
594,25.68,2022-10-26 16:10:42.015625
595,-6.54,2022-10-26 16:10:42.031250
596,-14.62,2022-10-26 16:10:42.046875
597,1.77,2022-10-26 16:10:42.062500
598,38.47,2022-10-26 16:10:42.078125
599,87.93,2022-10-26 16:10:42.093750
600,140.47,2022-10-26 16:10:42.109375
601,186.61,2022-10-26 16:10:42.125000
602,219.76,2022-10-26 16:10:42.140625
603,238.73,2022-10-26 16:10:42.156250
604,248.2,2022-10-26 16:10:42.171875
605,256.09,2022-10-26 16:10:42.187500
606,268.93,2022-10-26 16:10:42.203125
607,287.56,2022-10-26 16:10:42.218750
608,306.32,2022-10-26 16:10:42.234375
609,315.54,2022-10-26 16:10:42.250000
610,306.63,2022-10-26 16:10:42.265625
611,275.85,2022-10-26 16:10:42.281250
612,224.96,2022-10-26 16:10:42.296875
613,159.11,2022-10-26 16:10:42.312500
614,84.79,2022-10-26 16:10:42.328125
615,9.02,2022-10-26 16:10:42.343750
616,-60.19,2022-10-26 16:10:42.359375
617,-114.31,2022-10-26 16:10:42.375000
618,-146.51,2022-10-26 16:10:42.390625
619,-155.58,2022-10-26 16:10:42.406250
620,-147.58,2022-10-26 16:10:42.421875
621,-133.75,2022-10-26 16:10:42.437500
622,-125.17,2022-10-26 16:10:42.453125
623,-126.93,2022-10-26 16:10:42.468750
624,-135.6,2022-10-26 16:10:42.484375
625,-142.27,2022-10-26 16:10:42.500000
626,-137.86,2022-10-26 16:10:42.515625
627,-119.05,2022-10-26 16:10:42.531250
628,-89.79,2022-10-26 16:10:42.546875
629,-58.96,2022-10-26 16:10:42.562500
630,-35.67,2022-10-26 16:10:42.578125
631,-25.13,2022-10-26 16:10:42.593750
632,-27.64,2022-10-26 16:10:42.609375
633,-39.58,2022-10-26 16:10:42.625000
634,-55.99,2022-10-26 16:10:42.640625
635,-71.79,2022-10-26 16:10:42.656250
636,-81.76,2022-10-26 16:10:42.671875
637,-81.01,2022-10-26 16:10:42.687500
638,-66.16,2022-10-26 16:10:42.703125
639,-37.57,2022-10-26 16:10:42.718750
640,-0.33,2022-10-26 16:10:42.734375
641,36.19,2022-10-26 16:10:42.750000
642,61.7,2022-10-26 16:10:42.765625
643,68.35,2022-10-26 16:10:42.781250
644,54.65,2022-10-26 16:10:42.796875
645,26.48,2022-10-26 16:10:42.812500
646,-4.76,2022-10-26 16:10:42.828125
647,-27.19,2022-10-26 16:10:42.843750
648,-33.24,2022-10-26 16:10:42.859375
649,-23.02,2022-10-26 16:10:42.875000
650,-3.51,2022-10-26 16:10:42.890625
651,15.97,2022-10-26 16:10:42.906250
652,28.78,2022-10-26 16:10:42.921875
653,33.58,2022-10-26 16:10:42.937500
654,32.99,2022-10-26 16:10:42.953125
655,29.82,2022-10-26 16:10:42.968750
656,24.46,2022-10-26 16:10:42.984375
657,14.58,2022-10-26 16:10:43.000000
658,-1.85,2022-10-26 16:10:43.015625
659,-23.6,2022-10-26 16:10:43.031250
660,-45.46,2022-10-26 16:10:43.046875
661,-60.96,2022-10-26 16:10:43.062500
662,-66.34,2022-10-26 16:10:43.078125
663,-62.33,2022-10-26 16:10:43.093750
664,-53.48,2022-10-26 16:10:43.109375
665,-43.87,2022-10-26 16:10:43.125000
666,-35.08,2022-10-26 16:10:43.140625
667,-26.35,2022-10-26 16:10:43.156250
668,-16.88,2022-10-26 16:10:43.171875
669,-7.57,2022-10-26 16:10:43.187500
670,-0.25,2022-10-26 16:10:43.203125
671,4.98,2022-10-26 16:10:43.218750
672,12.16,2022-10-26 16:10:43.234375
673,28.14,2022-10-26 16:10:43.250000
674,58.97,2022-10-26 16:10:43.265625
675,104.15,2022-10-26 16:10:43.281250
676,155.31,2022-10-26 16:10:43.296875
677,198.1,2022-10-26 16:10:43.312500
678,218.42,2022-10-26 16:10:43.328125
679,208.02,2022-10-26 16:10:43.343750
680,168.13,2022-10-26 16:10:43.359375
681,109.19,2022-10-26 16:10:43.375000
682,46.52,2022-10-26 16:10:43.390625
683,-4.57,2022-10-26 16:10:43.406250
684,-33.53,2022-10-26 16:10:43.421875
685,-37.15,2022-10-26 16:10:43.437500
686,-19.4,2022-10-26 16:10:43.453125
687,11.07,2022-10-26 16:10:43.468750
688,43.73,2022-10-26 16:10:43.484375
689,69.44,2022-10-26 16:10:43.500000
690,81.71,2022-10-26 16:10:43.515625
691,77.13,2022-10-26 16:10:43.531250
692,55.23,2022-10-26 16:10:43.546875
693,18.19,2022-10-26 16:10:43.562500
694,-29.14,2022-10-26 16:10:43.578125
695,-79.61,2022-10-26 16:10:43.593750
696,-125.52,2022-10-26 16:10:43.609375
697,-160.47,2022-10-26 16:10:43.625000
698,-181.53,2022-10-26 16:10:43.640625
699,-190.05,2022-10-26 16:10:43.656250
700,-190.84,2022-10-26 16:10:43.671875
701,-189.48,2022-10-26 16:10:43.687500
702,-189.81,2022-10-26 16:10:43.703125
703,-192.46,2022-10-26 16:10:43.718750
704,-194.42,2022-10-26 16:10:43.734375
705,-190.4,2022-10-26 16:10:43.750000
706,-174.64,2022-10-26 16:10:43.765625
707,-143.91,2022-10-26 16:10:43.781250
708,-98.75,2022-10-26 16:10:43.796875
709,-43.75,2022-10-26 16:10:43.812500
710,14.65,2022-10-26 16:10:43.828125
711,69.8,2022-10-26 16:10:43.843750
712,116.49,2022-10-26 16:10:43.859375
713,151.44,2022-10-26 16:10:43.875000
714,172.41,2022-10-26 16:10:43.890625
715,177.45,2022-10-26 16:10:43.906250
716,165.95,2022-10-26 16:10:43.921875
717,140.15,2022-10-26 16:10:43.937500
718,105.71,2022-10-26 16:10:43.953125
719,70.99,2022-10-26 16:10:43.968750
720,43.07,2022-10-26 16:10:43.984375
721,25.02,2022-10-26 16:10:44.000000
722,14.58,2022-10-26 16:10:44.015625
723,6.86,2022-10-26 16:10:44.031250
724,-1.79,2022-10-26 16:10:44.046875
725,-11.38,2022-10-26 16:10:44.062500
726,-18.4,2022-10-26 16:10:44.078125
727,-18.7,2022-10-26 16:10:44.093750
728,-10.04,2022-10-26 16:10:44.109375
729,6.53,2022-10-26 16:10:44.125000
730,27.83,2022-10-26 16:10:44.140625
731,50.4,2022-10-26 16:10:44.156250
732,71.08,2022-10-26 16:10:44.171875
733,86.54,2022-10-26 16:10:44.187500
734,92.6,2022-10-26 16:10:44.203125
735,84.44,2022-10-26 16:10:44.218750
736,59.37,2022-10-26 16:10:44.234375
737,20.13,2022-10-26 16:10:44.250000
738,-23.39,2022-10-26 16:10:44.265625
739,-56.33,2022-10-26 16:10:44.281250
740,-65.2,2022-10-26 16:10:44.296875
741,-45.19,2022-10-26 16:10:44.312500
742,-3.37,2022-10-26 16:10:44.328125
743,43.41,2022-10-26 16:10:44.343750
744,76.19,2022-10-26 16:10:44.359375
745,82.98,2022-10-26 16:10:44.375000
746,64.32,2022-10-26 16:10:44.390625
747,32.47,2022-10-26 16:10:44.406250
748,4.93,2022-10-26 16:10:44.421875
749,-4.44,2022-10-26 16:10:44.437500
750,8.24,2022-10-26 16:10:44.453125
751,35.9,2022-10-26 16:10:44.468750
752,64.44,2022-10-26 16:10:44.484375
753,79.91,2022-10-26 16:10:44.500000
754,73.58,2022-10-26 16:10:44.515625
755,44.45,2022-10-26 16:10:44.531250
756,-0.93,2022-10-26 16:10:44.546875
757,-51.26,2022-10-26 16:10:44.562500
758,-94.32,2022-10-26 16:10:44.578125
759,-120.65,2022-10-26 16:10:44.593750
760,-126.25,2022-10-26 16:10:44.609375
761,-113.58,2022-10-26 16:10:44.625000
762,-90.06,2022-10-26 16:10:44.640625
763,-65.03,2022-10-26 16:10:44.656250
764,-46.83,2022-10-26 16:10:44.671875
765,-41.23,2022-10-26 16:10:44.687500
766,-51.5,2022-10-26 16:10:44.703125
767,-79.79,2022-10-26 16:10:44.718750
768,-126.4,2022-10-26 16:10:44.734375
769,-187.91,2022-10-26 16:10:44.750000
770,-256.09,2022-10-26 16:10:44.765625
771,-317.33,2022-10-26 16:10:44.781250
772,-356.21,2022-10-26 16:10:44.796875
773,-360.89,2022-10-26 16:10:44.812500
774,-328.18,2022-10-26 16:10:44.828125
775,-265.38,2022-10-26 16:10:44.843750
776,-187.51,2022-10-26 16:10:44.859375
777,-111.53,2022-10-26 16:10:44.875000
778,-50.55,2022-10-26 16:10:44.890625
779,-10.45,2022-10-26 16:10:44.906250
780,10.16,2022-10-26 16:10:44.921875
781,16.95,2022-10-26 16:10:44.937500
782,17.07,2022-10-26 16:10:44.953125
783,17.23,2022-10-26 16:10:44.968750
784,22.6,2022-10-26 16:10:44.984375
785,36.92,2022-10-26 16:10:45.000000
786,61.89,2022-10-26 16:10:45.015625
787,96.3,2022-10-26 16:10:45.031250
788,135.11,2022-10-26 16:10:45.046875
789,169.8,2022-10-26 16:10:45.062500
790,190.25,2022-10-26 16:10:45.078125
791,188.61,2022-10-26 16:10:45.093750
792,162.86,2022-10-26 16:10:45.109375
793,118.88,2022-10-26 16:10:45.125000
794,69.32,2022-10-26 16:10:45.140625
795,29.14,2022-10-26 16:10:45.156250
796,9.91,2022-10-26 16:10:45.171875
797,15.39,2022-10-26 16:10:45.187500
798,41.42,2022-10-26 16:10:45.203125
799,78.46,2022-10-26 16:10:45.218750
800,116.03,2022-10-26 16:10:45.234375
801,146.48,2022-10-26 16:10:45.250000
802,165.64,2022-10-26 16:10:45.265625
803,172.0,2022-10-26 16:10:45.281250
804,164.16,2022-10-26 16:10:45.296875
805,140.55,2022-10-26 16:10:45.312500
806,100.2,2022-10-26 16:10:45.328125
807,45.18,2022-10-26 16:10:45.343750
808,-17.9,2022-10-26 16:10:45.359375
809,-78.09,2022-10-26 16:10:45.375000
810,-123.13,2022-10-26 16:10:45.390625
811,-143.57,2022-10-26 16:10:45.406250
812,-136.45,2022-10-26 16:10:45.421875
813,-107.26,2022-10-26 16:10:45.437500
814,-68.12,2022-10-26 16:10:45.453125
815,-33.22,2022-10-26 16:10:45.468750
816,-12.48,2022-10-26 16:10:45.484375
817,-7.32,2022-10-26 16:10:45.500000
818,-10.43,2022-10-26 16:10:45.515625
819,-10.66,2022-10-26 16:10:45.531250
820,0.21,2022-10-26 16:10:45.546875
821,21.37,2022-10-26 16:10:45.562500
822,43.01,2022-10-26 16:10:45.578125
823,51.94,2022-10-26 16:10:45.593750
824,39.84,2022-10-26 16:10:45.609375
825,9.03,2022-10-26 16:10:45.625000
826,-27.58,2022-10-26 16:10:45.640625
827,-53.33,2022-10-26 16:10:45.656250
828,-56.77,2022-10-26 16:10:45.671875
829,-37.5,2022-10-26 16:10:45.687500
830,-5.25,2022-10-26 16:10:45.703125
831,26.44,2022-10-26 16:10:45.718750
832,48.21,2022-10-26 16:10:45.734375
833,59.36,2022-10-26 16:10:45.750000
834,66.22,2022-10-26 16:10:45.765625
835,76.46,2022-10-26 16:10:45.781250
836,93.15,2022-10-26 16:10:45.796875
837,112.59,2022-10-26 16:10:45.812500
838,126.65,2022-10-26 16:10:45.828125
839,128.55,2022-10-26 16:10:45.843750
840,117.62,2022-10-26 16:10:45.859375
841,100.61,2022-10-26 16:10:45.875000
842,87.58,2022-10-26 16:10:45.890625
843,86.34,2022-10-26 16:10:45.906250
844,98.71,2022-10-26 16:10:45.921875
845,119.78,2022-10-26 16:10:45.937500
846,141.93,2022-10-26 16:10:45.953125
847,158.43,2022-10-26 16:10:45.968750
848,166.17,2022-10-26 16:10:45.984375
849,165.89,2022-10-26 16:10:46.000000
850,159.85,2022-10-26 16:10:46.015625
851,149.44,2022-10-26 16:10:46.031250
852,134.31,2022-10-26 16:10:46.046875
853,112.94,2022-10-26 16:10:46.062500
854,84.0,2022-10-26 16:10:46.078125
855,47.66,2022-10-26 16:10:46.093750
856,6.03,2022-10-26 16:10:46.109375
857,-37.65,2022-10-26 16:10:46.125000
858,-79.52,2022-10-26 16:10:46.140625
859,-116.11,2022-10-26 16:10:46.156250
860,-145.08,2022-10-26 16:10:46.171875
861,-165.93,2022-10-26 16:10:46.187500
862,-179.29,2022-10-26 16:10:46.203125
863,-186.38,2022-10-26 16:10:46.218750
864,-187.93,2022-10-26 16:10:46.234375
865,-182.99,2022-10-26 16:10:46.250000
866,-169.59,2022-10-26 16:10:46.265625
867,-146.87,2022-10-26 16:10:46.281250
868,-116.33,2022-10-26 16:10:46.296875
869,-82.37,2022-10-26 16:10:46.312500
870,-50.95,2022-10-26 16:10:46.328125
871,-26.77,2022-10-26 16:10:46.343750
872,-11.71,2022-10-26 16:10:46.359375
873,-3.65,2022-10-26 16:10:46.375000
874,2.33,2022-10-26 16:10:46.390625
875,11.3,2022-10-26 16:10:46.406250
876,26.64,2022-10-26 16:10:46.421875
877,48.62,2022-10-26 16:10:46.437500
878,74.7,2022-10-26 16:10:46.453125
879,100.77,2022-10-26 16:10:46.468750
880,122.01,2022-10-26 16:10:46.484375
881,133.76,2022-10-26 16:10:46.500000
882,131.62,2022-10-26 16:10:46.515625
883,112.9,2022-10-26 16:10:46.531250
884,77.52,2022-10-26 16:10:46.546875
885,29.67,2022-10-26 16:10:46.562500
886,-22.78,2022-10-26 16:10:46.578125
887,-69.85,2022-10-26 16:10:46.593750
888,-102.5,2022-10-26 16:10:46.609375
889,-114.76,2022-10-26 16:10:46.625000
890,-104.81,2022-10-26 16:10:46.640625
891,-74.59,2022-10-26 16:10:46.656250
892,-28.15,2022-10-26 16:10:46.671875
893,28.58,2022-10-26 16:10:46.687500
894,88.92,2022-10-26 16:10:46.703125
895,146.09,2022-10-26 16:10:46.718750
896,193.82,2022-10-26 16:10:46.734375
897,227.19,2022-10-26 16:10:46.750000
898,243.54,2022-10-26 16:10:46.765625
899,242.11,2022-10-26 16:10:46.781250
900,224.06,2022-10-26 16:10:46.796875
901,191.69,2022-10-26 16:10:46.812500
902,147.55,2022-10-26 16:10:46.828125
903,94.97,2022-10-26 16:10:46.843750
904,38.64,2022-10-26 16:10:46.859375
905,-14.6,2022-10-26 16:10:46.875000
906,-56.37,2022-10-26 16:10:46.890625
907,-79.48,2022-10-26 16:10:46.906250
908,-80.87,2022-10-26 16:10:46.921875
909,-63.93,2022-10-26 16:10:46.937500
910,-38.85,2022-10-26 16:10:46.953125
911,-19.45,2022-10-26 16:10:46.968750
912,-18.49,2022-10-26 16:10:46.984375
913,-42.01,2022-10-26 16:10:47.000000
914,-86.46,2022-10-26 16:10:47.015625
915,-139.12,2022-10-26 16:10:47.031250
916,-183.18,2022-10-26 16:10:47.046875
917,-204.83,2022-10-26 16:10:47.062500
918,-199.38,2022-10-26 16:10:47.078125
919,-172.31,2022-10-26 16:10:47.093750
920,-136.22,2022-10-26 16:10:47.109375
921,-104.17,2022-10-26 16:10:47.125000
922,-84.33,2022-10-26 16:10:47.140625
923,-77.16,2022-10-26 16:10:47.156250
924,-76.38,2022-10-26 16:10:47.171875
925,-73.26,2022-10-26 16:10:47.187500
926,-60.92,2022-10-26 16:10:47.203125
927,-38.1,2022-10-26 16:10:47.218750
928,-9.23,2022-10-26 16:10:47.234375
929,17.52,2022-10-26 16:10:47.250000
930,34.63,2022-10-26 16:10:47.265625
931,38.53,2022-10-26 16:10:47.281250
932,30.96,2022-10-26 16:10:47.296875
933,17.27,2022-10-26 16:10:47.312500
934,3.42,2022-10-26 16:10:47.328125
935,-7.35,2022-10-26 16:10:47.343750
936,-16.11,2022-10-26 16:10:47.359375
937,-26.59,2022-10-26 16:10:47.375000
938,-41.79,2022-10-26 16:10:47.390625
939,-60.93,2022-10-26 16:10:47.406250
940,-78.02,2022-10-26 16:10:47.421875
941,-84.56,2022-10-26 16:10:47.437500
942,-74.51,2022-10-26 16:10:47.453125
943,-48.0,2022-10-26 16:10:47.468750
944,-13.15,2022-10-26 16:10:47.484375
945,18.01,2022-10-26 16:10:47.500000
946,35.07,2022-10-26 16:10:47.515625
947,34.41,2022-10-26 16:10:47.531250
948,20.39,2022-10-26 16:10:47.546875
949,2.37,2022-10-26 16:10:47.562500
950,-11.75,2022-10-26 16:10:47.578125
951,-20.08,2022-10-26 16:10:47.593750
952,-27.74,2022-10-26 16:10:47.609375
953,-43.12,2022-10-26 16:10:47.625000
954,-71.33,2022-10-26 16:10:47.640625
955,-109.38,2022-10-26 16:10:47.656250
956,-146.13,2022-10-26 16:10:47.671875
957,-167.02,2022-10-26 16:10:47.687500
958,-161.49,2022-10-26 16:10:47.703125
959,-128.46,2022-10-26 16:10:47.718750
960,-76.25,2022-10-26 16:10:47.734375
961,-18.76,2022-10-26 16:10:47.750000
962,31.17,2022-10-26 16:10:47.765625
963,66.54,2022-10-26 16:10:47.781250
964,86.94,2022-10-26 16:10:47.796875
965,96.15,2022-10-26 16:10:47.812500
966,98.81,2022-10-26 16:10:47.828125
967,98.17,2022-10-26 16:10:47.843750
968,96.07,2022-10-26 16:10:47.859375
969,93.79,2022-10-26 16:10:47.875000
970,92.38,2022-10-26 16:10:47.890625
971,91.88,2022-10-26 16:10:47.906250
972,90.58,2022-10-26 16:10:47.921875
973,84.8,2022-10-26 16:10:47.937500
974,70.33,2022-10-26 16:10:47.953125
975,45.4,2022-10-26 16:10:47.968750
976,12.33,2022-10-26 16:10:47.984375
977,-22.52,2022-10-26 16:10:48.000000
978,-51.5,2022-10-26 16:10:48.015625
979,-70.17,2022-10-26 16:10:48.031250
980,-80.02,2022-10-26 16:10:48.046875
981,-87.67,2022-10-26 16:10:48.062500
982,-101.64,2022-10-26 16:10:48.078125
983,-126.64,2022-10-26 16:10:48.093750
984,-159.89,2022-10-26 16:10:48.109375
985,-191.46,2022-10-26 16:10:48.125000
986,-208.59,2022-10-26 16:10:48.140625
987,-202.12,2022-10-26 16:10:48.156250
988,-170.67,2022-10-26 16:10:48.171875
989,-121.04,2022-10-26 16:10:48.187500
990,-64.85,2022-10-26 16:10:48.203125
991,-13.21,2022-10-26 16:10:48.218750
992,27.68,2022-10-26 16:10:48.234375
993,56.92,2022-10-26 16:10:48.250000
994,76.93,2022-10-26 16:10:48.265625
995,89.95,2022-10-26 16:10:48.281250
996,95.7,2022-10-26 16:10:48.296875
997,92.15,2022-10-26 16:10:48.312500
998,77.76,2022-10-26 16:10:48.328125
999,53.81,2022-10-26 16:10:48.343750
1000,25.48,2022-10-26 16:10:48.359375
1001,0.83,2022-10-26 16:10:48.375000
1002,-11.67,2022-10-26 16:10:48.390625
1003,-5.7,2022-10-26 16:10:48.406250
1004,20.95,2022-10-26 16:10:48.421875
1005,65.18,2022-10-26 16:10:48.437500
1006,119.17,2022-10-26 16:10:48.453125
1007,172.0,2022-10-26 16:10:48.468750
1008,213.02,2022-10-26 16:10:48.484375
1009,234.55,2022-10-26 16:10:48.500000
1010,233.96,2022-10-26 16:10:48.515625
1011,213.13,2022-10-26 16:10:48.531250
1012,177.47,2022-10-26 16:10:48.546875
1013,134.32,2022-10-26 16:10:48.562500
1014,91.1,2022-10-26 16:10:48.578125
1015,54.85,2022-10-26 16:10:48.593750
1016,30.37,2022-10-26 16:10:48.609375
1017,19.83,2022-10-26 16:10:48.625000
1018,21.55,2022-10-26 16:10:48.640625
1019,29.9,2022-10-26 16:10:48.656250
1020,37.57,2022-10-26 16:10:48.671875
1021,38.09,2022-10-26 16:10:48.687500
1022,28.31,2022-10-26 16:10:48.703125
1023,9.73,2022-10-26 16:10:48.718750
1024,-12.53,2022-10-26 16:10:48.734375
1025,-32.88,2022-10-26 16:10:48.750000
1026,-48.28,2022-10-26 16:10:48.765625
1027,-59.67,2022-10-26 16:10:48.781250
1028,-70.09,2022-10-26 16:10:48.796875
1029,-81.82,2022-10-26 16:10:48.812500
1030,-93.04,2022-10-26 16:10:48.828125
1031,-98.15,2022-10-26 16:10:48.843750
1032,-90.9,2022-10-26 16:10:48.859375
1033,-69.08,2022-10-26 16:10:48.875000
1034,-37.59,2022-10-26 16:10:48.890625
1035,-7.04,2022-10-26 16:10:48.906250
1036,11.27,2022-10-26 16:10:48.921875
1037,11.81,2022-10-26 16:10:48.937500
1038,-2.18,2022-10-26 16:10:48.953125
1039,-21.65,2022-10-26 16:10:48.968750
1040,-37.28,2022-10-26 16:10:48.984375
1041,-45.42,2022-10-26 16:10:49.000000
1042,-49.27,2022-10-26 16:10:49.015625
1043,-55.28,2022-10-26 16:10:49.031250
1044,-66.71,2022-10-26 16:10:49.046875
1045,-80.15,2022-10-26 16:10:49.062500
1046,-87.76,2022-10-26 16:10:49.078125
1047,-82.07,2022-10-26 16:10:49.093750
1048,-61.86,2022-10-26 16:10:49.109375
1049,-32.37,2022-10-26 16:10:49.125000
1050,-1.9,2022-10-26 16:10:49.140625
1051,23.23,2022-10-26 16:10:49.156250
1052,41.08,2022-10-26 16:10:49.171875
1053,52.8,2022-10-26 16:10:49.187500
1054,59.23,2022-10-26 16:10:49.203125
1055,58.63,2022-10-26 16:10:49.218750
1056,47.67,2022-10-26 16:10:49.234375
1057,25.37,2022-10-26 16:10:49.250000
1058,-4.0,2022-10-26 16:10:49.265625
1059,-31.46,2022-10-26 16:10:49.281250
1060,-47.13,2022-10-26 16:10:49.296875
1061,-46.41,2022-10-26 16:10:49.312500
1062,-32.21,2022-10-26 16:10:49.328125
1063,-12.31,2022-10-26 16:10:49.343750
1064,5.66,2022-10-26 16:10:49.359375
1065,19.53,2022-10-26 16:10:49.375000
1066,33.31,2022-10-26 16:10:49.390625
1067,53.37,2022-10-26 16:10:49.406250
1068,82.09,2022-10-26 16:10:49.421875
1069,114.71,2022-10-26 16:10:49.437500
1070,140.22,2022-10-26 16:10:49.453125
1071,146.71,2022-10-26 16:10:49.468750
1072,128.36,2022-10-26 16:10:49.484375
1073,89.23,2022-10-26 16:10:49.500000
1074,41.64,2022-10-26 16:10:49.515625
1075,0.37,2022-10-26 16:10:49.531250
1076,-24.36,2022-10-26 16:10:49.546875
1077,-30.23,2022-10-26 16:10:49.562500
1078,-22.38,2022-10-26 16:10:49.578125
1079,-8.56,2022-10-26 16:10:49.593750
1080,4.61,2022-10-26 16:10:49.609375
1081,13.89,2022-10-26 16:10:49.625000
1082,18.23,2022-10-26 16:10:49.640625
1083,17.26,2022-10-26 16:10:49.656250
1084,9.86,2022-10-26 16:10:49.671875
1085,-5.01,2022-10-26 16:10:49.687500
1086,-26.5,2022-10-26 16:10:49.703125
1087,-50.75,2022-10-26 16:10:49.718750
1088,-71.87,2022-10-26 16:10:49.734375
1089,-85.28,2022-10-26 16:10:49.750000
1090,-90.41,2022-10-26 16:10:49.765625
1091,-91.6,2022-10-26 16:10:49.781250
1092,-95.11,2022-10-26 16:10:49.796875
1093,-105.24,2022-10-26 16:10:49.812500
1094,-121.33,2022-10-26 16:10:49.828125
1095,-137.54,2022-10-26 16:10:49.843750
1096,-146.7,2022-10-26 16:10:49.859375
1097,-143.9,2022-10-26 16:10:49.875000
1098,-128.64,2022-10-26 16:10:49.890625
1099,-103.66,2022-10-26 16:10:49.906250
1100,-72.32,2022-10-26 16:10:49.921875
1101,-36.4,2022-10-26 16:10:49.937500
1102,2.82,2022-10-26 16:10:49.953125
1103,42.65,2022-10-26 16:10:49.968750
1104,77.11,2022-10-26 16:10:49.984375
1105,98.04,2022-10-26 16:10:50.000000
1106,98.41,2022-10-26 16:10:50.015625
1107,76.62,2022-10-26 16:10:50.031250
1108,38.16,2022-10-26 16:10:50.046875
1109,-5.81,2022-10-26 16:10:50.062500
1110,-43.89,2022-10-26 16:10:50.078125
1111,-68.88,2022-10-26 16:10:50.093750
1112,-80.61,2022-10-26 16:10:50.109375
1113,-84.58,2022-10-26 16:10:50.125000
1114,-88.04,2022-10-26 16:10:50.140625
1115,-95.2,2022-10-26 16:10:50.156250
1116,-104.69,2022-10-26 16:10:50.171875
1117,-109.93,2022-10-26 16:10:50.187500
1118,-103.04,2022-10-26 16:10:50.203125
1119,-79.16,2022-10-26 16:10:50.218750
1120,-39.91,2022-10-26 16:10:50.234375
1121,5.66,2022-10-26 16:10:50.250000
1122,43.65,2022-10-26 16:10:50.265625
1123,60.49,2022-10-26 16:10:50.281250
1124,49.06,2022-10-26 16:10:50.296875
1125,12.05,2022-10-26 16:10:50.312500
1126,-38.2,2022-10-26 16:10:50.328125
1127,-84.03,2022-10-26 16:10:50.343750
1128,-108.85,2022-10-26 16:10:50.359375
1129,-102.91,2022-10-26 16:10:50.375000
1130,-66.22,2022-10-26 16:10:50.390625
1131,-7.54,2022-10-26 16:10:50.406250
1132,59.7,2022-10-26 16:10:50.421875
1133,122.19,2022-10-26 16:10:50.437500
1134,170.01,2022-10-26 16:10:50.453125
1135,197.83,2022-10-26 16:10:50.468750
1136,204.19,2022-10-26 16:10:50.484375
1137,191.66,2022-10-26 16:10:50.500000
1138,166.18,2022-10-26 16:10:50.515625
1139,136.46,2022-10-26 16:10:50.531250
1140,112.49,2022-10-26 16:10:50.546875
1141,102.8,2022-10-26 16:10:50.562500
1142,110.61,2022-10-26 16:10:50.578125
1143,132.88,2022-10-26 16:10:50.593750
1144,161.12,2022-10-26 16:10:50.609375
1145,184.79,2022-10-26 16:10:50.625000
1146,195.31,2022-10-26 16:10:50.640625
1147,188.49,2022-10-26 16:10:50.656250
1148,165.13,2022-10-26 16:10:50.671875
1149,129.32,2022-10-26 16:10:50.687500
1150,86.79,2022-10-26 16:10:50.703125
1151,43.43,2022-10-26 16:10:50.718750
1152,5.48,2022-10-26 16:10:50.734375
1153,-20.4,2022-10-26 16:10:50.750000
1154,-28.37,2022-10-26 16:10:50.765625
1155,-15.58,2022-10-26 16:10:50.781250
1156,15.37,2022-10-26 16:10:50.796875
1157,56.02,2022-10-26 16:10:50.812500
1158,94.46,2022-10-26 16:10:50.828125
1159,119.58,2022-10-26 16:10:50.843750
1160,125.29,2022-10-26 16:10:50.859375
1161,112.77,2022-10-26 16:10:50.875000
1162,88.77,2022-10-26 16:10:50.890625
1163,62.72,2022-10-26 16:10:50.906250
1164,42.36,2022-10-26 16:10:50.921875
1165,30.82,2022-10-26 16:10:50.937500
1166,26.64,2022-10-26 16:10:50.953125
1167,24.91,2022-10-26 16:10:50.968750
1168,19.6,2022-10-26 16:10:50.984375
1169,6.09,2022-10-26 16:10:51.000000
1170,-17.28,2022-10-26 16:10:51.015625
1171,-49.35,2022-10-26 16:10:51.031250
1172,-86.66,2022-10-26 16:10:51.046875
1173,-123.73,2022-10-26 16:10:51.062500
1174,-154.69,2022-10-26 16:10:51.078125
1175,-174.26,2022-10-26 16:10:51.093750
1176,-179.27,2022-10-26 16:10:51.109375
1177,-169.73,2022-10-26 16:10:51.125000
1178,-148.8,2022-10-26 16:10:51.140625
1179,-122.03,2022-10-26 16:10:51.156250
1180,-95.48,2022-10-26 16:10:51.171875
1181,-74.34,2022-10-26 16:10:51.187500
1182,-61.65,2022-10-26 16:10:51.203125
1183,-58.73,2022-10-26 16:10:51.218750
1184,-64.89,2022-10-26 16:10:51.234375
1185,-78.13,2022-10-26 16:10:51.250000
1186,-95.07,2022-10-26 16:10:51.265625
1187,-110.06,2022-10-26 16:10:51.281250
1188,-116.01,2022-10-26 16:10:51.296875
1189,-106.46,2022-10-26 16:10:51.312500
1190,-78.21,2022-10-26 16:10:51.328125
1191,-33.94,2022-10-26 16:10:51.343750
1192,17.92,2022-10-26 16:10:51.359375
1193,66.43,2022-10-26 16:10:51.375000
1194,101.59,2022-10-26 16:10:51.390625
1195,117.68,2022-10-26 16:10:51.406250
1196,113.59,2022-10-26 16:10:51.421875
1197,90.84,2022-10-26 16:10:51.437500
1198,51.9,2022-10-26 16:10:51.453125
1199,-0.07,2022-10-26 16:10:51.468750
1200,-60.02,2022-10-26 16:10:51.484375
1201,-119.77,2022-10-26 16:10:51.500000
1202,-167.9,2022-10-26 16:10:51.515625
1203,-192.59,2022-10-26 16:10:51.531250
1204,-186.47,2022-10-26 16:10:51.546875
1205,-149.74,2022-10-26 16:10:51.562500
1206,-92.15,2022-10-26 16:10:51.578125
1207,-30.63,2022-10-26 16:10:51.593750
1208,16.03,2022-10-26 16:10:51.609375
1209,34.4,2022-10-26 16:10:51.625000
1210,21.26,2022-10-26 16:10:51.640625
1211,-14.73,2022-10-26 16:10:51.656250
1212,-56.62,2022-10-26 16:10:51.671875
1213,-86.58,2022-10-26 16:10:51.687500
1214,-93.57,2022-10-26 16:10:51.703125
1215,-78.48,2022-10-26 16:10:51.718750
1216,-52.08,2022-10-26 16:10:51.734375
1217,-29.38,2022-10-26 16:10:51.750000
1218,-21.69,2022-10-26 16:10:51.765625
1219,-30.92,2022-10-26 16:10:51.781250
1220,-49.05,2022-10-26 16:10:51.796875
1221,-62.88,2022-10-26 16:10:51.812500
1222,-60.07,2022-10-26 16:10:51.828125
1223,-35.03,2022-10-26 16:10:51.843750
1224,9.15,2022-10-26 16:10:51.859375
1225,62.81,2022-10-26 16:10:51.875000
1226,114.24,2022-10-26 16:10:51.890625
1227,154.76,2022-10-26 16:10:51.906250
1228,181.9,2022-10-26 16:10:51.921875
1229,198.88,2022-10-26 16:10:51.937500
1230,211.67,2022-10-26 16:10:51.953125
1231,225.81,2022-10-26 16:10:51.968750
1232,243.59,2022-10-26 16:10:51.984375
1233,263.89,2022-10-26 16:10:52.000000
1234,284.07,2022-10-26 16:10:52.015625
1235,301.39,2022-10-26 16:10:52.031250
1236,313.36,2022-10-26 16:10:52.046875
1237,317.47,2022-10-26 16:10:52.062500
1238,310.82,2022-10-26 16:10:52.078125
1239,290.42,2022-10-26 16:10:52.093750
1240,254.85,2022-10-26 16:10:52.109375
1241,206.18,2022-10-26 16:10:52.125000
1242,149.8,2022-10-26 16:10:52.140625
1243,92.67,2022-10-26 16:10:52.156250
1244,40.51,2022-10-26 16:10:52.171875
1245,-4.61,2022-10-26 16:10:52.187500
1246,-43.47,2022-10-26 16:10:52.203125
1247,-77.85,2022-10-26 16:10:52.218750
1248,-107.57,2022-10-26 16:10:52.234375
1249,-130.47,2022-10-26 16:10:52.250000
1250,-144.3,2022-10-26 16:10:52.265625
1251,-149.43,2022-10-26 16:10:52.281250
1252,-149.98,2022-10-26 16:10:52.296875
1253,-152.36,2022-10-26 16:10:52.312500
1254,-161.24,2022-10-26 16:10:52.328125
1255,-176.71,2022-10-26 16:10:52.343750
1256,-193.99,2022-10-26 16:10:52.359375
1257,-205.99,2022-10-26 16:10:52.375000
1258,-207.32,2022-10-26 16:10:52.390625
1259,-197.0,2022-10-26 16:10:52.406250
1260,-178.52,2022-10-26 16:10:52.421875
1261,-157.47,2022-10-26 16:10:52.437500
1262,-139.46,2022-10-26 16:10:52.453125
1263,-128.25,2022-10-26 16:10:52.468750
1264,-126.19,2022-10-26 16:10:52.484375
1265,-134.42,2022-10-26 16:10:52.500000
1266,-152.28,2022-10-26 16:10:52.515625
1267,-176.45,2022-10-26 16:10:52.531250
1268,-199.73,2022-10-26 16:10:52.546875
1269,-212.75,2022-10-26 16:10:52.562500
1270,-206.67,2022-10-26 16:10:52.578125
1271,-176.92,2022-10-26 16:10:52.593750
1272,-125.0,2022-10-26 16:10:52.609375
1273,-57.98,2022-10-26 16:10:52.625000
1274,14.03,2022-10-26 16:10:52.640625
1275,80.96,2022-10-26 16:10:52.656250
1276,135.05,2022-10-26 16:10:52.671875
1277,171.27,2022-10-26 16:10:52.687500
1278,187.74,2022-10-26 16:10:52.703125
1279,185.94,2022-10-26 16:10:52.718750
1280,170.33,2022-10-26 16:10:52.734375
1281,146.82,2022-10-26 16:10:52.750000
1282,121.04,2022-10-26 16:10:52.765625
1283,96.87,2022-10-26 16:10:52.781250
1284,76.01,2022-10-26 16:10:52.796875
1285,59.38,2022-10-26 16:10:52.812500
1286,49.04,2022-10-26 16:10:52.828125
1287,47.49,2022-10-26 16:10:52.843750
1288,55.81,2022-10-26 16:10:52.859375
1289,71.35,2022-10-26 16:10:52.875000
1290,87.24,2022-10-26 16:10:52.890625
1291,95.43,2022-10-26 16:10:52.906250
1292,90.66,2022-10-26 16:10:52.921875
1293,73.43,2022-10-26 16:10:52.937500
1294,49.0,2022-10-26 16:10:52.953125
1295,24.57,2022-10-26 16:10:52.968750
1296,4.86,2022-10-26 16:10:52.984375
1297,-9.02,2022-10-26 16:10:53.000000
1298,-18.14,2022-10-26 16:10:53.015625
1299,-24.23,2022-10-26 16:10:53.031250
1300,-27.34,2022-10-26 16:10:53.046875
1301,-26.59,2022-10-26 16:10:53.062500
1302,-22.35,2022-10-26 16:10:53.078125
1303,-16.76,2022-10-26 16:10:53.093750
1304,-12.65,2022-10-26 16:10:53.109375
1305,-12.02,2022-10-26 16:10:53.125000
1306,-14.83,2022-10-26 16:10:53.140625
1307,-19.22,2022-10-26 16:10:53.156250
1308,-23.26,2022-10-26 16:10:53.171875
1309,-26.32,2022-10-26 16:10:53.187500
1310,-28.36,2022-10-26 16:10:53.203125
1311,-28.91,2022-10-26 16:10:53.218750
1312,-25.99,2022-10-26 16:10:53.234375
1313,-17.23,2022-10-26 16:10:53.250000
1314,-1.91,2022-10-26 16:10:53.265625
1315,18.02,2022-10-26 16:10:53.281250
1316,38.43,2022-10-26 16:10:53.296875
1317,55.0,2022-10-26 16:10:53.312500
1318,65.89,2022-10-26 16:10:53.328125
1319,71.84,2022-10-26 16:10:53.343750
1320,74.56,2022-10-26 16:10:53.359375
1321,74.42,2022-10-26 16:10:53.375000
1322,69.46,2022-10-26 16:10:53.390625
1323,56.62,2022-10-26 16:10:53.406250
1324,34.61,2022-10-26 16:10:53.421875
1325,6.38,2022-10-26 16:10:53.437500
1326,-21.84,2022-10-26 16:10:53.453125
1327,-42.25,2022-10-26 16:10:53.468750
1328,-49.33,2022-10-26 16:10:53.484375
1329,-43.0,2022-10-26 16:10:53.500000
1330,-28.57,2022-10-26 16:10:53.515625
1331,-14.6,2022-10-26 16:10:53.531250
1332,-9.05,2022-10-26 16:10:53.546875
1333,-15.41,2022-10-26 16:10:53.562500
1334,-31.73,2022-10-26 16:10:53.578125
1335,-51.35,2022-10-26 16:10:53.593750
1336,-65.93,2022-10-26 16:10:53.609375
1337,-69.36,2022-10-26 16:10:53.625000
1338,-60.17,2022-10-26 16:10:53.640625
1339,-41.99,2022-10-26 16:10:53.656250
1340,-21.65,2022-10-26 16:10:53.671875
1341,-6.39,2022-10-26 16:10:53.687500
1342,-0.81,2022-10-26 16:10:53.703125
1343,-5.77,2022-10-26 16:10:53.718750
1344,-19.25,2022-10-26 16:10:53.734375
1345,-38.26,2022-10-26 16:10:53.750000
1346,-61.35,2022-10-26 16:10:53.765625
1347,-88.26,2022-10-26 16:10:53.781250
1348,-118.32,2022-10-26 16:10:53.796875
1349,-148.95,2022-10-26 16:10:53.812500
1350,-175.16,2022-10-26 16:10:53.828125
1351,-190.81,2022-10-26 16:10:53.843750
1352,-190.59,2022-10-26 16:10:53.859375
1353,-172.7,2022-10-26 16:10:53.875000
1354,-139.17,2022-10-26 16:10:53.890625
1355,-95.33,2022-10-26 16:10:53.906250
1356,-47.41,2022-10-26 16:10:53.921875
1357,-0.89,2022-10-26 16:10:53.937500
1358,39.66,2022-10-26 16:10:53.953125
1359,70.83,2022-10-26 16:10:53.968750
1360,90.0,2022-10-26 16:10:53.984375
1361,95.59,2022-10-26 16:10:54.000000
1362,88.62,2022-10-26 16:10:54.015625
1363,73.63,2022-10-26 16:10:54.031250
1364,58.35,2022-10-26 16:10:54.046875
1365,50.98,2022-10-26 16:10:54.062500
1366,56.57,2022-10-26 16:10:54.078125
1367,74.62,2022-10-26 16:10:54.093750
1368,98.73,2022-10-26 16:10:54.109375
1369,119.25,2022-10-26 16:10:54.125000
1370,127.54,2022-10-26 16:10:54.140625
1371,119.18,2022-10-26 16:10:54.156250
1372,95.73,2022-10-26 16:10:54.171875
1373,64.08,2022-10-26 16:10:54.187500
1374,33.18,2022-10-26 16:10:54.203125
1375,10.48,2022-10-26 16:10:54.218750
1376,-0.67,2022-10-26 16:10:54.234375
1377,-1.27,2022-10-26 16:10:54.250000
1378,4.1,2022-10-26 16:10:54.265625
1379,9.8,2022-10-26 16:10:54.281250
1380,11.64,2022-10-26 16:10:54.296875
1381,7.79,2022-10-26 16:10:54.312500
1382,-0.81,2022-10-26 16:10:54.328125
1383,-12.05,2022-10-26 16:10:54.343750
1384,-24.51,2022-10-26 16:10:54.359375
1385,-38.89,2022-10-26 16:10:54.375000
1386,-57.73,2022-10-26 16:10:54.390625
1387,-83.65,2022-10-26 16:10:54.406250
1388,-116.68,2022-10-26 16:10:54.421875
1389,-152.72,2022-10-26 16:10:54.437500
1390,-184.4,2022-10-26 16:10:54.453125
1391,-203.63,2022-10-26 16:10:54.468750
1392,-204.83,2022-10-26 16:10:54.484375
1393,-187.08,2022-10-26 16:10:54.500000
1394,-153.34,2022-10-26 16:10:54.515625
1395,-108.5,2022-10-26 16:10:54.531250
1396,-56.94,2022-10-26 16:10:54.546875
1397,-2.66,2022-10-26 16:10:54.562500
1398,50.42,2022-10-26 16:10:54.578125
1399,96.76,2022-10-26 16:10:54.593750
1400,129.28,2022-10-26 16:10:54.609375
1401,141.38,2022-10-26 16:10:54.625000
1402,130.44,2022-10-26 16:10:54.640625
1403,100.24,2022-10-26 16:10:54.656250
1404,60.11,2022-10-26 16:10:54.671875
1405,22.13,2022-10-26 16:10:54.687500
1406,-3.58,2022-10-26 16:10:54.703125
1407,-12.62,2022-10-26 16:10:54.718750
1408,-7.76,2022-10-26 16:10:54.734375
1409,3.46,2022-10-26 16:10:54.750000
1410,11.86,2022-10-26 16:10:54.765625
1411,11.11,2022-10-26 16:10:54.781250
1412,-0.26,2022-10-26 16:10:54.796875
1413,-19.11,2022-10-26 16:10:54.812500
1414,-38.87,2022-10-26 16:10:54.828125
1415,-52.56,2022-10-26 16:10:54.843750
1416,-55.78,2022-10-26 16:10:54.859375
1417,-47.81,2022-10-26 16:10:54.875000
1418,-31.64,2022-10-26 16:10:54.890625
1419,-12.35,2022-10-26 16:10:54.906250
1420,4.87,2022-10-26 16:10:54.921875
1421,16.91,2022-10-26 16:10:54.937500
1422,22.52,2022-10-26 16:10:54.953125
1423,22.44,2022-10-26 16:10:54.968750
1424,17.97,2022-10-26 16:10:54.984375
1425,10.47,2022-10-26 16:10:55.000000
1426,1.45,2022-10-26 16:10:55.015625
1427,-7.44,2022-10-26 16:10:55.031250
1428,-14.27,2022-10-26 16:10:55.046875
1429,-17.77,2022-10-26 16:10:55.062500
1430,-17.69,2022-10-26 16:10:55.078125
1431,-15.82,2022-10-26 16:10:55.093750
1432,-14.57,2022-10-26 16:10:55.109375
1433,-17.17,2022-10-26 16:10:55.125000
1434,-26.27,2022-10-26 16:10:55.140625
1435,-42.95,2022-10-26 16:10:55.156250
1436,-66.98,2022-10-26 16:10:55.171875
1437,-96.61,2022-10-26 16:10:55.187500
1438,-128.47,2022-10-26 16:10:55.203125
1439,-157.4,2022-10-26 16:10:55.218750
1440,-178.67,2022-10-26 16:10:55.234375
1441,-188.16,2022-10-26 16:10:55.250000
1442,-186.91,2022-10-26 16:10:55.265625
1443,-180.61,2022-10-26 16:10:55.281250
1444,-177.63,2022-10-26 16:10:55.296875
1445,-184.41,2022-10-26 16:10:55.312500
1446,-200.9,2022-10-26 16:10:55.328125
1447,-219.9,2022-10-26 16:10:55.343750
1448,-230.49,2022-10-26 16:10:55.359375
1449,-224.11,2022-10-26 16:10:55.375000
1450,-197.05,2022-10-26 16:10:55.390625
1451,-153.54,2022-10-26 16:10:55.406250
1452,-102.08,2022-10-26 16:10:55.421875
1453,-50.55,2022-10-26 16:10:55.437500
1454,-3.12,2022-10-26 16:10:55.453125
1455,40.75,2022-10-26 16:10:55.468750
1456,83.82,2022-10-26 16:10:55.484375
1457,132.23,2022-10-26 16:10:55.500000
1458,179.4,2022-10-26 16:10:55.515625
1459,221.94,2022-10-26 16:10:55.531250
1460,254.8,2022-10-26 16:10:55.546875
1461,274.9,2022-10-26 16:10:55.562500
1462,282.72,2022-10-26 16:10:55.578125
1463,281.65,2022-10-26 16:10:55.593750
1464,275.88,2022-10-26 16:10:55.609375
1465,267.55,2022-10-26 16:10:55.625000
1466,255.08,2022-10-26 16:10:55.640625
1467,233.59,2022-10-26 16:10:55.656250
1468,200.27,2022-10-26 16:10:55.671875
1469,155.67,2022-10-26 16:10:55.687500
1470,106.53,2022-10-26 16:10:55.703125
1471,63.77,2022-10-26 16:10:55.718750
1472,38.41,2022-10-26 16:10:55.734375
1473,37.1,2022-10-26 16:10:55.750000
1474,58.76,2022-10-26 16:10:55.765625
1475,94.84,2022-10-26 16:10:55.781250
1476,131.47,2022-10-26 16:10:55.796875
1477,155.35,2022-10-26 16:10:55.812500
1478,156.57,2022-10-26 16:10:55.828125
1479,132.21,2022-10-26 16:10:55.843750
1480,87.39,2022-10-26 16:10:55.859375
1481,33.91,2022-10-26 16:10:55.875000
1482,-14.62,2022-10-26 16:10:55.890625
1483,-48.88,2022-10-26 16:10:55.906250
1484,-67.56,2022-10-26 16:10:55.921875
1485,-77.2,2022-10-26 16:10:55.937500
1486,-86.94,2022-10-26 16:10:55.953125
1487,-103.78,2022-10-26 16:10:55.968750
1488,-128.11,2022-10-26 16:10:55.984375
1489,-153.44,2022-10-26 16:10:56.000000
1490,-170.75,2022-10-26 16:10:56.015625
1491,-173.91,2022-10-26 16:10:56.031250
1492,-163.24,2022-10-26 16:10:56.046875
1493,-144.21,2022-10-26 16:10:56.062500
1494,-123.17,2022-10-26 16:10:56.078125
1495,-103.25,2022-10-26 16:10:56.093750
1496,-83.86,2022-10-26 16:10:56.109375
1497,-63.12,2022-10-26 16:10:56.125000
1498,-42.1,2022-10-26 16:10:56.140625
1499,-25.87,2022-10-26 16:10:56.156250
1500,-20.58,2022-10-26 16:10:56.171875
1501,-28.57,2022-10-26 16:10:56.187500
1502,-43.86,2022-10-26 16:10:56.203125
1503,-54.19,2022-10-26 16:10:56.218750
1504,-47.13,2022-10-26 16:10:56.234375
1505,-17.85,2022-10-26 16:10:56.250000
1506,27.22,2022-10-26 16:10:56.265625
1507,73.51,2022-10-26 16:10:56.281250
1508,106.01,2022-10-26 16:10:56.296875
1509,117.22,2022-10-26 16:10:56.312500
1510,109.33,2022-10-26 16:10:56.328125
1511,91.03,2022-10-26 16:10:56.343750
1512,70.82,2022-10-26 16:10:56.359375
1513,53.05,2022-10-26 16:10:56.375000
1514,38.23,2022-10-26 16:10:56.390625
1515,26.1,2022-10-26 16:10:56.406250
1516,18.18,2022-10-26 16:10:56.421875
1517,17.3,2022-10-26 16:10:56.437500
1518,25.25,2022-10-26 16:10:56.453125
1519,39.62,2022-10-26 16:10:56.468750
1520,53.75,2022-10-26 16:10:56.484375
1521,59.71,2022-10-26 16:10:56.500000
1522,52.02,2022-10-26 16:10:56.515625
1523,31.37,2022-10-26 16:10:56.531250
1524,4.54,2022-10-26 16:10:56.546875
1525,-19.06,2022-10-26 16:10:56.562500
1526,-31.66,2022-10-26 16:10:56.578125
1527,-31.02,2022-10-26 16:10:56.593750
1528,-21.38,2022-10-26 16:10:56.609375
1529,-11.09,2022-10-26 16:10:56.625000
1530,-8.33,2022-10-26 16:10:56.640625
1531,-16.48,2022-10-26 16:10:56.656250
1532,-31.87,2022-10-26 16:10:56.671875
1533,-45.21,2022-10-26 16:10:56.687500
1534,-45.62,2022-10-26 16:10:56.703125
1535,-25.8,2022-10-26 16:10:56.718750
1536,15.06,2022-10-26 16:10:56.734375
1537,71.17,2022-10-26 16:10:56.750000
1538,132.37,2022-10-26 16:10:56.765625
1539,187.14,2022-10-26 16:10:56.781250
1540,225.31,2022-10-26 16:10:56.796875
1541,240.34,2022-10-26 16:10:56.812500
1542,230.61,2022-10-26 16:10:56.828125
1543,200.4,2022-10-26 16:10:56.843750
1544,159.67,2022-10-26 16:10:56.859375
1545,121.29,2022-10-26 16:10:56.875000
1546,96.15,2022-10-26 16:10:56.890625
1547,88.36,2022-10-26 16:10:56.906250
1548,93.28,2022-10-26 16:10:56.921875
1549,99.3,2022-10-26 16:10:56.937500
1550,93.66,2022-10-26 16:10:56.953125
1551,67.95,2022-10-26 16:10:56.968750
1552,21.82,2022-10-26 16:10:56.984375
1553,-36.72,2022-10-26 16:10:57.000000
1554,-95.17,2022-10-26 16:10:57.015625
1555,-141.11,2022-10-26 16:10:57.031250
1556,-165.63,2022-10-26 16:10:57.046875
1557,-166.26,2022-10-26 16:10:57.062500
1558,-146.36,2022-10-26 16:10:57.078125
1559,-113.3,2022-10-26 16:10:57.093750
1560,-75.18,2022-10-26 16:10:57.109375
1561,-38.78,2022-10-26 16:10:57.125000
1562,-8.26,2022-10-26 16:10:57.140625
1563,13.91,2022-10-26 16:10:57.156250
1564,25.86,2022-10-26 16:10:57.171875
1565,25.79,2022-10-26 16:10:57.187500
1566,12.81,2022-10-26 16:10:57.203125
1567,-12.04,2022-10-26 16:10:57.218750
1568,-44.53,2022-10-26 16:10:57.234375
1569,-78.14,2022-10-26 16:10:57.250000
1570,-106.4,2022-10-26 16:10:57.265625
1571,-125.48,2022-10-26 16:10:57.281250
1572,-136.02,2022-10-26 16:10:57.296875
1573,-141.72,2022-10-26 16:10:57.312500
1574,-146.71,2022-10-26 16:10:57.328125
1575,-153.63,2022-10-26 16:10:57.343750
1576,-162.54,2022-10-26 16:10:57.359375
1577,-171.92,2022-10-26 16:10:57.375000
1578,-180.36,2022-10-26 16:10:57.390625
1579,-187.05,2022-10-26 16:10:57.406250
1580,-191.26,2022-10-26 16:10:57.421875
1581,-192.43,2022-10-26 16:10:57.437500
1582,-190.12,2022-10-26 16:10:57.453125
1583,-185.83,2022-10-26 16:10:57.468750
1584,-183.53,2022-10-26 16:10:57.484375
1585,-188.3,2022-10-26 16:10:57.500000
1586,-203.63,2022-10-26 16:10:57.515625
1587,-228.63,2022-10-26 16:10:57.531250
1588,-256.92,2022-10-26 16:10:57.546875
1589,-278.64,2022-10-26 16:10:57.562500
1590,-284.56,2022-10-26 16:10:57.578125
1591,-269.71,2022-10-26 16:10:57.593750
1592,-234.4,2022-10-26 16:10:57.609375
1593,-183.36,2022-10-26 16:10:57.625000
1594,-123.3,2022-10-26 16:10:57.640625
1595,-61.71,2022-10-26 16:10:57.656250
1596,-6.11,2022-10-26 16:10:57.671875
1597,36.26,2022-10-26 16:10:57.687500
1598,59.93,2022-10-26 16:10:57.703125
1599,62.86,2022-10-26 16:10:57.718750
1600,49.03,2022-10-26 16:10:57.734375
1601,27.34,2022-10-26 16:10:57.750000
1602,8.5,2022-10-26 16:10:57.765625
1603,0.32,2022-10-26 16:10:57.781250
1604,4.62,2022-10-26 16:10:57.796875
1605,18.06,2022-10-26 16:10:57.812500
1606,35.39,2022-10-26 16:10:57.828125
1607,53.13,2022-10-26 16:10:57.843750
1608,72.04,2022-10-26 16:10:57.859375
1609,96.18,2022-10-26 16:10:57.875000
1610,129.54,2022-10-26 16:10:57.890625
1611,173.64,2022-10-26 16:10:57.906250
1612,226.07,2022-10-26 16:10:57.921875
1613,281.06,2022-10-26 16:10:57.937500
1614,331.85,2022-10-26 16:10:57.953125
1615,372.27,2022-10-26 16:10:57.968750
1616,398.16,2022-10-26 16:10:57.984375
1617,408.26,2022-10-26 16:10:58.000000
1618,404.05,2022-10-26 16:10:58.015625
1619,389.58,2022-10-26 16:10:58.031250
1620,369.82,2022-10-26 16:10:58.046875
1621,349.57,2022-10-26 16:10:58.062500
1622,332.16,2022-10-26 16:10:58.078125
1623,318.58,2022-10-26 16:10:58.093750
1624,307.63,2022-10-26 16:10:58.109375
1625,296.99,2022-10-26 16:10:58.125000
1626,283.94,2022-10-26 16:10:58.140625
1627,265.67,2022-10-26 16:10:58.156250
1628,239.62,2022-10-26 16:10:58.171875
1629,203.88,2022-10-26 16:10:58.187500
1630,158.38,2022-10-26 16:10:58.203125
1631,105.67,2022-10-26 16:10:58.218750
1632,50.78,2022-10-26 16:10:58.234375
1633,0.49,2022-10-26 16:10:58.250000
1634,-38.58,2022-10-26 16:10:58.265625
1635,-62.12,2022-10-26 16:10:58.281250
1636,-69.06,2022-10-26 16:10:58.296875
1637,-61.11,2022-10-26 16:10:58.312500
1638,-41.78,2022-10-26 16:10:58.328125
1639,-15.69,2022-10-26 16:10:58.343750
1640,12.74,2022-10-26 16:10:58.359375
1641,39.34,2022-10-26 16:10:58.375000
1642,61.23,2022-10-26 16:10:58.390625
1643,77.3,2022-10-26 16:10:58.406250
1644,88.32,2022-10-26 16:10:58.421875
1645,94.92,2022-10-26 16:10:58.437500
1646,96.5,2022-10-26 16:10:58.453125
1647,89.91,2022-10-26 16:10:58.468750
1648,70.3,2022-10-26 16:10:58.484375
1649,34.35,2022-10-26 16:10:58.500000
1650,-17.29,2022-10-26 16:10:58.515625
1651,-77.88,2022-10-26 16:10:58.531250
1652,-136.32,2022-10-26 16:10:58.546875
1653,-181.05,2022-10-26 16:10:58.562500
1654,-204.84,2022-10-26 16:10:58.578125
1655,-206.95,2022-10-26 16:10:58.593750
1656,-192.74,2022-10-26 16:10:58.609375
1657,-170.39,2022-10-26 16:10:58.625000
1658,-147.02,2022-10-26 16:10:58.640625
1659,-127.06,2022-10-26 16:10:58.656250
1660,-112.26,2022-10-26 16:10:58.671875
1661,-103.05,2022-10-26 16:10:58.687500
1662,-99.44,2022-10-26 16:10:58.703125
1663,-100.66,2022-10-26 16:10:58.718750
1664,-105.25,2022-10-26 16:10:58.734375
1665,-110.54,2022-10-26 16:10:58.750000
1666,-113.03,2022-10-26 16:10:58.765625
1667,-108.89,2022-10-26 16:10:58.781250
1668,-95.93,2022-10-26 16:10:58.796875
1669,-74.62,2022-10-26 16:10:58.812500
1670,-48.94,2022-10-26 16:10:58.828125
1671,-25.25,2022-10-26 16:10:58.843750
1672,-9.04,2022-10-26 16:10:58.859375
1673,-1.96,2022-10-26 16:10:58.875000
1674,-0.17,2022-10-26 16:10:58.890625
1675,3.54,2022-10-26 16:10:58.906250
1676,16.06,2022-10-26 16:10:58.921875
1677,39.35,2022-10-26 16:10:58.937500
1678,69.03,2022-10-26 16:10:58.953125
1679,95.92,2022-10-26 16:10:58.968750
1680,110.38,2022-10-26 16:10:58.984375
1681,107.76,2022-10-26 16:10:59.000000
1682,89.84,2022-10-26 16:10:59.015625
1683,63.2,2022-10-26 16:10:59.031250
1684,35.37,2022-10-26 16:10:59.046875
1685,11.63,2022-10-26 16:10:59.062500
1686,-6.27,2022-10-26 16:10:59.078125
1687,-18.41,2022-10-26 16:10:59.093750
1688,-24.94,2022-10-26 16:10:59.109375
1689,-25.63,2022-10-26 16:10:59.125000
1690,-20.0,2022-10-26 16:10:59.140625
1691,-9.37,2022-10-26 16:10:59.156250
1692,2.49,2022-10-26 16:10:59.171875
1693,10.12,2022-10-26 16:10:59.187500
1694,8.42,2022-10-26 16:10:59.203125
1695,-4.45,2022-10-26 16:10:59.218750
1696,-25.67,2022-10-26 16:10:59.234375
1697,-48.24,2022-10-26 16:10:59.250000
1698,-64.43,2022-10-26 16:10:59.265625
1699,-69.07,2022-10-26 16:10:59.281250
1700,-62.58,2022-10-26 16:10:59.296875
1701,-49.85,2022-10-26 16:10:59.312500
1702,-36.83,2022-10-26 16:10:59.328125
1703,-26.67,2022-10-26 16:10:59.343750
1704,-18.4,2022-10-26 16:10:59.359375
1705,-7.81,2022-10-26 16:10:59.375000
1706,8.1,2022-10-26 16:10:59.390625
1707,28.41,2022-10-26 16:10:59.406250
1708,47.16,2022-10-26 16:10:59.421875
1709,56.39,2022-10-26 16:10:59.437500
1710,51.29,2022-10-26 16:10:59.453125
1711,33.38,2022-10-26 16:10:59.468750
1712,10.35,2022-10-26 16:10:59.484375
1713,-7.25,2022-10-26 16:10:59.500000
1714,-10.89,2022-10-26 16:10:59.515625
1715,2.03,2022-10-26 16:10:59.531250
1716,27.73,2022-10-26 16:10:59.546875
1717,57.78,2022-10-26 16:10:59.562500
1718,82.48,2022-10-26 16:10:59.578125
1719,93.98,2022-10-26 16:10:59.593750
1720,89.25,2022-10-26 16:10:59.609375
1721,70.97,2022-10-26 16:10:59.625000
1722,47.04,2022-10-26 16:10:59.640625
1723,27.75,2022-10-26 16:10:59.656250
1724,21.02,2022-10-26 16:10:59.671875
1725,28.36,2022-10-26 16:10:59.687500
1726,43.55,2022-10-26 16:10:59.703125
1727,55.24,2022-10-26 16:10:59.718750
1728,52.66,2022-10-26 16:10:59.734375
1729,32.14,2022-10-26 16:10:59.750000
1730,-1.24,2022-10-26 16:10:59.765625
1731,-35.52,2022-10-26 16:10:59.781250
1732,-58.69,2022-10-26 16:10:59.796875
1733,-65.3,2022-10-26 16:10:59.812500
1734,-58.68,2022-10-26 16:10:59.828125
1735,-48.19,2022-10-26 16:10:59.843750
1736,-43.24,2022-10-26 16:10:59.859375
1737,-47.34,2022-10-26 16:10:59.875000
1738,-56.85,2022-10-26 16:10:59.890625
1739,-63.65,2022-10-26 16:10:59.906250
1740,-61.29,2022-10-26 16:10:59.921875
1741,-49.59,2022-10-26 16:10:59.937500
1742,-35.95,2022-10-26 16:10:59.953125
1743,-31.27,2022-10-26 16:10:59.968750
1744,-43.73,2022-10-26 16:10:59.984375
1745,-73.14,2022-10-26 16:11:00.000000
1746,-109.39,2022-10-26 16:11:00.015625
1747,-136.16,2022-10-26 16:11:00.031250
1748,-138.43,2022-10-26 16:11:00.046875
1749,-109.56,2022-10-26 16:11:00.062500
1750,-53.99,2022-10-26 16:11:00.078125
1751,14.4,2022-10-26 16:11:00.093750
1752,79.22,2022-10-26 16:11:00.109375
1753,128.03,2022-10-26 16:11:00.125000
1754,156.09,2022-10-26 16:11:00.140625
1755,166.28,2022-10-26 16:11:00.156250
1756,164.77,2022-10-26 16:11:00.171875
1757,156.85,2022-10-26 16:11:00.187500
1758,144.88,2022-10-26 16:11:00.203125
1759,128.59,2022-10-26 16:11:00.218750
1760,106.65,2022-10-26 16:11:00.234375
1761,79.36,2022-10-26 16:11:00.250000
1762,48.39,2022-10-26 16:11:00.265625
1763,16.7,2022-10-26 16:11:00.281250
1764,-12.98,2022-10-26 16:11:00.296875
1765,-39.0,2022-10-26 16:11:00.312500
1766,-60.52,2022-10-26 16:11:00.328125
1767,-77.23,2022-10-26 16:11:00.343750
1768,-88.67,2022-10-26 16:11:00.359375
1769,-94.07,2022-10-26 16:11:00.375000
1770,-92.83,2022-10-26 16:11:00.390625
1771,-85.11,2022-10-26 16:11:00.406250
1772,-73.11,2022-10-26 16:11:00.421875
1773,-61.09,2022-10-26 16:11:00.437500
1774,-54.68,2022-10-26 16:11:00.453125
1775,-57.61,2022-10-26 16:11:00.468750
1776,-69.73,2022-10-26 16:11:00.484375
1777,-86.37,2022-10-26 16:11:00.500000
1778,-100.02,2022-10-26 16:11:00.515625
1779,-103.61,2022-10-26 16:11:00.531250
1780,-93.75,2022-10-26 16:11:00.546875
1781,-72.22,2022-10-26 16:11:00.562500
1782,-44.92,2022-10-26 16:11:00.578125
1783,-19.31,2022-10-26 16:11:00.593750
1784,-1.09,2022-10-26 16:11:00.609375
1785,6.94,2022-10-26 16:11:00.625000
1786,5.1,2022-10-26 16:11:00.640625
1787,-3.67,2022-10-26 16:11:00.656250
1788,-15.36,2022-10-26 16:11:00.671875
1789,-25.3,2022-10-26 16:11:00.687500
1790,-29.0,2022-10-26 16:11:00.703125
1791,-23.08,2022-10-26 16:11:00.718750
1792,-7.17,2022-10-26 16:11:00.734375
1793,15.08,2022-10-26 16:11:00.750000
1794,36.54,2022-10-26 16:11:00.765625
1795,49.05,2022-10-26 16:11:00.781250
1796,46.62,2022-10-26 16:11:00.796875
1797,27.62,2022-10-26 16:11:00.812500
1798,-4.21,2022-10-26 16:11:00.828125
1799,-41.61,2022-10-26 16:11:00.843750
1800,-76.04,2022-10-26 16:11:00.859375
1801,-101.09,2022-10-26 16:11:00.875000
1802,-114.25,2022-10-26 16:11:00.890625
1803,-117.16,2022-10-26 16:11:00.906250
1804,-113.89,2022-10-26 16:11:00.921875
1805,-108.11,2022-10-26 16:11:00.937500
1806,-101.41,2022-10-26 16:11:00.953125
1807,-92.16,2022-10-26 16:11:00.968750
1808,-77.49,2022-10-26 16:11:00.984375
1809,-55.45,2022-10-26 16:11:01.000000
1810,-27.26,2022-10-26 16:11:01.015625
1811,1.76,2022-10-26 16:11:01.031250
1812,24.14,2022-10-26 16:11:01.046875
1813,34.42,2022-10-26 16:11:01.062500
1814,32.21,2022-10-26 16:11:01.078125
1815,23.76,2022-10-26 16:11:01.093750
1816,19.92,2022-10-26 16:11:01.109375
1817,30.89,2022-10-26 16:11:01.125000
1818,60.82,2022-10-26 16:11:01.140625
1819,105.51,2022-10-26 16:11:01.156250
1820,153.71,2022-10-26 16:11:01.171875
1821,192.34,2022-10-26 16:11:01.187500
1822,212.21,2022-10-26 16:11:01.203125
1823,211.06,2022-10-26 16:11:01.218750
1824,192.91,2022-10-26 16:11:01.234375
1825,164.68,2022-10-26 16:11:01.250000
1826,132.65,2022-10-26 16:11:01.265625
1827,101.02,2022-10-26 16:11:01.281250
1828,72.16,2022-10-26 16:11:01.296875
1829,48.29,2022-10-26 16:11:01.312500
1830,31.83,2022-10-26 16:11:01.328125
1831,23.76,2022-10-26 16:11:01.343750
1832,22.18,2022-10-26 16:11:01.359375
1833,20.81,2022-10-26 16:11:01.375000
1834,11.68,2022-10-26 16:11:01.390625
1835,-11.21,2022-10-26 16:11:01.406250
1836,-48.86,2022-10-26 16:11:01.421875
1837,-96.28,2022-10-26 16:11:01.437500
1838,-144.95,2022-10-26 16:11:01.453125
1839,-186.13,2022-10-26 16:11:01.468750
1840,-214.42,2022-10-26 16:11:01.484375
1841,-228.4,2022-10-26 16:11:01.500000
1842,-229.69,2022-10-26 16:11:01.515625
1843,-220.55,2022-10-26 16:11:01.531250
1844,-203.0,2022-10-26 16:11:01.546875
1845,-178.26,2022-10-26 16:11:01.562500
1846,-147.77,2022-10-26 16:11:01.578125
1847,-114.26,2022-10-26 16:11:01.593750
1848,-81.14,2022-10-26 16:11:01.609375
1849,-51.51,2022-10-26 16:11:01.625000
1850,-25.92,2022-10-26 16:11:01.640625
1851,-2.03,2022-10-26 16:11:01.656250
1852,24.39,2022-10-26 16:11:01.671875
1853,57.31,2022-10-26 16:11:01.687500
1854,97.75,2022-10-26 16:11:01.703125
1855,142.6,2022-10-26 16:11:01.718750
1856,185.42,2022-10-26 16:11:01.734375
1857,218.66,2022-10-26 16:11:01.750000
1858,235.94,2022-10-26 16:11:01.765625
1859,234.69,2022-10-26 16:11:01.781250
1860,215.47,2022-10-26 16:11:01.796875
1861,181.96,2022-10-26 16:11:01.812500
1862,139.31,2022-10-26 16:11:01.828125
1863,93.68,2022-10-26 16:11:01.843750
1864,51.7,2022-10-26 16:11:01.859375
1865,18.64,2022-10-26 16:11:01.875000
1866,-2.48,2022-10-26 16:11:01.890625
1867,-12.33,2022-10-26 16:11:01.906250
1868,-13.96,2022-10-26 16:11:01.921875
1869,-10.86,2022-10-26 16:11:01.937500
1870,-5.38,2022-10-26 16:11:01.953125
1871,1.86,2022-10-26 16:11:01.968750
1872,10.63,2022-10-26 16:11:01.984375
1873,19.2,2022-10-26 16:11:02.000000
1874,24.19,2022-10-26 16:11:02.015625
1875,22.15,2022-10-26 16:11:02.031250
1876,11.64,2022-10-26 16:11:02.046875
1877,-5.31,2022-10-26 16:11:02.062500
1878,-24.02,2022-10-26 16:11:02.078125
1879,-39.2,2022-10-26 16:11:02.093750
1880,-47.64,2022-10-26 16:11:02.109375
1881,-49.13,2022-10-26 16:11:02.125000
1882,-44.7,2022-10-26 16:11:02.140625
1883,-35.25,2022-10-26 16:11:02.156250
1884,-20.31,2022-10-26 16:11:02.171875
1885,0.97,2022-10-26 16:11:02.187500
1886,27.74,2022-10-26 16:11:02.203125
1887,56.02,2022-10-26 16:11:02.218750
1888,79.76,2022-10-26 16:11:02.234375
1889,93.35,2022-10-26 16:11:02.250000
1890,94.12,2022-10-26 16:11:02.265625
1891,84.05,2022-10-26 16:11:02.281250
1892,68.5,2022-10-26 16:11:02.296875
1893,54.9,2022-10-26 16:11:02.312500
1894,50.41,2022-10-26 16:11:02.328125
1895,59.54,2022-10-26 16:11:02.343750
1896,82.64,2022-10-26 16:11:02.359375
1897,114.54,2022-10-26 16:11:02.375000
1898,145.15,2022-10-26 16:11:02.390625
1899,161.58,2022-10-26 16:11:02.406250
1900,153.3,2022-10-26 16:11:02.421875
1901,116.28,2022-10-26 16:11:02.437500
1902,55.86,2022-10-26 16:11:02.453125
1903,-14.77,2022-10-26 16:11:02.468750
1904,-78.79,2022-10-26 16:11:02.484375
1905,-122.23,2022-10-26 16:11:02.500000
1906,-138.56,2022-10-26 16:11:02.515625
1907,-130.2,2022-10-26 16:11:02.531250
1908,-106.06,2022-10-26 16:11:02.546875
1909,-77.03,2022-10-26 16:11:02.562500
1910,-52.11,2022-10-26 16:11:02.578125
1911,-36.0,2022-10-26 16:11:02.593750
1912,-29.4,2022-10-26 16:11:02.609375
1913,-29.96,2022-10-26 16:11:02.625000
1914,-32.89,2022-10-26 16:11:02.640625
1915,-32.92,2022-10-26 16:11:02.656250
1916,-25.44,2022-10-26 16:11:02.671875
1917,-8.0,2022-10-26 16:11:02.687500
1918,18.69,2022-10-26 16:11:02.703125
1919,50.43,2022-10-26 16:11:02.718750
1920,80.93,2022-10-26 16:11:02.734375
1921,104.06,2022-10-26 16:11:02.750000
1922,115.56,2022-10-26 16:11:02.765625
1923,114.56,2022-10-26 16:11:02.781250
1924,102.55,2022-10-26 16:11:02.796875
1925,82.47,2022-10-26 16:11:02.812500
1926,57.17,2022-10-26 16:11:02.828125
1927,29.07,2022-10-26 16:11:02.843750
1928,0.68,2022-10-26 16:11:02.859375
1929,-24.72,2022-10-26 16:11:02.875000
1930,-42.64,2022-10-26 16:11:02.890625
1931,-48.98,2022-10-26 16:11:02.906250
1932,-41.75,2022-10-26 16:11:02.921875
1933,-22.74,2022-10-26 16:11:02.937500
1934,3.27,2022-10-26 16:11:02.953125
1935,29.79,2022-10-26 16:11:02.968750
1936,51.15,2022-10-26 16:11:02.984375
1937,64.78,2022-10-26 16:11:03.000000
1938,70.84,2022-10-26 16:11:03.015625
1939,70.99,2022-10-26 16:11:03.031250
1940,66.59,2022-10-26 16:11:03.046875
1941,57.72,2022-10-26 16:11:03.062500
1942,44.14,2022-10-26 16:11:03.078125
1943,26.59,2022-10-26 16:11:03.093750
1944,7.5,2022-10-26 16:11:03.109375
1945,-10.12,2022-10-26 16:11:03.125000
1946,-24.56,2022-10-26 16:11:03.140625
1947,-37.03,2022-10-26 16:11:03.156250
1948,-50.84,2022-10-26 16:11:03.171875
1949,-68.3,2022-10-26 16:11:03.187500
1950,-87.96,2022-10-26 16:11:03.203125
1951,-104.68,2022-10-26 16:11:03.218750
1952,-112.59,2022-10-26 16:11:03.234375
1953,-109.74,2022-10-26 16:11:03.250000
1954,-100.84,2022-10-26 16:11:03.265625
1955,-94.7,2022-10-26 16:11:03.281250
1956,-99.28,2022-10-26 16:11:03.296875
1957,-116.48,2022-10-26 16:11:03.312500
1958,-141.02,2022-10-26 16:11:03.328125
1959,-164.0,2022-10-26 16:11:03.343750
1960,-178.8,2022-10-26 16:11:03.359375
1961,-185.68,2022-10-26 16:11:03.375000
1962,-191.25,2022-10-26 16:11:03.390625
1963,-203.73,2022-10-26 16:11:03.406250
1964,-227.42,2022-10-26 16:11:03.421875
1965,-259.56,2022-10-26 16:11:03.437500
1966,-292.24,2022-10-26 16:11:03.453125
1967,-316.96,2022-10-26 16:11:03.468750
1968,-329.45,2022-10-26 16:11:03.484375
1969,-330.3,2022-10-26 16:11:03.500000
1970,-322.62,2022-10-26 16:11:03.515625
1971,-308.44,2022-10-26 16:11:03.531250
1972,-286.34,2022-10-26 16:11:03.546875
1973,-253.12,2022-10-26 16:11:03.562500
1974,-206.88,2022-10-26 16:11:03.578125
1975,-150.27,2022-10-26 16:11:03.593750
1976,-91.03,2022-10-26 16:11:03.609375
1977,-38.78,2022-10-26 16:11:03.625000
1978,-0.53,2022-10-26 16:11:03.640625
1979,23.38,2022-10-26 16:11:03.656250
1980,39.3,2022-10-26 16:11:03.671875
1981,57.1,2022-10-26 16:11:03.687500
1982,84.67,2022-10-26 16:11:03.703125
1983,123.52,2022-10-26 16:11:03.718750
1984,168.33,2022-10-26 16:11:03.734375
1985,209.75,2022-10-26 16:11:03.750000
1986,238.78,2022-10-26 16:11:03.765625
1987,251.25,2022-10-26 16:11:03.781250
1988,249.14,2022-10-26 16:11:03.796875
1989,239.2,2022-10-26 16:11:03.812500
1990,230.35,2022-10-26 16:11:03.828125
1991,229.42,2022-10-26 16:11:03.843750
1992,238.5,2022-10-26 16:11:03.859375
1993,254.04,2022-10-26 16:11:03.875000
1994,268.53,2022-10-26 16:11:03.890625
1995,273.94,2022-10-26 16:11:03.906250
1996,265.35,2022-10-26 16:11:03.921875
1997,242.91,2022-10-26 16:11:03.937500
1998,210.2,2022-10-26 16:11:03.953125
1999,171.79,2022-10-26 16:11:03.968750
2000,130.63,2022-10-26 16:11:03.984375
2001,88.03,2022-10-26 16:11:04.000000
2002,45.18,2022-10-26 16:11:04.015625
2003,4.63,2022-10-26 16:11:04.031250
2004,-29.74,2022-10-26 16:11:04.046875
2005,-54.74,2022-10-26 16:11:04.062500
2006,-70.03,2022-10-26 16:11:04.078125
2007,-78.31,2022-10-26 16:11:04.093750
2008,-83.09,2022-10-26 16:11:04.109375
2009,-85.39,2022-10-26 16:11:04.125000
2010,-82.27,2022-10-26 16:11:04.140625
2011,-68.69,2022-10-26 16:11:04.156250
2012,-41.59,2022-10-26 16:11:04.171875
2013,-3.19,2022-10-26 16:11:04.187500
2014,38.76,2022-10-26 16:11:04.203125
2015,74.07,2022-10-26 16:11:04.218750
2016,94.08,2022-10-26 16:11:04.234375
2017,94.82,2022-10-26 16:11:04.250000
2018,77.34,2022-10-26 16:11:04.265625
2019,46.67,2022-10-26 16:11:04.281250
2020,9.93,2022-10-26 16:11:04.296875
2021,-25.31,2022-10-26 16:11:04.312500
2022,-52.31,2022-10-26 16:11:04.328125
2023,-66.19,2022-10-26 16:11:04.343750
2024,-65.52,2022-10-26 16:11:04.359375
2025,-52.82,2022-10-26 16:11:04.375000
2026,-33.57,2022-10-26 16:11:04.390625
2027,-14.53,2022-10-26 16:11:04.406250
2028,-0.74,2022-10-26 16:11:04.421875
2029,5.91,2022-10-26 16:11:04.437500
2030,6.5,2022-10-26 16:11:04.453125
2031,3.74,2022-10-26 16:11:04.468750
2032,0.17,2022-10-26 16:11:04.484375
2033,-2.93,2022-10-26 16:11:04.500000
2034,-5.32,2022-10-26 16:11:04.515625
2035,-6.8,2022-10-26 16:11:04.531250
2036,-7.12,2022-10-26 16:11:04.546875
2037,-5.98,2022-10-26 16:11:04.562500
2038,-3.96,2022-10-26 16:11:04.578125
2039,-2.36,2022-10-26 16:11:04.593750
2040,-2.64,2022-10-26 16:11:04.609375
2041,-4.79,2022-10-26 16:11:04.625000
2042,-6.46,2022-10-26 16:11:04.640625
2043,-3.86,2022-10-26 16:11:04.656250
2044,6.38,2022-10-26 16:11:04.671875
2045,24.1,2022-10-26 16:11:04.687500
2046,44.47,2022-10-26 16:11:04.703125
2047,59.94,2022-10-26 16:11:04.718750
2048,63.56,2022-10-26 16:11:04.734375
2049,52.21,2022-10-26 16:11:04.750000
2050,28.21,2022-10-26 16:11:04.765625
2051,-2.08,2022-10-26 16:11:04.781250
2052,-31.46,2022-10-26 16:11:04.796875
2053,-55.23,2022-10-26 16:11:04.812500
2054,-72.87,2022-10-26 16:11:04.828125
2055,-86.88,2022-10-26 16:11:04.843750
2056,-101.25,2022-10-26 16:11:04.859375
2057,-118.46,2022-10-26 16:11:04.875000
2058,-137.82,2022-10-26 16:11:04.890625
2059,-156.63,2022-10-26 16:11:04.906250
2060,-171.43,2022-10-26 16:11:04.921875
2061,-180.28,2022-10-26 16:11:04.937500
2062,-184.43,2022-10-26 16:11:04.953125
2063,-187.31,2022-10-26 16:11:04.968750
2064,-192.24,2022-10-26 16:11:04.984375
2065,-199.78,2022-10-26 16:11:05.000000
2066,-207.06,2022-10-26 16:11:05.015625
2067,-209.01,2022-10-26 16:11:05.031250
2068,-201.02,2022-10-26 16:11:05.046875
2069,-182.33,2022-10-26 16:11:05.062500
2070,-156.33,2022-10-26 16:11:05.078125
2071,-128.44,2022-10-26 16:11:05.093750
2072,-103.05,2022-10-26 16:11:05.109375
2073,-80.26,2022-10-26 16:11:05.125000
2074,-56.83,2022-10-26 16:11:05.140625
2075,-29.02,2022-10-26 16:11:05.156250
2076,4.38,2022-10-26 16:11:05.171875
2077,40.55,2022-10-26 16:11:05.187500
2078,73.22,2022-10-26 16:11:05.203125
2079,95.88,2022-10-26 16:11:05.218750
2080,104.7,2022-10-26 16:11:05.234375
2081,99.83,2022-10-26 16:11:05.250000
2082,85.26,2022-10-26 16:11:05.265625
2083,68.01,2022-10-26 16:11:05.281250
2084,56.12,2022-10-26 16:11:05.296875
2085,56.13,2022-10-26 16:11:05.312500
2086,71.25,2022-10-26 16:11:05.328125
2087,100.35,2022-10-26 16:11:05.343750
2088,138.27,2022-10-26 16:11:05.359375
2089,177.9,2022-10-26 16:11:05.375000
2090,213.38,2022-10-26 16:11:05.390625
2091,241.81,2022-10-26 16:11:05.406250
2092,263.66,2022-10-26 16:11:05.421875
2093,281.15,2022-10-26 16:11:05.437500
2094,296.09,2022-10-26 16:11:05.453125
2095,308.14,2022-10-26 16:11:05.468750
2096,315.36,2022-10-26 16:11:05.484375
2097,315.59,2022-10-26 16:11:05.500000
2098,307.91,2022-10-26 16:11:05.515625
2099,292.03,2022-10-26 16:11:05.531250
2100,268.15,2022-10-26 16:11:05.546875
2101,235.99,2022-10-26 16:11:05.562500
2102,195.64,2022-10-26 16:11:05.578125
2103,149.31,2022-10-26 16:11:05.593750
2104,101.43,2022-10-26 16:11:05.609375
2105,57.76,2022-10-26 16:11:05.625000
2106,23.35,2022-10-26 16:11:05.640625
2107,0.18,2022-10-26 16:11:05.656250
2108,-13.15,2022-10-26 16:11:05.671875
2109,-18.84,2022-10-26 16:11:05.687500
2110,-18.24,2022-10-26 16:11:05.703125
2111,-10.94,2022-10-26 16:11:05.718750
2112,3.96,2022-10-26 16:11:05.734375
2113,25.56,2022-10-26 16:11:05.750000
2114,49.35,2022-10-26 16:11:05.765625
2115,68.57,2022-10-26 16:11:05.781250
2116,77.34,2022-10-26 16:11:05.796875
2117,73.11,2022-10-26 16:11:05.812500
2118,57.87,2022-10-26 16:11:05.828125
2119,36.1,2022-10-26 16:11:05.843750
2120,11.87,2022-10-26 16:11:05.859375
2121,-12.56,2022-10-26 16:11:05.875000
2122,-35.85,2022-10-26 16:11:05.890625
2123,-55.37,2022-10-26 16:11:05.906250
2124,-65.72,2022-10-26 16:11:05.921875
2125,-60.93,2022-10-26 16:11:05.937500
2126,-38.65,2022-10-26 16:11:05.953125
2127,-4.05,2022-10-26 16:11:05.968750
2128,30.41,2022-10-26 16:11:05.984375
2129,49.95,2022-10-26 16:11:06.000000
2130,45.39,2022-10-26 16:11:06.015625
2131,17.91,2022-10-26 16:11:06.031250
2132,-21.9,2022-10-26 16:11:06.046875
2133,-59.5,2022-10-26 16:11:06.062500
2134,-85.06,2022-10-26 16:11:06.078125
2135,-97.4,2022-10-26 16:11:06.093750
2136,-103.1,2022-10-26 16:11:06.109375
2137,-111.63,2022-10-26 16:11:06.125000
2138,-128.23,2022-10-26 16:11:06.140625
2139,-150.93,2022-10-26 16:11:06.156250
2140,-172.66,2022-10-26 16:11:06.171875
2141,-185.17,2022-10-26 16:11:06.187500
2142,-184.37,2022-10-26 16:11:06.203125
2143,-171.88,2022-10-26 16:11:06.218750
2144,-152.86,2022-10-26 16:11:06.234375
2145,-132.75,2022-10-26 16:11:06.250000
2146,-114.21,2022-10-26 16:11:06.265625
2147,-97.0,2022-10-26 16:11:06.281250
2148,-79.9,2022-10-26 16:11:06.296875
2149,-63.41,2022-10-26 16:11:06.312500
2150,-50.53,2022-10-26 16:11:06.328125
2151,-45.3,2022-10-26 16:11:06.343750
2152,-50.86,2022-10-26 16:11:06.359375
2153,-66.27,2022-10-26 16:11:06.375000
2154,-85.83,2022-10-26 16:11:06.390625
2155,-100.91,2022-10-26 16:11:06.406250
2156,-103.67,2022-10-26 16:11:06.421875
2157,-91.23,2022-10-26 16:11:06.437500
2158,-67.46,2022-10-26 16:11:06.453125
2159,-40.96,2022-10-26 16:11:06.468750
2160,-21.2,2022-10-26 16:11:06.484375
2161,-13.6,2022-10-26 16:11:06.500000
2162,-17.7,2022-10-26 16:11:06.515625
2163,-28.26,2022-10-26 16:11:06.531250
2164,-39.89,2022-10-26 16:11:06.546875
2165,-50.37,2022-10-26 16:11:06.562500
2166,-61.72,2022-10-26 16:11:06.578125
2167,-77.81,2022-10-26 16:11:06.593750
2168,-100.46,2022-10-26 16:11:06.609375
2169,-127.84,2022-10-26 16:11:06.625000
2170,-155.13,2022-10-26 16:11:06.640625
2171,-177.57,2022-10-26 16:11:06.656250
2172,-193.79,2022-10-26 16:11:06.671875
2173,-205.3,2022-10-26 16:11:06.687500
2174,-214.49,2022-10-26 16:11:06.703125
2175,-221.59,2022-10-26 16:11:06.718750
2176,-223.15,2022-10-26 16:11:06.734375
2177,-214.36,2022-10-26 16:11:06.750000
2178,-192.43,2022-10-26 16:11:06.765625
2179,-159.38,2022-10-26 16:11:06.781250
2180,-121.96,2022-10-26 16:11:06.796875
2181,-88.43,2022-10-26 16:11:06.812500
2182,-64.35,2022-10-26 16:11:06.828125
2183,-49.15,2022-10-26 16:11:06.843750
2184,-36.42,2022-10-26 16:11:06.859375
2185,-17.79,2022-10-26 16:11:06.875000
2186,11.81,2022-10-26 16:11:06.890625
2187,50.57,2022-10-26 16:11:06.906250
2188,90.63,2022-10-26 16:11:06.921875
2189,121.49,2022-10-26 16:11:06.937500
2190,135.8,2022-10-26 16:11:06.953125
2191,132.96,2022-10-26 16:11:06.968750
2192,118.3,2022-10-26 16:11:06.984375
2193,99.98,2022-10-26 16:11:07.000000
2194,84.56,2022-10-26 16:11:07.015625
2195,75.05,2022-10-26 16:11:07.031250
2196,71.89,2022-10-26 16:11:07.046875
2197,75.13,2022-10-26 16:11:07.062500
2198,84.78,2022-10-26 16:11:07.078125
2199,99.88,2022-10-26 16:11:07.093750
2200,116.96,2022-10-26 16:11:07.109375
2201,130.21,2022-10-26 16:11:07.125000
2202,134.44,2022-10-26 16:11:07.140625
2203,129.08,2022-10-26 16:11:07.156250
2204,118.98,2022-10-26 16:11:07.171875
2205,112.13,2022-10-26 16:11:07.187500
2206,114.83,2022-10-26 16:11:07.203125
2207,128.06,2022-10-26 16:11:07.218750
2208,147.59,2022-10-26 16:11:07.234375
2209,167.09,2022-10-26 16:11:07.250000
2210,182.21,2022-10-26 16:11:07.265625
2211,192.74,2022-10-26 16:11:07.281250
2212,202.36,2022-10-26 16:11:07.296875
2213,216.11,2022-10-26 16:11:07.312500
2214,237.29,2022-10-26 16:11:07.328125
2215,265.51,2022-10-26 16:11:07.343750
2216,296.4,2022-10-26 16:11:07.359375
2217,322.45,2022-10-26 16:11:07.375000
2218,335.3,2022-10-26 16:11:07.390625
2219,328.55,2022-10-26 16:11:07.406250
2220,301.02,2022-10-26 16:11:07.421875
2221,257.44,2022-10-26 16:11:07.437500
2222,207.19,2022-10-26 16:11:07.453125
2223,160.46,2022-10-26 16:11:07.468750
2224,123.79,2022-10-26 16:11:07.484375
2225,98.08,2022-10-26 16:11:07.500000
2226,79.93,2022-10-26 16:11:07.515625
2227,64.34,2022-10-26 16:11:07.531250
2228,47.04,2022-10-26 16:11:07.546875
2229,26.1,2022-10-26 16:11:07.562500
2230,0.93,2022-10-26 16:11:07.578125
2231,-28.54,2022-10-26 16:11:07.593750
2232,-60.81,2022-10-26 16:11:07.609375
2233,-92.49,2022-10-26 16:11:07.625000
2234,-118.1,2022-10-26 16:11:07.640625
2235,-132.53,2022-10-26 16:11:07.656250
2236,-133.76,2022-10-26 16:11:07.671875
2237,-124.32,2022-10-26 16:11:07.687500
2238,-110.34,2022-10-26 16:11:07.703125
2239,-98.55,2022-10-26 16:11:07.718750
2240,-92.78,2022-10-26 16:11:07.734375
2241,-92.57,2022-10-26 16:11:07.750000
2242,-94.78,2022-10-26 16:11:07.765625
2243,-96.32,2022-10-26 16:11:07.781250
2244,-95.65,2022-10-26 16:11:07.796875
2245,-93.43,2022-10-26 16:11:07.812500
2246,-91.43,2022-10-26 16:11:07.828125
2247,-90.11,2022-10-26 16:11:07.843750
2248,-88.57,2022-10-26 16:11:07.859375
2249,-85.3,2022-10-26 16:11:07.875000
2250,-79.11,2022-10-26 16:11:07.890625
2251,-70.61,2022-10-26 16:11:07.906250
2252,-61.54,2022-10-26 16:11:07.921875
2253,-53.88,2022-10-26 16:11:07.937500
2254,-48.72,2022-10-26 16:11:07.953125
2255,-45.46,2022-10-26 16:11:07.968750
2256,-42.22,2022-10-26 16:11:07.984375
2257,-37.22,2022-10-26 16:11:08.000000
2258,-29.37,2022-10-26 16:11:08.015625
2259,-19.39,2022-10-26 16:11:08.031250
2260,-10.36,2022-10-26 16:11:08.046875
2261,-7.31,2022-10-26 16:11:08.062500
2262,-15.62,2022-10-26 16:11:08.078125
2263,-39.01,2022-10-26 16:11:08.093750
2264,-76.93,2022-10-26 16:11:08.109375
2265,-123.58,2022-10-26 16:11:08.125000
2266,-167.96,2022-10-26 16:11:08.140625
2267,-197.48,2022-10-26 16:11:08.156250
2268,-202.07,2022-10-26 16:11:08.171875
2269,-179.12,2022-10-26 16:11:08.187500
2270,-135.79,2022-10-26 16:11:08.203125
2271,-87.31,2022-10-26 16:11:08.218750
2272,-51.09,2022-10-26 16:11:08.234375
2273,-39.17,2022-10-26 16:11:08.250000
2274,-52.58,2022-10-26 16:11:08.265625
2275,-81.3,2022-10-26 16:11:08.281250
2276,-108.77,2022-10-26 16:11:08.296875
2277,-120.26,2022-10-26 16:11:08.312500
2278,-110.5,2022-10-26 16:11:08.328125
2279,-85.75,2022-10-26 16:11:08.343750
2280,-60.83,2022-10-26 16:11:08.359375
2281,-52.11,2022-10-26 16:11:08.375000
2282,-69.31,2022-10-26 16:11:08.390625
2283,-111.62,2022-10-26 16:11:08.406250
2284,-168.32,2022-10-26 16:11:08.421875
2285,-223.21,2022-10-26 16:11:08.437500
2286,-261.57,2022-10-26 16:11:08.453125
2287,-274.55,2022-10-26 16:11:08.468750
2288,-260.26,2022-10-26 16:11:08.484375
2289,-221.74,2022-10-26 16:11:08.500000
2290,-164.1,2022-10-26 16:11:08.515625
2291,-92.63,2022-10-26 16:11:08.531250
2292,-12.93,2022-10-26 16:11:08.546875
2293,67.93,2022-10-26 16:11:08.562500
2294,140.69,2022-10-26 16:11:08.578125
2295,196.28,2022-10-26 16:11:08.593750
2296,229.56,2022-10-26 16:11:08.609375
2297,242.28,2022-10-26 16:11:08.625000
2298,243.83,2022-10-26 16:11:08.640625
2299,246.24,2022-10-26 16:11:08.656250
2300,258.23,2022-10-26 16:11:08.671875
2301,279.84,2022-10-26 16:11:08.687500
2302,302.25,2022-10-26 16:11:08.703125
2303,312.92,2022-10-26 16:11:08.718750
2304,302.64,2022-10-26 16:11:08.734375
2305,270.94,2022-10-26 16:11:08.750000
2306,225.91,2022-10-26 16:11:08.765625
2307,179.22,2022-10-26 16:11:08.781250
2308,140.2,2022-10-26 16:11:08.796875
2309,112.64,2022-10-26 16:11:08.812500
2310,95.29,2022-10-26 16:11:08.828125
2311,84.58,2022-10-26 16:11:08.843750
2312,77.75,2022-10-26 16:11:08.859375
2313,73.34,2022-10-26 16:11:08.875000
2314,69.9,2022-10-26 16:11:08.890625
2315,64.52,2022-10-26 16:11:08.906250
2316,52.28,2022-10-26 16:11:08.921875
2317,28.2,2022-10-26 16:11:08.937500
2318,-10.68,2022-10-26 16:11:08.953125
2319,-63.4,2022-10-26 16:11:08.968750
2320,-125.15,2022-10-26 16:11:08.984375
2321,-188.86,2022-10-26 16:11:09.000000
2322,-247.29,2022-10-26 16:11:09.015625
2323,-294.75,2022-10-26 16:11:09.031250
2324,-327.55,2022-10-26 16:11:09.046875
2325,-343.45,2022-10-26 16:11:09.062500
2326,-340.83,2022-10-26 16:11:09.078125
2327,-318.16,2022-10-26 16:11:09.093750
2328,-273.97,2022-10-26 16:11:09.109375
2329,-208.61,2022-10-26 16:11:09.125000
2330,-125.48,2022-10-26 16:11:09.140625
2331,-32.63,2022-10-26 16:11:09.156250
2332,57.84,2022-10-26 16:11:09.171875
2333,131.86,2022-10-26 16:11:09.187500
2334,176.96,2022-10-26 16:11:09.203125
2335,186.15,2022-10-26 16:11:09.218750
2336,159.57,2022-10-26 16:11:09.234375
2337,105.53,2022-10-26 16:11:09.250000
2338,38.46,2022-10-26 16:11:09.265625
2339,-24.4,2022-10-26 16:11:09.281250
2340,-67.73,2022-10-26 16:11:09.296875
2341,-83.1,2022-10-26 16:11:09.312500
2342,-71.41,2022-10-26 16:11:09.328125
2343,-42.58,2022-10-26 16:11:09.343750
2344,-10.8,2022-10-26 16:11:09.359375
2345,11.4,2022-10-26 16:11:09.375000
2346,17.73,2022-10-26 16:11:09.390625
2347,8.93,2022-10-26 16:11:09.406250
2348,-9.62,2022-10-26 16:11:09.421875
2349,-31.0,2022-10-26 16:11:09.437500
2350,-49.77,2022-10-26 16:11:09.453125
2351,-62.78,2022-10-26 16:11:09.468750
2352,-68.54,2022-10-26 16:11:09.484375
2353,-67.39,2022-10-26 16:11:09.500000
2354,-60.76,2022-10-26 16:11:09.515625
2355,-50.86,2022-10-26 16:11:09.531250
2356,-40.19,2022-10-26 16:11:09.546875
2357,-30.62,2022-10-26 16:11:09.562500
2358,-22.35,2022-10-26 16:11:09.578125
2359,-14.55,2022-10-26 16:11:09.593750
2360,-5.67,2022-10-26 16:11:09.609375
2361,5.45,2022-10-26 16:11:09.625000
2362,19.68,2022-10-26 16:11:09.640625
2363,37.88,2022-10-26 16:11:09.656250
2364,61.2,2022-10-26 16:11:09.671875
2365,90.36,2022-10-26 16:11:09.687500
2366,123.44,2022-10-26 16:11:09.703125
2367,156.0,2022-10-26 16:11:09.718750
2368,182.18,2022-10-26 16:11:09.734375
2369,198.37,2022-10-26 16:11:09.750000
2370,205.94,2022-10-26 16:11:09.765625
2371,211.05,2022-10-26 16:11:09.781250
2372,221.07,2022-10-26 16:11:09.796875
2373,240.36,2022-10-26 16:11:09.812500
2374,267.48,2022-10-26 16:11:09.828125
2375,295.97,2022-10-26 16:11:09.843750
2376,317.51,2022-10-26 16:11:09.859375
2377,325.73,2022-10-26 16:11:09.875000
2378,318.97,2022-10-26 16:11:09.890625
2379,300.19,2022-10-26 16:11:09.906250
2380,274.69,2022-10-26 16:11:09.921875
2381,247.0,2022-10-26 16:11:09.937500
2382,219.03,2022-10-26 16:11:09.953125
2383,190.34,2022-10-26 16:11:09.968750
2384,160.69,2022-10-26 16:11:09.984375
2385,131.63,2022-10-26 16:11:10.000000
2386,107.04,2022-10-26 16:11:10.015625
2387,91.62,2022-10-26 16:11:10.031250
2388,87.33,2022-10-26 16:11:10.046875
2389,91.48,2022-10-26 16:11:10.062500
2390,96.67,2022-10-26 16:11:10.078125
2391,93.0,2022-10-26 16:11:10.093750
2392,72.46,2022-10-26 16:11:10.109375
2393,32.44,2022-10-26 16:11:10.125000
2394,-22.61,2022-10-26 16:11:10.140625
2395,-82.38,2022-10-26 16:11:10.156250
2396,-134.36,2022-10-26 16:11:10.171875
2397,-168.02,2022-10-26 16:11:10.187500
2398,-178.36,2022-10-26 16:11:10.203125
2399,-167.54,2022-10-26 16:11:10.218750
2400,-144.48,2022-10-26 16:11:10.234375
2401,-122.28,2022-10-26 16:11:10.250000
2402,-114.11,2022-10-26 16:11:10.265625
2403,-128.11,2022-10-26 16:11:10.281250
2404,-164.31,2022-10-26 16:11:10.296875
2405,-214.6,2022-10-26 16:11:10.312500
2406,-266.53,2022-10-26 16:11:10.328125
2407,-308.09,2022-10-26 16:11:10.343750
2408,-331.98,2022-10-26 16:11:10.359375
2409,-336.95,2022-10-26 16:11:10.375000
2410,-326.4,2022-10-26 16:11:10.390625
2411,-305.52,2022-10-26 16:11:10.406250
2412,-278.64,2022-10-26 16:11:10.421875
2413,-249.14,2022-10-26 16:11:10.437500
2414,-219.54,2022-10-26 16:11:10.453125
2415,-192.42,2022-10-26 16:11:10.468750
2416,-170.16,2022-10-26 16:11:10.484375
2417,-154.66,2022-10-26 16:11:10.500000
2418,-146.68,2022-10-26 16:11:10.515625
2419,-144.3,2022-10-26 16:11:10.531250
2420,-143.83,2022-10-26 16:11:10.546875
2421,-140.74,2022-10-26 16:11:10.562500
2422,-131.47,2022-10-26 16:11:10.578125
2423,-115.63,2022-10-26 16:11:10.593750
2424,-96.07,2022-10-26 16:11:10.609375
2425,-77.87,2022-10-26 16:11:10.625000
2426,-66.13,2022-10-26 16:11:10.640625
2427,-63.4,2022-10-26 16:11:10.656250
2428,-68.86,2022-10-26 16:11:10.671875
2429,-79.72,2022-10-26 16:11:10.687500
2430,-93.48,2022-10-26 16:11:10.703125
2431,-109.35,2022-10-26 16:11:10.718750
2432,-128.5,2022-10-26 16:11:10.734375
2433,-150.7,2022-10-26 16:11:10.750000
2434,-172.39,2022-10-26 16:11:10.765625
2435,-186.5,2022-10-26 16:11:10.781250
2436,-185.2,2022-10-26 16:11:10.796875
2437,-165.17,2022-10-26 16:11:10.812500
2438,-130.9,2022-10-26 16:11:10.828125
2439,-93.8,2022-10-26 16:11:10.843750
2440,-66.61,2022-10-26 16:11:10.859375
2441,-56.53,2022-10-26 16:11:10.875000
2442,-60.79,2022-10-26 16:11:10.890625
2443,-67.95,2022-10-26 16:11:10.906250
2444,-64.47,2022-10-26 16:11:10.921875
2445,-42.21,2022-10-26 16:11:10.937500
2446,-3.06,2022-10-26 16:11:10.953125
2447,42.55,2022-10-26 16:11:10.968750
2448,82.4,2022-10-26 16:11:10.984375
2449,109.93,2022-10-26 16:11:11.000000
2450,126.96,2022-10-26 16:11:11.015625
2451,142.4,2022-10-26 16:11:11.031250
2452,165.64,2022-10-26 16:11:11.046875
2453,199.83,2022-10-26 16:11:11.062500
2454,240.53,2022-10-26 16:11:11.078125
2455,277.69,2022-10-26 16:11:11.093750
2456,302.04,2022-10-26 16:11:11.109375
2457,309.32,2022-10-26 16:11:11.125000
2458,301.81,2022-10-26 16:11:11.140625
2459,285.69,2022-10-26 16:11:11.156250
2460,267.29,2022-10-26 16:11:11.171875
2461,249.64,2022-10-26 16:11:11.187500
2462,231.84,2022-10-26 16:11:11.203125
2463,211.14,2022-10-26 16:11:11.218750
2464,184.44,2022-10-26 16:11:11.234375
2465,150.55,2022-10-26 16:11:11.250000
2466,110.52,2022-10-26 16:11:11.265625
2467,67.4,2022-10-26 16:11:11.281250
2468,24.74,2022-10-26 16:11:11.296875
2469,-14.32,2022-10-26 16:11:11.312500
2470,-47.95,2022-10-26 16:11:11.328125
2471,-75.07,2022-10-26 16:11:11.343750
2472,-94.3,2022-10-26 16:11:11.359375
2473,-103.74,2022-10-26 16:11:11.375000
2474,-101.43,2022-10-26 16:11:11.390625
2475,-87.11,2022-10-26 16:11:11.406250
2476,-64.1,2022-10-26 16:11:11.421875
2477,-39.34,2022-10-26 16:11:11.437500
2478,-21.73,2022-10-26 16:11:11.453125
2479,-17.67,2022-10-26 16:11:11.468750
2480,-27.39,2022-10-26 16:11:11.484375
2481,-44.24,2022-10-26 16:11:11.500000
2482,-58.17,2022-10-26 16:11:11.515625
2483,-61.17,2022-10-26 16:11:11.531250
2484,-51.49,2022-10-26 16:11:11.546875
2485,-34.31,2022-10-26 16:11:11.562500
2486,-18.18,2022-10-26 16:11:11.578125
2487,-9.96,2022-10-26 16:11:11.593750
2488,-10.24,2022-10-26 16:11:11.609375
2489,-14.15,2022-10-26 16:11:11.625000
2490,-14.54,2022-10-26 16:11:11.640625
2491,-6.84,2022-10-26 16:11:11.656250
2492,8.67,2022-10-26 16:11:11.671875
2493,26.93,2022-10-26 16:11:11.687500
2494,41.77,2022-10-26 16:11:11.703125
2495,48.73,2022-10-26 16:11:11.718750
2496,46.9,2022-10-26 16:11:11.734375
2497,38.34,2022-10-26 16:11:11.750000
2498,25.88,2022-10-26 16:11:11.765625
2499,11.15,2022-10-26 16:11:11.781250
2500,-7.0,2022-10-26 16:11:11.796875
2501,-31.21,2022-10-26 16:11:11.812500
2502,-64.06,2022-10-26 16:11:11.828125
2503,-105.8,2022-10-26 16:11:11.843750
2504,-152.58,2022-10-26 16:11:11.859375
2505,-196.09,2022-10-26 16:11:11.875000
2506,-225.72,2022-10-26 16:11:11.890625
2507,-233.18,2022-10-26 16:11:11.906250
2508,-216.19,2022-10-26 16:11:11.921875
2509,-179.96,2022-10-26 16:11:11.937500
2510,-135.7,2022-10-26 16:11:11.953125
2511,-96.21,2022-10-26 16:11:11.968750
2512,-70.94,2022-10-26 16:11:11.984375
2513,-62.9,2022-10-26 16:11:12.000000
2514,-68.43,2022-10-26 16:11:12.015625
2515,-79.62,2022-10-26 16:11:12.031250
2516,-88.21,2022-10-26 16:11:12.046875
2517,-87.7,2022-10-26 16:11:12.062500
2518,-74.52,2022-10-26 16:11:12.078125
2519,-48.04,2022-10-26 16:11:12.093750
2520,-8.81,2022-10-26 16:11:12.109375
2521,41.7,2022-10-26 16:11:12.125000
2522,100.57,2022-10-26 16:11:12.140625
2523,163.51,2022-10-26 16:11:12.156250
2524,224.69,2022-10-26 16:11:12.171875
2525,277.63,2022-10-26 16:11:12.187500
2526,317.52,2022-10-26 16:11:12.203125
2527,341.88,2022-10-26 16:11:12.218750
2528,350.37,2022-10-26 16:11:12.234375
2529,343.89,2022-10-26 16:11:12.250000
2530,323.32,2022-10-26 16:11:12.265625
2531,289.45,2022-10-26 16:11:12.281250
2532,242.84,2022-10-26 16:11:12.296875
2533,184.94,2022-10-26 16:11:12.312500
2534,119.58,2022-10-26 16:11:12.328125
2535,53.08,2022-10-26 16:11:12.343750
2536,-6.31,2022-10-26 16:11:12.359375
2537,-50.54,2022-10-26 16:11:12.375000
2538,-74.1,2022-10-26 16:11:12.390625
2539,-76.33,2022-10-26 16:11:12.406250
2540,-61.45,2022-10-26 16:11:12.421875
2541,-37.34,2022-10-26 16:11:12.437500
2542,-11.88,2022-10-26 16:11:12.453125
2543,9.82,2022-10-26 16:11:12.468750
2544,27.0,2022-10-26 16:11:12.484375
2545,42.29,2022-10-26 16:11:12.500000
2546,58.14,2022-10-26 16:11:12.515625
2547,74.46,2022-10-26 16:11:12.531250
2548,87.46,2022-10-26 16:11:12.546875
2549,92.4,2022-10-26 16:11:12.562500
2550,87.51,2022-10-26 16:11:12.578125
2551,76.13,2022-10-26 16:11:12.593750
2552,65.03,2022-10-26 16:11:12.609375
2553,60.02,2022-10-26 16:11:12.625000
2554,60.48,2022-10-26 16:11:12.640625
2555,58.41,2022-10-26 16:11:12.656250
2556,42.37,2022-10-26 16:11:12.671875
2557,3.77,2022-10-26 16:11:12.687500
2558,-56.69,2022-10-26 16:11:12.703125
2559,-127.96,2022-10-26 16:11:12.718750
2560,-193.36,2022-10-26 16:11:12.734375
2561,-238.35,2022-10-26 16:11:12.750000
2562,-257.22,2022-10-26 16:11:12.765625
2563,-254.51,2022-10-26 16:11:12.781250
2564,-241.62,2022-10-26 16:11:12.796875
2565,-230.95,2022-10-26 16:11:12.812500
2566,-230.81,2022-10-26 16:11:12.828125
2567,-243.81,2022-10-26 16:11:12.843750
2568,-267.93,2022-10-26 16:11:12.859375
2569,-299.23,2022-10-26 16:11:12.875000
2570,-333.5,2022-10-26 16:11:12.890625
2571,-366.87,2022-10-26 16:11:12.906250
2572,-395.0,2022-10-26 16:11:12.921875
2573,-413.37,2022-10-26 16:11:12.937500
2574,-417.21,2022-10-26 16:11:12.953125
2575,-403.86,2022-10-26 16:11:12.968750
2576,-374.45,2022-10-26 16:11:12.984375
2577,-334.47,2022-10-26 16:11:13.000000
2578,-292.25,2022-10-26 16:11:13.015625
2579,-256.33,2022-10-26 16:11:13.031250
2580,-233.25,2022-10-26 16:11:13.046875
2581,-226.01,2022-10-26 16:11:13.062500
2582,-233.92,2022-10-26 16:11:13.078125
2583,-253.11,2022-10-26 16:11:13.093750
2584,-277.78,2022-10-26 16:11:13.109375
2585,-301.05,2022-10-26 16:11:13.125000
2586,-316.63,2022-10-26 16:11:13.140625
2587,-320.09,2022-10-26 16:11:13.156250
2588,-309.64,2022-10-26 16:11:13.171875
2589,-286.85,2022-10-26 16:11:13.187500
2590,-256.13,2022-10-26 16:11:13.203125
2591,-223.29,2022-10-26 16:11:13.218750
2592,-193.41,2022-10-26 16:11:13.234375
2593,-169.4,2022-10-26 16:11:13.250000
2594,-151.3,2022-10-26 16:11:13.265625
2595,-137.13,2022-10-26 16:11:13.281250
2596,-124.48,2022-10-26 16:11:13.296875
2597,-111.82,2022-10-26 16:11:13.312500
2598,-99.01,2022-10-26 16:11:13.328125
2599,-86.48,2022-10-26 16:11:13.343750
2600,-74.51,2022-10-26 16:11:13.359375
2601,-63.04,2022-10-26 16:11:13.375000
2602,-51.82,2022-10-26 16:11:13.390625
2603,-40.71,2022-10-26 16:11:13.406250
2604,-30.05,2022-10-26 16:11:13.421875
2605,-20.77,2022-10-26 16:11:13.437500
2606,-13.98,2022-10-26 16:11:13.453125
2607,-10.64,2022-10-26 16:11:13.468750
2608,-11.19,2022-10-26 16:11:13.484375
2609,-15.54,2022-10-26 16:11:13.500000
2610,-23.08,2022-10-26 16:11:13.515625
2611,-32.91,2022-10-26 16:11:13.531250
2612,-43.98,2022-10-26 16:11:13.546875
2613,-55.26,2022-10-26 16:11:13.562500
2614,-65.76,2022-10-26 16:11:13.578125
2615,-74.42,2022-10-26 16:11:13.593750
2616,-80.16,2022-10-26 16:11:13.609375
2617,-81.99,2022-10-26 16:11:13.625000
2618,-79.05,2022-10-26 16:11:13.640625
2619,-70.86,2022-10-26 16:11:13.656250
2620,-57.49,2022-10-26 16:11:13.671875
2621,-39.49,2022-10-26 16:11:13.687500
2622,-17.94,2022-10-26 16:11:13.703125
2623,5.72,2022-10-26 16:11:13.718750
2624,30.08,2022-10-26 16:11:13.734375
2625,53.82,2022-10-26 16:11:13.750000
2626,75.98,2022-10-26 16:11:13.765625
2627,95.81,2022-10-26 16:11:13.781250
2628,112.72,2022-10-26 16:11:13.796875
2629,126.29,2022-10-26 16:11:13.812500
2630,136.1,2022-10-26 16:11:13.828125
2631,141.93,2022-10-26 16:11:13.843750
2632,143.9,2022-10-26 16:11:13.859375
2633,142.54,2022-10-26 16:11:13.875000
2634,138.68,2022-10-26 16:11:13.890625
2635,133.28,2022-10-26 16:11:13.906250
2636,127.09,2022-10-26 16:11:13.921875
2637,120.7,2022-10-26 16:11:13.937500
2638,114.43,2022-10-26 16:11:13.953125
2639,108.58,2022-10-26 16:11:13.968750
2640,103.74,2022-10-26 16:11:13.984375
2641,100.79,2022-10-26 16:11:14.000000
2642,100.93,2022-10-26 16:11:14.015625
2643,105.21,2022-10-26 16:11:14.031250
2644,114.35,2022-10-26 16:11:14.046875
2645,128.29,2022-10-26 16:11:14.062500
2646,146.05,2022-10-26 16:11:14.078125
2647,166.06,2022-10-26 16:11:14.093750
2648,186.76,2022-10-26 16:11:14.109375
2649,207.01,2022-10-26 16:11:14.125000
2650,226.18,2022-10-26 16:11:14.140625
2651,244.26,2022-10-26 16:11:14.156250
2652,261.0,2022-10-26 16:11:14.171875
2653,275.77,2022-10-26 16:11:14.187500
2654,287.74,2022-10-26 16:11:14.203125
2655,296.13,2022-10-26 16:11:14.218750
2656,301.49,2022-10-26 16:11:14.234375
2657,305.28,2022-10-26 16:11:14.250000
2658,309.05,2022-10-26 16:11:14.265625
2659,312.72,2022-10-26 16:11:14.281250
2660,313.56,2022-10-26 16:11:14.296875
2661,306.91,2022-10-26 16:11:14.312500
2662,288.66,2022-10-26 16:11:14.328125
2663,258.11,2022-10-26 16:11:14.343750
2664,218.94,2022-10-26 16:11:14.359375
2665,177.81,2022-10-26 16:11:14.375000
2666,140.45,2022-10-26 16:11:14.390625
2667,108.83,2022-10-26 16:11:14.406250
2668,80.81,2022-10-26 16:11:14.421875
2669,52.87,2022-10-26 16:11:14.437500
2670,24.1,2022-10-26 16:11:14.453125
2671,-1.76,2022-10-26 16:11:14.468750
2672,-16.97,2022-10-26 16:11:14.484375
2673,-14.18,2022-10-26 16:11:14.500000
2674,9.28,2022-10-26 16:11:14.515625
2675,50.11,2022-10-26 16:11:14.531250
2676,100.64,2022-10-26 16:11:14.546875
2677,153.01,2022-10-26 16:11:14.562500
2678,202.32,2022-10-26 16:11:14.578125
2679,246.77,2022-10-26 16:11:14.593750
2680,285.88,2022-10-26 16:11:14.609375
2681,318.35,2022-10-26 16:11:14.625000
2682,340.69,2022-10-26 16:11:14.640625
2683,349.32,2022-10-26 16:11:14.656250
2684,342.6,2022-10-26 16:11:14.671875
2685,323.34,2022-10-26 16:11:14.687500
2686,298.51,2022-10-26 16:11:14.703125
2687,275.97,2022-10-26 16:11:14.718750
2688,261.84,2022-10-26 16:11:14.734375
2689,257.37,2022-10-26 16:11:14.750000
2690,259.08,2022-10-26 16:11:14.765625
2691,260.62,2022-10-26 16:11:14.781250
2692,256.12,2022-10-26 16:11:14.796875
2693,243.06,2022-10-26 16:11:14.812500
2694,222.78,2022-10-26 16:11:14.828125
2695,199.43,2022-10-26 16:11:14.843750
2696,177.52,2022-10-26 16:11:14.859375
2697,159.53,2022-10-26 16:11:14.875000
2698,144.53,2022-10-26 16:11:14.890625
2699,128.85,2022-10-26 16:11:14.906250
2700,108.72,2022-10-26 16:11:14.921875
2701,83.11,2022-10-26 16:11:14.937500
2702,55.31,2022-10-26 16:11:14.953125
2703,31.89,2022-10-26 16:11:14.968750
2704,20.3,2022-10-26 16:11:14.984375
2705,23.98,2022-10-26 16:11:15.000000
2706,39.47,2022-10-26 16:11:15.015625
2707,56.65,2022-10-26 16:11:15.031250
2708,62.45,2022-10-26 16:11:15.046875
2709,47.78,2022-10-26 16:11:15.062500
2710,13.15,2022-10-26 16:11:15.078125
2711,-30.32,2022-10-26 16:11:15.093750
2712,-65.36,2022-10-26 16:11:15.109375
2713,-76.22,2022-10-26 16:11:15.125000
2714,-56.32,2022-10-26 16:11:15.140625
2715,-10.95,2022-10-26 16:11:15.156250
2716,45.04,2022-10-26 16:11:15.171875
2717,94.41,2022-10-26 16:11:15.187500
2718,124.0,2022-10-26 16:11:15.203125
2719,127.72,2022-10-26 16:11:15.218750
2720,107.01,2022-10-26 16:11:15.234375
2721,67.92,2022-10-26 16:11:15.250000
2722,18.91,2022-10-26 16:11:15.265625
2723,-30.74,2022-10-26 16:11:15.281250
2724,-72.74,2022-10-26 16:11:15.296875
2725,-101.0,2022-10-26 16:11:15.312500
2726,-114.44,2022-10-26 16:11:15.328125
2727,-117.15,2022-10-26 16:11:15.343750
2728,-116.96,2022-10-26 16:11:15.359375
2729,-121.54,2022-10-26 16:11:15.375000
2730,-134.97,2022-10-26 16:11:15.390625
2731,-156.22,2022-10-26 16:11:15.406250
2732,-180.69,2022-10-26 16:11:15.421875
2733,-203.48,2022-10-26 16:11:15.437500
2734,-221.55,2022-10-26 16:11:15.453125
2735,-234.72,2022-10-26 16:11:15.468750
2736,-243.41,2022-10-26 16:11:15.484375
2737,-247.47,2022-10-26 16:11:15.500000
2738,-245.78,2022-10-26 16:11:15.515625
2739,-236.81,2022-10-26 16:11:15.531250
2740,-220.12,2022-10-26 16:11:15.546875
2741,-196.61,2022-10-26 16:11:15.562500
2742,-167.71,2022-10-26 16:11:15.578125
2743,-134.31,2022-10-26 16:11:15.593750
2744,-96.82,2022-10-26 16:11:15.609375
2745,-55.5,2022-10-26 16:11:15.625000
2746,-11.32,2022-10-26 16:11:15.640625
2747,33.12,2022-10-26 16:11:15.656250
2748,73.79,2022-10-26 16:11:15.671875
2749,105.94,2022-10-26 16:11:15.687500
2750,125.54,2022-10-26 16:11:15.703125
2751,130.43,2022-10-26 16:11:15.718750
2752,121.32,2022-10-26 16:11:15.734375
2753,101.63,2022-10-26 16:11:15.750000
2754,76.94,2022-10-26 16:11:15.765625
2755,53.83,2022-10-26 16:11:15.781250
2756,38.09,2022-10-26 16:11:15.796875
2757,33.11,2022-10-26 16:11:15.812500
2758,37.95,2022-10-26 16:11:15.828125
2759,47.61,2022-10-26 16:11:15.843750
2760,53.97,2022-10-26 16:11:15.859375
2761,50.29,2022-10-26 16:11:15.875000
2762,34.09,2022-10-26 16:11:15.890625
2763,8.78,2022-10-26 16:11:15.906250
2764,-17.81,2022-10-26 16:11:15.921875
2765,-37.94,2022-10-26 16:11:15.937500
2766,-47.75,2022-10-26 16:11:15.953125
2767,-49.29,2022-10-26 16:11:15.968750
2768,-48.32,2022-10-26 16:11:15.984375
2769,-50.64,2022-10-26 16:11:16.000000
2770,-58.75,2022-10-26 16:11:16.015625
2771,-71.24,2022-10-26 16:11:16.031250
2772,-84.5,2022-10-26 16:11:16.046875
2773,-95.52,2022-10-26 16:11:16.062500
2774,-102.68,2022-10-26 16:11:16.078125
2775,-104.4,2022-10-26 16:11:16.093750
2776,-97.99,2022-10-26 16:11:16.109375
2777,-80.27,2022-10-26 16:11:16.125000
2778,-49.57,2022-10-26 16:11:16.140625
2779,-8.74,2022-10-26 16:11:16.156250
2780,34.67,2022-10-26 16:11:16.171875
2781,71.52,2022-10-26 16:11:16.187500
2782,95.95,2022-10-26 16:11:16.203125
2783,109.37,2022-10-26 16:11:16.218750
2784,119.39,2022-10-26 16:11:16.234375
2785,135.33,2022-10-26 16:11:16.250000
2786,162.4,2022-10-26 16:11:16.265625
2787,197.63,2022-10-26 16:11:16.281250
2788,230.83,2022-10-26 16:11:16.296875
2789,248.89,2022-10-26 16:11:16.312500
2790,242.3,2022-10-26 16:11:16.328125
2791,209.74,2022-10-26 16:11:16.343750
2792,158.29,2022-10-26 16:11:16.359375
2793,101.08,2022-10-26 16:11:16.375000
2794,51.81,2022-10-26 16:11:16.390625
2795,19.46,2022-10-26 16:11:16.406250
2796,5.11,2022-10-26 16:11:16.421875
2797,3.35,2022-10-26 16:11:16.437500
2798,5.69,2022-10-26 16:11:16.453125
2799,5.32,2022-10-26 16:11:16.468750
2800,0.2,2022-10-26 16:11:16.484375
2801,-7.87,2022-10-26 16:11:16.500000
2802,-15.22,2022-10-26 16:11:16.515625
2803,-19.92,2022-10-26 16:11:16.531250
2804,-22.74,2022-10-26 16:11:16.546875
2805,-26.33,2022-10-26 16:11:16.562500
2806,-33.38,2022-10-26 16:11:16.578125
2807,-45.02,2022-10-26 16:11:16.593750
2808,-59.65,2022-10-26 16:11:16.609375
2809,-73.58,2022-10-26 16:11:16.625000
2810,-83.0,2022-10-26 16:11:16.640625
2811,-84.89,2022-10-26 16:11:16.656250
2812,-77.91,2022-10-26 16:11:16.671875
2813,-62.75,2022-10-26 16:11:16.687500
2814,-42.44,2022-10-26 16:11:16.703125
2815,-21.09,2022-10-26 16:11:16.718750
2816,-3.61,2022-10-26 16:11:16.734375
2817,6.32,2022-10-26 16:11:16.750000
2818,8.45,2022-10-26 16:11:16.765625
2819,6.24,2022-10-26 16:11:16.781250
2820,5.91,2022-10-26 16:11:16.796875
2821,12.72,2022-10-26 16:11:16.812500
2822,27.86,2022-10-26 16:11:16.828125
2823,47.49,2022-10-26 16:11:16.843750
2824,64.77,2022-10-26 16:11:16.859375
2825,73.73,2022-10-26 16:11:16.875000
2826,73.12,2022-10-26 16:11:16.890625
2827,67.18,2022-10-26 16:11:16.906250
2828,61.59,2022-10-26 16:11:16.921875
2829,59.17,2022-10-26 16:11:16.937500
2830,56.77,2022-10-26 16:11:16.953125
2831,46.4,2022-10-26 16:11:16.968750
2832,20.29,2022-10-26 16:11:16.984375
2833,-23.56,2022-10-26 16:11:17.000000
2834,-78.87,2022-10-26 16:11:17.015625
2835,-133.84,2022-10-26 16:11:17.031250
2836,-176.66,2022-10-26 16:11:17.046875
2837,-200.75,2022-10-26 16:11:17.062500
2838,-206.49,2022-10-26 16:11:17.078125
2839,-200.13,2022-10-26 16:11:17.093750
2840,-189.34,2022-10-26 16:11:17.109375
2841,-179.55,2022-10-26 16:11:17.125000
2842,-172.81,2022-10-26 16:11:17.140625
2843,-168.23,2022-10-26 16:11:17.156250
2844,-162.63,2022-10-26 16:11:17.171875
2845,-152.25,2022-10-26 16:11:17.187500
2846,-133.52,2022-10-26 16:11:17.203125
2847,-103.75,2022-10-26 16:11:17.218750
2848,-63.14,2022-10-26 16:11:17.234375
2849,-15.5,2022-10-26 16:11:17.250000
2850,32.39,2022-10-26 16:11:17.265625
2851,72.37,2022-10-26 16:11:17.281250
2852,97.86,2022-10-26 16:11:17.296875
2853,106.75,2022-10-26 16:11:17.312500
2854,101.69,2022-10-26 16:11:17.328125
2855,88.94,2022-10-26 16:11:17.343750
2856,76.2,2022-10-26 16:11:17.359375
2857,69.46,2022-10-26 16:11:17.375000
2858,71.3,2022-10-26 16:11:17.390625
2859,81.04,2022-10-26 16:11:17.406250
2860,95.6,2022-10-26 16:11:17.421875
2861,110.91,2022-10-26 16:11:17.437500
2862,123.76,2022-10-26 16:11:17.453125
2863,132.08,2022-10-26 16:11:17.468750
2864,135.01,2022-10-26 16:11:17.484375
2865,133.22,2022-10-26 16:11:17.500000
2866,128.26,2022-10-26 16:11:17.515625
2867,121.8,2022-10-26 16:11:17.531250
2868,114.93,2022-10-26 16:11:17.546875
2869,107.25,2022-10-26 16:11:17.562500
2870,97.63,2022-10-26 16:11:17.578125
2871,84.57,2022-10-26 16:11:17.593750
2872,67.31,2022-10-26 16:11:17.609375
2873,47.14,2022-10-26 16:11:17.625000
2874,27.41,2022-10-26 16:11:17.640625
2875,11.86,2022-10-26 16:11:17.656250
2876,3.61,2022-10-26 16:11:17.671875
2877,3.47,2022-10-26 16:11:17.687500
2878,9.66,2022-10-26 16:11:17.703125
2879,19.47,2022-10-26 16:11:17.718750
2880,29.85,2022-10-26 16:11:17.734375
2881,38.93,2022-10-26 16:11:17.750000
2882,46.27,2022-10-26 16:11:17.765625
2883,51.89,2022-10-26 16:11:17.781250
2884,54.6,2022-10-26 16:11:17.796875
2885,51.16,2022-10-26 16:11:17.812500
2886,36.47,2022-10-26 16:11:17.828125
2887,5.07,2022-10-26 16:11:17.843750
2888,-46.06,2022-10-26 16:11:17.859375
2889,-114.48,2022-10-26 16:11:17.875000
2890,-191.73,2022-10-26 16:11:17.890625
2891,-264.5,2022-10-26 16:11:17.906250
2892,-318.58,2022-10-26 16:11:17.921875
2893,-344.18,2022-10-26 16:11:17.937500
2894,-339.05,2022-10-26 16:11:17.953125
2895,-309.82,2022-10-26 16:11:17.968750
2896,-269.47,2022-10-26 16:11:17.984375
2897,-232.32,2022-10-26 16:11:18.000000
2898,-208.14,2022-10-26 16:11:18.015625
2899,-198.39,2022-10-26 16:11:18.031250
2900,-195.7,2022-10-26 16:11:18.046875
2901,-189.06,2022-10-26 16:11:18.062500
2902,-169.82,2022-10-26 16:11:18.078125
2903,-136.76,2022-10-26 16:11:18.093750
2904,-96.61,2022-10-26 16:11:18.109375
2905,-59.4,2022-10-26 16:11:18.125000
2906,-31.59,2022-10-26 16:11:18.140625
2907,-12.05,2022-10-26 16:11:18.156250
2908,7.05,2022-10-26 16:11:18.171875
2909,34.69,2022-10-26 16:11:18.187500
2910,74.07,2022-10-26 16:11:18.203125
2911,120.06,2022-10-26 16:11:18.218750
2912,161.59,2022-10-26 16:11:18.234375
2913,189.18,2022-10-26 16:11:18.250000
2914,201.15,2022-10-26 16:11:18.265625
2915,204.77,2022-10-26 16:11:18.281250
2916,212.06,2022-10-26 16:11:18.296875
2917,230.87,2022-10-26 16:11:18.312500
2918,259.01,2022-10-26 16:11:18.328125
2919,284.12,2022-10-26 16:11:18.343750
2920,290.24,2022-10-26 16:11:18.359375
2921,266.66,2022-10-26 16:11:18.375000
2922,213.88,2022-10-26 16:11:18.390625
2923,143.39,2022-10-26 16:11:18.406250
2924,71.46,2022-10-26 16:11:18.421875
2925,11.37,2022-10-26 16:11:18.437500
2926,-31.33,2022-10-26 16:11:18.453125
2927,-59.09,2022-10-26 16:11:18.468750
2928,-77.82,2022-10-26 16:11:18.484375
2929,-91.59,2022-10-26 16:11:18.500000
2930,-99.75,2022-10-26 16:11:18.515625
2931,-98.34,2022-10-26 16:11:18.531250
2932,-83.8,2022-10-26 16:11:18.546875
2933,-56.96,2022-10-26 16:11:18.562500
2934,-23.89,2022-10-26 16:11:18.578125
2935,6.06,2022-10-26 16:11:18.593750
2936,25.61,2022-10-26 16:11:18.609375
2937,32.63,2022-10-26 16:11:18.625000
2938,31.23,2022-10-26 16:11:18.640625
2939,28.01,2022-10-26 16:11:18.656250
2940,27.55,2022-10-26 16:11:18.671875
2941,29.49,2022-10-26 16:11:18.687500
2942,29.18,2022-10-26 16:11:18.703125
2943,21.85,2022-10-26 16:11:18.718750
2944,6.58,2022-10-26 16:11:18.734375
2945,-12.2,2022-10-26 16:11:18.750000
2946,-27.34,2022-10-26 16:11:18.765625
2947,-33.23,2022-10-26 16:11:18.781250
2948,-28.79,2022-10-26 16:11:18.796875
2949,-17.36,2022-10-26 16:11:18.812500
2950,-3.52,2022-10-26 16:11:18.828125
2951,9.13,2022-10-26 16:11:18.843750
2952,18.91,2022-10-26 16:11:18.859375
2953,23.81,2022-10-26 16:11:18.875000
2954,20.65,2022-10-26 16:11:18.890625
2955,5.83,2022-10-26 16:11:18.906250
2956,-22.31,2022-10-26 16:11:18.921875
2957,-60.82,2022-10-26 16:11:18.937500
2958,-101.35,2022-10-26 16:11:18.953125
2959,-132.93,2022-10-26 16:11:18.968750
2960,-146.13,2022-10-26 16:11:18.984375
2961,-136.21,2022-10-26 16:11:19.000000
2962,-104.21,2022-10-26 16:11:19.015625
2963,-55.87,2022-10-26 16:11:19.031250
2964,-0.41,2022-10-26 16:11:19.046875
2965,51.48,2022-10-26 16:11:19.062500
2966,89.29,2022-10-26 16:11:19.078125
2967,105.26,2022-10-26 16:11:19.093750
2968,97.76,2022-10-26 16:11:19.109375
2969,73.15,2022-10-26 16:11:19.125000
2970,44.6,2022-10-26 16:11:19.140625
2971,27.3,2022-10-26 16:11:19.156250
2972,32.03,2022-10-26 16:11:19.171875
2973,60.8,2022-10-26 16:11:19.187500
2974,105.66,2022-10-26 16:11:19.203125
2975,152.17,2022-10-26 16:11:19.218750
2976,185.56,2022-10-26 16:11:19.234375
2977,195.84,2022-10-26 16:11:19.250000
2978,180.64,2022-10-26 16:11:19.265625
2979,145.34,2022-10-26 16:11:19.281250
2980,99.62,2022-10-26 16:11:19.296875
2981,52.9,2022-10-26 16:11:19.312500
2982,10.99,2022-10-26 16:11:19.328125
2983,-25.27,2022-10-26 16:11:19.343750
2984,-58.68,2022-10-26 16:11:19.359375
2985,-91.71,2022-10-26 16:11:19.375000
2986,-123.16,2022-10-26 16:11:19.390625
2987,-147.11,2022-10-26 16:11:19.406250
2988,-155.93,2022-10-26 16:11:19.421875
2989,-145.13,2022-10-26 16:11:19.437500
2990,-117.46,2022-10-26 16:11:19.453125
2991,-82.65,2022-10-26 16:11:19.468750
2992,-53.49,2022-10-26 16:11:19.484375
2993,-39.75,2022-10-26 16:11:19.500000
2994,-43.62,2022-10-26 16:11:19.515625
2995,-60.12,2022-10-26 16:11:19.531250
2996,-81.29,2022-10-26 16:11:19.546875
2997,-100.95,2022-10-26 16:11:19.562500
2998,-117.13,2022-10-26 16:11:19.578125
2999,-131.17,2022-10-26 16:11:19.593750
3000,-144.66,2022-10-26 16:11:19.609375
3001,-155.9,2022-10-26 16:11:19.625000
3002,-160.16,2022-10-26 16:11:19.640625
3003,-152.08,2022-10-26 16:11:19.656250
3004,-129.96,2022-10-26 16:11:19.671875
3005,-97.67,2022-10-26 16:11:19.687500
3006,-63.42,2022-10-26 16:11:19.703125
3007,-35.53,2022-10-26 16:11:19.718750
3008,-17.11,2022-10-26 16:11:19.734375
3009,-3.98,2022-10-26 16:11:19.750000
3010,13.33,2022-10-26 16:11:19.765625
3011,43.72,2022-10-26 16:11:19.781250
3012,90.0,2022-10-26 16:11:19.796875
3013,146.88,2022-10-26 16:11:19.812500
3014,203.79,2022-10-26 16:11:19.828125
3015,250.96,2022-10-26 16:11:19.843750
3016,284.15,2022-10-26 16:11:19.859375
3017,305.81,2022-10-26 16:11:19.875000
3018,321.47,2022-10-26 16:11:19.890625
3019,335.57,2022-10-26 16:11:19.906250
3020,348.0,2022-10-26 16:11:19.921875
3021,355.06,2022-10-26 16:11:19.937500
3022,353.25,2022-10-26 16:11:19.953125
3023,341.89,2022-10-26 16:11:19.968750
3024,322.82,2022-10-26 16:11:19.984375
3025,298.07,2022-10-26 16:11:20.000000
3026,267.35,2022-10-26 16:11:20.015625
3027,228.14,2022-10-26 16:11:20.031250
3028,178.39,2022-10-26 16:11:20.046875
3029,119.31,2022-10-26 16:11:20.062500
3030,56.12,2022-10-26 16:11:20.078125
3031,-3.86,2022-10-26 16:11:20.093750
3032,-55.28,2022-10-26 16:11:20.109375
3033,-97.35,2022-10-26 16:11:20.125000
3034,-133.17,2022-10-26 16:11:20.140625
3035,-166.86,2022-10-26 16:11:20.156250
3036,-199.69,2022-10-26 16:11:20.171875
3037,-228.55,2022-10-26 16:11:20.187500
3038,-247.12,2022-10-26 16:11:20.203125
3039,-249.81,2022-10-26 16:11:20.218750
3040,-234.84,2022-10-26 16:11:20.234375
3041,-205.31,2022-10-26 16:11:20.250000
3042,-167.71,2022-10-26 16:11:20.265625
3043,-129.04,2022-10-26 16:11:20.281250
3044,-95.81,2022-10-26 16:11:20.296875
3045,-72.8,2022-10-26 16:11:20.312500
3046,-63.75,2022-10-26 16:11:20.328125
3047,-70.67,2022-10-26 16:11:20.343750
3048,-92.47,2022-10-26 16:11:20.359375
3049,-123.77,2022-10-26 16:11:20.375000
3050,-155.51,2022-10-26 16:11:20.390625
3051,-177.68,2022-10-26 16:11:20.406250
3052,-182.61,2022-10-26 16:11:20.421875
3053,-168.64,2022-10-26 16:11:20.437500
3054,-140.26,2022-10-26 16:11:20.453125
3055,-106.15,2022-10-26 16:11:20.468750
3056,-75.98,2022-10-26 16:11:20.484375
3057,-56.34,2022-10-26 16:11:20.500000
3058,-48.83,2022-10-26 16:11:20.515625
3059,-50.23,2022-10-26 16:11:20.531250
3060,-54.09,2022-10-26 16:11:20.546875
3061,-53.53,2022-10-26 16:11:20.562500
3062,-44.6,2022-10-26 16:11:20.578125
3063,-27.49,2022-10-26 16:11:20.593750
3064,-6.42,2022-10-26 16:11:20.609375
3065,13.21,2022-10-26 16:11:20.625000
3066,28.08,2022-10-26 16:11:20.640625
3067,38.01,2022-10-26 16:11:20.656250
3068,45.25,2022-10-26 16:11:20.671875
3069,51.01,2022-10-26 16:11:20.687500
3070,54.15,2022-10-26 16:11:20.703125
3071,51.58,2022-10-26 16:11:20.718750
3072,41.28,2022-10-26 16:11:20.734375
3073,25.26,2022-10-26 16:11:20.750000
3074,9.26,2022-10-26 16:11:20.765625
3075,-0.61,2022-10-26 16:11:20.781250
3076,-2.3,2022-10-26 16:11:20.796875
3077,0.74,2022-10-26 16:11:20.812500
3078,1.45,2022-10-26 16:11:20.828125
3079,-5.74,2022-10-26 16:11:20.843750
3080,-21.07,2022-10-26 16:11:20.859375
3081,-38.15,2022-10-26 16:11:20.875000
3082,-47.37,2022-10-26 16:11:20.890625
3083,-40.98,2022-10-26 16:11:20.906250
3084,-16.57,2022-10-26 16:11:20.921875
3085,21.69,2022-10-26 16:11:20.937500
3086,65.2,2022-10-26 16:11:20.953125
3087,103.95,2022-10-26 16:11:20.968750
3088,129.71,2022-10-26 16:11:20.984375
3089,138.07,2022-10-26 16:11:21.000000
3090,129.98,2022-10-26 16:11:21.015625
3091,111.13,2022-10-26 16:11:21.031250
3092,89.92,2022-10-26 16:11:21.046875
3093,74.28,2022-10-26 16:11:21.062500
3094,68.7,2022-10-26 16:11:21.078125
3095,73.03,2022-10-26 16:11:21.093750
3096,83.2,2022-10-26 16:11:21.109375
3097,94.03,2022-10-26 16:11:21.125000
3098,101.2,2022-10-26 16:11:21.140625
3099,102.78,2022-10-26 16:11:21.156250
3100,99.63,2022-10-26 16:11:21.171875
3101,93.52,2022-10-26 16:11:21.187500
3102,86.0,2022-10-26 16:11:21.203125
3103,77.09,2022-10-26 16:11:21.218750
3104,64.97,2022-10-26 16:11:21.234375
3105,46.61,2022-10-26 16:11:21.250000
3106,19.55,2022-10-26 16:11:21.265625
3107,-16.94,2022-10-26 16:11:21.281250
3108,-59.95,2022-10-26 16:11:21.296875
3109,-102.73,2022-10-26 16:11:21.312500
3110,-137.19,2022-10-26 16:11:21.328125
3111,-156.93,2022-10-26 16:11:21.343750
3112,-160.69,2022-10-26 16:11:21.359375
3113,-152.18,2022-10-26 16:11:21.375000
3114,-138.33,2022-10-26 16:11:21.390625
3115,-125.51,2022-10-26 16:11:21.406250
3116,-116.95,2022-10-26 16:11:21.421875
3117,-112.94,2022-10-26 16:11:21.437500
3118,-112.17,2022-10-26 16:11:21.453125
3119,-113.62,2022-10-26 16:11:21.468750
3120,-116.16,2022-10-26 16:11:21.484375
