,BVP,time
0,33.11,2022-08-17 14:37:20.281250
1,31.38,2022-08-17 14:37:20.296875
2,29.47,2022-08-17 14:37:20.312500
3,27.37,2022-08-17 14:37:20.328125
4,24.94,2022-08-17 14:37:20.343750
5,21.89,2022-08-17 14:37:20.359375
6,17.9,2022-08-17 14:37:20.375000
7,12.81,2022-08-17 14:37:20.390625
8,6.78,2022-08-17 14:37:20.406250
9,0.27,2022-08-17 14:37:20.421875
10,-6.15,2022-08-17 14:37:20.437500
11,-12.09,2022-08-17 14:37:20.453125
12,-17.48,2022-08-17 14:37:20.468750
13,-22.58,2022-08-17 14:37:20.484375
14,-27.79,2022-08-17 14:37:20.500000
15,-33.36,2022-08-17 14:37:20.515625
16,-39.23,2022-08-17 14:37:20.531250
17,-45.0,2022-08-17 14:37:20.546875
18,-50.2,2022-08-17 14:37:20.562500
19,-54.53,2022-08-17 14:37:20.578125
20,-58.08,2022-08-17 14:37:20.593750
21,-61.31,2022-08-17 14:37:20.609375
22,-64.84,2022-08-17 14:37:20.625000
23,-69.21,2022-08-17 14:37:20.640625
24,-74.63,2022-08-17 14:37:20.656250
25,-80.81,2022-08-17 14:37:20.671875
26,-86.89,2022-08-17 14:37:20.687500
27,-91.52,2022-08-17 14:37:20.703125
28,-93.04,2022-08-17 14:37:20.718750
29,-89.89,2022-08-17 14:37:20.734375
30,-81.07,2022-08-17 14:37:20.750000
31,-66.57,2022-08-17 14:37:20.765625
32,-47.55,2022-08-17 14:37:20.781250
33,-26.16,2022-08-17 14:37:20.796875
34,-4.92,2022-08-17 14:37:20.812500
35,13.91,2022-08-17 14:37:20.828125
36,28.8,2022-08-17 14:37:20.843750
37,39.21,2022-08-17 14:37:20.859375
38,45.32,2022-08-17 14:37:20.875000
39,47.73,2022-08-17 14:37:20.890625
40,47.17,2022-08-17 14:37:20.906250
41,44.31,2022-08-17 14:37:20.921875
42,39.8,2022-08-17 14:37:20.937500
43,34.23,2022-08-17 14:37:20.953125
44,28.14,2022-08-17 14:37:20.968750
45,21.98,2022-08-17 14:37:20.984375
46,16.06,2022-08-17 14:37:21.000000
47,10.65,2022-08-17 14:37:21.015625
48,6.0,2022-08-17 14:37:21.031250
49,2.43,2022-08-17 14:37:21.046875
50,0.29,2022-08-17 14:37:21.062500
51,-0.11,2022-08-17 14:37:21.078125
52,1.25,2022-08-17 14:37:21.093750
53,4.09,2022-08-17 14:37:21.109375
54,7.74,2022-08-17 14:37:21.125000
55,11.3,2022-08-17 14:37:21.140625
56,13.83,2022-08-17 14:37:21.156250
57,14.63,2022-08-17 14:37:21.171875
58,13.35,2022-08-17 14:37:21.187500
59,10.19,2022-08-17 14:37:21.203125
60,5.75,2022-08-17 14:37:21.218750
61,0.89,2022-08-17 14:37:21.234375
62,-3.58,2022-08-17 14:37:21.250000
63,-7.16,2022-08-17 14:37:21.265625
64,-9.82,2022-08-17 14:37:21.281250
65,-12.04,2022-08-17 14:37:21.296875
66,-14.48,2022-08-17 14:37:21.312500
67,-17.71,2022-08-17 14:37:21.328125
68,-21.86,2022-08-17 14:37:21.343750
69,-26.49,2022-08-17 14:37:21.359375
70,-30.75,2022-08-17 14:37:21.375000
71,-33.71,2022-08-17 14:37:21.390625
72,-34.98,2022-08-17 14:37:21.406250
73,-34.95,2022-08-17 14:37:21.421875
74,-34.87,2022-08-17 14:37:21.437500
75,-36.29,2022-08-17 14:37:21.453125
76,-40.25,2022-08-17 14:37:21.468750
77,-46.49,2022-08-17 14:37:21.484375
78,-53.11,2022-08-17 14:37:21.500000
79,-57.03,2022-08-17 14:37:21.515625
80,-54.99,2022-08-17 14:37:21.531250
81,-44.99,2022-08-17 14:37:21.546875
82,-27.13,2022-08-17 14:37:21.562500
83,-3.72,2022-08-17 14:37:21.578125
84,21.55,2022-08-17 14:37:21.593750
85,44.95,2022-08-17 14:37:21.609375
86,63.78,2022-08-17 14:37:21.625000
87,77.24,2022-08-17 14:37:21.640625
88,86.4,2022-08-17 14:37:21.656250
89,93.73,2022-08-17 14:37:21.671875
90,102.21,2022-08-17 14:37:21.687500
91,114.3,2022-08-17 14:37:21.703125
92,131.13,2022-08-17 14:37:21.718750
93,151.73,2022-08-17 14:37:21.734375
94,173.13,2022-08-17 14:37:21.750000
95,190.73,2022-08-17 14:37:21.765625
96,200.07,2022-08-17 14:37:21.781250
97,198.72,2022-08-17 14:37:21.796875
98,187.88,2022-08-17 14:37:21.812500
99,172.15,2022-08-17 14:37:21.828125
100,157.74,2022-08-17 14:37:21.843750
101,149.71,2022-08-17 14:37:21.859375
102,149.43,2022-08-17 14:37:21.875000
103,153.9,2022-08-17 14:37:21.890625
104,156.59,2022-08-17 14:37:21.906250
105,150.84,2022-08-17 14:37:21.921875
106,133.12,2022-08-17 14:37:21.937500
107,104.66,2022-08-17 14:37:21.953125
108,70.4,2022-08-17 14:37:21.968750
109,36.3,2022-08-17 14:37:21.984375
110,6.71,2022-08-17 14:37:22.000000
111,-17.33,2022-08-17 14:37:22.015625
112,-37.11,2022-08-17 14:37:22.031250
113,-55.64,2022-08-17 14:37:22.046875
114,-74.23,2022-08-17 14:37:22.062500
115,-90.98,2022-08-17 14:37:22.078125
116,-101.75,2022-08-17 14:37:22.093750
117,-103.08,2022-08-17 14:37:22.109375
118,-95.01,2022-08-17 14:37:22.125000
119,-81.01,2022-08-17 14:37:22.140625
120,-67.39,2022-08-17 14:37:22.156250
121,-59.79,2022-08-17 14:37:22.171875
122,-63.92,2022-08-17 14:37:22.187500
123,-82.29,2022-08-17 14:37:22.203125
124,-113.27,2022-08-17 14:37:22.218750
125,-151.81,2022-08-17 14:37:22.234375
126,-191.88,2022-08-17 14:37:22.250000
127,-228.86,2022-08-17 14:37:22.265625
128,-259.64,2022-08-17 14:37:22.281250
129,-285.01,2022-08-17 14:37:22.296875
130,-307.31,2022-08-17 14:37:22.312500
131,-333.99,2022-08-17 14:37:22.328125
132,-371.37,2022-08-17 14:37:22.343750
133,-419.88,2022-08-17 14:37:22.359375
134,-471.59,2022-08-17 14:37:22.375000
135,-513.11,2022-08-17 14:37:22.390625
136,-531.8,2022-08-17 14:37:22.406250
137,-519.41,2022-08-17 14:37:22.421875
138,-478.14,2022-08-17 14:37:22.437500
139,-416.66,2022-08-17 14:37:22.453125
140,-352.96,2022-08-17 14:37:22.468750
141,-304.77,2022-08-17 14:37:22.484375
142,-283.6,2022-08-17 14:37:22.500000
143,-291.91,2022-08-17 14:37:22.515625
144,-325.52,2022-08-17 14:37:22.531250
145,-378.43,2022-08-17 14:37:22.546875
146,-443.2,2022-08-17 14:37:22.562500
147,-515.67,2022-08-17 14:37:22.578125
148,-552.99,2022-08-17 14:37:22.593750
149,-521.7,2022-08-17 14:37:22.609375
150,-416.78,2022-08-17 14:37:22.625000
151,-268.75,2022-08-17 14:37:22.640625
152,-118.82,2022-08-17 14:37:22.656250
153,8.31,2022-08-17 14:37:22.671875
154,97.12,2022-08-17 14:37:22.687500
155,167.32,2022-08-17 14:37:22.703125
156,233.73,2022-08-17 14:37:22.718750
157,303.47,2022-08-17 14:37:22.734375
158,371.68,2022-08-17 14:37:22.750000
159,430.9,2022-08-17 14:37:22.765625
160,475.92,2022-08-17 14:37:22.781250
161,501.2,2022-08-17 14:37:22.796875
162,503.09,2022-08-17 14:37:22.812500
163,482.68,2022-08-17 14:37:22.828125
164,448.57,2022-08-17 14:37:22.843750
165,408.59,2022-08-17 14:37:22.859375
166,368.86,2022-08-17 14:37:22.875000
167,327.84,2022-08-17 14:37:22.890625
168,282.07,2022-08-17 14:37:22.906250
169,230.88,2022-08-17 14:37:22.921875
170,179.27,2022-08-17 14:37:22.937500
171,135.3,2022-08-17 14:37:22.953125
172,104.95,2022-08-17 14:37:22.968750
173,90.74,2022-08-17 14:37:22.984375
174,88.92,2022-08-17 14:37:23.000000
175,93.15,2022-08-17 14:37:23.015625
176,96.08,2022-08-17 14:37:23.031250
177,93.51,2022-08-17 14:37:23.046875
178,85.54,2022-08-17 14:37:23.062500
179,76.72,2022-08-17 14:37:23.078125
180,72.99,2022-08-17 14:37:23.093750
181,78.06,2022-08-17 14:37:23.109375
182,92.9,2022-08-17 14:37:23.125000
183,114.01,2022-08-17 14:37:23.140625
184,137.45,2022-08-17 14:37:23.156250
185,160.0,2022-08-17 14:37:23.171875
186,181.41,2022-08-17 14:37:23.187500
187,200.77,2022-08-17 14:37:23.203125
188,221.09,2022-08-17 14:37:23.218750
189,246.77,2022-08-17 14:37:23.234375
190,281.15,2022-08-17 14:37:23.250000
191,324.84,2022-08-17 14:37:23.265625
192,373.55,2022-08-17 14:37:23.281250
193,419.34,2022-08-17 14:37:23.296875
194,452.49,2022-08-17 14:37:23.312500
195,464.77,2022-08-17 14:37:23.328125
196,452.75,2022-08-17 14:37:23.343750
197,420.09,2022-08-17 14:37:23.359375
198,375.93,2022-08-17 14:37:23.375000
199,331.24,2022-08-17 14:37:23.390625
200,294.63,2022-08-17 14:37:23.406250
201,269.03,2022-08-17 14:37:23.421875
202,252.02,2022-08-17 14:37:23.437500
203,238.52,2022-08-17 14:37:23.453125
204,223.94,2022-08-17 14:37:23.468750
205,206.33,2022-08-17 14:37:23.484375
206,186.89,2022-08-17 14:37:23.500000
207,167.94,2022-08-17 14:37:23.515625
208,150.94,2022-08-17 14:37:23.531250
209,135.47,2022-08-17 14:37:23.546875
210,119.59,2022-08-17 14:37:23.562500
211,101.27,2022-08-17 14:37:23.578125
212,79.63,2022-08-17 14:37:23.593750
213,55.34,2022-08-17 14:37:23.609375
214,29.92,2022-08-17 14:37:23.625000
215,4.99,2022-08-17 14:37:23.640625
216,-18.92,2022-08-17 14:37:23.656250
217,-42.42,2022-08-17 14:37:23.671875
218,-66.69,2022-08-17 14:37:23.687500
219,-92.71,2022-08-17 14:37:23.703125
220,-120.53,2022-08-17 14:37:23.718750
221,-149.17,2022-08-17 14:37:23.734375
222,-176.97,2022-08-17 14:37:23.750000
223,-202.3,2022-08-17 14:37:23.765625
224,-224.09,2022-08-17 14:37:23.781250
225,-242.21,2022-08-17 14:37:23.796875
226,-257.38,2022-08-17 14:37:23.812500
227,-270.84,2022-08-17 14:37:23.828125
228,-283.77,2022-08-17 14:37:23.843750
229,-296.92,2022-08-17 14:37:23.859375
230,-310.49,2022-08-17 14:37:23.875000
231,-324.2,2022-08-17 14:37:23.890625
232,-337.59,2022-08-17 14:37:23.906250
233,-350.25,2022-08-17 14:37:23.921875
234,-362.14,2022-08-17 14:37:23.937500
235,-373.54,2022-08-17 14:37:23.953125
236,-384.82,2022-08-17 14:37:23.968750
237,-396.15,2022-08-17 14:37:23.984375
238,-407.39,2022-08-17 14:37:24.000000
239,-418.12,2022-08-17 14:37:24.015625
240,-427.91,2022-08-17 14:37:24.031250
241,-436.47,2022-08-17 14:37:24.046875
242,-443.56,2022-08-17 14:37:24.062500
243,-448.42,2022-08-17 14:37:24.078125
244,-449.22,2022-08-17 14:37:24.093750
245,-443.38,2022-08-17 14:37:24.109375
246,-428.43,2022-08-17 14:37:24.125000
247,-403.2,2022-08-17 14:37:24.140625
248,-368.61,2022-08-17 14:37:24.156250
249,-327.6,2022-08-17 14:37:24.171875
250,-284.29,2022-08-17 14:37:24.187500
251,-242.76,2022-08-17 14:37:24.203125
252,-206.07,2022-08-17 14:37:24.218750
253,-175.85,2022-08-17 14:37:24.234375
254,-152.35,2022-08-17 14:37:24.250000
255,-134.66,2022-08-17 14:37:24.265625
256,-120.96,2022-08-17 14:37:24.281250
257,-108.9,2022-08-17 14:37:24.296875
258,-96.26,2022-08-17 14:37:24.312500
259,-81.87,2022-08-17 14:37:24.328125
260,-66.13,2022-08-17 14:37:24.343750
261,-50.69,2022-08-17 14:37:24.359375
262,-37.53,2022-08-17 14:37:24.375000
263,-27.65,2022-08-17 14:37:24.390625
264,-20.27,2022-08-17 14:37:24.406250
265,-13.13,2022-08-17 14:37:24.421875
266,-3.73,2022-08-17 14:37:24.437500
267,9.12,2022-08-17 14:37:24.453125
268,24.43,2022-08-17 14:37:24.468750
269,39.21,2022-08-17 14:37:24.484375
270,49.6,2022-08-17 14:37:24.500000
271,52.47,2022-08-17 14:37:24.515625
272,46.83,2022-08-17 14:37:24.531250
273,34.41,2022-08-17 14:37:24.546875
274,18.98,2022-08-17 14:37:24.562500
275,4.86,2022-08-17 14:37:24.578125
276,-4.65,2022-08-17 14:37:24.593750
277,-8.28,2022-08-17 14:37:24.609375
278,-6.8,2022-08-17 14:37:24.625000
279,-2.1,2022-08-17 14:37:24.640625
280,4.04,2022-08-17 14:37:24.656250
281,10.76,2022-08-17 14:37:24.671875
282,18.06,2022-08-17 14:37:24.687500
283,25.99,2022-08-17 14:37:24.703125
284,33.85,2022-08-17 14:37:24.718750
285,39.87,2022-08-17 14:37:24.734375
286,41.56,2022-08-17 14:37:24.750000
287,36.58,2022-08-17 14:37:24.765625
288,23.62,2022-08-17 14:37:24.781250
289,2.95,2022-08-17 14:37:24.796875
290,-23.3,2022-08-17 14:37:24.812500
291,-51.34,2022-08-17 14:37:24.828125
292,-76.45,2022-08-17 14:37:24.843750
293,-93.83,2022-08-17 14:37:24.859375
294,-99.86,2022-08-17 14:37:24.875000
295,-93.17,2022-08-17 14:37:24.890625
296,-75.12,2022-08-17 14:37:24.906250
297,-49.35,2022-08-17 14:37:24.921875
298,-20.49,2022-08-17 14:37:24.937500
299,7.42,2022-08-17 14:37:24.953125
300,31.9,2022-08-17 14:37:24.968750
301,52.35,2022-08-17 14:37:24.984375
302,69.49,2022-08-17 14:37:25.000000
303,84.55,2022-08-17 14:37:25.015625
304,98.61,2022-08-17 14:37:25.031250
305,112.18,2022-08-17 14:37:25.046875
306,125.24,2022-08-17 14:37:25.062500
307,137.27,2022-08-17 14:37:25.078125
308,147.42,2022-08-17 14:37:25.093750
309,154.75,2022-08-17 14:37:25.109375
310,158.54,2022-08-17 14:37:25.125000
311,158.67,2022-08-17 14:37:25.140625
312,155.79,2022-08-17 14:37:25.156250
313,151.21,2022-08-17 14:37:25.171875
314,146.47,2022-08-17 14:37:25.187500
315,143.01,2022-08-17 14:37:25.203125
316,141.73,2022-08-17 14:37:25.218750
317,142.95,2022-08-17 14:37:25.234375
318,146.35,2022-08-17 14:37:25.250000
319,151.12,2022-08-17 14:37:25.265625
320,156.03,2022-08-17 14:37:25.281250
321,159.6,2022-08-17 14:37:25.296875
322,160.31,2022-08-17 14:37:25.312500
323,156.93,2022-08-17 14:37:25.328125
324,148.87,2022-08-17 14:37:25.343750
325,136.31,2022-08-17 14:37:25.359375
326,120.29,2022-08-17 14:37:25.375000
327,102.48,2022-08-17 14:37:25.390625
328,84.84,2022-08-17 14:37:25.406250
329,69.45,2022-08-17 14:37:25.421875
330,57.76,2022-08-17 14:37:25.437500
331,50.26,2022-08-17 14:37:25.453125
332,46.5,2022-08-17 14:37:25.468750
333,45.41,2022-08-17 14:37:25.484375
334,45.89,2022-08-17 14:37:25.500000
335,47.06,2022-08-17 14:37:25.515625
336,48.42,2022-08-17 14:37:25.531250
337,49.7,2022-08-17 14:37:25.546875
338,50.88,2022-08-17 14:37:25.562500
339,51.66,2022-08-17 14:37:25.578125
340,51.38,2022-08-17 14:37:25.593750
341,49.16,2022-08-17 14:37:25.609375
342,44.32,2022-08-17 14:37:25.625000
343,36.58,2022-08-17 14:37:25.640625
344,26.14,2022-08-17 14:37:25.656250
345,13.51,2022-08-17 14:37:25.671875
346,-0.36,2022-08-17 14:37:25.687500
347,-13.33,2022-08-17 14:37:25.703125
348,-22.44,2022-08-17 14:37:25.718750
349,-24.42,2022-08-17 14:37:25.734375
350,-16.54,2022-08-17 14:37:25.750000
351,2.29,2022-08-17 14:37:25.765625
352,30.43,2022-08-17 14:37:25.781250
353,63.34,2022-08-17 14:37:25.796875
354,94.62,2022-08-17 14:37:25.812500
355,118.01,2022-08-17 14:37:25.828125
356,131.01,2022-08-17 14:37:25.843750
357,133.72,2022-08-17 14:37:25.859375
358,127.77,2022-08-17 14:37:25.875000
359,114.94,2022-08-17 14:37:25.890625
360,96.82,2022-08-17 14:37:25.906250
361,74.88,2022-08-17 14:37:25.921875
362,50.76,2022-08-17 14:37:25.937500
363,26.38,2022-08-17 14:37:25.953125
364,3.96,2022-08-17 14:37:25.968750
365,-11.26,2022-08-17 14:37:25.984375
366,-15.61,2022-08-17 14:37:26.000000
367,-8.25,2022-08-17 14:37:26.015625
368,9.24,2022-08-17 14:37:26.031250
369,34.96,2022-08-17 14:37:26.046875
370,67.99,2022-08-17 14:37:26.062500
371,107.82,2022-08-17 14:37:26.078125
372,153.14,2022-08-17 14:37:26.093750
373,201.43,2022-08-17 14:37:26.109375
374,254.7,2022-08-17 14:37:26.125000
375,313.58,2022-08-17 14:37:26.140625
376,376.11,2022-08-17 14:37:26.156250
377,437.76,2022-08-17 14:37:26.171875
378,493.46,2022-08-17 14:37:26.187500
379,539.08,2022-08-17 14:37:26.203125
380,571.51,2022-08-17 14:37:26.218750
381,588.37,2022-08-17 14:37:26.234375
382,588.96,2022-08-17 14:37:26.250000
383,581.7,2022-08-17 14:37:26.265625
384,574.82,2022-08-17 14:37:26.281250
385,572.69,2022-08-17 14:37:26.296875
386,574.28,2022-08-17 14:37:26.312500
387,575.63,2022-08-17 14:37:26.328125
388,572.7,2022-08-17 14:37:26.343750
389,562.56,2022-08-17 14:37:26.359375
390,543.38,2022-08-17 14:37:26.375000
391,475.94,2022-08-17 14:37:26.390625
392,345.86,2022-08-17 14:37:26.406250
393,169.27,2022-08-17 14:37:26.421875
394,-14.08,2022-08-17 14:37:26.437500
395,-167.52,2022-08-17 14:37:26.453125
396,-275.41,2022-08-17 14:37:26.468750
397,-340.8,2022-08-17 14:37:26.484375
398,-375.07,2022-08-17 14:37:26.500000
399,-390.06,2022-08-17 14:37:26.515625
400,-396.75,2022-08-17 14:37:26.531250
401,-393.74,2022-08-17 14:37:26.546875
402,-378.88,2022-08-17 14:37:26.562500
403,-353.94,2022-08-17 14:37:26.578125
404,-325.49,2022-08-17 14:37:26.593750
405,-301.42,2022-08-17 14:37:26.609375
406,-287.51,2022-08-17 14:37:26.625000
407,-283.77,2022-08-17 14:37:26.640625
408,-288.92,2022-08-17 14:37:26.656250
409,-300.99,2022-08-17 14:37:26.671875
410,-313.06,2022-08-17 14:37:26.687500
411,-320.82,2022-08-17 14:37:26.703125
412,-324.11,2022-08-17 14:37:26.718750
413,-325.6,2022-08-17 14:37:26.734375
414,-327.12,2022-08-17 14:37:26.750000
415,-327.06,2022-08-17 14:37:26.765625
416,-321.09,2022-08-17 14:37:26.781250
417,-305.1,2022-08-17 14:37:26.796875
418,-276.86,2022-08-17 14:37:26.812500
419,-233.59,2022-08-17 14:37:26.828125
420,-176.38,2022-08-17 14:37:26.843750
421,-110.14,2022-08-17 14:37:26.859375
422,-42.21,2022-08-17 14:37:26.875000
423,20.5,2022-08-17 14:37:26.890625
424,73.41,2022-08-17 14:37:26.906250
425,114.31,2022-08-17 14:37:26.921875
426,142.16,2022-08-17 14:37:26.937500
427,156.65,2022-08-17 14:37:26.953125
428,159.63,2022-08-17 14:37:26.968750
429,152.8,2022-08-17 14:37:26.984375
430,137.26,2022-08-17 14:37:27.000000
431,113.76,2022-08-17 14:37:27.015625
432,83.46,2022-08-17 14:37:27.031250
433,48.34,2022-08-17 14:37:27.046875
434,10.82,2022-08-17 14:37:27.062500
435,-27.15,2022-08-17 14:37:27.078125
436,-63.98,2022-08-17 14:37:27.093750
437,-97.69,2022-08-17 14:37:27.109375
438,-126.35,2022-08-17 14:37:27.125000
439,-148.25,2022-08-17 14:37:27.140625
440,-162.24,2022-08-17 14:37:27.156250
441,-168.02,2022-08-17 14:37:27.171875
442,-166.26,2022-08-17 14:37:27.187500
443,-158.51,2022-08-17 14:37:27.203125
444,-146.78,2022-08-17 14:37:27.218750
445,-132.66,2022-08-17 14:37:27.234375
446,-116.76,2022-08-17 14:37:27.250000
447,-98.81,2022-08-17 14:37:27.265625
448,-78.23,2022-08-17 14:37:27.281250
449,-54.84,2022-08-17 14:37:27.296875
450,-29.39,2022-08-17 14:37:27.312500
451,-3.44,2022-08-17 14:37:27.328125
452,21.16,2022-08-17 14:37:27.343750
453,43.05,2022-08-17 14:37:27.359375
454,61.76,2022-08-17 14:37:27.375000
455,77.61,2022-08-17 14:37:27.390625
456,91.18,2022-08-17 14:37:27.406250
457,102.71,2022-08-17 14:37:27.421875
458,111.7,2022-08-17 14:37:27.437500
459,117.17,2022-08-17 14:37:27.453125
460,118.23,2022-08-17 14:37:27.468750
461,114.65,2022-08-17 14:37:27.484375
462,107.27,2022-08-17 14:37:27.500000
463,97.92,2022-08-17 14:37:27.515625
464,89.01,2022-08-17 14:37:27.531250
465,82.89,2022-08-17 14:37:27.546875
466,81.31,2022-08-17 14:37:27.562500
467,84.86,2022-08-17 14:37:27.578125
468,92.92,2022-08-17 14:37:27.593750
469,103.78,2022-08-17 14:37:27.609375
470,115.15,2022-08-17 14:37:27.625000
471,124.8,2022-08-17 14:37:27.640625
472,131.14,2022-08-17 14:37:27.656250
473,133.56,2022-08-17 14:37:27.671875
474,132.3,2022-08-17 14:37:27.687500
475,128.1,2022-08-17 14:37:27.703125
476,121.78,2022-08-17 14:37:27.718750
477,113.92,2022-08-17 14:37:27.734375
478,104.79,2022-08-17 14:37:27.750000
479,94.46,2022-08-17 14:37:27.765625
480,82.86,2022-08-17 14:37:27.781250
481,69.96,2022-08-17 14:37:27.796875
482,55.75,2022-08-17 14:37:27.812500
483,40.41,2022-08-17 14:37:27.828125
484,24.28,2022-08-17 14:37:27.843750
485,7.85,2022-08-17 14:37:27.859375
486,-8.39,2022-08-17 14:37:27.875000
487,-24.18,2022-08-17 14:37:27.890625
488,-39.66,2022-08-17 14:37:27.906250
489,-55.4,2022-08-17 14:37:27.921875
490,-72.16,2022-08-17 14:37:27.937500
491,-90.59,2022-08-17 14:37:27.953125
492,-110.83,2022-08-17 14:37:27.968750
493,-132.56,2022-08-17 14:37:27.984375
494,-154.96,2022-08-17 14:37:28.000000
495,-176.85,2022-08-17 14:37:28.015625
496,-196.69,2022-08-17 14:37:28.031250
497,-212.51,2022-08-17 14:37:28.046875
498,-222.09,2022-08-17 14:37:28.062500
499,-223.51,2022-08-17 14:37:28.078125
500,-215.96,2022-08-17 14:37:28.093750
501,-200.46,2022-08-17 14:37:28.109375
502,-180.01,2022-08-17 14:37:28.125000
503,-158.73,2022-08-17 14:37:28.140625
504,-140.49,2022-08-17 14:37:28.156250
505,-127.52,2022-08-17 14:37:28.171875
506,-119.81,2022-08-17 14:37:28.187500
507,-115.65,2022-08-17 14:37:28.203125
508,-112.83,2022-08-17 14:37:28.218750
509,-109.82,2022-08-17 14:37:28.234375
510,-106.42,2022-08-17 14:37:28.250000
511,-103.52,2022-08-17 14:37:28.265625
512,-102.53,2022-08-17 14:37:28.281250
513,-104.61,2022-08-17 14:37:28.296875
514,-110.4,2022-08-17 14:37:28.312500
515,-119.78,2022-08-17 14:37:28.328125
516,-131.62,2022-08-17 14:37:28.343750
517,-143.41,2022-08-17 14:37:28.359375
518,-151.34,2022-08-17 14:37:28.375000
519,-151.16,2022-08-17 14:37:28.390625
520,-139.95,2022-08-17 14:37:28.406250
521,-118.07,2022-08-17 14:37:28.421875
522,-90.0,2022-08-17 14:37:28.437500
523,-63.4,2022-08-17 14:37:28.453125
524,-46.51,2022-08-17 14:37:28.468750
525,-45.09,2022-08-17 14:37:28.484375
526,-60.16,2022-08-17 14:37:28.500000
527,-87.8,2022-08-17 14:37:28.515625
528,-120.86,2022-08-17 14:37:28.531250
529,-151.56,2022-08-17 14:37:28.546875
530,-173.82,2022-08-17 14:37:28.562500
531,-184.53,2022-08-17 14:37:28.578125
532,-183.5,2022-08-17 14:37:28.593750
533,-172.87,2022-08-17 14:37:28.609375
534,-156.44,2022-08-17 14:37:28.625000
535,-139.14,2022-08-17 14:37:28.640625
536,-126.22,2022-08-17 14:37:28.656250
537,-122.28,2022-08-17 14:37:28.671875
538,-129.74,2022-08-17 14:37:28.687500
539,-147.98,2022-08-17 14:37:28.703125
540,-173.4,2022-08-17 14:37:28.718750
541,-200.85,2022-08-17 14:37:28.734375
542,-225.59,2022-08-17 14:37:28.750000
543,-245.31,2022-08-17 14:37:28.765625
544,-260.77,2022-08-17 14:37:28.781250
545,-274.97,2022-08-17 14:37:28.796875
546,-290.91,2022-08-17 14:37:28.812500
547,-309.38,2022-08-17 14:37:28.828125
548,-327.99,2022-08-17 14:37:28.843750
549,-341.97,2022-08-17 14:37:28.859375
550,-346.56,2022-08-17 14:37:28.875000
551,-339.24,2022-08-17 14:37:28.890625
552,-320.84,2022-08-17 14:37:28.906250
553,-294.75,2022-08-17 14:37:28.921875
554,-265.1,2022-08-17 14:37:28.937500
555,-234.77,2022-08-17 14:37:28.953125
556,-204.54,2022-08-17 14:37:28.968750
557,-173.78,2022-08-17 14:37:28.984375
558,-141.92,2022-08-17 14:37:29.000000
559,-109.87,2022-08-17 14:37:29.015625
560,-80.39,2022-08-17 14:37:29.031250
561,-57.35,2022-08-17 14:37:29.046875
562,-44.19,2022-08-17 14:37:29.062500
563,-42.62,2022-08-17 14:37:29.078125
564,-51.83,2022-08-17 14:37:29.093750
565,-68.72,2022-08-17 14:37:29.109375
566,-88.86,2022-08-17 14:37:29.125000
567,-107.77,2022-08-17 14:37:29.140625
568,-122.03,2022-08-17 14:37:29.156250
569,-130.04,2022-08-17 14:37:29.171875
570,-131.92,2022-08-17 14:37:29.187500
571,-128.79,2022-08-17 14:37:29.203125
572,-121.77,2022-08-17 14:37:29.218750
573,-111.31,2022-08-17 14:37:29.234375
574,-97.19,2022-08-17 14:37:29.250000
575,-79.05,2022-08-17 14:37:29.265625
576,-57.15,2022-08-17 14:37:29.281250
577,-32.63,2022-08-17 14:37:29.296875
578,-7.23,2022-08-17 14:37:29.312500
579,17.49,2022-08-17 14:37:29.328125
580,41.1,2022-08-17 14:37:29.343750
581,64.22,2022-08-17 14:37:29.359375
582,88.01,2022-08-17 14:37:29.375000
583,113.55,2022-08-17 14:37:29.390625
584,141.19,2022-08-17 14:37:29.406250
585,170.47,2022-08-17 14:37:29.421875
586,200.1,2022-08-17 14:37:29.437500
587,228.26,2022-08-17 14:37:29.453125
588,252.98,2022-08-17 14:37:29.468750
589,272.61,2022-08-17 14:37:29.484375
590,285.79,2022-08-17 14:37:29.500000
591,291.62,2022-08-17 14:37:29.515625
592,289.83,2022-08-17 14:37:29.531250
593,280.85,2022-08-17 14:37:29.546875
594,265.64,2022-08-17 14:37:29.562500
595,245.32,2022-08-17 14:37:29.578125
596,220.97,2022-08-17 14:37:29.593750
597,193.76,2022-08-17 14:37:29.609375
598,165.62,2022-08-17 14:37:29.625000
599,138.52,2022-08-17 14:37:29.640625
600,114.08,2022-08-17 14:37:29.656250
601,93.23,2022-08-17 14:37:29.671875
602,76.1,2022-08-17 14:37:29.687500
603,61.97,2022-08-17 14:37:29.703125
604,49.57,2022-08-17 14:37:29.718750
605,37.62,2022-08-17 14:37:29.734375
606,25.49,2022-08-17 14:37:29.750000
607,15.08,2022-08-17 14:37:29.765625
608,8.96,2022-08-17 14:37:29.781250
609,9.82,2022-08-17 14:37:29.796875
610,20.12,2022-08-17 14:37:29.812500
611,41.74,2022-08-17 14:37:29.828125
612,74.94,2022-08-17 14:37:29.843750
613,117.13,2022-08-17 14:37:29.859375
614,162.76,2022-08-17 14:37:29.875000
615,204.56,2022-08-17 14:37:29.890625
616,238.77,2022-08-17 14:37:29.906250
617,262.91,2022-08-17 14:37:29.921875
618,276.05,2022-08-17 14:37:29.937500
619,279.05,2022-08-17 14:37:29.953125
620,274.87,2022-08-17 14:37:29.968750
621,267.62,2022-08-17 14:37:29.984375
622,261.01,2022-08-17 14:37:30.000000
623,257.7,2022-08-17 14:37:30.015625
624,259.31,2022-08-17 14:37:30.031250
625,271.4,2022-08-17 14:37:30.046875
626,296.49,2022-08-17 14:37:30.062500
627,332.67,2022-08-17 14:37:30.078125
628,374.79,2022-08-17 14:37:30.093750
629,417.82,2022-08-17 14:37:30.109375
630,458.68,2022-08-17 14:37:30.125000
631,495.94,2022-08-17 14:37:30.140625
632,528.92,2022-08-17 14:37:30.156250
633,556.42,2022-08-17 14:37:30.171875
634,582.06,2022-08-17 14:37:30.187500
635,605.2,2022-08-17 14:37:30.203125
636,619.97,2022-08-17 14:37:30.218750
637,618.27,2022-08-17 14:37:30.234375
638,595.03,2022-08-17 14:37:30.250000
639,550.76,2022-08-17 14:37:30.265625
640,490.4,2022-08-17 14:37:30.281250
641,421.25,2022-08-17 14:37:30.296875
642,313.99,2022-08-17 14:37:30.312500
643,164.75,2022-08-17 14:37:30.328125
644,-4.7,2022-08-17 14:37:30.343750
645,-160.48,2022-08-17 14:37:30.359375
646,-280.31,2022-08-17 14:37:30.375000
647,-360.43,2022-08-17 14:37:30.390625
648,-407.6,2022-08-17 14:37:30.406250
649,-431.03,2022-08-17 14:37:30.421875
650,-438.16,2022-08-17 14:37:30.437500
651,-435.28,2022-08-17 14:37:30.453125
652,-421.48,2022-08-17 14:37:30.468750
653,-397.7,2022-08-17 14:37:30.484375
654,-368.45,2022-08-17 14:37:30.500000
655,-340.46,2022-08-17 14:37:30.515625
656,-318.79,2022-08-17 14:37:30.531250
657,-304.93,2022-08-17 14:37:30.546875
658,-297.17,2022-08-17 14:37:30.562500
659,-290.68,2022-08-17 14:37:30.578125
660,-280.37,2022-08-17 14:37:30.593750
661,-256.79,2022-08-17 14:37:30.609375
662,-215.52,2022-08-17 14:37:30.625000
663,-159.94,2022-08-17 14:37:30.640625
664,-99.8,2022-08-17 14:37:30.656250
665,-46.26,2022-08-17 14:37:30.671875
666,-7.46,2022-08-17 14:37:30.687500
667,9.51,2022-08-17 14:37:30.703125
668,7.3,2022-08-17 14:37:30.718750
669,-7.03,2022-08-17 14:37:30.734375
670,-22.95,2022-08-17 14:37:30.750000
671,-33.73,2022-08-17 14:37:30.765625
672,-38.24,2022-08-17 14:37:30.781250
673,-39.32,2022-08-17 14:37:30.796875
674,-40.11,2022-08-17 14:37:30.812500
675,-41.81,2022-08-17 14:37:30.828125
676,-43.94,2022-08-17 14:37:30.843750
677,-44.77,2022-08-17 14:37:30.859375
678,-43.69,2022-08-17 14:37:30.875000
679,-39.65,2022-08-17 14:37:30.890625
680,-32.83,2022-08-17 14:37:30.906250
681,-24.71,2022-08-17 14:37:30.921875
682,-17.35,2022-08-17 14:37:30.937500
683,-12.31,2022-08-17 14:37:30.953125
684,-10.15,2022-08-17 14:37:30.968750
685,-11.01,2022-08-17 14:37:30.984375
686,-14.11,2022-08-17 14:37:31.000000
687,-19.09,2022-08-17 14:37:31.015625
688,-24.94,2022-08-17 14:37:31.031250
689,-30.32,2022-08-17 14:37:31.046875
690,-33.28,2022-08-17 14:37:31.062500
691,-32.46,2022-08-17 14:37:31.078125
692,-26.74,2022-08-17 14:37:31.093750
693,-16.59,2022-08-17 14:37:31.109375
694,-4.95,2022-08-17 14:37:31.125000
695,3.62,2022-08-17 14:37:31.140625
696,3.83,2022-08-17 14:37:31.156250
697,-7.63,2022-08-17 14:37:31.171875
698,-30.52,2022-08-17 14:37:31.187500
699,-59.27,2022-08-17 14:37:31.203125
700,-85.45,2022-08-17 14:37:31.218750
701,-101.05,2022-08-17 14:37:31.234375
702,-100.56,2022-08-17 14:37:31.250000
703,-82.41,2022-08-17 14:37:31.265625
704,-48.93,2022-08-17 14:37:31.281250
705,-6.04,2022-08-17 14:37:31.296875
706,38.58,2022-08-17 14:37:31.312500
707,77.35,2022-08-17 14:37:31.328125
708,104.34,2022-08-17 14:37:31.343750
709,116.12,2022-08-17 14:37:31.359375
710,112.38,2022-08-17 14:37:31.375000
711,95.61,2022-08-17 14:37:31.390625
712,70.01,2022-08-17 14:37:31.406250
713,40.42,2022-08-17 14:37:31.421875
714,10.6,2022-08-17 14:37:31.437500
715,-16.96,2022-08-17 14:37:31.453125
716,-40.36,2022-08-17 14:37:31.468750
717,-57.85,2022-08-17 14:37:31.484375
718,-67.7,2022-08-17 14:37:31.500000
719,-68.31,2022-08-17 14:37:31.515625
720,-59.16,2022-08-17 14:37:31.531250
721,-41.48,2022-08-17 14:37:31.546875
722,-17.98,2022-08-17 14:37:31.562500
723,7.11,2022-08-17 14:37:31.578125
724,29.83,2022-08-17 14:37:31.593750
725,47.86,2022-08-17 14:37:31.609375
726,61.11,2022-08-17 14:37:31.625000
727,71.09,2022-08-17 14:37:31.640625
728,79.71,2022-08-17 14:37:31.656250
729,88.1,2022-08-17 14:37:31.671875
730,93.6,2022-08-17 14:37:31.687500
731,93.88,2022-08-17 14:37:31.703125
732,86.92,2022-08-17 14:37:31.718750
733,72.17,2022-08-17 14:37:31.734375
734,51.09,2022-08-17 14:37:31.750000
735,26.66,2022-08-17 14:37:31.765625
736,1.73,2022-08-17 14:37:31.781250
737,-22.05,2022-08-17 14:37:31.796875
738,-44.69,2022-08-17 14:37:31.812500
739,-67.24,2022-08-17 14:37:31.828125
740,-90.21,2022-08-17 14:37:31.843750
741,-112.97,2022-08-17 14:37:31.859375
742,-133.15,2022-08-17 14:37:31.875000
743,-147.08,2022-08-17 14:37:31.890625
744,-151.16,2022-08-17 14:37:31.906250
745,-143.92,2022-08-17 14:37:31.921875
746,-126.3,2022-08-17 14:37:31.937500
747,-100.83,2022-08-17 14:37:31.953125
748,-70.16,2022-08-17 14:37:31.968750
749,-35.82,2022-08-17 14:37:31.984375
750,1.46,2022-08-17 14:37:32.000000
751,41.36,2022-08-17 14:37:32.015625
752,83.2,2022-08-17 14:37:32.031250
753,125.27,2022-08-17 14:37:32.046875
754,163.66,2022-08-17 14:37:32.062500
755,193.59,2022-08-17 14:37:32.078125
756,211.2,2022-08-17 14:37:32.093750
757,215.03,2022-08-17 14:37:32.109375
758,206.27,2022-08-17 14:37:32.125000
759,187.45,2022-08-17 14:37:32.140625
760,161.67,2022-08-17 14:37:32.156250
761,131.91,2022-08-17 14:37:32.171875
762,100.87,2022-08-17 14:37:32.187500
763,69.37,2022-08-17 14:37:32.203125
764,37.17,2022-08-17 14:37:32.218750
765,3.57,2022-08-17 14:37:32.234375
766,-31.87,2022-08-17 14:37:32.250000
767,-69.52,2022-08-17 14:37:32.265625
768,-110.28,2022-08-17 14:37:32.281250
769,-154.77,2022-08-17 14:37:32.296875
770,-202.66,2022-08-17 14:37:32.312500
771,-243.65,2022-08-17 14:37:32.328125
772,-265.88,2022-08-17 14:37:32.343750
773,-262.52,2022-08-17 14:37:32.359375
774,-236.87,2022-08-17 14:37:32.375000
775,-199.05,2022-08-17 14:37:32.390625
776,-159.2,2022-08-17 14:37:32.406250
777,-123.99,2022-08-17 14:37:32.421875
778,-95.67,2022-08-17 14:37:32.437500
779,-73.3,2022-08-17 14:37:32.453125
780,-54.13,2022-08-17 14:37:32.468750
781,-36.79,2022-08-17 14:37:32.484375
782,-21.22,2022-08-17 14:37:32.500000
783,-8.15,2022-08-17 14:37:32.515625
784,2.02,2022-08-17 14:37:32.531250
785,9.5,2022-08-17 14:37:32.546875
786,13.72,2022-08-17 14:37:32.562500
787,15.06,2022-08-17 14:37:32.578125
788,13.35,2022-08-17 14:37:32.593750
789,8.22,2022-08-17 14:37:32.609375
790,-1.02,2022-08-17 14:37:32.625000
791,-13.64,2022-08-17 14:37:32.640625
792,-26.48,2022-08-17 14:37:32.656250
793,-34.14,2022-08-17 14:37:32.671875
794,-29.52,2022-08-17 14:37:32.687500
795,-10.9,2022-08-17 14:37:32.703125
796,17.68,2022-08-17 14:37:32.718750
797,48.14,2022-08-17 14:37:32.734375
798,72.45,2022-08-17 14:37:32.750000
799,85.39,2022-08-17 14:37:32.765625
800,86.46,2022-08-17 14:37:32.781250
801,79.22,2022-08-17 14:37:32.796875
802,68.8,2022-08-17 14:37:32.812500
803,59.31,2022-08-17 14:37:32.828125
804,52.07,2022-08-17 14:37:32.843750
805,46.63,2022-08-17 14:37:32.859375
806,42.14,2022-08-17 14:37:32.875000
807,38.4,2022-08-17 14:37:32.890625
808,35.52,2022-08-17 14:37:32.906250
809,33.57,2022-08-17 14:37:32.921875
810,32.1,2022-08-17 14:37:32.937500
811,30.34,2022-08-17 14:37:32.953125
812,27.75,2022-08-17 14:37:32.968750
813,23.8,2022-08-17 14:37:32.984375
814,18.94,2022-08-17 14:37:33.000000
815,14.24,2022-08-17 14:37:33.015625
816,11.31,2022-08-17 14:37:33.031250
817,11.02,2022-08-17 14:37:33.046875
818,13.73,2022-08-17 14:37:33.062500
819,19.2,2022-08-17 14:37:33.078125
820,26.87,2022-08-17 14:37:33.093750
821,36.06,2022-08-17 14:37:33.109375
822,46.07,2022-08-17 14:37:33.125000
823,56.73,2022-08-17 14:37:33.140625
824,68.39,2022-08-17 14:37:33.156250
825,81.46,2022-08-17 14:37:33.171875
826,95.47,2022-08-17 14:37:33.187500
827,108.51,2022-08-17 14:37:33.203125
828,117.02,2022-08-17 14:37:33.218750
829,117.08,2022-08-17 14:37:33.234375
830,106.06,2022-08-17 14:37:33.250000
831,83.98,2022-08-17 14:37:33.265625
832,54.06,2022-08-17 14:37:33.281250
833,21.79,2022-08-17 14:37:33.296875
834,-7.02,2022-08-17 14:37:33.312500
835,-28.15,2022-08-17 14:37:33.328125
836,-39.94,2022-08-17 14:37:33.343750
837,-43.22,2022-08-17 14:37:33.359375
838,-40.14,2022-08-17 14:37:33.375000
839,-33.0,2022-08-17 14:37:33.390625
840,-23.49,2022-08-17 14:37:33.406250
841,-12.51,2022-08-17 14:37:33.421875
842,-0.37,2022-08-17 14:37:33.437500
843,12.9,2022-08-17 14:37:33.453125
844,27.21,2022-08-17 14:37:33.468750
845,43.49,2022-08-17 14:37:33.484375
846,61.74,2022-08-17 14:37:33.500000
847,81.52,2022-08-17 14:37:33.515625
848,101.86,2022-08-17 14:37:33.531250
849,121.68,2022-08-17 14:37:33.546875
850,139.9,2022-08-17 14:37:33.562500
851,155.68,2022-08-17 14:37:33.578125
852,168.48,2022-08-17 14:37:33.593750
853,178.14,2022-08-17 14:37:33.609375
854,184.98,2022-08-17 14:37:33.625000
855,189.65,2022-08-17 14:37:33.640625
856,193.32,2022-08-17 14:37:33.656250
857,197.45,2022-08-17 14:37:33.671875
858,203.21,2022-08-17 14:37:33.687500
859,210.84,2022-08-17 14:37:33.703125
860,219.21,2022-08-17 14:37:33.718750
861,225.81,2022-08-17 14:37:33.734375
862,227.41,2022-08-17 14:37:33.750000
863,221.09,2022-08-17 14:37:33.765625
864,205.15,2022-08-17 14:37:33.781250
865,179.97,2022-08-17 14:37:33.796875
866,147.85,2022-08-17 14:37:33.812500
867,112.16,2022-08-17 14:37:33.828125
868,76.11,2022-08-17 14:37:33.843750
869,41.74,2022-08-17 14:37:33.859375
870,9.5,2022-08-17 14:37:33.875000
871,-21.37,2022-08-17 14:37:33.890625
872,-51.88,2022-08-17 14:37:33.906250
873,-82.3,2022-08-17 14:37:33.921875
874,-111.42,2022-08-17 14:37:33.937500
875,-136.73,2022-08-17 14:37:33.953125
876,-155.2,2022-08-17 14:37:33.968750
877,-164.62,2022-08-17 14:37:33.984375
878,-164.64,2022-08-17 14:37:34.000000
879,-157.13,2022-08-17 14:37:34.015625
880,-145.58,2022-08-17 14:37:34.031250
881,-133.73,2022-08-17 14:37:34.046875
882,-124.31,2022-08-17 14:37:34.062500
883,-118.13,2022-08-17 14:37:34.078125
884,-114.54,2022-08-17 14:37:34.093750
885,-112.23,2022-08-17 14:37:34.109375
886,-110.23,2022-08-17 14:37:34.125000
887,-108.19,2022-08-17 14:37:34.140625
888,-106.02,2022-08-17 14:37:34.156250
889,-103.26,2022-08-17 14:37:34.171875
890,-98.89,2022-08-17 14:37:34.187500
891,-91.88,2022-08-17 14:37:34.203125
892,-81.94,2022-08-17 14:37:34.218750
893,-70.02,2022-08-17 14:37:34.234375
894,-58.01,2022-08-17 14:37:34.250000
895,-47.82,2022-08-17 14:37:34.265625
896,-40.45,2022-08-17 14:37:34.281250
897,-35.61,2022-08-17 14:37:34.296875
898,-32.24,2022-08-17 14:37:34.312500
899,-29.5,2022-08-17 14:37:34.328125
900,-27.54,2022-08-17 14:37:34.343750
901,-27.68,2022-08-17 14:37:34.359375
902,-31.73,2022-08-17 14:37:34.375000
903,-41.05,2022-08-17 14:37:34.390625
904,-55.87,2022-08-17 14:37:34.406250
905,-75.1,2022-08-17 14:37:34.421875
906,-96.8,2022-08-17 14:37:34.437500
907,-118.99,2022-08-17 14:37:34.453125
908,-140.27,2022-08-17 14:37:34.468750
909,-160.12,2022-08-17 14:37:34.484375
910,-178.75,2022-08-17 14:37:34.500000
911,-196.8,2022-08-17 14:37:34.515625
912,-214.99,2022-08-17 14:37:34.531250
913,-233.85,2022-08-17 14:37:34.546875
914,-253.78,2022-08-17 14:37:34.562500
915,-274.72,2022-08-17 14:37:34.578125
916,-295.92,2022-08-17 14:37:34.593750
917,-315.46,2022-08-17 14:37:34.609375
918,-330.08,2022-08-17 14:37:34.625000
919,-335.67,2022-08-17 14:37:34.640625
920,-328.46,2022-08-17 14:37:34.656250
921,-306.52,2022-08-17 14:37:34.671875
922,-270.86,2022-08-17 14:37:34.687500
923,-225.46,2022-08-17 14:37:34.703125
924,-176.14,2022-08-17 14:37:34.718750
925,-128.7,2022-08-17 14:37:34.734375
926,-87.34,2022-08-17 14:37:34.750000
927,-53.86,2022-08-17 14:37:34.765625
928,-28.0,2022-08-17 14:37:34.781250
929,-8.45,2022-08-17 14:37:34.796875
930,6.12,2022-08-17 14:37:34.812500
931,16.55,2022-08-17 14:37:34.828125
932,23.27,2022-08-17 14:37:34.843750
933,26.83,2022-08-17 14:37:34.859375
934,28.12,2022-08-17 14:37:34.875000
935,28.45,2022-08-17 14:37:34.890625
936,29.16,2022-08-17 14:37:34.906250
937,31.18,2022-08-17 14:37:34.921875
938,34.85,2022-08-17 14:37:34.937500
939,39.97,2022-08-17 14:37:34.953125
940,46.23,2022-08-17 14:37:34.968750
941,53.48,2022-08-17 14:37:34.984375
942,61.95,2022-08-17 14:37:35.000000
943,72.06,2022-08-17 14:37:35.015625
944,84.01,2022-08-17 14:37:35.031250
945,97.4,2022-08-17 14:37:35.046875
946,111.07,2022-08-17 14:37:35.062500
947,123.27,2022-08-17 14:37:35.078125
948,132.18,2022-08-17 14:37:35.093750
949,136.41,2022-08-17 14:37:35.109375
950,135.49,2022-08-17 14:37:35.125000
951,129.98,2022-08-17 14:37:35.140625
952,121.17,2022-08-17 14:37:35.156250
953,110.66,2022-08-17 14:37:35.171875
954,99.75,2022-08-17 14:37:35.187500
955,89.1,2022-08-17 14:37:35.203125
956,78.57,2022-08-17 14:37:35.218750
957,67.53,2022-08-17 14:37:35.234375
958,55.3,2022-08-17 14:37:35.250000
959,41.64,2022-08-17 14:37:35.265625
960,26.98,2022-08-17 14:37:35.281250
961,12.29,2022-08-17 14:37:35.296875
962,-1.36,2022-08-17 14:37:35.312500
963,-13.34,2022-08-17 14:37:35.328125
964,-23.71,2022-08-17 14:37:35.343750
965,-33.27,2022-08-17 14:37:35.359375
966,-43.25,2022-08-17 14:37:35.375000
967,-54.88,2022-08-17 14:37:35.390625
968,-68.99,2022-08-17 14:37:35.406250
969,-85.64,2022-08-17 14:37:35.421875
970,-103.88,2022-08-17 14:37:35.437500
971,-121.6,2022-08-17 14:37:35.453125
972,-135.64,2022-08-17 14:37:35.468750
973,-142.31,2022-08-17 14:37:35.484375
974,-138.45,2022-08-17 14:37:35.500000
975,-122.47,2022-08-17 14:37:35.515625
976,-95.25,2022-08-17 14:37:35.531250
977,-60.14,2022-08-17 14:37:35.546875
978,-22.11,2022-08-17 14:37:35.562500
979,13.72,2022-08-17 14:37:35.578125
980,43.44,2022-08-17 14:37:35.593750
981,65.13,2022-08-17 14:37:35.609375
982,78.72,2022-08-17 14:37:35.625000
983,85.27,2022-08-17 14:37:35.640625
984,86.13,2022-08-17 14:37:35.656250
985,82.38,2022-08-17 14:37:35.671875
986,74.73,2022-08-17 14:37:35.687500
987,63.87,2022-08-17 14:37:35.703125
988,50.79,2022-08-17 14:37:35.718750
989,36.9,2022-08-17 14:37:35.734375
990,23.85,2022-08-17 14:37:35.750000
991,13.14,2022-08-17 14:37:35.765625
992,5.74,2022-08-17 14:37:35.781250
993,1.85,2022-08-17 14:37:35.796875
994,1.03,2022-08-17 14:37:35.812500
995,2.41,2022-08-17 14:37:35.828125
996,5.05,2022-08-17 14:37:35.843750
997,8.09,2022-08-17 14:37:35.859375
998,10.83,2022-08-17 14:37:35.875000
999,12.67,2022-08-17 14:37:35.890625
1000,13.09,2022-08-17 14:37:35.906250
1001,11.77,2022-08-17 14:37:35.921875
1002,8.81,2022-08-17 14:37:35.937500
1003,4.83,2022-08-17 14:37:35.953125
1004,0.95,2022-08-17 14:37:35.968750
1005,-1.58,2022-08-17 14:37:35.984375
1006,-1.81,2022-08-17 14:37:36.000000
1007,0.56,2022-08-17 14:37:36.015625
1008,5.08,2022-08-17 14:37:36.031250
1009,10.71,2022-08-17 14:37:36.046875
1010,16.11,2022-08-17 14:37:36.062500
1011,20.04,2022-08-17 14:37:36.078125
1012,21.5,2022-08-17 14:37:36.093750
1013,19.92,2022-08-17 14:37:36.109375
1014,15.15,2022-08-17 14:37:36.125000
1015,7.49,2022-08-17 14:37:36.140625
1016,-2.39,2022-08-17 14:37:36.156250
1017,-13.56,2022-08-17 14:37:36.171875
1018,-25.08,2022-08-17 14:37:36.187500
1019,-36.24,2022-08-17 14:37:36.203125
1020,-46.7,2022-08-17 14:37:36.218750
1021,-56.66,2022-08-17 14:37:36.234375
1022,-66.77,2022-08-17 14:37:36.250000
1023,-77.98,2022-08-17 14:37:36.265625
1024,-91.11,2022-08-17 14:37:36.281250
1025,-106.27,2022-08-17 14:37:36.296875
1026,-122.43,2022-08-17 14:37:36.312500
1027,-137.3,2022-08-17 14:37:36.328125
1028,-147.72,2022-08-17 14:37:36.343750
1029,-150.67,2022-08-17 14:37:36.359375
1030,-144.29,2022-08-17 14:37:36.375000
1031,-128.7,2022-08-17 14:37:36.390625
1032,-106.13,2022-08-17 14:37:36.406250
1033,-80.26,2022-08-17 14:37:36.421875
1034,-55.18,2022-08-17 14:37:36.437500
1035,-34.29,2022-08-17 14:37:36.453125
1036,-19.61,2022-08-17 14:37:36.468750
1037,-11.66,2022-08-17 14:37:36.484375
1038,-9.75,2022-08-17 14:37:36.500000
1039,-12.42,2022-08-17 14:37:36.515625
1040,-17.85,2022-08-17 14:37:36.531250
1041,-24.13,2022-08-17 14:37:36.546875
1042,-29.51,2022-08-17 14:37:36.562500
1043,-32.48,2022-08-17 14:37:36.578125
1044,-31.87,2022-08-17 14:37:36.593750
1045,-26.91,2022-08-17 14:37:36.609375
1046,-17.37,2022-08-17 14:37:36.625000
1047,-3.51,2022-08-17 14:37:36.640625
1048,13.93,2022-08-17 14:37:36.656250
1049,34.03,2022-08-17 14:37:36.671875
1050,56.03,2022-08-17 14:37:36.687500
1051,79.37,2022-08-17 14:37:36.703125
1052,103.6,2022-08-17 14:37:36.718750
1053,127.94,2022-08-17 14:37:36.734375
1054,151.0,2022-08-17 14:37:36.750000
1055,170.83,2022-08-17 14:37:36.765625
1056,185.42,2022-08-17 14:37:36.781250
1057,193.36,2022-08-17 14:37:36.796875
1058,194.3,2022-08-17 14:37:36.812500
1059,188.9,2022-08-17 14:37:36.828125
1060,178.42,2022-08-17 14:37:36.843750
1061,164.18,2022-08-17 14:37:36.859375
1062,147.27,2022-08-17 14:37:36.875000
1063,128.53,2022-08-17 14:37:36.890625
1064,108.76,2022-08-17 14:37:36.906250
1065,88.74,2022-08-17 14:37:36.921875
1066,69.07,2022-08-17 14:37:36.937500
1067,49.93,2022-08-17 14:37:36.953125
1068,31.12,2022-08-17 14:37:36.968750
1069,12.42,2022-08-17 14:37:36.984375
1070,-5.97,2022-08-17 14:37:37.000000
1071,-23.14,2022-08-17 14:37:37.015625
1072,-37.73,2022-08-17 14:37:37.031250
1073,-48.42,2022-08-17 14:37:37.046875
1074,-54.58,2022-08-17 14:37:37.062500
1075,-56.45,2022-08-17 14:37:37.078125
1076,-55.03,2022-08-17 14:37:37.093750
1077,-51.62,2022-08-17 14:37:37.109375
1078,-47.45,2022-08-17 14:37:37.125000
1079,-43.33,2022-08-17 14:37:37.140625
1080,-39.46,2022-08-17 14:37:37.156250
1081,-35.26,2022-08-17 14:37:37.171875
1082,-29.38,2022-08-17 14:37:37.187500
1083,-19.95,2022-08-17 14:37:37.203125
1084,-5.3,2022-08-17 14:37:37.218750
1085,15.36,2022-08-17 14:37:37.234375
1086,41.28,2022-08-17 14:37:37.250000
1087,70.3,2022-08-17 14:37:37.265625
1088,99.39,2022-08-17 14:37:37.281250
1089,125.7,2022-08-17 14:37:37.296875
1090,147.31,2022-08-17 14:37:37.312500
1091,163.56,2022-08-17 14:37:37.328125
1092,174.76,2022-08-17 14:37:37.343750
1093,181.67,2022-08-17 14:37:37.359375
1094,185.04,2022-08-17 14:37:37.375000
1095,185.49,2022-08-17 14:37:37.390625
1096,183.48,2022-08-17 14:37:37.406250
1097,179.24,2022-08-17 14:37:37.421875
1098,172.56,2022-08-17 14:37:37.437500
1099,162.58,2022-08-17 14:37:37.453125
1100,148.03,2022-08-17 14:37:37.468750
1101,127.85,2022-08-17 14:37:37.484375
1102,101.93,2022-08-17 14:37:37.500000
1103,71.53,2022-08-17 14:37:37.515625
1104,39.11,2022-08-17 14:37:37.531250
1105,7.84,2022-08-17 14:37:37.546875
1106,-19.03,2022-08-17 14:37:37.562500
1107,-38.64,2022-08-17 14:37:37.578125
1108,-48.77,2022-08-17 14:37:37.593750
1109,-48.2,2022-08-17 14:37:37.609375
1110,-37.17,2022-08-17 14:37:37.625000
1111,-18.07,2022-08-17 14:37:37.640625
1112,4.36,2022-08-17 14:37:37.656250
1113,23.53,2022-08-17 14:37:37.671875
1114,32.72,2022-08-17 14:37:37.687500
1115,27.13,2022-08-17 14:37:37.703125
1116,5.3,2022-08-17 14:37:37.718750
1117,-30.57,2022-08-17 14:37:37.734375
1118,-75.68,2022-08-17 14:37:37.750000
1119,-124.42,2022-08-17 14:37:37.765625
1120,-172.27,2022-08-17 14:37:37.781250
1121,-216.83,2022-08-17 14:37:37.796875
1122,-257.99,2022-08-17 14:37:37.812500
1123,-296.98,2022-08-17 14:37:37.828125
1124,-334.86,2022-08-17 14:37:37.843750
1125,-370.98,2022-08-17 14:37:37.859375
1126,-402.1,2022-08-17 14:37:37.875000
1127,-422.74,2022-08-17 14:37:37.890625
1128,-426.75,2022-08-17 14:37:37.906250
1129,-409.65,2022-08-17 14:37:37.921875
1130,-370.53,2022-08-17 14:37:37.937500
1131,-312.7,2022-08-17 14:37:37.953125
1132,-242.59,2022-08-17 14:37:37.968750
1133,-167.55,2022-08-17 14:37:37.984375
1134,-93.37,2022-08-17 14:37:38.000000
1135,-23.05,2022-08-17 14:37:38.015625
1136,43.12,2022-08-17 14:37:38.031250
1137,106.1,2022-08-17 14:37:38.046875
1138,166.29,2022-08-17 14:37:38.062500
1139,222.18,2022-08-17 14:37:38.078125
1140,269.89,2022-08-17 14:37:38.093750
1141,304.21,2022-08-17 14:37:38.109375
1142,320.54,2022-08-17 14:37:38.125000
1143,317.03,2022-08-17 14:37:38.140625
1144,295.5,2022-08-17 14:37:38.156250
1145,260.91,2022-08-17 14:37:38.171875
1146,219.73,2022-08-17 14:37:38.187500
1147,177.71,2022-08-17 14:37:38.203125
1148,138.51,2022-08-17 14:37:38.218750
1149,103.47,2022-08-17 14:37:38.234375
1150,72.63,2022-08-17 14:37:38.250000
1151,46.48,2022-08-17 14:37:38.265625
1152,26.97,2022-08-17 14:37:38.281250
1153,16.78,2022-08-17 14:37:38.296875
1154,17.94,2022-08-17 14:37:38.312500
1155,30.82,2022-08-17 14:37:38.328125
1156,53.66,2022-08-17 14:37:38.343750
1157,83.44,2022-08-17 14:37:38.359375
1158,116.61,2022-08-17 14:37:38.375000
1159,149.79,2022-08-17 14:37:38.390625
1160,180.3,2022-08-17 14:37:38.406250
1161,206.95,2022-08-17 14:37:38.421875
1162,228.86,2022-08-17 14:37:38.437500
1163,245.52,2022-08-17 14:37:38.453125
1164,257.09,2022-08-17 14:37:38.468750
1165,263.71,2022-08-17 14:37:38.484375
1166,265.55,2022-08-17 14:37:38.500000
1167,261.53,2022-08-17 14:37:38.515625
1168,249.23,2022-08-17 14:37:38.531250
1169,226.68,2022-08-17 14:37:38.546875
1170,194.66,2022-08-17 14:37:38.562500
1171,155.2,2022-08-17 14:37:38.578125
1172,110.73,2022-08-17 14:37:38.593750
1173,64.01,2022-08-17 14:37:38.609375
1174,16.79,2022-08-17 14:37:38.625000
1175,-28.75,2022-08-17 14:37:38.640625
1176,-70.79,2022-08-17 14:37:38.656250
1177,-107.76,2022-08-17 14:37:38.671875
1178,-136.44,2022-08-17 14:37:38.687500
1179,-151.65,2022-08-17 14:37:38.703125
1180,-151.25,2022-08-17 14:37:38.718750
1181,-137.4,2022-08-17 14:37:38.734375
1182,-114.14,2022-08-17 14:37:38.750000
1183,-86.57,2022-08-17 14:37:38.765625
1184,-56.88,2022-08-17 14:37:38.781250
1185,-26.05,2022-08-17 14:37:38.796875
1186,4.53,2022-08-17 14:37:38.812500
1187,35.5,2022-08-17 14:37:38.828125
1188,69.82,2022-08-17 14:37:38.843750
1189,107.31,2022-08-17 14:37:38.859375
1190,143.98,2022-08-17 14:37:38.875000
1191,175.16,2022-08-17 14:37:38.890625
1192,195.09,2022-08-17 14:37:38.906250
1193,200.82,2022-08-17 14:37:38.921875
1194,190.68,2022-08-17 14:37:38.937500
1195,164.13,2022-08-17 14:37:38.953125
1196,109.68,2022-08-17 14:37:38.968750
1197,32.97,2022-08-17 14:37:38.984375
1198,-46.35,2022-08-17 14:37:39.000000
1199,-105.54,2022-08-17 14:37:39.015625
1200,-123.11,2022-08-17 14:37:39.031250
1201,-104.08,2022-08-17 14:37:39.046875
1202,-57.59,2022-08-17 14:37:39.062500
1203,8.45,2022-08-17 14:37:39.078125
1204,81.09,2022-08-17 14:37:39.093750
1205,153.63,2022-08-17 14:37:39.109375
1206,223.4,2022-08-17 14:37:39.125000
1207,285.97,2022-08-17 14:37:39.140625
1208,320.72,2022-08-17 14:37:39.156250
1209,313.77,2022-08-17 14:37:39.171875
1210,264.28,2022-08-17 14:37:39.187500
1211,187.5,2022-08-17 14:37:39.203125
1212,114.3,2022-08-17 14:37:39.218750
1213,48.29,2022-08-17 14:37:39.234375
1214,-12.46,2022-08-17 14:37:39.250000
1215,-69.04,2022-08-17 14:37:39.265625
1216,-123.6,2022-08-17 14:37:39.281250
1217,-175.3,2022-08-17 14:37:39.296875
1218,-220.32,2022-08-17 14:37:39.312500
1219,-255.9,2022-08-17 14:37:39.328125
1220,-280.06,2022-08-17 14:37:39.343750
1221,-294.27,2022-08-17 14:37:39.359375
1222,-304.73,2022-08-17 14:37:39.375000
1223,-314.6,2022-08-17 14:37:39.390625
1224,-324.71,2022-08-17 14:37:39.406250
1225,-335.73,2022-08-17 14:37:39.421875
1226,-347.69,2022-08-17 14:37:39.437500
1227,-357.58,2022-08-17 14:37:39.453125
1228,-360.98,2022-08-17 14:37:39.468750
1229,-352.16,2022-08-17 14:37:39.484375
1230,-327.65,2022-08-17 14:37:39.500000
1231,-289.63,2022-08-17 14:37:39.515625
1232,-241.9,2022-08-17 14:37:39.531250
1233,-190.63,2022-08-17 14:37:39.546875
1234,-143.32,2022-08-17 14:37:39.562500
1235,-105.62,2022-08-17 14:37:39.578125
1236,-78.83,2022-08-17 14:37:39.593750
1237,-61.08,2022-08-17 14:37:39.609375
1238,-48.27,2022-08-17 14:37:39.625000
1239,-36.74,2022-08-17 14:37:39.640625
1240,-25.2,2022-08-17 14:37:39.656250
1241,-11.83,2022-08-17 14:37:39.671875
1242,4.76,2022-08-17 14:37:39.687500
1243,25.31,2022-08-17 14:37:39.703125
1244,50.63,2022-08-17 14:37:39.718750
1245,80.71,2022-08-17 14:37:39.734375
1246,113.52,2022-08-17 14:37:39.750000
1247,145.8,2022-08-17 14:37:39.765625
1248,173.33,2022-08-17 14:37:39.781250
1249,191.44,2022-08-17 14:37:39.796875
1250,197.41,2022-08-17 14:37:39.812500
1251,190.01,2022-08-17 14:37:39.828125
1252,169.92,2022-08-17 14:37:39.843750
1253,141.08,2022-08-17 14:37:39.859375
1254,108.84,2022-08-17 14:37:39.875000
1255,78.42,2022-08-17 14:37:39.890625
1256,54.59,2022-08-17 14:37:39.906250
1257,40.85,2022-08-17 14:37:39.921875
1258,38.68,2022-08-17 14:37:39.937500
1259,47.93,2022-08-17 14:37:39.953125
1260,66.1,2022-08-17 14:37:39.968750
1261,89.57,2022-08-17 14:37:39.984375
1262,115.88,2022-08-17 14:37:40.000000
1263,142.44,2022-08-17 14:37:40.015625
1264,165.67,2022-08-17 14:37:40.031250
1265,182.26,2022-08-17 14:37:40.046875
1266,189.93,2022-08-17 14:37:40.062500
1267,188.71,2022-08-17 14:37:40.078125
1268,186.52,2022-08-17 14:37:40.093750
1269,193.33,2022-08-17 14:37:40.109375
1270,208.37,2022-08-17 14:37:40.125000
1271,229.3,2022-08-17 14:37:40.140625
1272,254.05,2022-08-17 14:37:40.156250
1273,274.23,2022-08-17 14:37:40.171875
1274,280.01,2022-08-17 14:37:40.187500
1275,264.92,2022-08-17 14:37:40.203125
1276,229.17,2022-08-17 14:37:40.218750
1277,179.77,2022-08-17 14:37:40.234375
1278,126.59,2022-08-17 14:37:40.250000
1279,78.42,2022-08-17 14:37:40.265625
1280,41.36,2022-08-17 14:37:40.281250
1281,16.45,2022-08-17 14:37:40.296875
1282,0.72,2022-08-17 14:37:40.312500
1283,-9.08,2022-08-17 14:37:40.328125
1284,-14.74,2022-08-17 14:37:40.343750
1285,-16.65,2022-08-17 14:37:40.359375
1286,-15.0,2022-08-17 14:37:40.375000
1287,-11.66,2022-08-17 14:37:40.390625
1288,-9.88,2022-08-17 14:37:40.406250
1289,-12.02,2022-08-17 14:37:40.421875
1290,-19.45,2022-08-17 14:37:40.437500
1291,-32.28,2022-08-17 14:37:40.453125
1292,-48.56,2022-08-17 14:37:40.468750
1293,-65.16,2022-08-17 14:37:40.484375
1294,-79.17,2022-08-17 14:37:40.500000
1295,-89.03,2022-08-17 14:37:40.515625
1296,-95.34,2022-08-17 14:37:40.531250
1297,-100.2,2022-08-17 14:37:40.546875
1298,-105.46,2022-08-17 14:37:40.562500
1299,-112.4,2022-08-17 14:37:40.578125
1300,-121.65,2022-08-17 14:37:40.593750
1301,-132.72,2022-08-17 14:37:40.609375
1302,-144.49,2022-08-17 14:37:40.625000
1303,-155.89,2022-08-17 14:37:40.640625
1304,-166.15,2022-08-17 14:37:40.656250
1305,-174.99,2022-08-17 14:37:40.671875
1306,-182.22,2022-08-17 14:37:40.687500
1307,-187.18,2022-08-17 14:37:40.703125
1308,-189.14,2022-08-17 14:37:40.718750
1309,-187.74,2022-08-17 14:37:40.734375
1310,-183.01,2022-08-17 14:37:40.750000
1311,-175.39,2022-08-17 14:37:40.765625
1312,-165.7,2022-08-17 14:37:40.781250
1313,-154.91,2022-08-17 14:37:40.796875
1314,-144.08,2022-08-17 14:37:40.812500
1315,-134.09,2022-08-17 14:37:40.828125
1316,-125.29,2022-08-17 14:37:40.843750
1317,-117.41,2022-08-17 14:37:40.859375
1318,-109.64,2022-08-17 14:37:40.875000
1319,-100.94,2022-08-17 14:37:40.890625
1320,-90.68,2022-08-17 14:37:40.906250
1321,-79.43,2022-08-17 14:37:40.921875
1322,-69.09,2022-08-17 14:37:40.937500
1323,-62.43,2022-08-17 14:37:40.953125
1324,-61.98,2022-08-17 14:37:40.968750
1325,-68.96,2022-08-17 14:37:40.984375
1326,-82.76,2022-08-17 14:37:41.000000
1327,-101.12,2022-08-17 14:37:41.015625
1328,-120.91,2022-08-17 14:37:41.031250
1329,-138.94,2022-08-17 14:37:41.046875
1330,-152.61,2022-08-17 14:37:41.062500
1331,-160.22,2022-08-17 14:37:41.078125
1332,-161.23,2022-08-17 14:37:41.093750
1333,-156.31,2022-08-17 14:37:41.109375
1334,-147.21,2022-08-17 14:37:41.125000
1335,-136.31,2022-08-17 14:37:41.140625
1336,-125.82,2022-08-17 14:37:41.156250
1337,-117.05,2022-08-17 14:37:41.171875
1338,-110.1,2022-08-17 14:37:41.187500
1339,-104.24,2022-08-17 14:37:41.203125
1340,-98.74,2022-08-17 14:37:41.218750
1341,-93.55,2022-08-17 14:37:41.234375
1342,-89.64,2022-08-17 14:37:41.250000
1343,-88.55,2022-08-17 14:37:41.265625
1344,-91.93,2022-08-17 14:37:41.281250
1345,-100.94,2022-08-17 14:37:41.296875
1346,-116.05,2022-08-17 14:37:41.312500
1347,-137.03,2022-08-17 14:37:41.328125
1348,-162.95,2022-08-17 14:37:41.343750
1349,-192.32,2022-08-17 14:37:41.359375
1350,-223.54,2022-08-17 14:37:41.375000
1351,-255.67,2022-08-17 14:37:41.390625
1352,-289.05,2022-08-17 14:37:41.406250
1353,-325.02,2022-08-17 14:37:41.421875
1354,-364.62,2022-08-17 14:37:41.437500
1355,-406.73,2022-08-17 14:37:41.453125
1356,-446.72,2022-08-17 14:37:41.468750
1357,-476.97,2022-08-17 14:37:41.484375
1358,-489.17,2022-08-17 14:37:41.500000
1359,-477.62,2022-08-17 14:37:41.515625
1360,-441.63,2022-08-17 14:37:41.531250
1361,-385.73,2022-08-17 14:37:41.546875
1362,-317.67,2022-08-17 14:37:41.562500
1363,-245.38,2022-08-17 14:37:41.578125
1364,-174.48,2022-08-17 14:37:41.593750
1365,-107.69,2022-08-17 14:37:41.609375
1366,-45.73,2022-08-17 14:37:41.625000
1367,11.14,2022-08-17 14:37:41.640625
1368,62.14,2022-08-17 14:37:41.656250
1369,106.26,2022-08-17 14:37:41.671875
1370,143.25,2022-08-17 14:37:41.687500
1371,174.64,2022-08-17 14:37:41.703125
1372,203.66,2022-08-17 14:37:41.718750
1373,233.97,2022-08-17 14:37:41.734375
1374,267.67,2022-08-17 14:37:41.750000
1375,303.6,2022-08-17 14:37:41.765625
1376,337.0,2022-08-17 14:37:41.781250
1377,360.85,2022-08-17 14:37:41.796875
1378,368.6,2022-08-17 14:37:41.812500
1379,357.0,2022-08-17 14:37:41.828125
1380,327.76,2022-08-17 14:37:41.843750
1381,287.15,2022-08-17 14:37:41.859375
1382,243.84,2022-08-17 14:37:41.875000
1383,205.97,2022-08-17 14:37:41.890625
1384,178.92,2022-08-17 14:37:41.906250
1385,164.57,2022-08-17 14:37:41.921875
1386,162.04,2022-08-17 14:37:41.937500
1387,169.13,2022-08-17 14:37:41.953125
1388,183.24,2022-08-17 14:37:41.968750
1389,201.54,2022-08-17 14:37:41.984375
1390,220.61,2022-08-17 14:37:42.000000
1391,236.34,2022-08-17 14:37:42.015625
1392,244.56,2022-08-17 14:37:42.031250
1393,242.37,2022-08-17 14:37:42.046875
1394,229.3,2022-08-17 14:37:42.062500
1395,207.78,2022-08-17 14:37:42.078125
1396,182.31,2022-08-17 14:37:42.093750
1397,157.84,2022-08-17 14:37:42.109375
1398,138.04,2022-08-17 14:37:42.125000
1399,124.28,2022-08-17 14:37:42.140625
1400,115.72,2022-08-17 14:37:42.156250
1401,110.1,2022-08-17 14:37:42.171875
1402,104.82,2022-08-17 14:37:42.187500
1403,97.64,2022-08-17 14:37:42.203125
1404,86.96,2022-08-17 14:37:42.218750
1405,71.72,2022-08-17 14:37:42.234375
1406,51.38,2022-08-17 14:37:42.250000
1407,25.94,2022-08-17 14:37:42.265625
1408,-3.83,2022-08-17 14:37:42.281250
1409,-36.26,2022-08-17 14:37:42.296875
1410,-69.03,2022-08-17 14:37:42.312500
1411,-99.53,2022-08-17 14:37:42.328125
1412,-125.46,2022-08-17 14:37:42.343750
1413,-145.31,2022-08-17 14:37:42.359375
1414,-158.57,2022-08-17 14:37:42.375000
1415,-165.65,2022-08-17 14:37:42.390625
1416,-167.44,2022-08-17 14:37:42.406250
1417,-164.78,2022-08-17 14:37:42.421875
1418,-158.09,2022-08-17 14:37:42.437500
1419,-147.28,2022-08-17 14:37:42.453125
1420,-132.11,2022-08-17 14:37:42.468750
1421,-112.82,2022-08-17 14:37:42.484375
1422,-90.59,2022-08-17 14:37:42.500000
1423,-67.57,2022-08-17 14:37:42.515625
1424,-46.4,2022-08-17 14:37:42.531250
1425,-29.46,2022-08-17 14:37:42.546875
1426,-18.05,2022-08-17 14:37:42.562500
1427,-12.1,2022-08-17 14:37:42.578125
1428,-10.3,2022-08-17 14:37:42.593750
1429,-10.52,2022-08-17 14:37:42.609375
1430,-10.5,2022-08-17 14:37:42.625000
1431,-8.44,2022-08-17 14:37:42.640625
1432,-3.49,2022-08-17 14:37:42.656250
1433,3.99,2022-08-17 14:37:42.671875
1434,12.52,2022-08-17 14:37:42.687500
1435,19.9,2022-08-17 14:37:42.703125
1436,24.04,2022-08-17 14:37:42.718750
1437,23.86,2022-08-17 14:37:42.734375
1438,20.0,2022-08-17 14:37:42.750000
1439,14.62,2022-08-17 14:37:42.765625
1440,10.71,2022-08-17 14:37:42.781250
1441,10.79,2022-08-17 14:37:42.796875
1442,15.82,2022-08-17 14:37:42.812500
1443,24.9,2022-08-17 14:37:42.828125
1444,35.93,2022-08-17 14:37:42.843750
1445,46.63,2022-08-17 14:37:42.859375
1446,55.28,2022-08-17 14:37:42.875000
1447,61.14,2022-08-17 14:37:42.890625
1448,63.96,2022-08-17 14:37:42.906250
1449,63.34,2022-08-17 14:37:42.921875
1450,58.52,2022-08-17 14:37:42.937500
1451,48.66,2022-08-17 14:37:42.953125
1452,33.22,2022-08-17 14:37:42.968750
1453,12.06,2022-08-17 14:37:42.984375
1454,-14.4,2022-08-17 14:37:43.000000
1455,-45.02,2022-08-17 14:37:43.015625
1456,-77.19,2022-08-17 14:37:43.031250
1457,-105.95,2022-08-17 14:37:43.046875
1458,-123.83,2022-08-17 14:37:43.062500
1459,-122.35,2022-08-17 14:37:43.078125
1460,-95.23,2022-08-17 14:37:43.093750
1461,-42.15,2022-08-17 14:37:43.109375
1462,28.88,2022-08-17 14:37:43.125000
1463,102.53,2022-08-17 14:37:43.140625
1464,160.69,2022-08-17 14:37:43.156250
1465,189.07,2022-08-17 14:37:43.171875
1466,182.7,2022-08-17 14:37:43.187500
1467,148.02,2022-08-17 14:37:43.203125
1468,100.4,2022-08-17 14:37:43.218750
1469,58.2,2022-08-17 14:37:43.234375
1470,36.11,2022-08-17 14:37:43.250000
1471,40.33,2022-08-17 14:37:43.265625
1472,67.3,2022-08-17 14:37:43.281250
1473,106.12,2022-08-17 14:37:43.296875
1474,143.21,2022-08-17 14:37:43.312500
1475,167.12,2022-08-17 14:37:43.328125
1476,172.1,2022-08-17 14:37:43.343750
1477,159.03,2022-08-17 14:37:43.359375
1478,133.75,2022-08-17 14:37:43.375000
1479,104.24,2022-08-17 14:37:43.390625
1480,77.78,2022-08-17 14:37:43.406250
1481,58.98,2022-08-17 14:37:43.421875
1482,49.36,2022-08-17 14:37:43.437500
1483,48.06,2022-08-17 14:37:43.453125
1484,52.95,2022-08-17 14:37:43.468750
1485,61.41,2022-08-17 14:37:43.484375
1486,70.69,2022-08-17 14:37:43.500000
1487,77.94,2022-08-17 14:37:43.515625
1488,80.29,2022-08-17 14:37:43.531250
1489,75.51,2022-08-17 14:37:43.546875
1490,62.92,2022-08-17 14:37:43.562500
1491,44.02,2022-08-17 14:37:43.578125
1492,22.53,2022-08-17 14:37:43.593750
1493,3.33,2022-08-17 14:37:43.609375
1494,-9.13,2022-08-17 14:37:43.625000
1495,-12.45,2022-08-17 14:37:43.640625
1496,-7.21,2022-08-17 14:37:43.656250
1497,3.32,2022-08-17 14:37:43.671875
1498,14.4,2022-08-17 14:37:43.687500
1499,21.41,2022-08-17 14:37:43.703125
1500,21.39,2022-08-17 14:37:43.718750
1501,13.88,2022-08-17 14:37:43.734375
1502,0.75,2022-08-17 14:37:43.750000
1503,-14.57,2022-08-17 14:37:43.765625
1504,-28.26,2022-08-17 14:37:43.781250
1505,-37.31,2022-08-17 14:37:43.796875
1506,-40.34,2022-08-17 14:37:43.812500
1507,-38.04,2022-08-17 14:37:43.828125
1508,-33.07,2022-08-17 14:37:43.843750
1509,-29.07,2022-08-17 14:37:43.859375
1510,-29.37,2022-08-17 14:37:43.875000
1511,-35.5,2022-08-17 14:37:43.890625
1512,-46.54,2022-08-17 14:37:43.906250
1513,-59.6,2022-08-17 14:37:43.921875
1514,-71.16,2022-08-17 14:37:43.937500
1515,-78.77,2022-08-17 14:37:43.953125
1516,-82.09,2022-08-17 14:37:43.968750
1517,-82.69,2022-08-17 14:37:43.984375
1518,-82.76,2022-08-17 14:37:44.000000
1519,-83.49,2022-08-17 14:37:44.015625
1520,-84.11,2022-08-17 14:37:44.031250
1521,-82.18,2022-08-17 14:37:44.046875
1522,-74.91,2022-08-17 14:37:44.062500
1523,-60.88,2022-08-17 14:37:44.078125
1524,-40.94,2022-08-17 14:37:44.093750
1525,-18.06,2022-08-17 14:37:44.109375
1526,3.82,2022-08-17 14:37:44.125000
1527,21.23,2022-08-17 14:37:44.140625
1528,32.2,2022-08-17 14:37:44.156250
1529,36.77,2022-08-17 14:37:44.171875
1530,36.77,2022-08-17 14:37:44.187500
1531,35.42,2022-08-17 14:37:44.203125
1532,36.54,2022-08-17 14:37:44.218750
1533,43.87,2022-08-17 14:37:44.234375
1534,60.29,2022-08-17 14:37:44.250000
1535,86.69,2022-08-17 14:37:44.265625
1536,121.22,2022-08-17 14:37:44.281250
1537,159.2,2022-08-17 14:37:44.296875
1538,194.4,2022-08-17 14:37:44.312500
1539,221.32,2022-08-17 14:37:44.328125
1540,237.9,2022-08-17 14:37:44.343750
1541,246.96,2022-08-17 14:37:44.359375
1542,255.49,2022-08-17 14:37:44.375000
1543,271.5,2022-08-17 14:37:44.390625
1544,299.92,2022-08-17 14:37:44.406250
1545,339.51,2022-08-17 14:37:44.421875
1546,382.59,2022-08-17 14:37:44.437500
1547,418.11,2022-08-17 14:37:44.453125
1548,436.3,2022-08-17 14:37:44.468750
1549,432.62,2022-08-17 14:37:44.484375
1550,409.16,2022-08-17 14:37:44.500000
1551,372.54,2022-08-17 14:37:44.515625
1552,330.16,2022-08-17 14:37:44.531250
1553,286.98,2022-08-17 14:37:44.546875
1554,244.51,2022-08-17 14:37:44.562500
1555,202.14,2022-08-17 14:37:44.578125
1556,159.35,2022-08-17 14:37:44.593750
1557,117.38,2022-08-17 14:37:44.609375
1558,79.03,2022-08-17 14:37:44.625000
1559,47.27,2022-08-17 14:37:44.640625
1560,23.02,2022-08-17 14:37:44.656250
1561,4.04,2022-08-17 14:37:44.671875
1562,-14.42,2022-08-17 14:37:44.687500
1563,-37.4,2022-08-17 14:37:44.703125
1564,-67.99,2022-08-17 14:37:44.718750
1565,-106.06,2022-08-17 14:37:44.734375
1566,-148.4,2022-08-17 14:37:44.750000
1567,-190.42,2022-08-17 14:37:44.765625
1568,-227.6,2022-08-17 14:37:44.781250
1569,-257.76,2022-08-17 14:37:44.796875
1570,-281.84,2022-08-17 14:37:44.812500
1571,-303.34,2022-08-17 14:37:44.828125
1572,-326.61,2022-08-17 14:37:44.843750
1573,-355.54,2022-08-17 14:37:44.859375
1574,-392.81,2022-08-17 14:37:44.875000
1575,-439.67,2022-08-17 14:37:44.890625
1576,-495.4,2022-08-17 14:37:44.906250
1577,-555.37,2022-08-17 14:37:44.921875
1578,-612.26,2022-08-17 14:37:44.937500
1579,-657.43,2022-08-17 14:37:44.953125
1580,-683.29,2022-08-17 14:37:44.968750
1581,-685.15,2022-08-17 14:37:44.984375
1582,-662.6,2022-08-17 14:37:45.000000
1583,-619.69,2022-08-17 14:37:45.015625
1584,-563.37,2022-08-17 14:37:45.031250
1585,-500.98,2022-08-17 14:37:45.046875
1586,-435.15,2022-08-17 14:37:45.062500
1587,-366.04,2022-08-17 14:37:45.078125
1588,-293.57,2022-08-17 14:37:45.093750
1589,-219.81,2022-08-17 14:37:45.109375
1590,-148.63,2022-08-17 14:37:45.125000
1591,-84.23,2022-08-17 14:37:45.140625
1592,-29.9,2022-08-17 14:37:45.156250
1593,12.8,2022-08-17 14:37:45.171875
1594,44.08,2022-08-17 14:37:45.187500
1595,69.72,2022-08-17 14:37:45.203125
1596,95.68,2022-08-17 14:37:45.218750
1597,124.97,2022-08-17 14:37:45.234375
1598,156.29,2022-08-17 14:37:45.250000
1599,186.22,2022-08-17 14:37:45.265625
1600,212.24,2022-08-17 14:37:45.281250
1601,233.59,2022-08-17 14:37:45.296875
1602,251.09,2022-08-17 14:37:45.312500
1603,266.54,2022-08-17 14:37:45.328125
1604,287.6,2022-08-17 14:37:45.343750
1605,321.36,2022-08-17 14:37:45.359375
1606,370.56,2022-08-17 14:37:45.375000
1607,431.94,2022-08-17 14:37:45.390625
1608,499.3,2022-08-17 14:37:45.406250
1609,567.7,2022-08-17 14:37:45.421875
1610,635.08,2022-08-17 14:37:45.437500
1611,701.61,2022-08-17 14:37:45.453125
1612,734.35,2022-08-17 14:37:45.468750
1613,707.77,2022-08-17 14:37:45.484375
1614,617.21,2022-08-17 14:37:45.500000
1615,482.76,2022-08-17 14:37:45.515625
1616,331.58,2022-08-17 14:37:45.531250
1617,182.95,2022-08-17 14:37:45.546875
1618,48.22,2022-08-17 14:37:45.562500
1619,-64.97,2022-08-17 14:37:45.578125
1620,-151.89,2022-08-17 14:37:45.593750
1621,-211.9,2022-08-17 14:37:45.609375
1622,-243.97,2022-08-17 14:37:45.625000
1623,-251.06,2022-08-17 14:37:45.640625
1624,-240.48,2022-08-17 14:37:45.656250
1625,-222.17,2022-08-17 14:37:45.671875
1626,-204.6,2022-08-17 14:37:45.687500
1627,-192.03,2022-08-17 14:37:45.703125
1628,-185.11,2022-08-17 14:37:45.718750
1629,-183.34,2022-08-17 14:37:45.734375
1630,-186.01,2022-08-17 14:37:45.750000
1631,-188.6,2022-08-17 14:37:45.765625
1632,-186.82,2022-08-17 14:37:45.781250
1633,-179.15,2022-08-17 14:37:45.796875
1634,-167.66,2022-08-17 14:37:45.812500
1635,-155.65,2022-08-17 14:37:45.828125
1636,-145.53,2022-08-17 14:37:45.843750
1637,-138.22,2022-08-17 14:37:45.859375
1638,-134.6,2022-08-17 14:37:45.875000
1639,-135.06,2022-08-17 14:37:45.890625
1640,-136.34,2022-08-17 14:37:45.906250
1641,-133.65,2022-08-17 14:37:45.921875
1642,-122.26,2022-08-17 14:37:45.937500
1643,-99.51,2022-08-17 14:37:45.953125
1644,-65.56,2022-08-17 14:37:45.968750
1645,-23.76,2022-08-17 14:37:45.984375
1646,20.75,2022-08-17 14:37:46.000000
1647,60.62,2022-08-17 14:37:46.015625
1648,89.4,2022-08-17 14:37:46.031250
1649,105.16,2022-08-17 14:37:46.046875
1650,109.8,2022-08-17 14:37:46.062500
1651,107.18,2022-08-17 14:37:46.078125
1652,100.42,2022-08-17 14:37:46.093750
1653,90.35,2022-08-17 14:37:46.109375
1654,74.56,2022-08-17 14:37:46.125000
1655,53.56,2022-08-17 14:37:46.140625
1656,28.48,2022-08-17 14:37:46.156250
1657,3.27,2022-08-17 14:37:46.171875
1658,-15.68,2022-08-17 14:37:46.187500
1659,-22.87,2022-08-17 14:37:46.203125
1660,-17.05,2022-08-17 14:37:46.218750
1661,-2.38,2022-08-17 14:37:46.234375
1662,13.42,2022-08-17 14:37:46.250000
1663,22.9,2022-08-17 14:37:46.265625
1664,22.95,2022-08-17 14:37:46.281250
1665,15.47,2022-08-17 14:37:46.296875
1666,6.41,2022-08-17 14:37:46.312500
1667,2.22,2022-08-17 14:37:46.328125
1668,6.42,2022-08-17 14:37:46.343750
1669,18.23,2022-08-17 14:37:46.359375
1670,33.38,2022-08-17 14:37:46.375000
1671,45.81,2022-08-17 14:37:46.390625
1672,50.14,2022-08-17 14:37:46.406250
1673,43.3,2022-08-17 14:37:46.421875
1674,25.23,2022-08-17 14:37:46.437500
1675,-0.41,2022-08-17 14:37:46.453125
1676,-26.98,2022-08-17 14:37:46.468750
1677,-47.52,2022-08-17 14:37:46.484375
1678,-57.24,2022-08-17 14:37:46.500000
1679,-55.71,2022-08-17 14:37:46.515625
1680,-46.54,2022-08-17 14:37:46.531250
1681,-35.01,2022-08-17 14:37:46.546875
1682,-24.86,2022-08-17 14:37:46.562500
1683,-16.66,2022-08-17 14:37:46.578125
1684,-8.68,2022-08-17 14:37:46.593750
1685,-0.28,2022-08-17 14:37:46.609375
1686,6.01,2022-08-17 14:37:46.625000
1687,4.83,2022-08-17 14:37:46.640625
1688,-8.06,2022-08-17 14:37:46.656250
1689,-31.83,2022-08-17 14:37:46.671875
1690,-59.47,2022-08-17 14:37:46.687500
1691,-80.8,2022-08-17 14:37:46.703125
1692,-87.94,2022-08-17 14:37:46.718750
1693,-79.82,2022-08-17 14:37:46.734375
1694,-62.39,2022-08-17 14:37:46.750000
1695,-44.55,2022-08-17 14:37:46.765625
1696,-34.32,2022-08-17 14:37:46.781250
1697,-33.63,2022-08-17 14:37:46.796875
1698,-38.9,2022-08-17 14:37:46.812500
1699,-44.71,2022-08-17 14:37:46.828125
1700,-47.82,2022-08-17 14:37:46.843750
1701,-48.11,2022-08-17 14:37:46.859375
1702,-46.97,2022-08-17 14:37:46.875000
1703,-44.54,2022-08-17 14:37:46.890625
1704,-38.06,2022-08-17 14:37:46.906250
1705,-23.32,2022-08-17 14:37:46.921875
1706,2.72,2022-08-17 14:37:46.937500
1707,38.4,2022-08-17 14:37:46.953125
1708,77.03,2022-08-17 14:37:46.968750
1709,108.33,2022-08-17 14:37:46.984375
1710,122.61,2022-08-17 14:37:47.000000
1711,114.61,2022-08-17 14:37:47.015625
1712,85.55,2022-08-17 14:37:47.031250
1713,44.21,2022-08-17 14:37:47.046875
1714,1.5,2022-08-17 14:37:47.062500
1715,-33.17,2022-08-17 14:37:47.078125
1716,-55.09,2022-08-17 14:37:47.093750
1717,-64.57,2022-08-17 14:37:47.109375
1718,-65.23,2022-08-17 14:37:47.125000
1719,-61.1,2022-08-17 14:37:47.140625
1720,-54.8,2022-08-17 14:37:47.156250
1721,-47.16,2022-08-17 14:37:47.171875
1722,-37.92,2022-08-17 14:37:47.187500
1723,-27.81,2022-08-17 14:37:47.203125
1724,-18.83,2022-08-17 14:37:47.218750
1725,-13.91,2022-08-17 14:37:47.234375
1726,-15.1,2022-08-17 14:37:47.250000
1727,-21.68,2022-08-17 14:37:47.265625
1728,-29.43,2022-08-17 14:37:47.281250
1729,-32.02,2022-08-17 14:37:47.296875
1730,-23.65,2022-08-17 14:37:47.312500
1731,-2.08,2022-08-17 14:37:47.328125
1732,29.18,2022-08-17 14:37:47.343750
1733,62.11,2022-08-17 14:37:47.359375
1734,87.5,2022-08-17 14:37:47.375000
1735,98.46,2022-08-17 14:37:47.390625
1736,94.27,2022-08-17 14:37:47.406250
1737,79.57,2022-08-17 14:37:47.421875
1738,61.68,2022-08-17 14:37:47.437500
1739,47.16,2022-08-17 14:37:47.453125
1740,39.03,2022-08-17 14:37:47.468750
1741,36.35,2022-08-17 14:37:47.484375
1742,35.87,2022-08-17 14:37:47.500000
1743,34.61,2022-08-17 14:37:47.515625
1744,31.0,2022-08-17 14:37:47.531250
1745,25.79,2022-08-17 14:37:47.546875
1746,20.55,2022-08-17 14:37:47.562500
1747,16.75,2022-08-17 14:37:47.578125
1748,15.2,2022-08-17 14:37:47.593750
1749,16.16,2022-08-17 14:37:47.609375
1750,19.14,2022-08-17 14:37:47.625000
1751,23.27,2022-08-17 14:37:47.640625
1752,26.81,2022-08-17 14:37:47.656250
1753,26.76,2022-08-17 14:37:47.671875
1754,20.01,2022-08-17 14:37:47.687500
1755,4.16,2022-08-17 14:37:47.703125
1756,-21.04,2022-08-17 14:37:47.718750
1757,-52.73,2022-08-17 14:37:47.734375
1758,-85.2,2022-08-17 14:37:47.750000
1759,-111.49,2022-08-17 14:37:47.765625
1760,-125.49,2022-08-17 14:37:47.781250
1761,-123.86,2022-08-17 14:37:47.796875
1762,-106.86,2022-08-17 14:37:47.812500
1763,-77.91,2022-08-17 14:37:47.828125
1764,-42.56,2022-08-17 14:37:47.843750
1765,-6.58,2022-08-17 14:37:47.859375
1766,25.05,2022-08-17 14:37:47.875000
1767,48.83,2022-08-17 14:37:47.890625
1768,63.65,2022-08-17 14:37:47.906250
1769,70.05,2022-08-17 14:37:47.921875
1770,69.87,2022-08-17 14:37:47.937500
1771,65.5,2022-08-17 14:37:47.953125
1772,59.1,2022-08-17 14:37:47.968750
1773,52.05,2022-08-17 14:37:47.984375
1774,44.72,2022-08-17 14:37:48.000000
1775,36.89,2022-08-17 14:37:48.015625
1776,28.42,2022-08-17 14:37:48.031250
1777,20.32,2022-08-17 14:37:48.046875
1778,14.24,2022-08-17 14:37:48.062500
1779,11.49,2022-08-17 14:37:48.078125
1780,11.78,2022-08-17 14:37:48.093750
1781,11.97,2022-08-17 14:37:48.109375
1782,6.96,2022-08-17 14:37:48.125000
1783,-7.64,2022-08-17 14:37:48.140625
1784,-32.76,2022-08-17 14:37:48.156250
1785,-64.97,2022-08-17 14:37:48.171875
1786,-97.39,2022-08-17 14:37:48.187500
1787,-122.49,2022-08-17 14:37:48.203125
1788,-134.68,2022-08-17 14:37:48.218750
1789,-131.45,2022-08-17 14:37:48.234375
1790,-113.27,2022-08-17 14:37:48.250000
1791,-82.34,2022-08-17 14:37:48.265625
1792,-41.85,2022-08-17 14:37:48.281250
1793,3.8,2022-08-17 14:37:48.296875
1794,48.87,2022-08-17 14:37:48.312500
1795,86.89,2022-08-17 14:37:48.328125
1796,112.41,2022-08-17 14:37:48.343750
1797,122.46,2022-08-17 14:37:48.359375
1798,118.86,2022-08-17 14:37:48.375000
1799,106.3,2022-08-17 14:37:48.390625
1800,90.01,2022-08-17 14:37:48.406250
1801,73.6,2022-08-17 14:37:48.421875
1802,58.3,2022-08-17 14:37:48.437500
1803,43.51,2022-08-17 14:37:48.453125
1804,28.13,2022-08-17 14:37:48.468750
1805,10.98,2022-08-17 14:37:48.484375
1806,-8.13,2022-08-17 14:37:48.500000
1807,-28.39,2022-08-17 14:37:48.515625
1808,-48.09,2022-08-17 14:37:48.531250
1809,-64.59,2022-08-17 14:37:48.546875
1810,-74.5,2022-08-17 14:37:48.562500
1811,-75.16,2022-08-17 14:37:48.578125
1812,-65.28,2022-08-17 14:37:48.593750
1813,-47.66,2022-08-17 14:37:48.609375
1814,-27.48,2022-08-17 14:37:48.625000
1815,-10.14,2022-08-17 14:37:48.640625
1816,1.16,2022-08-17 14:37:48.656250
1817,6.89,2022-08-17 14:37:48.671875
1818,10.34,2022-08-17 14:37:48.687500
1819,15.37,2022-08-17 14:37:48.703125
1820,23.68,2022-08-17 14:37:48.718750
1821,33.62,2022-08-17 14:37:48.734375
1822,41.23,2022-08-17 14:37:48.750000
1823,43.17,2022-08-17 14:37:48.765625
1824,39.24,2022-08-17 14:37:48.781250
1825,32.42,2022-08-17 14:37:48.796875
1826,26.55,2022-08-17 14:37:48.812500
1827,23.4,2022-08-17 14:37:48.828125
1828,21.24,2022-08-17 14:37:48.843750
1829,16.17,2022-08-17 14:37:48.859375
1830,5.45,2022-08-17 14:37:48.875000
1831,-9.61,2022-08-17 14:37:48.890625
1832,-23.27,2022-08-17 14:37:48.906250
1833,-28.6,2022-08-17 14:37:48.921875
1834,-22.13,2022-08-17 14:37:48.937500
1835,-6.51,2022-08-17 14:37:48.953125
1836,10.49,2022-08-17 14:37:48.968750
1837,20.02,2022-08-17 14:37:48.984375
1838,16.85,2022-08-17 14:37:49.000000
1839,1.68,2022-08-17 14:37:49.015625
1840,-19.91,2022-08-17 14:37:49.031250
1841,-40.48,2022-08-17 14:37:49.046875
1842,-54.78,2022-08-17 14:37:49.062500
1843,-61.72,2022-08-17 14:37:49.078125
1844,-63.26,2022-08-17 14:37:49.093750
1845,-62.1,2022-08-17 14:37:49.109375
1846,-60.03,2022-08-17 14:37:49.125000
1847,-57.3,2022-08-17 14:37:49.140625
1848,-53.45,2022-08-17 14:37:49.156250
1849,-48.38,2022-08-17 14:37:49.171875
1850,-42.7,2022-08-17 14:37:49.187500
1851,-37.54,2022-08-17 14:37:49.203125
1852,-34.18,2022-08-17 14:37:49.218750
1853,-33.02,2022-08-17 14:37:49.234375
1854,-33.4,2022-08-17 14:37:49.250000
1855,-34.13,2022-08-17 14:37:49.265625
1856,-33.67,2022-08-17 14:37:49.281250
1857,-31.01,2022-08-17 14:37:49.296875
1858,-26.35,2022-08-17 14:37:49.312500
1859,-21.48,2022-08-17 14:37:49.328125
1860,-18.77,2022-08-17 14:37:49.343750
1861,-19.47,2022-08-17 14:37:49.359375
1862,-22.03,2022-08-17 14:37:49.375000
1863,-21.92,2022-08-17 14:37:49.390625
1864,-14.11,2022-08-17 14:37:49.406250
1865,4.53,2022-08-17 14:37:49.421875
1866,32.7,2022-08-17 14:37:49.437500
1867,64.84,2022-08-17 14:37:49.453125
1868,93.4,2022-08-17 14:37:49.468750
1869,112.33,2022-08-17 14:37:49.484375
1870,119.23,2022-08-17 14:37:49.500000
1871,114.05,2022-08-17 14:37:49.515625
1872,99.67,2022-08-17 14:37:49.531250
1873,77.94,2022-08-17 14:37:49.546875
1874,50.08,2022-08-17 14:37:49.562500
1875,18.47,2022-08-17 14:37:49.578125
1876,-11.71,2022-08-17 14:37:49.593750
1877,-33.2,2022-08-17 14:37:49.609375
1878,-39.59,2022-08-17 14:37:49.625000
1879,-28.96,2022-08-17 14:37:49.640625
1880,-5.51,2022-08-17 14:37:49.656250
1881,22.16,2022-08-17 14:37:49.671875
1882,44.82,2022-08-17 14:37:49.687500
1883,57.07,2022-08-17 14:37:49.703125
1884,58.68,2022-08-17 14:37:49.718750
1885,53.46,2022-08-17 14:37:49.734375
1886,46.12,2022-08-17 14:37:49.750000
1887,39.76,2022-08-17 14:37:49.765625
1888,35.07,2022-08-17 14:37:49.781250
1889,31.5,2022-08-17 14:37:49.796875
1890,28.89,2022-08-17 14:37:49.812500
1891,27.8,2022-08-17 14:37:49.828125
1892,28.91,2022-08-17 14:37:49.843750
1893,31.66,2022-08-17 14:37:49.859375
1894,33.85,2022-08-17 14:37:49.875000
1895,31.86,2022-08-17 14:37:49.890625
1896,22.29,2022-08-17 14:37:49.906250
1897,3.71,2022-08-17 14:37:49.921875
1898,-21.9,2022-08-17 14:37:49.937500
1899,-49.54,2022-08-17 14:37:49.953125
1900,-73.12,2022-08-17 14:37:49.968750
1901,-87.61,2022-08-17 14:37:49.984375
1902,-90.87,2022-08-17 14:37:50.000000
1903,-84.04,2022-08-17 14:37:50.015625
1904,-70.67,2022-08-17 14:37:50.031250
1905,-54.97,2022-08-17 14:37:50.046875
1906,-40.18,2022-08-17 14:37:50.062500
1907,-27.86,2022-08-17 14:37:50.078125
1908,-18.14,2022-08-17 14:37:50.093750
1909,-10.59,2022-08-17 14:37:50.109375
1910,-4.9,2022-08-17 14:37:50.125000
1911,-1.08,2022-08-17 14:37:50.140625
1912,0.78,2022-08-17 14:37:50.156250
1913,0.82,2022-08-17 14:37:50.171875
1914,-0.44,2022-08-17 14:37:50.187500
1915,-2.08,2022-08-17 14:37:50.203125
1916,-3.13,2022-08-17 14:37:50.218750
1917,-3.05,2022-08-17 14:37:50.234375
1918,-1.93,2022-08-17 14:37:50.250000
1919,-0.33,2022-08-17 14:37:50.265625
1920,1.0,2022-08-17 14:37:50.281250
1921,1.59,2022-08-17 14:37:50.296875
1922,1.35,2022-08-17 14:37:50.312500
1923,0.49,2022-08-17 14:37:50.328125
1924,-0.76,2022-08-17 14:37:50.343750
1925,-2.33,2022-08-17 14:37:50.359375
1926,-4.46,2022-08-17 14:37:50.375000
1927,-7.34,2022-08-17 14:37:50.390625
1928,-10.75,2022-08-17 14:37:50.406250
1929,-13.93,2022-08-17 14:37:50.421875
1930,-15.61,2022-08-17 14:37:50.437500
1931,-14.38,2022-08-17 14:37:50.453125
1932,-9.31,2022-08-17 14:37:50.468750
1933,-0.51,2022-08-17 14:37:50.484375
1934,10.79,2022-08-17 14:37:50.500000
1935,22.36,2022-08-17 14:37:50.515625
1936,31.87,2022-08-17 14:37:50.531250
1937,37.62,2022-08-17 14:37:50.546875
1938,39.0,2022-08-17 14:37:50.562500
1939,36.57,2022-08-17 14:37:50.578125
1940,31.52,2022-08-17 14:37:50.593750
1941,25.22,2022-08-17 14:37:50.609375
1942,18.71,2022-08-17 14:37:50.625000
1943,12.58,2022-08-17 14:37:50.640625
1944,7.18,2022-08-17 14:37:50.656250
1945,2.81,2022-08-17 14:37:50.671875
1946,-0.23,2022-08-17 14:37:50.687500
1947,-1.78,2022-08-17 14:37:50.703125
1948,-1.99,2022-08-17 14:37:50.718750
1949,-1.42,2022-08-17 14:37:50.734375
1950,-0.7,2022-08-17 14:37:50.750000
1951,-0.32,2022-08-17 14:37:50.765625
1952,-0.27,2022-08-17 14:37:50.781250
1953,-0.09,2022-08-17 14:37:50.796875
1954,0.82,2022-08-17 14:37:50.812500
1955,2.89,2022-08-17 14:37:50.828125
1956,6.03,2022-08-17 14:37:50.843750
1957,9.67,2022-08-17 14:37:50.859375
1958,12.95,2022-08-17 14:37:50.875000
1959,15.0,2022-08-17 14:37:50.890625
1960,15.21,2022-08-17 14:37:50.906250
1961,13.41,2022-08-17 14:37:50.921875
1962,9.82,2022-08-17 14:37:50.937500
1963,4.93,2022-08-17 14:37:50.953125
1964,-0.41,2022-08-17 14:37:50.968750
1965,-5.31,2022-08-17 14:37:50.984375
1966,-9.05,2022-08-17 14:37:51.000000
1967,-11.34,2022-08-17 14:37:51.015625
1968,-12.28,2022-08-17 14:37:51.031250
1969,-12.34,2022-08-17 14:37:51.046875
1970,-12.11,2022-08-17 14:37:51.062500
1971,-12.14,2022-08-17 14:37:51.078125
1972,-12.73,2022-08-17 14:37:51.093750
1973,-13.91,2022-08-17 14:37:51.109375
1974,-15.51,2022-08-17 14:37:51.125000
1975,-17.15,2022-08-17 14:37:51.140625
1976,-18.51,2022-08-17 14:37:51.156250
1977,-19.31,2022-08-17 14:37:51.171875
1978,-19.57,2022-08-17 14:37:51.187500
1979,-19.64,2022-08-17 14:37:51.203125
1980,-20.12,2022-08-17 14:37:51.218750
1981,-21.68,2022-08-17 14:37:51.234375
1982,-24.7,2022-08-17 14:37:51.250000
1983,-29.1,2022-08-17 14:37:51.265625
1984,-34.17,2022-08-17 14:37:51.281250
1985,-38.66,2022-08-17 14:37:51.296875
1986,-41.0,2022-08-17 14:37:51.312500
1987,-39.72,2022-08-17 14:37:51.328125
1988,-33.85,2022-08-17 14:37:51.343750
1989,-23.26,2022-08-17 14:37:51.359375
1990,-8.76,2022-08-17 14:37:51.375000
1991,8.06,2022-08-17 14:37:51.390625
1992,25.15,2022-08-17 14:37:51.406250
1993,40.54,2022-08-17 14:37:51.421875
1994,52.74,2022-08-17 14:37:51.437500
1995,61.01,2022-08-17 14:37:51.453125
1996,65.33,2022-08-17 14:37:51.468750
1997,66.13,2022-08-17 14:37:51.484375
1998,64.07,2022-08-17 14:37:51.500000
1999,59.8,2022-08-17 14:37:51.515625
2000,53.96,2022-08-17 14:37:51.531250
2001,47.2,2022-08-17 14:37:51.546875
2002,40.16,2022-08-17 14:37:51.562500
2003,33.4,2022-08-17 14:37:51.578125
2004,27.35,2022-08-17 14:37:51.593750
2005,22.16,2022-08-17 14:37:51.609375
2006,17.79,2022-08-17 14:37:51.625000
2007,14.15,2022-08-17 14:37:51.640625
2008,11.17,2022-08-17 14:37:51.656250
2009,8.96,2022-08-17 14:37:51.671875
2010,7.68,2022-08-17 14:37:51.687500
2011,7.45,2022-08-17 14:37:51.703125
2012,8.21,2022-08-17 14:37:51.718750
2013,9.57,2022-08-17 14:37:51.734375
2014,10.95,2022-08-17 14:37:51.750000
2015,11.7,2022-08-17 14:37:51.765625
2016,11.3,2022-08-17 14:37:51.781250
2017,9.54,2022-08-17 14:37:51.796875
2018,6.56,2022-08-17 14:37:51.812500
2019,2.74,2022-08-17 14:37:51.828125
2020,-1.44,2022-08-17 14:37:51.843750
2021,-5.69,2022-08-17 14:37:51.859375
2022,-9.98,2022-08-17 14:37:51.875000
2023,-14.49,2022-08-17 14:37:51.890625
2024,-19.42,2022-08-17 14:37:51.906250
2025,-24.83,2022-08-17 14:37:51.921875
2026,-30.48,2022-08-17 14:37:51.937500
2027,-35.92,2022-08-17 14:37:51.953125
2028,-40.72,2022-08-17 14:37:51.968750
2029,-44.62,2022-08-17 14:37:51.984375
2030,-47.8,2022-08-17 14:37:52.000000
2031,-50.77,2022-08-17 14:37:52.015625
2032,-54.16,2022-08-17 14:37:52.031250
2033,-58.43,2022-08-17 14:37:52.046875
2034,-63.69,2022-08-17 14:37:52.062500
2035,-69.61,2022-08-17 14:37:52.078125
2036,-75.5,2022-08-17 14:37:52.093750
2037,-80.45,2022-08-17 14:37:52.109375
2038,-83.43,2022-08-17 14:37:52.125000
2039,-83.55,2022-08-17 14:37:52.140625
2040,-80.22,2022-08-17 14:37:52.156250
2041,-73.26,2022-08-17 14:37:52.171875
2042,-63.04,2022-08-17 14:37:52.187500
2043,-50.37,2022-08-17 14:37:52.203125
2044,-36.33,2022-08-17 14:37:52.218750
2045,-22.11,2022-08-17 14:37:52.234375
2046,-8.65,2022-08-17 14:37:52.250000
2047,3.47,2022-08-17 14:37:52.265625
2048,13.98,2022-08-17 14:37:52.281250
2049,22.91,2022-08-17 14:37:52.296875
2050,30.39,2022-08-17 14:37:52.312500
2051,36.51,2022-08-17 14:37:52.328125
2052,41.36,2022-08-17 14:37:52.343750
2053,45.07,2022-08-17 14:37:52.359375
2054,47.79,2022-08-17 14:37:52.375000
2055,49.76,2022-08-17 14:37:52.390625
2056,51.15,2022-08-17 14:37:52.406250
2057,52.04,2022-08-17 14:37:52.421875
2058,52.41,2022-08-17 14:37:52.437500
2059,52.12,2022-08-17 14:37:52.453125
2060,51.06,2022-08-17 14:37:52.468750
2061,49.26,2022-08-17 14:37:52.484375
2062,46.97,2022-08-17 14:37:52.500000
2063,44.48,2022-08-17 14:37:52.515625
2064,42.07,2022-08-17 14:37:52.531250
2065,39.83,2022-08-17 14:37:52.546875
2066,37.64,2022-08-17 14:37:52.562500
2067,35.21,2022-08-17 14:37:52.578125
2068,32.2,2022-08-17 14:37:52.593750
2069,28.41,2022-08-17 14:37:52.609375
2070,23.8,2022-08-17 14:37:52.625000
2071,18.59,2022-08-17 14:37:52.640625
2072,13.0,2022-08-17 14:37:52.656250
2073,7.25,2022-08-17 14:37:52.671875
2074,1.43,2022-08-17 14:37:52.687500
2075,-4.45,2022-08-17 14:37:52.703125
2076,-10.43,2022-08-17 14:37:52.718750
2077,-16.51,2022-08-17 14:37:52.734375
2078,-22.57,2022-08-17 14:37:52.750000
2079,-28.44,2022-08-17 14:37:52.765625
2080,-33.88,2022-08-17 14:37:52.781250
2081,-38.71,2022-08-17 14:37:52.796875
2082,-42.79,2022-08-17 14:37:52.812500
2083,-46.1,2022-08-17 14:37:52.828125
2084,-48.85,2022-08-17 14:37:52.843750
2085,-51.39,2022-08-17 14:37:52.859375
2086,-54.32,2022-08-17 14:37:52.875000
2087,-58.13,2022-08-17 14:37:52.890625
2088,-63.05,2022-08-17 14:37:52.906250
2089,-68.59,2022-08-17 14:37:52.921875
2090,-73.46,2022-08-17 14:37:52.937500
2091,-75.83,2022-08-17 14:37:52.953125
2092,-73.82,2022-08-17 14:37:52.968750
2093,-66.29,2022-08-17 14:37:52.984375
2094,-53.32,2022-08-17 14:37:53.000000
2095,-36.26,2022-08-17 14:37:53.015625
2096,-17.35,2022-08-17 14:37:53.031250
2097,1.04,2022-08-17 14:37:53.046875
2098,17.09,2022-08-17 14:37:53.062500
2099,29.92,2022-08-17 14:37:53.078125
2100,39.41,2022-08-17 14:37:53.093750
2101,46.03,2022-08-17 14:37:53.109375
2102,50.35,2022-08-17 14:37:53.125000
2103,52.83,2022-08-17 14:37:53.140625
2104,53.81,2022-08-17 14:37:53.156250
2105,53.47,2022-08-17 14:37:53.171875
2106,51.88,2022-08-17 14:37:53.187500
2107,49.14,2022-08-17 14:37:53.203125
2108,45.39,2022-08-17 14:37:53.218750
2109,40.89,2022-08-17 14:37:53.234375
2110,36.18,2022-08-17 14:37:53.250000
2111,31.89,2022-08-17 14:37:53.265625
2112,28.69,2022-08-17 14:37:53.281250
2113,27.05,2022-08-17 14:37:53.296875
2114,26.96,2022-08-17 14:37:53.312500
2115,27.96,2022-08-17 14:37:53.328125
2116,29.24,2022-08-17 14:37:53.343750
2117,29.92,2022-08-17 14:37:53.359375
2118,29.34,2022-08-17 14:37:53.375000
2119,27.41,2022-08-17 14:37:53.390625
2120,24.52,2022-08-17 14:37:53.406250
2121,21.39,2022-08-17 14:37:53.421875
2122,18.77,2022-08-17 14:37:53.437500
2123,17.06,2022-08-17 14:37:53.453125
2124,16.16,2022-08-17 14:37:53.468750
2125,15.46,2022-08-17 14:37:53.484375
2126,13.93,2022-08-17 14:37:53.500000
2127,10.43,2022-08-17 14:37:53.515625
2128,4.09,2022-08-17 14:37:53.531250
2129,-5.56,2022-08-17 14:37:53.546875
2130,-18.24,2022-08-17 14:37:53.562500
2131,-33.02,2022-08-17 14:37:53.578125
2132,-48.57,2022-08-17 14:37:53.593750
2133,-63.45,2022-08-17 14:37:53.609375
2134,-76.46,2022-08-17 14:37:53.625000
2135,-86.82,2022-08-17 14:37:53.640625
2136,-94.02,2022-08-17 14:37:53.656250
2137,-97.74,2022-08-17 14:37:53.671875
2138,-97.81,2022-08-17 14:37:53.687500
2139,-93.95,2022-08-17 14:37:53.703125
2140,-85.94,2022-08-17 14:37:53.718750
2141,-73.97,2022-08-17 14:37:53.734375
2142,-59.04,2022-08-17 14:37:53.750000
2143,-43.3,2022-08-17 14:37:53.765625
2144,-30.03,2022-08-17 14:37:53.781250
2145,-22.75,2022-08-17 14:37:53.796875
2146,-24.01,2022-08-17 14:37:53.812500
2147,-34.03,2022-08-17 14:37:53.828125
2148,-49.54,2022-08-17 14:37:53.843750
2149,-64.02,2022-08-17 14:37:53.859375
2150,-69.17,2022-08-17 14:37:53.875000
2151,-57.61,2022-08-17 14:37:53.890625
2152,-25.66,2022-08-17 14:37:53.906250
2153,24.91,2022-08-17 14:37:53.921875
2154,87.04,2022-08-17 14:37:53.937500
2155,150.41,2022-08-17 14:37:53.953125
2156,204.22,2022-08-17 14:37:53.968750
2157,240.37,2022-08-17 14:37:53.984375
2158,255.5,2022-08-17 14:37:54.000000
2159,251.33,2022-08-17 14:37:54.015625
2160,233.3,2022-08-17 14:37:54.031250
2161,208.2,2022-08-17 14:37:54.046875
2162,182.13,2022-08-17 14:37:54.062500
2163,159.27,2022-08-17 14:37:54.078125
2164,141.6,2022-08-17 14:37:54.093750
2165,128.61,2022-08-17 14:37:54.109375
2166,118.45,2022-08-17 14:37:54.125000
2167,108.87,2022-08-17 14:37:54.140625
2168,98.29,2022-08-17 14:37:54.156250
2169,86.03,2022-08-17 14:37:54.171875
2170,72.23,2022-08-17 14:37:54.187500
2171,57.93,2022-08-17 14:37:54.203125
2172,45.01,2022-08-17 14:37:54.218750
2173,35.81,2022-08-17 14:37:54.234375
2174,31.15,2022-08-17 14:37:54.250000
2175,30.31,2022-08-17 14:37:54.265625
2176,30.97,2022-08-17 14:37:54.281250
2177,30.31,2022-08-17 14:37:54.296875
2178,25.62,2022-08-17 14:37:54.312500
2179,14.69,2022-08-17 14:37:54.328125
2180,-3.16,2022-08-17 14:37:54.343750
2181,-26.63,2022-08-17 14:37:54.359375
2182,-52.33,2022-08-17 14:37:54.375000
2183,-77.07,2022-08-17 14:37:54.390625
2184,-98.67,2022-08-17 14:37:54.406250
2185,-116.97,2022-08-17 14:37:54.421875
2186,-133.63,2022-08-17 14:37:54.437500
2187,-151.91,2022-08-17 14:37:54.453125
2188,-175.91,2022-08-17 14:37:54.468750
2189,-208.52,2022-08-17 14:37:54.484375
2190,-250.48,2022-08-17 14:37:54.500000
2191,-290.79,2022-08-17 14:37:54.515625
2192,-315.15,2022-08-17 14:37:54.531250
2193,-313.37,2022-08-17 14:37:54.546875
2194,-286.66,2022-08-17 14:37:54.562500
2195,-245.4,2022-08-17 14:37:54.578125
2196,-200.71,2022-08-17 14:37:54.593750
2197,-159.38,2022-08-17 14:37:54.609375
2198,-122.88,2022-08-17 14:37:54.625000
2199,-90.8,2022-08-17 14:37:54.640625
2200,-62.64,2022-08-17 14:37:54.656250
2201,-39.87,2022-08-17 14:37:54.671875
2202,-24.5,2022-08-17 14:37:54.687500
2203,-17.15,2022-08-17 14:37:54.703125
2204,-14.94,2022-08-17 14:37:54.718750
2205,-11.92,2022-08-17 14:37:54.734375
2206,-1.58,2022-08-17 14:37:54.750000
2207,20.61,2022-08-17 14:37:54.765625
2208,55.61,2022-08-17 14:37:54.781250
2209,99.96,2022-08-17 14:37:54.796875
2210,146.43,2022-08-17 14:37:54.812500
2211,187.21,2022-08-17 14:37:54.828125
2212,216.46,2022-08-17 14:37:54.843750
2213,232.39,2022-08-17 14:37:54.859375
2214,236.74,2022-08-17 14:37:54.875000
2215,227.28,2022-08-17 14:37:54.890625
2216,208.93,2022-08-17 14:37:54.906250
2217,186.33,2022-08-17 14:37:54.921875
2218,162.95,2022-08-17 14:37:54.937500
2219,141.14,2022-08-17 14:37:54.953125
2220,123.06,2022-08-17 14:37:54.968750
2221,110.0,2022-08-17 14:37:54.984375
2222,101.69,2022-08-17 14:37:55.000000
2223,95.38,2022-08-17 14:37:55.015625
2224,86.49,2022-08-17 14:37:55.031250
2225,71.33,2022-08-17 14:37:55.046875
2226,47.68,2022-08-17 14:37:55.062500
2227,16.69,2022-08-17 14:37:55.078125
2228,-18.55,2022-08-17 14:37:55.093750
2229,-52.36,2022-08-17 14:37:55.109375
2230,-78.47,2022-08-17 14:37:55.125000
2231,-90.65,2022-08-17 14:37:55.140625
2232,-84.3,2022-08-17 14:37:55.156250
2233,-57.96,2022-08-17 14:37:55.171875
2234,-13.99,2022-08-17 14:37:55.187500
2235,39.52,2022-08-17 14:37:55.203125
2236,90.67,2022-08-17 14:37:55.218750
2237,127.17,2022-08-17 14:37:55.234375
2238,140.92,2022-08-17 14:37:55.250000
2239,130.11,2022-08-17 14:37:55.265625
2240,100.55,2022-08-17 14:37:55.281250
2241,62.23,2022-08-17 14:37:55.296875
2242,25.5,2022-08-17 14:37:55.312500
2243,-2.27,2022-08-17 14:37:55.328125
2244,-19.24,2022-08-17 14:37:55.343750
2245,-28.33,2022-08-17 14:37:55.359375
2246,-35.37,2022-08-17 14:37:55.375000
2247,-42.32,2022-08-17 14:37:55.390625
2248,-51.1,2022-08-17 14:37:55.406250
2249,-61.03,2022-08-17 14:37:55.421875
2250,-69.6,2022-08-17 14:37:55.437500
2251,-71.43,2022-08-17 14:37:55.453125
2252,-59.51,2022-08-17 14:37:55.468750
2253,-28.12,2022-08-17 14:37:55.484375
2254,24.23,2022-08-17 14:37:55.500000
2255,93.22,2022-08-17 14:37:55.515625
2256,169.76,2022-08-17 14:37:55.531250
2257,241.91,2022-08-17 14:37:55.546875
2258,298.74,2022-08-17 14:37:55.562500
2259,330.11,2022-08-17 14:37:55.578125
2260,331.53,2022-08-17 14:37:55.593750
2261,305.36,2022-08-17 14:37:55.609375
2262,259.43,2022-08-17 14:37:55.625000
2263,203.41,2022-08-17 14:37:55.640625
2264,145.65,2022-08-17 14:37:55.656250
2265,91.84,2022-08-17 14:37:55.671875
2266,44.52,2022-08-17 14:37:55.687500
2267,4.31,2022-08-17 14:37:55.703125
2268,-33.81,2022-08-17 14:37:55.718750
2269,-74.14,2022-08-17 14:37:55.734375
2270,-117.84,2022-08-17 14:37:55.750000
2271,-162.9,2022-08-17 14:37:55.765625
2272,-206.67,2022-08-17 14:37:55.781250
2273,-247.8,2022-08-17 14:37:55.796875
2274,-285.96,2022-08-17 14:37:55.812500
2275,-321.13,2022-08-17 14:37:55.828125
2276,-352.77,2022-08-17 14:37:55.843750
2277,-385.87,2022-08-17 14:37:55.859375
2278,-424.21,2022-08-17 14:37:55.875000
2279,-468.12,2022-08-17 14:37:55.890625
2280,-514.27,2022-08-17 14:37:55.906250
2281,-558.71,2022-08-17 14:37:55.921875
2282,-599.16,2022-08-17 14:37:55.937500
2283,-634.79,2022-08-17 14:37:55.953125
2284,-665.31,2022-08-17 14:37:55.968750
2285,-653.66,2022-08-17 14:37:55.984375
2286,-579.74,2022-08-17 14:37:56.000000
2287,-450.61,2022-08-17 14:37:56.015625
2288,-297.39,2022-08-17 14:37:56.031250
2289,-152.46,2022-08-17 14:37:56.046875
2290,-33.47,2022-08-17 14:37:56.062500
2291,56.11,2022-08-17 14:37:56.078125
2292,120.32,2022-08-17 14:37:56.093750
2293,165.47,2022-08-17 14:37:56.109375
2294,197.79,2022-08-17 14:37:56.125000
2295,216.58,2022-08-17 14:37:56.140625
2296,221.36,2022-08-17 14:37:56.156250
2297,214.73,2022-08-17 14:37:56.171875
2298,202.63,2022-08-17 14:37:56.187500
2299,191.04,2022-08-17 14:37:56.203125
2300,183.45,2022-08-17 14:37:56.218750
2301,180.69,2022-08-17 14:37:56.234375
2302,182.18,2022-08-17 14:37:56.250000
2303,186.95,2022-08-17 14:37:56.265625
2304,189.68,2022-08-17 14:37:56.281250
2305,186.53,2022-08-17 14:37:56.296875
2306,177.22,2022-08-17 14:37:56.312500
2307,165.04,2022-08-17 14:37:56.328125
2308,153.81,2022-08-17 14:37:56.343750
2309,145.95,2022-08-17 14:37:56.359375
2310,141.96,2022-08-17 14:37:56.375000
2311,141.17,2022-08-17 14:37:56.390625
2312,142.58,2022-08-17 14:37:56.406250
2313,142.4,2022-08-17 14:37:56.421875
2314,137.96,2022-08-17 14:37:56.437500
2315,128.76,2022-08-17 14:37:56.453125
2316,116.57,2022-08-17 14:37:56.468750
2317,103.82,2022-08-17 14:37:56.484375
2318,92.26,2022-08-17 14:37:56.500000
2319,82.55,2022-08-17 14:37:56.515625
2320,74.6,2022-08-17 14:37:56.531250
2321,68.18,2022-08-17 14:37:56.546875
2322,61.71,2022-08-17 14:37:56.562500
2323,54.2,2022-08-17 14:37:56.578125
2324,45.47,2022-08-17 14:37:56.593750
2325,36.57,2022-08-17 14:37:56.609375
2326,28.54,2022-08-17 14:37:56.625000
2327,22.33,2022-08-17 14:37:56.640625
2328,18.33,2022-08-17 14:37:56.656250
2329,16.55,2022-08-17 14:37:56.671875
2330,16.91,2022-08-17 14:37:56.687500
2331,18.82,2022-08-17 14:37:56.703125
2332,22.14,2022-08-17 14:37:56.718750
2333,26.44,2022-08-17 14:37:56.734375
2334,33.78,2022-08-17 14:37:56.750000
2335,43.27,2022-08-17 14:37:56.765625
2336,54.26,2022-08-17 14:37:56.781250
2337,66.19,2022-08-17 14:37:56.796875
2338,78.46,2022-08-17 14:37:56.812500
2339,90.64,2022-08-17 14:37:56.828125
2340,101.66,2022-08-17 14:37:56.843750
2341,112.12,2022-08-17 14:37:56.859375
2342,121.58,2022-08-17 14:37:56.875000
2343,129.77,2022-08-17 14:37:56.890625
2344,136.3,2022-08-17 14:37:56.906250
2345,141.3,2022-08-17 14:37:56.921875
2346,145.01,2022-08-17 14:37:56.937500
2347,147.72,2022-08-17 14:37:56.953125
2348,149.86,2022-08-17 14:37:56.968750
2349,151.97,2022-08-17 14:37:56.984375
2350,154.93,2022-08-17 14:37:57.000000
2351,158.48,2022-08-17 14:37:57.015625
2352,162.62,2022-08-17 14:37:57.031250
2353,167.05,2022-08-17 14:37:57.046875
2354,171.62,2022-08-17 14:37:57.062500
2355,175.9,2022-08-17 14:37:57.078125
2356,179.07,2022-08-17 14:37:57.093750
2357,179.87,2022-08-17 14:37:57.109375
2358,176.16,2022-08-17 14:37:57.125000
2359,171.52,2022-08-17 14:37:57.140625
2360,166.58,2022-08-17 14:37:57.156250
2361,161.51,2022-08-17 14:37:57.171875
2362,156.12,2022-08-17 14:37:57.187500
2363,150.12,2022-08-17 14:37:57.203125
2364,143.11,2022-08-17 14:37:57.218750
2365,134.73,2022-08-17 14:37:57.234375
2366,124.89,2022-08-17 14:37:57.250000
2367,113.92,2022-08-17 14:37:57.265625
2368,102.68,2022-08-17 14:37:57.281250
2369,91.23,2022-08-17 14:37:57.296875
2370,79.76,2022-08-17 14:37:57.312500
2371,68.22,2022-08-17 14:37:57.328125
2372,56.19,2022-08-17 14:37:57.343750
2373,42.99,2022-08-17 14:37:57.359375
2374,27.96,2022-08-17 14:37:57.375000
2375,10.88,2022-08-17 14:37:57.390625
2376,-7.79,2022-08-17 14:37:57.406250
2377,-26.85,2022-08-17 14:37:57.421875
2378,-45.51,2022-08-17 14:37:57.437500
2379,-62.98,2022-08-17 14:37:57.453125
2380,-79.1,2022-08-17 14:37:57.468750
2381,-94.45,2022-08-17 14:37:57.484375
2382,-110.24,2022-08-17 14:37:57.500000
2383,-127.77,2022-08-17 14:37:57.515625
2384,-147.77,2022-08-17 14:37:57.531250
2385,-169.97,2022-08-17 14:37:57.546875
2386,-193.19,2022-08-17 14:37:57.562500
2387,-216.14,2022-08-17 14:37:57.578125
2388,-237.59,2022-08-17 14:37:57.593750
2389,-257.01,2022-08-17 14:37:57.609375
2390,-274.79,2022-08-17 14:37:57.625000
2391,-292.2,2022-08-17 14:37:57.640625
2392,-311.1,2022-08-17 14:37:57.656250
2393,-333.65,2022-08-17 14:37:57.671875
2394,-361.58,2022-08-17 14:37:57.687500
2395,-395.25,2022-08-17 14:37:57.703125
2396,-432.81,2022-08-17 14:37:57.718750
2397,-469.46,2022-08-17 14:37:57.734375
2398,-498.12,2022-08-17 14:37:57.750000
2399,-511.56,2022-08-17 14:37:57.765625
2400,-505.05,2022-08-17 14:37:57.781250
2401,-478.6,2022-08-17 14:37:57.796875
2402,-437.35,2022-08-17 14:37:57.812500
2403,-389.8,2022-08-17 14:37:57.828125
2404,-344.74,2022-08-17 14:37:57.843750
2405,-308.26,2022-08-17 14:37:57.859375
2406,-282.2,2022-08-17 14:37:57.875000
2407,-264.65,2022-08-17 14:37:57.890625
2408,-251.84,2022-08-17 14:37:57.906250
2409,-240.11,2022-08-17 14:37:57.921875
2410,-227.28,2022-08-17 14:37:57.937500
2411,-212.99,2022-08-17 14:37:57.953125
2412,-198.27,2022-08-17 14:37:57.968750
2413,-184.93,2022-08-17 14:37:57.984375
2414,-174.95,2022-08-17 14:37:58.000000
2415,-169.75,2022-08-17 14:37:58.015625
2416,-169.5,2022-08-17 14:37:58.031250
2417,-172.57,2022-08-17 14:37:58.046875
2418,-175.74,2022-08-17 14:37:58.062500
2419,-174.93,2022-08-17 14:37:58.078125
2420,-166.38,2022-08-17 14:37:58.093750
2421,-147.67,2022-08-17 14:37:58.109375
2422,-118.22,2022-08-17 14:37:58.125000
2423,-79.16,2022-08-17 14:37:58.140625
2424,-32.81,2022-08-17 14:37:58.156250
2425,17.65,2022-08-17 14:37:58.171875
2426,68.4,2022-08-17 14:37:58.187500
2427,115.3,2022-08-17 14:37:58.203125
2428,154.39,2022-08-17 14:37:58.218750
2429,182.93,2022-08-17 14:37:58.234375
2430,200.18,2022-08-17 14:37:58.250000
2431,207.61,2022-08-17 14:37:58.265625
2432,208.18,2022-08-17 14:37:58.281250
2433,205.07,2022-08-17 14:37:58.296875
2434,200.53,2022-08-17 14:37:58.312500
2435,195.28,2022-08-17 14:37:58.328125
2436,189.04,2022-08-17 14:37:58.343750
2437,181.33,2022-08-17 14:37:58.359375
2438,172.3,2022-08-17 14:37:58.375000
2439,162.84,2022-08-17 14:37:58.390625
2440,154.19,2022-08-17 14:37:58.406250
2441,147.37,2022-08-17 14:37:58.421875
2442,142.81,2022-08-17 14:37:58.437500
2443,140.45,2022-08-17 14:37:58.453125
2444,140.05,2022-08-17 14:37:58.468750
2445,141.42,2022-08-17 14:37:58.484375
2446,144.35,2022-08-17 14:37:58.500000
2447,148.22,2022-08-17 14:37:58.515625
2448,151.63,2022-08-17 14:37:58.531250
2449,152.58,2022-08-17 14:37:58.546875
2450,148.94,2022-08-17 14:37:58.562500
2451,139.33,2022-08-17 14:37:58.578125
2452,123.7,2022-08-17 14:37:58.593750
2453,103.43,2022-08-17 14:37:58.609375
2454,80.76,2022-08-17 14:37:58.625000
2455,57.92,2022-08-17 14:37:58.640625
2456,36.34,2022-08-17 14:37:58.656250
2457,16.5,2022-08-17 14:37:58.671875
2458,-1.91,2022-08-17 14:37:58.687500
2459,-19.29,2022-08-17 14:37:58.703125
2460,-35.65,2022-08-17 14:37:58.718750
2461,-50.42,2022-08-17 14:37:58.734375
2462,-62.74,2022-08-17 14:37:58.750000
2463,-72.03,2022-08-17 14:37:58.765625
2464,-78.57,2022-08-17 14:37:58.781250
2465,-83.87,2022-08-17 14:37:58.796875
2466,-90.25,2022-08-17 14:37:58.812500
2467,-100.1,2022-08-17 14:37:58.828125
2468,-114.48,2022-08-17 14:37:58.843750
2469,-132.07,2022-08-17 14:37:58.859375
2470,-148.92,2022-08-17 14:37:58.875000
2471,-159.51,2022-08-17 14:37:58.890625
2472,-158.57,2022-08-17 14:37:58.906250
2473,-143.01,2022-08-17 14:37:58.921875
2474,-112.98,2022-08-17 14:37:58.937500
2475,-71.55,2022-08-17 14:37:58.953125
2476,-23.52,2022-08-17 14:37:58.968750
2477,26.14,2022-08-17 14:37:58.984375
2478,73.28,2022-08-17 14:37:59.000000
2479,115.0,2022-08-17 14:37:59.015625
2480,149.43,2022-08-17 14:37:59.031250
2481,175.63,2022-08-17 14:37:59.046875
2482,193.48,2022-08-17 14:37:59.062500
2483,203.64,2022-08-17 14:37:59.078125
2484,207.37,2022-08-17 14:37:59.093750
2485,206.11,2022-08-17 14:37:59.109375
2486,201.13,2022-08-17 14:37:59.125000
2487,193.46,2022-08-17 14:37:59.140625
2488,184.06,2022-08-17 14:37:59.156250
2489,174.18,2022-08-17 14:37:59.171875
2490,165.36,2022-08-17 14:37:59.187500
2491,159.0,2022-08-17 14:37:59.203125
2492,155.78,2022-08-17 14:37:59.218750
2493,155.39,2022-08-17 14:37:59.234375
2494,156.66,2022-08-17 14:37:59.250000
2495,158.3,2022-08-17 14:37:59.265625
2496,159.56,2022-08-17 14:37:59.281250
2497,160.51,2022-08-17 14:37:59.296875
2498,161.7,2022-08-17 14:37:59.312500
2499,163.41,2022-08-17 14:37:59.328125
2500,165.11,2022-08-17 14:37:59.343750
2501,165.45,2022-08-17 14:37:59.359375
2502,162.85,2022-08-17 14:37:59.375000
2503,156.28,2022-08-17 14:37:59.390625
2504,145.9,2022-08-17 14:37:59.406250
2505,132.83,2022-08-17 14:37:59.421875
2506,118.53,2022-08-17 14:37:59.437500
2507,103.91,2022-08-17 14:37:59.453125
2508,88.72,2022-08-17 14:37:59.468750
2509,71.79,2022-08-17 14:37:59.484375
2510,51.79,2022-08-17 14:37:59.500000
2511,28.19,2022-08-17 14:37:59.515625
2512,1.91,2022-08-17 14:37:59.531250
2513,-24.69,2022-08-17 14:37:59.546875
2514,-48.57,2022-08-17 14:37:59.562500
2515,-66.94,2022-08-17 14:37:59.578125
2516,-78.15,2022-08-17 14:37:59.593750
2517,-82.23,2022-08-17 14:37:59.609375
2518,-80.75,2022-08-17 14:37:59.625000
2519,-76.56,2022-08-17 14:37:59.640625
2520,-73.11,2022-08-17 14:37:59.656250
2521,-73.74,2022-08-17 14:37:59.671875
2522,-80.84,2022-08-17 14:37:59.687500
2523,-95.04,2022-08-17 14:37:59.703125
2524,-114.65,2022-08-17 14:37:59.718750
2525,-135.58,2022-08-17 14:37:59.734375
2526,-152.05,2022-08-17 14:37:59.750000
2527,-157.93,2022-08-17 14:37:59.765625
2528,-148.58,2022-08-17 14:37:59.781250
2529,-122.29,2022-08-17 14:37:59.796875
2530,-81.11,2022-08-17 14:37:59.812500
2531,-30.44,2022-08-17 14:37:59.828125
2532,22.47,2022-08-17 14:37:59.843750
2533,70.49,2022-08-17 14:37:59.859375
2534,108.28,2022-08-17 14:37:59.875000
2535,133.06,2022-08-17 14:37:59.890625
2536,144.33,2022-08-17 14:37:59.906250
2537,142.89,2022-08-17 14:37:59.921875
2538,129.9,2022-08-17 14:37:59.937500
2539,106.52,2022-08-17 14:37:59.953125
2540,74.18,2022-08-17 14:37:59.968750
2541,35.25,2022-08-17 14:37:59.984375
2542,-6.64,2022-08-17 14:38:00.000000
2543,-46.79,2022-08-17 14:38:00.015625
2544,-80.43,2022-08-17 14:38:00.031250
2545,-104.01,2022-08-17 14:38:00.046875
2546,-116.05,2022-08-17 14:38:00.062500
2547,-117.33,2022-08-17 14:38:00.078125
2548,-110.16,2022-08-17 14:38:00.093750
2549,-97.42,2022-08-17 14:38:00.109375
2550,-81.63,2022-08-17 14:38:00.125000
2551,-64.62,2022-08-17 14:38:00.140625
2552,-47.64,2022-08-17 14:38:00.156250
2553,-31.9,2022-08-17 14:38:00.171875
2554,-18.82,2022-08-17 14:38:00.187500
2555,-9.96,2022-08-17 14:38:00.203125
2556,-6.63,2022-08-17 14:38:00.218750
2557,-9.32,2022-08-17 14:38:00.234375
2558,-17.45,2022-08-17 14:38:00.250000
2559,-29.51,2022-08-17 14:38:00.265625
2560,-43.61,2022-08-17 14:38:00.281250
2561,-57.99,2022-08-17 14:38:00.296875
2562,-71.34,2022-08-17 14:38:00.312500
2563,-82.69,2022-08-17 14:38:00.328125
2564,-91.32,2022-08-17 14:38:00.343750
2565,-96.76,2022-08-17 14:38:00.359375
2566,-99.05,2022-08-17 14:38:00.375000
2567,-99.02,2022-08-17 14:38:00.390625
2568,-98.2,2022-08-17 14:38:00.406250
2569,-98.13,2022-08-17 14:38:00.421875
2570,-99.66,2022-08-17 14:38:00.437500
2571,-102.43,2022-08-17 14:38:00.453125
2572,-105.09,2022-08-17 14:38:00.468750
2573,-106.14,2022-08-17 14:38:00.484375
2574,-104.97,2022-08-17 14:38:00.500000
2575,-102.23,2022-08-17 14:38:00.515625
2576,-99.51,2022-08-17 14:38:00.531250
2577,-98.61,2022-08-17 14:38:00.546875
2578,-100.77,2022-08-17 14:38:00.562500
2579,-106.5,2022-08-17 14:38:00.578125
2580,-115.79,2022-08-17 14:38:00.593750
2581,-128.23,2022-08-17 14:38:00.609375
2582,-142.8,2022-08-17 14:38:00.625000
2583,-157.34,2022-08-17 14:38:00.640625
2584,-168.34,2022-08-17 14:38:00.656250
2585,-171.44,2022-08-17 14:38:00.671875
2586,-162.58,2022-08-17 14:38:00.687500
2587,-139.44,2022-08-17 14:38:00.703125
2588,-102.3,2022-08-17 14:38:00.718750
2589,-54.11,2022-08-17 14:38:00.734375
2590,0.18,2022-08-17 14:38:00.750000
2591,54.64,2022-08-17 14:38:00.765625
2592,103.46,2022-08-17 14:38:00.781250
2593,141.86,2022-08-17 14:38:00.796875
2594,166.98,2022-08-17 14:38:00.812500
2595,178.49,2022-08-17 14:38:00.828125
2596,178.66,2022-08-17 14:38:00.843750
2597,171.76,2022-08-17 14:38:00.859375
2598,162.68,2022-08-17 14:38:00.875000
2599,155.34,2022-08-17 14:38:00.890625
2600,151.59,2022-08-17 14:38:00.906250
2601,151.11,2022-08-17 14:38:00.921875
2602,152.22,2022-08-17 14:38:00.937500
2603,153.14,2022-08-17 14:38:00.953125
2604,152.96,2022-08-17 14:38:00.968750
2605,151.87,2022-08-17 14:38:00.984375
2606,150.65,2022-08-17 14:38:01.000000
2607,149.95,2022-08-17 14:38:01.015625
2608,149.66,2022-08-17 14:38:01.031250
2609,148.92,2022-08-17 14:38:01.046875
2610,146.46,2022-08-17 14:38:01.062500
2611,141.23,2022-08-17 14:38:01.078125
2612,132.89,2022-08-17 14:38:01.093750
2613,121.85,2022-08-17 14:38:01.109375
2614,109.01,2022-08-17 14:38:01.125000
2615,95.46,2022-08-17 14:38:01.140625
2616,82.19,2022-08-17 14:38:01.156250
2617,70.17,2022-08-17 14:38:01.171875
2618,60.31,2022-08-17 14:38:01.187500
2619,53.34,2022-08-17 14:38:01.203125
2620,49.47,2022-08-17 14:38:01.218750
2621,48.09,2022-08-17 14:38:01.234375
2622,47.67,2022-08-17 14:38:01.250000
2623,46.21,2022-08-17 14:38:01.265625
2624,41.99,2022-08-17 14:38:01.281250
2625,34.11,2022-08-17 14:38:01.296875
2626,22.78,2022-08-17 14:38:01.312500
2627,8.88,2022-08-17 14:38:01.328125
2628,-6.66,2022-08-17 14:38:01.343750
2629,-23.32,2022-08-17 14:38:01.359375
2630,-40.98,2022-08-17 14:38:01.375000
2631,-59.58,2022-08-17 14:38:01.390625
2632,-78.58,2022-08-17 14:38:01.406250
2633,-96.75,2022-08-17 14:38:01.421875
2634,-112.52,2022-08-17 14:38:01.437500
2635,-124.45,2022-08-17 14:38:01.453125
2636,-131.76,2022-08-17 14:38:01.468750
2637,-134.76,2022-08-17 14:38:01.484375
2638,-134.99,2022-08-17 14:38:01.500000
2639,-135.0,2022-08-17 14:38:01.515625
2640,-137.85,2022-08-17 14:38:01.531250
2641,-146.25,2022-08-17 14:38:01.546875
2642,-161.44,2022-08-17 14:38:01.562500
2643,-182.38,2022-08-17 14:38:01.578125
2644,-205.32,2022-08-17 14:38:01.593750
2645,-224.46,2022-08-17 14:38:01.609375
2646,-233.38,2022-08-17 14:38:01.625000
2647,-226.91,2022-08-17 14:38:01.640625
2648,-202.76,2022-08-17 14:38:01.656250
2649,-162.29,2022-08-17 14:38:01.671875
2650,-110.11,2022-08-17 14:38:01.687500
2651,-52.75,2022-08-17 14:38:01.703125
2652,3.02,2022-08-17 14:38:01.718750
2653,51.72,2022-08-17 14:38:01.734375
2654,90.04,2022-08-17 14:38:01.750000
2655,117.05,2022-08-17 14:38:01.765625
2656,133.76,2022-08-17 14:38:01.781250
2657,142.42,2022-08-17 14:38:01.796875
2658,145.63,2022-08-17 14:38:01.812500
2659,145.59,2022-08-17 14:38:01.828125
2660,143.77,2022-08-17 14:38:01.843750
2661,140.83,2022-08-17 14:38:01.859375
2662,136.84,2022-08-17 14:38:01.875000
2663,131.68,2022-08-17 14:38:01.890625
2664,125.45,2022-08-17 14:38:01.906250
2665,118.7,2022-08-17 14:38:01.921875
2666,112.43,2022-08-17 14:38:01.937500
2667,107.68,2022-08-17 14:38:01.953125
2668,105.13,2022-08-17 14:38:01.968750
2669,104.77,2022-08-17 14:38:01.984375
2670,105.74,2022-08-17 14:38:02.000000
2671,106.67,2022-08-17 14:38:02.015625
2672,106.14,2022-08-17 14:38:02.031250
2673,103.31,2022-08-17 14:38:02.046875
2674,98.17,2022-08-17 14:38:02.062500
2675,91.47,2022-08-17 14:38:02.078125
2676,84.31,2022-08-17 14:38:02.093750
2677,77.67,2022-08-17 14:38:02.109375
2678,72.05,2022-08-17 14:38:02.125000
2679,67.26,2022-08-17 14:38:02.140625
2680,62.56,2022-08-17 14:38:02.156250
2681,56.83,2022-08-17 14:38:02.171875
2682,48.98,2022-08-17 14:38:02.187500
2683,38.4,2022-08-17 14:38:02.203125
2684,25.21,2022-08-17 14:38:02.218750
2685,10.28,2022-08-17 14:38:02.234375
2686,-4.99,2022-08-17 14:38:02.250000
2687,-19.3,2022-08-17 14:38:02.265625
2688,-31.97,2022-08-17 14:38:02.281250
2689,-43.25,2022-08-17 14:38:02.296875
2690,-54.16,2022-08-17 14:38:02.312500
2691,-65.8,2022-08-17 14:38:02.328125
2692,-78.6,2022-08-17 14:38:02.343750
2693,-91.84,2022-08-17 14:38:02.359375
2694,-103.98,2022-08-17 14:38:02.375000
2695,-113.35,2022-08-17 14:38:02.390625
2696,-118.93,2022-08-17 14:38:02.406250
2697,-120.88,2022-08-17 14:38:02.421875
2698,-120.43,2022-08-17 14:38:02.437500
2699,-119.55,2022-08-17 14:38:02.453125
2700,-120.44,2022-08-17 14:38:02.468750
2701,-125.18,2022-08-17 14:38:02.484375
2702,-135.16,2022-08-17 14:38:02.500000
2703,-150.75,2022-08-17 14:38:02.515625
2704,-170.74,2022-08-17 14:38:02.531250
2705,-192.03,2022-08-17 14:38:02.546875
2706,-210.03,2022-08-17 14:38:02.562500
2707,-219.54,2022-08-17 14:38:02.578125
2708,-216.57,2022-08-17 14:38:02.593750
2709,-199.77,2022-08-17 14:38:02.609375
2710,-170.91,2022-08-17 14:38:02.625000
2711,-134.07,2022-08-17 14:38:02.640625
2712,-94.05,2022-08-17 14:38:02.656250
2713,-54.73,2022-08-17 14:38:02.671875
2714,-18.2,2022-08-17 14:38:02.687500
2715,15.13,2022-08-17 14:38:02.703125
2716,45.71,2022-08-17 14:38:02.718750
2717,73.68,2022-08-17 14:38:02.734375
2718,98.35,2022-08-17 14:38:02.750000
2719,118.4,2022-08-17 14:38:02.765625
2720,132.72,2022-08-17 14:38:02.781250
2721,140.88,2022-08-17 14:38:02.796875
2722,143.43,2022-08-17 14:38:02.812500
2723,141.52,2022-08-17 14:38:02.828125
2724,136.4,2022-08-17 14:38:02.843750
2725,129.14,2022-08-17 14:38:02.859375
2726,119.57,2022-08-17 14:38:02.875000
2727,105.97,2022-08-17 14:38:02.890625
2728,85.64,2022-08-17 14:38:02.906250
2729,56.27,2022-08-17 14:38:02.921875
2730,17.63,2022-08-17 14:38:02.937500
2731,-26.96,2022-08-17 14:38:02.953125
2732,-70.21,2022-08-17 14:38:02.968750
2733,-102.33,2022-08-17 14:38:02.984375
2734,-113.42,2022-08-17 14:38:03.000000
2735,-98.55,2022-08-17 14:38:03.015625
2736,-60.34,2022-08-17 14:38:03.031250
2737,-7.84,2022-08-17 14:38:03.046875
2738,46.8,2022-08-17 14:38:03.062500
2739,92.45,2022-08-17 14:38:03.078125
2740,121.8,2022-08-17 14:38:03.093750
2741,132.43,2022-08-17 14:38:03.109375
2742,126.36,2022-08-17 14:38:03.125000
2743,110.32,2022-08-17 14:38:03.140625
2744,91.86,2022-08-17 14:38:03.156250
2745,78.35,2022-08-17 14:38:03.171875
2746,76.73,2022-08-17 14:38:03.187500
2747,92.45,2022-08-17 14:38:03.203125
2748,126.86,2022-08-17 14:38:03.218750
2749,175.12,2022-08-17 14:38:03.234375
2750,226.08,2022-08-17 14:38:03.250000
2751,265.32,2022-08-17 14:38:03.265625
2752,282.18,2022-08-17 14:38:03.281250
2753,270.46,2022-08-17 14:38:03.296875
2754,230.7,2022-08-17 14:38:03.312500
2755,171.68,2022-08-17 14:38:03.328125
2756,108.66,2022-08-17 14:38:03.343750
2757,58.1,2022-08-17 14:38:03.359375
2758,32.13,2022-08-17 14:38:03.375000
2759,34.71,2022-08-17 14:38:03.390625
2760,61.6,2022-08-17 14:38:03.406250
2761,105.98,2022-08-17 14:38:03.421875
2762,156.51,2022-08-17 14:38:03.437500
2763,200.43,2022-08-17 14:38:03.453125
2764,227.8,2022-08-17 14:38:03.468750
2765,234.13,2022-08-17 14:38:03.484375
2766,219.56,2022-08-17 14:38:03.500000
2767,187.41,2022-08-17 14:38:03.515625
2768,142.63,2022-08-17 14:38:03.531250
2769,73.49,2022-08-17 14:38:03.546875
2770,-11.39,2022-08-17 14:38:03.562500
2771,-88.83,2022-08-17 14:38:03.578125
2772,-139.27,2022-08-17 14:38:03.593750
2773,-159.88,2022-08-17 14:38:03.609375
2774,-160.14,2022-08-17 14:38:03.625000
2775,-153.66,2022-08-17 14:38:03.640625
2776,-149.36,2022-08-17 14:38:03.656250
2777,-152.13,2022-08-17 14:38:03.671875
2778,-163.44,2022-08-17 14:38:03.687500
2779,-178.09,2022-08-17 14:38:03.703125
2780,-191.75,2022-08-17 14:38:03.718750
2781,-202.27,2022-08-17 14:38:03.734375
2782,-208.67,2022-08-17 14:38:03.750000
2783,-209.85,2022-08-17 14:38:03.765625
2784,-205.57,2022-08-17 14:38:03.781250
2785,-196.54,2022-08-17 14:38:03.796875
2786,-184.62,2022-08-17 14:38:03.812500
2787,-171.47,2022-08-17 14:38:03.828125
2788,-155.11,2022-08-17 14:38:03.843750
2789,-134.71,2022-08-17 14:38:03.859375
2790,-111.33,2022-08-17 14:38:03.875000
2791,-86.94,2022-08-17 14:38:03.890625
2792,-63.08,2022-08-17 14:38:03.906250
2793,-40.68,2022-08-17 14:38:03.921875
2794,-20.32,2022-08-17 14:38:03.937500
2795,-2.52,2022-08-17 14:38:03.953125
2796,12.47,2022-08-17 14:38:03.968750
2797,26.13,2022-08-17 14:38:03.984375
2798,38.61,2022-08-17 14:38:04.000000
2799,48.56,2022-08-17 14:38:04.015625
2800,54.42,2022-08-17 14:38:04.031250
2801,55.72,2022-08-17 14:38:04.046875
2802,53.34,2022-08-17 14:38:04.062500
2803,48.98,2022-08-17 14:38:04.078125
2804,44.16,2022-08-17 14:38:04.093750
2805,39.76,2022-08-17 14:38:04.109375
2806,36.31,2022-08-17 14:38:04.125000
2807,32.54,2022-08-17 14:38:04.140625
2808,25.99,2022-08-17 14:38:04.156250
2809,14.38,2022-08-17 14:38:04.171875
2810,-2.93,2022-08-17 14:38:04.187500
2811,-24.6,2022-08-17 14:38:04.203125
2812,-47.81,2022-08-17 14:38:04.218750
2813,-69.37,2022-08-17 14:38:04.234375
2814,-86.68,2022-08-17 14:38:04.250000
2815,-98.1,2022-08-17 14:38:04.265625
2816,-103.95,2022-08-17 14:38:04.281250
2817,-106.37,2022-08-17 14:38:04.296875
2818,-108.72,2022-08-17 14:38:04.312500
2819,-114.53,2022-08-17 14:38:04.328125
2820,-126.41,2022-08-17 14:38:04.343750
2821,-144.98,2022-08-17 14:38:04.359375
2822,-168.24,2022-08-17 14:38:04.375000
2823,-191.63,2022-08-17 14:38:04.390625
2824,-208.99,2022-08-17 14:38:04.406250
2825,-214.41,2022-08-17 14:38:04.421875
2826,-204.23,2022-08-17 14:38:04.437500
2827,-178.25,2022-08-17 14:38:04.453125
2828,-139.87,2022-08-17 14:38:04.468750
2829,-94.83,2022-08-17 14:38:04.484375
2830,-49.32,2022-08-17 14:38:04.500000
2831,-8.1,2022-08-17 14:38:04.515625
2832,26.41,2022-08-17 14:38:04.531250
2833,53.9,2022-08-17 14:38:04.546875
2834,75.32,2022-08-17 14:38:04.562500
2835,91.79,2022-08-17 14:38:04.578125
2836,104.0,2022-08-17 14:38:04.593750
2837,112.32,2022-08-17 14:38:04.609375
2838,117.21,2022-08-17 14:38:04.625000
2839,119.47,2022-08-17 14:38:04.640625
2840,120.26,2022-08-17 14:38:04.656250
2841,120.67,2022-08-17 14:38:04.671875
2842,121.23,2022-08-17 14:38:04.687500
2843,121.9,2022-08-17 14:38:04.703125
2844,122.32,2022-08-17 14:38:04.718750
2845,122.32,2022-08-17 14:38:04.734375
2846,122.12,2022-08-17 14:38:04.750000
2847,122.34,2022-08-17 14:38:04.765625
2848,123.52,2022-08-17 14:38:04.781250
2849,125.98,2022-08-17 14:38:04.796875
2850,129.47,2022-08-17 14:38:04.812500
2851,133.28,2022-08-17 14:38:04.828125
2852,136.38,2022-08-17 14:38:04.843750
2853,137.56,2022-08-17 14:38:04.859375
2854,135.61,2022-08-17 14:38:04.875000
2855,129.69,2022-08-17 14:38:04.890625
2856,119.63,2022-08-17 14:38:04.906250
2857,106.2,2022-08-17 14:38:04.921875
2858,90.93,2022-08-17 14:38:04.937500
2859,75.53,2022-08-17 14:38:04.953125
2860,61.25,2022-08-17 14:38:04.968750
2861,48.42,2022-08-17 14:38:04.984375
2862,36.56,2022-08-17 14:38:05.000000
2863,24.96,2022-08-17 14:38:05.015625
2864,13.32,2022-08-17 14:38:05.031250
2865,1.99,2022-08-17 14:38:05.046875
2866,-8.21,2022-08-17 14:38:05.062500
2867,-16.75,2022-08-17 14:38:05.078125
2868,-24.02,2022-08-17 14:38:05.093750
2869,-31.36,2022-08-17 14:38:05.109375
2870,-40.5,2022-08-17 14:38:05.125000
2871,-52.65,2022-08-17 14:38:05.140625
2872,-67.71,2022-08-17 14:38:05.156250
2873,-84.16,2022-08-17 14:38:05.171875
2874,-99.73,2022-08-17 14:38:05.187500
2875,-112.36,2022-08-17 14:38:05.203125
2876,-121.05,2022-08-17 14:38:05.218750
2877,-126.14,2022-08-17 14:38:05.234375
2878,-129.05,2022-08-17 14:38:05.250000
2879,-131.69,2022-08-17 14:38:05.265625
2880,-136.07,2022-08-17 14:38:05.281250
2881,-143.89,2022-08-17 14:38:05.296875
2882,-156.2,2022-08-17 14:38:05.312500
2883,-172.83,2022-08-17 14:38:05.328125
2884,-191.76,2022-08-17 14:38:05.343750
2885,-208.85,2022-08-17 14:38:05.359375
2886,-218.47,2022-08-17 14:38:05.375000
2887,-215.03,2022-08-17 14:38:05.390625
2888,-195.02,2022-08-17 14:38:05.406250
2889,-158.69,2022-08-17 14:38:05.421875
2890,-110.36,2022-08-17 14:38:05.437500
2891,-57.18,2022-08-17 14:38:05.453125
2892,-6.77,2022-08-17 14:38:05.468750
2893,35.06,2022-08-17 14:38:05.484375
2894,65.73,2022-08-17 14:38:05.500000
2895,85.77,2022-08-17 14:38:05.515625
2896,97.62,2022-08-17 14:38:05.531250
2897,104.13,2022-08-17 14:38:05.546875
2898,107.55,2022-08-17 14:38:05.562500
2899,109.19,2022-08-17 14:38:05.578125
2900,109.67,2022-08-17 14:38:05.593750
2901,109.32,2022-08-17 14:38:05.609375
2902,108.48,2022-08-17 14:38:05.625000
2903,107.35,2022-08-17 14:38:05.640625
2904,106.02,2022-08-17 14:38:05.656250
2905,104.45,2022-08-17 14:38:05.671875
2906,102.56,2022-08-17 14:38:05.687500
2907,100.45,2022-08-17 14:38:05.703125
2908,98.3,2022-08-17 14:38:05.718750
2909,96.35,2022-08-17 14:38:05.734375
2910,94.6,2022-08-17 14:38:05.750000
2911,92.92,2022-08-17 14:38:05.765625
2912,91.04,2022-08-17 14:38:05.781250
2913,88.82,2022-08-17 14:38:05.796875
2914,86.19,2022-08-17 14:38:05.812500
2915,83.08,2022-08-17 14:38:05.828125
2916,79.34,2022-08-17 14:38:05.843750
2917,74.69,2022-08-17 14:38:05.859375
2918,68.87,2022-08-17 14:38:05.875000
2919,61.66,2022-08-17 14:38:05.890625
2920,53.08,2022-08-17 14:38:05.906250
2921,43.25,2022-08-17 14:38:05.921875
2922,32.35,2022-08-17 14:38:05.937500
2923,20.75,2022-08-17 14:38:05.953125
2924,9.03,2022-08-17 14:38:05.968750
2925,-2.07,2022-08-17 14:38:05.984375
2926,-11.84,2022-08-17 14:38:06.000000
2927,-20.01,2022-08-17 14:38:06.015625
2928,-27.01,2022-08-17 14:38:06.031250
2929,-33.91,2022-08-17 14:38:06.046875
2930,-41.91,2022-08-17 14:38:06.062500
2931,-51.63,2022-08-17 14:38:06.078125
2932,-62.71,2022-08-17 14:38:06.093750
2933,-73.88,2022-08-17 14:38:06.109375
2934,-83.53,2022-08-17 14:38:06.125000
2935,-90.56,2022-08-17 14:38:06.140625
2936,-94.79,2022-08-17 14:38:06.156250
2937,-97.0,2022-08-17 14:38:06.171875
2938,-98.61,2022-08-17 14:38:06.187500
2939,-101.33,2022-08-17 14:38:06.203125
2940,-106.86,2022-08-17 14:38:06.218750
2941,-116.56,2022-08-17 14:38:06.234375
2942,-130.97,2022-08-17 14:38:06.250000
2943,-149.03,2022-08-17 14:38:06.265625
2944,-167.66,2022-08-17 14:38:06.281250
2945,-181.86,2022-08-17 14:38:06.296875
2946,-185.89,2022-08-17 14:38:06.312500
2947,-175.25,2022-08-17 14:38:06.328125
2948,-148.57,2022-08-17 14:38:06.343750
2949,-108.5,2022-08-17 14:38:06.359375
2950,-61.07,2022-08-17 14:38:06.375000
2951,-13.6,2022-08-17 14:38:06.390625
2952,27.65,2022-08-17 14:38:06.406250
2953,59.2,2022-08-17 14:38:06.421875
2954,80.65,2022-08-17 14:38:06.437500
2955,93.77,2022-08-17 14:38:06.453125
2956,100.99,2022-08-17 14:38:06.468750
2957,104.29,2022-08-17 14:38:06.484375
2958,104.78,2022-08-17 14:38:06.500000
2959,103.05,2022-08-17 14:38:06.515625
2960,99.6,2022-08-17 14:38:06.531250
2961,95.21,2022-08-17 14:38:06.546875
2962,90.8,2022-08-17 14:38:06.562500
2963,87.03,2022-08-17 14:38:06.578125
2964,84.08,2022-08-17 14:38:06.593750
2965,81.61,2022-08-17 14:38:06.609375
2966,79.19,2022-08-17 14:38:06.625000
2967,76.7,2022-08-17 14:38:06.640625
2968,74.54,2022-08-17 14:38:06.656250
2969,73.53,2022-08-17 14:38:06.671875
2970,74.42,2022-08-17 14:38:06.687500
2971,77.46,2022-08-17 14:38:06.703125
2972,82.01,2022-08-17 14:38:06.718750
2973,86.65,2022-08-17 14:38:06.734375
2974,89.62,2022-08-17 14:38:06.750000
2975,89.47,2022-08-17 14:38:06.765625
2976,85.6,2022-08-17 14:38:06.781250
2977,78.42,2022-08-17 14:38:06.796875
2978,69.1,2022-08-17 14:38:06.812500
2979,59.01,2022-08-17 14:38:06.828125
2980,49.16,2022-08-17 14:38:06.843750
2981,39.9,2022-08-17 14:38:06.859375
2982,31.02,2022-08-17 14:38:06.875000
2983,22.14,2022-08-17 14:38:06.890625
2984,13.16,2022-08-17 14:38:06.906250
2985,4.42,2022-08-17 14:38:06.921875
2986,-3.55,2022-08-17 14:38:06.937500
2987,-10.37,2022-08-17 14:38:06.953125
2988,-16.42,2022-08-17 14:38:06.968750
2989,-22.75,2022-08-17 14:38:06.984375
2990,-30.7,2022-08-17 14:38:07.000000
2991,-41.18,2022-08-17 14:38:07.015625
2992,-54.06,2022-08-17 14:38:07.031250
2993,-68.04,2022-08-17 14:38:07.046875
2994,-81.15,2022-08-17 14:38:07.062500
2995,-91.61,2022-08-17 14:38:07.078125
2996,-98.57,2022-08-17 14:38:07.093750
2997,-102.48,2022-08-17 14:38:07.109375
2998,-104.87,2022-08-17 14:38:07.125000
2999,-107.79,2022-08-17 14:38:07.140625
3000,-113.24,2022-08-17 14:38:07.156250
3001,-122.63,2022-08-17 14:38:07.171875
3002,-136.43,2022-08-17 14:38:07.187500
3003,-153.78,2022-08-17 14:38:07.203125
3004,-172.2,2022-08-17 14:38:07.218750
3005,-187.67,2022-08-17 14:38:07.234375
3006,-195.25,2022-08-17 14:38:07.250000
3007,-190.46,2022-08-17 14:38:07.265625
3008,-170.79,2022-08-17 14:38:07.281250
3009,-136.93,2022-08-17 14:38:07.296875
3010,-92.84,2022-08-17 14:38:07.312500
3011,-44.69,2022-08-17 14:38:07.328125
3012,1.07,2022-08-17 14:38:07.343750
3013,39.59,2022-08-17 14:38:07.359375
3014,68.59,2022-08-17 14:38:07.375000
3015,88.36,2022-08-17 14:38:07.390625
3016,100.75,2022-08-17 14:38:07.406250
3017,108.01,2022-08-17 14:38:07.421875
3018,111.83,2022-08-17 14:38:07.437500
3019,113.23,2022-08-17 14:38:07.453125
3020,112.7,2022-08-17 14:38:07.468750
3021,110.59,2022-08-17 14:38:07.484375
3022,107.27,2022-08-17 14:38:07.500000
3023,103.16,2022-08-17 14:38:07.515625
3024,98.58,2022-08-17 14:38:07.531250
3025,93.83,2022-08-17 14:38:07.546875
3026,89.3,2022-08-17 14:38:07.562500
3027,85.55,2022-08-17 14:38:07.578125
3028,83.29,2022-08-17 14:38:07.593750
3029,83.07,2022-08-17 14:38:07.609375
3030,84.96,2022-08-17 14:38:07.625000
3031,88.39,2022-08-17 14:38:07.640625
3032,92.29,2022-08-17 14:38:07.656250
3033,95.31,2022-08-17 14:38:07.671875
3034,96.35,2022-08-17 14:38:07.687500
3035,94.8,2022-08-17 14:38:07.703125
3036,90.71,2022-08-17 14:38:07.718750
3037,84.68,2022-08-17 14:38:07.734375
3038,77.6,2022-08-17 14:38:07.750000
3039,70.34,2022-08-17 14:38:07.765625
3040,63.39,2022-08-17 14:38:07.781250
3041,56.73,2022-08-17 14:38:07.796875
3042,49.8,2022-08-17 14:38:07.812500
3043,41.92,2022-08-17 14:38:07.828125
3044,32.65,2022-08-17 14:38:07.843750
3045,22.19,2022-08-17 14:38:07.859375
3046,11.3,2022-08-17 14:38:07.875000
3047,0.9,2022-08-17 14:38:07.890625
3048,-8.51,2022-08-17 14:38:07.906250
3049,-17.19,2022-08-17 14:38:07.921875
3050,-26.09,2022-08-17 14:38:07.937500
3051,-36.3,2022-08-17 14:38:07.953125
3052,-48.36,2022-08-17 14:38:07.968750
3053,-61.83,2022-08-17 14:38:07.984375
3054,-75.5,2022-08-17 14:38:08.000000
3055,-87.82,2022-08-17 14:38:08.015625
3056,-97.68,2022-08-17 14:38:08.031250
3057,-104.72,2022-08-17 14:38:08.046875
3058,-109.38,2022-08-17 14:38:08.062500
3059,-112.78,2022-08-17 14:38:08.078125
3060,-116.51,2022-08-17 14:38:08.093750
3061,-122.45,2022-08-17 14:38:08.109375
3062,-132.51,2022-08-17 14:38:08.125000
3063,-147.94,2022-08-17 14:38:08.140625
3064,-168.36,2022-08-17 14:38:08.156250
3065,-191.03,2022-08-17 14:38:08.171875
3066,-210.91,2022-08-17 14:38:08.187500
3067,-221.86,2022-08-17 14:38:08.203125
3068,-218.69,2022-08-17 14:38:08.218750
3069,-199.18,2022-08-17 14:38:08.234375
3070,-165.09,2022-08-17 14:38:08.250000
3071,-121.52,2022-08-17 14:38:08.265625
3072,-75.18,2022-08-17 14:38:08.281250
3073,-32.09,2022-08-17 14:38:08.296875
3074,3.86,2022-08-17 14:38:08.312500
3075,31.37,2022-08-17 14:38:08.328125
3076,51.13,2022-08-17 14:38:08.343750
3077,64.78,2022-08-17 14:38:08.359375
3078,74.07,2022-08-17 14:38:08.375000
3079,80.36,2022-08-17 14:38:08.390625
3080,84.49,2022-08-17 14:38:08.406250
3081,86.8,2022-08-17 14:38:08.421875
3082,87.34,2022-08-17 14:38:08.437500
3083,86.02,2022-08-17 14:38:08.453125
3084,82.94,2022-08-17 14:38:08.468750
3085,78.6,2022-08-17 14:38:08.484375
3086,74.02,2022-08-17 14:38:08.500000
3087,70.49,2022-08-17 14:38:08.515625
3088,69.18,2022-08-17 14:38:08.531250
3089,70.82,2022-08-17 14:38:08.546875
3090,75.48,2022-08-17 14:38:08.562500
3091,82.5,2022-08-17 14:38:08.578125
3092,90.71,2022-08-17 14:38:08.593750
3093,98.54,2022-08-17 14:38:08.609375
3094,104.16,2022-08-17 14:38:08.625000
3095,105.8,2022-08-17 14:38:08.640625
3096,102.07,2022-08-17 14:38:08.656250
3097,92.52,2022-08-17 14:38:08.671875
3098,77.99,2022-08-17 14:38:08.687500
3099,60.5,2022-08-17 14:38:08.703125
3100,42.67,2022-08-17 14:38:08.718750
3101,26.87,2022-08-17 14:38:08.734375
3102,14.44,2022-08-17 14:38:08.750000
3103,5.36,2022-08-17 14:38:08.765625
3104,-1.54,2022-08-17 14:38:08.781250
3105,-7.94,2022-08-17 14:38:08.796875
3106,-15.31,2022-08-17 14:38:08.812500
3107,-24.4,2022-08-17 14:38:08.828125
3108,-35.05,2022-08-17 14:38:08.843750
3109,-46.39,2022-08-17 14:38:08.859375
3110,-57.1,2022-08-17 14:38:08.875000
3111,-65.99,2022-08-17 14:38:08.890625
3112,-72.37,2022-08-17 14:38:08.906250
3113,-76.35,2022-08-17 14:38:08.921875
3114,-78.74,2022-08-17 14:38:08.937500
3115,-80.77,2022-08-17 14:38:08.953125
3116,-83.8,2022-08-17 14:38:08.968750
3117,-89.08,2022-08-17 14:38:08.984375
3118,-97.69,2022-08-17 14:38:09.000000
3119,-110.28,2022-08-17 14:38:09.015625
3120,-126.73,2022-08-17 14:38:09.031250
3121,-145.62,2022-08-17 14:38:09.046875
3122,-163.89,2022-08-17 14:38:09.062500
3123,-177.07,2022-08-17 14:38:09.078125
3124,-180.39,2022-08-17 14:38:09.093750
