,BVP,time
0,33.15,2022-10-26 09:59:14.953125
1,31.42,2022-10-26 09:59:14.968750
2,29.28,2022-10-26 09:59:14.984375
3,26.47,2022-10-26 09:59:15.000000
4,23.01,2022-10-26 09:59:15.015625
5,19.2,2022-10-26 09:59:15.031250
6,15.46,2022-10-26 09:59:15.046875
7,12.2,2022-10-26 09:59:15.062500
8,9.64,2022-10-26 09:59:15.078125
9,7.7,2022-10-26 09:59:15.093750
10,6.07,2022-10-26 09:59:15.109375
11,4.4,2022-10-26 09:59:15.125000
12,2.34,2022-10-26 09:59:15.140625
13,-0.35,2022-10-26 09:59:15.156250
14,-3.88,2022-10-26 09:59:15.171875
15,-8.5,2022-10-26 09:59:15.187500
16,-14.48,2022-10-26 09:59:15.203125
17,-21.86,2022-10-26 09:59:15.218750
18,-30.22,2022-10-26 09:59:15.234375
19,-38.4,2022-10-26 09:59:15.250000
20,-44.63,2022-10-26 09:59:15.265625
21,-47.04,2022-10-26 09:59:15.281250
22,-44.22,2022-10-26 09:59:15.296875
23,-35.9,2022-10-26 09:59:15.312500
24,-23.01,2022-10-26 09:59:15.328125
25,-7.43,2022-10-26 09:59:15.343750
26,8.66,2022-10-26 09:59:15.359375
27,23.44,2022-10-26 09:59:15.375000
28,35.68,2022-10-26 09:59:15.390625
29,44.63,2022-10-26 09:59:15.406250
30,49.73,2022-10-26 09:59:15.421875
31,50.5,2022-10-26 09:59:15.437500
32,46.8,2022-10-26 09:59:15.453125
33,39.19,2022-10-26 09:59:15.468750
34,29.23,2022-10-26 09:59:15.484375
35,19.2,2022-10-26 09:59:15.500000
36,11.33,2022-10-26 09:59:15.515625
37,6.86,2022-10-26 09:59:15.531250
38,5.49,2022-10-26 09:59:15.546875
39,5.61,2022-10-26 09:59:15.562500
40,5.09,2022-10-26 09:59:15.578125
41,2.46,2022-10-26 09:59:15.593750
42,-2.46,2022-10-26 09:59:15.609375
43,-8.61,2022-10-26 09:59:15.625000
44,-14.34,2022-10-26 09:59:15.640625
45,-18.31,2022-10-26 09:59:15.656250
46,-20.13,2022-10-26 09:59:15.671875
47,-20.43,2022-10-26 09:59:15.687500
48,-20.34,2022-10-26 09:59:15.703125
49,-20.97,2022-10-26 09:59:15.718750
50,-22.89,2022-10-26 09:59:15.734375
51,-26.06,2022-10-26 09:59:15.750000
52,-30.06,2022-10-26 09:59:15.765625
53,-34.42,2022-10-26 09:59:15.781250
54,-38.93,2022-10-26 09:59:15.796875
55,-43.69,2022-10-26 09:59:15.812500
56,-49.04,2022-10-26 09:59:15.828125
57,-55.27,2022-10-26 09:59:15.843750
58,-62.29,2022-10-26 09:59:15.859375
59,-69.25,2022-10-26 09:59:15.875000
60,-74.69,2022-10-26 09:59:15.890625
61,-76.91,2022-10-26 09:59:15.906250
62,-74.7,2022-10-26 09:59:15.921875
63,-67.83,2022-10-26 09:59:15.937500
64,-57.08,2022-10-26 09:59:15.953125
65,-43.9,2022-10-26 09:59:15.968750
66,-29.82,2022-10-26 09:59:15.984375
67,-15.97,2022-10-26 09:59:16.000000
68,-3.02,2022-10-26 09:59:16.015625
69,8.56,2022-10-26 09:59:16.031250
70,18.14,2022-10-26 09:59:16.046875
71,24.78,2022-10-26 09:59:16.062500
72,27.43,2022-10-26 09:59:16.078125
73,25.28,2022-10-26 09:59:16.093750
74,18.09,2022-10-26 09:59:16.109375
75,6.38,2022-10-26 09:59:16.125000
76,-8.09,2022-10-26 09:59:16.140625
77,-22.37,2022-10-26 09:59:16.156250
78,-32.65,2022-10-26 09:59:16.171875
79,-35.29,2022-10-26 09:59:16.187500
80,-28.33,2022-10-26 09:59:16.203125
81,-12.41,2022-10-26 09:59:16.218750
82,9.3,2022-10-26 09:59:16.234375
83,32.09,2022-10-26 09:59:16.250000
84,51.37,2022-10-26 09:59:16.265625
85,64.37,2022-10-26 09:59:16.281250
86,70.64,2022-10-26 09:59:16.296875
87,71.27,2022-10-26 09:59:16.312500
88,67.57,2022-10-26 09:59:16.328125
89,59.98,2022-10-26 09:59:16.343750
90,48.4,2022-10-26 09:59:16.359375
91,33.61,2022-10-26 09:59:16.375000
92,17.61,2022-10-26 09:59:16.390625
93,3.18,2022-10-26 09:59:16.406250
94,-6.95,2022-10-26 09:59:16.421875
95,-11.56,2022-10-26 09:59:16.437500
96,-11.64,2022-10-26 09:59:16.453125
97,-9.86,2022-10-26 09:59:16.468750
98,-9.54,2022-10-26 09:59:16.484375
99,-12.66,2022-10-26 09:59:16.500000
100,-18.18,2022-10-26 09:59:16.515625
101,-23.26,2022-10-26 09:59:16.531250
102,-25.05,2022-10-26 09:59:16.546875
103,-21.73,2022-10-26 09:59:16.562500
104,-13.08,2022-10-26 09:59:16.578125
105,0.03,2022-10-26 09:59:16.593750
106,16.69,2022-10-26 09:59:16.609375
107,36.2,2022-10-26 09:59:16.625000
108,58.33,2022-10-26 09:59:16.640625
109,83.36,2022-10-26 09:59:16.656250
110,109.89,2022-10-26 09:59:16.671875
111,133.88,2022-10-26 09:59:16.687500
112,150.23,2022-10-26 09:59:16.703125
113,154.61,2022-10-26 09:59:16.718750
114,145.38,2022-10-26 09:59:16.734375
115,127.29,2022-10-26 09:59:16.750000
116,107.89,2022-10-26 09:59:16.765625
117,88.97,2022-10-26 09:59:16.781250
118,71.75,2022-10-26 09:59:16.796875
119,58.66,2022-10-26 09:59:16.812500
120,48.63,2022-10-26 09:59:16.828125
121,38.37,2022-10-26 09:59:16.843750
122,23.18,2022-10-26 09:59:16.859375
123,-1.91,2022-10-26 09:59:16.875000
124,-40.86,2022-10-26 09:59:16.890625
125,-95.45,2022-10-26 09:59:16.906250
126,-163.52,2022-10-26 09:59:16.921875
127,-237.16,2022-10-26 09:59:16.937500
128,-304.89,2022-10-26 09:59:16.953125
129,-354.83,2022-10-26 09:59:16.968750
130,-377.61,2022-10-26 09:59:16.984375
131,-369.45,2022-10-26 09:59:17.000000
132,-333.84,2022-10-26 09:59:17.015625
133,-281.11,2022-10-26 09:59:17.031250
134,-226.13,2022-10-26 09:59:17.046875
135,-183.69,2022-10-26 09:59:17.062500
136,-163.08,2022-10-26 09:59:17.078125
137,-165.54,2022-10-26 09:59:17.093750
138,-184.22,2022-10-26 09:59:17.109375
139,-206.32,2022-10-26 09:59:17.125000
140,-217.94,2022-10-26 09:59:17.140625
141,-209.05,2022-10-26 09:59:17.156250
142,-176.78,2022-10-26 09:59:17.171875
143,-125.72,2022-10-26 09:59:17.187500
144,-65.06,2022-10-26 09:59:17.203125
145,-4.15,2022-10-26 09:59:17.218750
146,50.14,2022-10-26 09:59:17.234375
147,94.14,2022-10-26 09:59:17.250000
148,126.82,2022-10-26 09:59:17.265625
149,148.4,2022-10-26 09:59:17.281250
150,159.53,2022-10-26 09:59:17.296875
151,161.36,2022-10-26 09:59:17.312500
152,156.04,2022-10-26 09:59:17.328125
153,146.86,2022-10-26 09:59:17.343750
154,137.86,2022-10-26 09:59:17.359375
155,132.37,2022-10-26 09:59:17.375000
156,131.74,2022-10-26 09:59:17.390625
157,135.25,2022-10-26 09:59:17.406250
158,140.51,2022-10-26 09:59:17.421875
159,144.75,2022-10-26 09:59:17.437500
160,145.95,2022-10-26 09:59:17.453125
161,143.55,2022-10-26 09:59:17.468750
162,138.35,2022-10-26 09:59:17.484375
163,132.03,2022-10-26 09:59:17.500000
164,126.12,2022-10-26 09:59:17.515625
165,121.33,2022-10-26 09:59:17.531250
166,117.38,2022-10-26 09:59:17.546875
167,113.29,2022-10-26 09:59:17.562500
168,107.89,2022-10-26 09:59:17.578125
169,100.39,2022-10-26 09:59:17.593750
170,90.64,2022-10-26 09:59:17.609375
171,79.19,2022-10-26 09:59:17.625000
172,67.01,2022-10-26 09:59:17.640625
173,55.03,2022-10-26 09:59:17.656250
174,43.79,2022-10-26 09:59:17.671875
175,33.25,2022-10-26 09:59:17.687500
176,22.94,2022-10-26 09:59:17.703125
177,12.44,2022-10-26 09:59:17.718750
178,1.87,2022-10-26 09:59:17.734375
179,-7.79,2022-10-26 09:59:17.750000
180,-14.93,2022-10-26 09:59:17.765625
181,-17.87,2022-10-26 09:59:17.781250
182,-15.61,2022-10-26 09:59:17.796875
183,-8.39,2022-10-26 09:59:17.812500
184,2.38,2022-10-26 09:59:17.828125
185,14.62,2022-10-26 09:59:17.843750
186,26.38,2022-10-26 09:59:17.859375
187,36.36,2022-10-26 09:59:17.875000
188,44.09,2022-10-26 09:59:17.890625
189,49.66,2022-10-26 09:59:17.906250
190,53.27,2022-10-26 09:59:17.921875
191,55.0,2022-10-26 09:59:17.937500
192,54.75,2022-10-26 09:59:17.953125
193,52.53,2022-10-26 09:59:17.968750
194,48.62,2022-10-26 09:59:17.984375
195,43.66,2022-10-26 09:59:18.000000
196,38.45,2022-10-26 09:59:18.015625
197,33.75,2022-10-26 09:59:18.031250
198,29.97,2022-10-26 09:59:18.046875
199,27.19,2022-10-26 09:59:18.062500
200,25.24,2022-10-26 09:59:18.078125
201,23.85,2022-10-26 09:59:18.093750
202,22.78,2022-10-26 09:59:18.109375
203,21.76,2022-10-26 09:59:18.125000
204,20.57,2022-10-26 09:59:18.140625
205,18.96,2022-10-26 09:59:18.156250
206,16.66,2022-10-26 09:59:18.171875
207,13.57,2022-10-26 09:59:18.187500
208,9.7,2022-10-26 09:59:18.203125
209,5.22,2022-10-26 09:59:18.218750
210,0.35,2022-10-26 09:59:18.234375
211,-4.72,2022-10-26 09:59:18.250000
212,-9.92,2022-10-26 09:59:18.265625
213,-15.29,2022-10-26 09:59:18.281250
214,-21.02,2022-10-26 09:59:18.296875
215,-27.35,2022-10-26 09:59:18.312500
216,-34.45,2022-10-26 09:59:18.328125
217,-42.17,2022-10-26 09:59:18.343750
218,-49.86,2022-10-26 09:59:18.359375
219,-56.27,2022-10-26 09:59:18.375000
220,-59.69,2022-10-26 09:59:18.390625
221,-58.54,2022-10-26 09:59:18.406250
222,-51.94,2022-10-26 09:59:18.421875
223,-40.15,2022-10-26 09:59:18.437500
224,-24.6,2022-10-26 09:59:18.453125
225,-7.42,2022-10-26 09:59:18.468750
226,9.15,2022-10-26 09:59:18.484375
227,23.43,2022-10-26 09:59:18.500000
228,34.53,2022-10-26 09:59:18.515625
229,42.35,2022-10-26 09:59:18.531250
230,47.21,2022-10-26 09:59:18.546875
231,49.57,2022-10-26 09:59:18.562500
232,49.84,2022-10-26 09:59:18.578125
233,48.33,2022-10-26 09:59:18.593750
234,45.35,2022-10-26 09:59:18.609375
235,41.26,2022-10-26 09:59:18.625000
236,36.59,2022-10-26 09:59:18.640625
237,31.97,2022-10-26 09:59:18.656250
238,28.09,2022-10-26 09:59:18.671875
239,25.46,2022-10-26 09:59:18.687500
240,24.21,2022-10-26 09:59:18.703125
241,24.06,2022-10-26 09:59:18.718750
242,24.32,2022-10-26 09:59:18.734375
243,24.23,2022-10-26 09:59:18.750000
244,23.2,2022-10-26 09:59:18.765625
245,21.08,2022-10-26 09:59:18.781250
246,18.09,2022-10-26 09:59:18.796875
247,14.65,2022-10-26 09:59:18.812500
248,11.09,2022-10-26 09:59:18.828125
249,7.53,2022-10-26 09:59:18.843750
250,3.83,2022-10-26 09:59:18.859375
251,-0.26,2022-10-26 09:59:18.875000
252,-4.91,2022-10-26 09:59:18.890625
253,-10.18,2022-10-26 09:59:18.906250
254,-16.1,2022-10-26 09:59:18.921875
255,-22.73,2022-10-26 09:59:18.937500
256,-30.22,2022-10-26 09:59:18.953125
257,-38.54,2022-10-26 09:59:18.968750
258,-47.17,2022-10-26 09:59:18.984375
259,-54.91,2022-10-26 09:59:19.000000
260,-60.01,2022-10-26 09:59:19.015625
261,-60.69,2022-10-26 09:59:19.031250
262,-55.88,2022-10-26 09:59:19.046875
263,-45.79,2022-10-26 09:59:19.062500
264,-31.91,2022-10-26 09:59:19.078125
265,-16.51,2022-10-26 09:59:19.093750
266,-1.84,2022-10-26 09:59:19.109375
267,10.62,2022-10-26 09:59:19.125000
268,20.44,2022-10-26 09:59:19.140625
269,27.92,2022-10-26 09:59:19.156250
270,33.53,2022-10-26 09:59:19.171875
271,37.45,2022-10-26 09:59:19.187500
272,39.45,2022-10-26 09:59:19.203125
273,39.17,2022-10-26 09:59:19.218750
274,36.58,2022-10-26 09:59:19.234375
275,32.25,2022-10-26 09:59:19.250000
276,27.32,2022-10-26 09:59:19.265625
277,23.07,2022-10-26 09:59:19.281250
278,20.46,2022-10-26 09:59:19.296875
279,19.78,2022-10-26 09:59:19.312500
280,20.63,2022-10-26 09:59:19.328125
281,22.18,2022-10-26 09:59:19.343750
282,23.54,2022-10-26 09:59:19.359375
283,24.06,2022-10-26 09:59:19.375000
284,23.45,2022-10-26 09:59:19.390625
285,21.79,2022-10-26 09:59:19.406250
286,19.31,2022-10-26 09:59:19.421875
287,16.25,2022-10-26 09:59:19.437500
288,12.73,2022-10-26 09:59:19.453125
289,8.78,2022-10-26 09:59:19.468750
290,4.31,2022-10-26 09:59:19.484375
291,-0.82,2022-10-26 09:59:19.500000
292,-6.77,2022-10-26 09:59:19.515625
293,-13.74,2022-10-26 09:59:19.531250
294,-21.83,2022-10-26 09:59:19.546875
295,-30.91,2022-10-26 09:59:19.562500
296,-40.4,2022-10-26 09:59:19.578125
297,-49.17,2022-10-26 09:59:19.593750
298,-55.62,2022-10-26 09:59:19.609375
299,-58.17,2022-10-26 09:59:19.625000
300,-55.72,2022-10-26 09:59:19.640625
301,-48.21,2022-10-26 09:59:19.656250
302,-36.66,2022-10-26 09:59:19.671875
303,-22.96,2022-10-26 09:59:19.687500
304,-9.18,2022-10-26 09:59:19.703125
305,3.02,2022-10-26 09:59:19.718750
306,12.78,2022-10-26 09:59:19.734375
307,19.95,2022-10-26 09:59:19.750000
308,24.71,2022-10-26 09:59:19.765625
309,27.32,2022-10-26 09:59:19.781250
310,27.83,2022-10-26 09:59:19.796875
311,26.32,2022-10-26 09:59:19.812500
312,23.08,2022-10-26 09:59:19.828125
313,18.7,2022-10-26 09:59:19.843750
314,14.02,2022-10-26 09:59:19.859375
315,9.89,2022-10-26 09:59:19.875000
316,6.9,2022-10-26 09:59:19.890625
317,5.28,2022-10-26 09:59:19.906250
318,4.91,2022-10-26 09:59:19.921875
319,5.41,2022-10-26 09:59:19.937500
320,6.32,2022-10-26 09:59:19.953125
321,7.13,2022-10-26 09:59:19.968750
322,7.42,2022-10-26 09:59:19.984375
323,6.89,2022-10-26 09:59:20.000000
324,5.45,2022-10-26 09:59:20.015625
325,3.23,2022-10-26 09:59:20.031250
326,0.49,2022-10-26 09:59:20.046875
327,-2.48,2022-10-26 09:59:20.062500
328,-5.52,2022-10-26 09:59:20.078125
329,-8.6,2022-10-26 09:59:20.093750
330,-11.87,2022-10-26 09:59:20.109375
331,-15.56,2022-10-26 09:59:20.125000
332,-19.94,2022-10-26 09:59:20.140625
333,-25.23,2022-10-26 09:59:20.156250
334,-31.53,2022-10-26 09:59:20.171875
335,-38.59,2022-10-26 09:59:20.187500
336,-45.67,2022-10-26 09:59:20.203125
337,-51.47,2022-10-26 09:59:20.218750
338,-54.42,2022-10-26 09:59:20.234375
339,-53.1,2022-10-26 09:59:20.250000
340,-46.79,2022-10-26 09:59:20.265625
341,-35.84,2022-10-26 09:59:20.281250
342,-21.64,2022-10-26 09:59:20.296875
343,-6.23,2022-10-26 09:59:20.312500
344,8.42,2022-10-26 09:59:20.328125
345,20.95,2022-10-26 09:59:20.343750
346,30.93,2022-10-26 09:59:20.359375
347,38.65,2022-10-26 09:59:20.375000
348,44.74,2022-10-26 09:59:20.390625
349,49.74,2022-10-26 09:59:20.406250
350,53.81,2022-10-26 09:59:20.421875
351,56.87,2022-10-26 09:59:20.437500
352,58.81,2022-10-26 09:59:20.453125
353,59.72,2022-10-26 09:59:20.468750
354,60.02,2022-10-26 09:59:20.484375
355,60.3,2022-10-26 09:59:20.500000
356,61.05,2022-10-26 09:59:20.515625
357,62.48,2022-10-26 09:59:20.531250
358,64.46,2022-10-26 09:59:20.546875
359,66.69,2022-10-26 09:59:20.562500
360,68.89,2022-10-26 09:59:20.578125
361,71.01,2022-10-26 09:59:20.593750
362,73.06,2022-10-26 09:59:20.609375
363,74.99,2022-10-26 09:59:20.625000
364,76.43,2022-10-26 09:59:20.640625
365,76.76,2022-10-26 09:59:20.656250
366,75.34,2022-10-26 09:59:20.671875
367,71.85,2022-10-26 09:59:20.687500
368,66.54,2022-10-26 09:59:20.703125
369,60.15,2022-10-26 09:59:20.718750
370,53.55,2022-10-26 09:59:20.734375
371,47.26,2022-10-26 09:59:20.750000
372,41.17,2022-10-26 09:59:20.765625
373,34.56,2022-10-26 09:59:20.781250
374,26.41,2022-10-26 09:59:20.796875
375,15.96,2022-10-26 09:59:20.812500
376,3.14,2022-10-26 09:59:20.828125
377,-11.24,2022-10-26 09:59:20.843750
378,-25.63,2022-10-26 09:59:20.859375
379,-38.21,2022-10-26 09:59:20.875000
380,-47.39,2022-10-26 09:59:20.890625
381,-52.27,2022-10-26 09:59:20.906250
382,-52.87,2022-10-26 09:59:20.921875
383,-49.93,2022-10-26 09:59:20.937500
384,-44.63,2022-10-26 09:59:20.953125
385,-38.2,2022-10-26 09:59:20.968750
386,-31.69,2022-10-26 09:59:20.984375
387,-25.95,2022-10-26 09:59:21.000000
388,-21.72,2022-10-26 09:59:21.015625
389,-19.59,2022-10-26 09:59:21.031250
390,-19.91,2022-10-26 09:59:21.046875
391,-22.58,2022-10-26 09:59:21.062500
392,-27.07,2022-10-26 09:59:21.078125
393,-32.54,2022-10-26 09:59:21.093750
394,-38.27,2022-10-26 09:59:21.109375
395,-43.71,2022-10-26 09:59:21.125000
396,-48.58,2022-10-26 09:59:21.140625
397,-52.51,2022-10-26 09:59:21.156250
398,-54.97,2022-10-26 09:59:21.171875
399,-55.32,2022-10-26 09:59:21.187500
400,-53.25,2022-10-26 09:59:21.203125
401,-49.18,2022-10-26 09:59:21.218750
402,-44.35,2022-10-26 09:59:21.234375
403,-40.45,2022-10-26 09:59:21.250000
404,-38.82,2022-10-26 09:59:21.265625
405,-39.84,2022-10-26 09:59:21.281250
406,-42.71,2022-10-26 09:59:21.296875
407,-45.91,2022-10-26 09:59:21.312500
408,-48.02,2022-10-26 09:59:21.328125
409,-48.51,2022-10-26 09:59:21.343750
410,-47.93,2022-10-26 09:59:21.359375
411,-47.55,2022-10-26 09:59:21.375000
412,-48.59,2022-10-26 09:59:21.390625
413,-51.61,2022-10-26 09:59:21.406250
414,-56.25,2022-10-26 09:59:21.421875
415,-61.44,2022-10-26 09:59:21.437500
416,-65.88,2022-10-26 09:59:21.453125
417,-68.42,2022-10-26 09:59:21.468750
418,-68.22,2022-10-26 09:59:21.484375
419,-64.76,2022-10-26 09:59:21.500000
420,-57.83,2022-10-26 09:59:21.515625
421,-47.55,2022-10-26 09:59:21.531250
422,-34.61,2022-10-26 09:59:21.546875
423,-20.28,2022-10-26 09:59:21.562500
424,-6.28,2022-10-26 09:59:21.578125
425,5.7,2022-10-26 09:59:21.593750
426,14.35,2022-10-26 09:59:21.609375
427,19.04,2022-10-26 09:59:21.625000
428,19.81,2022-10-26 09:59:21.640625
429,17.11,2022-10-26 09:59:21.656250
430,11.6,2022-10-26 09:59:21.671875
431,4.01,2022-10-26 09:59:21.687500
432,-4.86,2022-10-26 09:59:21.703125
433,-13.98,2022-10-26 09:59:21.718750
434,-22.1,2022-10-26 09:59:21.734375
435,-27.86,2022-10-26 09:59:21.750000
436,-30.11,2022-10-26 09:59:21.765625
437,-28.36,2022-10-26 09:59:21.781250
438,-23.07,2022-10-26 09:59:21.796875
439,-15.68,2022-10-26 09:59:21.812500
440,-8.21,2022-10-26 09:59:21.828125
441,-2.57,2022-10-26 09:59:21.843750
442,0.13,2022-10-26 09:59:21.859375
443,-0.03,2022-10-26 09:59:21.875000
444,-2.0,2022-10-26 09:59:21.890625
445,-4.45,2022-10-26 09:59:21.906250
446,-6.51,2022-10-26 09:59:21.921875
447,-8.21,2022-10-26 09:59:21.937500
448,-10.39,2022-10-26 09:59:21.953125
449,-14.1,2022-10-26 09:59:21.968750
450,-19.98,2022-10-26 09:59:21.984375
451,-27.81,2022-10-26 09:59:22.000000
452,-36.57,2022-10-26 09:59:22.015625
453,-44.78,2022-10-26 09:59:22.031250
454,-50.94,2022-10-26 09:59:22.046875
455,-53.87,2022-10-26 09:59:22.062500
456,-52.94,2022-10-26 09:59:22.078125
457,-48.1,2022-10-26 09:59:22.093750
458,-39.81,2022-10-26 09:59:22.109375
459,-28.93,2022-10-26 09:59:22.125000
460,-16.49,2022-10-26 09:59:22.140625
461,-3.47,2022-10-26 09:59:22.156250
462,9.33,2022-10-26 09:59:22.171875
463,21.37,2022-10-26 09:59:22.187500
464,32.3,2022-10-26 09:59:22.203125
465,41.79,2022-10-26 09:59:22.218750
466,49.37,2022-10-26 09:59:22.234375
467,54.44,2022-10-26 09:59:22.250000
468,56.47,2022-10-26 09:59:22.265625
469,55.28,2022-10-26 09:59:22.281250
470,51.27,2022-10-26 09:59:22.296875
471,45.53,2022-10-26 09:59:22.312500
472,39.62,2022-10-26 09:59:22.328125
473,35.17,2022-10-26 09:59:22.343750
474,33.39,2022-10-26 09:59:22.359375
475,34.77,2022-10-26 09:59:22.375000
476,38.91,2022-10-26 09:59:22.390625
477,44.7,2022-10-26 09:59:22.406250
478,50.6,2022-10-26 09:59:22.421875
479,55.12,2022-10-26 09:59:22.437500
480,57.27,2022-10-26 09:59:22.453125
481,56.75,2022-10-26 09:59:22.468750
482,53.96,2022-10-26 09:59:22.484375
483,49.71,2022-10-26 09:59:22.500000
484,44.84,2022-10-26 09:59:22.515625
485,39.77,2022-10-26 09:59:22.531250
486,34.51,2022-10-26 09:59:22.546875
487,28.7,2022-10-26 09:59:22.562500
488,21.96,2022-10-26 09:59:22.578125
489,14.23,2022-10-26 09:59:22.593750
490,5.85,2022-10-26 09:59:22.609375
491,-2.45,2022-10-26 09:59:22.625000
492,-9.8,2022-10-26 09:59:22.640625
493,-15.38,2022-10-26 09:59:22.656250
494,-18.62,2022-10-26 09:59:22.671875
495,-19.18,2022-10-26 09:59:22.687500
496,-17.06,2022-10-26 09:59:22.703125
497,-12.52,2022-10-26 09:59:22.718750
498,-6.17,2022-10-26 09:59:22.734375
499,1.14,2022-10-26 09:59:22.750000
500,8.5,2022-10-26 09:59:22.765625
501,15.09,2022-10-26 09:59:22.781250
502,20.41,2022-10-26 09:59:22.796875
503,24.29,2022-10-26 09:59:22.812500
504,26.8,2022-10-26 09:59:22.828125
505,28.01,2022-10-26 09:59:22.843750
506,27.9,2022-10-26 09:59:22.859375
507,26.3,2022-10-26 09:59:22.875000
508,23.12,2022-10-26 09:59:22.890625
509,18.56,2022-10-26 09:59:22.906250
510,13.25,2022-10-26 09:59:22.921875
511,8.17,2022-10-26 09:59:22.937500
512,4.25,2022-10-26 09:59:22.953125
513,1.99,2022-10-26 09:59:22.968750
514,1.23,2022-10-26 09:59:22.984375
515,1.31,2022-10-26 09:59:23.000000
516,1.45,2022-10-26 09:59:23.015625
517,1.15,2022-10-26 09:59:23.031250
518,0.44,2022-10-26 09:59:23.046875
519,-0.32,2022-10-26 09:59:23.062500
520,-0.68,2022-10-26 09:59:23.078125
521,-0.44,2022-10-26 09:59:23.093750
522,0.22,2022-10-26 09:59:23.109375
523,0.86,2022-10-26 09:59:23.125000
524,1.06,2022-10-26 09:59:23.140625
525,0.57,2022-10-26 09:59:23.156250
526,-0.6,2022-10-26 09:59:23.171875
527,-2.33,2022-10-26 09:59:23.187500
528,-4.6,2022-10-26 09:59:23.203125
529,-7.59,2022-10-26 09:59:23.218750
530,-11.59,2022-10-26 09:59:23.234375
531,-16.7,2022-10-26 09:59:23.250000
532,-22.54,2022-10-26 09:59:23.265625
533,-28.06,2022-10-26 09:59:23.281250
534,-31.75,2022-10-26 09:59:23.296875
535,-32.2,2022-10-26 09:59:23.312500
536,-28.56,2022-10-26 09:59:23.328125
537,-21.09,2022-10-26 09:59:23.343750
538,-11.08,2022-10-26 09:59:23.359375
539,-0.39,2022-10-26 09:59:23.375000
540,9.2,2022-10-26 09:59:23.390625
541,16.61,2022-10-26 09:59:23.406250
542,21.66,2022-10-26 09:59:23.421875
543,24.83,2022-10-26 09:59:23.437500
544,26.84,2022-10-26 09:59:23.453125
545,28.25,2022-10-26 09:59:23.468750
546,29.17,2022-10-26 09:59:23.484375
547,29.39,2022-10-26 09:59:23.500000
548,28.62,2022-10-26 09:59:23.515625
549,26.79,2022-10-26 09:59:23.531250
550,24.17,2022-10-26 09:59:23.546875
551,21.32,2022-10-26 09:59:23.562500
552,18.89,2022-10-26 09:59:23.578125
553,17.29,2022-10-26 09:59:23.593750
554,16.52,2022-10-26 09:59:23.609375
555,16.23,2022-10-26 09:59:23.625000
556,15.89,2022-10-26 09:59:23.640625
557,15.06,2022-10-26 09:59:23.656250
558,13.63,2022-10-26 09:59:23.671875
559,11.81,2022-10-26 09:59:23.687500
560,9.93,2022-10-26 09:59:23.703125
561,8.21,2022-10-26 09:59:23.718750
562,6.58,2022-10-26 09:59:23.734375
563,4.72,2022-10-26 09:59:23.750000
564,2.27,2022-10-26 09:59:23.765625
565,-0.94,2022-10-26 09:59:23.781250
566,-4.68,2022-10-26 09:59:23.796875
567,-8.43,2022-10-26 09:59:23.812500
568,-11.58,2022-10-26 09:59:23.828125
569,-13.75,2022-10-26 09:59:23.843750
570,-15.0,2022-10-26 09:59:23.859375
571,-15.77,2022-10-26 09:59:23.875000
572,-16.72,2022-10-26 09:59:23.890625
573,-18.51,2022-10-26 09:59:23.906250
574,-21.55,2022-10-26 09:59:23.921875
575,-25.96,2022-10-26 09:59:23.937500
576,-31.55,2022-10-26 09:59:23.953125
577,-37.8,2022-10-26 09:59:23.968750
578,-43.92,2022-10-26 09:59:23.984375
579,-48.79,2022-10-26 09:59:24.000000
580,-51.22,2022-10-26 09:59:24.015625
581,-50.22,2022-10-26 09:59:24.031250
582,-45.37,2022-10-26 09:59:24.046875
583,-37.12,2022-10-26 09:59:24.062500
584,-26.7,2022-10-26 09:59:24.078125
585,-15.74,2022-10-26 09:59:24.093750
586,-5.7,2022-10-26 09:59:24.109375
587,2.57,2022-10-26 09:59:24.125000
588,8.97,2022-10-26 09:59:24.140625
589,13.93,2022-10-26 09:59:24.156250
590,18.01,2022-10-26 09:59:24.171875
591,21.49,2022-10-26 09:59:24.187500
592,24.3,2022-10-26 09:59:24.203125
593,26.11,2022-10-26 09:59:24.218750
594,26.69,2022-10-26 09:59:24.234375
595,26.06,2022-10-26 09:59:24.250000
596,24.56,2022-10-26 09:59:24.265625
597,22.74,2022-10-26 09:59:24.281250
598,21.14,2022-10-26 09:59:24.296875
599,20.06,2022-10-26 09:59:24.312500
600,19.57,2022-10-26 09:59:24.328125
601,19.5,2022-10-26 09:59:24.343750
602,19.64,2022-10-26 09:59:24.359375
603,19.82,2022-10-26 09:59:24.375000
604,19.95,2022-10-26 09:59:24.390625
605,19.95,2022-10-26 09:59:24.406250
606,19.75,2022-10-26 09:59:24.421875
607,19.17,2022-10-26 09:59:24.437500
608,18.08,2022-10-26 09:59:24.453125
609,16.4,2022-10-26 09:59:24.468750
610,14.2,2022-10-26 09:59:24.484375
611,11.66,2022-10-26 09:59:24.500000
612,9.05,2022-10-26 09:59:24.515625
613,6.55,2022-10-26 09:59:24.531250
614,4.23,2022-10-26 09:59:24.546875
615,2.05,2022-10-26 09:59:24.562500
616,-0.11,2022-10-26 09:59:24.578125
617,-2.33,2022-10-26 09:59:24.593750
618,-4.64,2022-10-26 09:59:24.609375
619,-7.0,2022-10-26 09:59:24.625000
620,-9.41,2022-10-26 09:59:24.640625
621,-11.85,2022-10-26 09:59:24.656250
622,-14.4,2022-10-26 09:59:24.671875
623,-17.19,2022-10-26 09:59:24.687500
624,-20.42,2022-10-26 09:59:24.703125
625,-24.27,2022-10-26 09:59:24.718750
626,-28.77,2022-10-26 09:59:24.734375
627,-33.63,2022-10-26 09:59:24.750000
628,-38.12,2022-10-26 09:59:24.765625
629,-41.18,2022-10-26 09:59:24.781250
630,-41.69,2022-10-26 09:59:24.796875
631,-38.84,2022-10-26 09:59:24.812500
632,-32.58,2022-10-26 09:59:24.828125
633,-23.64,2022-10-26 09:59:24.843750
634,-13.37,2022-10-26 09:59:24.859375
635,-3.23,2022-10-26 09:59:24.875000
636,5.66,2022-10-26 09:59:24.890625
637,12.8,2022-10-26 09:59:24.906250
638,18.27,2022-10-26 09:59:24.921875
639,22.42,2022-10-26 09:59:24.937500
640,25.58,2022-10-26 09:59:24.953125
641,27.85,2022-10-26 09:59:24.968750
642,29.14,2022-10-26 09:59:24.984375
643,29.39,2022-10-26 09:59:25.000000
644,28.71,2022-10-26 09:59:25.015625
645,27.43,2022-10-26 09:59:25.031250
646,26.03,2022-10-26 09:59:25.046875
647,24.92,2022-10-26 09:59:25.062500
648,24.29,2022-10-26 09:59:25.078125
649,24.08,2022-10-26 09:59:25.093750
650,24.02,2022-10-26 09:59:25.109375
651,23.83,2022-10-26 09:59:25.125000
652,23.38,2022-10-26 09:59:25.140625
653,22.67,2022-10-26 09:59:25.156250
654,21.86,2022-10-26 09:59:25.171875
655,21.09,2022-10-26 09:59:25.187500
656,20.36,2022-10-26 09:59:25.203125
657,19.57,2022-10-26 09:59:25.218750
658,18.51,2022-10-26 09:59:25.234375
659,16.98,2022-10-26 09:59:25.250000
660,14.86,2022-10-26 09:59:25.265625
661,12.12,2022-10-26 09:59:25.281250
662,8.79,2022-10-26 09:59:25.296875
663,5.0,2022-10-26 09:59:25.312500
664,0.97,2022-10-26 09:59:25.328125
665,-3.0,2022-10-26 09:59:25.343750
666,-6.56,2022-10-26 09:59:25.359375
667,-9.47,2022-10-26 09:59:25.375000
668,-11.71,2022-10-26 09:59:25.390625
669,-13.5,2022-10-26 09:59:25.406250
670,-15.28,2022-10-26 09:59:25.421875
671,-17.53,2022-10-26 09:59:25.437500
672,-20.64,2022-10-26 09:59:25.453125
673,-24.76,2022-10-26 09:59:25.468750
674,-29.77,2022-10-26 09:59:25.484375
675,-35.19,2022-10-26 09:59:25.500000
676,-40.22,2022-10-26 09:59:25.515625
677,-43.79,2022-10-26 09:59:25.531250
678,-44.81,2022-10-26 09:59:25.546875
679,-42.42,2022-10-26 09:59:25.562500
680,-36.37,2022-10-26 09:59:25.578125
681,-27.15,2022-10-26 09:59:25.593750
682,-15.94,2022-10-26 09:59:25.609375
683,-4.24,2022-10-26 09:59:25.625000
684,6.61,2022-10-26 09:59:25.640625
685,15.71,2022-10-26 09:59:25.656250
686,22.76,2022-10-26 09:59:25.671875
687,27.87,2022-10-26 09:59:25.687500
688,31.33,2022-10-26 09:59:25.703125
689,33.42,2022-10-26 09:59:25.718750
690,34.35,2022-10-26 09:59:25.734375
691,34.31,2022-10-26 09:59:25.750000
692,33.57,2022-10-26 09:59:25.765625
693,32.44,2022-10-26 09:59:25.781250
694,31.18,2022-10-26 09:59:25.796875
695,29.99,2022-10-26 09:59:25.812500
696,28.91,2022-10-26 09:59:25.828125
697,27.89,2022-10-26 09:59:25.843750
698,26.83,2022-10-26 09:59:25.859375
699,25.7,2022-10-26 09:59:25.875000
700,24.54,2022-10-26 09:59:25.890625
701,23.42,2022-10-26 09:59:25.906250
702,22.39,2022-10-26 09:59:25.921875
703,21.45,2022-10-26 09:59:25.937500
704,20.41,2022-10-26 09:59:25.953125
705,19.07,2022-10-26 09:59:25.968750
706,17.21,2022-10-26 09:59:25.984375
707,14.73,2022-10-26 09:59:26.000000
708,11.71,2022-10-26 09:59:26.015625
709,8.37,2022-10-26 09:59:26.031250
710,5.0,2022-10-26 09:59:26.046875
711,1.76,2022-10-26 09:59:26.062500
712,-1.3,2022-10-26 09:59:26.078125
713,-4.25,2022-10-26 09:59:26.093750
714,-7.23,2022-10-26 09:59:26.109375
715,-10.31,2022-10-26 09:59:26.125000
716,-13.48,2022-10-26 09:59:26.140625
717,-16.67,2022-10-26 09:59:26.156250
718,-19.78,2022-10-26 09:59:26.171875
719,-22.72,2022-10-26 09:59:26.187500
720,-25.48,2022-10-26 09:59:26.203125
721,-28.05,2022-10-26 09:59:26.218750
722,-30.51,2022-10-26 09:59:26.234375
723,-33.02,2022-10-26 09:59:26.250000
724,-35.86,2022-10-26 09:59:26.265625
725,-39.34,2022-10-26 09:59:26.281250
726,-43.63,2022-10-26 09:59:26.296875
727,-48.48,2022-10-26 09:59:26.312500
728,-53.12,2022-10-26 09:59:26.328125
729,-56.32,2022-10-26 09:59:26.343750
730,-56.72,2022-10-26 09:59:26.359375
731,-53.41,2022-10-26 09:59:26.375000
732,-46.28,2022-10-26 09:59:26.390625
733,-36.13,2022-10-26 09:59:26.406250
734,-24.47,2022-10-26 09:59:26.421875
735,-12.93,2022-10-26 09:59:26.437500
736,-2.8,2022-10-26 09:59:26.453125
737,5.32,2022-10-26 09:59:26.468750
738,11.49,2022-10-26 09:59:26.484375
739,16.08,2022-10-26 09:59:26.500000
740,19.55,2022-10-26 09:59:26.515625
741,22.1,2022-10-26 09:59:26.531250
742,23.76,2022-10-26 09:59:26.546875
743,24.41,2022-10-26 09:59:26.562500
744,24.07,2022-10-26 09:59:26.578125
745,22.91,2022-10-26 09:59:26.593750
746,21.29,2022-10-26 09:59:26.609375
747,19.7,2022-10-26 09:59:26.625000
748,18.58,2022-10-26 09:59:26.640625
749,18.24,2022-10-26 09:59:26.656250
750,18.7,2022-10-26 09:59:26.671875
751,19.74,2022-10-26 09:59:26.687500
752,20.92,2022-10-26 09:59:26.703125
753,21.81,2022-10-26 09:59:26.718750
754,22.07,2022-10-26 09:59:26.734375
755,21.61,2022-10-26 09:59:26.750000
756,20.59,2022-10-26 09:59:26.765625
757,19.27,2022-10-26 09:59:26.781250
758,17.9,2022-10-26 09:59:26.796875
759,16.57,2022-10-26 09:59:26.812500
760,15.17,2022-10-26 09:59:26.828125
761,13.48,2022-10-26 09:59:26.843750
762,11.29,2022-10-26 09:59:26.859375
763,8.52,2022-10-26 09:59:26.875000
764,5.23,2022-10-26 09:59:26.890625
765,1.62,2022-10-26 09:59:26.906250
766,-2.07,2022-10-26 09:59:26.921875
767,-5.64,2022-10-26 09:59:26.937500
768,-8.94,2022-10-26 09:59:26.953125
769,-11.89,2022-10-26 09:59:26.968750
770,-14.48,2022-10-26 09:59:26.984375
771,-16.85,2022-10-26 09:59:27.000000
772,-19.25,2022-10-26 09:59:27.015625
773,-22.1,2022-10-26 09:59:27.031250
774,-25.77,2022-10-26 09:59:27.046875
775,-30.55,2022-10-26 09:59:27.062500
776,-36.3,2022-10-26 09:59:27.078125
777,-42.35,2022-10-26 09:59:27.093750
778,-47.6,2022-10-26 09:59:27.109375
779,-50.63,2022-10-26 09:59:27.125000
780,-50.32,2022-10-26 09:59:27.140625
781,-46.1,2022-10-26 09:59:27.156250
782,-38.31,2022-10-26 09:59:27.171875
783,-28.11,2022-10-26 09:59:27.187500
784,-17.1,2022-10-26 09:59:27.203125
785,-6.85,2022-10-26 09:59:27.218750
786,1.55,2022-10-26 09:59:27.234375
787,7.66,2022-10-26 09:59:27.250000
788,11.67,2022-10-26 09:59:27.265625
789,14.05,2022-10-26 09:59:27.281250
790,15.31,2022-10-26 09:59:27.296875
791,15.78,2022-10-26 09:59:27.312500
792,15.65,2022-10-26 09:59:27.328125
793,15.04,2022-10-26 09:59:27.343750
794,14.13,2022-10-26 09:59:27.359375
795,13.18,2022-10-26 09:59:27.375000
796,12.5,2022-10-26 09:59:27.390625
797,12.32,2022-10-26 09:59:27.406250
798,12.69,2022-10-26 09:59:27.421875
799,13.45,2022-10-26 09:59:27.437500
800,14.26,2022-10-26 09:59:27.453125
801,14.79,2022-10-26 09:59:27.468750
802,14.83,2022-10-26 09:59:27.484375
803,14.29,2022-10-26 09:59:27.500000
804,13.21,2022-10-26 09:59:27.515625
805,11.58,2022-10-26 09:59:27.531250
806,9.33,2022-10-26 09:59:27.546875
807,6.33,2022-10-26 09:59:27.562500
808,2.53,2022-10-26 09:59:27.578125
809,-1.9,2022-10-26 09:59:27.593750
810,-6.48,2022-10-26 09:59:27.609375
811,-10.45,2022-10-26 09:59:27.625000
812,-12.97,2022-10-26 09:59:27.640625
813,-13.33,2022-10-26 09:59:27.656250
814,-11.38,2022-10-26 09:59:27.671875
815,-7.49,2022-10-26 09:59:27.687500
816,-2.71,2022-10-26 09:59:27.703125
817,1.62,2022-10-26 09:59:27.718750
818,4.19,2022-10-26 09:59:27.734375
819,4.16,2022-10-26 09:59:27.750000
820,1.41,2022-10-26 09:59:27.765625
821,-3.57,2022-10-26 09:59:27.781250
822,-9.91,2022-10-26 09:59:27.796875
823,-16.72,2022-10-26 09:59:27.812500
824,-23.26,2022-10-26 09:59:27.828125
825,-28.95,2022-10-26 09:59:27.843750
826,-33.11,2022-10-26 09:59:27.859375
827,-34.92,2022-10-26 09:59:27.875000
828,-33.5,2022-10-26 09:59:27.890625
829,-28.32,2022-10-26 09:59:27.906250
830,-19.54,2022-10-26 09:59:27.921875
831,-8.17,2022-10-26 09:59:27.937500
832,4.19,2022-10-26 09:59:27.953125
833,15.84,2022-10-26 09:59:27.968750
834,25.6,2022-10-26 09:59:27.984375
835,33.07,2022-10-26 09:59:28.000000
836,38.56,2022-10-26 09:59:28.015625
837,42.66,2022-10-26 09:59:28.031250
838,45.82,2022-10-26 09:59:28.046875
839,48.01,2022-10-26 09:59:28.062500
840,48.86,2022-10-26 09:59:28.078125
841,47.93,2022-10-26 09:59:28.093750
842,45.11,2022-10-26 09:59:28.109375
843,40.84,2022-10-26 09:59:28.125000
844,35.99,2022-10-26 09:59:28.140625
845,31.61,2022-10-26 09:59:28.156250
846,28.38,2022-10-26 09:59:28.171875
847,26.45,2022-10-26 09:59:28.187500
848,25.32,2022-10-26 09:59:28.203125
849,24.18,2022-10-26 09:59:28.218750
850,22.25,2022-10-26 09:59:28.234375
851,19.11,2022-10-26 09:59:28.250000
852,14.73,2022-10-26 09:59:28.265625
853,9.38,2022-10-26 09:59:28.281250
854,3.46,2022-10-26 09:59:28.296875
855,-2.65,2022-10-26 09:59:28.312500
856,-8.51,2022-10-26 09:59:28.328125
857,-13.71,2022-10-26 09:59:28.343750
858,-17.77,2022-10-26 09:59:28.359375
859,-20.4,2022-10-26 09:59:28.375000
860,-21.57,2022-10-26 09:59:28.390625
861,-21.63,2022-10-26 09:59:28.406250
862,-21.29,2022-10-26 09:59:28.421875
863,-21.25,2022-10-26 09:59:28.437500
864,-22.14,2022-10-26 09:59:28.453125
865,-24.28,2022-10-26 09:59:28.468750
866,-27.76,2022-10-26 09:59:28.484375
867,-32.57,2022-10-26 09:59:28.500000
868,-38.71,2022-10-26 09:59:28.515625
869,-46.06,2022-10-26 09:59:28.531250
870,-54.19,2022-10-26 09:59:28.546875
871,-62.2,2022-10-26 09:59:28.562500
872,-68.72,2022-10-26 09:59:28.578125
873,-72.23,2022-10-26 09:59:28.593750
874,-71.48,2022-10-26 09:59:28.609375
875,-66.04,2022-10-26 09:59:28.625000
876,-56.46,2022-10-26 09:59:28.640625
877,-44.12,2022-10-26 09:59:28.656250
878,-30.8,2022-10-26 09:59:28.671875
879,-18.11,2022-10-26 09:59:28.687500
880,-7.14,2022-10-26 09:59:28.703125
881,1.69,2022-10-26 09:59:28.718750
882,8.4,2022-10-26 09:59:28.734375
883,13.21,2022-10-26 09:59:28.750000
884,16.26,2022-10-26 09:59:28.765625
885,17.65,2022-10-26 09:59:28.781250
886,17.44,2022-10-26 09:59:28.796875
887,15.83,2022-10-26 09:59:28.812500
888,13.29,2022-10-26 09:59:28.828125
889,10.38,2022-10-26 09:59:28.843750
890,7.66,2022-10-26 09:59:28.859375
891,5.5,2022-10-26 09:59:28.875000
892,3.88,2022-10-26 09:59:28.890625
893,2.52,2022-10-26 09:59:28.906250
894,0.99,2022-10-26 09:59:28.921875
895,-0.97,2022-10-26 09:59:28.937500
896,-3.3,2022-10-26 09:59:28.953125
897,-5.56,2022-10-26 09:59:28.968750
898,-7.17,2022-10-26 09:59:28.984375
899,-7.69,2022-10-26 09:59:29.000000
900,-7.05,2022-10-26 09:59:29.015625
901,-5.64,2022-10-26 09:59:29.031250
902,-4.11,2022-10-26 09:59:29.046875
903,-3.07,2022-10-26 09:59:29.062500
904,-2.87,2022-10-26 09:59:29.078125
905,-3.41,2022-10-26 09:59:29.093750
906,-4.29,2022-10-26 09:59:29.109375
907,-5.08,2022-10-26 09:59:29.125000
908,-5.53,2022-10-26 09:59:29.140625
909,-5.78,2022-10-26 09:59:29.156250
910,-6.3,2022-10-26 09:59:29.171875
911,-7.75,2022-10-26 09:59:29.187500
912,-10.7,2022-10-26 09:59:29.203125
913,-15.34,2022-10-26 09:59:29.218750
914,-21.29,2022-10-26 09:59:29.234375
915,-27.57,2022-10-26 09:59:29.250000
916,-32.76,2022-10-26 09:59:29.265625
917,-35.37,2022-10-26 09:59:29.281250
918,-34.32,2022-10-26 09:59:29.296875
919,-29.3,2022-10-26 09:59:29.312500
920,-20.9,2022-10-26 09:59:29.328125
921,-10.43,2022-10-26 09:59:29.343750
922,0.53,2022-10-26 09:59:29.359375
923,10.71,2022-10-26 09:59:29.375000
924,19.42,2022-10-26 09:59:29.390625
925,26.6,2022-10-26 09:59:29.406250
926,32.53,2022-10-26 09:59:29.421875
927,37.43,2022-10-26 09:59:29.437500
928,41.22,2022-10-26 09:59:29.453125
929,43.58,2022-10-26 09:59:29.468750
930,44.19,2022-10-26 09:59:29.484375
931,43.13,2022-10-26 09:59:29.500000
932,40.89,2022-10-26 09:59:29.515625
933,38.37,2022-10-26 09:59:29.531250
934,36.46,2022-10-26 09:59:29.546875
935,35.67,2022-10-26 09:59:29.562500
936,36.02,2022-10-26 09:59:29.578125
937,37.05,2022-10-26 09:59:29.593750
938,38.14,2022-10-26 09:59:29.609375
939,38.78,2022-10-26 09:59:29.625000
940,38.76,2022-10-26 09:59:29.640625
941,38.15,2022-10-26 09:59:29.656250
942,37.18,2022-10-26 09:59:29.671875
943,36.07,2022-10-26 09:59:29.687500
944,34.86,2022-10-26 09:59:29.703125
945,33.45,2022-10-26 09:59:29.718750
946,31.57,2022-10-26 09:59:29.734375
947,28.96,2022-10-26 09:59:29.750000
948,25.47,2022-10-26 09:59:29.765625
949,21.12,2022-10-26 09:59:29.781250
950,16.16,2022-10-26 09:59:29.796875
951,11.02,2022-10-26 09:59:29.812500
952,6.12,2022-10-26 09:59:29.828125
953,1.75,2022-10-26 09:59:29.843750
954,-2.15,2022-10-26 09:59:29.859375
955,-6.06,2022-10-26 09:59:29.875000
956,-10.64,2022-10-26 09:59:29.890625
957,-16.56,2022-10-26 09:59:29.906250
958,-24.13,2022-10-26 09:59:29.921875
959,-33.21,2022-10-26 09:59:29.937500
960,-43.11,2022-10-26 09:59:29.953125
961,-52.74,2022-10-26 09:59:29.968750
962,-60.81,2022-10-26 09:59:29.984375
963,-66.02,2022-10-26 09:59:30.000000
964,-67.38,2022-10-26 09:59:30.015625
965,-64.4,2022-10-26 09:59:30.031250
966,-57.32,2022-10-26 09:59:30.046875
967,-47.0,2022-10-26 09:59:30.062500
968,-34.79,2022-10-26 09:59:30.078125
969,-22.17,2022-10-26 09:59:30.093750
970,-10.4,2022-10-26 09:59:30.109375
971,-0.29,2022-10-26 09:59:30.125000
972,7.84,2022-10-26 09:59:30.140625
973,14.0,2022-10-26 09:59:30.156250
974,18.39,2022-10-26 09:59:30.171875
975,21.28,2022-10-26 09:59:30.187500
976,22.89,2022-10-26 09:59:30.203125
977,23.51,2022-10-26 09:59:30.218750
978,23.39,2022-10-26 09:59:30.234375
979,22.75,2022-10-26 09:59:30.250000
980,21.76,2022-10-26 09:59:30.265625
981,20.51,2022-10-26 09:59:30.281250
982,19.09,2022-10-26 09:59:30.296875
983,17.57,2022-10-26 09:59:30.312500
984,16.1,2022-10-26 09:59:30.328125
985,14.85,2022-10-26 09:59:30.343750
986,13.98,2022-10-26 09:59:30.359375
987,13.54,2022-10-26 09:59:30.375000
988,13.48,2022-10-26 09:59:30.390625
989,13.53,2022-10-26 09:59:30.406250
990,13.27,2022-10-26 09:59:30.421875
991,12.22,2022-10-26 09:59:30.437500
992,10.04,2022-10-26 09:59:30.453125
993,6.64,2022-10-26 09:59:30.468750
994,2.32,2022-10-26 09:59:30.484375
995,-2.34,2022-10-26 09:59:30.500000
996,-6.69,2022-10-26 09:59:30.515625
997,-10.25,2022-10-26 09:59:30.531250
998,-12.94,2022-10-26 09:59:30.546875
999,-15.04,2022-10-26 09:59:30.562500
1000,-17.15,2022-10-26 09:59:30.578125
1001,-19.93,2022-10-26 09:59:30.593750
1002,-23.98,2022-10-26 09:59:30.609375
1003,-29.6,2022-10-26 09:59:30.625000
1004,-36.68,2022-10-26 09:59:30.640625
1005,-44.55,2022-10-26 09:59:30.656250
1006,-52.03,2022-10-26 09:59:30.671875
1007,-57.54,2022-10-26 09:59:30.687500
1008,-59.54,2022-10-26 09:59:30.703125
1009,-56.97,2022-10-26 09:59:30.718750
1010,-49.64,2022-10-26 09:59:30.734375
1011,-38.35,2022-10-26 09:59:30.750000
1012,-24.64,2022-10-26 09:59:30.765625
1013,-10.35,2022-10-26 09:59:30.781250
1014,2.97,2022-10-26 09:59:30.796875
1015,14.32,2022-10-26 09:59:30.812500
1016,23.31,2022-10-26 09:59:30.828125
1017,29.91,2022-10-26 09:59:30.843750
1018,34.26,2022-10-26 09:59:30.859375
1019,36.45,2022-10-26 09:59:30.875000
1020,36.58,2022-10-26 09:59:30.890625
1021,34.86,2022-10-26 09:59:30.906250
1022,31.76,2022-10-26 09:59:30.921875
1023,27.88,2022-10-26 09:59:30.937500
1024,23.98,2022-10-26 09:59:30.953125
1025,20.71,2022-10-26 09:59:30.968750
1026,18.5,2022-10-26 09:59:30.984375
1027,17.54,2022-10-26 09:59:31.000000
1028,17.79,2022-10-26 09:59:31.015625
1029,19.05,2022-10-26 09:59:31.031250
1030,21.04,2022-10-26 09:59:31.046875
1031,23.39,2022-10-26 09:59:31.062500
1032,25.65,2022-10-26 09:59:31.078125
1033,27.31,2022-10-26 09:59:31.093750
1034,27.92,2022-10-26 09:59:31.109375
1035,27.18,2022-10-26 09:59:31.125000
1036,25.11,2022-10-26 09:59:31.140625
1037,22.11,2022-10-26 09:59:31.156250
1038,18.89,2022-10-26 09:59:31.171875
1039,16.19,2022-10-26 09:59:31.187500
1040,14.52,2022-10-26 09:59:31.203125
1041,13.93,2022-10-26 09:59:31.218750
1042,13.91,2022-10-26 09:59:31.234375
1043,13.57,2022-10-26 09:59:31.250000
1044,11.9,2022-10-26 09:59:31.265625
1045,8.1,2022-10-26 09:59:31.281250
1046,1.76,2022-10-26 09:59:31.296875
1047,-7.07,2022-10-26 09:59:31.312500
1048,-17.83,2022-10-26 09:59:31.328125
1049,-29.49,2022-10-26 09:59:31.343750
1050,-40.62,2022-10-26 09:59:31.359375
1051,-49.62,2022-10-26 09:59:31.375000
1052,-54.96,2022-10-26 09:59:31.390625
1053,-55.7,2022-10-26 09:59:31.406250
1054,-51.82,2022-10-26 09:59:31.421875
1055,-44.36,2022-10-26 09:59:31.437500
1056,-35.06,2022-10-26 09:59:31.453125
1057,-25.78,2022-10-26 09:59:31.468750
1058,-17.73,2022-10-26 09:59:31.484375
1059,-11.16,2022-10-26 09:59:31.500000
1060,-5.5,2022-10-26 09:59:31.515625
1061,0.05,2022-10-26 09:59:31.531250
1062,5.86,2022-10-26 09:59:31.546875
1063,11.57,2022-10-26 09:59:31.562500
1064,16.25,2022-10-26 09:59:31.578125
1065,18.96,2022-10-26 09:59:31.593750
1066,19.33,2022-10-26 09:59:31.609375
1067,17.8,2022-10-26 09:59:31.625000
1068,15.32,2022-10-26 09:59:31.640625
1069,12.8,2022-10-26 09:59:31.656250
1070,10.62,2022-10-26 09:59:31.671875
1071,8.5,2022-10-26 09:59:31.687500
1072,5.75,2022-10-26 09:59:31.703125
1073,1.85,2022-10-26 09:59:31.718750
1074,-3.12,2022-10-26 09:59:31.734375
1075,-8.41,2022-10-26 09:59:31.750000
1076,-12.82,2022-10-26 09:59:31.765625
1077,-15.29,2022-10-26 09:59:31.781250
1078,-15.3,2022-10-26 09:59:31.796875
1079,-13.18,2022-10-26 09:59:31.812500
1080,-9.96,2022-10-26 09:59:31.828125
1081,-6.97,2022-10-26 09:59:31.843750
1082,-5.43,2022-10-26 09:59:31.859375
1083,-6.11,2022-10-26 09:59:31.875000
1084,-9.36,2022-10-26 09:59:31.890625
1085,-15.11,2022-10-26 09:59:31.906250
1086,-23.02,2022-10-26 09:59:31.921875
1087,-32.42,2022-10-26 09:59:31.937500
1088,-42.17,2022-10-26 09:59:31.953125
1089,-50.66,2022-10-26 09:59:31.968750
1090,-56.05,2022-10-26 09:59:31.984375
1091,-56.74,2022-10-26 09:59:32.000000
1092,-51.92,2022-10-26 09:59:32.015625
1093,-41.96,2022-10-26 09:59:32.031250
1094,-28.32,2022-10-26 09:59:32.046875
1095,-13.09,2022-10-26 09:59:32.062500
1096,1.68,2022-10-26 09:59:32.078125
1097,14.48,2022-10-26 09:59:32.093750
1098,24.5,2022-10-26 09:59:32.109375
1099,31.54,2022-10-26 09:59:32.125000
1100,35.68,2022-10-26 09:59:32.140625
1101,37.1,2022-10-26 09:59:32.156250
1102,36.07,2022-10-26 09:59:32.171875
1103,33.0,2022-10-26 09:59:32.187500
1104,28.63,2022-10-26 09:59:32.203125
1105,23.87,2022-10-26 09:59:32.218750
1106,19.72,2022-10-26 09:59:32.234375
1107,16.91,2022-10-26 09:59:32.250000
1108,15.7,2022-10-26 09:59:32.265625
1109,15.78,2022-10-26 09:59:32.281250
1110,16.43,2022-10-26 09:59:32.296875
1111,16.79,2022-10-26 09:59:32.312500
1112,16.19,2022-10-26 09:59:32.328125
1113,14.36,2022-10-26 09:59:32.343750
1114,11.46,2022-10-26 09:59:32.359375
1115,8.02,2022-10-26 09:59:32.375000
1116,4.65,2022-10-26 09:59:32.390625
1117,1.87,2022-10-26 09:59:32.406250
1118,-0.15,2022-10-26 09:59:32.421875
1119,-1.63,2022-10-26 09:59:32.437500
1120,-3.17,2022-10-26 09:59:32.453125
1121,-5.49,2022-10-26 09:59:32.468750
1122,-9.12,2022-10-26 09:59:32.484375
1123,-14.09,2022-10-26 09:59:32.500000
1124,-19.79,2022-10-26 09:59:32.515625
1125,-25.01,2022-10-26 09:59:32.531250
1126,-28.3,2022-10-26 09:59:32.546875
1127,-28.5,2022-10-26 09:59:32.562500
1128,-25.09,2022-10-26 09:59:32.578125
1129,-18.37,2022-10-26 09:59:32.593750
1130,-9.36,2022-10-26 09:59:32.609375
1131,0.64,2022-10-26 09:59:32.625000
1132,10.3,2022-10-26 09:59:32.640625
1133,18.66,2022-10-26 09:59:32.656250
1134,25.09,2022-10-26 09:59:32.671875
1135,29.31,2022-10-26 09:59:32.687500
1136,31.23,2022-10-26 09:59:32.703125
1137,30.97,2022-10-26 09:59:32.718750
1138,28.83,2022-10-26 09:59:32.734375
1139,25.27,2022-10-26 09:59:32.750000
1140,20.95,2022-10-26 09:59:32.765625
1141,16.53,2022-10-26 09:59:32.781250
1142,12.62,2022-10-26 09:59:32.796875
1143,9.6,2022-10-26 09:59:32.812500
1144,7.53,2022-10-26 09:59:32.828125
1145,6.2,2022-10-26 09:59:32.843750
1146,5.24,2022-10-26 09:59:32.859375
1147,4.28,2022-10-26 09:59:32.875000
1148,3.1,2022-10-26 09:59:32.890625
1149,1.69,2022-10-26 09:59:32.906250
1150,0.16,2022-10-26 09:59:32.921875
1151,-1.32,2022-10-26 09:59:32.937500
1152,-2.69,2022-10-26 09:59:32.953125
1153,-4.01,2022-10-26 09:59:32.968750
1154,-5.55,2022-10-26 09:59:32.984375
1155,-7.7,2022-10-26 09:59:33.000000
1156,-10.91,2022-10-26 09:59:33.015625
1157,-15.51,2022-10-26 09:59:33.031250
1158,-21.55,2022-10-26 09:59:33.046875
1159,-28.61,2022-10-26 09:59:33.062500
1160,-35.78,2022-10-26 09:59:33.078125
1161,-41.7,2022-10-26 09:59:33.093750
1162,-44.93,2022-10-26 09:59:33.109375
1163,-44.39,2022-10-26 09:59:33.125000
1164,-39.69,2022-10-26 09:59:33.140625
1165,-31.33,2022-10-26 09:59:33.156250
1166,-20.5,2022-10-26 09:59:33.171875
1167,-8.75,2022-10-26 09:59:33.187500
1168,2.54,2022-10-26 09:59:33.203125
1169,12.38,2022-10-26 09:59:33.218750
1170,20.28,2022-10-26 09:59:33.234375
1171,26.11,2022-10-26 09:59:33.250000
1172,29.9,2022-10-26 09:59:33.265625
1173,31.7,2022-10-26 09:59:33.281250
1174,31.56,2022-10-26 09:59:33.296875
1175,29.59,2022-10-26 09:59:33.312500
1176,26.15,2022-10-26 09:59:33.328125
1177,21.84,2022-10-26 09:59:33.343750
1178,17.46,2022-10-26 09:59:33.359375
1179,13.75,2022-10-26 09:59:33.375000
1180,11.17,2022-10-26 09:59:33.390625
1181,9.74,2022-10-26 09:59:33.406250
1182,9.07,2022-10-26 09:59:33.421875
1183,8.54,2022-10-26 09:59:33.437500
1184,7.61,2022-10-26 09:59:33.453125
1185,6.03,2022-10-26 09:59:33.468750
1186,3.89,2022-10-26 09:59:33.484375
1187,1.51,2022-10-26 09:59:33.500000
1188,-0.76,2022-10-26 09:59:33.515625
1189,-2.8,2022-10-26 09:59:33.531250
1190,-4.77,2022-10-26 09:59:33.546875
1191,-7.06,2022-10-26 09:59:33.562500
1192,-10.15,2022-10-26 09:59:33.578125
1193,-14.46,2022-10-26 09:59:33.593750
1194,-20.15,2022-10-26 09:59:33.609375
1195,-26.98,2022-10-26 09:59:33.625000
1196,-34.17,2022-10-26 09:59:33.640625
1197,-40.49,2022-10-26 09:59:33.656250
1198,-44.46,2022-10-26 09:59:33.671875
1199,-44.81,2022-10-26 09:59:33.687500
1200,-40.93,2022-10-26 09:59:33.703125
1201,-33.15,2022-10-26 09:59:33.718750
1202,-22.64,2022-10-26 09:59:33.734375
1203,-11.03,2022-10-26 09:59:33.750000
1204,0.12,2022-10-26 09:59:33.765625
1205,9.72,2022-10-26 09:59:33.781250
1206,17.26,2022-10-26 09:59:33.796875
1207,22.72,2022-10-26 09:59:33.812500
1208,26.27,2022-10-26 09:59:33.828125
1209,28.06,2022-10-26 09:59:33.843750
1210,28.21,2022-10-26 09:59:33.859375
1211,26.81,2022-10-26 09:59:33.875000
1212,24.11,2022-10-26 09:59:33.890625
1213,20.56,2022-10-26 09:59:33.906250
1214,16.74,2022-10-26 09:59:33.921875
1215,13.2,2022-10-26 09:59:33.937500
1216,10.31,2022-10-26 09:59:33.953125
1217,8.13,2022-10-26 09:59:33.968750
1218,6.44,2022-10-26 09:59:33.984375
1219,4.8,2022-10-26 09:59:34.000000
1220,2.83,2022-10-26 09:59:34.015625
1221,0.45,2022-10-26 09:59:34.031250
1222,-2.14,2022-10-26 09:59:34.046875
1223,-4.51,2022-10-26 09:59:34.062500
1224,-6.29,2022-10-26 09:59:34.078125
1225,-7.42,2022-10-26 09:59:34.093750
1226,-8.23,2022-10-26 09:59:34.109375
1227,-9.36,2022-10-26 09:59:34.125000
1228,-11.5,2022-10-26 09:59:34.140625
1229,-15.13,2022-10-26 09:59:34.156250
1230,-20.33,2022-10-26 09:59:34.171875
1231,-26.73,2022-10-26 09:59:34.187500
1232,-33.6,2022-10-26 09:59:34.203125
1233,-39.95,2022-10-26 09:59:34.218750
1234,-44.66,2022-10-26 09:59:34.234375
1235,-46.67,2022-10-26 09:59:34.250000
1236,-45.23,2022-10-26 09:59:34.265625
1237,-40.12,2022-10-26 09:59:34.281250
1238,-31.79,2022-10-26 09:59:34.296875
1239,-21.28,2022-10-26 09:59:34.312500
1240,-9.92,2022-10-26 09:59:34.328125
1241,0.98,2022-10-26 09:59:34.343750
1242,10.48,2022-10-26 09:59:34.359375
1243,18.07,2022-10-26 09:59:34.375000
1244,23.62,2022-10-26 09:59:34.390625
1245,27.13,2022-10-26 09:59:34.406250
1246,28.67,2022-10-26 09:59:34.421875
1247,28.26,2022-10-26 09:59:34.437500
1248,26.08,2022-10-26 09:59:34.453125
1249,22.52,2022-10-26 09:59:34.468750
1250,18.25,2022-10-26 09:59:34.484375
1251,14.14,2022-10-26 09:59:34.500000
1252,10.92,2022-10-26 09:59:34.515625
1253,9.02,2022-10-26 09:59:34.531250
1254,8.36,2022-10-26 09:59:34.546875
1255,8.45,2022-10-26 09:59:34.562500
1256,8.53,2022-10-26 09:59:34.578125
1257,8.03,2022-10-26 09:59:34.593750
1258,6.74,2022-10-26 09:59:34.609375
1259,4.89,2022-10-26 09:59:34.625000
1260,3.04,2022-10-26 09:59:34.640625
1261,1.73,2022-10-26 09:59:34.656250
1262,1.19,2022-10-26 09:59:34.671875
1263,1.25,2022-10-26 09:59:34.687500
1264,1.39,2022-10-26 09:59:34.703125
1265,0.93,2022-10-26 09:59:34.718750
1266,-0.67,2022-10-26 09:59:34.734375
1267,-3.67,2022-10-26 09:59:34.750000
1268,-8.0,2022-10-26 09:59:34.765625
1269,-13.22,2022-10-26 09:59:34.781250
1270,-18.55,2022-10-26 09:59:34.796875
1271,-22.91,2022-10-26 09:59:34.812500
1272,-25.15,2022-10-26 09:59:34.828125
1273,-24.28,2022-10-26 09:59:34.843750
1274,-19.9,2022-10-26 09:59:34.859375
1275,-12.38,2022-10-26 09:59:34.875000
1276,-2.86,2022-10-26 09:59:34.890625
1277,7.04,2022-10-26 09:59:34.906250
1278,15.79,2022-10-26 09:59:34.921875
1279,22.34,2022-10-26 09:59:34.937500
1280,26.45,2022-10-26 09:59:34.953125
1281,28.54,2022-10-26 09:59:34.968750
1282,29.39,2022-10-26 09:59:34.984375
1283,29.63,2022-10-26 09:59:35.000000
1284,29.53,2022-10-26 09:59:35.015625
1285,28.93,2022-10-26 09:59:35.031250
1286,27.46,2022-10-26 09:59:35.046875
1287,24.93,2022-10-26 09:59:35.062500
1288,21.45,2022-10-26 09:59:35.078125
1289,17.5,2022-10-26 09:59:35.093750
1290,13.67,2022-10-26 09:59:35.109375
1291,10.35,2022-10-26 09:59:35.125000
1292,7.64,2022-10-26 09:59:35.140625
1293,5.32,2022-10-26 09:59:35.156250
1294,3.13,2022-10-26 09:59:35.171875
1295,0.91,2022-10-26 09:59:35.187500
1296,-1.31,2022-10-26 09:59:35.203125
1297,-3.39,2022-10-26 09:59:35.218750
1298,-5.31,2022-10-26 09:59:35.234375
1299,-7.22,2022-10-26 09:59:35.250000
1300,-9.4,2022-10-26 09:59:35.265625
1301,-12.1,2022-10-26 09:59:35.281250
1302,-15.39,2022-10-26 09:59:35.296875
1303,-19.12,2022-10-26 09:59:35.312500
1304,-23.09,2022-10-26 09:59:35.328125
1305,-27.17,2022-10-26 09:59:35.343750
1306,-31.31,2022-10-26 09:59:35.359375
1307,-35.42,2022-10-26 09:59:35.375000
1308,-39.14,2022-10-26 09:59:35.390625
1309,-41.74,2022-10-26 09:59:35.406250
1310,-42.24,2022-10-26 09:59:35.421875
1311,-39.83,2022-10-26 09:59:35.437500
1312,-34.19,2022-10-26 09:59:35.453125
1313,-25.78,2022-10-26 09:59:35.468750
1314,-15.67,2022-10-26 09:59:35.484375
1315,-5.2,2022-10-26 09:59:35.500000
1316,4.49,2022-10-26 09:59:35.515625
1317,12.76,2022-10-26 09:59:35.531250
1318,19.53,2022-10-26 09:59:35.546875
1319,25.06,2022-10-26 09:59:35.562500
1320,29.61,2022-10-26 09:59:35.578125
1321,33.19,2022-10-26 09:59:35.593750
1322,35.54,2022-10-26 09:59:35.609375
1323,36.31,2022-10-26 09:59:35.625000
1324,35.34,2022-10-26 09:59:35.640625
1325,32.86,2022-10-26 09:59:35.656250
1326,29.49,2022-10-26 09:59:35.671875
1327,26.01,2022-10-26 09:59:35.687500
1328,23.04,2022-10-26 09:59:35.703125
1329,20.86,2022-10-26 09:59:35.718750
1330,19.31,2022-10-26 09:59:35.734375
1331,17.98,2022-10-26 09:59:35.750000
1332,16.53,2022-10-26 09:59:35.765625
1333,14.8,2022-10-26 09:59:35.781250
1334,12.96,2022-10-26 09:59:35.796875
1335,11.32,2022-10-26 09:59:35.812500
1336,10.08,2022-10-26 09:59:35.828125
1337,9.23,2022-10-26 09:59:35.843750
1338,8.51,2022-10-26 09:59:35.859375
1339,7.5,2022-10-26 09:59:35.875000
1340,5.81,2022-10-26 09:59:35.890625
1341,3.17,2022-10-26 09:59:35.906250
1342,-0.5,2022-10-26 09:59:35.921875
1343,-5.19,2022-10-26 09:59:35.937500
1344,-10.7,2022-10-26 09:59:35.953125
1345,-16.66,2022-10-26 09:59:35.968750
1346,-22.45,2022-10-26 09:59:35.984375
1347,-27.16,2022-10-26 09:59:36.000000
1348,-29.75,2022-10-26 09:59:36.015625
1349,-29.33,2022-10-26 09:59:36.031250
1350,-25.52,2022-10-26 09:59:36.046875
1351,-18.61,2022-10-26 09:59:36.062500
1352,-9.56,2022-10-26 09:59:36.078125
1353,0.35,2022-10-26 09:59:36.093750
1354,9.89,2022-10-26 09:59:36.109375
1355,18.21,2022-10-26 09:59:36.125000
1356,24.94,2022-10-26 09:59:36.140625
1357,30.07,2022-10-26 09:59:36.156250
1358,33.66,2022-10-26 09:59:36.171875
1359,35.74,2022-10-26 09:59:36.187500
1360,36.27,2022-10-26 09:59:36.203125
1361,35.26,2022-10-26 09:59:36.218750
1362,32.95,2022-10-26 09:59:36.234375
1363,29.81,2022-10-26 09:59:36.250000
1364,26.52,2022-10-26 09:59:36.265625
1365,23.72,2022-10-26 09:59:36.281250
1366,21.85,2022-10-26 09:59:36.296875
1367,21.06,2022-10-26 09:59:36.312500
1368,21.12,2022-10-26 09:59:36.328125
1369,21.56,2022-10-26 09:59:36.343750
1370,21.85,2022-10-26 09:59:36.359375
1371,21.56,2022-10-26 09:59:36.375000
1372,20.48,2022-10-26 09:59:36.390625
1373,18.61,2022-10-26 09:59:36.406250
1374,16.12,2022-10-26 09:59:36.421875
1375,13.19,2022-10-26 09:59:36.437500
1376,9.98,2022-10-26 09:59:36.453125
1377,6.61,2022-10-26 09:59:36.468750
1378,3.11,2022-10-26 09:59:36.484375
1379,-0.51,2022-10-26 09:59:36.500000
1380,-4.33,2022-10-26 09:59:36.515625
1381,-8.47,2022-10-26 09:59:36.531250
1382,-13.12,2022-10-26 09:59:36.546875
1383,-18.47,2022-10-26 09:59:36.562500
1384,-24.62,2022-10-26 09:59:36.578125
1385,-31.51,2022-10-26 09:59:36.593750
1386,-38.74,2022-10-26 09:59:36.609375
1387,-45.55,2022-10-26 09:59:36.625000
1388,-50.86,2022-10-26 09:59:36.640625
1389,-53.47,2022-10-26 09:59:36.656250
1390,-52.47,2022-10-26 09:59:36.671875
1391,-47.57,2022-10-26 09:59:36.687500
1392,-39.34,2022-10-26 09:59:36.703125
1393,-29.1,2022-10-26 09:59:36.718750
1394,-18.52,2022-10-26 09:59:36.734375
1395,-9.11,2022-10-26 09:59:36.750000
1396,-1.8,2022-10-26 09:59:36.765625
1397,3.17,2022-10-26 09:59:36.781250
1398,6.07,2022-10-26 09:59:36.796875
1399,7.33,2022-10-26 09:59:36.812500
1400,7.28,2022-10-26 09:59:36.828125
1401,6.1,2022-10-26 09:59:36.843750
1402,3.97,2022-10-26 09:59:36.859375
1403,1.12,2022-10-26 09:59:36.875000
1404,-1.96,2022-10-26 09:59:36.890625
1405,-4.76,2022-10-26 09:59:36.906250
1406,-6.79,2022-10-26 09:59:36.921875
1407,-7.8,2022-10-26 09:59:36.937500
1408,-7.78,2022-10-26 09:59:36.953125
1409,-6.94,2022-10-26 09:59:36.968750
1410,-5.59,2022-10-26 09:59:36.984375
1411,-4.05,2022-10-26 09:59:37.000000
1412,-2.61,2022-10-26 09:59:37.015625
1413,-1.56,2022-10-26 09:59:37.031250
1414,-1.16,2022-10-26 09:59:37.046875
1415,-1.63,2022-10-26 09:59:37.062500
1416,-3.1,2022-10-26 09:59:37.078125
1417,-5.54,2022-10-26 09:59:37.093750
1418,-8.73,2022-10-26 09:59:37.109375
1419,-12.34,2022-10-26 09:59:37.125000
1420,-15.98,2022-10-26 09:59:37.140625
1421,-19.29,2022-10-26 09:59:37.156250
1422,-22.06,2022-10-26 09:59:37.171875
1423,-24.25,2022-10-26 09:59:37.187500
1424,-26.1,2022-10-26 09:59:37.203125
1425,-28.08,2022-10-26 09:59:37.218750
1426,-30.72,2022-10-26 09:59:37.234375
1427,-34.33,2022-10-26 09:59:37.250000
1428,-38.69,2022-10-26 09:59:37.265625
1429,-42.84,2022-10-26 09:59:37.281250
1430,-45.28,2022-10-26 09:59:37.296875
1431,-44.43,2022-10-26 09:59:37.312500
1432,-39.3,2022-10-26 09:59:37.328125
1433,-30.0,2022-10-26 09:59:37.343750
1434,-17.81,2022-10-26 09:59:37.359375
1435,-4.74,2022-10-26 09:59:37.375000
1436,7.18,2022-10-26 09:59:37.390625
1437,16.59,2022-10-26 09:59:37.406250
1438,23.12,2022-10-26 09:59:37.421875
1439,27.19,2022-10-26 09:59:37.437500
1440,29.57,2022-10-26 09:59:37.453125
1441,30.9,2022-10-26 09:59:37.468750
1442,31.42,2022-10-26 09:59:37.484375
1443,31.06,2022-10-26 09:59:37.500000
1444,29.76,2022-10-26 09:59:37.515625
1445,27.62,2022-10-26 09:59:37.531250
1446,25.02,2022-10-26 09:59:37.546875
1447,22.52,2022-10-26 09:59:37.562500
1448,20.6,2022-10-26 09:59:37.578125
1449,19.47,2022-10-26 09:59:37.593750
1450,19.05,2022-10-26 09:59:37.609375
1451,19.1,2022-10-26 09:59:37.625000
1452,19.26,2022-10-26 09:59:37.640625
1453,19.24,2022-10-26 09:59:37.656250
1454,18.83,2022-10-26 09:59:37.671875
1455,17.89,2022-10-26 09:59:37.687500
1456,16.35,2022-10-26 09:59:37.703125
1457,14.18,2022-10-26 09:59:37.718750
1458,11.42,2022-10-26 09:59:37.734375
1459,8.21,2022-10-26 09:59:37.750000
1460,4.84,2022-10-26 09:59:37.765625
1461,1.64,2022-10-26 09:59:37.781250
1462,-1.01,2022-10-26 09:59:37.796875
1463,-2.87,2022-10-26 09:59:37.812500
1464,-3.9,2022-10-26 09:59:37.828125
1465,-4.39,2022-10-26 09:59:37.843750
1466,-4.86,2022-10-26 09:59:37.859375
1467,-6.02,2022-10-26 09:59:37.875000
1468,-8.54,2022-10-26 09:59:37.890625
1469,-12.78,2022-10-26 09:59:37.906250
1470,-18.63,2022-10-26 09:59:37.921875
1471,-25.3,2022-10-26 09:59:37.937500
1472,-31.42,2022-10-26 09:59:37.953125
1473,-35.35,2022-10-26 09:59:37.968750
1474,-35.63,2022-10-26 09:59:37.984375
1475,-31.49,2022-10-26 09:59:38.000000
1476,-23.08,2022-10-26 09:59:38.015625
1477,-11.5,2022-10-26 09:59:38.031250
1478,1.57,2022-10-26 09:59:38.046875
1479,14.39,2022-10-26 09:59:38.062500
1480,25.59,2022-10-26 09:59:38.078125
1481,34.33,2022-10-26 09:59:38.093750
1482,40.28,2022-10-26 09:59:38.109375
1483,43.42,2022-10-26 09:59:38.125000
1484,43.86,2022-10-26 09:59:38.140625
1485,41.83,2022-10-26 09:59:38.156250
1486,37.72,2022-10-26 09:59:38.171875
1487,32.17,2022-10-26 09:59:38.187500
1488,26.03,2022-10-26 09:59:38.203125
1489,20.19,2022-10-26 09:59:38.218750
1490,15.36,2022-10-26 09:59:38.234375
1491,11.92,2022-10-26 09:59:38.250000
1492,9.86,2022-10-26 09:59:38.265625
1493,8.85,2022-10-26 09:59:38.281250
1494,8.46,2022-10-26 09:59:38.296875
1495,8.25,2022-10-26 09:59:38.312500
1496,8.01,2022-10-26 09:59:38.328125
1497,7.6,2022-10-26 09:59:38.343750
1498,6.97,2022-10-26 09:59:38.359375
1499,6.04,2022-10-26 09:59:38.375000
1500,4.6,2022-10-26 09:59:38.390625
1501,2.4,2022-10-26 09:59:38.406250
1502,-0.73,2022-10-26 09:59:38.421875
1503,-4.72,2022-10-26 09:59:38.437500
1504,-9.2,2022-10-26 09:59:38.453125
1505,-13.59,2022-10-26 09:59:38.468750
1506,-17.26,2022-10-26 09:59:38.484375
1507,-19.8,2022-10-26 09:59:38.500000
1508,-21.17,2022-10-26 09:59:38.515625
1509,-21.72,2022-10-26 09:59:38.531250
1510,-22.08,2022-10-26 09:59:38.546875
1511,-22.95,2022-10-26 09:59:38.562500
1512,-24.85,2022-10-26 09:59:38.578125
1513,-27.92,2022-10-26 09:59:38.593750
1514,-31.84,2022-10-26 09:59:38.609375
1515,-35.72,2022-10-26 09:59:38.625000
1516,-38.27,2022-10-26 09:59:38.640625
1517,-38.03,2022-10-26 09:59:38.656250
1518,-33.86,2022-10-26 09:59:38.671875
1519,-25.36,2022-10-26 09:59:38.687500
1520,-13.06,2022-10-26 09:59:38.703125
1521,1.62,2022-10-26 09:59:38.718750
1522,16.84,2022-10-26 09:59:38.734375
1523,30.88,2022-10-26 09:59:38.750000
1524,42.57,2022-10-26 09:59:38.765625
1525,51.39,2022-10-26 09:59:38.781250
1526,57.31,2022-10-26 09:59:38.796875
1527,60.49,2022-10-26 09:59:38.812500
1528,61.14,2022-10-26 09:59:38.828125
1529,59.38,2022-10-26 09:59:38.843750
1530,55.35,2022-10-26 09:59:38.859375
1531,49.32,2022-10-26 09:59:38.875000
1532,41.7,2022-10-26 09:59:38.890625
1533,33.06,2022-10-26 09:59:38.906250
1534,24.03,2022-10-26 09:59:38.921875
1535,15.31,2022-10-26 09:59:38.937500
1536,7.53,2022-10-26 09:59:38.953125
1537,1.2,2022-10-26 09:59:38.968750
1538,-3.39,2022-10-26 09:59:38.984375
1539,-6.31,2022-10-26 09:59:39.000000
1540,-7.94,2022-10-26 09:59:39.015625
1541,-8.91,2022-10-26 09:59:39.031250
1542,-9.88,2022-10-26 09:59:39.046875
1543,-11.4,2022-10-26 09:59:39.062500
1544,-13.69,2022-10-26 09:59:39.078125
1545,-16.72,2022-10-26 09:59:39.093750
1546,-20.18,2022-10-26 09:59:39.109375
1547,-23.7,2022-10-26 09:59:39.125000
1548,-26.92,2022-10-26 09:59:39.140625
1549,-29.62,2022-10-26 09:59:39.156250
1550,-31.72,2022-10-26 09:59:39.171875
1551,-33.29,2022-10-26 09:59:39.187500
1552,-34.51,2022-10-26 09:59:39.203125
1553,-35.66,2022-10-26 09:59:39.218750
1554,-37.08,2022-10-26 09:59:39.234375
1555,-39.16,2022-10-26 09:59:39.250000
1556,-42.09,2022-10-26 09:59:39.265625
1557,-45.71,2022-10-26 09:59:39.281250
1558,-49.26,2022-10-26 09:59:39.296875
1559,-51.58,2022-10-26 09:59:39.312500
1560,-51.35,2022-10-26 09:59:39.328125
1561,-47.65,2022-10-26 09:59:39.343750
1562,-40.35,2022-10-26 09:59:39.359375
1563,-30.24,2022-10-26 09:59:39.375000
1564,-18.78,2022-10-26 09:59:39.390625
1565,-7.55,2022-10-26 09:59:39.406250
1566,2.19,2022-10-26 09:59:39.421875
1567,9.9,2022-10-26 09:59:39.437500
1568,15.57,2022-10-26 09:59:39.453125
1569,19.56,2022-10-26 09:59:39.468750
1570,22.16,2022-10-26 09:59:39.484375
1571,23.46,2022-10-26 09:59:39.500000
1572,23.42,2022-10-26 09:59:39.515625
1573,22.04,2022-10-26 09:59:39.531250
1574,19.61,2022-10-26 09:59:39.546875
1575,16.7,2022-10-26 09:59:39.562500
1576,14.08,2022-10-26 09:59:39.578125
1577,12.36,2022-10-26 09:59:39.593750
1578,11.82,2022-10-26 09:59:39.609375
1579,12.24,2022-10-26 09:59:39.625000
1580,13.01,2022-10-26 09:59:39.640625
1581,13.44,2022-10-26 09:59:39.656250
1582,13.04,2022-10-26 09:59:39.671875
1583,11.69,2022-10-26 09:59:39.687500
1584,9.6,2022-10-26 09:59:39.703125
1585,7.2,2022-10-26 09:59:39.718750
1586,4.82,2022-10-26 09:59:39.734375
1587,2.61,2022-10-26 09:59:39.750000
1588,0.48,2022-10-26 09:59:39.765625
1589,-1.81,2022-10-26 09:59:39.781250
1590,-4.48,2022-10-26 09:59:39.796875
1591,-7.72,2022-10-26 09:59:39.812500
1592,-11.6,2022-10-26 09:59:39.828125
1593,-16.18,2022-10-26 09:59:39.843750
1594,-21.41,2022-10-26 09:59:39.859375
1595,-27.1,2022-10-26 09:59:39.875000
1596,-32.74,2022-10-26 09:59:39.890625
1597,-37.45,2022-10-26 09:59:39.906250
1598,-40.15,2022-10-26 09:59:39.921875
1599,-39.83,2022-10-26 09:59:39.937500
1600,-35.99,2022-10-26 09:59:39.953125
1601,-28.86,2022-10-26 09:59:39.968750
1602,-19.44,2022-10-26 09:59:39.984375
1603,-9.13,2022-10-26 09:59:40.000000
1604,0.71,2022-10-26 09:59:40.015625
1605,9.09,2022-10-26 09:59:40.031250
1606,15.56,2022-10-26 09:59:40.046875
1607,20.12,2022-10-26 09:59:40.062500
1608,22.91,2022-10-26 09:59:40.078125
1609,24.11,2022-10-26 09:59:40.093750
1610,23.87,2022-10-26 09:59:40.109375
1611,22.35,2022-10-26 09:59:40.125000
1612,19.92,2022-10-26 09:59:40.140625
1613,17.0,2022-10-26 09:59:40.156250
1614,14.1,2022-10-26 09:59:40.171875
1615,11.61,2022-10-26 09:59:40.187500
1616,9.8,2022-10-26 09:59:40.203125
1617,8.72,2022-10-26 09:59:40.218750
1618,8.29,2022-10-26 09:59:40.234375
1619,8.28,2022-10-26 09:59:40.250000
1620,8.39,2022-10-26 09:59:40.265625
1621,8.24,2022-10-26 09:59:40.281250
1622,7.53,2022-10-26 09:59:40.296875
1623,6.09,2022-10-26 09:59:40.312500
1624,3.92,2022-10-26 09:59:40.328125
1625,1.2,2022-10-26 09:59:40.343750
1626,-1.8,2022-10-26 09:59:40.359375
1627,-4.86,2022-10-26 09:59:40.375000
1628,-7.84,2022-10-26 09:59:40.390625
1629,-10.71,2022-10-26 09:59:40.406250
1630,-13.5,2022-10-26 09:59:40.421875
1631,-16.31,2022-10-26 09:59:40.437500
1632,-19.32,2022-10-26 09:59:40.453125
1633,-22.79,2022-10-26 09:59:40.468750
1634,-26.98,2022-10-26 09:59:40.484375
1635,-32.03,2022-10-26 09:59:40.500000
1636,-37.78,2022-10-26 09:59:40.515625
1637,-43.61,2022-10-26 09:59:40.531250
1638,-48.43,2022-10-26 09:59:40.546875
1639,-50.9,2022-10-26 09:59:40.562500
1640,-49.84,2022-10-26 09:59:40.578125
1641,-44.63,2022-10-26 09:59:40.593750
1642,-35.52,2022-10-26 09:59:40.609375
1643,-23.64,2022-10-26 09:59:40.625000
1644,-10.62,2022-10-26 09:59:40.640625
1645,1.84,2022-10-26 09:59:40.656250
1646,12.49,2022-10-26 09:59:40.671875
1647,20.7,2022-10-26 09:59:40.687500
1648,26.43,2022-10-26 09:59:40.703125
1649,29.92,2022-10-26 09:59:40.718750
1650,31.52,2022-10-26 09:59:40.734375
1651,31.5,2022-10-26 09:59:40.750000
1652,30.14,2022-10-26 09:59:40.765625
1653,27.77,2022-10-26 09:59:40.781250
1654,24.77,2022-10-26 09:59:40.796875
1655,21.56,2022-10-26 09:59:40.812500
1656,18.43,2022-10-26 09:59:40.828125
1657,15.62,2022-10-26 09:59:40.843750
1658,13.26,2022-10-26 09:59:40.859375
1659,11.5,2022-10-26 09:59:40.875000
1660,10.46,2022-10-26 09:59:40.890625
1661,10.12,2022-10-26 09:59:40.906250
1662,10.26,2022-10-26 09:59:40.921875
1663,10.43,2022-10-26 09:59:40.937500
1664,10.07,2022-10-26 09:59:40.953125
1665,8.71,2022-10-26 09:59:40.968750
1666,6.11,2022-10-26 09:59:40.984375
1667,2.39,2022-10-26 09:59:41.000000
1668,-2.09,2022-10-26 09:59:41.015625
1669,-6.88,2022-10-26 09:59:41.031250
1670,-11.61,2022-10-26 09:59:41.046875
1671,-16.1,2022-10-26 09:59:41.062500
1672,-20.39,2022-10-26 09:59:41.078125
1673,-24.65,2022-10-26 09:59:41.093750
1674,-29.14,2022-10-26 09:59:41.109375
1675,-34.12,2022-10-26 09:59:41.125000
1676,-39.67,2022-10-26 09:59:41.140625
1677,-45.64,2022-10-26 09:59:41.156250
1678,-51.43,2022-10-26 09:59:41.171875
1679,-56.03,2022-10-26 09:59:41.187500
1680,-58.13,2022-10-26 09:59:41.203125
1681,-56.5,2022-10-26 09:59:41.218750
1682,-50.51,2022-10-26 09:59:41.234375
1683,-40.48,2022-10-26 09:59:41.250000
1684,-27.67,2022-10-26 09:59:41.265625
1685,-13.94,2022-10-26 09:59:41.281250
1686,-1.08,2022-10-26 09:59:41.296875
1687,9.76,2022-10-26 09:59:41.312500
1688,18.34,2022-10-26 09:59:41.328125
1689,25.05,2022-10-26 09:59:41.343750
1690,30.45,2022-10-26 09:59:41.359375
1691,34.76,2022-10-26 09:59:41.375000
1692,37.75,2022-10-26 09:59:41.390625
1693,38.97,2022-10-26 09:59:41.406250
1694,38.34,2022-10-26 09:59:41.421875
1695,36.49,2022-10-26 09:59:41.437500
1696,34.71,2022-10-26 09:59:41.453125
1697,34.41,2022-10-26 09:59:41.468750
1698,36.41,2022-10-26 09:59:41.484375
1699,40.56,2022-10-26 09:59:41.500000
1700,45.75,2022-10-26 09:59:41.515625
1701,50.52,2022-10-26 09:59:41.531250
1702,53.71,2022-10-26 09:59:41.546875
1703,54.91,2022-10-26 09:59:41.562500
1704,54.25,2022-10-26 09:59:41.578125
1705,52.03,2022-10-26 09:59:41.593750
1706,48.26,2022-10-26 09:59:41.609375
1707,42.76,2022-10-26 09:59:41.625000
1708,35.61,2022-10-26 09:59:41.640625
1709,27.52,2022-10-26 09:59:41.656250
1710,19.85,2022-10-26 09:59:41.671875
1711,13.93,2022-10-26 09:59:41.687500
1712,10.22,2022-10-26 09:59:41.703125
1713,7.87,2022-10-26 09:59:41.718750
1714,5.07,2022-10-26 09:59:41.734375
1715,0.14,2022-10-26 09:59:41.750000
1716,-7.51,2022-10-26 09:59:41.765625
1717,-17.04,2022-10-26 09:59:41.781250
1718,-26.83,2022-10-26 09:59:41.796875
1719,-35.41,2022-10-26 09:59:41.812500
1720,-42.2,2022-10-26 09:59:41.828125
1721,-47.36,2022-10-26 09:59:41.843750
1722,-51.09,2022-10-26 09:59:41.859375
1723,-52.92,2022-10-26 09:59:41.875000
1724,-51.82,2022-10-26 09:59:41.890625
1725,-46.83,2022-10-26 09:59:41.906250
1726,-38.02,2022-10-26 09:59:41.921875
1727,-26.86,2022-10-26 09:59:41.937500
1728,-15.62,2022-10-26 09:59:41.953125
1729,-6.25,2022-10-26 09:59:41.968750
1730,0.61,2022-10-26 09:59:41.984375
1731,5.81,2022-10-26 09:59:42.000000
1732,11.01,2022-10-26 09:59:42.015625
1733,17.49,2022-10-26 09:59:42.031250
1734,25.42,2022-10-26 09:59:42.046875
1735,33.83,2022-10-26 09:59:42.062500
1736,41.34,2022-10-26 09:59:42.078125
1737,47.07,2022-10-26 09:59:42.093750
1738,50.99,2022-10-26 09:59:42.109375
1739,53.73,2022-10-26 09:59:42.125000
1740,56.1,2022-10-26 09:59:42.140625
1741,58.64,2022-10-26 09:59:42.156250
1742,61.69,2022-10-26 09:59:42.171875
1743,65.64,2022-10-26 09:59:42.187500
1744,70.87,2022-10-26 09:59:42.203125
1745,77.31,2022-10-26 09:59:42.218750
1746,83.77,2022-10-26 09:59:42.234375
1747,87.7,2022-10-26 09:59:42.250000
1748,86.09,2022-10-26 09:59:42.265625
1749,76.96,2022-10-26 09:59:42.281250
1750,60.83,2022-10-26 09:59:42.296875
1751,41.0,2022-10-26 09:59:42.312500
1752,22.29,2022-10-26 09:59:42.328125
1753,8.7,2022-10-26 09:59:42.343750
1754,1.55,2022-10-26 09:59:42.359375
1755,-1.12,2022-10-26 09:59:42.375000
1756,-3.26,2022-10-26 09:59:42.390625
1757,-8.52,2022-10-26 09:59:42.406250
1758,-18.3,2022-10-26 09:59:42.421875
1759,-31.09,2022-10-26 09:59:42.437500
1760,-43.46,2022-10-26 09:59:42.453125
1761,-51.98,2022-10-26 09:59:42.468750
1762,-54.91,2022-10-26 09:59:42.484375
1763,-52.82,2022-10-26 09:59:42.500000
1764,-47.97,2022-10-26 09:59:42.515625
1765,-42.8,2022-10-26 09:59:42.531250
1766,-38.65,2022-10-26 09:59:42.546875
1767,-35.28,2022-10-26 09:59:42.562500
1768,-31.54,2022-10-26 09:59:42.578125
1769,-26.71,2022-10-26 09:59:42.593750
1770,-21.59,2022-10-26 09:59:42.609375
1771,-18.63,2022-10-26 09:59:42.625000
1772,-20.7,2022-10-26 09:59:42.640625
1773,-29.45,2022-10-26 09:59:42.656250
1774,-44.0,2022-10-26 09:59:42.671875
1775,-60.96,2022-10-26 09:59:42.687500
1776,-75.78,2022-10-26 09:59:42.703125
1777,-84.73,2022-10-26 09:59:42.718750
1778,-86.23,2022-10-26 09:59:42.734375
1779,-81.19,2022-10-26 09:59:42.750000
1780,-71.94,2022-10-26 09:59:42.765625
1781,-60.91,2022-10-26 09:59:42.781250
1782,-49.65,2022-10-26 09:59:42.796875
1783,-38.63,2022-10-26 09:59:42.812500
1784,-27.84,2022-10-26 09:59:42.828125
1785,-17.43,2022-10-26 09:59:42.843750
1786,-8.07,2022-10-26 09:59:42.859375
1787,-0.8,2022-10-26 09:59:42.875000
1788,3.54,2022-10-26 09:59:42.890625
1789,4.7,2022-10-26 09:59:42.906250
1790,3.13,2022-10-26 09:59:42.921875
1791,-0.24,2022-10-26 09:59:42.937500
1792,-4.4,2022-10-26 09:59:42.953125
1793,-8.72,2022-10-26 09:59:42.968750
1794,-12.92,2022-10-26 09:59:42.984375
1795,-16.93,2022-10-26 09:59:43.000000
1796,-20.58,2022-10-26 09:59:43.015625
1797,-23.42,2022-10-26 09:59:43.031250
1798,-24.75,2022-10-26 09:59:43.046875
1799,-23.89,2022-10-26 09:59:43.062500
1800,-20.53,2022-10-26 09:59:43.078125
1801,-14.88,2022-10-26 09:59:43.093750
1802,-7.58,2022-10-26 09:59:43.109375
1803,0.53,2022-10-26 09:59:43.125000
1804,8.72,2022-10-26 09:59:43.140625
1805,16.55,2022-10-26 09:59:43.156250
1806,23.73,2022-10-26 09:59:43.171875
1807,30.09,2022-10-26 09:59:43.187500
1808,35.29,2022-10-26 09:59:43.203125
1809,38.92,2022-10-26 09:59:43.218750
1810,40.6,2022-10-26 09:59:43.234375
1811,40.16,2022-10-26 09:59:43.250000
1812,37.85,2022-10-26 09:59:43.265625
1813,34.26,2022-10-26 09:59:43.281250
1814,30.2,2022-10-26 09:59:43.296875
1815,26.39,2022-10-26 09:59:43.312500
1816,23.27,2022-10-26 09:59:43.328125
1817,20.9,2022-10-26 09:59:43.343750
1818,18.99,2022-10-26 09:59:43.359375
1819,17.17,2022-10-26 09:59:43.375000
1820,15.19,2022-10-26 09:59:43.390625
1821,13.07,2022-10-26 09:59:43.406250
1822,11.05,2022-10-26 09:59:43.421875
1823,9.42,2022-10-26 09:59:43.437500
1824,8.2,2022-10-26 09:59:43.453125
1825,7.05,2022-10-26 09:59:43.468750
1826,5.25,2022-10-26 09:59:43.484375
1827,1.97,2022-10-26 09:59:43.500000
1828,-3.39,2022-10-26 09:59:43.515625
1829,-10.9,2022-10-26 09:59:43.531250
1830,-19.95,2022-10-26 09:59:43.546875
1831,-29.3,2022-10-26 09:59:43.562500
1832,-37.32,2022-10-26 09:59:43.578125
1833,-42.48,2022-10-26 09:59:43.593750
1834,-43.69,2022-10-26 09:59:43.609375
1835,-40.62,2022-10-26 09:59:43.625000
1836,-33.79,2022-10-26 09:59:43.640625
1837,-24.34,2022-10-26 09:59:43.656250
1838,-13.69,2022-10-26 09:59:43.671875
1839,-3.09,2022-10-26 09:59:43.687500
1840,6.64,2022-10-26 09:59:43.703125
1841,15.2,2022-10-26 09:59:43.718750
1842,22.58,2022-10-26 09:59:43.734375
1843,28.78,2022-10-26 09:59:43.750000
1844,33.66,2022-10-26 09:59:43.765625
1845,36.93,2022-10-26 09:59:43.781250
1846,38.36,2022-10-26 09:59:43.796875
1847,38.05,2022-10-26 09:59:43.812500
1848,36.53,2022-10-26 09:59:43.828125
1849,34.65,2022-10-26 09:59:43.843750
1850,33.26,2022-10-26 09:59:43.859375
1851,32.81,2022-10-26 09:59:43.875000
1852,33.23,2022-10-26 09:59:43.890625
1853,33.94,2022-10-26 09:59:43.906250
1854,34.2,2022-10-26 09:59:43.921875
1855,33.43,2022-10-26 09:59:43.937500
1856,31.47,2022-10-26 09:59:43.953125
1857,28.56,2022-10-26 09:59:43.968750
1858,25.2,2022-10-26 09:59:43.984375
1859,21.81,2022-10-26 09:59:44.000000
1860,18.6,2022-10-26 09:59:44.015625
1861,15.43,2022-10-26 09:59:44.031250
1862,11.99,2022-10-26 09:59:44.046875
1863,7.87,2022-10-26 09:59:44.062500
1864,2.76,2022-10-26 09:59:44.078125
1865,-3.39,2022-10-26 09:59:44.093750
1866,-10.4,2022-10-26 09:59:44.109375
1867,-17.75,2022-10-26 09:59:44.125000
1868,-24.62,2022-10-26 09:59:44.140625
1869,-29.98,2022-10-26 09:59:44.156250
1870,-32.72,2022-10-26 09:59:44.171875
1871,-31.96,2022-10-26 09:59:44.187500
1872,-27.33,2022-10-26 09:59:44.203125
1873,-19.1,2022-10-26 09:59:44.218750
1874,-8.22,2022-10-26 09:59:44.234375
1875,3.96,2022-10-26 09:59:44.250000
1876,16.09,2022-10-26 09:59:44.265625
1877,27.12,2022-10-26 09:59:44.281250
1878,36.59,2022-10-26 09:59:44.296875
1879,44.44,2022-10-26 09:59:44.312500
1880,50.8,2022-10-26 09:59:44.328125
1881,55.59,2022-10-26 09:59:44.343750
1882,58.41,2022-10-26 09:59:44.359375
1883,58.75,2022-10-26 09:59:44.375000
1884,56.23,2022-10-26 09:59:44.390625
1885,51.05,2022-10-26 09:59:44.406250
1886,43.95,2022-10-26 09:59:44.421875
1887,36.07,2022-10-26 09:59:44.437500
1888,28.4,2022-10-26 09:59:44.453125
1889,21.49,2022-10-26 09:59:44.468750
1890,15.26,2022-10-26 09:59:44.484375
1891,9.27,2022-10-26 09:59:44.500000
1892,3.06,2022-10-26 09:59:44.515625
1893,-3.47,2022-10-26 09:59:44.531250
1894,-10.03,2022-10-26 09:59:44.546875
1895,-16.16,2022-10-26 09:59:44.562500
1896,-21.52,2022-10-26 09:59:44.578125
1897,-26.16,2022-10-26 09:59:44.593750
1898,-30.47,2022-10-26 09:59:44.609375
1899,-34.9,2022-10-26 09:59:44.625000
1900,-39.7,2022-10-26 09:59:44.640625
1901,-44.7,2022-10-26 09:59:44.656250
1902,-49.41,2022-10-26 09:59:44.671875
1903,-53.39,2022-10-26 09:59:44.687500
1904,-56.58,2022-10-26 09:59:44.703125
1905,-59.48,2022-10-26 09:59:44.718750
1906,-62.94,2022-10-26 09:59:44.734375
1907,-67.63,2022-10-26 09:59:44.750000
1908,-73.46,2022-10-26 09:59:44.765625
1909,-79.25,2022-10-26 09:59:44.781250
1910,-82.96,2022-10-26 09:59:44.796875
1911,-82.52,2022-10-26 09:59:44.812500
1912,-76.7,2022-10-26 09:59:44.828125
1913,-65.82,2022-10-26 09:59:44.843750
1914,-51.84,2022-10-26 09:59:44.859375
1915,-37.64,2022-10-26 09:59:44.875000
1916,-26.04,2022-10-26 09:59:44.890625
1917,-18.77,2022-10-26 09:59:44.906250
1918,-15.89,2022-10-26 09:59:44.921875
1919,-16.03,2022-10-26 09:59:44.937500
1920,-17.15,2022-10-26 09:59:44.953125
1921,-17.5,2022-10-26 09:59:44.968750
1922,-16.43,2022-10-26 09:59:44.984375
1923,-14.53,2022-10-26 09:59:45.000000
1924,-13.33,2022-10-26 09:59:45.015625
1925,-14.47,2022-10-26 09:59:45.031250
1926,-19.03,2022-10-26 09:59:45.046875
1927,-27.01,2022-10-26 09:59:45.062500
1928,-37.2,2022-10-26 09:59:45.078125
1929,-47.25,2022-10-26 09:59:45.093750
1930,-53.94,2022-10-26 09:59:45.109375
1931,-53.7,2022-10-26 09:59:45.125000
1932,-43.33,2022-10-26 09:59:45.140625
1933,-21.14,2022-10-26 09:59:45.156250
1934,12.08,2022-10-26 09:59:45.171875
1935,52.45,2022-10-26 09:59:45.187500
1936,93.68,2022-10-26 09:59:45.203125
1937,128.78,2022-10-26 09:59:45.218750
1938,152.29,2022-10-26 09:59:45.234375
1939,162.18,2022-10-26 09:59:45.250000
1940,160.37,2022-10-26 09:59:45.265625
1941,151.68,2022-10-26 09:59:45.281250
1942,141.58,2022-10-26 09:59:45.296875
1943,133.62,2022-10-26 09:59:45.312500
1944,127.98,2022-10-26 09:59:45.328125
1945,121.74,2022-10-26 09:59:45.343750
1946,110.93,2022-10-26 09:59:45.359375
1947,93.1,2022-10-26 09:59:45.375000
1948,69.1,2022-10-26 09:59:45.390625
1949,42.9,2022-10-26 09:59:45.406250
1950,19.81,2022-10-26 09:59:45.421875
1951,3.85,2022-10-26 09:59:45.437500
1952,-3.95,2022-10-26 09:59:45.453125
1953,-5.58,2022-10-26 09:59:45.468750
1954,-4.49,2022-10-26 09:59:45.484375
1955,-3.47,2022-10-26 09:59:45.500000
1956,-3.28,2022-10-26 09:59:45.515625
1957,-2.91,2022-10-26 09:59:45.531250
1958,-0.89,2022-10-26 09:59:45.546875
1959,3.17,2022-10-26 09:59:45.562500
1960,7.98,2022-10-26 09:59:45.578125
1961,11.28,2022-10-26 09:59:45.593750
1962,11.16,2022-10-26 09:59:45.609375
1963,7.22,2022-10-26 09:59:45.625000
1964,0.8,2022-10-26 09:59:45.640625
1965,-5.79,2022-10-26 09:59:45.656250
1966,-10.36,2022-10-26 09:59:45.671875
1967,-11.79,2022-10-26 09:59:45.687500
1968,-10.45,2022-10-26 09:59:45.703125
1969,-7.79,2022-10-26 09:59:45.718750
1970,-5.58,2022-10-26 09:59:45.734375
1971,-5.06,2022-10-26 09:59:45.750000
1972,-6.45,2022-10-26 09:59:45.765625
1973,-9.06,2022-10-26 09:59:45.781250
1974,-11.8,2022-10-26 09:59:45.796875
1975,-13.74,2022-10-26 09:59:45.812500
1976,-14.67,2022-10-26 09:59:45.828125
1977,-15.01,2022-10-26 09:59:45.843750
1978,-15.55,2022-10-26 09:59:45.859375
1979,-16.93,2022-10-26 09:59:45.875000
1980,-19.33,2022-10-26 09:59:45.890625
1981,-22.45,2022-10-26 09:59:45.906250
1982,-25.75,2022-10-26 09:59:45.921875
1983,-28.79,2022-10-26 09:59:45.937500
1984,-31.41,2022-10-26 09:59:45.953125
1985,-33.85,2022-10-26 09:59:45.968750
1986,-36.59,2022-10-26 09:59:45.984375
1987,-40.06,2022-10-26 09:59:46.000000
1988,-44.3,2022-10-26 09:59:46.015625
1989,-48.81,2022-10-26 09:59:46.031250
1990,-52.53,2022-10-26 09:59:46.046875
1991,-54.09,2022-10-26 09:59:46.062500
1992,-52.28,2022-10-26 09:59:46.078125
1993,-46.51,2022-10-26 09:59:46.093750
1994,-37.12,2022-10-26 09:59:46.109375
1995,-25.3,2022-10-26 09:59:46.125000
1996,-12.64,2022-10-26 09:59:46.140625
1997,-0.69,2022-10-26 09:59:46.156250
1998,9.55,2022-10-26 09:59:46.171875
1999,17.71,2022-10-26 09:59:46.187500
2000,23.88,2022-10-26 09:59:46.203125
2001,28.33,2022-10-26 09:59:46.218750
2002,31.33,2022-10-26 09:59:46.234375
2003,33.03,2022-10-26 09:59:46.250000
2004,33.6,2022-10-26 09:59:46.265625
2005,33.26,2022-10-26 09:59:46.281250
2006,32.32,2022-10-26 09:59:46.296875
2007,31.11,2022-10-26 09:59:46.312500
2008,29.9,2022-10-26 09:59:46.328125
2009,28.81,2022-10-26 09:59:46.343750
2010,27.87,2022-10-26 09:59:46.359375
2011,27.01,2022-10-26 09:59:46.375000
2012,26.18,2022-10-26 09:59:46.390625
2013,25.34,2022-10-26 09:59:46.406250
2014,24.47,2022-10-26 09:59:46.421875
2015,23.56,2022-10-26 09:59:46.437500
2016,22.49,2022-10-26 09:59:46.453125
2017,21.13,2022-10-26 09:59:46.468750
2018,19.26,2022-10-26 09:59:46.484375
2019,16.66,2022-10-26 09:59:46.500000
2020,13.24,2022-10-26 09:59:46.515625
2021,9.05,2022-10-26 09:59:46.531250
2022,4.36,2022-10-26 09:59:46.546875
2023,-0.42,2022-10-26 09:59:46.562500
2024,-4.9,2022-10-26 09:59:46.578125
2025,-8.84,2022-10-26 09:59:46.593750
2026,-12.31,2022-10-26 09:59:46.609375
2027,-15.65,2022-10-26 09:59:46.625000
2028,-19.37,2022-10-26 09:59:46.640625
2029,-23.99,2022-10-26 09:59:46.656250
2030,-29.69,2022-10-26 09:59:46.671875
2031,-36.18,2022-10-26 09:59:46.687500
2032,-42.59,2022-10-26 09:59:46.703125
2033,-47.63,2022-10-26 09:59:46.718750
2034,-50.01,2022-10-26 09:59:46.734375
2035,-48.87,2022-10-26 09:59:46.750000
2036,-44.14,2022-10-26 09:59:46.765625
2037,-36.6,2022-10-26 09:59:46.781250
2038,-27.52,2022-10-26 09:59:46.796875
2039,-18.25,2022-10-26 09:59:46.812500
2040,-9.77,2022-10-26 09:59:46.828125
2041,-2.49,2022-10-26 09:59:46.843750
2042,3.59,2022-10-26 09:59:46.859375
2043,8.66,2022-10-26 09:59:46.875000
2044,12.81,2022-10-26 09:59:46.890625
2045,15.97,2022-10-26 09:59:46.906250
2046,18.02,2022-10-26 09:59:46.921875
2047,18.93,2022-10-26 09:59:46.937500
2048,18.87,2022-10-26 09:59:46.953125
2049,18.14,2022-10-26 09:59:46.968750
2050,17.13,2022-10-26 09:59:46.984375
2051,16.19,2022-10-26 09:59:47.000000
2052,15.5,2022-10-26 09:59:47.015625
2053,15.16,2022-10-26 09:59:47.031250
2054,15.13,2022-10-26 09:59:47.046875
2055,15.31,2022-10-26 09:59:47.062500
2056,15.61,2022-10-26 09:59:47.078125
2057,16.04,2022-10-26 09:59:47.093750
2058,16.66,2022-10-26 09:59:47.109375
2059,17.55,2022-10-26 09:59:47.125000
2060,18.64,2022-10-26 09:59:47.140625
2061,19.65,2022-10-26 09:59:47.156250
2062,20.11,2022-10-26 09:59:47.171875
2063,19.57,2022-10-26 09:59:47.187500
2064,17.85,2022-10-26 09:59:47.203125
2065,15.17,2022-10-26 09:59:47.218750
2066,12.09,2022-10-26 09:59:47.234375
2067,9.24,2022-10-26 09:59:47.250000
2068,7.08,2022-10-26 09:59:47.265625
2069,5.63,2022-10-26 09:59:47.281250
2070,4.5,2022-10-26 09:59:47.296875
2071,3.1,2022-10-26 09:59:47.312500
2072,0.8,2022-10-26 09:59:47.328125
2073,-2.83,2022-10-26 09:59:47.343750
2074,-8.01,2022-10-26 09:59:47.359375
2075,-14.59,2022-10-26 09:59:47.375000
2076,-22.07,2022-10-26 09:59:47.390625
2077,-29.45,2022-10-26 09:59:47.406250
2078,-35.38,2022-10-26 09:59:47.421875
2079,-38.42,2022-10-26 09:59:47.437500
2080,-37.56,2022-10-26 09:59:47.453125
2081,-32.64,2022-10-26 09:59:47.468750
2082,-24.48,2022-10-26 09:59:47.484375
2083,-14.67,2022-10-26 09:59:47.500000
2084,-4.91,2022-10-26 09:59:47.515625
2085,3.53,2022-10-26 09:59:47.531250
2086,10.12,2022-10-26 09:59:47.546875
2087,15.05,2022-10-26 09:59:47.562500
2088,18.75,2022-10-26 09:59:47.578125
2089,21.56,2022-10-26 09:59:47.593750
2090,23.47,2022-10-26 09:59:47.609375
2091,24.31,2022-10-26 09:59:47.625000
2092,23.99,2022-10-26 09:59:47.640625
2093,22.68,2022-10-26 09:59:47.656250
2094,20.9,2022-10-26 09:59:47.671875
2095,19.23,2022-10-26 09:59:47.687500
2096,18.1,2022-10-26 09:59:47.703125
2097,17.65,2022-10-26 09:59:47.718750
2098,17.7,2022-10-26 09:59:47.734375
2099,17.96,2022-10-26 09:59:47.750000
2100,18.14,2022-10-26 09:59:47.765625
2101,18.1,2022-10-26 09:59:47.781250
2102,17.79,2022-10-26 09:59:47.796875
2103,17.27,2022-10-26 09:59:47.812500
2104,16.61,2022-10-26 09:59:47.828125
2105,15.85,2022-10-26 09:59:47.843750
2106,14.99,2022-10-26 09:59:47.859375
2107,13.95,2022-10-26 09:59:47.875000
2108,12.56,2022-10-26 09:59:47.890625
2109,10.55,2022-10-26 09:59:47.906250
2110,7.76,2022-10-26 09:59:47.921875
2111,4.22,2022-10-26 09:59:47.937500
2112,0.21,2022-10-26 09:59:47.953125
2113,-3.76,2022-10-26 09:59:47.968750
2114,-7.26,2022-10-26 09:59:47.984375
2115,-10.11,2022-10-26 09:59:48.000000
2116,-12.52,2022-10-26 09:59:48.015625
2117,-14.96,2022-10-26 09:59:48.031250
2118,-18.01,2022-10-26 09:59:48.046875
2119,-22.04,2022-10-26 09:59:48.062500
2120,-27.18,2022-10-26 09:59:48.078125
2121,-33.26,2022-10-26 09:59:48.093750
2122,-39.89,2022-10-26 09:59:48.109375
2123,-46.44,2022-10-26 09:59:48.125000
2124,-52.03,2022-10-26 09:59:48.140625
2125,-55.64,2022-10-26 09:59:48.156250
2126,-56.28,2022-10-26 09:59:48.171875
2127,-53.33,2022-10-26 09:59:48.187500
2128,-46.8,2022-10-26 09:59:48.203125
2129,-37.39,2022-10-26 09:59:48.218750
2130,-26.27,2022-10-26 09:59:48.234375
2131,-14.76,2022-10-26 09:59:48.250000
2132,-3.93,2022-10-26 09:59:48.265625
2133,5.53,2022-10-26 09:59:48.281250
2134,13.34,2022-10-26 09:59:48.296875
2135,19.54,2022-10-26 09:59:48.312500
2136,24.39,2022-10-26 09:59:48.328125
2137,28.23,2022-10-26 09:59:48.343750
2138,31.48,2022-10-26 09:59:48.359375
2139,34.55,2022-10-26 09:59:48.375000
2140,37.65,2022-10-26 09:59:48.390625
2141,40.76,2022-10-26 09:59:48.406250
2142,43.52,2022-10-26 09:59:48.421875
2143,45.31,2022-10-26 09:59:48.437500
2144,45.47,2022-10-26 09:59:48.453125
2145,43.48,2022-10-26 09:59:48.468750
2146,39.28,2022-10-26 09:59:48.484375
2147,33.25,2022-10-26 09:59:48.500000
2148,26.28,2022-10-26 09:59:48.515625
2149,19.37,2022-10-26 09:59:48.531250
2150,13.42,2022-10-26 09:59:48.546875
2151,8.83,2022-10-26 09:59:48.562500
2152,5.34,2022-10-26 09:59:48.578125
2153,2.04,2022-10-26 09:59:48.593750
2154,-2.4,2022-10-26 09:59:48.609375
2155,-9.38,2022-10-26 09:59:48.625000
2156,-19.95,2022-10-26 09:59:48.640625
2157,-34.33,2022-10-26 09:59:48.656250
2158,-51.77,2022-10-26 09:59:48.671875
2159,-70.74,2022-10-26 09:59:48.687500
2160,-89.26,2022-10-26 09:59:48.703125
2161,-105.47,2022-10-26 09:59:48.718750
2162,-117.99,2022-10-26 09:59:48.734375
2163,-126.17,2022-10-26 09:59:48.750000
2164,-129.79,2022-10-26 09:59:48.765625
2165,-128.86,2022-10-26 09:59:48.781250
2166,-123.49,2022-10-26 09:59:48.796875
2167,-114.01,2022-10-26 09:59:48.812500
2168,-101.18,2022-10-26 09:59:48.828125
2169,-86.28,2022-10-26 09:59:48.843750
2170,-70.79,2022-10-26 09:59:48.859375
2171,-55.77,2022-10-26 09:59:48.875000
2172,-41.37,2022-10-26 09:59:48.890625
2173,-26.78,2022-10-26 09:59:48.906250
2174,-10.79,2022-10-26 09:59:48.921875
2175,7.36,2022-10-26 09:59:48.937500
2176,27.35,2022-10-26 09:59:48.953125
2177,47.66,2022-10-26 09:59:48.968750
2178,66.21,2022-10-26 09:59:48.984375
2179,81.03,2022-10-26 09:59:49.000000
2180,90.97,2022-10-26 09:59:49.015625
2181,95.85,2022-10-26 09:59:49.031250
2182,96.48,2022-10-26 09:59:49.046875
2183,94.21,2022-10-26 09:59:49.062500
2184,90.57,2022-10-26 09:59:49.078125
2185,86.66,2022-10-26 09:59:49.093750
2186,82.82,2022-10-26 09:59:49.109375
2187,78.49,2022-10-26 09:59:49.125000
2188,72.51,2022-10-26 09:59:49.140625
2189,63.95,2022-10-26 09:59:49.156250
2190,52.87,2022-10-26 09:59:49.171875
2191,40.55,2022-10-26 09:59:49.187500
2192,29.0,2022-10-26 09:59:49.203125
2193,20.04,2022-10-26 09:59:49.218750
2194,14.33,2022-10-26 09:59:49.234375
2195,11.23,2022-10-26 09:59:49.250000
2196,9.29,2022-10-26 09:59:49.265625
2197,7.27,2022-10-26 09:59:49.281250
2198,4.83,2022-10-26 09:59:49.296875
2199,2.47,2022-10-26 09:59:49.312500
2200,0.96,2022-10-26 09:59:49.328125
2201,0.52,2022-10-26 09:59:49.343750
2202,0.56,2022-10-26 09:59:49.359375
2203,-0.08,2022-10-26 09:59:49.375000
2204,-2.4,2022-10-26 09:59:49.390625
2205,-6.68,2022-10-26 09:59:49.406250
2206,-12.36,2022-10-26 09:59:49.421875
2207,-18.28,2022-10-26 09:59:49.437500
2208,-23.27,2022-10-26 09:59:49.453125
2209,-26.59,2022-10-26 09:59:49.468750
2210,-28.28,2022-10-26 09:59:49.484375
2211,-28.99,2022-10-26 09:59:49.500000
2212,-29.78,2022-10-26 09:59:49.515625
2213,-31.74,2022-10-26 09:59:49.531250
2214,-35.65,2022-10-26 09:59:49.546875
2215,-41.76,2022-10-26 09:59:49.562500
2216,-49.81,2022-10-26 09:59:49.578125
2217,-58.96,2022-10-26 09:59:49.593750
2218,-68.02,2022-10-26 09:59:49.609375
2219,-75.47,2022-10-26 09:59:49.625000
2220,-79.83,2022-10-26 09:59:49.640625
2221,-79.83,2022-10-26 09:59:49.656250
2222,-74.86,2022-10-26 09:59:49.671875
2223,-65.18,2022-10-26 09:59:49.687500
2224,-51.92,2022-10-26 09:59:49.703125
2225,-36.87,2022-10-26 09:59:49.718750
2226,-21.96,2022-10-26 09:59:49.734375
2227,-8.74,2022-10-26 09:59:49.750000
2228,1.9,2022-10-26 09:59:49.765625
2229,9.83,2022-10-26 09:59:49.781250
2230,15.37,2022-10-26 09:59:49.796875
2231,18.97,2022-10-26 09:59:49.812500
2232,21.02,2022-10-26 09:59:49.828125
2233,21.73,2022-10-26 09:59:49.843750
2234,21.38,2022-10-26 09:59:49.859375
2235,20.29,2022-10-26 09:59:49.875000
2236,18.96,2022-10-26 09:59:49.890625
2237,17.85,2022-10-26 09:59:49.906250
2238,17.25,2022-10-26 09:59:49.921875
2239,17.13,2022-10-26 09:59:49.937500
2240,17.27,2022-10-26 09:59:49.953125
2241,17.4,2022-10-26 09:59:49.968750
2242,17.42,2022-10-26 09:59:49.984375
2243,17.45,2022-10-26 09:59:50.000000
2244,17.77,2022-10-26 09:59:50.015625
2245,18.54,2022-10-26 09:59:50.031250
2246,19.72,2022-10-26 09:59:50.046875
2247,20.9,2022-10-26 09:59:50.062500
2248,21.57,2022-10-26 09:59:50.078125
2249,21.3,2022-10-26 09:59:50.093750
2250,19.95,2022-10-26 09:59:50.109375
2251,17.71,2022-10-26 09:59:50.125000
2252,14.99,2022-10-26 09:59:50.140625
2253,12.19,2022-10-26 09:59:50.156250
2254,9.55,2022-10-26 09:59:50.171875
2255,7.03,2022-10-26 09:59:50.187500
2256,4.42,2022-10-26 09:59:50.203125
2257,1.39,2022-10-26 09:59:50.218750
2258,-2.34,2022-10-26 09:59:50.234375
2259,-6.91,2022-10-26 09:59:50.250000
2260,-12.23,2022-10-26 09:59:50.265625
2261,-17.94,2022-10-26 09:59:50.281250
2262,-23.34,2022-10-26 09:59:50.296875
2263,-27.47,2022-10-26 09:59:50.312500
2264,-29.31,2022-10-26 09:59:50.328125
2265,-28.06,2022-10-26 09:59:50.343750
2266,-23.47,2022-10-26 09:59:50.359375
2267,-15.95,2022-10-26 09:59:50.375000
2268,-6.58,2022-10-26 09:59:50.390625
2269,3.28,2022-10-26 09:59:50.406250
2270,12.37,2022-10-26 09:59:50.421875
2271,19.86,2022-10-26 09:59:50.437500
2272,25.44,2022-10-26 09:59:50.453125
2273,29.2,2022-10-26 09:59:50.468750
2274,31.43,2022-10-26 09:59:50.484375
2275,32.41,2022-10-26 09:59:50.500000
2276,32.34,2022-10-26 09:59:50.515625
2277,31.36,2022-10-26 09:59:50.531250
2278,29.66,2022-10-26 09:59:50.546875
2279,27.5,2022-10-26 09:59:50.562500
2280,25.3,2022-10-26 09:59:50.578125
2281,23.48,2022-10-26 09:59:50.593750
2282,22.41,2022-10-26 09:59:50.609375
2283,22.29,2022-10-26 09:59:50.625000
2284,23.07,2022-10-26 09:59:50.640625
2285,24.46,2022-10-26 09:59:50.656250
2286,26.06,2022-10-26 09:59:50.671875
2287,27.48,2022-10-26 09:59:50.687500
2288,28.45,2022-10-26 09:59:50.703125
2289,28.89,2022-10-26 09:59:50.718750
2290,28.8,2022-10-26 09:59:50.734375
2291,28.23,2022-10-26 09:59:50.750000
2292,27.15,2022-10-26 09:59:50.765625
2293,25.52,2022-10-26 09:59:50.781250
2294,23.44,2022-10-26 09:59:50.796875
2295,21.14,2022-10-26 09:59:50.812500
2296,19.0,2022-10-26 09:59:50.828125
2297,17.37,2022-10-26 09:59:50.843750
2298,16.45,2022-10-26 09:59:50.859375
2299,16.07,2022-10-26 09:59:50.875000
2300,15.81,2022-10-26 09:59:50.890625
2301,15.12,2022-10-26 09:59:50.906250
2302,13.54,2022-10-26 09:59:50.921875
2303,10.88,2022-10-26 09:59:50.937500
2304,7.35,2022-10-26 09:59:50.953125
2305,3.62,2022-10-26 09:59:50.968750
2306,0.74,2022-10-26 09:59:50.984375
2307,-0.03,2022-10-26 09:59:51.000000
2308,2.47,2022-10-26 09:59:51.015625
2309,9.0,2022-10-26 09:59:51.031250
2310,19.63,2022-10-26 09:59:51.046875
2311,33.58,2022-10-26 09:59:51.062500
2312,49.53,2022-10-26 09:59:51.078125
2313,65.85,2022-10-26 09:59:51.093750
2314,81.02,2022-10-26 09:59:51.109375
2315,93.97,2022-10-26 09:59:51.125000
2316,104.07,2022-10-26 09:59:51.140625
2317,111.07,2022-10-26 09:59:51.156250
2318,114.85,2022-10-26 09:59:51.171875
2319,115.2,2022-10-26 09:59:51.187500
2320,111.7,2022-10-26 09:59:51.203125
2321,103.94,2022-10-26 09:59:51.218750
2322,91.78,2022-10-26 09:59:51.234375
2323,75.63,2022-10-26 09:59:51.250000
2324,56.65,2022-10-26 09:59:51.265625
2325,36.53,2022-10-26 09:59:51.281250
2326,17.09,2022-10-26 09:59:51.296875
2327,-0.25,2022-10-26 09:59:51.312500
2328,-14.79,2022-10-26 09:59:51.328125
2329,-26.66,2022-10-26 09:59:51.343750
2330,-36.51,2022-10-26 09:59:51.359375
2331,-45.15,2022-10-26 09:59:51.375000
2332,-53.25,2022-10-26 09:59:51.390625
2333,-61.17,2022-10-26 09:59:51.406250
2334,-69.06,2022-10-26 09:59:51.421875
2335,-76.9,2022-10-26 09:59:51.437500
2336,-84.58,2022-10-26 09:59:51.453125
2337,-91.88,2022-10-26 09:59:51.468750
2338,-98.45,2022-10-26 09:59:51.484375
2339,-103.91,2022-10-26 09:59:51.500000
2340,-107.97,2022-10-26 09:59:51.515625
2341,-110.48,2022-10-26 09:59:51.531250
2342,-111.57,2022-10-26 09:59:51.546875
2343,-111.63,2022-10-26 09:59:51.562500
2344,-111.18,2022-10-26 09:59:51.578125
2345,-110.76,2022-10-26 09:59:51.593750
2346,-110.63,2022-10-26 09:59:51.609375
2347,-110.51,2022-10-26 09:59:51.625000
2348,-109.53,2022-10-26 09:59:51.640625
2349,-106.32,2022-10-26 09:59:51.656250
2350,-99.47,2022-10-26 09:59:51.671875
2351,-88.17,2022-10-26 09:59:51.687500
2352,-72.67,2022-10-26 09:59:51.703125
2353,-54.4,2022-10-26 09:59:51.718750
2354,-35.63,2022-10-26 09:59:51.734375
2355,-18.69,2022-10-26 09:59:51.750000
2356,-5.22,2022-10-26 09:59:51.765625
2357,4.28,2022-10-26 09:59:51.781250
2358,10.37,2022-10-26 09:59:51.796875
2359,14.23,2022-10-26 09:59:51.812500
2360,16.89,2022-10-26 09:59:51.828125
2361,18.86,2022-10-26 09:59:51.843750
2362,20.05,2022-10-26 09:59:51.859375
2363,20.01,2022-10-26 09:59:51.875000
2364,18.46,2022-10-26 09:59:51.890625
2365,15.55,2022-10-26 09:59:51.906250
2366,11.95,2022-10-26 09:59:51.921875
2367,8.47,2022-10-26 09:59:51.937500
2368,5.88,2022-10-26 09:59:51.953125
2369,4.46,2022-10-26 09:59:51.968750
2370,4.07,2022-10-26 09:59:51.984375
2371,4.22,2022-10-26 09:59:52.000000
2372,4.36,2022-10-26 09:59:52.015625
2373,4.07,2022-10-26 09:59:52.031250
2374,3.14,2022-10-26 09:59:52.046875
2375,1.57,2022-10-26 09:59:52.062500
2376,-0.53,2022-10-26 09:59:52.078125
2377,-3.0,2022-10-26 09:59:52.093750
2378,-5.71,2022-10-26 09:59:52.109375
2379,-8.55,2022-10-26 09:59:52.125000
2380,-11.52,2022-10-26 09:59:52.140625
2381,-14.72,2022-10-26 09:59:52.156250
2382,-18.26,2022-10-26 09:59:52.171875
2383,-22.29,2022-10-26 09:59:52.187500
2384,-26.89,2022-10-26 09:59:52.203125
2385,-32.11,2022-10-26 09:59:52.218750
2386,-37.84,2022-10-26 09:59:52.234375
2387,-43.78,2022-10-26 09:59:52.250000
2388,-49.29,2022-10-26 09:59:52.265625
2389,-53.33,2022-10-26 09:59:52.281250
2390,-54.68,2022-10-26 09:59:52.296875
2391,-52.27,2022-10-26 09:59:52.312500
2392,-45.66,2022-10-26 09:59:52.328125
2393,-35.3,2022-10-26 09:59:52.343750
2394,-22.54,2022-10-26 09:59:52.359375
2395,-9.25,2022-10-26 09:59:52.375000
2396,2.79,2022-10-26 09:59:52.390625
2397,12.32,2022-10-26 09:59:52.406250
2398,18.89,2022-10-26 09:59:52.421875
2399,22.71,2022-10-26 09:59:52.437500
2400,24.28,2022-10-26 09:59:52.453125
2401,24.1,2022-10-26 09:59:52.468750
2402,22.51,2022-10-26 09:59:52.484375
2403,19.69,2022-10-26 09:59:52.500000
2404,15.9,2022-10-26 09:59:52.515625
2405,11.56,2022-10-26 09:59:52.531250
2406,7.32,2022-10-26 09:59:52.546875
2407,3.84,2022-10-26 09:59:52.562500
2408,1.64,2022-10-26 09:59:52.578125
2409,0.82,2022-10-26 09:59:52.593750
2410,1.02,2022-10-26 09:59:52.609375
2411,1.57,2022-10-26 09:59:52.625000
2412,1.78,2022-10-26 09:59:52.640625
2413,1.16,2022-10-26 09:59:52.656250
2414,-0.34,2022-10-26 09:59:52.671875
2415,-2.44,2022-10-26 09:59:52.687500
2416,-4.74,2022-10-26 09:59:52.703125
2417,-6.9,2022-10-26 09:59:52.718750
2418,-8.87,2022-10-26 09:59:52.734375
2419,-10.8,2022-10-26 09:59:52.750000
2420,-12.91,2022-10-26 09:59:52.765625
2421,-15.3,2022-10-26 09:59:52.781250
2422,-17.94,2022-10-26 09:59:52.796875
2423,-20.75,2022-10-26 09:59:52.812500
2424,-23.72,2022-10-26 09:59:52.828125
2425,-26.96,2022-10-26 09:59:52.843750
2426,-30.49,2022-10-26 09:59:52.859375
2427,-33.94,2022-10-26 09:59:52.875000
2428,-36.37,2022-10-26 09:59:52.890625
2429,-36.5,2022-10-26 09:59:52.906250
2430,-33.11,2022-10-26 09:59:52.921875
2431,-25.67,2022-10-26 09:59:52.937500
2432,-14.78,2022-10-26 09:59:52.953125
2433,-1.93,2022-10-26 09:59:52.968750
2434,10.84,2022-10-26 09:59:52.984375
2435,21.72,2022-10-26 09:59:53.000000
2436,29.58,2022-10-26 09:59:53.015625
2437,34.06,2022-10-26 09:59:53.031250
2438,35.39,2022-10-26 09:59:53.046875
2439,34.02,2022-10-26 09:59:53.062500
2440,30.43,2022-10-26 09:59:53.078125
2441,25.06,2022-10-26 09:59:53.093750
2442,18.46,2022-10-26 09:59:53.109375
2443,11.35,2022-10-26 09:59:53.125000
2444,4.62,2022-10-26 09:59:53.140625
2445,-0.92,2022-10-26 09:59:53.156250
2446,-4.76,2022-10-26 09:59:53.171875
2447,-6.87,2022-10-26 09:59:53.187500
2448,-7.73,2022-10-26 09:59:53.203125
2449,-8.15,2022-10-26 09:59:53.218750
2450,-8.98,2022-10-26 09:59:53.234375
2451,-10.8,2022-10-26 09:59:53.250000
2452,-13.79,2022-10-26 09:59:53.265625
2453,-17.62,2022-10-26 09:59:53.281250
2454,-21.73,2022-10-26 09:59:53.296875
2455,-25.54,2022-10-26 09:59:53.312500
2456,-28.74,2022-10-26 09:59:53.328125
2457,-31.48,2022-10-26 09:59:53.343750
2458,-34.36,2022-10-26 09:59:53.359375
2459,-38.26,2022-10-26 09:59:53.375000
2460,-43.99,2022-10-26 09:59:53.390625
2461,-51.99,2022-10-26 09:59:53.406250
2462,-61.96,2022-10-26 09:59:53.421875
2463,-72.77,2022-10-26 09:59:53.437500
2464,-82.58,2022-10-26 09:59:53.453125
2465,-89.44,2022-10-26 09:59:53.468750
2466,-91.87,2022-10-26 09:59:53.484375
2467,-89.53,2022-10-26 09:59:53.500000
2468,-83.4,2022-10-26 09:59:53.515625
2469,-75.48,2022-10-26 09:59:53.531250
2470,-68.03,2022-10-26 09:59:53.546875
2471,-62.66,2022-10-26 09:59:53.562500
2472,-59.78,2022-10-26 09:59:53.578125
2473,-58.6,2022-10-26 09:59:53.593750
2474,-57.81,2022-10-26 09:59:53.609375
2475,-56.32,2022-10-26 09:59:53.625000
2476,-53.98,2022-10-26 09:59:53.640625
2477,-51.62,2022-10-26 09:59:53.656250
2478,-50.62,2022-10-26 09:59:53.671875
2479,-52.18,2022-10-26 09:59:53.687500
2480,-56.64,2022-10-26 09:59:53.703125
2481,-63.18,2022-10-26 09:59:53.718750
2482,-69.99,2022-10-26 09:59:53.734375
2483,-74.66,2022-10-26 09:59:53.750000
2484,-74.74,2022-10-26 09:59:53.765625
2485,-68.17,2022-10-26 09:59:53.781250
2486,-53.75,2022-10-26 09:59:53.796875
2487,-31.52,2022-10-26 09:59:53.812500
2488,-3.08,2022-10-26 09:59:53.828125
2489,28.44,2022-10-26 09:59:53.843750
2490,58.91,2022-10-26 09:59:53.859375
2491,84.18,2022-10-26 09:59:53.875000
2492,101.23,2022-10-26 09:59:53.890625
2493,108.92,2022-10-26 09:59:53.906250
2494,108.02,2022-10-26 09:59:53.921875
2495,100.58,2022-10-26 09:59:53.937500
2496,88.93,2022-10-26 09:59:53.953125
2497,74.91,2022-10-26 09:59:53.968750
2498,59.61,2022-10-26 09:59:53.984375
2499,43.74,2022-10-26 09:59:54.000000
2500,28.13,2022-10-26 09:59:54.015625
2501,14.07,2022-10-26 09:59:54.031250
2502,3.03,2022-10-26 09:59:54.046875
2503,-3.79,2022-10-26 09:59:54.062500
2504,-5.92,2022-10-26 09:59:54.078125
2505,-3.79,2022-10-26 09:59:54.093750
2506,1.51,2022-10-26 09:59:54.109375
2507,8.63,2022-10-26 09:59:54.125000
2508,16.33,2022-10-26 09:59:54.140625
2509,23.81,2022-10-26 09:59:54.156250
2510,30.64,2022-10-26 09:59:54.171875
2511,36.66,2022-10-26 09:59:54.187500
2512,41.73,2022-10-26 09:59:54.203125
2513,45.57,2022-10-26 09:59:54.218750
2514,47.76,2022-10-26 09:59:54.234375
2515,47.91,2022-10-26 09:59:54.250000
2516,45.94,2022-10-26 09:59:54.265625
2517,42.31,2022-10-26 09:59:54.281250
2518,37.94,2022-10-26 09:59:54.296875
2519,33.92,2022-10-26 09:59:54.312500
2520,31.08,2022-10-26 09:59:54.328125
2521,29.59,2022-10-26 09:59:54.343750
2522,28.9,2022-10-26 09:59:54.359375
2523,28.1,2022-10-26 09:59:54.375000
2524,26.36,2022-10-26 09:59:54.390625
2525,23.41,2022-10-26 09:59:54.406250
2526,19.57,2022-10-26 09:59:54.421875
2527,15.5,2022-10-26 09:59:54.437500
2528,11.74,2022-10-26 09:59:54.453125
2529,8.42,2022-10-26 09:59:54.468750
2530,5.16,2022-10-26 09:59:54.484375
2531,1.25,2022-10-26 09:59:54.500000
2532,-4.05,2022-10-26 09:59:54.515625
2533,-11.14,2022-10-26 09:59:54.531250
2534,-19.81,2022-10-26 09:59:54.546875
2535,-29.23,2022-10-26 09:59:54.562500
2536,-37.97,2022-10-26 09:59:54.578125
2537,-44.38,2022-10-26 09:59:54.593750
2538,-47.0,2022-10-26 09:59:54.609375
2539,-44.98,2022-10-26 09:59:54.625000
2540,-38.4,2022-10-26 09:59:54.640625
2541,-28.24,2022-10-26 09:59:54.656250
2542,-16.06,2022-10-26 09:59:54.671875
2543,-3.54,2022-10-26 09:59:54.687500
2544,7.99,2022-10-26 09:59:54.703125
2545,17.71,2022-10-26 09:59:54.718750
2546,25.22,2022-10-26 09:59:54.734375
2547,30.37,2022-10-26 09:59:54.750000
2548,33.01,2022-10-26 09:59:54.765625
2549,33.06,2022-10-26 09:59:54.781250
2550,30.69,2022-10-26 09:59:54.796875
2551,26.49,2022-10-26 09:59:54.812500
2552,21.48,2022-10-26 09:59:54.828125
2553,16.85,2022-10-26 09:59:54.843750
2554,13.61,2022-10-26 09:59:54.859375
2555,12.17,2022-10-26 09:59:54.875000
2556,12.31,2022-10-26 09:59:54.890625
2557,13.26,2022-10-26 09:59:54.906250
2558,14.14,2022-10-26 09:59:54.921875
2559,14.28,2022-10-26 09:59:54.937500
2560,13.48,2022-10-26 09:59:54.953125
2561,11.98,2022-10-26 09:59:54.968750
2562,10.26,2022-10-26 09:59:54.984375
2563,8.73,2022-10-26 09:59:55.000000
2564,7.55,2022-10-26 09:59:55.015625
2565,6.54,2022-10-26 09:59:55.031250
2566,5.24,2022-10-26 09:59:55.046875
2567,3.11,2022-10-26 09:59:55.062500
2568,-0.28,2022-10-26 09:59:55.078125
2569,-5.01,2022-10-26 09:59:55.093750
2570,-10.71,2022-10-26 09:59:55.109375
2571,-16.45,2022-10-26 09:59:55.125000
2572,-20.97,2022-10-26 09:59:55.140625
2573,-22.91,2022-10-26 09:59:55.156250
2574,-21.31,2022-10-26 09:59:55.171875
2575,-15.97,2022-10-26 09:59:55.187500
2576,-7.57,2022-10-26 09:59:55.203125
2577,2.45,2022-10-26 09:59:55.218750
2578,12.41,2022-10-26 09:59:55.234375
2579,20.9,2022-10-26 09:59:55.250000
2580,27.23,2022-10-26 09:59:55.265625
2581,31.35,2022-10-26 09:59:55.281250
2582,33.73,2022-10-26 09:59:55.296875
2583,34.88,2022-10-26 09:59:55.312500
2584,35.12,2022-10-26 09:59:55.328125
2585,34.53,2022-10-26 09:59:55.343750
2586,33.14,2022-10-26 09:59:55.359375
2587,31.14,2022-10-26 09:59:55.375000
2588,29.01,2022-10-26 09:59:55.390625
2589,27.38,2022-10-26 09:59:55.406250
2590,26.74,2022-10-26 09:59:55.421875
2591,27.17,2022-10-26 09:59:55.437500
2592,28.23,2022-10-26 09:59:55.453125
2593,29.09,2022-10-26 09:59:55.468750
2594,28.91,2022-10-26 09:59:55.484375
2595,27.24,2022-10-26 09:59:55.500000
2596,24.23,2022-10-26 09:59:55.515625
2597,20.51,2022-10-26 09:59:55.531250
2598,16.89,2022-10-26 09:59:55.546875
2599,13.93,2022-10-26 09:59:55.562500
2600,11.67,2022-10-26 09:59:55.578125
2601,9.65,2022-10-26 09:59:55.593750
2602,7.13,2022-10-26 09:59:55.609375
2603,3.44,2022-10-26 09:59:55.625000
2604,-1.8,2022-10-26 09:59:55.640625
2605,-8.57,2022-10-26 09:59:55.656250
2606,-16.46,2022-10-26 09:59:55.671875
2607,-24.66,2022-10-26 09:59:55.687500
2608,-32.04,2022-10-26 09:59:55.703125
2609,-37.2,2022-10-26 09:59:55.718750
2610,-38.88,2022-10-26 09:59:55.734375
2611,-36.27,2022-10-26 09:59:55.750000
2612,-29.46,2022-10-26 09:59:55.765625
2613,-19.53,2022-10-26 09:59:55.781250
2614,-8.23,2022-10-26 09:59:55.796875
2615,2.66,2022-10-26 09:59:55.812500
2616,11.98,2022-10-26 09:59:55.828125
2617,19.48,2022-10-26 09:59:55.843750
2618,25.72,2022-10-26 09:59:55.859375
2619,31.46,2022-10-26 09:59:55.875000
2620,37.04,2022-10-26 09:59:55.890625
2621,42.17,2022-10-26 09:59:55.906250
2622,46.18,2022-10-26 09:59:55.921875
2623,48.58,2022-10-26 09:59:55.937500
2624,49.59,2022-10-26 09:59:55.953125
2625,50.17,2022-10-26 09:59:55.968750
2626,51.43,2022-10-26 09:59:55.984375
2627,53.92,2022-10-26 09:59:56.000000
2628,57.15,2022-10-26 09:59:56.015625
2629,59.84,2022-10-26 09:59:56.031250
2630,60.65,2022-10-26 09:59:56.046875
2631,59.02,2022-10-26 09:59:56.062500
2632,55.35,2022-10-26 09:59:56.078125
2633,50.7,2022-10-26 09:59:56.093750
2634,45.97,2022-10-26 09:59:56.109375
2635,41.35,2022-10-26 09:59:56.125000
2636,36.3,2022-10-26 09:59:56.140625
2637,30.18,2022-10-26 09:59:56.156250
2638,22.88,2022-10-26 09:59:56.171875
2639,15.08,2022-10-26 09:59:56.187500
2640,7.94,2022-10-26 09:59:56.203125
2641,2.32,2022-10-26 09:59:56.218750
2642,-1.72,2022-10-26 09:59:56.234375
2643,-4.91,2022-10-26 09:59:56.250000
2644,-8.1,2022-10-26 09:59:56.265625
2645,-11.52,2022-10-26 09:59:56.281250
2646,-14.37,2022-10-26 09:59:56.296875
2647,-15.15,2022-10-26 09:59:56.312500
2648,-12.41,2022-10-26 09:59:56.328125
2649,-5.65,2022-10-26 09:59:56.343750
2650,4.17,2022-10-26 09:59:56.359375
2651,14.96,2022-10-26 09:59:56.375000
2652,24.23,2022-10-26 09:59:56.390625
2653,30.03,2022-10-26 09:59:56.406250
2654,31.67,2022-10-26 09:59:56.421875
2655,29.74,2022-10-26 09:59:56.437500
2656,25.55,2022-10-26 09:59:56.453125
2657,20.44,2022-10-26 09:59:56.468750
2658,15.15,2022-10-26 09:59:56.484375
2659,9.68,2022-10-26 09:59:56.500000
2660,3.59,2022-10-26 09:59:56.515625
2661,-3.5,2022-10-26 09:59:56.531250
2662,-11.52,2022-10-26 09:59:56.546875
2663,-19.85,2022-10-26 09:59:56.562500
2664,-27.55,2022-10-26 09:59:56.578125
2665,-33.84,2022-10-26 09:59:56.593750
2666,-38.36,2022-10-26 09:59:56.609375
2667,-41.29,2022-10-26 09:59:56.625000
2668,-43.21,2022-10-26 09:59:56.640625
2669,-44.76,2022-10-26 09:59:56.656250
2670,-46.33,2022-10-26 09:59:56.671875
2671,-47.9,2022-10-26 09:59:56.687500
2672,-49.09,2022-10-26 09:59:56.703125
2673,-49.32,2022-10-26 09:59:56.718750
2674,-48.09,2022-10-26 09:59:56.734375
2675,-45.13,2022-10-26 09:59:56.750000
2676,-40.55,2022-10-26 09:59:56.765625
2677,-34.71,2022-10-26 09:59:56.781250
2678,-28.16,2022-10-26 09:59:56.796875
2679,-21.53,2022-10-26 09:59:56.812500
2680,-15.53,2022-10-26 09:59:56.828125
2681,-10.96,2022-10-26 09:59:56.843750
2682,-8.66,2022-10-26 09:59:56.859375
2683,-9.25,2022-10-26 09:59:56.875000
2684,-12.76,2022-10-26 09:59:56.890625
2685,-18.36,2022-10-26 09:59:56.906250
2686,-24.3,2022-10-26 09:59:56.921875
2687,-28.33,2022-10-26 09:59:56.937500
2688,-28.44,2022-10-26 09:59:56.953125
2689,-23.69,2022-10-26 09:59:56.968750
2690,-14.68,2022-10-26 09:59:56.984375
2691,-3.34,2022-10-26 09:59:57.000000
2692,7.82,2022-10-26 09:59:57.015625
2693,16.71,2022-10-26 09:59:57.031250
2694,22.42,2022-10-26 09:59:57.046875
2695,25.33,2022-10-26 09:59:57.062500
2696,26.66,2022-10-26 09:59:57.078125
2697,27.71,2022-10-26 09:59:57.093750
2698,29.23,2022-10-26 09:59:57.109375
2699,31.16,2022-10-26 09:59:57.125000
2700,32.89,2022-10-26 09:59:57.140625
2701,33.72,2022-10-26 09:59:57.156250
2702,33.42,2022-10-26 09:59:57.171875
2703,32.34,2022-10-26 09:59:57.187500
2704,31.25,2022-10-26 09:59:57.203125
2705,30.94,2022-10-26 09:59:57.218750
2706,31.71,2022-10-26 09:59:57.234375
2707,33.29,2022-10-26 09:59:57.250000
2708,34.88,2022-10-26 09:59:57.265625
2709,35.54,2022-10-26 09:59:57.281250
2710,34.67,2022-10-26 09:59:57.296875
2711,32.2,2022-10-26 09:59:57.312500
2712,28.62,2022-10-26 09:59:57.328125
2713,24.63,2022-10-26 09:59:57.343750
2714,20.78,2022-10-26 09:59:57.359375
2715,17.21,2022-10-26 09:59:57.375000
2716,13.71,2022-10-26 09:59:57.390625
2717,9.88,2022-10-26 09:59:57.406250
2718,5.51,2022-10-26 09:59:57.421875
2719,0.62,2022-10-26 09:59:57.437500
2720,-4.56,2022-10-26 09:59:57.453125
2721,-9.79,2022-10-26 09:59:57.468750
2722,-14.98,2022-10-26 09:59:57.484375
2723,-20.08,2022-10-26 09:59:57.500000
2724,-24.92,2022-10-26 09:59:57.515625
2725,-28.98,2022-10-26 09:59:57.531250
2726,-31.43,2022-10-26 09:59:57.546875
2727,-31.33,2022-10-26 09:59:57.562500
2728,-28.07,2022-10-26 09:59:57.578125
2729,-21.6,2022-10-26 09:59:57.593750
2730,-12.62,2022-10-26 09:59:57.609375
2731,-2.3,2022-10-26 09:59:57.625000
2732,8.09,2022-10-26 09:59:57.640625
2733,17.42,2022-10-26 09:59:57.656250
2734,25.0,2022-10-26 09:59:57.671875
2735,30.5,2022-10-26 09:59:57.687500
2736,33.87,2022-10-26 09:59:57.703125
2737,35.23,2022-10-26 09:59:57.718750
2738,34.77,2022-10-26 09:59:57.734375
2739,32.83,2022-10-26 09:59:57.750000
2740,29.85,2022-10-26 09:59:57.765625
2741,26.45,2022-10-26 09:59:57.781250
2742,23.3,2022-10-26 09:59:57.796875
2743,20.97,2022-10-26 09:59:57.812500
2744,19.75,2022-10-26 09:59:57.828125
2745,19.58,2022-10-26 09:59:57.843750
2746,20.06,2022-10-26 09:59:57.859375
2747,20.72,2022-10-26 09:59:57.875000
2748,21.12,2022-10-26 09:59:57.890625
2749,21.04,2022-10-26 09:59:57.906250
2750,20.54,2022-10-26 09:59:57.921875
2751,19.73,2022-10-26 09:59:57.937500
2752,18.74,2022-10-26 09:59:57.953125
2753,17.6,2022-10-26 09:59:57.968750
2754,16.21,2022-10-26 09:59:57.984375
2755,14.45,2022-10-26 09:59:58.000000
2756,12.13,2022-10-26 09:59:58.015625
2757,9.08,2022-10-26 09:59:58.031250
2758,5.12,2022-10-26 09:59:58.046875
2759,0.13,2022-10-26 09:59:58.062500
2760,-5.76,2022-10-26 09:59:58.078125
2761,-12.1,2022-10-26 09:59:58.093750
2762,-18.07,2022-10-26 09:59:58.109375
2763,-22.64,2022-10-26 09:59:58.125000
2764,-24.83,2022-10-26 09:59:58.140625
2765,-23.99,2022-10-26 09:59:58.156250
2766,-20.09,2022-10-26 09:59:58.171875
2767,-13.65,2022-10-26 09:59:58.187500
2768,-5.63,2022-10-26 09:59:58.203125
2769,2.89,2022-10-26 09:59:58.218750
2770,10.93,2022-10-26 09:59:58.234375
2771,17.84,2022-10-26 09:59:58.250000
2772,23.24,2022-10-26 09:59:58.265625
2773,26.97,2022-10-26 09:59:58.281250
2774,28.96,2022-10-26 09:59:58.296875
2775,29.17,2022-10-26 09:59:58.312500
2776,27.68,2022-10-26 09:59:58.328125
2777,24.82,2022-10-26 09:59:58.343750
2778,21.16,2022-10-26 09:59:58.359375
2779,17.52,2022-10-26 09:59:58.375000
2780,14.73,2022-10-26 09:59:58.390625
2781,13.32,2022-10-26 09:59:58.406250
2782,13.39,2022-10-26 09:59:58.421875
2783,14.53,2022-10-26 09:59:58.437500
2784,16.05,2022-10-26 09:59:58.453125
2785,17.26,2022-10-26 09:59:58.468750
2786,17.73,2022-10-26 09:59:58.484375
2787,17.37,2022-10-26 09:59:58.500000
2788,16.43,2022-10-26 09:59:58.515625
2789,15.18,2022-10-26 09:59:58.531250
2790,13.84,2022-10-26 09:59:58.546875
2791,12.43,2022-10-26 09:59:58.562500
2792,10.78,2022-10-26 09:59:58.578125
2793,8.65,2022-10-26 09:59:58.593750
2794,5.84,2022-10-26 09:59:58.609375
2795,2.18,2022-10-26 09:59:58.625000
2796,-2.4,2022-10-26 09:59:58.640625
2797,-7.88,2022-10-26 09:59:58.656250
2798,-14.0,2022-10-26 09:59:58.671875
2799,-20.28,2022-10-26 09:59:58.687500
2800,-25.89,2022-10-26 09:59:58.703125
2801,-29.89,2022-10-26 09:59:58.718750
2802,-31.48,2022-10-26 09:59:58.734375
2803,-30.29,2022-10-26 09:59:58.750000
2804,-26.52,2022-10-26 09:59:58.765625
2805,-20.93,2022-10-26 09:59:58.781250
2806,-14.47,2022-10-26 09:59:58.796875
2807,-7.93,2022-10-26 09:59:58.812500
2808,-1.75,2022-10-26 09:59:58.828125
2809,4.0,2022-10-26 09:59:58.843750
2810,9.33,2022-10-26 09:59:58.859375
2811,14.06,2022-10-26 09:59:58.875000
2812,17.69,2022-10-26 09:59:58.890625
2813,19.59,2022-10-26 09:59:58.906250
2814,19.31,2022-10-26 09:59:58.921875
2815,16.93,2022-10-26 09:59:58.937500
2816,13.15,2022-10-26 09:59:58.953125
2817,9.06,2022-10-26 09:59:58.968750
2818,5.88,2022-10-26 09:59:58.984375
2819,4.42,2022-10-26 09:59:59.000000
2820,4.99,2022-10-26 09:59:59.015625
2821,7.4,2022-10-26 09:59:59.031250
2822,11.08,2022-10-26 09:59:59.046875
2823,15.31,2022-10-26 09:59:59.062500
2824,19.3,2022-10-26 09:59:59.078125
2825,22.26,2022-10-26 09:59:59.093750
2826,23.48,2022-10-26 09:59:59.109375
2827,22.53,2022-10-26 09:59:59.125000
2828,19.36,2022-10-26 09:59:59.140625
2829,14.45,2022-10-26 09:59:59.156250
2830,8.7,2022-10-26 09:59:59.171875
2831,3.16,2022-10-26 09:59:59.187500
2832,-1.34,2022-10-26 09:59:59.203125
2833,-4.31,2022-10-26 09:59:59.218750
2834,-5.73,2022-10-26 09:59:59.234375
2835,-5.89,2022-10-26 09:59:59.250000
2836,-5.08,2022-10-26 09:59:59.265625
2837,-3.43,2022-10-26 09:59:59.281250
2838,-0.85,2022-10-26 09:59:59.296875
2839,2.83,2022-10-26 09:59:59.312500
2840,7.64,2022-10-26 09:59:59.328125
2841,13.24,2022-10-26 09:59:59.343750
2842,18.86,2022-10-26 09:59:59.359375
2843,23.52,2022-10-26 09:59:59.375000
2844,26.3,2022-10-26 09:59:59.390625
2845,26.75,2022-10-26 09:59:59.406250
2846,25.04,2022-10-26 09:59:59.421875
2847,21.9,2022-10-26 09:59:59.437500
2848,18.29,2022-10-26 09:59:59.453125
2849,15.03,2022-10-26 09:59:59.468750
2850,12.5,2022-10-26 09:59:59.484375
2851,10.71,2022-10-26 09:59:59.500000
2852,9.38,2022-10-26 09:59:59.515625
2853,8.19,2022-10-26 09:59:59.531250
2854,6.96,2022-10-26 09:59:59.546875
2855,5.62,2022-10-26 09:59:59.562500
2856,4.13,2022-10-26 09:59:59.578125
2857,2.4,2022-10-26 09:59:59.593750
2858,0.29,2022-10-26 09:59:59.609375
2859,-2.28,2022-10-26 09:59:59.625000
2860,-5.27,2022-10-26 09:59:59.640625
2861,-8.56,2022-10-26 09:59:59.656250
2862,-12.03,2022-10-26 09:59:59.671875
2863,-15.82,2022-10-26 09:59:59.687500
2864,-20.33,2022-10-26 09:59:59.703125
2865,-26.21,2022-10-26 09:59:59.718750
2866,-33.95,2022-10-26 09:59:59.734375
2867,-43.58,2022-10-26 09:59:59.750000
2868,-54.37,2022-10-26 09:59:59.765625
2869,-64.85,2022-10-26 09:59:59.781250
2870,-73.2,2022-10-26 09:59:59.796875
2871,-77.78,2022-10-26 09:59:59.812500
2872,-77.67,2022-10-26 09:59:59.828125
2873,-72.93,2022-10-26 09:59:59.843750
2874,-64.52,2022-10-26 09:59:59.859375
2875,-53.92,2022-10-26 09:59:59.875000
2876,-42.61,2022-10-26 09:59:59.890625
2877,-31.69,2022-10-26 09:59:59.906250
2878,-21.75,2022-10-26 09:59:59.921875
2879,-12.87,2022-10-26 09:59:59.937500
2880,-4.94,2022-10-26 09:59:59.953125
2881,2.17,2022-10-26 09:59:59.968750
2882,8.48,2022-10-26 09:59:59.984375
2883,13.86,2022-10-26 10:00:00.000000
2884,18.2,2022-10-26 10:00:00.015625
2885,21.49,2022-10-26 10:00:00.031250
2886,23.84,2022-10-26 10:00:00.046875
2887,25.49,2022-10-26 10:00:00.062500
2888,26.68,2022-10-26 10:00:00.078125
2889,27.56,2022-10-26 10:00:00.093750
2890,28.22,2022-10-26 10:00:00.109375
2891,28.67,2022-10-26 10:00:00.125000
2892,28.93,2022-10-26 10:00:00.140625
2893,29.07,2022-10-26 10:00:00.156250
2894,29.25,2022-10-26 10:00:00.171875
2895,29.64,2022-10-26 10:00:00.187500
2896,30.36,2022-10-26 10:00:00.203125
2897,31.34,2022-10-26 10:00:00.218750
2898,32.3,2022-10-26 10:00:00.234375
2899,32.75,2022-10-26 10:00:00.250000
2900,32.28,2022-10-26 10:00:00.265625
2901,30.7,2022-10-26 10:00:00.281250
2902,28.2,2022-10-26 10:00:00.296875
2903,25.25,2022-10-26 10:00:00.312500
2904,22.44,2022-10-26 10:00:00.328125
2905,20.12,2022-10-26 10:00:00.343750
2906,18.31,2022-10-26 10:00:00.359375
2907,16.7,2022-10-26 10:00:00.375000
2908,14.91,2022-10-26 10:00:00.390625
2909,12.67,2022-10-26 10:00:00.406250
2910,10.0,2022-10-26 10:00:00.421875
2911,7.16,2022-10-26 10:00:00.437500
2912,4.4,2022-10-26 10:00:00.453125
2913,1.86,2022-10-26 10:00:00.468750
2914,-0.53,2022-10-26 10:00:00.484375
2915,-3.04,2022-10-26 10:00:00.500000
2916,-5.9,2022-10-26 10:00:00.515625
2917,-9.27,2022-10-26 10:00:00.531250
2918,-13.1,2022-10-26 10:00:00.546875
2919,-17.16,2022-10-26 10:00:00.562500
2920,-21.14,2022-10-26 10:00:00.578125
2921,-24.72,2022-10-26 10:00:00.593750
2922,-27.72,2022-10-26 10:00:00.609375
2923,-30.09,2022-10-26 10:00:00.625000
2924,-31.99,2022-10-26 10:00:00.640625
2925,-33.78,2022-10-26 10:00:00.656250
2926,-35.91,2022-10-26 10:00:00.671875
2927,-38.86,2022-10-26 10:00:00.687500
2928,-42.91,2022-10-26 10:00:00.703125
2929,-48.0,2022-10-26 10:00:00.718750
2930,-53.53,2022-10-26 10:00:00.734375
2931,-58.37,2022-10-26 10:00:00.750000
2932,-61.09,2022-10-26 10:00:00.765625
2933,-60.41,2022-10-26 10:00:00.781250
2934,-55.68,2022-10-26 10:00:00.796875
2935,-47.2,2022-10-26 10:00:00.812500
2936,-36.19,2022-10-26 10:00:00.828125
2937,-24.38,2022-10-26 10:00:00.843750
2938,-13.41,2022-10-26 10:00:00.859375
2939,-4.39,2022-10-26 10:00:00.875000
2940,2.41,2022-10-26 10:00:00.890625
2941,7.3,2022-10-26 10:00:00.906250
2942,10.88,2022-10-26 10:00:00.921875
2943,13.66,2022-10-26 10:00:00.937500
2944,15.88,2022-10-26 10:00:00.953125
2945,17.59,2022-10-26 10:00:00.968750
2946,18.74,2022-10-26 10:00:00.984375
2947,19.34,2022-10-26 10:00:01.000000
2948,19.44,2022-10-26 10:00:01.015625
2949,19.15,2022-10-26 10:00:01.031250
2950,18.49,2022-10-26 10:00:01.046875
2951,17.46,2022-10-26 10:00:01.062500
2952,16.12,2022-10-26 10:00:01.078125
2953,14.62,2022-10-26 10:00:01.093750
2954,13.25,2022-10-26 10:00:01.109375
2955,12.27,2022-10-26 10:00:01.125000
2956,11.85,2022-10-26 10:00:01.140625
2957,11.96,2022-10-26 10:00:01.156250
2958,12.3,2022-10-26 10:00:01.171875
2959,12.45,2022-10-26 10:00:01.187500
2960,12.03,2022-10-26 10:00:01.203125
2961,10.78,2022-10-26 10:00:01.218750
2962,8.69,2022-10-26 10:00:01.234375
2963,5.91,2022-10-26 10:00:01.250000
2964,2.75,2022-10-26 10:00:01.265625
2965,-0.47,2022-10-26 10:00:01.281250
2966,-3.45,2022-10-26 10:00:01.296875
2967,-5.99,2022-10-26 10:00:01.312500
2968,-8.05,2022-10-26 10:00:01.328125
2969,-9.8,2022-10-26 10:00:01.343750
2970,-11.55,2022-10-26 10:00:01.359375
2971,-13.65,2022-10-26 10:00:01.375000
2972,-16.36,2022-10-26 10:00:01.390625
2973,-19.69,2022-10-26 10:00:01.406250
2974,-23.38,2022-10-26 10:00:01.421875
2975,-27.0,2022-10-26 10:00:01.437500
2976,-30.13,2022-10-26 10:00:01.453125
2977,-32.52,2022-10-26 10:00:01.468750
2978,-34.21,2022-10-26 10:00:01.484375
2979,-35.5,2022-10-26 10:00:01.500000
2980,-36.83,2022-10-26 10:00:01.515625
2981,-38.66,2022-10-26 10:00:01.531250
2982,-41.29,2022-10-26 10:00:01.546875
2983,-44.8,2022-10-26 10:00:01.562500
2984,-48.91,2022-10-26 10:00:01.578125
2985,-52.99,2022-10-26 10:00:01.593750
2986,-56.04,2022-10-26 10:00:01.609375
2987,-56.94,2022-10-26 10:00:01.625000
2988,-54.76,2022-10-26 10:00:01.640625
2989,-49.11,2022-10-26 10:00:01.656250
2990,-40.35,2022-10-26 10:00:01.671875
2991,-29.5,2022-10-26 10:00:01.687500
2992,-17.98,2022-10-26 10:00:01.703125
2993,-7.08,2022-10-26 10:00:01.718750
2994,2.36,2022-10-26 10:00:01.734375
2995,10.11,2022-10-26 10:00:01.750000
2996,16.4,2022-10-26 10:00:01.765625
2997,21.63,2022-10-26 10:00:01.781250
2998,26.11,2022-10-26 10:00:01.796875
2999,29.94,2022-10-26 10:00:01.812500
3000,33.06,2022-10-26 10:00:01.828125
3001,35.35,2022-10-26 10:00:01.843750
3002,36.69,2022-10-26 10:00:01.859375
3003,37.05,2022-10-26 10:00:01.875000
3004,36.49,2022-10-26 10:00:01.890625
3005,35.13,2022-10-26 10:00:01.906250
3006,33.22,2022-10-26 10:00:01.921875
3007,31.07,2022-10-26 10:00:01.937500
3008,28.96,2022-10-26 10:00:01.953125
3009,27.09,2022-10-26 10:00:01.968750
3010,25.43,2022-10-26 10:00:01.984375
3011,23.82,2022-10-26 10:00:02.000000
3012,22.03,2022-10-26 10:00:02.015625
3013,19.95,2022-10-26 10:00:02.031250
3014,17.64,2022-10-26 10:00:02.046875
3015,15.39,2022-10-26 10:00:02.062500
3016,13.56,2022-10-26 10:00:02.078125
3017,12.36,2022-10-26 10:00:02.093750
3018,11.8,2022-10-26 10:00:02.109375
3019,11.61,2022-10-26 10:00:02.125000
3020,11.39,2022-10-26 10:00:02.140625
3021,10.71,2022-10-26 10:00:02.156250
3022,9.25,2022-10-26 10:00:02.171875
3023,6.88,2022-10-26 10:00:02.187500
3024,3.66,2022-10-26 10:00:02.203125
3025,-0.22,2022-10-26 10:00:02.218750
3026,-4.49,2022-10-26 10:00:02.234375
3027,-8.82,2022-10-26 10:00:02.250000
3028,-12.96,2022-10-26 10:00:02.265625
3029,-16.68,2022-10-26 10:00:02.281250
3030,-19.95,2022-10-26 10:00:02.296875
3031,-22.91,2022-10-26 10:00:02.312500
3032,-25.85,2022-10-26 10:00:02.328125
3033,-29.12,2022-10-26 10:00:02.343750
3034,-32.95,2022-10-26 10:00:02.359375
3035,-37.19,2022-10-26 10:00:02.375000
3036,-41.22,2022-10-26 10:00:02.390625
3037,-44.03,2022-10-26 10:00:02.406250
3038,-44.51,2022-10-26 10:00:02.421875
3039,-41.89,2022-10-26 10:00:02.437500
3040,-36.08,2022-10-26 10:00:02.453125
3041,-27.78,2022-10-26 10:00:02.468750
3042,-18.3,2022-10-26 10:00:02.484375
3043,-9.02,2022-10-26 10:00:02.500000
3044,-1.0,2022-10-26 10:00:02.515625
3045,5.31,2022-10-26 10:00:02.531250
3046,10.03,2022-10-26 10:00:02.546875
3047,13.57,2022-10-26 10:00:02.562500
3048,16.33,2022-10-26 10:00:02.578125
3049,18.5,2022-10-26 10:00:02.593750
3050,20.08,2022-10-26 10:00:02.609375
3051,21.0,2022-10-26 10:00:02.625000
3052,21.33,2022-10-26 10:00:02.640625
3053,21.32,2022-10-26 10:00:02.656250
3054,21.35,2022-10-26 10:00:02.671875
3055,21.74,2022-10-26 10:00:02.687500
3056,22.68,2022-10-26 10:00:02.703125
3057,24.12,2022-10-26 10:00:02.718750
3058,25.77,2022-10-26 10:00:02.734375
3059,27.22,2022-10-26 10:00:02.750000
3060,28.13,2022-10-26 10:00:02.765625
3061,28.28,2022-10-26 10:00:02.781250
3062,27.61,2022-10-26 10:00:02.796875
3063,26.23,2022-10-26 10:00:02.812500
3064,24.3,2022-10-26 10:00:02.828125
3065,21.88,2022-10-26 10:00:02.843750
3066,18.99,2022-10-26 10:00:02.859375
3067,15.56,2022-10-26 10:00:02.875000
3068,11.52,2022-10-26 10:00:02.890625
3069,6.9,2022-10-26 10:00:02.906250
3070,1.86,2022-10-26 10:00:02.921875
3071,-3.31,2022-10-26 10:00:02.937500
3072,-8.26,2022-10-26 10:00:02.953125
3073,-12.65,2022-10-26 10:00:02.968750
3074,-16.32,2022-10-26 10:00:02.984375
3075,-19.32,2022-10-26 10:00:03.000000
3076,-21.91,2022-10-26 10:00:03.015625
3077,-24.51,2022-10-26 10:00:03.031250
3078,-27.56,2022-10-26 10:00:03.046875
3079,-31.37,2022-10-26 10:00:03.062500
3080,-35.97,2022-10-26 10:00:03.078125
3081,-40.99,2022-10-26 10:00:03.093750
3082,-45.7,2022-10-26 10:00:03.109375
3083,-49.08,2022-10-26 10:00:03.125000
3084,-50.14,2022-10-26 10:00:03.140625
3085,-48.16,2022-10-26 10:00:03.156250
3086,-43.07,2022-10-26 10:00:03.171875
3087,-35.43,2022-10-26 10:00:03.187500
3088,-26.37,2022-10-26 10:00:03.203125
3089,-17.2,2022-10-26 10:00:03.218750
3090,-8.96,2022-10-26 10:00:03.234375
3091,-2.25,2022-10-26 10:00:03.250000
3092,2.88,2022-10-26 10:00:03.265625
3093,6.75,2022-10-26 10:00:03.281250
3094,9.75,2022-10-26 10:00:03.296875
3095,12.19,2022-10-26 10:00:03.312500
3096,14.14,2022-10-26 10:00:03.328125
3097,15.58,2022-10-26 10:00:03.343750
3098,16.39,2022-10-26 10:00:03.359375
3099,16.55,2022-10-26 10:00:03.375000
3100,16.05,2022-10-26 10:00:03.390625
3101,15.01,2022-10-26 10:00:03.406250
3102,13.61,2022-10-26 10:00:03.421875
3103,12.09,2022-10-26 10:00:03.437500
3104,10.72,2022-10-26 10:00:03.453125
3105,9.73,2022-10-26 10:00:03.468750
3106,9.21,2022-10-26 10:00:03.484375
3107,9.1,2022-10-26 10:00:03.500000
3108,9.16,2022-10-26 10:00:03.515625
3109,9.03,2022-10-26 10:00:03.531250
3110,8.35,2022-10-26 10:00:03.546875
3111,6.93,2022-10-26 10:00:03.562500
3112,4.75,2022-10-26 10:00:03.578125
3113,2.06,2022-10-26 10:00:03.593750
3114,-0.76,2022-10-26 10:00:03.609375
3115,-3.29,2022-10-26 10:00:03.625000
3116,-5.24,2022-10-26 10:00:03.640625
3117,-6.52,2022-10-26 10:00:03.656250
3118,-7.36,2022-10-26 10:00:03.671875
3119,-8.11,2022-10-26 10:00:03.687500
3120,-9.29,2022-10-26 10:00:03.703125
3121,-11.39,2022-10-26 10:00:03.718750
3122,-14.68,2022-10-26 10:00:03.734375
3123,-19.13,2022-10-26 10:00:03.750000
3124,-24.26,2022-10-26 10:00:03.765625
3125,-29.19,2022-10-26 10:00:03.781250
3126,-32.77,2022-10-26 10:00:03.796875
3127,-33.96,2022-10-26 10:00:03.812500
3128,-32.17,2022-10-26 10:00:03.828125
3129,-27.52,2022-10-26 10:00:03.843750
3130,-20.83,2022-10-26 10:00:03.859375
3131,-13.3,2022-10-26 10:00:03.875000
3132,-6.12,2022-10-26 10:00:03.890625
3133,-0.05,2022-10-26 10:00:03.906250
3134,4.69,2022-10-26 10:00:03.921875
3135,8.32,2022-10-26 10:00:03.937500
3136,11.2,2022-10-26 10:00:03.953125
3137,13.54,2022-10-26 10:00:03.968750
3138,15.34,2022-10-26 10:00:03.984375
3139,16.39,2022-10-26 10:00:04.000000
3140,16.55,2022-10-26 10:00:04.015625
3141,15.88,2022-10-26 10:00:04.031250
3142,14.72,2022-10-26 10:00:04.046875
3143,13.53,2022-10-26 10:00:04.062500
3144,12.7,2022-10-26 10:00:04.078125
3145,12.4,2022-10-26 10:00:04.093750
3146,12.5,2022-10-26 10:00:04.109375
3147,12.73,2022-10-26 10:00:04.125000
3148,12.84,2022-10-26 10:00:04.140625
3149,12.75,2022-10-26 10:00:04.156250
3150,12.54,2022-10-26 10:00:04.171875
3151,12.3,2022-10-26 10:00:04.187500
3152,11.99,2022-10-26 10:00:04.203125
3153,11.36,2022-10-26 10:00:04.218750
3154,10.12,2022-10-26 10:00:04.234375
3155,8.06,2022-10-26 10:00:04.250000
3156,5.26,2022-10-26 10:00:04.265625
3157,2.04,2022-10-26 10:00:04.281250
3158,-1.18,2022-10-26 10:00:04.296875
3159,-4.08,2022-10-26 10:00:04.312500
3160,-6.62,2022-10-26 10:00:04.328125
3161,-8.98,2022-10-26 10:00:04.343750
3162,-11.46,2022-10-26 10:00:04.359375
3163,-14.27,2022-10-26 10:00:04.375000
3164,-17.59,2022-10-26 10:00:04.390625
3165,-21.49,2022-10-26 10:00:04.406250
3166,-25.96,2022-10-26 10:00:04.421875
3167,-30.79,2022-10-26 10:00:04.437500
3168,-35.46,2022-10-26 10:00:04.453125
3169,-39.1,2022-10-26 10:00:04.468750
3170,-40.65,2022-10-26 10:00:04.484375
3171,-39.29,2022-10-26 10:00:04.500000
3172,-34.77,2022-10-26 10:00:04.515625
3173,-27.64,2022-10-26 10:00:04.531250
