,BVP,time
0,7.61,2021-12-17 17:22:59.890625
1,6.06,2021-12-17 17:22:59.906250
2,2.97,2021-12-17 17:22:59.921875
3,-2.28,2021-12-17 17:22:59.937500
4,-9.74,2021-12-17 17:22:59.953125
5,-18.54,2021-12-17 17:22:59.968750
6,-26.81,2021-12-17 17:22:59.984375
7,-31.94,2021-12-17 17:23:00.000000
8,-31.22,2021-12-17 17:23:00.015625
9,-22.77,2021-12-17 17:23:00.031250
10,-6.32,2021-12-17 17:23:00.046875
11,16.39,2021-12-17 17:23:00.062500
12,41.97,2021-12-17 17:23:00.078125
13,66.3,2021-12-17 17:23:00.093750
14,85.81,2021-12-17 17:23:00.109375
15,98.41,2021-12-17 17:23:00.125000
16,104.16,2021-12-17 17:23:00.140625
17,104.89,2021-12-17 17:23:00.156250
18,103.42,2021-12-17 17:23:00.171875
19,102.35,2021-12-17 17:23:00.187500
20,103.0,2021-12-17 17:23:00.203125
21,104.9,2021-12-17 17:23:00.218750
22,105.99,2021-12-17 17:23:00.234375
23,103.56,2021-12-17 17:23:00.250000
24,95.57,2021-12-17 17:23:00.265625
25,81.77,2021-12-17 17:23:00.281250
26,64.03,2021-12-17 17:23:00.296875
27,45.73,2021-12-17 17:23:00.312500
28,30.49,2021-12-17 17:23:00.328125
29,20.75,2021-12-17 17:23:00.343750
30,17.0,2021-12-17 17:23:00.359375
31,17.97,2021-12-17 17:23:00.375000
32,21.56,2021-12-17 17:23:00.390625
33,25.93,2021-12-17 17:23:00.406250
34,30.13,2021-12-17 17:23:00.421875
35,34.06,2021-12-17 17:23:00.437500
36,37.9,2021-12-17 17:23:00.453125
37,41.5,2021-12-17 17:23:00.468750
38,44.23,2021-12-17 17:23:00.484375
39,45.36,2021-12-17 17:23:00.500000
40,44.61,2021-12-17 17:23:00.515625
41,42.47,2021-12-17 17:23:00.531250
42,40.11,2021-12-17 17:23:00.546875
43,38.79,2021-12-17 17:23:00.562500
44,39.22,2021-12-17 17:23:00.578125
45,41.2,2021-12-17 17:23:00.593750
46,43.7,2021-12-17 17:23:00.609375
47,45.31,2021-12-17 17:23:00.625000
48,44.95,2021-12-17 17:23:00.640625
49,42.32,2021-12-17 17:23:00.656250
50,38.06,2021-12-17 17:23:00.671875
51,33.47,2021-12-17 17:23:00.687500
52,30.03,2021-12-17 17:23:00.703125
53,28.72,2021-12-17 17:23:00.718750
54,29.69,2021-12-17 17:23:00.734375
55,32.25,2021-12-17 17:23:00.750000
56,35.24,2021-12-17 17:23:00.765625
57,37.63,2021-12-17 17:23:00.781250
58,38.97,2021-12-17 17:23:00.796875
59,39.47,2021-12-17 17:23:00.812500
60,39.74,2021-12-17 17:23:00.828125
61,40.28,2021-12-17 17:23:00.843750
62,41.15,2021-12-17 17:23:00.859375
63,41.79,2021-12-17 17:23:00.875000
64,41.18,2021-12-17 17:23:00.890625
65,38.14,2021-12-17 17:23:00.906250
66,31.74,2021-12-17 17:23:00.921875
67,21.67,2021-12-17 17:23:00.937500
68,8.5,2021-12-17 17:23:00.953125
69,-6.24,2021-12-17 17:23:00.968750
70,-20.41,2021-12-17 17:23:00.984375
71,-31.87,2021-12-17 17:23:01.000000
72,-39.32,2021-12-17 17:23:01.015625
73,-42.86,2021-12-17 17:23:01.031250
74,-44.1,2021-12-17 17:23:01.046875
75,-45.63,2021-12-17 17:23:01.062500
76,-50.16,2021-12-17 17:23:01.078125
77,-59.54,2021-12-17 17:23:01.093750
78,-74.19,2021-12-17 17:23:01.109375
79,-93.06,2021-12-17 17:23:01.125000
80,-114.07,2021-12-17 17:23:01.140625
81,-134.74,2021-12-17 17:23:01.156250
82,-153.0,2021-12-17 17:23:01.171875
83,-167.69,2021-12-17 17:23:01.187500
84,-178.76,2021-12-17 17:23:01.203125
85,-187.03,2021-12-17 17:23:01.218750
86,-193.66,2021-12-17 17:23:01.234375
87,-199.65,2021-12-17 17:23:01.250000
88,-205.48,2021-12-17 17:23:01.265625
89,-211.14,2021-12-17 17:23:01.281250
90,-216.26,2021-12-17 17:23:01.296875
91,-220.29,2021-12-17 17:23:01.312500
92,-222.45,2021-12-17 17:23:01.328125
93,-221.69,2021-12-17 17:23:01.343750
94,-216.83,2021-12-17 17:23:01.359375
95,-207.04,2021-12-17 17:23:01.375000
96,-192.38,2021-12-17 17:23:01.390625
97,-174.15,2021-12-17 17:23:01.406250
98,-154.69,2021-12-17 17:23:01.421875
99,-136.62,2021-12-17 17:23:01.437500
100,-122.01,2021-12-17 17:23:01.453125
101,-111.74,2021-12-17 17:23:01.468750
102,-105.41,2021-12-17 17:23:01.484375
103,-101.79,2021-12-17 17:23:01.500000
104,-99.33,2021-12-17 17:23:01.515625
105,-96.56,2021-12-17 17:23:01.531250
106,-92.43,2021-12-17 17:23:01.546875
107,-86.36,2021-12-17 17:23:01.562500
108,-78.47,2021-12-17 17:23:01.578125
109,-69.59,2021-12-17 17:23:01.593750
110,-61.05,2021-12-17 17:23:01.609375
111,-54.28,2021-12-17 17:23:01.625000
112,-50.13,2021-12-17 17:23:01.640625
113,-48.45,2021-12-17 17:23:01.656250
114,-48.16,2021-12-17 17:23:01.671875
115,-47.77,2021-12-17 17:23:01.687500
116,-46.13,2021-12-17 17:23:01.703125
117,-43.0,2021-12-17 17:23:01.718750
118,-39.14,2021-12-17 17:23:01.734375
119,-35.83,2021-12-17 17:23:01.750000
120,-34.24,2021-12-17 17:23:01.765625
121,-34.75,2021-12-17 17:23:01.781250
122,-36.7,2021-12-17 17:23:01.796875
123,-38.43,2021-12-17 17:23:01.812500
124,-37.7,2021-12-17 17:23:01.828125
125,-32.38,2021-12-17 17:23:01.843750
126,-21.16,2021-12-17 17:23:01.859375
127,-4.2,2021-12-17 17:23:01.875000
128,16.63,2021-12-17 17:23:01.890625
129,38.09,2021-12-17 17:23:01.906250
130,56.27,2021-12-17 17:23:01.921875
131,67.76,2021-12-17 17:23:01.937500
132,70.86,2021-12-17 17:23:01.953125
133,66.35,2021-12-17 17:23:01.968750
134,57.45,2021-12-17 17:23:01.984375
135,48.87,2021-12-17 17:23:02.000000
136,45.09,2021-12-17 17:23:02.015625
137,48.66,2021-12-17 17:23:02.031250
138,59.24,2021-12-17 17:23:02.046875
139,73.86,2021-12-17 17:23:02.062500
140,88.18,2021-12-17 17:23:02.078125
141,98.26,2021-12-17 17:23:02.093750
142,101.92,2021-12-17 17:23:02.109375
143,98.97,2021-12-17 17:23:02.125000
144,90.67,2021-12-17 17:23:02.140625
145,78.66,2021-12-17 17:23:02.156250
146,64.18,2021-12-17 17:23:02.171875
147,47.95,2021-12-17 17:23:02.187500
148,30.65,2021-12-17 17:23:02.203125
149,13.47,2021-12-17 17:23:02.218750
150,-1.79,2021-12-17 17:23:02.234375
151,-13.18,2021-12-17 17:23:02.250000
152,-19.32,2021-12-17 17:23:02.265625
153,-20.02,2021-12-17 17:23:02.281250
154,-16.44,2021-12-17 17:23:02.296875
155,-10.67,2021-12-17 17:23:02.312500
156,-4.98,2021-12-17 17:23:02.328125
157,-1.03,2021-12-17 17:23:02.343750
158,0.57,2021-12-17 17:23:02.359375
159,0.36,2021-12-17 17:23:02.375000
160,-0.52,2021-12-17 17:23:02.390625
161,-0.89,2021-12-17 17:23:02.406250
162,-0.19,2021-12-17 17:23:02.421875
163,1.37,2021-12-17 17:23:02.437500
164,3.04,2021-12-17 17:23:02.453125
165,4.02,2021-12-17 17:23:02.468750
166,3.92,2021-12-17 17:23:02.484375
167,2.99,2021-12-17 17:23:02.500000
168,1.91,2021-12-17 17:23:02.515625
169,1.4,2021-12-17 17:23:02.531250
170,1.85,2021-12-17 17:23:02.546875
171,3.14,2021-12-17 17:23:02.562500
172,4.72,2021-12-17 17:23:02.578125
173,5.91,2021-12-17 17:23:02.593750
174,6.27,2021-12-17 17:23:02.609375
175,5.73,2021-12-17 17:23:02.625000
176,4.64,2021-12-17 17:23:02.640625
177,3.53,2021-12-17 17:23:02.656250
178,2.89,2021-12-17 17:23:02.671875
179,2.9,2021-12-17 17:23:02.687500
180,3.41,2021-12-17 17:23:02.703125
181,3.95,2021-12-17 17:23:02.718750
182,4.01,2021-12-17 17:23:02.734375
183,3.26,2021-12-17 17:23:02.750000
184,1.69,2021-12-17 17:23:02.765625
185,-0.41,2021-12-17 17:23:02.781250
186,-2.61,2021-12-17 17:23:02.796875
187,-4.59,2021-12-17 17:23:02.812500
188,-6.21,2021-12-17 17:23:02.828125
189,-7.62,2021-12-17 17:23:02.843750
190,-9.09,2021-12-17 17:23:02.859375
191,-10.86,2021-12-17 17:23:02.875000
192,-13.08,2021-12-17 17:23:02.890625
193,-15.7,2021-12-17 17:23:02.906250
194,-18.54,2021-12-17 17:23:02.921875
195,-21.34,2021-12-17 17:23:02.937500
196,-23.77,2021-12-17 17:23:02.953125
197,-25.53,2021-12-17 17:23:02.968750
198,-26.39,2021-12-17 17:23:02.984375
199,-26.23,2021-12-17 17:23:03.000000
200,-25.09,2021-12-17 17:23:03.015625
201,-23.15,2021-12-17 17:23:03.031250
202,-20.66,2021-12-17 17:23:03.046875
203,-17.88,2021-12-17 17:23:03.062500
204,-15.0,2021-12-17 17:23:03.078125
205,-12.16,2021-12-17 17:23:03.093750
206,-9.39,2021-12-17 17:23:03.109375
207,-6.61,2021-12-17 17:23:03.125000
208,-3.71,2021-12-17 17:23:03.140625
209,-0.6,2021-12-17 17:23:03.156250
210,2.75,2021-12-17 17:23:03.171875
211,6.21,2021-12-17 17:23:03.187500
212,9.55,2021-12-17 17:23:03.203125
213,12.47,2021-12-17 17:23:03.218750
214,14.76,2021-12-17 17:23:03.234375
215,16.38,2021-12-17 17:23:03.250000
216,17.45,2021-12-17 17:23:03.265625
217,18.17,2021-12-17 17:23:03.281250
218,18.69,2021-12-17 17:23:03.296875
219,19.08,2021-12-17 17:23:03.312500
220,19.27,2021-12-17 17:23:03.328125
221,19.2,2021-12-17 17:23:03.343750
222,18.87,2021-12-17 17:23:03.359375
223,18.33,2021-12-17 17:23:03.375000
224,17.69,2021-12-17 17:23:03.390625
225,17.08,2021-12-17 17:23:03.406250
226,16.51,2021-12-17 17:23:03.421875
227,15.95,2021-12-17 17:23:03.437500
228,15.3,2021-12-17 17:23:03.453125
229,14.43,2021-12-17 17:23:03.468750
230,13.26,2021-12-17 17:23:03.484375
231,11.76,2021-12-17 17:23:03.500000
232,9.98,2021-12-17 17:23:03.515625
233,8.0,2021-12-17 17:23:03.531250
234,5.98,2021-12-17 17:23:03.546875
235,4.05,2021-12-17 17:23:03.562500
236,2.31,2021-12-17 17:23:03.578125
237,0.79,2021-12-17 17:23:03.593750
238,-0.63,2021-12-17 17:23:03.609375
239,-2.1,2021-12-17 17:23:03.625000
240,-3.79,2021-12-17 17:23:03.640625
241,-5.78,2021-12-17 17:23:03.656250
242,-8.06,2021-12-17 17:23:03.671875
243,-10.51,2021-12-17 17:23:03.687500
244,-13.01,2021-12-17 17:23:03.703125
245,-15.49,2021-12-17 17:23:03.718750
246,-17.91,2021-12-17 17:23:03.734375
247,-20.24,2021-12-17 17:23:03.750000
248,-22.45,2021-12-17 17:23:03.765625
249,-24.46,2021-12-17 17:23:03.781250
250,-26.15,2021-12-17 17:23:03.796875
251,-27.38,2021-12-17 17:23:03.812500
252,-27.94,2021-12-17 17:23:03.828125
253,-27.57,2021-12-17 17:23:03.843750
254,-25.96,2021-12-17 17:23:03.859375
255,-22.9,2021-12-17 17:23:03.875000
256,-18.38,2021-12-17 17:23:03.890625
257,-12.69,2021-12-17 17:23:03.906250
258,-6.42,2021-12-17 17:23:03.921875
259,-0.21,2021-12-17 17:23:03.937500
260,5.39,2021-12-17 17:23:03.953125
261,10.11,2021-12-17 17:23:03.968750
262,13.99,2021-12-17 17:23:03.984375
263,17.18,2021-12-17 17:23:04.000000
264,19.85,2021-12-17 17:23:04.015625
265,22.02,2021-12-17 17:23:04.031250
266,23.67,2021-12-17 17:23:04.046875
267,24.81,2021-12-17 17:23:04.062500
268,25.54,2021-12-17 17:23:04.078125
269,26.05,2021-12-17 17:23:04.093750
270,26.54,2021-12-17 17:23:04.109375
271,27.14,2021-12-17 17:23:04.125000
272,27.82,2021-12-17 17:23:04.140625
273,28.42,2021-12-17 17:23:04.156250
274,28.7,2021-12-17 17:23:04.171875
275,28.48,2021-12-17 17:23:04.187500
276,27.65,2021-12-17 17:23:04.203125
277,26.29,2021-12-17 17:23:04.218750
278,24.58,2021-12-17 17:23:04.234375
279,22.76,2021-12-17 17:23:04.250000
280,21.01,2021-12-17 17:23:04.265625
281,19.37,2021-12-17 17:23:04.281250
282,17.78,2021-12-17 17:23:04.296875
283,16.13,2021-12-17 17:23:04.312500
284,14.34,2021-12-17 17:23:04.328125
285,12.46,2021-12-17 17:23:04.343750
286,10.6,2021-12-17 17:23:04.359375
287,8.86,2021-12-17 17:23:04.375000
288,7.19,2021-12-17 17:23:04.390625
289,5.48,2021-12-17 17:23:04.406250
290,3.58,2021-12-17 17:23:04.421875
291,1.45,2021-12-17 17:23:04.437500
292,-0.8,2021-12-17 17:23:04.453125
293,-2.93,2021-12-17 17:23:04.468750
294,-4.75,2021-12-17 17:23:04.484375
295,-6.21,2021-12-17 17:23:04.500000
296,-7.47,2021-12-17 17:23:04.515625
297,-8.82,2021-12-17 17:23:04.531250
298,-10.54,2021-12-17 17:23:04.546875
299,-12.8,2021-12-17 17:23:04.562500
300,-15.61,2021-12-17 17:23:04.578125
301,-18.82,2021-12-17 17:23:04.593750
302,-22.17,2021-12-17 17:23:04.609375
303,-25.31,2021-12-17 17:23:04.625000
304,-27.79,2021-12-17 17:23:04.640625
305,-29.21,2021-12-17 17:23:04.656250
306,-29.24,2021-12-17 17:23:04.671875
307,-27.74,2021-12-17 17:23:04.687500
308,-24.88,2021-12-17 17:23:04.703125
309,-20.98,2021-12-17 17:23:04.718750
310,-16.45,2021-12-17 17:23:04.734375
311,-11.63,2021-12-17 17:23:04.750000
312,-6.71,2021-12-17 17:23:04.765625
313,-1.81,2021-12-17 17:23:04.781250
314,2.95,2021-12-17 17:23:04.796875
315,7.38,2021-12-17 17:23:04.812500
316,11.28,2021-12-17 17:23:04.828125
317,14.47,2021-12-17 17:23:04.843750
318,16.92,2021-12-17 17:23:04.859375
319,18.78,2021-12-17 17:23:04.875000
320,20.29,2021-12-17 17:23:04.890625
321,21.66,2021-12-17 17:23:04.906250
322,22.99,2021-12-17 17:23:04.921875
323,24.23,2021-12-17 17:23:04.937500
324,25.23,2021-12-17 17:23:04.953125
325,25.82,2021-12-17 17:23:04.968750
326,25.94,2021-12-17 17:23:04.984375
327,25.6,2021-12-17 17:23:05.000000
328,24.96,2021-12-17 17:23:05.015625
329,24.24,2021-12-17 17:23:05.031250
330,23.66,2021-12-17 17:23:05.046875
331,23.36,2021-12-17 17:23:05.062500
332,23.38,2021-12-17 17:23:05.078125
333,23.57,2021-12-17 17:23:05.093750
334,23.71,2021-12-17 17:23:05.109375
335,23.47,2021-12-17 17:23:05.125000
336,22.6,2021-12-17 17:23:05.140625
337,20.95,2021-12-17 17:23:05.156250
338,18.51,2021-12-17 17:23:05.171875
339,15.44,2021-12-17 17:23:05.187500
340,11.97,2021-12-17 17:23:05.203125
341,8.36,2021-12-17 17:23:05.218750
342,4.94,2021-12-17 17:23:05.234375
343,1.92,2021-12-17 17:23:05.250000
344,-0.46,2021-12-17 17:23:05.265625
345,-2.15,2021-12-17 17:23:05.281250
346,-3.17,2021-12-17 17:23:05.296875
347,-3.75,2021-12-17 17:23:05.312500
348,-4.15,2021-12-17 17:23:05.328125
349,-4.71,2021-12-17 17:23:05.343750
350,-5.65,2021-12-17 17:23:05.359375
351,-7.11,2021-12-17 17:23:05.375000
352,-9.05,2021-12-17 17:23:05.390625
353,-11.39,2021-12-17 17:23:05.406250
354,-13.93,2021-12-17 17:23:05.421875
355,-16.4,2021-12-17 17:23:05.437500
356,-18.48,2021-12-17 17:23:05.453125
357,-19.74,2021-12-17 17:23:05.468750
358,-19.82,2021-12-17 17:23:05.484375
359,-18.53,2021-12-17 17:23:05.500000
360,-15.96,2021-12-17 17:23:05.515625
361,-12.48,2021-12-17 17:23:05.531250
362,-8.68,2021-12-17 17:23:05.546875
363,-5.15,2021-12-17 17:23:05.562500
364,-2.33,2021-12-17 17:23:05.578125
365,-0.39,2021-12-17 17:23:05.593750
366,0.79,2021-12-17 17:23:05.609375
367,1.49,2021-12-17 17:23:05.625000
368,1.99,2021-12-17 17:23:05.640625
369,2.48,2021-12-17 17:23:05.656250
370,2.99,2021-12-17 17:23:05.671875
371,3.46,2021-12-17 17:23:05.687500
372,3.84,2021-12-17 17:23:05.703125
373,4.15,2021-12-17 17:23:05.718750
374,4.46,2021-12-17 17:23:05.734375
375,4.91,2021-12-17 17:23:05.750000
376,5.55,2021-12-17 17:23:05.765625
377,6.37,2021-12-17 17:23:05.781250
378,7.29,2021-12-17 17:23:05.796875
379,8.17,2021-12-17 17:23:05.812500
380,8.97,2021-12-17 17:23:05.828125
381,9.71,2021-12-17 17:23:05.843750
382,10.45,2021-12-17 17:23:05.859375
383,11.28,2021-12-17 17:23:05.875000
384,12.2,2021-12-17 17:23:05.890625
385,13.18,2021-12-17 17:23:05.906250
386,14.1,2021-12-17 17:23:05.921875
387,14.87,2021-12-17 17:23:05.937500
388,15.42,2021-12-17 17:23:05.953125
389,15.77,2021-12-17 17:23:05.968750
390,15.94,2021-12-17 17:23:05.984375
391,15.99,2021-12-17 17:23:06.000000
392,15.91,2021-12-17 17:23:06.015625
393,15.65,2021-12-17 17:23:06.031250
394,15.17,2021-12-17 17:23:06.046875
395,14.46,2021-12-17 17:23:06.062500
396,13.6,2021-12-17 17:23:06.078125
397,12.7,2021-12-17 17:23:06.093750
398,11.9,2021-12-17 17:23:06.109375
399,11.32,2021-12-17 17:23:06.125000
400,10.89,2021-12-17 17:23:06.140625
401,10.46,2021-12-17 17:23:06.156250
402,9.78,2021-12-17 17:23:06.171875
403,8.64,2021-12-17 17:23:06.187500
404,6.95,2021-12-17 17:23:06.203125
405,4.84,2021-12-17 17:23:06.218750
406,2.63,2021-12-17 17:23:06.234375
407,0.74,2021-12-17 17:23:06.250000
408,-0.5,2021-12-17 17:23:06.265625
409,-0.91,2021-12-17 17:23:06.281250
410,-0.55,2021-12-17 17:23:06.296875
411,0.34,2021-12-17 17:23:06.312500
412,1.49,2021-12-17 17:23:06.328125
413,2.69,2021-12-17 17:23:06.343750
414,3.87,2021-12-17 17:23:06.359375
415,5.02,2021-12-17 17:23:06.375000
416,6.19,2021-12-17 17:23:06.390625
417,7.39,2021-12-17 17:23:06.406250
418,8.59,2021-12-17 17:23:06.421875
419,9.77,2021-12-17 17:23:06.437500
420,10.9,2021-12-17 17:23:06.453125
421,11.97,2021-12-17 17:23:06.468750
422,12.97,2021-12-17 17:23:06.484375
423,13.87,2021-12-17 17:23:06.500000
424,14.6,2021-12-17 17:23:06.515625
425,15.1,2021-12-17 17:23:06.531250
426,15.33,2021-12-17 17:23:06.546875
427,15.25,2021-12-17 17:23:06.562500
428,14.89,2021-12-17 17:23:06.578125
429,14.28,2021-12-17 17:23:06.593750
430,13.48,2021-12-17 17:23:06.609375
431,12.56,2021-12-17 17:23:06.625000
432,11.57,2021-12-17 17:23:06.640625
433,10.56,2021-12-17 17:23:06.656250
434,9.5,2021-12-17 17:23:06.671875
435,8.31,2021-12-17 17:23:06.687500
436,6.91,2021-12-17 17:23:06.703125
437,5.25,2021-12-17 17:23:06.718750
438,3.33,2021-12-17 17:23:06.734375
439,1.21,2021-12-17 17:23:06.750000
440,-1.0,2021-12-17 17:23:06.765625
441,-3.17,2021-12-17 17:23:06.781250
442,-5.23,2021-12-17 17:23:06.796875
443,-7.08,2021-12-17 17:23:06.812500
444,-8.7,2021-12-17 17:23:06.828125
445,-10.08,2021-12-17 17:23:06.843750
446,-11.25,2021-12-17 17:23:06.859375
447,-12.25,2021-12-17 17:23:06.875000
448,-13.15,2021-12-17 17:23:06.890625
449,-14.02,2021-12-17 17:23:06.906250
450,-14.94,2021-12-17 17:23:06.921875
451,-16.02,2021-12-17 17:23:06.937500
452,-17.31,2021-12-17 17:23:06.953125
453,-18.83,2021-12-17 17:23:06.968750
454,-20.53,2021-12-17 17:23:06.984375
455,-22.31,2021-12-17 17:23:07.000000
456,-24.01,2021-12-17 17:23:07.015625
457,-25.46,2021-12-17 17:23:07.031250
458,-26.51,2021-12-17 17:23:07.046875
459,-26.98,2021-12-17 17:23:07.062500
460,-26.76,2021-12-17 17:23:07.078125
461,-25.76,2021-12-17 17:23:07.093750
462,-24.01,2021-12-17 17:23:07.109375
463,-21.65,2021-12-17 17:23:07.125000
464,-18.83,2021-12-17 17:23:07.140625
465,-15.72,2021-12-17 17:23:07.156250
466,-12.43,2021-12-17 17:23:07.171875
467,-9.06,2021-12-17 17:23:07.187500
468,-5.65,2021-12-17 17:23:07.203125
469,-2.31,2021-12-17 17:23:07.218750
470,0.87,2021-12-17 17:23:07.234375
471,3.84,2021-12-17 17:23:07.250000
472,6.65,2021-12-17 17:23:07.265625
473,9.47,2021-12-17 17:23:07.281250
474,12.53,2021-12-17 17:23:07.296875
475,15.92,2021-12-17 17:23:07.312500
476,19.55,2021-12-17 17:23:07.328125
477,23.1,2021-12-17 17:23:07.343750
478,26.07,2021-12-17 17:23:07.359375
479,27.92,2021-12-17 17:23:07.375000
480,28.24,2021-12-17 17:23:07.390625
481,26.99,2021-12-17 17:23:07.406250
482,24.56,2021-12-17 17:23:07.421875
483,21.79,2021-12-17 17:23:07.437500
484,19.76,2021-12-17 17:23:07.453125
485,19.5,2021-12-17 17:23:07.468750
486,21.64,2021-12-17 17:23:07.484375
487,26.16,2021-12-17 17:23:07.500000
488,32.39,2021-12-17 17:23:07.515625
489,39.22,2021-12-17 17:23:07.531250
490,45.46,2021-12-17 17:23:07.546875
491,50.11,2021-12-17 17:23:07.562500
492,52.54,2021-12-17 17:23:07.578125
493,52.51,2021-12-17 17:23:07.593750
494,50.07,2021-12-17 17:23:07.609375
495,45.49,2021-12-17 17:23:07.625000
496,39.21,2021-12-17 17:23:07.640625
497,31.81,2021-12-17 17:23:07.656250
498,24.0,2021-12-17 17:23:07.671875
499,16.39,2021-12-17 17:23:07.687500
500,9.35,2021-12-17 17:23:07.703125
501,2.83,2021-12-17 17:23:07.718750
502,-3.56,2021-12-17 17:23:07.734375
503,-10.35,2021-12-17 17:23:07.750000
504,-17.83,2021-12-17 17:23:07.765625
505,-25.84,2021-12-17 17:23:07.781250
506,-33.67,2021-12-17 17:23:07.796875
507,-40.29,2021-12-17 17:23:07.812500
508,-44.64,2021-12-17 17:23:07.828125
509,-46.01,2021-12-17 17:23:07.843750
510,-44.21,2021-12-17 17:23:07.859375
511,-39.59,2021-12-17 17:23:07.875000
512,-32.95,2021-12-17 17:23:07.890625
513,-25.28,2021-12-17 17:23:07.906250
514,-17.54,2021-12-17 17:23:07.921875
515,-10.45,2021-12-17 17:23:07.937500
516,-4.38,2021-12-17 17:23:07.953125
517,0.75,2021-12-17 17:23:07.968750
518,5.27,2021-12-17 17:23:07.984375
519,9.59,2021-12-17 17:23:08.000000
520,13.94,2021-12-17 17:23:08.015625
521,18.21,2021-12-17 17:23:08.031250
522,21.87,2021-12-17 17:23:08.046875
523,24.31,2021-12-17 17:23:08.062500
524,25.1,2021-12-17 17:23:08.078125
525,24.33,2021-12-17 17:23:08.093750
526,22.76,2021-12-17 17:23:08.109375
527,21.58,2021-12-17 17:23:08.125000
528,21.98,2021-12-17 17:23:08.140625
529,24.51,2021-12-17 17:23:08.156250
530,28.76,2021-12-17 17:23:08.171875
531,33.41,2021-12-17 17:23:08.187500
532,36.77,2021-12-17 17:23:08.203125
533,37.58,2021-12-17 17:23:08.218750
534,35.53,2021-12-17 17:23:08.234375
535,31.44,2021-12-17 17:23:08.250000
536,26.79,2021-12-17 17:23:08.265625
537,23.18,2021-12-17 17:23:08.281250
538,21.9,2021-12-17 17:23:08.296875
539,23.9,2021-12-17 17:23:08.312500
540,29.84,2021-12-17 17:23:08.328125
541,39.83,2021-12-17 17:23:08.343750
542,52.8,2021-12-17 17:23:08.359375
543,66.08,2021-12-17 17:23:08.375000
544,75.65,2021-12-17 17:23:08.390625
545,77.53,2021-12-17 17:23:08.406250
546,69.72,2021-12-17 17:23:08.421875
547,53.47,2021-12-17 17:23:08.437500
548,33.23,2021-12-17 17:23:08.453125
549,14.72,2021-12-17 17:23:08.468750
550,2.51,2021-12-17 17:23:08.484375
551,-1.76,2021-12-17 17:23:08.500000
552,0.44,2021-12-17 17:23:08.515625
553,5.99,2021-12-17 17:23:08.531250
554,12.02,2021-12-17 17:23:08.546875
555,17.16,2021-12-17 17:23:08.562500
556,21.37,2021-12-17 17:23:08.578125
557,25.0,2021-12-17 17:23:08.593750
558,27.77,2021-12-17 17:23:08.609375
559,28.59,2021-12-17 17:23:08.625000
560,26.21,2021-12-17 17:23:08.640625
561,20.11,2021-12-17 17:23:08.656250
562,10.94,2021-12-17 17:23:08.671875
563,0.27,2021-12-17 17:23:08.687500
564,-10.08,2021-12-17 17:23:08.703125
565,-18.81,2021-12-17 17:23:08.718750
566,-25.42,2021-12-17 17:23:08.734375
567,-30.1,2021-12-17 17:23:08.750000
568,-33.34,2021-12-17 17:23:08.765625
569,-35.55,2021-12-17 17:23:08.781250
570,-36.88,2021-12-17 17:23:08.796875
571,-37.27,2021-12-17 17:23:08.812500
572,-36.62,2021-12-17 17:23:08.828125
573,-34.9,2021-12-17 17:23:08.843750
574,-32.26,2021-12-17 17:23:08.859375
575,-29.01,2021-12-17 17:23:08.875000
576,-25.62,2021-12-17 17:23:08.890625
577,-22.57,2021-12-17 17:23:08.906250
578,-20.25,2021-12-17 17:23:08.921875
579,-18.88,2021-12-17 17:23:08.937500
580,-18.36,2021-12-17 17:23:08.953125
581,-18.38,2021-12-17 17:23:08.968750
582,-18.53,2021-12-17 17:23:08.984375
583,-18.48,2021-12-17 17:23:09.000000
584,-18.16,2021-12-17 17:23:09.015625
585,-17.73,2021-12-17 17:23:09.031250
586,-17.46,2021-12-17 17:23:09.046875
587,-17.56,2021-12-17 17:23:09.062500
588,-18.04,2021-12-17 17:23:09.078125
589,-18.73,2021-12-17 17:23:09.093750
590,-19.34,2021-12-17 17:23:09.109375
591,-19.65,2021-12-17 17:23:09.125000
592,-19.62,2021-12-17 17:23:09.140625
593,-19.3,2021-12-17 17:23:09.156250
594,-18.84,2021-12-17 17:23:09.171875
595,-18.38,2021-12-17 17:23:09.187500
596,-17.99,2021-12-17 17:23:09.203125
597,-17.74,2021-12-17 17:23:09.218750
598,-17.67,2021-12-17 17:23:09.234375
599,-17.84,2021-12-17 17:23:09.250000
600,-18.23,2021-12-17 17:23:09.265625
601,-18.79,2021-12-17 17:23:09.281250
602,-19.41,2021-12-17 17:23:09.296875
603,-20.01,2021-12-17 17:23:09.312500
604,-20.61,2021-12-17 17:23:09.328125
605,-21.28,2021-12-17 17:23:09.343750
606,-22.1,2021-12-17 17:23:09.359375
607,-23.08,2021-12-17 17:23:09.375000
608,-24.11,2021-12-17 17:23:09.390625
609,-24.9,2021-12-17 17:23:09.406250
610,-25.18,2021-12-17 17:23:09.421875
611,-24.76,2021-12-17 17:23:09.437500
612,-23.59,2021-12-17 17:23:09.453125
613,-21.74,2021-12-17 17:23:09.468750
614,-19.43,2021-12-17 17:23:09.484375
615,-16.88,2021-12-17 17:23:09.500000
616,-14.3,2021-12-17 17:23:09.515625
617,-11.89,2021-12-17 17:23:09.531250
618,-9.76,2021-12-17 17:23:09.546875
619,-7.93,2021-12-17 17:23:09.562500
620,-6.38,2021-12-17 17:23:09.578125
621,-5.02,2021-12-17 17:23:09.593750
622,-3.78,2021-12-17 17:23:09.609375
623,-2.61,2021-12-17 17:23:09.625000
624,-1.54,2021-12-17 17:23:09.640625
625,-0.62,2021-12-17 17:23:09.656250
626,0.13,2021-12-17 17:23:09.671875
627,0.73,2021-12-17 17:23:09.687500
628,1.21,2021-12-17 17:23:09.703125
629,1.64,2021-12-17 17:23:09.718750
630,2.01,2021-12-17 17:23:09.734375
631,2.31,2021-12-17 17:23:09.750000
632,2.52,2021-12-17 17:23:09.765625
633,2.61,2021-12-17 17:23:09.781250
634,2.6,2021-12-17 17:23:09.796875
635,2.49,2021-12-17 17:23:09.812500
636,2.3,2021-12-17 17:23:09.828125
637,2.02,2021-12-17 17:23:09.843750
638,1.69,2021-12-17 17:23:09.859375
639,1.32,2021-12-17 17:23:09.875000
640,0.95,2021-12-17 17:23:09.890625
641,0.58,2021-12-17 17:23:09.906250
642,0.2,2021-12-17 17:23:09.921875
643,-0.23,2021-12-17 17:23:09.937500
644,-0.72,2021-12-17 17:23:09.953125
645,-1.24,2021-12-17 17:23:09.968750
646,-1.73,2021-12-17 17:23:09.984375
647,-2.1,2021-12-17 17:23:10.000000
648,-2.34,2021-12-17 17:23:10.015625
649,-2.52,2021-12-17 17:23:10.031250
650,-2.78,2021-12-17 17:23:10.046875
651,-3.23,2021-12-17 17:23:10.062500
652,-3.93,2021-12-17 17:23:10.078125
653,-4.88,2021-12-17 17:23:10.093750
654,-5.95,2021-12-17 17:23:10.109375
655,-7.06,2021-12-17 17:23:10.125000
656,-8.11,2021-12-17 17:23:10.140625
657,-9.08,2021-12-17 17:23:10.156250
658,-9.91,2021-12-17 17:23:10.171875
659,-10.5,2021-12-17 17:23:10.187500
660,-10.66,2021-12-17 17:23:10.203125
661,-10.19,2021-12-17 17:23:10.218750
662,-8.93,2021-12-17 17:23:10.234375
663,-6.93,2021-12-17 17:23:10.250000
664,-4.39,2021-12-17 17:23:10.265625
665,-1.69,2021-12-17 17:23:10.281250
666,0.8,2021-12-17 17:23:10.296875
667,2.79,2021-12-17 17:23:10.312500
668,4.17,2021-12-17 17:23:10.328125
669,4.99,2021-12-17 17:23:10.343750
670,5.41,2021-12-17 17:23:10.359375
671,5.62,2021-12-17 17:23:10.375000
672,5.77,2021-12-17 17:23:10.390625
673,5.96,2021-12-17 17:23:10.406250
674,6.22,2021-12-17 17:23:10.421875
675,6.52,2021-12-17 17:23:10.437500
676,6.82,2021-12-17 17:23:10.453125
677,7.07,2021-12-17 17:23:10.468750
678,7.22,2021-12-17 17:23:10.484375
679,7.22,2021-12-17 17:23:10.500000
680,7.07,2021-12-17 17:23:10.515625
681,6.82,2021-12-17 17:23:10.531250
682,6.54,2021-12-17 17:23:10.546875
683,6.29,2021-12-17 17:23:10.562500
684,6.13,2021-12-17 17:23:10.578125
685,6.05,2021-12-17 17:23:10.593750
686,6.0,2021-12-17 17:23:10.609375
687,5.93,2021-12-17 17:23:10.625000
688,5.75,2021-12-17 17:23:10.640625
689,5.41,2021-12-17 17:23:10.656250
690,4.86,2021-12-17 17:23:10.671875
691,4.1,2021-12-17 17:23:10.687500
692,3.19,2021-12-17 17:23:10.703125
693,2.19,2021-12-17 17:23:10.718750
694,1.18,2021-12-17 17:23:10.734375
695,0.25,2021-12-17 17:23:10.750000
696,-0.55,2021-12-17 17:23:10.765625
697,-1.18,2021-12-17 17:23:10.781250
698,-1.62,2021-12-17 17:23:10.796875
699,-1.91,2021-12-17 17:23:10.812500
700,-2.15,2021-12-17 17:23:10.828125
701,-2.51,2021-12-17 17:23:10.843750
702,-3.17,2021-12-17 17:23:10.859375
703,-4.29,2021-12-17 17:23:10.875000
704,-5.88,2021-12-17 17:23:10.890625
705,-7.78,2021-12-17 17:23:10.906250
706,-9.68,2021-12-17 17:23:10.921875
707,-11.2,2021-12-17 17:23:10.937500
708,-12.04,2021-12-17 17:23:10.953125
709,-12.05,2021-12-17 17:23:10.968750
710,-11.27,2021-12-17 17:23:10.984375
711,-9.9,2021-12-17 17:23:11.000000
712,-8.16,2021-12-17 17:23:11.015625
713,-6.21,2021-12-17 17:23:11.031250
714,-4.14,2021-12-17 17:23:11.046875
715,-1.99,2021-12-17 17:23:11.062500
716,0.19,2021-12-17 17:23:11.078125
717,2.34,2021-12-17 17:23:11.093750
718,4.3,2021-12-17 17:23:11.109375
719,5.96,2021-12-17 17:23:11.125000
720,7.24,2021-12-17 17:23:11.140625
721,8.13,2021-12-17 17:23:11.156250
722,8.68,2021-12-17 17:23:11.171875
723,8.98,2021-12-17 17:23:11.187500
724,9.09,2021-12-17 17:23:11.203125
725,9.05,2021-12-17 17:23:11.218750
726,8.92,2021-12-17 17:23:11.234375
727,8.76,2021-12-17 17:23:11.250000
728,8.65,2021-12-17 17:23:11.265625
729,8.66,2021-12-17 17:23:11.281250
730,8.83,2021-12-17 17:23:11.296875
731,9.08,2021-12-17 17:23:11.312500
732,9.29,2021-12-17 17:23:11.328125
733,9.29,2021-12-17 17:23:11.343750
734,8.98,2021-12-17 17:23:11.359375
735,8.39,2021-12-17 17:23:11.375000
736,7.62,2021-12-17 17:23:11.390625
737,6.81,2021-12-17 17:23:11.406250
738,6.05,2021-12-17 17:23:11.421875
739,5.32,2021-12-17 17:23:11.437500
740,4.58,2021-12-17 17:23:11.453125
741,3.74,2021-12-17 17:23:11.468750
742,2.81,2021-12-17 17:23:11.484375
743,1.82,2021-12-17 17:23:11.500000
744,0.84,2021-12-17 17:23:11.515625
745,-0.09,2021-12-17 17:23:11.531250
746,-0.99,2021-12-17 17:23:11.546875
747,-1.88,2021-12-17 17:23:11.562500
748,-2.75,2021-12-17 17:23:11.578125
749,-3.57,2021-12-17 17:23:11.593750
750,-4.3,2021-12-17 17:23:11.609375
751,-4.94,2021-12-17 17:23:11.625000
752,-5.58,2021-12-17 17:23:11.640625
753,-6.36,2021-12-17 17:23:11.656250
754,-7.39,2021-12-17 17:23:11.671875
755,-8.68,2021-12-17 17:23:11.687500
756,-10.03,2021-12-17 17:23:11.703125
757,-11.11,2021-12-17 17:23:11.718750
758,-11.54,2021-12-17 17:23:11.734375
759,-11.06,2021-12-17 17:23:11.750000
760,-9.64,2021-12-17 17:23:11.765625
761,-7.48,2021-12-17 17:23:11.781250
762,-4.92,2021-12-17 17:23:11.796875
763,-2.32,2021-12-17 17:23:11.812500
764,0.12,2021-12-17 17:23:11.828125
765,2.38,2021-12-17 17:23:11.843750
766,4.52,2021-12-17 17:23:11.859375
767,6.56,2021-12-17 17:23:11.875000
768,8.45,2021-12-17 17:23:11.890625
769,9.99,2021-12-17 17:23:11.906250
770,10.99,2021-12-17 17:23:11.921875
771,11.36,2021-12-17 17:23:11.937500
772,11.22,2021-12-17 17:23:11.953125
773,10.81,2021-12-17 17:23:11.968750
774,10.51,2021-12-17 17:23:11.984375
775,10.57,2021-12-17 17:23:12.000000
776,11.11,2021-12-17 17:23:12.015625
777,12.09,2021-12-17 17:23:12.031250
778,13.3,2021-12-17 17:23:12.046875
779,14.47,2021-12-17 17:23:12.062500
780,15.43,2021-12-17 17:23:12.078125
781,16.1,2021-12-17 17:23:12.093750
782,16.55,2021-12-17 17:23:12.109375
783,16.96,2021-12-17 17:23:12.125000
784,17.49,2021-12-17 17:23:12.140625
785,18.21,2021-12-17 17:23:12.156250
786,19.08,2021-12-17 17:23:12.171875
787,19.93,2021-12-17 17:23:12.187500
788,20.6,2021-12-17 17:23:12.203125
789,21.03,2021-12-17 17:23:12.218750
790,21.31,2021-12-17 17:23:12.234375
791,21.64,2021-12-17 17:23:12.250000
792,22.23,2021-12-17 17:23:12.265625
793,23.16,2021-12-17 17:23:12.281250
794,24.33,2021-12-17 17:23:12.296875
795,25.52,2021-12-17 17:23:12.312500
796,26.52,2021-12-17 17:23:12.328125
797,27.18,2021-12-17 17:23:12.343750
798,27.56,2021-12-17 17:23:12.359375
799,27.85,2021-12-17 17:23:12.375000
800,28.35,2021-12-17 17:23:12.390625
801,29.39,2021-12-17 17:23:12.406250
802,31.27,2021-12-17 17:23:12.421875
803,34.23,2021-12-17 17:23:12.437500
804,38.33,2021-12-17 17:23:12.453125
805,43.3,2021-12-17 17:23:12.468750
806,48.52,2021-12-17 17:23:12.484375
807,53.16,2021-12-17 17:23:12.500000
808,56.37,2021-12-17 17:23:12.515625
809,57.71,2021-12-17 17:23:12.531250
810,57.37,2021-12-17 17:23:12.546875
811,56.09,2021-12-17 17:23:12.562500
812,54.86,2021-12-17 17:23:12.578125
813,54.41,2021-12-17 17:23:12.593750
814,54.87,2021-12-17 17:23:12.609375
815,55.59,2021-12-17 17:23:12.625000
816,55.51,2021-12-17 17:23:12.640625
817,53.6,2021-12-17 17:23:12.656250
818,49.34,2021-12-17 17:23:12.671875
819,42.97,2021-12-17 17:23:12.687500
820,35.4,2021-12-17 17:23:12.703125
821,27.93,2021-12-17 17:23:12.718750
822,21.77,2021-12-17 17:23:12.734375
823,17.69,2021-12-17 17:23:12.750000
824,15.72,2021-12-17 17:23:12.765625
825,15.15,2021-12-17 17:23:12.781250
826,14.67,2021-12-17 17:23:12.796875
827,12.88,2021-12-17 17:23:12.812500
828,8.7,2021-12-17 17:23:12.828125
829,1.74,2021-12-17 17:23:12.843750
830,-7.6,2021-12-17 17:23:12.859375
831,-18.38,2021-12-17 17:23:12.875000
832,-29.54,2021-12-17 17:23:12.890625
833,-40.4,2021-12-17 17:23:12.906250
834,-50.87,2021-12-17 17:23:12.921875
835,-61.46,2021-12-17 17:23:12.937500
836,-72.91,2021-12-17 17:23:12.953125
837,-85.89,2021-12-17 17:23:12.968750
838,-100.51,2021-12-17 17:23:12.984375
839,-116.03,2021-12-17 17:23:13.000000
840,-130.75,2021-12-17 17:23:13.015625
841,-142.25,2021-12-17 17:23:13.031250
842,-148.05,2021-12-17 17:23:13.046875
843,-146.48,2021-12-17 17:23:13.062500
844,-137.38,2021-12-17 17:23:13.078125
845,-122.28,2021-12-17 17:23:13.093750
846,-103.92,2021-12-17 17:23:13.109375
847,-85.39,2021-12-17 17:23:13.125000
848,-69.3,2021-12-17 17:23:13.140625
849,-57.43,2021-12-17 17:23:13.156250
850,-50.71,2021-12-17 17:23:13.171875
851,-49.26,2021-12-17 17:23:13.187500
852,-52.5,2021-12-17 17:23:13.203125
853,-59.09,2021-12-17 17:23:13.218750
854,-67.0,2021-12-17 17:23:13.234375
855,-73.94,2021-12-17 17:23:13.250000
856,-78.08,2021-12-17 17:23:13.265625
857,-78.71,2021-12-17 17:23:13.281250
858,-76.47,2021-12-17 17:23:13.296875
859,-72.88,2021-12-17 17:23:13.312500
860,-69.53,2021-12-17 17:23:13.328125
861,-67.36,2021-12-17 17:23:13.343750
862,-66.33,2021-12-17 17:23:13.359375
863,-65.76,2021-12-17 17:23:13.375000
864,-64.79,2021-12-17 17:23:13.390625
865,-62.69,2021-12-17 17:23:13.406250
866,-59.09,2021-12-17 17:23:13.421875
867,-53.87,2021-12-17 17:23:13.437500
868,-47.08,2021-12-17 17:23:13.453125
869,-39.02,2021-12-17 17:23:13.468750
870,-30.23,2021-12-17 17:23:13.484375
871,-21.44,2021-12-17 17:23:13.500000
872,-13.34,2021-12-17 17:23:13.515625
873,-6.36,2021-12-17 17:23:13.531250
874,-0.47,2021-12-17 17:23:13.546875
875,4.79,2021-12-17 17:23:13.562500
876,10.14,2021-12-17 17:23:13.578125
877,16.21,2021-12-17 17:23:13.593750
878,23.3,2021-12-17 17:23:13.609375
879,31.18,2021-12-17 17:23:13.625000
880,39.23,2021-12-17 17:23:13.640625
881,46.54,2021-12-17 17:23:13.656250
882,52.26,2021-12-17 17:23:13.671875
883,55.74,2021-12-17 17:23:13.687500
884,56.69,2021-12-17 17:23:13.703125
885,55.24,2021-12-17 17:23:13.718750
886,51.83,2021-12-17 17:23:13.734375
887,47.07,2021-12-17 17:23:13.750000
888,41.69,2021-12-17 17:23:13.765625
889,36.32,2021-12-17 17:23:13.781250
890,31.41,2021-12-17 17:23:13.796875
891,27.18,2021-12-17 17:23:13.812500
892,23.64,2021-12-17 17:23:13.828125
893,20.66,2021-12-17 17:23:13.843750
894,18.05,2021-12-17 17:23:13.859375
895,15.69,2021-12-17 17:23:13.875000
896,13.49,2021-12-17 17:23:13.890625
897,11.39,2021-12-17 17:23:13.906250
898,9.32,2021-12-17 17:23:13.921875
899,7.21,2021-12-17 17:23:13.937500
900,5.1,2021-12-17 17:23:13.953125
901,3.14,2021-12-17 17:23:13.968750
902,1.61,2021-12-17 17:23:13.984375
903,0.8,2021-12-17 17:23:14.000000
904,0.93,2021-12-17 17:23:14.015625
905,1.99,2021-12-17 17:23:14.031250
906,3.74,2021-12-17 17:23:14.046875
907,5.81,2021-12-17 17:23:14.062500
908,7.84,2021-12-17 17:23:14.078125
909,9.6,2021-12-17 17:23:14.093750
910,11.03,2021-12-17 17:23:14.109375
911,12.17,2021-12-17 17:23:14.125000
912,13.12,2021-12-17 17:23:14.140625
913,13.93,2021-12-17 17:23:14.156250
914,14.66,2021-12-17 17:23:14.171875
915,15.35,2021-12-17 17:23:14.187500
916,16.04,2021-12-17 17:23:14.203125
917,16.71,2021-12-17 17:23:14.218750
918,17.34,2021-12-17 17:23:14.234375
919,17.89,2021-12-17 17:23:14.250000
920,18.31,2021-12-17 17:23:14.265625
921,18.6,2021-12-17 17:23:14.281250
922,18.79,2021-12-17 17:23:14.296875
923,18.88,2021-12-17 17:23:14.312500
924,18.87,2021-12-17 17:23:14.328125
925,18.71,2021-12-17 17:23:14.343750
926,18.36,2021-12-17 17:23:14.359375
927,17.79,2021-12-17 17:23:14.375000
928,17.01,2021-12-17 17:23:14.390625
929,16.06,2021-12-17 17:23:14.406250
930,14.93,2021-12-17 17:23:14.421875
931,13.63,2021-12-17 17:23:14.437500
932,12.11,2021-12-17 17:23:14.453125
933,10.39,2021-12-17 17:23:14.468750
934,8.52,2021-12-17 17:23:14.484375
935,6.58,2021-12-17 17:23:14.500000
936,4.68,2021-12-17 17:23:14.515625
937,2.9,2021-12-17 17:23:14.531250
938,1.3,2021-12-17 17:23:14.546875
939,-0.09,2021-12-17 17:23:14.562500
940,-1.27,2021-12-17 17:23:14.578125
941,-2.25,2021-12-17 17:23:14.593750
942,-3.13,2021-12-17 17:23:14.609375
943,-4.04,2021-12-17 17:23:14.625000
944,-5.12,2021-12-17 17:23:14.640625
945,-6.5,2021-12-17 17:23:14.656250
946,-8.2,2021-12-17 17:23:14.671875
947,-10.15,2021-12-17 17:23:14.687500
948,-12.2,2021-12-17 17:23:14.703125
949,-14.19,2021-12-17 17:23:14.718750
950,-15.99,2021-12-17 17:23:14.734375
951,-17.45,2021-12-17 17:23:14.750000
952,-18.48,2021-12-17 17:23:14.765625
953,-18.91,2021-12-17 17:23:14.781250
954,-18.63,2021-12-17 17:23:14.796875
955,-17.6,2021-12-17 17:23:14.812500
956,-15.87,2021-12-17 17:23:14.828125
957,-13.65,2021-12-17 17:23:14.843750
958,-11.19,2021-12-17 17:23:14.859375
959,-8.7,2021-12-17 17:23:14.875000
960,-6.28,2021-12-17 17:23:14.890625
961,-3.94,2021-12-17 17:23:14.906250
962,-1.6,2021-12-17 17:23:14.921875
963,0.74,2021-12-17 17:23:14.937500
964,3.06,2021-12-17 17:23:14.953125
965,5.24,2021-12-17 17:23:14.968750
966,7.18,2021-12-17 17:23:14.984375
967,8.84,2021-12-17 17:23:15.000000
968,10.25,2021-12-17 17:23:15.015625
969,11.46,2021-12-17 17:23:15.031250
970,12.5,2021-12-17 17:23:15.046875
971,13.35,2021-12-17 17:23:15.062500
972,13.97,2021-12-17 17:23:15.078125
973,14.35,2021-12-17 17:23:15.093750
974,14.51,2021-12-17 17:23:15.109375
975,14.54,2021-12-17 17:23:15.125000
976,14.5,2021-12-17 17:23:15.140625
977,14.42,2021-12-17 17:23:15.156250
978,14.29,2021-12-17 17:23:15.171875
979,14.03,2021-12-17 17:23:15.187500
980,13.58,2021-12-17 17:23:15.203125
981,12.88,2021-12-17 17:23:15.218750
982,11.89,2021-12-17 17:23:15.234375
983,10.63,2021-12-17 17:23:15.250000
984,9.15,2021-12-17 17:23:15.265625
985,7.58,2021-12-17 17:23:15.281250
986,6.08,2021-12-17 17:23:15.296875
987,4.79,2021-12-17 17:23:15.312500
988,3.82,2021-12-17 17:23:15.328125
989,3.13,2021-12-17 17:23:15.343750
990,2.62,2021-12-17 17:23:15.359375
991,2.14,2021-12-17 17:23:15.375000
992,1.64,2021-12-17 17:23:15.390625
993,1.1,2021-12-17 17:23:15.406250
994,0.59,2021-12-17 17:23:15.421875
995,0.16,2021-12-17 17:23:15.437500
996,-0.25,2021-12-17 17:23:15.453125
997,-0.81,2021-12-17 17:23:15.468750
998,-1.7,2021-12-17 17:23:15.484375
999,-3.03,2021-12-17 17:23:15.500000
1000,-4.79,2021-12-17 17:23:15.515625
1001,-6.83,2021-12-17 17:23:15.531250
1002,-8.96,2021-12-17 17:23:15.546875
1003,-11.01,2021-12-17 17:23:15.562500
1004,-12.83,2021-12-17 17:23:15.578125
1005,-14.36,2021-12-17 17:23:15.593750
1006,-15.47,2021-12-17 17:23:15.609375
1007,-16.06,2021-12-17 17:23:15.625000
1008,-15.96,2021-12-17 17:23:15.640625
1009,-15.09,2021-12-17 17:23:15.656250
1010,-13.42,2021-12-17 17:23:15.671875
1011,-11.04,2021-12-17 17:23:15.687500
1012,-8.14,2021-12-17 17:23:15.703125
1013,-4.95,2021-12-17 17:23:15.718750
1014,-1.73,2021-12-17 17:23:15.734375
1015,1.27,2021-12-17 17:23:15.750000
1016,3.88,2021-12-17 17:23:15.765625
1017,5.97,2021-12-17 17:23:15.781250
1018,7.55,2021-12-17 17:23:15.796875
1019,8.67,2021-12-17 17:23:15.812500
1020,9.44,2021-12-17 17:23:15.828125
1021,10.0,2021-12-17 17:23:15.843750
1022,10.43,2021-12-17 17:23:15.859375
1023,10.78,2021-12-17 17:23:15.875000
1024,11.07,2021-12-17 17:23:15.890625
1025,11.27,2021-12-17 17:23:15.906250
1026,11.32,2021-12-17 17:23:15.921875
1027,11.18,2021-12-17 17:23:15.937500
1028,10.86,2021-12-17 17:23:15.953125
1029,10.41,2021-12-17 17:23:15.968750
1030,9.98,2021-12-17 17:23:15.984375
1031,9.71,2021-12-17 17:23:16.000000
1032,9.67,2021-12-17 17:23:16.015625
1033,9.8,2021-12-17 17:23:16.031250
1034,9.91,2021-12-17 17:23:16.046875
1035,9.78,2021-12-17 17:23:16.062500
1036,9.34,2021-12-17 17:23:16.078125
1037,8.66,2021-12-17 17:23:16.093750
1038,7.94,2021-12-17 17:23:16.109375
1039,7.38,2021-12-17 17:23:16.125000
1040,7.02,2021-12-17 17:23:16.140625
1041,6.77,2021-12-17 17:23:16.156250
1042,6.44,2021-12-17 17:23:16.171875
1043,5.9,2021-12-17 17:23:16.187500
1044,5.14,2021-12-17 17:23:16.203125
1045,4.27,2021-12-17 17:23:16.218750
1046,3.41,2021-12-17 17:23:16.234375
1047,2.58,2021-12-17 17:23:16.250000
1048,1.68,2021-12-17 17:23:16.265625
1049,0.56,2021-12-17 17:23:16.281250
1050,-0.84,2021-12-17 17:23:16.296875
1051,-2.46,2021-12-17 17:23:16.312500
1052,-4.11,2021-12-17 17:23:16.328125
1053,-5.64,2021-12-17 17:23:16.343750
1054,-7.0,2021-12-17 17:23:16.359375
1055,-8.31,2021-12-17 17:23:16.375000
1056,-9.71,2021-12-17 17:23:16.390625
1057,-11.31,2021-12-17 17:23:16.406250
1058,-13.03,2021-12-17 17:23:16.421875
1059,-14.66,2021-12-17 17:23:16.437500
1060,-15.94,2021-12-17 17:23:16.453125
1061,-16.59,2021-12-17 17:23:16.468750
1062,-16.5,2021-12-17 17:23:16.484375
1063,-15.64,2021-12-17 17:23:16.500000
1064,-14.13,2021-12-17 17:23:16.515625
1065,-12.07,2021-12-17 17:23:16.531250
1066,-9.61,2021-12-17 17:23:16.546875
1067,-6.88,2021-12-17 17:23:16.562500
1068,-4.08,2021-12-17 17:23:16.578125
1069,-1.37,2021-12-17 17:23:16.593750
1070,1.05,2021-12-17 17:23:16.609375
1071,3.09,2021-12-17 17:23:16.625000
1072,4.71,2021-12-17 17:23:16.640625
1073,6.01,2021-12-17 17:23:16.656250
1074,7.1,2021-12-17 17:23:16.671875
1075,8.12,2021-12-17 17:23:16.687500
1076,9.11,2021-12-17 17:23:16.703125
1077,10.05,2021-12-17 17:23:16.718750
1078,10.84,2021-12-17 17:23:16.734375
1079,11.37,2021-12-17 17:23:16.750000
1080,11.56,2021-12-17 17:23:16.765625
1081,11.41,2021-12-17 17:23:16.781250
1082,10.99,2021-12-17 17:23:16.796875
1083,10.41,2021-12-17 17:23:16.812500
1084,9.8,2021-12-17 17:23:16.828125
1085,9.24,2021-12-17 17:23:16.843750
1086,8.77,2021-12-17 17:23:16.859375
1087,8.39,2021-12-17 17:23:16.875000
1088,8.1,2021-12-17 17:23:16.890625
1089,7.88,2021-12-17 17:23:16.906250
1090,7.74,2021-12-17 17:23:16.921875
1091,7.69,2021-12-17 17:23:16.937500
1092,7.74,2021-12-17 17:23:16.953125
1093,7.86,2021-12-17 17:23:16.968750
1094,7.96,2021-12-17 17:23:16.984375
1095,7.91,2021-12-17 17:23:17.000000
1096,7.57,2021-12-17 17:23:17.015625
1097,6.82,2021-12-17 17:23:17.031250
1098,5.69,2021-12-17 17:23:17.046875
1099,4.33,2021-12-17 17:23:17.062500
1100,3.0,2021-12-17 17:23:17.078125
1101,1.86,2021-12-17 17:23:17.093750
1102,0.97,2021-12-17 17:23:17.109375
1103,0.15,2021-12-17 17:23:17.125000
1104,-0.81,2021-12-17 17:23:17.140625
1105,-2.08,2021-12-17 17:23:17.156250
1106,-3.67,2021-12-17 17:23:17.171875
1107,-5.4,2021-12-17 17:23:17.187500
1108,-7.07,2021-12-17 17:23:17.203125
1109,-8.54,2021-12-17 17:23:17.218750
1110,-9.83,2021-12-17 17:23:17.234375
1111,-11.05,2021-12-17 17:23:17.250000
1112,-12.29,2021-12-17 17:23:17.265625
1113,-13.48,2021-12-17 17:23:17.281250
1114,-14.43,2021-12-17 17:23:17.296875
1115,-14.89,2021-12-17 17:23:17.312500
1116,-14.64,2021-12-17 17:23:17.328125
1117,-13.59,2021-12-17 17:23:17.343750
1118,-11.77,2021-12-17 17:23:17.359375
1119,-9.31,2021-12-17 17:23:17.375000
1120,-6.45,2021-12-17 17:23:17.390625
1121,-3.46,2021-12-17 17:23:17.406250
1122,-0.63,2021-12-17 17:23:17.421875
1123,1.82,2021-12-17 17:23:17.437500
1124,3.79,2021-12-17 17:23:17.453125
1125,5.33,2021-12-17 17:23:17.468750
1126,6.55,2021-12-17 17:23:17.484375
1127,7.57,2021-12-17 17:23:17.500000
1128,8.42,2021-12-17 17:23:17.515625
1129,9.05,2021-12-17 17:23:17.531250
1130,9.39,2021-12-17 17:23:17.546875
1131,9.4,2021-12-17 17:23:17.562500
1132,9.11,2021-12-17 17:23:17.578125
1133,8.64,2021-12-17 17:23:17.593750
1134,8.17,2021-12-17 17:23:17.609375
1135,7.88,2021-12-17 17:23:17.625000
1136,7.9,2021-12-17 17:23:17.640625
1137,8.23,2021-12-17 17:23:17.656250
1138,8.71,2021-12-17 17:23:17.671875
1139,9.07,2021-12-17 17:23:17.687500
1140,9.08,2021-12-17 17:23:17.703125
1141,8.64,2021-12-17 17:23:17.718750
1142,7.86,2021-12-17 17:23:17.734375
1143,7.04,2021-12-17 17:23:17.750000
1144,6.42,2021-12-17 17:23:17.765625
1145,6.16,2021-12-17 17:23:17.781250
1146,6.17,2021-12-17 17:23:17.796875
1147,6.28,2021-12-17 17:23:17.812500
1148,6.23,2021-12-17 17:23:17.828125
1149,5.88,2021-12-17 17:23:17.843750
1150,5.2,2021-12-17 17:23:17.859375
1151,4.24,2021-12-17 17:23:17.875000
1152,3.14,2021-12-17 17:23:17.890625
1153,2.05,2021-12-17 17:23:17.906250
1154,1.12,2021-12-17 17:23:17.921875
1155,0.46,2021-12-17 17:23:17.937500
1156,0.05,2021-12-17 17:23:17.953125
1157,-0.23,2021-12-17 17:23:17.968750
1158,-0.63,2021-12-17 17:23:17.984375
1159,-1.39,2021-12-17 17:23:18.000000
1160,-2.61,2021-12-17 17:23:18.015625
1161,-4.19,2021-12-17 17:23:18.031250
1162,-5.89,2021-12-17 17:23:18.046875
1163,-7.45,2021-12-17 17:23:18.062500
1164,-8.71,2021-12-17 17:23:18.078125
1165,-9.65,2021-12-17 17:23:18.093750
1166,-10.33,2021-12-17 17:23:18.109375
1167,-10.88,2021-12-17 17:23:18.125000
1168,-11.35,2021-12-17 17:23:18.140625
1169,-11.71,2021-12-17 17:23:18.156250
1170,-11.84,2021-12-17 17:23:18.171875
1171,-11.56,2021-12-17 17:23:18.187500
1172,-10.7,2021-12-17 17:23:18.203125
1173,-9.18,2021-12-17 17:23:18.218750
1174,-7.05,2021-12-17 17:23:18.234375
1175,-4.49,2021-12-17 17:23:18.250000
1176,-1.81,2021-12-17 17:23:18.265625
1177,0.7,2021-12-17 17:23:18.281250
1178,2.81,2021-12-17 17:23:18.296875
1179,4.45,2021-12-17 17:23:18.312500
1180,5.63,2021-12-17 17:23:18.328125
1181,6.45,2021-12-17 17:23:18.343750
1182,6.98,2021-12-17 17:23:18.359375
1183,7.24,2021-12-17 17:23:18.375000
1184,7.22,2021-12-17 17:23:18.390625
1185,6.93,2021-12-17 17:23:18.406250
1186,6.47,2021-12-17 17:23:18.421875
1187,5.98,2021-12-17 17:23:18.437500
1188,5.64,2021-12-17 17:23:18.453125
1189,5.52,2021-12-17 17:23:18.468750
1190,5.59,2021-12-17 17:23:18.484375
1191,5.72,2021-12-17 17:23:18.500000
1192,5.72,2021-12-17 17:23:18.515625
1193,5.45,2021-12-17 17:23:18.531250
1194,4.89,2021-12-17 17:23:18.546875
1195,4.17,2021-12-17 17:23:18.562500
1196,3.54,2021-12-17 17:23:18.578125
1197,3.25,2021-12-17 17:23:18.593750
1198,3.41,2021-12-17 17:23:18.609375
1199,3.94,2021-12-17 17:23:18.625000
1200,4.59,2021-12-17 17:23:18.640625
1201,5.05,2021-12-17 17:23:18.656250
1202,5.12,2021-12-17 17:23:18.671875
1203,4.74,2021-12-17 17:23:18.687500
1204,4.05,2021-12-17 17:23:18.703125
1205,3.24,2021-12-17 17:23:18.718750
1206,2.46,2021-12-17 17:23:18.734375
1207,1.8,2021-12-17 17:23:18.750000
1208,1.2,2021-12-17 17:23:18.765625
1209,0.59,2021-12-17 17:23:18.781250
1210,-0.1,2021-12-17 17:23:18.796875
1211,-0.94,2021-12-17 17:23:18.812500
1212,-1.96,2021-12-17 17:23:18.828125
1213,-3.21,2021-12-17 17:23:18.843750
1214,-4.67,2021-12-17 17:23:18.859375
1215,-6.25,2021-12-17 17:23:18.875000
1216,-7.82,2021-12-17 17:23:18.890625
1217,-9.23,2021-12-17 17:23:18.906250
1218,-10.41,2021-12-17 17:23:18.921875
1219,-11.38,2021-12-17 17:23:18.937500
1220,-12.2,2021-12-17 17:23:18.953125
1221,-12.89,2021-12-17 17:23:18.968750
1222,-13.44,2021-12-17 17:23:18.984375
1223,-13.75,2021-12-17 17:23:19.000000
1224,-13.7,2021-12-17 17:23:19.015625
1225,-13.21,2021-12-17 17:23:19.031250
1226,-12.26,2021-12-17 17:23:19.046875
1227,-10.85,2021-12-17 17:23:19.062500
1228,-9.03,2021-12-17 17:23:19.078125
1229,-6.85,2021-12-17 17:23:19.093750
1230,-4.4,2021-12-17 17:23:19.109375
1231,-1.85,2021-12-17 17:23:19.125000
1232,0.57,2021-12-17 17:23:19.140625
1233,2.66,2021-12-17 17:23:19.156250
1234,4.31,2021-12-17 17:23:19.171875
1235,5.54,2021-12-17 17:23:19.187500
1236,6.49,2021-12-17 17:23:19.203125
1237,7.34,2021-12-17 17:23:19.218750
1238,8.15,2021-12-17 17:23:19.234375
1239,8.85,2021-12-17 17:23:19.250000
1240,9.28,2021-12-17 17:23:19.265625
1241,9.28,2021-12-17 17:23:19.281250
1242,8.82,2021-12-17 17:23:19.296875
1243,8.05,2021-12-17 17:23:19.312500
1244,7.25,2021-12-17 17:23:19.328125
1245,6.71,2021-12-17 17:23:19.343750
1246,6.58,2021-12-17 17:23:19.359375
1247,6.83,2021-12-17 17:23:19.375000
1248,7.24,2021-12-17 17:23:19.390625
1249,7.57,2021-12-17 17:23:19.406250
1250,7.61,2021-12-17 17:23:19.421875
1251,7.27,2021-12-17 17:23:19.437500
1252,6.64,2021-12-17 17:23:19.453125
1253,5.87,2021-12-17 17:23:19.468750
1254,5.12,2021-12-17 17:23:19.484375
1255,4.49,2021-12-17 17:23:19.500000
1256,3.93,2021-12-17 17:23:19.515625
1257,3.4,2021-12-17 17:23:19.531250
1258,2.81,2021-12-17 17:23:19.546875
1259,2.13,2021-12-17 17:23:19.562500
1260,1.4,2021-12-17 17:23:19.578125
1261,0.66,2021-12-17 17:23:19.593750
1262,-0.03,2021-12-17 17:23:19.609375
1263,-0.68,2021-12-17 17:23:19.625000
1264,-1.28,2021-12-17 17:23:19.640625
1265,-1.88,2021-12-17 17:23:19.656250
1266,-2.49,2021-12-17 17:23:19.671875
1267,-3.13,2021-12-17 17:23:19.687500
1268,-3.83,2021-12-17 17:23:19.703125
1269,-4.6,2021-12-17 17:23:19.718750
1270,-5.48,2021-12-17 17:23:19.734375
1271,-6.49,2021-12-17 17:23:19.750000
1272,-7.64,2021-12-17 17:23:19.765625
1273,-8.87,2021-12-17 17:23:19.781250
1274,-10.11,2021-12-17 17:23:19.796875
1275,-11.23,2021-12-17 17:23:19.812500
1276,-12.11,2021-12-17 17:23:19.828125
1277,-12.6,2021-12-17 17:23:19.843750
1278,-12.59,2021-12-17 17:23:19.859375
1279,-12.0,2021-12-17 17:23:19.875000
1280,-10.82,2021-12-17 17:23:19.890625
1281,-9.11,2021-12-17 17:23:19.906250
1282,-7.04,2021-12-17 17:23:19.921875
1283,-4.82,2021-12-17 17:23:19.937500
1284,-2.72,2021-12-17 17:23:19.953125
1285,-0.96,2021-12-17 17:23:19.968750
1286,0.32,2021-12-17 17:23:19.984375
1287,1.11,2021-12-17 17:23:20.000000
1288,1.55,2021-12-17 17:23:20.015625
1289,1.81,2021-12-17 17:23:20.031250
1290,2.09,2021-12-17 17:23:20.046875
1291,2.49,2021-12-17 17:23:20.062500
1292,3.02,2021-12-17 17:23:20.078125
1293,3.64,2021-12-17 17:23:20.093750
1294,4.24,2021-12-17 17:23:20.109375
1295,4.77,2021-12-17 17:23:20.125000
1296,5.18,2021-12-17 17:23:20.140625
1297,5.45,2021-12-17 17:23:20.156250
1298,5.58,2021-12-17 17:23:20.171875
1299,5.61,2021-12-17 17:23:20.187500
1300,5.6,2021-12-17 17:23:20.203125
1301,5.68,2021-12-17 17:23:20.218750
1302,5.93,2021-12-17 17:23:20.234375
1303,6.39,2021-12-17 17:23:20.250000
1304,6.98,2021-12-17 17:23:20.265625
1305,7.53,2021-12-17 17:23:20.281250
1306,7.84,2021-12-17 17:23:20.296875
1307,7.75,2021-12-17 17:23:20.312500
1308,7.24,2021-12-17 17:23:20.328125
1309,6.44,2021-12-17 17:23:20.343750
1310,5.55,2021-12-17 17:23:20.359375
1311,4.74,2021-12-17 17:23:20.375000
1312,4.11,2021-12-17 17:23:20.390625
1313,3.63,2021-12-17 17:23:20.406250
1314,3.21,2021-12-17 17:23:20.421875
1315,2.75,2021-12-17 17:23:20.437500
1316,2.21,2021-12-17 17:23:20.453125
1317,1.63,2021-12-17 17:23:20.468750
1318,1.03,2021-12-17 17:23:20.484375
1319,0.43,2021-12-17 17:23:20.500000
1320,-0.15,2021-12-17 17:23:20.515625
1321,-0.74,2021-12-17 17:23:20.531250
1322,-1.34,2021-12-17 17:23:20.546875
1323,-1.93,2021-12-17 17:23:20.562500
1324,-2.56,2021-12-17 17:23:20.578125
1325,-3.26,2021-12-17 17:23:20.593750
1326,-4.15,2021-12-17 17:23:20.609375
1327,-5.3,2021-12-17 17:23:20.625000
1328,-6.65,2021-12-17 17:23:20.640625
1329,-8.06,2021-12-17 17:23:20.656250
1330,-9.24,2021-12-17 17:23:20.671875
1331,-9.9,2021-12-17 17:23:20.687500
1332,-9.82,2021-12-17 17:23:20.703125
1333,-8.95,2021-12-17 17:23:20.718750
1334,-7.39,2021-12-17 17:23:20.734375
1335,-5.39,2021-12-17 17:23:20.750000
1336,-3.24,2021-12-17 17:23:20.765625
1337,-1.22,2021-12-17 17:23:20.781250
1338,0.48,2021-12-17 17:23:20.796875
1339,1.76,2021-12-17 17:23:20.812500
1340,2.62,2021-12-17 17:23:20.828125
1341,3.15,2021-12-17 17:23:20.843750
1342,3.48,2021-12-17 17:23:20.859375
1343,3.72,2021-12-17 17:23:20.875000
1344,3.93,2021-12-17 17:23:20.890625
1345,4.13,2021-12-17 17:23:20.906250
1346,4.24,2021-12-17 17:23:20.921875
1347,4.21,2021-12-17 17:23:20.937500
1348,4.0,2021-12-17 17:23:20.953125
1349,3.67,2021-12-17 17:23:20.968750
1350,3.31,2021-12-17 17:23:20.984375
1351,3.09,2021-12-17 17:23:21.000000
1352,3.1,2021-12-17 17:23:21.015625
1353,3.39,2021-12-17 17:23:21.031250
1354,3.86,2021-12-17 17:23:21.046875
1355,4.36,2021-12-17 17:23:21.062500
1356,4.72,2021-12-17 17:23:21.078125
1357,4.84,2021-12-17 17:23:21.093750
1358,4.73,2021-12-17 17:23:21.109375
1359,4.48,2021-12-17 17:23:21.125000
1360,4.19,2021-12-17 17:23:21.140625
1361,3.92,2021-12-17 17:23:21.156250
1362,3.62,2021-12-17 17:23:21.171875
1363,3.17,2021-12-17 17:23:21.187500
1364,2.48,2021-12-17 17:23:21.203125
1365,1.56,2021-12-17 17:23:21.218750
1366,0.47,2021-12-17 17:23:21.234375
1367,-0.63,2021-12-17 17:23:21.250000
1368,-1.64,2021-12-17 17:23:21.265625
1369,-2.53,2021-12-17 17:23:21.281250
1370,-3.37,2021-12-17 17:23:21.296875
1371,-4.24,2021-12-17 17:23:21.312500
1372,-5.22,2021-12-17 17:23:21.328125
1373,-6.31,2021-12-17 17:23:21.343750
1374,-7.49,2021-12-17 17:23:21.359375
1375,-8.69,2021-12-17 17:23:21.375000
1376,-9.87,2021-12-17 17:23:21.390625
1377,-11.02,2021-12-17 17:23:21.406250
1378,-12.13,2021-12-17 17:23:21.421875
1379,-13.2,2021-12-17 17:23:21.437500
1380,-14.24,2021-12-17 17:23:21.453125
1381,-15.22,2021-12-17 17:23:21.468750
1382,-16.07,2021-12-17 17:23:21.484375
1383,-16.68,2021-12-17 17:23:21.500000
1384,-16.88,2021-12-17 17:23:21.515625
1385,-16.5,2021-12-17 17:23:21.531250
1386,-15.45,2021-12-17 17:23:21.546875
1387,-13.77,2021-12-17 17:23:21.562500
1388,-11.63,2021-12-17 17:23:21.578125
1389,-9.3,2021-12-17 17:23:21.593750
1390,-7.06,2021-12-17 17:23:21.609375
1391,-5.09,2021-12-17 17:23:21.625000
1392,-3.43,2021-12-17 17:23:21.640625
1393,-2.03,2021-12-17 17:23:21.656250
1394,-0.78,2021-12-17 17:23:21.671875
1395,0.42,2021-12-17 17:23:21.687500
1396,1.61,2021-12-17 17:23:21.703125
1397,2.79,2021-12-17 17:23:21.718750
1398,3.91,2021-12-17 17:23:21.734375
1399,4.92,2021-12-17 17:23:21.750000
1400,5.79,2021-12-17 17:23:21.765625
1401,6.5,2021-12-17 17:23:21.781250
1402,7.0,2021-12-17 17:23:21.796875
1403,7.28,2021-12-17 17:23:21.812500
1404,7.32,2021-12-17 17:23:21.828125
1405,7.16,2021-12-17 17:23:21.843750
1406,6.82,2021-12-17 17:23:21.859375
1407,6.38,2021-12-17 17:23:21.875000
1408,5.92,2021-12-17 17:23:21.890625
1409,5.51,2021-12-17 17:23:21.906250
1410,5.17,2021-12-17 17:23:21.921875
1411,4.92,2021-12-17 17:23:21.937500
1412,4.71,2021-12-17 17:23:21.953125
1413,4.49,2021-12-17 17:23:21.968750
1414,4.2,2021-12-17 17:23:21.984375
1415,3.77,2021-12-17 17:23:22.000000
1416,3.13,2021-12-17 17:23:22.015625
1417,2.29,2021-12-17 17:23:22.031250
1418,1.3,2021-12-17 17:23:22.046875
1419,0.28,2021-12-17 17:23:22.062500
1420,-0.63,2021-12-17 17:23:22.078125
1421,-1.34,2021-12-17 17:23:22.093750
1422,-1.85,2021-12-17 17:23:22.109375
1423,-2.27,2021-12-17 17:23:22.125000
1424,-2.72,2021-12-17 17:23:22.140625
1425,-3.28,2021-12-17 17:23:22.156250
1426,-3.96,2021-12-17 17:23:22.171875
1427,-4.68,2021-12-17 17:23:22.187500
1428,-5.38,2021-12-17 17:23:22.203125
1429,-6.05,2021-12-17 17:23:22.218750
1430,-6.76,2021-12-17 17:23:22.234375
1431,-7.66,2021-12-17 17:23:22.250000
1432,-8.83,2021-12-17 17:23:22.265625
1433,-10.23,2021-12-17 17:23:22.281250
1434,-11.73,2021-12-17 17:23:22.296875
1435,-13.07,2021-12-17 17:23:22.312500
1436,-14.04,2021-12-17 17:23:22.328125
1437,-14.49,2021-12-17 17:23:22.343750
1438,-14.41,2021-12-17 17:23:22.359375
1439,-13.88,2021-12-17 17:23:22.375000
1440,-12.97,2021-12-17 17:23:22.390625
1441,-11.75,2021-12-17 17:23:22.406250
1442,-10.24,2021-12-17 17:23:22.421875
1443,-8.44,2021-12-17 17:23:22.437500
1444,-6.38,2021-12-17 17:23:22.453125
1445,-4.16,2021-12-17 17:23:22.468750
1446,-1.93,2021-12-17 17:23:22.484375
1447,0.14,2021-12-17 17:23:22.500000
1448,1.96,2021-12-17 17:23:22.515625
1449,3.52,2021-12-17 17:23:22.531250
1450,4.85,2021-12-17 17:23:22.546875
1451,5.97,2021-12-17 17:23:22.562500
1452,6.87,2021-12-17 17:23:22.578125
1453,7.51,2021-12-17 17:23:22.593750
1454,7.9,2021-12-17 17:23:22.609375
1455,8.06,2021-12-17 17:23:22.625000
1456,8.04,2021-12-17 17:23:22.640625
1457,7.92,2021-12-17 17:23:22.656250
1458,7.72,2021-12-17 17:23:22.671875
1459,7.46,2021-12-17 17:23:22.687500
1460,7.1,2021-12-17 17:23:22.703125
1461,6.68,2021-12-17 17:23:22.718750
1462,6.26,2021-12-17 17:23:22.734375
1463,5.91,2021-12-17 17:23:22.750000
1464,5.68,2021-12-17 17:23:22.765625
1465,5.51,2021-12-17 17:23:22.781250
1466,5.33,2021-12-17 17:23:22.796875
1467,5.05,2021-12-17 17:23:22.812500
1468,4.66,2021-12-17 17:23:22.828125
1469,4.27,2021-12-17 17:23:22.843750
1470,3.98,2021-12-17 17:23:22.859375
1471,3.83,2021-12-17 17:23:22.875000
1472,3.75,2021-12-17 17:23:22.890625
1473,3.6,2021-12-17 17:23:22.906250
1474,3.18,2021-12-17 17:23:22.921875
1475,2.4,2021-12-17 17:23:22.937500
1476,1.26,2021-12-17 17:23:22.953125
1477,-0.14,2021-12-17 17:23:22.968750
1478,-1.68,2021-12-17 17:23:22.984375
1479,-3.27,2021-12-17 17:23:23.000000
1480,-4.88,2021-12-17 17:23:23.015625
1481,-6.49,2021-12-17 17:23:23.031250
1482,-8.02,2021-12-17 17:23:23.046875
1483,-9.39,2021-12-17 17:23:23.062500
1484,-10.51,2021-12-17 17:23:23.078125
1485,-11.38,2021-12-17 17:23:23.093750
1486,-12.12,2021-12-17 17:23:23.109375
1487,-12.92,2021-12-17 17:23:23.125000
1488,-13.91,2021-12-17 17:23:23.140625
1489,-15.12,2021-12-17 17:23:23.156250
1490,-16.41,2021-12-17 17:23:23.171875
1491,-17.52,2021-12-17 17:23:23.187500
1492,-18.19,2021-12-17 17:23:23.203125
1493,-18.2,2021-12-17 17:23:23.218750
1494,-17.5,2021-12-17 17:23:23.234375
1495,-16.16,2021-12-17 17:23:23.250000
1496,-14.31,2021-12-17 17:23:23.265625
1497,-12.11,2021-12-17 17:23:23.281250
1498,-9.68,2021-12-17 17:23:23.296875
1499,-7.07,2021-12-17 17:23:23.312500
1500,-4.32,2021-12-17 17:23:23.328125
1501,-1.47,2021-12-17 17:23:23.343750
1502,1.4,2021-12-17 17:23:23.359375
1503,4.16,2021-12-17 17:23:23.375000
1504,6.69,2021-12-17 17:23:23.390625
1505,8.86,2021-12-17 17:23:23.406250
1506,10.65,2021-12-17 17:23:23.421875
1507,12.09,2021-12-17 17:23:23.437500
1508,13.27,2021-12-17 17:23:23.453125
1509,14.24,2021-12-17 17:23:23.468750
1510,15.02,2021-12-17 17:23:23.484375
1511,15.56,2021-12-17 17:23:23.500000
1512,15.81,2021-12-17 17:23:23.515625
1513,15.76,2021-12-17 17:23:23.531250
1514,15.48,2021-12-17 17:23:23.546875
1515,15.1,2021-12-17 17:23:23.562500
1516,14.76,2021-12-17 17:23:23.578125
1517,14.55,2021-12-17 17:23:23.593750
1518,14.47,2021-12-17 17:23:23.609375
1519,14.49,2021-12-17 17:23:23.625000
1520,14.47,2021-12-17 17:23:23.640625
1521,14.3,2021-12-17 17:23:23.656250
1522,13.86,2021-12-17 17:23:23.671875
1523,13.09,2021-12-17 17:23:23.687500
1524,12.02,2021-12-17 17:23:23.703125
1525,10.78,2021-12-17 17:23:23.718750
1526,9.55,2021-12-17 17:23:23.734375
1527,8.54,2021-12-17 17:23:23.750000
1528,7.84,2021-12-17 17:23:23.765625
1529,7.42,2021-12-17 17:23:23.781250
1530,7.12,2021-12-17 17:23:23.796875
1531,6.77,2021-12-17 17:23:23.812500
1532,6.25,2021-12-17 17:23:23.828125
1533,5.56,2021-12-17 17:23:23.843750
1534,4.82,2021-12-17 17:23:23.859375
1535,4.15,2021-12-17 17:23:23.875000
1536,3.59,2021-12-17 17:23:23.890625
1537,3.05,2021-12-17 17:23:23.906250
1538,2.34,2021-12-17 17:23:23.921875
1539,1.3,2021-12-17 17:23:23.937500
1540,-0.11,2021-12-17 17:23:23.953125
1541,-1.79,2021-12-17 17:23:23.968750
1542,-3.53,2021-12-17 17:23:23.984375
1543,-5.18,2021-12-17 17:23:24.000000
1544,-6.65,2021-12-17 17:23:24.015625
1545,-7.98,2021-12-17 17:23:24.031250
1546,-9.19,2021-12-17 17:23:24.046875
1547,-10.25,2021-12-17 17:23:24.062500
1548,-11.03,2021-12-17 17:23:24.078125
1549,-11.38,2021-12-17 17:23:24.093750
1550,-11.23,2021-12-17 17:23:24.109375
1551,-10.63,2021-12-17 17:23:24.125000
1552,-9.76,2021-12-17 17:23:24.140625
1553,-8.78,2021-12-17 17:23:24.156250
1554,-7.8,2021-12-17 17:23:24.171875
1555,-6.8,2021-12-17 17:23:24.187500
1556,-5.65,2021-12-17 17:23:24.203125
1557,-4.22,2021-12-17 17:23:24.218750
1558,-2.47,2021-12-17 17:23:24.234375
1559,-0.47,2021-12-17 17:23:24.250000
1560,1.62,2021-12-17 17:23:24.265625
1561,3.61,2021-12-17 17:23:24.281250
1562,5.34,2021-12-17 17:23:24.296875
1563,6.76,2021-12-17 17:23:24.312500
1564,7.87,2021-12-17 17:23:24.328125
1565,8.72,2021-12-17 17:23:24.343750
1566,9.32,2021-12-17 17:23:24.359375
1567,9.67,2021-12-17 17:23:24.375000
1568,9.74,2021-12-17 17:23:24.390625
1569,9.55,2021-12-17 17:23:24.406250
1570,9.17,2021-12-17 17:23:24.421875
1571,8.74,2021-12-17 17:23:24.437500
1572,8.35,2021-12-17 17:23:24.453125
1573,8.04,2021-12-17 17:23:24.468750
1574,7.81,2021-12-17 17:23:24.484375
1575,7.58,2021-12-17 17:23:24.500000
1576,7.32,2021-12-17 17:23:24.515625
1577,7.03,2021-12-17 17:23:24.531250
1578,6.76,2021-12-17 17:23:24.546875
1579,6.53,2021-12-17 17:23:24.562500
1580,6.33,2021-12-17 17:23:24.578125
1581,6.12,2021-12-17 17:23:24.593750
1582,5.86,2021-12-17 17:23:24.609375
1583,5.56,2021-12-17 17:23:24.625000
1584,5.21,2021-12-17 17:23:24.640625
1585,4.88,2021-12-17 17:23:24.656250
1586,4.58,2021-12-17 17:23:24.671875
1587,4.28,2021-12-17 17:23:24.687500
1588,3.96,2021-12-17 17:23:24.703125
1589,3.58,2021-12-17 17:23:24.718750
1590,3.1,2021-12-17 17:23:24.734375
1591,2.53,2021-12-17 17:23:24.750000
1592,1.86,2021-12-17 17:23:24.765625
1593,1.1,2021-12-17 17:23:24.781250
1594,0.27,2021-12-17 17:23:24.796875
1595,-0.57,2021-12-17 17:23:24.812500
1596,-1.38,2021-12-17 17:23:24.828125
1597,-2.08,2021-12-17 17:23:24.843750
1598,-2.66,2021-12-17 17:23:24.859375
1599,-3.17,2021-12-17 17:23:24.875000
1600,-3.67,2021-12-17 17:23:24.890625
1601,-4.27,2021-12-17 17:23:24.906250
1602,-5.05,2021-12-17 17:23:24.921875
1603,-6.0,2021-12-17 17:23:24.937500
1604,-7.08,2021-12-17 17:23:24.953125
1605,-8.15,2021-12-17 17:23:24.968750
1606,-9.03,2021-12-17 17:23:24.984375
1607,-9.58,2021-12-17 17:23:25.000000
1608,-9.66,2021-12-17 17:23:25.015625
1609,-9.17,2021-12-17 17:23:25.031250
1610,-8.09,2021-12-17 17:23:25.046875
1611,-6.47,2021-12-17 17:23:25.062500
1612,-4.42,2021-12-17 17:23:25.078125
1613,-2.14,2021-12-17 17:23:25.093750
1614,0.1,2021-12-17 17:23:25.109375
1615,2.09,2021-12-17 17:23:25.125000
1616,3.64,2021-12-17 17:23:25.140625
1617,4.76,2021-12-17 17:23:25.156250
1618,5.53,2021-12-17 17:23:25.171875
1619,6.1,2021-12-17 17:23:25.187500
1620,6.64,2021-12-17 17:23:25.203125
1621,7.22,2021-12-17 17:23:25.218750
1622,7.82,2021-12-17 17:23:25.234375
1623,8.36,2021-12-17 17:23:25.250000
1624,8.72,2021-12-17 17:23:25.265625
1625,8.84,2021-12-17 17:23:25.281250
1626,8.69,2021-12-17 17:23:25.296875
1627,8.33,2021-12-17 17:23:25.312500
1628,7.87,2021-12-17 17:23:25.328125
1629,7.46,2021-12-17 17:23:25.343750
1630,7.17,2021-12-17 17:23:25.359375
1631,7.05,2021-12-17 17:23:25.375000
1632,7.02,2021-12-17 17:23:25.390625
1633,6.95,2021-12-17 17:23:25.406250
1634,6.72,2021-12-17 17:23:25.421875
1635,6.26,2021-12-17 17:23:25.437500
1636,5.6,2021-12-17 17:23:25.453125
1637,4.86,2021-12-17 17:23:25.468750
1638,4.16,2021-12-17 17:23:25.484375
1639,3.53,2021-12-17 17:23:25.500000
1640,2.96,2021-12-17 17:23:25.515625
1641,2.33,2021-12-17 17:23:25.531250
1642,1.5,2021-12-17 17:23:25.546875
1643,0.41,2021-12-17 17:23:25.562500
1644,-0.9,2021-12-17 17:23:25.578125
1645,-2.28,2021-12-17 17:23:25.593750
1646,-3.5,2021-12-17 17:23:25.609375
1647,-4.34,2021-12-17 17:23:25.625000
1648,-4.67,2021-12-17 17:23:25.640625
1649,-4.51,2021-12-17 17:23:25.656250
1650,-4.01,2021-12-17 17:23:25.671875
1651,-3.45,2021-12-17 17:23:25.687500
1652,-3.1,2021-12-17 17:23:25.703125
1653,-3.12,2021-12-17 17:23:25.718750
1654,-3.59,2021-12-17 17:23:25.734375
1655,-4.4,2021-12-17 17:23:25.750000
1656,-5.41,2021-12-17 17:23:25.765625
1657,-6.43,2021-12-17 17:23:25.781250
1658,-7.33,2021-12-17 17:23:25.796875
1659,-8.07,2021-12-17 17:23:25.812500
1660,-8.65,2021-12-17 17:23:25.828125
1661,-9.12,2021-12-17 17:23:25.843750
1662,-9.52,2021-12-17 17:23:25.859375
1663,-9.85,2021-12-17 17:23:25.875000
1664,-10.07,2021-12-17 17:23:25.890625
1665,-10.1,2021-12-17 17:23:25.906250
1666,-9.83,2021-12-17 17:23:25.921875
1667,-9.22,2021-12-17 17:23:25.937500
1668,-8.31,2021-12-17 17:23:25.953125
1669,-7.14,2021-12-17 17:23:25.968750
1670,-5.81,2021-12-17 17:23:25.984375
1671,-4.34,2021-12-17 17:23:26.000000
1672,-2.74,2021-12-17 17:23:26.015625
1673,-0.99,2021-12-17 17:23:26.031250
1674,0.93,2021-12-17 17:23:26.046875
1675,2.93,2021-12-17 17:23:26.062500
1676,4.89,2021-12-17 17:23:26.078125
1677,6.65,2021-12-17 17:23:26.093750
1678,8.07,2021-12-17 17:23:26.109375
1679,9.13,2021-12-17 17:23:26.125000
1680,9.84,2021-12-17 17:23:26.140625
1681,10.27,2021-12-17 17:23:26.156250
1682,10.5,2021-12-17 17:23:26.171875
1683,10.61,2021-12-17 17:23:26.187500
1684,10.68,2021-12-17 17:23:26.203125
1685,10.77,2021-12-17 17:23:26.218750
1686,10.88,2021-12-17 17:23:26.234375
1687,11.02,2021-12-17 17:23:26.250000
1688,11.11,2021-12-17 17:23:26.265625
1689,11.04,2021-12-17 17:23:26.281250
1690,10.76,2021-12-17 17:23:26.296875
1691,10.24,2021-12-17 17:23:26.312500
1692,9.57,2021-12-17 17:23:26.328125
1693,8.82,2021-12-17 17:23:26.343750
1694,8.1,2021-12-17 17:23:26.359375
1695,7.45,2021-12-17 17:23:26.375000
1696,6.89,2021-12-17 17:23:26.390625
1697,6.41,2021-12-17 17:23:26.406250
1698,5.95,2021-12-17 17:23:26.421875
1699,5.44,2021-12-17 17:23:26.437500
1700,4.78,2021-12-17 17:23:26.453125
1701,3.9,2021-12-17 17:23:26.468750
1702,2.83,2021-12-17 17:23:26.484375
1703,1.65,2021-12-17 17:23:26.500000
1704,0.55,2021-12-17 17:23:26.515625
1705,-0.34,2021-12-17 17:23:26.531250
1706,-0.95,2021-12-17 17:23:26.546875
1707,-1.34,2021-12-17 17:23:26.562500
1708,-1.6,2021-12-17 17:23:26.578125
1709,-1.87,2021-12-17 17:23:26.593750
1710,-2.25,2021-12-17 17:23:26.609375
1711,-2.8,2021-12-17 17:23:26.625000
1712,-3.52,2021-12-17 17:23:26.640625
1713,-4.43,2021-12-17 17:23:26.656250
1714,-5.51,2021-12-17 17:23:26.671875
1715,-6.73,2021-12-17 17:23:26.687500
1716,-7.99,2021-12-17 17:23:26.703125
1717,-9.17,2021-12-17 17:23:26.718750
1718,-10.11,2021-12-17 17:23:26.734375
1719,-10.69,2021-12-17 17:23:26.750000
1720,-10.81,2021-12-17 17:23:26.765625
1721,-10.46,2021-12-17 17:23:26.781250
1722,-9.69,2021-12-17 17:23:26.796875
1723,-8.59,2021-12-17 17:23:26.812500
1724,-7.32,2021-12-17 17:23:26.828125
1725,-6.01,2021-12-17 17:23:26.843750
1726,-4.77,2021-12-17 17:23:26.859375
1727,-3.67,2021-12-17 17:23:26.875000
1728,-2.7,2021-12-17 17:23:26.890625
1729,-1.83,2021-12-17 17:23:26.906250
1730,-1.02,2021-12-17 17:23:26.921875
1731,-0.25,2021-12-17 17:23:26.937500
1732,0.5,2021-12-17 17:23:26.953125
1733,1.25,2021-12-17 17:23:26.968750
1734,1.98,2021-12-17 17:23:26.984375
1735,2.63,2021-12-17 17:23:27.000000
1736,3.13,2021-12-17 17:23:27.015625
1737,3.42,2021-12-17 17:23:27.031250
1738,3.5,2021-12-17 17:23:27.046875
1739,3.46,2021-12-17 17:23:27.062500
1740,3.41,2021-12-17 17:23:27.078125
1741,3.47,2021-12-17 17:23:27.093750
1742,3.7,2021-12-17 17:23:27.109375
1743,4.11,2021-12-17 17:23:27.125000
1744,4.69,2021-12-17 17:23:27.140625
1745,5.46,2021-12-17 17:23:27.156250
1746,6.47,2021-12-17 17:23:27.171875
1747,7.73,2021-12-17 17:23:27.187500
1748,9.19,2021-12-17 17:23:27.203125
1749,10.69,2021-12-17 17:23:27.218750
1750,12.01,2021-12-17 17:23:27.234375
1751,12.97,2021-12-17 17:23:27.250000
1752,13.51,2021-12-17 17:23:27.265625
1753,13.7,2021-12-17 17:23:27.281250
1754,13.66,2021-12-17 17:23:27.296875
1755,13.49,2021-12-17 17:23:27.312500
1756,13.26,2021-12-17 17:23:27.328125
1757,12.9,2021-12-17 17:23:27.343750
1758,12.35,2021-12-17 17:23:27.359375
1759,11.56,2021-12-17 17:23:27.375000
1760,10.54,2021-12-17 17:23:27.390625
1761,9.3,2021-12-17 17:23:27.406250
1762,7.95,2021-12-17 17:23:27.421875
1763,6.61,2021-12-17 17:23:27.437500
1764,5.54,2021-12-17 17:23:27.453125
1765,5.11,2021-12-17 17:23:27.468750
1766,5.67,2021-12-17 17:23:27.484375
1767,7.44,2021-12-17 17:23:27.500000
1768,10.27,2021-12-17 17:23:27.515625
1769,13.68,2021-12-17 17:23:27.531250
1770,16.92,2021-12-17 17:23:27.546875
1771,19.29,2021-12-17 17:23:27.562500
1772,20.4,2021-12-17 17:23:27.578125
1773,20.3,2021-12-17 17:23:27.593750
1774,19.36,2021-12-17 17:23:27.609375
1775,18.04,2021-12-17 17:23:27.625000
1776,16.64,2021-12-17 17:23:27.640625
1777,15.17,2021-12-17 17:23:27.656250
1778,13.51,2021-12-17 17:23:27.671875
1779,11.49,2021-12-17 17:23:27.687500
1780,9.15,2021-12-17 17:23:27.703125
1781,6.69,2021-12-17 17:23:27.718750
1782,4.38,2021-12-17 17:23:27.734375
1783,2.42,2021-12-17 17:23:27.750000
1784,0.82,2021-12-17 17:23:27.765625
1785,-0.5,2021-12-17 17:23:27.781250
1786,-1.76,2021-12-17 17:23:27.796875
1787,-3.11,2021-12-17 17:23:27.812500
1788,-4.65,2021-12-17 17:23:27.828125
1789,-6.36,2021-12-17 17:23:27.843750
1790,-8.13,2021-12-17 17:23:27.859375
1791,-9.86,2021-12-17 17:23:27.875000
1792,-11.43,2021-12-17 17:23:27.890625
1793,-12.78,2021-12-17 17:23:27.906250
1794,-13.92,2021-12-17 17:23:27.921875
1795,-14.88,2021-12-17 17:23:27.937500
1796,-15.78,2021-12-17 17:23:27.953125
1797,-16.68,2021-12-17 17:23:27.968750
1798,-17.6,2021-12-17 17:23:27.984375
1799,-18.54,2021-12-17 17:23:28.000000
1800,-19.47,2021-12-17 17:23:28.015625
1801,-20.43,2021-12-17 17:23:28.031250
1802,-21.47,2021-12-17 17:23:28.046875
1803,-22.65,2021-12-17 17:23:28.062500
1804,-23.95,2021-12-17 17:23:28.078125
1805,-25.27,2021-12-17 17:23:28.093750
1806,-26.46,2021-12-17 17:23:28.109375
1807,-27.36,2021-12-17 17:23:28.125000
1808,-27.9,2021-12-17 17:23:28.140625
1809,-28.13,2021-12-17 17:23:28.156250
1810,-28.18,2021-12-17 17:23:28.171875
1811,-28.17,2021-12-17 17:23:28.187500
1812,-28.16,2021-12-17 17:23:28.203125
1813,-28.08,2021-12-17 17:23:28.218750
1814,-27.76,2021-12-17 17:23:28.234375
1815,-27.06,2021-12-17 17:23:28.250000
1816,-25.88,2021-12-17 17:23:28.265625
1817,-24.23,2021-12-17 17:23:28.281250
1818,-22.2,2021-12-17 17:23:28.296875
1819,-19.94,2021-12-17 17:23:28.312500
1820,-17.61,2021-12-17 17:23:28.328125
1821,-15.39,2021-12-17 17:23:28.343750
1822,-13.44,2021-12-17 17:23:28.359375
1823,-11.89,2021-12-17 17:23:28.375000
1824,-10.78,2021-12-17 17:23:28.390625
1825,-10.06,2021-12-17 17:23:28.406250
1826,-9.56,2021-12-17 17:23:28.421875
1827,-9.06,2021-12-17 17:23:28.437500
1828,-8.42,2021-12-17 17:23:28.453125
1829,-7.52,2021-12-17 17:23:28.468750
1830,-6.36,2021-12-17 17:23:28.484375
1831,-5.03,2021-12-17 17:23:28.500000
1832,-3.64,2021-12-17 17:23:28.515625
1833,-2.29,2021-12-17 17:23:28.531250
1834,-1.05,2021-12-17 17:23:28.546875
1835,0.07,2021-12-17 17:23:28.562500
1836,1.07,2021-12-17 17:23:28.578125
1837,1.98,2021-12-17 17:23:28.593750
1838,2.85,2021-12-17 17:23:28.609375
1839,3.68,2021-12-17 17:23:28.625000
1840,4.47,2021-12-17 17:23:28.640625
1841,5.17,2021-12-17 17:23:28.656250
1842,5.71,2021-12-17 17:23:28.671875
1843,6.08,2021-12-17 17:23:28.687500
1844,6.31,2021-12-17 17:23:28.703125
1845,6.48,2021-12-17 17:23:28.718750
1846,6.64,2021-12-17 17:23:28.734375
1847,6.83,2021-12-17 17:23:28.750000
1848,7.02,2021-12-17 17:23:28.765625
1849,7.16,2021-12-17 17:23:28.781250
1850,7.22,2021-12-17 17:23:28.796875
1851,7.2,2021-12-17 17:23:28.812500
1852,7.15,2021-12-17 17:23:28.828125
1853,7.12,2021-12-17 17:23:28.843750
1854,7.13,2021-12-17 17:23:28.859375
1855,7.1,2021-12-17 17:23:28.875000
1856,6.92,2021-12-17 17:23:28.890625
1857,6.47,2021-12-17 17:23:28.906250
1858,5.72,2021-12-17 17:23:28.921875
1859,4.79,2021-12-17 17:23:28.937500
1860,3.88,2021-12-17 17:23:28.953125
1861,3.2,2021-12-17 17:23:28.968750
1862,2.86,2021-12-17 17:23:28.984375
1863,2.83,2021-12-17 17:23:29.000000
1864,2.94,2021-12-17 17:23:29.015625
1865,2.98,2021-12-17 17:23:29.031250
1866,2.79,2021-12-17 17:23:29.046875
1867,2.33,2021-12-17 17:23:29.062500
1868,1.63,2021-12-17 17:23:29.078125
1869,0.76,2021-12-17 17:23:29.093750
1870,-0.24,2021-12-17 17:23:29.109375
1871,-1.33,2021-12-17 17:23:29.125000
1872,-2.45,2021-12-17 17:23:29.140625
1873,-3.49,2021-12-17 17:23:29.156250
1874,-4.35,2021-12-17 17:23:29.171875
1875,-5.02,2021-12-17 17:23:29.187500
1876,-5.53,2021-12-17 17:23:29.203125
1877,-5.99,2021-12-17 17:23:29.218750
1878,-6.53,2021-12-17 17:23:29.234375
1879,-7.19,2021-12-17 17:23:29.250000
1880,-7.95,2021-12-17 17:23:29.265625
1881,-8.71,2021-12-17 17:23:29.281250
1882,-9.36,2021-12-17 17:23:29.296875
1883,-9.84,2021-12-17 17:23:29.312500
1884,-10.07,2021-12-17 17:23:29.328125
1885,-10.01,2021-12-17 17:23:29.343750
1886,-9.59,2021-12-17 17:23:29.359375
1887,-8.75,2021-12-17 17:23:29.375000
1888,-7.46,2021-12-17 17:23:29.390625
1889,-5.83,2021-12-17 17:23:29.406250
1890,-4.03,2021-12-17 17:23:29.421875
1891,-2.29,2021-12-17 17:23:29.437500
1892,-0.81,2021-12-17 17:23:29.453125
1893,0.36,2021-12-17 17:23:29.468750
1894,1.25,2021-12-17 17:23:29.484375
1895,2.03,2021-12-17 17:23:29.500000
1896,2.84,2021-12-17 17:23:29.515625
1897,3.74,2021-12-17 17:23:29.531250
1898,4.66,2021-12-17 17:23:29.546875
1899,5.48,2021-12-17 17:23:29.562500
1900,6.03,2021-12-17 17:23:29.578125
1901,6.22,2021-12-17 17:23:29.593750
1902,6.1,2021-12-17 17:23:29.609375
1903,5.79,2021-12-17 17:23:29.625000
1904,5.44,2021-12-17 17:23:29.640625
1905,5.18,2021-12-17 17:23:29.656250
1906,5.09,2021-12-17 17:23:29.671875
1907,5.16,2021-12-17 17:23:29.687500
1908,5.36,2021-12-17 17:23:29.703125
1909,5.58,2021-12-17 17:23:29.718750
1910,5.78,2021-12-17 17:23:29.734375
1911,5.87,2021-12-17 17:23:29.750000
1912,5.84,2021-12-17 17:23:29.765625
1913,5.7,2021-12-17 17:23:29.781250
1914,5.49,2021-12-17 17:23:29.796875
1915,5.23,2021-12-17 17:23:29.812500
1916,4.94,2021-12-17 17:23:29.828125
1917,4.58,2021-12-17 17:23:29.843750
1918,4.1,2021-12-17 17:23:29.859375
1919,3.42,2021-12-17 17:23:29.875000
1920,2.54,2021-12-17 17:23:29.890625
1921,1.51,2021-12-17 17:23:29.906250
1922,0.47,2021-12-17 17:23:29.921875
1923,-0.45,2021-12-17 17:23:29.937500
1924,-1.16,2021-12-17 17:23:29.953125
1925,-1.66,2021-12-17 17:23:29.968750
1926,-2.04,2021-12-17 17:23:29.984375
1927,-2.39,2021-12-17 17:23:30.000000
1928,-2.79,2021-12-17 17:23:30.015625
1929,-3.23,2021-12-17 17:23:30.031250
1930,-3.65,2021-12-17 17:23:30.046875
1931,-4.03,2021-12-17 17:23:30.062500
1932,-4.39,2021-12-17 17:23:30.078125
1933,-4.84,2021-12-17 17:23:30.093750
1934,-5.46,2021-12-17 17:23:30.109375
1935,-6.32,2021-12-17 17:23:30.125000
1936,-7.35,2021-12-17 17:23:30.140625
1937,-8.38,2021-12-17 17:23:30.156250
1938,-9.2,2021-12-17 17:23:30.171875
1939,-9.64,2021-12-17 17:23:30.187500
1940,-9.59,2021-12-17 17:23:30.203125
1941,-9.06,2021-12-17 17:23:30.218750
1942,-8.09,2021-12-17 17:23:30.234375
1943,-6.78,2021-12-17 17:23:30.250000
1944,-5.26,2021-12-17 17:23:30.265625
1945,-3.68,2021-12-17 17:23:30.281250
1946,-2.21,2021-12-17 17:23:30.296875
1947,-0.98,2021-12-17 17:23:30.312500
1948,-0.03,2021-12-17 17:23:30.328125
1949,0.7,2021-12-17 17:23:30.343750
1950,1.35,2021-12-17 17:23:30.359375
1951,2.08,2021-12-17 17:23:30.375000
1952,2.95,2021-12-17 17:23:30.390625
1953,3.89,2021-12-17 17:23:30.406250
1954,4.77,2021-12-17 17:23:30.421875
1955,5.41,2021-12-17 17:23:30.437500
1956,5.69,2021-12-17 17:23:30.453125
1957,5.64,2021-12-17 17:23:30.468750
1958,5.38,2021-12-17 17:23:30.484375
1959,5.05,2021-12-17 17:23:30.500000
1960,4.81,2021-12-17 17:23:30.515625
1961,4.7,2021-12-17 17:23:30.531250
1962,4.72,2021-12-17 17:23:30.546875
1963,4.81,2021-12-17 17:23:30.562500
1964,4.91,2021-12-17 17:23:30.578125
1965,4.99,2021-12-17 17:23:30.593750
1966,5.04,2021-12-17 17:23:30.609375
1967,5.05,2021-12-17 17:23:30.625000
1968,5.01,2021-12-17 17:23:30.640625
1969,4.86,2021-12-17 17:23:30.656250
1970,4.54,2021-12-17 17:23:30.671875
1971,4.05,2021-12-17 17:23:30.687500
1972,3.47,2021-12-17 17:23:30.703125
1973,2.87,2021-12-17 17:23:30.718750
1974,2.35,2021-12-17 17:23:30.734375
1975,1.91,2021-12-17 17:23:30.750000
1976,1.54,2021-12-17 17:23:30.765625
1977,1.19,2021-12-17 17:23:30.781250
1978,0.84,2021-12-17 17:23:30.796875
1979,0.47,2021-12-17 17:23:30.812500
1980,0.04,2021-12-17 17:23:30.828125
1981,-0.51,2021-12-17 17:23:30.843750
1982,-1.26,2021-12-17 17:23:30.859375
1983,-2.25,2021-12-17 17:23:30.875000
1984,-3.37,2021-12-17 17:23:30.890625
1985,-4.49,2021-12-17 17:23:30.906250
1986,-5.44,2021-12-17 17:23:30.921875
1987,-6.17,2021-12-17 17:23:30.937500
1988,-6.79,2021-12-17 17:23:30.953125
1989,-7.49,2021-12-17 17:23:30.968750
1990,-8.38,2021-12-17 17:23:30.984375
1991,-9.41,2021-12-17 17:23:31.000000
1992,-10.37,2021-12-17 17:23:31.015625
1993,-11.01,2021-12-17 17:23:31.031250
1994,-11.16,2021-12-17 17:23:31.046875
1995,-10.78,2021-12-17 17:23:31.062500
1996,-9.91,2021-12-17 17:23:31.078125
1997,-8.6,2021-12-17 17:23:31.093750
1998,-6.91,2021-12-17 17:23:31.109375
1999,-4.89,2021-12-17 17:23:31.125000
2000,-2.65,2021-12-17 17:23:31.140625
2001,-0.41,2021-12-17 17:23:31.156250
2002,1.54,2021-12-17 17:23:31.171875
2003,2.99,2021-12-17 17:23:31.187500
2004,3.87,2021-12-17 17:23:31.203125
2005,4.29,2021-12-17 17:23:31.218750
2006,4.48,2021-12-17 17:23:31.234375
2007,4.61,2021-12-17 17:23:31.250000
2008,4.78,2021-12-17 17:23:31.265625
2009,4.97,2021-12-17 17:23:31.281250
2010,5.08,2021-12-17 17:23:31.296875
2011,5.04,2021-12-17 17:23:31.312500
2012,4.8,2021-12-17 17:23:31.328125
2013,4.44,2021-12-17 17:23:31.343750
2014,4.04,2021-12-17 17:23:31.359375
2015,3.74,2021-12-17 17:23:31.375000
2016,3.6,2021-12-17 17:23:31.390625
2017,3.65,2021-12-17 17:23:31.406250
2018,3.86,2021-12-17 17:23:31.421875
2019,4.14,2021-12-17 17:23:31.437500
2020,4.39,2021-12-17 17:23:31.453125
2021,4.56,2021-12-17 17:23:31.468750
2022,4.6,2021-12-17 17:23:31.484375
2023,4.56,2021-12-17 17:23:31.500000
2024,4.49,2021-12-17 17:23:31.515625
2025,4.45,2021-12-17 17:23:31.531250
2026,4.45,2021-12-17 17:23:31.546875
2027,4.46,2021-12-17 17:23:31.562500
2028,4.39,2021-12-17 17:23:31.578125
2029,4.16,2021-12-17 17:23:31.593750
2030,3.7,2021-12-17 17:23:31.609375
2031,3.02,2021-12-17 17:23:31.625000
2032,2.17,2021-12-17 17:23:31.640625
2033,1.28,2021-12-17 17:23:31.656250
2034,0.47,2021-12-17 17:23:31.671875
2035,-0.22,2021-12-17 17:23:31.687500
2036,-0.82,2021-12-17 17:23:31.703125
2037,-1.44,2021-12-17 17:23:31.718750
2038,-2.2,2021-12-17 17:23:31.734375
2039,-3.15,2021-12-17 17:23:31.750000
2040,-4.24,2021-12-17 17:23:31.765625
2041,-5.35,2021-12-17 17:23:31.781250
2042,-6.37,2021-12-17 17:23:31.796875
2043,-7.23,2021-12-17 17:23:31.812500
2044,-7.94,2021-12-17 17:23:31.828125
2045,-8.58,2021-12-17 17:23:31.843750
2046,-9.21,2021-12-17 17:23:31.859375
2047,-9.78,2021-12-17 17:23:31.875000
2048,-10.19,2021-12-17 17:23:31.890625
2049,-10.28,2021-12-17 17:23:31.906250
2050,-9.92,2021-12-17 17:23:31.921875
2051,-9.08,2021-12-17 17:23:31.937500
2052,-7.82,2021-12-17 17:23:31.953125
2053,-6.25,2021-12-17 17:23:31.968750
2054,-4.52,2021-12-17 17:23:31.984375
2055,-2.76,2021-12-17 17:23:32.000000
2056,-1.07,2021-12-17 17:23:32.015625
2057,0.4,2021-12-17 17:23:32.031250
2058,1.56,2021-12-17 17:23:32.046875
2059,2.38,2021-12-17 17:23:32.062500
2060,2.94,2021-12-17 17:23:32.078125
2061,3.39,2021-12-17 17:23:32.093750
2062,3.85,2021-12-17 17:23:32.109375
2063,4.36,2021-12-17 17:23:32.125000
2064,4.8,2021-12-17 17:23:32.140625
2065,5.08,2021-12-17 17:23:32.156250
2066,5.14,2021-12-17 17:23:32.171875
2067,5.0,2021-12-17 17:23:32.187500
2068,4.78,2021-12-17 17:23:32.203125
2069,4.64,2021-12-17 17:23:32.218750
2070,4.69,2021-12-17 17:23:32.234375
2071,4.94,2021-12-17 17:23:32.250000
2072,5.34,2021-12-17 17:23:32.265625
2073,5.76,2021-12-17 17:23:32.281250
2074,6.08,2021-12-17 17:23:32.296875
2075,6.23,2021-12-17 17:23:32.312500
2076,6.17,2021-12-17 17:23:32.328125
2077,5.96,2021-12-17 17:23:32.343750
2078,5.68,2021-12-17 17:23:32.359375
2079,5.4,2021-12-17 17:23:32.375000
2080,5.16,2021-12-17 17:23:32.390625
2081,4.99,2021-12-17 17:23:32.406250
2082,4.85,2021-12-17 17:23:32.421875
2083,4.77,2021-12-17 17:23:32.437500
2084,4.76,2021-12-17 17:23:32.453125
2085,4.84,2021-12-17 17:23:32.468750
2086,4.95,2021-12-17 17:23:32.484375
2087,4.9,2021-12-17 17:23:32.500000
2088,4.54,2021-12-17 17:23:32.515625
2089,3.75,2021-12-17 17:23:32.531250
2090,2.61,2021-12-17 17:23:32.546875
2091,1.33,2021-12-17 17:23:32.562500
2092,0.14,2021-12-17 17:23:32.578125
2093,-0.79,2021-12-17 17:23:32.593750
2094,-1.48,2021-12-17 17:23:32.609375
2095,-2.08,2021-12-17 17:23:32.625000
2096,-2.79,2021-12-17 17:23:32.640625
2097,-3.68,2021-12-17 17:23:32.656250
2098,-4.75,2021-12-17 17:23:32.671875
2099,-5.87,2021-12-17 17:23:32.687500
2100,-6.88,2021-12-17 17:23:32.703125
2101,-7.67,2021-12-17 17:23:32.718750
2102,-8.15,2021-12-17 17:23:32.734375
2103,-8.29,2021-12-17 17:23:32.750000
2104,-8.11,2021-12-17 17:23:32.765625
2105,-7.72,2021-12-17 17:23:32.781250
2106,-7.23,2021-12-17 17:23:32.796875
2107,-6.79,2021-12-17 17:23:32.812500
2108,-6.4,2021-12-17 17:23:32.828125
2109,-5.96,2021-12-17 17:23:32.843750
2110,-5.33,2021-12-17 17:23:32.859375
2111,-4.44,2021-12-17 17:23:32.875000
2112,-3.45,2021-12-17 17:23:32.890625
2113,-2.71,2021-12-17 17:23:32.906250
2114,-2.61,2021-12-17 17:23:32.921875
2115,-3.29,2021-12-17 17:23:32.937500
2116,-4.59,2021-12-17 17:23:32.953125
2117,-6.08,2021-12-17 17:23:32.968750
2118,-7.25,2021-12-17 17:23:32.984375
2119,-7.8,2021-12-17 17:23:33.000000
2120,-7.65,2021-12-17 17:23:33.015625
2121,-6.94,2021-12-17 17:23:33.031250
2122,-5.89,2021-12-17 17:23:33.046875
2123,-4.7,2021-12-17 17:23:33.062500
2124,-3.49,2021-12-17 17:23:33.078125
2125,-2.34,2021-12-17 17:23:33.093750
2126,-1.31,2021-12-17 17:23:33.109375
2127,-0.39,2021-12-17 17:23:33.125000
2128,0.45,2021-12-17 17:23:33.140625
2129,1.33,2021-12-17 17:23:33.156250
2130,2.33,2021-12-17 17:23:33.171875
2131,3.41,2021-12-17 17:23:33.187500
2132,4.37,2021-12-17 17:23:33.203125
2133,4.83,2021-12-17 17:23:33.218750
2134,4.49,2021-12-17 17:23:33.234375
2135,3.24,2021-12-17 17:23:33.250000
2136,1.32,2021-12-17 17:23:33.265625
2137,-0.78,2021-12-17 17:23:33.281250
2138,-2.51,2021-12-17 17:23:33.296875
2139,-3.51,2021-12-17 17:23:33.312500
2140,-3.87,2021-12-17 17:23:33.328125
2141,-3.96,2021-12-17 17:23:33.343750
2142,-4.27,2021-12-17 17:23:33.359375
2143,-5.09,2021-12-17 17:23:33.375000
2144,-6.29,2021-12-17 17:23:33.390625
2145,-7.38,2021-12-17 17:23:33.406250
2146,-7.82,2021-12-17 17:23:33.421875
2147,-7.27,2021-12-17 17:23:33.437500
2148,-5.86,2021-12-17 17:23:33.453125
2149,-4.11,2021-12-17 17:23:33.468750
2150,-2.68,2021-12-17 17:23:33.484375
2151,-2.1,2021-12-17 17:23:33.500000
2152,-2.55,2021-12-17 17:23:33.515625
2153,-3.84,2021-12-17 17:23:33.531250
2154,-5.57,2021-12-17 17:23:33.546875
2155,-7.25,2021-12-17 17:23:33.562500
2156,-8.45,2021-12-17 17:23:33.578125
2157,-8.94,2021-12-17 17:23:33.593750
2158,-8.62,2021-12-17 17:23:33.609375
2159,-7.56,2021-12-17 17:23:33.625000
2160,-5.92,2021-12-17 17:23:33.640625
2161,-3.85,2021-12-17 17:23:33.656250
2162,-1.54,2021-12-17 17:23:33.671875
2163,0.87,2021-12-17 17:23:33.687500
2164,3.19,2021-12-17 17:23:33.703125
2165,5.2,2021-12-17 17:23:33.718750
2166,6.67,2021-12-17 17:23:33.734375
2167,7.45,2021-12-17 17:23:33.750000
2168,7.56,2021-12-17 17:23:33.765625
2169,7.23,2021-12-17 17:23:33.781250
2170,6.81,2021-12-17 17:23:33.796875
2171,6.64,2021-12-17 17:23:33.812500
2172,6.88,2021-12-17 17:23:33.828125
2173,7.49,2021-12-17 17:23:33.843750
2174,8.21,2021-12-17 17:23:33.859375
2175,8.74,2021-12-17 17:23:33.875000
2176,8.87,2021-12-17 17:23:33.890625
2177,8.55,2021-12-17 17:23:33.906250
2178,7.89,2021-12-17 17:23:33.921875
2179,7.08,2021-12-17 17:23:33.937500
2180,6.34,2021-12-17 17:23:33.953125
2181,5.8,2021-12-17 17:23:33.968750
2182,5.53,2021-12-17 17:23:33.984375
2183,5.48,2021-12-17 17:23:34.000000
2184,5.59,2021-12-17 17:23:34.015625
2185,5.76,2021-12-17 17:23:34.031250
2186,5.92,2021-12-17 17:23:34.046875
2187,6.0,2021-12-17 17:23:34.062500
2188,6.03,2021-12-17 17:23:34.078125
2189,6.01,2021-12-17 17:23:34.093750
2190,5.96,2021-12-17 17:23:34.109375
2191,5.91,2021-12-17 17:23:34.125000
2192,5.86,2021-12-17 17:23:34.140625
2193,5.8,2021-12-17 17:23:34.156250
2194,5.72,2021-12-17 17:23:34.171875
2195,5.56,2021-12-17 17:23:34.187500
2196,5.31,2021-12-17 17:23:34.203125
2197,4.98,2021-12-17 17:23:34.218750
2198,4.55,2021-12-17 17:23:34.234375
2199,4.05,2021-12-17 17:23:34.250000
2200,3.5,2021-12-17 17:23:34.265625
2201,2.89,2021-12-17 17:23:34.281250
2202,2.17,2021-12-17 17:23:34.296875
2203,1.27,2021-12-17 17:23:34.312500
2204,0.16,2021-12-17 17:23:34.328125
2205,-1.17,2021-12-17 17:23:34.343750
2206,-2.62,2021-12-17 17:23:34.359375
2207,-4.11,2021-12-17 17:23:34.375000
2208,-5.58,2021-12-17 17:23:34.390625
2209,-6.98,2021-12-17 17:23:34.406250
2210,-8.29,2021-12-17 17:23:34.421875
2211,-9.4,2021-12-17 17:23:34.437500
2212,-10.11,2021-12-17 17:23:34.453125
2213,-10.17,2021-12-17 17:23:34.468750
2214,-9.37,2021-12-17 17:23:34.484375
2215,-7.68,2021-12-17 17:23:34.500000
2216,-5.29,2021-12-17 17:23:34.515625
2217,-2.56,2021-12-17 17:23:34.531250
2218,0.15,2021-12-17 17:23:34.546875
2219,2.55,2021-12-17 17:23:34.562500
2220,4.53,2021-12-17 17:23:34.578125
2221,6.14,2021-12-17 17:23:34.593750
2222,7.44,2021-12-17 17:23:34.609375
2223,8.47,2021-12-17 17:23:34.625000
2224,9.18,2021-12-17 17:23:34.640625
2225,9.48,2021-12-17 17:23:34.656250
2226,9.32,2021-12-17 17:23:34.671875
2227,8.71,2021-12-17 17:23:34.687500
2228,7.77,2021-12-17 17:23:34.703125
2229,6.67,2021-12-17 17:23:34.718750
2230,5.63,2021-12-17 17:23:34.734375
2231,4.85,2021-12-17 17:23:34.750000
2232,4.51,2021-12-17 17:23:34.765625
2233,4.68,2021-12-17 17:23:34.781250
2234,5.41,2021-12-17 17:23:34.796875
2235,6.67,2021-12-17 17:23:34.812500
2236,8.35,2021-12-17 17:23:34.828125
2237,10.26,2021-12-17 17:23:34.843750
2238,12.2,2021-12-17 17:23:34.859375
2239,14.0,2021-12-17 17:23:34.875000
2240,15.58,2021-12-17 17:23:34.890625
2241,16.97,2021-12-17 17:23:34.906250
2242,18.22,2021-12-17 17:23:34.921875
2243,19.37,2021-12-17 17:23:34.937500
2244,20.33,2021-12-17 17:23:34.953125
2245,20.96,2021-12-17 17:23:34.968750
2246,21.1,2021-12-17 17:23:34.984375
2247,20.62,2021-12-17 17:23:35.000000
2248,19.58,2021-12-17 17:23:35.015625
2249,18.2,2021-12-17 17:23:35.031250
2250,16.84,2021-12-17 17:23:35.046875
2251,15.9,2021-12-17 17:23:35.062500
2252,15.66,2021-12-17 17:23:35.078125
2253,16.19,2021-12-17 17:23:35.093750
2254,17.3,2021-12-17 17:23:35.109375
2255,18.62,2021-12-17 17:23:35.125000
2256,19.77,2021-12-17 17:23:35.140625
2257,20.51,2021-12-17 17:23:35.156250
2258,20.77,2021-12-17 17:23:35.171875
2259,20.7,2021-12-17 17:23:35.187500
2260,20.51,2021-12-17 17:23:35.203125
2261,20.41,2021-12-17 17:23:35.218750
2262,20.49,2021-12-17 17:23:35.234375
2263,20.86,2021-12-17 17:23:35.250000
2264,21.65,2021-12-17 17:23:35.265625
2265,23.0,2021-12-17 17:23:35.281250
2266,24.98,2021-12-17 17:23:35.296875
2267,27.51,2021-12-17 17:23:35.312500
2268,30.35,2021-12-17 17:23:35.328125
2269,33.18,2021-12-17 17:23:35.343750
2270,35.74,2021-12-17 17:23:35.359375
2271,37.93,2021-12-17 17:23:35.375000
2272,39.77,2021-12-17 17:23:35.390625
2273,41.26,2021-12-17 17:23:35.406250
2274,42.24,2021-12-17 17:23:35.421875
2275,42.32,2021-12-17 17:23:35.437500
2276,40.94,2021-12-17 17:23:35.453125
2277,37.61,2021-12-17 17:23:35.468750
2278,32.16,2021-12-17 17:23:35.484375
2279,24.88,2021-12-17 17:23:35.500000
2280,16.49,2021-12-17 17:23:35.515625
2281,8.0,2021-12-17 17:23:35.531250
2282,0.39,2021-12-17 17:23:35.546875
2283,-5.64,2021-12-17 17:23:35.562500
2284,-9.71,2021-12-17 17:23:35.578125
2285,-11.81,2021-12-17 17:23:35.593750
2286,-12.17,2021-12-17 17:23:35.609375
2287,-11.19,2021-12-17 17:23:35.625000
2288,-9.34,2021-12-17 17:23:35.640625
2289,-7.2,2021-12-17 17:23:35.656250
2290,-5.35,2021-12-17 17:23:35.671875
2291,-4.3,2021-12-17 17:23:35.687500
2292,-4.35,2021-12-17 17:23:35.703125
2293,-5.51,2021-12-17 17:23:35.718750
2294,-7.46,2021-12-17 17:23:35.734375
2295,-9.7,2021-12-17 17:23:35.750000
2296,-11.74,2021-12-17 17:23:35.765625
2297,-13.22,2021-12-17 17:23:35.781250
2298,-14.07,2021-12-17 17:23:35.796875
2299,-14.37,2021-12-17 17:23:35.812500
2300,-14.32,2021-12-17 17:23:35.828125
2301,-14.15,2021-12-17 17:23:35.843750
2302,-14.05,2021-12-17 17:23:35.859375
2303,-14.28,2021-12-17 17:23:35.875000
2304,-15.21,2021-12-17 17:23:35.890625
2305,-17.37,2021-12-17 17:23:35.906250
2306,-21.27,2021-12-17 17:23:35.921875
2307,-27.24,2021-12-17 17:23:35.937500
2308,-35.11,2021-12-17 17:23:35.953125
2309,-44.05,2021-12-17 17:23:35.968750
2310,-52.76,2021-12-17 17:23:35.984375
2311,-59.93,2021-12-17 17:23:36.000000
2312,-64.82,2021-12-17 17:23:36.015625
2313,-67.66,2021-12-17 17:23:36.031250
2314,-69.61,2021-12-17 17:23:36.046875
2315,-72.25,2021-12-17 17:23:36.062500
2316,-76.81,2021-12-17 17:23:36.078125
2317,-83.53,2021-12-17 17:23:36.093750
2318,-91.55,2021-12-17 17:23:36.109375
2319,-99.29,2021-12-17 17:23:36.125000
2320,-105.05,2021-12-17 17:23:36.140625
2321,-107.59,2021-12-17 17:23:36.156250
2322,-106.22,2021-12-17 17:23:36.171875
2323,-100.77,2021-12-17 17:23:36.187500
2324,-91.33,2021-12-17 17:23:36.203125
2325,-78.27,2021-12-17 17:23:36.218750
2326,-62.47,2021-12-17 17:23:36.234375
2327,-45.65,2021-12-17 17:23:36.250000
2328,-30.32,2021-12-17 17:23:36.265625
2329,-19.22,2021-12-17 17:23:36.281250
2330,-14.4,2021-12-17 17:23:36.296875
2331,-16.24,2021-12-17 17:23:36.312500
2332,-23.13,2021-12-17 17:23:36.328125
2333,-31.84,2021-12-17 17:23:36.343750
2334,-38.71,2021-12-17 17:23:36.359375
2335,-40.87,2021-12-17 17:23:36.375000
2336,-37.16,2021-12-17 17:23:36.390625
2337,-28.2,2021-12-17 17:23:36.406250
2338,-15.78,2021-12-17 17:23:36.421875
2339,-1.92,2021-12-17 17:23:36.437500
2340,11.96,2021-12-17 17:23:36.453125
2341,25.13,2021-12-17 17:23:36.468750
2342,37.3,2021-12-17 17:23:36.484375
2343,48.03,2021-12-17 17:23:36.500000
2344,56.44,2021-12-17 17:23:36.515625
2345,61.35,2021-12-17 17:23:36.531250
2346,61.82,2021-12-17 17:23:36.546875
2347,57.72,2021-12-17 17:23:36.562500
2348,49.98,2021-12-17 17:23:36.578125
2349,40.5,2021-12-17 17:23:36.593750
2350,31.51,2021-12-17 17:23:36.609375
2351,24.91,2021-12-17 17:23:36.625000
2352,21.8,2021-12-17 17:23:36.640625
2353,22.24,2021-12-17 17:23:36.656250
2354,25.46,2021-12-17 17:23:36.671875
2355,30.22,2021-12-17 17:23:36.687500
2356,35.2,2021-12-17 17:23:36.703125
2357,39.32,2021-12-17 17:23:36.718750
2358,41.93,2021-12-17 17:23:36.734375
2359,42.81,2021-12-17 17:23:36.750000
2360,42.08,2021-12-17 17:23:36.765625
2361,40.05,2021-12-17 17:23:36.781250
2362,36.99,2021-12-17 17:23:36.796875
2363,33.1,2021-12-17 17:23:36.812500
2364,28.44,2021-12-17 17:23:36.828125
2365,23.12,2021-12-17 17:23:36.843750
2366,17.37,2021-12-17 17:23:36.859375
2367,11.6,2021-12-17 17:23:36.875000
2368,6.26,2021-12-17 17:23:36.890625
2369,1.67,2021-12-17 17:23:36.906250
2370,-2.15,2021-12-17 17:23:36.921875
2371,-5.47,2021-12-17 17:23:36.937500
2372,-8.56,2021-12-17 17:23:36.953125
2373,-11.48,2021-12-17 17:23:36.968750
2374,-13.84,2021-12-17 17:23:36.984375
2375,-14.92,2021-12-17 17:23:37.000000
2376,-13.99,2021-12-17 17:23:37.015625
2377,-10.71,2021-12-17 17:23:37.031250
2378,-5.37,2021-12-17 17:23:37.046875
2379,1.14,2021-12-17 17:23:37.062500
2380,7.61,2021-12-17 17:23:37.078125
2381,12.95,2021-12-17 17:23:37.093750
2382,16.49,2021-12-17 17:23:37.109375
2383,18.14,2021-12-17 17:23:37.125000
2384,18.26,2021-12-17 17:23:37.140625
2385,17.48,2021-12-17 17:23:37.156250
2386,16.4,2021-12-17 17:23:37.171875
2387,15.51,2021-12-17 17:23:37.187500
2388,15.04,2021-12-17 17:23:37.203125
2389,15.07,2021-12-17 17:23:37.218750
2390,15.49,2021-12-17 17:23:37.234375
2391,16.09,2021-12-17 17:23:37.250000
2392,16.62,2021-12-17 17:23:37.265625
2393,16.85,2021-12-17 17:23:37.281250
2394,16.65,2021-12-17 17:23:37.296875
2395,16.06,2021-12-17 17:23:37.312500
2396,15.24,2021-12-17 17:23:37.328125
2397,14.36,2021-12-17 17:23:37.343750
2398,13.53,2021-12-17 17:23:37.359375
2399,12.75,2021-12-17 17:23:37.375000
2400,11.91,2021-12-17 17:23:37.390625
2401,10.94,2021-12-17 17:23:37.406250
2402,9.85,2021-12-17 17:23:37.421875
2403,8.73,2021-12-17 17:23:37.437500
2404,7.73,2021-12-17 17:23:37.453125
2405,6.96,2021-12-17 17:23:37.468750
2406,6.4,2021-12-17 17:23:37.484375
2407,5.94,2021-12-17 17:23:37.500000
2408,5.37,2021-12-17 17:23:37.515625
2409,4.55,2021-12-17 17:23:37.531250
2410,3.38,2021-12-17 17:23:37.546875
2411,1.87,2021-12-17 17:23:37.562500
2412,0.07,2021-12-17 17:23:37.578125
2413,-1.97,2021-12-17 17:23:37.593750
2414,-4.23,2021-12-17 17:23:37.609375
2415,-6.64,2021-12-17 17:23:37.625000
2416,-9.08,2021-12-17 17:23:37.640625
2417,-11.26,2021-12-17 17:23:37.656250
2418,-12.81,2021-12-17 17:23:37.671875
2419,-13.33,2021-12-17 17:23:37.687500
2420,-12.61,2021-12-17 17:23:37.703125
2421,-10.66,2021-12-17 17:23:37.718750
2422,-7.78,2021-12-17 17:23:37.734375
2423,-4.42,2021-12-17 17:23:37.750000
2424,-0.99,2021-12-17 17:23:37.765625
2425,2.22,2021-12-17 17:23:37.781250
2426,5.07,2021-12-17 17:23:37.796875
2427,7.57,2021-12-17 17:23:37.812500
2428,9.74,2021-12-17 17:23:37.828125
2429,11.61,2021-12-17 17:23:37.843750
2430,13.18,2021-12-17 17:23:37.859375
2431,14.52,2021-12-17 17:23:37.875000
2432,15.76,2021-12-17 17:23:37.890625
2433,17.1,2021-12-17 17:23:37.906250
2434,18.7,2021-12-17 17:23:37.921875
2435,20.61,2021-12-17 17:23:37.937500
2436,22.74,2021-12-17 17:23:37.953125
2437,24.88,2021-12-17 17:23:37.968750
2438,26.76,2021-12-17 17:23:37.984375
2439,28.19,2021-12-17 17:23:38.000000
2440,29.13,2021-12-17 17:23:38.015625
2441,29.71,2021-12-17 17:23:38.031250
2442,30.19,2021-12-17 17:23:38.046875
2443,30.81,2021-12-17 17:23:38.062500
2444,31.71,2021-12-17 17:23:38.078125
2445,32.78,2021-12-17 17:23:38.093750
2446,33.64,2021-12-17 17:23:38.109375
2447,33.72,2021-12-17 17:23:38.125000
2448,32.43,2021-12-17 17:23:38.140625
2449,29.35,2021-12-17 17:23:38.156250
2450,24.45,2021-12-17 17:23:38.171875
2451,18.16,2021-12-17 17:23:38.187500
2452,11.25,2021-12-17 17:23:38.203125
2453,4.56,2021-12-17 17:23:38.218750
2454,-1.3,2021-12-17 17:23:38.234375
2455,-6.07,2021-12-17 17:23:38.250000
2456,-9.87,2021-12-17 17:23:38.265625
2457,-13.03,2021-12-17 17:23:38.281250
2458,-16.03,2021-12-17 17:23:38.296875
2459,-19.43,2021-12-17 17:23:38.312500
2460,-23.94,2021-12-17 17:23:38.328125
2461,-30.28,2021-12-17 17:23:38.343750
2462,-38.9,2021-12-17 17:23:38.359375
2463,-49.57,2021-12-17 17:23:38.375000
2464,-61.15,2021-12-17 17:23:38.390625
2465,-71.74,2021-12-17 17:23:38.406250
2466,-79.13,2021-12-17 17:23:38.421875
2467,-81.63,2021-12-17 17:23:38.437500
2468,-78.41,2021-12-17 17:23:38.453125
2469,-69.63,2021-12-17 17:23:38.468750
2470,-56.24,2021-12-17 17:23:38.484375
2471,-39.53,2021-12-17 17:23:38.500000
2472,-20.92,2021-12-17 17:23:38.515625
2473,-1.85,2021-12-17 17:23:38.531250
2474,16.23,2021-12-17 17:23:38.546875
2475,32.02,2021-12-17 17:23:38.562500
2476,44.57,2021-12-17 17:23:38.578125
2477,53.6,2021-12-17 17:23:38.593750
2478,59.46,2021-12-17 17:23:38.609375
2479,62.98,2021-12-17 17:23:38.625000
2480,64.96,2021-12-17 17:23:38.640625
2481,65.73,2021-12-17 17:23:38.656250
2482,64.96,2021-12-17 17:23:38.671875
2483,61.85,2021-12-17 17:23:38.687500
2484,55.75,2021-12-17 17:23:38.703125
2485,46.75,2021-12-17 17:23:38.718750
2486,36.12,2021-12-17 17:23:38.734375
2487,26.16,2021-12-17 17:23:38.750000
2488,19.61,2021-12-17 17:23:38.765625
2489,18.63,2021-12-17 17:23:38.781250
2490,23.97,2021-12-17 17:23:38.796875
2491,34.62,2021-12-17 17:23:38.812500
2492,48.13,2021-12-17 17:23:38.828125
2493,61.59,2021-12-17 17:23:38.843750
2494,72.59,2021-12-17 17:23:38.859375
2495,80.02,2021-12-17 17:23:38.875000
2496,84.28,2021-12-17 17:23:38.890625
2497,86.78,2021-12-17 17:23:38.906250
2498,89.21,2021-12-17 17:23:38.921875
2499,92.77,2021-12-17 17:23:38.937500
2500,97.7,2021-12-17 17:23:38.953125
2501,103.4,2021-12-17 17:23:38.968750
2502,108.87,2021-12-17 17:23:38.984375
2503,113.21,2021-12-17 17:23:39.000000
2504,116.01,2021-12-17 17:23:39.015625
2505,117.17,2021-12-17 17:23:39.031250
2506,116.53,2021-12-17 17:23:39.046875
2507,113.4,2021-12-17 17:23:39.062500
2508,106.61,2021-12-17 17:23:39.078125
2509,94.85,2021-12-17 17:23:39.093750
2510,77.31,2021-12-17 17:23:39.109375
2511,54.33,2021-12-17 17:23:39.125000
2512,27.24,2021-12-17 17:23:39.140625
2513,-1.97,2021-12-17 17:23:39.156250
2514,-31.51,2021-12-17 17:23:39.171875
2515,-60.27,2021-12-17 17:23:39.187500
2516,-87.95,2021-12-17 17:23:39.203125
2517,-114.62,2021-12-17 17:23:39.218750
2518,-140.14,2021-12-17 17:23:39.234375
2519,-163.79,2021-12-17 17:23:39.250000
2520,-184.3,2021-12-17 17:23:39.265625
2521,-200.44,2021-12-17 17:23:39.281250
2522,-211.48,2021-12-17 17:23:39.296875
2523,-217.53,2021-12-17 17:23:39.312500
2524,-219.37,2021-12-17 17:23:39.328125
2525,-217.97,2021-12-17 17:23:39.343750
2526,-214.08,2021-12-17 17:23:39.359375
2527,-208.04,2021-12-17 17:23:39.375000
2528,-199.96,2021-12-17 17:23:39.390625
2529,-190.1,2021-12-17 17:23:39.406250
2530,-179.09,2021-12-17 17:23:39.421875
2531,-167.85,2021-12-17 17:23:39.437500
2532,-157.28,2021-12-17 17:23:39.453125
2533,-147.8,2021-12-17 17:23:39.468750
2534,-139.12,2021-12-17 17:23:39.484375
2535,-130.29,2021-12-17 17:23:39.500000
2536,-120.07,2021-12-17 17:23:39.515625
2537,-107.4,2021-12-17 17:23:39.531250
2538,-91.78,2021-12-17 17:23:39.546875
2539,-73.46,2021-12-17 17:23:39.562500
2540,-53.45,2021-12-17 17:23:39.578125
2541,-33.18,2021-12-17 17:23:39.593750
2542,-14.14,2021-12-17 17:23:39.609375
2543,2.51,2021-12-17 17:23:39.625000
2544,16.22,2021-12-17 17:23:39.640625
2545,27.07,2021-12-17 17:23:39.656250
2546,35.5,2021-12-17 17:23:39.671875
2547,42.1,2021-12-17 17:23:39.687500
2548,47.26,2021-12-17 17:23:39.703125
2549,51.17,2021-12-17 17:23:39.718750
2550,53.91,2021-12-17 17:23:39.734375
2551,55.64,2021-12-17 17:23:39.750000
2552,56.66,2021-12-17 17:23:39.765625
2553,57.32,2021-12-17 17:23:39.781250
2554,57.82,2021-12-17 17:23:39.796875
2555,58.13,2021-12-17 17:23:39.812500
2556,57.95,2021-12-17 17:23:39.828125
2557,56.89,2021-12-17 17:23:39.843750
2558,54.68,2021-12-17 17:23:39.859375
2559,51.33,2021-12-17 17:23:39.875000
2560,47.14,2021-12-17 17:23:39.890625
2561,42.5,2021-12-17 17:23:39.906250
2562,37.84,2021-12-17 17:23:39.921875
2563,33.36,2021-12-17 17:23:39.937500
2564,29.16,2021-12-17 17:23:39.953125
2565,25.19,2021-12-17 17:23:39.968750
2566,21.35,2021-12-17 17:23:39.984375
2567,17.53,2021-12-17 17:23:40.000000
2568,13.63,2021-12-17 17:23:40.015625
2569,9.58,2021-12-17 17:23:40.031250
2570,5.4,2021-12-17 17:23:40.046875
2571,1.26,2021-12-17 17:23:40.062500
2572,-2.47,2021-12-17 17:23:40.078125
2573,-5.37,2021-12-17 17:23:40.093750
2574,-7.02,2021-12-17 17:23:40.109375
2575,-7.24,2021-12-17 17:23:40.125000
2576,-6.12,2021-12-17 17:23:40.140625
2577,-4.02,2021-12-17 17:23:40.156250
2578,-1.41,2021-12-17 17:23:40.171875
2579,1.32,2021-12-17 17:23:40.187500
2580,3.93,2021-12-17 17:23:40.203125
2581,6.41,2021-12-17 17:23:40.218750
2582,8.82,2021-12-17 17:23:40.234375
2583,11.22,2021-12-17 17:23:40.250000
2584,13.57,2021-12-17 17:23:40.265625
2585,15.69,2021-12-17 17:23:40.281250
2586,17.42,2021-12-17 17:23:40.296875
2587,18.59,2021-12-17 17:23:40.312500
2588,19.16,2021-12-17 17:23:40.328125
2589,19.13,2021-12-17 17:23:40.343750
2590,18.6,2021-12-17 17:23:40.359375
2591,17.67,2021-12-17 17:23:40.375000
2592,16.51,2021-12-17 17:23:40.390625
2593,15.32,2021-12-17 17:23:40.406250
2594,14.29,2021-12-17 17:23:40.421875
2595,13.56,2021-12-17 17:23:40.437500
2596,13.18,2021-12-17 17:23:40.453125
2597,13.11,2021-12-17 17:23:40.468750
2598,13.21,2021-12-17 17:23:40.484375
2599,13.35,2021-12-17 17:23:40.500000
2600,13.39,2021-12-17 17:23:40.515625
2601,13.3,2021-12-17 17:23:40.531250
2602,13.04,2021-12-17 17:23:40.546875
2603,12.67,2021-12-17 17:23:40.562500
2604,12.19,2021-12-17 17:23:40.578125
2605,11.64,2021-12-17 17:23:40.593750
2606,11.03,2021-12-17 17:23:40.609375
2607,10.31,2021-12-17 17:23:40.625000
2608,9.42,2021-12-17 17:23:40.640625
2609,8.31,2021-12-17 17:23:40.656250
2610,6.93,2021-12-17 17:23:40.671875
2611,5.27,2021-12-17 17:23:40.687500
2612,3.37,2021-12-17 17:23:40.703125
2613,1.3,2021-12-17 17:23:40.718750
2614,-0.89,2021-12-17 17:23:40.734375
2615,-3.13,2021-12-17 17:23:40.750000
2616,-5.39,2021-12-17 17:23:40.765625
2617,-7.69,2021-12-17 17:23:40.781250
2618,-10.02,2021-12-17 17:23:40.796875
2619,-12.43,2021-12-17 17:23:40.812500
2620,-14.92,2021-12-17 17:23:40.828125
2621,-17.53,2021-12-17 17:23:40.843750
2622,-20.23,2021-12-17 17:23:40.859375
2623,-22.98,2021-12-17 17:23:40.875000
2624,-25.67,2021-12-17 17:23:40.890625
2625,-28.15,2021-12-17 17:23:40.906250
2626,-30.18,2021-12-17 17:23:40.921875
2627,-31.5,2021-12-17 17:23:40.937500
2628,-31.88,2021-12-17 17:23:40.953125
2629,-31.15,2021-12-17 17:23:40.968750
2630,-29.22,2021-12-17 17:23:40.984375
2631,-26.17,2021-12-17 17:23:41.000000
2632,-22.19,2021-12-17 17:23:41.015625
2633,-17.58,2021-12-17 17:23:41.031250
2634,-12.72,2021-12-17 17:23:41.046875
2635,-7.99,2021-12-17 17:23:41.062500
2636,-3.7,2021-12-17 17:23:41.078125
2637,-0.04,2021-12-17 17:23:41.093750
2638,2.88,2021-12-17 17:23:41.109375
2639,5.08,2021-12-17 17:23:41.125000
2640,6.58,2021-12-17 17:23:41.140625
2641,7.43,2021-12-17 17:23:41.156250
2642,7.74,2021-12-17 17:23:41.171875
2643,7.64,2021-12-17 17:23:41.187500
2644,7.35,2021-12-17 17:23:41.203125
2645,7.08,2021-12-17 17:23:41.218750
2646,6.98,2021-12-17 17:23:41.234375
2647,7.13,2021-12-17 17:23:41.250000
2648,7.53,2021-12-17 17:23:41.265625
2649,8.1,2021-12-17 17:23:41.281250
2650,8.76,2021-12-17 17:23:41.296875
2651,9.43,2021-12-17 17:23:41.312500
2652,10.06,2021-12-17 17:23:41.328125
2653,10.63,2021-12-17 17:23:41.343750
2654,11.13,2021-12-17 17:23:41.359375
2655,11.58,2021-12-17 17:23:41.375000
2656,11.96,2021-12-17 17:23:41.390625
2657,12.2,2021-12-17 17:23:41.406250
2658,12.2,2021-12-17 17:23:41.421875
2659,11.85,2021-12-17 17:23:41.437500
2660,11.12,2021-12-17 17:23:41.453125
2661,10.09,2021-12-17 17:23:41.468750
2662,8.94,2021-12-17 17:23:41.484375
2663,7.85,2021-12-17 17:23:41.500000
2664,6.9,2021-12-17 17:23:41.515625
2665,6.0,2021-12-17 17:23:41.531250
2666,5.0,2021-12-17 17:23:41.546875
2667,3.71,2021-12-17 17:23:41.562500
2668,2.09,2021-12-17 17:23:41.578125
2669,0.26,2021-12-17 17:23:41.593750
2670,-1.62,2021-12-17 17:23:41.609375
2671,-3.35,2021-12-17 17:23:41.625000
2672,-4.87,2021-12-17 17:23:41.640625
2673,-6.23,2021-12-17 17:23:41.656250
2674,-7.56,2021-12-17 17:23:41.671875
2675,-8.93,2021-12-17 17:23:41.687500
2676,-10.39,2021-12-17 17:23:41.703125
2677,-11.9,2021-12-17 17:23:41.718750
2678,-13.41,2021-12-17 17:23:41.734375
2679,-14.91,2021-12-17 17:23:41.750000
2680,-16.39,2021-12-17 17:23:41.765625
2681,-17.78,2021-12-17 17:23:41.781250
2682,-18.91,2021-12-17 17:23:41.796875
2683,-19.54,2021-12-17 17:23:41.812500
2684,-19.35,2021-12-17 17:23:41.828125
2685,-18.18,2021-12-17 17:23:41.843750
2686,-16.11,2021-12-17 17:23:41.859375
2687,-13.46,2021-12-17 17:23:41.875000
2688,-10.69,2021-12-17 17:23:41.890625
2689,-8.23,2021-12-17 17:23:41.906250
2690,-6.29,2021-12-17 17:23:41.921875
2691,-4.84,2021-12-17 17:23:41.937500
2692,-3.68,2021-12-17 17:23:41.953125
2693,-2.55,2021-12-17 17:23:41.968750
2694,-1.36,2021-12-17 17:23:41.984375
2695,-0.13,2021-12-17 17:23:42.000000
2696,1.03,2021-12-17 17:23:42.015625
2697,1.97,2021-12-17 17:23:42.031250
2698,2.66,2021-12-17 17:23:42.046875
2699,3.17,2021-12-17 17:23:42.062500
2700,3.6,2021-12-17 17:23:42.078125
2701,4.01,2021-12-17 17:23:42.093750
2702,4.4,2021-12-17 17:23:42.109375
2703,4.72,2021-12-17 17:23:42.125000
2704,4.93,2021-12-17 17:23:42.140625
2705,5.08,2021-12-17 17:23:42.156250
2706,5.24,2021-12-17 17:23:42.171875
2707,5.55,2021-12-17 17:23:42.187500
2708,6.09,2021-12-17 17:23:42.203125
2709,6.86,2021-12-17 17:23:42.218750
2710,7.73,2021-12-17 17:23:42.234375
2711,8.54,2021-12-17 17:23:42.250000
2712,9.1,2021-12-17 17:23:42.265625
2713,9.31,2021-12-17 17:23:42.281250
2714,9.17,2021-12-17 17:23:42.296875
2715,8.75,2021-12-17 17:23:42.312500
2716,8.15,2021-12-17 17:23:42.328125
2717,7.42,2021-12-17 17:23:42.343750
2718,6.52,2021-12-17 17:23:42.359375
2719,5.38,2021-12-17 17:23:42.375000
2720,4.01,2021-12-17 17:23:42.390625
2721,2.49,2021-12-17 17:23:42.406250
2722,1.01,2021-12-17 17:23:42.421875
2723,-0.18,2021-12-17 17:23:42.437500
2724,-0.93,2021-12-17 17:23:42.453125
2725,-1.25,2021-12-17 17:23:42.468750
2726,-1.35,2021-12-17 17:23:42.484375
2727,-1.54,2021-12-17 17:23:42.500000
2728,-2.11,2021-12-17 17:23:42.515625
2729,-3.22,2021-12-17 17:23:42.531250
2730,-4.88,2021-12-17 17:23:42.546875
2731,-6.96,2021-12-17 17:23:42.562500
2732,-9.19,2021-12-17 17:23:42.578125
2733,-11.25,2021-12-17 17:23:42.593750
2734,-12.76,2021-12-17 17:23:42.609375
2735,-13.41,2021-12-17 17:23:42.625000
2736,-12.99,2021-12-17 17:23:42.640625
2737,-11.52,2021-12-17 17:23:42.656250
2738,-9.26,2021-12-17 17:23:42.671875
2739,-6.68,2021-12-17 17:23:42.687500
2740,-4.27,2021-12-17 17:23:42.703125
2741,-2.4,2021-12-17 17:23:42.718750
2742,-1.15,2021-12-17 17:23:42.734375
2743,-0.39,2021-12-17 17:23:42.750000
2744,0.19,2021-12-17 17:23:42.765625
2745,0.83,2021-12-17 17:23:42.781250
2746,1.61,2021-12-17 17:23:42.796875
2747,2.46,2021-12-17 17:23:42.812500
2748,3.18,2021-12-17 17:23:42.828125
2749,3.61,2021-12-17 17:23:42.843750
2750,3.71,2021-12-17 17:23:42.859375
2751,3.56,2021-12-17 17:23:42.875000
2752,3.35,2021-12-17 17:23:42.890625
2753,3.22,2021-12-17 17:23:42.906250
2754,3.21,2021-12-17 17:23:42.921875
2755,3.29,2021-12-17 17:23:42.937500
2756,3.38,2021-12-17 17:23:42.953125
2757,3.44,2021-12-17 17:23:42.968750
2758,3.51,2021-12-17 17:23:42.984375
2759,3.68,2021-12-17 17:23:43.000000
2760,3.98,2021-12-17 17:23:43.015625
2761,4.4,2021-12-17 17:23:43.031250
2762,4.79,2021-12-17 17:23:43.046875
2763,4.99,2021-12-17 17:23:43.062500
2764,4.91,2021-12-17 17:23:43.078125
2765,4.59,2021-12-17 17:23:43.093750
2766,4.19,2021-12-17 17:23:43.109375
2767,3.8,2021-12-17 17:23:43.125000
2768,3.44,2021-12-17 17:23:43.140625
2769,3.0,2021-12-17 17:23:43.156250
2770,2.31,2021-12-17 17:23:43.171875
2771,1.31,2021-12-17 17:23:43.187500
2772,0.04,2021-12-17 17:23:43.203125
2773,-1.32,2021-12-17 17:23:43.218750
2774,-2.57,2021-12-17 17:23:43.234375
2775,-3.6,2021-12-17 17:23:43.250000
2776,-4.41,2021-12-17 17:23:43.265625
2777,-5.13,2021-12-17 17:23:43.281250
2778,-5.89,2021-12-17 17:23:43.296875
2779,-6.8,2021-12-17 17:23:43.312500
2780,-7.89,2021-12-17 17:23:43.328125
2781,-9.14,2021-12-17 17:23:43.343750
2782,-10.45,2021-12-17 17:23:43.359375
2783,-11.65,2021-12-17 17:23:43.375000
2784,-12.49,2021-12-17 17:23:43.390625
2785,-12.74,2021-12-17 17:23:43.406250
2786,-12.23,2021-12-17 17:23:43.421875
2787,-10.91,2021-12-17 17:23:43.437500
2788,-8.95,2021-12-17 17:23:43.453125
2789,-6.62,2021-12-17 17:23:43.468750
2790,-4.29,2021-12-17 17:23:43.484375
2791,-2.22,2021-12-17 17:23:43.500000
2792,-0.56,2021-12-17 17:23:43.515625
2793,0.73,2021-12-17 17:23:43.531250
2794,1.79,2021-12-17 17:23:43.546875
2795,2.74,2021-12-17 17:23:43.562500
2796,3.62,2021-12-17 17:23:43.578125
2797,4.36,2021-12-17 17:23:43.593750
2798,4.88,2021-12-17 17:23:43.609375
2799,5.11,2021-12-17 17:23:43.625000
2800,5.17,2021-12-17 17:23:43.640625
2801,5.22,2021-12-17 17:23:43.656250
2802,5.43,2021-12-17 17:23:43.671875
2803,5.87,2021-12-17 17:23:43.687500
2804,6.4,2021-12-17 17:23:43.703125
2805,6.82,2021-12-17 17:23:43.718750
2806,6.95,2021-12-17 17:23:43.734375
2807,6.81,2021-12-17 17:23:43.750000
2808,6.57,2021-12-17 17:23:43.765625
2809,6.46,2021-12-17 17:23:43.781250
2810,6.63,2021-12-17 17:23:43.796875
2811,7.03,2021-12-17 17:23:43.812500
2812,7.48,2021-12-17 17:23:43.828125
2813,7.74,2021-12-17 17:23:43.843750
2814,7.65,2021-12-17 17:23:43.859375
2815,7.21,2021-12-17 17:23:43.875000
2816,6.52,2021-12-17 17:23:43.890625
2817,5.7,2021-12-17 17:23:43.906250
2818,4.81,2021-12-17 17:23:43.921875
2819,3.82,2021-12-17 17:23:43.937500
2820,2.67,2021-12-17 17:23:43.953125
2821,1.28,2021-12-17 17:23:43.968750
2822,-0.35,2021-12-17 17:23:43.984375
2823,-2.11,2021-12-17 17:23:44.000000
2824,-3.87,2021-12-17 17:23:44.015625
2825,-5.48,2021-12-17 17:23:44.031250
2826,-6.78,2021-12-17 17:23:44.046875
2827,-7.74,2021-12-17 17:23:44.062500
2828,-8.42,2021-12-17 17:23:44.078125
2829,-8.95,2021-12-17 17:23:44.093750
2830,-9.5,2021-12-17 17:23:44.109375
2831,-10.24,2021-12-17 17:23:44.125000
2832,-11.26,2021-12-17 17:23:44.140625
2833,-12.56,2021-12-17 17:23:44.156250
2834,-14.06,2021-12-17 17:23:44.171875
2835,-15.54,2021-12-17 17:23:44.187500
2836,-16.72,2021-12-17 17:23:44.203125
2837,-17.25,2021-12-17 17:23:44.218750
2838,-16.88,2021-12-17 17:23:44.234375
2839,-15.53,2021-12-17 17:23:44.250000
2840,-13.35,2021-12-17 17:23:44.265625
2841,-10.71,2021-12-17 17:23:44.281250
2842,-8.09,2021-12-17 17:23:44.296875
2843,-5.85,2021-12-17 17:23:44.312500
2844,-4.13,2021-12-17 17:23:44.328125
2845,-2.88,2021-12-17 17:23:44.343750
2846,-1.9,2021-12-17 17:23:44.359375
2847,-1.03,2021-12-17 17:23:44.375000
2848,-0.29,2021-12-17 17:23:44.390625
2849,0.23,2021-12-17 17:23:44.406250
2850,0.39,2021-12-17 17:23:44.421875
2851,0.16,2021-12-17 17:23:44.437500
2852,-0.36,2021-12-17 17:23:44.453125
2853,-0.96,2021-12-17 17:23:44.468750
2854,-1.46,2021-12-17 17:23:44.484375
2855,-1.79,2021-12-17 17:23:44.500000
2856,-1.98,2021-12-17 17:23:44.515625
2857,-2.12,2021-12-17 17:23:44.531250
2858,-2.29,2021-12-17 17:23:44.546875
2859,-2.54,2021-12-17 17:23:44.562500
2860,-2.86,2021-12-17 17:23:44.578125
2861,-3.26,2021-12-17 17:23:44.593750
2862,-3.74,2021-12-17 17:23:44.609375
2863,-4.33,2021-12-17 17:23:44.625000
2864,-5.04,2021-12-17 17:23:44.640625
2865,-5.89,2021-12-17 17:23:44.656250
2866,-6.87,2021-12-17 17:23:44.671875
2867,-8.01,2021-12-17 17:23:44.687500
2868,-9.27,2021-12-17 17:23:44.703125
2869,-10.61,2021-12-17 17:23:44.718750
2870,-11.9,2021-12-17 17:23:44.734375
2871,-12.99,2021-12-17 17:23:44.750000
2872,-13.68,2021-12-17 17:23:44.765625
2873,-13.94,2021-12-17 17:23:44.781250
2874,-13.88,2021-12-17 17:23:44.796875
2875,-13.71,2021-12-17 17:23:44.812500
2876,-13.66,2021-12-17 17:23:44.828125
2877,-13.79,2021-12-17 17:23:44.843750
2878,-13.94,2021-12-17 17:23:44.859375
2879,-13.86,2021-12-17 17:23:44.875000
2880,-13.37,2021-12-17 17:23:44.890625
2881,-12.49,2021-12-17 17:23:44.906250
2882,-11.53,2021-12-17 17:23:44.921875
2883,-10.9,2021-12-17 17:23:44.937500
2884,-10.95,2021-12-17 17:23:44.953125
2885,-11.8,2021-12-17 17:23:44.968750
2886,-13.25,2021-12-17 17:23:44.984375
2887,-14.96,2021-12-17 17:23:45.000000
2888,-16.53,2021-12-17 17:23:45.015625
2889,-17.6,2021-12-17 17:23:45.031250
2890,-17.93,2021-12-17 17:23:45.046875
2891,-17.37,2021-12-17 17:23:45.062500
2892,-15.86,2021-12-17 17:23:45.078125
2893,-13.53,2021-12-17 17:23:45.093750
2894,-10.65,2021-12-17 17:23:45.109375
2895,-7.55,2021-12-17 17:23:45.125000
2896,-4.67,2021-12-17 17:23:45.140625
2897,-2.25,2021-12-17 17:23:45.156250
2898,-0.4,2021-12-17 17:23:45.171875
2899,0.93,2021-12-17 17:23:45.187500
2900,1.88,2021-12-17 17:23:45.203125
2901,2.59,2021-12-17 17:23:45.218750
2902,3.1,2021-12-17 17:23:45.234375
2903,3.46,2021-12-17 17:23:45.250000
2904,3.65,2021-12-17 17:23:45.265625
2905,3.68,2021-12-17 17:23:45.281250
2906,3.61,2021-12-17 17:23:45.296875
2907,3.53,2021-12-17 17:23:45.312500
2908,3.55,2021-12-17 17:23:45.328125
2909,3.8,2021-12-17 17:23:45.343750
2910,4.42,2021-12-17 17:23:45.359375
2911,5.39,2021-12-17 17:23:45.375000
2912,6.64,2021-12-17 17:23:45.390625
2913,7.92,2021-12-17 17:23:45.406250
2914,9.0,2021-12-17 17:23:45.421875
2915,9.7,2021-12-17 17:23:45.437500
2916,9.99,2021-12-17 17:23:45.453125
2917,9.92,2021-12-17 17:23:45.468750
2918,9.67,2021-12-17 17:23:45.484375
2919,9.37,2021-12-17 17:23:45.500000
2920,9.1,2021-12-17 17:23:45.515625
2921,8.88,2021-12-17 17:23:45.531250
2922,8.7,2021-12-17 17:23:45.546875
2923,8.54,2021-12-17 17:23:45.562500
2924,8.36,2021-12-17 17:23:45.578125
2925,8.08,2021-12-17 17:23:45.593750
2926,7.6,2021-12-17 17:23:45.609375
2927,6.84,2021-12-17 17:23:45.625000
2928,5.77,2021-12-17 17:23:45.640625
2929,4.43,2021-12-17 17:23:45.656250
2930,3.02,2021-12-17 17:23:45.671875
2931,1.7,2021-12-17 17:23:45.687500
2932,0.64,2021-12-17 17:23:45.703125
2933,-0.09,2021-12-17 17:23:45.718750
2934,-0.53,2021-12-17 17:23:45.734375
2935,-0.79,2021-12-17 17:23:45.750000
2936,-1.05,2021-12-17 17:23:45.765625
2937,-1.5,2021-12-17 17:23:45.781250
2938,-2.31,2021-12-17 17:23:45.796875
2939,-3.59,2021-12-17 17:23:45.812500
2940,-5.34,2021-12-17 17:23:45.828125
2941,-7.34,2021-12-17 17:23:45.843750
2942,-9.19,2021-12-17 17:23:45.859375
2943,-10.38,2021-12-17 17:23:45.875000
2944,-10.46,2021-12-17 17:23:45.890625
2945,-9.24,2021-12-17 17:23:45.906250
2946,-6.87,2021-12-17 17:23:45.921875
2947,-3.82,2021-12-17 17:23:45.937500
2948,-0.65,2021-12-17 17:23:45.953125
2949,2.17,2021-12-17 17:23:45.968750
2950,4.38,2021-12-17 17:23:45.984375
2951,5.97,2021-12-17 17:23:46.000000
2952,7.04,2021-12-17 17:23:46.015625
2953,7.75,2021-12-17 17:23:46.031250
2954,8.18,2021-12-17 17:23:46.046875
2955,8.39,2021-12-17 17:23:46.062500
2956,8.41,2021-12-17 17:23:46.078125
2957,8.37,2021-12-17 17:23:46.093750
2958,8.4,2021-12-17 17:23:46.109375
2959,8.62,2021-12-17 17:23:46.125000
2960,9.13,2021-12-17 17:23:46.140625
2961,9.93,2021-12-17 17:23:46.156250
2962,10.96,2021-12-17 17:23:46.171875
2963,12.14,2021-12-17 17:23:46.187500
2964,13.39,2021-12-17 17:23:46.203125
2965,14.66,2021-12-17 17:23:46.218750
2966,15.91,2021-12-17 17:23:46.234375
2967,17.11,2021-12-17 17:23:46.250000
2968,18.2,2021-12-17 17:23:46.265625
2969,19.11,2021-12-17 17:23:46.281250
2970,19.72,2021-12-17 17:23:46.296875
2971,19.96,2021-12-17 17:23:46.312500
2972,19.8,2021-12-17 17:23:46.328125
2973,19.27,2021-12-17 17:23:46.343750
2974,18.46,2021-12-17 17:23:46.359375
2975,17.48,2021-12-17 17:23:46.375000
2976,16.38,2021-12-17 17:23:46.390625
2977,15.13,2021-12-17 17:23:46.406250
2978,13.67,2021-12-17 17:23:46.421875
2979,11.92,2021-12-17 17:23:46.437500
2980,9.9,2021-12-17 17:23:46.453125
2981,7.72,2021-12-17 17:23:46.468750
2982,5.57,2021-12-17 17:23:46.484375
2983,3.62,2021-12-17 17:23:46.500000
2984,1.94,2021-12-17 17:23:46.515625
2985,0.45,2021-12-17 17:23:46.531250
2986,-1.03,2021-12-17 17:23:46.546875
2987,-2.66,2021-12-17 17:23:46.562500
2988,-4.56,2021-12-17 17:23:46.578125
2989,-6.67,2021-12-17 17:23:46.593750
2990,-8.85,2021-12-17 17:23:46.609375
2991,-10.88,2021-12-17 17:23:46.625000
2992,-12.53,2021-12-17 17:23:46.640625
2993,-13.64,2021-12-17 17:23:46.656250
2994,-14.05,2021-12-17 17:23:46.671875
2995,-13.66,2021-12-17 17:23:46.687500
2996,-12.39,2021-12-17 17:23:46.703125
2997,-10.33,2021-12-17 17:23:46.718750
2998,-7.66,2021-12-17 17:23:46.734375
2999,-4.69,2021-12-17 17:23:46.750000
3000,-1.73,2021-12-17 17:23:46.765625
3001,0.96,2021-12-17 17:23:46.781250
3002,3.2,2021-12-17 17:23:46.796875
3003,4.93,2021-12-17 17:23:46.812500
3004,6.16,2021-12-17 17:23:46.828125
3005,6.93,2021-12-17 17:23:46.843750
3006,7.29,2021-12-17 17:23:46.859375
3007,7.32,2021-12-17 17:23:46.875000
3008,7.11,2021-12-17 17:23:46.890625
3009,6.79,2021-12-17 17:23:46.906250
3010,6.49,2021-12-17 17:23:46.921875
3011,6.31,2021-12-17 17:23:46.937500
3012,6.33,2021-12-17 17:23:46.953125
3013,6.57,2021-12-17 17:23:46.968750
3014,7.01,2021-12-17 17:23:46.984375
3015,7.61,2021-12-17 17:23:47.000000
3016,8.27,2021-12-17 17:23:47.015625
3017,8.92,2021-12-17 17:23:47.031250
3018,9.51,2021-12-17 17:23:47.046875
3019,9.98,2021-12-17 17:23:47.062500
3020,10.32,2021-12-17 17:23:47.078125
3021,10.48,2021-12-17 17:23:47.093750
3022,10.4,2021-12-17 17:23:47.109375
3023,10.09,2021-12-17 17:23:47.125000
3024,9.58,2021-12-17 17:23:47.140625
3025,8.99,2021-12-17 17:23:47.156250
3026,8.46,2021-12-17 17:23:47.171875
3027,8.09,2021-12-17 17:23:47.187500
3028,7.86,2021-12-17 17:23:47.203125
3029,7.65,2021-12-17 17:23:47.218750
3030,7.21,2021-12-17 17:23:47.234375
3031,6.34,2021-12-17 17:23:47.250000
3032,4.92,2021-12-17 17:23:47.265625
3033,3.02,2021-12-17 17:23:47.281250
3034,0.83,2021-12-17 17:23:47.296875
3035,-1.37,2021-12-17 17:23:47.312500
3036,-3.35,2021-12-17 17:23:47.328125
3037,-5.01,2021-12-17 17:23:47.343750
3038,-6.38,2021-12-17 17:23:47.359375
3039,-7.62,2021-12-17 17:23:47.375000
3040,-8.91,2021-12-17 17:23:47.390625
3041,-10.38,2021-12-17 17:23:47.406250
3042,-12.05,2021-12-17 17:23:47.421875
3043,-13.77,2021-12-17 17:23:47.437500
3044,-15.34,2021-12-17 17:23:47.453125
3045,-16.46,2021-12-17 17:23:47.468750
3046,-16.88,2021-12-17 17:23:47.484375
3047,-16.44,2021-12-17 17:23:47.500000
3048,-15.11,2021-12-17 17:23:47.515625
3049,-12.98,2021-12-17 17:23:47.531250
3050,-10.26,2021-12-17 17:23:47.546875
3051,-7.2,2021-12-17 17:23:47.562500
3052,-4.08,2021-12-17 17:23:47.578125
3053,-1.13,2021-12-17 17:23:47.593750
3054,1.55,2021-12-17 17:23:47.609375
3055,3.88,2021-12-17 17:23:47.625000
3056,5.9,2021-12-17 17:23:47.640625
3057,7.62,2021-12-17 17:23:47.656250
3058,9.07,2021-12-17 17:23:47.671875
3059,10.27,2021-12-17 17:23:47.687500
3060,11.21,2021-12-17 17:23:47.703125
3061,11.86,2021-12-17 17:23:47.718750
3062,12.18,2021-12-17 17:23:47.734375
3063,12.15,2021-12-17 17:23:47.750000
3064,11.79,2021-12-17 17:23:47.765625
3065,11.2,2021-12-17 17:23:47.781250
3066,10.61,2021-12-17 17:23:47.796875
3067,10.22,2021-12-17 17:23:47.812500
3068,10.22,2021-12-17 17:23:47.828125
3069,10.64,2021-12-17 17:23:47.843750
3070,11.36,2021-12-17 17:23:47.859375
3071,12.13,2021-12-17 17:23:47.875000
3072,12.67,2021-12-17 17:23:47.890625
3073,12.8,2021-12-17 17:23:47.906250
3074,12.49,2021-12-17 17:23:47.921875
3075,11.82,2021-12-17 17:23:47.937500
3076,10.93,2021-12-17 17:23:47.953125
3077,9.96,2021-12-17 17:23:47.968750
3078,8.98,2021-12-17 17:23:47.984375
3079,8.02,2021-12-17 17:23:48.000000
3080,7.1,2021-12-17 17:23:48.015625
3081,6.16,2021-12-17 17:23:48.031250
3082,5.14,2021-12-17 17:23:48.046875
3083,3.96,2021-12-17 17:23:48.062500
3084,2.52,2021-12-17 17:23:48.078125
3085,0.82,2021-12-17 17:23:48.093750
3086,-1.06,2021-12-17 17:23:48.109375
3087,-2.93,2021-12-17 17:23:48.125000
3088,-4.56,2021-12-17 17:23:48.140625
3089,-5.81,2021-12-17 17:23:48.156250
3090,-6.73,2021-12-17 17:23:48.171875
3091,-7.52,2021-12-17 17:23:48.187500
3092,-8.51,2021-12-17 17:23:48.203125
3093,-9.99,2021-12-17 17:23:48.218750
3094,-12.03,2021-12-17 17:23:48.234375
3095,-14.53,2021-12-17 17:23:48.250000
3096,-17.17,2021-12-17 17:23:48.265625
3097,-19.57,2021-12-17 17:23:48.281250
3098,-21.32,2021-12-17 17:23:48.296875
3099,-22.16,2021-12-17 17:23:48.312500
3100,-21.96,2021-12-17 17:23:48.328125
3101,-20.77,2021-12-17 17:23:48.343750
3102,-18.79,2021-12-17 17:23:48.359375
3103,-16.29,2021-12-17 17:23:48.375000
3104,-13.55,2021-12-17 17:23:48.390625
3105,-10.76,2021-12-17 17:23:48.406250
3106,-8.05,2021-12-17 17:23:48.421875
3107,-5.45,2021-12-17 17:23:48.437500
3108,-3.0,2021-12-17 17:23:48.453125
3109,-0.73,2021-12-17 17:23:48.468750
3110,1.32,2021-12-17 17:23:48.484375
3111,3.11,2021-12-17 17:23:48.500000
3112,4.54,2021-12-17 17:23:48.515625
3113,5.52,2021-12-17 17:23:48.531250
3114,5.92,2021-12-17 17:23:48.546875
3115,5.71,2021-12-17 17:23:48.562500
3116,4.95,2021-12-17 17:23:48.578125
3117,3.87,2021-12-17 17:23:48.593750
3118,2.75,2021-12-17 17:23:48.609375
3119,1.9,2021-12-17 17:23:48.625000
3120,1.49,2021-12-17 17:23:48.640625
3121,1.56,2021-12-17 17:23:48.656250
3122,2.03,2021-12-17 17:23:48.671875
3123,2.76,2021-12-17 17:23:48.687500
3124,3.66,2021-12-17 17:23:48.703125
3125,4.63,2021-12-17 17:23:48.718750
3126,5.56,2021-12-17 17:23:48.734375
3127,6.33,2021-12-17 17:23:48.750000
3128,6.84,2021-12-17 17:23:48.765625
3129,7.04,2021-12-17 17:23:48.781250
3130,7.01,2021-12-17 17:23:48.796875
3131,6.87,2021-12-17 17:23:48.812500
3132,6.76,2021-12-17 17:23:48.828125
3133,6.68,2021-12-17 17:23:48.843750
3134,6.53,2021-12-17 17:23:48.859375
3135,6.12,2021-12-17 17:23:48.875000
3136,5.3,2021-12-17 17:23:48.890625
3137,4.03,2021-12-17 17:23:48.906250
3138,2.47,2021-12-17 17:23:48.921875
3139,0.82,2021-12-17 17:23:48.937500
3140,-0.71,2021-12-17 17:23:48.953125
3141,-2.04,2021-12-17 17:23:48.968750
3142,-3.22,2021-12-17 17:23:48.984375
3143,-4.36,2021-12-17 17:23:49.000000
3144,-5.6,2021-12-17 17:23:49.015625
3145,-7.03,2021-12-17 17:23:49.031250
3146,-8.69,2021-12-17 17:23:49.046875
3147,-10.62,2021-12-17 17:23:49.062500
3148,-12.83,2021-12-17 17:23:49.078125
3149,-15.26,2021-12-17 17:23:49.093750
3150,-17.72,2021-12-17 17:23:49.109375
3151,-19.86,2021-12-17 17:23:49.125000
3152,-21.24,2021-12-17 17:23:49.140625
3153,-21.49,2021-12-17 17:23:49.156250
3154,-20.47,2021-12-17 17:23:49.171875
3155,-18.34,2021-12-17 17:23:49.187500
3156,-15.48,2021-12-17 17:23:49.203125
3157,-12.37,2021-12-17 17:23:49.218750
3158,-9.35,2021-12-17 17:23:49.234375
3159,-6.61,2021-12-17 17:23:49.250000
3160,-4.14,2021-12-17 17:23:49.265625
3161,-1.84,2021-12-17 17:23:49.281250
3162,0.36,2021-12-17 17:23:49.296875
3163,2.43,2021-12-17 17:23:49.312500
3164,4.26,2021-12-17 17:23:49.328125
3165,5.67,2021-12-17 17:23:49.343750
3166,6.58,2021-12-17 17:23:49.359375
3167,6.99,2021-12-17 17:23:49.375000
3168,7.06,2021-12-17 17:23:49.390625
3169,6.99,2021-12-17 17:23:49.406250
3170,6.96,2021-12-17 17:23:49.421875
3171,7.09,2021-12-17 17:23:49.437500
3172,7.41,2021-12-17 17:23:49.453125
3173,7.85,2021-12-17 17:23:49.468750
3174,8.31,2021-12-17 17:23:49.484375
3175,8.74,2021-12-17 17:23:49.500000
3176,9.14,2021-12-17 17:23:49.515625
3177,9.57,2021-12-17 17:23:49.531250
3178,10.07,2021-12-17 17:23:49.546875
3179,10.63,2021-12-17 17:23:49.562500
3180,11.16,2021-12-17 17:23:49.578125
3181,11.45,2021-12-17 17:23:49.593750
3182,11.35,2021-12-17 17:23:49.609375
3183,10.72,2021-12-17 17:23:49.625000
3184,9.57,2021-12-17 17:23:49.640625
3185,8.03,2021-12-17 17:23:49.656250
3186,6.25,2021-12-17 17:23:49.671875
3187,4.34,2021-12-17 17:23:49.687500
3188,2.3,2021-12-17 17:23:49.703125
3189,0.11,2021-12-17 17:23:49.718750
3190,-2.27,2021-12-17 17:23:49.734375
3191,-4.79,2021-12-17 17:23:49.750000
3192,-7.34,2021-12-17 17:23:49.765625
3193,-9.74,2021-12-17 17:23:49.781250
3194,-11.84,2021-12-17 17:23:49.796875
3195,-13.57,2021-12-17 17:23:49.812500
3196,-14.92,2021-12-17 17:23:49.828125
3197,-15.96,2021-12-17 17:23:49.843750
3198,-16.72,2021-12-17 17:23:49.859375
3199,-17.28,2021-12-17 17:23:49.875000
3200,-17.75,2021-12-17 17:23:49.890625
3201,-18.29,2021-12-17 17:23:49.906250
3202,-19.12,2021-12-17 17:23:49.921875
3203,-20.45,2021-12-17 17:23:49.937500
3204,-22.31,2021-12-17 17:23:49.953125
