,BVP,time
0,-63.43,2021-12-17 16:49:37.531250
1,-85.09,2021-12-17 16:49:37.546875
2,-107.7,2021-12-17 16:49:37.562500
3,-126.36,2021-12-17 16:49:37.578125
4,-134.63,2021-12-17 16:49:37.593750
5,-125.93,2021-12-17 16:49:37.609375
6,-95.4,2021-12-17 16:49:37.625000
7,-41.33,2021-12-17 16:49:37.640625
8,32.13,2021-12-17 16:49:37.656250
9,114.57,2021-12-17 16:49:37.671875
10,191.41,2021-12-17 16:49:37.687500
11,248.5,2021-12-17 16:49:37.703125
12,276.76,2021-12-17 16:49:37.718750
13,276.16,2021-12-17 16:49:37.734375
14,254.78,2021-12-17 16:49:37.750000
15,225.31,2021-12-17 16:49:37.765625
16,201.71,2021-12-17 16:49:37.781250
17,193.14,2021-12-17 16:49:37.796875
18,202.0,2021-12-17 16:49:37.812500
19,225.12,2021-12-17 16:49:37.828125
20,256.85,2021-12-17 16:49:37.843750
21,291.03,2021-12-17 16:49:37.859375
22,324.08,2021-12-17 16:49:37.875000
23,353.44,2021-12-17 16:49:37.890625
24,376.68,2021-12-17 16:49:37.906250
25,393.8,2021-12-17 16:49:37.921875
26,403.85,2021-12-17 16:49:37.937500
27,404.68,2021-12-17 16:49:37.953125
28,393.97,2021-12-17 16:49:37.968750
29,371.26,2021-12-17 16:49:37.984375
30,337.5,2021-12-17 16:49:38.000000
31,297.26,2021-12-17 16:49:38.015625
32,255.3,2021-12-17 16:49:38.031250
33,215.03,2021-12-17 16:49:38.046875
34,181.43,2021-12-17 16:49:38.062500
35,156.67,2021-12-17 16:49:38.078125
36,139.8,2021-12-17 16:49:38.093750
37,127.9,2021-12-17 16:49:38.109375
38,118.57,2021-12-17 16:49:38.125000
39,110.46,2021-12-17 16:49:38.140625
40,107.06,2021-12-17 16:49:38.156250
41,112.61,2021-12-17 16:49:38.171875
42,108.85,2021-12-17 16:49:38.187500
43,84.2,2021-12-17 16:49:38.203125
44,35.61,2021-12-17 16:49:38.218750
45,-31.08,2021-12-17 16:49:38.234375
46,-107.73,2021-12-17 16:49:38.250000
47,-179.0,2021-12-17 16:49:38.265625
48,-246.45,2021-12-17 16:49:38.281250
49,-308.05,2021-12-17 16:49:38.296875
50,-358.34,2021-12-17 16:49:38.312500
51,-391.78,2021-12-17 16:49:38.328125
52,-399.99,2021-12-17 16:49:38.343750
53,-378.38,2021-12-17 16:49:38.359375
54,-329.18,2021-12-17 16:49:38.375000
55,-261.56,2021-12-17 16:49:38.390625
56,-189.0,2021-12-17 16:49:38.406250
57,-127.03,2021-12-17 16:49:38.421875
58,-86.27,2021-12-17 16:49:38.437500
59,-72.31,2021-12-17 16:49:38.453125
60,-84.6,2021-12-17 16:49:38.468750
61,-113.72,2021-12-17 16:49:38.484375
62,-146.62,2021-12-17 16:49:38.500000
63,-170.34,2021-12-17 16:49:38.515625
64,-175.38,2021-12-17 16:49:38.531250
65,-157.62,2021-12-17 16:49:38.546875
66,-120.12,2021-12-17 16:49:38.562500
67,-69.94,2021-12-17 16:49:38.578125
68,-17.72,2021-12-17 16:49:38.593750
69,25.19,2021-12-17 16:49:38.609375
70,51.94,2021-12-17 16:49:38.625000
71,60.22,2021-12-17 16:49:38.640625
72,52.04,2021-12-17 16:49:38.656250
73,32.21,2021-12-17 16:49:38.671875
74,6.7,2021-12-17 16:49:38.687500
75,-19.59,2021-12-17 16:49:38.703125
76,-42.2,2021-12-17 16:49:38.718750
77,-58.12,2021-12-17 16:49:38.734375
78,-66.06,2021-12-17 16:49:38.750000
79,-65.41,2021-12-17 16:49:38.765625
80,-57.23,2021-12-17 16:49:38.781250
81,-44.08,2021-12-17 16:49:38.796875
82,-29.29,2021-12-17 16:49:38.812500
83,-15.91,2021-12-17 16:49:38.828125
84,-6.3,2021-12-17 16:49:38.843750
85,-1.14,2021-12-17 16:49:38.859375
86,-0.4,2021-12-17 16:49:38.875000
87,-4.14,2021-12-17 16:49:38.890625
88,-12.16,2021-12-17 16:49:38.906250
89,-23.97,2021-12-17 16:49:38.921875
90,-38.46,2021-12-17 16:49:38.937500
91,-53.8,2021-12-17 16:49:38.953125
92,-68.04,2021-12-17 16:49:38.968750
93,-79.88,2021-12-17 16:49:38.984375
94,-89.02,2021-12-17 16:49:39.000000
95,-96.03,2021-12-17 16:49:39.015625
96,-101.88,2021-12-17 16:49:39.031250
97,-107.09,2021-12-17 16:49:39.046875
98,-111.39,2021-12-17 16:49:39.062500
99,-113.97,2021-12-17 16:49:39.078125
100,-113.81,2021-12-17 16:49:39.093750
101,-110.06,2021-12-17 16:49:39.109375
102,-102.13,2021-12-17 16:49:39.125000
103,-89.71,2021-12-17 16:49:39.140625
104,-72.84,2021-12-17 16:49:39.156250
105,-52.33,2021-12-17 16:49:39.171875
106,-30.31,2021-12-17 16:49:39.187500
107,-10.23,2021-12-17 16:49:39.203125
108,3.83,2021-12-17 16:49:39.218750
109,8.85,2021-12-17 16:49:39.234375
110,4.48,2021-12-17 16:49:39.250000
111,-6.34,2021-12-17 16:49:39.265625
112,-18.52,2021-12-17 16:49:39.281250
113,-26.88,2021-12-17 16:49:39.296875
114,-28.54,2021-12-17 16:49:39.312500
115,-23.92,2021-12-17 16:49:39.328125
116,-16.0,2021-12-17 16:49:39.343750
117,-8.4,2021-12-17 16:49:39.359375
118,-3.34,2021-12-17 16:49:39.375000
119,-0.74,2021-12-17 16:49:39.390625
120,1.18,2021-12-17 16:49:39.406250
121,4.37,2021-12-17 16:49:39.421875
122,9.69,2021-12-17 16:49:39.437500
123,16.49,2021-12-17 16:49:39.453125
124,23.37,2021-12-17 16:49:39.468750
125,29.41,2021-12-17 16:49:39.484375
126,34.83,2021-12-17 16:49:39.500000
127,40.72,2021-12-17 16:49:39.515625
128,48.03,2021-12-17 16:49:39.531250
129,56.53,2021-12-17 16:49:39.546875
130,64.36,2021-12-17 16:49:39.562500
131,68.51,2021-12-17 16:49:39.578125
132,66.2,2021-12-17 16:49:39.593750
133,56.06,2021-12-17 16:49:39.609375
134,39.06,2021-12-17 16:49:39.625000
135,18.15,2021-12-17 16:49:39.640625
136,-2.84,2021-12-17 16:49:39.656250
137,-20.72,2021-12-17 16:49:39.671875
138,-33.92,2021-12-17 16:49:39.687500
139,-42.8,2021-12-17 16:49:39.703125
140,-49.01,2021-12-17 16:49:39.718750
141,-54.46,2021-12-17 16:49:39.734375
142,-60.4,2021-12-17 16:49:39.750000
143,-67.06,2021-12-17 16:49:39.765625
144,-73.75,2021-12-17 16:49:39.781250
145,-79.42,2021-12-17 16:49:39.796875
146,-83.23,2021-12-17 16:49:39.812500
147,-84.93,2021-12-17 16:49:39.828125
148,-84.82,2021-12-17 16:49:39.843750
149,-83.41,2021-12-17 16:49:39.859375
150,-81.12,2021-12-17 16:49:39.875000
151,-77.93,2021-12-17 16:49:39.890625
152,-73.42,2021-12-17 16:49:39.906250
153,-67.01,2021-12-17 16:49:39.921875
154,-58.37,2021-12-17 16:49:39.937500
155,-47.77,2021-12-17 16:49:39.953125
156,-36.17,2021-12-17 16:49:39.968750
157,-24.96,2021-12-17 16:49:39.984375
158,-15.29,2021-12-17 16:49:40.000000
159,-7.53,2021-12-17 16:49:40.015625
160,-1.03,2021-12-17 16:49:40.031250
161,5.46,2021-12-17 16:49:40.046875
162,12.97,2021-12-17 16:49:40.062500
163,21.53,2021-12-17 16:49:40.078125
164,29.95,2021-12-17 16:49:40.093750
165,36.41,2021-12-17 16:49:40.109375
166,39.38,2021-12-17 16:49:40.125000
167,38.58,2021-12-17 16:49:40.140625
168,35.13,2021-12-17 16:49:40.156250
169,30.93,2021-12-17 16:49:40.171875
170,27.67,2021-12-17 16:49:40.187500
171,25.92,2021-12-17 16:49:40.203125
172,25.1,2021-12-17 16:49:40.218750
173,24.03,2021-12-17 16:49:40.234375
174,21.96,2021-12-17 16:49:40.250000
175,19.14,2021-12-17 16:49:40.265625
176,16.74,2021-12-17 16:49:40.281250
177,16.05,2021-12-17 16:49:40.296875
178,17.65,2021-12-17 16:49:40.312500
179,21.0,2021-12-17 16:49:40.328125
180,24.7,2021-12-17 16:49:40.343750
181,27.28,2021-12-17 16:49:40.359375
182,27.77,2021-12-17 16:49:40.375000
183,26.16,2021-12-17 16:49:40.390625
184,23.03,2021-12-17 16:49:40.406250
185,19.16,2021-12-17 16:49:40.421875
186,15.03,2021-12-17 16:49:40.437500
187,10.67,2021-12-17 16:49:40.453125
188,5.9,2021-12-17 16:49:40.468750
189,0.55,2021-12-17 16:49:40.484375
190,-5.27,2021-12-17 16:49:40.500000
191,-11.29,2021-12-17 16:49:40.515625
192,-17.11,2021-12-17 16:49:40.531250
193,-22.41,2021-12-17 16:49:40.546875
194,-26.88,2021-12-17 16:49:40.562500
195,-30.13,2021-12-17 16:49:40.578125
196,-31.72,2021-12-17 16:49:40.593750
197,-31.24,2021-12-17 16:49:40.609375
198,-28.56,2021-12-17 16:49:40.625000
199,-23.96,2021-12-17 16:49:40.640625
200,-18.17,2021-12-17 16:49:40.656250
201,-12.19,2021-12-17 16:49:40.671875
202,-6.93,2021-12-17 16:49:40.687500
203,-3.0,2021-12-17 16:49:40.703125
204,-0.51,2021-12-17 16:49:40.718750
205,0.82,2021-12-17 16:49:40.734375
206,1.5,2021-12-17 16:49:40.750000
207,2.04,2021-12-17 16:49:40.765625
208,2.74,2021-12-17 16:49:40.781250
209,3.68,2021-12-17 16:49:40.796875
210,4.68,2021-12-17 16:49:40.812500
211,5.51,2021-12-17 16:49:40.828125
212,5.89,2021-12-17 16:49:40.843750
213,5.66,2021-12-17 16:49:40.859375
214,4.77,2021-12-17 16:49:40.875000
215,3.31,2021-12-17 16:49:40.890625
216,1.5,2021-12-17 16:49:40.906250
217,-0.44,2021-12-17 16:49:40.921875
218,-2.36,2021-12-17 16:49:40.937500
219,-4.29,2021-12-17 16:49:40.953125
220,-6.4,2021-12-17 16:49:40.968750
221,-8.96,2021-12-17 16:49:40.984375
222,-12.14,2021-12-17 16:49:41.000000
223,-15.97,2021-12-17 16:49:41.015625
224,-20.2,2021-12-17 16:49:41.031250
225,-24.43,2021-12-17 16:49:41.046875
226,-28.23,2021-12-17 16:49:41.062500
227,-31.37,2021-12-17 16:49:41.078125
228,-33.98,2021-12-17 16:49:41.093750
229,-36.63,2021-12-17 16:49:41.109375
230,-40.08,2021-12-17 16:49:41.125000
231,-44.94,2021-12-17 16:49:41.140625
232,-51.37,2021-12-17 16:49:41.156250
233,-58.9,2021-12-17 16:49:41.171875
234,-66.61,2021-12-17 16:49:41.187500
235,-73.49,2021-12-17 16:49:41.203125
236,-78.88,2021-12-17 16:49:41.218750
237,-82.68,2021-12-17 16:49:41.234375
238,-85.31,2021-12-17 16:49:41.250000
239,-87.46,2021-12-17 16:49:41.265625
240,-89.8,2021-12-17 16:49:41.281250
241,-92.74,2021-12-17 16:49:41.296875
242,-96.36,2021-12-17 16:49:41.312500
243,-100.17,2021-12-17 16:49:41.328125
244,-102.81,2021-12-17 16:49:41.343750
245,-101.83,2021-12-17 16:49:41.359375
246,-94.15,2021-12-17 16:49:41.375000
247,-77.05,2021-12-17 16:49:41.390625
248,-49.63,2021-12-17 16:49:41.406250
249,-13.75,2021-12-17 16:49:41.421875
250,25.99,2021-12-17 16:49:41.437500
251,63.54,2021-12-17 16:49:41.453125
252,93.5,2021-12-17 16:49:41.468750
253,112.96,2021-12-17 16:49:41.484375
254,122.1,2021-12-17 16:49:41.500000
255,123.59,2021-12-17 16:49:41.515625
256,121.01,2021-12-17 16:49:41.531250
257,117.25,2021-12-17 16:49:41.546875
258,113.81,2021-12-17 16:49:41.562500
259,110.77,2021-12-17 16:49:41.578125
260,107.5,2021-12-17 16:49:41.593750
261,103.19,2021-12-17 16:49:41.609375
262,97.18,2021-12-17 16:49:41.625000
263,89.02,2021-12-17 16:49:41.640625
264,78.46,2021-12-17 16:49:41.656250
265,65.69,2021-12-17 16:49:41.671875
266,51.37,2021-12-17 16:49:41.687500
267,36.72,2021-12-17 16:49:41.703125
268,23.24,2021-12-17 16:49:41.718750
269,12.33,2021-12-17 16:49:41.734375
270,4.92,2021-12-17 16:49:41.750000
271,1.27,2021-12-17 16:49:41.765625
272,1.03,2021-12-17 16:49:41.781250
273,3.2,2021-12-17 16:49:41.796875
274,6.46,2021-12-17 16:49:41.812500
275,9.21,2021-12-17 16:49:41.828125
276,10.12,2021-12-17 16:49:41.843750
277,8.49,2021-12-17 16:49:41.859375
278,4.53,2021-12-17 16:49:41.875000
279,-0.7,2021-12-17 16:49:41.890625
280,-5.8,2021-12-17 16:49:41.906250
281,-9.75,2021-12-17 16:49:41.921875
282,-12.38,2021-12-17 16:49:41.937500
283,-14.37,2021-12-17 16:49:41.953125
284,-16.76,2021-12-17 16:49:41.968750
285,-20.15,2021-12-17 16:49:41.984375
286,-24.33,2021-12-17 16:49:42.000000
287,-28.33,2021-12-17 16:49:42.015625
288,-30.94,2021-12-17 16:49:42.031250
289,-31.32,2021-12-17 16:49:42.046875
290,-29.36,2021-12-17 16:49:42.062500
291,-25.78,2021-12-17 16:49:42.078125
292,-21.85,2021-12-17 16:49:42.093750
293,-19.06,2021-12-17 16:49:42.109375
294,-18.59,2021-12-17 16:49:42.125000
295,-20.77,2021-12-17 16:49:42.140625
296,-24.69,2021-12-17 16:49:42.156250
297,-28.22,2021-12-17 16:49:42.171875
298,-28.54,2021-12-17 16:49:42.187500
299,-23.25,2021-12-17 16:49:42.203125
300,-11.59,2021-12-17 16:49:42.218750
301,4.97,2021-12-17 16:49:42.234375
302,22.9,2021-12-17 16:49:42.250000
303,37.87,2021-12-17 16:49:42.265625
304,46.56,2021-12-17 16:49:42.281250
305,47.93,2021-12-17 16:49:42.296875
306,43.68,2021-12-17 16:49:42.312500
307,37.36,2021-12-17 16:49:42.328125
308,32.8,2021-12-17 16:49:42.343750
309,32.56,2021-12-17 16:49:42.359375
310,37.16,2021-12-17 16:49:42.375000
311,45.23,2021-12-17 16:49:42.390625
312,54.18,2021-12-17 16:49:42.406250
313,60.99,2021-12-17 16:49:42.421875
314,62.83,2021-12-17 16:49:42.437500
315,57.48,2021-12-17 16:49:42.453125
316,44.15,2021-12-17 16:49:42.468750
317,24.27,2021-12-17 16:49:42.484375
318,2.08,2021-12-17 16:49:42.500000
319,-15.86,2021-12-17 16:49:42.515625
320,-22.57,2021-12-17 16:49:42.531250
321,-13.09,2021-12-17 16:49:42.546875
322,13.64,2021-12-17 16:49:42.562500
323,54.26,2021-12-17 16:49:42.578125
324,102.7,2021-12-17 16:49:42.593750
325,152.73,2021-12-17 16:49:42.609375
326,200.25,2021-12-17 16:49:42.625000
327,243.46,2021-12-17 16:49:42.640625
328,281.34,2021-12-17 16:49:42.656250
329,311.49,2021-12-17 16:49:42.671875
330,329.08,2021-12-17 16:49:42.687500
331,328.04,2021-12-17 16:49:42.703125
332,303.78,2021-12-17 16:49:42.718750
333,256.24,2021-12-17 16:49:42.734375
334,191.43,2021-12-17 16:49:42.750000
335,120.46,2021-12-17 16:49:42.765625
336,56.46,2021-12-17 16:49:42.781250
337,10.39,2021-12-17 16:49:42.796875
338,-12.37,2021-12-17 16:49:42.812500
339,-13.47,2021-12-17 16:49:42.828125
340,-0.23,2021-12-17 16:49:42.843750
341,17.59,2021-12-17 16:49:42.859375
342,31.47,2021-12-17 16:49:42.875000
343,36.84,2021-12-17 16:49:42.890625
344,33.54,2021-12-17 16:49:42.906250
345,24.5,2021-12-17 16:49:42.921875
346,13.22,2021-12-17 16:49:42.937500
347,1.92,2021-12-17 16:49:42.953125
348,-8.83,2021-12-17 16:49:42.968750
349,-19.06,2021-12-17 16:49:42.984375
350,-27.77,2021-12-17 16:49:43.000000
351,-32.38,2021-12-17 16:49:43.015625
352,-29.88,2021-12-17 16:49:43.031250
353,-19.19,2021-12-17 16:49:43.046875
354,-2.92,2021-12-17 16:49:43.062500
355,12.74,2021-12-17 16:49:43.078125
356,20.6,2021-12-17 16:49:43.093750
357,15.97,2021-12-17 16:49:43.109375
358,-0.48,2021-12-17 16:49:43.125000
359,-22.75,2021-12-17 16:49:43.140625
360,-42.09,2021-12-17 16:49:43.156250
361,-51.08,2021-12-17 16:49:43.171875
362,-47.02,2021-12-17 16:49:43.187500
363,-32.74,2021-12-17 16:49:43.203125
364,-14.74,2021-12-17 16:49:43.218750
365,0.21,2021-12-17 16:49:43.234375
366,8.17,2021-12-17 16:49:43.250000
367,9.12,2021-12-17 16:49:43.265625
368,6.09,2021-12-17 16:49:43.281250
369,2.89,2021-12-17 16:49:43.296875
370,2.18,2021-12-17 16:49:43.312500
371,4.51,2021-12-17 16:49:43.328125
372,8.72,2021-12-17 16:49:43.343750
373,13.18,2021-12-17 16:49:43.359375
374,16.98,2021-12-17 16:49:43.375000
375,20.41,2021-12-17 16:49:43.390625
376,24.49,2021-12-17 16:49:43.406250
377,30.13,2021-12-17 16:49:43.421875
378,37.26,2021-12-17 16:49:43.437500
379,44.73,2021-12-17 16:49:43.453125
380,50.79,2021-12-17 16:49:43.468750
381,54.1,2021-12-17 16:49:43.484375
382,54.52,2021-12-17 16:49:43.500000
383,53.15,2021-12-17 16:49:43.515625
384,51.72,2021-12-17 16:49:43.531250
385,51.64,2021-12-17 16:49:43.546875
386,53.08,2021-12-17 16:49:43.562500
387,54.97,2021-12-17 16:49:43.578125
388,55.53,2021-12-17 16:49:43.593750
389,53.47,2021-12-17 16:49:43.609375
390,48.83,2021-12-17 16:49:43.625000
391,43.36,2021-12-17 16:49:43.640625
392,40.07,2021-12-17 16:49:43.656250
393,42.3,2021-12-17 16:49:43.671875
394,52.43,2021-12-17 16:49:43.687500
395,70.65,2021-12-17 16:49:43.703125
396,94.35,2021-12-17 16:49:43.718750
397,118.41,2021-12-17 16:49:43.734375
398,136.68,2021-12-17 16:49:43.750000
399,143.97,2021-12-17 16:49:43.765625
400,137.86,2021-12-17 16:49:43.781250
401,119.38,2021-12-17 16:49:43.796875
402,92.47,2021-12-17 16:49:43.812500
403,62.18,2021-12-17 16:49:43.828125
404,32.89,2021-12-17 16:49:43.843750
405,7.04,2021-12-17 16:49:43.859375
406,-14.92,2021-12-17 16:49:43.875000
407,-33.64,2021-12-17 16:49:43.890625
408,-50.01,2021-12-17 16:49:43.906250
409,-64.55,2021-12-17 16:49:43.921875
410,-77.54,2021-12-17 16:49:43.937500
411,-89.35,2021-12-17 16:49:43.953125
412,-100.37,2021-12-17 16:49:43.968750
413,-110.67,2021-12-17 16:49:43.984375
414,-119.48,2021-12-17 16:49:44.000000
415,-125.34,2021-12-17 16:49:44.015625
416,-126.55,2021-12-17 16:49:44.031250
417,-122.1,2021-12-17 16:49:44.046875
418,-112.21,2021-12-17 16:49:44.062500
419,-98.31,2021-12-17 16:49:44.078125
420,-82.62,2021-12-17 16:49:44.093750
421,-67.35,2021-12-17 16:49:44.109375
422,-54.3,2021-12-17 16:49:44.125000
423,-44.61,2021-12-17 16:49:44.140625
424,-39.01,2021-12-17 16:49:44.156250
425,-37.52,2021-12-17 16:49:44.171875
426,-39.17,2021-12-17 16:49:44.187500
427,-41.74,2021-12-17 16:49:44.203125
428,-42.09,2021-12-17 16:49:44.218750
429,-37.14,2021-12-17 16:49:44.234375
430,-25.37,2021-12-17 16:49:44.250000
431,-7.7,2021-12-17 16:49:44.265625
432,12.74,2021-12-17 16:49:44.281250
433,31.67,2021-12-17 16:49:44.296875
434,45.51,2021-12-17 16:49:44.312500
435,52.34,2021-12-17 16:49:44.328125
436,52.13,2021-12-17 16:49:44.343750
437,45.85,2021-12-17 16:49:44.359375
438,34.78,2021-12-17 16:49:44.375000
439,20.18,2021-12-17 16:49:44.390625
440,3.66,2021-12-17 16:49:44.406250
441,-12.46,2021-12-17 16:49:44.421875
442,-25.78,2021-12-17 16:49:44.437500
443,-34.93,2021-12-17 16:49:44.453125
444,-41.2,2021-12-17 16:49:44.468750
445,-48.63,2021-12-17 16:49:44.484375
446,-62.44,2021-12-17 16:49:44.500000
447,-86.32,2021-12-17 16:49:44.515625
448,-120.3,2021-12-17 16:49:44.531250
449,-160.31,2021-12-17 16:49:44.546875
450,-200.12,2021-12-17 16:49:44.562500
451,-234.35,2021-12-17 16:49:44.578125
452,-260.62,2021-12-17 16:49:44.593750
453,-279.3,2021-12-17 16:49:44.609375
454,-291.34,2021-12-17 16:49:44.625000
455,-295.7,2021-12-17 16:49:44.640625
456,-288.89,2021-12-17 16:49:44.656250
457,-266.76,2021-12-17 16:49:44.671875
458,-227.94,2021-12-17 16:49:44.687500
459,-176.21,2021-12-17 16:49:44.703125
460,-120.35,2021-12-17 16:49:44.718750
461,-70.78,2021-12-17 16:49:44.734375
462,-35.17,2021-12-17 16:49:44.750000
463,-15.33,2021-12-17 16:49:44.765625
464,-7.22,2021-12-17 16:49:44.781250
465,-4.14,2021-12-17 16:49:44.796875
466,-0.98,2021-12-17 16:49:44.812500
467,3.19,2021-12-17 16:49:44.828125
468,5.42,2021-12-17 16:49:44.843750
469,1.42,2021-12-17 16:49:44.859375
470,-10.85,2021-12-17 16:49:44.875000
471,-29.55,2021-12-17 16:49:44.890625
472,-49.62,2021-12-17 16:49:44.906250
473,-65.35,2021-12-17 16:49:44.921875
474,-73.15,2021-12-17 16:49:44.937500
475,-72.58,2021-12-17 16:49:44.953125
476,-65.63,2021-12-17 16:49:44.968750
477,-54.83,2021-12-17 16:49:44.984375
478,-41.55,2021-12-17 16:49:45.000000
479,-25.33,2021-12-17 16:49:45.015625
480,-5.02,2021-12-17 16:49:45.031250
481,19.82,2021-12-17 16:49:45.046875
482,47.75,2021-12-17 16:49:45.062500
483,75.27,2021-12-17 16:49:45.078125
484,97.89,2021-12-17 16:49:45.093750
485,111.65,2021-12-17 16:49:45.109375
486,114.54,2021-12-17 16:49:45.125000
487,107.29,2021-12-17 16:49:45.140625
488,93.05,2021-12-17 16:49:45.156250
489,76.22,2021-12-17 16:49:45.171875
490,60.55,2021-12-17 16:49:45.187500
491,47.8,2021-12-17 16:49:45.203125
492,36.97,2021-12-17 16:49:45.218750
493,25.04,2021-12-17 16:49:45.234375
494,8.62,2021-12-17 16:49:45.250000
495,-14.13,2021-12-17 16:49:45.265625
496,-42.3,2021-12-17 16:49:45.281250
497,-72.51,2021-12-17 16:49:45.296875
498,-100.28,2021-12-17 16:49:45.312500
499,-121.84,2021-12-17 16:49:45.328125
500,-135.32,2021-12-17 16:49:45.343750
501,-140.77,2021-12-17 16:49:45.359375
502,-139.33,2021-12-17 16:49:45.375000
503,-132.13,2021-12-17 16:49:45.390625
504,-119.89,2021-12-17 16:49:45.406250
505,-103.11,2021-12-17 16:49:45.421875
506,-82.77,2021-12-17 16:49:45.437500
507,-60.73,2021-12-17 16:49:45.453125
508,-39.48,2021-12-17 16:49:45.468750
509,-21.38,2021-12-17 16:49:45.484375
510,-7.61,2021-12-17 16:49:45.500000
511,2.29,2021-12-17 16:49:45.515625
512,10.14,2021-12-17 16:49:45.531250
513,17.88,2021-12-17 16:49:45.546875
514,26.38,2021-12-17 16:49:45.562500
515,34.76,2021-12-17 16:49:45.578125
516,40.63,2021-12-17 16:49:45.593750
517,41.35,2021-12-17 16:49:45.609375
518,35.55,2021-12-17 16:49:45.625000
519,24.13,2021-12-17 16:49:45.640625
520,10.25,2021-12-17 16:49:45.656250
521,-1.84,2021-12-17 16:49:45.671875
522,-8.34,2021-12-17 16:49:45.687500
523,-7.29,2021-12-17 16:49:45.703125
524,1.02,2021-12-17 16:49:45.718750
525,14.39,2021-12-17 16:49:45.734375
526,29.89,2021-12-17 16:49:45.750000
527,44.88,2021-12-17 16:49:45.765625
528,57.59,2021-12-17 16:49:45.781250
529,67.22,2021-12-17 16:49:45.796875
530,73.25,2021-12-17 16:49:45.812500
531,75.11,2021-12-17 16:49:45.828125
532,72.1,2021-12-17 16:49:45.843750
533,64.12,2021-12-17 16:49:45.859375
534,52.48,2021-12-17 16:49:45.875000
535,40.28,2021-12-17 16:49:45.890625
536,31.49,2021-12-17 16:49:45.906250
537,29.15,2021-12-17 16:49:45.921875
538,33.7,2021-12-17 16:49:45.937500
539,42.22,2021-12-17 16:49:45.953125
540,49.5,2021-12-17 16:49:45.968750
541,50.23,2021-12-17 16:49:45.984375
542,41.25,2021-12-17 16:49:46.000000
543,22.36,2021-12-17 16:49:46.015625
544,-4.25,2021-12-17 16:49:46.031250
545,-35.64,2021-12-17 16:49:46.046875
546,-69.51,2021-12-17 16:49:46.062500
547,-104.42,2021-12-17 16:49:46.078125
548,-138.95,2021-12-17 16:49:46.093750
549,-170.54,2021-12-17 16:49:46.109375
550,-195.43,2021-12-17 16:49:46.125000
551,-210.1,2021-12-17 16:49:46.140625
552,-213.35,2021-12-17 16:49:46.156250
553,-207.8,2021-12-17 16:49:46.171875
554,-199.67,2021-12-17 16:49:46.187500
555,-196.31,2021-12-17 16:49:46.203125
556,-202.54,2021-12-17 16:49:46.218750
557,-217.8,2021-12-17 16:49:46.234375
558,-235.77,2021-12-17 16:49:46.250000
559,-247.24,2021-12-17 16:49:46.265625
560,-244.67,2021-12-17 16:49:46.281250
561,-226.15,2021-12-17 16:49:46.296875
562,-196.42,2021-12-17 16:49:46.312500
563,-164.39,2021-12-17 16:49:46.328125
564,-138.56,2021-12-17 16:49:46.343750
565,-122.88,2021-12-17 16:49:46.359375
566,-115.56,2021-12-17 16:49:46.375000
567,-110.9,2021-12-17 16:49:46.390625
568,-103.11,2021-12-17 16:49:46.406250
569,-89.63,2021-12-17 16:49:46.421875
570,-71.99,2021-12-17 16:49:46.437500
571,-54.27,2021-12-17 16:49:46.453125
572,-40.4,2021-12-17 16:49:46.468750
573,-32.02,2021-12-17 16:49:46.484375
574,-27.85,2021-12-17 16:49:46.500000
575,-25.07,2021-12-17 16:49:46.515625
576,-21.06,2021-12-17 16:49:46.531250
577,-14.89,2021-12-17 16:49:46.546875
578,-7.49,2021-12-17 16:49:46.562500
579,-0.78,2021-12-17 16:49:46.578125
580,3.45,2021-12-17 16:49:46.593750
581,4.69,2021-12-17 16:49:46.609375
582,3.81,2021-12-17 16:49:46.625000
583,2.61,2021-12-17 16:49:46.640625
584,2.9,2021-12-17 16:49:46.656250
585,5.77,2021-12-17 16:49:46.671875
586,11.37,2021-12-17 16:49:46.687500
587,19.26,2021-12-17 16:49:46.703125
588,29.06,2021-12-17 16:49:46.718750
589,40.79,2021-12-17 16:49:46.734375
590,54.81,2021-12-17 16:49:46.750000
591,71.17,2021-12-17 16:49:46.765625
592,89.05,2021-12-17 16:49:46.781250
593,106.59,2021-12-17 16:49:46.796875
594,121.52,2021-12-17 16:49:46.812500
595,132.29,2021-12-17 16:49:46.828125
596,138.71,2021-12-17 16:49:46.843750
597,142.25,2021-12-17 16:49:46.859375
598,145.4,2021-12-17 16:49:46.875000
599,150.63,2021-12-17 16:49:46.890625
600,159.42,2021-12-17 16:49:46.906250
601,171.75,2021-12-17 16:49:46.921875
602,186.16,2021-12-17 16:49:46.937500
603,200.38,2021-12-17 16:49:46.953125
604,211.99,2021-12-17 16:49:46.968750
605,218.9,2021-12-17 16:49:46.984375
606,219.78,2021-12-17 16:49:47.000000
607,214.25,2021-12-17 16:49:47.015625
608,203.13,2021-12-17 16:49:47.031250
609,188.35,2021-12-17 16:49:47.046875
610,172.65,2021-12-17 16:49:47.062500
611,158.68,2021-12-17 16:49:47.078125
612,148.15,2021-12-17 16:49:47.093750
613,141.19,2021-12-17 16:49:47.109375
614,136.32,2021-12-17 16:49:47.125000
615,130.99,2021-12-17 16:49:47.140625
616,122.55,2021-12-17 16:49:47.156250
617,109.31,2021-12-17 16:49:47.171875
618,91.16,2021-12-17 16:49:47.187500
619,69.1,2021-12-17 16:49:47.203125
620,44.17,2021-12-17 16:49:47.218750
621,16.61,2021-12-17 16:49:47.234375
622,-13.88,2021-12-17 16:49:47.250000
623,-46.93,2021-12-17 16:49:47.265625
624,-80.36,2021-12-17 16:49:47.281250
625,-110.33,2021-12-17 16:49:47.296875
626,-132.8,2021-12-17 16:49:47.312500
627,-146.01,2021-12-17 16:49:47.328125
628,-151.68,2021-12-17 16:49:47.343750
629,-154.16,2021-12-17 16:49:47.359375
630,-157.6,2021-12-17 16:49:47.375000
631,-163.24,2021-12-17 16:49:47.390625
632,-168.68,2021-12-17 16:49:47.406250
633,-169.95,2021-12-17 16:49:47.421875
634,-165.05,2021-12-17 16:49:47.437500
635,-156.24,2021-12-17 16:49:47.453125
636,-149.55,2021-12-17 16:49:47.468750
637,-151.15,2021-12-17 16:49:47.484375
638,-163.22,2021-12-17 16:49:47.500000
639,-181.83,2021-12-17 16:49:47.515625
640,-198.36,2021-12-17 16:49:47.531250
641,-203.8,2021-12-17 16:49:47.546875
642,-192.96,2021-12-17 16:49:47.562500
643,-166.59,2021-12-17 16:49:47.578125
644,-130.36,2021-12-17 16:49:47.593750
645,-91.92,2021-12-17 16:49:47.609375
646,-57.58,2021-12-17 16:49:47.625000
647,-30.45,2021-12-17 16:49:47.640625
648,-10.34,2021-12-17 16:49:47.656250
649,4.66,2021-12-17 16:49:47.671875
650,16.68,2021-12-17 16:49:47.687500
651,27.22,2021-12-17 16:49:47.703125
652,37.34,2021-12-17 16:49:47.718750
653,48.14,2021-12-17 16:49:47.734375
654,61.0,2021-12-17 16:49:47.750000
655,77.05,2021-12-17 16:49:47.765625
656,96.12,2021-12-17 16:49:47.781250
657,115.88,2021-12-17 16:49:47.796875
658,132.2,2021-12-17 16:49:47.812500
659,140.69,2021-12-17 16:49:47.828125
660,138.79,2021-12-17 16:49:47.843750
661,127.18,2021-12-17 16:49:47.859375
662,109.56,2021-12-17 16:49:47.875000
663,90.9,2021-12-17 16:49:47.890625
664,75.03,2021-12-17 16:49:47.906250
665,63.07,2021-12-17 16:49:47.921875
666,53.74,2021-12-17 16:49:47.937500
667,44.97,2021-12-17 16:49:47.953125
668,35.41,2021-12-17 16:49:47.968750
669,24.87,2021-12-17 16:49:47.984375
670,13.57,2021-12-17 16:49:48.000000
671,1.19,2021-12-17 16:49:48.015625
672,-13.26,2021-12-17 16:49:48.031250
673,-30.49,2021-12-17 16:49:48.046875
674,-50.19,2021-12-17 16:49:48.062500
675,-70.12,2021-12-17 16:49:48.078125
676,-86.94,2021-12-17 16:49:48.093750
677,-97.71,2021-12-17 16:49:48.109375
678,-101.25,2021-12-17 16:49:48.125000
679,-98.29,2021-12-17 16:49:48.140625
680,-90.2,2021-12-17 16:49:48.156250
681,-77.51,2021-12-17 16:49:48.171875
682,-59.43,2021-12-17 16:49:48.187500
683,-35.72,2021-12-17 16:49:48.203125
684,-7.29,2021-12-17 16:49:48.218750
685,23.26,2021-12-17 16:49:48.234375
686,51.95,2021-12-17 16:49:48.250000
687,74.64,2021-12-17 16:49:48.265625
688,88.77,2021-12-17 16:49:48.281250
689,94.65,2021-12-17 16:49:48.296875
690,95.24,2021-12-17 16:49:48.312500
691,94.18,2021-12-17 16:49:48.328125
692,92.05,2021-12-17 16:49:48.343750
693,86.69,2021-12-17 16:49:48.359375
694,74.74,2021-12-17 16:49:48.375000
695,54.44,2021-12-17 16:49:48.390625
696,27.99,2021-12-17 16:49:48.406250
697,1.56,2021-12-17 16:49:48.421875
698,-17.17,2021-12-17 16:49:48.437500
699,-22.94,2021-12-17 16:49:48.453125
700,-15.96,2021-12-17 16:49:48.468750
701,-3.45,2021-12-17 16:49:48.484375
702,5.49,2021-12-17 16:49:48.500000
703,5.13,2021-12-17 16:49:48.515625
704,-4.28,2021-12-17 16:49:48.531250
705,-18.08,2021-12-17 16:49:48.546875
706,-31.27,2021-12-17 16:49:48.562500
707,-41.88,2021-12-17 16:49:48.578125
708,-51.48,2021-12-17 16:49:48.593750
709,-52.19,2021-12-17 16:49:48.609375
710,-38.75,2021-12-17 16:49:48.625000
711,-9.67,2021-12-17 16:49:48.640625
712,31.47,2021-12-17 16:49:48.656250
713,78.22,2021-12-17 16:49:48.671875
714,124.08,2021-12-17 16:49:48.687500
715,163.36,2021-12-17 16:49:48.703125
716,192.19,2021-12-17 16:49:48.718750
717,209.68,2021-12-17 16:49:48.734375
718,218.25,2021-12-17 16:49:48.750000
719,220.69,2021-12-17 16:49:48.765625
720,219.88,2021-12-17 16:49:48.781250
721,218.25,2021-12-17 16:49:48.796875
722,217.15,2021-12-17 16:49:48.812500
723,216.69,2021-12-17 16:49:48.828125
724,215.09,2021-12-17 16:49:48.843750
725,210.42,2021-12-17 16:49:48.859375
726,202.08,2021-12-17 16:49:48.875000
727,191.27,2021-12-17 16:49:48.890625
728,179.22,2021-12-17 16:49:48.906250
729,167.15,2021-12-17 16:49:48.921875
730,155.97,2021-12-17 16:49:48.937500
731,145.58,2021-12-17 16:49:48.953125
732,134.62,2021-12-17 16:49:48.968750
733,120.64,2021-12-17 16:49:48.984375
734,101.09,2021-12-17 16:49:49.000000
735,73.99,2021-12-17 16:49:49.015625
736,38.16,2021-12-17 16:49:49.031250
737,-3.43,2021-12-17 16:49:49.046875
738,-46.84,2021-12-17 16:49:49.062500
739,-85.76,2021-12-17 16:49:49.078125
740,-112.46,2021-12-17 16:49:49.093750
741,-120.27,2021-12-17 16:49:49.109375
742,-107.0,2021-12-17 16:49:49.125000
743,-76.87,2021-12-17 16:49:49.140625
744,-40.02,2021-12-17 16:49:49.156250
745,-8.9,2021-12-17 16:49:49.171875
746,6.23,2021-12-17 16:49:49.187500
747,0.93,2021-12-17 16:49:49.203125
748,-21.72,2021-12-17 16:49:49.218750
749,-53.8,2021-12-17 16:49:49.234375
750,-86.94,2021-12-17 16:49:49.250000
751,-116.09,2021-12-17 16:49:49.265625
752,-140.37,2021-12-17 16:49:49.281250
753,-161.26,2021-12-17 16:49:49.296875
754,-179.64,2021-12-17 16:49:49.312500
755,-194.03,2021-12-17 16:49:49.328125
756,-200.8,2021-12-17 16:49:49.343750
757,-195.63,2021-12-17 16:49:49.359375
758,-175.96,2021-12-17 16:49:49.375000
759,-142.69,2021-12-17 16:49:49.390625
760,-100.65,2021-12-17 16:49:49.406250
761,-57.42,2021-12-17 16:49:49.421875
762,-21.13,2021-12-17 16:49:49.437500
763,1.84,2021-12-17 16:49:49.453125
764,8.64,2021-12-17 16:49:49.468750
765,0.37,2021-12-17 16:49:49.484375
766,-18.31,2021-12-17 16:49:49.500000
767,-41.08,2021-12-17 16:49:49.515625
768,-61.72,2021-12-17 16:49:49.531250
769,-75.68,2021-12-17 16:49:49.546875
770,-80.7,2021-12-17 16:49:49.562500
771,-76.41,2021-12-17 16:49:49.578125
772,-63.66,2021-12-17 16:49:49.593750
773,-43.62,2021-12-17 16:49:49.609375
774,-17.92,2021-12-17 16:49:49.625000
775,11.02,2021-12-17 16:49:49.640625
776,39.09,2021-12-17 16:49:49.656250
777,60.53,2021-12-17 16:49:49.671875
778,69.26,2021-12-17 16:49:49.687500
779,61.2,2021-12-17 16:49:49.703125
780,36.9,2021-12-17 16:49:49.718750
781,2.4,2021-12-17 16:49:49.734375
782,-32.53,2021-12-17 16:49:49.750000
783,-58.26,2021-12-17 16:49:49.765625
784,-69.45,2021-12-17 16:49:49.781250
785,-67.13,2021-12-17 16:49:49.796875
786,-57.64,2021-12-17 16:49:49.812500
787,-48.75,2021-12-17 16:49:49.828125
788,-45.42,2021-12-17 16:49:49.843750
789,-47.32,2021-12-17 16:49:49.859375
790,-50.01,2021-12-17 16:49:49.875000
791,-47.96,2021-12-17 16:49:49.890625
792,-38.13,2021-12-17 16:49:49.906250
793,-21.47,2021-12-17 16:49:49.921875
794,-1.92,2021-12-17 16:49:49.937500
795,16.3,2021-12-17 16:49:49.953125
796,30.82,2021-12-17 16:49:49.968750
797,41.93,2021-12-17 16:49:49.984375
798,51.66,2021-12-17 16:49:50.000000
799,61.9,2021-12-17 16:49:50.015625
800,73.16,2021-12-17 16:49:50.031250
801,84.57,2021-12-17 16:49:50.046875
802,94.84,2021-12-17 16:49:50.062500
803,103.51,2021-12-17 16:49:50.078125
804,111.59,2021-12-17 16:49:50.093750
805,120.75,2021-12-17 16:49:50.109375
806,131.63,2021-12-17 16:49:50.125000
807,142.39,2021-12-17 16:49:50.140625
808,148.57,2021-12-17 16:49:50.156250
809,144.63,2021-12-17 16:49:50.171875
810,126.9,2021-12-17 16:49:50.187500
811,96.03,2021-12-17 16:49:50.203125
812,57.57,2021-12-17 16:49:50.218750
813,20.0,2021-12-17 16:49:50.234375
814,-8.77,2021-12-17 16:49:50.250000
815,-24.64,2021-12-17 16:49:50.265625
816,-28.48,2021-12-17 16:49:50.281250
817,-24.5,2021-12-17 16:49:50.296875
818,-17.2,2021-12-17 16:49:50.312500
819,-8.78,2021-12-17 16:49:50.328125
820,1.38,2021-12-17 16:49:50.343750
821,15.19,2021-12-17 16:49:50.359375
822,33.27,2021-12-17 16:49:50.375000
823,53.55,2021-12-17 16:49:50.390625
824,71.67,2021-12-17 16:49:50.406250
825,83.14,2021-12-17 16:49:50.421875
826,85.57,2021-12-17 16:49:50.437500
827,79.73,2021-12-17 16:49:50.453125
828,68.75,2021-12-17 16:49:50.468750
829,56.29,2021-12-17 16:49:50.484375
830,44.83,2021-12-17 16:49:50.500000
831,35.12,2021-12-17 16:49:50.515625
832,26.77,2021-12-17 16:49:50.531250
833,19.23,2021-12-17 16:49:50.546875
834,12.35,2021-12-17 16:49:50.562500
835,6.37,2021-12-17 16:49:50.578125
836,1.55,2021-12-17 16:49:50.593750
837,-2.1,2021-12-17 16:49:50.609375
838,-4.82,2021-12-17 16:49:50.625000
839,-6.89,2021-12-17 16:49:50.640625
840,-8.47,2021-12-17 16:49:50.656250
841,-9.67,2021-12-17 16:49:50.671875
842,-10.64,2021-12-17 16:49:50.687500
843,-11.62,2021-12-17 16:49:50.703125
844,-12.72,2021-12-17 16:49:50.718750
845,-13.83,2021-12-17 16:49:50.734375
846,-14.61,2021-12-17 16:49:50.750000
847,-14.62,2021-12-17 16:49:50.765625
848,-13.65,2021-12-17 16:49:50.781250
849,-11.81,2021-12-17 16:49:50.796875
850,-9.51,2021-12-17 16:49:50.812500
851,-7.22,2021-12-17 16:49:50.828125
852,-5.32,2021-12-17 16:49:50.843750
853,-4.04,2021-12-17 16:49:50.859375
854,-3.63,2021-12-17 16:49:50.875000
855,-4.35,2021-12-17 16:49:50.890625
856,-6.43,2021-12-17 16:49:50.906250
857,-9.92,2021-12-17 16:49:50.921875
858,-14.52,2021-12-17 16:49:50.937500
859,-19.61,2021-12-17 16:49:50.953125
860,-24.44,2021-12-17 16:49:50.968750
861,-28.45,2021-12-17 16:49:50.984375
862,-31.34,2021-12-17 16:49:51.000000
863,-33.18,2021-12-17 16:49:51.015625
864,-34.25,2021-12-17 16:49:51.031250
865,-34.92,2021-12-17 16:49:51.046875
866,-35.65,2021-12-17 16:49:51.062500
867,-36.86,2021-12-17 16:49:51.078125
868,-38.76,2021-12-17 16:49:51.093750
869,-41.31,2021-12-17 16:49:51.109375
870,-44.06,2021-12-17 16:49:51.125000
871,-46.28,2021-12-17 16:49:51.140625
872,-47.12,2021-12-17 16:49:51.156250
873,-46.09,2021-12-17 16:49:51.171875
874,-43.22,2021-12-17 16:49:51.187500
875,-39.16,2021-12-17 16:49:51.203125
876,-34.9,2021-12-17 16:49:51.218750
877,-31.35,2021-12-17 16:49:51.234375
878,-29.13,2021-12-17 16:49:51.250000
879,-28.35,2021-12-17 16:49:51.265625
880,-28.79,2021-12-17 16:49:51.281250
881,-30.15,2021-12-17 16:49:51.296875
882,-32.14,2021-12-17 16:49:51.312500
883,-34.66,2021-12-17 16:49:51.328125
884,-37.61,2021-12-17 16:49:51.343750
885,-40.82,2021-12-17 16:49:51.359375
886,-44.01,2021-12-17 16:49:51.375000
887,-46.84,2021-12-17 16:49:51.390625
888,-49.17,2021-12-17 16:49:51.406250
889,-51.13,2021-12-17 16:49:51.421875
890,-53.17,2021-12-17 16:49:51.437500
891,-55.72,2021-12-17 16:49:51.453125
892,-58.85,2021-12-17 16:49:51.468750
893,-62.18,2021-12-17 16:49:51.484375
894,-65.05,2021-12-17 16:49:51.500000
895,-67.04,2021-12-17 16:49:51.515625
896,-68.44,2021-12-17 16:49:51.531250
897,-70.33,2021-12-17 16:49:51.546875
898,-74.06,2021-12-17 16:49:51.562500
899,-80.58,2021-12-17 16:49:51.578125
900,-89.72,2021-12-17 16:49:51.593750
901,-100.09,2021-12-17 16:49:51.609375
902,-109.71,2021-12-17 16:49:51.625000
903,-116.9,2021-12-17 16:49:51.640625
904,-120.96,2021-12-17 16:49:51.656250
905,-122.27,2021-12-17 16:49:51.671875
906,-121.73,2021-12-17 16:49:51.687500
907,-120.08,2021-12-17 16:49:51.703125
908,-117.5,2021-12-17 16:49:51.718750
909,-113.72,2021-12-17 16:49:51.734375
910,-108.72,2021-12-17 16:49:51.750000
911,-103.22,2021-12-17 16:49:51.765625
912,-98.84,2021-12-17 16:49:51.781250
913,-97.5,2021-12-17 16:49:51.796875
914,-100.23,2021-12-17 16:49:51.812500
915,-106.24,2021-12-17 16:49:51.828125
916,-112.93,2021-12-17 16:49:51.843750
917,-116.95,2021-12-17 16:49:51.859375
918,-115.66,2021-12-17 16:49:51.875000
919,-108.4,2021-12-17 16:49:51.890625
920,-96.59,2021-12-17 16:49:51.906250
921,-82.69,2021-12-17 16:49:51.921875
922,-69.16,2021-12-17 16:49:51.937500
923,-57.48,2021-12-17 16:49:51.953125
924,-48.09,2021-12-17 16:49:51.968750
925,-40.8,2021-12-17 16:49:51.984375
926,-35.56,2021-12-17 16:49:52.000000
927,-32.44,2021-12-17 16:49:52.015625
928,-31.69,2021-12-17 16:49:52.031250
929,-33.19,2021-12-17 16:49:52.046875
930,-36.15,2021-12-17 16:49:52.062500
931,-39.46,2021-12-17 16:49:52.078125
932,-42.08,2021-12-17 16:49:52.093750
933,-43.21,2021-12-17 16:49:52.109375
934,-42.03,2021-12-17 16:49:52.125000
935,-37.33,2021-12-17 16:49:52.140625
936,-27.35,2021-12-17 16:49:52.156250
937,-10.22,2021-12-17 16:49:52.171875
938,15.45,2021-12-17 16:49:52.187500
939,50.3,2021-12-17 16:49:52.203125
940,93.44,2021-12-17 16:49:52.218750
941,142.08,2021-12-17 16:49:52.234375
942,191.72,2021-12-17 16:49:52.250000
943,236.7,2021-12-17 16:49:52.265625
944,271.31,2021-12-17 16:49:52.281250
945,291.67,2021-12-17 16:49:52.296875
946,297.44,2021-12-17 16:49:52.312500
947,292.75,2021-12-17 16:49:52.328125
948,286.22,2021-12-17 16:49:52.343750
949,286.72,2021-12-17 16:49:52.359375
950,298.97,2021-12-17 16:49:52.375000
951,320.8,2021-12-17 16:49:52.390625
952,343.75,2021-12-17 16:49:52.406250
953,356.6,2021-12-17 16:49:52.421875
954,351.09,2021-12-17 16:49:52.437500
955,325.04,2021-12-17 16:49:52.453125
956,282.89,2021-12-17 16:49:52.468750
957,234.96,2021-12-17 16:49:52.484375
958,190.81,2021-12-17 16:49:52.500000
959,154.89,2021-12-17 16:49:52.515625
960,125.93,2021-12-17 16:49:52.531250
961,99.95,2021-12-17 16:49:52.546875
962,73.14,2021-12-17 16:49:52.562500
963,45.4,2021-12-17 16:49:52.578125
964,18.43,2021-12-17 16:49:52.593750
965,-6.46,2021-12-17 16:49:52.609375
966,-26.91,2021-12-17 16:49:52.625000
967,-42.78,2021-12-17 16:49:52.640625
968,-56.07,2021-12-17 16:49:52.656250
969,-68.68,2021-12-17 16:49:52.671875
970,-79.84,2021-12-17 16:49:52.687500
971,-86.99,2021-12-17 16:49:52.703125
972,-85.38,2021-12-17 16:49:52.718750
973,-72.52,2021-12-17 16:49:52.734375
974,-48.96,2021-12-17 16:49:52.750000
975,-13.4,2021-12-17 16:49:52.765625
976,34.22,2021-12-17 16:49:52.781250
977,91.13,2021-12-17 16:49:52.796875
978,151.66,2021-12-17 16:49:52.812500
979,209.19,2021-12-17 16:49:52.828125
980,256.67,2021-12-17 16:49:52.843750
981,291.36,2021-12-17 16:49:52.859375
982,312.92,2021-12-17 16:49:52.875000
983,299.92,2021-12-17 16:49:52.890625
984,243.95,2021-12-17 16:49:52.906250
985,155.6,2021-12-17 16:49:52.921875
986,58.5,2021-12-17 16:49:52.937500
987,-27.38,2021-12-17 16:49:52.953125
988,-85.92,2021-12-17 16:49:52.968750
989,-125.58,2021-12-17 16:49:52.984375
990,-153.35,2021-12-17 16:49:53.000000
991,-173.15,2021-12-17 16:49:53.015625
992,-186.98,2021-12-17 16:49:53.031250
993,-193.45,2021-12-17 16:49:53.046875
994,-190.44,2021-12-17 16:49:53.062500
995,-178.16,2021-12-17 16:49:53.078125
996,-158.98,2021-12-17 16:49:53.093750
997,-135.42,2021-12-17 16:49:53.109375
998,-110.35,2021-12-17 16:49:53.125000
999,-83.96,2021-12-17 16:49:53.140625
1000,-57.15,2021-12-17 16:49:53.156250
1001,-31.68,2021-12-17 16:49:53.171875
1002,-6.54,2021-12-17 16:49:53.187500
1003,19.16,2021-12-17 16:49:53.203125
1004,44.39,2021-12-17 16:49:53.218750
1005,66.37,2021-12-17 16:49:53.234375
1006,82.56,2021-12-17 16:49:53.250000
1007,90.95,2021-12-17 16:49:53.265625
1008,92.78,2021-12-17 16:49:53.281250
1009,89.56,2021-12-17 16:49:53.296875
1010,82.06,2021-12-17 16:49:53.312500
1011,71.87,2021-12-17 16:49:53.328125
1012,59.82,2021-12-17 16:49:53.343750
1013,45.49,2021-12-17 16:49:53.359375
1014,28.0,2021-12-17 16:49:53.375000
1015,7.71,2021-12-17 16:49:53.390625
1016,-13.83,2021-12-17 16:49:53.406250
1017,-33.16,2021-12-17 16:49:53.421875
1018,-47.45,2021-12-17 16:49:53.437500
1019,-55.58,2021-12-17 16:49:53.453125
1020,-57.61,2021-12-17 16:49:53.468750
1021,-55.15,2021-12-17 16:49:53.484375
1022,-51.51,2021-12-17 16:49:53.500000
1023,-51.05,2021-12-17 16:49:53.515625
1024,-57.8,2021-12-17 16:49:53.531250
1025,-74.56,2021-12-17 16:49:53.546875
1026,-101.38,2021-12-17 16:49:53.562500
1027,-135.88,2021-12-17 16:49:53.578125
1028,-173.15,2021-12-17 16:49:53.593750
1029,-206.3,2021-12-17 16:49:53.609375
1030,-227.54,2021-12-17 16:49:53.625000
1031,-231.5,2021-12-17 16:49:53.640625
1032,-218.13,2021-12-17 16:49:53.656250
1033,-193.6,2021-12-17 16:49:53.671875
1034,-168.64,2021-12-17 16:49:53.687500
1035,-154.12,2021-12-17 16:49:53.703125
1036,-156.21,2021-12-17 16:49:53.718750
1037,-173.1,2021-12-17 16:49:53.734375
1038,-195.73,2021-12-17 16:49:53.750000
1039,-211.28,2021-12-17 16:49:53.765625
1040,-209.72,2021-12-17 16:49:53.781250
1041,-188.41,2021-12-17 16:49:53.796875
1042,-152.6,2021-12-17 16:49:53.812500
1043,-111.88,2021-12-17 16:49:53.828125
1044,-75.27,2021-12-17 16:49:53.843750
1045,-47.6,2021-12-17 16:49:53.859375
1046,-27.13,2021-12-17 16:49:53.875000
1047,-12.95,2021-12-17 16:49:53.890625
1048,-3.72,2021-12-17 16:49:53.906250
1049,1.57,2021-12-17 16:49:53.921875
1050,2.69,2021-12-17 16:49:53.937500
1051,-1.48,2021-12-17 16:49:53.953125
1052,-10.64,2021-12-17 16:49:53.968750
1053,-22.0,2021-12-17 16:49:53.984375
1054,-31.17,2021-12-17 16:49:54.000000
1055,-34.04,2021-12-17 16:49:54.015625
1056,-28.67,2021-12-17 16:49:54.031250
1057,-15.09,2021-12-17 16:49:54.046875
1058,4.71,2021-12-17 16:49:54.062500
1059,27.81,2021-12-17 16:49:54.078125
1060,51.62,2021-12-17 16:49:54.093750
1061,74.64,2021-12-17 16:49:54.109375
1062,96.12,2021-12-17 16:49:54.125000
1063,115.42,2021-12-17 16:49:54.140625
1064,131.51,2021-12-17 16:49:54.156250
1065,142.95,2021-12-17 16:49:54.171875
1066,148.92,2021-12-17 16:49:54.187500
1067,149.43,2021-12-17 16:49:54.203125
1068,145.25,2021-12-17 16:49:54.218750
1069,137.76,2021-12-17 16:49:54.234375
1070,128.6,2021-12-17 16:49:54.250000
1071,119.25,2021-12-17 16:49:54.265625
1072,110.72,2021-12-17 16:49:54.281250
1073,103.64,2021-12-17 16:49:54.296875
1074,98.26,2021-12-17 16:49:54.312500
1075,94.82,2021-12-17 16:49:54.328125
1076,93.13,2021-12-17 16:49:54.343750
1077,92.17,2021-12-17 16:49:54.359375
1078,90.03,2021-12-17 16:49:54.375000
1079,84.11,2021-12-17 16:49:54.390625
1080,71.88,2021-12-17 16:49:54.406250
1081,51.67,2021-12-17 16:49:54.421875
1082,23.66,2021-12-17 16:49:54.437500
1083,-9.64,2021-12-17 16:49:54.453125
1084,-43.66,2021-12-17 16:49:54.468750
1085,-73.16,2021-12-17 16:49:54.484375
1086,-93.94,2021-12-17 16:49:54.500000
1087,-104.11,2021-12-17 16:49:54.515625
1088,-104.33,2021-12-17 16:49:54.531250
1089,-97.13,2021-12-17 16:49:54.546875
1090,-85.81,2021-12-17 16:49:54.562500
1091,-73.42,2021-12-17 16:49:54.578125
1092,-62.38,2021-12-17 16:49:54.593750
1093,-54.32,2021-12-17 16:49:54.609375
1094,-50.26,2021-12-17 16:49:54.625000
1095,-50.35,2021-12-17 16:49:54.640625
1096,-53.64,2021-12-17 16:49:54.656250
1097,-57.97,2021-12-17 16:49:54.671875
1098,-60.57,2021-12-17 16:49:54.687500
1099,-59.01,2021-12-17 16:49:54.703125
1100,-52.21,2021-12-17 16:49:54.718750
1101,-40.79,2021-12-17 16:49:54.734375
1102,-26.64,2021-12-17 16:49:54.750000
1103,-11.9,2021-12-17 16:49:54.765625
1104,1.8,2021-12-17 16:49:54.781250
1105,13.71,2021-12-17 16:49:54.796875
1106,23.59,2021-12-17 16:49:54.812500
1107,31.44,2021-12-17 16:49:54.828125
1108,37.33,2021-12-17 16:49:54.843750
1109,41.57,2021-12-17 16:49:54.859375
1110,44.87,2021-12-17 16:49:54.875000
1111,48.21,2021-12-17 16:49:54.890625
1112,52.43,2021-12-17 16:49:54.906250
1113,57.79,2021-12-17 16:49:54.921875
1114,63.82,2021-12-17 16:49:54.937500
1115,69.55,2021-12-17 16:49:54.953125
1116,74.01,2021-12-17 16:49:54.968750
1117,76.68,2021-12-17 16:49:54.984375
1118,77.56,2021-12-17 16:49:55.000000
1119,76.97,2021-12-17 16:49:55.015625
1120,75.2,2021-12-17 16:49:55.031250
1121,72.34,2021-12-17 16:49:55.046875
1122,68.46,2021-12-17 16:49:55.062500
1123,63.74,2021-12-17 16:49:55.078125
1124,58.58,2021-12-17 16:49:55.093750
1125,53.47,2021-12-17 16:49:55.109375
1126,48.71,2021-12-17 16:49:55.125000
1127,44.18,2021-12-17 16:49:55.140625
1128,39.4,2021-12-17 16:49:55.156250
1129,33.71,2021-12-17 16:49:55.171875
1130,26.58,2021-12-17 16:49:55.187500
1131,17.83,2021-12-17 16:49:55.203125
1132,7.75,2021-12-17 16:49:55.218750
1133,-2.94,2021-12-17 16:49:55.234375
1134,-13.25,2021-12-17 16:49:55.250000
1135,-22.1,2021-12-17 16:49:55.265625
1136,-28.58,2021-12-17 16:49:55.281250
1137,-32.05,2021-12-17 16:49:55.296875
1138,-32.31,2021-12-17 16:49:55.312500
1139,-29.62,2021-12-17 16:49:55.328125
1140,-24.64,2021-12-17 16:49:55.343750
1141,-18.2,2021-12-17 16:49:55.359375
1142,-11.18,2021-12-17 16:49:55.375000
1143,-4.32,2021-12-17 16:49:55.390625
1144,1.81,2021-12-17 16:49:55.406250
1145,6.71,2021-12-17 16:49:55.421875
1146,10.0,2021-12-17 16:49:55.437500
1147,11.45,2021-12-17 16:49:55.453125
1148,11.11,2021-12-17 16:49:55.468750
1149,9.43,2021-12-17 16:49:55.484375
1150,7.28,2021-12-17 16:49:55.500000
1151,5.56,2021-12-17 16:49:55.515625
1152,4.85,2021-12-17 16:49:55.531250
1153,5.17,2021-12-17 16:49:55.546875
1154,5.95,2021-12-17 16:49:55.562500
1155,6.37,2021-12-17 16:49:55.578125
1156,5.82,2021-12-17 16:49:55.593750
1157,4.3,2021-12-17 16:49:55.609375
1158,2.33,2021-12-17 16:49:55.625000
1159,0.74,2021-12-17 16:49:55.640625
1160,0.24,2021-12-17 16:49:55.656250
1161,1.05,2021-12-17 16:49:55.671875
1162,2.85,2021-12-17 16:49:55.687500
1163,4.92,2021-12-17 16:49:55.703125
1164,6.48,2021-12-17 16:49:55.718750
1165,6.93,2021-12-17 16:49:55.734375
1166,6.04,2021-12-17 16:49:55.750000
1167,4.08,2021-12-17 16:49:55.765625
1168,1.72,2021-12-17 16:49:55.781250
1169,-0.09,2021-12-17 16:49:55.796875
1170,-0.37,2021-12-17 16:49:55.812500
1171,1.59,2021-12-17 16:49:55.828125
1172,6.01,2021-12-17 16:49:55.843750
1173,12.59,2021-12-17 16:49:55.859375
1174,20.58,2021-12-17 16:49:55.875000
1175,29.0,2021-12-17 16:49:55.890625
1176,36.87,2021-12-17 16:49:55.906250
1177,43.48,2021-12-17 16:49:55.921875
1178,48.33,2021-12-17 16:49:55.937500
1179,51.34,2021-12-17 16:49:55.953125
1180,52.73,2021-12-17 16:49:55.968750
1181,52.92,2021-12-17 16:49:55.984375
1182,52.46,2021-12-17 16:49:56.000000
1183,51.82,2021-12-17 16:49:56.015625
1184,51.26,2021-12-17 16:49:56.031250
1185,50.8,2021-12-17 16:49:56.046875
1186,50.25,2021-12-17 16:49:56.062500
1187,49.56,2021-12-17 16:49:56.078125
1188,48.85,2021-12-17 16:49:56.093750
1189,48.37,2021-12-17 16:49:56.109375
1190,48.12,2021-12-17 16:49:56.125000
1191,47.62,2021-12-17 16:49:56.140625
1192,45.94,2021-12-17 16:49:56.156250
1193,42.07,2021-12-17 16:49:56.171875
1194,35.41,2021-12-17 16:49:56.187500
1195,26.19,2021-12-17 16:49:56.203125
1196,15.49,2021-12-17 16:49:56.218750
1197,4.96,2021-12-17 16:49:56.234375
1198,-3.75,2021-12-17 16:49:56.250000
1199,-9.52,2021-12-17 16:49:56.265625
1200,-12.01,2021-12-17 16:49:56.281250
1201,-11.62,2021-12-17 16:49:56.296875
1202,-9.24,2021-12-17 16:49:56.312500
1203,-5.99,2021-12-17 16:49:56.328125
1204,-2.98,2021-12-17 16:49:56.343750
1205,-0.88,2021-12-17 16:49:56.359375
1206,0.24,2021-12-17 16:49:56.375000
1207,0.79,2021-12-17 16:49:56.390625
1208,1.16,2021-12-17 16:49:56.406250
1209,1.45,2021-12-17 16:49:56.421875
1210,1.2,2021-12-17 16:49:56.437500
1211,-0.35,2021-12-17 16:49:56.453125
1212,-4.06,2021-12-17 16:49:56.468750
1213,-10.57,2021-12-17 16:49:56.484375
1214,-19.54,2021-12-17 16:49:56.500000
1215,-29.72,2021-12-17 16:49:56.515625
1216,-39.5,2021-12-17 16:49:56.531250
1217,-47.69,2021-12-17 16:49:56.546875
1218,-53.87,2021-12-17 16:49:56.562500
1219,-58.26,2021-12-17 16:49:56.578125
1220,-61.37,2021-12-17 16:49:56.593750
1221,-63.91,2021-12-17 16:49:56.609375
1222,-67.0,2021-12-17 16:49:56.625000
1223,-71.08,2021-12-17 16:49:56.640625
1224,-76.11,2021-12-17 16:49:56.656250
1225,-81.71,2021-12-17 16:49:56.671875
1226,-87.6,2021-12-17 16:49:56.687500
1227,-93.53,2021-12-17 16:49:56.703125
1228,-98.79,2021-12-17 16:49:56.718750
1229,-102.27,2021-12-17 16:49:56.734375
1230,-103.39,2021-12-17 16:49:56.750000
1231,-103.45,2021-12-17 16:49:56.765625
1232,-104.39,2021-12-17 16:49:56.781250
1233,-108.37,2021-12-17 16:49:56.796875
1234,-116.79,2021-12-17 16:49:56.812500
1235,-129.3,2021-12-17 16:49:56.828125
1236,-142.92,2021-12-17 16:49:56.843750
1237,-151.98,2021-12-17 16:49:56.859375
1238,-149.73,2021-12-17 16:49:56.875000
1239,-131.59,2021-12-17 16:49:56.890625
1240,-98.29,2021-12-17 16:49:56.906250
1241,-54.27,2021-12-17 16:49:56.921875
1242,-6.33,2021-12-17 16:49:56.937500
1243,38.8,2021-12-17 16:49:56.953125
1244,76.17,2021-12-17 16:49:56.968750
1245,101.59,2021-12-17 16:49:56.984375
1246,111.26,2021-12-17 16:49:57.000000
1247,105.77,2021-12-17 16:49:57.015625
1248,94.78,2021-12-17 16:49:57.031250
1249,82.25,2021-12-17 16:49:57.046875
1250,68.73,2021-12-17 16:49:57.062500
1251,52.47,2021-12-17 16:49:57.078125
1252,33.89,2021-12-17 16:49:57.093750
1253,14.41,2021-12-17 16:49:57.109375
1254,-4.2,2021-12-17 16:49:57.125000
1255,-20.18,2021-12-17 16:49:57.140625
1256,-32.1,2021-12-17 16:49:57.156250
1257,-39.54,2021-12-17 16:49:57.171875
1258,-43.88,2021-12-17 16:49:57.187500
1259,-46.15,2021-12-17 16:49:57.203125
1260,-47.08,2021-12-17 16:49:57.218750
1261,-47.49,2021-12-17 16:49:57.234375
1262,-48.87,2021-12-17 16:49:57.250000
1263,-52.89,2021-12-17 16:49:57.265625
1264,-59.94,2021-12-17 16:49:57.281250
1265,-68.05,2021-12-17 16:49:57.296875
1266,-73.43,2021-12-17 16:49:57.312500
1267,-72.37,2021-12-17 16:49:57.328125
1268,-61.77,2021-12-17 16:49:57.343750
1269,-40.9,2021-12-17 16:49:57.359375
1270,-12.18,2021-12-17 16:49:57.375000
1271,19.41,2021-12-17 16:49:57.390625
1272,48.39,2021-12-17 16:49:57.406250
1273,70.85,2021-12-17 16:49:57.421875
1274,85.35,2021-12-17 16:49:57.437500
1275,92.32,2021-12-17 16:49:57.453125
1276,92.62,2021-12-17 16:49:57.468750
1277,87.83,2021-12-17 16:49:57.484375
1278,80.12,2021-12-17 16:49:57.500000
1279,72.05,2021-12-17 16:49:57.515625
1280,65.88,2021-12-17 16:49:57.531250
1281,62.71,2021-12-17 16:49:57.546875
1282,61.95,2021-12-17 16:49:57.562500
1283,61.45,2021-12-17 16:49:57.578125
1284,58.54,2021-12-17 16:49:57.593750
1285,51.21,2021-12-17 16:49:57.609375
1286,39.6,2021-12-17 16:49:57.625000
1287,25.65,2021-12-17 16:49:57.640625
1288,11.71,2021-12-17 16:49:57.656250
1289,-0.96,2021-12-17 16:49:57.671875
1290,-12.58,2021-12-17 16:49:57.687500
1291,-24.22,2021-12-17 16:49:57.703125
1292,-36.6,2021-12-17 16:49:57.718750
1293,-49.4,2021-12-17 16:49:57.734375
1294,-61.4,2021-12-17 16:49:57.750000
1295,-71.22,2021-12-17 16:49:57.765625
1296,-78.29,2021-12-17 16:49:57.781250
1297,-83.19,2021-12-17 16:49:57.796875
1298,-87.38,2021-12-17 16:49:57.812500
1299,-92.2,2021-12-17 16:49:57.828125
1300,-98.16,2021-12-17 16:49:57.843750
1301,-104.78,2021-12-17 16:49:57.859375
1302,-110.97,2021-12-17 16:49:57.875000
1303,-115.59,2021-12-17 16:49:57.890625
1304,-117.99,2021-12-17 16:49:57.906250
1305,-118.11,2021-12-17 16:49:57.921875
1306,-116.25,2021-12-17 16:49:57.937500
1307,-112.7,2021-12-17 16:49:57.953125
1308,-107.61,2021-12-17 16:49:57.968750
1309,-101.22,2021-12-17 16:49:57.984375
1310,-94.24,2021-12-17 16:49:58.000000
1311,-88.17,2021-12-17 16:49:58.015625
1312,-85.05,2021-12-17 16:49:58.031250
1313,-86.85,2021-12-17 16:49:58.046875
1314,-94.36,2021-12-17 16:49:58.062500
1315,-106.55,2021-12-17 16:49:58.078125
1316,-120.36,2021-12-17 16:49:58.093750
1317,-131.43,2021-12-17 16:49:58.109375
1318,-135.39,2021-12-17 16:49:58.125000
1319,-129.2,2021-12-17 16:49:58.140625
1320,-112.13,2021-12-17 16:49:58.156250
1321,-85.76,2021-12-17 16:49:58.171875
1322,-53.29,2021-12-17 16:49:58.187500
1323,-18.47,2021-12-17 16:49:58.203125
1324,15.49,2021-12-17 16:49:58.218750
1325,46.52,2021-12-17 16:49:58.234375
1326,73.65,2021-12-17 16:49:58.250000
1327,96.74,2021-12-17 16:49:58.265625
1328,116.08,2021-12-17 16:49:58.281250
1329,132.21,2021-12-17 16:49:58.296875
1330,145.81,2021-12-17 16:49:58.312500
1331,157.61,2021-12-17 16:49:58.328125
1332,168.11,2021-12-17 16:49:58.343750
1333,177.14,2021-12-17 16:49:58.359375
1334,183.52,2021-12-17 16:49:58.375000
1335,185.31,2021-12-17 16:49:58.390625
1336,180.64,2021-12-17 16:49:58.406250
1337,168.84,2021-12-17 16:49:58.421875
1338,151.26,2021-12-17 16:49:58.437500
1339,131.18,2021-12-17 16:49:58.453125
1340,112.63,2021-12-17 16:49:58.468750
1341,98.78,2021-12-17 16:49:58.484375
1342,90.6,2021-12-17 16:49:58.500000
1343,86.59,2021-12-17 16:49:58.515625
1344,83.82,2021-12-17 16:49:58.531250
1345,79.48,2021-12-17 16:49:58.546875
1346,72.38,2021-12-17 16:49:58.562500
1347,63.17,2021-12-17 16:49:58.578125
1348,53.73,2021-12-17 16:49:58.593750
1349,45.83,2021-12-17 16:49:58.609375
1350,40.17,2021-12-17 16:49:58.625000
1351,36.29,2021-12-17 16:49:58.640625
1352,33.18,2021-12-17 16:49:58.656250
1353,30.18,2021-12-17 16:49:58.671875
1354,27.55,2021-12-17 16:49:58.687500
1355,26.24,2021-12-17 16:49:58.703125
1356,27.15,2021-12-17 16:49:58.718750
1357,30.3,2021-12-17 16:49:58.734375
1358,34.32,2021-12-17 16:49:58.750000
1359,36.83,2021-12-17 16:49:58.765625
1360,35.37,2021-12-17 16:49:58.781250
1361,28.67,2021-12-17 16:49:58.796875
1362,17.43,2021-12-17 16:49:58.812500
1363,4.22,2021-12-17 16:49:58.828125
1364,-7.45,2021-12-17 16:49:58.843750
1365,-14.67,2021-12-17 16:49:58.859375
1366,-16.28,2021-12-17 16:49:58.875000
1367,-13.43,2021-12-17 16:49:58.890625
1368,-8.81,2021-12-17 16:49:58.906250
1369,-5.32,2021-12-17 16:49:58.921875
1370,-4.66,2021-12-17 16:49:58.937500
1371,-6.66,2021-12-17 16:49:58.953125
1372,-9.73,2021-12-17 16:49:58.968750
1373,-11.94,2021-12-17 16:49:58.984375
1374,-12.21,2021-12-17 16:49:59.000000
1375,-10.79,2021-12-17 16:49:59.015625
1376,-8.96,2021-12-17 16:49:59.031250
1377,-8.19,2021-12-17 16:49:59.046875
1378,-9.32,2021-12-17 16:49:59.062500
1379,-12.2,2021-12-17 16:49:59.078125
1380,-15.88,2021-12-17 16:49:59.093750
1381,-19.19,2021-12-17 16:49:59.109375
1382,-21.28,2021-12-17 16:49:59.125000
1383,-21.83,2021-12-17 16:49:59.140625
1384,-21.04,2021-12-17 16:49:59.156250
1385,-19.21,2021-12-17 16:49:59.171875
1386,-16.56,2021-12-17 16:49:59.187500
1387,-13.17,2021-12-17 16:49:59.203125
1388,-9.1,2021-12-17 16:49:59.218750
1389,-4.51,2021-12-17 16:49:59.234375
1390,0.16,2021-12-17 16:49:59.250000
1391,4.34,2021-12-17 16:49:59.265625
1392,7.47,2021-12-17 16:49:59.281250
1393,9.19,2021-12-17 16:49:59.296875
1394,9.42,2021-12-17 16:49:59.312500
1395,8.47,2021-12-17 16:49:59.328125
1396,6.74,2021-12-17 16:49:59.343750
1397,4.57,2021-12-17 16:49:59.359375
1398,2.07,2021-12-17 16:49:59.375000
1399,-0.89,2021-12-17 16:49:59.390625
1400,-4.51,2021-12-17 16:49:59.406250
1401,-8.79,2021-12-17 16:49:59.421875
1402,-13.49,2021-12-17 16:49:59.437500
1403,-18.15,2021-12-17 16:49:59.453125
1404,-22.31,2021-12-17 16:49:59.468750
1405,-25.89,2021-12-17 16:49:59.484375
1406,-29.4,2021-12-17 16:49:59.500000
1407,-33.87,2021-12-17 16:49:59.515625
1408,-40.55,2021-12-17 16:49:59.531250
1409,-50.31,2021-12-17 16:49:59.546875
1410,-63.07,2021-12-17 16:49:59.562500
1411,-77.55,2021-12-17 16:49:59.578125
1412,-91.51,2021-12-17 16:49:59.593750
1413,-102.34,2021-12-17 16:49:59.609375
1414,-108.22,2021-12-17 16:49:59.625000
1415,-109.11,2021-12-17 16:49:59.640625
1416,-107.28,2021-12-17 16:49:59.656250
1417,-106.55,2021-12-17 16:49:59.671875
1418,-110.83,2021-12-17 16:49:59.687500
1419,-122.04,2021-12-17 16:49:59.703125
1420,-138.75,2021-12-17 16:49:59.718750
1421,-156.21,2021-12-17 16:49:59.734375
1422,-167.8,2021-12-17 16:49:59.750000
1423,-167.32,2021-12-17 16:49:59.765625
1424,-150.75,2021-12-17 16:49:59.781250
1425,-117.26,2021-12-17 16:49:59.796875
1426,-69.44,2021-12-17 16:49:59.812500
1427,-12.95,2021-12-17 16:49:59.828125
1428,44.06,2021-12-17 16:49:59.843750
1429,91.85,2021-12-17 16:49:59.859375
1430,120.91,2021-12-17 16:49:59.875000
1431,124.71,2021-12-17 16:49:59.890625
1432,102.84,2021-12-17 16:49:59.906250
1433,62.84,2021-12-17 16:49:59.921875
1434,18.89,2021-12-17 16:49:59.937500
1435,-12.56,2021-12-17 16:49:59.953125
1436,-18.98,2021-12-17 16:49:59.968750
1437,3.43,2021-12-17 16:49:59.984375
1438,48.44,2021-12-17 16:50:00.000000
1439,103.01,2021-12-17 16:50:00.015625
1440,152.99,2021-12-17 16:50:00.031250
1441,188.4,2021-12-17 16:50:00.046875
1442,206.26,2021-12-17 16:50:00.062500
1443,209.5,2021-12-17 16:50:00.078125
1444,203.6,2021-12-17 16:50:00.093750
1445,193.27,2021-12-17 16:50:00.109375
1446,180.99,2021-12-17 16:50:00.125000
1447,167.78,2021-12-17 16:50:00.140625
1448,154.9,2021-12-17 16:50:00.156250
1449,144.91,2021-12-17 16:50:00.171875
1450,140.31,2021-12-17 16:50:00.187500
1451,141.35,2021-12-17 16:50:00.203125
1452,144.41,2021-12-17 16:50:00.218750
1453,143.01,2021-12-17 16:50:00.234375
1454,131.19,2021-12-17 16:50:00.250000
1455,107.2,2021-12-17 16:50:00.265625
1456,75.21,2021-12-17 16:50:00.281250
1457,43.43,2021-12-17 16:50:00.296875
1458,19.57,2021-12-17 16:50:00.312500
1459,6.32,2021-12-17 16:50:00.328125
1460,0.11,2021-12-17 16:50:00.343750
1461,-6.48,2021-12-17 16:50:00.359375
1462,-19.69,2021-12-17 16:50:00.375000
1463,-40.58,2021-12-17 16:50:00.390625
1464,-64.44,2021-12-17 16:50:00.406250
1465,-83.76,2021-12-17 16:50:00.421875
1466,-92.67,2021-12-17 16:50:00.437500
1467,-89.86,2021-12-17 16:50:00.453125
1468,-78.33,2021-12-17 16:50:00.468750
1469,-62.63,2021-12-17 16:50:00.484375
1470,-46.12,2021-12-17 16:50:00.500000
1471,-29.84,2021-12-17 16:50:00.515625
1472,-13.47,2021-12-17 16:50:00.531250
1473,2.83,2021-12-17 16:50:00.546875
1474,17.49,2021-12-17 16:50:00.562500
1475,28.09,2021-12-17 16:50:00.578125
1476,33.06,2021-12-17 16:50:00.593750
1477,32.83,2021-12-17 16:50:00.609375
1478,29.79,2021-12-17 16:50:00.625000
1479,26.7,2021-12-17 16:50:00.640625
1480,24.89,2021-12-17 16:50:00.656250
1481,23.54,2021-12-17 16:50:00.671875
1482,20.26,2021-12-17 16:50:00.687500
1483,12.69,2021-12-17 16:50:00.703125
1484,-0.07,2021-12-17 16:50:00.718750
1485,-17.03,2021-12-17 16:50:00.734375
1486,-35.83,2021-12-17 16:50:00.750000
1487,-53.68,2021-12-17 16:50:00.765625
1488,-68.14,2021-12-17 16:50:00.781250
1489,-77.51,2021-12-17 16:50:00.796875
1490,-80.93,2021-12-17 16:50:00.812500
1491,-78.48,2021-12-17 16:50:00.828125
1492,-71.49,2021-12-17 16:50:00.843750
1493,-62.03,2021-12-17 16:50:00.859375
1494,-52.23,2021-12-17 16:50:00.875000
1495,-43.26,2021-12-17 16:50:00.890625
1496,-34.58,2021-12-17 16:50:00.906250
1497,-24.15,2021-12-17 16:50:00.921875
1498,-9.72,2021-12-17 16:50:00.937500
1499,9.32,2021-12-17 16:50:00.953125
1500,30.73,2021-12-17 16:50:00.968750
1501,49.87,2021-12-17 16:50:00.984375
1502,61.85,2021-12-17 16:50:01.000000
1503,63.83,2021-12-17 16:50:01.015625
1504,56.47,2021-12-17 16:50:01.031250
1505,43.45,2021-12-17 16:50:01.046875
1506,29.56,2021-12-17 16:50:01.062500
1507,18.58,2021-12-17 16:50:01.078125
1508,12.07,2021-12-17 16:50:01.093750
1509,9.55,2021-12-17 16:50:01.109375
1510,9.66,2021-12-17 16:50:01.125000
1511,11.19,2021-12-17 16:50:01.140625
1512,13.37,2021-12-17 16:50:01.156250
1513,15.58,2021-12-17 16:50:01.171875
1514,16.66,2021-12-17 16:50:01.187500
1515,14.97,2021-12-17 16:50:01.203125
1516,9.01,2021-12-17 16:50:01.218750
1517,-1.79,2021-12-17 16:50:01.234375
1518,-16.47,2021-12-17 16:50:01.250000
1519,-32.58,2021-12-17 16:50:01.265625
1520,-46.94,2021-12-17 16:50:01.281250
1521,-56.56,2021-12-17 16:50:01.296875
1522,-59.41,2021-12-17 16:50:01.312500
1523,-55.0,2021-12-17 16:50:01.328125
1524,-44.72,2021-12-17 16:50:01.343750
1525,-31.49,2021-12-17 16:50:01.359375
1526,-18.73,2021-12-17 16:50:01.375000
1527,-9.27,2021-12-17 16:50:01.390625
1528,-4.24,2021-12-17 16:50:01.406250
1529,-2.84,2021-12-17 16:50:01.421875
1530,-3.03,2021-12-17 16:50:01.437500
1531,-2.69,2021-12-17 16:50:01.453125
1532,-0.7,2021-12-17 16:50:01.468750
1533,2.75,2021-12-17 16:50:01.484375
1534,6.59,2021-12-17 16:50:01.500000
1535,9.76,2021-12-17 16:50:01.515625
1536,11.94,2021-12-17 16:50:01.531250
1537,13.67,2021-12-17 16:50:01.546875
1538,15.92,2021-12-17 16:50:01.562500
1539,19.51,2021-12-17 16:50:01.578125
1540,24.72,2021-12-17 16:50:01.593750
1541,31.28,2021-12-17 16:50:01.609375
1542,38.59,2021-12-17 16:50:01.625000
1543,46.1,2021-12-17 16:50:01.640625
1544,53.43,2021-12-17 16:50:01.656250
1545,60.49,2021-12-17 16:50:01.671875
1546,67.36,2021-12-17 16:50:01.687500
1547,74.22,2021-12-17 16:50:01.703125
1548,81.24,2021-12-17 16:50:01.718750
1549,88.42,2021-12-17 16:50:01.734375
1550,95.38,2021-12-17 16:50:01.750000
1551,101.33,2021-12-17 16:50:01.765625
1552,105.17,2021-12-17 16:50:01.781250
1553,105.85,2021-12-17 16:50:01.796875
1554,102.92,2021-12-17 16:50:01.812500
1555,96.79,2021-12-17 16:50:01.828125
1556,88.78,2021-12-17 16:50:01.843750
1557,80.95,2021-12-17 16:50:01.859375
1558,75.57,2021-12-17 16:50:01.875000
1559,74.63,2021-12-17 16:50:01.890625
1560,79.24,2021-12-17 16:50:01.906250
1561,89.01,2021-12-17 16:50:01.921875
1562,101.67,2021-12-17 16:50:01.937500
1563,113.24,2021-12-17 16:50:01.953125
1564,119.02,2021-12-17 16:50:01.968750
1565,115.29,2021-12-17 16:50:01.984375
1566,100.97,2021-12-17 16:50:02.000000
1567,78.21,2021-12-17 16:50:02.015625
1568,51.59,2021-12-17 16:50:02.031250
1569,25.97,2021-12-17 16:50:02.046875
1570,4.32,2021-12-17 16:50:02.062500
1571,-13.51,2021-12-17 16:50:02.078125
1572,-29.93,2021-12-17 16:50:02.093750
1573,-47.46,2021-12-17 16:50:02.109375
1574,-66.53,2021-12-17 16:50:02.125000
1575,-84.7,2021-12-17 16:50:02.140625
1576,-97.88,2021-12-17 16:50:02.156250
1577,-102.6,2021-12-17 16:50:02.171875
1578,-98.04,2021-12-17 16:50:02.187500
1579,-86.33,2021-12-17 16:50:02.203125
1580,-71.22,2021-12-17 16:50:02.218750
1581,-56.04,2021-12-17 16:50:02.234375
1582,-42.22,2021-12-17 16:50:02.250000
1583,-29.13,2021-12-17 16:50:02.265625
1584,-15.25,2021-12-17 16:50:02.281250
1585,0.1,2021-12-17 16:50:02.296875
1586,16.12,2021-12-17 16:50:02.312500
1587,30.74,2021-12-17 16:50:02.328125
1588,41.69,2021-12-17 16:50:02.343750
1589,47.84,2021-12-17 16:50:02.359375
1590,49.89,2021-12-17 16:50:02.375000
1591,50.25,2021-12-17 16:50:02.390625
1592,52.21,2021-12-17 16:50:02.406250
1593,58.42,2021-12-17 16:50:02.421875
1594,69.36,2021-12-17 16:50:02.437500
1595,82.5,2021-12-17 16:50:02.453125
1596,92.74,2021-12-17 16:50:02.468750
1597,94.45,2021-12-17 16:50:02.484375
1598,84.39,2021-12-17 16:50:02.500000
1599,63.77,2021-12-17 16:50:02.515625
1600,38.33,2021-12-17 16:50:02.531250
1601,15.96,2021-12-17 16:50:02.546875
1602,2.86,2021-12-17 16:50:02.562500
1603,0.41,2021-12-17 16:50:02.578125
1604,4.67,2021-12-17 16:50:02.593750
1605,9.03,2021-12-17 16:50:02.609375
1606,8.34,2021-12-17 16:50:02.625000
1607,2.06,2021-12-17 16:50:02.640625
1608,-5.66,2021-12-17 16:50:02.656250
1609,-9.0,2021-12-17 16:50:02.671875
1610,-4.71,2021-12-17 16:50:02.687500
1611,5.39,2021-12-17 16:50:02.703125
1612,15.21,2021-12-17 16:50:02.718750
1613,17.97,2021-12-17 16:50:02.734375
1614,10.33,2021-12-17 16:50:02.750000
1615,-5.51,2021-12-17 16:50:02.765625
1616,-23.06,2021-12-17 16:50:02.781250
1617,-35.56,2021-12-17 16:50:02.796875
1618,-40.0,2021-12-17 16:50:02.812500
1619,-38.79,2021-12-17 16:50:02.828125
1620,-38.17,2021-12-17 16:50:02.843750
1621,-44.16,2021-12-17 16:50:02.859375
1622,-58.92,2021-12-17 16:50:02.875000
1623,-79.27,2021-12-17 16:50:02.890625
1624,-98.5,2021-12-17 16:50:02.906250
1625,-109.76,2021-12-17 16:50:02.921875
1626,-109.25,2021-12-17 16:50:02.937500
1627,-97.38,2021-12-17 16:50:02.953125
1628,-77.86,2021-12-17 16:50:02.968750
1629,-55.52,2021-12-17 16:50:02.984375
1630,-34.23,2021-12-17 16:50:03.000000
1631,-16.17,2021-12-17 16:50:03.015625
1632,-2.24,2021-12-17 16:50:03.031250
1633,7.19,2021-12-17 16:50:03.046875
1634,11.95,2021-12-17 16:50:03.062500
1635,12.14,2021-12-17 16:50:03.078125
1636,8.39,2021-12-17 16:50:03.093750
1637,1.97,2021-12-17 16:50:03.109375
1638,-5.55,2021-12-17 16:50:03.125000
1639,-12.67,2021-12-17 16:50:03.140625
1640,-18.52,2021-12-17 16:50:03.156250
1641,-23.11,2021-12-17 16:50:03.171875
1642,-27.55,2021-12-17 16:50:03.187500
1643,-33.68,2021-12-17 16:50:03.203125
1644,-43.47,2021-12-17 16:50:03.218750
1645,-57.98,2021-12-17 16:50:03.234375
1646,-76.57,2021-12-17 16:50:03.250000
1647,-96.64,2021-12-17 16:50:03.265625
1648,-114.29,2021-12-17 16:50:03.281250
1649,-125.74,2021-12-17 16:50:03.296875
1650,-128.85,2021-12-17 16:50:03.312500
1651,-123.94,2021-12-17 16:50:03.328125
1652,-113.54,2021-12-17 16:50:03.343750
1653,-101.26,2021-12-17 16:50:03.359375
1654,-90.38,2021-12-17 16:50:03.375000
1655,-82.99,2021-12-17 16:50:03.390625
1656,-79.74,2021-12-17 16:50:03.406250
1657,-80.07,2021-12-17 16:50:03.421875
1658,-82.43,2021-12-17 16:50:03.437500
1659,-84.59,2021-12-17 16:50:03.453125
1660,-83.82,2021-12-17 16:50:03.468750
1661,-77.58,2021-12-17 16:50:03.484375
1662,-64.25,2021-12-17 16:50:03.500000
1663,-43.92,2021-12-17 16:50:03.515625
1664,-18.85,2021-12-17 16:50:03.531250
1665,6.86,2021-12-17 16:50:03.546875
1666,28.02,2021-12-17 16:50:03.562500
1667,39.61,2021-12-17 16:50:03.578125
1668,38.21,2021-12-17 16:50:03.593750
1669,23.4,2021-12-17 16:50:03.609375
1670,-1.72,2021-12-17 16:50:03.625000
1671,-31.02,2021-12-17 16:50:03.640625
1672,-57.08,2021-12-17 16:50:03.656250
1673,-73.49,2021-12-17 16:50:03.671875
1674,-76.78,2021-12-17 16:50:03.687500
1675,-67.34,2021-12-17 16:50:03.703125
1676,-48.6,2021-12-17 16:50:03.718750
1677,-25.35,2021-12-17 16:50:03.734375
1678,-1.97,2021-12-17 16:50:03.750000
1679,18.36,2021-12-17 16:50:03.765625
1680,33.51,2021-12-17 16:50:03.781250
1681,42.01,2021-12-17 16:50:03.796875
1682,43.07,2021-12-17 16:50:03.812500
1683,36.95,2021-12-17 16:50:03.828125
1684,25.34,2021-12-17 16:50:03.843750
1685,11.2,2021-12-17 16:50:03.859375
1686,-2.1,2021-12-17 16:50:03.875000
1687,-11.97,2021-12-17 16:50:03.890625
1688,-17.46,2021-12-17 16:50:03.906250
1689,-19.28,2021-12-17 16:50:03.921875
1690,-19.25,2021-12-17 16:50:03.937500
1691,-19.56,2021-12-17 16:50:03.953125
1692,-22.29,2021-12-17 16:50:03.968750
1693,-29.02,2021-12-17 16:50:03.984375
1694,-40.52,2021-12-17 16:50:04.000000
1695,-56.12,2021-12-17 16:50:04.015625
1696,-73.2,2021-12-17 16:50:04.031250
1697,-87.34,2021-12-17 16:50:04.046875
1698,-93.58,2021-12-17 16:50:04.062500
1699,-88.45,2021-12-17 16:50:04.078125
1700,-71.76,2021-12-17 16:50:04.093750
1701,-46.94,2021-12-17 16:50:04.109375
1702,-19.62,2021-12-17 16:50:04.125000
1703,4.75,2021-12-17 16:50:04.140625
1704,22.83,2021-12-17 16:50:04.156250
1705,34.14,2021-12-17 16:50:04.171875
1706,40.35,2021-12-17 16:50:04.187500
1707,43.85,2021-12-17 16:50:04.203125
1708,46.53,2021-12-17 16:50:04.218750
1709,49.18,2021-12-17 16:50:04.234375
1710,51.74,2021-12-17 16:50:04.250000
1711,53.93,2021-12-17 16:50:04.265625
1712,55.53,2021-12-17 16:50:04.281250
1713,56.31,2021-12-17 16:50:04.296875
1714,55.78,2021-12-17 16:50:04.312500
1715,53.11,2021-12-17 16:50:04.328125
1716,47.57,2021-12-17 16:50:04.343750
1717,39.27,2021-12-17 16:50:04.359375
1718,29.51,2021-12-17 16:50:04.375000
1719,20.67,2021-12-17 16:50:04.390625
1720,15.24,2021-12-17 16:50:04.406250
1721,14.83,2021-12-17 16:50:04.421875
1722,19.45,2021-12-17 16:50:04.437500
1723,27.48,2021-12-17 16:50:04.453125
1724,36.46,2021-12-17 16:50:04.468750
1725,44.14,2021-12-17 16:50:04.484375
1726,49.3,2021-12-17 16:50:04.500000
1727,51.9,2021-12-17 16:50:04.515625
1728,52.62,2021-12-17 16:50:04.531250
1729,51.98,2021-12-17 16:50:04.546875
1730,49.87,2021-12-17 16:50:04.562500
1731,45.64,2021-12-17 16:50:04.578125
1732,38.66,2021-12-17 16:50:04.593750
1733,28.99,2021-12-17 16:50:04.609375
1734,17.53,2021-12-17 16:50:04.625000
1735,5.74,2021-12-17 16:50:04.640625
1736,-4.95,2021-12-17 16:50:04.656250
1737,-13.65,2021-12-17 16:50:04.671875
1738,-20.25,2021-12-17 16:50:04.687500
1739,-25.45,2021-12-17 16:50:04.703125
1740,-30.6,2021-12-17 16:50:04.718750
1741,-37.28,2021-12-17 16:50:04.734375
1742,-46.85,2021-12-17 16:50:04.750000
1743,-59.83,2021-12-17 16:50:04.765625
1744,-75.5,2021-12-17 16:50:04.781250
1745,-91.92,2021-12-17 16:50:04.796875
1746,-106.44,2021-12-17 16:50:04.812500
1747,-116.61,2021-12-17 16:50:04.828125
1748,-120.98,2021-12-17 16:50:04.843750
1749,-119.44,2021-12-17 16:50:04.859375
1750,-113.01,2021-12-17 16:50:04.875000
1751,-103.24,2021-12-17 16:50:04.890625
1752,-91.7,2021-12-17 16:50:04.906250
1753,-79.71,2021-12-17 16:50:04.921875
1754,-68.41,2021-12-17 16:50:04.937500
1755,-58.94,2021-12-17 16:50:04.953125
1756,-52.15,2021-12-17 16:50:04.968750
1757,-48.42,2021-12-17 16:50:04.984375
1758,-47.2,2021-12-17 16:50:05.000000
1759,-47.02,2021-12-17 16:50:05.015625
1760,-45.79,2021-12-17 16:50:05.031250
1761,-41.47,2021-12-17 16:50:05.046875
1762,-32.62,2021-12-17 16:50:05.062500
1763,-18.84,2021-12-17 16:50:05.078125
1764,-0.86,2021-12-17 16:50:05.093750
1765,19.78,2021-12-17 16:50:05.109375
1766,41.2,2021-12-17 16:50:05.125000
1767,61.61,2021-12-17 16:50:05.140625
1768,79.76,2021-12-17 16:50:05.156250
1769,95.06,2021-12-17 16:50:05.171875
1770,107.44,2021-12-17 16:50:05.187500
1771,117.07,2021-12-17 16:50:05.203125
1772,123.85,2021-12-17 16:50:05.218750
1773,127.29,2021-12-17 16:50:05.234375
1774,126.52,2021-12-17 16:50:05.250000
1775,120.71,2021-12-17 16:50:05.265625
1776,109.67,2021-12-17 16:50:05.281250
1777,94.18,2021-12-17 16:50:05.296875
1778,76.08,2021-12-17 16:50:05.312500
1779,57.75,2021-12-17 16:50:05.328125
1780,41.46,2021-12-17 16:50:05.343750
1781,28.65,2021-12-17 16:50:05.359375
1782,19.61,2021-12-17 16:50:05.375000
1783,13.63,2021-12-17 16:50:05.390625
1784,9.5,2021-12-17 16:50:05.406250
1785,6.02,2021-12-17 16:50:05.421875
1786,2.4,2021-12-17 16:50:05.437500
1787,-1.61,2021-12-17 16:50:05.453125
1788,-5.71,2021-12-17 16:50:05.468750
1789,-9.11,2021-12-17 16:50:05.484375
1790,-10.81,2021-12-17 16:50:05.500000
1791,-9.75,2021-12-17 16:50:05.515625
1792,-5.3,2021-12-17 16:50:05.531250
1793,2.52,2021-12-17 16:50:05.546875
1794,12.89,2021-12-17 16:50:05.562500
1795,24.29,2021-12-17 16:50:05.578125
1796,34.93,2021-12-17 16:50:05.593750
1797,43.23,2021-12-17 16:50:05.609375
1798,48.26,2021-12-17 16:50:05.625000
1799,49.97,2021-12-17 16:50:05.640625
1800,49.09,2021-12-17 16:50:05.656250
1801,46.83,2021-12-17 16:50:05.671875
1802,44.42,2021-12-17 16:50:05.687500
1803,42.75,2021-12-17 16:50:05.703125
1804,42.18,2021-12-17 16:50:05.718750
1805,42.5,2021-12-17 16:50:05.734375
1806,43.12,2021-12-17 16:50:05.750000
1807,43.25,2021-12-17 16:50:05.765625
1808,42.16,2021-12-17 16:50:05.781250
1809,39.37,2021-12-17 16:50:05.796875
1810,34.72,2021-12-17 16:50:05.812500
1811,28.26,2021-12-17 16:50:05.828125
1812,20.27,2021-12-17 16:50:05.843750
1813,11.16,2021-12-17 16:50:05.859375
1814,1.46,2021-12-17 16:50:05.875000
1815,-8.21,2021-12-17 16:50:05.890625
1816,-17.22,2021-12-17 16:50:05.906250
1817,-25.07,2021-12-17 16:50:05.921875
1818,-31.39,2021-12-17 16:50:05.937500
1819,-35.99,2021-12-17 16:50:05.953125
1820,-38.79,2021-12-17 16:50:05.968750
1821,-39.86,2021-12-17 16:50:05.984375
1822,-39.41,2021-12-17 16:50:06.000000
1823,-37.9,2021-12-17 16:50:06.015625
1824,-35.95,2021-12-17 16:50:06.031250
1825,-34.19,2021-12-17 16:50:06.046875
1826,-33.12,2021-12-17 16:50:06.062500
1827,-32.87,2021-12-17 16:50:06.078125
1828,-33.31,2021-12-17 16:50:06.093750
1829,-34.14,2021-12-17 16:50:06.109375
1830,-35.14,2021-12-17 16:50:06.125000
1831,-36.26,2021-12-17 16:50:06.140625
1832,-37.61,2021-12-17 16:50:06.156250
1833,-39.25,2021-12-17 16:50:06.171875
1834,-41.11,2021-12-17 16:50:06.187500
1835,-42.93,2021-12-17 16:50:06.203125
1836,-44.42,2021-12-17 16:50:06.218750
1837,-45.44,2021-12-17 16:50:06.234375
1838,-46.1,2021-12-17 16:50:06.250000
1839,-46.59,2021-12-17 16:50:06.265625
1840,-47.05,2021-12-17 16:50:06.281250
1841,-47.4,2021-12-17 16:50:06.296875
1842,-47.36,2021-12-17 16:50:06.312500
1843,-46.7,2021-12-17 16:50:06.328125
1844,-45.44,2021-12-17 16:50:06.343750
1845,-43.84,2021-12-17 16:50:06.359375
1846,-42.32,2021-12-17 16:50:06.375000
1847,-41.12,2021-12-17 16:50:06.390625
1848,-39.96,2021-12-17 16:50:06.406250
1849,-38.19,2021-12-17 16:50:06.421875
1850,-35.08,2021-12-17 16:50:06.437500
1851,-30.22,2021-12-17 16:50:06.453125
1852,-23.76,2021-12-17 16:50:06.468750
1853,-16.33,2021-12-17 16:50:06.484375
1854,-8.84,2021-12-17 16:50:06.500000
1855,-2.13,2021-12-17 16:50:06.515625
1856,3.19,2021-12-17 16:50:06.531250
1857,6.77,2021-12-17 16:50:06.546875
1858,8.5,2021-12-17 16:50:06.562500
1859,8.4,2021-12-17 16:50:06.578125
1860,6.79,2021-12-17 16:50:06.593750
1861,4.3,2021-12-17 16:50:06.609375
1862,1.99,2021-12-17 16:50:06.625000
1863,1.05,2021-12-17 16:50:06.640625
1864,2.36,2021-12-17 16:50:06.656250
1865,6.02,2021-12-17 16:50:06.671875
1866,11.08,2021-12-17 16:50:06.687500
1867,15.66,2021-12-17 16:50:06.703125
1868,17.63,2021-12-17 16:50:06.718750
1869,15.45,2021-12-17 16:50:06.734375
1870,8.83,2021-12-17 16:50:06.750000
1871,-1.12,2021-12-17 16:50:06.765625
1872,-12.26,2021-12-17 16:50:06.781250
1873,-22.19,2021-12-17 16:50:06.796875
1874,-29.06,2021-12-17 16:50:06.812500
1875,-31.96,2021-12-17 16:50:06.828125
1876,-31.02,2021-12-17 16:50:06.843750
1877,-27.11,2021-12-17 16:50:06.859375
1878,-21.53,2021-12-17 16:50:06.875000
1879,-15.81,2021-12-17 16:50:06.890625
1880,-11.5,2021-12-17 16:50:06.906250
1881,-9.95,2021-12-17 16:50:06.921875
1882,-12.11,2021-12-17 16:50:06.937500
1883,-18.02,2021-12-17 16:50:06.953125
1884,-26.59,2021-12-17 16:50:06.968750
1885,-35.53,2021-12-17 16:50:06.984375
1886,-41.63,2021-12-17 16:50:07.000000
1887,-41.39,2021-12-17 16:50:07.015625
1888,-31.97,2021-12-17 16:50:07.031250
1889,-12.32,2021-12-17 16:50:07.046875
1890,16.11,2021-12-17 16:50:07.062500
1891,49.55,2021-12-17 16:50:07.078125
1892,82.97,2021-12-17 16:50:07.093750
1893,111.96,2021-12-17 16:50:07.109375
1894,134.12,2021-12-17 16:50:07.125000
1895,149.37,2021-12-17 16:50:07.140625
1896,158.91,2021-12-17 16:50:07.156250
1897,163.77,2021-12-17 16:50:07.171875
1898,163.83,2021-12-17 16:50:07.187500
1899,158.17,2021-12-17 16:50:07.203125
1900,146.09,2021-12-17 16:50:07.218750
1901,128.29,2021-12-17 16:50:07.234375
1902,106.83,2021-12-17 16:50:07.250000
1903,84.15,2021-12-17 16:50:07.265625
1904,61.43,2021-12-17 16:50:07.281250
1905,37.88,2021-12-17 16:50:07.296875
1906,11.42,2021-12-17 16:50:07.312500
1907,-19.53,2021-12-17 16:50:07.328125
1908,-54.01,2021-12-17 16:50:07.343750
1909,-88.02,2021-12-17 16:50:07.359375
1910,-115.86,2021-12-17 16:50:07.375000
1911,-132.54,2021-12-17 16:50:07.390625
1912,-135.97,2021-12-17 16:50:07.406250
1913,-128.03,2021-12-17 16:50:07.421875
1914,-113.65,2021-12-17 16:50:07.437500
1915,-98.87,2021-12-17 16:50:07.453125
1916,-88.61,2021-12-17 16:50:07.468750
1917,-85.3,2021-12-17 16:50:07.484375
1918,-88.63,2021-12-17 16:50:07.500000
1919,-96.52,2021-12-17 16:50:07.515625
1920,-106.45,2021-12-17 16:50:07.531250
1921,-116.53,2021-12-17 16:50:07.546875
1922,-125.74,2021-12-17 16:50:07.562500
1923,-133.46,2021-12-17 16:50:07.578125
1924,-138.97,2021-12-17 16:50:07.593750
1925,-141.18,2021-12-17 16:50:07.609375
1926,-138.97,2021-12-17 16:50:07.625000
1927,-131.8,2021-12-17 16:50:07.640625
1928,-120.02,2021-12-17 16:50:07.656250
1929,-104.91,2021-12-17 16:50:07.671875
1930,-88.22,2021-12-17 16:50:07.687500
1931,-71.55,2021-12-17 16:50:07.703125
1932,-55.82,2021-12-17 16:50:07.718750
1933,-41.1,2021-12-17 16:50:07.734375
1934,-26.56,2021-12-17 16:50:07.750000
1935,-10.9,2021-12-17 16:50:07.765625
1936,7.1,2021-12-17 16:50:07.781250
1937,27.84,2021-12-17 16:50:07.796875
1938,50.55,2021-12-17 16:50:07.812500
1939,73.21,2021-12-17 16:50:07.828125
1940,93.34,2021-12-17 16:50:07.843750
1941,108.83,2021-12-17 16:50:07.859375
1942,118.56,2021-12-17 16:50:07.875000
1943,122.47,2021-12-17 16:50:07.890625
1944,121.1,2021-12-17 16:50:07.906250
1945,114.89,2021-12-17 16:50:07.921875
1946,103.96,2021-12-17 16:50:07.937500
1947,88.52,2021-12-17 16:50:07.953125
1948,69.58,2021-12-17 16:50:07.968750
1949,49.33,2021-12-17 16:50:07.984375
1950,30.75,2021-12-17 16:50:08.000000
1951,16.68,2021-12-17 16:50:08.015625
1952,8.69,2021-12-17 16:50:08.031250
1953,6.63,2021-12-17 16:50:08.046875
1954,8.88,2021-12-17 16:50:08.062500
1955,13.23,2021-12-17 16:50:08.078125
1956,17.75,2021-12-17 16:50:08.093750
1957,21.4,2021-12-17 16:50:08.109375
1958,24.08,2021-12-17 16:50:08.125000
1959,26.26,2021-12-17 16:50:08.140625
1960,28.67,2021-12-17 16:50:08.156250
1961,31.71,2021-12-17 16:50:08.171875
1962,35.25,2021-12-17 16:50:08.187500
1963,38.7,2021-12-17 16:50:08.203125
1964,41.28,2021-12-17 16:50:08.218750
1965,42.41,2021-12-17 16:50:08.234375
1966,41.87,2021-12-17 16:50:08.250000
1967,39.8,2021-12-17 16:50:08.265625
1968,36.53,2021-12-17 16:50:08.281250
1969,32.56,2021-12-17 16:50:08.296875
1970,28.45,2021-12-17 16:50:08.312500
1971,24.9,2021-12-17 16:50:08.328125
1972,22.72,2021-12-17 16:50:08.343750
1973,22.52,2021-12-17 16:50:08.359375
1974,24.46,2021-12-17 16:50:08.375000
1975,28.08,2021-12-17 16:50:08.390625
1976,32.38,2021-12-17 16:50:08.406250
1977,36.13,2021-12-17 16:50:08.421875
1978,38.28,2021-12-17 16:50:08.437500
1979,38.18,2021-12-17 16:50:08.453125
1980,35.57,2021-12-17 16:50:08.468750
1981,30.52,2021-12-17 16:50:08.484375
1982,23.32,2021-12-17 16:50:08.500000
1983,14.39,2021-12-17 16:50:08.515625
1984,4.36,2021-12-17 16:50:08.531250
1985,-5.93,2021-12-17 16:50:08.546875
1986,-15.48,2021-12-17 16:50:08.562500
1987,-23.2,2021-12-17 16:50:08.578125
1988,-28.15,2021-12-17 16:50:08.593750
1989,-29.8,2021-12-17 16:50:08.609375
1990,-28.23,2021-12-17 16:50:08.625000
1991,-24.13,2021-12-17 16:50:08.640625
1992,-18.67,2021-12-17 16:50:08.656250
1993,-13.14,2021-12-17 16:50:08.671875
1994,-8.63,2021-12-17 16:50:08.687500
1995,-5.88,2021-12-17 16:50:08.703125
1996,-5.14,2021-12-17 16:50:08.718750
1997,-6.31,2021-12-17 16:50:08.734375
1998,-9.0,2021-12-17 16:50:08.750000
1999,-12.47,2021-12-17 16:50:08.765625
2000,-15.53,2021-12-17 16:50:08.781250
2001,-16.83,2021-12-17 16:50:08.796875
2002,-15.36,2021-12-17 16:50:08.812500
2003,-11.19,2021-12-17 16:50:08.828125
2004,-5.74,2021-12-17 16:50:08.843750
2005,-1.41,2021-12-17 16:50:08.859375
2006,-0.59,2021-12-17 16:50:08.875000
2007,-4.61,2021-12-17 16:50:08.890625
2008,-13.3,2021-12-17 16:50:08.906250
2009,-25.13,2021-12-17 16:50:08.921875
2010,-37.99,2021-12-17 16:50:08.937500
2011,-49.83,2021-12-17 16:50:08.953125
2012,-58.96,2021-12-17 16:50:08.968750
2013,-63.95,2021-12-17 16:50:08.984375
2014,-63.56,2021-12-17 16:50:09.000000
2015,-57.07,2021-12-17 16:50:09.015625
2016,-44.92,2021-12-17 16:50:09.031250
2017,-29.01,2021-12-17 16:50:09.046875
2018,-12.56,2021-12-17 16:50:09.062500
2019,0.96,2021-12-17 16:50:09.078125
2020,9.04,2021-12-17 16:50:09.093750
2021,10.92,2021-12-17 16:50:09.109375
2022,7.47,2021-12-17 16:50:09.125000
2023,0.4,2021-12-17 16:50:09.140625
2024,-8.74,2021-12-17 16:50:09.156250
2025,-18.95,2021-12-17 16:50:09.171875
2026,-29.53,2021-12-17 16:50:09.187500
2027,-39.68,2021-12-17 16:50:09.203125
2028,-48.27,2021-12-17 16:50:09.218750
2029,-54.12,2021-12-17 16:50:09.234375
2030,-56.65,2021-12-17 16:50:09.250000
2031,-56.13,2021-12-17 16:50:09.265625
2032,-53.53,2021-12-17 16:50:09.281250
2033,-49.9,2021-12-17 16:50:09.296875
2034,-45.65,2021-12-17 16:50:09.312500
2035,-40.2,2021-12-17 16:50:09.328125
2036,-32.4,2021-12-17 16:50:09.343750
2037,-21.36,2021-12-17 16:50:09.359375
2038,-7.34,2021-12-17 16:50:09.375000
2039,7.97,2021-12-17 16:50:09.390625
2040,22.07,2021-12-17 16:50:09.406250
2041,32.78,2021-12-17 16:50:09.421875
2042,39.29,2021-12-17 16:50:09.437500
2043,42.4,2021-12-17 16:50:09.453125
2044,43.87,2021-12-17 16:50:09.468750
2045,45.22,2021-12-17 16:50:09.484375
2046,46.88,2021-12-17 16:50:09.500000
2047,48.02,2021-12-17 16:50:09.515625
2048,47.3,2021-12-17 16:50:09.531250
2049,43.81,2021-12-17 16:50:09.546875
2050,37.81,2021-12-17 16:50:09.562500
2051,30.74,2021-12-17 16:50:09.578125
2052,24.47,2021-12-17 16:50:09.593750
2053,20.43,2021-12-17 16:50:09.609375
2054,19.01,2021-12-17 16:50:09.625000
2055,19.69,2021-12-17 16:50:09.640625
2056,21.49,2021-12-17 16:50:09.656250
2057,23.63,2021-12-17 16:50:09.671875
2058,25.71,2021-12-17 16:50:09.687500
2059,27.64,2021-12-17 16:50:09.703125
2060,29.32,2021-12-17 16:50:09.718750
2061,30.5,2021-12-17 16:50:09.734375
2062,30.72,2021-12-17 16:50:09.750000
2063,29.53,2021-12-17 16:50:09.765625
2064,26.77,2021-12-17 16:50:09.781250
2065,22.69,2021-12-17 16:50:09.796875
2066,17.93,2021-12-17 16:50:09.812500
2067,13.42,2021-12-17 16:50:09.828125
2068,9.9,2021-12-17 16:50:09.843750
2069,7.75,2021-12-17 16:50:09.859375
2070,6.77,2021-12-17 16:50:09.875000
2071,6.28,2021-12-17 16:50:09.890625
2072,5.53,2021-12-17 16:50:09.906250
2073,4.02,2021-12-17 16:50:09.921875
2074,1.73,2021-12-17 16:50:09.937500
2075,-0.96,2021-12-17 16:50:09.953125
2076,-3.49,2021-12-17 16:50:09.968750
2077,-5.5,2021-12-17 16:50:09.984375
2078,-6.81,2021-12-17 16:50:10.000000
2079,-7.55,2021-12-17 16:50:10.015625
2080,-7.84,2021-12-17 16:50:10.031250
2081,-7.83,2021-12-17 16:50:10.046875
2082,-7.69,2021-12-17 16:50:10.062500
2083,-7.65,2021-12-17 16:50:10.078125
2084,-8.01,2021-12-17 16:50:10.093750
2085,-9.04,2021-12-17 16:50:10.109375
2086,-10.75,2021-12-17 16:50:10.125000
2087,-12.76,2021-12-17 16:50:10.140625
2088,-14.41,2021-12-17 16:50:10.156250
2089,-14.97,2021-12-17 16:50:10.171875
2090,-13.94,2021-12-17 16:50:10.187500
2091,-11.28,2021-12-17 16:50:10.203125
2092,-7.41,2021-12-17 16:50:10.218750
2093,-2.99,2021-12-17 16:50:10.234375
2094,1.21,2021-12-17 16:50:10.250000
2095,4.59,2021-12-17 16:50:10.265625
2096,6.81,2021-12-17 16:50:10.281250
2097,7.75,2021-12-17 16:50:10.296875
2098,7.6,2021-12-17 16:50:10.312500
2099,6.82,2021-12-17 16:50:10.328125
2100,6.0,2021-12-17 16:50:10.343750
2101,5.78,2021-12-17 16:50:10.359375
2102,6.55,2021-12-17 16:50:10.375000
2103,8.31,2021-12-17 16:50:10.390625
2104,10.62,2021-12-17 16:50:10.406250
2105,12.82,2021-12-17 16:50:10.421875
2106,14.18,2021-12-17 16:50:10.437500
2107,14.33,2021-12-17 16:50:10.453125
2108,13.33,2021-12-17 16:50:10.468750
2109,11.57,2021-12-17 16:50:10.484375
2110,9.69,2021-12-17 16:50:10.500000
2111,8.14,2021-12-17 16:50:10.515625
2112,6.95,2021-12-17 16:50:10.531250
2113,5.71,2021-12-17 16:50:10.546875
2114,3.66,2021-12-17 16:50:10.562500
2115,0.08,2021-12-17 16:50:10.578125
2116,-5.34,2021-12-17 16:50:10.593750
2117,-12.19,2021-12-17 16:50:10.609375
2118,-19.38,2021-12-17 16:50:10.625000
2119,-25.38,2021-12-17 16:50:10.640625
2120,-28.79,2021-12-17 16:50:10.656250
2121,-28.79,2021-12-17 16:50:10.671875
2122,-25.51,2021-12-17 16:50:10.687500
2123,-19.98,2021-12-17 16:50:10.703125
2124,-13.75,2021-12-17 16:50:10.718750
2125,-8.26,2021-12-17 16:50:10.734375
2126,-4.36,2021-12-17 16:50:10.750000
2127,-2.14,2021-12-17 16:50:10.765625
2128,-1.11,2021-12-17 16:50:10.781250
2129,-0.7,2021-12-17 16:50:10.796875
2130,-0.73,2021-12-17 16:50:10.812500
2131,-1.34,2021-12-17 16:50:10.828125
2132,-2.83,2021-12-17 16:50:10.843750
2133,-5.2,2021-12-17 16:50:10.859375
2134,-7.87,2021-12-17 16:50:10.875000
2135,-9.85,2021-12-17 16:50:10.890625
2136,-10.19,2021-12-17 16:50:10.906250
2137,-8.22,2021-12-17 16:50:10.921875
2138,-3.57,2021-12-17 16:50:10.937500
2139,4.01,2021-12-17 16:50:10.953125
2140,14.71,2021-12-17 16:50:10.968750
2141,28.15,2021-12-17 16:50:10.984375
2142,42.76,2021-12-17 16:50:11.000000
2143,55.71,2021-12-17 16:50:11.015625
2144,63.7,2021-12-17 16:50:11.031250
2145,64.57,2021-12-17 16:50:11.046875
2146,58.51,2021-12-17 16:50:11.062500
2147,48.26,2021-12-17 16:50:11.078125
2148,37.79,2021-12-17 16:50:11.093750
2149,30.32,2021-12-17 16:50:11.109375
2150,26.83,2021-12-17 16:50:11.125000
2151,26.03,2021-12-17 16:50:11.140625
2152,25.65,2021-12-17 16:50:11.156250
2153,24.12,2021-12-17 16:50:11.171875
2154,21.45,2021-12-17 16:50:11.187500
2155,18.85,2021-12-17 16:50:11.203125
2156,17.55,2021-12-17 16:50:11.218750
2157,17.7,2021-12-17 16:50:11.234375
2158,18.31,2021-12-17 16:50:11.250000
2159,17.9,2021-12-17 16:50:11.265625
2160,15.64,2021-12-17 16:50:11.281250
2161,11.8,2021-12-17 16:50:11.296875
2162,7.49,2021-12-17 16:50:11.312500
2163,4.01,2021-12-17 16:50:11.328125
2164,2.2,2021-12-17 16:50:11.343750
2165,2.04,2021-12-17 16:50:11.359375
2166,2.89,2021-12-17 16:50:11.375000
2167,3.77,2021-12-17 16:50:11.390625
2168,3.86,2021-12-17 16:50:11.406250
2169,2.7,2021-12-17 16:50:11.421875
2170,0.33,2021-12-17 16:50:11.437500
2171,-2.81,2021-12-17 16:50:11.453125
2172,-6.14,2021-12-17 16:50:11.468750
2173,-9.18,2021-12-17 16:50:11.484375
2174,-11.66,2021-12-17 16:50:11.500000
2175,-13.51,2021-12-17 16:50:11.515625
2176,-14.73,2021-12-17 16:50:11.531250
2177,-15.31,2021-12-17 16:50:11.546875
2178,-15.24,2021-12-17 16:50:11.562500
2179,-14.58,2021-12-17 16:50:11.578125
2180,-13.53,2021-12-17 16:50:11.593750
2181,-12.45,2021-12-17 16:50:11.609375
2182,-11.79,2021-12-17 16:50:11.625000
2183,-11.85,2021-12-17 16:50:11.640625
2184,-12.74,2021-12-17 16:50:11.656250
2185,-14.32,2021-12-17 16:50:11.671875
2186,-16.26,2021-12-17 16:50:11.687500
2187,-18.08,2021-12-17 16:50:11.703125
2188,-19.3,2021-12-17 16:50:11.718750
2189,-19.53,2021-12-17 16:50:11.734375
2190,-18.51,2021-12-17 16:50:11.750000
2191,-16.18,2021-12-17 16:50:11.765625
2192,-12.73,2021-12-17 16:50:11.781250
2193,-8.52,2021-12-17 16:50:11.796875
2194,-4.06,2021-12-17 16:50:11.812500
2195,0.18,2021-12-17 16:50:11.828125
2196,3.87,2021-12-17 16:50:11.843750
2197,6.81,2021-12-17 16:50:11.859375
2198,8.96,2021-12-17 16:50:11.875000
2199,10.31,2021-12-17 16:50:11.890625
2200,10.87,2021-12-17 16:50:11.906250
2201,10.74,2021-12-17 16:50:11.921875
2202,10.1,2021-12-17 16:50:11.937500
2203,9.25,2021-12-17 16:50:11.953125
2204,8.51,2021-12-17 16:50:11.968750
2205,8.06,2021-12-17 16:50:11.984375
2206,7.92,2021-12-17 16:50:12.000000
2207,7.94,2021-12-17 16:50:12.015625
2208,7.93,2021-12-17 16:50:12.031250
2209,7.82,2021-12-17 16:50:12.046875
2210,7.73,2021-12-17 16:50:12.062500
2211,7.89,2021-12-17 16:50:12.078125
2212,8.5,2021-12-17 16:50:12.093750
2213,9.48,2021-12-17 16:50:12.109375
2214,10.43,2021-12-17 16:50:12.125000
2215,10.78,2021-12-17 16:50:12.140625
2216,10.07,2021-12-17 16:50:12.156250
2217,8.19,2021-12-17 16:50:12.171875
2218,5.41,2021-12-17 16:50:12.187500
2219,2.24,2021-12-17 16:50:12.203125
2220,-0.82,2021-12-17 16:50:12.218750
2221,-3.52,2021-12-17 16:50:12.234375
2222,-5.8,2021-12-17 16:50:12.250000
2223,-7.81,2021-12-17 16:50:12.265625
2224,-9.68,2021-12-17 16:50:12.281250
2225,-11.42,2021-12-17 16:50:12.296875
2226,-12.98,2021-12-17 16:50:12.312500
2227,-14.34,2021-12-17 16:50:12.328125
2228,-15.62,2021-12-17 16:50:12.343750
2229,-17.03,2021-12-17 16:50:12.359375
2230,-18.76,2021-12-17 16:50:12.375000
2231,-20.81,2021-12-17 16:50:12.390625
2232,-22.91,2021-12-17 16:50:12.406250
2233,-24.62,2021-12-17 16:50:12.421875
2234,-25.46,2021-12-17 16:50:12.437500
2235,-25.09,2021-12-17 16:50:12.453125
2236,-23.44,2021-12-17 16:50:12.468750
2237,-20.7,2021-12-17 16:50:12.484375
2238,-17.24,2021-12-17 16:50:12.500000
2239,-13.5,2021-12-17 16:50:12.515625
2240,-9.86,2021-12-17 16:50:12.531250
2241,-6.56,2021-12-17 16:50:12.546875
2242,-3.71,2021-12-17 16:50:12.562500
2243,-1.32,2021-12-17 16:50:12.578125
2244,0.69,2021-12-17 16:50:12.593750
2245,2.39,2021-12-17 16:50:12.609375
2246,3.84,2021-12-17 16:50:12.625000
2247,5.02,2021-12-17 16:50:12.640625
2248,5.83,2021-12-17 16:50:12.656250
2249,6.2,2021-12-17 16:50:12.671875
2250,6.17,2021-12-17 16:50:12.687500
2251,5.83,2021-12-17 16:50:12.703125
2252,5.4,2021-12-17 16:50:12.718750
2253,5.07,2021-12-17 16:50:12.734375
2254,4.99,2021-12-17 16:50:12.750000
2255,5.18,2021-12-17 16:50:12.765625
2256,5.59,2021-12-17 16:50:12.781250
2257,6.14,2021-12-17 16:50:12.796875
2258,6.73,2021-12-17 16:50:12.812500
2259,7.32,2021-12-17 16:50:12.828125
2260,7.8,2021-12-17 16:50:12.843750
2261,7.99,2021-12-17 16:50:12.859375
2262,7.7,2021-12-17 16:50:12.875000
2263,6.73,2021-12-17 16:50:12.890625
2264,5.02,2021-12-17 16:50:12.906250
2265,2.75,2021-12-17 16:50:12.921875
2266,0.29,2021-12-17 16:50:12.937500
2267,-1.93,2021-12-17 16:50:12.953125
2268,-3.53,2021-12-17 16:50:12.968750
2269,-4.38,2021-12-17 16:50:12.984375
2270,-4.6,2021-12-17 16:50:13.000000
2271,-4.49,2021-12-17 16:50:13.015625
2272,-4.35,2021-12-17 16:50:13.031250
2273,-4.4,2021-12-17 16:50:13.046875
2274,-4.74,2021-12-17 16:50:13.062500
2275,-5.43,2021-12-17 16:50:13.078125
2276,-6.52,2021-12-17 16:50:13.093750
2277,-8.11,2021-12-17 16:50:13.109375
2278,-10.25,2021-12-17 16:50:13.125000
2279,-12.83,2021-12-17 16:50:13.140625
2280,-15.45,2021-12-17 16:50:13.156250
2281,-17.51,2021-12-17 16:50:13.171875
2282,-18.38,2021-12-17 16:50:13.187500
2283,-17.59,2021-12-17 16:50:13.203125
2284,-15.15,2021-12-17 16:50:13.218750
2285,-11.46,2021-12-17 16:50:13.234375
2286,-7.29,2021-12-17 16:50:13.250000
2287,-3.44,2021-12-17 16:50:13.265625
2288,-0.46,2021-12-17 16:50:13.281250
2289,1.48,2021-12-17 16:50:13.296875
2290,2.64,2021-12-17 16:50:13.312500
2291,3.48,2021-12-17 16:50:13.328125
2292,4.41,2021-12-17 16:50:13.343750
2293,5.6,2021-12-17 16:50:13.359375
2294,6.91,2021-12-17 16:50:13.375000
2295,8.02,2021-12-17 16:50:13.390625
2296,8.67,2021-12-17 16:50:13.406250
2297,8.86,2021-12-17 16:50:13.421875
2298,8.76,2021-12-17 16:50:13.437500
2299,8.67,2021-12-17 16:50:13.453125
2300,8.8,2021-12-17 16:50:13.468750
2301,9.14,2021-12-17 16:50:13.484375
2302,9.51,2021-12-17 16:50:13.500000
2303,9.69,2021-12-17 16:50:13.515625
2304,9.55,2021-12-17 16:50:13.531250
2305,9.15,2021-12-17 16:50:13.546875
2306,8.64,2021-12-17 16:50:13.562500
2307,8.19,2021-12-17 16:50:13.578125
2308,7.88,2021-12-17 16:50:13.593750
2309,7.67,2021-12-17 16:50:13.609375
2310,7.38,2021-12-17 16:50:13.625000
2311,6.86,2021-12-17 16:50:13.640625
2312,5.98,2021-12-17 16:50:13.656250
2313,4.71,2021-12-17 16:50:13.671875
2314,3.11,2021-12-17 16:50:13.687500
2315,1.31,2021-12-17 16:50:13.703125
2316,-0.51,2021-12-17 16:50:13.718750
2317,-2.17,2021-12-17 16:50:13.734375
2318,-3.57,2021-12-17 16:50:13.750000
2319,-4.74,2021-12-17 16:50:13.765625
2320,-5.79,2021-12-17 16:50:13.781250
2321,-6.86,2021-12-17 16:50:13.796875
2322,-8.04,2021-12-17 16:50:13.812500
2323,-9.39,2021-12-17 16:50:13.828125
2324,-10.95,2021-12-17 16:50:13.843750
2325,-12.75,2021-12-17 16:50:13.859375
2326,-14.83,2021-12-17 16:50:13.875000
2327,-17.1,2021-12-17 16:50:13.890625
2328,-19.35,2021-12-17 16:50:13.906250
2329,-21.14,2021-12-17 16:50:13.921875
2330,-22.03,2021-12-17 16:50:13.937500
2331,-21.6,2021-12-17 16:50:13.953125
2332,-19.74,2021-12-17 16:50:13.968750
2333,-16.64,2021-12-17 16:50:13.984375
2334,-12.77,2021-12-17 16:50:14.000000
2335,-8.68,2021-12-17 16:50:14.015625
2336,-4.9,2021-12-17 16:50:14.031250
2337,-1.71,2021-12-17 16:50:14.046875
2338,0.76,2021-12-17 16:50:14.062500
2339,2.6,2021-12-17 16:50:14.078125
2340,3.98,2021-12-17 16:50:14.093750
2341,5.1,2021-12-17 16:50:14.109375
2342,6.12,2021-12-17 16:50:14.125000
2343,7.1,2021-12-17 16:50:14.140625
2344,8.01,2021-12-17 16:50:14.156250
2345,8.78,2021-12-17 16:50:14.171875
2346,9.36,2021-12-17 16:50:14.187500
2347,9.78,2021-12-17 16:50:14.203125
2348,10.1,2021-12-17 16:50:14.218750
2349,10.41,2021-12-17 16:50:14.234375
2350,10.74,2021-12-17 16:50:14.250000
2351,11.04,2021-12-17 16:50:14.265625
2352,11.21,2021-12-17 16:50:14.281250
2353,11.19,2021-12-17 16:50:14.296875
2354,10.98,2021-12-17 16:50:14.312500
2355,10.64,2021-12-17 16:50:14.328125
2356,10.23,2021-12-17 16:50:14.343750
2357,9.78,2021-12-17 16:50:14.359375
2358,9.21,2021-12-17 16:50:14.375000
2359,8.39,2021-12-17 16:50:14.390625
2360,7.28,2021-12-17 16:50:14.406250
2361,5.94,2021-12-17 16:50:14.421875
2362,4.53,2021-12-17 16:50:14.437500
2363,3.22,2021-12-17 16:50:14.453125
2364,2.11,2021-12-17 16:50:14.468750
2365,1.13,2021-12-17 16:50:14.484375
2366,0.12,2021-12-17 16:50:14.500000
2367,-1.07,2021-12-17 16:50:14.515625
2368,-2.52,2021-12-17 16:50:14.531250
2369,-4.14,2021-12-17 16:50:14.546875
2370,-5.76,2021-12-17 16:50:14.562500
2371,-7.2,2021-12-17 16:50:14.578125
2372,-8.37,2021-12-17 16:50:14.593750
2373,-9.35,2021-12-17 16:50:14.609375
2374,-10.35,2021-12-17 16:50:14.625000
2375,-11.65,2021-12-17 16:50:14.640625
2376,-13.43,2021-12-17 16:50:14.656250
2377,-15.73,2021-12-17 16:50:14.671875
2378,-18.3,2021-12-17 16:50:14.687500
2379,-20.75,2021-12-17 16:50:14.703125
2380,-22.55,2021-12-17 16:50:14.718750
2381,-23.25,2021-12-17 16:50:14.734375
2382,-22.63,2021-12-17 16:50:14.750000
2383,-20.7,2021-12-17 16:50:14.765625
2384,-17.75,2021-12-17 16:50:14.781250
2385,-14.21,2021-12-17 16:50:14.796875
2386,-10.5,2021-12-17 16:50:14.812500
2387,-6.94,2021-12-17 16:50:14.828125
2388,-3.77,2021-12-17 16:50:14.843750
2389,-1.05,2021-12-17 16:50:14.859375
2390,1.23,2021-12-17 16:50:14.875000
2391,3.16,2021-12-17 16:50:14.890625
2392,4.85,2021-12-17 16:50:14.906250
2393,6.35,2021-12-17 16:50:14.921875
2394,7.66,2021-12-17 16:50:14.937500
2395,8.71,2021-12-17 16:50:14.953125
2396,9.42,2021-12-17 16:50:14.968750
2397,9.68,2021-12-17 16:50:14.984375
2398,9.51,2021-12-17 16:50:15.000000
2399,8.99,2021-12-17 16:50:15.015625
2400,8.3,2021-12-17 16:50:15.031250
2401,7.69,2021-12-17 16:50:15.046875
2402,7.3,2021-12-17 16:50:15.062500
2403,7.24,2021-12-17 16:50:15.078125
2404,7.54,2021-12-17 16:50:15.093750
2405,8.15,2021-12-17 16:50:15.109375
2406,8.98,2021-12-17 16:50:15.125000
2407,9.92,2021-12-17 16:50:15.140625
2408,10.83,2021-12-17 16:50:15.156250
2409,11.62,2021-12-17 16:50:15.171875
2410,12.17,2021-12-17 16:50:15.187500
2411,12.38,2021-12-17 16:50:15.203125
2412,12.17,2021-12-17 16:50:15.218750
2413,11.49,2021-12-17 16:50:15.234375
2414,10.36,2021-12-17 16:50:15.250000
2415,8.88,2021-12-17 16:50:15.265625
2416,7.24,2021-12-17 16:50:15.281250
2417,5.58,2021-12-17 16:50:15.296875
2418,4.02,2021-12-17 16:50:15.312500
2419,2.63,2021-12-17 16:50:15.328125
2420,1.38,2021-12-17 16:50:15.343750
2421,0.31,2021-12-17 16:50:15.359375
2422,-0.56,2021-12-17 16:50:15.375000
2423,-1.21,2021-12-17 16:50:15.390625
2424,-1.64,2021-12-17 16:50:15.406250
2425,-1.95,2021-12-17 16:50:15.421875
2426,-2.33,2021-12-17 16:50:15.437500
2427,-2.97,2021-12-17 16:50:15.453125
2428,-4.01,2021-12-17 16:50:15.468750
2429,-5.53,2021-12-17 16:50:15.484375
2430,-7.53,2021-12-17 16:50:15.500000
2431,-9.94,2021-12-17 16:50:15.515625
2432,-12.58,2021-12-17 16:50:15.531250
2433,-15.24,2021-12-17 16:50:15.546875
2434,-17.57,2021-12-17 16:50:15.562500
2435,-19.24,2021-12-17 16:50:15.578125
2436,-19.89,2021-12-17 16:50:15.593750
2437,-19.28,2021-12-17 16:50:15.609375
2438,-17.39,2021-12-17 16:50:15.625000
2439,-14.39,2021-12-17 16:50:15.640625
2440,-10.63,2021-12-17 16:50:15.656250
2441,-6.56,2021-12-17 16:50:15.671875
2442,-2.64,2021-12-17 16:50:15.687500
2443,0.8,2021-12-17 16:50:15.703125
2444,3.61,2021-12-17 16:50:15.718750
2445,5.86,2021-12-17 16:50:15.734375
2446,7.76,2021-12-17 16:50:15.750000
2447,9.55,2021-12-17 16:50:15.765625
2448,11.33,2021-12-17 16:50:15.781250
2449,13.04,2021-12-17 16:50:15.796875
2450,14.47,2021-12-17 16:50:15.812500
2451,15.42,2021-12-17 16:50:15.828125
2452,15.78,2021-12-17 16:50:15.843750
2453,15.64,2021-12-17 16:50:15.859375
2454,15.16,2021-12-17 16:50:15.875000
2455,14.59,2021-12-17 16:50:15.890625
2456,14.02,2021-12-17 16:50:15.906250
2457,13.45,2021-12-17 16:50:15.921875
2458,12.79,2021-12-17 16:50:15.937500
2459,11.93,2021-12-17 16:50:15.953125
2460,10.91,2021-12-17 16:50:15.968750
2461,9.89,2021-12-17 16:50:15.984375
2462,9.01,2021-12-17 16:50:16.000000
2463,8.39,2021-12-17 16:50:16.015625
2464,8.0,2021-12-17 16:50:16.031250
2465,7.68,2021-12-17 16:50:16.046875
2466,7.24,2021-12-17 16:50:16.062500
2467,6.59,2021-12-17 16:50:16.078125
2468,5.76,2021-12-17 16:50:16.093750
2469,4.92,2021-12-17 16:50:16.109375
2470,4.28,2021-12-17 16:50:16.125000
2471,3.87,2021-12-17 16:50:16.140625
2472,3.61,2021-12-17 16:50:16.156250
2473,3.31,2021-12-17 16:50:16.171875
2474,2.79,2021-12-17 16:50:16.187500
2475,1.98,2021-12-17 16:50:16.203125
2476,0.92,2021-12-17 16:50:16.218750
2477,-0.29,2021-12-17 16:50:16.234375
2478,-1.6,2021-12-17 16:50:16.250000
2479,-3.01,2021-12-17 16:50:16.265625
2480,-4.59,2021-12-17 16:50:16.281250
2481,-6.31,2021-12-17 16:50:16.296875
2482,-8.12,2021-12-17 16:50:16.312500
2483,-9.92,2021-12-17 16:50:16.328125
2484,-11.67,2021-12-17 16:50:16.343750
2485,-13.4,2021-12-17 16:50:16.359375
2486,-15.17,2021-12-17 16:50:16.375000
2487,-16.97,2021-12-17 16:50:16.390625
2488,-18.59,2021-12-17 16:50:16.406250
2489,-19.67,2021-12-17 16:50:16.421875
2490,-19.72,2021-12-17 16:50:16.437500
2491,-18.45,2021-12-17 16:50:16.453125
2492,-15.86,2021-12-17 16:50:16.468750
2493,-12.31,2021-12-17 16:50:16.484375
2494,-8.3,2021-12-17 16:50:16.500000
2495,-4.41,2021-12-17 16:50:16.515625
2496,-1.02,2021-12-17 16:50:16.531250
2497,1.69,2021-12-17 16:50:16.546875
2498,3.73,2021-12-17 16:50:16.562500
2499,5.17,2021-12-17 16:50:16.578125
2500,6.18,2021-12-17 16:50:16.593750
2501,6.87,2021-12-17 16:50:16.609375
2502,7.39,2021-12-17 16:50:16.625000
2503,7.9,2021-12-17 16:50:16.640625
2504,8.47,2021-12-17 16:50:16.656250
2505,9.11,2021-12-17 16:50:16.671875
2506,9.68,2021-12-17 16:50:16.687500
2507,10.07,2021-12-17 16:50:16.703125
2508,10.18,2021-12-17 16:50:16.718750
2509,10.0,2021-12-17 16:50:16.734375
2510,9.67,2021-12-17 16:50:16.750000
2511,9.31,2021-12-17 16:50:16.765625
2512,9.03,2021-12-17 16:50:16.781250
2513,8.82,2021-12-17 16:50:16.796875
2514,8.62,2021-12-17 16:50:16.812500
2515,8.35,2021-12-17 16:50:16.828125
2516,7.98,2021-12-17 16:50:16.843750
2517,7.55,2021-12-17 16:50:16.859375
2518,7.12,2021-12-17 16:50:16.875000
2519,6.74,2021-12-17 16:50:16.890625
2520,6.35,2021-12-17 16:50:16.906250
2521,5.9,2021-12-17 16:50:16.921875
2522,5.3,2021-12-17 16:50:16.937500
2523,4.49,2021-12-17 16:50:16.953125
2524,3.5,2021-12-17 16:50:16.968750
2525,2.4,2021-12-17 16:50:16.984375
2526,1.29,2021-12-17 16:50:17.000000
2527,0.27,2021-12-17 16:50:17.015625
2528,-0.57,2021-12-17 16:50:17.031250
2529,-1.24,2021-12-17 16:50:17.046875
2530,-1.78,2021-12-17 16:50:17.062500
2531,-2.32,2021-12-17 16:50:17.078125
2532,-3.01,2021-12-17 16:50:17.093750
2533,-3.96,2021-12-17 16:50:17.109375
2534,-5.23,2021-12-17 16:50:17.125000
2535,-6.83,2021-12-17 16:50:17.140625
2536,-8.73,2021-12-17 16:50:17.156250
2537,-10.8,2021-12-17 16:50:17.171875
2538,-12.87,2021-12-17 16:50:17.187500
2539,-14.63,2021-12-17 16:50:17.203125
2540,-15.69,2021-12-17 16:50:17.218750
2541,-15.66,2021-12-17 16:50:17.234375
2542,-14.27,2021-12-17 16:50:17.250000
2543,-11.57,2021-12-17 16:50:17.265625
2544,-7.91,2021-12-17 16:50:17.281250
2545,-3.91,2021-12-17 16:50:17.296875
2546,-0.17,2021-12-17 16:50:17.312500
2547,2.85,2021-12-17 16:50:17.328125
2548,4.97,2021-12-17 16:50:17.343750
2549,6.32,2021-12-17 16:50:17.359375
2550,7.17,2021-12-17 16:50:17.375000
2551,7.8,2021-12-17 16:50:17.390625
2552,8.37,2021-12-17 16:50:17.406250
2553,8.89,2021-12-17 16:50:17.421875
2554,9.27,2021-12-17 16:50:17.437500
2555,9.39,2021-12-17 16:50:17.453125
2556,9.22,2021-12-17 16:50:17.468750
2557,8.77,2021-12-17 16:50:17.484375
2558,8.12,2021-12-17 16:50:17.500000
2559,7.39,2021-12-17 16:50:17.515625
2560,6.72,2021-12-17 16:50:17.531250
2561,6.26,2021-12-17 16:50:17.546875
2562,6.16,2021-12-17 16:50:17.562500
2563,6.5,2021-12-17 16:50:17.578125
2564,7.29,2021-12-17 16:50:17.593750
2565,8.35,2021-12-17 16:50:17.609375
2566,9.36,2021-12-17 16:50:17.625000
2567,9.97,2021-12-17 16:50:17.640625
2568,9.88,2021-12-17 16:50:17.656250
2569,9.02,2021-12-17 16:50:17.671875
2570,7.53,2021-12-17 16:50:17.687500
2571,5.7,2021-12-17 16:50:17.703125
2572,3.86,2021-12-17 16:50:17.718750
2573,2.21,2021-12-17 16:50:17.734375
2574,0.83,2021-12-17 16:50:17.750000
2575,-0.29,2021-12-17 16:50:17.765625
2576,-1.23,2021-12-17 16:50:17.781250
2577,-2.06,2021-12-17 16:50:17.796875
2578,-2.93,2021-12-17 16:50:17.812500
2579,-4.0,2021-12-17 16:50:17.828125
2580,-5.47,2021-12-17 16:50:17.843750
2581,-7.44,2021-12-17 16:50:17.859375
2582,-9.9,2021-12-17 16:50:17.875000
2583,-12.67,2021-12-17 16:50:17.890625
2584,-15.49,2021-12-17 16:50:17.906250
2585,-18.02,2021-12-17 16:50:17.921875
2586,-19.99,2021-12-17 16:50:17.937500
2587,-21.13,2021-12-17 16:50:17.953125
2588,-21.16,2021-12-17 16:50:17.968750
2589,-19.91,2021-12-17 16:50:17.984375
2590,-17.35,2021-12-17 16:50:18.000000
2591,-13.71,2021-12-17 16:50:18.015625
2592,-9.5,2021-12-17 16:50:18.031250
2593,-5.32,2021-12-17 16:50:18.046875
2594,-1.67,2021-12-17 16:50:18.062500
2595,1.18,2021-12-17 16:50:18.078125
2596,3.25,2021-12-17 16:50:18.093750
2597,4.71,2021-12-17 16:50:18.109375
2598,5.77,2021-12-17 16:50:18.125000
2599,6.42,2021-12-17 16:50:18.140625
2600,6.67,2021-12-17 16:50:18.156250
2601,6.53,2021-12-17 16:50:18.171875
2602,6.17,2021-12-17 16:50:18.187500
2603,5.79,2021-12-17 16:50:18.203125
2604,5.59,2021-12-17 16:50:18.218750
2605,5.63,2021-12-17 16:50:18.234375
2606,5.8,2021-12-17 16:50:18.250000
2607,5.94,2021-12-17 16:50:18.265625
2608,5.93,2021-12-17 16:50:18.281250
2609,5.75,2021-12-17 16:50:18.296875
2610,5.5,2021-12-17 16:50:18.312500
2611,5.29,2021-12-17 16:50:18.328125
2612,5.18,2021-12-17 16:50:18.343750
2613,5.21,2021-12-17 16:50:18.359375
2614,5.37,2021-12-17 16:50:18.375000
2615,5.65,2021-12-17 16:50:18.390625
2616,6.04,2021-12-17 16:50:18.406250
2617,6.45,2021-12-17 16:50:18.421875
2618,6.74,2021-12-17 16:50:18.437500
2619,6.71,2021-12-17 16:50:18.453125
2620,6.2,2021-12-17 16:50:18.468750
2621,5.19,2021-12-17 16:50:18.484375
2622,3.79,2021-12-17 16:50:18.500000
2623,2.22,2021-12-17 16:50:18.515625
2624,0.72,2021-12-17 16:50:18.531250
2625,-0.59,2021-12-17 16:50:18.546875
2626,-1.68,2021-12-17 16:50:18.562500
2627,-2.66,2021-12-17 16:50:18.578125
2628,-3.66,2021-12-17 16:50:18.593750
2629,-4.9,2021-12-17 16:50:18.609375
2630,-6.55,2021-12-17 16:50:18.625000
2631,-8.73,2021-12-17 16:50:18.640625
2632,-11.39,2021-12-17 16:50:18.656250
2633,-14.35,2021-12-17 16:50:18.671875
2634,-17.17,2021-12-17 16:50:18.687500
2635,-19.32,2021-12-17 16:50:18.703125
2636,-20.25,2021-12-17 16:50:18.718750
2637,-19.62,2021-12-17 16:50:18.734375
2638,-17.46,2021-12-17 16:50:18.750000
2639,-14.1,2021-12-17 16:50:18.765625
2640,-10.07,2021-12-17 16:50:18.781250
2641,-5.96,2021-12-17 16:50:18.796875
2642,-2.18,2021-12-17 16:50:18.812500
2643,1.04,2021-12-17 16:50:18.828125
2644,3.63,2021-12-17 16:50:18.843750
2645,5.64,2021-12-17 16:50:18.859375
2646,7.12,2021-12-17 16:50:18.875000
2647,8.14,2021-12-17 16:50:18.890625
2648,8.82,2021-12-17 16:50:18.906250
2649,9.31,2021-12-17 16:50:18.921875
2650,9.77,2021-12-17 16:50:18.937500
2651,10.3,2021-12-17 16:50:18.953125
2652,10.83,2021-12-17 16:50:18.968750
2653,11.23,2021-12-17 16:50:18.984375
2654,11.31,2021-12-17 16:50:19.000000
2655,10.96,2021-12-17 16:50:19.015625
2656,10.23,2021-12-17 16:50:19.031250
2657,9.33,2021-12-17 16:50:19.046875
2658,8.54,2021-12-17 16:50:19.062500
2659,8.09,2021-12-17 16:50:19.078125
2660,8.07,2021-12-17 16:50:19.093750
2661,8.35,2021-12-17 16:50:19.109375
2662,8.69,2021-12-17 16:50:19.125000
2663,8.84,2021-12-17 16:50:19.140625
2664,8.6,2021-12-17 16:50:19.156250
2665,7.95,2021-12-17 16:50:19.171875
2666,6.99,2021-12-17 16:50:19.187500
2667,5.88,2021-12-17 16:50:19.203125
2668,4.77,2021-12-17 16:50:19.218750
2669,3.78,2021-12-17 16:50:19.234375
2670,2.92,2021-12-17 16:50:19.250000
2671,2.18,2021-12-17 16:50:19.265625
2672,1.52,2021-12-17 16:50:19.281250
2673,0.85,2021-12-17 16:50:19.296875
2674,0.1,2021-12-17 16:50:19.312500
2675,-0.82,2021-12-17 16:50:19.328125
2676,-2.0,2021-12-17 16:50:19.343750
2677,-3.46,2021-12-17 16:50:19.359375
2678,-5.11,2021-12-17 16:50:19.375000
2679,-6.84,2021-12-17 16:50:19.390625
2680,-8.47,2021-12-17 16:50:19.406250
2681,-9.91,2021-12-17 16:50:19.421875
2682,-11.17,2021-12-17 16:50:19.437500
2683,-12.39,2021-12-17 16:50:19.453125
2684,-13.71,2021-12-17 16:50:19.468750
2685,-15.21,2021-12-17 16:50:19.484375
2686,-16.74,2021-12-17 16:50:19.500000
2687,-17.94,2021-12-17 16:50:19.515625
2688,-18.36,2021-12-17 16:50:19.531250
2689,-17.64,2021-12-17 16:50:19.546875
2690,-15.69,2021-12-17 16:50:19.562500
2691,-12.72,2021-12-17 16:50:19.578125
2692,-9.22,2021-12-17 16:50:19.593750
2693,-5.68,2021-12-17 16:50:19.609375
2694,-2.49,2021-12-17 16:50:19.625000
2695,0.15,2021-12-17 16:50:19.640625
2696,2.24,2021-12-17 16:50:19.656250
2697,3.82,2021-12-17 16:50:19.671875
2698,5.01,2021-12-17 16:50:19.687500
2699,5.92,2021-12-17 16:50:19.703125
2700,6.65,2021-12-17 16:50:19.718750
2701,7.34,2021-12-17 16:50:19.734375
2702,8.08,2021-12-17 16:50:19.750000
2703,8.89,2021-12-17 16:50:19.765625
2704,9.74,2021-12-17 16:50:19.781250
2705,10.51,2021-12-17 16:50:19.796875
2706,11.05,2021-12-17 16:50:19.812500
2707,11.31,2021-12-17 16:50:19.828125
2708,11.27,2021-12-17 16:50:19.843750
2709,11.01,2021-12-17 16:50:19.859375
2710,10.64,2021-12-17 16:50:19.875000
2711,10.28,2021-12-17 16:50:19.890625
2712,10.04,2021-12-17 16:50:19.906250
2713,9.99,2021-12-17 16:50:19.921875
2714,10.12,2021-12-17 16:50:19.937500
2715,10.38,2021-12-17 16:50:19.953125
2716,10.61,2021-12-17 16:50:19.968750
2717,10.69,2021-12-17 16:50:19.984375
2718,10.42,2021-12-17 16:50:20.000000
2719,9.7,2021-12-17 16:50:20.015625
2720,8.51,2021-12-17 16:50:20.031250
2721,6.94,2021-12-17 16:50:20.046875
2722,5.23,2021-12-17 16:50:20.062500
2723,3.65,2021-12-17 16:50:20.078125
2724,2.39,2021-12-17 16:50:20.093750
2725,1.45,2021-12-17 16:50:20.109375
2726,0.65,2021-12-17 16:50:20.125000
2727,-0.25,2021-12-17 16:50:20.140625
2728,-1.42,2021-12-17 16:50:20.156250
2729,-2.9,2021-12-17 16:50:20.171875
2730,-4.54,2021-12-17 16:50:20.187500
2731,-6.12,2021-12-17 16:50:20.203125
2732,-7.51,2021-12-17 16:50:20.218750
2733,-8.64,2021-12-17 16:50:20.234375
2734,-9.58,2021-12-17 16:50:20.250000
2735,-10.47,2021-12-17 16:50:20.265625
2736,-11.44,2021-12-17 16:50:20.281250
2737,-12.58,2021-12-17 16:50:20.296875
2738,-13.97,2021-12-17 16:50:20.312500
2739,-15.56,2021-12-17 16:50:20.328125
2740,-17.12,2021-12-17 16:50:20.343750
2741,-18.24,2021-12-17 16:50:20.359375
2742,-18.43,2021-12-17 16:50:20.375000
2743,-17.33,2021-12-17 16:50:20.390625
2744,-14.94,2021-12-17 16:50:20.406250
2745,-11.63,2021-12-17 16:50:20.421875
2746,-7.99,2021-12-17 16:50:20.437500
2747,-4.63,2021-12-17 16:50:20.453125
2748,-1.9,2021-12-17 16:50:20.468750
2749,0.15,2021-12-17 16:50:20.484375
2750,1.72,2021-12-17 16:50:20.500000
2751,3.11,2021-12-17 16:50:20.515625
2752,4.46,2021-12-17 16:50:20.531250
2753,5.82,2021-12-17 16:50:20.546875
2754,7.13,2021-12-17 16:50:20.562500
2755,8.32,2021-12-17 16:50:20.578125
2756,9.34,2021-12-17 16:50:20.593750
2757,10.21,2021-12-17 16:50:20.609375
2758,10.96,2021-12-17 16:50:20.625000
2759,11.64,2021-12-17 16:50:20.640625
2760,12.26,2021-12-17 16:50:20.656250
2761,12.82,2021-12-17 16:50:20.671875
2762,13.28,2021-12-17 16:50:20.687500
2763,13.57,2021-12-17 16:50:20.703125
2764,13.67,2021-12-17 16:50:20.718750
2765,13.6,2021-12-17 16:50:20.734375
2766,13.5,2021-12-17 16:50:20.750000
2767,13.55,2021-12-17 16:50:20.765625
2768,13.91,2021-12-17 16:50:20.781250
2769,14.66,2021-12-17 16:50:20.796875
2770,15.62,2021-12-17 16:50:20.812500
2771,16.5,2021-12-17 16:50:20.828125
2772,16.94,2021-12-17 16:50:20.843750
2773,16.73,2021-12-17 16:50:20.859375
2774,15.87,2021-12-17 16:50:20.875000
2775,14.6,2021-12-17 16:50:20.890625
2776,13.24,2021-12-17 16:50:20.906250
2777,12.01,2021-12-17 16:50:20.921875
2778,10.95,2021-12-17 16:50:20.937500
2779,9.89,2021-12-17 16:50:20.953125
2780,8.69,2021-12-17 16:50:20.968750
2781,7.27,2021-12-17 16:50:20.984375
2782,5.75,2021-12-17 16:50:21.000000
2783,4.35,2021-12-17 16:50:21.015625
2784,3.2,2021-12-17 16:50:21.031250
2785,2.29,2021-12-17 16:50:21.046875
2786,1.39,2021-12-17 16:50:21.062500
2787,0.25,2021-12-17 16:50:21.078125
2788,-1.27,2021-12-17 16:50:21.093750
2789,-3.1,2021-12-17 16:50:21.109375
2790,-5.05,2021-12-17 16:50:21.125000
2791,-6.98,2021-12-17 16:50:21.140625
2792,-8.8,2021-12-17 16:50:21.156250
2793,-10.52,2021-12-17 16:50:21.171875
2794,-12.1,2021-12-17 16:50:21.187500
2795,-13.33,2021-12-17 16:50:21.203125
2796,-13.84,2021-12-17 16:50:21.218750
2797,-13.29,2021-12-17 16:50:21.234375
2798,-11.53,2021-12-17 16:50:21.250000
2799,-8.74,2021-12-17 16:50:21.265625
2800,-5.33,2021-12-17 16:50:21.281250
2801,-1.79,2021-12-17 16:50:21.296875
2802,1.46,2021-12-17 16:50:21.312500
2803,4.19,2021-12-17 16:50:21.328125
2804,6.36,2021-12-17 16:50:21.343750
2805,7.96,2021-12-17 16:50:21.359375
2806,8.97,2021-12-17 16:50:21.375000
2807,9.34,2021-12-17 16:50:21.390625
2808,9.07,2021-12-17 16:50:21.406250
2809,8.25,2021-12-17 16:50:21.421875
2810,7.13,2021-12-17 16:50:21.437500
2811,5.99,2021-12-17 16:50:21.453125
2812,5.08,2021-12-17 16:50:21.468750
2813,4.55,2021-12-17 16:50:21.484375
2814,4.4,2021-12-17 16:50:21.500000
2815,4.6,2021-12-17 16:50:21.515625
2816,5.1,2021-12-17 16:50:21.531250
2817,5.87,2021-12-17 16:50:21.546875
2818,6.85,2021-12-17 16:50:21.562500
2819,7.91,2021-12-17 16:50:21.578125
2820,8.84,2021-12-17 16:50:21.593750
2821,9.35,2021-12-17 16:50:21.609375
2822,9.24,2021-12-17 16:50:21.625000
2823,8.44,2021-12-17 16:50:21.640625
2824,7.12,2021-12-17 16:50:21.656250
2825,5.58,2021-12-17 16:50:21.671875
2826,4.15,2021-12-17 16:50:21.687500
2827,3.09,2021-12-17 16:50:21.703125
2828,2.47,2021-12-17 16:50:21.718750
2829,2.22,2021-12-17 16:50:21.734375
2830,2.17,2021-12-17 16:50:21.750000
2831,2.15,2021-12-17 16:50:21.765625
2832,2.03,2021-12-17 16:50:21.781250
2833,1.77,2021-12-17 16:50:21.796875
2834,1.31,2021-12-17 16:50:21.812500
2835,0.61,2021-12-17 16:50:21.828125
2836,-0.33,2021-12-17 16:50:21.843750
2837,-1.49,2021-12-17 16:50:21.859375
2838,-2.78,2021-12-17 16:50:21.875000
2839,-4.1,2021-12-17 16:50:21.890625
2840,-5.42,2021-12-17 16:50:21.906250
2841,-6.74,2021-12-17 16:50:21.921875
2842,-8.17,2021-12-17 16:50:21.937500
2843,-9.8,2021-12-17 16:50:21.953125
2844,-11.67,2021-12-17 16:50:21.968750
2845,-13.66,2021-12-17 16:50:21.984375
2846,-15.5,2021-12-17 16:50:22.000000
2847,-16.84,2021-12-17 16:50:22.015625
2848,-17.28,2021-12-17 16:50:22.031250
2849,-16.56,2021-12-17 16:50:22.046875
2850,-14.56,2021-12-17 16:50:22.062500
2851,-11.41,2021-12-17 16:50:22.078125
2852,-7.44,2021-12-17 16:50:22.093750
2853,-3.18,2021-12-17 16:50:22.109375
2854,0.78,2021-12-17 16:50:22.125000
2855,3.94,2021-12-17 16:50:22.140625
2856,6.01,2021-12-17 16:50:22.156250
2857,7.03,2021-12-17 16:50:22.171875
2858,7.33,2021-12-17 16:50:22.187500
2859,7.37,2021-12-17 16:50:22.203125
2860,7.57,2021-12-17 16:50:22.218750
2861,8.11,2021-12-17 16:50:22.234375
2862,8.92,2021-12-17 16:50:22.250000
2863,9.72,2021-12-17 16:50:22.265625
2864,10.27,2021-12-17 16:50:22.281250
2865,10.46,2021-12-17 16:50:22.296875
2866,10.38,2021-12-17 16:50:22.312500
2867,10.22,2021-12-17 16:50:22.328125
2868,10.14,2021-12-17 16:50:22.343750
2869,10.17,2021-12-17 16:50:22.359375
2870,10.2,2021-12-17 16:50:22.375000
2871,10.15,2021-12-17 16:50:22.390625
2872,10.01,2021-12-17 16:50:22.406250
2873,9.92,2021-12-17 16:50:22.421875
2874,10.06,2021-12-17 16:50:22.437500
2875,10.51,2021-12-17 16:50:22.453125
2876,11.17,2021-12-17 16:50:22.468750
2877,11.79,2021-12-17 16:50:22.484375
2878,12.09,2021-12-17 16:50:22.500000
2879,11.92,2021-12-17 16:50:22.515625
2880,11.3,2021-12-17 16:50:22.531250
2881,10.39,2021-12-17 16:50:22.546875
2882,9.41,2021-12-17 16:50:22.562500
2883,8.5,2021-12-17 16:50:22.578125
2884,7.67,2021-12-17 16:50:22.593750
2885,6.88,2021-12-17 16:50:22.609375
2886,6.06,2021-12-17 16:50:22.625000
2887,5.18,2021-12-17 16:50:22.640625
2888,4.24,2021-12-17 16:50:22.656250
2889,3.27,2021-12-17 16:50:22.671875
2890,2.31,2021-12-17 16:50:22.687500
2891,1.38,2021-12-17 16:50:22.703125
2892,0.47,2021-12-17 16:50:22.718750
2893,-0.4,2021-12-17 16:50:22.734375
2894,-1.25,2021-12-17 16:50:22.750000
2895,-2.11,2021-12-17 16:50:22.765625
2896,-3.04,2021-12-17 16:50:22.781250
2897,-4.1,2021-12-17 16:50:22.796875
2898,-5.29,2021-12-17 16:50:22.812500
2899,-6.51,2021-12-17 16:50:22.828125
2900,-7.54,2021-12-17 16:50:22.843750
2901,-8.1,2021-12-17 16:50:22.859375
2902,-7.94,2021-12-17 16:50:22.875000
2903,-6.94,2021-12-17 16:50:22.890625
2904,-5.23,2021-12-17 16:50:22.906250
2905,-3.08,2021-12-17 16:50:22.921875
2906,-0.9,2021-12-17 16:50:22.937500
2907,1.02,2021-12-17 16:50:22.953125
2908,2.5,2021-12-17 16:50:22.968750
2909,3.51,2021-12-17 16:50:22.984375
2910,4.11,2021-12-17 16:50:23.000000
2911,4.33,2021-12-17 16:50:23.015625
2912,4.2,2021-12-17 16:50:23.031250
2913,3.71,2021-12-17 16:50:23.046875
2914,2.91,2021-12-17 16:50:23.062500
2915,1.92,2021-12-17 16:50:23.078125
2916,0.86,2021-12-17 16:50:23.093750
2917,-0.18,2021-12-17 16:50:23.109375
2918,-1.16,2021-12-17 16:50:23.125000
2919,-2.14,2021-12-17 16:50:23.140625
2920,-3.16,2021-12-17 16:50:23.156250
2921,-4.26,2021-12-17 16:50:23.171875
2922,-5.44,2021-12-17 16:50:23.187500
2923,-6.64,2021-12-17 16:50:23.203125
2924,-7.78,2021-12-17 16:50:23.218750
2925,-8.76,2021-12-17 16:50:23.234375
2926,-9.49,2021-12-17 16:50:23.250000
2927,-9.92,2021-12-17 16:50:23.265625
2928,-10.06,2021-12-17 16:50:23.281250
2929,-10.02,2021-12-17 16:50:23.296875
2930,-9.91,2021-12-17 16:50:23.312500
2931,-9.87,2021-12-17 16:50:23.328125
2932,-9.98,2021-12-17 16:50:23.343750
2933,-10.25,2021-12-17 16:50:23.359375
2934,-10.7,2021-12-17 16:50:23.375000
2935,-11.29,2021-12-17 16:50:23.390625
2936,-12.01,2021-12-17 16:50:23.406250
2937,-12.81,2021-12-17 16:50:23.421875
2938,-13.68,2021-12-17 16:50:23.437500
2939,-14.51,2021-12-17 16:50:23.453125
2940,-15.21,2021-12-17 16:50:23.468750
2941,-15.67,2021-12-17 16:50:23.484375
2942,-15.82,2021-12-17 16:50:23.500000
2943,-15.6,2021-12-17 16:50:23.515625
2944,-14.98,2021-12-17 16:50:23.531250
2945,-13.91,2021-12-17 16:50:23.546875
2946,-12.37,2021-12-17 16:50:23.562500
2947,-10.33,2021-12-17 16:50:23.578125
2948,-7.8,2021-12-17 16:50:23.593750
2949,-4.83,2021-12-17 16:50:23.609375
2950,-1.53,2021-12-17 16:50:23.625000
2951,1.87,2021-12-17 16:50:23.640625
2952,5.08,2021-12-17 16:50:23.656250
2953,7.69,2021-12-17 16:50:23.671875
2954,9.35,2021-12-17 16:50:23.687500
2955,9.74,2021-12-17 16:50:23.703125
2956,8.69,2021-12-17 16:50:23.718750
2957,6.31,2021-12-17 16:50:23.734375
2958,2.94,2021-12-17 16:50:23.750000
2959,-0.77,2021-12-17 16:50:23.765625
2960,-4.11,2021-12-17 16:50:23.781250
2961,-6.38,2021-12-17 16:50:23.796875
2962,-7.16,2021-12-17 16:50:23.812500
2963,-6.38,2021-12-17 16:50:23.828125
2964,-4.35,2021-12-17 16:50:23.843750
2965,-1.56,2021-12-17 16:50:23.859375
2966,1.52,2021-12-17 16:50:23.875000
2967,4.65,2021-12-17 16:50:23.890625
2968,7.83,2021-12-17 16:50:23.906250
2969,11.25,2021-12-17 16:50:23.921875
2970,15.15,2021-12-17 16:50:23.937500
2971,19.57,2021-12-17 16:50:23.953125
2972,24.35,2021-12-17 16:50:23.968750
2973,29.02,2021-12-17 16:50:23.984375
2974,33.01,2021-12-17 16:50:24.000000
2975,35.85,2021-12-17 16:50:24.015625
2976,37.34,2021-12-17 16:50:24.031250
2977,37.57,2021-12-17 16:50:24.046875
2978,36.95,2021-12-17 16:50:24.062500
2979,36.15,2021-12-17 16:50:24.078125
2980,35.71,2021-12-17 16:50:24.093750
2981,35.92,2021-12-17 16:50:24.109375
2982,36.72,2021-12-17 16:50:24.125000
2983,37.72,2021-12-17 16:50:24.140625
2984,38.5,2021-12-17 16:50:24.156250
2985,38.78,2021-12-17 16:50:24.171875
2986,38.49,2021-12-17 16:50:24.187500
2987,37.8,2021-12-17 16:50:24.203125
2988,37.24,2021-12-17 16:50:24.218750
2989,37.21,2021-12-17 16:50:24.234375
2990,37.83,2021-12-17 16:50:24.250000
2991,38.68,2021-12-17 16:50:24.265625
2992,39.11,2021-12-17 16:50:24.281250
2993,38.54,2021-12-17 16:50:24.296875
2994,36.71,2021-12-17 16:50:24.312500
2995,33.7,2021-12-17 16:50:24.328125
2996,30.05,2021-12-17 16:50:24.343750
2997,27.14,2021-12-17 16:50:24.359375
2998,26.27,2021-12-17 16:50:24.375000
2999,28.15,2021-12-17 16:50:24.390625
3000,32.5,2021-12-17 16:50:24.406250
3001,38.18,2021-12-17 16:50:24.421875
3002,43.78,2021-12-17 16:50:24.437500
3003,48.06,2021-12-17 16:50:24.453125
3004,50.14,2021-12-17 16:50:24.468750
3005,50.02,2021-12-17 16:50:24.484375
3006,49.26,2021-12-17 16:50:24.500000
3007,49.55,2021-12-17 16:50:24.515625
3008,51.86,2021-12-17 16:50:24.531250
3009,55.88,2021-12-17 16:50:24.546875
3010,60.18,2021-12-17 16:50:24.562500
3011,63.41,2021-12-17 16:50:24.578125
3012,64.73,2021-12-17 16:50:24.593750
3013,63.84,2021-12-17 16:50:24.609375
3014,61.14,2021-12-17 16:50:24.625000
3015,58.09,2021-12-17 16:50:24.640625
3016,55.4,2021-12-17 16:50:24.656250
3017,52.97,2021-12-17 16:50:24.671875
3018,50.33,2021-12-17 16:50:24.687500
3019,47.76,2021-12-17 16:50:24.703125
3020,47.3,2021-12-17 16:50:24.718750
3021,51.44,2021-12-17 16:50:24.734375
3022,61.12,2021-12-17 16:50:24.750000
3023,66.88,2021-12-17 16:50:24.765625
3024,60.11,2021-12-17 16:50:24.781250
3025,37.05,2021-12-17 16:50:24.796875
3026,3.03,2021-12-17 16:50:24.812500
3027,-30.38,2021-12-17 16:50:24.828125
3028,-52.57,2021-12-17 16:50:24.843750
3029,-58.73,2021-12-17 16:50:24.859375
3030,-49.13,2021-12-17 16:50:24.875000
3031,-31.7,2021-12-17 16:50:24.890625
3032,-14.01,2021-12-17 16:50:24.906250
3033,0.33,2021-12-17 16:50:24.921875
3034,10.93,2021-12-17 16:50:24.937500
3035,19.34,2021-12-17 16:50:24.953125
3036,26.77,2021-12-17 16:50:24.968750
3037,30.54,2021-12-17 16:50:24.984375
3038,28.77,2021-12-17 16:50:25.000000
3039,20.32,2021-12-17 16:50:25.015625
3040,5.1,2021-12-17 16:50:25.031250
3041,-14.92,2021-12-17 16:50:25.046875
3042,-35.66,2021-12-17 16:50:25.062500
3043,-53.07,2021-12-17 16:50:25.078125
3044,-64.65,2021-12-17 16:50:25.093750
3045,-70.5,2021-12-17 16:50:25.109375
3046,-73.07,2021-12-17 16:50:25.125000
3047,-75.43,2021-12-17 16:50:25.140625
3048,-80.23,2021-12-17 16:50:25.156250
3049,-88.86,2021-12-17 16:50:25.171875
3050,-100.56,2021-12-17 16:50:25.187500
3051,-112.62,2021-12-17 16:50:25.203125
3052,-122.08,2021-12-17 16:50:25.218750
3053,-127.25,2021-12-17 16:50:25.234375
3054,-128.37,2021-12-17 16:50:25.250000
3055,-127.08,2021-12-17 16:50:25.265625
3056,-124.33,2021-12-17 16:50:25.281250
3057,-119.66,2021-12-17 16:50:25.296875
3058,-111.59,2021-12-17 16:50:25.312500
3059,-98.8,2021-12-17 16:50:25.328125
3060,-81.61,2021-12-17 16:50:25.343750
3061,-62.72,2021-12-17 16:50:25.359375
3062,-46.03,2021-12-17 16:50:25.375000
3063,-34.69,2021-12-17 16:50:25.390625
3064,-29.54,2021-12-17 16:50:25.406250
3065,-28.71,2021-12-17 16:50:25.421875
3066,-29.4,2021-12-17 16:50:25.437500
3067,-29.74,2021-12-17 16:50:25.453125
3068,-29.6,2021-12-17 16:50:25.468750
3069,-30.09,2021-12-17 16:50:25.484375
3070,-32.32,2021-12-17 16:50:25.500000
3071,-36.17,2021-12-17 16:50:25.515625
3072,-40.29,2021-12-17 16:50:25.531250
3073,-42.98,2021-12-17 16:50:25.546875
3074,-43.22,2021-12-17 16:50:25.562500
3075,-41.28,2021-12-17 16:50:25.578125
3076,-38.36,2021-12-17 16:50:25.593750
3077,-35.56,2021-12-17 16:50:25.609375
3078,-33.33,2021-12-17 16:50:25.625000
3079,-31.45,2021-12-17 16:50:25.640625
3080,-29.49,2021-12-17 16:50:25.656250
3081,-26.95,2021-12-17 16:50:25.671875
3082,-23.7,2021-12-17 16:50:25.687500
3083,-19.94,2021-12-17 16:50:25.703125
3084,-16.21,2021-12-17 16:50:25.718750
3085,-13.32,2021-12-17 16:50:25.734375
3086,-11.96,2021-12-17 16:50:25.750000
3087,-12.41,2021-12-17 16:50:25.765625
3088,-14.35,2021-12-17 16:50:25.781250
3089,-16.95,2021-12-17 16:50:25.796875
3090,-19.14,2021-12-17 16:50:25.812500
3091,-20.08,2021-12-17 16:50:25.828125
3092,-19.5,2021-12-17 16:50:25.843750
3093,-17.71,2021-12-17 16:50:25.859375
3094,-15.44,2021-12-17 16:50:25.875000
3095,-13.36,2021-12-17 16:50:25.890625
3096,-11.88,2021-12-17 16:50:25.906250
3097,-10.92,2021-12-17 16:50:25.921875
3098,-10.17,2021-12-17 16:50:25.937500
3099,-9.25,2021-12-17 16:50:25.953125
3100,-7.99,2021-12-17 16:50:25.968750
3101,-6.51,2021-12-17 16:50:25.984375
3102,-5.06,2021-12-17 16:50:26.000000
3103,-3.88,2021-12-17 16:50:26.015625
3104,-3.05,2021-12-17 16:50:26.031250
3105,-2.48,2021-12-17 16:50:26.046875
3106,-2.04,2021-12-17 16:50:26.062500
3107,-1.64,2021-12-17 16:50:26.078125
3108,-1.3,2021-12-17 16:50:26.093750
3109,-1.15,2021-12-17 16:50:26.109375
3110,-1.38,2021-12-17 16:50:26.125000
3111,-2.02,2021-12-17 16:50:26.140625
3112,-2.97,2021-12-17 16:50:26.156250
3113,-3.9,2021-12-17 16:50:26.171875
3114,-4.4,2021-12-17 16:50:26.187500
3115,-4.16,2021-12-17 16:50:26.203125
3116,-3.08,2021-12-17 16:50:26.218750
3117,-1.38,2021-12-17 16:50:26.234375
3118,0.44,2021-12-17 16:50:26.250000
3119,1.77,2021-12-17 16:50:26.265625
3120,2.13,2021-12-17 16:50:26.281250
3121,1.4,2021-12-17 16:50:26.296875
3122,-0.2,2021-12-17 16:50:26.312500
3123,-2.1,2021-12-17 16:50:26.328125
3124,-3.73,2021-12-17 16:50:26.343750
3125,-4.64,2021-12-17 16:50:26.359375
3126,-4.62,2021-12-17 16:50:26.375000
3127,-3.77,2021-12-17 16:50:26.390625
3128,-2.33,2021-12-17 16:50:26.406250
3129,-0.62,2021-12-17 16:50:26.421875
3130,1.06,2021-12-17 16:50:26.437500
3131,2.49,2021-12-17 16:50:26.453125
3132,3.59,2021-12-17 16:50:26.468750
3133,4.38,2021-12-17 16:50:26.484375
3134,4.97,2021-12-17 16:50:26.500000
3135,5.51,2021-12-17 16:50:26.515625
3136,6.1,2021-12-17 16:50:26.531250
3137,6.8,2021-12-17 16:50:26.546875
3138,7.6,2021-12-17 16:50:26.562500
3139,8.4,2021-12-17 16:50:26.578125
3140,9.11,2021-12-17 16:50:26.593750
3141,9.64,2021-12-17 16:50:26.609375
3142,9.94,2021-12-17 16:50:26.625000
3143,9.98,2021-12-17 16:50:26.640625
3144,9.81,2021-12-17 16:50:26.656250
3145,9.47,2021-12-17 16:50:26.671875
3146,9.02,2021-12-17 16:50:26.687500
3147,8.51,2021-12-17 16:50:26.703125
3148,7.91,2021-12-17 16:50:26.718750
3149,7.23,2021-12-17 16:50:26.734375
3150,6.43,2021-12-17 16:50:26.750000
3151,5.49,2021-12-17 16:50:26.765625
3152,4.43,2021-12-17 16:50:26.781250
3153,3.32,2021-12-17 16:50:26.796875
3154,2.18,2021-12-17 16:50:26.812500
3155,1.03,2021-12-17 16:50:26.828125
3156,-0.13,2021-12-17 16:50:26.843750
3157,-1.31,2021-12-17 16:50:26.859375
3158,-2.49,2021-12-17 16:50:26.875000
3159,-3.6,2021-12-17 16:50:26.890625
3160,-4.61,2021-12-17 16:50:26.906250
3161,-5.54,2021-12-17 16:50:26.921875
3162,-6.47,2021-12-17 16:50:26.937500
3163,-7.6,2021-12-17 16:50:26.953125
3164,-9.13,2021-12-17 16:50:26.968750
3165,-11.14,2021-12-17 16:50:26.984375
3166,-13.59,2021-12-17 16:50:27.000000
