,BVP,time
0,16.73,2022-10-26 11:04:19.390625
1,16.96,2022-10-26 11:04:19.406250
2,17.63,2022-10-26 11:04:19.421875
3,18.38,2022-10-26 11:04:19.437500
4,18.65,2022-10-26 11:04:19.453125
5,17.95,2022-10-26 11:04:19.468750
6,15.88,2022-10-26 11:04:19.484375
7,12.38,2022-10-26 11:04:19.500000
8,7.72,2022-10-26 11:04:19.515625
9,2.37,2022-10-26 11:04:19.531250
10,-3.14,2022-10-26 11:04:19.546875
11,-8.38,2022-10-26 11:04:19.562500
12,-13.15,2022-10-26 11:04:19.578125
13,-17.51,2022-10-26 11:04:19.593750
14,-21.69,2022-10-26 11:04:19.609375
15,-26.03,2022-10-26 11:04:19.625000
16,-30.83,2022-10-26 11:04:19.640625
17,-36.2,2022-10-26 11:04:19.656250
18,-41.98,2022-10-26 11:04:19.671875
19,-47.61,2022-10-26 11:04:19.687500
20,-52.17,2022-10-26 11:04:19.703125
21,-54.51,2022-10-26 11:04:19.718750
22,-53.64,2022-10-26 11:04:19.734375
23,-49.06,2022-10-26 11:04:19.750000
24,-40.95,2022-10-26 11:04:19.765625
25,-30.26,2022-10-26 11:04:19.781250
26,-18.31,2022-10-26 11:04:19.796875
27,-6.51,2022-10-26 11:04:19.812500
28,4.06,2022-10-26 11:04:19.828125
29,12.83,2022-10-26 11:04:19.843750
30,19.72,2022-10-26 11:04:19.859375
31,24.96,2022-10-26 11:04:19.875000
32,28.84,2022-10-26 11:04:19.890625
33,31.64,2022-10-26 11:04:19.906250
34,33.55,2022-10-26 11:04:19.921875
35,34.65,2022-10-26 11:04:19.937500
36,35.05,2022-10-26 11:04:19.953125
37,34.91,2022-10-26 11:04:19.968750
38,34.39,2022-10-26 11:04:19.984375
39,33.69,2022-10-26 11:04:20.000000
40,32.96,2022-10-26 11:04:20.015625
41,32.26,2022-10-26 11:04:20.031250
42,31.6,2022-10-26 11:04:20.046875
43,30.9,2022-10-26 11:04:20.062500
44,30.07,2022-10-26 11:04:20.078125
45,29.05,2022-10-26 11:04:20.093750
46,27.79,2022-10-26 11:04:20.109375
47,26.27,2022-10-26 11:04:20.125000
48,24.47,2022-10-26 11:04:20.140625
49,22.37,2022-10-26 11:04:20.156250
50,19.97,2022-10-26 11:04:20.171875
51,17.32,2022-10-26 11:04:20.187500
52,14.47,2022-10-26 11:04:20.203125
53,11.53,2022-10-26 11:04:20.218750
54,8.55,2022-10-26 11:04:20.234375
55,5.53,2022-10-26 11:04:20.250000
56,2.43,2022-10-26 11:04:20.265625
57,-0.82,2022-10-26 11:04:20.281250
58,-4.21,2022-10-26 11:04:20.296875
59,-7.66,2022-10-26 11:04:20.312500
60,-11.0,2022-10-26 11:04:20.328125
61,-14.04,2022-10-26 11:04:20.343750
62,-16.71,2022-10-26 11:04:20.359375
63,-19.12,2022-10-26 11:04:20.375000
64,-21.55,2022-10-26 11:04:20.390625
65,-24.47,2022-10-26 11:04:20.406250
66,-28.28,2022-10-26 11:04:20.421875
67,-33.13,2022-10-26 11:04:20.437500
68,-38.69,2022-10-26 11:04:20.453125
69,-44.02,2022-10-26 11:04:20.468750
70,-47.75,2022-10-26 11:04:20.484375
71,-48.39,2022-10-26 11:04:20.500000
72,-44.89,2022-10-26 11:04:20.515625
73,-37.03,2022-10-26 11:04:20.531250
74,-25.6,2022-10-26 11:04:20.546875
75,-12.19,2022-10-26 11:04:20.562500
76,1.44,2022-10-26 11:04:20.578125
77,13.78,2022-10-26 11:04:20.593750
78,24.05,2022-10-26 11:04:20.609375
79,32.14,2022-10-26 11:04:20.625000
80,38.36,2022-10-26 11:04:20.640625
81,43.16,2022-10-26 11:04:20.656250
82,46.87,2022-10-26 11:04:20.671875
83,49.72,2022-10-26 11:04:20.687500
84,51.81,2022-10-26 11:04:20.703125
85,53.21,2022-10-26 11:04:20.718750
86,53.99,2022-10-26 11:04:20.734375
87,54.23,2022-10-26 11:04:20.750000
88,54.08,2022-10-26 11:04:20.765625
89,53.79,2022-10-26 11:04:20.781250
90,53.67,2022-10-26 11:04:20.796875
91,53.96,2022-10-26 11:04:20.812500
92,54.68,2022-10-26 11:04:20.828125
93,55.51,2022-10-26 11:04:20.843750
94,56.02,2022-10-26 11:04:20.859375
95,55.9,2022-10-26 11:04:20.875000
96,55.24,2022-10-26 11:04:20.890625
97,54.54,2022-10-26 11:04:20.906250
98,54.45,2022-10-26 11:04:20.921875
99,55.41,2022-10-26 11:04:20.937500
100,57.33,2022-10-26 11:04:20.953125
101,59.72,2022-10-26 11:04:20.968750
102,61.84,2022-10-26 11:04:20.984375
103,63.1,2022-10-26 11:04:21.000000
104,63.19,2022-10-26 11:04:21.015625
105,62.07,2022-10-26 11:04:21.031250
106,59.75,2022-10-26 11:04:21.046875
107,56.24,2022-10-26 11:04:21.062500
108,51.51,2022-10-26 11:04:21.078125
109,45.65,2022-10-26 11:04:21.093750
110,38.92,2022-10-26 11:04:21.109375
111,31.79,2022-10-26 11:04:21.125000
112,24.83,2022-10-26 11:04:21.140625
113,18.65,2022-10-26 11:04:21.156250
114,13.76,2022-10-26 11:04:21.171875
115,10.47,2022-10-26 11:04:21.187500
116,8.85,2022-10-26 11:04:21.203125
117,8.62,2022-10-26 11:04:21.218750
118,9.1,2022-10-26 11:04:21.234375
119,9.39,2022-10-26 11:04:21.250000
120,8.6,2022-10-26 11:04:21.265625
121,6.24,2022-10-26 11:04:21.281250
122,2.48,2022-10-26 11:04:21.296875
123,-1.87,2022-10-26 11:04:21.312500
124,-5.62,2022-10-26 11:04:21.328125
125,-7.65,2022-10-26 11:04:21.343750
126,-7.18,2022-10-26 11:04:21.359375
127,-4.03,2022-10-26 11:04:21.375000
128,1.56,2022-10-26 11:04:21.390625
129,9.05,2022-10-26 11:04:21.406250
130,17.89,2022-10-26 11:04:21.421875
131,27.62,2022-10-26 11:04:21.437500
132,38.02,2022-10-26 11:04:21.453125
133,49.23,2022-10-26 11:04:21.468750
134,61.85,2022-10-26 11:04:21.484375
135,76.82,2022-10-26 11:04:21.500000
136,94.95,2022-10-26 11:04:21.515625
137,116.3,2022-10-26 11:04:21.531250
138,139.46,2022-10-26 11:04:21.546875
139,161.44,2022-10-26 11:04:21.562500
140,178.36,2022-10-26 11:04:21.578125
141,186.66,2022-10-26 11:04:21.593750
142,184.49,2022-10-26 11:04:21.609375
143,172.45,2022-10-26 11:04:21.625000
144,153.37,2022-10-26 11:04:21.640625
145,131.33,2022-10-26 11:04:21.656250
146,110.16,2022-10-26 11:04:21.671875
147,92.37,2022-10-26 11:04:21.687500
148,78.7,2022-10-26 11:04:21.703125
149,68.44,2022-10-26 11:04:21.718750
150,60.12,2022-10-26 11:04:21.734375
151,52.13,2022-10-26 11:04:21.750000
152,43.2,2022-10-26 11:04:21.765625
153,32.33,2022-10-26 11:04:21.781250
154,18.79,2022-10-26 11:04:21.796875
155,2.19,2022-10-26 11:04:21.812500
156,-17.35,2022-10-26 11:04:21.828125
157,-38.88,2022-10-26 11:04:21.843750
158,-60.64,2022-10-26 11:04:21.859375
159,-80.51,2022-10-26 11:04:21.875000
160,-96.86,2022-10-26 11:04:21.890625
161,-109.39,2022-10-26 11:04:21.906250
162,-119.5,2022-10-26 11:04:21.921875
163,-129.76,2022-10-26 11:04:21.937500
164,-142.69,2022-10-26 11:04:21.953125
165,-159.44,2022-10-26 11:04:21.968750
166,-179.09,2022-10-26 11:04:21.984375
167,-199.03,2022-10-26 11:04:22.000000
168,-216.12,2022-10-26 11:04:22.015625
169,-228.13,2022-10-26 11:04:22.031250
170,-234.59,2022-10-26 11:04:22.046875
171,-236.8,2022-10-26 11:04:22.062500
172,-237.03,2022-10-26 11:04:22.078125
173,-237.53,2022-10-26 11:04:22.093750
174,-239.77,2022-10-26 11:04:22.109375
175,-244.07,2022-10-26 11:04:22.125000
176,-249.66,2022-10-26 11:04:22.140625
177,-254.78,2022-10-26 11:04:22.156250
178,-256.93,2022-10-26 11:04:22.171875
179,-253.34,2022-10-26 11:04:22.187500
180,-241.67,2022-10-26 11:04:22.203125
181,-220.95,2022-10-26 11:04:22.218750
182,-192.19,2022-10-26 11:04:22.234375
183,-158.4,2022-10-26 11:04:22.250000
184,-123.79,2022-10-26 11:04:22.265625
185,-92.43,2022-10-26 11:04:22.281250
186,-66.89,2022-10-26 11:04:22.296875
187,-47.75,2022-10-26 11:04:22.312500
188,-33.85,2022-10-26 11:04:22.328125
189,-23.34,2022-10-26 11:04:22.343750
190,-14.69,2022-10-26 11:04:22.359375
191,-7.28,2022-10-26 11:04:22.375000
192,-1.11,2022-10-26 11:04:22.390625
193,3.69,2022-10-26 11:04:22.406250
194,7.38,2022-10-26 11:04:22.421875
195,10.61,2022-10-26 11:04:22.437500
196,14.04,2022-10-26 11:04:22.453125
197,17.86,2022-10-26 11:04:22.468750
198,21.59,2022-10-26 11:04:22.484375
199,24.35,2022-10-26 11:04:22.500000
200,25.34,2022-10-26 11:04:22.515625
201,24.31,2022-10-26 11:04:22.531250
202,21.62,2022-10-26 11:04:22.546875
203,18.11,2022-10-26 11:04:22.562500
204,14.73,2022-10-26 11:04:22.578125
205,12.31,2022-10-26 11:04:22.593750
206,11.5,2022-10-26 11:04:22.609375
207,12.78,2022-10-26 11:04:22.625000
208,16.45,2022-10-26 11:04:22.640625
209,22.49,2022-10-26 11:04:22.656250
210,30.49,2022-10-26 11:04:22.671875
211,39.56,2022-10-26 11:04:22.687500
212,48.53,2022-10-26 11:04:22.703125
213,56.2,2022-10-26 11:04:22.718750
214,61.52,2022-10-26 11:04:22.734375
215,63.94,2022-10-26 11:04:22.750000
216,63.42,2022-10-26 11:04:22.765625
217,60.38,2022-10-26 11:04:22.781250
218,55.37,2022-10-26 11:04:22.796875
219,48.77,2022-10-26 11:04:22.812500
220,40.57,2022-10-26 11:04:22.828125
221,30.39,2022-10-26 11:04:22.843750
222,17.78,2022-10-26 11:04:22.859375
223,2.77,2022-10-26 11:04:22.875000
224,-13.84,2022-10-26 11:04:22.890625
225,-30.46,2022-10-26 11:04:22.906250
226,-45.06,2022-10-26 11:04:22.921875
227,-55.93,2022-10-26 11:04:22.937500
228,-62.24,2022-10-26 11:04:22.953125
229,-64.09,2022-10-26 11:04:22.968750
230,-62.26,2022-10-26 11:04:22.984375
231,-57.51,2022-10-26 11:04:23.000000
232,-50.29,2022-10-26 11:04:23.015625
233,-40.68,2022-10-26 11:04:23.031250
234,-28.8,2022-10-26 11:04:23.046875
235,-15.26,2022-10-26 11:04:23.062500
236,-1.32,2022-10-26 11:04:23.078125
237,11.37,2022-10-26 11:04:23.093750
238,21.27,2022-10-26 11:04:23.109375
239,27.53,2022-10-26 11:04:23.125000
240,30.28,2022-10-26 11:04:23.140625
241,30.56,2022-10-26 11:04:23.156250
242,29.76,2022-10-26 11:04:23.171875
243,29.13,2022-10-26 11:04:23.187500
244,29.31,2022-10-26 11:04:23.203125
245,30.31,2022-10-26 11:04:23.218750
246,31.65,2022-10-26 11:04:23.234375
247,32.8,2022-10-26 11:04:23.250000
248,33.46,2022-10-26 11:04:23.265625
249,33.66,2022-10-26 11:04:23.281250
250,33.7,2022-10-26 11:04:23.296875
251,33.87,2022-10-26 11:04:23.312500
252,34.1,2022-10-26 11:04:23.328125
253,33.87,2022-10-26 11:04:23.343750
254,32.27,2022-10-26 11:04:23.359375
255,28.3,2022-10-26 11:04:23.375000
256,21.39,2022-10-26 11:04:23.390625
257,11.64,2022-10-26 11:04:23.406250
258,-0.12,2022-10-26 11:04:23.421875
259,-12.53,2022-10-26 11:04:23.437500
260,-24.18,2022-10-26 11:04:23.453125
261,-34.03,2022-10-26 11:04:23.468750
262,-41.63,2022-10-26 11:04:23.484375
263,-47.15,2022-10-26 11:04:23.500000
264,-51.24,2022-10-26 11:04:23.515625
265,-54.74,2022-10-26 11:04:23.531250
266,-58.43,2022-10-26 11:04:23.546875
267,-62.95,2022-10-26 11:04:23.562500
268,-68.56,2022-10-26 11:04:23.578125
269,-75.21,2022-10-26 11:04:23.593750
270,-82.51,2022-10-26 11:04:23.609375
271,-89.83,2022-10-26 11:04:23.625000
272,-96.41,2022-10-26 11:04:23.640625
273,-101.36,2022-10-26 11:04:23.656250
274,-103.76,2022-10-26 11:04:23.671875
275,-102.67,2022-10-26 11:04:23.687500
276,-97.36,2022-10-26 11:04:23.703125
277,-87.55,2022-10-26 11:04:23.718750
278,-73.7,2022-10-26 11:04:23.734375
279,-57.16,2022-10-26 11:04:23.750000
280,-39.92,2022-10-26 11:04:23.765625
281,-24.21,2022-10-26 11:04:23.781250
282,-11.9,2022-10-26 11:04:23.796875
283,-4.05,2022-10-26 11:04:23.812500
284,-0.81,2022-10-26 11:04:23.828125
285,-1.51,2022-10-26 11:04:23.843750
286,-4.95,2022-10-26 11:04:23.859375
287,-9.79,2022-10-26 11:04:23.875000
288,-14.72,2022-10-26 11:04:23.890625
289,-18.67,2022-10-26 11:04:23.906250
290,-20.9,2022-10-26 11:04:23.921875
291,-21.07,2022-10-26 11:04:23.937500
292,-19.21,2022-10-26 11:04:23.953125
293,-15.75,2022-10-26 11:04:23.968750
294,-11.33,2022-10-26 11:04:23.984375
295,-6.65,2022-10-26 11:04:24.000000
296,-2.36,2022-10-26 11:04:24.015625
297,1.13,2022-10-26 11:04:24.031250
298,3.63,2022-10-26 11:04:24.046875
299,5.19,2022-10-26 11:04:24.062500
300,6.01,2022-10-26 11:04:24.078125
301,6.33,2022-10-26 11:04:24.093750
302,6.31,2022-10-26 11:04:24.109375
303,6.06,2022-10-26 11:04:24.125000
304,5.68,2022-10-26 11:04:24.140625
305,5.38,2022-10-26 11:04:24.156250
306,5.51,2022-10-26 11:04:24.171875
307,6.49,2022-10-26 11:04:24.187500
308,8.56,2022-10-26 11:04:24.203125
309,11.68,2022-10-26 11:04:24.218750
310,15.41,2022-10-26 11:04:24.234375
311,19.03,2022-10-26 11:04:24.250000
312,21.77,2022-10-26 11:04:24.265625
313,23.07,2022-10-26 11:04:24.281250
314,22.61,2022-10-26 11:04:24.296875
315,20.24,2022-10-26 11:04:24.312500
316,15.91,2022-10-26 11:04:24.328125
317,9.62,2022-10-26 11:04:24.343750
318,1.49,2022-10-26 11:04:24.359375
319,-7.84,2022-10-26 11:04:24.375000
320,-17.16,2022-10-26 11:04:24.390625
321,-24.72,2022-10-26 11:04:24.406250
322,-28.71,2022-10-26 11:04:24.421875
323,-27.87,2022-10-26 11:04:24.437500
324,-21.98,2022-10-26 11:04:24.453125
325,-12.03,2022-10-26 11:04:24.468750
326,0.11,2022-10-26 11:04:24.484375
327,12.27,2022-10-26 11:04:24.500000
328,22.69,2022-10-26 11:04:24.515625
329,30.35,2022-10-26 11:04:24.531250
330,35.15,2022-10-26 11:04:24.546875
331,37.55,2022-10-26 11:04:24.562500
332,38.24,2022-10-26 11:04:24.578125
333,37.8,2022-10-26 11:04:24.593750
334,36.6,2022-10-26 11:04:24.609375
335,34.85,2022-10-26 11:04:24.625000
336,32.76,2022-10-26 11:04:24.640625
337,30.54,2022-10-26 11:04:24.656250
338,28.49,2022-10-26 11:04:24.671875
339,26.88,2022-10-26 11:04:24.687500
340,25.84,2022-10-26 11:04:24.703125
341,25.37,2022-10-26 11:04:24.718750
342,25.31,2022-10-26 11:04:24.734375
343,25.42,2022-10-26 11:04:24.750000
344,25.53,2022-10-26 11:04:24.765625
345,25.52,2022-10-26 11:04:24.781250
346,25.41,2022-10-26 11:04:24.796875
347,25.2,2022-10-26 11:04:24.812500
348,24.8,2022-10-26 11:04:24.828125
349,23.97,2022-10-26 11:04:24.843750
350,22.4,2022-10-26 11:04:24.859375
351,19.83,2022-10-26 11:04:24.875000
352,16.2,2022-10-26 11:04:24.890625
353,11.8,2022-10-26 11:04:24.906250
354,7.2,2022-10-26 11:04:24.921875
355,3.02,2022-10-26 11:04:24.937500
356,-0.19,2022-10-26 11:04:24.953125
357,-2.34,2022-10-26 11:04:24.968750
358,-3.8,2022-10-26 11:04:24.984375
359,-5.36,2022-10-26 11:04:25.000000
360,-7.92,2022-10-26 11:04:25.015625
361,-12.18,2022-10-26 11:04:25.031250
362,-18.14,2022-10-26 11:04:25.046875
363,-25.07,2022-10-26 11:04:25.062500
364,-31.53,2022-10-26 11:04:25.078125
365,-35.75,2022-10-26 11:04:25.093750
366,-36.26,2022-10-26 11:04:25.109375
367,-32.35,2022-10-26 11:04:25.125000
368,-24.26,2022-10-26 11:04:25.140625
369,-13.13,2022-10-26 11:04:25.156250
370,-0.59,2022-10-26 11:04:25.171875
371,11.77,2022-10-26 11:04:25.187500
372,22.79,2022-10-26 11:04:25.203125
373,31.9,2022-10-26 11:04:25.218750
374,39.07,2022-10-26 11:04:25.234375
375,44.56,2022-10-26 11:04:25.250000
376,48.72,2022-10-26 11:04:25.265625
377,51.81,2022-10-26 11:04:25.281250
378,53.98,2022-10-26 11:04:25.296875
379,55.37,2022-10-26 11:04:25.312500
380,56.14,2022-10-26 11:04:25.328125
381,56.5,2022-10-26 11:04:25.343750
382,56.65,2022-10-26 11:04:25.359375
383,56.78,2022-10-26 11:04:25.375000
384,56.88,2022-10-26 11:04:25.390625
385,56.9,2022-10-26 11:04:25.406250
386,56.75,2022-10-26 11:04:25.421875
387,56.38,2022-10-26 11:04:25.437500
388,55.89,2022-10-26 11:04:25.453125
389,55.51,2022-10-26 11:04:25.468750
390,55.42,2022-10-26 11:04:25.484375
391,55.64,2022-10-26 11:04:25.500000
392,55.94,2022-10-26 11:04:25.515625
393,55.81,2022-10-26 11:04:25.531250
394,54.71,2022-10-26 11:04:25.546875
395,52.23,2022-10-26 11:04:25.562500
396,48.24,2022-10-26 11:04:25.578125
397,43.03,2022-10-26 11:04:25.593750
398,37.13,2022-10-26 11:04:25.609375
399,31.18,2022-10-26 11:04:25.625000
400,25.68,2022-10-26 11:04:25.640625
401,20.83,2022-10-26 11:04:25.656250
402,16.41,2022-10-26 11:04:25.671875
403,11.87,2022-10-26 11:04:25.687500
404,6.42,2022-10-26 11:04:25.703125
405,-0.7,2022-10-26 11:04:25.718750
406,-10.06,2022-10-26 11:04:25.734375
407,-21.73,2022-10-26 11:04:25.750000
408,-35.17,2022-10-26 11:04:25.765625
409,-49.15,2022-10-26 11:04:25.781250
410,-61.9,2022-10-26 11:04:25.796875
411,-71.4,2022-10-26 11:04:25.812500
412,-75.86,2022-10-26 11:04:25.828125
413,-74.19,2022-10-26 11:04:25.843750
414,-66.37,2022-10-26 11:04:25.859375
415,-53.5,2022-10-26 11:04:25.875000
416,-37.49,2022-10-26 11:04:25.890625
417,-20.66,2022-10-26 11:04:25.906250
418,-5.02,2022-10-26 11:04:25.921875
419,8.07,2022-10-26 11:04:25.937500
420,18.13,2022-10-26 11:04:25.953125
421,25.4,2022-10-26 11:04:25.968750
422,30.57,2022-10-26 11:04:25.984375
423,34.48,2022-10-26 11:04:26.000000
424,37.89,2022-10-26 11:04:26.015625
425,41.32,2022-10-26 11:04:26.031250
426,45.1,2022-10-26 11:04:26.046875
427,49.29,2022-10-26 11:04:26.062500
428,53.82,2022-10-26 11:04:26.078125
429,58.48,2022-10-26 11:04:26.093750
430,62.94,2022-10-26 11:04:26.109375
431,66.8,2022-10-26 11:04:26.125000
432,69.5,2022-10-26 11:04:26.140625
433,70.42,2022-10-26 11:04:26.156250
434,68.87,2022-10-26 11:04:26.171875
435,64.25,2022-10-26 11:04:26.187500
436,56.23,2022-10-26 11:04:26.203125
437,44.87,2022-10-26 11:04:26.218750
438,30.79,2022-10-26 11:04:26.234375
439,15.11,2022-10-26 11:04:26.250000
440,-0.65,2022-10-26 11:04:26.265625
441,-14.96,2022-10-26 11:04:26.281250
442,-26.63,2022-10-26 11:04:26.296875
443,-35.13,2022-10-26 11:04:26.312500
444,-40.67,2022-10-26 11:04:26.328125
445,-43.98,2022-10-26 11:04:26.343750
446,-45.92,2022-10-26 11:04:26.359375
447,-47.18,2022-10-26 11:04:26.375000
448,-48.1,2022-10-26 11:04:26.390625
449,-48.83,2022-10-26 11:04:26.406250
450,-49.37,2022-10-26 11:04:26.421875
451,-49.69,2022-10-26 11:04:26.437500
452,-49.64,2022-10-26 11:04:26.453125
453,-48.85,2022-10-26 11:04:26.468750
454,-46.91,2022-10-26 11:04:26.484375
455,-43.63,2022-10-26 11:04:26.500000
456,-39.39,2022-10-26 11:04:26.515625
457,-35.13,2022-10-26 11:04:26.531250
458,-31.91,2022-10-26 11:04:26.546875
459,-30.25,2022-10-26 11:04:26.562500
460,-29.63,2022-10-26 11:04:26.578125
461,-28.68,2022-10-26 11:04:26.593750
462,-25.81,2022-10-26 11:04:26.609375
463,-20.12,2022-10-26 11:04:26.625000
464,-11.86,2022-10-26 11:04:26.640625
465,-2.28,2022-10-26 11:04:26.656250
466,7.17,2022-10-26 11:04:26.671875
467,15.56,2022-10-26 11:04:26.687500
468,22.83,2022-10-26 11:04:26.703125
469,29.52,2022-10-26 11:04:26.718750
470,36.14,2022-10-26 11:04:26.734375
471,42.64,2022-10-26 11:04:26.750000
472,48.44,2022-10-26 11:04:26.765625
473,52.73,2022-10-26 11:04:26.781250
474,55.02,2022-10-26 11:04:26.796875
475,55.43,2022-10-26 11:04:26.812500
476,54.48,2022-10-26 11:04:26.828125
477,52.85,2022-10-26 11:04:26.843750
478,50.99,2022-10-26 11:04:26.859375
479,49.01,2022-10-26 11:04:26.875000
480,46.81,2022-10-26 11:04:26.890625
481,44.23,2022-10-26 11:04:26.906250
482,41.2,2022-10-26 11:04:26.921875
483,37.74,2022-10-26 11:04:26.937500
484,33.93,2022-10-26 11:04:26.953125
485,29.79,2022-10-26 11:04:26.968750
486,25.39,2022-10-26 11:04:26.984375
487,20.76,2022-10-26 11:04:27.000000
488,16.0,2022-10-26 11:04:27.015625
489,11.15,2022-10-26 11:04:27.031250
490,6.22,2022-10-26 11:04:27.046875
491,1.18,2022-10-26 11:04:27.062500
492,-3.98,2022-10-26 11:04:27.078125
493,-9.12,2022-10-26 11:04:27.093750
494,-13.96,2022-10-26 11:04:27.109375
495,-18.17,2022-10-26 11:04:27.125000
496,-21.47,2022-10-26 11:04:27.140625
497,-23.92,2022-10-26 11:04:27.156250
498,-25.85,2022-10-26 11:04:27.171875
499,-27.89,2022-10-26 11:04:27.187500
500,-30.68,2022-10-26 11:04:27.203125
501,-34.61,2022-10-26 11:04:27.218750
502,-39.55,2022-10-26 11:04:27.234375
503,-44.71,2022-10-26 11:04:27.250000
504,-48.81,2022-10-26 11:04:27.265625
505,-50.4,2022-10-26 11:04:27.281250
506,-48.41,2022-10-26 11:04:27.296875
507,-42.55,2022-10-26 11:04:27.312500
508,-33.54,2022-10-26 11:04:27.328125
509,-22.84,2022-10-26 11:04:27.343750
510,-12.19,2022-10-26 11:04:27.359375
511,-3.07,2022-10-26 11:04:27.375000
512,3.7,2022-10-26 11:04:27.390625
513,8.0,2022-10-26 11:04:27.406250
514,10.16,2022-10-26 11:04:27.421875
515,10.68,2022-10-26 11:04:27.437500
516,10.03,2022-10-26 11:04:27.453125
517,8.55,2022-10-26 11:04:27.468750
518,6.65,2022-10-26 11:04:27.484375
519,4.82,2022-10-26 11:04:27.500000
520,3.65,2022-10-26 11:04:27.515625
521,3.7,2022-10-26 11:04:27.531250
522,5.31,2022-10-26 11:04:27.546875
523,8.5,2022-10-26 11:04:27.562500
524,12.89,2022-10-26 11:04:27.578125
525,17.73,2022-10-26 11:04:27.593750
526,22.12,2022-10-26 11:04:27.609375
527,25.21,2022-10-26 11:04:27.625000
528,26.42,2022-10-26 11:04:27.640625
529,25.53,2022-10-26 11:04:27.656250
530,22.78,2022-10-26 11:04:27.671875
531,18.6,2022-10-26 11:04:27.687500
532,13.6,2022-10-26 11:04:27.703125
533,8.29,2022-10-26 11:04:27.718750
534,3.09,2022-10-26 11:04:27.734375
535,-1.68,2022-10-26 11:04:27.750000
536,-5.76,2022-10-26 11:04:27.765625
537,-8.91,2022-10-26 11:04:27.781250
538,-11.04,2022-10-26 11:04:27.796875
539,-12.21,2022-10-26 11:04:27.812500
540,-12.76,2022-10-26 11:04:27.828125
541,-13.15,2022-10-26 11:04:27.843750
542,-13.93,2022-10-26 11:04:27.859375
543,-15.52,2022-10-26 11:04:27.875000
544,-18.08,2022-10-26 11:04:27.890625
545,-21.37,2022-10-26 11:04:27.906250
546,-24.8,2022-10-26 11:04:27.921875
547,-27.39,2022-10-26 11:04:27.937500
548,-28.08,2022-10-26 11:04:27.953125
549,-26.05,2022-10-26 11:04:27.968750
550,-21.03,2022-10-26 11:04:27.984375
551,-13.49,2022-10-26 11:04:28.000000
552,-4.48,2022-10-26 11:04:28.015625
553,4.67,2022-10-26 11:04:28.031250
554,12.84,2022-10-26 11:04:28.046875
555,19.37,2022-10-26 11:04:28.062500
556,24.2,2022-10-26 11:04:28.078125
557,27.65,2022-10-26 11:04:28.093750
558,30.18,2022-10-26 11:04:28.109375
559,32.14,2022-10-26 11:04:28.125000
560,33.72,2022-10-26 11:04:28.140625
561,34.96,2022-10-26 11:04:28.156250
562,35.88,2022-10-26 11:04:28.171875
563,36.5,2022-10-26 11:04:28.187500
564,36.82,2022-10-26 11:04:28.203125
565,36.8,2022-10-26 11:04:28.218750
566,36.38,2022-10-26 11:04:28.234375
567,35.49,2022-10-26 11:04:28.250000
568,34.1,2022-10-26 11:04:28.265625
569,32.18,2022-10-26 11:04:28.281250
570,29.76,2022-10-26 11:04:28.296875
571,26.81,2022-10-26 11:04:28.312500
572,23.29,2022-10-26 11:04:28.328125
573,19.15,2022-10-26 11:04:28.343750
574,14.42,2022-10-26 11:04:28.359375
575,9.32,2022-10-26 11:04:28.375000
576,4.15,2022-10-26 11:04:28.390625
577,-0.69,2022-10-26 11:04:28.406250
578,-4.89,2022-10-26 11:04:28.421875
579,-8.31,2022-10-26 11:04:28.437500
580,-11.03,2022-10-26 11:04:28.453125
581,-13.32,2022-10-26 11:04:28.468750
582,-15.52,2022-10-26 11:04:28.484375
583,-18.03,2022-10-26 11:04:28.500000
584,-21.17,2022-10-26 11:04:28.515625
585,-25.0,2022-10-26 11:04:28.531250
586,-29.26,2022-10-26 11:04:28.546875
587,-33.25,2022-10-26 11:04:28.562500
588,-35.95,2022-10-26 11:04:28.578125
589,-36.3,2022-10-26 11:04:28.593750
590,-33.65,2022-10-26 11:04:28.609375
591,-27.92,2022-10-26 11:04:28.625000
592,-19.83,2022-10-26 11:04:28.640625
593,-10.6,2022-10-26 11:04:28.656250
594,-1.59,2022-10-26 11:04:28.671875
595,6.13,2022-10-26 11:04:28.687500
596,11.94,2022-10-26 11:04:28.703125
597,15.73,2022-10-26 11:04:28.718750
598,17.71,2022-10-26 11:04:28.734375
599,18.21,2022-10-26 11:04:28.750000
600,17.57,2022-10-26 11:04:28.765625
601,16.09,2022-10-26 11:04:28.781250
602,14.06,2022-10-26 11:04:28.796875
603,11.76,2022-10-26 11:04:28.812500
604,9.45,2022-10-26 11:04:28.828125
605,7.36,2022-10-26 11:04:28.843750
606,5.72,2022-10-26 11:04:28.859375
607,4.69,2022-10-26 11:04:28.875000
608,4.3,2022-10-26 11:04:28.890625
609,4.48,2022-10-26 11:04:28.906250
610,4.98,2022-10-26 11:04:28.921875
611,5.43,2022-10-26 11:04:28.937500
612,5.47,2022-10-26 11:04:28.953125
613,4.84,2022-10-26 11:04:28.968750
614,3.46,2022-10-26 11:04:28.984375
615,1.42,2022-10-26 11:04:29.000000
616,-1.14,2022-10-26 11:04:29.015625
617,-4.07,2022-10-26 11:04:29.031250
618,-7.29,2022-10-26 11:04:29.046875
619,-10.76,2022-10-26 11:04:29.062500
620,-14.38,2022-10-26 11:04:29.078125
621,-18.0,2022-10-26 11:04:29.093750
622,-21.4,2022-10-26 11:04:29.109375
623,-24.43,2022-10-26 11:04:29.125000
624,-27.09,2022-10-26 11:04:29.140625
625,-29.51,2022-10-26 11:04:29.156250
626,-31.91,2022-10-26 11:04:29.171875
627,-34.3,2022-10-26 11:04:29.187500
628,-36.33,2022-10-26 11:04:29.203125
629,-37.32,2022-10-26 11:04:29.218750
630,-36.47,2022-10-26 11:04:29.234375
631,-33.25,2022-10-26 11:04:29.250000
632,-27.71,2022-10-26 11:04:29.265625
633,-20.58,2022-10-26 11:04:29.281250
634,-13.05,2022-10-26 11:04:29.296875
635,-6.3,2022-10-26 11:04:29.312500
636,-1.11,2022-10-26 11:04:29.328125
637,2.34,2022-10-26 11:04:29.343750
638,4.4,2022-10-26 11:04:29.359375
639,5.72,2022-10-26 11:04:29.375000
640,6.86,2022-10-26 11:04:29.390625
641,8.2,2022-10-26 11:04:29.406250
642,9.85,2022-10-26 11:04:29.421875
643,11.78,2022-10-26 11:04:29.437500
644,13.93,2022-10-26 11:04:29.453125
645,16.24,2022-10-26 11:04:29.468750
646,18.7,2022-10-26 11:04:29.484375
647,21.21,2022-10-26 11:04:29.500000
648,23.68,2022-10-26 11:04:29.515625
649,25.92,2022-10-26 11:04:29.531250
650,27.77,2022-10-26 11:04:29.546875
651,29.18,2022-10-26 11:04:29.562500
652,30.18,2022-10-26 11:04:29.578125
653,30.9,2022-10-26 11:04:29.593750
654,31.46,2022-10-26 11:04:29.609375
655,31.86,2022-10-26 11:04:29.625000
656,31.87,2022-10-26 11:04:29.640625
657,31.17,2022-10-26 11:04:29.656250
658,29.38,2022-10-26 11:04:29.671875
659,26.29,2022-10-26 11:04:29.687500
660,21.98,2022-10-26 11:04:29.703125
661,16.8,2022-10-26 11:04:29.718750
662,11.22,2022-10-26 11:04:29.734375
663,5.68,2022-10-26 11:04:29.750000
664,0.44,2022-10-26 11:04:29.765625
665,-4.46,2022-10-26 11:04:29.781250
666,-9.16,2022-10-26 11:04:29.796875
667,-13.85,2022-10-26 11:04:29.812500
668,-18.78,2022-10-26 11:04:29.828125
669,-24.12,2022-10-26 11:04:29.843750
670,-29.93,2022-10-26 11:04:29.859375
671,-36.03,2022-10-26 11:04:29.875000
672,-41.92,2022-10-26 11:04:29.890625
673,-46.76,2022-10-26 11:04:29.906250
674,-49.53,2022-10-26 11:04:29.921875
675,-49.37,2022-10-26 11:04:29.937500
676,-45.91,2022-10-26 11:04:29.953125
677,-39.51,2022-10-26 11:04:29.968750
678,-31.14,2022-10-26 11:04:29.984375
679,-22.16,2022-10-26 11:04:30.000000
680,-13.83,2022-10-26 11:04:30.015625
681,-7.0,2022-10-26 11:04:30.031250
682,-2.02,2022-10-26 11:04:30.046875
683,1.26,2022-10-26 11:04:30.062500
684,3.2,2022-10-26 11:04:30.078125
685,4.24,2022-10-26 11:04:30.093750
686,4.78,2022-10-26 11:04:30.109375
687,5.14,2022-10-26 11:04:30.125000
688,5.61,2022-10-26 11:04:30.140625
689,6.46,2022-10-26 11:04:30.156250
690,7.8,2022-10-26 11:04:30.171875
691,9.59,2022-10-26 11:04:30.187500
692,11.54,2022-10-26 11:04:30.203125
693,13.17,2022-10-26 11:04:30.218750
694,14.02,2022-10-26 11:04:30.234375
695,13.82,2022-10-26 11:04:30.250000
696,12.67,2022-10-26 11:04:30.265625
697,11.0,2022-10-26 11:04:30.281250
698,9.51,2022-10-26 11:04:30.296875
699,8.83,2022-10-26 11:04:30.312500
700,9.31,2022-10-26 11:04:30.328125
701,10.9,2022-10-26 11:04:30.343750
702,13.15,2022-10-26 11:04:30.359375
703,15.4,2022-10-26 11:04:30.375000
704,16.98,2022-10-26 11:04:30.390625
705,17.39,2022-10-26 11:04:30.406250
706,16.42,2022-10-26 11:04:30.421875
707,14.16,2022-10-26 11:04:30.437500
708,10.94,2022-10-26 11:04:30.453125
709,7.3,2022-10-26 11:04:30.468750
710,3.84,2022-10-26 11:04:30.484375
711,1.1,2022-10-26 11:04:30.500000
712,-0.63,2022-10-26 11:04:30.515625
713,-1.35,2022-10-26 11:04:30.531250
714,-1.52,2022-10-26 11:04:30.546875
715,-1.82,2022-10-26 11:04:30.562500
716,-3.0,2022-10-26 11:04:30.578125
717,-5.61,2022-10-26 11:04:30.593750
718,-9.72,2022-10-26 11:04:30.609375
719,-14.89,2022-10-26 11:04:30.625000
720,-20.15,2022-10-26 11:04:30.640625
721,-24.32,2022-10-26 11:04:30.656250
722,-26.32,2022-10-26 11:04:30.671875
723,-25.58,2022-10-26 11:04:30.687500
724,-22.12,2022-10-26 11:04:30.703125
725,-16.59,2022-10-26 11:04:30.718750
726,-9.98,2022-10-26 11:04:30.734375
727,-3.33,2022-10-26 11:04:30.750000
728,2.59,2022-10-26 11:04:30.765625
729,7.36,2022-10-26 11:04:30.781250
730,10.88,2022-10-26 11:04:30.796875
731,13.29,2022-10-26 11:04:30.812500
732,14.78,2022-10-26 11:04:30.828125
733,15.59,2022-10-26 11:04:30.843750
734,15.95,2022-10-26 11:04:30.859375
735,16.03,2022-10-26 11:04:30.875000
736,15.96,2022-10-26 11:04:30.890625
737,15.81,2022-10-26 11:04:30.906250
738,15.54,2022-10-26 11:04:30.921875
739,15.12,2022-10-26 11:04:30.937500
740,14.56,2022-10-26 11:04:30.953125
741,13.94,2022-10-26 11:04:30.968750
742,13.36,2022-10-26 11:04:30.984375
743,12.96,2022-10-26 11:04:31.000000
744,12.81,2022-10-26 11:04:31.015625
745,12.95,2022-10-26 11:04:31.031250
746,13.33,2022-10-26 11:04:31.046875
747,13.83,2022-10-26 11:04:31.062500
748,14.32,2022-10-26 11:04:31.078125
749,14.69,2022-10-26 11:04:31.093750
750,14.93,2022-10-26 11:04:31.109375
751,15.13,2022-10-26 11:04:31.125000
752,15.42,2022-10-26 11:04:31.140625
753,15.81,2022-10-26 11:04:31.156250
754,16.1,2022-10-26 11:04:31.171875
755,15.87,2022-10-26 11:04:31.187500
756,14.61,2022-10-26 11:04:31.203125
757,11.98,2022-10-26 11:04:31.218750
758,7.95,2022-10-26 11:04:31.234375
759,2.88,2022-10-26 11:04:31.250000
760,-2.64,2022-10-26 11:04:31.265625
761,-8.0,2022-10-26 11:04:31.281250
762,-12.73,2022-10-26 11:04:31.296875
763,-16.61,2022-10-26 11:04:31.312500
764,-19.72,2022-10-26 11:04:31.328125
765,-22.37,2022-10-26 11:04:31.343750
766,-25.11,2022-10-26 11:04:31.359375
767,-28.56,2022-10-26 11:04:31.375000
768,-33.11,2022-10-26 11:04:31.390625
769,-38.68,2022-10-26 11:04:31.406250
770,-44.48,2022-10-26 11:04:31.421875
771,-49.09,2022-10-26 11:04:31.437500
772,-50.93,2022-10-26 11:04:31.453125
773,-48.82,2022-10-26 11:04:31.468750
774,-42.58,2022-10-26 11:04:31.484375
775,-33.18,2022-10-26 11:04:31.500000
776,-22.34,2022-10-26 11:04:31.515625
777,-11.97,2022-10-26 11:04:31.531250
778,-3.51,2022-10-26 11:04:31.546875
779,2.4,2022-10-26 11:04:31.562500
780,5.84,2022-10-26 11:04:31.578125
781,7.39,2022-10-26 11:04:31.593750
782,7.7,2022-10-26 11:04:31.609375
783,7.3,2022-10-26 11:04:31.625000
784,6.6,2022-10-26 11:04:31.640625
785,5.87,2022-10-26 11:04:31.656250
786,5.39,2022-10-26 11:04:31.671875
787,5.39,2022-10-26 11:04:31.687500
788,6.0,2022-10-26 11:04:31.703125
789,7.23,2022-10-26 11:04:31.718750
790,8.92,2022-10-26 11:04:31.734375
791,10.81,2022-10-26 11:04:31.750000
792,12.66,2022-10-26 11:04:31.765625
793,14.3,2022-10-26 11:04:31.781250
794,15.7,2022-10-26 11:04:31.796875
795,16.94,2022-10-26 11:04:31.812500
796,18.08,2022-10-26 11:04:31.828125
797,19.13,2022-10-26 11:04:31.843750
798,19.91,2022-10-26 11:04:31.859375
799,20.16,2022-10-26 11:04:31.875000
800,19.64,2022-10-26 11:04:31.890625
801,18.24,2022-10-26 11:04:31.906250
802,16.12,2022-10-26 11:04:31.921875
803,13.55,2022-10-26 11:04:31.937500
804,10.84,2022-10-26 11:04:31.953125
805,8.18,2022-10-26 11:04:31.968750
806,5.63,2022-10-26 11:04:31.984375
807,3.14,2022-10-26 11:04:32.000000
808,0.72,2022-10-26 11:04:32.015625
809,-1.58,2022-10-26 11:04:32.031250
810,-3.64,2022-10-26 11:04:32.046875
811,-5.35,2022-10-26 11:04:32.062500
812,-6.68,2022-10-26 11:04:32.078125
813,-7.69,2022-10-26 11:04:32.093750
814,-8.54,2022-10-26 11:04:32.109375
815,-9.45,2022-10-26 11:04:32.125000
816,-10.65,2022-10-26 11:04:32.140625
817,-12.31,2022-10-26 11:04:32.156250
818,-14.51,2022-10-26 11:04:32.171875
819,-17.16,2022-10-26 11:04:32.187500
820,-19.98,2022-10-26 11:04:32.203125
821,-22.63,2022-10-26 11:04:32.218750
822,-24.8,2022-10-26 11:04:32.234375
823,-26.33,2022-10-26 11:04:32.250000
824,-27.3,2022-10-26 11:04:32.265625
825,-27.99,2022-10-26 11:04:32.281250
826,-28.77,2022-10-26 11:04:32.296875
827,-30.08,2022-10-26 11:04:32.312500
828,-32.27,2022-10-26 11:04:32.328125
829,-35.55,2022-10-26 11:04:32.343750
830,-39.83,2022-10-26 11:04:32.359375
831,-44.57,2022-10-26 11:04:32.375000
832,-48.82,2022-10-26 11:04:32.390625
833,-51.28,2022-10-26 11:04:32.406250
834,-50.81,2022-10-26 11:04:32.421875
835,-46.72,2022-10-26 11:04:32.437500
836,-39.17,2022-10-26 11:04:32.453125
837,-29.13,2022-10-26 11:04:32.468750
838,-18.1,2022-10-26 11:04:32.484375
839,-7.63,2022-10-26 11:04:32.500000
840,1.15,2022-10-26 11:04:32.515625
841,7.69,2022-10-26 11:04:32.531250
842,12.02,2022-10-26 11:04:32.546875
843,14.51,2022-10-26 11:04:32.562500
844,15.66,2022-10-26 11:04:32.578125
845,15.96,2022-10-26 11:04:32.593750
846,15.87,2022-10-26 11:04:32.609375
847,15.71,2022-10-26 11:04:32.625000
848,15.72,2022-10-26 11:04:32.640625
849,15.93,2022-10-26 11:04:32.656250
850,16.23,2022-10-26 11:04:32.671875
851,16.39,2022-10-26 11:04:32.687500
852,16.2,2022-10-26 11:04:32.703125
853,15.59,2022-10-26 11:04:32.718750
854,14.67,2022-10-26 11:04:32.734375
855,13.65,2022-10-26 11:04:32.750000
856,12.75,2022-10-26 11:04:32.765625
857,12.03,2022-10-26 11:04:32.781250
858,11.47,2022-10-26 11:04:32.796875
859,10.98,2022-10-26 11:04:32.812500
860,10.45,2022-10-26 11:04:32.828125
861,9.81,2022-10-26 11:04:32.843750
862,8.99,2022-10-26 11:04:32.859375
863,7.93,2022-10-26 11:04:32.875000
864,6.63,2022-10-26 11:04:32.890625
865,5.17,2022-10-26 11:04:32.906250
866,3.76,2022-10-26 11:04:32.921875
867,2.59,2022-10-26 11:04:32.937500
868,1.72,2022-10-26 11:04:32.953125
869,0.95,2022-10-26 11:04:32.968750
870,-0.1,2022-10-26 11:04:32.984375
871,-1.83,2022-10-26 11:04:33.000000
872,-4.38,2022-10-26 11:04:33.015625
873,-7.53,2022-10-26 11:04:33.031250
874,-10.77,2022-10-26 11:04:33.046875
875,-13.53,2022-10-26 11:04:33.062500
876,-15.53,2022-10-26 11:04:33.078125
877,-16.89,2022-10-26 11:04:33.093750
878,-18.07,2022-10-26 11:04:33.109375
879,-19.68,2022-10-26 11:04:33.125000
880,-22.16,2022-10-26 11:04:33.140625
881,-25.64,2022-10-26 11:04:33.156250
882,-29.84,2022-10-26 11:04:33.171875
883,-34.11,2022-10-26 11:04:33.187500
884,-37.59,2022-10-26 11:04:33.203125
885,-39.32,2022-10-26 11:04:33.218750
886,-38.5,2022-10-26 11:04:33.234375
887,-34.69,2022-10-26 11:04:33.250000
888,-27.97,2022-10-26 11:04:33.265625
889,-18.98,2022-10-26 11:04:33.281250
890,-8.84,2022-10-26 11:04:33.296875
891,1.2,2022-10-26 11:04:33.312500
892,10.06,2022-10-26 11:04:33.328125
893,17.05,2022-10-26 11:04:33.343750
894,21.99,2022-10-26 11:04:33.359375
895,25.11,2022-10-26 11:04:33.375000
896,26.87,2022-10-26 11:04:33.390625
897,27.75,2022-10-26 11:04:33.406250
898,28.09,2022-10-26 11:04:33.421875
899,28.13,2022-10-26 11:04:33.437500
900,27.96,2022-10-26 11:04:33.453125
901,27.65,2022-10-26 11:04:33.468750
902,27.26,2022-10-26 11:04:33.484375
903,26.82,2022-10-26 11:04:33.500000
904,26.31,2022-10-26 11:04:33.515625
905,25.66,2022-10-26 11:04:33.531250
906,24.82,2022-10-26 11:04:33.546875
907,23.81,2022-10-26 11:04:33.562500
908,22.77,2022-10-26 11:04:33.578125
909,21.85,2022-10-26 11:04:33.593750
910,21.18,2022-10-26 11:04:33.609375
911,20.7,2022-10-26 11:04:33.625000
912,20.21,2022-10-26 11:04:33.640625
913,19.39,2022-10-26 11:04:33.656250
914,18.0,2022-10-26 11:04:33.671875
915,15.94,2022-10-26 11:04:33.687500
916,13.32,2022-10-26 11:04:33.703125
917,10.37,2022-10-26 11:04:33.718750
918,7.37,2022-10-26 11:04:33.734375
919,4.52,2022-10-26 11:04:33.750000
920,1.91,2022-10-26 11:04:33.765625
921,-0.54,2022-10-26 11:04:33.781250
922,-2.95,2022-10-26 11:04:33.796875
923,-5.52,2022-10-26 11:04:33.812500
924,-8.37,2022-10-26 11:04:33.828125
925,-11.53,2022-10-26 11:04:33.843750
926,-14.92,2022-10-26 11:04:33.859375
927,-18.38,2022-10-26 11:04:33.875000
928,-21.77,2022-10-26 11:04:33.890625
929,-25.0,2022-10-26 11:04:33.906250
930,-28.13,2022-10-26 11:04:33.921875
931,-31.43,2022-10-26 11:04:33.937500
932,-35.31,2022-10-26 11:04:33.953125
933,-40.21,2022-10-26 11:04:33.968750
934,-46.36,2022-10-26 11:04:33.984375
935,-53.45,2022-10-26 11:04:34.000000
936,-60.55,2022-10-26 11:04:34.015625
937,-66.24,2022-10-26 11:04:34.031250
938,-68.98,2022-10-26 11:04:34.046875
939,-67.73,2022-10-26 11:04:34.062500
940,-62.31,2022-10-26 11:04:34.078125
941,-53.53,2022-10-26 11:04:34.093750
942,-42.92,2022-10-26 11:04:34.109375
943,-32.22,2022-10-26 11:04:34.125000
944,-22.81,2022-10-26 11:04:34.140625
945,-15.42,2022-10-26 11:04:34.156250
946,-10.09,2022-10-26 11:04:34.171875
947,-6.36,2022-10-26 11:04:34.187500
948,-3.6,2022-10-26 11:04:34.203125
949,-1.28,2022-10-26 11:04:34.218750
950,0.88,2022-10-26 11:04:34.234375
951,2.93,2022-10-26 11:04:34.250000
952,4.78,2022-10-26 11:04:34.265625
953,6.42,2022-10-26 11:04:34.281250
954,7.97,2022-10-26 11:04:34.296875
955,9.71,2022-10-26 11:04:34.312500
956,11.88,2022-10-26 11:04:34.328125
957,14.48,2022-10-26 11:04:34.343750
958,17.14,2022-10-26 11:04:34.359375
959,19.27,2022-10-26 11:04:34.375000
960,20.29,2022-10-26 11:04:34.390625
961,20.01,2022-10-26 11:04:34.406250
962,18.78,2022-10-26 11:04:34.421875
963,17.37,2022-10-26 11:04:34.437500
964,16.51,2022-10-26 11:04:34.453125
965,16.59,2022-10-26 11:04:34.468750
966,17.45,2022-10-26 11:04:34.484375
967,18.52,2022-10-26 11:04:34.500000
968,19.19,2022-10-26 11:04:34.515625
969,19.16,2022-10-26 11:04:34.531250
970,18.48,2022-10-26 11:04:34.546875
971,17.43,2022-10-26 11:04:34.562500
972,16.23,2022-10-26 11:04:34.578125
973,14.88,2022-10-26 11:04:34.593750
974,13.15,2022-10-26 11:04:34.609375
975,10.87,2022-10-26 11:04:34.625000
976,8.01,2022-10-26 11:04:34.640625
977,4.81,2022-10-26 11:04:34.656250
978,1.57,2022-10-26 11:04:34.671875
979,-1.53,2022-10-26 11:04:34.687500
980,-4.68,2022-10-26 11:04:34.703125
981,-8.28,2022-10-26 11:04:34.718750
982,-12.73,2022-10-26 11:04:34.734375
983,-18.07,2022-10-26 11:04:34.750000
984,-23.74,2022-10-26 11:04:34.765625
985,-28.63,2022-10-26 11:04:34.781250
986,-31.38,2022-10-26 11:04:34.796875
987,-30.88,2022-10-26 11:04:34.812500
988,-26.7,2022-10-26 11:04:34.828125
989,-19.28,2022-10-26 11:04:34.843750
990,-9.83,2022-10-26 11:04:34.859375
991,0.08,2022-10-26 11:04:34.875000
992,9.07,2022-10-26 11:04:34.890625
993,16.24,2022-10-26 11:04:34.906250
994,21.34,2022-10-26 11:04:34.921875
995,24.55,2022-10-26 11:04:34.937500
996,26.23,2022-10-26 11:04:34.953125
997,26.71,2022-10-26 11:04:34.968750
998,26.22,2022-10-26 11:04:34.984375
999,24.99,2022-10-26 11:04:35.000000
1000,23.3,2022-10-26 11:04:35.015625
1001,21.48,2022-10-26 11:04:35.031250
1002,19.83,2022-10-26 11:04:35.046875
1003,18.49,2022-10-26 11:04:35.062500
1004,17.42,2022-10-26 11:04:35.078125
1005,16.53,2022-10-26 11:04:35.093750
1006,15.77,2022-10-26 11:04:35.109375
1007,15.17,2022-10-26 11:04:35.125000
1008,14.82,2022-10-26 11:04:35.140625
1009,14.67,2022-10-26 11:04:35.156250
1010,14.48,2022-10-26 11:04:35.171875
1011,13.82,2022-10-26 11:04:35.187500
1012,12.26,2022-10-26 11:04:35.203125
1013,9.48,2022-10-26 11:04:35.218750
1014,5.48,2022-10-26 11:04:35.234375
1015,0.49,2022-10-26 11:04:35.250000
1016,-4.98,2022-10-26 11:04:35.265625
1017,-10.32,2022-10-26 11:04:35.281250
1018,-14.9,2022-10-26 11:04:35.296875
1019,-18.19,2022-10-26 11:04:35.312500
1020,-19.94,2022-10-26 11:04:35.328125
1021,-20.19,2022-10-26 11:04:35.343750
1022,-19.37,2022-10-26 11:04:35.359375
1023,-18.2,2022-10-26 11:04:35.375000
1024,-17.56,2022-10-26 11:04:35.390625
1025,-18.2,2022-10-26 11:04:35.406250
1026,-20.51,2022-10-26 11:04:35.421875
1027,-24.35,2022-10-26 11:04:35.437500
1028,-29.05,2022-10-26 11:04:35.453125
1029,-33.5,2022-10-26 11:04:35.468750
1030,-36.43,2022-10-26 11:04:35.484375
1031,-36.75,2022-10-26 11:04:35.500000
1032,-33.84,2022-10-26 11:04:35.515625
1033,-27.76,2022-10-26 11:04:35.531250
1034,-19.19,2022-10-26 11:04:35.546875
1035,-9.2,2022-10-26 11:04:35.562500
1036,0.98,2022-10-26 11:04:35.578125
1037,10.35,2022-10-26 11:04:35.593750
1038,18.23,2022-10-26 11:04:35.609375
1039,24.35,2022-10-26 11:04:35.625000
1040,28.76,2022-10-26 11:04:35.640625
1041,31.68,2022-10-26 11:04:35.656250
1042,33.37,2022-10-26 11:04:35.671875
1043,34.0,2022-10-26 11:04:35.687500
1044,33.66,2022-10-26 11:04:35.703125
1045,32.34,2022-10-26 11:04:35.718750
1046,30.11,2022-10-26 11:04:35.734375
1047,27.17,2022-10-26 11:04:35.750000
1048,23.88,2022-10-26 11:04:35.765625
1049,20.68,2022-10-26 11:04:35.781250
1050,17.97,2022-10-26 11:04:35.796875
1051,16.02,2022-10-26 11:04:35.812500
1052,14.9,2022-10-26 11:04:35.828125
1053,14.52,2022-10-26 11:04:35.843750
1054,14.67,2022-10-26 11:04:35.859375
1055,15.08,2022-10-26 11:04:35.875000
1056,15.46,2022-10-26 11:04:35.890625
1057,15.51,2022-10-26 11:04:35.906250
1058,15.01,2022-10-26 11:04:35.921875
1059,13.85,2022-10-26 11:04:35.937500
1060,12.05,2022-10-26 11:04:35.953125
1061,9.83,2022-10-26 11:04:35.968750
1062,7.5,2022-10-26 11:04:35.984375
1063,5.36,2022-10-26 11:04:36.000000
1064,3.58,2022-10-26 11:04:36.015625
1065,2.11,2022-10-26 11:04:36.031250
1066,0.65,2022-10-26 11:04:36.046875
1067,-1.22,2022-10-26 11:04:36.062500
1068,-3.95,2022-10-26 11:04:36.078125
1069,-7.85,2022-10-26 11:04:36.093750
1070,-12.95,2022-10-26 11:04:36.109375
1071,-19.02,2022-10-26 11:04:36.125000
1072,-25.61,2022-10-26 11:04:36.140625
1073,-32.16,2022-10-26 11:04:36.156250
1074,-38.0,2022-10-26 11:04:36.171875
1075,-42.55,2022-10-26 11:04:36.187500
1076,-45.23,2022-10-26 11:04:36.203125
1077,-45.71,2022-10-26 11:04:36.218750
1078,-43.96,2022-10-26 11:04:36.234375
1079,-40.4,2022-10-26 11:04:36.250000
1080,-35.79,2022-10-26 11:04:36.265625
1081,-31.08,2022-10-26 11:04:36.281250
1082,-27.03,2022-10-26 11:04:36.296875
1083,-24.02,2022-10-26 11:04:36.312500
1084,-21.88,2022-10-26 11:04:36.328125
1085,-20.09,2022-10-26 11:04:36.343750
1086,-18.05,2022-10-26 11:04:36.359375
1087,-15.38,2022-10-26 11:04:36.375000
1088,-12.07,2022-10-26 11:04:36.390625
1089,-8.39,2022-10-26 11:04:36.406250
1090,-4.76,2022-10-26 11:04:36.421875
1091,-1.55,2022-10-26 11:04:36.437500
1092,1.01,2022-10-26 11:04:36.453125
1093,2.8,2022-10-26 11:04:36.468750
1094,3.74,2022-10-26 11:04:36.484375
1095,3.76,2022-10-26 11:04:36.500000
1096,2.82,2022-10-26 11:04:36.515625
1097,1.11,2022-10-26 11:04:36.531250
1098,-0.91,2022-10-26 11:04:36.546875
1099,-2.58,2022-10-26 11:04:36.562500
1100,-3.31,2022-10-26 11:04:36.578125
1101,-2.85,2022-10-26 11:04:36.593750
1102,-1.53,2022-10-26 11:04:36.609375
1103,-0.07,2022-10-26 11:04:36.625000
1104,0.7,2022-10-26 11:04:36.640625
1105,0.23,2022-10-26 11:04:36.656250
1106,-1.36,2022-10-26 11:04:36.671875
1107,-3.47,2022-10-26 11:04:36.687500
1108,-5.18,2022-10-26 11:04:36.703125
1109,-5.85,2022-10-26 11:04:36.718750
1110,-5.28,2022-10-26 11:04:36.734375
1111,-3.8,2022-10-26 11:04:36.750000
1112,-2.04,2022-10-26 11:04:36.765625
1113,-0.6,2022-10-26 11:04:36.781250
1114,0.13,2022-10-26 11:04:36.796875
1115,-0.08,2022-10-26 11:04:36.812500
1116,-1.34,2022-10-26 11:04:36.828125
1117,-3.72,2022-10-26 11:04:36.843750
1118,-7.18,2022-10-26 11:04:36.859375
1119,-11.32,2022-10-26 11:04:36.875000
1120,-15.26,2022-10-26 11:04:36.890625
1121,-17.71,2022-10-26 11:04:36.906250
1122,-17.28,2022-10-26 11:04:36.921875
1123,-12.98,2022-10-26 11:04:36.937500
1124,-4.75,2022-10-26 11:04:36.953125
1125,6.5,2022-10-26 11:04:36.968750
1126,19.01,2022-10-26 11:04:36.984375
1127,30.83,2022-10-26 11:04:37.000000
1128,40.42,2022-10-26 11:04:37.015625
1129,47.11,2022-10-26 11:04:37.031250
1130,51.12,2022-10-26 11:04:37.046875
1131,53.28,2022-10-26 11:04:37.062500
1132,54.53,2022-10-26 11:04:37.078125
1133,55.56,2022-10-26 11:04:37.093750
1134,56.62,2022-10-26 11:04:37.109375
1135,57.68,2022-10-26 11:04:37.125000
1136,58.49,2022-10-26 11:04:37.140625
1137,58.78,2022-10-26 11:04:37.156250
1138,58.23,2022-10-26 11:04:37.171875
1139,56.47,2022-10-26 11:04:37.187500
1140,53.12,2022-10-26 11:04:37.203125
1141,47.95,2022-10-26 11:04:37.218750
1142,41.08,2022-10-26 11:04:37.234375
1143,33.1,2022-10-26 11:04:37.250000
1144,25.08,2022-10-26 11:04:37.265625
1145,18.17,2022-10-26 11:04:37.281250
1146,13.33,2022-10-26 11:04:37.296875
1147,10.93,2022-10-26 11:04:37.312500
1148,10.7,2022-10-26 11:04:37.328125
1149,11.78,2022-10-26 11:04:37.343750
1150,13.14,2022-10-26 11:04:37.359375
1151,13.89,2022-10-26 11:04:37.375000
1152,13.53,2022-10-26 11:04:37.390625
1153,12.03,2022-10-26 11:04:37.406250
1154,9.66,2022-10-26 11:04:37.421875
1155,6.8,2022-10-26 11:04:37.437500
1156,3.74,2022-10-26 11:04:37.453125
1157,0.55,2022-10-26 11:04:37.468750
1158,-2.87,2022-10-26 11:04:37.484375
1159,-6.68,2022-10-26 11:04:37.500000
1160,-10.87,2022-10-26 11:04:37.515625
1161,-15.12,2022-10-26 11:04:37.531250
1162,-18.7,2022-10-26 11:04:37.546875
1163,-20.58,2022-10-26 11:04:37.562500
1164,-19.73,2022-10-26 11:04:37.578125
1165,-15.48,2022-10-26 11:04:37.593750
1166,-7.79,2022-10-26 11:04:37.609375
1167,2.58,2022-10-26 11:04:37.625000
1168,14.15,2022-10-26 11:04:37.640625
1169,25.04,2022-10-26 11:04:37.656250
1170,33.36,2022-10-26 11:04:37.671875
1171,37.55,2022-10-26 11:04:37.687500
1172,36.68,2022-10-26 11:04:37.703125
1173,30.57,2022-10-26 11:04:37.718750
1174,19.89,2022-10-26 11:04:37.734375
1175,6.05,2022-10-26 11:04:37.750000
1176,-9.02,2022-10-26 11:04:37.765625
1177,-23.18,2022-10-26 11:04:37.781250
1178,-34.44,2022-10-26 11:04:37.796875
1179,-41.37,2022-10-26 11:04:37.812500
1180,-43.27,2022-10-26 11:04:37.828125
1181,-40.34,2022-10-26 11:04:37.843750
1182,-33.51,2022-10-26 11:04:37.859375
1183,-24.23,2022-10-26 11:04:37.875000
1184,-14.18,2022-10-26 11:04:37.890625
1185,-4.74,2022-10-26 11:04:37.906250
1186,3.23,2022-10-26 11:04:37.921875
1187,9.58,2022-10-26 11:04:37.937500
1188,14.7,2022-10-26 11:04:37.953125
1189,19.13,2022-10-26 11:04:37.968750
1190,23.18,2022-10-26 11:04:37.984375
1191,26.67,2022-10-26 11:04:38.000000
1192,29.01,2022-10-26 11:04:38.015625
1193,29.48,2022-10-26 11:04:38.031250
1194,27.6,2022-10-26 11:04:38.046875
1195,23.39,2022-10-26 11:04:38.062500
1196,17.42,2022-10-26 11:04:38.078125
1197,10.57,2022-10-26 11:04:38.093750
1198,3.8,2022-10-26 11:04:38.109375
1199,-2.14,2022-10-26 11:04:38.125000
1200,-6.84,2022-10-26 11:04:38.140625
1201,-10.3,2022-10-26 11:04:38.156250
1202,-12.83,2022-10-26 11:04:38.171875
1203,-15.04,2022-10-26 11:04:38.187500
1204,-17.58,2022-10-26 11:04:38.203125
1205,-21.06,2022-10-26 11:04:38.218750
1206,-25.75,2022-10-26 11:04:38.234375
1207,-31.42,2022-10-26 11:04:38.250000
1208,-37.26,2022-10-26 11:04:38.265625
1209,-42.1,2022-10-26 11:04:38.281250
1210,-44.66,2022-10-26 11:04:38.296875
1211,-44.0,2022-10-26 11:04:38.312500
1212,-39.81,2022-10-26 11:04:38.328125
1213,-32.49,2022-10-26 11:04:38.343750
1214,-22.97,2022-10-26 11:04:38.359375
1215,-12.41,2022-10-26 11:04:38.375000
1216,-1.82,2022-10-26 11:04:38.390625
1217,8.06,2022-10-26 11:04:38.406250
1218,16.78,2022-10-26 11:04:38.421875
1219,24.02,2022-10-26 11:04:38.437500
1220,29.48,2022-10-26 11:04:38.453125
1221,32.92,2022-10-26 11:04:38.468750
1222,34.28,2022-10-26 11:04:38.484375
1223,33.82,2022-10-26 11:04:38.500000
1224,32.16,2022-10-26 11:04:38.515625
1225,30.1,2022-10-26 11:04:38.531250
1226,28.46,2022-10-26 11:04:38.546875
1227,27.81,2022-10-26 11:04:38.562500
1228,28.36,2022-10-26 11:04:38.578125
1229,30.04,2022-10-26 11:04:38.593750
1230,32.46,2022-10-26 11:04:38.609375
1231,35.07,2022-10-26 11:04:38.625000
1232,37.24,2022-10-26 11:04:38.640625
1233,38.32,2022-10-26 11:04:38.656250
1234,37.87,2022-10-26 11:04:38.671875
1235,35.69,2022-10-26 11:04:38.687500
1236,31.95,2022-10-26 11:04:38.703125
1237,27.14,2022-10-26 11:04:38.718750
1238,21.9,2022-10-26 11:04:38.734375
1239,16.9,2022-10-26 11:04:38.750000
1240,12.71,2022-10-26 11:04:38.765625
1241,9.7,2022-10-26 11:04:38.781250
1242,8.04,2022-10-26 11:04:38.796875
1243,7.65,2022-10-26 11:04:38.812500
1244,8.18,2022-10-26 11:04:38.828125
1245,9.04,2022-10-26 11:04:38.843750
1246,9.48,2022-10-26 11:04:38.859375
1247,8.81,2022-10-26 11:04:38.875000
1248,6.68,2022-10-26 11:04:38.890625
1249,3.06,2022-10-26 11:04:38.906250
1250,-1.68,2022-10-26 11:04:38.921875
1251,-7.05,2022-10-26 11:04:38.937500
1252,-12.63,2022-10-26 11:04:38.953125
1253,-18.23,2022-10-26 11:04:38.968750
1254,-23.85,2022-10-26 11:04:38.984375
1255,-29.45,2022-10-26 11:04:39.000000
1256,-34.78,2022-10-26 11:04:39.015625
1257,-39.23,2022-10-26 11:04:39.031250
1258,-41.94,2022-10-26 11:04:39.046875
1259,-42.07,2022-10-26 11:04:39.062500
1260,-39.12,2022-10-26 11:04:39.078125
1261,-33.19,2022-10-26 11:04:39.093750
1262,-24.99,2022-10-26 11:04:39.109375
1263,-15.62,2022-10-26 11:04:39.125000
1264,-6.25,2022-10-26 11:04:39.140625
1265,2.26,2022-10-26 11:04:39.156250
1266,9.47,2022-10-26 11:04:39.171875
1267,15.36,2022-10-26 11:04:39.187500
1268,20.18,2022-10-26 11:04:39.203125
1269,24.18,2022-10-26 11:04:39.218750
1270,27.53,2022-10-26 11:04:39.234375
1271,30.27,2022-10-26 11:04:39.250000
1272,32.4,2022-10-26 11:04:39.265625
1273,33.91,2022-10-26 11:04:39.281250
1274,34.91,2022-10-26 11:04:39.296875
1275,35.59,2022-10-26 11:04:39.312500
1276,36.13,2022-10-26 11:04:39.328125
1277,36.65,2022-10-26 11:04:39.343750
1278,37.12,2022-10-26 11:04:39.359375
1279,37.33,2022-10-26 11:04:39.375000
1280,37.03,2022-10-26 11:04:39.390625
1281,36.02,2022-10-26 11:04:39.406250
1282,34.23,2022-10-26 11:04:39.421875
1283,31.84,2022-10-26 11:04:39.437500
1284,29.12,2022-10-26 11:04:39.453125
1285,26.37,2022-10-26 11:04:39.468750
1286,23.75,2022-10-26 11:04:39.484375
1287,21.17,2022-10-26 11:04:39.500000
1288,18.36,2022-10-26 11:04:39.515625
1289,14.96,2022-10-26 11:04:39.531250
1290,10.71,2022-10-26 11:04:39.546875
1291,5.65,2022-10-26 11:04:39.562500
1292,0.06,2022-10-26 11:04:39.578125
1293,-5.62,2022-10-26 11:04:39.593750
1294,-10.95,2022-10-26 11:04:39.609375
1295,-15.59,2022-10-26 11:04:39.625000
1296,-19.43,2022-10-26 11:04:39.640625
1297,-22.45,2022-10-26 11:04:39.656250
1298,-24.77,2022-10-26 11:04:39.671875
1299,-26.56,2022-10-26 11:04:39.687500
1300,-28.07,2022-10-26 11:04:39.703125
1301,-29.68,2022-10-26 11:04:39.718750
1302,-31.76,2022-10-26 11:04:39.734375
1303,-34.58,2022-10-26 11:04:39.750000
1304,-37.99,2022-10-26 11:04:39.765625
1305,-41.42,2022-10-26 11:04:39.781250
1306,-43.93,2022-10-26 11:04:39.796875
1307,-44.48,2022-10-26 11:04:39.812500
1308,-42.4,2022-10-26 11:04:39.828125
1309,-37.66,2022-10-26 11:04:39.843750
1310,-30.88,2022-10-26 11:04:39.859375
1311,-23.16,2022-10-26 11:04:39.875000
1312,-15.55,2022-10-26 11:04:39.890625
1313,-8.84,2022-10-26 11:04:39.906250
1314,-3.33,2022-10-26 11:04:39.921875
1315,0.99,2022-10-26 11:04:39.937500
1316,4.3,2022-10-26 11:04:39.953125
1317,6.75,2022-10-26 11:04:39.968750
1318,8.46,2022-10-26 11:04:39.984375
1319,9.63,2022-10-26 11:04:40.000000
1320,10.59,2022-10-26 11:04:40.015625
1321,11.75,2022-10-26 11:04:40.031250
1322,13.42,2022-10-26 11:04:40.046875
1323,15.54,2022-10-26 11:04:40.062500
1324,17.66,2022-10-26 11:04:40.078125
1325,19.05,2022-10-26 11:04:40.093750
1326,19.06,2022-10-26 11:04:40.109375
1327,17.45,2022-10-26 11:04:40.125000
1328,14.48,2022-10-26 11:04:40.140625
1329,10.91,2022-10-26 11:04:40.156250
1330,7.6,2022-10-26 11:04:40.171875
1331,5.17,2022-10-26 11:04:40.187500
1332,3.79,2022-10-26 11:04:40.203125
1333,3.12,2022-10-26 11:04:40.218750
1334,2.53,2022-10-26 11:04:40.234375
1335,1.46,2022-10-26 11:04:40.250000
1336,-0.42,2022-10-26 11:04:40.265625
1337,-3.03,2022-10-26 11:04:40.281250
1338,-6.02,2022-10-26 11:04:40.296875
1339,-9.01,2022-10-26 11:04:40.312500
1340,-11.86,2022-10-26 11:04:40.328125
1341,-14.59,2022-10-26 11:04:40.343750
1342,-17.46,2022-10-26 11:04:40.359375
1343,-20.66,2022-10-26 11:04:40.375000
1344,-24.26,2022-10-26 11:04:40.390625
1345,-28.21,2022-10-26 11:04:40.406250
1346,-32.31,2022-10-26 11:04:40.421875
1347,-36.26,2022-10-26 11:04:40.437500
1348,-39.62,2022-10-26 11:04:40.453125
1349,-41.71,2022-10-26 11:04:40.468750
1350,-41.71,2022-10-26 11:04:40.484375
1351,-38.93,2022-10-26 11:04:40.500000
1352,-33.01,2022-10-26 11:04:40.515625
1353,-24.34,2022-10-26 11:04:40.531250
1354,-13.96,2022-10-26 11:04:40.546875
1355,-3.32,2022-10-26 11:04:40.562500
1356,6.24,2022-10-26 11:04:40.578125
1357,13.88,2022-10-26 11:04:40.593750
1358,19.41,2022-10-26 11:04:40.609375
1359,23.16,2022-10-26 11:04:40.625000
1360,25.66,2022-10-26 11:04:40.640625
1361,27.37,2022-10-26 11:04:40.656250
1362,28.49,2022-10-26 11:04:40.671875
1363,29.06,2022-10-26 11:04:40.687500
1364,29.07,2022-10-26 11:04:40.703125
1365,28.63,2022-10-26 11:04:40.718750
1366,27.97,2022-10-26 11:04:40.734375
1367,27.41,2022-10-26 11:04:40.750000
1368,27.14,2022-10-26 11:04:40.765625
1369,27.19,2022-10-26 11:04:40.781250
1370,27.33,2022-10-26 11:04:40.796875
1371,27.23,2022-10-26 11:04:40.812500
1372,26.52,2022-10-26 11:04:40.828125
1373,25.09,2022-10-26 11:04:40.843750
1374,23.01,2022-10-26 11:04:40.859375
1375,20.63,2022-10-26 11:04:40.875000
1376,18.39,2022-10-26 11:04:40.890625
1377,16.64,2022-10-26 11:04:40.906250
1378,15.48,2022-10-26 11:04:40.921875
1379,14.71,2022-10-26 11:04:40.937500
1380,13.87,2022-10-26 11:04:40.953125
1381,12.41,2022-10-26 11:04:40.968750
1382,9.9,2022-10-26 11:04:40.984375
1383,6.23,2022-10-26 11:04:41.000000
1384,1.63,2022-10-26 11:04:41.015625
1385,-3.36,2022-10-26 11:04:41.031250
1386,-8.16,2022-10-26 11:04:41.046875
1387,-12.36,2022-10-26 11:04:41.062500
1388,-15.9,2022-10-26 11:04:41.078125
1389,-19.09,2022-10-26 11:04:41.093750
1390,-22.42,2022-10-26 11:04:41.109375
1391,-26.41,2022-10-26 11:04:41.125000
1392,-31.35,2022-10-26 11:04:41.140625
1393,-37.13,2022-10-26 11:04:41.156250
1394,-43.17,2022-10-26 11:04:41.171875
1395,-48.55,2022-10-26 11:04:41.187500
1396,-52.14,2022-10-26 11:04:41.203125
1397,-52.89,2022-10-26 11:04:41.218750
1398,-50.13,2022-10-26 11:04:41.234375
1399,-43.77,2022-10-26 11:04:41.250000
1400,-34.35,2022-10-26 11:04:41.265625
1401,-22.91,2022-10-26 11:04:41.281250
1402,-10.77,2022-10-26 11:04:41.296875
1403,0.86,2022-10-26 11:04:41.312500
1404,11.08,2022-10-26 11:04:41.328125
1405,19.57,2022-10-26 11:04:41.343750
1406,26.43,2022-10-26 11:04:41.359375
1407,32.08,2022-10-26 11:04:41.375000
1408,36.88,2022-10-26 11:04:41.390625
1409,41.06,2022-10-26 11:04:41.406250
1410,44.47,2022-10-26 11:04:41.421875
1411,46.72,2022-10-26 11:04:41.437500
1412,47.31,2022-10-26 11:04:41.453125
1413,45.94,2022-10-26 11:04:41.468750
1414,42.66,2022-10-26 11:04:41.484375
1415,37.88,2022-10-26 11:04:41.500000
1416,32.25,2022-10-26 11:04:41.515625
1417,26.49,2022-10-26 11:04:41.531250
1418,21.24,2022-10-26 11:04:41.546875
1419,16.94,2022-10-26 11:04:41.562500
1420,13.91,2022-10-26 11:04:41.578125
1421,12.29,2022-10-26 11:04:41.593750
1422,12.05,2022-10-26 11:04:41.609375
1423,12.97,2022-10-26 11:04:41.625000
1424,14.54,2022-10-26 11:04:41.640625
1425,16.06,2022-10-26 11:04:41.656250
1426,16.7,2022-10-26 11:04:41.671875
1427,15.76,2022-10-26 11:04:41.687500
1428,12.86,2022-10-26 11:04:41.703125
1429,8.05,2022-10-26 11:04:41.718750
1430,1.86,2022-10-26 11:04:41.734375
1431,-4.91,2022-10-26 11:04:41.750000
1432,-11.35,2022-10-26 11:04:41.765625
1433,-16.73,2022-10-26 11:04:41.781250
1434,-20.71,2022-10-26 11:04:41.796875
1435,-23.42,2022-10-26 11:04:41.812500
1436,-25.32,2022-10-26 11:04:41.828125
1437,-27.03,2022-10-26 11:04:41.843750
1438,-29.02,2022-10-26 11:04:41.859375
1439,-31.44,2022-10-26 11:04:41.875000
1440,-34.21,2022-10-26 11:04:41.890625
1441,-37.18,2022-10-26 11:04:41.906250
1442,-40.31,2022-10-26 11:04:41.921875
1443,-43.7,2022-10-26 11:04:41.937500
1444,-47.41,2022-10-26 11:04:41.953125
1445,-51.14,2022-10-26 11:04:41.968750
1446,-54.21,2022-10-26 11:04:41.984375
1447,-55.6,2022-10-26 11:04:42.000000
1448,-54.44,2022-10-26 11:04:42.015625
1449,-50.35,2022-10-26 11:04:42.031250
1450,-43.69,2022-10-26 11:04:42.046875
1451,-35.51,2022-10-26 11:04:42.062500
1452,-27.06,2022-10-26 11:04:42.078125
1453,-19.4,2022-10-26 11:04:42.093750
1454,-13.13,2022-10-26 11:04:42.109375
1455,-8.29,2022-10-26 11:04:42.125000
1456,-4.67,2022-10-26 11:04:42.140625
1457,-1.99,2022-10-26 11:04:42.156250
1458,0.06,2022-10-26 11:04:42.171875
1459,1.64,2022-10-26 11:04:42.187500
1460,2.96,2022-10-26 11:04:42.203125
1461,4.21,2022-10-26 11:04:42.218750
1462,5.59,2022-10-26 11:04:42.234375
1463,7.19,2022-10-26 11:04:42.250000
1464,9.08,2022-10-26 11:04:42.265625
1465,11.26,2022-10-26 11:04:42.281250
1466,13.66,2022-10-26 11:04:42.296875
1467,16.22,2022-10-26 11:04:42.312500
1468,18.92,2022-10-26 11:04:42.328125
1469,21.74,2022-10-26 11:04:42.343750
1470,24.65,2022-10-26 11:04:42.359375
1471,27.47,2022-10-26 11:04:42.375000
1472,29.81,2022-10-26 11:04:42.390625
1473,31.07,2022-10-26 11:04:42.406250
1474,30.52,2022-10-26 11:04:42.421875
1475,27.59,2022-10-26 11:04:42.437500
1476,22.13,2022-10-26 11:04:42.453125
1477,14.5,2022-10-26 11:04:42.468750
1478,5.63,2022-10-26 11:04:42.484375
1479,-3.32,2022-10-26 11:04:42.500000
1480,-11.25,2022-10-26 11:04:42.515625
1481,-17.48,2022-10-26 11:04:42.531250
1482,-21.79,2022-10-26 11:04:42.546875
1483,-24.47,2022-10-26 11:04:42.562500
1484,-26.09,2022-10-26 11:04:42.578125
1485,-27.33,2022-10-26 11:04:42.593750
1486,-28.91,2022-10-26 11:04:42.609375
1487,-31.38,2022-10-26 11:04:42.625000
1488,-35.07,2022-10-26 11:04:42.640625
1489,-40.02,2022-10-26 11:04:42.656250
1490,-45.84,2022-10-26 11:04:42.671875
1491,-51.81,2022-10-26 11:04:42.687500
1492,-56.89,2022-10-26 11:04:42.703125
1493,-59.91,2022-10-26 11:04:42.718750
1494,-59.91,2022-10-26 11:04:42.734375
1495,-56.33,2022-10-26 11:04:42.750000
1496,-49.24,2022-10-26 11:04:42.765625
1497,-39.35,2022-10-26 11:04:42.781250
1498,-27.87,2022-10-26 11:04:42.796875
1499,-16.16,2022-10-26 11:04:42.812500
1500,-5.38,2022-10-26 11:04:42.828125
1501,3.75,2022-10-26 11:04:42.843750
1502,10.99,2022-10-26 11:04:42.859375
1503,16.49,2022-10-26 11:04:42.875000
1504,20.57,2022-10-26 11:04:42.890625
1505,23.58,2022-10-26 11:04:42.906250
1506,25.82,2022-10-26 11:04:42.921875
1507,27.55,2022-10-26 11:04:42.937500
1508,28.91,2022-10-26 11:04:42.953125
1509,29.96,2022-10-26 11:04:42.968750
1510,30.59,2022-10-26 11:04:42.984375
1511,30.55,2022-10-26 11:04:43.000000
1512,29.57,2022-10-26 11:04:43.015625
1513,27.48,2022-10-26 11:04:43.031250
1514,24.29,2022-10-26 11:04:43.046875
1515,20.27,2022-10-26 11:04:43.062500
1516,15.84,2022-10-26 11:04:43.078125
1517,11.48,2022-10-26 11:04:43.093750
1518,7.54,2022-10-26 11:04:43.109375
1519,4.23,2022-10-26 11:04:43.125000
1520,1.59,2022-10-26 11:04:43.140625
1521,-0.45,2022-10-26 11:04:43.156250
1522,-1.98,2022-10-26 11:04:43.171875
1523,-3.13,2022-10-26 11:04:43.187500
1524,-4.07,2022-10-26 11:04:43.203125
1525,-5.01,2022-10-26 11:04:43.218750
1526,-6.18,2022-10-26 11:04:43.234375
1527,-7.8,2022-10-26 11:04:43.250000
1528,-10.0,2022-10-26 11:04:43.265625
1529,-12.85,2022-10-26 11:04:43.281250
1530,-16.34,2022-10-26 11:04:43.296875
1531,-20.47,2022-10-26 11:04:43.312500
1532,-25.21,2022-10-26 11:04:43.328125
1533,-30.51,2022-10-26 11:04:43.343750
1534,-36.13,2022-10-26 11:04:43.359375
1535,-41.64,2022-10-26 11:04:43.375000
1536,-46.3,2022-10-26 11:04:43.390625
1537,-49.29,2022-10-26 11:04:43.406250
1538,-49.87,2022-10-26 11:04:43.421875
1539,-47.68,2022-10-26 11:04:43.437500
1540,-42.88,2022-10-26 11:04:43.453125
1541,-36.14,2022-10-26 11:04:43.468750
1542,-28.46,2022-10-26 11:04:43.484375
1543,-20.85,2022-10-26 11:04:43.500000
1544,-14.06,2022-10-26 11:04:43.515625
1545,-8.5,2022-10-26 11:04:43.531250
1546,-4.19,2022-10-26 11:04:43.546875
1547,-0.98,2022-10-26 11:04:43.562500
1548,1.32,2022-10-26 11:04:43.578125
1549,2.84,2022-10-26 11:04:43.593750
1550,3.66,2022-10-26 11:04:43.609375
1551,3.92,2022-10-26 11:04:43.625000
1552,3.81,2022-10-26 11:04:43.640625
1553,3.64,2022-10-26 11:04:43.656250
1554,3.7,2022-10-26 11:04:43.671875
1555,4.13,2022-10-26 11:04:43.687500
1556,4.91,2022-10-26 11:04:43.703125
1557,5.8,2022-10-26 11:04:43.718750
1558,6.5,2022-10-26 11:04:43.734375
1559,6.75,2022-10-26 11:04:43.750000
1560,6.47,2022-10-26 11:04:43.765625
1561,5.76,2022-10-26 11:04:43.781250
1562,4.89,2022-10-26 11:04:43.796875
1563,4.17,2022-10-26 11:04:43.812500
1564,3.82,2022-10-26 11:04:43.828125
1565,3.91,2022-10-26 11:04:43.843750
1566,4.36,2022-10-26 11:04:43.859375
1567,4.99,2022-10-26 11:04:43.875000
1568,5.63,2022-10-26 11:04:43.890625
1569,6.09,2022-10-26 11:04:43.906250
1570,6.24,2022-10-26 11:04:43.921875
1571,5.84,2022-10-26 11:04:43.937500
1572,4.64,2022-10-26 11:04:43.953125
1573,2.42,2022-10-26 11:04:43.968750
1574,-0.95,2022-10-26 11:04:43.984375
1575,-5.47,2022-10-26 11:04:44.000000
1576,-11.06,2022-10-26 11:04:44.015625
1577,-17.56,2022-10-26 11:04:44.031250
1578,-24.83,2022-10-26 11:04:44.046875
1579,-32.59,2022-10-26 11:04:44.062500
1580,-40.32,2022-10-26 11:04:44.078125
1581,-47.1,2022-10-26 11:04:44.093750
1582,-51.74,2022-10-26 11:04:44.109375
1583,-53.07,2022-10-26 11:04:44.125000
1584,-50.43,2022-10-26 11:04:44.140625
1585,-43.93,2022-10-26 11:04:44.156250
1586,-34.59,2022-10-26 11:04:44.171875
1587,-24.0,2022-10-26 11:04:44.187500
1588,-13.76,2022-10-26 11:04:44.203125
1589,-5.07,2022-10-26 11:04:44.218750
1590,1.64,2022-10-26 11:04:44.234375
1591,6.52,2022-10-26 11:04:44.250000
1592,10.04,2022-10-26 11:04:44.265625
1593,12.68,2022-10-26 11:04:44.281250
1594,14.72,2022-10-26 11:04:44.296875
1595,16.29,2022-10-26 11:04:44.312500
1596,17.47,2022-10-26 11:04:44.328125
1597,18.42,2022-10-26 11:04:44.343750
1598,19.39,2022-10-26 11:04:44.359375
1599,20.52,2022-10-26 11:04:44.375000
1600,21.79,2022-10-26 11:04:44.390625
1601,22.92,2022-10-26 11:04:44.406250
1602,23.61,2022-10-26 11:04:44.421875
1603,23.57,2022-10-26 11:04:44.437500
1604,22.76,2022-10-26 11:04:44.453125
1605,21.37,2022-10-26 11:04:44.468750
1606,19.69,2022-10-26 11:04:44.484375
1607,18.0,2022-10-26 11:04:44.500000
1608,16.46,2022-10-26 11:04:44.515625
1609,15.04,2022-10-26 11:04:44.531250
1610,13.65,2022-10-26 11:04:44.546875
1611,12.17,2022-10-26 11:04:44.562500
1612,10.47,2022-10-26 11:04:44.578125
1613,8.54,2022-10-26 11:04:44.593750
1614,6.38,2022-10-26 11:04:44.609375
1615,4.06,2022-10-26 11:04:44.625000
1616,1.68,2022-10-26 11:04:44.640625
1617,-0.67,2022-10-26 11:04:44.656250
1618,-2.91,2022-10-26 11:04:44.671875
1619,-5.03,2022-10-26 11:04:44.687500
1620,-7.12,2022-10-26 11:04:44.703125
1621,-9.39,2022-10-26 11:04:44.718750
1622,-12.16,2022-10-26 11:04:44.734375
1623,-15.79,2022-10-26 11:04:44.750000
1624,-20.49,2022-10-26 11:04:44.765625
1625,-26.22,2022-10-26 11:04:44.781250
1626,-32.47,2022-10-26 11:04:44.796875
1627,-38.28,2022-10-26 11:04:44.812500
1628,-42.39,2022-10-26 11:04:44.828125
1629,-43.58,2022-10-26 11:04:44.843750
1630,-41.07,2022-10-26 11:04:44.859375
1631,-34.8,2022-10-26 11:04:44.875000
1632,-25.56,2022-10-26 11:04:44.890625
1633,-14.73,2022-10-26 11:04:44.906250
1634,-3.88,2022-10-26 11:04:44.921875
1635,5.67,2022-10-26 11:04:44.937500
1636,13.11,2022-10-26 11:04:44.953125
1637,18.3,2022-10-26 11:04:44.968750
1638,21.56,2022-10-26 11:04:44.984375
1639,23.48,2022-10-26 11:04:45.000000
1640,24.59,2022-10-26 11:04:45.015625
1641,25.27,2022-10-26 11:04:45.031250
1642,25.73,2022-10-26 11:04:45.046875
1643,26.03,2022-10-26 11:04:45.062500
1644,26.24,2022-10-26 11:04:45.078125
1645,26.43,2022-10-26 11:04:45.093750
1646,26.65,2022-10-26 11:04:45.109375
1647,26.85,2022-10-26 11:04:45.125000
1648,26.9,2022-10-26 11:04:45.140625
1649,26.62,2022-10-26 11:04:45.156250
1650,25.89,2022-10-26 11:04:45.171875
1651,24.79,2022-10-26 11:04:45.187500
1652,23.52,2022-10-26 11:04:45.203125
1653,22.29,2022-10-26 11:04:45.218750
1654,21.16,2022-10-26 11:04:45.234375
1655,19.93,2022-10-26 11:04:45.250000
1656,18.21,2022-10-26 11:04:45.265625
1657,15.56,2022-10-26 11:04:45.281250
1658,11.7,2022-10-26 11:04:45.296875
1659,6.67,2022-10-26 11:04:45.312500
1660,0.82,2022-10-26 11:04:45.328125
1661,-5.22,2022-10-26 11:04:45.343750
1662,-10.69,2022-10-26 11:04:45.359375
1663,-14.82,2022-10-26 11:04:45.375000
1664,-17.08,2022-10-26 11:04:45.390625
1665,-17.35,2022-10-26 11:04:45.406250
1666,-16.09,2022-10-26 11:04:45.421875
1667,-14.29,2022-10-26 11:04:45.437500
1668,-13.24,2022-10-26 11:04:45.453125
1669,-14.19,2022-10-26 11:04:45.468750
1670,-17.89,2022-10-26 11:04:45.484375
1671,-24.28,2022-10-26 11:04:45.500000
1672,-32.45,2022-10-26 11:04:45.515625
1673,-40.83,2022-10-26 11:04:45.531250
1674,-47.54,2022-10-26 11:04:45.546875
1675,-51.01,2022-10-26 11:04:45.562500
1676,-50.28,2022-10-26 11:04:45.578125
1677,-45.4,2022-10-26 11:04:45.593750
1678,-37.21,2022-10-26 11:04:45.609375
1679,-27.09,2022-10-26 11:04:45.625000
1680,-16.54,2022-10-26 11:04:45.640625
1681,-6.75,2022-10-26 11:04:45.656250
1682,1.54,2022-10-26 11:04:45.671875
1683,8.12,2022-10-26 11:04:45.687500
1684,13.1,2022-10-26 11:04:45.703125
1685,16.78,2022-10-26 11:04:45.718750
1686,19.57,2022-10-26 11:04:45.734375
1687,21.81,2022-10-26 11:04:45.750000
1688,23.81,2022-10-26 11:04:45.765625
1689,25.69,2022-10-26 11:04:45.781250
1690,27.45,2022-10-26 11:04:45.796875
1691,28.87,2022-10-26 11:04:45.812500
1692,29.65,2022-10-26 11:04:45.828125
1693,29.55,2022-10-26 11:04:45.843750
1694,28.43,2022-10-26 11:04:45.859375
1695,26.38,2022-10-26 11:04:45.875000
1696,23.61,2022-10-26 11:04:45.890625
1697,20.52,2022-10-26 11:04:45.906250
1698,17.53,2022-10-26 11:04:45.921875
1699,14.97,2022-10-26 11:04:45.937500
1700,12.99,2022-10-26 11:04:45.953125
1701,11.42,2022-10-26 11:04:45.968750
1702,9.84,2022-10-26 11:04:45.984375
1703,7.7,2022-10-26 11:04:46.000000
1704,4.56,2022-10-26 11:04:46.015625
1705,0.3,2022-10-26 11:04:46.031250
1706,-4.86,2022-10-26 11:04:46.046875
1707,-10.44,2022-10-26 11:04:46.062500
1708,-15.99,2022-10-26 11:04:46.078125
1709,-21.23,2022-10-26 11:04:46.093750
1710,-26.21,2022-10-26 11:04:46.109375
1711,-31.14,2022-10-26 11:04:46.125000
1712,-36.27,2022-10-26 11:04:46.140625
1713,-41.67,2022-10-26 11:04:46.156250
1714,-47.14,2022-10-26 11:04:46.171875
1715,-52.21,2022-10-26 11:04:46.187500
1716,-56.12,2022-10-26 11:04:46.203125
1717,-58.03,2022-10-26 11:04:46.218750
1718,-57.08,2022-10-26 11:04:46.234375
1719,-52.68,2022-10-26 11:04:46.250000
1720,-44.66,2022-10-26 11:04:46.265625
1721,-33.54,2022-10-26 11:04:46.281250
1722,-20.37,2022-10-26 11:04:46.296875
1723,-6.6,2022-10-26 11:04:46.312500
1724,6.31,2022-10-26 11:04:46.328125
1725,17.3,2022-10-26 11:04:46.343750
1726,25.84,2022-10-26 11:04:46.359375
1727,31.94,2022-10-26 11:04:46.375000
1728,35.95,2022-10-26 11:04:46.390625
1729,38.29,2022-10-26 11:04:46.406250
1730,39.31,2022-10-26 11:04:46.421875
1731,39.25,2022-10-26 11:04:46.437500
1732,38.36,2022-10-26 11:04:46.453125
1733,36.93,2022-10-26 11:04:46.468750
1734,35.32,2022-10-26 11:04:46.484375
1735,33.86,2022-10-26 11:04:46.500000
1736,32.76,2022-10-26 11:04:46.515625
1737,32.02,2022-10-26 11:04:46.531250
1738,31.44,2022-10-26 11:04:46.546875
1739,30.78,2022-10-26 11:04:46.562500
1740,29.84,2022-10-26 11:04:46.578125
1741,28.59,2022-10-26 11:04:46.593750
1742,27.15,2022-10-26 11:04:46.609375
1743,25.7,2022-10-26 11:04:46.625000
1744,24.28,2022-10-26 11:04:46.640625
1745,22.73,2022-10-26 11:04:46.656250
1746,20.69,2022-10-26 11:04:46.671875
1747,17.71,2022-10-26 11:04:46.687500
1748,13.46,2022-10-26 11:04:46.703125
1749,7.93,2022-10-26 11:04:46.718750
1750,1.44,2022-10-26 11:04:46.734375
1751,-5.45,2022-10-26 11:04:46.750000
1752,-12.18,2022-10-26 11:04:46.765625
1753,-18.34,2022-10-26 11:04:46.781250
1754,-23.76,2022-10-26 11:04:46.796875
1755,-28.59,2022-10-26 11:04:46.812500
1756,-33.12,2022-10-26 11:04:46.828125
1757,-37.77,2022-10-26 11:04:46.843750
1758,-42.88,2022-10-26 11:04:46.859375
1759,-48.61,2022-10-26 11:04:46.875000
1760,-54.74,2022-10-26 11:04:46.890625
1761,-60.56,2022-10-26 11:04:46.906250
1762,-64.97,2022-10-26 11:04:46.921875
1763,-66.63,2022-10-26 11:04:46.937500
1764,-64.48,2022-10-26 11:04:46.953125
1765,-58.07,2022-10-26 11:04:46.968750
1766,-47.79,2022-10-26 11:04:46.984375
1767,-34.79,2022-10-26 11:04:47.000000
1768,-20.69,2022-10-26 11:04:47.015625
1769,-7.1,2022-10-26 11:04:47.031250
1770,4.68,2022-10-26 11:04:47.046875
1771,13.97,2022-10-26 11:04:47.062500
1772,20.65,2022-10-26 11:04:47.078125
1773,24.99,2022-10-26 11:04:47.093750
1774,27.53,2022-10-26 11:04:47.109375
1775,28.81,2022-10-26 11:04:47.125000
1776,29.29,2022-10-26 11:04:47.140625
1777,29.35,2022-10-26 11:04:47.156250
1778,29.22,2022-10-26 11:04:47.171875
1779,29.14,2022-10-26 11:04:47.187500
1780,29.26,2022-10-26 11:04:47.203125
1781,29.62,2022-10-26 11:04:47.218750
1782,30.21,2022-10-26 11:04:47.234375
1783,30.88,2022-10-26 11:04:47.250000
1784,31.46,2022-10-26 11:04:47.265625
1785,31.77,2022-10-26 11:04:47.281250
1786,31.75,2022-10-26 11:04:47.296875
1787,31.42,2022-10-26 11:04:47.312500
1788,30.83,2022-10-26 11:04:47.328125
1789,30.05,2022-10-26 11:04:47.343750
1790,29.03,2022-10-26 11:04:47.359375
1791,27.6,2022-10-26 11:04:47.375000
1792,25.54,2022-10-26 11:04:47.390625
1793,22.62,2022-10-26 11:04:47.406250
1794,18.68,2022-10-26 11:04:47.421875
1795,13.83,2022-10-26 11:04:47.437500
1796,8.36,2022-10-26 11:04:47.453125
1797,2.76,2022-10-26 11:04:47.468750
1798,-2.49,2022-10-26 11:04:47.484375
1799,-7.02,2022-10-26 11:04:47.500000
1800,-10.78,2022-10-26 11:04:47.515625
1801,-14.04,2022-10-26 11:04:47.531250
1802,-17.32,2022-10-26 11:04:47.546875
1803,-21.23,2022-10-26 11:04:47.562500
1804,-26.24,2022-10-26 11:04:47.578125
1805,-32.54,2022-10-26 11:04:47.593750
1806,-39.98,2022-10-26 11:04:47.609375
1807,-47.87,2022-10-26 11:04:47.625000
1808,-55.13,2022-10-26 11:04:47.640625
1809,-60.36,2022-10-26 11:04:47.656250
1810,-62.12,2022-10-26 11:04:47.671875
1811,-59.43,2022-10-26 11:04:47.687500
1812,-52.04,2022-10-26 11:04:47.703125
1813,-40.68,2022-10-26 11:04:47.718750
1814,-26.86,2022-10-26 11:04:47.734375
1815,-12.46,2022-10-26 11:04:47.750000
1816,0.81,2022-10-26 11:04:47.765625
1817,11.83,2022-10-26 11:04:47.781250
1818,20.16,2022-10-26 11:04:47.796875
1819,25.96,2022-10-26 11:04:47.812500
1820,29.72,2022-10-26 11:04:47.828125
1821,32.03,2022-10-26 11:04:47.843750
1822,33.41,2022-10-26 11:04:47.859375
1823,34.32,2022-10-26 11:04:47.875000
1824,35.09,2022-10-26 11:04:47.890625
1825,35.92,2022-10-26 11:04:47.906250
1826,36.89,2022-10-26 11:04:47.921875
1827,37.9,2022-10-26 11:04:47.937500
1828,38.72,2022-10-26 11:04:47.953125
1829,39.1,2022-10-26 11:04:47.968750
1830,38.84,2022-10-26 11:04:47.984375
1831,37.86,2022-10-26 11:04:48.000000
1832,36.26,2022-10-26 11:04:48.015625
1833,34.27,2022-10-26 11:04:48.031250
1834,32.19,2022-10-26 11:04:48.046875
1835,30.24,2022-10-26 11:04:48.062500
1836,28.46,2022-10-26 11:04:48.078125
1837,26.63,2022-10-26 11:04:48.093750
1838,24.32,2022-10-26 11:04:48.109375
1839,21.04,2022-10-26 11:04:48.125000
1840,16.45,2022-10-26 11:04:48.140625
1841,10.56,2022-10-26 11:04:48.156250
1842,3.73,2022-10-26 11:04:48.171875
1843,-3.39,2022-10-26 11:04:48.187500
1844,-10.09,2022-10-26 11:04:48.203125
1845,-15.84,2022-10-26 11:04:48.218750
1846,-20.51,2022-10-26 11:04:48.234375
1847,-24.37,2022-10-26 11:04:48.250000
1848,-27.99,2022-10-26 11:04:48.265625
1849,-32.04,2022-10-26 11:04:48.281250
1850,-37.06,2022-10-26 11:04:48.296875
1851,-43.16,2022-10-26 11:04:48.312500
1852,-49.87,2022-10-26 11:04:48.328125
1853,-56.14,2022-10-26 11:04:48.343750
1854,-60.53,2022-10-26 11:04:48.359375
1855,-61.63,2022-10-26 11:04:48.375000
1856,-58.48,2022-10-26 11:04:48.390625
1857,-50.93,2022-10-26 11:04:48.406250
1858,-39.72,2022-10-26 11:04:48.421875
1859,-26.27,2022-10-26 11:04:48.437500
1860,-12.3,2022-10-26 11:04:48.453125
1861,0.61,2022-10-26 11:04:48.468750
1862,11.41,2022-10-26 11:04:48.484375
1863,19.68,2022-10-26 11:04:48.500000
1864,25.59,2022-10-26 11:04:48.515625
1865,29.64,2022-10-26 11:04:48.531250
1866,32.38,2022-10-26 11:04:48.546875
1867,34.24,2022-10-26 11:04:48.562500
1868,35.46,2022-10-26 11:04:48.578125
1869,36.09,2022-10-26 11:04:48.593750
1870,36.16,2022-10-26 11:04:48.609375
1871,35.71,2022-10-26 11:04:48.625000
1872,34.88,2022-10-26 11:04:48.640625
1873,33.75,2022-10-26 11:04:48.656250
1874,32.36,2022-10-26 11:04:48.671875
1875,30.7,2022-10-26 11:04:48.687500
1876,28.78,2022-10-26 11:04:48.703125
1877,26.68,2022-10-26 11:04:48.718750
1878,24.62,2022-10-26 11:04:48.734375
1879,22.82,2022-10-26 11:04:48.750000
1880,21.33,2022-10-26 11:04:48.765625
1881,19.95,2022-10-26 11:04:48.781250
1882,18.25,2022-10-26 11:04:48.796875
1883,15.77,2022-10-26 11:04:48.812500
1884,12.26,2022-10-26 11:04:48.828125
1885,7.82,2022-10-26 11:04:48.843750
1886,2.88,2022-10-26 11:04:48.859375
1887,-1.98,2022-10-26 11:04:48.875000
1888,-6.3,2022-10-26 11:04:48.890625
1889,-9.91,2022-10-26 11:04:48.906250
1890,-13.03,2022-10-26 11:04:48.921875
1891,-16.14,2022-10-26 11:04:48.937500
1892,-19.83,2022-10-26 11:04:48.953125
1893,-24.58,2022-10-26 11:04:48.968750
1894,-30.45,2022-10-26 11:04:48.984375
1895,-36.94,2022-10-26 11:04:49.000000
1896,-42.94,2022-10-26 11:04:49.015625
1897,-46.99,2022-10-26 11:04:49.031250
1898,-47.7,2022-10-26 11:04:49.046875
1899,-44.29,2022-10-26 11:04:49.062500
1900,-36.87,2022-10-26 11:04:49.078125
1901,-26.5,2022-10-26 11:04:49.093750
1902,-14.74,2022-10-26 11:04:49.109375
1903,-3.19,2022-10-26 11:04:49.125000
1904,7.07,2022-10-26 11:04:49.140625
1905,15.58,2022-10-26 11:04:49.156250
1906,22.37,2022-10-26 11:04:49.171875
1907,27.64,2022-10-26 11:04:49.187500
1908,31.54,2022-10-26 11:04:49.203125
1909,34.11,2022-10-26 11:04:49.218750
1910,35.39,2022-10-26 11:04:49.234375
1911,35.59,2022-10-26 11:04:49.250000
1912,35.16,2022-10-26 11:04:49.265625
1913,34.59,2022-10-26 11:04:49.281250
1914,34.25,2022-10-26 11:04:49.296875
1915,34.2,2022-10-26 11:04:49.312500
1916,34.19,2022-10-26 11:04:49.328125
1917,33.85,2022-10-26 11:04:49.343750
1918,32.87,2022-10-26 11:04:49.359375
1919,31.24,2022-10-26 11:04:49.375000
1920,29.25,2022-10-26 11:04:49.390625
1921,27.29,2022-10-26 11:04:49.406250
1922,25.69,2022-10-26 11:04:49.421875
1923,24.48,2022-10-26 11:04:49.437500
1924,23.35,2022-10-26 11:04:49.453125
1925,21.78,2022-10-26 11:04:49.468750
1926,19.24,2022-10-26 11:04:49.484375
1927,15.42,2022-10-26 11:04:49.500000
1928,10.41,2022-10-26 11:04:49.515625
1929,4.64,2022-10-26 11:04:49.531250
1930,-1.26,2022-10-26 11:04:49.546875
1931,-6.68,2022-10-26 11:04:49.562500
1932,-11.23,2022-10-26 11:04:49.578125
1933,-14.89,2022-10-26 11:04:49.593750
1934,-18.01,2022-10-26 11:04:49.609375
1935,-21.12,2022-10-26 11:04:49.625000
1936,-24.86,2022-10-26 11:04:49.640625
1937,-29.69,2022-10-26 11:04:49.656250
1938,-35.78,2022-10-26 11:04:49.671875
1939,-42.81,2022-10-26 11:04:49.687500
1940,-49.97,2022-10-26 11:04:49.703125
1941,-55.98,2022-10-26 11:04:49.718750
1942,-59.38,2022-10-26 11:04:49.734375
1943,-58.88,2022-10-26 11:04:49.750000
1944,-53.83,2022-10-26 11:04:49.765625
1945,-44.49,2022-10-26 11:04:49.781250
1946,-32.09,2022-10-26 11:04:49.796875
1947,-18.51,2022-10-26 11:04:49.812500
1948,-5.72,2022-10-26 11:04:49.828125
1949,4.84,2022-10-26 11:04:49.843750
1950,12.65,2022-10-26 11:04:49.859375
1951,18.07,2022-10-26 11:04:49.875000
1952,21.95,2022-10-26 11:04:49.890625
1953,25.18,2022-10-26 11:04:49.906250
1954,28.26,2022-10-26 11:04:49.921875
1955,31.21,2022-10-26 11:04:49.937500
1956,33.77,2022-10-26 11:04:49.953125
1957,35.67,2022-10-26 11:04:49.968750
1958,36.9,2022-10-26 11:04:49.984375
1959,37.62,2022-10-26 11:04:50.000000
1960,38.1,2022-10-26 11:04:50.015625
1961,38.45,2022-10-26 11:04:50.031250
1962,38.59,2022-10-26 11:04:50.046875
1963,38.22,2022-10-26 11:04:50.062500
1964,37.09,2022-10-26 11:04:50.078125
1965,35.19,2022-10-26 11:04:50.093750
1966,32.75,2022-10-26 11:04:50.109375
1967,30.23,2022-10-26 11:04:50.125000
1968,28.09,2022-10-26 11:04:50.140625
1969,26.56,2022-10-26 11:04:50.156250
1970,25.54,2022-10-26 11:04:50.171875
1971,24.6,2022-10-26 11:04:50.187500
1972,23.15,2022-10-26 11:04:50.203125
1973,20.69,2022-10-26 11:04:50.218750
1974,17.01,2022-10-26 11:04:50.234375
1975,12.28,2022-10-26 11:04:50.250000
1976,6.95,2022-10-26 11:04:50.265625
1977,1.54,2022-10-26 11:04:50.281250
1978,-3.54,2022-10-26 11:04:50.296875
1979,-8.11,2022-10-26 11:04:50.312500
1980,-12.2,2022-10-26 11:04:50.328125
1981,-15.98,2022-10-26 11:04:50.343750
1982,-19.64,2022-10-26 11:04:50.359375
1983,-23.39,2022-10-26 11:04:50.375000
1984,-27.51,2022-10-26 11:04:50.390625
1985,-32.28,2022-10-26 11:04:50.406250
1986,-37.97,2022-10-26 11:04:50.421875
1987,-44.58,2022-10-26 11:04:50.437500
1988,-51.62,2022-10-26 11:04:50.453125
1989,-58.0,2022-10-26 11:04:50.468750
1990,-62.23,2022-10-26 11:04:50.484375
1991,-62.8,2022-10-26 11:04:50.500000
1992,-58.75,2022-10-26 11:04:50.515625
1993,-50.1,2022-10-26 11:04:50.531250
1994,-37.89,2022-10-26 11:04:50.546875
1995,-23.92,2022-10-26 11:04:50.562500
1996,-10.12,2022-10-26 11:04:50.578125
1997,1.91,2022-10-26 11:04:50.593750
1998,11.36,2022-10-26 11:04:50.609375
1999,18.17,2022-10-26 11:04:50.625000
2000,22.9,2022-10-26 11:04:50.640625
2001,26.32,2022-10-26 11:04:50.656250
2002,29.07,2022-10-26 11:04:50.671875
2003,31.56,2022-10-26 11:04:50.687500
2004,33.93,2022-10-26 11:04:50.703125
2005,36.13,2022-10-26 11:04:50.718750
2006,38.07,2022-10-26 11:04:50.734375
2007,39.7,2022-10-26 11:04:50.750000
2008,41.01,2022-10-26 11:04:50.765625
2009,41.94,2022-10-26 11:04:50.781250
2010,42.43,2022-10-26 11:04:50.796875
2011,42.39,2022-10-26 11:04:50.812500
2012,41.81,2022-10-26 11:04:50.828125
2013,40.82,2022-10-26 11:04:50.843750
2014,39.67,2022-10-26 11:04:50.859375
2015,38.67,2022-10-26 11:04:50.875000
2016,37.92,2022-10-26 11:04:50.890625
2017,37.3,2022-10-26 11:04:50.906250
2018,36.41,2022-10-26 11:04:50.921875
2019,34.83,2022-10-26 11:04:50.937500
2020,32.29,2022-10-26 11:04:50.953125
2021,28.81,2022-10-26 11:04:50.968750
2022,24.69,2022-10-26 11:04:50.984375
2023,20.35,2022-10-26 11:04:51.000000
2024,16.11,2022-10-26 11:04:51.015625
2025,12.1,2022-10-26 11:04:51.031250
2026,8.22,2022-10-26 11:04:51.046875
2027,4.26,2022-10-26 11:04:51.062500
2028,0.05,2022-10-26 11:04:51.078125
2029,-4.44,2022-10-26 11:04:51.093750
2030,-9.06,2022-10-26 11:04:51.109375
2031,-13.56,2022-10-26 11:04:51.125000
2032,-17.67,2022-10-26 11:04:51.140625
2033,-21.27,2022-10-26 11:04:51.156250
2034,-24.46,2022-10-26 11:04:51.171875
2035,-27.59,2022-10-26 11:04:51.187500
2036,-31.13,2022-10-26 11:04:51.203125
2037,-35.54,2022-10-26 11:04:51.218750
2038,-41.02,2022-10-26 11:04:51.234375
2039,-47.27,2022-10-26 11:04:51.250000
2040,-53.48,2022-10-26 11:04:51.265625
2041,-58.35,2022-10-26 11:04:51.281250
2042,-60.51,2022-10-26 11:04:51.296875
2043,-58.88,2022-10-26 11:04:51.312500
2044,-53.09,2022-10-26 11:04:51.328125
2045,-43.64,2022-10-26 11:04:51.343750
2046,-31.79,2022-10-26 11:04:51.359375
2047,-19.18,2022-10-26 11:04:51.375000
2048,-7.36,2022-10-26 11:04:51.390625
2049,2.63,2022-10-26 11:04:51.406250
2050,10.36,2022-10-26 11:04:51.421875
2051,15.99,2022-10-26 11:04:51.437500
2052,19.98,2022-10-26 11:04:51.453125
2053,22.85,2022-10-26 11:04:51.468750
2054,25.01,2022-10-26 11:04:51.484375
2055,26.71,2022-10-26 11:04:51.500000
2056,28.04,2022-10-26 11:04:51.515625
2057,29.07,2022-10-26 11:04:51.531250
2058,29.85,2022-10-26 11:04:51.546875
2059,30.41,2022-10-26 11:04:51.562500
2060,30.8,2022-10-26 11:04:51.578125
2061,30.97,2022-10-26 11:04:51.593750
2062,30.77,2022-10-26 11:04:51.609375
2063,30.04,2022-10-26 11:04:51.625000
2064,28.61,2022-10-26 11:04:51.640625
2065,26.55,2022-10-26 11:04:51.656250
2066,24.15,2022-10-26 11:04:51.671875
2067,21.8,2022-10-26 11:04:51.687500
2068,19.93,2022-10-26 11:04:51.703125
2069,18.69,2022-10-26 11:04:51.718750
2070,17.88,2022-10-26 11:04:51.734375
2071,16.99,2022-10-26 11:04:51.750000
2072,15.42,2022-10-26 11:04:51.765625
2073,12.76,2022-10-26 11:04:51.781250
2074,9.0,2022-10-26 11:04:51.796875
2075,4.53,2022-10-26 11:04:51.812500
2076,-0.07,2022-10-26 11:04:51.828125
2077,-4.3,2022-10-26 11:04:51.843750
2078,-7.9,2022-10-26 11:04:51.859375
2079,-10.99,2022-10-26 11:04:51.875000
2080,-13.93,2022-10-26 11:04:51.890625
2081,-17.18,2022-10-26 11:04:51.906250
2082,-21.15,2022-10-26 11:04:51.921875
2083,-26.09,2022-10-26 11:04:51.937500
2084,-32.05,2022-10-26 11:04:51.953125
2085,-38.67,2022-10-26 11:04:51.968750
2086,-45.22,2022-10-26 11:04:51.984375
2087,-50.51,2022-10-26 11:04:52.000000
2088,-53.2,2022-10-26 11:04:52.015625
2089,-52.13,2022-10-26 11:04:52.031250
2090,-46.79,2022-10-26 11:04:52.046875
2091,-37.6,2022-10-26 11:04:52.062500
2092,-25.81,2022-10-26 11:04:52.078125
2093,-13.19,2022-10-26 11:04:52.093750
2094,-1.4,2022-10-26 11:04:52.109375
2095,8.45,2022-10-26 11:04:52.125000
2096,15.94,2022-10-26 11:04:52.140625
2097,21.29,2022-10-26 11:04:52.156250
2098,24.97,2022-10-26 11:04:52.171875
2099,27.48,2022-10-26 11:04:52.187500
2100,29.14,2022-10-26 11:04:52.203125
2101,30.11,2022-10-26 11:04:52.218750
2102,30.55,2022-10-26 11:04:52.234375
2103,30.64,2022-10-26 11:04:52.250000
2104,30.63,2022-10-26 11:04:52.265625
2105,30.75,2022-10-26 11:04:52.281250
2106,31.12,2022-10-26 11:04:52.296875
2107,31.65,2022-10-26 11:04:52.312500
2108,32.17,2022-10-26 11:04:52.328125
2109,32.44,2022-10-26 11:04:52.343750
2110,32.36,2022-10-26 11:04:52.359375
2111,31.95,2022-10-26 11:04:52.375000
2112,31.4,2022-10-26 11:04:52.390625
2113,30.95,2022-10-26 11:04:52.406250
2114,30.72,2022-10-26 11:04:52.421875
2115,30.67,2022-10-26 11:04:52.437500
2116,30.45,2022-10-26 11:04:52.453125
2117,29.51,2022-10-26 11:04:52.468750
2118,27.21,2022-10-26 11:04:52.484375
2119,23.05,2022-10-26 11:04:52.500000
2120,16.87,2022-10-26 11:04:52.515625
2121,8.98,2022-10-26 11:04:52.531250
2122,0.17,2022-10-26 11:04:52.546875
2123,-8.56,2022-10-26 11:04:52.562500
2124,-16.28,2022-10-26 11:04:52.578125
2125,-22.4,2022-10-26 11:04:52.593750
2126,-26.88,2022-10-26 11:04:52.609375
2127,-30.12,2022-10-26 11:04:52.625000
2128,-32.85,2022-10-26 11:04:52.640625
2129,-35.83,2022-10-26 11:04:52.656250
2130,-39.65,2022-10-26 11:04:52.671875
2131,-44.51,2022-10-26 11:04:52.687500
2132,-50.21,2022-10-26 11:04:52.703125
2133,-56.04,2022-10-26 11:04:52.718750
2134,-60.92,2022-10-26 11:04:52.734375
2135,-63.6,2022-10-26 11:04:52.750000
2136,-62.91,2022-10-26 11:04:52.765625
2137,-58.2,2022-10-26 11:04:52.781250
2138,-49.56,2022-10-26 11:04:52.796875
2139,-37.91,2022-10-26 11:04:52.812500
2140,-24.82,2022-10-26 11:04:52.828125
2141,-12.02,2022-10-26 11:04:52.843750
2142,-0.97,2022-10-26 11:04:52.859375
2143,7.56,2022-10-26 11:04:52.875000
2144,13.56,2022-10-26 11:04:52.890625
2145,17.58,2022-10-26 11:04:52.906250
2146,20.43,2022-10-26 11:04:52.921875
2147,22.8,2022-10-26 11:04:52.937500
2148,25.08,2022-10-26 11:04:52.953125
2149,27.35,2022-10-26 11:04:52.968750
2150,29.52,2022-10-26 11:04:52.984375
2151,31.47,2022-10-26 11:04:53.000000
2152,33.1,2022-10-26 11:04:53.015625
2153,34.38,2022-10-26 11:04:53.031250
2154,35.25,2022-10-26 11:04:53.046875
2155,35.64,2022-10-26 11:04:53.062500
2156,35.52,2022-10-26 11:04:53.078125
2157,34.88,2022-10-26 11:04:53.093750
2158,33.79,2022-10-26 11:04:53.109375
2159,32.36,2022-10-26 11:04:53.125000
2160,30.68,2022-10-26 11:04:53.140625
2161,28.78,2022-10-26 11:04:53.156250
2162,26.63,2022-10-26 11:04:53.171875
2163,24.2,2022-10-26 11:04:53.187500
2164,21.45,2022-10-26 11:04:53.203125
2165,18.41,2022-10-26 11:04:53.218750
2166,15.14,2022-10-26 11:04:53.234375
2167,11.67,2022-10-26 11:04:53.250000
2168,8.03,2022-10-26 11:04:53.265625
2169,4.28,2022-10-26 11:04:53.281250
2170,0.44,2022-10-26 11:04:53.296875
2171,-3.43,2022-10-26 11:04:53.312500
2172,-7.27,2022-10-26 11:04:53.328125
2173,-11.05,2022-10-26 11:04:53.343750
2174,-14.79,2022-10-26 11:04:53.359375
2175,-18.48,2022-10-26 11:04:53.375000
2176,-22.14,2022-10-26 11:04:53.390625
2177,-25.79,2022-10-26 11:04:53.406250
2178,-29.45,2022-10-26 11:04:53.421875
2179,-33.26,2022-10-26 11:04:53.437500
2180,-37.48,2022-10-26 11:04:53.453125
2181,-42.35,2022-10-26 11:04:53.468750
2182,-47.92,2022-10-26 11:04:53.484375
2183,-53.78,2022-10-26 11:04:53.500000
2184,-58.98,2022-10-26 11:04:53.515625
2185,-62.14,2022-10-26 11:04:53.531250
2186,-61.9,2022-10-26 11:04:53.546875
2187,-57.39,2022-10-26 11:04:53.562500
2188,-48.71,2022-10-26 11:04:53.578125
2189,-36.96,2022-10-26 11:04:53.593750
2190,-23.88,2022-10-26 11:04:53.609375
2191,-11.28,2022-10-26 11:04:53.625000
2192,-0.48,2022-10-26 11:04:53.640625
2193,8.0,2022-10-26 11:04:53.656250
2194,14.34,2022-10-26 11:04:53.671875
2195,19.1,2022-10-26 11:04:53.687500
2196,22.91,2022-10-26 11:04:53.703125
2197,26.13,2022-10-26 11:04:53.718750
2198,28.93,2022-10-26 11:04:53.734375
2199,31.34,2022-10-26 11:04:53.750000
2200,33.33,2022-10-26 11:04:53.765625
2201,34.95,2022-10-26 11:04:53.781250
2202,36.22,2022-10-26 11:04:53.796875
2203,37.13,2022-10-26 11:04:53.812500
2204,37.57,2022-10-26 11:04:53.828125
2205,37.46,2022-10-26 11:04:53.843750
2206,36.76,2022-10-26 11:04:53.859375
2207,35.6,2022-10-26 11:04:53.875000
2208,34.27,2022-10-26 11:04:53.890625
2209,33.03,2022-10-26 11:04:53.906250
2210,32.04,2022-10-26 11:04:53.921875
2211,31.21,2022-10-26 11:04:53.937500
2212,30.29,2022-10-26 11:04:53.953125
2213,28.93,2022-10-26 11:04:53.968750
2214,26.94,2022-10-26 11:04:53.984375
2215,24.29,2022-10-26 11:04:54.000000
2216,21.16,2022-10-26 11:04:54.015625
2217,17.85,2022-10-26 11:04:54.031250
2218,14.59,2022-10-26 11:04:54.046875
2219,11.4,2022-10-26 11:04:54.062500
2220,8.14,2022-10-26 11:04:54.078125
2221,4.53,2022-10-26 11:04:54.093750
2222,0.36,2022-10-26 11:04:54.109375
2223,-4.42,2022-10-26 11:04:54.125000
2224,-9.6,2022-10-26 11:04:54.140625
2225,-14.82,2022-10-26 11:04:54.156250
2226,-19.63,2022-10-26 11:04:54.171875
2227,-23.72,2022-10-26 11:04:54.187500
2228,-26.97,2022-10-26 11:04:54.203125
2229,-29.56,2022-10-26 11:04:54.218750
2230,-31.8,2022-10-26 11:04:54.234375
2231,-34.14,2022-10-26 11:04:54.250000
2232,-36.97,2022-10-26 11:04:54.265625
2233,-40.59,2022-10-26 11:04:54.281250
2234,-45.04,2022-10-26 11:04:54.296875
2235,-49.95,2022-10-26 11:04:54.312500
2236,-54.47,2022-10-26 11:04:54.328125
2237,-57.33,2022-10-26 11:04:54.343750
2238,-57.2,2022-10-26 11:04:54.359375
2239,-53.11,2022-10-26 11:04:54.375000
2240,-44.91,2022-10-26 11:04:54.390625
2241,-33.41,2022-10-26 11:04:54.406250
2242,-20.21,2022-10-26 11:04:54.421875
2243,-7.17,2022-10-26 11:04:54.437500
2244,4.16,2022-10-26 11:04:54.453125
2245,12.92,2022-10-26 11:04:54.468750
2246,19.06,2022-10-26 11:04:54.484375
2247,23.1,2022-10-26 11:04:54.500000
2248,25.76,2022-10-26 11:04:54.515625
2249,27.66,2022-10-26 11:04:54.531250
2250,29.2,2022-10-26 11:04:54.546875
2251,30.57,2022-10-26 11:04:54.562500
2252,31.84,2022-10-26 11:04:54.578125
2253,33.04,2022-10-26 11:04:54.593750
2254,34.19,2022-10-26 11:04:54.609375
2255,35.28,2022-10-26 11:04:54.625000
2256,36.23,2022-10-26 11:04:54.640625
2257,36.88,2022-10-26 11:04:54.656250
2258,37.06,2022-10-26 11:04:54.671875
2259,36.57,2022-10-26 11:04:54.687500
2260,35.34,2022-10-26 11:04:54.703125
2261,33.42,2022-10-26 11:04:54.718750
2262,30.98,2022-10-26 11:04:54.734375
2263,28.31,2022-10-26 11:04:54.750000
2264,25.59,2022-10-26 11:04:54.765625
2265,22.79,2022-10-26 11:04:54.781250
2266,19.66,2022-10-26 11:04:54.796875
2267,15.76,2022-10-26 11:04:54.812500
2268,10.71,2022-10-26 11:04:54.828125
2269,4.43,2022-10-26 11:04:54.843750
2270,-2.75,2022-10-26 11:04:54.859375
2271,-10.16,2022-10-26 11:04:54.875000
2272,-17.04,2022-10-26 11:04:54.890625
2273,-22.88,2022-10-26 11:04:54.906250
2274,-27.61,2022-10-26 11:04:54.921875
2275,-31.59,2022-10-26 11:04:54.937500
2276,-35.42,2022-10-26 11:04:54.953125
2277,-39.69,2022-10-26 11:04:54.968750
2278,-44.76,2022-10-26 11:04:54.984375
2279,-50.61,2022-10-26 11:04:55.000000
2280,-56.85,2022-10-26 11:04:55.015625
2281,-62.79,2022-10-26 11:04:55.031250
2282,-67.49,2022-10-26 11:04:55.046875
2283,-69.96,2022-10-26 11:04:55.062500
2284,-69.34,2022-10-26 11:04:55.078125
2285,-65.16,2022-10-26 11:04:55.093750
2286,-57.55,2022-10-26 11:04:55.109375
2287,-47.23,2022-10-26 11:04:55.125000
2288,-35.4,2022-10-26 11:04:55.140625
2289,-23.39,2022-10-26 11:04:55.156250
2290,-12.33,2022-10-26 11:04:55.171875
2291,-2.96,2022-10-26 11:04:55.187500
2292,4.42,2022-10-26 11:04:55.203125
2293,9.91,2022-10-26 11:04:55.218750
2294,13.78,2022-10-26 11:04:55.234375
2295,16.41,2022-10-26 11:04:55.250000
2296,18.17,2022-10-26 11:04:55.265625
2297,19.41,2022-10-26 11:04:55.281250
2298,20.44,2022-10-26 11:04:55.296875
2299,21.55,2022-10-26 11:04:55.312500
2300,22.93,2022-10-26 11:04:55.328125
2301,24.68,2022-10-26 11:04:55.343750
2302,26.71,2022-10-26 11:04:55.359375
2303,28.75,2022-10-26 11:04:55.375000
2304,30.46,2022-10-26 11:04:55.390625
2305,31.52,2022-10-26 11:04:55.406250
2306,31.78,2022-10-26 11:04:55.421875
2307,31.24,2022-10-26 11:04:55.437500
2308,30.03,2022-10-26 11:04:55.453125
2309,28.31,2022-10-26 11:04:55.468750
2310,26.11,2022-10-26 11:04:55.484375
2311,23.39,2022-10-26 11:04:55.500000
2312,20.04,2022-10-26 11:04:55.515625
2313,15.96,2022-10-26 11:04:55.531250
2314,11.2,2022-10-26 11:04:55.546875
2315,5.85,2022-10-26 11:04:55.562500
2316,0.08,2022-10-26 11:04:55.578125
2317,-5.91,2022-10-26 11:04:55.593750
2318,-11.89,2022-10-26 11:04:55.609375
2319,-17.59,2022-10-26 11:04:55.625000
2320,-22.71,2022-10-26 11:04:55.640625
2321,-27.04,2022-10-26 11:04:55.656250
2322,-30.54,2022-10-26 11:04:55.671875
2323,-33.51,2022-10-26 11:04:55.687500
2324,-36.51,2022-10-26 11:04:55.703125
2325,-40.19,2022-10-26 11:04:55.718750
2326,-45.04,2022-10-26 11:04:55.734375
2327,-51.06,2022-10-26 11:04:55.750000
2328,-57.57,2022-10-26 11:04:55.765625
2329,-63.32,2022-10-26 11:04:55.781250
2330,-66.78,2022-10-26 11:04:55.796875
2331,-66.56,2022-10-26 11:04:55.812500
2332,-61.95,2022-10-26 11:04:55.828125
2333,-53.11,2022-10-26 11:04:55.843750
2334,-41.06,2022-10-26 11:04:55.859375
2335,-27.45,2022-10-26 11:04:55.875000
2336,-14.04,2022-10-26 11:04:55.890625
2337,-2.29,2022-10-26 11:04:55.906250
2338,7.0,2022-10-26 11:04:55.921875
2339,13.69,2022-10-26 11:04:55.937500
2340,18.22,2022-10-26 11:04:55.953125
2341,21.31,2022-10-26 11:04:55.968750
2342,23.63,2022-10-26 11:04:55.984375
2343,25.71,2022-10-26 11:04:56.000000
2344,27.76,2022-10-26 11:04:56.015625
2345,29.79,2022-10-26 11:04:56.031250
2346,31.7,2022-10-26 11:04:56.046875
2347,33.38,2022-10-26 11:04:56.062500
2348,34.69,2022-10-26 11:04:56.078125
2349,35.51,2022-10-26 11:04:56.093750
2350,35.74,2022-10-26 11:04:56.109375
2351,35.36,2022-10-26 11:04:56.125000
2352,34.43,2022-10-26 11:04:56.140625
2353,33.12,2022-10-26 11:04:56.156250
2354,31.66,2022-10-26 11:04:56.171875
2355,30.26,2022-10-26 11:04:56.187500
2356,28.91,2022-10-26 11:04:56.203125
2357,27.47,2022-10-26 11:04:56.218750
2358,25.7,2022-10-26 11:04:56.234375
2359,23.41,2022-10-26 11:04:56.250000
2360,20.58,2022-10-26 11:04:56.265625
2361,17.32,2022-10-26 11:04:56.281250
2362,13.83,2022-10-26 11:04:56.296875
2363,10.23,2022-10-26 11:04:56.312500
2364,6.55,2022-10-26 11:04:56.328125
2365,2.7,2022-10-26 11:04:56.343750
2366,-1.36,2022-10-26 11:04:56.359375
2367,-5.6,2022-10-26 11:04:56.375000
2368,-9.89,2022-10-26 11:04:56.390625
2369,-14.03,2022-10-26 11:04:56.406250
2370,-17.91,2022-10-26 11:04:56.421875
2371,-21.55,2022-10-26 11:04:56.437500
2372,-25.09,2022-10-26 11:04:56.453125
2373,-28.79,2022-10-26 11:04:56.468750
2374,-32.91,2022-10-26 11:04:56.484375
2375,-37.74,2022-10-26 11:04:56.500000
2376,-43.46,2022-10-26 11:04:56.515625
2377,-50.13,2022-10-26 11:04:56.531250
2378,-57.43,2022-10-26 11:04:56.546875
2379,-64.62,2022-10-26 11:04:56.562500
2380,-70.49,2022-10-26 11:04:56.578125
2381,-73.59,2022-10-26 11:04:56.593750
2382,-72.7,2022-10-26 11:04:56.609375
2383,-67.23,2022-10-26 11:04:56.625000
2384,-57.54,2022-10-26 11:04:56.640625
2385,-44.87,2022-10-26 11:04:56.656250
2386,-30.99,2022-10-26 11:04:56.671875
2387,-17.65,2022-10-26 11:04:56.687500
2388,-6.11,2022-10-26 11:04:56.703125
2389,3.06,2022-10-26 11:04:56.718750
2390,9.96,2022-10-26 11:04:56.734375
2391,15.01,2022-10-26 11:04:56.750000
2392,18.82,2022-10-26 11:04:56.765625
2393,21.86,2022-10-26 11:04:56.781250
2394,24.5,2022-10-26 11:04:56.796875
2395,26.95,2022-10-26 11:04:56.812500
2396,29.32,2022-10-26 11:04:56.828125
2397,31.62,2022-10-26 11:04:56.843750
2398,33.74,2022-10-26 11:04:56.859375
2399,35.44,2022-10-26 11:04:56.875000
2400,36.46,2022-10-26 11:04:56.890625
2401,36.62,2022-10-26 11:04:56.906250
2402,35.95,2022-10-26 11:04:56.921875
2403,34.69,2022-10-26 11:04:56.937500
2404,33.25,2022-10-26 11:04:56.953125
2405,32.03,2022-10-26 11:04:56.968750
2406,31.29,2022-10-26 11:04:56.984375
2407,30.99,2022-10-26 11:04:57.000000
2408,30.87,2022-10-26 11:04:57.015625
2409,30.57,2022-10-26 11:04:57.031250
2410,29.73,2022-10-26 11:04:57.046875
2411,28.14,2022-10-26 11:04:57.062500
2412,25.8,2022-10-26 11:04:57.078125
2413,22.88,2022-10-26 11:04:57.093750
2414,19.71,2022-10-26 11:04:57.109375
2415,16.62,2022-10-26 11:04:57.125000
2416,13.84,2022-10-26 11:04:57.140625
2417,11.41,2022-10-26 11:04:57.156250
2418,9.12,2022-10-26 11:04:57.171875
2419,6.58,2022-10-26 11:04:57.187500
2420,3.4,2022-10-26 11:04:57.203125
2421,-0.63,2022-10-26 11:04:57.218750
2422,-5.44,2022-10-26 11:04:57.234375
2423,-10.7,2022-10-26 11:04:57.250000
2424,-15.99,2022-10-26 11:04:57.265625
2425,-20.98,2022-10-26 11:04:57.281250
2426,-25.61,2022-10-26 11:04:57.296875
2427,-30.06,2022-10-26 11:04:57.312500
2428,-34.71,2022-10-26 11:04:57.328125
2429,-39.94,2022-10-26 11:04:57.343750
2430,-45.99,2022-10-26 11:04:57.359375
2431,-52.87,2022-10-26 11:04:57.375000
2432,-60.15,2022-10-26 11:04:57.390625
2433,-66.98,2022-10-26 11:04:57.406250
2434,-72.14,2022-10-26 11:04:57.421875
2435,-74.29,2022-10-26 11:04:57.437500
2436,-72.34,2022-10-26 11:04:57.453125
2437,-65.91,2022-10-26 11:04:57.468750
2438,-55.53,2022-10-26 11:04:57.484375
2439,-42.53,2022-10-26 11:04:57.500000
2440,-28.73,2022-10-26 11:04:57.515625
2441,-15.82,2022-10-26 11:04:57.531250
2442,-4.94,2022-10-26 11:04:57.546875
2443,3.52,2022-10-26 11:04:57.562500
2444,9.77,2022-10-26 11:04:57.578125
2445,14.32,2022-10-26 11:04:57.593750
2446,17.65,2022-10-26 11:04:57.609375
2447,20.06,2022-10-26 11:04:57.625000
2448,21.65,2022-10-26 11:04:57.640625
2449,22.47,2022-10-26 11:04:57.656250
2450,22.66,2022-10-26 11:04:57.671875
2451,22.45,2022-10-26 11:04:57.687500
2452,22.18,2022-10-26 11:04:57.703125
2453,22.09,2022-10-26 11:04:57.718750
2454,22.28,2022-10-26 11:04:57.734375
2455,22.67,2022-10-26 11:04:57.750000
2456,23.05,2022-10-26 11:04:57.765625
2457,23.21,2022-10-26 11:04:57.781250
2458,22.97,2022-10-26 11:04:57.796875
2459,22.35,2022-10-26 11:04:57.812500
2460,21.44,2022-10-26 11:04:57.828125
2461,20.42,2022-10-26 11:04:57.843750
2462,19.38,2022-10-26 11:04:57.859375
2463,18.23,2022-10-26 11:04:57.875000
2464,16.74,2022-10-26 11:04:57.890625
2465,14.64,2022-10-26 11:04:57.906250
2466,11.77,2022-10-26 11:04:57.921875
2467,8.2,2022-10-26 11:04:57.937500
2468,4.2,2022-10-26 11:04:57.953125
2469,0.16,2022-10-26 11:04:57.968750
2470,-3.59,2022-10-26 11:04:57.984375
2471,-6.9,2022-10-26 11:04:58.000000
2472,-9.84,2022-10-26 11:04:58.015625
2473,-12.69,2022-10-26 11:04:58.031250
2474,-15.78,2022-10-26 11:04:58.046875
2475,-19.5,2022-10-26 11:04:58.062500
2476,-24.18,2022-10-26 11:04:58.078125
2477,-29.99,2022-10-26 11:04:58.093750
2478,-36.81,2022-10-26 11:04:58.109375
2479,-44.07,2022-10-26 11:04:58.125000
2480,-50.72,2022-10-26 11:04:58.140625
2481,-55.41,2022-10-26 11:04:58.156250
2482,-56.8,2022-10-26 11:04:58.171875
2483,-54.02,2022-10-26 11:04:58.187500
2484,-46.97,2022-10-26 11:04:58.203125
2485,-36.49,2022-10-26 11:04:58.218750
2486,-24.01,2022-10-26 11:04:58.234375
2487,-11.23,2022-10-26 11:04:58.250000
2488,0.4,2022-10-26 11:04:58.265625
2489,10.03,2022-10-26 11:04:58.281250
2490,17.47,2022-10-26 11:04:58.296875
2491,23.06,2022-10-26 11:04:58.312500
2492,27.37,2022-10-26 11:04:58.328125
2493,30.87,2022-10-26 11:04:58.343750
2494,33.79,2022-10-26 11:04:58.359375
2495,36.12,2022-10-26 11:04:58.375000
2496,37.78,2022-10-26 11:04:58.390625
2497,38.74,2022-10-26 11:04:58.406250
2498,39.08,2022-10-26 11:04:58.421875
2499,38.99,2022-10-26 11:04:58.437500
2500,38.61,2022-10-26 11:04:58.453125
2501,37.97,2022-10-26 11:04:58.468750
2502,36.98,2022-10-26 11:04:58.484375
2503,35.5,2022-10-26 11:04:58.500000
2504,33.49,2022-10-26 11:04:58.515625
2505,31.03,2022-10-26 11:04:58.531250
2506,28.36,2022-10-26 11:04:58.546875
2507,25.75,2022-10-26 11:04:58.562500
2508,23.4,2022-10-26 11:04:58.578125
2509,21.32,2022-10-26 11:04:58.593750
2510,19.33,2022-10-26 11:04:58.609375
2511,17.06,2022-10-26 11:04:58.625000
2512,14.11,2022-10-26 11:04:58.640625
2513,10.18,2022-10-26 11:04:58.656250
2514,5.22,2022-10-26 11:04:58.671875
2515,-0.46,2022-10-26 11:04:58.687500
2516,-6.34,2022-10-26 11:04:58.703125
2517,-11.8,2022-10-26 11:04:58.718750
2518,-16.42,2022-10-26 11:04:58.734375
2519,-20.13,2022-10-26 11:04:58.750000
2520,-23.23,2022-10-26 11:04:58.765625
2521,-26.32,2022-10-26 11:04:58.781250
2522,-30.01,2022-10-26 11:04:58.796875
2523,-34.79,2022-10-26 11:04:58.812500
2524,-40.81,2022-10-26 11:04:58.828125
2525,-47.86,2022-10-26 11:04:58.843750
2526,-55.29,2022-10-26 11:04:58.859375
2527,-62.09,2022-10-26 11:04:58.875000
2528,-67.03,2022-10-26 11:04:58.890625
2529,-68.86,2022-10-26 11:04:58.906250
2530,-66.66,2022-10-26 11:04:58.921875
2531,-60.14,2022-10-26 11:04:58.937500
2532,-49.77,2022-10-26 11:04:58.953125
2533,-36.74,2022-10-26 11:04:58.968750
2534,-22.69,2022-10-26 11:04:58.984375
2535,-9.22,2022-10-26 11:04:59.000000
2536,2.39,2022-10-26 11:04:59.015625
2537,11.56,2022-10-26 11:04:59.031250
2538,18.32,2022-10-26 11:04:59.046875
2539,23.21,2022-10-26 11:04:59.062500
2540,26.94,2022-10-26 11:04:59.078125
2541,30.09,2022-10-26 11:04:59.093750
2542,32.98,2022-10-26 11:04:59.109375
2543,35.62,2022-10-26 11:04:59.125000
2544,37.79,2022-10-26 11:04:59.140625
2545,39.31,2022-10-26 11:04:59.156250
2546,40.07,2022-10-26 11:04:59.171875
2547,40.14,2022-10-26 11:04:59.187500
2548,39.73,2022-10-26 11:04:59.203125
2549,39.08,2022-10-26 11:04:59.218750
2550,38.4,2022-10-26 11:04:59.234375
2551,37.79,2022-10-26 11:04:59.250000
2552,37.29,2022-10-26 11:04:59.265625
2553,36.87,2022-10-26 11:04:59.281250
2554,36.44,2022-10-26 11:04:59.296875
2555,35.84,2022-10-26 11:04:59.312500
2556,34.87,2022-10-26 11:04:59.328125
2557,33.38,2022-10-26 11:04:59.343750
2558,31.31,2022-10-26 11:04:59.359375
2559,28.73,2022-10-26 11:04:59.375000
2560,25.78,2022-10-26 11:04:59.390625
2561,22.59,2022-10-26 11:04:59.406250
2562,19.24,2022-10-26 11:04:59.421875
2563,15.63,2022-10-26 11:04:59.437500
2564,11.61,2022-10-26 11:04:59.453125
2565,7.05,2022-10-26 11:04:59.468750
2566,1.93,2022-10-26 11:04:59.484375
2567,-3.6,2022-10-26 11:04:59.500000
2568,-9.27,2022-10-26 11:04:59.515625
2569,-14.81,2022-10-26 11:04:59.531250
2570,-20.02,2022-10-26 11:04:59.546875
2571,-24.89,2022-10-26 11:04:59.562500
2572,-29.58,2022-10-26 11:04:59.578125
2573,-34.43,2022-10-26 11:04:59.593750
2574,-39.89,2022-10-26 11:04:59.609375
2575,-46.3,2022-10-26 11:04:59.625000
2576,-53.71,2022-10-26 11:04:59.640625
2577,-61.59,2022-10-26 11:04:59.656250
2578,-68.83,2022-10-26 11:04:59.671875
2579,-73.82,2022-10-26 11:04:59.687500
2580,-74.95,2022-10-26 11:04:59.703125
2581,-71.12,2022-10-26 11:04:59.718750
2582,-62.25,2022-10-26 11:04:59.734375
2583,-49.37,2022-10-26 11:04:59.750000
2584,-34.34,2022-10-26 11:04:59.765625
2585,-19.29,2022-10-26 11:04:59.781250
2586,-5.94,2022-10-26 11:04:59.796875
2587,4.77,2022-10-26 11:04:59.812500
2588,12.76,2022-10-26 11:04:59.828125
2589,18.55,2022-10-26 11:04:59.843750
2590,22.88,2022-10-26 11:04:59.859375
2591,26.37,2022-10-26 11:04:59.875000
2592,29.33,2022-10-26 11:04:59.890625
2593,31.86,2022-10-26 11:04:59.906250
2594,33.98,2022-10-26 11:04:59.921875
2595,35.71,2022-10-26 11:04:59.937500
2596,37.17,2022-10-26 11:04:59.953125
2597,38.44,2022-10-26 11:04:59.968750
2598,39.5,2022-10-26 11:04:59.984375
2599,40.23,2022-10-26 11:05:00.000000
2600,40.46,2022-10-26 11:05:00.015625
2601,40.13,2022-10-26 11:05:00.031250
2602,39.29,2022-10-26 11:05:00.046875
2603,38.22,2022-10-26 11:05:00.062500
2604,37.21,2022-10-26 11:05:00.078125
2605,36.49,2022-10-26 11:05:00.093750
2606,36.12,2022-10-26 11:05:00.109375
2607,35.93,2022-10-26 11:05:00.125000
2608,35.59,2022-10-26 11:05:00.140625
2609,34.73,2022-10-26 11:05:00.156250
2610,33.02,2022-10-26 11:05:00.171875
2611,30.26,2022-10-26 11:05:00.187500
2612,26.44,2022-10-26 11:05:00.203125
2613,21.74,2022-10-26 11:05:00.218750
2614,16.54,2022-10-26 11:05:00.234375
2615,11.27,2022-10-26 11:05:00.250000
2616,6.36,2022-10-26 11:05:00.265625
2617,2.07,2022-10-26 11:05:00.281250
2618,-1.57,2022-10-26 11:05:00.296875
2619,-4.8,2022-10-26 11:05:00.312500
2620,-8.08,2022-10-26 11:05:00.328125
2621,-11.94,2022-10-26 11:05:00.343750
2622,-16.82,2022-10-26 11:05:00.359375
2623,-22.94,2022-10-26 11:05:00.375000
2624,-30.23,2022-10-26 11:05:00.390625
2625,-38.21,2022-10-26 11:05:00.406250
2626,-46.03,2022-10-26 11:05:00.421875
2627,-52.54,2022-10-26 11:05:00.437500
2628,-56.54,2022-10-26 11:05:00.453125
2629,-56.98,2022-10-26 11:05:00.468750
2630,-53.35,2022-10-26 11:05:00.484375
2631,-45.87,2022-10-26 11:05:00.500000
2632,-35.54,2022-10-26 11:05:00.515625
2633,-23.89,2022-10-26 11:05:00.531250
2634,-12.5,2022-10-26 11:05:00.546875
2635,-2.6,2022-10-26 11:05:00.562500
2636,5.27,2022-10-26 11:05:00.578125
2637,11.19,2022-10-26 11:05:00.593750
2638,15.61,2022-10-26 11:05:00.609375
2639,19.02,2022-10-26 11:05:00.625000
2640,21.73,2022-10-26 11:05:00.640625
2641,23.85,2022-10-26 11:05:00.656250
2642,25.4,2022-10-26 11:05:00.671875
2643,26.43,2022-10-26 11:05:00.687500
2644,27.1,2022-10-26 11:05:00.703125
2645,27.59,2022-10-26 11:05:00.718750
2646,27.98,2022-10-26 11:05:00.734375
2647,28.24,2022-10-26 11:05:00.750000
2648,28.25,2022-10-26 11:05:00.765625
2649,27.87,2022-10-26 11:05:00.781250
2650,27.09,2022-10-26 11:05:00.796875
2651,26.04,2022-10-26 11:05:00.812500
2652,24.93,2022-10-26 11:05:00.828125
2653,23.91,2022-10-26 11:05:00.843750
2654,22.98,2022-10-26 11:05:00.859375
2655,21.9,2022-10-26 11:05:00.875000
2656,20.33,2022-10-26 11:05:00.890625
2657,17.89,2022-10-26 11:05:00.906250
2658,14.38,2022-10-26 11:05:00.921875
2659,9.88,2022-10-26 11:05:00.937500
2660,4.73,2022-10-26 11:05:00.953125
2661,-0.58,2022-10-26 11:05:00.968750
2662,-5.57,2022-10-26 11:05:00.984375
2663,-9.89,2022-10-26 11:05:01.000000
2664,-13.47,2022-10-26 11:05:01.015625
2665,-16.51,2022-10-26 11:05:01.031250
2666,-19.46,2022-10-26 11:05:01.046875
2667,-22.92,2022-10-26 11:05:01.062500
2668,-27.42,2022-10-26 11:05:01.078125
2669,-33.19,2022-10-26 11:05:01.093750
2670,-39.88,2022-10-26 11:05:01.109375
2671,-46.56,2022-10-26 11:05:01.125000
2672,-51.79,2022-10-26 11:05:01.140625
2673,-54.08,2022-10-26 11:05:01.156250
2674,-52.36,2022-10-26 11:05:01.171875
2675,-46.39,2022-10-26 11:05:01.187500
2676,-36.83,2022-10-26 11:05:01.203125
2677,-25.0,2022-10-26 11:05:01.218750
2678,-12.51,2022-10-26 11:05:01.234375
2679,-0.72,2022-10-26 11:05:01.250000
2680,9.5,2022-10-26 11:05:01.265625
2681,17.88,2022-10-26 11:05:01.281250
2682,24.51,2022-10-26 11:05:01.296875
2683,29.7,2022-10-26 11:05:01.312500
2684,33.72,2022-10-26 11:05:01.328125
2685,36.68,2022-10-26 11:05:01.343750
2686,38.63,2022-10-26 11:05:01.359375
2687,39.59,2022-10-26 11:05:01.375000
2688,39.63,2022-10-26 11:05:01.390625
2689,38.98,2022-10-26 11:05:01.406250
2690,37.96,2022-10-26 11:05:01.421875
2691,36.95,2022-10-26 11:05:01.437500
2692,36.2,2022-10-26 11:05:01.453125
2693,35.83,2022-10-26 11:05:01.468750
2694,35.77,2022-10-26 11:05:01.484375
2695,35.78,2022-10-26 11:05:01.500000
2696,35.52,2022-10-26 11:05:01.515625
2697,34.74,2022-10-26 11:05:01.531250
2698,33.35,2022-10-26 11:05:01.546875
2699,31.43,2022-10-26 11:05:01.562500
2700,29.14,2022-10-26 11:05:01.578125
2701,26.58,2022-10-26 11:05:01.593750
2702,23.73,2022-10-26 11:05:01.609375
2703,20.42,2022-10-26 11:05:01.625000
2704,16.49,2022-10-26 11:05:01.640625
2705,11.92,2022-10-26 11:05:01.656250
2706,6.94,2022-10-26 11:05:01.671875
2707,1.92,2022-10-26 11:05:01.687500
2708,-2.72,2022-10-26 11:05:01.703125
2709,-6.75,2022-10-26 11:05:01.718750
2710,-10.21,2022-10-26 11:05:01.734375
2711,-13.37,2022-10-26 11:05:01.750000
2712,-16.6,2022-10-26 11:05:01.765625
2713,-20.16,2022-10-26 11:05:01.781250
2714,-24.17,2022-10-26 11:05:01.796875
2715,-28.68,2022-10-26 11:05:01.812500
2716,-33.76,2022-10-26 11:05:01.828125
2717,-39.53,2022-10-26 11:05:01.843750
2718,-45.97,2022-10-26 11:05:01.859375
2719,-52.67,2022-10-26 11:05:01.875000
2720,-58.71,2022-10-26 11:05:01.890625
2721,-62.73,2022-10-26 11:05:01.906250
2722,-63.3,2022-10-26 11:05:01.921875
2723,-59.48,2022-10-26 11:05:01.937500
2724,-51.25,2022-10-26 11:05:01.953125
2725,-39.61,2022-10-26 11:05:01.968750
2726,-26.2,2022-10-26 11:05:01.984375
2727,-12.78,2022-10-26 11:05:02.000000
2728,-0.69,2022-10-26 11:05:02.015625
2729,9.41,2022-10-26 11:05:02.031250
2730,17.48,2022-10-26 11:05:02.046875
2731,23.8,2022-10-26 11:05:02.062500
2732,28.75,2022-10-26 11:05:02.078125
2733,32.7,2022-10-26 11:05:02.093750
2734,35.92,2022-10-26 11:05:02.109375
2735,38.69,2022-10-26 11:05:02.125000
2736,41.22,2022-10-26 11:05:02.140625
2737,43.59,2022-10-26 11:05:02.156250
2738,45.75,2022-10-26 11:05:02.171875
2739,47.42,2022-10-26 11:05:02.187500
2740,48.28,2022-10-26 11:05:02.203125
2741,48.11,2022-10-26 11:05:02.218750
2742,46.9,2022-10-26 11:05:02.234375
2743,44.94,2022-10-26 11:05:02.250000
2744,42.69,2022-10-26 11:05:02.265625
2745,40.65,2022-10-26 11:05:02.281250
2746,39.14,2022-10-26 11:05:02.296875
2747,38.19,2022-10-26 11:05:02.312500
2748,37.56,2022-10-26 11:05:02.328125
2749,36.76,2022-10-26 11:05:02.343750
2750,35.25,2022-10-26 11:05:02.359375
2751,32.67,2022-10-26 11:05:02.375000
2752,28.95,2022-10-26 11:05:02.390625
2753,24.42,2022-10-26 11:05:02.406250
2754,19.64,2022-10-26 11:05:02.421875
2755,15.18,2022-10-26 11:05:02.437500
2756,11.45,2022-10-26 11:05:02.453125
2757,8.48,2022-10-26 11:05:02.468750
2758,5.99,2022-10-26 11:05:02.484375
2759,3.51,2022-10-26 11:05:02.500000
2760,0.64,2022-10-26 11:05:02.515625
2761,-2.75,2022-10-26 11:05:02.531250
2762,-6.57,2022-10-26 11:05:02.546875
2763,-10.54,2022-10-26 11:05:02.562500
2764,-14.41,2022-10-26 11:05:02.578125
2765,-18.1,2022-10-26 11:05:02.593750
2766,-21.68,2022-10-26 11:05:02.609375
2767,-25.38,2022-10-26 11:05:02.625000
2768,-29.51,2022-10-26 11:05:02.640625
2769,-34.35,2022-10-26 11:05:02.656250
2770,-40.07,2022-10-26 11:05:02.671875
2771,-46.6,2022-10-26 11:05:02.687500
2772,-53.48,2022-10-26 11:05:02.703125
2773,-59.81,2022-10-26 11:05:02.718750
2774,-64.33,2022-10-26 11:05:02.734375
2775,-65.73,2022-10-26 11:05:02.750000
2776,-63.05,2022-10-26 11:05:02.765625
2777,-56.07,2022-10-26 11:05:02.781250
2778,-45.49,2022-10-26 11:05:02.796875
2779,-32.73,2022-10-26 11:05:02.812500
2780,-19.53,2022-10-26 11:05:02.828125
2781,-7.45,2022-10-26 11:05:02.843750
2782,2.54,2022-10-26 11:05:02.859375
2783,10.14,2022-10-26 11:05:02.875000
2784,15.64,2022-10-26 11:05:02.890625
2785,19.61,2022-10-26 11:05:02.906250
2786,22.74,2022-10-26 11:05:02.921875
2787,25.5,2022-10-26 11:05:02.937500
2788,28.17,2022-10-26 11:05:02.953125
2789,30.78,2022-10-26 11:05:02.968750
2790,33.24,2022-10-26 11:05:02.984375
2791,35.31,2022-10-26 11:05:03.000000
2792,36.79,2022-10-26 11:05:03.015625
2793,37.55,2022-10-26 11:05:03.031250
2794,37.56,2022-10-26 11:05:03.046875
2795,36.96,2022-10-26 11:05:03.062500
2796,35.99,2022-10-26 11:05:03.078125
2797,34.89,2022-10-26 11:05:03.093750
2798,33.9,2022-10-26 11:05:03.109375
2799,33.16,2022-10-26 11:05:03.125000
2800,32.66,2022-10-26 11:05:03.140625
2801,32.22,2022-10-26 11:05:03.156250
2802,31.6,2022-10-26 11:05:03.171875
2803,30.46,2022-10-26 11:05:03.187500
2804,28.6,2022-10-26 11:05:03.203125
2805,25.94,2022-10-26 11:05:03.218750
2806,22.67,2022-10-26 11:05:03.234375
2807,19.14,2022-10-26 11:05:03.250000
2808,15.73,2022-10-26 11:05:03.265625
2809,12.68,2022-10-26 11:05:03.281250
2810,9.93,2022-10-26 11:05:03.296875
2811,7.2,2022-10-26 11:05:03.312500
2812,4.13,2022-10-26 11:05:03.328125
2813,0.43,2022-10-26 11:05:03.343750
2814,-3.86,2022-10-26 11:05:03.359375
2815,-8.46,2022-10-26 11:05:03.375000
2816,-12.96,2022-10-26 11:05:03.390625
2817,-17.01,2022-10-26 11:05:03.406250
2818,-20.48,2022-10-26 11:05:03.421875
2819,-23.53,2022-10-26 11:05:03.437500
2820,-26.53,2022-10-26 11:05:03.453125
2821,-29.95,2022-10-26 11:05:03.468750
2822,-34.17,2022-10-26 11:05:03.484375
2823,-39.35,2022-10-26 11:05:03.500000
2824,-45.23,2022-10-26 11:05:03.515625
2825,-51.04,2022-10-26 11:05:03.531250
2826,-55.64,2022-10-26 11:05:03.546875
2827,-57.71,2022-10-26 11:05:03.562500
2828,-56.23,2022-10-26 11:05:03.578125
2829,-50.87,2022-10-26 11:05:03.593750
2830,-42.16,2022-10-26 11:05:03.609375
2831,-31.38,2022-10-26 11:05:03.625000
2832,-20.09,2022-10-26 11:05:03.640625
2833,-9.68,2022-10-26 11:05:03.656250
2834,-0.97,2022-10-26 11:05:03.671875
2835,5.8,2022-10-26 11:05:03.687500
2836,10.86,2022-10-26 11:05:03.703125
2837,14.56,2022-10-26 11:05:03.718750
2838,17.21,2022-10-26 11:05:03.734375
2839,19.04,2022-10-26 11:05:03.750000
2840,20.22,2022-10-26 11:05:03.765625
2841,21.02,2022-10-26 11:05:03.781250
2842,21.71,2022-10-26 11:05:03.796875
2843,22.54,2022-10-26 11:05:03.812500
2844,23.58,2022-10-26 11:05:03.828125
2845,24.73,2022-10-26 11:05:03.843750
2846,25.72,2022-10-26 11:05:03.859375
2847,26.25,2022-10-26 11:05:03.875000
2848,26.11,2022-10-26 11:05:03.890625
2849,25.25,2022-10-26 11:05:03.906250
2850,23.81,2022-10-26 11:05:03.921875
2851,22.07,2022-10-26 11:05:03.937500
2852,20.31,2022-10-26 11:05:03.953125
2853,18.74,2022-10-26 11:05:03.968750
2854,17.38,2022-10-26 11:05:03.984375
2855,16.05,2022-10-26 11:05:04.000000
2856,14.45,2022-10-26 11:05:04.015625
2857,12.29,2022-10-26 11:05:04.031250
2858,9.44,2022-10-26 11:05:04.046875
2859,5.98,2022-10-26 11:05:04.062500
2860,2.18,2022-10-26 11:05:04.078125
2861,-1.58,2022-10-26 11:05:04.093750
2862,-5.01,2022-10-26 11:05:04.109375
2863,-8.01,2022-10-26 11:05:04.125000
2864,-10.71,2022-10-26 11:05:04.140625
2865,-13.44,2022-10-26 11:05:04.156250
2866,-16.58,2022-10-26 11:05:04.171875
2867,-20.55,2022-10-26 11:05:04.187500
2868,-25.59,2022-10-26 11:05:04.203125
2869,-31.73,2022-10-26 11:05:04.218750
2870,-38.63,2022-10-26 11:05:04.234375
2871,-45.54,2022-10-26 11:05:04.250000
2872,-51.34,2022-10-26 11:05:04.265625
2873,-54.75,2022-10-26 11:05:04.281250
2874,-54.7,2022-10-26 11:05:04.296875
2875,-50.73,2022-10-26 11:05:04.312500
2876,-43.09,2022-10-26 11:05:04.328125
2877,-32.8,2022-10-26 11:05:04.343750
2878,-21.3,2022-10-26 11:05:04.359375
2879,-10.07,2022-10-26 11:05:04.375000
2880,-0.25,2022-10-26 11:05:04.390625
2881,7.52,2022-10-26 11:05:04.406250
2882,13.21,2022-10-26 11:05:04.421875
2883,17.14,2022-10-26 11:05:04.437500
2884,19.86,2022-10-26 11:05:04.453125
2885,21.88,2022-10-26 11:05:04.468750
2886,23.58,2022-10-26 11:05:04.484375
2887,25.18,2022-10-26 11:05:04.500000
2888,26.72,2022-10-26 11:05:04.515625
2889,28.13,2022-10-26 11:05:04.531250
2890,29.27,2022-10-26 11:05:04.546875
2891,29.98,2022-10-26 11:05:04.562500
2892,30.14,2022-10-26 11:05:04.578125
2893,29.69,2022-10-26 11:05:04.593750
2894,28.77,2022-10-26 11:05:04.609375
2895,27.6,2022-10-26 11:05:04.625000
2896,26.5,2022-10-26 11:05:04.640625
2897,25.74,2022-10-26 11:05:04.656250
2898,25.41,2022-10-26 11:05:04.671875
2899,25.36,2022-10-26 11:05:04.687500
2900,25.26,2022-10-26 11:05:04.703125
2901,24.75,2022-10-26 11:05:04.718750
2902,23.58,2022-10-26 11:05:04.734375
2903,21.68,2022-10-26 11:05:04.750000
2904,19.15,2022-10-26 11:05:04.765625
2905,16.12,2022-10-26 11:05:04.781250
2906,12.75,2022-10-26 11:05:04.796875
2907,9.09,2022-10-26 11:05:04.812500
2908,5.22,2022-10-26 11:05:04.828125
2909,1.26,2022-10-26 11:05:04.843750
2910,-2.66,2022-10-26 11:05:04.859375
2911,-6.43,2022-10-26 11:05:04.875000
2912,-10.04,2022-10-26 11:05:04.890625
2913,-13.56,2022-10-26 11:05:04.906250
2914,-17.07,2022-10-26 11:05:04.921875
2915,-20.65,2022-10-26 11:05:04.937500
2916,-24.35,2022-10-26 11:05:04.953125
2917,-28.26,2022-10-26 11:05:04.968750
2918,-32.55,2022-10-26 11:05:04.984375
2919,-37.46,2022-10-26 11:05:05.000000
2920,-43.14,2022-10-26 11:05:05.015625
2921,-49.45,2022-10-26 11:05:05.031250
2922,-55.74,2022-10-26 11:05:05.046875
2923,-60.89,2022-10-26 11:05:05.062500
2924,-63.55,2022-10-26 11:05:05.078125
2925,-62.52,2022-10-26 11:05:05.093750
2926,-57.28,2022-10-26 11:05:05.109375
2927,-48.15,2022-10-26 11:05:05.125000
2928,-36.3,2022-10-26 11:05:05.140625
2929,-23.3,2022-10-26 11:05:05.156250
2930,-10.72,2022-10-26 11:05:05.171875
2931,0.28,2022-10-26 11:05:05.187500
2932,9.15,2022-10-26 11:05:05.203125
2933,15.87,2022-10-26 11:05:05.218750
2934,20.77,2022-10-26 11:05:05.234375
2935,24.31,2022-10-26 11:05:05.250000
2936,26.92,2022-10-26 11:05:05.265625
2937,28.93,2022-10-26 11:05:05.281250
2938,30.59,2022-10-26 11:05:05.296875
2939,32.07,2022-10-26 11:05:05.312500
2940,33.43,2022-10-26 11:05:05.328125
2941,34.62,2022-10-26 11:05:05.343750
2942,35.54,2022-10-26 11:05:05.359375
2943,36.04,2022-10-26 11:05:05.375000
2944,35.99,2022-10-26 11:05:05.390625
2945,35.38,2022-10-26 11:05:05.406250
2946,34.33,2022-10-26 11:05:05.421875
2947,33.08,2022-10-26 11:05:05.437500
2948,31.95,2022-10-26 11:05:05.453125
2949,31.11,2022-10-26 11:05:05.468750
2950,30.56,2022-10-26 11:05:05.484375
2951,30.05,2022-10-26 11:05:05.500000
2952,29.14,2022-10-26 11:05:05.515625
2953,27.42,2022-10-26 11:05:05.531250
2954,24.63,2022-10-26 11:05:05.546875
2955,20.82,2022-10-26 11:05:05.562500
2956,16.32,2022-10-26 11:05:05.578125
2957,11.62,2022-10-26 11:05:05.593750
2958,7.18,2022-10-26 11:05:05.609375
2959,3.28,2022-10-26 11:05:05.625000
2960,-0.03,2022-10-26 11:05:05.640625
2961,-2.98,2022-10-26 11:05:05.656250
2962,-5.86,2022-10-26 11:05:05.671875
2963,-8.95,2022-10-26 11:05:05.687500
2964,-12.39,2022-10-26 11:05:05.703125
2965,-16.11,2022-10-26 11:05:05.718750
2966,-19.89,2022-10-26 11:05:05.734375
2967,-23.52,2022-10-26 11:05:05.750000
2968,-26.85,2022-10-26 11:05:05.765625
2969,-29.97,2022-10-26 11:05:05.781250
2970,-33.18,2022-10-26 11:05:05.796875
2971,-36.93,2022-10-26 11:05:05.812500
2972,-41.64,2022-10-26 11:05:05.828125
2973,-47.47,2022-10-26 11:05:05.843750
2974,-54.12,2022-10-26 11:05:05.859375
2975,-60.74,2022-10-26 11:05:05.875000
2976,-66.05,2022-10-26 11:05:05.890625
2977,-68.64,2022-10-26 11:05:05.906250
2978,-67.36,2022-10-26 11:05:05.921875
2979,-61.78,2022-10-26 11:05:05.937500
2980,-52.29,2022-10-26 11:05:05.953125
2981,-40.13,2022-10-26 11:05:05.968750
2982,-26.95,2022-10-26 11:05:05.984375
2983,-14.4,2022-10-26 11:05:06.000000
2984,-3.67,2022-10-26 11:05:06.015625
2985,4.71,2022-10-26 11:05:06.031250
2986,10.83,2022-10-26 11:05:06.046875
2987,15.15,2022-10-26 11:05:06.062500
2988,18.31,2022-10-26 11:05:06.078125
2989,20.84,2022-10-26 11:05:06.093750
2990,23.1,2022-10-26 11:05:06.109375
2991,25.26,2022-10-26 11:05:06.125000
2992,27.31,2022-10-26 11:05:06.140625
2993,29.14,2022-10-26 11:05:06.156250
2994,30.55,2022-10-26 11:05:06.171875
2995,31.36,2022-10-26 11:05:06.187500
2996,31.46,2022-10-26 11:05:06.203125
2997,30.87,2022-10-26 11:05:06.218750
2998,29.7,2022-10-26 11:05:06.234375
2999,28.19,2022-10-26 11:05:06.250000
3000,26.58,2022-10-26 11:05:06.265625
3001,25.03,2022-10-26 11:05:06.281250
3002,23.58,2022-10-26 11:05:06.296875
3003,22.15,2022-10-26 11:05:06.312500
3004,20.56,2022-10-26 11:05:06.328125
3005,18.65,2022-10-26 11:05:06.343750
3006,16.34,2022-10-26 11:05:06.359375
3007,13.66,2022-10-26 11:05:06.375000
3008,10.76,2022-10-26 11:05:06.390625
3009,7.8,2022-10-26 11:05:06.406250
3010,4.9,2022-10-26 11:05:06.421875
3011,2.12,2022-10-26 11:05:06.437500
3012,-0.57,2022-10-26 11:05:06.453125
3013,-3.24,2022-10-26 11:05:06.468750
3014,-6.01,2022-10-26 11:05:06.484375
3015,-8.95,2022-10-26 11:05:06.500000
3016,-12.16,2022-10-26 11:05:06.515625
3017,-15.63,2022-10-26 11:05:06.531250
3018,-19.31,2022-10-26 11:05:06.546875
3019,-23.03,2022-10-26 11:05:06.562500
3020,-26.68,2022-10-26 11:05:06.578125
3021,-30.25,2022-10-26 11:05:06.593750
3022,-33.89,2022-10-26 11:05:06.609375
3023,-37.9,2022-10-26 11:05:06.625000
3024,-42.49,2022-10-26 11:05:06.640625
3025,-47.51,2022-10-26 11:05:06.656250
3026,-52.34,2022-10-26 11:05:06.671875
3027,-55.94,2022-10-26 11:05:06.687500
3028,-57.17,2022-10-26 11:05:06.703125
3029,-55.19,2022-10-26 11:05:06.718750
3030,-49.82,2022-10-26 11:05:06.734375
3031,-41.57,2022-10-26 11:05:06.750000
3032,-31.51,2022-10-26 11:05:06.765625
3033,-20.9,2022-10-26 11:05:06.781250
3034,-10.89,2022-10-26 11:05:06.796875
3035,-2.27,2022-10-26 11:05:06.812500
3036,4.58,2022-10-26 11:05:06.828125
3037,9.6,2022-10-26 11:05:06.843750
3038,13.01,2022-10-26 11:05:06.859375
3039,15.1,2022-10-26 11:05:06.875000
3040,16.23,2022-10-26 11:05:06.890625
3041,16.7,2022-10-26 11:05:06.906250
3042,16.78,2022-10-26 11:05:06.921875
3043,16.72,2022-10-26 11:05:06.937500
3044,16.75,2022-10-26 11:05:06.953125
3045,17.05,2022-10-26 11:05:06.968750
3046,17.68,2022-10-26 11:05:06.984375
3047,18.58,2022-10-26 11:05:07.000000
3048,19.49,2022-10-26 11:05:07.015625
3049,20.1,2022-10-26 11:05:07.031250
3050,20.13,2022-10-26 11:05:07.046875
3051,19.54,2022-10-26 11:05:07.062500
3052,18.54,2022-10-26 11:05:07.078125
3053,17.41,2022-10-26 11:05:07.093750
3054,16.41,2022-10-26 11:05:07.109375
3055,15.5,2022-10-26 11:05:07.125000
3056,14.41,2022-10-26 11:05:07.140625
3057,12.67,2022-10-26 11:05:07.156250
3058,9.95,2022-10-26 11:05:07.171875
3059,6.18,2022-10-26 11:05:07.187500
3060,1.65,2022-10-26 11:05:07.203125
3061,-3.1,2022-10-26 11:05:07.218750
3062,-7.58,2022-10-26 11:05:07.234375
3063,-11.5,2022-10-26 11:05:07.250000
3064,-14.9,2022-10-26 11:05:07.265625
3065,-18.08,2022-10-26 11:05:07.281250
3066,-21.5,2022-10-26 11:05:07.296875
3067,-25.55,2022-10-26 11:05:07.312500
3068,-30.46,2022-10-26 11:05:07.328125
3069,-36.17,2022-10-26 11:05:07.343750
3070,-42.32,2022-10-26 11:05:07.359375
3071,-48.22,2022-10-26 11:05:07.375000
3072,-52.92,2022-10-26 11:05:07.390625
3073,-55.35,2022-10-26 11:05:07.406250
3074,-54.6,2022-10-26 11:05:07.421875
3075,-50.25,2022-10-26 11:05:07.437500
3076,-42.54,2022-10-26 11:05:07.453125
3077,-32.44,2022-10-26 11:05:07.468750
3078,-21.36,2022-10-26 11:05:07.484375
3079,-10.71,2022-10-26 11:05:07.500000
3080,-1.56,2022-10-26 11:05:07.515625
3081,5.68,2022-10-26 11:05:07.531250
3082,11.12,2022-10-26 11:05:07.546875
3083,15.26,2022-10-26 11:05:07.562500
3084,18.58,2022-10-26 11:05:07.578125
3085,21.33,2022-10-26 11:05:07.593750
3086,23.48,2022-10-26 11:05:07.609375
3087,24.85,2022-10-26 11:05:07.625000
3088,25.27,2022-10-26 11:05:07.640625
3089,24.8,2022-10-26 11:05:07.656250
3090,23.69,2022-10-26 11:05:07.671875
3091,22.31,2022-10-26 11:05:07.687500
3092,21.04,2022-10-26 11:05:07.703125
3093,20.04,2022-10-26 11:05:07.718750
3094,19.31,2022-10-26 11:05:07.734375
3095,18.69,2022-10-26 11:05:07.750000
3096,18.02,2022-10-26 11:05:07.765625
3097,17.21,2022-10-26 11:05:07.781250
3098,16.36,2022-10-26 11:05:07.796875
3099,15.62,2022-10-26 11:05:07.812500
3100,15.09,2022-10-26 11:05:07.828125
3101,14.72,2022-10-26 11:05:07.843750
3102,14.23,2022-10-26 11:05:07.859375
3103,13.19,2022-10-26 11:05:07.875000
3104,11.17,2022-10-26 11:05:07.890625
3105,8.0,2022-10-26 11:05:07.906250
3106,3.81,2022-10-26 11:05:07.921875
3107,-1.02,2022-10-26 11:05:07.937500
3108,-6.01,2022-10-26 11:05:07.953125
3109,-10.74,2022-10-26 11:05:07.968750
3110,-15.08,2022-10-26 11:05:07.984375
3111,-19.1,2022-10-26 11:05:08.000000
3112,-23.01,2022-10-26 11:05:08.015625
3113,-27.04,2022-10-26 11:05:08.031250
3114,-31.45,2022-10-26 11:05:08.046875
3115,-36.4,2022-10-26 11:05:08.062500
3116,-42.04,2022-10-26 11:05:08.078125
3117,-48.23,2022-10-26 11:05:08.093750
3118,-54.5,2022-10-26 11:05:08.109375
3119,-59.88,2022-10-26 11:05:08.125000
3120,-63.15,2022-10-26 11:05:08.140625
3121,-63.08,2022-10-26 11:05:08.156250
3122,-58.93,2022-10-26 11:05:08.171875
3123,-50.81,2022-10-26 11:05:08.187500
3124,-39.67,2022-10-26 11:05:08.203125
3125,-27.07,2022-10-26 11:05:08.218750
3126,-14.68,2022-10-26 11:05:08.234375
3127,-3.85,2022-10-26 11:05:08.250000
3128,4.7,2022-10-26 11:05:08.265625
3129,10.93,2022-10-26 11:05:08.281250
3130,15.33,2022-10-26 11:05:08.296875
3131,18.58,2022-10-26 11:05:08.312500
3132,21.3,2022-10-26 11:05:08.328125
3133,23.87,2022-10-26 11:05:08.343750
3134,26.39,2022-10-26 11:05:08.359375
3135,28.75,2022-10-26 11:05:08.375000
3136,30.77,2022-10-26 11:05:08.390625
3137,32.29,2022-10-26 11:05:08.406250
3138,33.25,2022-10-26 11:05:08.421875
3139,33.66,2022-10-26 11:05:08.437500
3140,33.56,2022-10-26 11:05:08.453125
3141,32.99,2022-10-26 11:05:08.468750
3142,31.95,2022-10-26 11:05:08.484375
3143,30.45,2022-10-26 11:05:08.500000
3144,28.54,2022-10-26 11:05:08.515625
3145,26.35,2022-10-26 11:05:08.531250
3146,24.01,2022-10-26 11:05:08.546875
3147,21.69,2022-10-26 11:05:08.562500
3148,19.45,2022-10-26 11:05:08.578125
3149,17.27,2022-10-26 11:05:08.593750
3150,15.05,2022-10-26 11:05:08.609375
3151,12.6,2022-10-26 11:05:08.625000
3152,9.73,2022-10-26 11:05:08.640625
3153,6.33,2022-10-26 11:05:08.656250
3154,2.4,2022-10-26 11:05:08.671875
3155,-1.94,2022-10-26 11:05:08.687500
3156,-6.48,2022-10-26 11:05:08.703125
3157,-10.98,2022-10-26 11:05:08.718750
3158,-15.29,2022-10-26 11:05:08.734375
3159,-19.32,2022-10-26 11:05:08.750000
3160,-23.13,2022-10-26 11:05:08.765625
3161,-26.85,2022-10-26 11:05:08.781250
3162,-30.66,2022-10-26 11:05:08.796875
3163,-34.83,2022-10-26 11:05:08.812500
3164,-39.63,2022-10-26 11:05:08.828125
3165,-45.32,2022-10-26 11:05:08.843750
3166,-51.95,2022-10-26 11:05:08.859375
3167,-59.24,2022-10-26 11:05:08.875000
3168,-66.42,2022-10-26 11:05:08.890625
3169,-72.25,2022-10-26 11:05:08.906250
3170,-75.28,2022-10-26 11:05:08.921875
3171,-74.29,2022-10-26 11:05:08.937500
3172,-68.7,2022-10-26 11:05:08.953125
3173,-58.88,2022-10-26 11:05:08.968750
