,BVP,time
0,-0.07,2021-12-17 16:32:12.031250
1,-2.11,2021-12-17 16:32:12.046875
2,-4.24,2021-12-17 16:32:12.062500
3,-6.28,2021-12-17 16:32:12.078125
4,-8.1,2021-12-17 16:32:12.093750
5,-9.66,2021-12-17 16:32:12.109375
6,-11.07,2021-12-17 16:32:12.125000
7,-12.62,2021-12-17 16:32:12.140625
8,-14.64,2021-12-17 16:32:12.156250
9,-17.39,2021-12-17 16:32:12.171875
10,-20.95,2021-12-17 16:32:12.187500
11,-25.07,2021-12-17 16:32:12.203125
12,-29.16,2021-12-17 16:32:12.218750
13,-32.35,2021-12-17 16:32:12.234375
14,-33.78,2021-12-17 16:32:12.250000
15,-32.82,2021-12-17 16:32:12.265625
16,-29.35,2021-12-17 16:32:12.281250
17,-23.78,2021-12-17 16:32:12.296875
18,-16.94,2021-12-17 16:32:12.312500
19,-9.77,2021-12-17 16:32:12.328125
20,-3.09,2021-12-17 16:32:12.343750
21,2.61,2021-12-17 16:32:12.359375
22,7.21,2021-12-17 16:32:12.375000
23,10.81,2021-12-17 16:32:12.390625
24,13.62,2021-12-17 16:32:12.406250
25,15.85,2021-12-17 16:32:12.421875
26,17.63,2021-12-17 16:32:12.437500
27,19.04,2021-12-17 16:32:12.453125
28,20.14,2021-12-17 16:32:12.468750
29,20.97,2021-12-17 16:32:12.484375
30,21.59,2021-12-17 16:32:12.500000
31,22.07,2021-12-17 16:32:12.515625
32,22.45,2021-12-17 16:32:12.531250
33,22.78,2021-12-17 16:32:12.546875
34,23.07,2021-12-17 16:32:12.562500
35,23.38,2021-12-17 16:32:12.578125
36,23.73,2021-12-17 16:32:12.593750
37,24.18,2021-12-17 16:32:12.609375
38,24.76,2021-12-17 16:32:12.625000
39,25.46,2021-12-17 16:32:12.640625
40,26.2,2021-12-17 16:32:12.656250
41,26.88,2021-12-17 16:32:12.671875
42,27.34,2021-12-17 16:32:12.687500
43,27.43,2021-12-17 16:32:12.703125
44,27.02,2021-12-17 16:32:12.718750
45,26.1,2021-12-17 16:32:12.734375
46,24.75,2021-12-17 16:32:12.750000
47,23.17,2021-12-17 16:32:12.765625
48,21.6,2021-12-17 16:32:12.781250
49,20.26,2021-12-17 16:32:12.796875
50,19.19,2021-12-17 16:32:12.812500
51,18.3,2021-12-17 16:32:12.828125
52,17.38,2021-12-17 16:32:12.843750
53,16.19,2021-12-17 16:32:12.859375
54,14.61,2021-12-17 16:32:12.875000
55,12.66,2021-12-17 16:32:12.890625
56,10.53,2021-12-17 16:32:12.906250
57,8.45,2021-12-17 16:32:12.921875
58,6.61,2021-12-17 16:32:12.937500
59,5.09,2021-12-17 16:32:12.953125
60,3.84,2021-12-17 16:32:12.968750
61,2.75,2021-12-17 16:32:12.984375
62,1.67,2021-12-17 16:32:13.000000
63,0.46,2021-12-17 16:32:13.015625
64,-0.98,2021-12-17 16:32:13.031250
65,-2.68,2021-12-17 16:32:13.046875
66,-4.62,2021-12-17 16:32:13.062500
67,-6.68,2021-12-17 16:32:13.078125
68,-8.68,2021-12-17 16:32:13.093750
69,-10.42,2021-12-17 16:32:13.109375
70,-11.79,2021-12-17 16:32:13.125000
71,-12.84,2021-12-17 16:32:13.140625
72,-13.79,2021-12-17 16:32:13.156250
73,-14.97,2021-12-17 16:32:13.171875
74,-16.69,2021-12-17 16:32:13.187500
75,-19.02,2021-12-17 16:32:13.203125
76,-21.7,2021-12-17 16:32:13.218750
77,-24.2,2021-12-17 16:32:13.234375
78,-25.78,2021-12-17 16:32:13.250000
79,-25.74,2021-12-17 16:32:13.265625
80,-23.65,2021-12-17 16:32:13.281250
81,-19.51,2021-12-17 16:32:13.296875
82,-13.75,2021-12-17 16:32:13.312500
83,-7.14,2021-12-17 16:32:13.328125
84,-0.54,2021-12-17 16:32:13.343750
85,5.33,2021-12-17 16:32:13.359375
86,10.1,2021-12-17 16:32:13.375000
87,13.83,2021-12-17 16:32:13.390625
88,16.84,2021-12-17 16:32:13.406250
89,19.56,2021-12-17 16:32:13.421875
90,22.29,2021-12-17 16:32:13.437500
91,25.13,2021-12-17 16:32:13.453125
92,28.0,2021-12-17 16:32:13.468750
93,30.76,2021-12-17 16:32:13.484375
94,33.32,2021-12-17 16:32:13.500000
95,35.72,2021-12-17 16:32:13.515625
96,38.1,2021-12-17 16:32:13.531250
97,40.61,2021-12-17 16:32:13.546875
98,43.38,2021-12-17 16:32:13.562500
99,46.49,2021-12-17 16:32:13.578125
100,49.98,2021-12-17 16:32:13.593750
101,53.94,2021-12-17 16:32:13.609375
102,58.39,2021-12-17 16:32:13.625000
103,63.32,2021-12-17 16:32:13.640625
104,68.62,2021-12-17 16:32:13.656250
105,74.07,2021-12-17 16:32:13.671875
106,79.41,2021-12-17 16:32:13.687500
107,84.43,2021-12-17 16:32:13.703125
108,89.06,2021-12-17 16:32:13.718750
109,93.33,2021-12-17 16:32:13.734375
110,97.37,2021-12-17 16:32:13.750000
111,101.38,2021-12-17 16:32:13.765625
112,105.64,2021-12-17 16:32:13.781250
113,110.49,2021-12-17 16:32:13.796875
114,116.32,2021-12-17 16:32:13.812500
115,123.43,2021-12-17 16:32:13.828125
116,131.94,2021-12-17 16:32:13.843750
117,141.66,2021-12-17 16:32:13.859375
118,152.05,2021-12-17 16:32:13.875000
119,162.26,2021-12-17 16:32:13.890625
120,171.3,2021-12-17 16:32:13.906250
121,178.16,2021-12-17 16:32:13.921875
122,182.08,2021-12-17 16:32:13.937500
123,182.73,2021-12-17 16:32:13.953125
124,180.36,2021-12-17 16:32:13.968750
125,175.88,2021-12-17 16:32:13.984375
126,170.61,2021-12-17 16:32:14.000000
127,165.9,2021-12-17 16:32:14.015625
128,162.43,2021-12-17 16:32:14.031250
129,159.76,2021-12-17 16:32:14.046875
130,156.21,2021-12-17 16:32:14.062500
131,149.25,2021-12-17 16:32:14.078125
132,136.39,2021-12-17 16:32:14.093750
133,116.05,2021-12-17 16:32:14.109375
134,88.19,2021-12-17 16:32:14.125000
135,54.33,2021-12-17 16:32:14.140625
136,16.98,2021-12-17 16:32:14.156250
137,-21.08,2021-12-17 16:32:14.171875
138,-57.52,2021-12-17 16:32:14.187500
139,-90.63,2021-12-17 16:32:14.203125
140,-119.17,2021-12-17 16:32:14.218750
141,-142.12,2021-12-17 16:32:14.234375
142,-158.65,2021-12-17 16:32:14.250000
143,-168.49,2021-12-17 16:32:14.265625
144,-172.42,2021-12-17 16:32:14.281250
145,-172.48,2021-12-17 16:32:14.296875
146,-171.52,2021-12-17 16:32:14.312500
147,-172.24,2021-12-17 16:32:14.328125
148,-176.07,2021-12-17 16:32:14.343750
149,-182.72,2021-12-17 16:32:14.359375
150,-190.41,2021-12-17 16:32:14.375000
151,-196.92,2021-12-17 16:32:14.390625
152,-200.71,2021-12-17 16:32:14.406250
153,-201.49,2021-12-17 16:32:14.421875
154,-200.06,2021-12-17 16:32:14.437500
155,-197.59,2021-12-17 16:32:14.453125
156,-194.93,2021-12-17 16:32:14.468750
157,-192.19,2021-12-17 16:32:14.484375
158,-189.0,2021-12-17 16:32:14.500000
159,-184.98,2021-12-17 16:32:14.515625
160,-180.04,2021-12-17 16:32:14.531250
161,-174.44,2021-12-17 16:32:14.546875
162,-168.43,2021-12-17 16:32:14.562500
163,-162.04,2021-12-17 16:32:14.578125
164,-154.96,2021-12-17 16:32:14.593750
165,-146.74,2021-12-17 16:32:14.609375
166,-137.16,2021-12-17 16:32:14.625000
167,-126.44,2021-12-17 16:32:14.640625
168,-115.27,2021-12-17 16:32:14.656250
169,-104.47,2021-12-17 16:32:14.671875
170,-94.52,2021-12-17 16:32:14.687500
171,-85.05,2021-12-17 16:32:14.703125
172,-74.81,2021-12-17 16:32:14.718750
173,-62.0,2021-12-17 16:32:14.734375
174,-45.02,2021-12-17 16:32:14.750000
175,-23.29,2021-12-17 16:32:14.765625
176,2.24,2021-12-17 16:32:14.781250
177,29.27,2021-12-17 16:32:14.796875
178,54.8,2021-12-17 16:32:14.812500
179,76.11,2021-12-17 16:32:14.828125
180,91.61,2021-12-17 16:32:14.843750
181,101.03,2021-12-17 16:32:14.859375
182,105.36,2021-12-17 16:32:14.875000
183,106.2,2021-12-17 16:32:14.890625
184,105.23,2021-12-17 16:32:14.906250
185,103.78,2021-12-17 16:32:14.921875
186,102.6,2021-12-17 16:32:14.937500
187,101.89,2021-12-17 16:32:14.953125
188,101.33,2021-12-17 16:32:14.968750
189,100.38,2021-12-17 16:32:14.984375
190,98.47,2021-12-17 16:32:15.000000
191,95.18,2021-12-17 16:32:15.015625
192,90.36,2021-12-17 16:32:15.031250
193,84.07,2021-12-17 16:32:15.046875
194,76.55,2021-12-17 16:32:15.062500
195,68.2,2021-12-17 16:32:15.078125
196,59.68,2021-12-17 16:32:15.093750
197,51.84,2021-12-17 16:32:15.109375
198,45.63,2021-12-17 16:32:15.125000
199,41.76,2021-12-17 16:32:15.140625
200,40.36,2021-12-17 16:32:15.156250
201,40.83,2021-12-17 16:32:15.171875
202,41.92,2021-12-17 16:32:15.187500
203,42.22,2021-12-17 16:32:15.203125
204,40.71,2021-12-17 16:32:15.218750
205,37.12,2021-12-17 16:32:15.234375
206,31.98,2021-12-17 16:32:15.250000
207,26.44,2021-12-17 16:32:15.265625
208,21.75,2021-12-17 16:32:15.281250
209,18.81,2021-12-17 16:32:15.296875
210,17.9,2021-12-17 16:32:15.312500
211,18.57,2021-12-17 16:32:15.328125
212,20.0,2021-12-17 16:32:15.343750
213,21.36,2021-12-17 16:32:15.359375
214,22.24,2021-12-17 16:32:15.375000
215,22.66,2021-12-17 16:32:15.390625
216,23.08,2021-12-17 16:32:15.406250
217,23.99,2021-12-17 16:32:15.421875
218,25.76,2021-12-17 16:32:15.437500
219,28.53,2021-12-17 16:32:15.453125
220,32.27,2021-12-17 16:32:15.468750
221,36.79,2021-12-17 16:32:15.484375
222,41.79,2021-12-17 16:32:15.500000
223,46.74,2021-12-17 16:32:15.515625
224,50.95,2021-12-17 16:32:15.531250
225,53.75,2021-12-17 16:32:15.546875
226,54.78,2021-12-17 16:32:15.562500
227,54.23,2021-12-17 16:32:15.578125
228,52.77,2021-12-17 16:32:15.593750
229,51.33,2021-12-17 16:32:15.609375
230,50.67,2021-12-17 16:32:15.625000
231,51.15,2021-12-17 16:32:15.640625
232,52.55,2021-12-17 16:32:15.656250
233,54.12,2021-12-17 16:32:15.671875
234,54.66,2021-12-17 16:32:15.687500
235,52.8,2021-12-17 16:32:15.703125
236,47.25,2021-12-17 16:32:15.718750
237,37.13,2021-12-17 16:32:15.734375
238,22.2,2021-12-17 16:32:15.750000
239,3.05,2021-12-17 16:32:15.765625
240,-18.99,2021-12-17 16:32:15.781250
241,-42.17,2021-12-17 16:32:15.796875
242,-64.79,2021-12-17 16:32:15.812500
243,-85.61,2021-12-17 16:32:15.828125
244,-104.01,2021-12-17 16:32:15.843750
245,-119.89,2021-12-17 16:32:15.859375
246,-133.42,2021-12-17 16:32:15.875000
247,-144.64,2021-12-17 16:32:15.890625
248,-153.42,2021-12-17 16:32:15.906250
249,-159.59,2021-12-17 16:32:15.921875
250,-163.25,2021-12-17 16:32:15.937500
251,-164.93,2021-12-17 16:32:15.953125
252,-165.51,2021-12-17 16:32:15.968750
253,-165.79,2021-12-17 16:32:15.984375
254,-166.01,2021-12-17 16:32:16.000000
255,-165.5,2021-12-17 16:32:16.015625
256,-162.98,2021-12-17 16:32:16.031250
257,-157.12,2021-12-17 16:32:16.046875
258,-147.32,2021-12-17 16:32:16.062500
259,-134.14,2021-12-17 16:32:16.078125
260,-119.01,2021-12-17 16:32:16.093750
261,-103.53,2021-12-17 16:32:16.109375
262,-88.83,2021-12-17 16:32:16.125000
263,-74.99,2021-12-17 16:32:16.140625
264,-60.99,2021-12-17 16:32:16.156250
265,-45.47,2021-12-17 16:32:16.171875
266,-27.64,2021-12-17 16:32:16.187500
267,-8.06,2021-12-17 16:32:16.203125
268,11.23,2021-12-17 16:32:16.218750
269,27.24,2021-12-17 16:32:16.234375
270,36.98,2021-12-17 16:32:16.250000
271,38.42,2021-12-17 16:32:16.265625
272,30.98,2021-12-17 16:32:16.281250
273,15.64,2021-12-17 16:32:16.296875
274,-5.09,2021-12-17 16:32:16.312500
275,-27.41,2021-12-17 16:32:16.328125
276,-46.8,2021-12-17 16:32:16.343750
277,-58.92,2021-12-17 16:32:16.359375
278,-60.82,2021-12-17 16:32:16.375000
279,-51.91,2021-12-17 16:32:16.390625
280,-34.36,2021-12-17 16:32:16.406250
281,-12.48,2021-12-17 16:32:16.421875
282,8.8,2021-12-17 16:32:16.437500
283,25.56,2021-12-17 16:32:16.453125
284,36.07,2021-12-17 16:32:16.468750
285,41.04,2021-12-17 16:32:16.484375
286,42.72,2021-12-17 16:32:16.500000
287,43.7,2021-12-17 16:32:16.515625
288,45.71,2021-12-17 16:32:16.531250
289,49.11,2021-12-17 16:32:16.546875
290,53.03,2021-12-17 16:32:16.562500
291,56.02,2021-12-17 16:32:16.578125
292,56.84,2021-12-17 16:32:16.593750
293,55.18,2021-12-17 16:32:16.609375
294,51.79,2021-12-17 16:32:16.625000
295,47.92,2021-12-17 16:32:16.640625
296,44.59,2021-12-17 16:32:16.656250
297,41.94,2021-12-17 16:32:16.671875
298,39.34,2021-12-17 16:32:16.687500
299,36.13,2021-12-17 16:32:16.703125
300,32.33,2021-12-17 16:32:16.718750
301,28.69,2021-12-17 16:32:16.734375
302,26.09,2021-12-17 16:32:16.750000
303,24.56,2021-12-17 16:32:16.765625
304,22.91,2021-12-17 16:32:16.781250
305,19.22,2021-12-17 16:32:16.796875
306,12.12,2021-12-17 16:32:16.812500
307,1.77,2021-12-17 16:32:16.828125
308,-9.99,2021-12-17 16:32:16.843750
309,-20.75,2021-12-17 16:32:16.859375
310,-28.82,2021-12-17 16:32:16.875000
311,-33.95,2021-12-17 16:32:16.890625
312,-36.9,2021-12-17 16:32:16.906250
313,-38.43,2021-12-17 16:32:16.921875
314,-38.52,2021-12-17 16:32:16.937500
315,-36.7,2021-12-17 16:32:16.953125
316,-33.12,2021-12-17 16:32:16.968750
317,-29.35,2021-12-17 16:32:16.984375
318,-28.06,2021-12-17 16:32:17.000000
319,-31.53,2021-12-17 16:32:17.015625
320,-40.09,2021-12-17 16:32:17.031250
321,-51.45,2021-12-17 16:32:17.046875
322,-61.86,2021-12-17 16:32:17.062500
323,-68.19,2021-12-17 16:32:17.078125
324,-69.76,2021-12-17 16:32:17.093750
325,-68.55,2021-12-17 16:32:17.109375
326,-67.79,2021-12-17 16:32:17.125000
327,-69.6,2021-12-17 16:32:17.140625
328,-73.56,2021-12-17 16:32:17.156250
329,-76.91,2021-12-17 16:32:17.171875
330,-76.59,2021-12-17 16:32:17.187500
331,-71.43,2021-12-17 16:32:17.203125
332,-63.27,2021-12-17 16:32:17.218750
333,-56.1,2021-12-17 16:32:17.234375
334,-53.81,2021-12-17 16:32:17.250000
335,-58.03,2021-12-17 16:32:17.265625
336,-67.33,2021-12-17 16:32:17.281250
337,-78.16,2021-12-17 16:32:17.296875
338,-86.98,2021-12-17 16:32:17.312500
339,-92.14,2021-12-17 16:32:17.328125
340,-94.35,2021-12-17 16:32:17.343750
341,-95.52,2021-12-17 16:32:17.359375
342,-96.82,2021-12-17 16:32:17.375000
343,-97.3,2021-12-17 16:32:17.390625
344,-94.17,2021-12-17 16:32:17.406250
345,-84.46,2021-12-17 16:32:17.421875
346,-67.08,2021-12-17 16:32:17.437500
347,-43.81,2021-12-17 16:32:17.453125
348,-18.66,2021-12-17 16:32:17.468750
349,4.06,2021-12-17 16:32:17.484375
350,21.87,2021-12-17 16:32:17.500000
351,34.9,2021-12-17 16:32:17.515625
352,45.26,2021-12-17 16:32:17.531250
353,55.54,2021-12-17 16:32:17.546875
354,67.38,2021-12-17 16:32:17.562500
355,80.94,2021-12-17 16:32:17.578125
356,95.34,2021-12-17 16:32:17.593750
357,109.24,2021-12-17 16:32:17.609375
358,121.18,2021-12-17 16:32:17.625000
359,129.61,2021-12-17 16:32:17.640625
360,132.82,2021-12-17 16:32:17.656250
361,129.57,2021-12-17 16:32:17.671875
362,119.9,2021-12-17 16:32:17.687500
363,105.83,2021-12-17 16:32:17.703125
364,90.94,2021-12-17 16:32:17.718750
365,79.08,2021-12-17 16:32:17.734375
366,72.51,2021-12-17 16:32:17.750000
367,70.75,2021-12-17 16:32:17.765625
368,70.95,2021-12-17 16:32:17.781250
369,69.36,2021-12-17 16:32:17.796875
370,63.41,2021-12-17 16:32:17.812500
371,52.72,2021-12-17 16:32:17.828125
372,38.97,2021-12-17 16:32:17.843750
373,24.72,2021-12-17 16:32:17.859375
374,12.12,2021-12-17 16:32:17.875000
375,2.27,2021-12-17 16:32:17.890625
376,-4.63,2021-12-17 16:32:17.906250
377,-8.77,2021-12-17 16:32:17.921875
378,-10.38,2021-12-17 16:32:17.937500
379,-9.62,2021-12-17 16:32:17.953125
380,-6.79,2021-12-17 16:32:17.968750
381,-2.32,2021-12-17 16:32:17.984375
382,3.44,2021-12-17 16:32:18.000000
383,10.39,2021-12-17 16:32:18.015625
384,18.74,2021-12-17 16:32:18.031250
385,28.63,2021-12-17 16:32:18.046875
386,39.69,2021-12-17 16:32:18.062500
387,50.76,2021-12-17 16:32:18.078125
388,60.15,2021-12-17 16:32:18.093750
389,66.31,2021-12-17 16:32:18.109375
390,68.45,2021-12-17 16:32:18.125000
391,66.57,2021-12-17 16:32:18.140625
392,61.06,2021-12-17 16:32:18.156250
393,52.26,2021-12-17 16:32:18.171875
394,40.42,2021-12-17 16:32:18.187500
395,26.24,2021-12-17 16:32:18.203125
396,11.59,2021-12-17 16:32:18.218750
397,-0.42,2021-12-17 16:32:18.234375
398,-6.27,2021-12-17 16:32:18.250000
399,-3.52,2021-12-17 16:32:18.265625
400,7.91,2021-12-17 16:32:18.281250
401,25.54,2021-12-17 16:32:18.296875
402,45.46,2021-12-17 16:32:18.312500
403,64.02,2021-12-17 16:32:18.328125
404,79.25,2021-12-17 16:32:18.343750
405,91.17,2021-12-17 16:32:18.359375
406,100.97,2021-12-17 16:32:18.375000
407,109.85,2021-12-17 16:32:18.390625
408,118.32,2021-12-17 16:32:18.406250
409,126.14,2021-12-17 16:32:18.421875
410,132.88,2021-12-17 16:32:18.437500
411,138.48,2021-12-17 16:32:18.453125
412,143.26,2021-12-17 16:32:18.468750
413,147.55,2021-12-17 16:32:18.484375
414,151.26,2021-12-17 16:32:18.500000
415,153.67,2021-12-17 16:32:18.515625
416,153.55,2021-12-17 16:32:18.531250
417,149.5,2021-12-17 16:32:18.546875
418,140.21,2021-12-17 16:32:18.562500
419,124.65,2021-12-17 16:32:18.578125
420,102.42,2021-12-17 16:32:18.593750
421,73.97,2021-12-17 16:32:18.609375
422,40.95,2021-12-17 16:32:18.625000
423,6.02,2021-12-17 16:32:18.640625
424,-27.74,2021-12-17 16:32:18.656250
425,-57.94,2021-12-17 16:32:18.671875
426,-83.64,2021-12-17 16:32:18.687500
427,-105.58,2021-12-17 16:32:18.703125
428,-125.41,2021-12-17 16:32:18.718750
429,-144.42,2021-12-17 16:32:18.734375
430,-162.49,2021-12-17 16:32:18.750000
431,-177.97,2021-12-17 16:32:18.765625
432,-188.56,2021-12-17 16:32:18.781250
433,-192.71,2021-12-17 16:32:18.796875
434,-190.66,2021-12-17 16:32:18.812500
435,-184.47,2021-12-17 16:32:18.828125
436,-176.95,2021-12-17 16:32:18.843750
437,-170.32,2021-12-17 16:32:18.859375
438,-165.32,2021-12-17 16:32:18.875000
439,-161.23,2021-12-17 16:32:18.890625
440,-156.77,2021-12-17 16:32:18.906250
441,-151.13,2021-12-17 16:32:18.921875
442,-144.51,2021-12-17 16:32:18.937500
443,-137.84,2021-12-17 16:32:18.953125
444,-132.07,2021-12-17 16:32:18.968750
445,-127.4,2021-12-17 16:32:18.984375
446,-123.11,2021-12-17 16:32:19.000000
447,-117.96,2021-12-17 16:32:19.015625
448,-110.89,2021-12-17 16:32:19.031250
449,-101.56,2021-12-17 16:32:19.046875
450,-90.45,2021-12-17 16:32:19.062500
451,-78.56,2021-12-17 16:32:19.078125
452,-66.88,2021-12-17 16:32:19.093750
453,-56.04,2021-12-17 16:32:19.109375
454,-46.15,2021-12-17 16:32:19.125000
455,-36.99,2021-12-17 16:32:19.140625
456,-28.25,2021-12-17 16:32:19.156250
457,-19.77,2021-12-17 16:32:19.171875
458,-11.66,2021-12-17 16:32:19.187500
459,-4.27,2021-12-17 16:32:19.203125
460,1.96,2021-12-17 16:32:19.218750
461,6.77,2021-12-17 16:32:19.234375
462,10.12,2021-12-17 16:32:19.250000
463,12.29,2021-12-17 16:32:19.265625
464,13.68,2021-12-17 16:32:19.281250
465,14.57,2021-12-17 16:32:19.296875
466,15.0,2021-12-17 16:32:19.312500
467,14.77,2021-12-17 16:32:19.328125
468,13.61,2021-12-17 16:32:19.343750
469,11.5,2021-12-17 16:32:19.359375
470,8.83,2021-12-17 16:32:19.375000
471,6.32,2021-12-17 16:32:19.390625
472,4.85,2021-12-17 16:32:19.406250
473,5.08,2021-12-17 16:32:19.421875
474,7.22,2021-12-17 16:32:19.437500
475,10.98,2021-12-17 16:32:19.453125
476,15.73,2021-12-17 16:32:19.468750
477,20.74,2021-12-17 16:32:19.484375
478,25.38,2021-12-17 16:32:19.500000
479,29.25,2021-12-17 16:32:19.515625
480,32.17,2021-12-17 16:32:19.531250
481,34.18,2021-12-17 16:32:19.546875
482,35.44,2021-12-17 16:32:19.562500
483,36.19,2021-12-17 16:32:19.578125
484,36.68,2021-12-17 16:32:19.593750
485,37.1,2021-12-17 16:32:19.609375
486,37.57,2021-12-17 16:32:19.625000
487,38.1,2021-12-17 16:32:19.640625
488,38.64,2021-12-17 16:32:19.656250
489,39.08,2021-12-17 16:32:19.671875
490,39.34,2021-12-17 16:32:19.687500
491,39.36,2021-12-17 16:32:19.703125
492,39.13,2021-12-17 16:32:19.718750
493,38.66,2021-12-17 16:32:19.734375
494,37.98,2021-12-17 16:32:19.750000
495,37.13,2021-12-17 16:32:19.765625
496,36.17,2021-12-17 16:32:19.781250
497,35.21,2021-12-17 16:32:19.796875
498,34.41,2021-12-17 16:32:19.812500
499,33.89,2021-12-17 16:32:19.828125
500,33.67,2021-12-17 16:32:19.843750
501,33.57,2021-12-17 16:32:19.859375
502,33.21,2021-12-17 16:32:19.875000
503,32.13,2021-12-17 16:32:19.890625
504,29.9,2021-12-17 16:32:19.906250
505,26.28,2021-12-17 16:32:19.921875
506,21.37,2021-12-17 16:32:19.937500
507,15.58,2021-12-17 16:32:19.953125
508,9.57,2021-12-17 16:32:19.968750
509,3.94,2021-12-17 16:32:19.984375
510,-0.89,2021-12-17 16:32:20.000000
511,-4.82,2021-12-17 16:32:20.015625
512,-7.91,2021-12-17 16:32:20.031250
513,-10.24,2021-12-17 16:32:20.046875
514,-11.72,2021-12-17 16:32:20.062500
515,-12.11,2021-12-17 16:32:20.078125
516,-11.14,2021-12-17 16:32:20.093750
517,-8.75,2021-12-17 16:32:20.109375
518,-5.3,2021-12-17 16:32:20.125000
519,-1.45,2021-12-17 16:32:20.140625
520,1.99,2021-12-17 16:32:20.156250
521,4.51,2021-12-17 16:32:20.171875
522,6.0,2021-12-17 16:32:20.187500
523,6.72,2021-12-17 16:32:20.203125
524,7.09,2021-12-17 16:32:20.218750
525,7.38,2021-12-17 16:32:20.234375
526,7.62,2021-12-17 16:32:20.250000
527,7.69,2021-12-17 16:32:20.265625
528,7.46,2021-12-17 16:32:20.281250
529,7.02,2021-12-17 16:32:20.296875
530,6.63,2021-12-17 16:32:20.312500
531,6.59,2021-12-17 16:32:20.328125
532,7.07,2021-12-17 16:32:20.343750
533,8.02,2021-12-17 16:32:20.359375
534,9.18,2021-12-17 16:32:20.375000
535,10.28,2021-12-17 16:32:20.390625
536,11.22,2021-12-17 16:32:20.406250
537,12.0,2021-12-17 16:32:20.421875
538,12.69,2021-12-17 16:32:20.437500
539,13.3,2021-12-17 16:32:20.453125
540,13.68,2021-12-17 16:32:20.468750
541,13.57,2021-12-17 16:32:20.484375
542,12.77,2021-12-17 16:32:20.500000
543,11.27,2021-12-17 16:32:20.515625
544,9.31,2021-12-17 16:32:20.531250
545,7.18,2021-12-17 16:32:20.546875
546,5.23,2021-12-17 16:32:20.562500
547,3.59,2021-12-17 16:32:20.578125
548,2.2,2021-12-17 16:32:20.593750
549,0.84,2021-12-17 16:32:20.609375
550,-0.69,2021-12-17 16:32:20.625000
551,-2.56,2021-12-17 16:32:20.640625
552,-4.77,2021-12-17 16:32:20.656250
553,-7.13,2021-12-17 16:32:20.671875
554,-9.28,2021-12-17 16:32:20.687500
555,-10.74,2021-12-17 16:32:20.703125
556,-11.06,2021-12-17 16:32:20.718750
557,-9.9,2021-12-17 16:32:20.734375
558,-7.23,2021-12-17 16:32:20.750000
559,-3.32,2021-12-17 16:32:20.765625
560,1.31,2021-12-17 16:32:20.781250
561,6.03,2021-12-17 16:32:20.796875
562,10.34,2021-12-17 16:32:20.812500
563,13.93,2021-12-17 16:32:20.828125
564,16.76,2021-12-17 16:32:20.843750
565,18.94,2021-12-17 16:32:20.859375
566,20.61,2021-12-17 16:32:20.875000
567,21.9,2021-12-17 16:32:20.890625
568,22.84,2021-12-17 16:32:20.906250
569,23.44,2021-12-17 16:32:20.921875
570,23.71,2021-12-17 16:32:20.937500
571,23.66,2021-12-17 16:32:20.953125
572,23.35,2021-12-17 16:32:20.968750
573,22.82,2021-12-17 16:32:20.984375
574,22.14,2021-12-17 16:32:21.000000
575,21.35,2021-12-17 16:32:21.015625
576,20.53,2021-12-17 16:32:21.031250
577,19.72,2021-12-17 16:32:21.046875
578,18.94,2021-12-17 16:32:21.062500
579,18.19,2021-12-17 16:32:21.078125
580,17.43,2021-12-17 16:32:21.093750
581,16.68,2021-12-17 16:32:21.109375
582,15.93,2021-12-17 16:32:21.125000
583,15.18,2021-12-17 16:32:21.140625
584,14.42,2021-12-17 16:32:21.156250
585,13.62,2021-12-17 16:32:21.171875
586,12.75,2021-12-17 16:32:21.187500
587,11.8,2021-12-17 16:32:21.203125
588,10.74,2021-12-17 16:32:21.218750
589,9.5,2021-12-17 16:32:21.234375
590,7.96,2021-12-17 16:32:21.250000
591,5.95,2021-12-17 16:32:21.265625
592,3.38,2021-12-17 16:32:21.281250
593,0.27,2021-12-17 16:32:21.296875
594,-3.16,2021-12-17 16:32:21.312500
595,-6.58,2021-12-17 16:32:21.328125
596,-9.74,2021-12-17 16:32:21.343750
597,-12.51,2021-12-17 16:32:21.359375
598,-14.94,2021-12-17 16:32:21.375000
599,-17.14,2021-12-17 16:32:21.390625
600,-19.13,2021-12-17 16:32:21.406250
601,-20.69,2021-12-17 16:32:21.421875
602,-21.44,2021-12-17 16:32:21.437500
603,-20.99,2021-12-17 16:32:21.453125
604,-19.12,2021-12-17 16:32:21.468750
605,-15.98,2021-12-17 16:32:21.484375
606,-11.99,2021-12-17 16:32:21.500000
607,-7.77,2021-12-17 16:32:21.515625
608,-3.84,2021-12-17 16:32:21.531250
609,-0.5,2021-12-17 16:32:21.546875
610,2.2,2021-12-17 16:32:21.562500
611,4.4,2021-12-17 16:32:21.578125
612,6.26,2021-12-17 16:32:21.593750
613,7.86,2021-12-17 16:32:21.609375
614,9.14,2021-12-17 16:32:21.625000
615,10.03,2021-12-17 16:32:21.640625
616,10.49,2021-12-17 16:32:21.656250
617,10.62,2021-12-17 16:32:21.671875
618,10.62,2021-12-17 16:32:21.687500
619,10.73,2021-12-17 16:32:21.703125
620,11.03,2021-12-17 16:32:21.718750
621,11.44,2021-12-17 16:32:21.734375
622,11.77,2021-12-17 16:32:21.750000
623,11.8,2021-12-17 16:32:21.765625
624,11.46,2021-12-17 16:32:21.781250
625,10.79,2021-12-17 16:32:21.796875
626,10.0,2021-12-17 16:32:21.812500
627,9.26,2021-12-17 16:32:21.828125
628,8.65,2021-12-17 16:32:21.843750
629,8.1,2021-12-17 16:32:21.859375
630,7.45,2021-12-17 16:32:21.875000
631,6.52,2021-12-17 16:32:21.890625
632,5.26,2021-12-17 16:32:21.906250
633,3.74,2021-12-17 16:32:21.921875
634,2.17,2021-12-17 16:32:21.937500
635,0.72,2021-12-17 16:32:21.953125
636,-0.48,2021-12-17 16:32:21.968750
637,-1.44,2021-12-17 16:32:21.984375
638,-2.32,2021-12-17 16:32:22.000000
639,-3.27,2021-12-17 16:32:22.015625
640,-4.46,2021-12-17 16:32:22.031250
641,-5.97,2021-12-17 16:32:22.046875
642,-7.8,2021-12-17 16:32:22.062500
643,-9.89,2021-12-17 16:32:22.078125
644,-12.12,2021-12-17 16:32:22.093750
645,-14.26,2021-12-17 16:32:22.109375
646,-16.02,2021-12-17 16:32:22.125000
647,-17.04,2021-12-17 16:32:22.140625
648,-17.07,2021-12-17 16:32:22.156250
649,-16.0,2021-12-17 16:32:22.171875
650,-13.93,2021-12-17 16:32:22.187500
651,-11.14,2021-12-17 16:32:22.203125
652,-7.94,2021-12-17 16:32:22.218750
653,-4.61,2021-12-17 16:32:22.234375
654,-1.33,2021-12-17 16:32:22.250000
655,1.78,2021-12-17 16:32:22.265625
656,4.59,2021-12-17 16:32:22.281250
657,6.97,2021-12-17 16:32:22.296875
658,8.77,2021-12-17 16:32:22.312500
659,9.87,2021-12-17 16:32:22.328125
660,10.3,2021-12-17 16:32:22.343750
661,10.19,2021-12-17 16:32:22.359375
662,9.76,2021-12-17 16:32:22.375000
663,9.27,2021-12-17 16:32:22.390625
664,8.94,2021-12-17 16:32:22.406250
665,8.93,2021-12-17 16:32:22.421875
666,9.25,2021-12-17 16:32:22.437500
667,9.83,2021-12-17 16:32:22.453125
668,10.48,2021-12-17 16:32:22.468750
669,11.02,2021-12-17 16:32:22.484375
670,11.27,2021-12-17 16:32:22.500000
671,11.16,2021-12-17 16:32:22.515625
672,10.69,2021-12-17 16:32:22.531250
673,9.94,2021-12-17 16:32:22.546875
674,8.98,2021-12-17 16:32:22.562500
675,7.87,2021-12-17 16:32:22.578125
676,6.62,2021-12-17 16:32:22.593750
677,5.27,2021-12-17 16:32:22.609375
678,3.87,2021-12-17 16:32:22.625000
679,2.46,2021-12-17 16:32:22.640625
680,1.12,2021-12-17 16:32:22.656250
681,-0.12,2021-12-17 16:32:22.671875
682,-1.25,2021-12-17 16:32:22.687500
683,-2.32,2021-12-17 16:32:22.703125
684,-3.46,2021-12-17 16:32:22.718750
685,-4.78,2021-12-17 16:32:22.734375
686,-6.35,2021-12-17 16:32:22.750000
687,-8.14,2021-12-17 16:32:22.765625
688,-9.94,2021-12-17 16:32:22.781250
689,-11.47,2021-12-17 16:32:22.796875
690,-12.39,2021-12-17 16:32:22.812500
691,-12.5,2021-12-17 16:32:22.828125
692,-11.77,2021-12-17 16:32:22.843750
693,-10.33,2021-12-17 16:32:22.859375
694,-8.44,2021-12-17 16:32:22.875000
695,-6.37,2021-12-17 16:32:22.890625
696,-4.33,2021-12-17 16:32:22.906250
697,-2.4,2021-12-17 16:32:22.921875
698,-0.6,2021-12-17 16:32:22.937500
699,1.09,2021-12-17 16:32:22.953125
700,2.66,2021-12-17 16:32:22.968750
701,4.11,2021-12-17 16:32:22.984375
702,5.36,2021-12-17 16:32:23.000000
703,6.36,2021-12-17 16:32:23.015625
704,7.06,2021-12-17 16:32:23.031250
705,7.43,2021-12-17 16:32:23.046875
706,7.52,2021-12-17 16:32:23.062500
707,7.39,2021-12-17 16:32:23.078125
708,7.14,2021-12-17 16:32:23.093750
709,6.82,2021-12-17 16:32:23.109375
710,6.43,2021-12-17 16:32:23.125000
711,5.91,2021-12-17 16:32:23.140625
712,5.21,2021-12-17 16:32:23.156250
713,4.33,2021-12-17 16:32:23.171875
714,3.34,2021-12-17 16:32:23.187500
715,2.36,2021-12-17 16:32:23.203125
716,1.49,2021-12-17 16:32:23.218750
717,0.76,2021-12-17 16:32:23.234375
718,0.13,2021-12-17 16:32:23.250000
719,-0.49,2021-12-17 16:32:23.265625
720,-1.21,2021-12-17 16:32:23.281250
721,-2.07,2021-12-17 16:32:23.296875
722,-3.11,2021-12-17 16:32:23.312500
723,-4.38,2021-12-17 16:32:23.328125
724,-5.92,2021-12-17 16:32:23.343750
725,-7.82,2021-12-17 16:32:23.359375
726,-10.07,2021-12-17 16:32:23.375000
727,-12.62,2021-12-17 16:32:23.390625
728,-15.23,2021-12-17 16:32:23.406250
729,-17.55,2021-12-17 16:32:23.421875
730,-19.14,2021-12-17 16:32:23.437500
731,-19.65,2021-12-17 16:32:23.453125
732,-18.88,2021-12-17 16:32:23.468750
733,-16.81,2021-12-17 16:32:23.484375
734,-13.64,2021-12-17 16:32:23.500000
735,-9.71,2021-12-17 16:32:23.515625
736,-5.46,2021-12-17 16:32:23.531250
737,-1.3,2021-12-17 16:32:23.546875
738,2.4,2021-12-17 16:32:23.562500
739,5.43,2021-12-17 16:32:23.578125
740,7.71,2021-12-17 16:32:23.593750
741,9.26,2021-12-17 16:32:23.609375
742,10.18,2021-12-17 16:32:23.625000
743,10.54,2021-12-17 16:32:23.640625
744,10.45,2021-12-17 16:32:23.656250
745,10.03,2021-12-17 16:32:23.671875
746,9.41,2021-12-17 16:32:23.687500
747,8.75,2021-12-17 16:32:23.703125
748,8.18,2021-12-17 16:32:23.718750
749,7.76,2021-12-17 16:32:23.734375
750,7.48,2021-12-17 16:32:23.750000
751,7.3,2021-12-17 16:32:23.765625
752,7.19,2021-12-17 16:32:23.781250
753,7.21,2021-12-17 16:32:23.796875
754,7.41,2021-12-17 16:32:23.812500
755,7.76,2021-12-17 16:32:23.828125
756,8.18,2021-12-17 16:32:23.843750
757,8.5,2021-12-17 16:32:23.859375
758,8.58,2021-12-17 16:32:23.875000
759,8.45,2021-12-17 16:32:23.890625
760,8.29,2021-12-17 16:32:23.906250
761,8.31,2021-12-17 16:32:23.921875
762,8.65,2021-12-17 16:32:23.937500
763,9.17,2021-12-17 16:32:23.953125
764,9.58,2021-12-17 16:32:23.968750
765,9.51,2021-12-17 16:32:23.984375
766,8.74,2021-12-17 16:32:24.000000
767,7.27,2021-12-17 16:32:24.015625
768,5.33,2021-12-17 16:32:24.031250
769,3.28,2021-12-17 16:32:24.046875
770,1.46,2021-12-17 16:32:24.062500
771,0.17,2021-12-17 16:32:24.078125
772,-0.43,2021-12-17 16:32:24.093750
773,-0.23,2021-12-17 16:32:24.109375
774,0.75,2021-12-17 16:32:24.125000
775,2.38,2021-12-17 16:32:24.140625
776,4.44,2021-12-17 16:32:24.156250
777,6.64,2021-12-17 16:32:24.171875
778,8.72,2021-12-17 16:32:24.187500
779,10.49,2021-12-17 16:32:24.203125
780,11.88,2021-12-17 16:32:24.218750
781,12.83,2021-12-17 16:32:24.234375
782,13.31,2021-12-17 16:32:24.250000
783,13.32,2021-12-17 16:32:24.265625
784,12.96,2021-12-17 16:32:24.281250
785,12.44,2021-12-17 16:32:24.296875
786,12.11,2021-12-17 16:32:24.312500
787,12.27,2021-12-17 16:32:24.328125
788,13.08,2021-12-17 16:32:24.343750
789,14.47,2021-12-17 16:32:24.359375
790,16.18,2021-12-17 16:32:24.375000
791,17.89,2021-12-17 16:32:24.390625
792,19.37,2021-12-17 16:32:24.406250
793,20.62,2021-12-17 16:32:24.421875
794,21.86,2021-12-17 16:32:24.437500
795,23.52,2021-12-17 16:32:24.453125
796,26.05,2021-12-17 16:32:24.468750
797,29.74,2021-12-17 16:32:24.484375
798,34.55,2021-12-17 16:32:24.500000
799,40.0,2021-12-17 16:32:24.515625
800,45.31,2021-12-17 16:32:24.531250
801,49.6,2021-12-17 16:32:24.546875
802,52.25,2021-12-17 16:32:24.562500
803,53.07,2021-12-17 16:32:24.578125
804,52.35,2021-12-17 16:32:24.593750
805,50.64,2021-12-17 16:32:24.609375
806,48.55,2021-12-17 16:32:24.625000
807,46.55,2021-12-17 16:32:24.640625
808,44.99,2021-12-17 16:32:24.656250
809,44.15,2021-12-17 16:32:24.671875
810,44.3,2021-12-17 16:32:24.687500
811,45.57,2021-12-17 16:32:24.703125
812,47.84,2021-12-17 16:32:24.718750
813,50.65,2021-12-17 16:32:24.734375
814,53.34,2021-12-17 16:32:24.750000
815,55.26,2021-12-17 16:32:24.765625
816,56.09,2021-12-17 16:32:24.781250
817,55.88,2021-12-17 16:32:24.796875
818,54.9,2021-12-17 16:32:24.812500
819,53.32,2021-12-17 16:32:24.828125
820,50.99,2021-12-17 16:32:24.843750
821,47.51,2021-12-17 16:32:24.859375
822,42.58,2021-12-17 16:32:24.875000
823,36.38,2021-12-17 16:32:24.890625
824,29.76,2021-12-17 16:32:24.906250
825,23.98,2021-12-17 16:32:24.921875
826,20.16,2021-12-17 16:32:24.937500
827,18.64,2021-12-17 16:32:24.953125
828,18.66,2021-12-17 16:32:24.968750
829,18.66,2021-12-17 16:32:24.984375
830,16.94,2021-12-17 16:32:25.000000
831,12.47,2021-12-17 16:32:25.015625
832,5.36,2021-12-17 16:32:25.031250
833,-3.32,2021-12-17 16:32:25.046875
834,-12.21,2021-12-17 16:32:25.062500
835,-20.42,2021-12-17 16:32:25.078125
836,-28.03,2021-12-17 16:32:25.093750
837,-35.89,2021-12-17 16:32:25.109375
838,-45.02,2021-12-17 16:32:25.125000
839,-55.99,2021-12-17 16:32:25.140625
840,-68.48,2021-12-17 16:32:25.156250
841,-81.58,2021-12-17 16:32:25.171875
842,-94.25,2021-12-17 16:32:25.187500
843,-105.79,2021-12-17 16:32:25.203125
844,-116.04,2021-12-17 16:32:25.218750
845,-125.07,2021-12-17 16:32:25.234375
846,-132.84,2021-12-17 16:32:25.250000
847,-138.93,2021-12-17 16:32:25.265625
848,-142.69,2021-12-17 16:32:25.281250
849,-143.63,2021-12-17 16:32:25.296875
850,-141.94,2021-12-17 16:32:25.312500
851,-138.7,2021-12-17 16:32:25.328125
852,-135.52,2021-12-17 16:32:25.343750
853,-133.86,2021-12-17 16:32:25.359375
854,-134.13,2021-12-17 16:32:25.375000
855,-135.28,2021-12-17 16:32:25.390625
856,-135.05,2021-12-17 16:32:25.406250
857,-130.78,2021-12-17 16:32:25.421875
858,-120.62,2021-12-17 16:32:25.437500
859,-104.31,2021-12-17 16:32:25.453125
860,-83.32,2021-12-17 16:32:25.468750
861,-60.25,2021-12-17 16:32:25.484375
862,-37.81,2021-12-17 16:32:25.500000
863,-17.93,2021-12-17 16:32:25.515625
864,-1.37,2021-12-17 16:32:25.531250
865,12.05,2021-12-17 16:32:25.546875
866,22.93,2021-12-17 16:32:25.562500
867,31.69,2021-12-17 16:32:25.578125
868,38.47,2021-12-17 16:32:25.593750
869,43.23,2021-12-17 16:32:25.609375
870,46.16,2021-12-17 16:32:25.625000
871,47.85,2021-12-17 16:32:25.640625
872,49.24,2021-12-17 16:32:25.656250
873,51.26,2021-12-17 16:32:25.671875
874,54.35,2021-12-17 16:32:25.687500
875,58.28,2021-12-17 16:32:25.703125
876,62.17,2021-12-17 16:32:25.718750
877,64.9,2021-12-17 16:32:25.734375
878,65.63,2021-12-17 16:32:25.750000
879,64.15,2021-12-17 16:32:25.765625
880,60.96,2021-12-17 16:32:25.781250
881,57.03,2021-12-17 16:32:25.796875
882,53.25,2021-12-17 16:32:25.812500
883,50.19,2021-12-17 16:32:25.828125
884,47.86,2021-12-17 16:32:25.843750
885,45.99,2021-12-17 16:32:25.859375
886,44.31,2021-12-17 16:32:25.875000
887,42.82,2021-12-17 16:32:25.890625
888,41.82,2021-12-17 16:32:25.906250
889,41.79,2021-12-17 16:32:25.921875
890,43.06,2021-12-17 16:32:25.937500
891,45.67,2021-12-17 16:32:25.953125
892,49.37,2021-12-17 16:32:25.968750
893,53.82,2021-12-17 16:32:25.984375
894,58.87,2021-12-17 16:32:26.000000
895,64.6,2021-12-17 16:32:26.015625
896,71.19,2021-12-17 16:32:26.031250
897,78.67,2021-12-17 16:32:26.046875
898,86.62,2021-12-17 16:32:26.062500
899,94.16,2021-12-17 16:32:26.078125
900,100.25,2021-12-17 16:32:26.093750
901,104.04,2021-12-17 16:32:26.109375
902,105.27,2021-12-17 16:32:26.125000
903,104.32,2021-12-17 16:32:26.140625
904,102.02,2021-12-17 16:32:26.156250
905,99.33,2021-12-17 16:32:26.171875
906,96.95,2021-12-17 16:32:26.187500
907,95.2,2021-12-17 16:32:26.203125
908,94.04,2021-12-17 16:32:26.218750
909,93.29,2021-12-17 16:32:26.234375
910,92.82,2021-12-17 16:32:26.250000
911,92.65,2021-12-17 16:32:26.265625
912,92.81,2021-12-17 16:32:26.281250
913,93.27,2021-12-17 16:32:26.296875
914,93.87,2021-12-17 16:32:26.312500
915,94.43,2021-12-17 16:32:26.328125
916,94.91,2021-12-17 16:32:26.343750
917,95.48,2021-12-17 16:32:26.359375
918,96.45,2021-12-17 16:32:26.375000
919,97.96,2021-12-17 16:32:26.390625
920,99.69,2021-12-17 16:32:26.406250
921,100.71,2021-12-17 16:32:26.421875
922,99.75,2021-12-17 16:32:26.437500
923,95.81,2021-12-17 16:32:26.453125
924,88.66,2021-12-17 16:32:26.468750
925,79.1,2021-12-17 16:32:26.484375
926,68.62,2021-12-17 16:32:26.500000
927,58.7,2021-12-17 16:32:26.515625
928,50.04,2021-12-17 16:32:26.531250
929,42.11,2021-12-17 16:32:26.546875
930,33.44,2021-12-17 16:32:26.562500
931,22.39,2021-12-17 16:32:26.578125
932,8.04,2021-12-17 16:32:26.593750
933,-9.21,2021-12-17 16:32:26.609375
934,-27.62,2021-12-17 16:32:26.625000
935,-44.83,2021-12-17 16:32:26.640625
936,-58.54,2021-12-17 16:32:26.656250
937,-67.2,2021-12-17 16:32:26.671875
938,-69.93,2021-12-17 16:32:26.687500
939,-66.2,2021-12-17 16:32:26.703125
940,-55.66,2021-12-17 16:32:26.718750
941,-38.1,2021-12-17 16:32:26.734375
942,-14.12,2021-12-17 16:32:26.750000
943,14.3,2021-12-17 16:32:26.765625
944,43.37,2021-12-17 16:32:26.781250
945,68.11,2021-12-17 16:32:26.796875
946,83.5,2021-12-17 16:32:26.812500
947,86.05,2021-12-17 16:32:26.828125
948,74.71,2021-12-17 16:32:26.843750
949,50.75,2021-12-17 16:32:26.859375
950,16.96,2021-12-17 16:32:26.875000
951,-23.43,2021-12-17 16:32:26.890625
952,-67.03,2021-12-17 16:32:26.906250
953,-109.93,2021-12-17 16:32:26.921875
954,-147.29,2021-12-17 16:32:26.937500
955,-173.82,2021-12-17 16:32:26.953125
956,-185.43,2021-12-17 16:32:26.968750
957,-181.55,2021-12-17 16:32:26.984375
958,-166.57,2021-12-17 16:32:27.000000
959,-149.09,2021-12-17 16:32:27.015625
960,-139.0,2021-12-17 16:32:27.031250
961,-143.45,2021-12-17 16:32:27.046875
962,-163.77,2021-12-17 16:32:27.062500
963,-195.07,2021-12-17 16:32:27.078125
964,-228.59,2021-12-17 16:32:27.093750
965,-255.64,2021-12-17 16:32:27.109375
966,-270.87,2021-12-17 16:32:27.125000
967,-273.43,2021-12-17 16:32:27.140625
968,-265.81,2021-12-17 16:32:27.156250
969,-251.6,2021-12-17 16:32:27.171875
970,-233.56,2021-12-17 16:32:27.187500
971,-213.01,2021-12-17 16:32:27.203125
972,-190.45,2021-12-17 16:32:27.218750
973,-166.64,2021-12-17 16:32:27.234375
974,-143.13,2021-12-17 16:32:27.250000
975,-121.95,2021-12-17 16:32:27.265625
976,-104.68,2021-12-17 16:32:27.281250
977,-91.53,2021-12-17 16:32:27.296875
978,-81.28,2021-12-17 16:32:27.312500
979,-71.8,2021-12-17 16:32:27.328125
980,-61.11,2021-12-17 16:32:27.343750
981,-48.3,2021-12-17 16:32:27.359375
982,-33.82,2021-12-17 16:32:27.375000
983,-19.13,2021-12-17 16:32:27.390625
984,-5.93,2021-12-17 16:32:27.406250
985,4.68,2021-12-17 16:32:27.421875
986,12.67,2021-12-17 16:32:27.437500
987,18.98,2021-12-17 16:32:27.453125
988,24.94,2021-12-17 16:32:27.468750
989,31.5,2021-12-17 16:32:27.484375
990,38.62,2021-12-17 16:32:27.500000
991,45.24,2021-12-17 16:32:27.515625
992,49.88,2021-12-17 16:32:27.531250
993,51.52,2021-12-17 16:32:27.546875
994,50.17,2021-12-17 16:32:27.562500
995,46.95,2021-12-17 16:32:27.578125
996,43.49,2021-12-17 16:32:27.593750
997,41.12,2021-12-17 16:32:27.609375
998,40.3,2021-12-17 16:32:27.625000
999,40.61,2021-12-17 16:32:27.640625
1000,41.19,2021-12-17 16:32:27.656250
1001,41.23,2021-12-17 16:32:27.671875
1002,40.26,2021-12-17 16:32:27.687500
1003,38.18,2021-12-17 16:32:27.703125
1004,35.01,2021-12-17 16:32:27.718750
1005,30.9,2021-12-17 16:32:27.734375
1006,26.11,2021-12-17 16:32:27.750000
1007,21.17,2021-12-17 16:32:27.765625
1008,16.72,2021-12-17 16:32:27.781250
1009,13.22,2021-12-17 16:32:27.796875
1010,10.68,2021-12-17 16:32:27.812500
1011,8.75,2021-12-17 16:32:27.828125
1012,7.12,2021-12-17 16:32:27.843750
1013,5.83,2021-12-17 16:32:27.859375
1014,5.39,2021-12-17 16:32:27.875000
1015,6.34,2021-12-17 16:32:27.890625
1016,8.73,2021-12-17 16:32:27.906250
1017,11.84,2021-12-17 16:32:27.921875
1018,14.49,2021-12-17 16:32:27.937500
1019,15.81,2021-12-17 16:32:27.953125
1020,15.88,2021-12-17 16:32:27.968750
1021,15.7,2021-12-17 16:32:27.984375
1022,16.59,2021-12-17 16:32:28.000000
1023,19.31,2021-12-17 16:32:28.015625
1024,23.58,2021-12-17 16:32:28.031250
1025,28.47,2021-12-17 16:32:28.046875
1026,33.1,2021-12-17 16:32:28.062500
1027,37.32,2021-12-17 16:32:28.078125
1028,41.73,2021-12-17 16:32:28.093750
1029,46.94,2021-12-17 16:32:28.109375
1030,52.86,2021-12-17 16:32:28.125000
1031,58.39,2021-12-17 16:32:28.140625
1032,62.05,2021-12-17 16:32:28.156250
1033,62.78,2021-12-17 16:32:28.171875
1034,60.56,2021-12-17 16:32:28.187500
1035,56.27,2021-12-17 16:32:28.203125
1036,50.88,2021-12-17 16:32:28.218750
1037,44.73,2021-12-17 16:32:28.234375
1038,37.37,2021-12-17 16:32:28.250000
1039,28.01,2021-12-17 16:32:28.265625
1040,16.36,2021-12-17 16:32:28.281250
1041,3.07,2021-12-17 16:32:28.296875
1042,-10.47,2021-12-17 16:32:28.312500
1043,-22.88,2021-12-17 16:32:28.328125
1044,-33.47,2021-12-17 16:32:28.343750
1045,-42.61,2021-12-17 16:32:28.359375
1046,-51.36,2021-12-17 16:32:28.375000
1047,-60.92,2021-12-17 16:32:28.390625
1048,-71.89,2021-12-17 16:32:28.406250
1049,-83.98,2021-12-17 16:32:28.421875
1050,-96.02,2021-12-17 16:32:28.437500
1051,-106.34,2021-12-17 16:32:28.453125
1052,-113.29,2021-12-17 16:32:28.468750
1053,-115.72,2021-12-17 16:32:28.484375
1054,-113.42,2021-12-17 16:32:28.500000
1055,-107.18,2021-12-17 16:32:28.515625
1056,-98.56,2021-12-17 16:32:28.531250
1057,-89.37,2021-12-17 16:32:28.546875
1058,-81.16,2021-12-17 16:32:28.562500
1059,-74.82,2021-12-17 16:32:28.578125
1060,-70.59,2021-12-17 16:32:28.593750
1061,-68.28,2021-12-17 16:32:28.609375
1062,-67.59,2021-12-17 16:32:28.625000
1063,-68.22,2021-12-17 16:32:28.640625
1064,-69.9,2021-12-17 16:32:28.656250
1065,-72.2,2021-12-17 16:32:28.671875
1066,-74.53,2021-12-17 16:32:28.687500
1067,-76.29,2021-12-17 16:32:28.703125
1068,-76.95,2021-12-17 16:32:28.718750
1069,-76.19,2021-12-17 16:32:28.734375
1070,-73.91,2021-12-17 16:32:28.750000
1071,-70.16,2021-12-17 16:32:28.765625
1072,-65.08,2021-12-17 16:32:28.781250
1073,-58.89,2021-12-17 16:32:28.796875
1074,-51.86,2021-12-17 16:32:28.812500
1075,-44.27,2021-12-17 16:32:28.828125
1076,-36.35,2021-12-17 16:32:28.843750
1077,-28.25,2021-12-17 16:32:28.859375
1078,-20.07,2021-12-17 16:32:28.875000
1079,-12.01,2021-12-17 16:32:28.890625
1080,-4.5,2021-12-17 16:32:28.906250
1081,1.9,2021-12-17 16:32:28.921875
1082,6.68,2021-12-17 16:32:28.937500
1083,9.59,2021-12-17 16:32:28.953125
1084,10.8,2021-12-17 16:32:28.968750
1085,10.73,2021-12-17 16:32:28.984375
1086,9.93,2021-12-17 16:32:29.000000
1087,8.76,2021-12-17 16:32:29.015625
1088,7.53,2021-12-17 16:32:29.031250
1089,6.48,2021-12-17 16:32:29.046875
1090,5.95,2021-12-17 16:32:29.062500
1091,6.36,2021-12-17 16:32:29.078125
1092,8.09,2021-12-17 16:32:29.093750
1093,11.2,2021-12-17 16:32:29.109375
1094,15.43,2021-12-17 16:32:29.125000
1095,20.23,2021-12-17 16:32:29.140625
1096,24.98,2021-12-17 16:32:29.156250
1097,29.19,2021-12-17 16:32:29.171875
1098,32.56,2021-12-17 16:32:29.187500
1099,34.97,2021-12-17 16:32:29.203125
1100,36.33,2021-12-17 16:32:29.218750
1101,36.61,2021-12-17 16:32:29.234375
1102,35.85,2021-12-17 16:32:29.250000
1103,34.25,2021-12-17 16:32:29.265625
1104,32.17,2021-12-17 16:32:29.281250
1105,30.02,2021-12-17 16:32:29.296875
1106,28.11,2021-12-17 16:32:29.312500
1107,26.55,2021-12-17 16:32:29.328125
1108,25.29,2021-12-17 16:32:29.343750
1109,24.17,2021-12-17 16:32:29.359375
1110,23.09,2021-12-17 16:32:29.375000
1111,22.08,2021-12-17 16:32:29.390625
1112,21.23,2021-12-17 16:32:29.406250
1113,20.59,2021-12-17 16:32:29.421875
1114,20.09,2021-12-17 16:32:29.437500
1115,19.52,2021-12-17 16:32:29.453125
1116,18.59,2021-12-17 16:32:29.468750
1117,17.07,2021-12-17 16:32:29.484375
1118,14.94,2021-12-17 16:32:29.500000
1119,12.38,2021-12-17 16:32:29.515625
1120,9.74,2021-12-17 16:32:29.531250
1121,7.4,2021-12-17 16:32:29.546875
1122,5.62,2021-12-17 16:32:29.562500
1123,4.39,2021-12-17 16:32:29.578125
1124,3.43,2021-12-17 16:32:29.593750
1125,2.25,2021-12-17 16:32:29.609375
1126,0.3,2021-12-17 16:32:29.625000
1127,-2.74,2021-12-17 16:32:29.640625
1128,-6.79,2021-12-17 16:32:29.656250
1129,-11.25,2021-12-17 16:32:29.671875
1130,-15.19,2021-12-17 16:32:29.687500
1131,-17.61,2021-12-17 16:32:29.703125
1132,-17.77,2021-12-17 16:32:29.718750
1133,-15.51,2021-12-17 16:32:29.734375
1134,-11.22,2021-12-17 16:32:29.750000
1135,-5.71,2021-12-17 16:32:29.765625
1136,0.06,2021-12-17 16:32:29.781250
1137,5.29,2021-12-17 16:32:29.796875
1138,9.54,2021-12-17 16:32:29.812500
1139,12.73,2021-12-17 16:32:29.828125
1140,15.02,2021-12-17 16:32:29.843750
1141,16.62,2021-12-17 16:32:29.859375
1142,17.67,2021-12-17 16:32:29.875000
1143,18.23,2021-12-17 16:32:29.890625
1144,18.3,2021-12-17 16:32:29.906250
1145,17.86,2021-12-17 16:32:29.921875
1146,16.95,2021-12-17 16:32:29.937500
1147,15.65,2021-12-17 16:32:29.953125
1148,14.19,2021-12-17 16:32:29.968750
1149,12.86,2021-12-17 16:32:29.984375
1150,11.98,2021-12-17 16:32:30.000000
1151,11.72,2021-12-17 16:32:30.015625
1152,12.01,2021-12-17 16:32:30.031250
1153,12.57,2021-12-17 16:32:30.046875
1154,13.01,2021-12-17 16:32:30.062500
1155,13.02,2021-12-17 16:32:30.078125
1156,12.47,2021-12-17 16:32:30.093750
1157,11.46,2021-12-17 16:32:30.109375
1158,10.25,2021-12-17 16:32:30.125000
1159,9.1,2021-12-17 16:32:30.140625
1160,8.13,2021-12-17 16:32:30.156250
1161,7.32,2021-12-17 16:32:30.171875
1162,6.47,2021-12-17 16:32:30.187500
1163,5.36,2021-12-17 16:32:30.203125
1164,3.75,2021-12-17 16:32:30.218750
1165,1.43,2021-12-17 16:32:30.234375
1166,-1.6,2021-12-17 16:32:30.250000
1167,-5.18,2021-12-17 16:32:30.265625
1168,-8.8,2021-12-17 16:32:30.281250
1169,-11.7,2021-12-17 16:32:30.296875
1170,-13.03,2021-12-17 16:32:30.312500
1171,-12.12,2021-12-17 16:32:30.328125
1172,-8.73,2021-12-17 16:32:30.343750
1173,-3.21,2021-12-17 16:32:30.359375
1174,3.58,2021-12-17 16:32:30.375000
1175,10.6,2021-12-17 16:32:30.390625
1176,16.88,2021-12-17 16:32:30.406250
1177,21.88,2021-12-17 16:32:30.421875
1178,25.5,2021-12-17 16:32:30.437500
1179,27.93,2021-12-17 16:32:30.453125
1180,29.42,2021-12-17 16:32:30.468750
1181,30.1,2021-12-17 16:32:30.484375
1182,30.0,2021-12-17 16:32:30.500000
1183,29.1,2021-12-17 16:32:30.515625
1184,27.56,2021-12-17 16:32:30.531250
1185,25.71,2021-12-17 16:32:30.546875
1186,23.97,2021-12-17 16:32:30.562500
1187,22.68,2021-12-17 16:32:30.578125
1188,21.96,2021-12-17 16:32:30.593750
1189,21.64,2021-12-17 16:32:30.609375
1190,21.43,2021-12-17 16:32:30.625000
1191,21.0,2021-12-17 16:32:30.640625
1192,20.17,2021-12-17 16:32:30.656250
1193,18.96,2021-12-17 16:32:30.671875
1194,17.49,2021-12-17 16:32:30.687500
1195,15.94,2021-12-17 16:32:30.703125
1196,14.4,2021-12-17 16:32:30.718750
1197,12.83,2021-12-17 16:32:30.734375
1198,11.09,2021-12-17 16:32:30.750000
1199,8.97,2021-12-17 16:32:30.765625
1200,6.28,2021-12-17 16:32:30.781250
1201,2.92,2021-12-17 16:32:30.796875
1202,-1.17,2021-12-17 16:32:30.812500
1203,-5.95,2021-12-17 16:32:30.828125
1204,-11.28,2021-12-17 16:32:30.843750
1205,-16.89,2021-12-17 16:32:30.859375
1206,-22.28,2021-12-17 16:32:30.875000
1207,-26.76,2021-12-17 16:32:30.890625
1208,-29.59,2021-12-17 16:32:30.906250
1209,-30.14,2021-12-17 16:32:30.921875
1210,-28.21,2021-12-17 16:32:30.937500
1211,-24.13,2021-12-17 16:32:30.953125
1212,-18.69,2021-12-17 16:32:30.968750
1213,-12.89,2021-12-17 16:32:30.984375
1214,-7.6,2021-12-17 16:32:31.000000
1215,-3.22,2021-12-17 16:32:31.015625
1216,0.3,2021-12-17 16:32:31.031250
1217,3.3,2021-12-17 16:32:31.046875
1218,6.04,2021-12-17 16:32:31.062500
1219,8.48,2021-12-17 16:32:31.078125
1220,10.3,2021-12-17 16:32:31.093750
1221,11.14,2021-12-17 16:32:31.109375
1222,10.9,2021-12-17 16:32:31.125000
1223,9.93,2021-12-17 16:32:31.140625
1224,8.87,2021-12-17 16:32:31.156250
1225,8.34,2021-12-17 16:32:31.171875
1226,8.64,2021-12-17 16:32:31.187500
1227,9.69,2021-12-17 16:32:31.203125
1228,11.13,2021-12-17 16:32:31.218750
1229,12.57,2021-12-17 16:32:31.234375
1230,13.77,2021-12-17 16:32:31.250000
1231,14.59,2021-12-17 16:32:31.265625
1232,14.92,2021-12-17 16:32:31.281250
1233,14.62,2021-12-17 16:32:31.296875
1234,13.63,2021-12-17 16:32:31.312500
1235,12.1,2021-12-17 16:32:31.328125
1236,10.39,2021-12-17 16:32:31.343750
1237,8.95,2021-12-17 16:32:31.359375
1238,8.1,2021-12-17 16:32:31.375000
1239,7.73,2021-12-17 16:32:31.390625
1240,7.5,2021-12-17 16:32:31.406250
1241,6.96,2021-12-17 16:32:31.421875
1242,5.98,2021-12-17 16:32:31.437500
1243,4.83,2021-12-17 16:32:31.453125
1244,4.19,2021-12-17 16:32:31.468750
1245,4.84,2021-12-17 16:32:31.484375
1246,7.33,2021-12-17 16:32:31.500000
1247,11.83,2021-12-17 16:32:31.515625
1248,18.07,2021-12-17 16:32:31.531250
1249,25.53,2021-12-17 16:32:31.546875
1250,33.57,2021-12-17 16:32:31.562500
1251,41.67,2021-12-17 16:32:31.578125
1252,49.54,2021-12-17 16:32:31.593750
1253,57.19,2021-12-17 16:32:31.609375
1254,64.8,2021-12-17 16:32:31.625000
1255,72.58,2021-12-17 16:32:31.640625
1256,80.53,2021-12-17 16:32:31.656250
1257,88.24,2021-12-17 16:32:31.671875
1258,95.05,2021-12-17 16:32:31.687500
1259,100.22,2021-12-17 16:32:31.703125
1260,103.21,2021-12-17 16:32:31.718750
1261,103.93,2021-12-17 16:32:31.734375
1262,102.6,2021-12-17 16:32:31.750000
1263,99.6,2021-12-17 16:32:31.765625
1264,95.33,2021-12-17 16:32:31.781250
1265,90.15,2021-12-17 16:32:31.796875
1266,84.51,2021-12-17 16:32:31.812500
1267,79.24,2021-12-17 16:32:31.828125
1268,75.55,2021-12-17 16:32:31.843750
1269,74.73,2021-12-17 16:32:31.859375
1270,77.59,2021-12-17 16:32:31.875000
1271,83.62,2021-12-17 16:32:31.890625
1272,90.85,2021-12-17 16:32:31.906250
1273,96.18,2021-12-17 16:32:31.921875
1274,96.45,2021-12-17 16:32:31.937500
1275,89.68,2021-12-17 16:32:31.953125
1276,75.82,2021-12-17 16:32:31.968750
1277,56.68,2021-12-17 16:32:31.984375
1278,35.03,2021-12-17 16:32:32.000000
1279,13.42,2021-12-17 16:32:32.015625
1280,-6.71,2021-12-17 16:32:32.031250
1281,-25.15,2021-12-17 16:32:32.046875
1282,-42.38,2021-12-17 16:32:32.062500
1283,-58.84,2021-12-17 16:32:32.078125
1284,-74.45,2021-12-17 16:32:32.093750
1285,-88.77,2021-12-17 16:32:32.109375
1286,-101.43,2021-12-17 16:32:32.125000
1287,-112.58,2021-12-17 16:32:32.140625
1288,-122.8,2021-12-17 16:32:32.156250
1289,-132.64,2021-12-17 16:32:32.171875
1290,-142.02,2021-12-17 16:32:32.187500
1291,-149.99,2021-12-17 16:32:32.203125
1292,-155.0,2021-12-17 16:32:32.218750
1293,-155.61,2021-12-17 16:32:32.234375
1294,-151.18,2021-12-17 16:32:32.250000
1295,-142.21,2021-12-17 16:32:32.265625
1296,-130.11,2021-12-17 16:32:32.281250
1297,-116.68,2021-12-17 16:32:32.296875
1298,-103.47,2021-12-17 16:32:32.312500
1299,-91.44,2021-12-17 16:32:32.328125
1300,-80.92,2021-12-17 16:32:32.343750
1301,-71.86,2021-12-17 16:32:32.359375
1302,-64.03,2021-12-17 16:32:32.375000
1303,-57.19,2021-12-17 16:32:32.390625
1304,-51.04,2021-12-17 16:32:32.406250
1305,-45.14,2021-12-17 16:32:32.421875
1306,-39.0,2021-12-17 16:32:32.437500
1307,-32.26,2021-12-17 16:32:32.453125
1308,-24.96,2021-12-17 16:32:32.468750
1309,-17.68,2021-12-17 16:32:32.484375
1310,-11.47,2021-12-17 16:32:32.500000
1311,-7.48,2021-12-17 16:32:32.515625
1312,-6.56,2021-12-17 16:32:32.531250
1313,-8.87,2021-12-17 16:32:32.546875
1314,-13.81,2021-12-17 16:32:32.562500
1315,-20.17,2021-12-17 16:32:32.578125
1316,-26.5,2021-12-17 16:32:32.593750
1317,-31.5,2021-12-17 16:32:32.609375
1318,-34.31,2021-12-17 16:32:32.625000
1319,-34.49,2021-12-17 16:32:32.640625
1320,-32.04,2021-12-17 16:32:32.656250
1321,-27.21,2021-12-17 16:32:32.671875
1322,-20.51,2021-12-17 16:32:32.687500
1323,-12.65,2021-12-17 16:32:32.703125
1324,-4.51,2021-12-17 16:32:32.718750
1325,3.03,2021-12-17 16:32:32.734375
1326,9.33,2021-12-17 16:32:32.750000
1327,14.13,2021-12-17 16:32:32.765625
1328,17.49,2021-12-17 16:32:32.781250
1329,19.69,2021-12-17 16:32:32.796875
1330,21.03,2021-12-17 16:32:32.812500
1331,21.71,2021-12-17 16:32:32.828125
1332,21.91,2021-12-17 16:32:32.843750
1333,21.77,2021-12-17 16:32:32.859375
1334,21.5,2021-12-17 16:32:32.875000
1335,21.25,2021-12-17 16:32:32.890625
1336,21.04,2021-12-17 16:32:32.906250
1337,20.65,2021-12-17 16:32:32.921875
1338,19.79,2021-12-17 16:32:32.937500
1339,18.22,2021-12-17 16:32:32.953125
1340,15.95,2021-12-17 16:32:32.968750
1341,13.27,2021-12-17 16:32:32.984375
1342,10.57,2021-12-17 16:32:33.000000
1343,8.22,2021-12-17 16:32:33.015625
1344,6.31,2021-12-17 16:32:33.031250
1345,4.68,2021-12-17 16:32:33.046875
1346,2.97,2021-12-17 16:32:33.062500
1347,0.84,2021-12-17 16:32:33.078125
1348,-2.0,2021-12-17 16:32:33.093750
1349,-5.65,2021-12-17 16:32:33.109375
1350,-10.01,2021-12-17 16:32:33.125000
1351,-14.74,2021-12-17 16:32:33.140625
1352,-19.27,2021-12-17 16:32:33.156250
1353,-22.81,2021-12-17 16:32:33.171875
1354,-24.55,2021-12-17 16:32:33.187500
1355,-23.87,2021-12-17 16:32:33.203125
1356,-20.6,2021-12-17 16:32:33.218750
1357,-15.1,2021-12-17 16:32:33.234375
1358,-8.22,2021-12-17 16:32:33.250000
1359,-0.96,2021-12-17 16:32:33.265625
1360,5.78,2021-12-17 16:32:33.281250
1361,11.48,2021-12-17 16:32:33.296875
1362,16.0,2021-12-17 16:32:33.312500
1363,19.46,2021-12-17 16:32:33.328125
1364,21.97,2021-12-17 16:32:33.343750
1365,23.62,2021-12-17 16:32:33.359375
1366,24.4,2021-12-17 16:32:33.375000
1367,24.35,2021-12-17 16:32:33.390625
1368,23.68,2021-12-17 16:32:33.406250
1369,22.73,2021-12-17 16:32:33.421875
1370,21.85,2021-12-17 16:32:33.437500
1371,21.2,2021-12-17 16:32:33.453125
1372,20.76,2021-12-17 16:32:33.468750
1373,20.27,2021-12-17 16:32:33.484375
1374,19.47,2021-12-17 16:32:33.500000
1375,18.19,2021-12-17 16:32:33.515625
1376,16.49,2021-12-17 16:32:33.531250
1377,14.56,2021-12-17 16:32:33.546875
1378,12.68,2021-12-17 16:32:33.562500
1379,11.06,2021-12-17 16:32:33.578125
1380,9.73,2021-12-17 16:32:33.593750
1381,8.56,2021-12-17 16:32:33.609375
1382,7.21,2021-12-17 16:32:33.625000
1383,5.28,2021-12-17 16:32:33.640625
1384,2.46,2021-12-17 16:32:33.656250
1385,-1.38,2021-12-17 16:32:33.671875
1386,-6.06,2021-12-17 16:32:33.687500
1387,-11.08,2021-12-17 16:32:33.703125
1388,-15.66,2021-12-17 16:32:33.718750
1389,-18.97,2021-12-17 16:32:33.734375
1390,-20.32,2021-12-17 16:32:33.750000
1391,-19.39,2021-12-17 16:32:33.765625
1392,-16.34,2021-12-17 16:32:33.781250
1393,-11.73,2021-12-17 16:32:33.796875
1394,-6.34,2021-12-17 16:32:33.812500
1395,-0.88,2021-12-17 16:32:33.828125
1396,4.21,2021-12-17 16:32:33.843750
1397,8.77,2021-12-17 16:32:33.859375
1398,12.84,2021-12-17 16:32:33.875000
1399,16.42,2021-12-17 16:32:33.890625
1400,19.39,2021-12-17 16:32:33.906250
1401,21.53,2021-12-17 16:32:33.921875
1402,22.64,2021-12-17 16:32:33.937500
1403,22.71,2021-12-17 16:32:33.953125
1404,21.96,2021-12-17 16:32:33.968750
1405,20.74,2021-12-17 16:32:33.984375
1406,19.44,2021-12-17 16:32:34.000000
1407,18.28,2021-12-17 16:32:34.015625
1408,17.36,2021-12-17 16:32:34.031250
1409,16.61,2021-12-17 16:32:34.046875
1410,15.97,2021-12-17 16:32:34.062500
1411,15.38,2021-12-17 16:32:34.078125
1412,14.77,2021-12-17 16:32:34.093750
1413,14.06,2021-12-17 16:32:34.109375
1414,13.14,2021-12-17 16:32:34.125000
1415,11.9,2021-12-17 16:32:34.140625
1416,10.28,2021-12-17 16:32:34.156250
1417,8.32,2021-12-17 16:32:34.171875
1418,6.12,2021-12-17 16:32:34.187500
1419,3.78,2021-12-17 16:32:34.203125
1420,1.3,2021-12-17 16:32:34.218750
1421,-1.42,2021-12-17 16:32:34.234375
1422,-4.53,2021-12-17 16:32:34.250000
1423,-8.07,2021-12-17 16:32:34.265625
1424,-11.93,2021-12-17 16:32:34.281250
1425,-15.71,2021-12-17 16:32:34.296875
1426,-18.79,2021-12-17 16:32:34.312500
1427,-20.5,2021-12-17 16:32:34.328125
1428,-20.35,2021-12-17 16:32:34.343750
1429,-18.18,2021-12-17 16:32:34.359375
1430,-14.26,2021-12-17 16:32:34.375000
1431,-9.16,2021-12-17 16:32:34.390625
1432,-3.58,2021-12-17 16:32:34.406250
1433,1.91,2021-12-17 16:32:34.421875
1434,6.95,2021-12-17 16:32:34.437500
1435,11.41,2021-12-17 16:32:34.453125
1436,15.27,2021-12-17 16:32:34.468750
1437,18.54,2021-12-17 16:32:34.484375
1438,21.16,2021-12-17 16:32:34.500000
1439,23.07,2021-12-17 16:32:34.515625
1440,24.25,2021-12-17 16:32:34.531250
1441,24.76,2021-12-17 16:32:34.546875
1442,24.73,2021-12-17 16:32:34.562500
1443,24.33,2021-12-17 16:32:34.578125
1444,23.73,2021-12-17 16:32:34.593750
1445,23.08,2021-12-17 16:32:34.609375
1446,22.48,2021-12-17 16:32:34.625000
1447,22.04,2021-12-17 16:32:34.640625
1448,21.74,2021-12-17 16:32:34.656250
1449,21.53,2021-12-17 16:32:34.671875
1450,21.29,2021-12-17 16:32:34.687500
1451,20.83,2021-12-17 16:32:34.703125
1452,20.01,2021-12-17 16:32:34.718750
1453,18.81,2021-12-17 16:32:34.734375
1454,17.3,2021-12-17 16:32:34.750000
1455,15.68,2021-12-17 16:32:34.765625
1456,14.14,2021-12-17 16:32:34.781250
1457,12.78,2021-12-17 16:32:34.796875
1458,11.56,2021-12-17 16:32:34.812500
1459,10.3,2021-12-17 16:32:34.828125
1460,8.79,2021-12-17 16:32:34.843750
1461,6.91,2021-12-17 16:32:34.859375
1462,4.68,2021-12-17 16:32:34.875000
1463,2.28,2021-12-17 16:32:34.890625
1464,-0.05,2021-12-17 16:32:34.906250
1465,-2.14,2021-12-17 16:32:34.921875
1466,-4.02,2021-12-17 16:32:34.937500
1467,-5.85,2021-12-17 16:32:34.953125
1468,-7.85,2021-12-17 16:32:34.968750
1469,-10.17,2021-12-17 16:32:34.984375
1470,-12.82,2021-12-17 16:32:35.000000
1471,-15.79,2021-12-17 16:32:35.015625
1472,-19.0,2021-12-17 16:32:35.031250
1473,-22.34,2021-12-17 16:32:35.046875
1474,-25.55,2021-12-17 16:32:35.062500
1475,-28.18,2021-12-17 16:32:35.078125
1476,-29.58,2021-12-17 16:32:35.093750
1477,-29.16,2021-12-17 16:32:35.109375
1478,-26.57,2021-12-17 16:32:35.125000
1479,-21.96,2021-12-17 16:32:35.140625
1480,-15.96,2021-12-17 16:32:35.156250
1481,-9.44,2021-12-17 16:32:35.171875
1482,-3.21,2021-12-17 16:32:35.187500
1483,2.26,2021-12-17 16:32:35.203125
1484,6.86,2021-12-17 16:32:35.218750
1485,10.74,2021-12-17 16:32:35.234375
1486,14.09,2021-12-17 16:32:35.250000
1487,16.99,2021-12-17 16:32:35.265625
1488,19.36,2021-12-17 16:32:35.281250
1489,21.1,2021-12-17 16:32:35.296875
1490,22.17,2021-12-17 16:32:35.312500
1491,22.65,2021-12-17 16:32:35.328125
1492,22.72,2021-12-17 16:32:35.343750
1493,22.62,2021-12-17 16:32:35.359375
1494,22.53,2021-12-17 16:32:35.375000
1495,22.55,2021-12-17 16:32:35.390625
1496,22.66,2021-12-17 16:32:35.406250
1497,22.83,2021-12-17 16:32:35.421875
1498,22.99,2021-12-17 16:32:35.437500
1499,23.1,2021-12-17 16:32:35.453125
1500,23.17,2021-12-17 16:32:35.468750
1501,23.15,2021-12-17 16:32:35.484375
1502,22.97,2021-12-17 16:32:35.500000
1503,22.5,2021-12-17 16:32:35.515625
1504,21.64,2021-12-17 16:32:35.531250
1505,20.4,2021-12-17 16:32:35.546875
1506,18.89,2021-12-17 16:32:35.562500
1507,17.33,2021-12-17 16:32:35.578125
1508,15.91,2021-12-17 16:32:35.593750
1509,14.74,2021-12-17 16:32:35.609375
1510,13.78,2021-12-17 16:32:35.625000
1511,12.9,2021-12-17 16:32:35.640625
1512,11.92,2021-12-17 16:32:35.656250
1513,10.74,2021-12-17 16:32:35.671875
1514,9.35,2021-12-17 16:32:35.687500
1515,7.82,2021-12-17 16:32:35.703125
1516,6.24,2021-12-17 16:32:35.718750
1517,4.63,2021-12-17 16:32:35.734375
1518,2.93,2021-12-17 16:32:35.750000
1519,1.08,2021-12-17 16:32:35.765625
1520,-0.99,2021-12-17 16:32:35.781250
1521,-3.23,2021-12-17 16:32:35.796875
1522,-5.52,2021-12-17 16:32:35.812500
1523,-7.67,2021-12-17 16:32:35.828125
1524,-9.55,2021-12-17 16:32:35.843750
1525,-11.17,2021-12-17 16:32:35.859375
1526,-12.6,2021-12-17 16:32:35.875000
1527,-14.05,2021-12-17 16:32:35.890625
1528,-15.68,2021-12-17 16:32:35.906250
1529,-17.64,2021-12-17 16:32:35.921875
1530,-19.97,2021-12-17 16:32:35.937500
1531,-22.64,2021-12-17 16:32:35.953125
1532,-25.46,2021-12-17 16:32:35.968750
1533,-28.09,2021-12-17 16:32:35.984375
1534,-30.02,2021-12-17 16:32:36.000000
1535,-30.65,2021-12-17 16:32:36.015625
1536,-29.51,2021-12-17 16:32:36.031250
1537,-26.41,2021-12-17 16:32:36.046875
1538,-21.61,2021-12-17 16:32:36.062500
1539,-15.71,2021-12-17 16:32:36.078125
1540,-9.56,2021-12-17 16:32:36.093750
1541,-3.88,2021-12-17 16:32:36.109375
1542,0.93,2021-12-17 16:32:36.125000
1543,4.79,2021-12-17 16:32:36.140625
1544,7.91,2021-12-17 16:32:36.156250
1545,10.52,2021-12-17 16:32:36.171875
1546,12.73,2021-12-17 16:32:36.187500
1547,14.5,2021-12-17 16:32:36.203125
1548,15.69,2021-12-17 16:32:36.218750
1549,16.24,2021-12-17 16:32:36.234375
1550,16.25,2021-12-17 16:32:36.250000
1551,15.98,2021-12-17 16:32:36.265625
1552,15.67,2021-12-17 16:32:36.281250
1553,15.49,2021-12-17 16:32:36.296875
1554,15.44,2021-12-17 16:32:36.312500
1555,15.43,2021-12-17 16:32:36.328125
1556,15.37,2021-12-17 16:32:36.343750
1557,15.25,2021-12-17 16:32:36.359375
1558,15.16,2021-12-17 16:32:36.375000
1559,15.14,2021-12-17 16:32:36.390625
1560,15.17,2021-12-17 16:32:36.406250
1561,15.14,2021-12-17 16:32:36.421875
1562,14.89,2021-12-17 16:32:36.437500
1563,14.3,2021-12-17 16:32:36.453125
1564,13.38,2021-12-17 16:32:36.468750
1565,12.28,2021-12-17 16:32:36.484375
1566,11.16,2021-12-17 16:32:36.500000
1567,10.18,2021-12-17 16:32:36.515625
1568,9.36,2021-12-17 16:32:36.531250
1569,8.6,2021-12-17 16:32:36.546875
1570,7.74,2021-12-17 16:32:36.562500
1571,6.63,2021-12-17 16:32:36.578125
1572,5.23,2021-12-17 16:32:36.593750
1573,3.63,2021-12-17 16:32:36.609375
1574,2.02,2021-12-17 16:32:36.625000
1575,0.6,2021-12-17 16:32:36.640625
1576,-0.52,2021-12-17 16:32:36.656250
1577,-1.4,2021-12-17 16:32:36.671875
1578,-2.16,2021-12-17 16:32:36.687500
1579,-2.98,2021-12-17 16:32:36.703125
1580,-3.99,2021-12-17 16:32:36.718750
1581,-5.22,2021-12-17 16:32:36.734375
1582,-6.62,2021-12-17 16:32:36.750000
1583,-8.15,2021-12-17 16:32:36.765625
1584,-9.77,2021-12-17 16:32:36.781250
1585,-11.48,2021-12-17 16:32:36.796875
1586,-13.27,2021-12-17 16:32:36.812500
1587,-15.05,2021-12-17 16:32:36.828125
1588,-16.7,2021-12-17 16:32:36.843750
1589,-18.09,2021-12-17 16:32:36.859375
1590,-19.16,2021-12-17 16:32:36.875000
1591,-19.95,2021-12-17 16:32:36.890625
1592,-20.56,2021-12-17 16:32:36.906250
1593,-21.0,2021-12-17 16:32:36.921875
1594,-21.12,2021-12-17 16:32:36.937500
1595,-20.6,2021-12-17 16:32:36.953125
1596,-19.01,2021-12-17 16:32:36.968750
1597,-16.11,2021-12-17 16:32:36.984375
1598,-11.93,2021-12-17 16:32:37.000000
1599,-6.89,2021-12-17 16:32:37.015625
1600,-1.6,2021-12-17 16:32:37.031250
1601,3.36,2021-12-17 16:32:37.046875
1602,7.67,2021-12-17 16:32:37.062500
1603,11.27,2021-12-17 16:32:37.078125
1604,14.31,2021-12-17 16:32:37.093750
1605,16.93,2021-12-17 16:32:37.109375
1606,19.13,2021-12-17 16:32:37.125000
1607,20.8,2021-12-17 16:32:37.140625
1608,21.82,2021-12-17 16:32:37.156250
1609,22.19,2021-12-17 16:32:37.171875
1610,22.07,2021-12-17 16:32:37.187500
1611,21.74,2021-12-17 16:32:37.203125
1612,21.45,2021-12-17 16:32:37.218750
1613,21.3,2021-12-17 16:32:37.234375
1614,21.27,2021-12-17 16:32:37.250000
1615,21.21,2021-12-17 16:32:37.265625
1616,20.98,2021-12-17 16:32:37.281250
1617,20.5,2021-12-17 16:32:37.296875
1618,19.81,2021-12-17 16:32:37.312500
1619,19.01,2021-12-17 16:32:37.328125
1620,18.17,2021-12-17 16:32:37.343750
1621,17.3,2021-12-17 16:32:37.359375
1622,16.3,2021-12-17 16:32:37.375000
1623,15.04,2021-12-17 16:32:37.390625
1624,13.44,2021-12-17 16:32:37.406250
1625,11.53,2021-12-17 16:32:37.421875
1626,9.44,2021-12-17 16:32:37.437500
1627,7.35,2021-12-17 16:32:37.453125
1628,5.37,2021-12-17 16:32:37.468750
1629,3.51,2021-12-17 16:32:37.484375
1630,1.65,2021-12-17 16:32:37.500000
1631,-0.36,2021-12-17 16:32:37.515625
1632,-2.58,2021-12-17 16:32:37.531250
1633,-4.96,2021-12-17 16:32:37.546875
1634,-7.34,2021-12-17 16:32:37.562500
1635,-9.5,2021-12-17 16:32:37.578125
1636,-11.3,2021-12-17 16:32:37.593750
1637,-12.67,2021-12-17 16:32:37.609375
1638,-13.7,2021-12-17 16:32:37.625000
1639,-14.54,2021-12-17 16:32:37.640625
1640,-15.35,2021-12-17 16:32:37.656250
1641,-16.21,2021-12-17 16:32:37.671875
1642,-17.12,2021-12-17 16:32:37.687500
1643,-18.05,2021-12-17 16:32:37.703125
1644,-18.92,2021-12-17 16:32:37.718750
1645,-19.72,2021-12-17 16:32:37.734375
1646,-20.48,2021-12-17 16:32:37.750000
1647,-21.32,2021-12-17 16:32:37.765625
1648,-22.37,2021-12-17 16:32:37.781250
1649,-23.77,2021-12-17 16:32:37.796875
1650,-25.56,2021-12-17 16:32:37.812500
1651,-27.71,2021-12-17 16:32:37.828125
1652,-30.02,2021-12-17 16:32:37.843750
1653,-32.14,2021-12-17 16:32:37.859375
1654,-33.61,2021-12-17 16:32:37.875000
1655,-34.0,2021-12-17 16:32:37.890625
1656,-33.01,2021-12-17 16:32:37.906250
1657,-30.6,2021-12-17 16:32:37.921875
1658,-27.05,2021-12-17 16:32:37.937500
1659,-22.87,2021-12-17 16:32:37.953125
1660,-18.66,2021-12-17 16:32:37.968750
1661,-14.89,2021-12-17 16:32:37.984375
1662,-11.83,2021-12-17 16:32:38.000000
1663,-9.51,2021-12-17 16:32:38.015625
1664,-7.79,2021-12-17 16:32:38.031250
1665,-6.51,2021-12-17 16:32:38.046875
1666,-5.54,2021-12-17 16:32:38.062500
1667,-4.84,2021-12-17 16:32:38.078125
1668,-4.36,2021-12-17 16:32:38.093750
1669,-4.1,2021-12-17 16:32:38.109375
1670,-3.99,2021-12-17 16:32:38.125000
1671,-3.91,2021-12-17 16:32:38.140625
1672,-3.73,2021-12-17 16:32:38.156250
1673,-3.23,2021-12-17 16:32:38.171875
1674,-2.24,2021-12-17 16:32:38.187500
1675,-0.6,2021-12-17 16:32:38.203125
1676,1.71,2021-12-17 16:32:38.218750
1677,4.67,2021-12-17 16:32:38.234375
1678,8.17,2021-12-17 16:32:38.250000
1679,12.05,2021-12-17 16:32:38.265625
1680,16.14,2021-12-17 16:32:38.281250
1681,20.21,2021-12-17 16:32:38.296875
1682,24.04,2021-12-17 16:32:38.312500
1683,27.4,2021-12-17 16:32:38.328125
1684,30.15,2021-12-17 16:32:38.343750
1685,32.3,2021-12-17 16:32:38.359375
1686,33.97,2021-12-17 16:32:38.375000
1687,35.41,2021-12-17 16:32:38.390625
1688,36.86,2021-12-17 16:32:38.406250
1689,38.46,2021-12-17 16:32:38.421875
1690,40.19,2021-12-17 16:32:38.437500
1691,41.88,2021-12-17 16:32:38.453125
1692,43.28,2021-12-17 16:32:38.468750
1693,44.11,2021-12-17 16:32:38.484375
1694,44.13,2021-12-17 16:32:38.500000
1695,43.17,2021-12-17 16:32:38.515625
1696,41.13,2021-12-17 16:32:38.531250
1697,37.98,2021-12-17 16:32:38.546875
1698,33.83,2021-12-17 16:32:38.562500
1699,28.89,2021-12-17 16:32:38.578125
1700,23.5,2021-12-17 16:32:38.593750
1701,18.03,2021-12-17 16:32:38.609375
1702,12.79,2021-12-17 16:32:38.625000
1703,8.03,2021-12-17 16:32:38.640625
1704,3.82,2021-12-17 16:32:38.656250
1705,0.07,2021-12-17 16:32:38.671875
1706,-3.39,2021-12-17 16:32:38.687500
1707,-6.72,2021-12-17 16:32:38.703125
1708,-10.07,2021-12-17 16:32:38.718750
1709,-13.42,2021-12-17 16:32:38.734375
1710,-16.7,2021-12-17 16:32:38.750000
1711,-19.83,2021-12-17 16:32:38.765625
1712,-22.8,2021-12-17 16:32:38.781250
1713,-25.67,2021-12-17 16:32:38.796875
1714,-28.51,2021-12-17 16:32:38.812500
1715,-31.32,2021-12-17 16:32:38.828125
1716,-33.86,2021-12-17 16:32:38.843750
1717,-35.74,2021-12-17 16:32:38.859375
1718,-36.47,2021-12-17 16:32:38.875000
1719,-35.71,2021-12-17 16:32:38.890625
1720,-33.37,2021-12-17 16:32:38.906250
1721,-29.76,2021-12-17 16:32:38.921875
1722,-25.42,2021-12-17 16:32:38.937500
1723,-20.97,2021-12-17 16:32:38.953125
1724,-16.88,2021-12-17 16:32:38.968750
1725,-13.37,2021-12-17 16:32:38.984375
1726,-10.4,2021-12-17 16:32:39.000000
1727,-7.85,2021-12-17 16:32:39.015625
1728,-5.57,2021-12-17 16:32:39.031250
1729,-3.49,2021-12-17 16:32:39.046875
1730,-1.68,2021-12-17 16:32:39.062500
1731,-0.17,2021-12-17 16:32:39.078125
1732,1.04,2021-12-17 16:32:39.093750
1733,2.05,2021-12-17 16:32:39.109375
1734,3.0,2021-12-17 16:32:39.125000
1735,4.0,2021-12-17 16:32:39.140625
1736,5.06,2021-12-17 16:32:39.156250
1737,6.13,2021-12-17 16:32:39.171875
1738,7.1,2021-12-17 16:32:39.187500
1739,7.87,2021-12-17 16:32:39.203125
1740,8.4,2021-12-17 16:32:39.218750
1741,8.74,2021-12-17 16:32:39.234375
1742,8.95,2021-12-17 16:32:39.250000
1743,9.13,2021-12-17 16:32:39.265625
1744,9.32,2021-12-17 16:32:39.281250
1745,9.53,2021-12-17 16:32:39.296875
1746,9.74,2021-12-17 16:32:39.312500
1747,9.89,2021-12-17 16:32:39.328125
1748,9.91,2021-12-17 16:32:39.343750
1749,9.69,2021-12-17 16:32:39.359375
1750,9.16,2021-12-17 16:32:39.375000
1751,8.32,2021-12-17 16:32:39.390625
1752,7.26,2021-12-17 16:32:39.406250
1753,6.15,2021-12-17 16:32:39.421875
1754,5.15,2021-12-17 16:32:39.437500
1755,4.37,2021-12-17 16:32:39.453125
1756,3.78,2021-12-17 16:32:39.468750
1757,3.26,2021-12-17 16:32:39.484375
1758,2.66,2021-12-17 16:32:39.500000
1759,1.84,2021-12-17 16:32:39.515625
1760,0.75,2021-12-17 16:32:39.531250
1761,-0.59,2021-12-17 16:32:39.546875
1762,-2.09,2021-12-17 16:32:39.562500
1763,-3.66,2021-12-17 16:32:39.578125
1764,-5.21,2021-12-17 16:32:39.593750
1765,-6.69,2021-12-17 16:32:39.609375
1766,-8.03,2021-12-17 16:32:39.625000
1767,-9.19,2021-12-17 16:32:39.640625
1768,-10.17,2021-12-17 16:32:39.656250
1769,-11.0,2021-12-17 16:32:39.671875
1770,-11.75,2021-12-17 16:32:39.687500
1771,-12.51,2021-12-17 16:32:39.703125
1772,-13.4,2021-12-17 16:32:39.718750
1773,-14.54,2021-12-17 16:32:39.734375
1774,-16.0,2021-12-17 16:32:39.750000
1775,-17.74,2021-12-17 16:32:39.765625
1776,-19.58,2021-12-17 16:32:39.781250
1777,-21.19,2021-12-17 16:32:39.796875
1778,-22.17,2021-12-17 16:32:39.812500
1779,-22.12,2021-12-17 16:32:39.828125
1780,-20.81,2021-12-17 16:32:39.843750
1781,-18.32,2021-12-17 16:32:39.859375
1782,-14.95,2021-12-17 16:32:39.875000
1783,-11.18,2021-12-17 16:32:39.890625
1784,-7.47,2021-12-17 16:32:39.906250
1785,-4.12,2021-12-17 16:32:39.921875
1786,-1.25,2021-12-17 16:32:39.937500
1787,1.19,2021-12-17 16:32:39.953125
1788,3.2,2021-12-17 16:32:39.968750
1789,4.79,2021-12-17 16:32:39.984375
1790,5.89,2021-12-17 16:32:40.000000
1791,6.49,2021-12-17 16:32:40.015625
1792,6.66,2021-12-17 16:32:40.031250
1793,6.61,2021-12-17 16:32:40.046875
1794,6.54,2021-12-17 16:32:40.062500
1795,6.63,2021-12-17 16:32:40.078125
1796,6.92,2021-12-17 16:32:40.093750
1797,7.35,2021-12-17 16:32:40.109375
1798,7.85,2021-12-17 16:32:40.125000
1799,8.35,2021-12-17 16:32:40.140625
1800,8.82,2021-12-17 16:32:40.156250
1801,9.21,2021-12-17 16:32:40.171875
1802,9.47,2021-12-17 16:32:40.187500
1803,9.52,2021-12-17 16:32:40.203125
1804,9.31,2021-12-17 16:32:40.218750
1805,8.83,2021-12-17 16:32:40.234375
1806,8.09,2021-12-17 16:32:40.250000
1807,7.16,2021-12-17 16:32:40.265625
1808,6.08,2021-12-17 16:32:40.281250
1809,4.89,2021-12-17 16:32:40.296875
1810,3.61,2021-12-17 16:32:40.312500
1811,2.29,2021-12-17 16:32:40.328125
1812,0.99,2021-12-17 16:32:40.343750
1813,-0.24,2021-12-17 16:32:40.359375
1814,-1.4,2021-12-17 16:32:40.375000
1815,-2.49,2021-12-17 16:32:40.390625
1816,-3.54,2021-12-17 16:32:40.406250
1817,-4.56,2021-12-17 16:32:40.421875
1818,-5.53,2021-12-17 16:32:40.437500
1819,-6.41,2021-12-17 16:32:40.453125
1820,-7.18,2021-12-17 16:32:40.468750
1821,-7.91,2021-12-17 16:32:40.484375
1822,-8.74,2021-12-17 16:32:40.500000
1823,-9.82,2021-12-17 16:32:40.515625
1824,-11.26,2021-12-17 16:32:40.531250
1825,-13.05,2021-12-17 16:32:40.546875
1826,-15.09,2021-12-17 16:32:40.562500
1827,-17.12,2021-12-17 16:32:40.578125
1828,-18.85,2021-12-17 16:32:40.593750
1829,-19.99,2021-12-17 16:32:40.609375
1830,-20.3,2021-12-17 16:32:40.625000
1831,-19.65,2021-12-17 16:32:40.640625
1832,-18.0,2021-12-17 16:32:40.656250
1833,-15.45,2021-12-17 16:32:40.671875
1834,-12.25,2021-12-17 16:32:40.687500
1835,-8.75,2021-12-17 16:32:40.703125
1836,-5.36,2021-12-17 16:32:40.718750
1837,-2.43,2021-12-17 16:32:40.734375
1838,-0.16,2021-12-17 16:32:40.750000
1839,1.48,2021-12-17 16:32:40.765625
1840,2.66,2021-12-17 16:32:40.781250
1841,3.61,2021-12-17 16:32:40.796875
1842,4.52,2021-12-17 16:32:40.812500
1843,5.42,2021-12-17 16:32:40.828125
1844,6.28,2021-12-17 16:32:40.843750
1845,7.01,2021-12-17 16:32:40.859375
1846,7.58,2021-12-17 16:32:40.875000
1847,8.04,2021-12-17 16:32:40.890625
1848,8.48,2021-12-17 16:32:40.906250
1849,8.99,2021-12-17 16:32:40.921875
1850,9.6,2021-12-17 16:32:40.937500
1851,10.24,2021-12-17 16:32:40.953125
1852,10.84,2021-12-17 16:32:40.968750
1853,11.27,2021-12-17 16:32:40.984375
1854,11.5,2021-12-17 16:32:41.000000
1855,11.57,2021-12-17 16:32:41.015625
1856,11.52,2021-12-17 16:32:41.031250
1857,11.4,2021-12-17 16:32:41.046875
1858,11.21,2021-12-17 16:32:41.062500
1859,10.91,2021-12-17 16:32:41.078125
1860,10.45,2021-12-17 16:32:41.093750
1861,9.83,2021-12-17 16:32:41.109375
1862,9.07,2021-12-17 16:32:41.125000
1863,8.22,2021-12-17 16:32:41.140625
1864,7.33,2021-12-17 16:32:41.156250
1865,6.4,2021-12-17 16:32:41.171875
1866,5.41,2021-12-17 16:32:41.187500
1867,4.37,2021-12-17 16:32:41.203125
1868,3.32,2021-12-17 16:32:41.218750
1869,2.33,2021-12-17 16:32:41.234375
1870,1.46,2021-12-17 16:32:41.250000
1871,0.71,2021-12-17 16:32:41.265625
1872,-0.01,2021-12-17 16:32:41.281250
1873,-0.84,2021-12-17 16:32:41.296875
1874,-1.87,2021-12-17 16:32:41.312500
1875,-3.14,2021-12-17 16:32:41.328125
1876,-4.56,2021-12-17 16:32:41.343750
1877,-6.0,2021-12-17 16:32:41.359375
1878,-7.33,2021-12-17 16:32:41.375000
1879,-8.52,2021-12-17 16:32:41.390625
1880,-9.59,2021-12-17 16:32:41.406250
1881,-10.61,2021-12-17 16:32:41.421875
1882,-11.64,2021-12-17 16:32:41.437500
1883,-12.75,2021-12-17 16:32:41.453125
1884,-14.0,2021-12-17 16:32:41.468750
1885,-15.45,2021-12-17 16:32:41.484375
1886,-17.18,2021-12-17 16:32:41.500000
1887,-19.15,2021-12-17 16:32:41.515625
1888,-21.19,2021-12-17 16:32:41.531250
1889,-22.91,2021-12-17 16:32:41.546875
1890,-23.88,2021-12-17 16:32:41.562500
1891,-23.68,2021-12-17 16:32:41.578125
1892,-22.17,2021-12-17 16:32:41.593750
1893,-19.47,2021-12-17 16:32:41.609375
1894,-15.95,2021-12-17 16:32:41.625000
1895,-12.07,2021-12-17 16:32:41.640625
1896,-8.28,2021-12-17 16:32:41.656250
1897,-4.83,2021-12-17 16:32:41.671875
1898,-1.85,2021-12-17 16:32:41.687500
1899,0.66,2021-12-17 16:32:41.703125
1900,2.75,2021-12-17 16:32:41.718750
1901,4.47,2021-12-17 16:32:41.734375
1902,5.81,2021-12-17 16:32:41.750000
1903,6.78,2021-12-17 16:32:41.765625
1904,7.37,2021-12-17 16:32:41.781250
1905,7.65,2021-12-17 16:32:41.796875
1906,7.76,2021-12-17 16:32:41.812500
1907,7.9,2021-12-17 16:32:41.828125
1908,8.25,2021-12-17 16:32:41.843750
1909,8.88,2021-12-17 16:32:41.859375
1910,9.68,2021-12-17 16:32:41.875000
1911,10.47,2021-12-17 16:32:41.890625
1912,11.05,2021-12-17 16:32:41.906250
1913,11.31,2021-12-17 16:32:41.921875
1914,11.31,2021-12-17 16:32:41.937500
1915,11.16,2021-12-17 16:32:41.953125
1916,10.99,2021-12-17 16:32:41.968750
1917,10.83,2021-12-17 16:32:41.984375
1918,10.65,2021-12-17 16:32:42.000000
1919,10.38,2021-12-17 16:32:42.015625
1920,9.97,2021-12-17 16:32:42.031250
1921,9.4,2021-12-17 16:32:42.046875
1922,8.65,2021-12-17 16:32:42.062500
1923,7.75,2021-12-17 16:32:42.078125
1924,6.69,2021-12-17 16:32:42.093750
1925,5.5,2021-12-17 16:32:42.109375
1926,4.26,2021-12-17 16:32:42.125000
1927,3.09,2021-12-17 16:32:42.140625
1928,2.08,2021-12-17 16:32:42.156250
1929,1.23,2021-12-17 16:32:42.171875
1930,0.49,2021-12-17 16:32:42.187500
1931,-0.28,2021-12-17 16:32:42.203125
1932,-1.19,2021-12-17 16:32:42.218750
1933,-2.28,2021-12-17 16:32:42.234375
1934,-3.49,2021-12-17 16:32:42.250000
1935,-4.72,2021-12-17 16:32:42.265625
1936,-5.85,2021-12-17 16:32:42.281250
1937,-6.84,2021-12-17 16:32:42.296875
1938,-7.75,2021-12-17 16:32:42.312500
1939,-8.67,2021-12-17 16:32:42.328125
1940,-9.74,2021-12-17 16:32:42.343750
1941,-11.02,2021-12-17 16:32:42.359375
1942,-12.52,2021-12-17 16:32:42.375000
1943,-14.17,2021-12-17 16:32:42.390625
1944,-15.93,2021-12-17 16:32:42.406250
1945,-17.72,2021-12-17 16:32:42.421875
1946,-19.48,2021-12-17 16:32:42.437500
1947,-21.05,2021-12-17 16:32:42.453125
1948,-22.16,2021-12-17 16:32:42.468750
1949,-22.48,2021-12-17 16:32:42.484375
1950,-21.66,2021-12-17 16:32:42.500000
1951,-19.56,2021-12-17 16:32:42.515625
1952,-16.29,2021-12-17 16:32:42.531250
1953,-12.26,2021-12-17 16:32:42.546875
1954,-8.03,2021-12-17 16:32:42.562500
1955,-4.12,2021-12-17 16:32:42.578125
1956,-0.83,2021-12-17 16:32:42.593750
1957,1.77,2021-12-17 16:32:42.609375
1958,3.79,2021-12-17 16:32:42.625000
1959,5.4,2021-12-17 16:32:42.640625
1960,6.7,2021-12-17 16:32:42.656250
1961,7.73,2021-12-17 16:32:42.671875
1962,8.47,2021-12-17 16:32:42.687500
1963,8.92,2021-12-17 16:32:42.703125
1964,9.15,2021-12-17 16:32:42.718750
1965,9.28,2021-12-17 16:32:42.734375
1966,9.37,2021-12-17 16:32:42.750000
1967,9.48,2021-12-17 16:32:42.765625
1968,9.58,2021-12-17 16:32:42.781250
1969,9.62,2021-12-17 16:32:42.796875
1970,9.57,2021-12-17 16:32:42.812500
1971,9.48,2021-12-17 16:32:42.828125
1972,9.39,2021-12-17 16:32:42.843750
1973,9.33,2021-12-17 16:32:42.859375
1974,9.29,2021-12-17 16:32:42.875000
1975,9.21,2021-12-17 16:32:42.890625
1976,8.99,2021-12-17 16:32:42.906250
1977,8.56,2021-12-17 16:32:42.921875
1978,7.9,2021-12-17 16:32:42.937500
1979,7.02,2021-12-17 16:32:42.953125
1980,6.03,2021-12-17 16:32:42.968750
1981,5.03,2021-12-17 16:32:42.984375
1982,4.15,2021-12-17 16:32:43.000000
1983,3.44,2021-12-17 16:32:43.015625
1984,2.89,2021-12-17 16:32:43.031250
1985,2.38,2021-12-17 16:32:43.046875
1986,1.77,2021-12-17 16:32:43.062500
1987,0.92,2021-12-17 16:32:43.078125
1988,-0.22,2021-12-17 16:32:43.093750
1989,-1.59,2021-12-17 16:32:43.109375
1990,-3.09,2021-12-17 16:32:43.125000
1991,-4.58,2021-12-17 16:32:43.140625
1992,-5.94,2021-12-17 16:32:43.156250
1993,-7.12,2021-12-17 16:32:43.171875
1994,-8.08,2021-12-17 16:32:43.187500
1995,-8.81,2021-12-17 16:32:43.203125
1996,-9.36,2021-12-17 16:32:43.218750
1997,-9.83,2021-12-17 16:32:43.234375
1998,-10.38,2021-12-17 16:32:43.250000
1999,-11.21,2021-12-17 16:32:43.265625
2000,-12.51,2021-12-17 16:32:43.281250
2001,-14.34,2021-12-17 16:32:43.296875
2002,-16.67,2021-12-17 16:32:43.312500
2003,-19.26,2021-12-17 16:32:43.328125
2004,-21.71,2021-12-17 16:32:43.343750
2005,-23.52,2021-12-17 16:32:43.359375
2006,-24.26,2021-12-17 16:32:43.375000
2007,-23.64,2021-12-17 16:32:43.390625
2008,-21.67,2021-12-17 16:32:43.406250
2009,-18.61,2021-12-17 16:32:43.421875
2010,-14.91,2021-12-17 16:32:43.437500
2011,-11.05,2021-12-17 16:32:43.453125
2012,-7.4,2021-12-17 16:32:43.468750
2013,-4.15,2021-12-17 16:32:43.484375
2014,-1.32,2021-12-17 16:32:43.500000
2015,1.1,2021-12-17 16:32:43.515625
2016,3.08,2021-12-17 16:32:43.531250
2017,4.52,2021-12-17 16:32:43.546875
2018,5.36,2021-12-17 16:32:43.562500
2019,5.64,2021-12-17 16:32:43.578125
2020,5.49,2021-12-17 16:32:43.593750
2021,5.12,2021-12-17 16:32:43.609375
2022,4.71,2021-12-17 16:32:43.625000
2023,4.33,2021-12-17 16:32:43.640625
2024,4.03,2021-12-17 16:32:43.656250
2025,3.81,2021-12-17 16:32:43.671875
2026,3.73,2021-12-17 16:32:43.687500
2027,3.86,2021-12-17 16:32:43.703125
2028,4.26,2021-12-17 16:32:43.718750
2029,4.84,2021-12-17 16:32:43.734375
2030,5.41,2021-12-17 16:32:43.750000
2031,5.74,2021-12-17 16:32:43.765625
2032,5.69,2021-12-17 16:32:43.781250
2033,5.26,2021-12-17 16:32:43.796875
2034,4.58,2021-12-17 16:32:43.812500
2035,3.8,2021-12-17 16:32:43.828125
2036,2.97,2021-12-17 16:32:43.843750
2037,2.1,2021-12-17 16:32:43.859375
2038,1.18,2021-12-17 16:32:43.875000
2039,0.22,2021-12-17 16:32:43.890625
2040,-0.73,2021-12-17 16:32:43.906250
2041,-1.67,2021-12-17 16:32:43.921875
2042,-2.63,2021-12-17 16:32:43.937500
2043,-3.73,2021-12-17 16:32:43.953125
2044,-5.0,2021-12-17 16:32:43.968750
2045,-6.38,2021-12-17 16:32:43.984375
2046,-7.68,2021-12-17 16:32:44.000000
2047,-8.65,2021-12-17 16:32:44.015625
2048,-9.09,2021-12-17 16:32:44.031250
2049,-8.96,2021-12-17 16:32:44.046875
2050,-8.43,2021-12-17 16:32:44.062500
2051,-7.78,2021-12-17 16:32:44.078125
2052,-7.35,2021-12-17 16:32:44.093750
2053,-7.45,2021-12-17 16:32:44.109375
2054,-8.19,2021-12-17 16:32:44.125000
2055,-9.49,2021-12-17 16:32:44.140625
2056,-10.99,2021-12-17 16:32:44.156250
2057,-12.12,2021-12-17 16:32:44.171875
2058,-12.23,2021-12-17 16:32:44.187500
2059,-10.81,2021-12-17 16:32:44.203125
2060,-7.68,2021-12-17 16:32:44.218750
2061,-3.11,2021-12-17 16:32:44.234375
2062,2.31,2021-12-17 16:32:44.250000
2063,7.9,2021-12-17 16:32:44.265625
2064,13.17,2021-12-17 16:32:44.281250
2065,17.9,2021-12-17 16:32:44.296875
2066,22.09,2021-12-17 16:32:44.312500
2067,25.79,2021-12-17 16:32:44.328125
2068,28.83,2021-12-17 16:32:44.343750
2069,30.93,2021-12-17 16:32:44.359375
2070,31.84,2021-12-17 16:32:44.375000
2071,31.5,2021-12-17 16:32:44.390625
2072,30.25,2021-12-17 16:32:44.406250
2073,28.61,2021-12-17 16:32:44.421875
2074,27.07,2021-12-17 16:32:44.437500
2075,25.92,2021-12-17 16:32:44.453125
2076,25.2,2021-12-17 16:32:44.468750
2077,24.86,2021-12-17 16:32:44.484375
2078,24.92,2021-12-17 16:32:44.500000
2079,25.46,2021-12-17 16:32:44.515625
2080,26.47,2021-12-17 16:32:44.531250
2081,27.65,2021-12-17 16:32:44.546875
2082,28.4,2021-12-17 16:32:44.562500
2083,28.0,2021-12-17 16:32:44.578125
2084,25.99,2021-12-17 16:32:44.593750
2085,22.45,2021-12-17 16:32:44.609375
2086,18.09,2021-12-17 16:32:44.625000
2087,14.0,2021-12-17 16:32:44.640625
2088,11.16,2021-12-17 16:32:44.656250
2089,9.96,2021-12-17 16:32:44.671875
2090,10.1,2021-12-17 16:32:44.687500
2091,10.68,2021-12-17 16:32:44.703125
2092,10.8,2021-12-17 16:32:44.718750
2093,10.06,2021-12-17 16:32:44.734375
2094,8.89,2021-12-17 16:32:44.750000
2095,8.31,2021-12-17 16:32:44.765625
2096,9.4,2021-12-17 16:32:44.781250
2097,12.76,2021-12-17 16:32:44.796875
2098,18.18,2021-12-17 16:32:44.812500
2099,24.9,2021-12-17 16:32:44.828125
2100,31.99,2021-12-17 16:32:44.843750
2101,38.86,2021-12-17 16:32:44.859375
2102,45.27,2021-12-17 16:32:44.875000
2103,51.03,2021-12-17 16:32:44.890625
2104,55.67,2021-12-17 16:32:44.906250
2105,58.45,2021-12-17 16:32:44.921875
2106,58.85,2021-12-17 16:32:44.937500
2107,57.0,2021-12-17 16:32:44.953125
2108,53.9,2021-12-17 16:32:44.968750
2109,50.88,2021-12-17 16:32:44.984375
2110,48.74,2021-12-17 16:32:45.000000
2111,47.28,2021-12-17 16:32:45.015625
2112,45.32,2021-12-17 16:32:45.031250
2113,41.41,2021-12-17 16:32:45.046875
2114,34.66,2021-12-17 16:32:45.062500
2115,25.07,2021-12-17 16:32:45.078125
2116,13.34,2021-12-17 16:32:45.093750
2117,0.33,2021-12-17 16:32:45.109375
2118,-13.32,2021-12-17 16:32:45.125000
2119,-27.28,2021-12-17 16:32:45.140625
2120,-41.15,2021-12-17 16:32:45.156250
2121,-54.29,2021-12-17 16:32:45.171875
2122,-65.76,2021-12-17 16:32:45.187500
2123,-74.59,2021-12-17 16:32:45.203125
2124,-80.19,2021-12-17 16:32:45.218750
2125,-82.46,2021-12-17 16:32:45.234375
2126,-81.61,2021-12-17 16:32:45.250000
2127,-77.91,2021-12-17 16:32:45.265625
2128,-71.5,2021-12-17 16:32:45.281250
2129,-62.51,2021-12-17 16:32:45.296875
2130,-51.41,2021-12-17 16:32:45.312500
2131,-39.18,2021-12-17 16:32:45.328125
2132,-27.44,2021-12-17 16:32:45.343750
2133,-17.9,2021-12-17 16:32:45.359375
2134,-11.84,2021-12-17 16:32:45.375000
2135,-9.36,2021-12-17 16:32:45.390625
2136,-9.36,2021-12-17 16:32:45.406250
2137,-9.81,2021-12-17 16:32:45.421875
2138,-8.86,2021-12-17 16:32:45.437500
2139,-5.71,2021-12-17 16:32:45.453125
2140,-1.09,2021-12-17 16:32:45.468750
2141,3.13,2021-12-17 16:32:45.484375
2142,4.95,2021-12-17 16:32:45.500000
2143,3.27,2021-12-17 16:32:45.515625
2144,-1.65,2021-12-17 16:32:45.531250
2145,-8.48,2021-12-17 16:32:45.546875
2146,-15.63,2021-12-17 16:32:45.562500
2147,-22.03,2021-12-17 16:32:45.578125
2148,-27.32,2021-12-17 16:32:45.593750
2149,-31.64,2021-12-17 16:32:45.609375
2150,-35.08,2021-12-17 16:32:45.625000
2151,-37.44,2021-12-17 16:32:45.640625
2152,-38.17,2021-12-17 16:32:45.656250
2153,-36.78,2021-12-17 16:32:45.671875
2154,-33.09,2021-12-17 16:32:45.687500
2155,-27.51,2021-12-17 16:32:45.703125
2156,-20.88,2021-12-17 16:32:45.718750
2157,-14.31,2021-12-17 16:32:45.734375
2158,-8.75,2021-12-17 16:32:45.750000
2159,-4.74,2021-12-17 16:32:45.765625
2160,-2.22,2021-12-17 16:32:45.781250
2161,-0.56,2021-12-17 16:32:45.796875
2162,1.13,2021-12-17 16:32:45.812500
2163,3.62,2021-12-17 16:32:45.828125
2164,7.22,2021-12-17 16:32:45.843750
2165,11.66,2021-12-17 16:32:45.859375
2166,16.32,2021-12-17 16:32:45.875000
2167,20.62,2021-12-17 16:32:45.890625
2168,24.36,2021-12-17 16:32:45.906250
2169,27.76,2021-12-17 16:32:45.921875
2170,31.27,2021-12-17 16:32:45.937500
2171,35.04,2021-12-17 16:32:45.953125
2172,38.69,2021-12-17 16:32:45.968750
2173,41.29,2021-12-17 16:32:45.984375
2174,41.78,2021-12-17 16:32:46.000000
2175,39.45,2021-12-17 16:32:46.015625
2176,34.35,2021-12-17 16:32:46.031250
2177,27.32,2021-12-17 16:32:46.046875
2178,19.76,2021-12-17 16:32:46.062500
2179,13.18,2021-12-17 16:32:46.078125
2180,8.79,2021-12-17 16:32:46.093750
2181,7.24,2021-12-17 16:32:46.109375
2182,8.5,2021-12-17 16:32:46.125000
2183,11.84,2021-12-17 16:32:46.140625
2184,15.95,2021-12-17 16:32:46.156250
2185,19.15,2021-12-17 16:32:46.171875
2186,19.91,2021-12-17 16:32:46.187500
2187,17.42,2021-12-17 16:32:46.203125
2188,12.19,2021-12-17 16:32:46.218750
2189,6.04,2021-12-17 16:32:46.234375
2190,1.65,2021-12-17 16:32:46.250000
2191,1.49,2021-12-17 16:32:46.265625
2192,6.87,2021-12-17 16:32:46.281250
2193,17.41,2021-12-17 16:32:46.296875
2194,31.34,2021-12-17 16:32:46.312500
2195,46.36,2021-12-17 16:32:46.328125
2196,60.61,2021-12-17 16:32:46.343750
2197,73.29,2021-12-17 16:32:46.359375
2198,84.61,2021-12-17 16:32:46.375000
2199,95.25,2021-12-17 16:32:46.390625
2200,105.46,2021-12-17 16:32:46.406250
2201,114.64,2021-12-17 16:32:46.421875
2202,121.37,2021-12-17 16:32:46.437500
2203,124.06,2021-12-17 16:32:46.453125
2204,121.92,2021-12-17 16:32:46.468750
2205,115.68,2021-12-17 16:32:46.484375
2206,107.56,2021-12-17 16:32:46.500000
2207,100.26,2021-12-17 16:32:46.515625
2208,95.66,2021-12-17 16:32:46.531250
2209,93.7,2021-12-17 16:32:46.546875
2210,92.38,2021-12-17 16:32:46.562500
2211,88.74,2021-12-17 16:32:46.578125
2212,80.5,2021-12-17 16:32:46.593750
2213,67.25,2021-12-17 16:32:46.609375
2214,50.68,2021-12-17 16:32:46.625000
2215,33.65,2021-12-17 16:32:46.640625
2216,18.88,2021-12-17 16:32:46.656250
2217,8.01,2021-12-17 16:32:46.671875
2218,1.35,2021-12-17 16:32:46.687500
2219,-1.65,2021-12-17 16:32:46.703125
2220,-1.71,2021-12-17 16:32:46.718750
2221,0.58,2021-12-17 16:32:46.734375
2222,4.52,2021-12-17 16:32:46.750000
2223,8.92,2021-12-17 16:32:46.765625
2224,11.97,2021-12-17 16:32:46.781250
2225,11.67,2021-12-17 16:32:46.796875
2226,6.72,2021-12-17 16:32:46.812500
2227,-2.82,2021-12-17 16:32:46.828125
2228,-15.34,2021-12-17 16:32:46.843750
2229,-28.22,2021-12-17 16:32:46.859375
2230,-38.91,2021-12-17 16:32:46.875000
2231,-45.98,2021-12-17 16:32:46.890625
2232,-49.69,2021-12-17 16:32:46.906250
2233,-51.8,2021-12-17 16:32:46.921875
2234,-54.62,2021-12-17 16:32:46.937500
2235,-59.92,2021-12-17 16:32:46.953125
2236,-68.22,2021-12-17 16:32:46.968750
2237,-78.63,2021-12-17 16:32:46.984375
2238,-89.52,2021-12-17 16:32:47.000000
2239,-99.36,2021-12-17 16:32:47.015625
2240,-107.31,2021-12-17 16:32:47.031250
2241,-113.33,2021-12-17 16:32:47.046875
2242,-117.65,2021-12-17 16:32:47.062500
2243,-120.35,2021-12-17 16:32:47.078125
2244,-121.12,2021-12-17 16:32:47.093750
2245,-119.43,2021-12-17 16:32:47.109375
2246,-114.98,2021-12-17 16:32:47.125000
2247,-108.11,2021-12-17 16:32:47.140625
2248,-99.88,2021-12-17 16:32:47.156250
2249,-91.57,2021-12-17 16:32:47.171875
2250,-84.19,2021-12-17 16:32:47.187500
2251,-78.06,2021-12-17 16:32:47.203125
2252,-72.78,2021-12-17 16:32:47.218750
2253,-67.55,2021-12-17 16:32:47.234375
2254,-61.7,2021-12-17 16:32:47.250000
2255,-55.02,2021-12-17 16:32:47.265625
2256,-47.88,2021-12-17 16:32:47.281250
2257,-41.0,2021-12-17 16:32:47.296875
2258,-35.1,2021-12-17 16:32:47.312500
2259,-30.57,2021-12-17 16:32:47.328125
2260,-27.34,2021-12-17 16:32:47.343750
2261,-24.96,2021-12-17 16:32:47.359375
2262,-22.86,2021-12-17 16:32:47.375000
2263,-20.66,2021-12-17 16:32:47.390625
2264,-18.33,2021-12-17 16:32:47.406250
2265,-16.19,2021-12-17 16:32:47.421875
2266,-14.65,2021-12-17 16:32:47.437500
2267,-13.95,2021-12-17 16:32:47.453125
2268,-14.07,2021-12-17 16:32:47.468750
2269,-14.66,2021-12-17 16:32:47.484375
2270,-15.38,2021-12-17 16:32:47.500000
2271,-16.01,2021-12-17 16:32:47.515625
2272,-16.52,2021-12-17 16:32:47.531250
2273,-16.95,2021-12-17 16:32:47.546875
2274,-17.2,2021-12-17 16:32:47.562500
2275,-16.97,2021-12-17 16:32:47.578125
2276,-15.83,2021-12-17 16:32:47.593750
2277,-13.49,2021-12-17 16:32:47.609375
2278,-9.97,2021-12-17 16:32:47.625000
2279,-5.67,2021-12-17 16:32:47.640625
2280,-1.15,2021-12-17 16:32:47.656250
2281,3.05,2021-12-17 16:32:47.671875
2282,6.62,2021-12-17 16:32:47.687500
2283,9.52,2021-12-17 16:32:47.703125
2284,11.92,2021-12-17 16:32:47.718750
2285,14.0,2021-12-17 16:32:47.734375
2286,15.9,2021-12-17 16:32:47.750000
2287,17.63,2021-12-17 16:32:47.765625
2288,19.13,2021-12-17 16:32:47.781250
2289,20.25,2021-12-17 16:32:47.796875
2290,20.92,2021-12-17 16:32:47.812500
2291,21.07,2021-12-17 16:32:47.828125
2292,20.78,2021-12-17 16:32:47.843750
2293,20.18,2021-12-17 16:32:47.859375
2294,19.46,2021-12-17 16:32:47.875000
2295,18.73,2021-12-17 16:32:47.890625
2296,18.07,2021-12-17 16:32:47.906250
2297,17.46,2021-12-17 16:32:47.921875
2298,16.88,2021-12-17 16:32:47.937500
2299,16.33,2021-12-17 16:32:47.953125
2300,15.86,2021-12-17 16:32:47.968750
2301,15.48,2021-12-17 16:32:47.984375
2302,15.21,2021-12-17 16:32:48.000000
2303,14.97,2021-12-17 16:32:48.015625
2304,14.67,2021-12-17 16:32:48.031250
2305,14.24,2021-12-17 16:32:48.046875
2306,13.65,2021-12-17 16:32:48.062500
2307,12.96,2021-12-17 16:32:48.078125
2308,12.29,2021-12-17 16:32:48.093750
2309,11.74,2021-12-17 16:32:48.109375
2310,11.37,2021-12-17 16:32:48.125000
2311,11.16,2021-12-17 16:32:48.140625
2312,11.0,2021-12-17 16:32:48.156250
2313,10.77,2021-12-17 16:32:48.171875
2314,10.37,2021-12-17 16:32:48.187500
2315,9.72,2021-12-17 16:32:48.203125
2316,8.83,2021-12-17 16:32:48.218750
2317,7.72,2021-12-17 16:32:48.234375
2318,6.49,2021-12-17 16:32:48.250000
2319,5.22,2021-12-17 16:32:48.265625
2320,4.01,2021-12-17 16:32:48.281250
2321,2.92,2021-12-17 16:32:48.296875
2322,2.03,2021-12-17 16:32:48.312500
2323,1.35,2021-12-17 16:32:48.328125
2324,0.84,2021-12-17 16:32:48.343750
2325,0.43,2021-12-17 16:32:48.359375
2326,0.02,2021-12-17 16:32:48.375000
2327,-0.45,2021-12-17 16:32:48.390625
2328,-0.98,2021-12-17 16:32:48.406250
2329,-1.52,2021-12-17 16:32:48.421875
2330,-2.03,2021-12-17 16:32:48.437500
2331,-2.52,2021-12-17 16:32:48.453125
2332,-3.08,2021-12-17 16:32:48.468750
2333,-3.8,2021-12-17 16:32:48.484375
2334,-4.75,2021-12-17 16:32:48.500000
2335,-5.85,2021-12-17 16:32:48.515625
2336,-6.95,2021-12-17 16:32:48.531250
2337,-7.86,2021-12-17 16:32:48.546875
2338,-8.43,2021-12-17 16:32:48.562500
2339,-8.69,2021-12-17 16:32:48.578125
2340,-8.77,2021-12-17 16:32:48.593750
2341,-8.88,2021-12-17 16:32:48.609375
2342,-9.23,2021-12-17 16:32:48.625000
2343,-9.97,2021-12-17 16:32:48.640625
2344,-11.16,2021-12-17 16:32:48.656250
2345,-12.7,2021-12-17 16:32:48.671875
2346,-14.4,2021-12-17 16:32:48.687500
2347,-15.92,2021-12-17 16:32:48.703125
2348,-16.86,2021-12-17 16:32:48.718750
2349,-16.91,2021-12-17 16:32:48.734375
2350,-15.9,2021-12-17 16:32:48.750000
2351,-13.89,2021-12-17 16:32:48.765625
2352,-11.14,2021-12-17 16:32:48.781250
2353,-8.02,2021-12-17 16:32:48.796875
2354,-4.89,2021-12-17 16:32:48.812500
2355,-2.01,2021-12-17 16:32:48.828125
2356,0.46,2021-12-17 16:32:48.843750
2357,2.5,2021-12-17 16:32:48.859375
2358,4.13,2021-12-17 16:32:48.875000
2359,5.38,2021-12-17 16:32:48.890625
2360,6.29,2021-12-17 16:32:48.906250
2361,6.9,2021-12-17 16:32:48.921875
2362,7.21,2021-12-17 16:32:48.937500
2363,7.28,2021-12-17 16:32:48.953125
2364,7.15,2021-12-17 16:32:48.968750
2365,6.91,2021-12-17 16:32:48.984375
2366,6.66,2021-12-17 16:32:49.000000
2367,6.5,2021-12-17 16:32:49.015625
2368,6.5,2021-12-17 16:32:49.031250
2369,6.66,2021-12-17 16:32:49.046875
2370,6.97,2021-12-17 16:32:49.062500
2371,7.37,2021-12-17 16:32:49.078125
2372,7.82,2021-12-17 16:32:49.093750
2373,8.26,2021-12-17 16:32:49.109375
2374,8.66,2021-12-17 16:32:49.125000
2375,8.99,2021-12-17 16:32:49.140625
2376,9.22,2021-12-17 16:32:49.156250
2377,9.3,2021-12-17 16:32:49.171875
2378,9.18,2021-12-17 16:32:49.187500
2379,8.78,2021-12-17 16:32:49.203125
2380,8.13,2021-12-17 16:32:49.218750
2381,7.29,2021-12-17 16:32:49.234375
2382,6.44,2021-12-17 16:32:49.250000
2383,5.77,2021-12-17 16:32:49.265625
2384,5.41,2021-12-17 16:32:49.281250
2385,5.35,2021-12-17 16:32:49.296875
2386,5.43,2021-12-17 16:32:49.312500
2387,5.48,2021-12-17 16:32:49.328125
2388,5.32,2021-12-17 16:32:49.343750
2389,4.91,2021-12-17 16:32:49.359375
2390,4.29,2021-12-17 16:32:49.375000
2391,3.55,2021-12-17 16:32:49.390625
2392,2.76,2021-12-17 16:32:49.406250
2393,1.94,2021-12-17 16:32:49.421875
2394,1.11,2021-12-17 16:32:49.437500
2395,0.28,2021-12-17 16:32:49.453125
2396,-0.52,2021-12-17 16:32:49.468750
2397,-1.25,2021-12-17 16:32:49.484375
2398,-1.94,2021-12-17 16:32:49.500000
2399,-2.7,2021-12-17 16:32:49.515625
2400,-3.65,2021-12-17 16:32:49.531250
2401,-4.86,2021-12-17 16:32:49.546875
2402,-6.3,2021-12-17 16:32:49.562500
2403,-7.83,2021-12-17 16:32:49.578125
2404,-9.23,2021-12-17 16:32:49.593750
2405,-10.38,2021-12-17 16:32:49.609375
2406,-11.24,2021-12-17 16:32:49.625000
2407,-11.93,2021-12-17 16:32:49.640625
2408,-12.69,2021-12-17 16:32:49.656250
2409,-13.69,2021-12-17 16:32:49.671875
2410,-15.04,2021-12-17 16:32:49.687500
2411,-16.6,2021-12-17 16:32:49.703125
2412,-18.08,2021-12-17 16:32:49.718750
2413,-19.1,2021-12-17 16:32:49.734375
2414,-19.34,2021-12-17 16:32:49.750000
2415,-18.64,2021-12-17 16:32:49.765625
2416,-17.06,2021-12-17 16:32:49.781250
2417,-14.83,2021-12-17 16:32:49.796875
2418,-12.25,2021-12-17 16:32:49.812500
2419,-9.6,2021-12-17 16:32:49.828125
2420,-7.09,2021-12-17 16:32:49.843750
2421,-4.79,2021-12-17 16:32:49.859375
2422,-2.74,2021-12-17 16:32:49.875000
2423,-0.99,2021-12-17 16:32:49.890625
2424,0.43,2021-12-17 16:32:49.906250
2425,1.5,2021-12-17 16:32:49.921875
2426,2.27,2021-12-17 16:32:49.937500
2427,2.86,2021-12-17 16:32:49.953125
2428,3.42,2021-12-17 16:32:49.968750
2429,4.05,2021-12-17 16:32:49.984375
2430,4.72,2021-12-17 16:32:50.000000
2431,5.29,2021-12-17 16:32:50.015625
2432,5.59,2021-12-17 16:32:50.031250
2433,5.56,2021-12-17 16:32:50.046875
2434,5.28,2021-12-17 16:32:50.062500
2435,4.99,2021-12-17 16:32:50.078125
2436,4.94,2021-12-17 16:32:50.093750
2437,5.28,2021-12-17 16:32:50.109375
2438,5.98,2021-12-17 16:32:50.125000
2439,6.91,2021-12-17 16:32:50.140625
2440,7.92,2021-12-17 16:32:50.156250
2441,8.94,2021-12-17 16:32:50.171875
2442,9.94,2021-12-17 16:32:50.187500
2443,10.87,2021-12-17 16:32:50.203125
2444,11.64,2021-12-17 16:32:50.218750
2445,12.08,2021-12-17 16:32:50.234375
2446,12.08,2021-12-17 16:32:50.250000
2447,11.59,2021-12-17 16:32:50.265625
2448,10.75,2021-12-17 16:32:50.281250
2449,9.75,2021-12-17 16:32:50.296875
2450,8.79,2021-12-17 16:32:50.312500
2451,7.94,2021-12-17 16:32:50.328125
2452,7.16,2021-12-17 16:32:50.343750
2453,6.34,2021-12-17 16:32:50.359375
2454,5.38,2021-12-17 16:32:50.375000
2455,4.26,2021-12-17 16:32:50.390625
2456,3.06,2021-12-17 16:32:50.406250
2457,1.91,2021-12-17 16:32:50.421875
2458,0.93,2021-12-17 16:32:50.437500
2459,0.16,2021-12-17 16:32:50.453125
2460,-0.45,2021-12-17 16:32:50.468750
2461,-1.02,2021-12-17 16:32:50.484375
2462,-1.64,2021-12-17 16:32:50.500000
2463,-2.39,2021-12-17 16:32:50.515625
2464,-3.22,2021-12-17 16:32:50.531250
2465,-4.03,2021-12-17 16:32:50.546875
2466,-4.69,2021-12-17 16:32:50.562500
2467,-5.13,2021-12-17 16:32:50.578125
2468,-5.38,2021-12-17 16:32:50.593750
2469,-5.59,2021-12-17 16:32:50.609375
2470,-5.93,2021-12-17 16:32:50.625000
2471,-6.53,2021-12-17 16:32:50.640625
2472,-7.46,2021-12-17 16:32:50.656250
2473,-8.65,2021-12-17 16:32:50.671875
2474,-9.96,2021-12-17 16:32:50.687500
2475,-11.19,2021-12-17 16:32:50.703125
2476,-12.16,2021-12-17 16:32:50.718750
2477,-12.63,2021-12-17 16:32:50.734375
2478,-12.42,2021-12-17 16:32:50.750000
2479,-11.34,2021-12-17 16:32:50.765625
2480,-9.32,2021-12-17 16:32:50.781250
2481,-6.45,2021-12-17 16:32:50.796875
2482,-3.06,2021-12-17 16:32:50.812500
2483,0.43,2021-12-17 16:32:50.828125
2484,3.57,2021-12-17 16:32:50.843750
2485,6.1,2021-12-17 16:32:50.859375
2486,8.04,2021-12-17 16:32:50.875000
2487,9.64,2021-12-17 16:32:50.890625
2488,11.27,2021-12-17 16:32:50.906250
2489,13.21,2021-12-17 16:32:50.921875
2490,15.54,2021-12-17 16:32:50.937500
2491,18.13,2021-12-17 16:32:50.953125
2492,20.69,2021-12-17 16:32:50.968750
2493,22.93,2021-12-17 16:32:50.984375
2494,24.7,2021-12-17 16:32:51.000000
2495,26.02,2021-12-17 16:32:51.015625
2496,27.11,2021-12-17 16:32:51.031250
2497,28.31,2021-12-17 16:32:51.046875
2498,29.93,2021-12-17 16:32:51.062500
2499,32.09,2021-12-17 16:32:51.078125
2500,34.65,2021-12-17 16:32:51.093750
2501,37.25,2021-12-17 16:32:51.109375
2502,39.49,2021-12-17 16:32:51.125000
2503,41.15,2021-12-17 16:32:51.140625
2504,42.34,2021-12-17 16:32:51.156250
2505,43.43,2021-12-17 16:32:51.171875
2506,44.9,2021-12-17 16:32:51.187500
2507,47.04,2021-12-17 16:32:51.203125
2508,49.9,2021-12-17 16:32:51.218750
2509,53.27,2021-12-17 16:32:51.234375
2510,56.91,2021-12-17 16:32:51.250000
2511,60.63,2021-12-17 16:32:51.265625
2512,64.33,2021-12-17 16:32:51.281250
2513,67.89,2021-12-17 16:32:51.296875
2514,71.16,2021-12-17 16:32:51.312500
2515,73.97,2021-12-17 16:32:51.328125
2516,76.38,2021-12-17 16:32:51.343750
2517,78.76,2021-12-17 16:32:51.359375
2518,81.69,2021-12-17 16:32:51.375000
2519,85.52,2021-12-17 16:32:51.390625
2520,89.79,2021-12-17 16:32:51.406250
2521,93.04,2021-12-17 16:32:51.421875
2522,93.02,2021-12-17 16:32:51.437500
2523,87.49,2021-12-17 16:32:51.453125
2524,75.08,2021-12-17 16:32:51.468750
2525,55.93,2021-12-17 16:32:51.484375
2526,31.7,2021-12-17 16:32:51.500000
2527,4.95,2021-12-17 16:32:51.515625
2528,-21.67,2021-12-17 16:32:51.531250
2529,-46.16,2021-12-17 16:32:51.546875
2530,-67.39,2021-12-17 16:32:51.562500
2531,-85.08,2021-12-17 16:32:51.578125
2532,-99.42,2021-12-17 16:32:51.593750
2533,-110.74,2021-12-17 16:32:51.609375
2534,-119.43,2021-12-17 16:32:51.625000
2535,-125.82,2021-12-17 16:32:51.640625
2536,-130.27,2021-12-17 16:32:51.656250
2537,-133.11,2021-12-17 16:32:51.671875
2538,-134.59,2021-12-17 16:32:51.687500
2539,-134.82,2021-12-17 16:32:51.703125
2540,-133.73,2021-12-17 16:32:51.718750
2541,-131.09,2021-12-17 16:32:51.734375
2542,-126.62,2021-12-17 16:32:51.750000
2543,-120.14,2021-12-17 16:32:51.765625
2544,-111.75,2021-12-17 16:32:51.781250
2545,-101.93,2021-12-17 16:32:51.796875
2546,-91.54,2021-12-17 16:32:51.812500
2547,-81.54,2021-12-17 16:32:51.828125
2548,-72.75,2021-12-17 16:32:51.843750
2549,-65.48,2021-12-17 16:32:51.859375
2550,-59.54,2021-12-17 16:32:51.875000
2551,-54.37,2021-12-17 16:32:51.890625
2552,-49.45,2021-12-17 16:32:51.906250
2553,-44.52,2021-12-17 16:32:51.921875
2554,-39.68,2021-12-17 16:32:51.937500
2555,-35.24,2021-12-17 16:32:51.953125
2556,-31.48,2021-12-17 16:32:51.968750
2557,-28.47,2021-12-17 16:32:51.984375
2558,-26.05,2021-12-17 16:32:52.000000
2559,-23.93,2021-12-17 16:32:52.015625
2560,-21.86,2021-12-17 16:32:52.031250
2561,-19.73,2021-12-17 16:32:52.046875
2562,-17.53,2021-12-17 16:32:52.062500
2563,-15.32,2021-12-17 16:32:52.078125
2564,-13.14,2021-12-17 16:32:52.093750
2565,-11.02,2021-12-17 16:32:52.109375
2566,-9.0,2021-12-17 16:32:52.125000
2567,-7.15,2021-12-17 16:32:52.140625
2568,-5.52,2021-12-17 16:32:52.156250
2569,-4.17,2021-12-17 16:32:52.171875
2570,-3.12,2021-12-17 16:32:52.187500
2571,-2.37,2021-12-17 16:32:52.203125
2572,-1.87,2021-12-17 16:32:52.218750
2573,-1.54,2021-12-17 16:32:52.234375
2574,-1.27,2021-12-17 16:32:52.250000
2575,-0.88,2021-12-17 16:32:52.265625
2576,-0.22,2021-12-17 16:32:52.281250
2577,0.73,2021-12-17 16:32:52.296875
2578,1.83,2021-12-17 16:32:52.312500
2579,2.82,2021-12-17 16:32:52.328125
2580,3.38,2021-12-17 16:32:52.343750
2581,3.24,2021-12-17 16:32:52.359375
2582,2.31,2021-12-17 16:32:52.375000
2583,0.68,2021-12-17 16:32:52.390625
2584,-1.4,2021-12-17 16:32:52.406250
2585,-3.6,2021-12-17 16:32:52.421875
2586,-5.59,2021-12-17 16:32:52.437500
2587,-7.12,2021-12-17 16:32:52.453125
2588,-8.1,2021-12-17 16:32:52.468750
2589,-8.58,2021-12-17 16:32:52.484375
2590,-8.7,2021-12-17 16:32:52.500000
2591,-8.65,2021-12-17 16:32:52.515625
2592,-8.66,2021-12-17 16:32:52.531250
2593,-8.91,2021-12-17 16:32:52.546875
2594,-9.56,2021-12-17 16:32:52.562500
2595,-10.72,2021-12-17 16:32:52.578125
2596,-12.35,2021-12-17 16:32:52.593750
2597,-14.35,2021-12-17 16:32:52.609375
2598,-16.53,2021-12-17 16:32:52.625000
2599,-18.75,2021-12-17 16:32:52.640625
2600,-20.94,2021-12-17 16:32:52.656250
2601,-23.2,2021-12-17 16:32:52.671875
2602,-25.61,2021-12-17 16:32:52.687500
2603,-28.1,2021-12-17 16:32:52.703125
2604,-30.34,2021-12-17 16:32:52.718750
2605,-31.79,2021-12-17 16:32:52.734375
2606,-31.86,2021-12-17 16:32:52.750000
2607,-30.24,2021-12-17 16:32:52.765625
2608,-27.02,2021-12-17 16:32:52.781250
2609,-22.67,2021-12-17 16:32:52.796875
2610,-17.87,2021-12-17 16:32:52.812500
2611,-13.23,2021-12-17 16:32:52.828125
2612,-9.19,2021-12-17 16:32:52.843750
2613,-5.9,2021-12-17 16:32:52.859375
2614,-3.33,2021-12-17 16:32:52.875000
2615,-1.32,2021-12-17 16:32:52.890625
2616,0.36,2021-12-17 16:32:52.906250
2617,1.94,2021-12-17 16:32:52.921875
2618,3.66,2021-12-17 16:32:52.937500
2619,5.65,2021-12-17 16:32:52.953125
2620,7.9,2021-12-17 16:32:52.968750
2621,10.24,2021-12-17 16:32:52.984375
2622,12.35,2021-12-17 16:32:53.000000
2623,13.91,2021-12-17 16:32:53.015625
2624,14.72,2021-12-17 16:32:53.031250
2625,14.76,2021-12-17 16:32:53.046875
2626,14.23,2021-12-17 16:32:53.062500
2627,13.45,2021-12-17 16:32:53.078125
2628,12.69,2021-12-17 16:32:53.093750
2629,12.12,2021-12-17 16:32:53.109375
2630,11.72,2021-12-17 16:32:53.125000
2631,11.38,2021-12-17 16:32:53.140625
2632,11.1,2021-12-17 16:32:53.156250
2633,10.93,2021-12-17 16:32:53.171875
2634,11.02,2021-12-17 16:32:53.187500
2635,11.41,2021-12-17 16:32:53.203125
2636,12.0,2021-12-17 16:32:53.218750
2637,12.51,2021-12-17 16:32:53.234375
2638,12.69,2021-12-17 16:32:53.250000
2639,12.41,2021-12-17 16:32:53.265625
2640,11.81,2021-12-17 16:32:53.281250
2641,11.12,2021-12-17 16:32:53.296875
2642,10.52,2021-12-17 16:32:53.312500
2643,9.93,2021-12-17 16:32:53.328125
2644,9.12,2021-12-17 16:32:53.343750
2645,7.82,2021-12-17 16:32:53.359375
2646,5.98,2021-12-17 16:32:53.375000
2647,3.82,2021-12-17 16:32:53.390625
2648,1.8,2021-12-17 16:32:53.406250
2649,0.32,2021-12-17 16:32:53.421875
2650,-0.39,2021-12-17 16:32:53.437500
2651,-0.46,2021-12-17 16:32:53.453125
2652,-0.22,2021-12-17 16:32:53.468750
2653,-0.09,2021-12-17 16:32:53.484375
2654,-0.33,2021-12-17 16:32:53.500000
2655,-1.02,2021-12-17 16:32:53.515625
2656,-2.01,2021-12-17 16:32:53.531250
2657,-3.01,2021-12-17 16:32:53.546875
2658,-3.76,2021-12-17 16:32:53.562500
2659,-4.12,2021-12-17 16:32:53.578125
2660,-4.21,2021-12-17 16:32:53.593750
2661,-4.36,2021-12-17 16:32:53.609375
2662,-5.05,2021-12-17 16:32:53.625000
2663,-6.68,2021-12-17 16:32:53.640625
2664,-9.42,2021-12-17 16:32:53.656250
2665,-13.09,2021-12-17 16:32:53.671875
2666,-17.15,2021-12-17 16:32:53.687500
2667,-20.86,2021-12-17 16:32:53.703125
2668,-23.48,2021-12-17 16:32:53.718750
2669,-24.39,2021-12-17 16:32:53.734375
2670,-23.28,2021-12-17 16:32:53.750000
2671,-20.21,2021-12-17 16:32:53.765625
2672,-15.58,2021-12-17 16:32:53.781250
2673,-10.09,2021-12-17 16:32:53.796875
2674,-4.48,2021-12-17 16:32:53.812500
2675,0.57,2021-12-17 16:32:53.828125
2676,4.67,2021-12-17 16:32:53.843750
2677,7.71,2021-12-17 16:32:53.859375
2678,9.81,2021-12-17 16:32:53.875000
2679,11.18,2021-12-17 16:32:53.890625
2680,12.01,2021-12-17 16:32:53.906250
2681,12.46,2021-12-17 16:32:53.921875
2682,12.65,2021-12-17 16:32:53.937500
2683,12.75,2021-12-17 16:32:53.953125
2684,12.95,2021-12-17 16:32:53.968750
2685,13.44,2021-12-17 16:32:53.984375
2686,14.28,2021-12-17 16:32:54.000000
2687,15.37,2021-12-17 16:32:54.015625
2688,16.51,2021-12-17 16:32:54.031250
2689,17.43,2021-12-17 16:32:54.046875
2690,17.94,2021-12-17 16:32:54.062500
2691,18.01,2021-12-17 16:32:54.078125
2692,17.77,2021-12-17 16:32:54.093750
2693,17.49,2021-12-17 16:32:54.109375
2694,17.46,2021-12-17 16:32:54.125000
2695,17.79,2021-12-17 16:32:54.140625
2696,18.4,2021-12-17 16:32:54.156250
2697,18.95,2021-12-17 16:32:54.171875
2698,19.04,2021-12-17 16:32:54.187500
2699,18.41,2021-12-17 16:32:54.203125
2700,17.06,2021-12-17 16:32:54.218750
2701,15.3,2021-12-17 16:32:54.234375
2702,13.53,2021-12-17 16:32:54.250000
2703,12.06,2021-12-17 16:32:54.265625
2704,10.91,2021-12-17 16:32:54.281250
2705,9.89,2021-12-17 16:32:54.296875
2706,8.74,2021-12-17 16:32:54.312500
2707,7.31,2021-12-17 16:32:54.328125
2708,5.66,2021-12-17 16:32:54.343750
2709,4.0,2021-12-17 16:32:54.359375
2710,2.57,2021-12-17 16:32:54.375000
2711,1.47,2021-12-17 16:32:54.390625
2712,0.67,2021-12-17 16:32:54.406250
2713,0.01,2021-12-17 16:32:54.421875
2714,-0.69,2021-12-17 16:32:54.437500
2715,-1.61,2021-12-17 16:32:54.453125
2716,-2.8,2021-12-17 16:32:54.468750
2717,-4.21,2021-12-17 16:32:54.484375
2718,-5.7,2021-12-17 16:32:54.500000
2719,-7.06,2021-12-17 16:32:54.515625
2720,-8.18,2021-12-17 16:32:54.531250
2721,-9.01,2021-12-17 16:32:54.546875
2722,-9.69,2021-12-17 16:32:54.562500
2723,-10.49,2021-12-17 16:32:54.578125
2724,-11.67,2021-12-17 16:32:54.593750
2725,-13.44,2021-12-17 16:32:54.609375
2726,-15.85,2021-12-17 16:32:54.625000
2727,-18.79,2021-12-17 16:32:54.640625
2728,-21.99,2021-12-17 16:32:54.656250
2729,-24.97,2021-12-17 16:32:54.671875
2730,-27.15,2021-12-17 16:32:54.687500
2731,-27.95,2021-12-17 16:32:54.703125
2732,-26.92,2021-12-17 16:32:54.718750
2733,-23.91,2021-12-17 16:32:54.734375
2734,-19.18,2021-12-17 16:32:54.750000
2735,-13.32,2021-12-17 16:32:54.765625
2736,-7.12,2021-12-17 16:32:54.781250
2737,-1.34,2021-12-17 16:32:54.796875
2738,3.52,2021-12-17 16:32:54.812500
2739,7.25,2021-12-17 16:32:54.828125
2740,9.88,2021-12-17 16:32:54.843750
2741,11.6,2021-12-17 16:32:54.859375
2742,12.61,2021-12-17 16:32:54.875000
2743,13.08,2021-12-17 16:32:54.890625
2744,13.18,2021-12-17 16:32:54.906250
2745,13.02,2021-12-17 16:32:54.921875
2746,12.77,2021-12-17 16:32:54.937500
2747,12.61,2021-12-17 16:32:54.953125
2748,12.67,2021-12-17 16:32:54.968750
2749,12.99,2021-12-17 16:32:54.984375
2750,13.53,2021-12-17 16:32:55.000000
2751,14.19,2021-12-17 16:32:55.015625
2752,14.87,2021-12-17 16:32:55.031250
2753,15.52,2021-12-17 16:32:55.046875
2754,16.11,2021-12-17 16:32:55.062500
2755,16.64,2021-12-17 16:32:55.078125
2756,17.1,2021-12-17 16:32:55.093750
2757,17.43,2021-12-17 16:32:55.109375
2758,17.61,2021-12-17 16:32:55.125000
2759,17.63,2021-12-17 16:32:55.140625
2760,17.5,2021-12-17 16:32:55.156250
2761,17.27,2021-12-17 16:32:55.171875
2762,16.93,2021-12-17 16:32:55.187500
2763,16.49,2021-12-17 16:32:55.203125
2764,15.93,2021-12-17 16:32:55.218750
2765,15.27,2021-12-17 16:32:55.234375
2766,14.5,2021-12-17 16:32:55.250000
2767,13.64,2021-12-17 16:32:55.265625
2768,12.63,2021-12-17 16:32:55.281250
2769,11.4,2021-12-17 16:32:55.296875
2770,9.93,2021-12-17 16:32:55.312500
2771,8.23,2021-12-17 16:32:55.328125
2772,6.49,2021-12-17 16:32:55.343750
2773,4.86,2021-12-17 16:32:55.359375
2774,3.5,2021-12-17 16:32:55.375000
2775,2.42,2021-12-17 16:32:55.390625
2776,1.49,2021-12-17 16:32:55.406250
2777,0.5,2021-12-17 16:32:55.421875
2778,-0.77,2021-12-17 16:32:55.437500
2779,-2.4,2021-12-17 16:32:55.453125
2780,-4.35,2021-12-17 16:32:55.468750
2781,-6.45,2021-12-17 16:32:55.484375
2782,-8.49,2021-12-17 16:32:55.500000
2783,-10.33,2021-12-17 16:32:55.515625
2784,-11.91,2021-12-17 16:32:55.531250
2785,-13.29,2021-12-17 16:32:55.546875
2786,-14.6,2021-12-17 16:32:55.562500
2787,-16.04,2021-12-17 16:32:55.578125
2788,-17.72,2021-12-17 16:32:55.593750
2789,-19.73,2021-12-17 16:32:55.609375
2790,-21.98,2021-12-17 16:32:55.625000
2791,-24.2,2021-12-17 16:32:55.640625
2792,-25.96,2021-12-17 16:32:55.656250
2793,-26.72,2021-12-17 16:32:55.671875
2794,-26.01,2021-12-17 16:32:55.687500
2795,-23.56,2021-12-17 16:32:55.703125
2796,-19.4,2021-12-17 16:32:55.718750
2797,-13.88,2021-12-17 16:32:55.734375
2798,-7.56,2021-12-17 16:32:55.750000
2799,-1.07,2021-12-17 16:32:55.765625
2800,5.07,2021-12-17 16:32:55.781250
2801,10.52,2021-12-17 16:32:55.796875
2802,15.12,2021-12-17 16:32:55.812500
2803,18.87,2021-12-17 16:32:55.828125
2804,21.91,2021-12-17 16:32:55.843750
2805,24.37,2021-12-17 16:32:55.859375
2806,26.41,2021-12-17 16:32:55.875000
2807,28.07,2021-12-17 16:32:55.890625
2808,29.36,2021-12-17 16:32:55.906250
2809,30.24,2021-12-17 16:32:55.921875
2810,30.64,2021-12-17 16:32:55.937500
2811,30.58,2021-12-17 16:32:55.953125
2812,30.08,2021-12-17 16:32:55.968750
2813,29.28,2021-12-17 16:32:55.984375
2814,28.34,2021-12-17 16:32:56.000000
2815,27.38,2021-12-17 16:32:56.015625
2816,26.54,2021-12-17 16:32:56.031250
2817,25.85,2021-12-17 16:32:56.046875
2818,25.31,2021-12-17 16:32:56.062500
2819,24.83,2021-12-17 16:32:56.078125
2820,24.29,2021-12-17 16:32:56.093750
2821,23.54,2021-12-17 16:32:56.109375
2822,22.47,2021-12-17 16:32:56.125000
2823,21.07,2021-12-17 16:32:56.140625
2824,19.42,2021-12-17 16:32:56.156250
2825,17.72,2021-12-17 16:32:56.171875
2826,16.15,2021-12-17 16:32:56.187500
2827,14.84,2021-12-17 16:32:56.203125
2828,13.81,2021-12-17 16:32:56.218750
2829,12.96,2021-12-17 16:32:56.234375
2830,12.14,2021-12-17 16:32:56.250000
2831,11.24,2021-12-17 16:32:56.265625
2832,10.21,2021-12-17 16:32:56.281250
2833,9.09,2021-12-17 16:32:56.296875
2834,7.98,2021-12-17 16:32:56.312500
2835,7.0,2021-12-17 16:32:56.328125
2836,6.25,2021-12-17 16:32:56.343750
2837,5.76,2021-12-17 16:32:56.359375
2838,5.52,2021-12-17 16:32:56.375000
2839,5.38,2021-12-17 16:32:56.390625
2840,5.19,2021-12-17 16:32:56.406250
2841,4.81,2021-12-17 16:32:56.421875
2842,4.21,2021-12-17 16:32:56.437500
2843,3.52,2021-12-17 16:32:56.453125
2844,2.95,2021-12-17 16:32:56.468750
2845,2.7,2021-12-17 16:32:56.484375
2846,2.89,2021-12-17 16:32:56.500000
2847,3.44,2021-12-17 16:32:56.515625
2848,4.12,2021-12-17 16:32:56.531250
2849,4.69,2021-12-17 16:32:56.546875
2850,4.98,2021-12-17 16:32:56.562500
2851,4.99,2021-12-17 16:32:56.578125
2852,4.88,2021-12-17 16:32:56.593750
2853,4.98,2021-12-17 16:32:56.609375
2854,5.73,2021-12-17 16:32:56.625000
2855,7.59,2021-12-17 16:32:56.640625
2856,11.03,2021-12-17 16:32:56.656250
2857,16.34,2021-12-17 16:32:56.671875
2858,23.58,2021-12-17 16:32:56.687500
2859,32.45,2021-12-17 16:32:56.703125
2860,42.4,2021-12-17 16:32:56.718750
2861,52.72,2021-12-17 16:32:56.734375
2862,62.84,2021-12-17 16:32:56.750000
2863,72.5,2021-12-17 16:32:56.765625
2864,81.93,2021-12-17 16:32:56.781250
2865,91.73,2021-12-17 16:32:56.796875
2866,102.68,2021-12-17 16:32:56.812500
2867,115.4,2021-12-17 16:32:56.828125
2868,130.0,2021-12-17 16:32:56.843750
2869,145.89,2021-12-17 16:32:56.859375
2870,161.8,2021-12-17 16:32:56.875000
2871,175.95,2021-12-17 16:32:56.890625
2872,186.37,2021-12-17 16:32:56.906250
2873,191.17,2021-12-17 16:32:56.921875
2874,188.84,2021-12-17 16:32:56.937500
2875,178.34,2021-12-17 16:32:56.953125
2876,159.32,2021-12-17 16:32:56.968750
2877,132.29,2021-12-17 16:32:56.984375
2878,98.82,2021-12-17 16:32:57.000000
2879,61.52,2021-12-17 16:32:57.015625
2880,23.72,2021-12-17 16:32:57.031250
2881,-11.2,2021-12-17 16:32:57.046875
2882,-40.64,2021-12-17 16:32:57.062500
2883,-63.38,2021-12-17 16:32:57.078125
2884,-79.6,2021-12-17 16:32:57.093750
2885,-90.46,2021-12-17 16:32:57.109375
2886,-97.3,2021-12-17 16:32:57.125000
2887,-101.01,2021-12-17 16:32:57.140625
2888,-101.74,2021-12-17 16:32:57.156250
2889,-99.2,2021-12-17 16:32:57.171875
2890,-93.19,2021-12-17 16:32:57.187500
2891,-84.09,2021-12-17 16:32:57.203125
2892,-73.1,2021-12-17 16:32:57.218750
2893,-61.89,2021-12-17 16:32:57.234375
2894,-52.15,2021-12-17 16:32:57.250000
2895,-45.01,2021-12-17 16:32:57.265625
2896,-40.92,2021-12-17 16:32:57.281250
2897,-39.69,2021-12-17 16:32:57.296875
2898,-40.88,2021-12-17 16:32:57.312500
2899,-44.16,2021-12-17 16:32:57.328125
2900,-49.42,2021-12-17 16:32:57.343750
2901,-56.67,2021-12-17 16:32:57.359375
2902,-65.73,2021-12-17 16:32:57.375000
2903,-76.14,2021-12-17 16:32:57.390625
2904,-87.06,2021-12-17 16:32:57.406250
2905,-97.62,2021-12-17 16:32:57.421875
2906,-107.06,2021-12-17 16:32:57.437500
2907,-114.94,2021-12-17 16:32:57.453125
2908,-121.0,2021-12-17 16:32:57.468750
2909,-125.12,2021-12-17 16:32:57.484375
2910,-127.18,2021-12-17 16:32:57.500000
2911,-127.16,2021-12-17 16:32:57.515625
2912,-125.17,2021-12-17 16:32:57.531250
2913,-121.47,2021-12-17 16:32:57.546875
2914,-116.27,2021-12-17 16:32:57.562500
2915,-109.51,2021-12-17 16:32:57.578125
2916,-100.9,2021-12-17 16:32:57.593750
2917,-90.07,2021-12-17 16:32:57.609375
2918,-77.0,2021-12-17 16:32:57.625000
2919,-62.21,2021-12-17 16:32:57.640625
2920,-46.74,2021-12-17 16:32:57.656250
2921,-31.81,2021-12-17 16:32:57.671875
2922,-18.36,2021-12-17 16:32:57.687500
2923,-6.79,2021-12-17 16:32:57.703125
2924,3.12,2021-12-17 16:32:57.718750
2925,11.91,2021-12-17 16:32:57.734375
2926,20.23,2021-12-17 16:32:57.750000
2927,28.44,2021-12-17 16:32:57.765625
2928,36.55,2021-12-17 16:32:57.781250
2929,44.2,2021-12-17 16:32:57.796875
2930,50.77,2021-12-17 16:32:57.812500
2931,55.71,2021-12-17 16:32:57.828125
2932,58.87,2021-12-17 16:32:57.843750
2933,60.67,2021-12-17 16:32:57.859375
2934,62.05,2021-12-17 16:32:57.875000
2935,64.09,2021-12-17 16:32:57.890625
2936,67.49,2021-12-17 16:32:57.906250
2937,72.22,2021-12-17 16:32:57.921875
2938,77.47,2021-12-17 16:32:57.937500
2939,81.97,2021-12-17 16:32:57.953125
2940,84.39,2021-12-17 16:32:57.968750
2941,83.72,2021-12-17 16:32:57.984375
2942,79.37,2021-12-17 16:32:58.000000
2943,71.15,2021-12-17 16:32:58.015625
2944,59.22,2021-12-17 16:32:58.031250
2945,44.26,2021-12-17 16:32:58.046875
2946,27.6,2021-12-17 16:32:58.062500
2947,11.22,2021-12-17 16:32:58.078125
2948,-2.66,2021-12-17 16:32:58.093750
2949,-12.27,2021-12-17 16:32:58.109375
2950,-16.98,2021-12-17 16:32:58.125000
2951,-17.48,2021-12-17 16:32:58.140625
2952,-15.4,2021-12-17 16:32:58.156250
2953,-12.46,2021-12-17 16:32:58.171875
2954,-9.75,2021-12-17 16:32:58.187500
2955,-7.5,2021-12-17 16:32:58.203125
2956,-5.53,2021-12-17 16:32:58.218750
2957,-3.89,2021-12-17 16:32:58.234375
2958,-3.3,2021-12-17 16:32:58.250000
2959,-4.92,2021-12-17 16:32:58.265625
2960,-9.75,2021-12-17 16:32:58.281250
2961,-17.84,2021-12-17 16:32:58.296875
2962,-28.12,2021-12-17 16:32:58.312500
2963,-38.77,2021-12-17 16:32:58.328125
2964,-47.87,2021-12-17 16:32:58.343750
2965,-54.03,2021-12-17 16:32:58.359375
2966,-56.52,2021-12-17 16:32:58.375000
2967,-55.09,2021-12-17 16:32:58.390625
2968,-49.95,2021-12-17 16:32:58.406250
2969,-41.79,2021-12-17 16:32:58.421875
2970,-32.02,2021-12-17 16:32:58.437500
2971,-22.74,2021-12-17 16:32:58.453125
2972,-16.2,2021-12-17 16:32:58.468750
2973,-14.02,2021-12-17 16:32:58.484375
2974,-16.46,2021-12-17 16:32:58.500000
2975,-22.34,2021-12-17 16:32:58.515625
2976,-29.81,2021-12-17 16:32:58.531250
2977,-37.21,2021-12-17 16:32:58.546875
2978,-43.69,2021-12-17 16:32:58.562500
2979,-49.2,2021-12-17 16:32:58.578125
2980,-53.81,2021-12-17 16:32:58.593750
2981,-57.06,2021-12-17 16:32:58.609375
2982,-57.85,2021-12-17 16:32:58.625000
2983,-54.91,2021-12-17 16:32:58.640625
2984,-47.57,2021-12-17 16:32:58.656250
2985,-36.22,2021-12-17 16:32:58.671875
2986,-22.28,2021-12-17 16:32:58.687500
2987,-7.46,2021-12-17 16:32:58.703125
2988,6.93,2021-12-17 16:32:58.718750
2989,20.44,2021-12-17 16:32:58.734375
2990,33.43,2021-12-17 16:32:58.750000
2991,46.51,2021-12-17 16:32:58.765625
2992,59.98,2021-12-17 16:32:58.781250
2993,73.47,2021-12-17 16:32:58.796875
2994,86.07,2021-12-17 16:32:58.812500
2995,96.73,2021-12-17 16:32:58.828125
2996,104.85,2021-12-17 16:32:58.843750
2997,110.62,2021-12-17 16:32:58.859375
2998,115.04,2021-12-17 16:32:58.875000
2999,119.59,2021-12-17 16:32:58.890625
3000,125.64,2021-12-17 16:32:58.906250
3001,133.96,2021-12-17 16:32:58.921875
3002,144.56,2021-12-17 16:32:58.937500
3003,156.77,2021-12-17 16:32:58.953125
3004,169.51,2021-12-17 16:32:58.968750
3005,181.55,2021-12-17 16:32:58.984375
3006,191.73,2021-12-17 16:32:59.000000
3007,199.06,2021-12-17 16:32:59.015625
3008,202.89,2021-12-17 16:32:59.031250
3009,202.98,2021-12-17 16:32:59.046875
3010,199.57,2021-12-17 16:32:59.062500
3011,193.18,2021-12-17 16:32:59.078125
3012,184.34,2021-12-17 16:32:59.093750
3013,173.46,2021-12-17 16:32:59.109375
3014,160.69,2021-12-17 16:32:59.125000
3015,145.97,2021-12-17 16:32:59.140625
3016,129.14,2021-12-17 16:32:59.156250
3017,109.92,2021-12-17 16:32:59.171875
3018,87.66,2021-12-17 16:32:59.187500
3019,61.28,2021-12-17 16:32:59.203125
3020,29.42,2021-12-17 16:32:59.218750
3021,-8.82,2021-12-17 16:32:59.234375
3022,-52.98,2021-12-17 16:32:59.250000
3023,-100.67,2021-12-17 16:32:59.265625
3024,-147.79,2021-12-17 16:32:59.281250
3025,-189.62,2021-12-17 16:32:59.296875
3026,-222.35,2021-12-17 16:32:59.312500
3027,-244.29,2021-12-17 16:32:59.328125
3028,-256.1,2021-12-17 16:32:59.343750
3029,-259.98,2021-12-17 16:32:59.359375
3030,-258.52,2021-12-17 16:32:59.375000
3031,-253.53,2021-12-17 16:32:59.390625
3032,-245.75,2021-12-17 16:32:59.406250
3033,-235.14,2021-12-17 16:32:59.421875
3034,-221.49,2021-12-17 16:32:59.437500
3035,-204.82,2021-12-17 16:32:59.453125
3036,-185.37,2021-12-17 16:32:59.468750
3037,-163.4,2021-12-17 16:32:59.484375
3038,-139.11,2021-12-17 16:32:59.500000
3039,-113.03,2021-12-17 16:32:59.515625
3040,-86.35,2021-12-17 16:32:59.531250
3041,-61.13,2021-12-17 16:32:59.546875
3042,-39.9,2021-12-17 16:32:59.562500
3043,-24.82,2021-12-17 16:32:59.578125
3044,-16.95,2021-12-17 16:32:59.593750
3045,-15.72,2021-12-17 16:32:59.609375
3046,-19.17,2021-12-17 16:32:59.625000
3047,-24.48,2021-12-17 16:32:59.640625
3048,-28.9,2021-12-17 16:32:59.656250
3049,-30.36,2021-12-17 16:32:59.671875
3050,-27.92,2021-12-17 16:32:59.687500
3051,-21.81,2021-12-17 16:32:59.703125
3052,-13.21,2021-12-17 16:32:59.718750
3053,-3.74,2021-12-17 16:32:59.734375
3054,5.17,2021-12-17 16:32:59.750000
3055,12.81,2021-12-17 16:32:59.765625
3056,19.41,2021-12-17 16:32:59.781250
3057,25.88,2021-12-17 16:32:59.796875
3058,33.25,2021-12-17 16:32:59.812500
3059,42.12,2021-12-17 16:32:59.828125
3060,52.37,2021-12-17 16:32:59.843750
3061,63.37,2021-12-17 16:32:59.859375
3062,74.4,2021-12-17 16:32:59.875000
3063,84.95,2021-12-17 16:32:59.890625
3064,94.85,2021-12-17 16:32:59.906250
3065,104.04,2021-12-17 16:32:59.921875
3066,112.3,2021-12-17 16:32:59.937500
3067,119.13,2021-12-17 16:32:59.953125
3068,123.82,2021-12-17 16:32:59.968750
3069,125.8,2021-12-17 16:32:59.984375
3070,125.04,2021-12-17 16:33:00.000000
3071,122.25,2021-12-17 16:33:00.015625
3072,118.74,2021-12-17 16:33:00.031250
3073,116.06,2021-12-17 16:33:00.046875
3074,115.42,2021-12-17 16:33:00.062500
3075,117.28,2021-12-17 16:33:00.078125
3076,121.28,2021-12-17 16:33:00.093750
3077,126.31,2021-12-17 16:33:00.109375
3078,130.96,2021-12-17 16:33:00.125000
3079,133.78,2021-12-17 16:33:00.140625
3080,133.57,2021-12-17 16:33:00.156250
3081,129.57,2021-12-17 16:33:00.171875
3082,121.53,2021-12-17 16:33:00.187500
3083,109.82,2021-12-17 16:33:00.203125
3084,95.35,2021-12-17 16:33:00.218750
3085,79.41,2021-12-17 16:33:00.234375
3086,63.33,2021-12-17 16:33:00.250000
3087,48.02,2021-12-17 16:33:00.265625
3088,33.64,2021-12-17 16:33:00.281250
3089,19.55,2021-12-17 16:33:00.296875
3090,4.58,2021-12-17 16:33:00.312500
3091,-12.39,2021-12-17 16:33:00.328125
3092,-31.92,2021-12-17 16:33:00.343750
3093,-53.74,2021-12-17 16:33:00.359375
3094,-76.93,2021-12-17 16:33:00.375000
3095,-100.46,2021-12-17 16:33:00.390625
3096,-123.59,2021-12-17 16:33:00.406250
3097,-145.98,2021-12-17 16:33:00.421875
3098,-167.24,2021-12-17 16:33:00.437500
3099,-186.4,2021-12-17 16:33:00.453125
3100,-201.6,2021-12-17 16:33:00.468750
3101,-210.48,2021-12-17 16:33:00.484375
3102,-211.16,2021-12-17 16:33:00.500000
3103,-203.41,2021-12-17 16:33:00.515625
3104,-189.19,2021-12-17 16:33:00.531250
3105,-172.08,2021-12-17 16:33:00.546875
3106,-155.91,2021-12-17 16:33:00.562500
3107,-143.1,2021-12-17 16:33:00.578125
3108,-133.81,2021-12-17 16:33:00.593750
3109,-126.25,2021-12-17 16:33:00.609375
3110,-118.06,2021-12-17 16:33:00.625000
3111,-107.76,2021-12-17 16:33:00.640625
3112,-95.65,2021-12-17 16:33:00.656250
3113,-83.56,2021-12-17 16:33:00.671875
3114,-73.88,2021-12-17 16:33:00.687500
3115,-68.39,2021-12-17 16:33:00.703125
3116,-67.53,2021-12-17 16:33:00.718750
3117,-70.51,2021-12-17 16:33:00.734375
3118,-75.81,2021-12-17 16:33:00.750000
3119,-82.01,2021-12-17 16:33:00.765625
3120,-88.25,2021-12-17 16:33:00.781250
3121,-94.38,2021-12-17 16:33:00.796875
3122,-100.64,2021-12-17 16:33:00.812500
3123,-107.24,2021-12-17 16:33:00.828125
3124,-114.05,2021-12-17 16:33:00.843750
3125,-120.46,2021-12-17 16:33:00.859375
3126,-125.58,2021-12-17 16:33:00.875000
3127,-128.59,2021-12-17 16:33:00.890625
3128,-129.14,2021-12-17 16:33:00.906250
3129,-127.61,2021-12-17 16:33:00.921875
3130,-125.01,2021-12-17 16:33:00.937500
3131,-122.51,2021-12-17 16:33:00.953125
3132,-121.01,2021-12-17 16:33:00.968750
3133,-120.65,2021-12-17 16:33:00.984375
3134,-120.81,2021-12-17 16:33:01.000000
3135,-120.39,2021-12-17 16:33:01.015625
3136,-118.44,2021-12-17 16:33:01.031250
3137,-114.65,2021-12-17 16:33:01.046875
3138,-109.45,2021-12-17 16:33:01.062500
3139,-103.56,2021-12-17 16:33:01.078125
3140,-97.38,2021-12-17 16:33:01.093750
3141,-90.63,2021-12-17 16:33:01.109375
3142,-82.53,2021-12-17 16:33:01.125000
3143,-72.51,2021-12-17 16:33:01.140625
3144,-60.87,2021-12-17 16:33:01.156250
3145,-48.8,2021-12-17 16:33:01.171875
3146,-37.66,2021-12-17 16:33:01.187500
3147,-27.97,2021-12-17 16:33:01.203125
3148,-18.93,2021-12-17 16:33:01.218750
3149,-8.83,2021-12-17 16:33:01.234375
3150,3.67,2021-12-17 16:33:01.250000
3151,18.35,2021-12-17 16:33:01.265625
3152,33.2,2021-12-17 16:33:01.281250
3153,45.42,2021-12-17 16:33:01.296875
3154,53.03,2021-12-17 16:33:01.312500
3155,55.92,2021-12-17 16:33:01.328125
3156,55.72,2021-12-17 16:33:01.343750
3157,54.59,2021-12-17 16:33:01.359375
3158,53.76,2021-12-17 16:33:01.375000
3159,52.89,2021-12-17 16:33:01.390625
3160,50.6,2021-12-17 16:33:01.406250
3161,45.55,2021-12-17 16:33:01.421875
3162,37.38,2021-12-17 16:33:01.437500
3163,26.88,2021-12-17 16:33:01.453125
3164,15.61,2021-12-17 16:33:01.468750
3165,5.07,2021-12-17 16:33:01.484375
3166,-3.58,2021-12-17 16:33:01.500000
3167,-9.49,2021-12-17 16:33:01.515625
3168,-11.97,2021-12-17 16:33:01.531250
3169,-10.47,2021-12-17 16:33:01.546875
3170,-4.85,2021-12-17 16:33:01.562500
3171,4.32,2021-12-17 16:33:01.578125
3172,15.83,2021-12-17 16:33:01.593750
3173,28.25,2021-12-17 16:33:01.609375
3174,40.53,2021-12-17 16:33:01.625000
3175,52.27,2021-12-17 16:33:01.640625
3176,63.41,2021-12-17 16:33:01.656250
