,BVP,time
0,-30.14,2022-10-28 16:43:24.453125
1,-35.91,2022-10-28 16:43:24.468750
2,-44.92,2022-10-28 16:43:24.484375
3,-58.87,2022-10-28 16:43:24.500000
4,-77.28,2022-10-28 16:43:24.515625
5,-97.59,2022-10-28 16:43:24.531250
6,-116.37,2022-10-28 16:43:24.546875
7,-131.01,2022-10-28 16:43:24.562500
8,-141.23,2022-10-28 16:43:24.578125
9,-149.27,2022-10-28 16:43:24.593750
10,-159.21,2022-10-28 16:43:24.609375
11,-174.95,2022-10-28 16:43:24.625000
12,-198.4,2022-10-28 16:43:24.640625
13,-228.42,2022-10-28 16:43:24.656250
14,-261.32,2022-10-28 16:43:24.671875
15,-292.59,2022-10-28 16:43:24.687500
16,-318.49,2022-10-28 16:43:24.703125
17,-337.3,2022-10-28 16:43:24.718750
18,-349.32,2022-10-28 16:43:24.734375
19,-356.3,2022-10-28 16:43:24.750000
20,-360.6,2022-10-28 16:43:24.765625
21,-364.93,2022-10-28 16:43:24.781250
22,-372.33,2022-10-28 16:43:24.796875
23,-385.68,2022-10-28 16:43:24.812500
24,-406.08,2022-10-28 16:43:24.828125
25,-431.04,2022-10-28 16:43:24.843750
26,-453.89,2022-10-28 16:43:24.859375
27,-465.75,2022-10-28 16:43:24.875000
28,-460.01,2022-10-28 16:43:24.890625
29,-437.22,2022-10-28 16:43:24.906250
30,-407.19,2022-10-28 16:43:24.921875
31,-386.3,2022-10-28 16:43:24.937500
32,-390.46,2022-10-28 16:43:24.953125
33,-427.37,2022-10-28 16:43:24.968750
34,-492.11,2022-10-28 16:43:24.984375
35,-568.98,2022-10-28 16:43:25.000000
36,-638.43,2022-10-28 16:43:25.015625
37,-685.3,2022-10-28 16:43:25.031250
38,-703.93,2022-10-28 16:43:25.046875
39,-697.94,2022-10-28 16:43:25.062500
40,-675.6,2022-10-28 16:43:25.078125
41,-643.95,2022-10-28 16:43:25.093750
42,-605.6,2022-10-28 16:43:25.109375
43,-559.2,2022-10-28 16:43:25.125000
44,-502.67,2022-10-28 16:43:25.140625
45,-436.3,2022-10-28 16:43:25.156250
46,-363.76,2022-10-28 16:43:25.171875
47,-290.85,2022-10-28 16:43:25.187500
48,-222.65,2022-10-28 16:43:25.203125
49,-161.47,2022-10-28 16:43:25.218750
50,-106.3,2022-10-28 16:43:25.234375
51,-54.5,2022-10-28 16:43:25.250000
52,-3.98,2022-10-28 16:43:25.265625
53,45.15,2022-10-28 16:43:25.281250
54,90.37,2022-10-28 16:43:25.296875
55,127.56,2022-10-28 16:43:25.312500
56,153.05,2022-10-28 16:43:25.328125
57,165.12,2022-10-28 16:43:25.343750
58,164.53,2022-10-28 16:43:25.359375
59,154.18,2022-10-28 16:43:25.375000
60,137.86,2022-10-28 16:43:25.390625
61,118.99,2022-10-28 16:43:25.406250
62,99.74,2022-10-28 16:43:25.421875
63,80.79,2022-10-28 16:43:25.437500
64,61.79,2022-10-28 16:43:25.453125
65,42.02,2022-10-28 16:43:25.468750
66,20.9,2022-10-28 16:43:25.484375
67,-1.65,2022-10-28 16:43:25.500000
68,-25.21,2022-10-28 16:43:25.515625
69,-48.9,2022-10-28 16:43:25.531250
70,-71.44,2022-10-28 16:43:25.546875
71,-91.21,2022-10-28 16:43:25.562500
72,-106.39,2022-10-28 16:43:25.578125
73,-115.34,2022-10-28 16:43:25.593750
74,-117.03,2022-10-28 16:43:25.609375
75,-111.54,2022-10-28 16:43:25.625000
76,-99.97,2022-10-28 16:43:25.640625
77,-84.24,2022-10-28 16:43:25.656250
78,-66.24,2022-10-28 16:43:25.671875
79,-47.01,2022-10-28 16:43:25.687500
80,-26.16,2022-10-28 16:43:25.703125
81,-1.61,2022-10-28 16:43:25.718750
82,29.93,2022-10-28 16:43:25.734375
83,72.43,2022-10-28 16:43:25.750000
84,129.0,2022-10-28 16:43:25.765625
85,200.15,2022-10-28 16:43:25.781250
86,282.17,2022-10-28 16:43:25.796875
87,366.43,2022-10-28 16:43:25.812500
88,440.44,2022-10-28 16:43:25.828125
89,490.65,2022-10-28 16:43:25.843750
90,506.65,2022-10-28 16:43:25.859375
91,485.02,2022-10-28 16:43:25.875000
92,431.28,2022-10-28 16:43:25.890625
93,358.64,2022-10-28 16:43:25.906250
94,283.85,2022-10-28 16:43:25.921875
95,221.95,2022-10-28 16:43:25.937500
96,181.92,2022-10-28 16:43:25.953125
97,165.39,2022-10-28 16:43:25.968750
98,167.97,2022-10-28 16:43:25.984375
99,182.77,2022-10-28 16:43:26.000000
100,203.57,2022-10-28 16:43:26.015625
101,226.59,2022-10-28 16:43:26.031250
102,250.54,2022-10-28 16:43:26.046875
103,275.85,2022-10-28 16:43:26.062500
104,303.95,2022-10-28 16:43:26.078125
105,336.53,2022-10-28 16:43:26.093750
106,374.91,2022-10-28 16:43:26.109375
107,418.83,2022-10-28 16:43:26.125000
108,465.51,2022-10-28 16:43:26.140625
109,508.93,2022-10-28 16:43:26.156250
110,540.9,2022-10-28 16:43:26.171875
111,553.53,2022-10-28 16:43:26.187500
112,542.23,2022-10-28 16:43:26.203125
113,507.82,2022-10-28 16:43:26.218750
114,456.25,2022-10-28 16:43:26.234375
115,396.53,2022-10-28 16:43:26.250000
116,337.39,2022-10-28 16:43:26.265625
117,284.72,2022-10-28 16:43:26.281250
118,240.41,2022-10-28 16:43:26.296875
119,203.03,2022-10-28 16:43:26.312500
120,169.17,2022-10-28 16:43:26.328125
121,134.94,2022-10-28 16:43:26.343750
122,96.68,2022-10-28 16:43:26.359375
123,51.1,2022-10-28 16:43:26.375000
124,-4.16,2022-10-28 16:43:26.390625
125,-68.94,2022-10-28 16:43:26.406250
126,-138.95,2022-10-28 16:43:26.421875
127,-205.4,2022-10-28 16:43:26.437500
128,-257.12,2022-10-28 16:43:26.453125
129,-285.04,2022-10-28 16:43:26.468750
130,-287.67,2022-10-28 16:43:26.484375
131,-273.75,2022-10-28 16:43:26.500000
132,-260.17,2022-10-28 16:43:26.515625
133,-265.12,2022-10-28 16:43:26.531250
134,-299.46,2022-10-28 16:43:26.546875
135,-361.18,2022-10-28 16:43:26.562500
136,-435.7,2022-10-28 16:43:26.578125
137,-502.47,2022-10-28 16:43:26.593750
138,-543.86,2022-10-28 16:43:26.609375
139,-552.14,2022-10-28 16:43:26.625000
140,-530.8,2022-10-28 16:43:26.640625
141,-490.79,2022-10-28 16:43:26.656250
142,-444.12,2022-10-28 16:43:26.671875
143,-398.84,2022-10-28 16:43:26.687500
144,-357.59,2022-10-28 16:43:26.703125
145,-319.15,2022-10-28 16:43:26.718750
146,-281.58,2022-10-28 16:43:26.734375
147,-243.98,2022-10-28 16:43:26.750000
148,-206.97,2022-10-28 16:43:26.765625
149,-170.94,2022-10-28 16:43:26.781250
150,-134.62,2022-10-28 16:43:26.796875
151,-94.87,2022-10-28 16:43:26.812500
152,-49.13,2022-10-28 16:43:26.828125
153,1.29,2022-10-28 16:43:26.843750
154,49.4,2022-10-28 16:43:26.859375
155,83.83,2022-10-28 16:43:26.875000
156,93.49,2022-10-28 16:43:26.890625
157,73.45,2022-10-28 16:43:26.906250
158,28.54,2022-10-28 16:43:26.921875
159,-27.76,2022-10-28 16:43:26.937500
160,-78.77,2022-10-28 16:43:26.953125
161,-111.63,2022-10-28 16:43:26.968750
162,-122.26,2022-10-28 16:43:26.984375
163,-115.5,2022-10-28 16:43:27.000000
164,-101.15,2022-10-28 16:43:27.015625
165,-88.36,2022-10-28 16:43:27.031250
166,-81.91,2022-10-28 16:43:27.046875
167,-81.6,2022-10-28 16:43:27.062500
168,-84.63,2022-10-28 16:43:27.078125
169,-88.48,2022-10-28 16:43:27.093750
170,-92.38,2022-10-28 16:43:27.109375
171,-96.88,2022-10-28 16:43:27.125000
172,-102.33,2022-10-28 16:43:27.140625
173,-107.93,2022-10-28 16:43:27.156250
174,-111.76,2022-10-28 16:43:27.171875
175,-111.68,2022-10-28 16:43:27.187500
176,-106.62,2022-10-28 16:43:27.203125
177,-97.16,2022-10-28 16:43:27.218750
178,-85.43,2022-10-28 16:43:27.234375
179,-74.05,2022-10-28 16:43:27.250000
180,-64.97,2022-10-28 16:43:27.265625
181,-58.61,2022-10-28 16:43:27.281250
182,-53.85,2022-10-28 16:43:27.296875
183,-48.62,2022-10-28 16:43:27.312500
184,-40.99,2022-10-28 16:43:27.328125
185,-30.14,2022-10-28 16:43:27.343750
186,-16.76,2022-10-28 16:43:27.359375
187,-2.69,2022-10-28 16:43:27.375000
188,10.02,2022-10-28 16:43:27.390625
189,20.07,2022-10-28 16:43:27.406250
190,27.56,2022-10-28 16:43:27.421875
191,33.82,2022-10-28 16:43:27.437500
192,40.77,2022-10-28 16:43:27.453125
193,49.98,2022-10-28 16:43:27.468750
194,61.99,2022-10-28 16:43:27.484375
195,76.17,2022-10-28 16:43:27.500000
196,91.23,2022-10-28 16:43:27.515625
197,106.01,2022-10-28 16:43:27.531250
198,120.09,2022-10-28 16:43:27.546875
199,134.07,2022-10-28 16:43:27.562500
200,149.21,2022-10-28 16:43:27.578125
201,166.97,2022-10-28 16:43:27.593750
202,188.68,2022-10-28 16:43:27.609375
203,215.25,2022-10-28 16:43:27.625000
204,247.18,2022-10-28 16:43:27.640625
205,284.11,2022-10-28 16:43:27.656250
206,324.37,2022-10-28 16:43:27.671875
207,364.87,2022-10-28 16:43:27.687500
208,401.38,2022-10-28 16:43:27.703125
209,429.62,2022-10-28 16:43:27.718750
210,446.56,2022-10-28 16:43:27.734375
211,451.31,2022-10-28 16:43:27.750000
212,444.95,2022-10-28 16:43:27.765625
213,429.33,2022-10-28 16:43:27.781250
214,405.81,2022-10-28 16:43:27.796875
215,374.79,2022-10-28 16:43:27.812500
216,336.49,2022-10-28 16:43:27.828125
217,292.37,2022-10-28 16:43:27.843750
218,246.0,2022-10-28 16:43:27.859375
219,202.6,2022-10-28 16:43:27.875000
220,167.34,2022-10-28 16:43:27.890625
221,143.05,2022-10-28 16:43:27.906250
222,129.0,2022-10-28 16:43:27.921875
223,121.31,2022-10-28 16:43:27.937500
224,115.01,2022-10-28 16:43:27.953125
225,106.35,2022-10-28 16:43:27.968750
226,94.19,2022-10-28 16:43:27.984375
227,79.88,2022-10-28 16:43:28.000000
228,66.22,2022-10-28 16:43:28.015625
229,55.92,2022-10-28 16:43:28.031250
230,50.89,2022-10-28 16:43:28.046875
231,52.01,2022-10-28 16:43:28.062500
232,59.34,2022-10-28 16:43:28.078125
233,72.02,2022-10-28 16:43:28.093750
234,88.17,2022-10-28 16:43:28.109375
235,104.89,2022-10-28 16:43:28.125000
236,118.85,2022-10-28 16:43:28.140625
237,127.22,2022-10-28 16:43:28.156250
238,128.64,2022-10-28 16:43:28.171875
239,123.6,2022-10-28 16:43:28.187500
240,114.23,2022-10-28 16:43:28.203125
241,103.33,2022-10-28 16:43:28.218750
242,93.24,2022-10-28 16:43:28.234375
243,85.21,2022-10-28 16:43:28.250000
244,79.26,2022-10-28 16:43:28.265625
245,74.56,2022-10-28 16:43:28.281250
246,69.89,2022-10-28 16:43:28.296875
247,63.86,2022-10-28 16:43:28.312500
248,55.18,2022-10-28 16:43:28.328125
249,42.91,2022-10-28 16:43:28.343750
250,26.72,2022-10-28 16:43:28.359375
251,7.03,2022-10-28 16:43:28.375000
252,-14.98,2022-10-28 16:43:28.390625
253,-37.63,2022-10-28 16:43:28.406250
254,-58.92,2022-10-28 16:43:28.421875
255,-76.84,2022-10-28 16:43:28.437500
256,-89.5,2022-10-28 16:43:28.453125
257,-95.47,2022-10-28 16:43:28.468750
258,-94.21,2022-10-28 16:43:28.484375
259,-86.55,2022-10-28 16:43:28.500000
260,-74.76,2022-10-28 16:43:28.515625
261,-62.11,2022-10-28 16:43:28.531250
262,-51.89,2022-10-28 16:43:28.546875
263,-46.28,2022-10-28 16:43:28.562500
264,-45.53,2022-10-28 16:43:28.578125
265,-48.11,2022-10-28 16:43:28.593750
266,-51.61,2022-10-28 16:43:28.609375
267,-54.07,2022-10-28 16:43:28.625000
268,-54.95,2022-10-28 16:43:28.640625
269,-55.27,2022-10-28 16:43:28.656250
270,-56.7,2022-10-28 16:43:28.671875
271,-60.24,2022-10-28 16:43:28.687500
272,-65.32,2022-10-28 16:43:28.703125
273,-69.85,2022-10-28 16:43:28.718750
274,-71.27,2022-10-28 16:43:28.734375
275,-67.85,2022-10-28 16:43:28.750000
276,-59.58,2022-10-28 16:43:28.765625
277,-48.1,2022-10-28 16:43:28.781250
278,-35.91,2022-10-28 16:43:28.796875
279,-25.16,2022-10-28 16:43:28.812500
280,-16.96,2022-10-28 16:43:28.828125
281,-11.2,2022-10-28 16:43:28.843750
282,-6.94,2022-10-28 16:43:28.859375
283,-2.94,2022-10-28 16:43:28.875000
284,1.92,2022-10-28 16:43:28.890625
285,8.28,2022-10-28 16:43:28.906250
286,16.12,2022-10-28 16:43:28.921875
287,24.59,2022-10-28 16:43:28.937500
288,32.01,2022-10-28 16:43:28.953125
289,36.41,2022-10-28 16:43:28.968750
290,36.33,2022-10-28 16:43:28.984375
291,31.64,2022-10-28 16:43:29.000000
292,23.72,2022-10-28 16:43:29.015625
293,14.82,2022-10-28 16:43:29.031250
294,6.94,2022-10-28 16:43:29.046875
295,0.82,2022-10-28 16:43:29.062500
296,-4.17,2022-10-28 16:43:29.078125
297,-9.33,2022-10-28 16:43:29.093750
298,-15.45,2022-10-28 16:43:29.109375
299,-21.96,2022-10-28 16:43:29.125000
300,-27.07,2022-10-28 16:43:29.140625
301,-28.62,2022-10-28 16:43:29.156250
302,-25.33,2022-10-28 16:43:29.171875
303,-17.56,2022-10-28 16:43:29.187500
304,-7.11,2022-10-28 16:43:29.203125
305,3.6,2022-10-28 16:43:29.218750
306,12.53,2022-10-28 16:43:29.234375
307,18.54,2022-10-28 16:43:29.250000
308,21.41,2022-10-28 16:43:29.265625
309,21.39,2022-10-28 16:43:29.281250
310,18.82,2022-10-28 16:43:29.296875
311,13.94,2022-10-28 16:43:29.312500
312,7.03,2022-10-28 16:43:29.328125
313,-1.44,2022-10-28 16:43:29.343750
314,-10.73,2022-10-28 16:43:29.359375
315,-19.95,2022-10-28 16:43:29.375000
316,-28.23,2022-10-28 16:43:29.390625
317,-34.88,2022-10-28 16:43:29.406250
318,-39.55,2022-10-28 16:43:29.421875
319,-42.13,2022-10-28 16:43:29.437500
320,-42.88,2022-10-28 16:43:29.453125
321,-42.32,2022-10-28 16:43:29.468750
322,-41.07,2022-10-28 16:43:29.484375
323,-39.55,2022-10-28 16:43:29.500000
324,-37.69,2022-10-28 16:43:29.515625
325,-34.76,2022-10-28 16:43:29.531250
326,-29.71,2022-10-28 16:43:29.546875
327,-21.61,2022-10-28 16:43:29.562500
328,-10.28,2022-10-28 16:43:29.578125
329,3.37,2022-10-28 16:43:29.593750
330,17.35,2022-10-28 16:43:29.609375
331,29.18,2022-10-28 16:43:29.625000
332,36.62,2022-10-28 16:43:29.640625
333,38.48,2022-10-28 16:43:29.656250
334,35.19,2022-10-28 16:43:29.671875
335,28.69,2022-10-28 16:43:29.687500
336,21.66,2022-10-28 16:43:29.703125
337,16.43,2022-10-28 16:43:29.718750
338,14.0,2022-10-28 16:43:29.734375
339,13.73,2022-10-28 16:43:29.750000
340,14.05,2022-10-28 16:43:29.765625
341,13.55,2022-10-28 16:43:29.781250
342,11.98,2022-10-28 16:43:29.796875
343,10.44,2022-10-28 16:43:29.812500
344,10.49,2022-10-28 16:43:29.828125
345,13.01,2022-10-28 16:43:29.843750
346,17.38,2022-10-28 16:43:29.859375
347,21.69,2022-10-28 16:43:29.875000
348,23.9,2022-10-28 16:43:29.890625
349,23.05,2022-10-28 16:43:29.906250
350,19.7,2022-10-28 16:43:29.921875
351,15.42,2022-10-28 16:43:29.937500
352,11.73,2022-10-28 16:43:29.953125
353,9.16,2022-10-28 16:43:29.968750
354,7.23,2022-10-28 16:43:29.984375
355,5.04,2022-10-28 16:43:30.000000
356,2.08,2022-10-28 16:43:30.015625
357,-1.35,2022-10-28 16:43:30.031250
358,-4.4,2022-10-28 16:43:30.046875
359,-6.36,2022-10-28 16:43:30.062500
360,-7.11,2022-10-28 16:43:30.078125
361,-7.25,2022-10-28 16:43:30.093750
362,-7.71,2022-10-28 16:43:30.109375
363,-9.17,2022-10-28 16:43:30.125000
364,-11.8,2022-10-28 16:43:30.140625
365,-15.21,2022-10-28 16:43:30.156250
366,-18.74,2022-10-28 16:43:30.171875
367,-21.65,2022-10-28 16:43:30.187500
368,-23.4,2022-10-28 16:43:30.203125
369,-23.71,2022-10-28 16:43:30.218750
370,-22.7,2022-10-28 16:43:30.234375
371,-20.88,2022-10-28 16:43:30.250000
372,-19.08,2022-10-28 16:43:30.265625
373,-18.2,2022-10-28 16:43:30.281250
374,-18.9,2022-10-28 16:43:30.296875
375,-21.4,2022-10-28 16:43:30.312500
376,-25.3,2022-10-28 16:43:30.328125
377,-29.72,2022-10-28 16:43:30.343750
378,-33.4,2022-10-28 16:43:30.359375
379,-35.16,2022-10-28 16:43:30.375000
380,-34.13,2022-10-28 16:43:30.390625
381,-30.11,2022-10-28 16:43:30.406250
382,-23.55,2022-10-28 16:43:30.421875
383,-15.43,2022-10-28 16:43:30.437500
384,-6.98,2022-10-28 16:43:30.453125
385,0.69,2022-10-28 16:43:30.468750
386,6.9,2022-10-28 16:43:30.484375
387,11.47,2022-10-28 16:43:30.500000
388,14.62,2022-10-28 16:43:30.515625
389,16.63,2022-10-28 16:43:30.531250
390,17.64,2022-10-28 16:43:30.546875
391,17.58,2022-10-28 16:43:30.562500
392,16.38,2022-10-28 16:43:30.578125
393,14.13,2022-10-28 16:43:30.593750
394,11.27,2022-10-28 16:43:30.609375
395,8.46,2022-10-28 16:43:30.625000
396,6.23,2022-10-28 16:43:30.640625
397,4.68,2022-10-28 16:43:30.656250
398,3.45,2022-10-28 16:43:30.671875
399,1.87,2022-10-28 16:43:30.687500
400,-0.47,2022-10-28 16:43:30.703125
401,-3.4,2022-10-28 16:43:30.718750
402,-6.22,2022-10-28 16:43:30.734375
403,-7.97,2022-10-28 16:43:30.750000
404,-8.0,2022-10-28 16:43:30.765625
405,-6.24,2022-10-28 16:43:30.781250
406,-3.24,2022-10-28 16:43:30.796875
407,0.13,2022-10-28 16:43:30.812500
408,3.07,2022-10-28 16:43:30.828125
409,4.93,2022-10-28 16:43:30.843750
410,5.33,2022-10-28 16:43:30.859375
411,4.03,2022-10-28 16:43:30.875000
412,0.98,2022-10-28 16:43:30.890625
413,-3.48,2022-10-28 16:43:30.906250
414,-8.67,2022-10-28 16:43:30.921875
415,-13.51,2022-10-28 16:43:30.937500
416,-16.9,2022-10-28 16:43:30.953125
417,-18.2,2022-10-28 16:43:30.968750
418,-17.42,2022-10-28 16:43:30.984375
419,-15.27,2022-10-28 16:43:31.000000
420,-12.86,2022-10-28 16:43:31.015625
421,-11.31,2022-10-28 16:43:31.031250
422,-11.4,2022-10-28 16:43:31.046875
423,-13.33,2022-10-28 16:43:31.062500
424,-16.71,2022-10-28 16:43:31.078125
425,-20.66,2022-10-28 16:43:31.093750
426,-24.06,2022-10-28 16:43:31.109375
427,-25.88,2022-10-28 16:43:31.125000
428,-25.52,2022-10-28 16:43:31.140625
429,-23.02,2022-10-28 16:43:31.156250
430,-19.01,2022-10-28 16:43:31.171875
431,-14.35,2022-10-28 16:43:31.187500
432,-9.82,2022-10-28 16:43:31.203125
433,-5.69,2022-10-28 16:43:31.218750
434,-1.85,2022-10-28 16:43:31.234375
435,1.96,2022-10-28 16:43:31.250000
436,5.74,2022-10-28 16:43:31.265625
437,8.99,2022-10-28 16:43:31.281250
438,10.85,2022-10-28 16:43:31.296875
439,10.64,2022-10-28 16:43:31.312500
440,8.32,2022-10-28 16:43:31.328125
441,4.68,2022-10-28 16:43:31.343750
442,0.99,2022-10-28 16:43:31.359375
443,-1.61,2022-10-28 16:43:31.375000
444,-2.73,2022-10-28 16:43:31.390625
445,-2.82,2022-10-28 16:43:31.406250
446,-2.84,2022-10-28 16:43:31.421875
447,-3.53,2022-10-28 16:43:31.437500
448,-4.99,2022-10-28 16:43:31.453125
449,-6.63,2022-10-28 16:43:31.468750
450,-7.64,2022-10-28 16:43:31.484375
451,-7.48,2022-10-28 16:43:31.500000
452,-6.31,2022-10-28 16:43:31.515625
453,-4.87,2022-10-28 16:43:31.531250
454,-4.08,2022-10-28 16:43:31.546875
455,-4.54,2022-10-28 16:43:31.562500
456,-6.28,2022-10-28 16:43:31.578125
457,-8.89,2022-10-28 16:43:31.593750
458,-11.8,2022-10-28 16:43:31.609375
459,-14.57,2022-10-28 16:43:31.625000
460,-16.96,2022-10-28 16:43:31.640625
461,-18.99,2022-10-28 16:43:31.656250
462,-20.75,2022-10-28 16:43:31.671875
463,-22.35,2022-10-28 16:43:31.687500
464,-23.84,2022-10-28 16:43:31.703125
465,-25.22,2022-10-28 16:43:31.718750
466,-26.42,2022-10-28 16:43:31.734375
467,-27.42,2022-10-28 16:43:31.750000
468,-28.28,2022-10-28 16:43:31.765625
469,-29.14,2022-10-28 16:43:31.781250
470,-30.08,2022-10-28 16:43:31.796875
471,-31.02,2022-10-28 16:43:31.812500
472,-31.5,2022-10-28 16:43:31.828125
473,-30.77,2022-10-28 16:43:31.843750
474,-27.9,2022-10-28 16:43:31.859375
475,-22.26,2022-10-28 16:43:31.875000
476,-13.93,2022-10-28 16:43:31.890625
477,-3.81,2022-10-28 16:43:31.906250
478,6.57,2022-10-28 16:43:31.921875
479,15.68,2022-10-28 16:43:31.937500
480,22.5,2022-10-28 16:43:31.953125
481,26.84,2022-10-28 16:43:31.968750
482,29.0,2022-10-28 16:43:31.984375
483,29.55,2022-10-28 16:43:32.000000
484,28.93,2022-10-28 16:43:32.015625
485,27.38,2022-10-28 16:43:32.031250
486,25.14,2022-10-28 16:43:32.046875
487,22.6,2022-10-28 16:43:32.062500
488,20.34,2022-10-28 16:43:32.078125
489,18.83,2022-10-28 16:43:32.093750
490,18.11,2022-10-28 16:43:32.109375
491,17.68,2022-10-28 16:43:32.125000
492,16.68,2022-10-28 16:43:32.140625
493,14.42,2022-10-28 16:43:32.156250
494,10.83,2022-10-28 16:43:32.171875
495,6.61,2022-10-28 16:43:32.187500
496,2.83,2022-10-28 16:43:32.203125
497,0.43,2022-10-28 16:43:32.218750
498,-0.23,2022-10-28 16:43:32.234375
499,0.52,2022-10-28 16:43:32.250000
500,1.85,2022-10-28 16:43:32.265625
501,2.87,2022-10-28 16:43:32.281250
502,2.92,2022-10-28 16:43:32.296875
503,1.69,2022-10-28 16:43:32.312500
504,-0.78,2022-10-28 16:43:32.328125
505,-4.21,2022-10-28 16:43:32.343750
506,-8.21,2022-10-28 16:43:32.359375
507,-12.4,2022-10-28 16:43:32.375000
508,-16.34,2022-10-28 16:43:32.390625
509,-19.67,2022-10-28 16:43:32.406250
510,-22.25,2022-10-28 16:43:32.421875
511,-24.19,2022-10-28 16:43:32.437500
512,-25.84,2022-10-28 16:43:32.453125
513,-27.61,2022-10-28 16:43:32.468750
514,-29.73,2022-10-28 16:43:32.484375
515,-32.03,2022-10-28 16:43:32.500000
516,-33.98,2022-10-28 16:43:32.515625
517,-34.84,2022-10-28 16:43:32.531250
518,-33.97,2022-10-28 16:43:32.546875
519,-31.06,2022-10-28 16:43:32.562500
520,-26.16,2022-10-28 16:43:32.578125
521,-19.62,2022-10-28 16:43:32.593750
522,-11.85,2022-10-28 16:43:32.609375
523,-3.34,2022-10-28 16:43:32.625000
524,5.31,2022-10-28 16:43:32.640625
525,13.36,2022-10-28 16:43:32.656250
526,19.86,2022-10-28 16:43:32.671875
527,23.95,2022-10-28 16:43:32.687500
528,25.21,2022-10-28 16:43:32.703125
529,24.03,2022-10-28 16:43:32.718750
530,21.4,2022-10-28 16:43:32.734375
531,18.52,2022-10-28 16:43:32.750000
532,16.19,2022-10-28 16:43:32.765625
533,14.45,2022-10-28 16:43:32.781250
534,12.74,2022-10-28 16:43:32.796875
535,10.38,2022-10-28 16:43:32.812500
536,7.1,2022-10-28 16:43:32.828125
537,3.21,2022-10-28 16:43:32.843750
538,-0.59,2022-10-28 16:43:32.859375
539,-3.7,2022-10-28 16:43:32.875000
540,-6.02,2022-10-28 16:43:32.890625
541,-7.89,2022-10-28 16:43:32.906250
542,-9.83,2022-10-28 16:43:32.921875
543,-12.12,2022-10-28 16:43:32.937500
544,-14.69,2022-10-28 16:43:32.953125
545,-17.25,2022-10-28 16:43:32.968750
546,-19.57,2022-10-28 16:43:32.984375
547,-21.72,2022-10-28 16:43:33.000000
548,-24.02,2022-10-28 16:43:33.015625
549,-26.75,2022-10-28 16:43:33.031250
550,-29.87,2022-10-28 16:43:33.046875
551,-32.82,2022-10-28 16:43:33.062500
552,-34.88,2022-10-28 16:43:33.078125
553,-35.53,2022-10-28 16:43:33.093750
554,-34.93,2022-10-28 16:43:33.109375
555,-33.97,2022-10-28 16:43:33.125000
556,-33.94,2022-10-28 16:43:33.140625
557,-35.9,2022-10-28 16:43:33.156250
558,-40.04,2022-10-28 16:43:33.171875
559,-45.42,2022-10-28 16:43:33.187500
560,-50.31,2022-10-28 16:43:33.203125
561,-52.83,2022-10-28 16:43:33.218750
562,-51.75,2022-10-28 16:43:33.234375
563,-46.79,2022-10-28 16:43:33.250000
564,-38.68,2022-10-28 16:43:33.265625
565,-28.64,2022-10-28 16:43:33.281250
566,-17.93,2022-10-28 16:43:33.296875
567,-7.51,2022-10-28 16:43:33.312500
568,2.01,2022-10-28 16:43:33.328125
569,10.26,2022-10-28 16:43:33.343750
570,17.05,2022-10-28 16:43:33.359375
571,22.31,2022-10-28 16:43:33.375000
572,26.14,2022-10-28 16:43:33.390625
573,28.82,2022-10-28 16:43:33.406250
574,30.67,2022-10-28 16:43:33.421875
575,31.9,2022-10-28 16:43:33.437500
576,32.52,2022-10-28 16:43:33.453125
577,32.38,2022-10-28 16:43:33.468750
578,31.31,2022-10-28 16:43:33.484375
579,29.42,2022-10-28 16:43:33.500000
580,27.1,2022-10-28 16:43:33.515625
581,24.9,2022-10-28 16:43:33.531250
582,23.28,2022-10-28 16:43:33.546875
583,22.4,2022-10-28 16:43:33.562500
584,22.02,2022-10-28 16:43:33.578125
585,21.69,2022-10-28 16:43:33.593750
586,21.0,2022-10-28 16:43:33.609375
587,19.8,2022-10-28 16:43:33.625000
588,18.3,2022-10-28 16:43:33.640625
589,16.92,2022-10-28 16:43:33.656250
590,16.0,2022-10-28 16:43:33.671875
591,15.64,2022-10-28 16:43:33.687500
592,15.57,2022-10-28 16:43:33.703125
593,15.36,2022-10-28 16:43:33.718750
594,14.59,2022-10-28 16:43:33.734375
595,13.07,2022-10-28 16:43:33.750000
596,10.81,2022-10-28 16:43:33.765625
597,7.98,2022-10-28 16:43:33.781250
598,4.77,2022-10-28 16:43:33.796875
599,1.28,2022-10-28 16:43:33.812500
600,-2.41,2022-10-28 16:43:33.828125
601,-6.29,2022-10-28 16:43:33.843750
602,-10.38,2022-10-28 16:43:33.859375
603,-14.7,2022-10-28 16:43:33.875000
604,-19.32,2022-10-28 16:43:33.890625
605,-24.22,2022-10-28 16:43:33.906250
606,-29.28,2022-10-28 16:43:33.921875
607,-34.08,2022-10-28 16:43:33.937500
608,-37.91,2022-10-28 16:43:33.953125
609,-39.88,2022-10-28 16:43:33.968750
610,-39.17,2022-10-28 16:43:33.984375
611,-35.28,2022-10-28 16:43:34.000000
612,-28.24,2022-10-28 16:43:34.015625
613,-18.69,2022-10-28 16:43:34.031250
614,-7.83,2022-10-28 16:43:34.046875
615,2.8,2022-10-28 16:43:34.062500
616,11.72,2022-10-28 16:43:34.078125
617,17.96,2022-10-28 16:43:34.093750
618,21.4,2022-10-28 16:43:34.109375
619,22.76,2022-10-28 16:43:34.125000
620,23.21,2022-10-28 16:43:34.140625
621,23.86,2022-10-28 16:43:34.156250
622,25.2,2022-10-28 16:43:34.171875
623,26.97,2022-10-28 16:43:34.187500
624,28.45,2022-10-28 16:43:34.203125
625,28.95,2022-10-28 16:43:34.218750
626,28.22,2022-10-28 16:43:34.234375
627,26.61,2022-10-28 16:43:34.250000
628,24.73,2022-10-28 16:43:34.265625
629,23.18,2022-10-28 16:43:34.281250
630,22.15,2022-10-28 16:43:34.296875
631,21.44,2022-10-28 16:43:34.312500
632,20.57,2022-10-28 16:43:34.328125
633,19.04,2022-10-28 16:43:34.343750
634,16.51,2022-10-28 16:43:34.359375
635,12.89,2022-10-28 16:43:34.375000
636,8.35,2022-10-28 16:43:34.390625
637,3.34,2022-10-28 16:43:34.406250
638,-1.47,2022-10-28 16:43:34.421875
639,-5.33,2022-10-28 16:43:34.437500
640,-7.48,2022-10-28 16:43:34.453125
641,-7.49,2022-10-28 16:43:34.468750
642,-5.33,2022-10-28 16:43:34.484375
643,-1.55,2022-10-28 16:43:34.500000
644,2.85,2022-10-28 16:43:34.515625
645,6.6,2022-10-28 16:43:34.531250
646,8.5,2022-10-28 16:43:34.546875
647,7.83,2022-10-28 16:43:34.562500
648,4.61,2022-10-28 16:43:34.578125
649,-0.24,2022-10-28 16:43:34.593750
650,-5.29,2022-10-28 16:43:34.609375
651,-9.11,2022-10-28 16:43:34.625000
652,-10.95,2022-10-28 16:43:34.640625
653,-11.06,2022-10-28 16:43:34.656250
654,-10.66,2022-10-28 16:43:34.671875
655,-11.35,2022-10-28 16:43:34.687500
656,-14.37,2022-10-28 16:43:34.703125
657,-19.96,2022-10-28 16:43:34.718750
658,-27.2,2022-10-28 16:43:34.734375
659,-34.42,2022-10-28 16:43:34.750000
660,-39.8,2022-10-28 16:43:34.765625
661,-42.08,2022-10-28 16:43:34.781250
662,-40.84,2022-10-28 16:43:34.796875
663,-36.4,2022-10-28 16:43:34.812500
664,-29.59,2022-10-28 16:43:34.828125
665,-21.39,2022-10-28 16:43:34.843750
666,-12.77,2022-10-28 16:43:34.859375
667,-4.62,2022-10-28 16:43:34.875000
668,2.29,2022-10-28 16:43:34.890625
669,7.48,2022-10-28 16:43:34.906250
670,10.85,2022-10-28 16:43:34.921875
671,12.81,2022-10-28 16:43:34.937500
672,14.09,2022-10-28 16:43:34.953125
673,15.32,2022-10-28 16:43:34.968750
674,16.8,2022-10-28 16:43:34.984375
675,18.16,2022-10-28 16:43:35.000000
676,18.73,2022-10-28 16:43:35.015625
677,17.93,2022-10-28 16:43:35.031250
678,15.75,2022-10-28 16:43:35.046875
679,12.86,2022-10-28 16:43:35.062500
680,10.29,2022-10-28 16:43:35.078125
681,8.92,2022-10-28 16:43:35.093750
682,9.0,2022-10-28 16:43:35.109375
683,10.15,2022-10-28 16:43:35.125000
684,11.61,2022-10-28 16:43:35.140625
685,12.78,2022-10-28 16:43:35.156250
686,13.38,2022-10-28 16:43:35.171875
687,13.55,2022-10-28 16:43:35.187500
688,13.48,2022-10-28 16:43:35.203125
689,13.24,2022-10-28 16:43:35.218750
690,12.8,2022-10-28 16:43:35.234375
691,12.15,2022-10-28 16:43:35.250000
692,11.57,2022-10-28 16:43:35.265625
693,11.46,2022-10-28 16:43:35.281250
694,12.09,2022-10-28 16:43:35.296875
695,13.13,2022-10-28 16:43:35.312500
696,13.63,2022-10-28 16:43:35.328125
697,12.29,2022-10-28 16:43:35.343750
698,8.1,2022-10-28 16:43:35.359375
699,0.84,2022-10-28 16:43:35.375000
700,-8.68,2022-10-28 16:43:35.390625
701,-18.82,2022-10-28 16:43:35.406250
702,-27.66,2022-10-28 16:43:35.421875
703,-33.64,2022-10-28 16:43:35.437500
704,-36.08,2022-10-28 16:43:35.453125
705,-35.44,2022-10-28 16:43:35.468750
706,-33.05,2022-10-28 16:43:35.484375
707,-30.66,2022-10-28 16:43:35.500000
708,-29.62,2022-10-28 16:43:35.515625
709,-30.35,2022-10-28 16:43:35.531250
710,-32.07,2022-10-28 16:43:35.546875
711,-33.19,2022-10-28 16:43:35.562500
712,-32.06,2022-10-28 16:43:35.578125
713,-27.83,2022-10-28 16:43:35.593750
714,-20.88,2022-10-28 16:43:35.609375
715,-12.65,2022-10-28 16:43:35.625000
716,-4.87,2022-10-28 16:43:35.640625
717,1.24,2022-10-28 16:43:35.656250
718,5.46,2022-10-28 16:43:35.671875
719,8.49,2022-10-28 16:43:35.687500
720,11.3,2022-10-28 16:43:35.703125
721,14.48,2022-10-28 16:43:35.718750
722,17.79,2022-10-28 16:43:35.734375
723,20.34,2022-10-28 16:43:35.750000
724,21.07,2022-10-28 16:43:35.765625
725,19.32,2022-10-28 16:43:35.781250
726,15.35,2022-10-28 16:43:35.796875
727,10.19,2022-10-28 16:43:35.812500
728,5.34,2022-10-28 16:43:35.828125
729,2.08,2022-10-28 16:43:35.843750
730,1.03,2022-10-28 16:43:35.859375
731,1.98,2022-10-28 16:43:35.875000
732,4.11,2022-10-28 16:43:35.890625
733,6.46,2022-10-28 16:43:35.906250
734,8.32,2022-10-28 16:43:35.921875
735,9.3,2022-10-28 16:43:35.937500
736,9.22,2022-10-28 16:43:35.953125
737,8.02,2022-10-28 16:43:35.968750
738,5.67,2022-10-28 16:43:35.984375
739,2.38,2022-10-28 16:43:36.000000
740,-1.33,2022-10-28 16:43:36.015625
741,-4.69,2022-10-28 16:43:36.031250
742,-7.06,2022-10-28 16:43:36.046875
743,-8.22,2022-10-28 16:43:36.062500
744,-8.54,2022-10-28 16:43:36.078125
745,-8.72,2022-10-28 16:43:36.093750
746,-9.31,2022-10-28 16:43:36.109375
747,-10.43,2022-10-28 16:43:36.125000
748,-11.7,2022-10-28 16:43:36.140625
749,-12.7,2022-10-28 16:43:36.156250
750,-13.27,2022-10-28 16:43:36.171875
751,-13.65,2022-10-28 16:43:36.187500
752,-14.16,2022-10-28 16:43:36.203125
753,-14.82,2022-10-28 16:43:36.218750
754,-15.26,2022-10-28 16:43:36.234375
755,-14.91,2022-10-28 16:43:36.250000
756,-13.5,2022-10-28 16:43:36.265625
757,-11.31,2022-10-28 16:43:36.281250
758,-8.99,2022-10-28 16:43:36.296875
759,-7.27,2022-10-28 16:43:36.312500
760,-6.63,2022-10-28 16:43:36.328125
761,-7.28,2022-10-28 16:43:36.343750
762,-9.32,2022-10-28 16:43:36.359375
763,-12.82,2022-10-28 16:43:36.375000
764,-17.61,2022-10-28 16:43:36.390625
765,-22.95,2022-10-28 16:43:36.406250
766,-27.38,2022-10-28 16:43:36.421875
767,-29.19,2022-10-28 16:43:36.437500
768,-27.3,2022-10-28 16:43:36.453125
769,-21.98,2022-10-28 16:43:36.468750
770,-14.9,2022-10-28 16:43:36.484375
771,-8.35,2022-10-28 16:43:36.500000
772,-4.03,2022-10-28 16:43:36.515625
773,-2.19,2022-10-28 16:43:36.531250
774,-1.73,2022-10-28 16:43:36.546875
775,-1.05,2022-10-28 16:43:36.562500
776,0.83,2022-10-28 16:43:36.578125
777,3.64,2022-10-28 16:43:36.593750
778,6.21,2022-10-28 16:43:36.609375
779,7.31,2022-10-28 16:43:36.625000
780,6.57,2022-10-28 16:43:36.640625
781,4.65,2022-10-28 16:43:36.656250
782,2.78,2022-10-28 16:43:36.671875
783,1.95,2022-10-28 16:43:36.687500
784,2.46,2022-10-28 16:43:36.703125
785,3.85,2022-10-28 16:43:36.718750
786,5.45,2022-10-28 16:43:36.734375
787,6.78,2022-10-28 16:43:36.750000
788,7.78,2022-10-28 16:43:36.765625
789,8.61,2022-10-28 16:43:36.781250
790,9.42,2022-10-28 16:43:36.796875
791,10.15,2022-10-28 16:43:36.812500
792,10.59,2022-10-28 16:43:36.828125
793,10.58,2022-10-28 16:43:36.843750
794,10.14,2022-10-28 16:43:36.859375
795,9.51,2022-10-28 16:43:36.875000
796,9.0,2022-10-28 16:43:36.890625
797,8.77,2022-10-28 16:43:36.906250
798,8.84,2022-10-28 16:43:36.921875
799,9.15,2022-10-28 16:43:36.937500
800,9.6,2022-10-28 16:43:36.953125
801,10.14,2022-10-28 16:43:36.968750
802,10.67,2022-10-28 16:43:36.984375
803,10.97,2022-10-28 16:43:37.000000
804,10.77,2022-10-28 16:43:37.015625
805,9.78,2022-10-28 16:43:37.031250
806,7.94,2022-10-28 16:43:37.046875
807,5.47,2022-10-28 16:43:37.062500
808,2.85,2022-10-28 16:43:37.078125
809,0.65,2022-10-28 16:43:37.093750
810,-0.67,2022-10-28 16:43:37.109375
811,-0.89,2022-10-28 16:43:37.125000
812,-0.12,2022-10-28 16:43:37.140625
813,1.21,2022-10-28 16:43:37.156250
814,2.49,2022-10-28 16:43:37.171875
815,3.01,2022-10-28 16:43:37.187500
816,2.12,2022-10-28 16:43:37.203125
817,-0.6,2022-10-28 16:43:37.218750
818,-5.11,2022-10-28 16:43:37.234375
819,-10.7,2022-10-28 16:43:37.250000
820,-16.11,2022-10-28 16:43:37.265625
821,-19.82,2022-10-28 16:43:37.281250
822,-20.7,2022-10-28 16:43:37.296875
823,-18.42,2022-10-28 16:43:37.312500
824,-13.69,2022-10-28 16:43:37.328125
825,-7.91,2022-10-28 16:43:37.343750
826,-2.59,2022-10-28 16:43:37.359375
827,1.34,2022-10-28 16:43:37.375000
828,3.76,2022-10-28 16:43:37.390625
829,5.15,2022-10-28 16:43:37.406250
830,6.1,2022-10-28 16:43:37.421875
831,6.86,2022-10-28 16:43:37.437500
832,7.23,2022-10-28 16:43:37.453125
833,6.89,2022-10-28 16:43:37.468750
834,5.72,2022-10-28 16:43:37.484375
835,4.0,2022-10-28 16:43:37.500000
836,2.23,2022-10-28 16:43:37.515625
837,0.86,2022-10-28 16:43:37.531250
838,-0.01,2022-10-28 16:43:37.546875
839,-0.56,2022-10-28 16:43:37.562500
840,-1.11,2022-10-28 16:43:37.578125
841,-1.84,2022-10-28 16:43:37.593750
842,-2.74,2022-10-28 16:43:37.609375
843,-3.67,2022-10-28 16:43:37.625000
844,-4.47,2022-10-28 16:43:37.640625
845,-5.05,2022-10-28 16:43:37.656250
846,-5.36,2022-10-28 16:43:37.671875
847,-5.33,2022-10-28 16:43:37.687500
848,-4.99,2022-10-28 16:43:37.703125
849,-4.48,2022-10-28 16:43:37.718750
850,-4.15,2022-10-28 16:43:37.734375
851,-4.34,2022-10-28 16:43:37.750000
852,-5.22,2022-10-28 16:43:37.765625
853,-6.6,2022-10-28 16:43:37.781250
854,-7.99,2022-10-28 16:43:37.796875
855,-8.88,2022-10-28 16:43:37.812500
856,-9.05,2022-10-28 16:43:37.828125
857,-8.76,2022-10-28 16:43:37.843750
858,-8.63,2022-10-28 16:43:37.859375
859,-9.29,2022-10-28 16:43:37.875000
860,-11.01,2022-10-28 16:43:37.890625
861,-13.57,2022-10-28 16:43:37.906250
862,-16.38,2022-10-28 16:43:37.921875
863,-18.78,2022-10-28 16:43:37.937500
864,-20.34,2022-10-28 16:43:37.953125
865,-21.02,2022-10-28 16:43:37.968750
866,-21.08,2022-10-28 16:43:37.984375
867,-20.93,2022-10-28 16:43:38.000000
868,-21.04,2022-10-28 16:43:38.015625
869,-21.8,2022-10-28 16:43:38.031250
870,-23.48,2022-10-28 16:43:38.046875
871,-26.12,2022-10-28 16:43:38.062500
872,-29.5,2022-10-28 16:43:38.078125
873,-33.12,2022-10-28 16:43:38.093750
874,-36.31,2022-10-28 16:43:38.109375
875,-38.32,2022-10-28 16:43:38.125000
876,-38.47,2022-10-28 16:43:38.140625
877,-36.38,2022-10-28 16:43:38.156250
878,-31.96,2022-10-28 16:43:38.171875
879,-25.58,2022-10-28 16:43:38.187500
880,-18.01,2022-10-28 16:43:38.203125
881,-10.3,2022-10-28 16:43:38.218750
882,-3.49,2022-10-28 16:43:38.234375
883,1.68,2022-10-28 16:43:38.250000
884,4.96,2022-10-28 16:43:38.265625
885,6.69,2022-10-28 16:43:38.281250
886,7.56,2022-10-28 16:43:38.296875
887,8.26,2022-10-28 16:43:38.312500
888,9.15,2022-10-28 16:43:38.328125
889,10.1,2022-10-28 16:43:38.343750
890,10.72,2022-10-28 16:43:38.359375
891,10.64,2022-10-28 16:43:38.375000
892,9.84,2022-10-28 16:43:38.390625
893,8.71,2022-10-28 16:43:38.406250
894,7.85,2022-10-28 16:43:38.421875
895,7.75,2022-10-28 16:43:38.437500
896,8.53,2022-10-28 16:43:38.453125
897,9.91,2022-10-28 16:43:38.468750
898,11.33,2022-10-28 16:43:38.484375
899,12.27,2022-10-28 16:43:38.500000
900,12.48,2022-10-28 16:43:38.515625
901,12.02,2022-10-28 16:43:38.531250
902,11.1,2022-10-28 16:43:38.546875
903,9.95,2022-10-28 16:43:38.562500
904,8.56,2022-10-28 16:43:38.578125
905,6.81,2022-10-28 16:43:38.593750
906,4.6,2022-10-28 16:43:38.609375
907,2.12,2022-10-28 16:43:38.625000
908,-0.15,2022-10-28 16:43:38.640625
909,-1.57,2022-10-28 16:43:38.656250
910,-1.78,2022-10-28 16:43:38.671875
911,-0.99,2022-10-28 16:43:38.687500
912,-0.08,2022-10-28 16:43:38.703125
913,-0.18,2022-10-28 16:43:38.718750
914,-2.19,2022-10-28 16:43:38.734375
915,-6.27,2022-10-28 16:43:38.750000
916,-11.68,2022-10-28 16:43:38.765625
917,-17.12,2022-10-28 16:43:38.781250
918,-21.33,2022-10-28 16:43:38.796875
919,-23.68,2022-10-28 16:43:38.812500
920,-24.46,2022-10-28 16:43:38.828125
921,-24.7,2022-10-28 16:43:38.843750
922,-25.64,2022-10-28 16:43:38.859375
923,-28.17,2022-10-28 16:43:38.875000
924,-32.45,2022-10-28 16:43:38.890625
925,-37.85,2022-10-28 16:43:38.906250
926,-43.13,2022-10-28 16:43:38.921875
927,-46.91,2022-10-28 16:43:38.937500
928,-47.97,2022-10-28 16:43:38.953125
929,-45.63,2022-10-28 16:43:38.968750
930,-39.87,2022-10-28 16:43:38.984375
931,-31.32,2022-10-28 16:43:39.000000
932,-21.09,2022-10-28 16:43:39.015625
933,-10.43,2022-10-28 16:43:39.031250
934,-0.45,2022-10-28 16:43:39.046875
935,8.16,2022-10-28 16:43:39.062500
936,15.15,2022-10-28 16:43:39.078125
937,20.6,2022-10-28 16:43:39.093750
938,24.66,2022-10-28 16:43:39.109375
939,27.35,2022-10-28 16:43:39.125000
940,28.46,2022-10-28 16:43:39.140625
941,27.75,2022-10-28 16:43:39.156250
942,25.19,2022-10-28 16:43:39.171875
943,21.2,2022-10-28 16:43:39.187500
944,16.64,2022-10-28 16:43:39.203125
945,12.51,2022-10-28 16:43:39.218750
946,9.5,2022-10-28 16:43:39.234375
947,7.74,2022-10-28 16:43:39.250000
948,6.78,2022-10-28 16:43:39.265625
949,5.95,2022-10-28 16:43:39.281250
950,4.94,2022-10-28 16:43:39.296875
951,4.0,2022-10-28 16:43:39.312500
952,3.92,2022-10-28 16:43:39.328125
953,5.5,2022-10-28 16:43:39.343750
954,9.03,2022-10-28 16:43:39.359375
955,14.03,2022-10-28 16:43:39.375000
956,19.4,2022-10-28 16:43:39.390625
957,24.02,2022-10-28 16:43:39.406250
958,27.26,2022-10-28 16:43:39.421875
959,29.1,2022-10-28 16:43:39.437500
960,29.86,2022-10-28 16:43:39.453125
961,29.76,2022-10-28 16:43:39.468750
962,28.61,2022-10-28 16:43:39.484375
963,26.02,2022-10-28 16:43:39.500000
964,21.78,2022-10-28 16:43:39.515625
965,16.18,2022-10-28 16:43:39.531250
966,10.07,2022-10-28 16:43:39.546875
967,4.36,2022-10-28 16:43:39.562500
968,-0.47,2022-10-28 16:43:39.578125
969,-4.7,2022-10-28 16:43:39.593750
970,-9.09,2022-10-28 16:43:39.609375
971,-14.27,2022-10-28 16:43:39.625000
972,-20.17,2022-10-28 16:43:39.640625
973,-25.89,2022-10-28 16:43:39.656250
974,-30.15,2022-10-28 16:43:39.671875
975,-32.03,2022-10-28 16:43:39.687500
976,-31.69,2022-10-28 16:43:39.703125
977,-30.34,2022-10-28 16:43:39.718750
978,-29.72,2022-10-28 16:43:39.734375
979,-31.08,2022-10-28 16:43:39.750000
980,-34.44,2022-10-28 16:43:39.765625
981,-38.46,2022-10-28 16:43:39.781250
982,-41.03,2022-10-28 16:43:39.796875
983,-40.29,2022-10-28 16:43:39.812500
984,-35.57,2022-10-28 16:43:39.828125
985,-27.69,2022-10-28 16:43:39.843750
986,-18.47,2022-10-28 16:43:39.859375
987,-9.78,2022-10-28 16:43:39.875000
988,-2.62,2022-10-28 16:43:39.890625
989,3.19,2022-10-28 16:43:39.906250
990,8.6,2022-10-28 16:43:39.921875
991,14.48,2022-10-28 16:43:39.937500
992,20.84,2022-10-28 16:43:39.953125
993,26.67,2022-10-28 16:43:39.968750
994,30.36,2022-10-28 16:43:39.984375
995,30.64,2022-10-28 16:43:40.000000
996,27.3,2022-10-28 16:43:40.015625
997,21.42,2022-10-28 16:43:40.031250
998,14.85,2022-10-28 16:43:40.046875
999,9.53,2022-10-28 16:43:40.062500
1000,6.52,2022-10-28 16:43:40.078125
1001,5.77,2022-10-28 16:43:40.093750
1002,6.3,2022-10-28 16:43:40.109375
1003,6.89,2022-10-28 16:43:40.125000
1004,6.84,2022-10-28 16:43:40.140625
1005,6.34,2022-10-28 16:43:40.156250
1006,6.28,2022-10-28 16:43:40.171875
1007,7.59,2022-10-28 16:43:40.187500
1008,10.57,2022-10-28 16:43:40.203125
1009,14.53,2022-10-28 16:43:40.218750
1010,18.05,2022-10-28 16:43:40.234375
1011,19.63,2022-10-28 16:43:40.250000
1012,18.52,2022-10-28 16:43:40.265625
1013,15.09,2022-10-28 16:43:40.281250
1014,10.66,2022-10-28 16:43:40.296875
1015,6.75,2022-10-28 16:43:40.312500
1016,4.38,2022-10-28 16:43:40.328125
1017,3.6,2022-10-28 16:43:40.343750
1018,3.61,2022-10-28 16:43:40.359375
1019,3.28,2022-10-28 16:43:40.375000
1020,1.72,2022-10-28 16:43:40.390625
1021,-1.39,2022-10-28 16:43:40.406250
1022,-5.7,2022-10-28 16:43:40.421875
1023,-10.53,2022-10-28 16:43:40.437500
1024,-15.14,2022-10-28 16:43:40.453125
1025,-18.91,2022-10-28 16:43:40.468750
1026,-21.52,2022-10-28 16:43:40.484375
1027,-22.99,2022-10-28 16:43:40.500000
1028,-23.64,2022-10-28 16:43:40.515625
1029,-24.15,2022-10-28 16:43:40.531250
1030,-25.5,2022-10-28 16:43:40.546875
1031,-28.57,2022-10-28 16:43:40.562500
1032,-33.79,2022-10-28 16:43:40.578125
1033,-40.63,2022-10-28 16:43:40.593750
1034,-47.44,2022-10-28 16:43:40.609375
1035,-51.85,2022-10-28 16:43:40.625000
1036,-51.7,2022-10-28 16:43:40.640625
1037,-45.98,2022-10-28 16:43:40.656250
1038,-35.36,2022-10-28 16:43:40.671875
1039,-21.93,2022-10-28 16:43:40.687500
1040,-8.26,2022-10-28 16:43:40.703125
1041,3.62,2022-10-28 16:43:40.718750
1042,12.87,2022-10-28 16:43:40.734375
1043,19.65,2022-10-28 16:43:40.750000
1044,24.54,2022-10-28 16:43:40.765625
1045,27.9,2022-10-28 16:43:40.781250
1046,29.74,2022-10-28 16:43:40.796875
1047,30.02,2022-10-28 16:43:40.812500
1048,29.04,2022-10-28 16:43:40.828125
1049,27.56,2022-10-28 16:43:40.843750
1050,26.51,2022-10-28 16:43:40.859375
1051,26.45,2022-10-28 16:43:40.875000
1052,27.35,2022-10-28 16:43:40.890625
1053,28.66,2022-10-28 16:43:40.906250
1054,29.85,2022-10-28 16:43:40.921875
1055,30.7,2022-10-28 16:43:40.937500
1056,31.4,2022-10-28 16:43:40.953125
1057,32.27,2022-10-28 16:43:40.968750
1058,33.38,2022-10-28 16:43:40.984375
1059,34.39,2022-10-28 16:43:41.000000
1060,34.81,2022-10-28 16:43:41.015625
1061,34.28,2022-10-28 16:43:41.031250
1062,32.86,2022-10-28 16:43:41.046875
1063,30.9,2022-10-28 16:43:41.062500
1064,28.81,2022-10-28 16:43:41.078125
1065,26.83,2022-10-28 16:43:41.093750
1066,24.96,2022-10-28 16:43:41.109375
1067,23.22,2022-10-28 16:43:41.125000
1068,21.76,2022-10-28 16:43:41.140625
1069,20.86,2022-10-28 16:43:41.156250
1070,20.56,2022-10-28 16:43:41.171875
1071,20.43,2022-10-28 16:43:41.187500
1072,19.46,2022-10-28 16:43:41.203125
1073,16.45,2022-10-28 16:43:41.218750
1074,10.73,2022-10-28 16:43:41.234375
1075,2.71,2022-10-28 16:43:41.250000
1076,-6.04,2022-10-28 16:43:41.265625
1077,-13.46,2022-10-28 16:43:41.281250
1078,-17.94,2022-10-28 16:43:41.296875
1079,-19.16,2022-10-28 16:43:41.312500
1080,-18.24,2022-10-28 16:43:41.328125
1081,-17.12,2022-10-28 16:43:41.343750
1082,-17.59,2022-10-28 16:43:41.359375
1083,-20.46,2022-10-28 16:43:41.375000
1084,-25.26,2022-10-28 16:43:41.390625
1085,-30.62,2022-10-28 16:43:41.406250
1086,-34.84,2022-10-28 16:43:41.421875
1087,-36.47,2022-10-28 16:43:41.437500
1088,-34.71,2022-10-28 16:43:41.453125
1089,-29.42,2022-10-28 16:43:41.468750
1090,-21.12,2022-10-28 16:43:41.484375
1091,-10.87,2022-10-28 16:43:41.500000
1092,-0.11,2022-10-28 16:43:41.515625
1093,9.62,2022-10-28 16:43:41.531250
1094,17.11,2022-10-28 16:43:41.546875
1095,21.77,2022-10-28 16:43:41.562500
1096,23.75,2022-10-28 16:43:41.578125
1097,23.69,2022-10-28 16:43:41.593750
1098,22.27,2022-10-28 16:43:41.609375
1099,19.88,2022-10-28 16:43:41.625000
1100,16.57,2022-10-28 16:43:41.640625
1101,12.31,2022-10-28 16:43:41.656250
1102,7.43,2022-10-28 16:43:41.671875
1103,2.67,2022-10-28 16:43:41.687500
1104,-0.93,2022-10-28 16:43:41.703125
1105,-2.62,2022-10-28 16:43:41.718750
1106,-2.27,2022-10-28 16:43:41.734375
1107,-0.42,2022-10-28 16:43:41.750000
1108,2.03,2022-10-28 16:43:41.765625
1109,4.36,2022-10-28 16:43:41.781250
1110,6.21,2022-10-28 16:43:41.796875
1111,7.6,2022-10-28 16:43:41.812500
1112,8.48,2022-10-28 16:43:41.828125
1113,8.6,2022-10-28 16:43:41.843750
1114,7.51,2022-10-28 16:43:41.859375
1115,4.96,2022-10-28 16:43:41.875000
1116,1.29,2022-10-28 16:43:41.890625
1117,-2.55,2022-10-28 16:43:41.906250
1118,-5.36,2022-10-28 16:43:41.921875
1119,-6.24,2022-10-28 16:43:41.937500
1120,-5.05,2022-10-28 16:43:41.953125
1121,-2.47,2022-10-28 16:43:41.968750
1122,0.26,2022-10-28 16:43:41.984375
1123,1.93,2022-10-28 16:43:42.000000
1124,1.75,2022-10-28 16:43:42.015625
1125,-0.45,2022-10-28 16:43:42.031250
1126,-4.31,2022-10-28 16:43:42.046875
1127,-9.06,2022-10-28 16:43:42.062500
1128,-13.88,2022-10-28 16:43:42.078125
1129,-18.14,2022-10-28 16:43:42.093750
1130,-21.6,2022-10-28 16:43:42.109375
1131,-24.54,2022-10-28 16:43:42.125000
1132,-27.6,2022-10-28 16:43:42.140625
1133,-31.41,2022-10-28 16:43:42.156250
1134,-36.26,2022-10-28 16:43:42.171875
1135,-41.76,2022-10-28 16:43:42.187500
1136,-46.93,2022-10-28 16:43:42.203125
1137,-50.57,2022-10-28 16:43:42.218750
1138,-51.61,2022-10-28 16:43:42.234375
1139,-49.51,2022-10-28 16:43:42.250000
1140,-44.33,2022-10-28 16:43:42.265625
1141,-36.62,2022-10-28 16:43:42.281250
1142,-27.18,2022-10-28 16:43:42.296875
1143,-16.92,2022-10-28 16:43:42.312500
1144,-6.67,2022-10-28 16:43:42.328125
1145,2.81,2022-10-28 16:43:42.343750
1146,10.96,2022-10-28 16:43:42.359375
1147,17.48,2022-10-28 16:43:42.375000
1148,22.42,2022-10-28 16:43:42.390625
1149,25.96,2022-10-28 16:43:42.406250
1150,28.34,2022-10-28 16:43:42.421875
1151,29.6,2022-10-28 16:43:42.437500
1152,29.66,2022-10-28 16:43:42.453125
1153,28.37,2022-10-28 16:43:42.468750
1154,25.79,2022-10-28 16:43:42.484375
1155,22.31,2022-10-28 16:43:42.500000
1156,18.67,2022-10-28 16:43:42.515625
1157,15.72,2022-10-28 16:43:42.531250
1158,14.15,2022-10-28 16:43:42.546875
1159,14.28,2022-10-28 16:43:42.562500
1160,15.93,2022-10-28 16:43:42.578125
1161,18.54,2022-10-28 16:43:42.593750
1162,21.33,2022-10-28 16:43:42.609375
1163,23.48,2022-10-28 16:43:42.625000
1164,24.43,2022-10-28 16:43:42.640625
1165,23.93,2022-10-28 16:43:42.656250
1166,22.12,2022-10-28 16:43:42.671875
1167,19.4,2022-10-28 16:43:42.687500
1168,16.27,2022-10-28 16:43:42.703125
1169,13.18,2022-10-28 16:43:42.718750
1170,10.52,2022-10-28 16:43:42.734375
1171,8.54,2022-10-28 16:43:42.750000
1172,7.42,2022-10-28 16:43:42.765625
1173,7.18,2022-10-28 16:43:42.781250
1174,7.56,2022-10-28 16:43:42.796875
1175,7.98,2022-10-28 16:43:42.812500
1176,7.58,2022-10-28 16:43:42.828125
1177,5.58,2022-10-28 16:43:42.843750
1178,1.58,2022-10-28 16:43:42.859375
1179,-4.09,2022-10-28 16:43:42.875000
1180,-10.46,2022-10-28 16:43:42.890625
1181,-16.23,2022-10-28 16:43:42.906250
1182,-20.34,2022-10-28 16:43:42.921875
1183,-22.37,2022-10-28 16:43:42.937500
1184,-22.78,2022-10-28 16:43:42.953125
1185,-22.67,2022-10-28 16:43:42.968750
1186,-23.3,2022-10-28 16:43:42.984375
1187,-25.63,2022-10-28 16:43:43.000000
1188,-29.82,2022-10-28 16:43:43.015625
1189,-35.21,2022-10-28 16:43:43.031250
1190,-40.39,2022-10-28 16:43:43.046875
1191,-43.7,2022-10-28 16:43:43.062500
1192,-43.75,2022-10-28 16:43:43.078125
1193,-39.86,2022-10-28 16:43:43.093750
1194,-32.34,2022-10-28 16:43:43.109375
1195,-22.35,2022-10-28 16:43:43.125000
1196,-11.55,2022-10-28 16:43:43.140625
1197,-1.47,2022-10-28 16:43:43.156250
1198,6.89,2022-10-28 16:43:43.171875
1199,13.22,2022-10-28 16:43:43.187500
1200,17.78,2022-10-28 16:43:43.203125
1201,20.96,2022-10-28 16:43:43.218750
1202,22.99,2022-10-28 16:43:43.234375
1203,23.81,2022-10-28 16:43:43.250000
1204,23.22,2022-10-28 16:43:43.265625
1205,21.22,2022-10-28 16:43:43.281250
1206,18.22,2022-10-28 16:43:43.296875
1207,15.07,2022-10-28 16:43:43.312500
1208,12.81,2022-10-28 16:43:43.328125
1209,12.26,2022-10-28 16:43:43.343750
1210,13.62,2022-10-28 16:43:43.359375
1211,16.35,2022-10-28 16:43:43.375000
1212,19.37,2022-10-28 16:43:43.390625
1213,21.49,2022-10-28 16:43:43.406250
1214,21.95,2022-10-28 16:43:43.421875
1215,20.74,2022-10-28 16:43:43.437500
1216,18.61,2022-10-28 16:43:43.453125
1217,16.7,2022-10-28 16:43:43.468750
1218,16.0,2022-10-28 16:43:43.484375
1219,16.74,2022-10-28 16:43:43.500000
1220,18.31,2022-10-28 16:43:43.515625
1221,19.49,2022-10-28 16:43:43.531250
1222,19.12,2022-10-28 16:43:43.546875
1223,16.69,2022-10-28 16:43:43.562500
1224,12.67,2022-10-28 16:43:43.578125
1225,8.29,2022-10-28 16:43:43.593750
1226,4.95,2022-10-28 16:43:43.609375
1227,3.47,2022-10-28 16:43:43.625000
1228,3.67,2022-10-28 16:43:43.640625
1229,4.54,2022-10-28 16:43:43.656250
1230,4.65,2022-10-28 16:43:43.671875
1231,2.98,2022-10-28 16:43:43.687500
1232,-0.74,2022-10-28 16:43:43.703125
1233,-5.87,2022-10-28 16:43:43.718750
1234,-11.34,2022-10-28 16:43:43.734375
1235,-16.12,2022-10-28 16:43:43.750000
1236,-19.65,2022-10-28 16:43:43.765625
1237,-21.9,2022-10-28 16:43:43.781250
1238,-23.24,2022-10-28 16:43:43.796875
1239,-24.27,2022-10-28 16:43:43.812500
1240,-25.63,2022-10-28 16:43:43.828125
1241,-28.01,2022-10-28 16:43:43.843750
1242,-31.93,2022-10-28 16:43:43.859375
1243,-37.52,2022-10-28 16:43:43.875000
1244,-44.13,2022-10-28 16:43:43.890625
1245,-50.31,2022-10-28 16:43:43.906250
1246,-54.1,2022-10-28 16:43:43.921875
1247,-53.72,2022-10-28 16:43:43.937500
1248,-48.42,2022-10-28 16:43:43.953125
1249,-38.89,2022-10-28 16:43:43.968750
1250,-27.09,2022-10-28 16:43:43.984375
1251,-15.4,2022-10-28 16:43:44.000000
1252,-5.69,2022-10-28 16:43:44.015625
1253,1.35,2022-10-28 16:43:44.031250
1254,6.22,2022-10-28 16:43:44.046875
1255,10.06,2022-10-28 16:43:44.062500
1256,13.9,2022-10-28 16:43:44.078125
1257,18.11,2022-10-28 16:43:44.093750
1258,22.33,2022-10-28 16:43:44.109375
1259,25.78,2022-10-28 16:43:44.125000
1260,27.76,2022-10-28 16:43:44.140625
1261,28.06,2022-10-28 16:43:44.156250
1262,27.06,2022-10-28 16:43:44.171875
1263,25.51,2022-10-28 16:43:44.187500
1264,24.22,2022-10-28 16:43:44.203125
1265,23.7,2022-10-28 16:43:44.218750
1266,24.09,2022-10-28 16:43:44.234375
1267,25.19,2022-10-28 16:43:44.250000
1268,26.7,2022-10-28 16:43:44.265625
1269,28.35,2022-10-28 16:43:44.281250
1270,29.93,2022-10-28 16:43:44.296875
1271,31.26,2022-10-28 16:43:44.312500
1272,32.08,2022-10-28 16:43:44.328125
1273,32.14,2022-10-28 16:43:44.343750
1274,31.3,2022-10-28 16:43:44.359375
1275,29.62,2022-10-28 16:43:44.375000
1276,27.4,2022-10-28 16:43:44.390625
1277,25.04,2022-10-28 16:43:44.406250
1278,22.86,2022-10-28 16:43:44.421875
1279,20.97,2022-10-28 16:43:44.437500
1280,19.33,2022-10-28 16:43:44.453125
1281,17.86,2022-10-28 16:43:44.468750
1282,16.5,2022-10-28 16:43:44.484375
1283,15.25,2022-10-28 16:43:44.500000
1284,13.99,2022-10-28 16:43:44.515625
1285,12.52,2022-10-28 16:43:44.531250
1286,10.52,2022-10-28 16:43:44.546875
1287,7.85,2022-10-28 16:43:44.562500
1288,4.66,2022-10-28 16:43:44.578125
1289,1.37,2022-10-28 16:43:44.593750
1290,-1.46,2022-10-28 16:43:44.609375
1291,-3.43,2022-10-28 16:43:44.625000
1292,-4.42,2022-10-28 16:43:44.640625
1293,-4.73,2022-10-28 16:43:44.656250
1294,-4.86,2022-10-28 16:43:44.671875
1295,-5.43,2022-10-28 16:43:44.687500
1296,-6.99,2022-10-28 16:43:44.703125
1297,-9.96,2022-10-28 16:43:44.718750
1298,-14.57,2022-10-28 16:43:44.734375
1299,-20.67,2022-10-28 16:43:44.750000
1300,-27.68,2022-10-28 16:43:44.765625
1301,-34.48,2022-10-28 16:43:44.781250
1302,-39.64,2022-10-28 16:43:44.796875
1303,-41.77,2022-10-28 16:43:44.812500
1304,-40.02,2022-10-28 16:43:44.828125
1305,-34.42,2022-10-28 16:43:44.843750
1306,-25.91,2022-10-28 16:43:44.859375
1307,-16.08,2022-10-28 16:43:44.875000
1308,-6.58,2022-10-28 16:43:44.890625
1309,1.38,2022-10-28 16:43:44.906250
1310,7.36,2022-10-28 16:43:44.921875
1311,11.57,2022-10-28 16:43:44.937500
1312,14.56,2022-10-28 16:43:44.953125
1313,16.79,2022-10-28 16:43:44.968750
1314,18.34,2022-10-28 16:43:44.984375
1315,18.93,2022-10-28 16:43:45.000000
1316,18.25,2022-10-28 16:43:45.015625
1317,16.3,2022-10-28 16:43:45.031250
1318,13.48,2022-10-28 16:43:45.046875
1319,10.56,2022-10-28 16:43:45.062500
1320,8.32,2022-10-28 16:43:45.078125
1321,7.28,2022-10-28 16:43:45.093750
1322,7.47,2022-10-28 16:43:45.109375
1323,8.56,2022-10-28 16:43:45.125000
1324,10.08,2022-10-28 16:43:45.140625
1325,11.64,2022-10-28 16:43:45.156250
1326,13.05,2022-10-28 16:43:45.171875
1327,14.31,2022-10-28 16:43:45.187500
1328,15.49,2022-10-28 16:43:45.203125
1329,16.66,2022-10-28 16:43:45.218750
1330,17.77,2022-10-28 16:43:45.234375
1331,18.64,2022-10-28 16:43:45.250000
1332,18.96,2022-10-28 16:43:45.265625
1333,18.3,2022-10-28 16:43:45.281250
1334,16.3,2022-10-28 16:43:45.296875
1335,12.86,2022-10-28 16:43:45.312500
1336,8.39,2022-10-28 16:43:45.328125
1337,3.69,2022-10-28 16:43:45.343750
1338,-0.31,2022-10-28 16:43:45.359375
1339,-3.03,2022-10-28 16:43:45.375000
1340,-4.52,2022-10-28 16:43:45.390625
1341,-5.44,2022-10-28 16:43:45.406250
1342,-6.67,2022-10-28 16:43:45.421875
1343,-8.83,2022-10-28 16:43:45.437500
1344,-12.0,2022-10-28 16:43:45.453125
1345,-15.71,2022-10-28 16:43:45.468750
1346,-19.27,2022-10-28 16:43:45.484375
1347,-22.11,2022-10-28 16:43:45.500000
1348,-23.96,2022-10-28 16:43:45.515625
1349,-24.93,2022-10-28 16:43:45.531250
1350,-25.3,2022-10-28 16:43:45.546875
1351,-25.51,2022-10-28 16:43:45.562500
1352,-26.09,2022-10-28 16:43:45.578125
1353,-27.62,2022-10-28 16:43:45.593750
1354,-30.52,2022-10-28 16:43:45.609375
1355,-34.81,2022-10-28 16:43:45.625000
1356,-39.76,2022-10-28 16:43:45.640625
1357,-44.01,2022-10-28 16:43:45.656250
1358,-45.99,2022-10-28 16:43:45.671875
1359,-44.5,2022-10-28 16:43:45.687500
1360,-39.34,2022-10-28 16:43:45.703125
1361,-31.35,2022-10-28 16:43:45.718750
1362,-22.08,2022-10-28 16:43:45.734375
1363,-13.14,2022-10-28 16:43:45.750000
1364,-5.52,2022-10-28 16:43:45.765625
1365,0.6,2022-10-28 16:43:45.781250
1366,5.74,2022-10-28 16:43:45.796875
1367,10.62,2022-10-28 16:43:45.812500
1368,15.69,2022-10-28 16:43:45.828125
1369,20.77,2022-10-28 16:43:45.843750
1370,25.2,2022-10-28 16:43:45.859375
1371,28.24,2022-10-28 16:43:45.875000
1372,29.42,2022-10-28 16:43:45.890625
1373,28.88,2022-10-28 16:43:45.906250
1374,27.28,2022-10-28 16:43:45.921875
1375,25.54,2022-10-28 16:43:45.937500
1376,24.55,2022-10-28 16:43:45.953125
1377,24.97,2022-10-28 16:43:45.968750
1378,27.14,2022-10-28 16:43:45.984375
1379,31.02,2022-10-28 16:43:46.000000
1380,36.0,2022-10-28 16:43:46.015625
1381,40.65,2022-10-28 16:43:46.031250
1382,42.86,2022-10-28 16:43:46.046875
1383,40.32,2022-10-28 16:43:46.062500
1384,31.6,2022-10-28 16:43:46.078125
1385,17.01,2022-10-28 16:43:46.093750
1386,-1.11,2022-10-28 16:43:46.109375
1387,-19.03,2022-10-28 16:43:46.125000
1388,-33.09,2022-10-28 16:43:46.140625
1389,-41.05,2022-10-28 16:43:46.156250
1390,-42.92,2022-10-28 16:43:46.171875
1391,-40.48,2022-10-28 16:43:46.187500
1392,-36.13,2022-10-28 16:43:46.203125
1393,-31.69,2022-10-28 16:43:46.218750
1394,-27.83,2022-10-28 16:43:46.234375
1395,-24.34,2022-10-28 16:43:46.250000
1396,-20.92,2022-10-28 16:43:46.265625
1397,-17.8,2022-10-28 16:43:46.281250
1398,-15.78,2022-10-28 16:43:46.296875
1399,-15.63,2022-10-28 16:43:46.312500
1400,-17.48,2022-10-28 16:43:46.328125
1401,-20.53,2022-10-28 16:43:46.343750
1402,-23.39,2022-10-28 16:43:46.359375
1403,-24.76,2022-10-28 16:43:46.375000
1404,-24.17,2022-10-28 16:43:46.390625
1405,-22.19,2022-10-28 16:43:46.406250
1406,-20.11,2022-10-28 16:43:46.421875
1407,-19.28,2022-10-28 16:43:46.437500
1408,-20.46,2022-10-28 16:43:46.453125
1409,-23.58,2022-10-28 16:43:46.468750
1410,-27.88,2022-10-28 16:43:46.484375
1411,-32.34,2022-10-28 16:43:46.500000
1412,-36.07,2022-10-28 16:43:46.515625
1413,-38.4,2022-10-28 16:43:46.531250
1414,-38.93,2022-10-28 16:43:46.546875
1415,-37.35,2022-10-28 16:43:46.562500
1416,-33.47,2022-10-28 16:43:46.578125
1417,-27.3,2022-10-28 16:43:46.593750
1418,-19.14,2022-10-28 16:43:46.609375
1419,-9.72,2022-10-28 16:43:46.625000
1420,0.01,2022-10-28 16:43:46.640625
1421,9.09,2022-10-28 16:43:46.656250
1422,16.84,2022-10-28 16:43:46.671875
1423,23.04,2022-10-28 16:43:46.687500
1424,27.87,2022-10-28 16:43:46.703125
1425,31.53,2022-10-28 16:43:46.718750
1426,34.02,2022-10-28 16:43:46.734375
1427,35.07,2022-10-28 16:43:46.750000
1428,34.31,2022-10-28 16:43:46.765625
1429,31.7,2022-10-28 16:43:46.781250
1430,27.88,2022-10-28 16:43:46.796875
1431,24.05,2022-10-28 16:43:46.812500
1432,21.54,2022-10-28 16:43:46.828125
1433,21.22,2022-10-28 16:43:46.843750
1434,23.04,2022-10-28 16:43:46.859375
1435,26.09,2022-10-28 16:43:46.875000
1436,29.01,2022-10-28 16:43:46.890625
1437,30.66,2022-10-28 16:43:46.906250
1438,30.61,2022-10-28 16:43:46.921875
1439,29.14,2022-10-28 16:43:46.937500
1440,27.04,2022-10-28 16:43:46.953125
1441,25.09,2022-10-28 16:43:46.968750
1442,23.69,2022-10-28 16:43:46.984375
1443,22.71,2022-10-28 16:43:47.000000
1444,21.65,2022-10-28 16:43:47.015625
1445,19.96,2022-10-28 16:43:47.031250
1446,17.42,2022-10-28 16:43:47.046875
1447,14.24,2022-10-28 16:43:47.062500
1448,11.0,2022-10-28 16:43:47.078125
1449,8.31,2022-10-28 16:43:47.093750
1450,6.44,2022-10-28 16:43:47.109375
1451,5.23,2022-10-28 16:43:47.125000
1452,4.28,2022-10-28 16:43:47.140625
1453,3.14,2022-10-28 16:43:47.156250
1454,1.63,2022-10-28 16:43:47.171875
1455,-0.16,2022-10-28 16:43:47.187500
1456,-2.15,2022-10-28 16:43:47.203125
1457,-4.43,2022-10-28 16:43:47.218750
1458,-7.35,2022-10-28 16:43:47.234375
1459,-11.25,2022-10-28 16:43:47.250000
1460,-16.08,2022-10-28 16:43:47.265625
1461,-21.18,2022-10-28 16:43:47.281250
1462,-25.53,2022-10-28 16:43:47.296875
1463,-28.21,2022-10-28 16:43:47.312500
1464,-28.94,2022-10-28 16:43:47.328125
1465,-28.41,2022-10-28 16:43:47.343750
1466,-27.92,2022-10-28 16:43:47.359375
1467,-28.82,2022-10-28 16:43:47.375000
1468,-31.8,2022-10-28 16:43:47.390625
1469,-36.52,2022-10-28 16:43:47.406250
1470,-41.75,2022-10-28 16:43:47.421875
1471,-45.85,2022-10-28 16:43:47.437500
1472,-47.52,2022-10-28 16:43:47.453125
1473,-46.11,2022-10-28 16:43:47.468750
1474,-41.68,2022-10-28 16:43:47.484375
1475,-34.75,2022-10-28 16:43:47.500000
1476,-26.06,2022-10-28 16:43:47.515625
1477,-16.42,2022-10-28 16:43:47.531250
1478,-6.75,2022-10-28 16:43:47.546875
1479,2.02,2022-10-28 16:43:47.562500
1480,9.11,2022-10-28 16:43:47.578125
1481,14.18,2022-10-28 16:43:47.593750
1482,17.41,2022-10-28 16:43:47.609375
1483,19.3,2022-10-28 16:43:47.625000
1484,20.37,2022-10-28 16:43:47.640625
1485,20.89,2022-10-28 16:43:47.656250
1486,20.82,2022-10-28 16:43:47.671875
1487,20.19,2022-10-28 16:43:47.687500
1488,19.28,2022-10-28 16:43:47.703125
1489,18.73,2022-10-28 16:43:47.718750
1490,19.12,2022-10-28 16:43:47.734375
1491,20.55,2022-10-28 16:43:47.750000
1492,22.36,2022-10-28 16:43:47.765625
1493,23.56,2022-10-28 16:43:47.781250
1494,23.4,2022-10-28 16:43:47.796875
1495,22.02,2022-10-28 16:43:47.812500
1496,20.4,2022-10-28 16:43:47.828125
1497,19.82,2022-10-28 16:43:47.843750
1498,21.02,2022-10-28 16:43:47.859375
1499,23.67,2022-10-28 16:43:47.875000
1500,26.56,2022-10-28 16:43:47.890625
1501,28.29,2022-10-28 16:43:47.906250
1502,28.08,2022-10-28 16:43:47.921875
1503,26.19,2022-10-28 16:43:47.937500
1504,23.65,2022-10-28 16:43:47.953125
1505,21.49,2022-10-28 16:43:47.968750
1506,20.12,2022-10-28 16:43:47.984375
1507,19.11,2022-10-28 16:43:48.000000
1508,17.54,2022-10-28 16:43:48.015625
1509,14.78,2022-10-28 16:43:48.031250
1510,10.94,2022-10-28 16:43:48.046875
1511,6.92,2022-10-28 16:43:48.062500
1512,3.81,2022-10-28 16:43:48.078125
1513,2.24,2022-10-28 16:43:48.093750
1514,1.93,2022-10-28 16:43:48.109375
1515,1.94,2022-10-28 16:43:48.125000
1516,1.22,2022-10-28 16:43:48.140625
1517,-0.8,2022-10-28 16:43:48.156250
1518,-3.89,2022-10-28 16:43:48.171875
1519,-7.25,2022-10-28 16:43:48.187500
1520,-10.01,2022-10-28 16:43:48.203125
1521,-11.59,2022-10-28 16:43:48.218750
1522,-12.03,2022-10-28 16:43:48.234375
1523,-11.83,2022-10-28 16:43:48.250000
1524,-11.7,2022-10-28 16:43:48.265625
1525,-12.4,2022-10-28 16:43:48.281250
1526,-14.58,2022-10-28 16:43:48.296875
1527,-18.58,2022-10-28 16:43:48.312500
1528,-24.31,2022-10-28 16:43:48.328125
1529,-30.97,2022-10-28 16:43:48.343750
1530,-37.13,2022-10-28 16:43:48.359375
1531,-41.0,2022-10-28 16:43:48.375000
1532,-41.1,2022-10-28 16:43:48.390625
1533,-36.93,2022-10-28 16:43:48.406250
1534,-29.18,2022-10-28 16:43:48.421875
1535,-19.46,2022-10-28 16:43:48.437500
1536,-9.57,2022-10-28 16:43:48.453125
1537,-0.85,2022-10-28 16:43:48.468750
1538,6.18,2022-10-28 16:43:48.484375
1539,11.7,2022-10-28 16:43:48.500000
1540,16.07,2022-10-28 16:43:48.515625
1541,19.47,2022-10-28 16:43:48.531250
1542,21.76,2022-10-28 16:43:48.546875
1543,22.67,2022-10-28 16:43:48.562500
1544,22.19,2022-10-28 16:43:48.578125
1545,20.67,2022-10-28 16:43:48.593750
1546,18.79,2022-10-28 16:43:48.609375
1547,17.23,2022-10-28 16:43:48.625000
1548,16.47,2022-10-28 16:43:48.640625
1549,16.65,2022-10-28 16:43:48.656250
1550,17.68,2022-10-28 16:43:48.671875
1551,19.33,2022-10-28 16:43:48.687500
1552,21.31,2022-10-28 16:43:48.703125
1553,23.28,2022-10-28 16:43:48.718750
1554,24.83,2022-10-28 16:43:48.734375
1555,25.61,2022-10-28 16:43:48.750000
1556,25.4,2022-10-28 16:43:48.765625
1557,24.28,2022-10-28 16:43:48.781250
1558,22.58,2022-10-28 16:43:48.796875
1559,20.8,2022-10-28 16:43:48.812500
1560,19.38,2022-10-28 16:43:48.828125
1561,18.51,2022-10-28 16:43:48.843750
1562,18.06,2022-10-28 16:43:48.859375
1563,17.6,2022-10-28 16:43:48.875000
1564,16.6,2022-10-28 16:43:48.890625
1565,14.66,2022-10-28 16:43:48.906250
1566,11.73,2022-10-28 16:43:48.921875
1567,8.23,2022-10-28 16:43:48.937500
1568,4.9,2022-10-28 16:43:48.953125
1569,2.47,2022-10-28 16:43:48.968750
1570,1.3,2022-10-28 16:43:48.984375
1571,1.17,2022-10-28 16:43:49.000000
1572,1.39,2022-10-28 16:43:49.015625
1573,1.17,2022-10-28 16:43:49.031250
1574,-0.07,2022-10-28 16:43:49.046875
1575,-2.49,2022-10-28 16:43:49.062500
1576,-5.99,2022-10-28 16:43:49.078125
1577,-10.39,2022-10-28 16:43:49.093750
1578,-15.6,2022-10-28 16:43:49.109375
1579,-21.47,2022-10-28 16:43:49.125000
1580,-27.56,2022-10-28 16:43:49.140625
1581,-33.09,2022-10-28 16:43:49.156250
1582,-37.19,2022-10-28 16:43:49.171875
1583,-39.46,2022-10-28 16:43:49.187500
1584,-40.3,2022-10-28 16:43:49.203125
1585,-40.83,2022-10-28 16:43:49.218750
1586,-42.23,2022-10-28 16:43:49.234375
1587,-44.96,2022-10-28 16:43:49.250000
1588,-48.34,2022-10-28 16:43:49.265625
1589,-50.72,2022-10-28 16:43:49.281250
1590,-50.36,2022-10-28 16:43:49.296875
1591,-46.23,2022-10-28 16:43:49.312500
1592,-38.53,2022-10-28 16:43:49.328125
1593,-28.47,2022-10-28 16:43:49.343750
1594,-17.73,2022-10-28 16:43:49.359375
1595,-7.75,2022-10-28 16:43:49.375000
1596,0.54,2022-10-28 16:43:49.390625
1597,6.82,2022-10-28 16:43:49.406250
1598,11.16,2022-10-28 16:43:49.421875
1599,13.89,2022-10-28 16:43:49.437500
1600,15.43,2022-10-28 16:43:49.453125
1601,16.25,2022-10-28 16:43:49.468750
1602,16.67,2022-10-28 16:43:49.484375
1603,16.86,2022-10-28 16:43:49.500000
1604,16.81,2022-10-28 16:43:49.515625
1605,16.51,2022-10-28 16:43:49.531250
1606,16.12,2022-10-28 16:43:49.546875
1607,16.03,2022-10-28 16:43:49.562500
1608,16.62,2022-10-28 16:43:49.578125
1609,17.96,2022-10-28 16:43:49.593750
1610,19.61,2022-10-28 16:43:49.609375
1611,20.79,2022-10-28 16:43:49.625000
1612,20.82,2022-10-28 16:43:49.640625
1613,19.58,2022-10-28 16:43:49.656250
1614,17.64,2022-10-28 16:43:49.671875
1615,15.94,2022-10-28 16:43:49.687500
1616,15.17,2022-10-28 16:43:49.703125
1617,15.28,2022-10-28 16:43:49.718750
1618,15.54,2022-10-28 16:43:49.734375
1619,15.03,2022-10-28 16:43:49.750000
1620,13.23,2022-10-28 16:43:49.765625
1621,10.37,2022-10-28 16:43:49.781250
1622,7.29,2022-10-28 16:43:49.796875
1623,4.82,2022-10-28 16:43:49.812500
1624,3.3,2022-10-28 16:43:49.828125
1625,2.36,2022-10-28 16:43:49.843750
1626,1.32,2022-10-28 16:43:49.859375
1627,-0.4,2022-10-28 16:43:49.875000
1628,-2.85,2022-10-28 16:43:49.890625
1629,-5.65,2022-10-28 16:43:49.906250
1630,-8.37,2022-10-28 16:43:49.921875
1631,-10.86,2022-10-28 16:43:49.937500
1632,-13.38,2022-10-28 16:43:49.953125
1633,-16.24,2022-10-28 16:43:49.968750
1634,-19.55,2022-10-28 16:43:49.984375
1635,-23.0,2022-10-28 16:43:50.000000
1636,-26.06,2022-10-28 16:43:50.015625
1637,-28.3,2022-10-28 16:43:50.031250
1638,-29.67,2022-10-28 16:43:50.046875
1639,-30.57,2022-10-28 16:43:50.062500
1640,-31.56,2022-10-28 16:43:50.078125
1641,-33.14,2022-10-28 16:43:50.093750
1642,-35.52,2022-10-28 16:43:50.109375
1643,-38.7,2022-10-28 16:43:50.125000
1644,-42.51,2022-10-28 16:43:50.140625
1645,-46.66,2022-10-28 16:43:50.156250
1646,-50.69,2022-10-28 16:43:50.171875
1647,-53.81,2022-10-28 16:43:50.187500
1648,-55.0,2022-10-28 16:43:50.203125
1649,-53.26,2022-10-28 16:43:50.218750
1650,-48.03,2022-10-28 16:43:50.234375
1651,-39.5,2022-10-28 16:43:50.250000
1652,-28.6,2022-10-28 16:43:50.265625
1653,-16.7,2022-10-28 16:43:50.281250
1654,-5.12,2022-10-28 16:43:50.296875
1655,5.2,2022-10-28 16:43:50.312500
1656,13.82,2022-10-28 16:43:50.328125
1657,20.58,2022-10-28 16:43:50.343750
1658,25.42,2022-10-28 16:43:50.359375
1659,28.26,2022-10-28 16:43:50.375000
1660,29.14,2022-10-28 16:43:50.390625
1661,28.39,2022-10-28 16:43:50.406250
1662,26.68,2022-10-28 16:43:50.421875
1663,24.88,2022-10-28 16:43:50.437500
1664,23.73,2022-10-28 16:43:50.453125
1665,23.63,2022-10-28 16:43:50.468750
1666,24.55,2022-10-28 16:43:50.484375
1667,26.22,2022-10-28 16:43:50.500000
1668,28.25,2022-10-28 16:43:50.515625
1669,30.31,2022-10-28 16:43:50.531250
1670,32.08,2022-10-28 16:43:50.546875
1671,33.28,2022-10-28 16:43:50.562500
1672,33.76,2022-10-28 16:43:50.578125
1673,33.55,2022-10-28 16:43:50.593750
1674,32.96,2022-10-28 16:43:50.609375
1675,32.42,2022-10-28 16:43:50.625000
1676,32.19,2022-10-28 16:43:50.640625
1677,32.12,2022-10-28 16:43:50.656250
1678,31.67,2022-10-28 16:43:50.671875
1679,30.25,2022-10-28 16:43:50.687500
1680,27.68,2022-10-28 16:43:50.703125
1681,24.4,2022-10-28 16:43:50.718750
1682,21.16,2022-10-28 16:43:50.734375
1683,18.63,2022-10-28 16:43:50.750000
1684,16.91,2022-10-28 16:43:50.765625
1685,15.56,2022-10-28 16:43:50.781250
1686,13.93,2022-10-28 16:43:50.796875
1687,11.59,2022-10-28 16:43:50.812500
1688,8.63,2022-10-28 16:43:50.828125
1689,5.47,2022-10-28 16:43:50.843750
1690,2.6,2022-10-28 16:43:50.859375
1691,0.25,2022-10-28 16:43:50.875000
1692,-1.7,2022-10-28 16:43:50.890625
1693,-3.54,2022-10-28 16:43:50.906250
1694,-5.53,2022-10-28 16:43:50.921875
1695,-7.78,2022-10-28 16:43:50.937500
1696,-10.32,2022-10-28 16:43:50.953125
1697,-13.12,2022-10-28 16:43:50.968750
1698,-16.17,2022-10-28 16:43:50.984375
1699,-19.39,2022-10-28 16:43:51.000000
1700,-22.67,2022-10-28 16:43:51.015625
1701,-25.89,2022-10-28 16:43:51.031250
1702,-29.06,2022-10-28 16:43:51.046875
1703,-32.39,2022-10-28 16:43:51.062500
1704,-36.16,2022-10-28 16:43:51.078125
1705,-40.57,2022-10-28 16:43:51.093750
1706,-45.52,2022-10-28 16:43:51.109375
1707,-50.53,2022-10-28 16:43:51.125000
1708,-54.8,2022-10-28 16:43:51.140625
1709,-57.35,2022-10-28 16:43:51.156250
1710,-57.23,2022-10-28 16:43:51.171875
1711,-53.77,2022-10-28 16:43:51.187500
1712,-46.77,2022-10-28 16:43:51.203125
1713,-36.73,2022-10-28 16:43:51.218750
1714,-24.82,2022-10-28 16:43:51.234375
1715,-12.59,2022-10-28 16:43:51.250000
1716,-1.54,2022-10-28 16:43:51.265625
1717,7.45,2022-10-28 16:43:51.281250
1718,14.3,2022-10-28 16:43:51.296875
1719,19.61,2022-10-28 16:43:51.312500
1720,24.07,2022-10-28 16:43:51.328125
1721,27.95,2022-10-28 16:43:51.343750
1722,30.93,2022-10-28 16:43:51.359375
1723,32.31,2022-10-28 16:43:51.375000
1724,31.66,2022-10-28 16:43:51.390625
1725,29.25,2022-10-28 16:43:51.406250
1726,26.07,2022-10-28 16:43:51.421875
1727,23.45,2022-10-28 16:43:51.437500
1728,22.39,2022-10-28 16:43:51.453125
1729,23.09,2022-10-28 16:43:51.468750
1730,24.89,2022-10-28 16:43:51.484375
1731,26.68,2022-10-28 16:43:51.500000
1732,27.54,2022-10-28 16:43:51.515625
1733,27.15,2022-10-28 16:43:51.531250
1734,25.84,2022-10-28 16:43:51.546875
1735,24.22,2022-10-28 16:43:51.562500
1736,22.75,2022-10-28 16:43:51.578125
1737,21.5,2022-10-28 16:43:51.593750
1738,20.23,2022-10-28 16:43:51.609375
1739,18.71,2022-10-28 16:43:51.625000
1740,16.95,2022-10-28 16:43:51.640625
1741,15.23,2022-10-28 16:43:51.656250
1742,13.95,2022-10-28 16:43:51.671875
1743,13.31,2022-10-28 16:43:51.687500
1744,13.19,2022-10-28 16:43:51.703125
1745,13.23,2022-10-28 16:43:51.718750
1746,13.02,2022-10-28 16:43:51.734375
1747,12.33,2022-10-28 16:43:51.750000
1748,11.21,2022-10-28 16:43:51.765625
1749,9.8,2022-10-28 16:43:51.781250
1750,8.23,2022-10-28 16:43:51.796875
1751,6.51,2022-10-28 16:43:51.812500
1752,4.6,2022-10-28 16:43:51.828125
1753,2.53,2022-10-28 16:43:51.843750
1754,0.39,2022-10-28 16:43:51.859375
1755,-1.71,2022-10-28 16:43:51.875000
1756,-3.88,2022-10-28 16:43:51.890625
1757,-6.44,2022-10-28 16:43:51.906250
1758,-9.74,2022-10-28 16:43:51.921875
1759,-13.98,2022-10-28 16:43:51.937500
1760,-18.94,2022-10-28 16:43:51.953125
1761,-23.98,2022-10-28 16:43:51.968750
1762,-28.36,2022-10-28 16:43:51.984375
1763,-31.58,2022-10-28 16:43:52.000000
1764,-33.69,2022-10-28 16:43:52.015625
1765,-35.3,2022-10-28 16:43:52.031250
1766,-37.31,2022-10-28 16:43:52.046875
1767,-40.5,2022-10-28 16:43:52.062500
1768,-45.18,2022-10-28 16:43:52.078125
1769,-51.06,2022-10-28 16:43:52.093750
1770,-57.32,2022-10-28 16:43:52.109375
1771,-62.74,2022-10-28 16:43:52.125000
1772,-65.97,2022-10-28 16:43:52.140625
1773,-65.79,2022-10-28 16:43:52.156250
1774,-61.44,2022-10-28 16:43:52.171875
1775,-52.82,2022-10-28 16:43:52.187500
1776,-40.7,2022-10-28 16:43:52.203125
1777,-26.54,2022-10-28 16:43:52.218750
1778,-12.06,2022-10-28 16:43:52.234375
1779,1.18,2022-10-28 16:43:52.250000
1780,12.25,2022-10-28 16:43:52.265625
1781,20.93,2022-10-28 16:43:52.281250
1782,27.59,2022-10-28 16:43:52.296875
1783,32.72,2022-10-28 16:43:52.312500
1784,36.64,2022-10-28 16:43:52.328125
1785,39.41,2022-10-28 16:43:52.343750
1786,40.89,2022-10-28 16:43:52.359375
1787,41.11,2022-10-28 16:43:52.375000
1788,40.38,2022-10-28 16:43:52.390625
1789,39.23,2022-10-28 16:43:52.406250
1790,38.25,2022-10-28 16:43:52.421875
1791,37.76,2022-10-28 16:43:52.437500
1792,37.75,2022-10-28 16:43:52.453125
1793,37.96,2022-10-28 16:43:52.468750
1794,38.1,2022-10-28 16:43:52.484375
1795,38.13,2022-10-28 16:43:52.500000
1796,38.3,2022-10-28 16:43:52.515625
1797,38.87,2022-10-28 16:43:52.531250
1798,39.86,2022-10-28 16:43:52.546875
1799,40.82,2022-10-28 16:43:52.562500
1800,41.07,2022-10-28 16:43:52.578125
1801,40.03,2022-10-28 16:43:52.593750
1802,37.67,2022-10-28 16:43:52.609375
1803,34.57,2022-10-28 16:43:52.625000
1804,31.61,2022-10-28 16:43:52.640625
1805,29.45,2022-10-28 16:43:52.656250
1806,28.08,2022-10-28 16:43:52.671875
1807,26.91,2022-10-28 16:43:52.687500
1808,25.11,2022-10-28 16:43:52.703125
1809,22.16,2022-10-28 16:43:52.718750
1810,18.11,2022-10-28 16:43:52.734375
1811,13.48,2022-10-28 16:43:52.750000
1812,8.85,2022-10-28 16:43:52.765625
1813,4.57,2022-10-28 16:43:52.781250
1814,0.68,2022-10-28 16:43:52.796875
1815,-2.91,2022-10-28 16:43:52.812500
1816,-6.18,2022-10-28 16:43:52.828125
1817,-9.0,2022-10-28 16:43:52.843750
1818,-11.22,2022-10-28 16:43:52.859375
1819,-12.97,2022-10-28 16:43:52.875000
1820,-14.67,2022-10-28 16:43:52.890625
1821,-16.87,2022-10-28 16:43:52.906250
1822,-19.97,2022-10-28 16:43:52.921875
1823,-23.9,2022-10-28 16:43:52.937500
1824,-28.14,2022-10-28 16:43:52.953125
1825,-31.92,2022-10-28 16:43:52.968750
1826,-34.65,2022-10-28 16:43:52.984375
1827,-36.2,2022-10-28 16:43:53.000000
1828,-36.99,2022-10-28 16:43:53.015625
1829,-37.85,2022-10-28 16:43:53.031250
1830,-39.66,2022-10-28 16:43:53.046875
1831,-42.97,2022-10-28 16:43:53.062500
1832,-47.65,2022-10-28 16:43:53.078125
1833,-52.83,2022-10-28 16:43:53.093750
1834,-57.03,2022-10-28 16:43:53.109375
1835,-58.7,2022-10-28 16:43:53.125000
1836,-56.72,2022-10-28 16:43:53.140625
1837,-50.88,2022-10-28 16:43:53.156250
1838,-41.95,2022-10-28 16:43:53.171875
1839,-31.28,2022-10-28 16:43:53.187500
1840,-20.31,2022-10-28 16:43:53.203125
1841,-10.14,2022-10-28 16:43:53.218750
1842,-1.35,2022-10-28 16:43:53.234375
1843,5.91,2022-10-28 16:43:53.250000
1844,11.66,2022-10-28 16:43:53.265625
1845,15.96,2022-10-28 16:43:53.281250
1846,18.87,2022-10-28 16:43:53.296875
1847,20.49,2022-10-28 16:43:53.312500
1848,21.02,2022-10-28 16:43:53.328125
1849,20.76,2022-10-28 16:43:53.343750
1850,20.01,2022-10-28 16:43:53.359375
1851,18.98,2022-10-28 16:43:53.375000
1852,17.93,2022-10-28 16:43:53.390625
1853,17.16,2022-10-28 16:43:53.406250
1854,17.07,2022-10-28 16:43:53.421875
1855,17.94,2022-10-28 16:43:53.437500
1856,19.72,2022-10-28 16:43:53.453125
1857,22.01,2022-10-28 16:43:53.468750
1858,24.15,2022-10-28 16:43:53.484375
1859,25.55,2022-10-28 16:43:53.500000
1860,26.01,2022-10-28 16:43:53.515625
1861,25.75,2022-10-28 16:43:53.531250
1862,25.24,2022-10-28 16:43:53.546875
1863,24.81,2022-10-28 16:43:53.562500
1864,24.5,2022-10-28 16:43:53.578125
1865,24.02,2022-10-28 16:43:53.593750
1866,22.99,2022-10-28 16:43:53.609375
1867,21.27,2022-10-28 16:43:53.625000
1868,19.06,2022-10-28 16:43:53.640625
1869,16.79,2022-10-28 16:43:53.656250
1870,14.89,2022-10-28 16:43:53.671875
1871,13.5,2022-10-28 16:43:53.687500
1872,12.34,2022-10-28 16:43:53.703125
1873,10.97,2022-10-28 16:43:53.718750
1874,8.9,2022-10-28 16:43:53.734375
1875,6.0,2022-10-28 16:43:53.750000
1876,2.5,2022-10-28 16:43:53.765625
1877,-1.09,2022-10-28 16:43:53.781250
1878,-4.22,2022-10-28 16:43:53.796875
1879,-6.62,2022-10-28 16:43:53.812500
1880,-8.39,2022-10-28 16:43:53.828125
1881,-9.96,2022-10-28 16:43:53.843750
1882,-11.93,2022-10-28 16:43:53.859375
1883,-14.72,2022-10-28 16:43:53.875000
1884,-18.42,2022-10-28 16:43:53.890625
1885,-22.64,2022-10-28 16:43:53.906250
1886,-26.64,2022-10-28 16:43:53.921875
1887,-29.65,2022-10-28 16:43:53.937500
1888,-31.3,2022-10-28 16:43:53.953125
1889,-31.83,2022-10-28 16:43:53.968750
1890,-32.21,2022-10-28 16:43:53.984375
1891,-33.74,2022-10-28 16:43:54.000000
1892,-37.57,2022-10-28 16:43:54.015625
1893,-44.12,2022-10-28 16:43:54.031250
1894,-52.79,2022-10-28 16:43:54.046875
1895,-62.11,2022-10-28 16:43:54.062500
1896,-70.23,2022-10-28 16:43:54.078125
1897,-75.49,2022-10-28 16:43:54.093750
1898,-76.85,2022-10-28 16:43:54.109375
1899,-73.98,2022-10-28 16:43:54.125000
1900,-67.14,2022-10-28 16:43:54.140625
1901,-56.97,2022-10-28 16:43:54.156250
1902,-44.25,2022-10-28 16:43:54.171875
1903,-29.9,2022-10-28 16:43:54.187500
1904,-14.95,2022-10-28 16:43:54.203125
1905,-0.53,2022-10-28 16:43:54.218750
1906,12.32,2022-10-28 16:43:54.234375
1907,22.81,2022-10-28 16:43:54.250000
1908,30.54,2022-10-28 16:43:54.265625
1909,35.57,2022-10-28 16:43:54.281250
1910,38.33,2022-10-28 16:43:54.296875
1911,39.46,2022-10-28 16:43:54.312500
1912,39.65,2022-10-28 16:43:54.328125
1913,39.38,2022-10-28 16:43:54.343750
1914,38.89,2022-10-28 16:43:54.359375
1915,38.05,2022-10-28 16:43:54.375000
1916,36.46,2022-10-28 16:43:54.390625
1917,33.79,2022-10-28 16:43:54.406250
1918,30.06,2022-10-28 16:43:54.421875
1919,25.79,2022-10-28 16:43:54.437500
1920,21.93,2022-10-28 16:43:54.453125
1921,19.48,2022-10-28 16:43:54.468750
1922,19.03,2022-10-28 16:43:54.484375
1923,20.48,2022-10-28 16:43:54.500000
1924,23.03,2022-10-28 16:43:54.515625
1925,25.49,2022-10-28 16:43:54.531250
1926,26.75,2022-10-28 16:43:54.546875
1927,26.19,2022-10-28 16:43:54.562500
1928,23.87,2022-10-28 16:43:54.578125
1929,20.5,2022-10-28 16:43:54.593750
1930,17.09,2022-10-28 16:43:54.609375
1931,14.49,2022-10-28 16:43:54.625000
1932,12.97,2022-10-28 16:43:54.640625
1933,12.19,2022-10-28 16:43:54.656250
1934,11.42,2022-10-28 16:43:54.671875
1935,10.11,2022-10-28 16:43:54.687500
1936,8.28,2022-10-28 16:43:54.703125
1937,6.51,2022-10-28 16:43:54.718750
1938,5.65,2022-10-28 16:43:54.734375
1939,6.14,2022-10-28 16:43:54.750000
1940,7.73,2022-10-28 16:43:54.765625
1941,9.53,2022-10-28 16:43:54.781250
1942,10.53,2022-10-28 16:43:54.796875
1943,10.11,2022-10-28 16:43:54.812500
1944,8.32,2022-10-28 16:43:54.828125
1945,5.62,2022-10-28 16:43:54.843750
1946,2.49,2022-10-28 16:43:54.859375
1947,-0.89,2022-10-28 16:43:54.875000
1948,-4.58,2022-10-28 16:43:54.890625
1949,-8.54,2022-10-28 16:43:54.906250
1950,-12.45,2022-10-28 16:43:54.921875
1951,-15.79,2022-10-28 16:43:54.937500
1952,-18.24,2022-10-28 16:43:54.953125
1953,-19.97,2022-10-28 16:43:54.968750
1954,-21.69,2022-10-28 16:43:54.984375
1955,-24.44,2022-10-28 16:43:55.000000
1956,-29.04,2022-10-28 16:43:55.015625
1957,-35.7,2022-10-28 16:43:55.031250
1958,-43.77,2022-10-28 16:43:55.046875
1959,-51.81,2022-10-28 16:43:55.062500
1960,-57.99,2022-10-28 16:43:55.078125
1961,-60.57,2022-10-28 16:43:55.093750
1962,-58.48,2022-10-28 16:43:55.109375
1963,-51.65,2022-10-28 16:43:55.125000
1964,-41.06,2022-10-28 16:43:55.140625
1965,-28.39,2022-10-28 16:43:55.156250
1966,-15.42,2022-10-28 16:43:55.171875
1967,-3.57,2022-10-28 16:43:55.187500
1968,6.39,2022-10-28 16:43:55.203125
1969,14.26,2022-10-28 16:43:55.218750
1970,20.19,2022-10-28 16:43:55.234375
1971,24.35,2022-10-28 16:43:55.250000
1972,26.84,2022-10-28 16:43:55.265625
1973,27.69,2022-10-28 16:43:55.281250
1974,26.93,2022-10-28 16:43:55.296875
1975,24.68,2022-10-28 16:43:55.312500
1976,21.28,2022-10-28 16:43:55.328125
1977,17.24,2022-10-28 16:43:55.343750
1978,13.37,2022-10-28 16:43:55.359375
1979,10.57,2022-10-28 16:43:55.375000
1980,9.63,2022-10-28 16:43:55.390625
1981,10.89,2022-10-28 16:43:55.406250
1982,14.11,2022-10-28 16:43:55.421875
1983,18.48,2022-10-28 16:43:55.437500
1984,23.06,2022-10-28 16:43:55.453125
1985,27.07,2022-10-28 16:43:55.468750
1986,30.19,2022-10-28 16:43:55.484375
1987,32.44,2022-10-28 16:43:55.500000
1988,33.94,2022-10-28 16:43:55.515625
1989,34.67,2022-10-28 16:43:55.531250
1990,34.54,2022-10-28 16:43:55.546875
1991,33.55,2022-10-28 16:43:55.562500
1992,31.95,2022-10-28 16:43:55.578125
1993,30.26,2022-10-28 16:43:55.593750
1994,28.91,2022-10-28 16:43:55.609375
1995,28.06,2022-10-28 16:43:55.625000
1996,27.35,2022-10-28 16:43:55.640625
1997,26.21,2022-10-28 16:43:55.656250
1998,24.17,2022-10-28 16:43:55.671875
1999,21.13,2022-10-28 16:43:55.687500
2000,17.42,2022-10-28 16:43:55.703125
2001,13.6,2022-10-28 16:43:55.718750
2002,10.19,2022-10-28 16:43:55.734375
2003,7.5,2022-10-28 16:43:55.750000
2004,5.67,2022-10-28 16:43:55.765625
2005,4.66,2022-10-28 16:43:55.781250
2006,4.24,2022-10-28 16:43:55.796875
2007,3.91,2022-10-28 16:43:55.812500
2008,3.0,2022-10-28 16:43:55.828125
2009,0.85,2022-10-28 16:43:55.843750
2010,-2.83,2022-10-28 16:43:55.859375
2011,-7.68,2022-10-28 16:43:55.875000
2012,-12.86,2022-10-28 16:43:55.890625
2013,-17.31,2022-10-28 16:43:55.906250
2014,-20.27,2022-10-28 16:43:55.921875
2015,-21.62,2022-10-28 16:43:55.937500
2016,-21.81,2022-10-28 16:43:55.953125
2017,-21.59,2022-10-28 16:43:55.968750
2018,-21.76,2022-10-28 16:43:55.984375
2019,-22.94,2022-10-28 16:43:56.000000
2020,-25.52,2022-10-28 16:43:56.015625
2021,-29.68,2022-10-28 16:43:56.031250
2022,-35.17,2022-10-28 16:43:56.046875
2023,-41.2,2022-10-28 16:43:56.062500
2024,-46.37,2022-10-28 16:43:56.078125
2025,-48.97,2022-10-28 16:43:56.093750
2026,-47.58,2022-10-28 16:43:56.109375
2027,-41.68,2022-10-28 16:43:56.125000
2028,-31.94,2022-10-28 16:43:56.140625
2029,-20.03,2022-10-28 16:43:56.156250
2030,-7.98,2022-10-28 16:43:56.171875
2031,2.49,2022-10-28 16:43:56.187500
2032,10.5,2022-10-28 16:43:56.203125
2033,16.02,2022-10-28 16:43:56.218750
2034,19.52,2022-10-28 16:43:56.234375
2035,21.67,2022-10-28 16:43:56.250000
2036,22.97,2022-10-28 16:43:56.265625
2037,23.69,2022-10-28 16:43:56.281250
2038,23.87,2022-10-28 16:43:56.296875
2039,23.48,2022-10-28 16:43:56.312500
2040,22.46,2022-10-28 16:43:56.328125
2041,20.91,2022-10-28 16:43:56.343750
2042,19.13,2022-10-28 16:43:56.359375
2043,17.58,2022-10-28 16:43:56.375000
2044,16.62,2022-10-28 16:43:56.390625
2045,16.44,2022-10-28 16:43:56.406250
2046,16.84,2022-10-28 16:43:56.421875
2047,17.41,2022-10-28 16:43:56.437500
2048,17.75,2022-10-28 16:43:56.453125
2049,17.74,2022-10-28 16:43:56.468750
2050,17.6,2022-10-28 16:43:56.484375
2051,17.61,2022-10-28 16:43:56.500000
2052,17.93,2022-10-28 16:43:56.515625
2053,18.34,2022-10-28 16:43:56.531250
2054,18.39,2022-10-28 16:43:56.546875
2055,17.56,2022-10-28 16:43:56.562500
2056,15.62,2022-10-28 16:43:56.578125
2057,12.55,2022-10-28 16:43:56.593750
2058,8.52,2022-10-28 16:43:56.609375
2059,3.71,2022-10-28 16:43:56.625000
2060,-1.57,2022-10-28 16:43:56.640625
2061,-6.86,2022-10-28 16:43:56.656250
2062,-11.52,2022-10-28 16:43:56.671875
2063,-14.96,2022-10-28 16:43:56.687500
2064,-17.04,2022-10-28 16:43:56.703125
2065,-18.15,2022-10-28 16:43:56.718750
2066,-19.17,2022-10-28 16:43:56.734375
2067,-20.87,2022-10-28 16:43:56.750000
2068,-23.5,2022-10-28 16:43:56.765625
2069,-26.69,2022-10-28 16:43:56.781250
2070,-29.62,2022-10-28 16:43:56.796875
2071,-31.65,2022-10-28 16:43:56.812500
2072,-32.59,2022-10-28 16:43:56.828125
2073,-32.81,2022-10-28 16:43:56.843750
2074,-32.88,2022-10-28 16:43:56.859375
2075,-33.29,2022-10-28 16:43:56.875000
2076,-34.32,2022-10-28 16:43:56.890625
2077,-36.13,2022-10-28 16:43:56.906250
2078,-38.91,2022-10-28 16:43:56.921875
2079,-42.76,2022-10-28 16:43:56.937500
2080,-47.41,2022-10-28 16:43:56.953125
2081,-51.97,2022-10-28 16:43:56.968750
2082,-55.03,2022-10-28 16:43:56.984375
2083,-55.15,2022-10-28 16:43:57.000000
2084,-51.45,2022-10-28 16:43:57.015625
2085,-44.06,2022-10-28 16:43:57.031250
2086,-34.02,2022-10-28 16:43:57.046875
2087,-22.94,2022-10-28 16:43:57.062500
2088,-12.29,2022-10-28 16:43:57.078125
2089,-3.08,2022-10-28 16:43:57.093750
2090,4.35,2022-10-28 16:43:57.109375
2091,10.16,2022-10-28 16:43:57.125000
2092,14.81,2022-10-28 16:43:57.140625
2093,18.7,2022-10-28 16:43:57.156250
2094,22.08,2022-10-28 16:43:57.171875
2095,24.92,2022-10-28 16:43:57.187500
2096,27.04,2022-10-28 16:43:57.203125
2097,28.21,2022-10-28 16:43:57.218750
2098,28.4,2022-10-28 16:43:57.234375
2099,27.9,2022-10-28 16:43:57.250000
2100,27.3,2022-10-28 16:43:57.265625
2101,27.27,2022-10-28 16:43:57.281250
2102,28.11,2022-10-28 16:43:57.296875
2103,29.74,2022-10-28 16:43:57.312500
2104,31.66,2022-10-28 16:43:57.328125
2105,33.28,2022-10-28 16:43:57.343750
2106,34.17,2022-10-28 16:43:57.359375
2107,34.01,2022-10-28 16:43:57.375000
2108,32.48,2022-10-28 16:43:57.390625
2109,29.07,2022-10-28 16:43:57.406250
2110,23.35,2022-10-28 16:43:57.421875
2111,15.4,2022-10-28 16:43:57.437500
2112,6.18,2022-10-28 16:43:57.453125
2113,-2.56,2022-10-28 16:43:57.468750
2114,-8.91,2022-10-28 16:43:57.484375
2115,-11.64,2022-10-28 16:43:57.500000
2116,-10.78,2022-10-28 16:43:57.515625
2117,-7.54,2022-10-28 16:43:57.531250
2118,-3.56,2022-10-28 16:43:57.546875
2119,-0.07,2022-10-28 16:43:57.562500
2120,2.53,2022-10-28 16:43:57.578125
2121,4.45,2022-10-28 16:43:57.593750
2122,5.94,2022-10-28 16:43:57.609375
2123,6.79,2022-10-28 16:43:57.625000
2124,6.41,2022-10-28 16:43:57.640625
2125,4.35,2022-10-28 16:43:57.656250
2126,0.81,2022-10-28 16:43:57.671875
2127,-3.27,2022-10-28 16:43:57.687500
2128,-6.69,2022-10-28 16:43:57.703125
2129,-8.75,2022-10-28 16:43:57.718750
2130,-9.73,2022-10-28 16:43:57.734375
2131,-10.79,2022-10-28 16:43:57.750000
2132,-13.38,2022-10-28 16:43:57.765625
2133,-18.44,2022-10-28 16:43:57.781250
2134,-26.05,2022-10-28 16:43:57.796875
2135,-35.35,2022-10-28 16:43:57.812500
2136,-44.98,2022-10-28 16:43:57.828125
2137,-53.45,2022-10-28 16:43:57.843750
2138,-59.51,2022-10-28 16:43:57.859375
2139,-62.2,2022-10-28 16:43:57.875000
2140,-60.97,2022-10-28 16:43:57.890625
2141,-55.69,2022-10-28 16:43:57.906250
2142,-46.81,2022-10-28 16:43:57.921875
2143,-35.32,2022-10-28 16:43:57.937500
2144,-22.63,2022-10-28 16:43:57.953125
2145,-10.21,2022-10-28 16:43:57.968750
2146,0.76,2022-10-28 16:43:57.984375
2147,9.65,2022-10-28 16:43:58.000000
2148,16.37,2022-10-28 16:43:58.015625
2149,21.15,2022-10-28 16:43:58.031250
2150,24.31,2022-10-28 16:43:58.046875
2151,26.09,2022-10-28 16:43:58.062500
2152,26.74,2022-10-28 16:43:58.078125
2153,26.59,2022-10-28 16:43:58.093750
2154,26.12,2022-10-28 16:43:58.109375
2155,25.81,2022-10-28 16:43:58.125000
2156,26.07,2022-10-28 16:43:58.140625
2157,27.0,2022-10-28 16:43:58.156250
2158,28.46,2022-10-28 16:43:58.171875
2159,30.13,2022-10-28 16:43:58.187500
2160,31.7,2022-10-28 16:43:58.203125
2161,32.91,2022-10-28 16:43:58.218750
2162,33.59,2022-10-28 16:43:58.234375
2163,33.61,2022-10-28 16:43:58.250000
2164,32.92,2022-10-28 16:43:58.265625
2165,31.63,2022-10-28 16:43:58.281250
2166,30.07,2022-10-28 16:43:58.296875
2167,28.64,2022-10-28 16:43:58.312500
2168,27.62,2022-10-28 16:43:58.328125
2169,26.87,2022-10-28 16:43:58.343750
2170,25.83,2022-10-28 16:43:58.359375
2171,23.73,2022-10-28 16:43:58.375000
2172,20.09,2022-10-28 16:43:58.390625
2173,14.96,2022-10-28 16:43:58.406250
2174,8.99,2022-10-28 16:43:58.421875
2175,3.12,2022-10-28 16:43:58.437500
2176,-1.83,2022-10-28 16:43:58.453125
2177,-5.5,2022-10-28 16:43:58.468750
2178,-7.97,2022-10-28 16:43:58.484375
2179,-9.63,2022-10-28 16:43:58.500000
2180,-10.89,2022-10-28 16:43:58.515625
2181,-12.1,2022-10-28 16:43:58.531250
2182,-13.61,2022-10-28 16:43:58.546875
2183,-15.85,2022-10-28 16:43:58.562500
2184,-19.27,2022-10-28 16:43:58.578125
2185,-24.18,2022-10-28 16:43:58.593750
2186,-30.39,2022-10-28 16:43:58.609375
2187,-37.01,2022-10-28 16:43:58.625000
2188,-42.58,2022-10-28 16:43:58.640625
2189,-45.41,2022-10-28 16:43:58.656250
2190,-44.29,2022-10-28 16:43:58.671875
2191,-38.93,2022-10-28 16:43:58.687500
2192,-30.12,2022-10-28 16:43:58.703125
2193,-19.51,2022-10-28 16:43:58.718750
2194,-8.98,2022-10-28 16:43:58.734375
2195,-0.03,2022-10-28 16:43:58.750000
2196,6.62,2022-10-28 16:43:58.765625
2197,10.93,2022-10-28 16:43:58.781250
2198,13.38,2022-10-28 16:43:58.796875
2199,14.45,2022-10-28 16:43:58.812500
2200,14.52,2022-10-28 16:43:58.828125
2201,13.86,2022-10-28 16:43:58.843750
2202,12.8,2022-10-28 16:43:58.859375
2203,11.79,2022-10-28 16:43:58.875000
2204,11.38,2022-10-28 16:43:58.890625
2205,12.04,2022-10-28 16:43:58.906250
2206,13.99,2022-10-28 16:43:58.921875
2207,17.07,2022-10-28 16:43:58.937500
2208,20.84,2022-10-28 16:43:58.953125
2209,24.7,2022-10-28 16:43:58.968750
2210,28.1,2022-10-28 16:43:58.984375
2211,30.75,2022-10-28 16:43:59.000000
2212,32.6,2022-10-28 16:43:59.015625
2213,33.91,2022-10-28 16:43:59.031250
2214,35.09,2022-10-28 16:43:59.046875
2215,36.54,2022-10-28 16:43:59.062500
2216,38.49,2022-10-28 16:43:59.078125
2217,40.86,2022-10-28 16:43:59.093750
2218,43.19,2022-10-28 16:43:59.109375
2219,44.77,2022-10-28 16:43:59.125000
2220,44.88,2022-10-28 16:43:59.140625
2221,43.06,2022-10-28 16:43:59.156250
2222,39.27,2022-10-28 16:43:59.171875
2223,33.76,2022-10-28 16:43:59.187500
2224,26.82,2022-10-28 16:43:59.203125
2225,18.49,2022-10-28 16:43:59.218750
2226,8.57,2022-10-28 16:43:59.234375
2227,-3.05,2022-10-28 16:43:59.250000
2228,-15.94,2022-10-28 16:43:59.265625
2229,-28.83,2022-10-28 16:43:59.281250
2230,-39.74,2022-10-28 16:43:59.296875
2231,-46.77,2022-10-28 16:43:59.312500
2232,-48.87,2022-10-28 16:43:59.328125
2233,-46.59,2022-10-28 16:43:59.343750
2234,-41.75,2022-10-28 16:43:59.359375
2235,-36.66,2022-10-28 16:43:59.375000
2236,-32.85,2022-10-28 16:43:59.390625
2237,-30.37,2022-10-28 16:43:59.406250
2238,-27.96,2022-10-28 16:43:59.421875
2239,-24.27,2022-10-28 16:43:59.437500
2240,-19.2,2022-10-28 16:43:59.453125
2241,-14.58,2022-10-28 16:43:59.468750
2242,-13.46,2022-10-28 16:43:59.484375
2243,-18.28,2022-10-28 16:43:59.500000
2244,-29.22,2022-10-28 16:43:59.515625
2245,-43.52,2022-10-28 16:43:59.531250
2246,-56.47,2022-10-28 16:43:59.546875
2247,-63.47,2022-10-28 16:43:59.562500
2248,-62.01,2022-10-28 16:43:59.578125
2249,-52.39,2022-10-28 16:43:59.593750
2250,-37.05,2022-10-28 16:43:59.609375
2251,-19.1,2022-10-28 16:43:59.625000
2252,-1.13,2022-10-28 16:43:59.640625
2253,15.21,2022-10-28 16:43:59.656250
2254,28.86,2022-10-28 16:43:59.671875
2255,38.97,2022-10-28 16:43:59.687500
2256,44.87,2022-10-28 16:43:59.703125
2257,46.51,2022-10-28 16:43:59.718750
2258,44.95,2022-10-28 16:43:59.734375
2259,42.2,2022-10-28 16:43:59.750000
2260,40.49,2022-10-28 16:43:59.765625
2261,41.29,2022-10-28 16:43:59.781250
2262,44.76,2022-10-28 16:43:59.796875
2263,49.74,2022-10-28 16:43:59.812500
2264,54.42,2022-10-28 16:43:59.828125
2265,57.05,2022-10-28 16:43:59.843750
2266,56.59,2022-10-28 16:43:59.859375
2267,52.99,2022-10-28 16:43:59.875000
2268,47.15,2022-10-28 16:43:59.890625
2269,40.64,2022-10-28 16:43:59.906250
2270,35.17,2022-10-28 16:43:59.921875
2271,32.13,2022-10-28 16:43:59.937500
2272,32.23,2022-10-28 16:43:59.953125
2273,35.19,2022-10-28 16:43:59.968750
2274,39.93,2022-10-28 16:43:59.984375
2275,44.88,2022-10-28 16:44:00.000000
2276,48.41,2022-10-28 16:44:00.015625
2277,49.2,2022-10-28 16:44:00.031250
2278,46.69,2022-10-28 16:44:00.046875
2279,41.32,2022-10-28 16:44:00.062500
2280,34.63,2022-10-28 16:44:00.078125
2281,29.05,2022-10-28 16:44:00.093750
2282,27.14,2022-10-28 16:44:00.109375
2283,30.53,2022-10-28 16:44:00.125000
2284,38.82,2022-10-28 16:44:00.140625
2285,49.13,2022-10-28 16:44:00.156250
2286,56.89,2022-10-28 16:44:00.171875
2287,57.53,2022-10-28 16:44:00.187500
2288,48.45,2022-10-28 16:44:00.203125
2289,30.32,2022-10-28 16:44:00.218750
2290,6.9,2022-10-28 16:44:00.234375
2291,-16.53,2022-10-28 16:44:00.250000
2292,-35.32,2022-10-28 16:44:00.265625
2293,-47.2,2022-10-28 16:44:00.281250
2294,-52.78,2022-10-28 16:44:00.296875
2295,-54.72,2022-10-28 16:44:00.312500
2296,-56.27,2022-10-28 16:44:00.328125
2297,-59.9,2022-10-28 16:44:00.343750
2298,-66.48,2022-10-28 16:44:00.359375
2299,-75.35,2022-10-28 16:44:00.375000
2300,-84.81,2022-10-28 16:44:00.390625
2301,-92.89,2022-10-28 16:44:00.406250
2302,-97.99,2022-10-28 16:44:00.421875
2303,-99.28,2022-10-28 16:44:00.437500
2304,-96.83,2022-10-28 16:44:00.453125
2305,-91.33,2022-10-28 16:44:00.468750
2306,-83.77,2022-10-28 16:44:00.484375
2307,-74.96,2022-10-28 16:44:00.500000
2308,-65.37,2022-10-28 16:44:00.515625
2309,-55.24,2022-10-28 16:44:00.531250
2310,-44.77,2022-10-28 16:44:00.546875
2311,-34.36,2022-10-28 16:44:00.562500
2312,-24.56,2022-10-28 16:44:00.578125
2313,-16.03,2022-10-28 16:44:00.593750
2314,-9.28,2022-10-28 16:44:00.609375
2315,-4.67,2022-10-28 16:44:00.625000
2316,-2.36,2022-10-28 16:44:00.640625
2317,-2.32,2022-10-28 16:44:00.656250
2318,-4.2,2022-10-28 16:44:00.671875
2319,-7.33,2022-10-28 16:44:00.687500
2320,-10.66,2022-10-28 16:44:00.703125
2321,-13.06,2022-10-28 16:44:00.718750
2322,-13.63,2022-10-28 16:44:00.734375
2323,-11.96,2022-10-28 16:44:00.750000
2324,-8.15,2022-10-28 16:44:00.765625
2325,-2.66,2022-10-28 16:44:00.781250
2326,3.9,2022-10-28 16:44:00.796875
2327,10.84,2022-10-28 16:44:00.812500
2328,17.44,2022-10-28 16:44:00.828125
2329,22.95,2022-10-28 16:44:00.843750
2330,26.74,2022-10-28 16:44:00.859375
2331,28.52,2022-10-28 16:44:00.875000
2332,28.44,2022-10-28 16:44:00.890625
2333,26.95,2022-10-28 16:44:00.906250
2334,24.5,2022-10-28 16:44:00.921875
2335,21.22,2022-10-28 16:44:00.937500
2336,16.93,2022-10-28 16:44:00.953125
2337,11.4,2022-10-28 16:44:00.968750
2338,4.64,2022-10-28 16:44:00.984375
2339,-2.88,2022-10-28 16:44:01.000000
2340,-10.37,2022-10-28 16:44:01.015625
2341,-17.01,2022-10-28 16:44:01.031250
2342,-22.24,2022-10-28 16:44:01.046875
2343,-25.93,2022-10-28 16:44:01.062500
2344,-28.27,2022-10-28 16:44:01.078125
2345,-29.65,2022-10-28 16:44:01.093750
2346,-30.6,2022-10-28 16:44:01.109375
2347,-31.62,2022-10-28 16:44:01.125000
2348,-33.19,2022-10-28 16:44:01.140625
2349,-35.51,2022-10-28 16:44:01.156250
2350,-38.37,2022-10-28 16:44:01.171875
2351,-41.18,2022-10-28 16:44:01.187500
2352,-43.16,2022-10-28 16:44:01.203125
2353,-43.78,2022-10-28 16:44:01.218750
2354,-42.96,2022-10-28 16:44:01.234375
2355,-41.12,2022-10-28 16:44:01.250000
2356,-38.87,2022-10-28 16:44:01.265625
2357,-36.73,2022-10-28 16:44:01.281250
2358,-34.87,2022-10-28 16:44:01.296875
2359,-33.06,2022-10-28 16:44:01.312500
2360,-30.74,2022-10-28 16:44:01.328125
2361,-27.06,2022-10-28 16:44:01.343750
2362,-20.92,2022-10-28 16:44:01.359375
2363,-11.33,2022-10-28 16:44:01.375000
2364,2.21,2022-10-28 16:44:01.390625
2365,19.19,2022-10-28 16:44:01.406250
2366,37.88,2022-10-28 16:44:01.421875
2367,55.66,2022-10-28 16:44:01.437500
2368,69.76,2022-10-28 16:44:01.453125
2369,78.25,2022-10-28 16:44:01.468750
2370,80.67,2022-10-28 16:44:01.484375
2371,78.08,2022-10-28 16:44:01.500000
2372,72.54,2022-10-28 16:44:01.515625
2373,66.25,2022-10-28 16:44:01.531250
2374,60.95,2022-10-28 16:44:01.546875
2375,57.64,2022-10-28 16:44:01.562500
2376,56.59,2022-10-28 16:44:01.578125
2377,57.63,2022-10-28 16:44:01.593750
2378,60.25,2022-10-28 16:44:01.609375
2379,63.67,2022-10-28 16:44:01.625000
2380,66.82,2022-10-28 16:44:01.640625
2381,68.46,2022-10-28 16:44:01.656250
2382,67.44,2022-10-28 16:44:01.671875
2383,63.05,2022-10-28 16:44:01.687500
2384,55.39,2022-10-28 16:44:01.703125
2385,45.44,2022-10-28 16:44:01.718750
2386,34.85,2022-10-28 16:44:01.734375
2387,25.37,2022-10-28 16:44:01.750000
2388,18.26,2022-10-28 16:44:01.765625
2389,13.89,2022-10-28 16:44:01.781250
2390,11.8,2022-10-28 16:44:01.796875
2391,11.09,2022-10-28 16:44:01.812500
2392,10.9,2022-10-28 16:44:01.828125
2393,10.8,2022-10-28 16:44:01.843750
2394,10.78,2022-10-28 16:44:01.859375
2395,10.86,2022-10-28 16:44:01.875000
2396,10.81,2022-10-28 16:44:01.890625
2397,10.02,2022-10-28 16:44:01.906250
2398,7.76,2022-10-28 16:44:01.921875
2399,3.62,2022-10-28 16:44:01.937500
2400,-2.14,2022-10-28 16:44:01.953125
2401,-8.5,2022-10-28 16:44:01.968750
2402,-13.95,2022-10-28 16:44:01.984375
2403,-17.11,2022-10-28 16:44:02.000000
2404,-17.28,2022-10-28 16:44:02.015625
2405,-14.77,2022-10-28 16:44:02.031250
2406,-10.94,2022-10-28 16:44:02.046875
2407,-7.7,2022-10-28 16:44:02.062500
2408,-6.78,2022-10-28 16:44:02.078125
2409,-9.08,2022-10-28 16:44:02.093750
2410,-14.28,2022-10-28 16:44:02.109375
2411,-20.99,2022-10-28 16:44:02.125000
2412,-27.36,2022-10-28 16:44:02.140625
2413,-31.86,2022-10-28 16:44:02.156250
2414,-33.83,2022-10-28 16:44:02.171875
2415,-33.55,2022-10-28 16:44:02.187500
2416,-31.88,2022-10-28 16:44:02.203125
2417,-29.74,2022-10-28 16:44:02.218750
2418,-27.76,2022-10-28 16:44:02.234375
2419,-26.32,2022-10-28 16:44:02.250000
2420,-25.84,2022-10-28 16:44:02.265625
2421,-26.81,2022-10-28 16:44:02.281250
2422,-29.67,2022-10-28 16:44:02.296875
2423,-34.28,2022-10-28 16:44:02.312500
2424,-39.56,2022-10-28 16:44:02.328125
2425,-43.67,2022-10-28 16:44:02.343750
2426,-44.7,2022-10-28 16:44:02.359375
2427,-41.59,2022-10-28 16:44:02.375000
2428,-34.69,2022-10-28 16:44:02.390625
2429,-25.66,2022-10-28 16:44:02.406250
2430,-16.53,2022-10-28 16:44:02.421875
2431,-8.84,2022-10-28 16:44:02.437500
2432,-3.03,2022-10-28 16:44:02.453125
2433,1.35,2022-10-28 16:44:02.468750
2434,5.01,2022-10-28 16:44:02.484375
2435,8.3,2022-10-28 16:44:02.500000
2436,11.05,2022-10-28 16:44:02.515625
2437,12.86,2022-10-28 16:44:02.531250
2438,13.51,2022-10-28 16:44:02.546875
2439,13.24,2022-10-28 16:44:02.562500
2440,12.58,2022-10-28 16:44:02.578125
2441,12.03,2022-10-28 16:44:02.593750
2442,11.76,2022-10-28 16:44:02.609375
2443,11.67,2022-10-28 16:44:02.625000
2444,11.61,2022-10-28 16:44:02.640625
2445,11.61,2022-10-28 16:44:02.656250
2446,11.86,2022-10-28 16:44:02.671875
2447,12.59,2022-10-28 16:44:02.687500
2448,13.81,2022-10-28 16:44:02.703125
2449,15.29,2022-10-28 16:44:02.718750
2450,16.64,2022-10-28 16:44:02.734375
2451,17.5,2022-10-28 16:44:02.750000
2452,17.65,2022-10-28 16:44:02.765625
2453,16.89,2022-10-28 16:44:02.781250
2454,14.99,2022-10-28 16:44:02.796875
2455,11.67,2022-10-28 16:44:02.812500
2456,6.84,2022-10-28 16:44:02.828125
2457,0.84,2022-10-28 16:44:02.843750
2458,-5.4,2022-10-28 16:44:02.859375
2459,-10.51,2022-10-28 16:44:02.875000
2460,-13.17,2022-10-28 16:44:02.890625
2461,-12.65,2022-10-28 16:44:02.906250
2462,-9.08,2022-10-28 16:44:02.921875
2463,-3.39,2022-10-28 16:44:02.937500
2464,3.19,2022-10-28 16:44:02.953125
2465,9.55,2022-10-28 16:44:02.968750
2466,15.14,2022-10-28 16:44:02.984375
2467,19.85,2022-10-28 16:44:03.000000
2468,23.8,2022-10-28 16:44:03.015625
2469,27.0,2022-10-28 16:44:03.031250
2470,29.36,2022-10-28 16:44:03.046875
2471,30.85,2022-10-28 16:44:03.062500
2472,31.7,2022-10-28 16:44:03.078125
2473,32.51,2022-10-28 16:44:03.093750
2474,34.07,2022-10-28 16:44:03.109375
2475,36.97,2022-10-28 16:44:03.125000
2476,41.26,2022-10-28 16:44:03.140625
2477,46.47,2022-10-28 16:44:03.156250
2478,51.86,2022-10-28 16:44:03.171875
2479,56.97,2022-10-28 16:44:03.187500
2480,61.91,2022-10-28 16:44:03.203125
2481,67.46,2022-10-28 16:44:03.218750
2482,74.72,2022-10-28 16:44:03.234375
2483,84.72,2022-10-28 16:44:03.250000
2484,97.98,2022-10-28 16:44:03.265625
2485,114.5,2022-10-28 16:44:03.281250
2486,133.7,2022-10-28 16:44:03.296875
2487,154.73,2022-10-28 16:44:03.312500
2488,176.84,2022-10-28 16:44:03.328125
2489,199.88,2022-10-28 16:44:03.343750
2490,224.51,2022-10-28 16:44:03.359375
2491,251.8,2022-10-28 16:44:03.375000
2492,282.38,2022-10-28 16:44:03.390625
2493,315.16,2022-10-28 16:44:03.406250
2494,346.86,2022-10-28 16:44:03.421875
2495,372.5,2022-10-28 16:44:03.437500
2496,387.12,2022-10-28 16:44:03.453125
2497,387.78,2022-10-28 16:44:03.468750
2498,374.99,2022-10-28 16:44:03.484375
2499,352.43,2022-10-28 16:44:03.500000
2500,325.32,2022-10-28 16:44:03.515625
2501,298.16,2022-10-28 16:44:03.531250
2502,273.18,2022-10-28 16:44:03.546875
2503,250.21,2022-10-28 16:44:03.562500
2504,227.68,2022-10-28 16:44:03.578125
2505,204.16,2022-10-28 16:44:03.593750
2506,179.27,2022-10-28 16:44:03.609375
2507,153.68,2022-10-28 16:44:03.625000
2508,128.38,2022-10-28 16:44:03.640625
2509,103.89,2022-10-28 16:44:03.656250
2510,79.94,2022-10-28 16:44:03.671875
2511,55.65,2022-10-28 16:44:03.687500
2512,30.04,2022-10-28 16:44:03.703125
2513,2.47,2022-10-28 16:44:03.718750
2514,-26.98,2022-10-28 16:44:03.734375
2515,-57.6,2022-10-28 16:44:03.750000
2516,-88.21,2022-10-28 16:44:03.765625
2517,-117.69,2022-10-28 16:44:03.781250
2518,-145.31,2022-10-28 16:44:03.796875
2519,-171.04,2022-10-28 16:44:03.812500
2520,-195.66,2022-10-28 16:44:03.828125
2521,-220.52,2022-10-28 16:44:03.843750
2522,-246.85,2022-10-28 16:44:03.859375
2523,-275.38,2022-10-28 16:44:03.875000
2524,-305.98,2022-10-28 16:44:03.890625
2525,-337.85,2022-10-28 16:44:03.906250
2526,-370.23,2022-10-28 16:44:03.921875
2527,-403.21,2022-10-28 16:44:03.937500
2528,-437.73,2022-10-28 16:44:03.953125
2529,-474.69,2022-10-28 16:44:03.968750
2530,-513.73,2022-10-28 16:44:03.984375
2531,-552.65,2022-10-28 16:44:04.000000
2532,-588.35,2022-10-28 16:44:04.015625
2533,-618.38,2022-10-28 16:44:04.031250
2534,-642.3,2022-10-28 16:44:04.046875
2535,-661.41,2022-10-28 16:44:04.062500
2536,-677.01,2022-10-28 16:44:04.078125
2537,-688.28,2022-10-28 16:44:04.093750
2538,-691.56,2022-10-28 16:44:04.109375
2539,-681.82,2022-10-28 16:44:04.125000
2540,-655.59,2022-10-28 16:44:04.140625
2541,-613.49,2022-10-28 16:44:04.156250
2542,-560.57,2022-10-28 16:44:04.171875
2543,-504.16,2022-10-28 16:44:04.187500
2544,-450.52,2022-10-28 16:44:04.203125
2545,-402.43,2022-10-28 16:44:04.218750
2546,-359.03,2022-10-28 16:44:04.234375
2547,-317.68,2022-10-28 16:44:04.250000
2548,-276.33,2022-10-28 16:44:04.265625
2549,-234.83,2022-10-28 16:44:04.281250
2550,-194.58,2022-10-28 16:44:04.296875
2551,-157.05,2022-10-28 16:44:04.312500
2552,-122.68,2022-10-28 16:44:04.328125
2553,-90.65,2022-10-28 16:44:04.343750
2554,-59.35,2022-10-28 16:44:04.359375
2555,-27.49,2022-10-28 16:44:04.375000
2556,5.26,2022-10-28 16:44:04.390625
2557,38.14,2022-10-28 16:44:04.406250
2558,69.97,2022-10-28 16:44:04.421875
2559,100.0,2022-10-28 16:44:04.437500
2560,128.49,2022-10-28 16:44:04.453125
2561,156.83,2022-10-28 16:44:04.468750
2562,186.81,2022-10-28 16:44:04.484375
2563,219.7,2022-10-28 16:44:04.500000
2564,255.12,2022-10-28 16:44:04.515625
2565,290.77,2022-10-28 16:44:04.531250
2566,322.98,2022-10-28 16:44:04.546875
2567,347.87,2022-10-28 16:44:04.562500
2568,362.75,2022-10-28 16:44:04.578125
2569,366.88,2022-10-28 16:44:04.593750
2570,361.34,2022-10-28 16:44:04.609375
2571,348.23,2022-10-28 16:44:04.625000
2572,329.84,2022-10-28 16:44:04.640625
2573,307.95,2022-10-28 16:44:04.656250
2574,283.92,2022-10-28 16:44:04.671875
2575,259.08,2022-10-28 16:44:04.687500
2576,235.0,2022-10-28 16:44:04.703125
2577,213.3,2022-10-28 16:44:04.718750
2578,195.15,2022-10-28 16:44:04.734375
2579,180.74,2022-10-28 16:44:04.750000
2580,169.3,2022-10-28 16:44:04.765625
2581,159.51,2022-10-28 16:44:04.781250
2582,150.18,2022-10-28 16:44:04.796875
2583,140.66,2022-10-28 16:44:04.812500
2584,130.79,2022-10-28 16:44:04.828125
2585,120.47,2022-10-28 16:44:04.843750
2586,109.31,2022-10-28 16:44:04.859375
2587,96.6,2022-10-28 16:44:04.875000
2588,81.85,2022-10-28 16:44:04.890625
2589,65.44,2022-10-28 16:44:04.906250
2590,48.92,2022-10-28 16:44:04.921875
2591,34.54,2022-10-28 16:44:04.937500
2592,24.23,2022-10-28 16:44:04.953125
2593,18.65,2022-10-28 16:44:04.968750
2594,16.82,2022-10-28 16:44:04.984375
2595,16.67,2022-10-28 16:44:05.000000
2596,16.08,2022-10-28 16:44:05.015625
2597,13.9,2022-10-28 16:44:05.031250
2598,10.14,2022-10-28 16:44:05.046875
2599,5.48,2022-10-28 16:44:05.062500
2600,0.27,2022-10-28 16:44:05.078125
2601,-5.94,2022-10-28 16:44:05.093750
2602,-14.09,2022-10-28 16:44:05.109375
2603,-24.61,2022-10-28 16:44:05.125000
2604,-36.5,2022-10-28 16:44:05.140625
2605,-47.14,2022-10-28 16:44:05.156250
2606,-53.38,2022-10-28 16:44:05.171875
2607,-53.07,2022-10-28 16:44:05.187500
2608,-46.36,2022-10-28 16:44:05.203125
2609,-35.71,2022-10-28 16:44:05.218750
2610,-24.66,2022-10-28 16:44:05.234375
2611,-16.03,2022-10-28 16:44:05.250000
2612,-10.64,2022-10-28 16:44:05.265625
2613,-7.25,2022-10-28 16:44:05.281250
2614,-3.64,2022-10-28 16:44:05.296875
2615,1.8,2022-10-28 16:44:05.312500
2616,9.14,2022-10-28 16:44:05.328125
2617,16.91,2022-10-28 16:44:05.343750
2618,23.07,2022-10-28 16:44:05.359375
2619,26.18,2022-10-28 16:44:05.375000
2620,26.06,2022-10-28 16:44:05.390625
2621,23.71,2022-10-28 16:44:05.406250
2622,20.63,2022-10-28 16:44:05.421875
2623,18.14,2022-10-28 16:44:05.437500
2624,17.0,2022-10-28 16:44:05.453125
2625,17.4,2022-10-28 16:44:05.468750
2626,19.17,2022-10-28 16:44:05.484375
2627,21.9,2022-10-28 16:44:05.500000
2628,25.02,2022-10-28 16:44:05.515625
2629,27.76,2022-10-28 16:44:05.531250
2630,29.39,2022-10-28 16:44:05.546875
2631,29.51,2022-10-28 16:44:05.562500
2632,28.33,2022-10-28 16:44:05.578125
2633,26.62,2022-10-28 16:44:05.593750
2634,25.39,2022-10-28 16:44:05.609375
2635,25.28,2022-10-28 16:44:05.625000
2636,26.23,2022-10-28 16:44:05.640625
2637,27.5,2022-10-28 16:44:05.656250
2638,28.02,2022-10-28 16:44:05.671875
2639,27.0,2022-10-28 16:44:05.687500
2640,24.38,2022-10-28 16:44:05.703125
2641,20.79,2022-10-28 16:44:05.718750
2642,17.28,2022-10-28 16:44:05.734375
2643,14.8,2022-10-28 16:44:05.750000
2644,13.85,2022-10-28 16:44:05.765625
2645,14.31,2022-10-28 16:44:05.781250
2646,15.59,2022-10-28 16:44:05.796875
2647,16.75,2022-10-28 16:44:05.812500
2648,16.89,2022-10-28 16:44:05.828125
2649,15.28,2022-10-28 16:44:05.843750
2650,11.52,2022-10-28 16:44:05.859375
2651,5.69,2022-10-28 16:44:05.875000
2652,-1.62,2022-10-28 16:44:05.890625
2653,-9.2,2022-10-28 16:44:05.906250
2654,-15.47,2022-10-28 16:44:05.921875
2655,-18.84,2022-10-28 16:44:05.937500
2656,-18.41,2022-10-28 16:44:05.953125
2657,-14.58,2022-10-28 16:44:05.968750
2658,-9.23,2022-10-28 16:44:05.984375
2659,-5.21,2022-10-28 16:44:06.000000
2660,-5.2,2022-10-28 16:44:06.015625
2661,-10.44,2022-10-28 16:44:06.031250
2662,-20.0,2022-10-28 16:44:06.046875
2663,-31.1,2022-10-28 16:44:06.062500
2664,-40.12,2022-10-28 16:44:06.078125
2665,-44.02,2022-10-28 16:44:06.093750
2666,-41.41,2022-10-28 16:44:06.109375
2667,-32.87,2022-10-28 16:44:06.125000
2668,-20.36,2022-10-28 16:44:06.140625
2669,-6.41,2022-10-28 16:44:06.156250
2670,6.79,2022-10-28 16:44:06.171875
2671,17.74,2022-10-28 16:44:06.187500
2672,25.74,2022-10-28 16:44:06.203125
2673,30.61,2022-10-28 16:44:06.218750
2674,32.57,2022-10-28 16:44:06.234375
2675,32.09,2022-10-28 16:44:06.250000
2676,29.95,2022-10-28 16:44:06.265625
2677,27.16,2022-10-28 16:44:06.281250
2678,24.76,2022-10-28 16:44:06.296875
2679,23.53,2022-10-28 16:44:06.312500
2680,23.6,2022-10-28 16:44:06.328125
2681,24.42,2022-10-28 16:44:06.343750
2682,24.99,2022-10-28 16:44:06.359375
2683,24.39,2022-10-28 16:44:06.375000
2684,22.33,2022-10-28 16:44:06.390625
2685,19.36,2022-10-28 16:44:06.406250
2686,16.5,2022-10-28 16:44:06.421875
2687,14.54,2022-10-28 16:44:06.437500
2688,13.61,2022-10-28 16:44:06.453125
2689,13.05,2022-10-28 16:44:06.468750
2690,11.94,2022-10-28 16:44:06.484375
2691,9.72,2022-10-28 16:44:06.500000
2692,6.53,2022-10-28 16:44:06.515625
2693,3.13,2022-10-28 16:44:06.531250
2694,0.41,2022-10-28 16:44:06.546875
2695,-1.07,2022-10-28 16:44:06.562500
2696,-1.36,2022-10-28 16:44:06.578125
2697,-0.93,2022-10-28 16:44:06.593750
2698,-0.41,2022-10-28 16:44:06.609375
2699,-0.49,2022-10-28 16:44:06.625000
2700,-1.78,2022-10-28 16:44:06.640625
2701,-4.67,2022-10-28 16:44:06.656250
2702,-9.16,2022-10-28 16:44:06.671875
2703,-14.62,2022-10-28 16:44:06.687500
2704,-19.92,2022-10-28 16:44:06.703125
2705,-23.85,2022-10-28 16:44:06.718750
2706,-25.79,2022-10-28 16:44:06.734375
2707,-26.08,2022-10-28 16:44:06.750000
2708,-25.8,2022-10-28 16:44:06.765625
2709,-26.13,2022-10-28 16:44:06.781250
2710,-27.55,2022-10-28 16:44:06.796875
2711,-29.6,2022-10-28 16:44:06.812500
2712,-31.28,2022-10-28 16:44:06.828125
2713,-31.77,2022-10-28 16:44:06.843750
2714,-31.05,2022-10-28 16:44:06.859375
2715,-29.87,2022-10-28 16:44:06.875000
2716,-29.31,2022-10-28 16:44:06.890625
2717,-30.16,2022-10-28 16:44:06.906250
2718,-32.78,2022-10-28 16:44:06.921875
2719,-37.2,2022-10-28 16:44:06.937500
2720,-43.26,2022-10-28 16:44:06.953125
2721,-50.57,2022-10-28 16:44:06.968750
2722,-58.09,2022-10-28 16:44:06.984375
2723,-63.86,2022-10-28 16:44:07.000000
2724,-65.24,2022-10-28 16:44:07.015625
2725,-59.84,2022-10-28 16:44:07.031250
2726,-46.58,2022-10-28 16:44:07.046875
2727,-26.38,2022-10-28 16:44:07.062500
2728,-1.86,2022-10-28 16:44:07.078125
2729,23.67,2022-10-28 16:44:07.093750
2730,47.49,2022-10-28 16:44:07.109375
2731,68.1,2022-10-28 16:44:07.125000
2732,85.21,2022-10-28 16:44:07.140625
2733,99.16,2022-10-28 16:44:07.156250
2734,110.53,2022-10-28 16:44:07.171875
2735,120.12,2022-10-28 16:44:07.187500
2736,129.04,2022-10-28 16:44:07.203125
2737,138.55,2022-10-28 16:44:07.218750
2738,149.51,2022-10-28 16:44:07.234375
2739,161.66,2022-10-28 16:44:07.250000
2740,173.68,2022-10-28 16:44:07.265625
2741,183.81,2022-10-28 16:44:07.281250
2742,191.18,2022-10-28 16:44:07.296875
2743,196.55,2022-10-28 16:44:07.312500
2744,202.21,2022-10-28 16:44:07.328125
2745,210.76,2022-10-28 16:44:07.343750
2746,223.46,2022-10-28 16:44:07.359375
2747,239.19,2022-10-28 16:44:07.375000
2748,254.61,2022-10-28 16:44:07.390625
2749,265.52,2022-10-28 16:44:07.406250
2750,268.34,2022-10-28 16:44:07.421875
2751,261.15,2022-10-28 16:44:07.437500
2752,244.0,2022-10-28 16:44:07.453125
2753,218.67,2022-10-28 16:44:07.468750
2754,188.26,2022-10-28 16:44:07.484375
2755,156.65,2022-10-28 16:44:07.500000
2756,128.0,2022-10-28 16:44:07.515625
2757,105.92,2022-10-28 16:44:07.531250
2758,92.73,2022-10-28 16:44:07.546875
2759,88.81,2022-10-28 16:44:07.562500
2760,92.84,2022-10-28 16:44:07.578125
2761,102.64,2022-10-28 16:44:07.593750
2762,116.1,2022-10-28 16:44:07.609375
2763,131.56,2022-10-28 16:44:07.625000
2764,147.68,2022-10-28 16:44:07.640625
2765,163.01,2022-10-28 16:44:07.656250
2766,175.78,2022-10-28 16:44:07.671875
2767,184.1,2022-10-28 16:44:07.687500
2768,186.43,2022-10-28 16:44:07.703125
2769,181.87,2022-10-28 16:44:07.718750
2770,170.11,2022-10-28 16:44:07.734375
2771,151.01,2022-10-28 16:44:07.750000
2772,124.25,2022-10-28 16:44:07.765625
2773,89.68,2022-10-28 16:44:07.781250
2774,47.76,2022-10-28 16:44:07.796875
2775,0.14,2022-10-28 16:44:07.812500
2776,-50.52,2022-10-28 16:44:07.828125
2777,-101.35,2022-10-28 16:44:07.843750
2778,-150.52,2022-10-28 16:44:07.859375
2779,-198.23,2022-10-28 16:44:07.875000
2780,-246.07,2022-10-28 16:44:07.890625
2781,-295.07,2022-10-28 16:44:07.906250
2782,-343.27,2022-10-28 16:44:07.921875
2783,-384.53,2022-10-28 16:44:07.937500
2784,-409.9,2022-10-28 16:44:07.953125
2785,-410.92,2022-10-28 16:44:07.968750
2786,-383.48,2022-10-28 16:44:07.984375
2787,-329.93,2022-10-28 16:44:08.000000
2788,-258.4,2022-10-28 16:44:08.015625
2789,-179.67,2022-10-28 16:44:08.031250
2790,-103.62,2022-10-28 16:44:08.046875
2791,-37.01,2022-10-28 16:44:08.062500
2792,16.59,2022-10-28 16:44:08.078125
2793,55.6,2022-10-28 16:44:08.093750
2794,79.63,2022-10-28 16:44:08.109375
2795,89.55,2022-10-28 16:44:08.125000
2796,88.34,2022-10-28 16:44:08.140625
2797,81.21,2022-10-28 16:44:08.156250
2798,74.3,2022-10-28 16:44:08.171875
2799,72.25,2022-10-28 16:44:08.187500
2800,76.08,2022-10-28 16:44:08.203125
2801,82.85,2022-10-28 16:44:08.218750
2802,87.3,2022-10-28 16:44:08.234375
2803,84.74,2022-10-28 16:44:08.250000
2804,72.83,2022-10-28 16:44:08.265625
2805,52.23,2022-10-28 16:44:08.281250
2806,25.41,2022-10-28 16:44:08.296875
2807,-4.86,2022-10-28 16:44:08.312500
2808,-36.71,2022-10-28 16:44:08.328125
2809,-69.49,2022-10-28 16:44:08.343750
2810,-103.43,2022-10-28 16:44:08.359375
2811,-139.35,2022-10-28 16:44:08.375000
2812,-178.77,2022-10-28 16:44:08.390625
2813,-223.93,2022-10-28 16:44:08.406250
2814,-277.42,2022-10-28 16:44:08.421875
2815,-340.75,2022-10-28 16:44:08.437500
2816,-412.45,2022-10-28 16:44:08.453125
2817,-486.8,2022-10-28 16:44:08.468750
2818,-554.26,2022-10-28 16:44:08.484375
2819,-603.97,2022-10-28 16:44:08.500000
2820,-627.56,2022-10-28 16:44:08.515625
2821,-622.37,2022-10-28 16:44:08.531250
2822,-592.51,2022-10-28 16:44:08.546875
2823,-547.03,2022-10-28 16:44:08.562500
2824,-496.17,2022-10-28 16:44:08.578125
2825,-447.73,2022-10-28 16:44:08.593750
2826,-404.98,2022-10-28 16:44:08.609375
2827,-367.22,2022-10-28 16:44:08.625000
2828,-331.87,2022-10-28 16:44:08.640625
2829,-296.78,2022-10-28 16:44:08.656250
2830,-261.43,2022-10-28 16:44:08.671875
2831,-226.66,2022-10-28 16:44:08.687500
2832,-193.55,2022-10-28 16:44:08.703125
2833,-162.44,2022-10-28 16:44:08.718750
2834,-132.59,2022-10-28 16:44:08.734375
2835,-102.7,2022-10-28 16:44:08.750000
2836,-71.49,2022-10-28 16:44:08.765625
2837,-38.22,2022-10-28 16:44:08.781250
2838,-2.77,2022-10-28 16:44:08.796875
2839,34.82,2022-10-28 16:44:08.812500
2840,74.56,2022-10-28 16:44:08.828125
2841,116.21,2022-10-28 16:44:08.843750
2842,158.6,2022-10-28 16:44:08.859375
2843,199.1,2022-10-28 16:44:08.875000
2844,233.67,2022-10-28 16:44:08.890625
2845,258.05,2022-10-28 16:44:08.906250
2846,269.29,2022-10-28 16:44:08.921875
2847,267.02,2022-10-28 16:44:08.937500
2848,253.65,2022-10-28 16:44:08.953125
2849,233.44,2022-10-28 16:44:08.968750
2850,210.8,2022-10-28 16:44:08.984375
2851,188.87,2022-10-28 16:44:09.000000
2852,168.94,2022-10-28 16:44:09.015625
2853,150.94,2022-10-28 16:44:09.031250
2854,134.66,2022-10-28 16:44:09.046875
2855,120.72,2022-10-28 16:44:09.062500
2856,110.93,2022-10-28 16:44:09.078125
2857,107.61,2022-10-28 16:44:09.093750
2858,112.62,2022-10-28 16:44:09.109375
2859,126.16,2022-10-28 16:44:09.125000
2860,146.21,2022-10-28 16:44:09.140625
2861,168.75,2022-10-28 16:44:09.156250
2862,188.82,2022-10-28 16:44:09.171875
2863,201.95,2022-10-28 16:44:09.187500
2864,205.75,2022-10-28 16:44:09.203125
2865,200.44,2022-10-28 16:44:09.218750
2866,188.49,2022-10-28 16:44:09.234375
2867,173.4,2022-10-28 16:44:09.250000
2868,158.26,2022-10-28 16:44:09.265625
2869,144.88,2022-10-28 16:44:09.281250
2870,133.59,2022-10-28 16:44:09.296875
2871,123.78,2022-10-28 16:44:09.312500
2872,114.53,2022-10-28 16:44:09.328125
2873,105.14,2022-10-28 16:44:09.343750
2874,95.36,2022-10-28 16:44:09.359375
2875,85.36,2022-10-28 16:44:09.375000
2876,75.48,2022-10-28 16:44:09.390625
2877,66.13,2022-10-28 16:44:09.406250
2878,57.71,2022-10-28 16:44:09.421875
2879,50.4,2022-10-28 16:44:09.437500
2880,44.09,2022-10-28 16:44:09.453125
2881,38.2,2022-10-28 16:44:09.468750
2882,31.92,2022-10-28 16:44:09.484375
2883,24.63,2022-10-28 16:44:09.500000
2884,16.43,2022-10-28 16:44:09.515625
2885,8.14,2022-10-28 16:44:09.531250
2886,0.87,2022-10-28 16:44:09.546875
2887,-4.75,2022-10-28 16:44:09.562500
2888,-9.09,2022-10-28 16:44:09.578125
2889,-13.31,2022-10-28 16:44:09.593750
2890,-18.5,2022-10-28 16:44:09.609375
2891,-24.75,2022-10-28 16:44:09.625000
2892,-30.89,2022-10-28 16:44:09.640625
2893,-34.98,2022-10-28 16:44:09.656250
2894,-35.41,2022-10-28 16:44:09.671875
2895,-31.8,2022-10-28 16:44:09.687500
2896,-25.21,2022-10-28 16:44:09.703125
2897,-17.58,2022-10-28 16:44:09.718750
2898,-10.81,2022-10-28 16:44:09.734375
2899,-6.06,2022-10-28 16:44:09.750000
2900,-3.62,2022-10-28 16:44:09.765625
2901,-3.24,2022-10-28 16:44:09.781250
2902,-4.33,2022-10-28 16:44:09.796875
2903,-6.19,2022-10-28 16:44:09.812500
2904,-7.87,2022-10-28 16:44:09.828125
2905,-8.37,2022-10-28 16:44:09.843750
2906,-6.85,2022-10-28 16:44:09.859375
2907,-3.05,2022-10-28 16:44:09.875000
2908,2.56,2022-10-28 16:44:09.890625
2909,9.01,2022-10-28 16:44:09.906250
2910,15.27,2022-10-28 16:44:09.921875
2911,20.64,2022-10-28 16:44:09.937500
2912,24.97,2022-10-28 16:44:09.953125
2913,28.52,2022-10-28 16:44:09.968750
2914,31.78,2022-10-28 16:44:09.984375
2915,35.15,2022-10-28 16:44:10.000000
2916,38.83,2022-10-28 16:44:10.015625
2917,42.77,2022-10-28 16:44:10.031250
2918,46.7,2022-10-28 16:44:10.046875
2919,50.35,2022-10-28 16:44:10.062500
2920,53.63,2022-10-28 16:44:10.078125
2921,56.56,2022-10-28 16:44:10.093750
2922,58.93,2022-10-28 16:44:10.109375
2923,60.12,2022-10-28 16:44:10.125000
2924,59.01,2022-10-28 16:44:10.140625
2925,54.44,2022-10-28 16:44:10.156250
2926,46.03,2022-10-28 16:44:10.171875
2927,34.72,2022-10-28 16:44:10.187500
2928,22.81,2022-10-28 16:44:10.203125
2929,13.04,2022-10-28 16:44:10.218750
2930,7.21,2022-10-28 16:44:10.234375
2931,5.21,2022-10-28 16:44:10.250000
2932,5.08,2022-10-28 16:44:10.265625
2933,4.27,2022-10-28 16:44:10.281250
2934,1.52,2022-10-28 16:44:10.296875
2935,-2.02,2022-10-28 16:44:10.312500
2936,-3.16,2022-10-28 16:44:10.328125
2937,1.54,2022-10-28 16:44:10.343750
2938,13.54,2022-10-28 16:44:10.359375
2939,31.19,2022-10-28 16:44:10.375000
2940,50.26,2022-10-28 16:44:10.390625
2941,66.05,2022-10-28 16:44:10.406250
2942,75.7,2022-10-28 16:44:10.421875
2943,79.22,2022-10-28 16:44:10.437500
2944,78.87,2022-10-28 16:44:10.453125
2945,77.08,2022-10-28 16:44:10.468750
2946,74.53,2022-10-28 16:44:10.484375
2947,69.39,2022-10-28 16:44:10.500000
2948,58.53,2022-10-28 16:44:10.515625
2949,39.64,2022-10-28 16:44:10.531250
2950,13.18,2022-10-28 16:44:10.546875
2951,-17.22,2022-10-28 16:44:10.562500
2952,-46.11,2022-10-28 16:44:10.578125
2953,-68.6,2022-10-28 16:44:10.593750
2954,-82.23,2022-10-28 16:44:10.609375
2955,-87.38,2022-10-28 16:44:10.625000
2956,-86.16,2022-10-28 16:44:10.640625
2957,-80.53,2022-10-28 16:44:10.656250
2958,-71.02,2022-10-28 16:44:10.671875
2959,-56.93,2022-10-28 16:44:10.687500
2960,-37.73,2022-10-28 16:44:10.703125
2961,-14.72,2022-10-28 16:44:10.718750
2962,8.3,2022-10-28 16:44:10.734375
2963,25.99,2022-10-28 16:44:10.750000
2964,33.74,2022-10-28 16:44:10.765625
2965,29.76,2022-10-28 16:44:10.781250
2966,16.12,2022-10-28 16:44:10.796875
2967,-2.15,2022-10-28 16:44:10.812500
2968,-19.18,2022-10-28 16:44:10.828125
2969,-30.48,2022-10-28 16:44:10.843750
2970,-34.28,2022-10-28 16:44:10.859375
2971,-31.52,2022-10-28 16:44:10.875000
2972,-24.96,2022-10-28 16:44:10.890625
2973,-17.78,2022-10-28 16:44:10.906250
2974,-12.52,2022-10-28 16:44:10.921875
2975,-10.45,2022-10-28 16:44:10.937500
2976,-11.38,2022-10-28 16:44:10.953125
2977,-13.92,2022-10-28 16:44:10.968750
2978,-16.08,2022-10-28 16:44:10.984375
2979,-16.07,2022-10-28 16:44:11.000000
2980,-13.01,2022-10-28 16:44:11.015625
2981,-7.33,2022-10-28 16:44:11.031250
2982,-0.66,2022-10-28 16:44:11.046875
2983,4.88,2022-10-28 16:44:11.062500
2984,7.37,2022-10-28 16:44:11.078125
2985,5.85,2022-10-28 16:44:11.093750
2986,0.47,2022-10-28 16:44:11.109375
2987,-7.68,2022-10-28 16:44:11.125000
2988,-17.17,2022-10-28 16:44:11.140625
2989,-26.75,2022-10-28 16:44:11.156250
2990,-35.6,2022-10-28 16:44:11.171875
2991,-43.22,2022-10-28 16:44:11.187500
2992,-49.17,2022-10-28 16:44:11.203125
2993,-52.83,2022-10-28 16:44:11.218750
2994,-53.59,2022-10-28 16:44:11.234375
2995,-51.22,2022-10-28 16:44:11.250000
2996,-46.3,2022-10-28 16:44:11.265625
2997,-40.42,2022-10-28 16:44:11.281250
2998,-35.98,2022-10-28 16:44:11.296875
2999,-35.63,2022-10-28 16:44:11.312500
3000,-41.32,2022-10-28 16:44:11.328125
3001,-53.46,2022-10-28 16:44:11.343750
3002,-70.26,2022-10-28 16:44:11.359375
3003,-87.82,2022-10-28 16:44:11.375000
3004,-101.15,2022-10-28 16:44:11.390625
3005,-105.99,2022-10-28 16:44:11.406250
3006,-100.85,2022-10-28 16:44:11.421875
3007,-87.98,2022-10-28 16:44:11.437500
3008,-72.71,2022-10-28 16:44:11.453125
3009,-60.9,2022-10-28 16:44:11.468750
3010,-55.82,2022-10-28 16:44:11.484375
3011,-56.2,2022-10-28 16:44:11.500000
3012,-56.71,2022-10-28 16:44:11.515625
3013,-50.91,2022-10-28 16:44:11.531250
3014,-35.04,2022-10-28 16:44:11.546875
3015,-10.33,2022-10-28 16:44:11.562500
3016,17.44,2022-10-28 16:44:11.578125
3017,40.89,2022-10-28 16:44:11.593750
3018,54.73,2022-10-28 16:44:11.609375
3019,57.87,2022-10-28 16:44:11.625000
3020,53.0,2022-10-28 16:44:11.640625
3021,44.13,2022-10-28 16:44:11.656250
3022,33.85,2022-10-28 16:44:11.671875
3023,22.09,2022-10-28 16:44:11.687500
3024,6.98,2022-10-28 16:44:11.703125
3025,-12.88,2022-10-28 16:44:11.718750
3026,-36.4,2022-10-28 16:44:11.734375
3027,-59.45,2022-10-28 16:44:11.750000
3028,-76.24,2022-10-28 16:44:11.765625
3029,-81.73,2022-10-28 16:44:11.781250
3030,-73.84,2022-10-28 16:44:11.796875
3031,-54.26,2022-10-28 16:44:11.812500
3032,-27.61,2022-10-28 16:44:11.828125
3033,0.42,2022-10-28 16:44:11.843750
3034,24.69,2022-10-28 16:44:11.859375
3035,41.57,2022-10-28 16:44:11.875000
3036,49.01,2022-10-28 16:44:11.890625
3037,46.2,2022-10-28 16:44:11.906250
3038,33.74,2022-10-28 16:44:11.921875
3039,13.92,2022-10-28 16:44:11.937500
3040,-9.08,2022-10-28 16:44:11.953125
3041,-29.78,2022-10-28 16:44:11.968750
3042,-42.77,2022-10-28 16:44:11.984375
3043,-44.39,2022-10-28 16:44:12.000000
3044,-33.84,2022-10-28 16:44:12.015625
3045,-13.43,2022-10-28 16:44:12.031250
3046,12.31,2022-10-28 16:44:12.046875
3047,37.95,2022-10-28 16:44:12.062500
3048,58.54,2022-10-28 16:44:12.078125
3049,70.57,2022-10-28 16:44:12.093750
3050,72.79,2022-10-28 16:44:12.109375
3051,66.33,2022-10-28 16:44:12.125000
3052,54.49,2022-10-28 16:44:12.140625
3053,41.48,2022-10-28 16:44:12.156250
3054,30.85,2022-10-28 16:44:12.171875
3055,24.04,2022-10-28 16:44:12.187500
3056,20.03,2022-10-28 16:44:12.203125
3057,16.3,2022-10-28 16:44:12.218750
3058,10.54,2022-10-28 16:44:12.234375
3059,2.12,2022-10-28 16:44:12.250000
3060,-7.7,2022-10-28 16:44:12.265625
3061,-16.61,2022-10-28 16:44:12.281250
3062,-22.43,2022-10-28 16:44:12.296875
3063,-23.96,2022-10-28 16:44:12.312500
3064,-20.86,2022-10-28 16:44:12.328125
3065,-13.19,2022-10-28 16:44:12.343750
3066,-1.23,2022-10-28 16:44:12.359375
3067,14.29,2022-10-28 16:44:12.375000
3068,31.73,2022-10-28 16:44:12.390625
3069,48.41,2022-10-28 16:44:12.406250
3070,61.32,2022-10-28 16:44:12.421875
3071,68.32,2022-10-28 16:44:12.437500
3072,69.13,2022-10-28 16:44:12.453125
3073,65.25,2022-10-28 16:44:12.468750
3074,59.05,2022-10-28 16:44:12.484375
3075,52.33,2022-10-28 16:44:12.500000
3076,45.58,2022-10-28 16:44:12.515625
3077,38.13,2022-10-28 16:44:12.531250
3078,29.03,2022-10-28 16:44:12.546875
3079,18.08,2022-10-28 16:44:12.562500
3080,6.3,2022-10-28 16:44:12.578125
3081,-4.53,2022-10-28 16:44:12.593750
3082,-12.68,2022-10-28 16:44:12.609375
3083,-17.32,2022-10-28 16:44:12.625000
3084,-18.83,2022-10-28 16:44:12.640625
3085,-18.44,2022-10-28 16:44:12.656250
3086,-17.52,2022-10-28 16:44:12.671875
3087,-16.96,2022-10-28 16:44:12.687500
3088,-16.81,2022-10-28 16:44:12.703125
3089,-16.45,2022-10-28 16:44:12.718750
3090,-15.08,2022-10-28 16:44:12.734375
3091,-12.13,2022-10-28 16:44:12.750000
3092,-7.55,2022-10-28 16:44:12.765625
3093,-1.83,2022-10-28 16:44:12.781250
3094,4.16,2022-10-28 16:44:12.796875
3095,9.52,2022-10-28 16:44:12.812500
3096,13.65,2022-10-28 16:44:12.828125
3097,16.51,2022-10-28 16:44:12.843750
3098,18.57,2022-10-28 16:44:12.859375
3099,20.44,2022-10-28 16:44:12.875000
3100,22.39,2022-10-28 16:44:12.890625
3101,23.94,2022-10-28 16:44:12.906250
3102,23.87,2022-10-28 16:44:12.921875
3103,20.7,2022-10-28 16:44:12.937500
3104,13.34,2022-10-28 16:44:12.953125
3105,1.6,2022-10-28 16:44:12.968750
3106,-13.47,2022-10-28 16:44:12.984375
3107,-29.86,2022-10-28 16:44:13.000000
3108,-45.09,2022-10-28 16:44:13.015625
3109,-56.83,2022-10-28 16:44:13.031250
3110,-63.57,2022-10-28 16:44:13.046875
3111,-65.1,2022-10-28 16:44:13.062500
3112,-62.6,2022-10-28 16:44:13.078125
3113,-58.3,2022-10-28 16:44:13.093750
3114,-54.53,2022-10-28 16:44:13.109375
3115,-52.7,2022-10-28 16:44:13.125000
3116,-52.41,2022-10-28 16:44:13.140625
3117,-51.49,2022-10-28 16:44:13.156250
3118,-46.88,2022-10-28 16:44:13.171875
3119,-36.29,2022-10-28 16:44:13.187500
3120,-19.5,2022-10-28 16:44:13.203125
3121,1.16,2022-10-28 16:44:13.218750
3122,21.4,2022-10-28 16:44:13.234375
3123,36.68,2022-10-28 16:44:13.250000
3124,44.14,2022-10-28 16:44:13.265625
3125,43.87,2022-10-28 16:44:13.281250
3126,39.02,2022-10-28 16:44:13.296875
3127,34.49,2022-10-28 16:44:13.312500
3128,34.56,2022-10-28 16:44:13.328125
3129,40.7,2022-10-28 16:44:13.343750
3130,50.63,2022-10-28 16:44:13.359375
3131,59.12,2022-10-28 16:44:13.375000
3132,60.42,2022-10-28 16:44:13.390625
3133,50.95,2022-10-28 16:44:13.406250
3134,31.1,2022-10-28 16:44:13.421875
3135,4.92,2022-10-28 16:44:13.437500
3136,-21.79,2022-10-28 16:44:13.453125
3137,-44.02,2022-10-28 16:44:13.468750
3138,-59.47,2022-10-28 16:44:13.484375
3139,-68.82,2022-10-28 16:44:13.500000
3140,-74.94,2022-10-28 16:44:13.515625
3141,-81.04,2022-10-28 16:44:13.531250
3142,-88.88,2022-10-28 16:44:13.546875
3143,-97.71,2022-10-28 16:44:13.562500
3144,-104.03,2022-10-28 16:44:13.578125
3145,-102.33,2022-10-28 16:44:13.593750
3146,-86.67,2022-10-28 16:44:13.609375
3147,-52.97,2022-10-28 16:44:13.625000
3148,-1.4,2022-10-28 16:44:13.640625
3149,62.31,2022-10-28 16:44:13.656250
3150,127.4,2022-10-28 16:44:13.671875
3151,180.83,2022-10-28 16:44:13.687500
3152,211.39,2022-10-28 16:44:13.703125
3153,213.52,2022-10-28 16:44:13.718750
3154,189.11,2022-10-28 16:44:13.734375
3155,146.52,2022-10-28 16:44:13.750000
3156,97.22,2022-10-28 16:44:13.765625
3157,51.8,2022-10-28 16:44:13.781250
3158,17.01,2022-10-28 16:44:13.796875
3159,-4.82,2022-10-28 16:44:13.812500
3160,-14.66,2022-10-28 16:44:13.828125
3161,-14.75,2022-10-28 16:44:13.843750
3162,-7.24,2022-10-28 16:44:13.859375
3163,6.09,2022-10-28 16:44:13.875000
