,BVP,time
0,-124.43,2022-10-28 16:43:25.875000
1,-136.38,2022-10-28 16:43:25.890625
2,-150.74,2022-10-28 16:43:25.906250
3,-167.71,2022-10-28 16:43:25.921875
4,-186.93,2022-10-28 16:43:25.937500
5,-207.3,2022-10-28 16:43:25.953125
6,-227.23,2022-10-28 16:43:25.968750
7,-245.04,2022-10-28 16:43:25.984375
8,-259.57,2022-10-28 16:43:26.000000
9,-270.34,2022-10-28 16:43:26.015625
10,-277.35,2022-10-28 16:43:26.031250
11,-280.7,2022-10-28 16:43:26.046875
12,-280.34,2022-10-28 16:43:26.062500
13,-276.23,2022-10-28 16:43:26.078125
14,-268.8,2022-10-28 16:43:26.093750
15,-259.28,2022-10-28 16:43:26.109375
16,-249.59,2022-10-28 16:43:26.125000
17,-241.51,2022-10-28 16:43:26.140625
18,-235.79,2022-10-28 16:43:26.156250
19,-231.52,2022-10-28 16:43:26.171875
20,-226.32,2022-10-28 16:43:26.187500
21,-217.4,2022-10-28 16:43:26.203125
22,-202.83,2022-10-28 16:43:26.218750
23,-182.41,2022-10-28 16:43:26.234375
24,-157.78,2022-10-28 16:43:26.250000
25,-131.68,2022-10-28 16:43:26.265625
26,-106.9,2022-10-28 16:43:26.281250
27,-85.37,2022-10-28 16:43:26.296875
28,-67.98,2022-10-28 16:43:26.312500
29,-54.88,2022-10-28 16:43:26.328125
30,-46.06,2022-10-28 16:43:26.343750
31,-41.7,2022-10-28 16:43:26.359375
32,-42.19,2022-10-28 16:43:26.375000
33,-47.45,2022-10-28 16:43:26.390625
34,-56.36,2022-10-28 16:43:26.406250
35,-66.27,2022-10-28 16:43:26.421875
36,-73.26,2022-10-28 16:43:26.437500
37,-73.05,2022-10-28 16:43:26.453125
38,-62.41,2022-10-28 16:43:26.468750
39,-40.39,2022-10-28 16:43:26.484375
40,-8.71,2022-10-28 16:43:26.500000
41,28.68,2022-10-28 16:43:26.515625
42,66.97,2022-10-28 16:43:26.531250
43,102.08,2022-10-28 16:43:26.546875
44,131.61,2022-10-28 16:43:26.562500
45,155.04,2022-10-28 16:43:26.578125
46,172.92,2022-10-28 16:43:26.593750
47,185.93,2022-10-28 16:43:26.609375
48,194.21,2022-10-28 16:43:26.625000
49,197.38,2022-10-28 16:43:26.640625
50,195.26,2022-10-28 16:43:26.656250
51,188.59,2022-10-28 16:43:26.671875
52,179.22,2022-10-28 16:43:26.687500
53,169.64,2022-10-28 16:43:26.703125
54,161.93,2022-10-28 16:43:26.718750
55,156.93,2022-10-28 16:43:26.734375
56,153.95,2022-10-28 16:43:26.750000
57,151.33,2022-10-28 16:43:26.765625
58,147.42,2022-10-28 16:43:26.781250
59,141.43,2022-10-28 16:43:26.796875
60,133.72,2022-10-28 16:43:26.812500
61,125.46,2022-10-28 16:43:26.828125
62,118.05,2022-10-28 16:43:26.843750
63,112.67,2022-10-28 16:43:26.859375
64,110.01,2022-10-28 16:43:26.875000
65,110.24,2022-10-28 16:43:26.890625
66,112.8,2022-10-28 16:43:26.906250
67,116.07,2022-10-28 16:43:26.921875
68,117.33,2022-10-28 16:43:26.937500
69,113.45,2022-10-28 16:43:26.953125
70,102.24,2022-10-28 16:43:26.968750
71,83.9,2022-10-28 16:43:26.984375
72,61.51,2022-10-28 16:43:27.000000
73,40.13,2022-10-28 16:43:27.015625
74,24.68,2022-10-28 16:43:27.031250
75,17.81,2022-10-28 16:43:27.046875
76,18.88,2022-10-28 16:43:27.062500
77,24.5,2022-10-28 16:43:27.078125
78,30.02,2022-10-28 16:43:27.093750
79,31.09,2022-10-28 16:43:27.109375
80,24.46,2022-10-28 16:43:27.125000
81,8.15,2022-10-28 16:43:27.140625
82,-18.47,2022-10-28 16:43:27.156250
83,-54.48,2022-10-28 16:43:27.171875
84,-96.97,2022-10-28 16:43:27.187500
85,-140.97,2022-10-28 16:43:27.203125
86,-180.34,2022-10-28 16:43:27.218750
87,-209.31,2022-10-28 16:43:27.234375
88,-224.19,2022-10-28 16:43:27.250000
89,-224.24,2022-10-28 16:43:27.265625
90,-211.62,2022-10-28 16:43:27.281250
91,-190.45,2022-10-28 16:43:27.296875
92,-165.44,2022-10-28 16:43:27.312500
93,-140.93,2022-10-28 16:43:27.328125
94,-120.13,2022-10-28 16:43:27.343750
95,-104.71,2022-10-28 16:43:27.359375
96,-94.57,2022-10-28 16:43:27.375000
97,-88.03,2022-10-28 16:43:27.390625
98,-82.35,2022-10-28 16:43:27.406250
99,-74.65,2022-10-28 16:43:27.421875
100,-62.95,2022-10-28 16:43:27.437500
101,-46.69,2022-10-28 16:43:27.453125
102,-26.9,2022-10-28 16:43:27.468750
103,-5.57,2022-10-28 16:43:27.484375
104,14.95,2022-10-28 16:43:27.500000
105,32.8,2022-10-28 16:43:27.515625
106,46.97,2022-10-28 16:43:27.531250
107,57.34,2022-10-28 16:43:27.546875
108,64.34,2022-10-28 16:43:27.562500
109,68.46,2022-10-28 16:43:27.578125
110,69.9,2022-10-28 16:43:27.593750
111,68.43,2022-10-28 16:43:27.609375
112,63.74,2022-10-28 16:43:27.625000
113,55.75,2022-10-28 16:43:27.640625
114,44.96,2022-10-28 16:43:27.656250
115,32.49,2022-10-28 16:43:27.671875
116,19.68,2022-10-28 16:43:27.687500
117,7.6,2022-10-28 16:43:27.703125
118,-3.49,2022-10-28 16:43:27.718750
119,-14.23,2022-10-28 16:43:27.734375
120,-26.1,2022-10-28 16:43:27.750000
121,-40.82,2022-10-28 16:43:27.765625
122,-59.61,2022-10-28 16:43:27.781250
123,-82.37,2022-10-28 16:43:27.796875
124,-106.98,2022-10-28 16:43:27.812500
125,-129.38,2022-10-28 16:43:27.828125
126,-144.3,2022-10-28 16:43:27.843750
127,-146.71,2022-10-28 16:43:27.859375
128,-133.35,2022-10-28 16:43:27.875000
129,-103.79,2022-10-28 16:43:27.890625
130,-60.52,2022-10-28 16:43:27.906250
131,-8.08,2022-10-28 16:43:27.921875
132,48.23,2022-10-28 16:43:27.937500
133,103.63,2022-10-28 16:43:27.953125
134,154.5,2022-10-28 16:43:27.968750
135,198.38,2022-10-28 16:43:27.984375
136,233.79,2022-10-28 16:43:28.000000
137,259.89,2022-10-28 16:43:28.015625
138,276.5,2022-10-28 16:43:28.031250
139,284.26,2022-10-28 16:43:28.046875
140,284.76,2022-10-28 16:43:28.062500
141,280.39,2022-10-28 16:43:28.078125
142,273.98,2022-10-28 16:43:28.093750
143,268.29,2022-10-28 16:43:28.109375
144,265.63,2022-10-28 16:43:28.125000
145,267.53,2022-10-28 16:43:28.140625
146,274.53,2022-10-28 16:43:28.156250
147,286.02,2022-10-28 16:43:28.171875
148,300.04,2022-10-28 16:43:28.187500
149,313.46,2022-10-28 16:43:28.203125
150,322.43,2022-10-28 16:43:28.218750
151,323.4,2022-10-28 16:43:28.234375
152,314.25,2022-10-28 16:43:28.250000
153,294.99,2022-10-28 16:43:28.265625
154,267.71,2022-10-28 16:43:28.281250
155,235.64,2022-10-28 16:43:28.296875
156,201.85,2022-10-28 16:43:28.312500
157,168.21,2022-10-28 16:43:28.328125
158,135.14,2022-10-28 16:43:28.343750
159,102.28,2022-10-28 16:43:28.359375
160,69.33,2022-10-28 16:43:28.375000
161,36.65,2022-10-28 16:43:28.390625
162,5.15,2022-10-28 16:43:28.406250
163,-24.34,2022-10-28 16:43:28.421875
164,-51.56,2022-10-28 16:43:28.437500
165,-76.87,2022-10-28 16:43:28.453125
166,-100.7,2022-10-28 16:43:28.468750
167,-122.95,2022-10-28 16:43:28.484375
168,-142.65,2022-10-28 16:43:28.500000
169,-158.33,2022-10-28 16:43:28.515625
170,-168.67,2022-10-28 16:43:28.531250
171,-173.18,2022-10-28 16:43:28.546875
172,-172.48,2022-10-28 16:43:28.562500
173,-167.87,2022-10-28 16:43:28.578125
174,-160.79,2022-10-28 16:43:28.593750
175,-152.25,2022-10-28 16:43:28.609375
176,-142.58,2022-10-28 16:43:28.625000
177,-131.65,2022-10-28 16:43:28.640625
178,-119.3,2022-10-28 16:43:28.656250
179,-105.72,2022-10-28 16:43:28.671875
180,-91.63,2022-10-28 16:43:28.687500
181,-78.16,2022-10-28 16:43:28.703125
182,-66.56,2022-10-28 16:43:28.718750
183,-57.9,2022-10-28 16:43:28.734375
184,-52.76,2022-10-28 16:43:28.750000
185,-51.14,2022-10-28 16:43:28.765625
186,-52.47,2022-10-28 16:43:28.781250
187,-55.8,2022-10-28 16:43:28.796875
188,-60.05,2022-10-28 16:43:28.812500
189,-64.46,2022-10-28 16:43:28.828125
190,-68.84,2022-10-28 16:43:28.843750
191,-73.62,2022-10-28 16:43:28.859375
192,-79.66,2022-10-28 16:43:28.875000
193,-87.86,2022-10-28 16:43:28.890625
194,-98.61,2022-10-28 16:43:28.906250
195,-111.48,2022-10-28 16:43:28.921875
196,-125.32,2022-10-28 16:43:28.937500
197,-138.55,2022-10-28 16:43:28.953125
198,-149.88,2022-10-28 16:43:28.968750
199,-158.8,2022-10-28 16:43:28.984375
200,-165.91,2022-10-28 16:43:29.000000
201,-172.78,2022-10-28 16:43:29.015625
202,-181.39,2022-10-28 16:43:29.031250
203,-193.47,2022-10-28 16:43:29.046875
204,-209.85,2022-10-28 16:43:29.062500
205,-230.1,2022-10-28 16:43:29.078125
206,-252.52,2022-10-28 16:43:29.093750
207,-274.48,2022-10-28 16:43:29.109375
208,-293.22,2022-10-28 16:43:29.125000
209,-306.68,2022-10-28 16:43:29.140625
210,-314.25,2022-10-28 16:43:29.156250
211,-317.15,2022-10-28 16:43:29.171875
212,-317.95,2022-10-28 16:43:29.187500
213,-319.79,2022-10-28 16:43:29.203125
214,-325.3,2022-10-28 16:43:29.218750
215,-335.62,2022-10-28 16:43:29.234375
216,-350.02,2022-10-28 16:43:29.250000
217,-366.05,2022-10-28 16:43:29.265625
218,-380.14,2022-10-28 16:43:29.281250
219,-388.65,2022-10-28 16:43:29.296875
220,-388.62,2022-10-28 16:43:29.312500
221,-378.56,2022-10-28 16:43:29.328125
222,-358.66,2022-10-28 16:43:29.343750
223,-330.55,2022-10-28 16:43:29.359375
224,-296.77,2022-10-28 16:43:29.375000
225,-260.11,2022-10-28 16:43:29.390625
226,-222.92,2022-10-28 16:43:29.406250
227,-186.8,2022-10-28 16:43:29.421875
228,-152.58,2022-10-28 16:43:29.437500
229,-120.56,2022-10-28 16:43:29.453125
230,-90.69,2022-10-28 16:43:29.468750
231,-62.69,2022-10-28 16:43:29.484375
232,-36.06,2022-10-28 16:43:29.500000
233,-10.02,2022-10-28 16:43:29.515625
234,16.31,2022-10-28 16:43:29.531250
235,43.79,2022-10-28 16:43:29.546875
236,73.05,2022-10-28 16:43:29.562500
237,104.36,2022-10-28 16:43:29.578125
238,137.37,2022-10-28 16:43:29.593750
239,170.93,2022-10-28 16:43:29.609375
240,203.04,2022-10-28 16:43:29.625000
241,231.29,2022-10-28 16:43:29.640625
242,253.63,2022-10-28 16:43:29.656250
243,269.21,2022-10-28 16:43:29.671875
244,278.79,2022-10-28 16:43:29.687500
245,284.42,2022-10-28 16:43:29.703125
246,288.35,2022-10-28 16:43:29.718750
247,291.96,2022-10-28 16:43:29.734375
248,295.07,2022-10-28 16:43:29.750000
249,296.28,2022-10-28 16:43:29.765625
250,293.87,2022-10-28 16:43:29.781250
251,286.85,2022-10-28 16:43:29.796875
252,275.44,2022-10-28 16:43:29.812500
253,260.79,2022-10-28 16:43:29.828125
254,244.26,2022-10-28 16:43:29.843750
255,226.72,2022-10-28 16:43:29.859375
256,208.35,2022-10-28 16:43:29.875000
257,188.84,2022-10-28 16:43:29.890625
258,167.85,2022-10-28 16:43:29.906250
259,145.1,2022-10-28 16:43:29.921875
260,120.38,2022-10-28 16:43:29.937500
261,93.43,2022-10-28 16:43:29.953125
262,64.09,2022-10-28 16:43:29.968750
263,32.83,2022-10-28 16:43:29.984375
264,1.34,2022-10-28 16:43:30.000000
265,-27.27,2022-10-28 16:43:30.015625
266,-48.86,2022-10-28 16:43:30.031250
267,-59.59,2022-10-28 16:43:30.046875
268,-57.29,2022-10-28 16:43:30.062500
269,-42.48,2022-10-28 16:43:30.078125
270,-18.39,2022-10-28 16:43:30.093750
271,10.16,2022-10-28 16:43:30.109375
272,38.27,2022-10-28 16:43:30.125000
273,62.38,2022-10-28 16:43:30.140625
274,80.88,2022-10-28 16:43:30.156250
275,93.85,2022-10-28 16:43:30.171875
276,102.1,2022-10-28 16:43:30.187500
277,106.38,2022-10-28 16:43:30.203125
278,106.84,2022-10-28 16:43:30.218750
279,103.28,2022-10-28 16:43:30.234375
280,95.69,2022-10-28 16:43:30.250000
281,84.86,2022-10-28 16:43:30.265625
282,72.51,2022-10-28 16:43:30.281250
283,60.92,2022-10-28 16:43:30.296875
284,52.25,2022-10-28 16:43:30.312500
285,47.83,2022-10-28 16:43:30.328125
286,47.89,2022-10-28 16:43:30.343750
287,51.76,2022-10-28 16:43:30.359375
288,58.34,2022-10-28 16:43:30.375000
289,66.61,2022-10-28 16:43:30.390625
290,75.93,2022-10-28 16:43:30.406250
291,86.02,2022-10-28 16:43:30.421875
292,96.68,2022-10-28 16:43:30.437500
293,107.62,2022-10-28 16:43:30.453125
294,118.39,2022-10-28 16:43:30.468750
295,128.43,2022-10-28 16:43:30.484375
296,137.09,2022-10-28 16:43:30.500000
297,143.63,2022-10-28 16:43:30.515625
298,147.23,2022-10-28 16:43:30.531250
299,147.09,2022-10-28 16:43:30.546875
300,142.76,2022-10-28 16:43:30.562500
301,134.36,2022-10-28 16:43:30.578125
302,122.76,2022-10-28 16:43:30.593750
303,109.3,2022-10-28 16:43:30.609375
304,95.48,2022-10-28 16:43:30.625000
305,82.38,2022-10-28 16:43:30.640625
306,70.44,2022-10-28 16:43:30.656250
307,59.27,2022-10-28 16:43:30.671875
308,47.96,2022-10-28 16:43:30.687500
309,35.64,2022-10-28 16:43:30.703125
310,22.19,2022-10-28 16:43:30.718750
311,8.87,2022-10-28 16:43:30.734375
312,-1.46,2022-10-28 16:43:30.750000
313,-4.83,2022-10-28 16:43:30.765625
314,2.79,2022-10-28 16:43:30.781250
315,24.17,2022-10-28 16:43:30.796875
316,59.83,2022-10-28 16:43:30.812500
317,107.8,2022-10-28 16:43:30.828125
318,164.22,2022-10-28 16:43:30.843750
319,224.36,2022-10-28 16:43:30.859375
320,283.59,2022-10-28 16:43:30.875000
321,337.83,2022-10-28 16:43:30.890625
322,383.52,2022-10-28 16:43:30.906250
323,417.54,2022-10-28 16:43:30.921875
324,437.4,2022-10-28 16:43:30.937500
325,441.76,2022-10-28 16:43:30.953125
326,431.15,2022-10-28 16:43:30.968750
327,408.11,2022-10-28 16:43:30.984375
328,376.72,2022-10-28 16:43:31.000000
329,341.46,2022-10-28 16:43:31.015625
330,305.92,2022-10-28 16:43:31.031250
331,272.13,2022-10-28 16:43:31.046875
332,240.37,2022-10-28 16:43:31.062500
333,209.97,2022-10-28 16:43:31.078125
334,180.09,2022-10-28 16:43:31.093750
335,150.39,2022-10-28 16:43:31.109375
336,121.16,2022-10-28 16:43:31.125000
337,92.9,2022-10-28 16:43:31.140625
338,65.85,2022-10-28 16:43:31.156250
339,39.65,2022-10-28 16:43:31.171875
340,13.42,2022-10-28 16:43:31.187500
341,-13.89,2022-10-28 16:43:31.203125
342,-43.01,2022-10-28 16:43:31.218750
343,-74.11,2022-10-28 16:43:31.234375
344,-106.76,2022-10-28 16:43:31.250000
345,-140.25,2022-10-28 16:43:31.265625
346,-173.91,2022-10-28 16:43:31.281250
347,-207.52,2022-10-28 16:43:31.296875
348,-241.4,2022-10-28 16:43:31.312500
349,-276.45,2022-10-28 16:43:31.328125
350,-313.96,2022-10-28 16:43:31.343750
351,-355.07,2022-10-28 16:43:31.359375
352,-400.08,2022-10-28 16:43:31.375000
353,-447.83,2022-10-28 16:43:31.390625
354,-495.6,2022-10-28 16:43:31.406250
355,-539.51,2022-10-28 16:43:31.421875
356,-575.5,2022-10-28 16:43:31.437500
357,-600.37,2022-10-28 16:43:31.453125
358,-612.39,2022-10-28 16:43:31.468750
359,-611.41,2022-10-28 16:43:31.484375
360,-598.35,2022-10-28 16:43:31.500000
361,-574.53,2022-10-28 16:43:31.515625
362,-541.17,2022-10-28 16:43:31.531250
363,-499.3,2022-10-28 16:43:31.546875
364,-449.92,2022-10-28 16:43:31.562500
365,-394.15,2022-10-28 16:43:31.578125
366,-333.42,2022-10-28 16:43:31.593750
367,-269.56,2022-10-28 16:43:31.609375
368,-205.0,2022-10-28 16:43:31.625000
369,-142.79,2022-10-28 16:43:31.640625
370,-86.49,2022-10-28 16:43:31.656250
371,-39.59,2022-10-28 16:43:31.671875
372,-4.71,2022-10-28 16:43:31.687500
373,17.18,2022-10-28 16:43:31.703125
374,27.1,2022-10-28 16:43:31.718750
375,27.65,2022-10-28 16:43:31.734375
376,22.18,2022-10-28 16:43:31.750000
377,13.99,2022-10-28 16:43:31.765625
378,5.71,2022-10-28 16:43:31.781250
379,-0.79,2022-10-28 16:43:31.796875
380,-4.28,2022-10-28 16:43:31.812500
381,-3.92,2022-10-28 16:43:31.828125
382,0.61,2022-10-28 16:43:31.843750
383,8.99,2022-10-28 16:43:31.859375
384,20.19,2022-10-28 16:43:31.875000
385,32.63,2022-10-28 16:43:31.890625
386,44.53,2022-10-28 16:43:31.906250
387,54.36,2022-10-28 16:43:31.921875
388,61.08,2022-10-28 16:43:31.937500
389,64.2,2022-10-28 16:43:31.953125
390,63.71,2022-10-28 16:43:31.968750
391,59.88,2022-10-28 16:43:31.984375
392,53.23,2022-10-28 16:43:32.000000
393,44.4,2022-10-28 16:43:32.015625
394,34.11,2022-10-28 16:43:32.031250
395,23.03,2022-10-28 16:43:32.046875
396,11.63,2022-10-28 16:43:32.062500
397,0.05,2022-10-28 16:43:32.078125
398,-11.95,2022-10-28 16:43:32.093750
399,-24.95,2022-10-28 16:43:32.109375
400,-39.82,2022-10-28 16:43:32.125000
401,-57.28,2022-10-28 16:43:32.140625
402,-77.47,2022-10-28 16:43:32.156250
403,-99.25,2022-10-28 16:43:32.171875
404,-119.99,2022-10-28 16:43:32.187500
405,-135.81,2022-10-28 16:43:32.203125
406,-142.51,2022-10-28 16:43:32.218750
407,-136.79,2022-10-28 16:43:32.234375
408,-117.27,2022-10-28 16:43:32.250000
409,-84.91,2022-10-28 16:43:32.265625
410,-42.68,2022-10-28 16:43:32.281250
411,5.13,2022-10-28 16:43:32.296875
412,53.86,2022-10-28 16:43:32.312500
413,99.17,2022-10-28 16:43:32.328125
414,137.51,2022-10-28 16:43:32.343750
415,166.37,2022-10-28 16:43:32.359375
416,184.55,2022-10-28 16:43:32.375000
417,192.21,2022-10-28 16:43:32.390625
418,190.72,2022-10-28 16:43:32.406250
419,182.22,2022-10-28 16:43:32.421875
420,169.15,2022-10-28 16:43:32.437500
421,153.7,2022-10-28 16:43:32.453125
422,137.61,2022-10-28 16:43:32.468750
423,122.19,2022-10-28 16:43:32.484375
424,108.4,2022-10-28 16:43:32.500000
425,96.97,2022-10-28 16:43:32.515625
426,88.35,2022-10-28 16:43:32.531250
427,82.65,2022-10-28 16:43:32.546875
428,79.67,2022-10-28 16:43:32.562500
429,78.89,2022-10-28 16:43:32.578125
430,79.56,2022-10-28 16:43:32.593750
431,80.73,2022-10-28 16:43:32.609375
432,81.32,2022-10-28 16:43:32.625000
433,80.3,2022-10-28 16:43:32.640625
434,76.89,2022-10-28 16:43:32.656250
435,70.83,2022-10-28 16:43:32.671875
436,62.4,2022-10-28 16:43:32.687500
437,52.33,2022-10-28 16:43:32.703125
438,41.5,2022-10-28 16:43:32.718750
439,30.57,2022-10-28 16:43:32.734375
440,19.72,2022-10-28 16:43:32.750000
441,8.49,2022-10-28 16:43:32.765625
442,-4.01,2022-10-28 16:43:32.781250
443,-18.9,2022-10-28 16:43:32.796875
444,-37.01,2022-10-28 16:43:32.812500
445,-58.41,2022-10-28 16:43:32.828125
446,-81.82,2022-10-28 16:43:32.843750
447,-104.51,2022-10-28 16:43:32.859375
448,-122.51,2022-10-28 16:43:32.875000
449,-131.52,2022-10-28 16:43:32.890625
450,-128.08,2022-10-28 16:43:32.906250
451,-110.67,2022-10-28 16:43:32.921875
452,-80.34,2022-10-28 16:43:32.937500
453,-40.58,2022-10-28 16:43:32.953125
454,3.57,2022-10-28 16:43:32.968750
455,46.79,2022-10-28 16:43:32.984375
456,84.62,2022-10-28 16:43:33.000000
457,114.18,2022-10-28 16:43:33.015625
458,134.3,2022-10-28 16:43:33.031250
459,145.22,2022-10-28 16:43:33.046875
460,147.98,2022-10-28 16:43:33.062500
461,143.96,2022-10-28 16:43:33.078125
462,134.52,2022-10-28 16:43:33.093750
463,120.98,2022-10-28 16:43:33.109375
464,104.67,2022-10-28 16:43:33.125000
465,87.04,2022-10-28 16:43:33.140625
466,69.66,2022-10-28 16:43:33.156250
467,54.05,2022-10-28 16:43:33.171875
468,41.38,2022-10-28 16:43:33.187500
469,32.34,2022-10-28 16:43:33.203125
470,26.93,2022-10-28 16:43:33.218750
471,24.61,2022-10-28 16:43:33.234375
472,24.47,2022-10-28 16:43:33.250000
473,25.38,2022-10-28 16:43:33.265625
474,26.22,2022-10-28 16:43:33.281250
475,25.95,2022-10-28 16:43:33.296875
476,23.76,2022-10-28 16:43:33.312500
477,19.16,2022-10-28 16:43:33.328125
478,12.14,2022-10-28 16:43:33.343750
479,3.11,2022-10-28 16:43:33.359375
480,-7.25,2022-10-28 16:43:33.375000
481,-18.22,2022-10-28 16:43:33.390625
482,-29.44,2022-10-28 16:43:33.406250
483,-41.05,2022-10-28 16:43:33.421875
484,-53.86,2022-10-28 16:43:33.437500
485,-69.08,2022-10-28 16:43:33.453125
486,-87.69,2022-10-28 16:43:33.468750
487,-109.57,2022-10-28 16:43:33.484375
488,-132.78,2022-10-28 16:43:33.500000
489,-153.37,2022-10-28 16:43:33.515625
490,-166.19,2022-10-28 16:43:33.531250
491,-166.42,2022-10-28 16:43:33.546875
492,-151.23,2022-10-28 16:43:33.562500
493,-121.01,2022-10-28 16:43:33.578125
494,-79.29,2022-10-28 16:43:33.593750
495,-31.7,2022-10-28 16:43:33.609375
496,15.72,2022-10-28 16:43:33.625000
497,58.06,2022-10-28 16:43:33.640625
498,92.27,2022-10-28 16:43:33.656250
499,117.18,2022-10-28 16:43:33.671875
500,132.91,2022-10-28 16:43:33.687500
501,140.29,2022-10-28 16:43:33.703125
502,140.51,2022-10-28 16:43:33.718750
503,134.91,2022-10-28 16:43:33.734375
504,124.95,2022-10-28 16:43:33.750000
505,112.09,2022-10-28 16:43:33.765625
506,97.62,2022-10-28 16:43:33.781250
507,82.63,2022-10-28 16:43:33.796875
508,68.0,2022-10-28 16:43:33.812500
509,54.54,2022-10-28 16:43:33.828125
510,42.96,2022-10-28 16:43:33.843750
511,33.91,2022-10-28 16:43:33.859375
512,27.74,2022-10-28 16:43:33.875000
513,24.42,2022-10-28 16:43:33.890625
514,23.37,2022-10-28 16:43:33.906250
515,23.56,2022-10-28 16:43:33.921875
516,23.67,2022-10-28 16:43:33.937500
517,22.4,2022-10-28 16:43:33.953125
518,18.81,2022-10-28 16:43:33.968750
519,12.5,2022-10-28 16:43:33.984375
520,3.63,2022-10-28 16:43:34.000000
521,-7.21,2022-10-28 16:43:34.015625
522,-19.29,2022-10-28 16:43:34.031250
523,-32.03,2022-10-28 16:43:34.046875
524,-45.16,2022-10-28 16:43:34.062500
525,-58.87,2022-10-28 16:43:34.078125
526,-73.91,2022-10-28 16:43:34.093750
527,-91.27,2022-10-28 16:43:34.109375
528,-111.69,2022-10-28 16:43:34.125000
529,-134.84,2022-10-28 16:43:34.140625
530,-158.59,2022-10-28 16:43:34.156250
531,-178.89,2022-10-28 16:43:34.171875
532,-190.59,2022-10-28 16:43:34.187500
533,-188.96,2022-10-28 16:43:34.203125
534,-171.37,2022-10-28 16:43:34.218750
535,-138.31,2022-10-28 16:43:34.234375
536,-93.28,2022-10-28 16:43:34.250000
537,-41.69,2022-10-28 16:43:34.265625
538,10.75,2022-10-28 16:43:34.281250
539,59.19,2022-10-28 16:43:34.296875
540,100.25,2022-10-28 16:43:34.312500
541,131.98,2022-10-28 16:43:34.328125
542,153.58,2022-10-28 16:43:34.343750
543,165.19,2022-10-28 16:43:34.359375
544,167.88,2022-10-28 16:43:34.375000
545,163.45,2022-10-28 16:43:34.390625
546,154.14,2022-10-28 16:43:34.406250
547,142.07,2022-10-28 16:43:34.421875
548,128.75,2022-10-28 16:43:34.437500
549,114.98,2022-10-28 16:43:34.453125
550,101.07,2022-10-28 16:43:34.468750
551,87.25,2022-10-28 16:43:34.484375
552,74.01,2022-10-28 16:43:34.500000
553,62.21,2022-10-28 16:43:34.515625
554,52.83,2022-10-28 16:43:34.531250
555,46.54,2022-10-28 16:43:34.546875
556,43.41,2022-10-28 16:43:34.562500
557,42.69,2022-10-28 16:43:34.578125
558,42.93,2022-10-28 16:43:34.593750
559,42.35,2022-10-28 16:43:34.609375
560,39.4,2022-10-28 16:43:34.625000
561,33.13,2022-10-28 16:43:34.640625
562,23.46,2022-10-28 16:43:34.656250
563,11.06,2022-10-28 16:43:34.671875
564,-3.01,2022-10-28 16:43:34.687500
565,-17.74,2022-10-28 16:43:34.703125
566,-32.57,2022-10-28 16:43:34.718750
567,-47.51,2022-10-28 16:43:34.734375
568,-63.25,2022-10-28 16:43:34.750000
569,-80.95,2022-10-28 16:43:34.765625
570,-101.77,2022-10-28 16:43:34.781250
571,-126.17,2022-10-28 16:43:34.796875
572,-153.02,2022-10-28 16:43:34.812500
573,-179.09,2022-10-28 16:43:34.828125
574,-199.33,2022-10-28 16:43:34.843750
575,-208.06,2022-10-28 16:43:34.859375
576,-200.78,2022-10-28 16:43:34.875000
577,-175.95,2022-10-28 16:43:34.890625
578,-135.71,2022-10-28 16:43:34.906250
579,-85.32,2022-10-28 16:43:34.921875
580,-31.45,2022-10-28 16:43:34.937500
581,19.79,2022-10-28 16:43:34.953125
582,64.23,2022-10-28 16:43:34.968750
583,99.93,2022-10-28 16:43:34.984375
584,126.62,2022-10-28 16:43:35.000000
585,144.78,2022-10-28 16:43:35.015625
586,155.01,2022-10-28 16:43:35.031250
587,157.91,2022-10-28 16:43:35.046875
588,154.33,2022-10-28 16:43:35.062500
589,145.58,2022-10-28 16:43:35.078125
590,133.47,2022-10-28 16:43:35.093750
591,119.92,2022-10-28 16:43:35.109375
592,106.58,2022-10-28 16:43:35.125000
593,94.53,2022-10-28 16:43:35.140625
594,84.24,2022-10-28 16:43:35.156250
595,75.71,2022-10-28 16:43:35.171875
596,68.8,2022-10-28 16:43:35.187500
597,63.43,2022-10-28 16:43:35.203125
598,59.68,2022-10-28 16:43:35.218750
599,57.64,2022-10-28 16:43:35.234375
600,57.31,2022-10-28 16:43:35.250000
601,58.34,2022-10-28 16:43:35.265625
602,59.97,2022-10-28 16:43:35.281250
603,61.04,2022-10-28 16:43:35.296875
604,60.19,2022-10-28 16:43:35.312500
605,56.21,2022-10-28 16:43:35.328125
606,48.32,2022-10-28 16:43:35.343750
607,36.49,2022-10-28 16:43:35.359375
608,21.49,2022-10-28 16:43:35.375000
609,4.68,2022-10-28 16:43:35.390625
610,-12.39,2022-10-28 16:43:35.406250
611,-28.49,2022-10-28 16:43:35.421875
612,-43.06,2022-10-28 16:43:35.437500
613,-56.33,2022-10-28 16:43:35.453125
614,-69.21,2022-10-28 16:43:35.468750
615,-83.0,2022-10-28 16:43:35.484375
616,-99.04,2022-10-28 16:43:35.500000
617,-118.27,2022-10-28 16:43:35.515625
618,-140.56,2022-10-28 16:43:35.531250
619,-164.21,2022-10-28 16:43:35.546875
620,-185.73,2022-10-28 16:43:35.562500
621,-200.28,2022-10-28 16:43:35.578125
622,-202.93,2022-10-28 16:43:35.593750
623,-190.24,2022-10-28 16:43:35.609375
624,-161.63,2022-10-28 16:43:35.625000
625,-119.76,2022-10-28 16:43:35.640625
626,-69.79,2022-10-28 16:43:35.656250
627,-17.83,2022-10-28 16:43:35.671875
628,30.67,2022-10-28 16:43:35.687500
629,71.95,2022-10-28 16:43:35.703125
630,104.16,2022-10-28 16:43:35.718750
631,126.86,2022-10-28 16:43:35.734375
632,140.44,2022-10-28 16:43:35.750000
633,145.7,2022-10-28 16:43:35.765625
634,143.69,2022-10-28 16:43:35.781250
635,135.79,2022-10-28 16:43:35.796875
636,123.65,2022-10-28 16:43:35.812500
637,109.07,2022-10-28 16:43:35.828125
638,93.86,2022-10-28 16:43:35.843750
639,79.57,2022-10-28 16:43:35.859375
640,67.39,2022-10-28 16:43:35.875000
641,58.06,2022-10-28 16:43:35.890625
642,51.74,2022-10-28 16:43:35.906250
643,48.13,2022-10-28 16:43:35.921875
644,46.58,2022-10-28 16:43:35.937500
645,46.37,2022-10-28 16:43:35.953125
646,46.91,2022-10-28 16:43:35.968750
647,47.76,2022-10-28 16:43:35.984375
648,48.65,2022-10-28 16:43:36.000000
649,49.26,2022-10-28 16:43:36.015625
650,49.15,2022-10-28 16:43:36.031250
651,47.66,2022-10-28 16:43:36.046875
652,44.06,2022-10-28 16:43:36.062500
653,37.69,2022-10-28 16:43:36.078125
654,28.19,2022-10-28 16:43:36.093750
655,15.73,2022-10-28 16:43:36.109375
656,0.97,2022-10-28 16:43:36.125000
657,-15.03,2022-10-28 16:43:36.140625
658,-31.12,2022-10-28 16:43:36.156250
659,-46.34,2022-10-28 16:43:36.171875
660,-60.24,2022-10-28 16:43:36.187500
661,-72.94,2022-10-28 16:43:36.203125
662,-85.07,2022-10-28 16:43:36.218750
663,-97.65,2022-10-28 16:43:36.234375
664,-111.81,2022-10-28 16:43:36.250000
665,-128.56,2022-10-28 16:43:36.265625
666,-148.21,2022-10-28 16:43:36.281250
667,-169.86,2022-10-28 16:43:36.296875
668,-190.79,2022-10-28 16:43:36.312500
669,-206.66,2022-10-28 16:43:36.328125
670,-212.39,2022-10-28 16:43:36.343750
671,-203.73,2022-10-28 16:43:36.359375
672,-178.94,2022-10-28 16:43:36.375000
673,-139.59,2022-10-28 16:43:36.390625
674,-90.3,2022-10-28 16:43:36.406250
675,-37.3,2022-10-28 16:43:36.421875
676,13.38,2022-10-28 16:43:36.437500
677,57.34,2022-10-28 16:43:36.453125
678,92.34,2022-10-28 16:43:36.468750
679,117.87,2022-10-28 16:43:36.484375
680,134.4,2022-10-28 16:43:36.500000
681,142.66,2022-10-28 16:43:36.515625
682,143.48,2022-10-28 16:43:36.531250
683,137.92,2022-10-28 16:43:36.546875
684,127.38,2022-10-28 16:43:36.562500
685,113.72,2022-10-28 16:43:36.578125
686,98.97,2022-10-28 16:43:36.593750
687,84.93,2022-10-28 16:43:36.609375
688,72.84,2022-10-28 16:43:36.625000
689,63.26,2022-10-28 16:43:36.640625
690,56.11,2022-10-28 16:43:36.656250
691,51.01,2022-10-28 16:43:36.671875
692,47.56,2022-10-28 16:43:36.687500
693,45.58,2022-10-28 16:43:36.703125
694,45.12,2022-10-28 16:43:36.718750
695,46.28,2022-10-28 16:43:36.734375
696,48.84,2022-10-28 16:43:36.750000
697,52.05,2022-10-28 16:43:36.765625
698,54.63,2022-10-28 16:43:36.781250
699,54.98,2022-10-28 16:43:36.796875
700,51.74,2022-10-28 16:43:36.812500
701,44.23,2022-10-28 16:43:36.828125
702,32.8,2022-10-28 16:43:36.843750
703,18.71,2022-10-28 16:43:36.859375
704,3.67,2022-10-28 16:43:36.875000
705,-10.69,2022-10-28 16:43:36.890625
706,-23.43,2022-10-28 16:43:36.906250
707,-34.55,2022-10-28 16:43:36.921875
708,-44.9,2022-10-28 16:43:36.937500
709,-55.85,2022-10-28 16:43:36.953125
710,-68.87,2022-10-28 16:43:36.968750
711,-85.04,2022-10-28 16:43:36.984375
712,-104.55,2022-10-28 16:43:37.000000
713,-126.32,2022-10-28 16:43:37.015625
714,-147.68,2022-10-28 16:43:37.031250
715,-164.63,2022-10-28 16:43:37.046875
716,-172.67,2022-10-28 16:43:37.062500
717,-168.08,2022-10-28 16:43:37.078125
718,-149.21,2022-10-28 16:43:37.093750
719,-117.25,2022-10-28 16:43:37.109375
720,-75.99,2022-10-28 16:43:37.125000
721,-30.67,2022-10-28 16:43:37.140625
722,13.5,2022-10-28 16:43:37.156250
723,52.54,2022-10-28 16:43:37.171875
724,84.26,2022-10-28 16:43:37.187500
725,107.96,2022-10-28 16:43:37.203125
726,123.76,2022-10-28 16:43:37.218750
727,132.09,2022-10-28 16:43:37.234375
728,133.36,2022-10-28 16:43:37.250000
729,128.21,2022-10-28 16:43:37.265625
730,117.72,2022-10-28 16:43:37.281250
731,103.61,2022-10-28 16:43:37.296875
732,88.04,2022-10-28 16:43:37.312500
733,73.17,2022-10-28 16:43:37.328125
734,60.71,2022-10-28 16:43:37.343750
735,51.5,2022-10-28 16:43:37.359375
736,45.48,2022-10-28 16:43:37.375000
737,41.98,2022-10-28 16:43:37.390625
738,40.16,2022-10-28 16:43:37.406250
739,39.49,2022-10-28 16:43:37.421875
740,39.87,2022-10-28 16:43:37.437500
741,41.5,2022-10-28 16:43:37.453125
742,44.31,2022-10-28 16:43:37.468750
743,47.6,2022-10-28 16:43:37.484375
744,49.94,2022-10-28 16:43:37.500000
745,49.59,2022-10-28 16:43:37.515625
746,45.13,2022-10-28 16:43:37.531250
747,36.16,2022-10-28 16:43:37.546875
748,23.49,2022-10-28 16:43:37.562500
749,8.84,2022-10-28 16:43:37.578125
750,-5.82,2022-10-28 16:43:37.593750
751,-19.07,2022-10-28 16:43:37.609375
752,-30.5,2022-10-28 16:43:37.625000
753,-40.71,2022-10-28 16:43:37.640625
754,-51.1,2022-10-28 16:43:37.656250
755,-63.27,2022-10-28 16:43:37.671875
756,-78.57,2022-10-28 16:43:37.687500
757,-97.52,2022-10-28 16:43:37.703125
758,-119.37,2022-10-28 16:43:37.718750
759,-141.69,2022-10-28 16:43:37.734375
760,-160.49,2022-10-28 16:43:37.750000
761,-171.04,2022-10-28 16:43:37.765625
762,-169.16,2022-10-28 16:43:37.781250
763,-152.75,2022-10-28 16:43:37.796875
764,-122.69,2022-10-28 16:43:37.812500
765,-82.69,2022-10-28 16:43:37.828125
766,-38.15,2022-10-28 16:43:37.843750
767,5.48,2022-10-28 16:43:37.859375
768,44.12,2022-10-28 16:43:37.875000
769,75.52,2022-10-28 16:43:37.890625
770,98.99,2022-10-28 16:43:37.906250
771,114.6,2022-10-28 16:43:37.921875
772,122.6,2022-10-28 16:43:37.937500
773,123.33,2022-10-28 16:43:37.953125
774,117.47,2022-10-28 16:43:37.968750
775,106.41,2022-10-28 16:43:37.984375
776,92.17,2022-10-28 16:43:38.000000
777,76.99,2022-10-28 16:43:38.015625
778,62.74,2022-10-28 16:43:38.031250
779,50.46,2022-10-28 16:43:38.046875
780,40.36,2022-10-28 16:43:38.062500
781,32.16,2022-10-28 16:43:38.078125
782,25.5,2022-10-28 16:43:38.093750
783,20.38,2022-10-28 16:43:38.109375
784,17.09,2022-10-28 16:43:38.125000
785,16.04,2022-10-28 16:43:38.140625
786,17.28,2022-10-28 16:43:38.156250
787,20.25,2022-10-28 16:43:38.171875
788,23.77,2022-10-28 16:43:38.187500
789,26.26,2022-10-28 16:43:38.203125
790,26.17,2022-10-28 16:43:38.218750
791,22.44,2022-10-28 16:43:38.234375
792,14.86,2022-10-28 16:43:38.250000
793,3.97,2022-10-28 16:43:38.265625
794,-8.99,2022-10-28 16:43:38.281250
795,-22.63,2022-10-28 16:43:38.296875
796,-35.8,2022-10-28 16:43:38.312500
797,-47.95,2022-10-28 16:43:38.328125
798,-59.31,2022-10-28 16:43:38.343750
799,-70.79,2022-10-28 16:43:38.359375
800,-83.8,2022-10-28 16:43:38.375000
801,-99.65,2022-10-28 16:43:38.390625
802,-118.91,2022-10-28 16:43:38.406250
803,-140.63,2022-10-28 16:43:38.421875
804,-162.0,2022-10-28 16:43:38.437500
805,-178.61,2022-10-28 16:43:38.453125
806,-185.52,2022-10-28 16:43:38.468750
807,-178.89,2022-10-28 16:43:38.484375
808,-157.3,2022-10-28 16:43:38.500000
809,-122.55,2022-10-28 16:43:38.515625
810,-79.09,2022-10-28 16:43:38.531250
811,-32.66,2022-10-28 16:43:38.546875
812,11.38,2022-10-28 16:43:38.562500
813,49.28,2022-10-28 16:43:38.578125
814,79.25,2022-10-28 16:43:38.593750
815,100.99,2022-10-28 16:43:38.609375
816,114.88,2022-10-28 16:43:38.625000
817,121.43,2022-10-28 16:43:38.640625
818,121.15,2022-10-28 16:43:38.656250
819,114.76,2022-10-28 16:43:38.671875
820,103.55,2022-10-28 16:43:38.687500
821,89.42,2022-10-28 16:43:38.703125
822,74.53,2022-10-28 16:43:38.718750
823,60.83,2022-10-28 16:43:38.734375
824,49.58,2022-10-28 16:43:38.750000
825,41.09,2022-10-28 16:43:38.765625
826,34.98,2022-10-28 16:43:38.781250
827,30.51,2022-10-28 16:43:38.796875
828,27.2,2022-10-28 16:43:38.812500
829,24.97,2022-10-28 16:43:38.828125
830,24.15,2022-10-28 16:43:38.843750
831,25.1,2022-10-28 16:43:38.859375
832,27.7,2022-10-28 16:43:38.875000
833,31.19,2022-10-28 16:43:38.890625
834,34.12,2022-10-28 16:43:38.906250
835,34.84,2022-10-28 16:43:38.921875
836,32.09,2022-10-28 16:43:38.937500
837,25.4,2022-10-28 16:43:38.953125
838,15.3,2022-10-28 16:43:38.968750
839,3.02,2022-10-28 16:43:38.984375
840,-9.92,2022-10-28 16:43:39.000000
841,-22.26,2022-10-28 16:43:39.015625
842,-33.36,2022-10-28 16:43:39.031250
843,-43.33,2022-10-28 16:43:39.046875
844,-52.89,2022-10-28 16:43:39.062500
845,-63.19,2022-10-28 16:43:39.078125
846,-75.57,2022-10-28 16:43:39.093750
847,-91.15,2022-10-28 16:43:39.109375
848,-110.32,2022-10-28 16:43:39.125000
849,-132.04,2022-10-28 16:43:39.140625
850,-153.48,2022-10-28 16:43:39.156250
851,-170.23,2022-10-28 16:43:39.171875
852,-177.31,2022-10-28 16:43:39.187500
853,-170.75,2022-10-28 16:43:39.203125
854,-149.06,2022-10-28 16:43:39.218750
855,-113.93,2022-10-28 16:43:39.234375
856,-69.85,2022-10-28 16:43:39.250000
857,-22.66,2022-10-28 16:43:39.265625
858,22.12,2022-10-28 16:43:39.281250
859,60.62,2022-10-28 16:43:39.296875
860,90.96,2022-10-28 16:43:39.312500
861,112.86,2022-10-28 16:43:39.328125
862,126.86,2022-10-28 16:43:39.343750
863,133.63,2022-10-28 16:43:39.359375
864,133.81,2022-10-28 16:43:39.375000
865,128.1,2022-10-28 16:43:39.390625
866,117.54,2022-10-28 16:43:39.406250
867,103.6,2022-10-28 16:43:39.421875
868,88.08,2022-10-28 16:43:39.437500
869,72.78,2022-10-28 16:43:39.453125
870,59.16,2022-10-28 16:43:39.468750
871,48.12,2022-10-28 16:43:39.484375
872,40.0,2022-10-28 16:43:39.500000
873,34.66,2022-10-28 16:43:39.515625
874,31.79,2022-10-28 16:43:39.531250
875,31.04,2022-10-28 16:43:39.546875
876,32.14,2022-10-28 16:43:39.562500
877,34.79,2022-10-28 16:43:39.578125
878,38.57,2022-10-28 16:43:39.593750
879,42.77,2022-10-28 16:43:39.609375
880,46.35,2022-10-28 16:43:39.625000
881,48.1,2022-10-28 16:43:39.640625
882,46.86,2022-10-28 16:43:39.656250
883,41.93,2022-10-28 16:43:39.671875
884,33.28,2022-10-28 16:43:39.687500
885,21.62,2022-10-28 16:43:39.703125
886,8.16,2022-10-28 16:43:39.718750
887,-5.8,2022-10-28 16:43:39.734375
888,-19.31,2022-10-28 16:43:39.750000
889,-32.0,2022-10-28 16:43:39.765625
890,-44.19,2022-10-28 16:43:39.781250
891,-56.6,2022-10-28 16:43:39.796875
892,-70.11,2022-10-28 16:43:39.812500
893,-85.43,2022-10-28 16:43:39.828125
894,-102.74,2022-10-28 16:43:39.843750
895,-121.36,2022-10-28 16:43:39.859375
896,-139.43,2022-10-28 16:43:39.875000
897,-154.04,2022-10-28 16:43:39.890625
898,-161.71,2022-10-28 16:43:39.906250
899,-159.4,2022-10-28 16:43:39.921875
900,-145.53,2022-10-28 16:43:39.937500
901,-120.66,2022-10-28 16:43:39.953125
902,-87.46,2022-10-28 16:43:39.968750
903,-49.92,2022-10-28 16:43:39.984375
904,-12.28,2022-10-28 16:43:40.000000
905,21.96,2022-10-28 16:43:40.015625
906,50.44,2022-10-28 16:43:40.031250
907,71.92,2022-10-28 16:43:40.046875
908,85.98,2022-10-28 16:43:40.062500
909,92.74,2022-10-28 16:43:40.078125
910,92.75,2022-10-28 16:43:40.093750
911,87.05,2022-10-28 16:43:40.109375
912,77.12,2022-10-28 16:43:40.125000
913,64.68,2022-10-28 16:43:40.140625
914,51.45,2022-10-28 16:43:40.156250
915,38.78,2022-10-28 16:43:40.171875
916,27.64,2022-10-28 16:43:40.187500
917,18.54,2022-10-28 16:43:40.203125
918,11.68,2022-10-28 16:43:40.218750
919,7.06,2022-10-28 16:43:40.234375
920,4.65,2022-10-28 16:43:40.250000
921,4.41,2022-10-28 16:43:40.265625
922,6.19,2022-10-28 16:43:40.281250
923,9.65,2022-10-28 16:43:40.296875
924,13.99,2022-10-28 16:43:40.312500
925,18.05,2022-10-28 16:43:40.328125
926,20.43,2022-10-28 16:43:40.343750
927,19.93,2022-10-28 16:43:40.359375
928,15.97,2022-10-28 16:43:40.375000
929,8.85,2022-10-28 16:43:40.390625
930,-0.36,2022-10-28 16:43:40.406250
931,-10.32,2022-10-28 16:43:40.421875
932,-19.88,2022-10-28 16:43:40.437500
933,-28.61,2022-10-28 16:43:40.453125
934,-36.91,2022-10-28 16:43:40.468750
935,-45.81,2022-10-28 16:43:40.484375
936,-56.68,2022-10-28 16:43:40.500000
937,-70.64,2022-10-28 16:43:40.515625
938,-88.0,2022-10-28 16:43:40.531250
939,-107.65,2022-10-28 16:43:40.546875
940,-126.91,2022-10-28 16:43:40.562500
941,-141.78,2022-10-28 16:43:40.578125
942,-147.99,2022-10-28 16:43:40.593750
943,-142.25,2022-10-28 16:43:40.609375
944,-123.51,2022-10-28 16:43:40.625000
945,-93.36,2022-10-28 16:43:40.640625
946,-55.68,2022-10-28 16:43:40.656250
947,-15.31,2022-10-28 16:43:40.671875
948,23.23,2022-10-28 16:43:40.687500
949,56.72,2022-10-28 16:43:40.703125
950,83.43,2022-10-28 16:43:40.718750
951,102.76,2022-10-28 16:43:40.734375
952,114.71,2022-10-28 16:43:40.750000
953,119.55,2022-10-28 16:43:40.765625
954,117.87,2022-10-28 16:43:40.781250
955,110.7,2022-10-28 16:43:40.796875
956,99.52,2022-10-28 16:43:40.812500
957,86.11,2022-10-28 16:43:40.828125
958,72.18,2022-10-28 16:43:40.843750
959,59.09,2022-10-28 16:43:40.859375
960,47.68,2022-10-28 16:43:40.875000
961,38.34,2022-10-28 16:43:40.890625
962,31.17,2022-10-28 16:43:40.906250
963,26.18,2022-10-28 16:43:40.921875
964,23.36,2022-10-28 16:43:40.937500
965,22.66,2022-10-28 16:43:40.953125
966,23.88,2022-10-28 16:43:40.968750
967,26.54,2022-10-28 16:43:40.984375
968,29.78,2022-10-28 16:43:41.000000
969,32.4,2022-10-28 16:43:41.015625
970,33.1,2022-10-28 16:43:41.031250
971,30.75,2022-10-28 16:43:41.046875
972,24.81,2022-10-28 16:43:41.062500
973,15.49,2022-10-28 16:43:41.078125
974,3.72,2022-10-28 16:43:41.093750
975,-9.14,2022-10-28 16:43:41.109375
976,-21.86,2022-10-28 16:43:41.125000
977,-33.7,2022-10-28 16:43:41.140625
978,-44.74,2022-10-28 16:43:41.156250
979,-55.83,2022-10-28 16:43:41.171875
980,-68.34,2022-10-28 16:43:41.187500
981,-83.53,2022-10-28 16:43:41.203125
982,-101.81,2022-10-28 16:43:41.218750
983,-122.1,2022-10-28 16:43:41.234375
984,-141.51,2022-10-28 16:43:41.250000
985,-155.84,2022-10-28 16:43:41.265625
986,-160.63,2022-10-28 16:43:41.281250
987,-152.65,2022-10-28 16:43:41.296875
988,-131.09,2022-10-28 16:43:41.312500
989,-97.97,2022-10-28 16:43:41.328125
990,-57.57,2022-10-28 16:43:41.343750
991,-15.09,2022-10-28 16:43:41.359375
992,24.79,2022-10-28 16:43:41.375000
993,58.91,2022-10-28 16:43:41.390625
994,85.7,2022-10-28 16:43:41.406250
995,104.87,2022-10-28 16:43:41.421875
996,116.72,2022-10-28 16:43:41.437500
997,121.72,2022-10-28 16:43:41.453125
998,120.46,2022-10-28 16:43:41.468750
999,113.88,2022-10-28 16:43:41.484375
1000,103.38,2022-10-28 16:43:41.500000
1001,90.76,2022-10-28 16:43:41.515625
1002,77.91,2022-10-28 16:43:41.531250
1003,66.36,2022-10-28 16:43:41.546875
1004,57.0,2022-10-28 16:43:41.562500
1005,50.0,2022-10-28 16:43:41.578125
1006,45.0,2022-10-28 16:43:41.593750
1007,41.44,2022-10-28 16:43:41.609375
1008,38.94,2022-10-28 16:43:41.625000
1009,37.4,2022-10-28 16:43:41.640625
1010,36.93,2022-10-28 16:43:41.656250
1011,37.6,2022-10-28 16:43:41.671875
1012,39.23,2022-10-28 16:43:41.687500
1013,41.15,2022-10-28 16:43:41.703125
1014,42.29,2022-10-28 16:43:41.718750
1015,41.42,2022-10-28 16:43:41.734375
1016,37.56,2022-10-28 16:43:41.750000
1017,30.26,2022-10-28 16:43:41.765625
1018,19.82,2022-10-28 16:43:41.781250
1019,7.23,2022-10-28 16:43:41.796875
1020,-6.18,2022-10-28 16:43:41.812500
1021,-19.14,2022-10-28 16:43:41.828125
1022,-30.9,2022-10-28 16:43:41.843750
1023,-41.41,2022-10-28 16:43:41.859375
1024,-51.34,2022-10-28 16:43:41.875000
1025,-61.81,2022-10-28 16:43:41.890625
1026,-74.06,2022-10-28 16:43:41.906250
1027,-89.01,2022-10-28 16:43:41.921875
1028,-106.72,2022-10-28 16:43:41.937500
1029,-125.93,2022-10-28 16:43:41.953125
1030,-143.84,2022-10-28 16:43:41.968750
1031,-156.5,2022-10-28 16:43:41.984375
1032,-159.78,2022-10-28 16:43:42.000000
1033,-150.68,2022-10-28 16:43:42.015625
1034,-128.52,2022-10-28 16:43:42.031250
1035,-95.37,2022-10-28 16:43:42.046875
1036,-55.5,2022-10-28 16:43:42.062500
1037,-14.04,2022-10-28 16:43:42.078125
1038,24.43,2022-10-28 16:43:42.093750
1039,56.91,2022-10-28 16:43:42.109375
1040,82.11,2022-10-28 16:43:42.125000
1041,99.98,2022-10-28 16:43:42.140625
1042,111.04,2022-10-28 16:43:42.156250
1043,115.88,2022-10-28 16:43:42.171875
1044,115.11,2022-10-28 16:43:42.187500
1045,109.49,2022-10-28 16:43:42.203125
1046,100.16,2022-10-28 16:43:42.218750
1047,88.55,2022-10-28 16:43:42.234375
1048,76.23,2022-10-28 16:43:42.250000
1049,64.65,2022-10-28 16:43:42.265625
1050,54.85,2022-10-28 16:43:42.281250
1051,47.4,2022-10-28 16:43:42.296875
1052,42.33,2022-10-28 16:43:42.312500
1053,39.3,2022-10-28 16:43:42.328125
1054,37.74,2022-10-28 16:43:42.343750
1055,37.02,2022-10-28 16:43:42.359375
1056,36.62,2022-10-28 16:43:42.375000
1057,36.16,2022-10-28 16:43:42.390625
1058,35.33,2022-10-28 16:43:42.406250
1059,33.86,2022-10-28 16:43:42.421875
1060,31.48,2022-10-28 16:43:42.437500
1061,27.84,2022-10-28 16:43:42.453125
1062,22.66,2022-10-28 16:43:42.468750
1063,15.74,2022-10-28 16:43:42.484375
1064,7.06,2022-10-28 16:43:42.500000
1065,-3.24,2022-10-28 16:43:42.515625
1066,-14.81,2022-10-28 16:43:42.531250
1067,-27.14,2022-10-28 16:43:42.546875
1068,-39.62,2022-10-28 16:43:42.562500
1069,-51.65,2022-10-28 16:43:42.578125
1070,-62.77,2022-10-28 16:43:42.593750
1071,-72.81,2022-10-28 16:43:42.609375
1072,-81.87,2022-10-28 16:43:42.625000
1073,-90.35,2022-10-28 16:43:42.640625
1074,-98.89,2022-10-28 16:43:42.656250
1075,-108.24,2022-10-28 16:43:42.671875
1076,-118.96,2022-10-28 16:43:42.687500
1077,-131.02,2022-10-28 16:43:42.703125
1078,-143.28,2022-10-28 16:43:42.718750
1079,-153.33,2022-10-28 16:43:42.734375
1080,-157.86,2022-10-28 16:43:42.750000
1081,-153.54,2022-10-28 16:43:42.765625
1082,-138.28,2022-10-28 16:43:42.781250
1083,-112.17,2022-10-28 16:43:42.796875
1084,-77.72,2022-10-28 16:43:42.812500
1085,-39.17,2022-10-28 16:43:42.828125
1086,-1.2,2022-10-28 16:43:42.843750
1087,32.33,2022-10-28 16:43:42.859375
1088,59.15,2022-10-28 16:43:42.875000
1089,78.61,2022-10-28 16:43:42.890625
1090,91.07,2022-10-28 16:43:42.906250
1091,97.34,2022-10-28 16:43:42.921875
1092,98.25,2022-10-28 16:43:42.937500
1093,94.56,2022-10-28 16:43:42.953125
1094,87.19,2022-10-28 16:43:42.968750
1095,77.29,2022-10-28 16:43:42.984375
1096,66.25,2022-10-28 16:43:43.000000
1097,55.55,2022-10-28 16:43:43.015625
1098,46.49,2022-10-28 16:43:43.031250
1099,39.95,2022-10-28 16:43:43.046875
1100,36.19,2022-10-28 16:43:43.062500
1101,34.99,2022-10-28 16:43:43.078125
1102,35.69,2022-10-28 16:43:43.093750
1103,37.55,2022-10-28 16:43:43.109375
1104,39.88,2022-10-28 16:43:43.125000
1105,42.21,2022-10-28 16:43:43.140625
1106,44.29,2022-10-28 16:43:43.156250
1107,45.93,2022-10-28 16:43:43.171875
1108,46.86,2022-10-28 16:43:43.187500
1109,46.67,2022-10-28 16:43:43.203125
1110,44.77,2022-10-28 16:43:43.218750
1111,40.54,2022-10-28 16:43:43.234375
1112,33.61,2022-10-28 16:43:43.250000
1113,24.01,2022-10-28 16:43:43.265625
1114,12.38,2022-10-28 16:43:43.281250
1115,-0.26,2022-10-28 16:43:43.296875
1116,-12.78,2022-10-28 16:43:43.312500
1117,-24.3,2022-10-28 16:43:43.328125
1118,-34.53,2022-10-28 16:43:43.343750
1119,-43.73,2022-10-28 16:43:43.359375
1120,-52.68,2022-10-28 16:43:43.375000
1121,-62.37,2022-10-28 16:43:43.390625
1122,-73.74,2022-10-28 16:43:43.406250
1123,-87.4,2022-10-28 16:43:43.421875
1124,-103.28,2022-10-28 16:43:43.437500
1125,-120.29,2022-10-28 16:43:43.453125
1126,-136.15,2022-10-28 16:43:43.468750
1127,-147.58,2022-10-28 16:43:43.484375
1128,-151.06,2022-10-28 16:43:43.500000
1129,-143.89,2022-10-28 16:43:43.515625
1130,-125.18,2022-10-28 16:43:43.531250
1131,-96.33,2022-10-28 16:43:43.546875
1132,-60.68,2022-10-28 16:43:43.562500
1133,-22.49,2022-10-28 16:43:43.578125
1134,14.18,2022-10-28 16:43:43.593750
1135,46.36,2022-10-28 16:43:43.609375
1136,72.38,2022-10-28 16:43:43.625000
1137,91.63,2022-10-28 16:43:43.640625
1138,104.07,2022-10-28 16:43:43.656250
1139,109.85,2022-10-28 16:43:43.671875
1140,109.35,2022-10-28 16:43:43.687500
1141,103.26,2022-10-28 16:43:43.703125
1142,92.81,2022-10-28 16:43:43.718750
1143,79.73,2022-10-28 16:43:43.734375
1144,65.95,2022-10-28 16:43:43.750000
1145,53.2,2022-10-28 16:43:43.765625
1146,42.66,2022-10-28 16:43:43.781250
1147,34.8,2022-10-28 16:43:43.796875
1148,29.42,2022-10-28 16:43:43.812500
1149,26.08,2022-10-28 16:43:43.828125
1150,24.33,2022-10-28 16:43:43.843750
1151,23.99,2022-10-28 16:43:43.859375
1152,25.05,2022-10-28 16:43:43.875000
1153,27.48,2022-10-28 16:43:43.890625
1154,30.9,2022-10-28 16:43:43.906250
1155,34.44,2022-10-28 16:43:43.921875
1156,36.86,2022-10-28 16:43:43.937500
1157,36.89,2022-10-28 16:43:43.953125
1158,33.63,2022-10-28 16:43:43.968750
1159,26.84,2022-10-28 16:43:43.984375
1160,17.05,2022-10-28 16:43:44.000000
1161,5.33,2022-10-28 16:43:44.015625
1162,-7.05,2022-10-28 16:43:44.031250
1163,-19.01,2022-10-28 16:43:44.046875
1164,-30.04,2022-10-28 16:43:44.062500
1165,-40.18,2022-10-28 16:43:44.078125
1166,-50.14,2022-10-28 16:43:44.093750
1167,-60.97,2022-10-28 16:43:44.109375
1168,-73.87,2022-10-28 16:43:44.125000
1169,-89.67,2022-10-28 16:43:44.140625
1170,-108.29,2022-10-28 16:43:44.156250
1171,-128.22,2022-10-28 16:43:44.171875
1172,-146.48,2022-10-28 16:43:44.187500
1173,-159.03,2022-10-28 16:43:44.203125
1174,-161.89,2022-10-28 16:43:44.218750
1175,-152.44,2022-10-28 16:43:44.234375
1176,-130.39,2022-10-28 16:43:44.250000
1177,-97.97,2022-10-28 16:43:44.265625
1178,-59.27,2022-10-28 16:43:44.281250
1179,-19.03,2022-10-28 16:43:44.296875
1180,18.59,2022-10-28 16:43:44.312500
1181,50.75,2022-10-28 16:43:44.328125
1182,76.05,2022-10-28 16:43:44.343750
1183,94.14,2022-10-28 16:43:44.359375
1184,105.23,2022-10-28 16:43:44.375000
1185,109.76,2022-10-28 16:43:44.390625
1186,108.34,2022-10-28 16:43:44.406250
1187,101.87,2022-10-28 16:43:44.421875
1188,91.6,2022-10-28 16:43:44.437500
1189,79.13,2022-10-28 16:43:44.453125
1190,66.23,2022-10-28 16:43:44.468750
1191,54.58,2022-10-28 16:43:44.484375
1192,45.4,2022-10-28 16:43:44.500000
1193,39.22,2022-10-28 16:43:44.515625
1194,35.87,2022-10-28 16:43:44.531250
1195,34.59,2022-10-28 16:43:44.546875
1196,34.5,2022-10-28 16:43:44.562500
1197,34.99,2022-10-28 16:43:44.578125
1198,35.94,2022-10-28 16:43:44.593750
1199,37.64,2022-10-28 16:43:44.609375
1200,40.43,2022-10-28 16:43:44.625000
1201,44.23,2022-10-28 16:43:44.640625
1202,48.32,2022-10-28 16:43:44.656250
1203,51.36,2022-10-28 16:43:44.671875
1204,51.87,2022-10-28 16:43:44.687500
1205,48.75,2022-10-28 16:43:44.703125
1206,41.75,2022-10-28 16:43:44.718750
1207,31.55,2022-10-28 16:43:44.734375
1208,19.47,2022-10-28 16:43:44.750000
1209,6.88,2022-10-28 16:43:44.765625
1210,-5.33,2022-10-28 16:43:44.781250
1211,-17.06,2022-10-28 16:43:44.796875
1212,-28.92,2022-10-28 16:43:44.812500
1213,-41.93,2022-10-28 16:43:44.828125
1214,-57.09,2022-10-28 16:43:44.843750
1215,-75.03,2022-10-28 16:43:44.859375
1216,-95.83,2022-10-28 16:43:44.875000
1217,-118.72,2022-10-28 16:43:44.890625
1218,-141.97,2022-10-28 16:43:44.906250
1219,-162.67,2022-10-28 16:43:44.921875
1220,-177.05,2022-10-28 16:43:44.937500
1221,-181.26,2022-10-28 16:43:44.953125
1222,-172.45,2022-10-28 16:43:44.968750
1223,-149.97,2022-10-28 16:43:44.984375
1224,-115.74,2022-10-28 16:43:45.000000
1225,-74.02,2022-10-28 16:43:45.015625
1226,-30.08,2022-10-28 16:43:45.031250
1227,11.18,2022-10-28 16:43:45.046875
1228,46.24,2022-10-28 16:43:45.062500
1229,73.42,2022-10-28 16:43:45.078125
1230,92.4,2022-10-28 16:43:45.093750
1231,103.64,2022-10-28 16:43:45.109375
1232,107.87,2022-10-28 16:43:45.125000
1233,105.93,2022-10-28 16:43:45.140625
1234,98.91,2022-10-28 16:43:45.156250
1235,88.29,2022-10-28 16:43:45.171875
1236,75.9,2022-10-28 16:43:45.187500
1237,63.58,2022-10-28 16:43:45.203125
1238,52.84,2022-10-28 16:43:45.218750
1239,44.53,2022-10-28 16:43:45.234375
1240,38.8,2022-10-28 16:43:45.250000
1241,35.28,2022-10-28 16:43:45.265625
1242,33.4,2022-10-28 16:43:45.281250
1243,32.72,2022-10-28 16:43:45.296875
1244,33.08,2022-10-28 16:43:45.312500
1245,34.52,2022-10-28 16:43:45.328125
1246,37.06,2022-10-28 16:43:45.343750
1247,40.4,2022-10-28 16:43:45.359375
1248,43.75,2022-10-28 16:43:45.375000
1249,45.87,2022-10-28 16:43:45.390625
1250,45.35,2022-10-28 16:43:45.406250
1251,41.08,2022-10-28 16:43:45.421875
1252,32.7,2022-10-28 16:43:45.437500
1253,20.78,2022-10-28 16:43:45.453125
1254,6.71,2022-10-28 16:43:45.468750
1255,-7.78,2022-10-28 16:43:45.484375
1256,-21.27,2022-10-28 16:43:45.500000
1257,-33.09,2022-10-28 16:43:45.515625
1258,-43.54,2022-10-28 16:43:45.531250
1259,-53.69,2022-10-28 16:43:45.546875
1260,-64.93,2022-10-28 16:43:45.562500
1261,-78.51,2022-10-28 16:43:45.578125
1262,-95.05,2022-10-28 16:43:45.593750
1263,-114.12,2022-10-28 16:43:45.609375
1264,-134.03,2022-10-28 16:43:45.625000
1265,-151.82,2022-10-28 16:43:45.640625
1266,-163.72,2022-10-28 16:43:45.656250
1267,-166.0,2022-10-28 16:43:45.671875
1268,-156.08,2022-10-28 16:43:45.687500
1269,-133.46,2022-10-28 16:43:45.703125
1270,-100.06,2022-10-28 16:43:45.718750
1271,-59.8,2022-10-28 16:43:45.734375
1272,-17.52,2022-10-28 16:43:45.750000
1273,22.26,2022-10-28 16:43:45.765625
1274,56.3,2022-10-28 16:43:45.781250
1275,82.96,2022-10-28 16:43:45.796875
1276,101.93,2022-10-28 16:43:45.812500
1277,113.62,2022-10-28 16:43:45.828125
1278,118.7,2022-10-28 16:43:45.843750
1279,117.83,2022-10-28 16:43:45.859375
1280,111.84,2022-10-28 16:43:45.875000
1281,101.85,2022-10-28 16:43:45.890625
1282,89.43,2022-10-28 16:43:45.906250
1283,76.37,2022-10-28 16:43:45.921875
1284,64.32,2022-10-28 16:43:45.937500
1285,54.39,2022-10-28 16:43:45.953125
1286,46.96,2022-10-28 16:43:45.968750
1287,41.8,2022-10-28 16:43:45.984375
1288,38.41,2022-10-28 16:43:46.000000
1289,36.47,2022-10-28 16:43:46.015625
1290,35.91,2022-10-28 16:43:46.031250
1291,36.9,2022-10-28 16:43:46.046875
1292,39.46,2022-10-28 16:43:46.062500
1293,43.16,2022-10-28 16:43:46.078125
1294,47.02,2022-10-28 16:43:46.093750
1295,49.65,2022-10-28 16:43:46.109375
1296,49.69,2022-10-28 16:43:46.125000
1297,46.2,2022-10-28 16:43:46.140625
1298,38.96,2022-10-28 16:43:46.156250
1299,28.58,2022-10-28 16:43:46.171875
1300,16.27,2022-10-28 16:43:46.187500
1301,3.41,2022-10-28 16:43:46.203125
1302,-8.84,2022-10-28 16:43:46.218750
1303,-19.88,2022-10-28 16:43:46.234375
1304,-29.89,2022-10-28 16:43:46.250000
1305,-39.64,2022-10-28 16:43:46.265625
1306,-50.29,2022-10-28 16:43:46.281250
1307,-62.94,2022-10-28 16:43:46.296875
1308,-78.29,2022-10-28 16:43:46.312500
1309,-96.12,2022-10-28 16:43:46.328125
1310,-115.05,2022-10-28 16:43:46.343750
1311,-132.41,2022-10-28 16:43:46.359375
1312,-144.62,2022-10-28 16:43:46.375000
1313,-148.08,2022-10-28 16:43:46.390625
1314,-140.19,2022-10-28 16:43:46.406250
1315,-120.33,2022-10-28 16:43:46.421875
1316,-90.16,2022-10-28 16:43:46.437500
1317,-53.22,2022-10-28 16:43:46.453125
1318,-13.84,2022-10-28 16:43:46.468750
1319,23.92,2022-10-28 16:43:46.484375
1320,57.07,2022-10-28 16:43:46.500000
1321,83.78,2022-10-28 16:43:46.515625
1322,103.16,2022-10-28 16:43:46.531250
1323,114.89,2022-10-28 16:43:46.546875
1324,119.07,2022-10-28 16:43:46.562500
1325,116.33,2022-10-28 16:43:46.578125
1326,107.86,2022-10-28 16:43:46.593750
1327,95.42,2022-10-28 16:43:46.609375
1328,81.01,2022-10-28 16:43:46.625000
1329,66.45,2022-10-28 16:43:46.640625
1330,53.08,2022-10-28 16:43:46.656250
1331,41.65,2022-10-28 16:43:46.671875
1332,32.42,2022-10-28 16:43:46.687500
1333,25.42,2022-10-28 16:43:46.703125
1334,20.63,2022-10-28 16:43:46.718750
1335,18.05,2022-10-28 16:43:46.734375
1336,17.72,2022-10-28 16:43:46.750000
1337,19.47,2022-10-28 16:43:46.765625
1338,22.83,2022-10-28 16:43:46.781250
1339,26.85,2022-10-28 16:43:46.796875
1340,30.19,2022-10-28 16:43:46.812500
1341,31.42,2022-10-28 16:43:46.828125
1342,29.45,2022-10-28 16:43:46.843750
1343,23.94,2022-10-28 16:43:46.859375
1344,15.4,2022-10-28 16:43:46.875000
1345,5.01,2022-10-28 16:43:46.890625
1346,-5.85,2022-10-28 16:43:46.906250
1347,-16.21,2022-10-28 16:43:46.921875
1348,-25.81,2022-10-28 16:43:46.937500
1349,-35.23,2022-10-28 16:43:46.953125
1350,-45.6,2022-10-28 16:43:46.968750
1351,-58.22,2022-10-28 16:43:46.984375
1352,-74.02,2022-10-28 16:43:47.000000
1353,-92.97,2022-10-28 16:43:47.015625
1354,-113.59,2022-10-28 16:43:47.031250
1355,-132.93,2022-10-28 16:43:47.046875
1356,-146.95,2022-10-28 16:43:47.062500
1357,-151.58,2022-10-28 16:43:47.078125
1358,-143.98,2022-10-28 16:43:47.093750
1359,-123.54,2022-10-28 16:43:47.109375
1360,-92.27,2022-10-28 16:43:47.125000
1361,-54.09,2022-10-28 16:43:47.140625
1362,-13.79,2022-10-28 16:43:47.156250
1363,24.32,2022-10-28 16:43:47.171875
1364,57.15,2022-10-28 16:43:47.187500
1365,83.01,2022-10-28 16:43:47.203125
1366,101.31,2022-10-28 16:43:47.218750
1367,112.04,2022-10-28 16:43:47.234375
1368,115.58,2022-10-28 16:43:47.250000
1369,112.59,2022-10-28 16:43:47.265625
1370,104.22,2022-10-28 16:43:47.281250
1371,92.08,2022-10-28 16:43:47.296875
1372,78.06,2022-10-28 16:43:47.312500
1373,63.99,2022-10-28 16:43:47.328125
1374,51.28,2022-10-28 16:43:47.343750
1375,40.68,2022-10-28 16:43:47.359375
1376,32.28,2022-10-28 16:43:47.375000
1377,25.82,2022-10-28 16:43:47.390625
1378,20.98,2022-10-28 16:43:47.406250
1379,17.68,2022-10-28 16:43:47.421875
1380,16.11,2022-10-28 16:43:47.437500
1381,16.5,2022-10-28 16:43:47.453125
1382,18.79,2022-10-28 16:43:47.468750
1383,22.32,2022-10-28 16:43:47.484375
1384,25.79,2022-10-28 16:43:47.500000
1385,27.58,2022-10-28 16:43:47.515625
1386,26.25,2022-10-28 16:43:47.531250
1387,21.1,2022-10-28 16:43:47.546875
1388,12.38,2022-10-28 16:43:47.562500
1389,1.21,2022-10-28 16:43:47.578125
1390,-10.9,2022-10-28 16:43:47.593750
1391,-22.64,2022-10-28 16:43:47.609375
1392,-33.42,2022-10-28 16:43:47.625000
1393,-43.48,2022-10-28 16:43:47.640625
1394,-53.82,2022-10-28 16:43:47.656250
1395,-65.76,2022-10-28 16:43:47.671875
1396,-80.46,2022-10-28 16:43:47.687500
1397,-98.33,2022-10-28 16:43:47.703125
1398,-118.6,2022-10-28 16:43:47.718750
1399,-139.03,2022-10-28 16:43:47.734375
1400,-156.1,2022-10-28 16:43:47.750000
1401,-165.65,2022-10-28 16:43:47.765625
1402,-164.02,2022-10-28 16:43:47.781250
1403,-149.23,2022-10-28 16:43:47.796875
1404,-121.73,2022-10-28 16:43:47.812500
1405,-84.44,2022-10-28 16:43:47.828125
1406,-41.91,2022-10-28 16:43:47.843750
1407,0.89,2022-10-28 16:43:47.859375
1408,39.78,2022-10-28 16:43:47.875000
1409,72.05,2022-10-28 16:43:47.890625
1410,96.45,2022-10-28 16:43:47.906250
1411,112.85,2022-10-28 16:43:47.921875
1412,121.74,2022-10-28 16:43:47.937500
1413,123.93,2022-10-28 16:43:47.953125
1414,120.44,2022-10-28 16:43:47.968750
1415,112.52,2022-10-28 16:43:47.984375
1416,101.61,2022-10-28 16:43:48.000000
1417,89.19,2022-10-28 16:43:48.015625
1418,76.67,2022-10-28 16:43:48.031250
1419,65.17,2022-10-28 16:43:48.046875
1420,55.44,2022-10-28 16:43:48.062500
1421,47.78,2022-10-28 16:43:48.078125
1422,42.14,2022-10-28 16:43:48.093750
1423,38.23,2022-10-28 16:43:48.109375
1424,35.75,2022-10-28 16:43:48.125000
1425,34.49,2022-10-28 16:43:48.140625
1426,34.38,2022-10-28 16:43:48.156250
1427,35.36,2022-10-28 16:43:48.171875
1428,37.11,2022-10-28 16:43:48.187500
1429,38.93,2022-10-28 16:43:48.203125
1430,39.71,2022-10-28 16:43:48.218750
1431,38.2,2022-10-28 16:43:48.234375
1432,33.47,2022-10-28 16:43:48.250000
1433,25.24,2022-10-28 16:43:48.265625
1434,14.02,2022-10-28 16:43:48.281250
1435,0.97,2022-10-28 16:43:48.296875
1436,-12.56,2022-10-28 16:43:48.312500
1437,-25.47,2022-10-28 16:43:48.328125
1438,-37.24,2022-10-28 16:43:48.343750
1439,-48.03,2022-10-28 16:43:48.359375
1440,-58.55,2022-10-28 16:43:48.375000
1441,-69.83,2022-10-28 16:43:48.390625
1442,-82.94,2022-10-28 16:43:48.406250
1443,-98.63,2022-10-28 16:43:48.421875
1444,-116.84,2022-10-28 16:43:48.437500
1445,-136.26,2022-10-28 16:43:48.453125
1446,-154.19,2022-10-28 16:43:48.468750
1447,-166.77,2022-10-28 16:43:48.484375
1448,-170.03,2022-10-28 16:43:48.500000
1449,-161.06,2022-10-28 16:43:48.515625
1450,-139.14,2022-10-28 16:43:48.531250
1451,-106.16,2022-10-28 16:43:48.546875
1452,-66.06,2022-10-28 16:43:48.562500
1453,-23.73,2022-10-28 16:43:48.578125
1454,16.28,2022-10-28 16:43:48.593750
1455,50.74,2022-10-28 16:43:48.609375
1456,77.91,2022-10-28 16:43:48.625000
1457,97.35,2022-10-28 16:43:48.640625
1458,109.43,2022-10-28 16:43:48.656250
1459,114.92,2022-10-28 16:43:48.671875
1460,114.82,2022-10-28 16:43:48.687500
1461,110.23,2022-10-28 16:43:48.703125
1462,102.38,2022-10-28 16:43:48.718750
1463,92.46,2022-10-28 16:43:48.734375
1464,81.62,2022-10-28 16:43:48.750000
1465,70.79,2022-10-28 16:43:48.765625
1466,60.8,2022-10-28 16:43:48.781250
1467,52.35,2022-10-28 16:43:48.796875
1468,45.97,2022-10-28 16:43:48.812500
1469,42.01,2022-10-28 16:43:48.828125
1470,40.51,2022-10-28 16:43:48.843750
1471,41.19,2022-10-28 16:43:48.859375
1472,43.44,2022-10-28 16:43:48.875000
1473,46.45,2022-10-28 16:43:48.890625
1474,49.34,2022-10-28 16:43:48.906250
1475,51.33,2022-10-28 16:43:48.921875
1476,51.85,2022-10-28 16:43:48.937500
1477,50.55,2022-10-28 16:43:48.953125
1478,47.29,2022-10-28 16:43:48.968750
1479,42.09,2022-10-28 16:43:48.984375
1480,35.05,2022-10-28 16:43:49.000000
1481,26.31,2022-10-28 16:43:49.015625
1482,16.09,2022-10-28 16:43:49.031250
1483,4.62,2022-10-28 16:43:49.046875
1484,-7.78,2022-10-28 16:43:49.062500
1485,-20.76,2022-10-28 16:43:49.078125
1486,-33.88,2022-10-28 16:43:49.093750
1487,-46.73,2022-10-28 16:43:49.109375
1488,-58.96,2022-10-28 16:43:49.125000
1489,-70.42,2022-10-28 16:43:49.140625
1490,-81.23,2022-10-28 16:43:49.156250
1491,-91.93,2022-10-28 16:43:49.171875
1492,-103.33,2022-10-28 16:43:49.187500
1493,-116.29,2022-10-28 16:43:49.203125
1494,-131.18,2022-10-28 16:43:49.218750
1495,-147.25,2022-10-28 16:43:49.234375
1496,-162.32,2022-10-28 16:43:49.250000
1497,-172.92,2022-10-28 16:43:49.265625
1498,-175.18,2022-10-28 16:43:49.281250
1499,-166.12,2022-10-28 16:43:49.296875
1500,-144.72,2022-10-28 16:43:49.312500
1501,-112.51,2022-10-28 16:43:49.328125
1502,-73.19,2022-10-28 16:43:49.343750
1503,-31.49,2022-10-28 16:43:49.359375
1504,8.12,2022-10-28 16:43:49.375000
1505,42.34,2022-10-28 16:43:49.390625
1506,69.41,2022-10-28 16:43:49.406250
1507,88.86,2022-10-28 16:43:49.421875
1508,100.96,2022-10-28 16:43:49.437500
1509,106.33,2022-10-28 16:43:49.453125
1510,105.8,2022-10-28 16:43:49.468750
1511,100.41,2022-10-28 16:43:49.484375
1512,91.44,2022-10-28 16:43:49.500000
1513,80.43,2022-10-28 16:43:49.515625
1514,68.87,2022-10-28 16:43:49.531250
1515,58.15,2022-10-28 16:43:49.546875
1516,49.26,2022-10-28 16:43:49.562500
1517,42.71,2022-10-28 16:43:49.578125
1518,38.55,2022-10-28 16:43:49.593750
1519,36.43,2022-10-28 16:43:49.609375
1520,35.85,2022-10-28 16:43:49.625000
1521,36.37,2022-10-28 16:43:49.640625
1522,37.69,2022-10-28 16:43:49.656250
1523,39.69,2022-10-28 16:43:49.671875
1524,42.26,2022-10-28 16:43:49.687500
1525,45.11,2022-10-28 16:43:49.703125
1526,47.53,2022-10-28 16:43:49.718750
1527,48.56,2022-10-28 16:43:49.734375
1528,47.1,2022-10-28 16:43:49.750000
1529,42.36,2022-10-28 16:43:49.765625
1530,34.09,2022-10-28 16:43:49.781250
1531,22.79,2022-10-28 16:43:49.796875
1532,9.51,2022-10-28 16:43:49.812500
1533,-4.41,2022-10-28 16:43:49.828125
1534,-17.84,2022-10-28 16:43:49.843750
1535,-30.12,2022-10-28 16:43:49.859375
1536,-41.19,2022-10-28 16:43:49.875000
1537,-51.57,2022-10-28 16:43:49.890625
1538,-62.18,2022-10-28 16:43:49.906250
1539,-74.09,2022-10-28 16:43:49.921875
1540,-88.14,2022-10-28 16:43:49.937500
1541,-104.53,2022-10-28 16:43:49.953125
1542,-122.26,2022-10-28 16:43:49.968750
1543,-138.91,2022-10-28 16:43:49.984375
1544,-150.91,2022-10-28 16:43:50.000000
1545,-154.46,2022-10-28 16:43:50.015625
1546,-146.73,2022-10-28 16:43:50.031250
1547,-126.96,2022-10-28 16:43:50.046875
1548,-96.87,2022-10-28 16:43:50.062500
1549,-60.16,2022-10-28 16:43:50.078125
1550,-21.41,2022-10-28 16:43:50.093750
1551,15.18,2022-10-28 16:43:50.109375
1552,46.64,2022-10-28 16:43:50.125000
1553,71.48,2022-10-28 16:43:50.140625
1554,89.26,2022-10-28 16:43:50.156250
1555,100.23,2022-10-28 16:43:50.171875
1556,104.87,2022-10-28 16:43:50.187500
1557,103.84,2022-10-28 16:43:50.203125
1558,98.04,2022-10-28 16:43:50.218750
1559,88.62,2022-10-28 16:43:50.234375
1560,76.94,2022-10-28 16:43:50.250000
1561,64.43,2022-10-28 16:43:50.265625
1562,52.43,2022-10-28 16:43:50.281250
1563,42.1,2022-10-28 16:43:50.296875
1564,34.25,2022-10-28 16:43:50.312500
1565,29.25,2022-10-28 16:43:50.328125
1566,27.04,2022-10-28 16:43:50.343750
1567,27.14,2022-10-28 16:43:50.359375
1568,28.8,2022-10-28 16:43:50.375000
1569,31.24,2022-10-28 16:43:50.390625
1570,33.79,2022-10-28 16:43:50.406250
1571,35.97,2022-10-28 16:43:50.421875
1572,37.38,2022-10-28 16:43:50.437500
1573,37.64,2022-10-28 16:43:50.453125
1574,36.3,2022-10-28 16:43:50.468750
1575,32.92,2022-10-28 16:43:50.484375
1576,27.17,2022-10-28 16:43:50.500000
1577,18.97,2022-10-28 16:43:50.515625
1578,8.6,2022-10-28 16:43:50.531250
1579,-3.31,2022-10-28 16:43:50.546875
1580,-15.93,2022-10-28 16:43:50.562500
1581,-28.36,2022-10-28 16:43:50.578125
1582,-39.91,2022-10-28 16:43:50.593750
1583,-50.2,2022-10-28 16:43:50.609375
1584,-59.3,2022-10-28 16:43:50.625000
1585,-67.68,2022-10-28 16:43:50.640625
1586,-76.16,2022-10-28 16:43:50.656250
1587,-85.7,2022-10-28 16:43:50.671875
1588,-97.2,2022-10-28 16:43:50.687500
1589,-111.15,2022-10-28 16:43:50.703125
1590,-127.29,2022-10-28 16:43:50.718750
1591,-144.2,2022-10-28 16:43:50.734375
1592,-159.17,2022-10-28 16:43:50.750000
1593,-168.6,2022-10-28 16:43:50.765625
1594,-168.83,2022-10-28 16:43:50.781250
1595,-157.33,2022-10-28 16:43:50.796875
1596,-133.66,2022-10-28 16:43:50.812500
1597,-99.76,2022-10-28 16:43:50.828125
1598,-59.52,2022-10-28 16:43:50.843750
1599,-17.62,2022-10-28 16:43:50.859375
1600,21.64,2022-10-28 16:43:50.875000
1601,55.23,2022-10-28 16:43:50.890625
1602,81.53,2022-10-28 16:43:50.906250
1603,100.12,2022-10-28 16:43:50.921875
1604,111.25,2022-10-28 16:43:50.937500
1605,115.58,2022-10-28 16:43:50.953125
1606,113.93,2022-10-28 16:43:50.968750
1607,107.4,2022-10-28 16:43:50.984375
1608,97.28,2022-10-28 16:43:51.000000
1609,85.03,2022-10-28 16:43:51.015625
1610,72.06,2022-10-28 16:43:51.031250
1611,59.57,2022-10-28 16:43:51.046875
1612,48.4,2022-10-28 16:43:51.062500
1613,39.06,2022-10-28 16:43:51.078125
1614,31.76,2022-10-28 16:43:51.093750
1615,26.57,2022-10-28 16:43:51.109375
1616,23.53,2022-10-28 16:43:51.125000
1617,22.64,2022-10-28 16:43:51.140625
1618,23.83,2022-10-28 16:43:51.156250
1619,26.75,2022-10-28 16:43:51.171875
1620,30.63,2022-10-28 16:43:51.187500
1621,34.3,2022-10-28 16:43:51.203125
1622,36.34,2022-10-28 16:43:51.218750
1623,35.47,2022-10-28 16:43:51.234375
1624,30.96,2022-10-28 16:43:51.250000
1625,22.88,2022-10-28 16:43:51.265625
1626,12.17,2022-10-28 16:43:51.281250
1627,0.26,2022-10-28 16:43:51.296875
1628,-11.38,2022-10-28 16:43:51.312500
1629,-21.82,2022-10-28 16:43:51.328125
1630,-30.88,2022-10-28 16:43:51.343750
1631,-39.18,2022-10-28 16:43:51.359375
1632,-47.93,2022-10-28 16:43:51.375000
1633,-58.48,2022-10-28 16:43:51.390625
1634,-71.91,2022-10-28 16:43:51.406250
1635,-88.51,2022-10-28 16:43:51.421875
1636,-107.37,2022-10-28 16:43:51.437500
1637,-126.09,2022-10-28 16:43:51.453125
1638,-141.1,2022-10-28 16:43:51.468750
1639,-148.3,2022-10-28 16:43:51.484375
1640,-144.34,2022-10-28 16:43:51.500000
1641,-127.64,2022-10-28 16:43:51.515625
1642,-99.16,2022-10-28 16:43:51.531250
1643,-62.18,2022-10-28 16:43:51.546875
1644,-21.35,2022-10-28 16:43:51.562500
1645,18.59,2022-10-28 16:43:51.578125
1646,53.95,2022-10-28 16:43:51.593750
1647,82.6,2022-10-28 16:43:51.609375
1648,103.83,2022-10-28 16:43:51.625000
1649,117.86,2022-10-28 16:43:51.640625
1650,125.34,2022-10-28 16:43:51.656250
1651,127.01,2022-10-28 16:43:51.671875
1652,123.72,2022-10-28 16:43:51.687500
1653,116.46,2022-10-28 16:43:51.703125
1654,106.37,2022-10-28 16:43:51.718750
1655,94.68,2022-10-28 16:43:51.734375
1656,82.62,2022-10-28 16:43:51.750000
1657,71.34,2022-10-28 16:43:51.765625
1658,61.82,2022-10-28 16:43:51.781250
1659,54.78,2022-10-28 16:43:51.796875
1660,50.59,2022-10-28 16:43:51.812500
1661,49.21,2022-10-28 16:43:51.828125
1662,50.13,2022-10-28 16:43:51.843750
1663,52.5,2022-10-28 16:43:51.859375
1664,55.28,2022-10-28 16:43:51.875000
1665,57.56,2022-10-28 16:43:51.890625
1666,58.74,2022-10-28 16:43:51.906250
1667,58.54,2022-10-28 16:43:51.921875
1668,56.93,2022-10-28 16:43:51.937500
1669,53.9,2022-10-28 16:43:51.953125
1670,49.33,2022-10-28 16:43:51.968750
1671,42.96,2022-10-28 16:43:51.984375
1672,34.59,2022-10-28 16:43:52.000000
1673,24.19,2022-10-28 16:43:52.015625
1674,12.16,2022-10-28 16:43:52.031250
1675,-0.84,2022-10-28 16:43:52.046875
1676,-14.0,2022-10-28 16:43:52.062500
1677,-26.6,2022-10-28 16:43:52.078125
1678,-38.33,2022-10-28 16:43:52.093750
1679,-49.22,2022-10-28 16:43:52.109375
1680,-59.66,2022-10-28 16:43:52.125000
1681,-70.27,2022-10-28 16:43:52.140625
1682,-81.83,2022-10-28 16:43:52.156250
1683,-95.11,2022-10-28 16:43:52.171875
1684,-110.55,2022-10-28 16:43:52.187500
1685,-127.73,2022-10-28 16:43:52.203125
1686,-144.95,2022-10-28 16:43:52.218750
1687,-159.16,2022-10-28 16:43:52.234375
1688,-166.52,2022-10-28 16:43:52.250000
1689,-163.59,2022-10-28 16:43:52.265625
1690,-148.48,2022-10-28 16:43:52.281250
1691,-121.78,2022-10-28 16:43:52.296875
1692,-86.4,2022-10-28 16:43:52.312500
1693,-46.7,2022-10-28 16:43:52.328125
1694,-7.24,2022-10-28 16:43:52.343750
1695,28.37,2022-10-28 16:43:52.359375
1696,57.87,2022-10-28 16:43:52.375000
1697,80.28,2022-10-28 16:43:52.390625
1698,95.45,2022-10-28 16:43:52.406250
1699,103.71,2022-10-28 16:43:52.421875
1700,105.7,2022-10-28 16:43:52.437500
1701,102.41,2022-10-28 16:43:52.453125
1702,95.17,2022-10-28 16:43:52.468750
1703,85.49,2022-10-28 16:43:52.484375
1704,74.87,2022-10-28 16:43:52.500000
1705,64.53,2022-10-28 16:43:52.515625
1706,55.29,2022-10-28 16:43:52.531250
1707,47.52,2022-10-28 16:43:52.546875
1708,41.25,2022-10-28 16:43:52.562500
1709,36.32,2022-10-28 16:43:52.578125
1710,32.64,2022-10-28 16:43:52.593750
1711,30.26,2022-10-28 16:43:52.609375
1712,29.4,2022-10-28 16:43:52.625000
1713,30.26,2022-10-28 16:43:52.640625
1714,32.7,2022-10-28 16:43:52.656250
1715,36.07,2022-10-28 16:43:52.671875
1716,39.19,2022-10-28 16:43:52.687500
1717,40.64,2022-10-28 16:43:52.703125
1718,39.23,2022-10-28 16:43:52.718750
1719,34.4,2022-10-28 16:43:52.734375
1720,26.49,2022-10-28 16:43:52.750000
1721,16.48,2022-10-28 16:43:52.765625
1722,5.67,2022-10-28 16:43:52.781250
1723,-4.88,2022-10-28 16:43:52.796875
1724,-14.67,2022-10-28 16:43:52.812500
1725,-23.84,2022-10-28 16:43:52.828125
1726,-33.12,2022-10-28 16:43:52.843750
1727,-43.55,2022-10-28 16:43:52.859375
1728,-56.12,2022-10-28 16:43:52.875000
1729,-71.38,2022-10-28 16:43:52.890625
1730,-89.02,2022-10-28 16:43:52.906250
1731,-107.53,2022-10-28 16:43:52.921875
1732,-124.18,2022-10-28 16:43:52.937500
1733,-135.49,2022-10-28 16:43:52.953125
1734,-138.18,2022-10-28 16:43:52.968750
1735,-130.17,2022-10-28 16:43:52.984375
1736,-111.2,2022-10-28 16:43:53.000000
1737,-82.93,2022-10-28 16:43:53.015625
1738,-48.43,2022-10-28 16:43:53.031250
1739,-11.36,2022-10-28 16:43:53.046875
1740,24.81,2022-10-28 16:43:53.062500
1741,57.26,2022-10-28 16:43:53.078125
1742,83.94,2022-10-28 16:43:53.093750
1743,103.62,2022-10-28 16:43:53.109375
1744,115.71,2022-10-28 16:43:53.125000
1745,120.33,2022-10-28 16:43:53.140625
1746,118.21,2022-10-28 16:43:53.156250
1747,110.63,2022-10-28 16:43:53.171875
1748,99.21,2022-10-28 16:43:53.187500
1749,85.7,2022-10-28 16:43:53.203125
1750,71.78,2022-10-28 16:43:53.218750
1751,58.82,2022-10-28 16:43:53.234375
1752,47.8,2022-10-28 16:43:53.250000
1753,39.21,2022-10-28 16:43:53.265625
1754,33.06,2022-10-28 16:43:53.281250
1755,29.1,2022-10-28 16:43:53.296875
1756,27.0,2022-10-28 16:43:53.312500
1757,26.55,2022-10-28 16:43:53.328125
1758,27.62,2022-10-28 16:43:53.343750
1759,29.93,2022-10-28 16:43:53.359375
1760,32.98,2022-10-28 16:43:53.375000
1761,35.78,2022-10-28 16:43:53.390625
1762,37.15,2022-10-28 16:43:53.406250
1763,35.94,2022-10-28 16:43:53.421875
1764,31.41,2022-10-28 16:43:53.437500
1765,23.53,2022-10-28 16:43:53.453125
1766,12.96,2022-10-28 16:43:53.468750
1767,0.85,2022-10-28 16:43:53.484375
1768,-11.6,2022-10-28 16:43:53.500000
1769,-23.47,2022-10-28 16:43:53.515625
1770,-34.47,2022-10-28 16:43:53.531250
1771,-44.91,2022-10-28 16:43:53.546875
1772,-55.61,2022-10-28 16:43:53.562500
1773,-67.64,2022-10-28 16:43:53.578125
1774,-81.96,2022-10-28 16:43:53.593750
1775,-99.01,2022-10-28 16:43:53.609375
1776,-118.21,2022-10-28 16:43:53.625000
1777,-137.59,2022-10-28 16:43:53.640625
1778,-153.77,2022-10-28 16:43:53.656250
1779,-162.66,2022-10-28 16:43:53.671875
1780,-160.59,2022-10-28 16:43:53.687500
1781,-145.61,2022-10-28 16:43:53.703125
1782,-118.31,2022-10-28 16:43:53.718750
1783,-81.8,2022-10-28 16:43:53.734375
1784,-40.77,2022-10-28 16:43:53.750000
1785,-0.09,2022-10-28 16:43:53.765625
1786,36.38,2022-10-28 16:43:53.781250
1787,66.34,2022-10-28 16:43:53.796875
1788,88.94,2022-10-28 16:43:53.812500
1789,104.22,2022-10-28 16:43:53.828125
1790,112.64,2022-10-28 16:43:53.843750
1791,114.79,2022-10-28 16:43:53.859375
1792,111.48,2022-10-28 16:43:53.875000
1793,103.82,2022-10-28 16:43:53.890625
1794,93.21,2022-10-28 16:43:53.906250
1795,81.24,2022-10-28 16:43:53.921875
1796,69.41,2022-10-28 16:43:53.937500
1797,58.91,2022-10-28 16:43:53.953125
1798,50.47,2022-10-28 16:43:53.968750
1799,44.27,2022-10-28 16:43:53.984375
1800,40.13,2022-10-28 16:43:54.000000
1801,37.68,2022-10-28 16:43:54.015625
1802,36.61,2022-10-28 16:43:54.031250
1803,36.74,2022-10-28 16:43:54.046875
1804,38.0,2022-10-28 16:43:54.062500
1805,40.2,2022-10-28 16:43:54.078125
1806,42.81,2022-10-28 16:43:54.093750
1807,44.9,2022-10-28 16:43:54.109375
1808,45.31,2022-10-28 16:43:54.125000
1809,42.97,2022-10-28 16:43:54.140625
1810,37.3,2022-10-28 16:43:54.156250
1811,28.42,2022-10-28 16:43:54.171875
1812,17.15,2022-10-28 16:43:54.187500
1813,4.7,2022-10-28 16:43:54.203125
1814,-7.67,2022-10-28 16:43:54.218750
1815,-19.08,2022-10-28 16:43:54.234375
1816,-29.28,2022-10-28 16:43:54.250000
1817,-38.68,2022-10-28 16:43:54.265625
1818,-48.22,2022-10-28 16:43:54.281250
1819,-59.15,2022-10-28 16:43:54.296875
1820,-72.61,2022-10-28 16:43:54.312500
1821,-89.24,2022-10-28 16:43:54.328125
1822,-108.63,2022-10-28 16:43:54.343750
1823,-128.95,2022-10-28 16:43:54.359375
1824,-146.91,2022-10-28 16:43:54.375000
1825,-158.35,2022-10-28 16:43:54.390625
1826,-159.36,2022-10-28 16:43:54.406250
1827,-147.55,2022-10-28 16:43:54.421875
1828,-123.05,2022-10-28 16:43:54.437500
1829,-88.64,2022-10-28 16:43:54.453125
1830,-48.93,2022-10-28 16:43:54.468750
1831,-8.98,2022-10-28 16:43:54.484375
1832,27.13,2022-10-28 16:43:54.500000
1833,57.02,2022-10-28 16:43:54.515625
1834,79.97,2022-10-28 16:43:54.531250
1835,96.26,2022-10-28 16:43:54.546875
1836,106.43,2022-10-28 16:43:54.562500
1837,110.95,2022-10-28 16:43:54.578125
1838,110.26,2022-10-28 16:43:54.593750
1839,105.03,2022-10-28 16:43:54.609375
1840,96.35,2022-10-28 16:43:54.625000
1841,85.72,2022-10-28 16:43:54.640625
1842,74.65,2022-10-28 16:43:54.656250
1843,64.44,2022-10-28 16:43:54.671875
1844,55.9,2022-10-28 16:43:54.687500
1845,49.43,2022-10-28 16:43:54.703125
1846,45.01,2022-10-28 16:43:54.718750
1847,42.43,2022-10-28 16:43:54.734375
1848,41.4,2022-10-28 16:43:54.750000
1849,41.61,2022-10-28 16:43:54.765625
1850,42.73,2022-10-28 16:43:54.781250
1851,44.47,2022-10-28 16:43:54.796875
1852,46.47,2022-10-28 16:43:54.812500
1853,48.24,2022-10-28 16:43:54.828125
1854,49.12,2022-10-28 16:43:54.843750
1855,48.32,2022-10-28 16:43:54.859375
1856,45.1,2022-10-28 16:43:54.875000
1857,38.97,2022-10-28 16:43:54.890625
1858,29.92,2022-10-28 16:43:54.906250
1859,18.5,2022-10-28 16:43:54.921875
1860,5.66,2022-10-28 16:43:54.937500
1861,-7.51,2022-10-28 16:43:54.953125
1862,-20.15,2022-10-28 16:43:54.968750
1863,-31.82,2022-10-28 16:43:54.984375
1864,-42.68,2022-10-28 16:43:55.000000
1865,-53.32,2022-10-28 16:43:55.015625
1866,-64.66,2022-10-28 16:43:55.031250
1867,-77.71,2022-10-28 16:43:55.046875
1868,-93.2,2022-10-28 16:43:55.062500
1869,-111.18,2022-10-28 16:43:55.078125
1870,-130.55,2022-10-28 16:43:55.093750
1871,-148.81,2022-10-28 16:43:55.109375
1872,-162.32,2022-10-28 16:43:55.125000
1873,-167.17,2022-10-28 16:43:55.140625
1874,-160.39,2022-10-28 16:43:55.156250
1875,-141.03,2022-10-28 16:43:55.171875
1876,-110.66,2022-10-28 16:43:55.187500
1877,-72.93,2022-10-28 16:43:55.203125
1878,-32.55,2022-10-28 16:43:55.218750
1879,6.08,2022-10-28 16:43:55.234375
1880,39.75,2022-10-28 16:43:55.250000
1881,66.76,2022-10-28 16:43:55.265625
1882,86.61,2022-10-28 16:43:55.281250
1883,99.51,2022-10-28 16:43:55.296875
1884,105.93,2022-10-28 16:43:55.312500
1885,106.49,2022-10-28 16:43:55.328125
1886,102.01,2022-10-28 16:43:55.343750
1887,93.63,2022-10-28 16:43:55.359375
1888,82.77,2022-10-28 16:43:55.375000
1889,70.97,2022-10-28 16:43:55.390625
1890,59.6,2022-10-28 16:43:55.406250
1891,49.66,2022-10-28 16:43:55.421875
1892,41.64,2022-10-28 16:43:55.437500
1893,35.63,2022-10-28 16:43:55.453125
1894,31.48,2022-10-28 16:43:55.468750
1895,29.06,2022-10-28 16:43:55.484375
1896,28.3,2022-10-28 16:43:55.500000
1897,29.22,2022-10-28 16:43:55.515625
1898,31.73,2022-10-28 16:43:55.531250
1899,35.42,2022-10-28 16:43:55.546875
1900,39.44,2022-10-28 16:43:55.562500
1901,42.62,2022-10-28 16:43:55.578125
1902,43.68,2022-10-28 16:43:55.593750
1903,41.62,2022-10-28 16:43:55.609375
1904,36.03,2022-10-28 16:43:55.625000
1905,27.21,2022-10-28 16:43:55.640625
1906,16.04,2022-10-28 16:43:55.656250
1907,3.78,2022-10-28 16:43:55.671875
1908,-8.32,2022-10-28 16:43:55.687500
1909,-19.4,2022-10-28 16:43:55.703125
1910,-29.23,2022-10-28 16:43:55.718750
1911,-38.28,2022-10-28 16:43:55.734375
1912,-47.58,2022-10-28 16:43:55.750000
1913,-58.45,2022-10-28 16:43:55.765625
1914,-72.03,2022-10-28 16:43:55.781250
1915,-88.71,2022-10-28 16:43:55.796875
1916,-107.56,2022-10-28 16:43:55.812500
1917,-126.15,2022-10-28 16:43:55.828125
1918,-140.81,2022-10-28 16:43:55.843750
1919,-147.51,2022-10-28 16:43:55.859375
1920,-143.08,2022-10-28 16:43:55.875000
1921,-126.33,2022-10-28 16:43:55.890625
1922,-98.55,2022-10-28 16:43:55.906250
1923,-63.21,2022-10-28 16:43:55.921875
1924,-24.87,2022-10-28 16:43:55.937500
1925,12.02,2022-10-28 16:43:55.953125
1926,44.19,2022-10-28 16:43:55.968750
1927,69.85,2022-10-28 16:43:55.984375
1928,88.51,2022-10-28 16:43:56.000000
1929,100.42,2022-10-28 16:43:56.015625
1930,106.08,2022-10-28 16:43:56.031250
1931,106.03,2022-10-28 16:43:56.046875
1932,100.94,2022-10-28 16:43:56.062500
1933,91.75,2022-10-28 16:43:56.078125
1934,79.77,2022-10-28 16:43:56.093750
1935,66.59,2022-10-28 16:43:56.109375
1936,53.82,2022-10-28 16:43:56.125000
1937,42.79,2022-10-28 16:43:56.140625
1938,34.27,2022-10-28 16:43:56.156250
1939,28.41,2022-10-28 16:43:56.171875
1940,24.85,2022-10-28 16:43:56.187500
1941,23.06,2022-10-28 16:43:56.203125
1942,22.58,2022-10-28 16:43:56.218750
1943,23.22,2022-10-28 16:43:56.234375
1944,24.94,2022-10-28 16:43:56.250000
1945,27.63,2022-10-28 16:43:56.265625
1946,30.77,2022-10-28 16:43:56.281250
1947,33.37,2022-10-28 16:43:56.296875
1948,34.1,2022-10-28 16:43:56.312500
1949,31.8,2022-10-28 16:43:56.328125
1950,25.89,2022-10-28 16:43:56.343750
1951,16.66,2022-10-28 16:43:56.359375
1952,5.2,2022-10-28 16:43:56.375000
1953,-7.02,2022-10-28 16:43:56.390625
1954,-18.69,2022-10-28 16:43:56.406250
1955,-29.09,2022-10-28 16:43:56.421875
1956,-38.27,2022-10-28 16:43:56.437500
1957,-46.99,2022-10-28 16:43:56.453125
1958,-56.39,2022-10-28 16:43:56.468750
1959,-67.7,2022-10-28 16:43:56.484375
1960,-81.85,2022-10-28 16:43:56.500000
1961,-99.01,2022-10-28 16:43:56.515625
1962,-118.14,2022-10-28 16:43:56.531250
1963,-136.76,2022-10-28 16:43:56.546875
1964,-151.16,2022-10-28 16:43:56.562500
1965,-157.21,2022-10-28 16:43:56.578125
1966,-151.67,2022-10-28 16:43:56.593750
1967,-133.34,2022-10-28 16:43:56.609375
1968,-103.65,2022-10-28 16:43:56.625000
1969,-66.28,2022-10-28 16:43:56.640625
1970,-26.07,2022-10-28 16:43:56.656250
1971,12.42,2022-10-28 16:43:56.671875
1972,45.87,2022-10-28 16:43:56.687500
1973,72.52,2022-10-28 16:43:56.703125
1974,91.94,2022-10-28 16:43:56.718750
1975,104.34,2022-10-28 16:43:56.734375
1976,110.21,2022-10-28 16:43:56.750000
1977,110.09,2022-10-28 16:43:56.765625
1978,104.71,2022-10-28 16:43:56.781250
1979,95.22,2022-10-28 16:43:56.796875
1980,83.08,2022-10-28 16:43:56.812500
1981,70.07,2022-10-28 16:43:56.828125
1982,57.81,2022-10-28 16:43:56.843750
1983,47.53,2022-10-28 16:43:56.859375
1984,39.81,2022-10-28 16:43:56.875000
1985,34.56,2022-10-28 16:43:56.890625
1986,31.25,2022-10-28 16:43:56.906250
1987,29.24,2022-10-28 16:43:56.921875
1988,28.09,2022-10-28 16:43:56.937500
1989,27.72,2022-10-28 16:43:56.953125
1990,28.31,2022-10-28 16:43:56.968750
1991,30.0,2022-10-28 16:43:56.984375
1992,32.56,2022-10-28 16:43:57.000000
1993,35.23,2022-10-28 16:43:57.015625
1994,36.79,2022-10-28 16:43:57.031250
1995,35.92,2022-10-28 16:43:57.046875
1996,31.73,2022-10-28 16:43:57.062500
1997,24.03,2022-10-28 16:43:57.078125
1998,13.48,2022-10-28 16:43:57.093750
1999,1.33,2022-10-28 16:43:57.109375
2000,-11.06,2022-10-28 16:43:57.125000
2001,-22.66,2022-10-28 16:43:57.140625
2002,-33.11,2022-10-28 16:43:57.156250
2003,-42.76,2022-10-28 16:43:57.171875
2004,-52.43,2022-10-28 16:43:57.187500
2005,-63.18,2022-10-28 16:43:57.203125
2006,-76.0,2022-10-28 16:43:57.218750
2007,-91.42,2022-10-28 16:43:57.234375
2008,-109.14,2022-10-28 16:43:57.250000
2009,-127.57,2022-10-28 16:43:57.265625
2010,-143.74,2022-10-28 16:43:57.281250
2011,-153.73,2022-10-28 16:43:57.296875
2012,-153.63,2022-10-28 16:43:57.312500
2013,-140.9,2022-10-28 16:43:57.328125
2014,-115.42,2022-10-28 16:43:57.343750
2015,-79.8,2022-10-28 16:43:57.359375
2016,-38.66,2022-10-28 16:43:57.375000
2017,2.7,2022-10-28 16:43:57.390625
2018,39.83,2022-10-28 16:43:57.406250
2019,69.99,2022-10-28 16:43:57.421875
2020,92.24,2022-10-28 16:43:57.437500
2021,106.98,2022-10-28 16:43:57.453125
2022,115.18,2022-10-28 16:43:57.468750
2023,117.79,2022-10-28 16:43:57.484375
2024,115.66,2022-10-28 16:43:57.500000
2025,109.57,2022-10-28 16:43:57.515625
2026,100.5,2022-10-28 16:43:57.531250
2027,89.62,2022-10-28 16:43:57.546875
2028,78.22,2022-10-28 16:43:57.562500
2029,67.47,2022-10-28 16:43:57.578125
2030,58.23,2022-10-28 16:43:57.593750
2031,50.92,2022-10-28 16:43:57.609375
2032,45.53,2022-10-28 16:43:57.625000
2033,41.79,2022-10-28 16:43:57.640625
2034,39.31,2022-10-28 16:43:57.656250
2035,37.75,2022-10-28 16:43:57.671875
2036,36.91,2022-10-28 16:43:57.687500
2037,36.73,2022-10-28 16:43:57.703125
2038,37.11,2022-10-28 16:43:57.718750
2039,37.74,2022-10-28 16:43:57.734375
2040,37.98,2022-10-28 16:43:57.750000
2041,36.9,2022-10-28 16:43:57.765625
2042,33.49,2022-10-28 16:43:57.781250
2043,27.02,2022-10-28 16:43:57.796875
2044,17.34,2022-10-28 16:43:57.812500
2045,5.06,2022-10-28 16:43:57.828125
2046,-8.63,2022-10-28 16:43:57.843750
2047,-22.3,2022-10-28 16:43:57.859375
2048,-34.83,2022-10-28 16:43:57.875000
2049,-45.73,2022-10-28 16:43:57.890625
2050,-55.29,2022-10-28 16:43:57.906250
2051,-64.39,2022-10-28 16:43:57.921875
2052,-74.17,2022-10-28 16:43:57.937500
2053,-85.71,2022-10-28 16:43:57.953125
2054,-99.69,2022-10-28 16:43:57.968750
2055,-116.07,2022-10-28 16:43:57.984375
2056,-133.85,2022-10-28 16:43:58.000000
2057,-150.84,2022-10-28 16:43:58.015625
2058,-163.8,2022-10-28 16:43:58.031250
2059,-169.1,2022-10-28 16:43:58.046875
2060,-163.69,2022-10-28 16:43:58.062500
2061,-146.19,2022-10-28 16:43:58.078125
2062,-117.55,2022-10-28 16:43:58.093750
2063,-80.94,2022-10-28 16:43:58.109375
2064,-40.83,2022-10-28 16:43:58.125000
2065,-1.82,2022-10-28 16:43:58.140625
2066,32.54,2022-10-28 16:43:58.156250
2067,60.13,2022-10-28 16:43:58.171875
2068,80.19,2022-10-28 16:43:58.187500
2069,92.81,2022-10-28 16:43:58.203125
2070,98.56,2022-10-28 16:43:58.218750
2071,98.25,2022-10-28 16:43:58.234375
2072,92.99,2022-10-28 16:43:58.250000
2073,84.21,2022-10-28 16:43:58.265625
2074,73.59,2022-10-28 16:43:58.281250
2075,62.68,2022-10-28 16:43:58.296875
2076,52.66,2022-10-28 16:43:58.312500
2077,44.12,2022-10-28 16:43:58.328125
2078,37.2,2022-10-28 16:43:58.343750
2079,31.75,2022-10-28 16:43:58.359375
2080,27.65,2022-10-28 16:43:58.375000
2081,24.94,2022-10-28 16:43:58.390625
2082,23.89,2022-10-28 16:43:58.406250
2083,24.73,2022-10-28 16:43:58.421875
2084,27.53,2022-10-28 16:43:58.437500
2085,31.88,2022-10-28 16:43:58.453125
2086,36.8,2022-10-28 16:43:58.468750
2087,40.9,2022-10-28 16:43:58.484375
2088,42.68,2022-10-28 16:43:58.500000
2089,41.06,2022-10-28 16:43:58.515625
2090,35.77,2022-10-28 16:43:58.531250
2091,27.42,2022-10-28 16:43:58.546875
2092,17.34,2022-10-28 16:43:58.562500
2093,7.02,2022-10-28 16:43:58.578125
2094,-2.47,2022-10-28 16:43:58.593750
2095,-10.85,2022-10-28 16:43:58.609375
2096,-18.69,2022-10-28 16:43:58.625000
2097,-27.18,2022-10-28 16:43:58.640625
2098,-37.62,2022-10-28 16:43:58.656250
2099,-50.96,2022-10-28 16:43:58.671875
2100,-67.25,2022-10-28 16:43:58.687500
2101,-85.35,2022-10-28 16:43:58.703125
2102,-102.75,2022-10-28 16:43:58.718750
2103,-115.89,2022-10-28 16:43:58.734375
2104,-120.97,2022-10-28 16:43:58.750000
2105,-115.11,2022-10-28 16:43:58.765625
2106,-97.51,2022-10-28 16:43:58.781250
2107,-69.86,2022-10-28 16:43:58.796875
2108,-36.04,2022-10-28 16:43:58.812500
2109,-0.93,2022-10-28 16:43:58.828125
2110,31.1,2022-10-28 16:43:58.843750
2111,57.17,2022-10-28 16:43:58.859375
2112,76.19,2022-10-28 16:43:58.875000
2113,88.38,2022-10-28 16:43:58.890625
2114,94.47,2022-10-28 16:43:58.906250
2115,95.15,2022-10-28 16:43:58.921875
2116,90.91,2022-10-28 16:43:58.937500
2117,82.41,2022-10-28 16:43:58.953125
2118,70.74,2022-10-28 16:43:58.968750
2119,57.42,2022-10-28 16:43:58.984375
2120,44.15,2022-10-28 16:43:59.000000
2121,32.3,2022-10-28 16:43:59.015625
2122,22.63,2022-10-28 16:43:59.031250
2123,15.2,2022-10-28 16:43:59.046875
2124,9.72,2022-10-28 16:43:59.062500
2125,5.85,2022-10-28 16:43:59.078125
2126,3.49,2022-10-28 16:43:59.093750
2127,2.83,2022-10-28 16:43:59.109375
2128,4.0,2022-10-28 16:43:59.125000
2129,6.79,2022-10-28 16:43:59.140625
2130,10.39,2022-10-28 16:43:59.156250
2131,13.5,2022-10-28 16:43:59.171875
2132,14.68,2022-10-28 16:43:59.187500
2133,12.86,2022-10-28 16:43:59.203125
2134,7.72,2022-10-28 16:43:59.218750
2135,-0.17,2022-10-28 16:43:59.234375
2136,-9.67,2022-10-28 16:43:59.250000
2137,-19.48,2022-10-28 16:43:59.265625
2138,-28.72,2022-10-28 16:43:59.281250
2139,-37.2,2022-10-28 16:43:59.296875
2140,-45.5,2022-10-28 16:43:59.312500
2141,-54.73,2022-10-28 16:43:59.328125
2142,-66.2,2022-10-28 16:43:59.343750
2143,-80.92,2022-10-28 16:43:59.359375
2144,-98.95,2022-10-28 16:43:59.375000
2145,-118.89,2022-10-28 16:43:59.390625
2146,-137.71,2022-10-28 16:43:59.406250
2147,-151.18,2022-10-28 16:43:59.421875
2148,-154.99,2022-10-28 16:43:59.437500
2149,-146.21,2022-10-28 16:43:59.453125
2150,-124.41,2022-10-28 16:43:59.468750
2151,-92.01,2022-10-28 16:43:59.484375
2152,-53.55,2022-10-28 16:43:59.500000
2153,-14.31,2022-10-28 16:43:59.515625
2154,21.27,2022-10-28 16:43:59.531250
2155,50.38,2022-10-28 16:43:59.546875
2156,71.96,2022-10-28 16:43:59.562500
2157,86.04,2022-10-28 16:43:59.578125
2158,93.1,2022-10-28 16:43:59.593750
2159,93.65,2022-10-28 16:43:59.609375
2160,88.36,2022-10-28 16:43:59.625000
2161,78.33,2022-10-28 16:43:59.640625
2162,65.25,2022-10-28 16:43:59.656250
2163,51.16,2022-10-28 16:43:59.671875
2164,38.0,2022-10-28 16:43:59.687500
2165,27.07,2022-10-28 16:43:59.703125
2166,18.79,2022-10-28 16:43:59.718750
2167,12.84,2022-10-28 16:43:59.734375
2168,8.6,2022-10-28 16:43:59.750000
2169,5.68,2022-10-28 16:43:59.765625
2170,4.1,2022-10-28 16:43:59.781250
2171,4.22,2022-10-28 16:43:59.796875
2172,6.22,2022-10-28 16:43:59.812500
2173,9.67,2022-10-28 16:43:59.828125
2174,13.41,2022-10-28 16:43:59.843750
2175,15.77,2022-10-28 16:43:59.859375
2176,15.19,2022-10-28 16:43:59.875000
2177,10.75,2022-10-28 16:43:59.890625
2178,2.6,2022-10-28 16:43:59.906250
2179,-8.23,2022-10-28 16:43:59.921875
2180,-20.22,2022-10-28 16:43:59.937500
2181,-31.92,2022-10-28 16:43:59.953125
2182,-42.49,2022-10-28 16:43:59.968750
2183,-51.94,2022-10-28 16:43:59.984375
2184,-61.04,2022-10-28 16:44:00.000000
2185,-71.17,2022-10-28 16:44:00.015625
2186,-83.82,2022-10-28 16:44:00.031250
2187,-100.01,2022-10-28 16:44:00.046875
2188,-119.6,2022-10-28 16:44:00.062500
2189,-140.71,2022-10-28 16:44:00.078125
2190,-159.69,2022-10-28 16:44:00.093750
2191,-171.85,2022-10-28 16:44:00.109375
2192,-172.83,2022-10-28 16:44:00.125000
2193,-160.1,2022-10-28 16:44:00.140625
2194,-133.99,2022-10-28 16:44:00.156250
2195,-97.67,2022-10-28 16:44:00.171875
2196,-56.12,2022-10-28 16:44:00.187500
2197,-14.63,2022-10-28 16:44:00.203125
2198,22.61,2022-10-28 16:44:00.218750
2199,53.19,2022-10-28 16:44:00.234375
2200,76.31,2022-10-28 16:44:00.250000
2201,92.11,2022-10-28 16:44:00.265625
2202,101.13,2022-10-28 16:44:00.281250
2203,103.96,2022-10-28 16:44:00.296875
2204,101.36,2022-10-28 16:44:00.312500
2205,94.43,2022-10-28 16:44:00.328125
2206,84.69,2022-10-28 16:44:00.343750
2207,73.79,2022-10-28 16:44:00.359375
2208,63.17,2022-10-28 16:44:00.375000
2209,53.8,2022-10-28 16:44:00.390625
2210,46.06,2022-10-28 16:44:00.406250
2211,39.88,2022-10-28 16:44:00.421875
2212,35.05,2022-10-28 16:44:00.437500
2213,31.43,2022-10-28 16:44:00.453125
2214,29.17,2022-10-28 16:44:00.468750
2215,28.51,2022-10-28 16:44:00.484375
2216,29.59,2022-10-28 16:44:00.500000
2217,32.13,2022-10-28 16:44:00.515625
2218,35.26,2022-10-28 16:44:00.531250
2219,37.55,2022-10-28 16:44:00.546875
2220,37.46,2022-10-28 16:44:00.562500
2221,33.83,2022-10-28 16:44:00.578125
2222,26.38,2022-10-28 16:44:00.593750
2223,15.81,2022-10-28 16:44:00.609375
2224,3.54,2022-10-28 16:44:00.625000
2225,-8.93,2022-10-28 16:44:00.640625
2226,-20.62,2022-10-28 16:44:00.656250
2227,-31.4,2022-10-28 16:44:00.671875
2228,-42.02,2022-10-28 16:44:00.687500
2229,-53.82,2022-10-28 16:44:00.703125
2230,-68.19,2022-10-28 16:44:00.718750
2231,-86.05,2022-10-28 16:44:00.734375
2232,-107.23,2022-10-28 16:44:00.750000
2233,-130.0,2022-10-28 16:44:00.765625
2234,-151.05,2022-10-28 16:44:00.781250
2235,-165.95,2022-10-28 16:44:00.796875
2236,-170.32,2022-10-28 16:44:00.812500
2237,-161.15,2022-10-28 16:44:00.828125
2238,-137.98,2022-10-28 16:44:00.843750
2239,-103.26,2022-10-28 16:44:00.859375
2240,-61.65,2022-10-28 16:44:00.875000
2241,-18.7,2022-10-28 16:44:00.890625
2242,20.75,2022-10-28 16:44:00.906250
2243,53.54,2022-10-28 16:44:00.921875
2244,78.47,2022-10-28 16:44:00.937500
2245,95.81,2022-10-28 16:44:00.953125
2246,106.56,2022-10-28 16:44:00.968750
2247,111.75,2022-10-28 16:44:00.984375
2248,112.13,2022-10-28 16:44:01.000000
2249,108.33,2022-10-28 16:44:01.015625
2250,101.08,2022-10-28 16:44:01.031250
2251,91.44,2022-10-28 16:44:01.046875
2252,80.81,2022-10-28 16:44:01.062500
2253,70.69,2022-10-28 16:44:01.078125
2254,62.39,2022-10-28 16:44:01.093750
2255,56.61,2022-10-28 16:44:01.109375
2256,53.34,2022-10-28 16:44:01.125000
2257,51.97,2022-10-28 16:44:01.140625
2258,51.7,2022-10-28 16:44:01.156250
2259,51.87,2022-10-28 16:44:01.171875
2260,52.23,2022-10-28 16:44:01.187500
2261,52.86,2022-10-28 16:44:01.203125
2262,53.97,2022-10-28 16:44:01.218750
2263,55.5,2022-10-28 16:44:01.234375
2264,56.88,2022-10-28 16:44:01.250000
2265,57.09,2022-10-28 16:44:01.265625
2266,54.87,2022-10-28 16:44:01.281250
2267,49.11,2022-10-28 16:44:01.296875
2268,39.36,2022-10-28 16:44:01.312500
2269,25.97,2022-10-28 16:44:01.328125
2270,10.11,2022-10-28 16:44:01.343750
2271,-6.59,2022-10-28 16:44:01.359375
2272,-22.52,2022-10-28 16:44:01.375000
2273,-36.59,2022-10-28 16:44:01.390625
2274,-48.48,2022-10-28 16:44:01.406250
2275,-58.66,2022-10-28 16:44:01.421875
2276,-68.15,2022-10-28 16:44:01.437500
2277,-78.21,2022-10-28 16:44:01.453125
2278,-89.91,2022-10-28 16:44:01.468750
2279,-103.81,2022-10-28 16:44:01.484375
2280,-119.56,2022-10-28 16:44:01.500000
2281,-135.6,2022-10-28 16:44:01.515625
2282,-149.12,2022-10-28 16:44:01.531250
2283,-156.46,2022-10-28 16:44:01.546875
2284,-154.12,2022-10-28 16:44:01.562500
2285,-139.87,2022-10-28 16:44:01.578125
2286,-113.78,2022-10-28 16:44:01.593750
2287,-78.54,2022-10-28 16:44:01.609375
2288,-38.67,2022-10-28 16:44:01.625000
2289,0.81,2022-10-28 16:44:01.640625
2290,35.88,2022-10-28 16:44:01.656250
2291,64.49,2022-10-28 16:44:01.671875
2292,86.51,2022-10-28 16:44:01.687500
2293,102.92,2022-10-28 16:44:01.703125
2294,114.71,2022-10-28 16:44:01.718750
2295,122.26,2022-10-28 16:44:01.734375
2296,125.26,2022-10-28 16:44:01.750000
2297,123.38,2022-10-28 16:44:01.765625
2298,116.87,2022-10-28 16:44:01.781250
2299,106.94,2022-10-28 16:44:01.796875
2300,95.51,2022-10-28 16:44:01.812500
2301,84.58,2022-10-28 16:44:01.828125
2302,75.51,2022-10-28 16:44:01.843750
2303,68.77,2022-10-28 16:44:01.859375
2304,63.95,2022-10-28 16:44:01.875000
2305,60.26,2022-10-28 16:44:01.890625
2306,57.06,2022-10-28 16:44:01.906250
2307,54.21,2022-10-28 16:44:01.921875
2308,51.99,2022-10-28 16:44:01.937500
2309,50.77,2022-10-28 16:44:01.953125
2310,50.64,2022-10-28 16:44:01.968750
2311,51.01,2022-10-28 16:44:01.984375
2312,50.76,2022-10-28 16:44:02.000000
2313,48.51,2022-10-28 16:44:02.015625
2314,43.19,2022-10-28 16:44:02.031250
2315,34.56,2022-10-28 16:44:02.046875
2316,23.25,2022-10-28 16:44:02.062500
2317,10.58,2022-10-28 16:44:02.078125
2318,-2.03,2022-10-28 16:44:02.093750
2319,-13.59,2022-10-28 16:44:02.109375
2320,-23.97,2022-10-28 16:44:02.125000
2321,-33.81,2022-10-28 16:44:02.140625
2322,-44.27,2022-10-28 16:44:02.156250
2323,-56.57,2022-10-28 16:44:02.171875
2324,-71.55,2022-10-28 16:44:02.187500
2325,-89.38,2022-10-28 16:44:02.203125
2326,-109.21,2022-10-28 16:44:02.218750
2327,-129.14,2022-10-28 16:44:02.234375
2328,-146.16,2022-10-28 16:44:02.250000
2329,-156.73,2022-10-28 16:44:02.265625
2330,-157.58,2022-10-28 16:44:02.281250
2331,-146.72,2022-10-28 16:44:02.296875
2332,-124.25,2022-10-28 16:44:02.312500
2333,-92.49,2022-10-28 16:44:02.328125
2334,-55.44,2022-10-28 16:44:02.343750
2335,-17.6,2022-10-28 16:44:02.359375
2336,17.11,2022-10-28 16:44:02.375000
2337,46.15,2022-10-28 16:44:02.390625
2338,68.38,2022-10-28 16:44:02.406250
2339,83.76,2022-10-28 16:44:02.421875
2340,92.7,2022-10-28 16:44:02.437500
2341,95.75,2022-10-28 16:44:02.453125
2342,93.45,2022-10-28 16:44:02.468750
2343,86.55,2022-10-28 16:44:02.484375
2344,76.11,2022-10-28 16:44:02.500000
2345,63.66,2022-10-28 16:44:02.515625
2346,50.99,2022-10-28 16:44:02.531250
2347,39.82,2022-10-28 16:44:02.546875
2348,31.52,2022-10-28 16:44:02.562500
2349,26.79,2022-10-28 16:44:02.578125
2350,25.56,2022-10-28 16:44:02.593750
2351,27.18,2022-10-28 16:44:02.609375
2352,30.66,2022-10-28 16:44:02.625000
2353,34.97,2022-10-28 16:44:02.640625
2354,39.32,2022-10-28 16:44:02.656250
2355,43.14,2022-10-28 16:44:02.671875
2356,46.07,2022-10-28 16:44:02.687500
2357,47.82,2022-10-28 16:44:02.703125
2358,48.09,2022-10-28 16:44:02.718750
2359,46.55,2022-10-28 16:44:02.734375
2360,42.89,2022-10-28 16:44:02.750000
2361,36.86,2022-10-28 16:44:02.765625
2362,28.39,2022-10-28 16:44:02.781250
2363,17.64,2022-10-28 16:44:02.796875
2364,5.13,2022-10-28 16:44:02.812500
2365,-8.31,2022-10-28 16:44:02.828125
2366,-21.73,2022-10-28 16:44:02.843750
2367,-34.26,2022-10-28 16:44:02.859375
2368,-45.46,2022-10-28 16:44:02.875000
2369,-55.47,2022-10-28 16:44:02.890625
2370,-65.03,2022-10-28 16:44:02.906250
2371,-75.27,2022-10-28 16:44:02.921875
2372,-87.39,2022-10-28 16:44:02.937500
2373,-102.31,2022-10-28 16:44:02.953125
2374,-120.1,2022-10-28 16:44:02.968750
2375,-139.52,2022-10-28 16:44:02.984375
2376,-157.81,2022-10-28 16:44:03.000000
2377,-170.96,2022-10-28 16:44:03.015625
2378,-174.71,2022-10-28 16:44:03.031250
2379,-165.8,2022-10-28 16:44:03.046875
2380,-143.24,2022-10-28 16:44:03.062500
2381,-108.82,2022-10-28 16:44:03.078125
2382,-66.67,2022-10-28 16:44:03.093750
2383,-22.08,2022-10-28 16:44:03.109375
2384,20.01,2022-10-28 16:44:03.125000
2385,56.03,2022-10-28 16:44:03.140625
2386,84.2,2022-10-28 16:44:03.156250
2387,104.22,2022-10-28 16:44:03.171875
2388,116.69,2022-10-28 16:44:03.187500
2389,122.56,2022-10-28 16:44:03.203125
2390,122.81,2022-10-28 16:44:03.218750
2391,118.43,2022-10-28 16:44:03.234375
2392,110.54,2022-10-28 16:44:03.250000
2393,100.43,2022-10-28 16:44:03.265625
2394,89.54,2022-10-28 16:44:03.281250
2395,79.25,2022-10-28 16:44:03.296875
2396,70.69,2022-10-28 16:44:03.312500
2397,64.49,2022-10-28 16:44:03.328125
2398,60.68,2022-10-28 16:44:03.343750
2399,58.79,2022-10-28 16:44:03.359375
2400,58.09,2022-10-28 16:44:03.375000
2401,57.9,2022-10-28 16:44:03.390625
2402,57.88,2022-10-28 16:44:03.406250
2403,58.04,2022-10-28 16:44:03.421875
2404,58.55,2022-10-28 16:44:03.437500
2405,59.4,2022-10-28 16:44:03.453125
2406,60.13,2022-10-28 16:44:03.468750
2407,59.79,2022-10-28 16:44:03.484375
2408,57.2,2022-10-28 16:44:03.500000
2409,51.33,2022-10-28 16:44:03.515625
2410,41.81,2022-10-28 16:44:03.531250
2411,29.12,2022-10-28 16:44:03.546875
2412,14.44,2022-10-28 16:44:03.562500
2413,-0.73,2022-10-28 16:44:03.578125
2414,-15.09,2022-10-28 16:44:03.593750
2415,-27.98,2022-10-28 16:44:03.609375
2416,-39.5,2022-10-28 16:44:03.625000
2417,-50.35,2022-10-28 16:44:03.640625
2418,-61.58,2022-10-28 16:44:03.656250
2419,-74.28,2022-10-28 16:44:03.671875
2420,-89.34,2022-10-28 16:44:03.687500
2421,-107.07,2022-10-28 16:44:03.703125
2422,-126.79,2022-10-28 16:44:03.718750
2423,-146.45,2022-10-28 16:44:03.734375
2424,-162.62,2022-10-28 16:44:03.750000
2425,-171.1,2022-10-28 16:44:03.765625
2426,-168.14,2022-10-28 16:44:03.781250
2427,-151.68,2022-10-28 16:44:03.796875
2428,-122.35,2022-10-28 16:44:03.812500
2429,-83.38,2022-10-28 16:44:03.828125
2430,-39.7,2022-10-28 16:44:03.843750
2431,3.53,2022-10-28 16:44:03.859375
2432,42.15,2022-10-28 16:44:03.875000
2433,73.73,2022-10-28 16:44:03.890625
2434,97.36,2022-10-28 16:44:03.906250
2435,113.22,2022-10-28 16:44:03.921875
2436,122.04,2022-10-28 16:44:03.937500
2437,124.78,2022-10-28 16:44:03.953125
2438,122.56,2022-10-28 16:44:03.968750
2439,116.67,2022-10-28 16:44:03.984375
2440,108.44,2022-10-28 16:44:04.000000
2441,99.03,2022-10-28 16:44:04.015625
2442,89.38,2022-10-28 16:44:04.031250
2443,80.13,2022-10-28 16:44:04.046875
2444,71.8,2022-10-28 16:44:04.062500
2445,64.93,2022-10-28 16:44:04.078125
2446,60.07,2022-10-28 16:44:04.093750
2447,57.65,2022-10-28 16:44:04.109375
2448,57.73,2022-10-28 16:44:04.125000
2449,59.88,2022-10-28 16:44:04.140625
2450,63.24,2022-10-28 16:44:04.156250
2451,66.72,2022-10-28 16:44:04.171875
2452,69.26,2022-10-28 16:44:04.187500
2453,70.11,2022-10-28 16:44:04.203125
2454,68.91,2022-10-28 16:44:04.218750
2455,65.67,2022-10-28 16:44:04.234375
2456,60.62,2022-10-28 16:44:04.250000
2457,54.02,2022-10-28 16:44:04.265625
2458,46.02,2022-10-28 16:44:04.281250
2459,36.55,2022-10-28 16:44:04.296875
2460,25.48,2022-10-28 16:44:04.312500
2461,12.75,2022-10-28 16:44:04.328125
2462,-1.43,2022-10-28 16:44:04.343750
2463,-16.48,2022-10-28 16:44:04.359375
2464,-31.56,2022-10-28 16:44:04.375000
2465,-45.8,2022-10-28 16:44:04.390625
2466,-58.57,2022-10-28 16:44:04.406250
2467,-69.72,2022-10-28 16:44:04.421875
2468,-79.6,2022-10-28 16:44:04.437500
2469,-89.06,2022-10-28 16:44:04.453125
2470,-99.27,2022-10-28 16:44:04.468750
2471,-111.43,2022-10-28 16:44:04.484375
2472,-126.2,2022-10-28 16:44:04.500000
2473,-143.15,2022-10-28 16:44:04.515625
2474,-160.32,2022-10-28 16:44:04.531250
2475,-174.17,2022-10-28 16:44:04.546875
2476,-180.42,2022-10-28 16:44:04.562500
2477,-175.26,2022-10-28 16:44:04.578125
2478,-156.81,2022-10-28 16:44:04.593750
2479,-125.95,2022-10-28 16:44:04.609375
2480,-86.21,2022-10-28 16:44:04.625000
2481,-42.67,2022-10-28 16:44:04.640625
2482,-0.45,2022-10-28 16:44:04.656250
2483,36.53,2022-10-28 16:44:04.671875
2484,66.25,2022-10-28 16:44:04.687500
2485,88.26,2022-10-28 16:44:04.703125
2486,103.11,2022-10-28 16:44:04.718750
2487,111.61,2022-10-28 16:44:04.734375
2488,114.48,2022-10-28 16:44:04.750000
2489,112.35,2022-10-28 16:44:04.765625
2490,105.94,2022-10-28 16:44:04.781250
2491,96.22,2022-10-28 16:44:04.796875
2492,84.53,2022-10-28 16:44:04.812500
2493,72.35,2022-10-28 16:44:04.828125
2494,61.17,2022-10-28 16:44:04.843750
2495,52.17,2022-10-28 16:44:04.859375
2496,46.06,2022-10-28 16:44:04.875000
2497,43.01,2022-10-28 16:44:04.890625
2498,42.64,2022-10-28 16:44:04.906250
2499,44.24,2022-10-28 16:44:04.921875
2500,46.95,2022-10-28 16:44:04.937500
2501,50.01,2022-10-28 16:44:04.953125
2502,52.82,2022-10-28 16:44:04.968750
2503,54.96,2022-10-28 16:44:04.984375
2504,56.09,2022-10-28 16:44:05.000000
2505,55.91,2022-10-28 16:44:05.015625
2506,54.11,2022-10-28 16:44:05.031250
2507,50.42,2022-10-28 16:44:05.046875
2508,44.61,2022-10-28 16:44:05.062500
2509,36.6,2022-10-28 16:44:05.078125
2510,26.5,2022-10-28 16:44:05.093750
2511,14.67,2022-10-28 16:44:05.109375
2512,1.64,2022-10-28 16:44:05.125000
2513,-11.89,2022-10-28 16:44:05.140625
2514,-25.27,2022-10-28 16:44:05.156250
2515,-37.97,2022-10-28 16:44:05.171875
2516,-49.76,2022-10-28 16:44:05.187500
2517,-60.68,2022-10-28 16:44:05.203125
2518,-71.14,2022-10-28 16:44:05.218750
2519,-81.87,2022-10-28 16:44:05.234375
2520,-93.81,2022-10-28 16:44:05.250000
2521,-107.76,2022-10-28 16:44:05.265625
2522,-123.82,2022-10-28 16:44:05.281250
2523,-140.81,2022-10-28 16:44:05.296875
2524,-155.98,2022-10-28 16:44:05.312500
2525,-165.48,2022-10-28 16:44:05.328125
2526,-165.37,2022-10-28 16:44:05.343750
2527,-153.03,2022-10-28 16:44:05.359375
2528,-128.27,2022-10-28 16:44:05.375000
2529,-93.46,2022-10-28 16:44:05.390625
2530,-52.9,2022-10-28 16:44:05.406250
2531,-11.51,2022-10-28 16:44:05.421875
2532,26.46,2022-10-28 16:44:05.437500
2533,58.19,2022-10-28 16:44:05.453125
2534,82.36,2022-10-28 16:44:05.468750
2535,98.84,2022-10-28 16:44:05.484375
2536,108.14,2022-10-28 16:44:05.500000
2537,111.1,2022-10-28 16:44:05.515625
2538,108.71,2022-10-28 16:44:05.531250
2539,102.06,2022-10-28 16:44:05.546875
2540,92.35,2022-10-28 16:44:05.562500
2541,80.81,2022-10-28 16:44:05.578125
2542,68.71,2022-10-28 16:44:05.593750
2543,57.17,2022-10-28 16:44:05.609375
2544,47.2,2022-10-28 16:44:05.625000
2545,39.46,2022-10-28 16:44:05.640625
2546,34.29,2022-10-28 16:44:05.656250
2547,31.61,2022-10-28 16:44:05.671875
2548,31.04,2022-10-28 16:44:05.687500
2549,32.06,2022-10-28 16:44:05.703125
2550,34.13,2022-10-28 16:44:05.718750
2551,36.8,2022-10-28 16:44:05.734375
2552,39.61,2022-10-28 16:44:05.750000
2553,42.11,2022-10-28 16:44:05.765625
2554,43.68,2022-10-28 16:44:05.781250
2555,43.64,2022-10-28 16:44:05.796875
2556,41.27,2022-10-28 16:44:05.812500
2557,36.09,2022-10-28 16:44:05.828125
2558,27.96,2022-10-28 16:44:05.843750
2559,17.28,2022-10-28 16:44:05.859375
2560,4.87,2022-10-28 16:44:05.875000
2561,-8.21,2022-10-28 16:44:05.890625
2562,-21.0,2022-10-28 16:44:05.906250
2563,-32.9,2022-10-28 16:44:05.921875
2564,-43.84,2022-10-28 16:44:05.937500
2565,-54.22,2022-10-28 16:44:05.953125
2566,-64.75,2022-10-28 16:44:05.968750
2567,-76.25,2022-10-28 16:44:05.984375
2568,-89.53,2022-10-28 16:44:06.000000
2569,-105.09,2022-10-28 16:44:06.015625
2570,-122.76,2022-10-28 16:44:06.031250
2571,-141.26,2022-10-28 16:44:06.046875
2572,-157.93,2022-10-28 16:44:06.062500
2573,-169.01,2022-10-28 16:44:06.078125
2574,-170.58,2022-10-28 16:44:06.093750
2575,-159.82,2022-10-28 16:44:06.109375
2576,-136.12,2022-10-28 16:44:06.125000
2577,-101.6,2022-10-28 16:44:06.140625
2578,-60.41,2022-10-28 16:44:06.156250
2579,-17.62,2022-10-28 16:44:06.171875
2580,22.24,2022-10-28 16:44:06.187500
2581,56.09,2022-10-28 16:44:06.203125
2582,82.51,2022-10-28 16:44:06.218750
2583,101.32,2022-10-28 16:44:06.234375
2584,113.06,2022-10-28 16:44:06.250000
2585,118.52,2022-10-28 16:44:06.265625
2586,118.56,2022-10-28 16:44:06.281250
2587,114.15,2022-10-28 16:44:06.296875
2588,106.34,2022-10-28 16:44:06.312500
2589,96.28,2022-10-28 16:44:06.328125
2590,85.09,2022-10-28 16:44:06.343750
2591,73.78,2022-10-28 16:44:06.359375
2592,63.24,2022-10-28 16:44:06.375000
2593,54.26,2022-10-28 16:44:06.390625
2594,47.43,2022-10-28 16:44:06.406250
2595,43.15,2022-10-28 16:44:06.421875
2596,41.52,2022-10-28 16:44:06.437500
2597,42.28,2022-10-28 16:44:06.453125
2598,44.85,2022-10-28 16:44:06.468750
2599,48.43,2022-10-28 16:44:06.484375
2600,52.09,2022-10-28 16:44:06.500000
2601,54.9,2022-10-28 16:44:06.515625
2602,56.15,2022-10-28 16:44:06.531250
2603,55.38,2022-10-28 16:44:06.546875
2604,52.46,2022-10-28 16:44:06.562500
2605,47.5,2022-10-28 16:44:06.578125
2606,40.74,2022-10-28 16:44:06.593750
2607,32.38,2022-10-28 16:44:06.609375
2608,22.57,2022-10-28 16:44:06.625000
2609,11.41,2022-10-28 16:44:06.640625
2610,-0.89,2022-10-28 16:44:06.656250
2611,-13.92,2022-10-28 16:44:06.671875
2612,-27.08,2022-10-28 16:44:06.687500
2613,-39.74,2022-10-28 16:44:06.703125
2614,-51.45,2022-10-28 16:44:06.718750
2615,-62.1,2022-10-28 16:44:06.734375
2616,-72.0,2022-10-28 16:44:06.750000
2617,-81.8,2022-10-28 16:44:06.765625
2618,-92.44,2022-10-28 16:44:06.781250
2619,-104.9,2022-10-28 16:44:06.796875
2620,-119.76,2022-10-28 16:44:06.812500
2621,-136.65,2022-10-28 16:44:06.828125
2622,-153.76,2022-10-28 16:44:06.843750
2623,-167.81,2022-10-28 16:44:06.859375
2624,-174.59,2022-10-28 16:44:06.875000
2625,-170.29,2022-10-28 16:44:06.890625
2626,-152.86,2022-10-28 16:44:06.906250
2627,-122.98,2022-10-28 16:44:06.921875
2628,-83.96,2022-10-28 16:44:06.937500
2629,-40.81,2022-10-28 16:44:06.953125
2630,1.31,2022-10-28 16:44:06.968750
2631,38.39,2022-10-28 16:44:06.984375
2632,68.16,2022-10-28 16:44:07.000000
2633,89.99,2022-10-28 16:44:07.015625
2634,104.29,2022-10-28 16:44:07.031250
2635,111.96,2022-10-28 16:44:07.046875
2636,113.97,2022-10-28 16:44:07.062500
2637,111.3,2022-10-28 16:44:07.078125
2638,104.95,2022-10-28 16:44:07.093750
2639,95.92,2022-10-28 16:44:07.109375
2640,85.21,2022-10-28 16:44:07.125000
2641,73.78,2022-10-28 16:44:07.140625
2642,62.57,2022-10-28 16:44:07.156250
2643,52.52,2022-10-28 16:44:07.171875
2644,44.49,2022-10-28 16:44:07.187500
2645,39.14,2022-10-28 16:44:07.203125
2646,36.73,2022-10-28 16:44:07.218750
2647,37.03,2022-10-28 16:44:07.234375
2648,39.36,2022-10-28 16:44:07.250000
2649,42.76,2022-10-28 16:44:07.265625
2650,46.28,2022-10-28 16:44:07.281250
2651,49.17,2022-10-28 16:44:07.296875
2652,50.91,2022-10-28 16:44:07.312500
2653,51.26,2022-10-28 16:44:07.328125
2654,50.07,2022-10-28 16:44:07.343750
2655,47.22,2022-10-28 16:44:07.359375
2656,42.53,2022-10-28 16:44:07.375000
2657,35.86,2022-10-28 16:44:07.390625
2658,27.13,2022-10-28 16:44:07.406250
2659,16.49,2022-10-28 16:44:07.421875
2660,4.38,2022-10-28 16:44:07.437500
2661,-8.54,2022-10-28 16:44:07.453125
2662,-21.51,2022-10-28 16:44:07.468750
2663,-33.92,2022-10-28 16:44:07.484375
2664,-45.44,2022-10-28 16:44:07.500000
2665,-56.1,2022-10-28 16:44:07.515625
2666,-66.27,2022-10-28 16:44:07.531250
2667,-76.57,2022-10-28 16:44:07.546875
2668,-87.82,2022-10-28 16:44:07.562500
2669,-100.78,2022-10-28 16:44:07.578125
2670,-115.84,2022-10-28 16:44:07.593750
2671,-132.37,2022-10-28 16:44:07.609375
2672,-148.36,2022-10-28 16:44:07.625000
2673,-160.49,2022-10-28 16:44:07.640625
2674,-164.76,2022-10-28 16:44:07.656250
2675,-157.79,2022-10-28 16:44:07.671875
2676,-138.13,2022-10-28 16:44:07.687500
2677,-107.03,2022-10-28 16:44:07.703125
2678,-68.17,2022-10-28 16:44:07.718750
2679,-26.61,2022-10-28 16:44:07.734375
2680,12.74,2022-10-28 16:44:07.750000
2681,46.38,2022-10-28 16:44:07.765625
2682,72.64,2022-10-28 16:44:07.781250
2683,91.42,2022-10-28 16:44:07.796875
2684,103.42,2022-10-28 16:44:07.812500
2685,109.53,2022-10-28 16:44:07.828125
2686,110.44,2022-10-28 16:44:07.843750
2687,106.74,2022-10-28 16:44:07.859375
2688,99.04,2022-10-28 16:44:07.875000
2689,88.23,2022-10-28 16:44:07.890625
2690,75.48,2022-10-28 16:44:07.906250
2691,62.19,2022-10-28 16:44:07.921875
2692,49.78,2022-10-28 16:44:07.937500
2693,39.47,2022-10-28 16:44:07.953125
2694,32.03,2022-10-28 16:44:07.968750
2695,27.71,2022-10-28 16:44:07.984375
2696,26.21,2022-10-28 16:44:08.000000
2697,26.89,2022-10-28 16:44:08.015625
2698,28.94,2022-10-28 16:44:08.031250
2699,31.67,2022-10-28 16:44:08.046875
2700,34.56,2022-10-28 16:44:08.062500
2701,37.27,2022-10-28 16:44:08.078125
2702,39.43,2022-10-28 16:44:08.093750
2703,40.55,2022-10-28 16:44:08.109375
2704,40.0,2022-10-28 16:44:08.125000
2705,37.17,2022-10-28 16:44:08.140625
2706,31.66,2022-10-28 16:44:08.156250
2707,23.56,2022-10-28 16:44:08.171875
2708,13.41,2022-10-28 16:44:08.187500
2709,2.12,2022-10-28 16:44:08.203125
2710,-9.34,2022-10-28 16:44:08.218750
2711,-20.25,2022-10-28 16:44:08.234375
2712,-30.3,2022-10-28 16:44:08.250000
2713,-39.66,2022-10-28 16:44:08.265625
2714,-48.73,2022-10-28 16:44:08.281250
2715,-58.14,2022-10-28 16:44:08.296875
2716,-68.66,2022-10-28 16:44:08.312500
2717,-81.14,2022-10-28 16:44:08.328125
2718,-96.21,2022-10-28 16:44:08.343750
2719,-113.79,2022-10-28 16:44:08.359375
2720,-132.44,2022-10-28 16:44:08.375000
2721,-149.11,2022-10-28 16:44:08.390625
2722,-159.64,2022-10-28 16:44:08.406250
2723,-159.93,2022-10-28 16:44:08.421875
2724,-147.5,2022-10-28 16:44:08.437500
2725,-122.51,2022-10-28 16:44:08.453125
2726,-87.89,2022-10-28 16:44:08.468750
2727,-48.31,2022-10-28 16:44:08.484375
2728,-8.72,2022-10-28 16:44:08.500000
2729,26.97,2022-10-28 16:44:08.515625
2730,56.51,2022-10-28 16:44:08.531250
2731,79.05,2022-10-28 16:44:08.546875
2732,94.6,2022-10-28 16:44:08.562500
2733,103.42,2022-10-28 16:44:08.578125
2734,105.85,2022-10-28 16:44:08.593750
2735,102.38,2022-10-28 16:44:08.609375
2736,93.87,2022-10-28 16:44:08.625000
2737,81.64,2022-10-28 16:44:08.640625
2738,67.37,2022-10-28 16:44:08.656250
2739,52.87,2022-10-28 16:44:08.671875
2740,39.75,2022-10-28 16:44:08.687500
2741,29.14,2022-10-28 16:44:08.703125
2742,21.57,2022-10-28 16:44:08.718750
2743,16.9,2022-10-28 16:44:08.734375
2744,14.57,2022-10-28 16:44:08.750000
2745,13.93,2022-10-28 16:44:08.765625
2746,14.5,2022-10-28 16:44:08.781250
2747,16.12,2022-10-28 16:44:08.796875
2748,18.8,2022-10-28 16:44:08.812500
2749,22.33,2022-10-28 16:44:08.828125
2750,26.12,2022-10-28 16:44:08.843750
2751,29.07,2022-10-28 16:44:08.859375
2752,29.93,2022-10-28 16:44:08.875000
2753,27.63,2022-10-28 16:44:08.890625
2754,21.76,2022-10-28 16:44:08.906250
2755,12.73,2022-10-28 16:44:08.921875
2756,1.55,2022-10-28 16:44:08.937500
2757,-10.44,2022-10-28 16:44:08.953125
2758,-22.08,2022-10-28 16:44:08.968750
2759,-32.64,2022-10-28 16:44:08.984375
2760,-42.07,2022-10-28 16:44:09.000000
2761,-50.82,2022-10-28 16:44:09.015625
2762,-59.74,2022-10-28 16:44:09.031250
2763,-69.9,2022-10-28 16:44:09.046875
2764,-82.26,2022-10-28 16:44:09.062500
2765,-97.46,2022-10-28 16:44:09.078125
2766,-115.29,2022-10-28 16:44:09.093750
2767,-134.23,2022-10-28 16:44:09.109375
2768,-151.31,2022-10-28 16:44:09.125000
2769,-162.5,2022-10-28 16:44:09.140625
2770,-163.77,2022-10-28 16:44:09.156250
2771,-152.41,2022-10-28 16:44:09.171875
2772,-128.13,2022-10-28 16:44:09.187500
2773,-93.36,2022-10-28 16:44:09.203125
2774,-52.51,2022-10-28 16:44:09.218750
2775,-10.64,2022-10-28 16:44:09.234375
2776,27.85,2022-10-28 16:44:09.250000
2777,60.11,2022-10-28 16:44:09.265625
2778,84.92,2022-10-28 16:44:09.281250
2779,102.2,2022-10-28 16:44:09.296875
2780,112.42,2022-10-28 16:44:09.312500
2781,116.27,2022-10-28 16:44:09.328125
2782,114.52,2022-10-28 16:44:09.343750
2783,108.1,2022-10-28 16:44:09.359375
2784,98.18,2022-10-28 16:44:09.375000
2785,86.1,2022-10-28 16:44:09.390625
2786,73.23,2022-10-28 16:44:09.406250
2787,60.83,2022-10-28 16:44:09.421875
2788,49.94,2022-10-28 16:44:09.437500
2789,41.26,2022-10-28 16:44:09.453125
2790,35.19,2022-10-28 16:44:09.468750
2791,31.77,2022-10-28 16:44:09.484375
2792,30.77,2022-10-28 16:44:09.500000
2793,31.71,2022-10-28 16:44:09.515625
2794,33.99,2022-10-28 16:44:09.531250
2795,36.92,2022-10-28 16:44:09.546875
2796,39.78,2022-10-28 16:44:09.562500
2797,41.91,2022-10-28 16:44:09.578125
2798,42.76,2022-10-28 16:44:09.593750
2799,41.93,2022-10-28 16:44:09.609375
2800,39.26,2022-10-28 16:44:09.625000
2801,34.63,2022-10-28 16:44:09.640625
2802,28.06,2022-10-28 16:44:09.656250
2803,19.58,2022-10-28 16:44:09.671875
2804,9.4,2022-10-28 16:44:09.687500
2805,-2.13,2022-10-28 16:44:09.703125
2806,-14.5,2022-10-28 16:44:09.718750
2807,-27.08,2022-10-28 16:44:09.734375
2808,-39.36,2022-10-28 16:44:09.750000
2809,-51.02,2022-10-28 16:44:09.765625
2810,-62.0,2022-10-28 16:44:09.781250
2811,-72.56,2022-10-28 16:44:09.796875
2812,-83.22,2022-10-28 16:44:09.812500
2813,-94.77,2022-10-28 16:44:09.828125
2814,-108.1,2022-10-28 16:44:09.843750
2815,-123.75,2022-10-28 16:44:09.859375
2816,-141.36,2022-10-28 16:44:09.875000
2817,-159.07,2022-10-28 16:44:09.890625
2818,-173.55,2022-10-28 16:44:09.906250
2819,-180.61,2022-10-28 16:44:09.921875
2820,-176.48,2022-10-28 16:44:09.937500
2821,-159.2,2022-10-28 16:44:09.953125
2822,-129.47,2022-10-28 16:44:09.968750
2823,-90.52,2022-10-28 16:44:09.984375
2824,-47.19,2022-10-28 16:44:10.000000
2825,-4.46,2022-10-28 16:44:10.015625
2826,33.7,2022-10-28 16:44:10.031250
2827,64.96,2022-10-28 16:44:10.046875
2828,88.51,2022-10-28 16:44:10.062500
2829,104.48,2022-10-28 16:44:10.078125
2830,113.5,2022-10-28 16:44:10.093750
2831,116.27,2022-10-28 16:44:10.109375
2832,113.64,2022-10-28 16:44:10.125000
2833,106.58,2022-10-28 16:44:10.140625
2834,96.31,2022-10-28 16:44:10.156250
2835,84.15,2022-10-28 16:44:10.171875
2836,71.5,2022-10-28 16:44:10.187500
2837,59.59,2022-10-28 16:44:10.203125
2838,49.44,2022-10-28 16:44:10.218750
2839,41.76,2022-10-28 16:44:10.234375
2840,36.82,2022-10-28 16:44:10.250000
2841,34.55,2022-10-28 16:44:10.265625
2842,34.51,2022-10-28 16:44:10.281250
2843,36.07,2022-10-28 16:44:10.296875
2844,38.55,2022-10-28 16:44:10.312500
2845,41.33,2022-10-28 16:44:10.328125
2846,43.93,2022-10-28 16:44:10.343750
2847,45.89,2022-10-28 16:44:10.359375
2848,46.83,2022-10-28 16:44:10.375000
2849,46.33,2022-10-28 16:44:10.390625
2850,43.93,2022-10-28 16:44:10.406250
2851,39.28,2022-10-28 16:44:10.421875
2852,32.21,2022-10-28 16:44:10.437500
2853,22.79,2022-10-28 16:44:10.453125
2854,11.37,2022-10-28 16:44:10.468750
2855,-1.42,2022-10-28 16:44:10.484375
2856,-14.85,2022-10-28 16:44:10.500000
2857,-28.18,2022-10-28 16:44:10.515625
2858,-40.85,2022-10-28 16:44:10.531250
2859,-52.67,2022-10-28 16:44:10.546875
2860,-63.84,2022-10-28 16:44:10.562500
2861,-74.96,2022-10-28 16:44:10.578125
2862,-86.98,2022-10-28 16:44:10.593750
2863,-100.89,2022-10-28 16:44:10.609375
2864,-117.36,2022-10-28 16:44:10.625000
2865,-136.07,2022-10-28 16:44:10.640625
2866,-155.26,2022-10-28 16:44:10.656250
2867,-171.59,2022-10-28 16:44:10.671875
2868,-180.78,2022-10-28 16:44:10.687500
2869,-178.84,2022-10-28 16:44:10.703125
2870,-163.5,2022-10-28 16:44:10.718750
2871,-135.12,2022-10-28 16:44:10.734375
2872,-96.77,2022-10-28 16:44:10.750000
2873,-53.24,2022-10-28 16:44:10.765625
2874,-9.69,2022-10-28 16:44:10.781250
2875,29.73,2022-10-28 16:44:10.796875
2876,62.41,2022-10-28 16:44:10.812500
2877,87.3,2022-10-28 16:44:10.828125
2878,104.35,2022-10-28 16:44:10.843750
2879,114.06,2022-10-28 16:44:10.859375
2880,117.17,2022-10-28 16:44:10.875000
2881,114.65,2022-10-28 16:44:10.890625
2882,107.7,2022-10-28 16:44:10.906250
2883,97.71,2022-10-28 16:44:10.921875
2884,86.06,2022-10-28 16:44:10.937500
2885,73.97,2022-10-28 16:44:10.953125
2886,62.45,2022-10-28 16:44:10.968750
2887,52.31,2022-10-28 16:44:10.984375
2888,44.15,2022-10-28 16:44:11.000000
2889,38.45,2022-10-28 16:44:11.015625
2890,35.42,2022-10-28 16:44:11.031250
2891,35.02,2022-10-28 16:44:11.046875
2892,36.8,2022-10-28 16:44:11.062500
2893,40.05,2022-10-28 16:44:11.078125
2894,43.86,2022-10-28 16:44:11.093750
2895,47.38,2022-10-28 16:44:11.109375
2896,49.92,2022-10-28 16:44:11.125000
2897,51.06,2022-10-28 16:44:11.140625
2898,50.54,2022-10-28 16:44:11.156250
2899,48.17,2022-10-28 16:44:11.171875
2900,43.73,2022-10-28 16:44:11.187500
2901,37.06,2022-10-28 16:44:11.203125
2902,28.08,2022-10-28 16:44:11.218750
2903,17.02,2022-10-28 16:44:11.234375
2904,4.36,2022-10-28 16:44:11.250000
2905,-9.18,2022-10-28 16:44:11.265625
2906,-22.91,2022-10-28 16:44:11.281250
2907,-36.25,2022-10-28 16:44:11.296875
2908,-48.95,2022-10-28 16:44:11.312500
2909,-61.0,2022-10-28 16:44:11.328125
2910,-72.69,2022-10-28 16:44:11.343750
2911,-84.62,2022-10-28 16:44:11.359375
2912,-97.67,2022-10-28 16:44:11.375000
2913,-112.78,2022-10-28 16:44:11.390625
2914,-130.42,2022-10-28 16:44:11.406250
2915,-149.85,2022-10-28 16:44:11.421875
2916,-168.67,2022-10-28 16:44:11.437500
2917,-182.9,2022-10-28 16:44:11.453125
2918,-187.94,2022-10-28 16:44:11.468750
2919,-180.11,2022-10-28 16:44:11.484375
2920,-158.05,2022-10-28 16:44:11.500000
2921,-123.42,2022-10-28 16:44:11.515625
2922,-80.47,2022-10-28 16:44:11.531250
2923,-34.67,2022-10-28 16:44:11.546875
2924,8.83,2022-10-28 16:44:11.562500
2925,46.41,2022-10-28 16:44:11.578125
2926,76.29,2022-10-28 16:44:11.593750
2927,98.13,2022-10-28 16:44:11.609375
2928,112.39,2022-10-28 16:44:11.625000
2929,119.73,2022-10-28 16:44:11.640625
2930,120.86,2022-10-28 16:44:11.656250
2931,116.57,2022-10-28 16:44:11.671875
2932,107.88,2022-10-28 16:44:11.687500
2933,96.12,2022-10-28 16:44:11.703125
2934,82.82,2022-10-28 16:44:11.718750
2935,69.55,2022-10-28 16:44:11.734375
2936,57.68,2022-10-28 16:44:11.750000
2937,48.28,2022-10-28 16:44:11.765625
2938,41.93,2022-10-28 16:44:11.781250
2939,38.69,2022-10-28 16:44:11.796875
2940,38.19,2022-10-28 16:44:11.812500
2941,39.77,2022-10-28 16:44:11.828125
2942,42.65,2022-10-28 16:44:11.843750
2943,46.12,2022-10-28 16:44:11.859375
2944,49.54,2022-10-28 16:44:11.875000
2945,52.41,2022-10-28 16:44:11.890625
2946,54.24,2022-10-28 16:44:11.906250
2947,54.62,2022-10-28 16:44:11.921875
2948,53.11,2022-10-28 16:44:11.937500
2949,49.33,2022-10-28 16:44:11.953125
2950,43.02,2022-10-28 16:44:11.968750
2951,34.14,2022-10-28 16:44:11.984375
2952,23.0,2022-10-28 16:44:12.000000
2953,10.22,2022-10-28 16:44:12.015625
2954,-3.32,2022-10-28 16:44:12.031250
2955,-16.74,2022-10-28 16:44:12.046875
2956,-29.42,2022-10-28 16:44:12.062500
2957,-41.18,2022-10-28 16:44:12.078125
2958,-52.31,2022-10-28 16:44:12.093750
2959,-63.41,2022-10-28 16:44:12.109375
2960,-75.22,2022-10-28 16:44:12.125000
2961,-88.41,2022-10-28 16:44:12.140625
2962,-103.51,2022-10-28 16:44:12.156250
2963,-120.61,2022-10-28 16:44:12.171875
2964,-139.01,2022-10-28 16:44:12.187500
2965,-156.8,2022-10-28 16:44:12.203125
2966,-170.81,2022-10-28 16:44:12.218750
2967,-177.12,2022-10-28 16:44:12.234375
2968,-172.26,2022-10-28 16:44:12.250000
2969,-154.43,2022-10-28 16:44:12.265625
2970,-124.45,2022-10-28 16:44:12.281250
2971,-85.67,2022-10-28 16:44:12.296875
2972,-42.9,2022-10-28 16:44:12.312500
2973,-1.03,2022-10-28 16:44:12.328125
2974,36.23,2022-10-28 16:44:12.343750
2975,66.82,2022-10-28 16:44:12.359375
2976,90.08,2022-10-28 16:44:12.375000
2977,106.06,2022-10-28 16:44:12.390625
2978,115.0,2022-10-28 16:44:12.406250
2979,117.19,2022-10-28 16:44:12.421875
2980,113.15,2022-10-28 16:44:12.437500
2981,103.95,2022-10-28 16:44:12.453125
2982,91.23,2022-10-28 16:44:12.468750
2983,77.06,2022-10-28 16:44:12.484375
2984,63.52,2022-10-28 16:44:12.500000
2985,52.3,2022-10-28 16:44:12.515625
2986,44.36,2022-10-28 16:44:12.531250
2987,39.83,2022-10-28 16:44:12.546875
2988,38.13,2022-10-28 16:44:12.562500
2989,38.3,2022-10-28 16:44:12.578125
2990,39.47,2022-10-28 16:44:12.593750
2991,41.09,2022-10-28 16:44:12.609375
2992,43.12,2022-10-28 16:44:12.625000
2993,45.69,2022-10-28 16:44:12.640625
2994,48.73,2022-10-28 16:44:12.656250
2995,51.67,2022-10-28 16:44:12.671875
2996,53.34,2022-10-28 16:44:12.687500
2997,52.43,2022-10-28 16:44:12.703125
2998,47.93,2022-10-28 16:44:12.718750
2999,39.66,2022-10-28 16:44:12.734375
3000,28.37,2022-10-28 16:44:12.750000
3001,15.43,2022-10-28 16:44:12.765625
3002,2.33,2022-10-28 16:44:12.781250
3003,-9.9,2022-10-28 16:44:12.796875
3004,-20.88,2022-10-28 16:44:12.812500
3005,-30.92,2022-10-28 16:44:12.828125
3006,-40.74,2022-10-28 16:44:12.843750
3007,-51.19,2022-10-28 16:44:12.859375
3008,-63.1,2022-10-28 16:44:12.875000
3009,-77.14,2022-10-28 16:44:12.890625
3010,-93.49,2022-10-28 16:44:12.906250
3011,-111.51,2022-10-28 16:44:12.921875
3012,-129.32,2022-10-28 16:44:12.937500
3013,-143.69,2022-10-28 16:44:12.953125
3014,-150.7,2022-10-28 16:44:12.968750
3015,-146.88,2022-10-28 16:44:12.984375
3016,-130.48,2022-10-28 16:44:13.000000
3017,-102.39,2022-10-28 16:44:13.015625
3018,-65.97,2022-10-28 16:44:13.031250
3019,-26.05,2022-10-28 16:44:13.046875
3020,12.55,2022-10-28 16:44:13.062500
3021,46.23,2022-10-28 16:44:13.078125
3022,73.15,2022-10-28 16:44:13.093750
3023,92.99,2022-10-28 16:44:13.109375
3024,106.17,2022-10-28 16:44:13.125000
3025,113.31,2022-10-28 16:44:13.140625
3026,114.84,2022-10-28 16:44:13.156250
3027,111.23,2022-10-28 16:44:13.171875
3028,103.22,2022-10-28 16:44:13.187500
3029,92.04,2022-10-28 16:44:13.203125
3030,79.4,2022-10-28 16:44:13.218750
3031,67.11,2022-10-28 16:44:13.234375
3032,56.74,2022-10-28 16:44:13.250000
3033,49.23,2022-10-28 16:44:13.265625
3034,44.76,2022-10-28 16:44:13.281250
3035,42.85,2022-10-28 16:44:13.296875
3036,42.65,2022-10-28 16:44:13.312500
3037,43.36,2022-10-28 16:44:13.328125
3038,44.45,2022-10-28 16:44:13.343750
3039,45.72,2022-10-28 16:44:13.359375
3040,47.13,2022-10-28 16:44:13.375000
3041,48.59,2022-10-28 16:44:13.390625
3042,49.73,2022-10-28 16:44:13.406250
3043,49.89,2022-10-28 16:44:13.421875
3044,48.32,2022-10-28 16:44:13.437500
3045,44.35,2022-10-28 16:44:13.453125
3046,37.71,2022-10-28 16:44:13.468750
3047,28.54,2022-10-28 16:44:13.484375
3048,17.42,2022-10-28 16:44:13.500000
3049,5.17,2022-10-28 16:44:13.515625
3050,-7.44,2022-10-28 16:44:13.531250
3051,-19.82,2022-10-28 16:44:13.546875
3052,-31.7,2022-10-28 16:44:13.562500
3053,-43.07,2022-10-28 16:44:13.578125
3054,-54.15,2022-10-28 16:44:13.593750
3055,-65.28,2022-10-28 16:44:13.609375
3056,-77.07,2022-10-28 16:44:13.625000
3057,-90.22,2022-10-28 16:44:13.640625
3058,-105.38,2022-10-28 16:44:13.656250
3059,-122.5,2022-10-28 16:44:13.671875
3060,-140.27,2022-10-28 16:44:13.687500
3061,-155.89,2022-10-28 16:44:13.703125
3062,-165.49,2022-10-28 16:44:13.718750
3063,-165.31,2022-10-28 16:44:13.734375
3064,-152.98,2022-10-28 16:44:13.750000
3065,-128.47,2022-10-28 16:44:13.765625
3066,-94.12,2022-10-28 16:44:13.781250
3067,-53.85,2022-10-28 16:44:13.796875
3068,-11.98,2022-10-28 16:44:13.812500
3069,27.74,2022-10-28 16:44:13.828125
3070,62.65,2022-10-28 16:44:13.843750
3071,91.09,2022-10-28 16:44:13.859375
3072,112.19,2022-10-28 16:44:13.875000
3073,125.64,2022-10-28 16:44:13.890625
3074,131.73,2022-10-28 16:44:13.906250
3075,131.33,2022-10-28 16:44:13.921875
3076,125.86,2022-10-28 16:44:13.937500
3077,117.0,2022-10-28 16:44:13.953125
3078,106.41,2022-10-28 16:44:13.968750
3079,95.51,2022-10-28 16:44:13.984375
3080,85.4,2022-10-28 16:44:14.000000
3081,76.86,2022-10-28 16:44:14.015625
3082,70.32,2022-10-28 16:44:14.031250
3083,65.91,2022-10-28 16:44:14.046875
3084,63.43,2022-10-28 16:44:14.062500
3085,62.5,2022-10-28 16:44:14.078125
3086,62.71,2022-10-28 16:44:14.093750
3087,63.7,2022-10-28 16:44:14.109375
3088,65.19,2022-10-28 16:44:14.125000
3089,66.89,2022-10-28 16:44:14.140625
3090,68.39,2022-10-28 16:44:14.156250
3091,69.03,2022-10-28 16:44:14.171875
3092,67.99,2022-10-28 16:44:14.187500
3093,64.45,2022-10-28 16:44:14.203125
3094,57.82,2022-10-28 16:44:14.218750
3095,47.98,2022-10-28 16:44:14.234375
3096,35.36,2022-10-28 16:44:14.250000
3097,20.92,2022-10-28 16:44:14.265625
3098,5.89,2022-10-28 16:44:14.281250
3099,-8.54,2022-10-28 16:44:14.296875
3100,-21.64,2022-10-28 16:44:14.312500
3101,-33.28,2022-10-28 16:44:14.328125
3102,-43.96,2022-10-28 16:44:14.343750
3103,-54.68,2022-10-28 16:44:14.359375
3104,-66.62,2022-10-28 16:44:14.375000
3105,-80.79,2022-10-28 16:44:14.390625
3106,-97.66,2022-10-28 16:44:14.406250
3107,-116.67,2022-10-28 16:44:14.421875
3108,-135.93,2022-10-28 16:44:14.437500
3109,-152.35,2022-10-28 16:44:14.453125
3110,-162.15,2022-10-28 16:44:14.468750
3111,-161.9,2022-10-28 16:44:14.484375
3112,-149.68,2022-10-28 16:44:14.500000
3113,-125.78,2022-10-28 16:44:14.515625
3114,-92.86,2022-10-28 16:44:14.531250
3115,-55.11,2022-10-28 16:44:14.546875
3116,-17.11,2022-10-28 16:44:14.562500
3117,17.38,2022-10-28 16:44:14.578125
3118,46.05,2022-10-28 16:44:14.593750
3119,68.08,2022-10-28 16:44:14.609375
3120,83.63,2022-10-28 16:44:14.625000
3121,93.27,2022-10-28 16:44:14.640625
3122,97.65,2022-10-28 16:44:14.656250
3123,97.36,2022-10-28 16:44:14.671875
3124,93.14,2022-10-28 16:44:14.687500
3125,85.91,2022-10-28 16:44:14.703125
3126,76.81,2022-10-28 16:44:14.718750
3127,67.09,2022-10-28 16:44:14.734375
3128,57.88,2022-10-28 16:44:14.750000
3129,50.05,2022-10-28 16:44:14.765625
3130,44.18,2022-10-28 16:44:14.781250
3131,40.57,2022-10-28 16:44:14.796875
3132,39.26,2022-10-28 16:44:14.812500
3133,40.04,2022-10-28 16:44:14.828125
3134,42.44,2022-10-28 16:44:14.843750
3135,45.78,2022-10-28 16:44:14.859375
3136,49.28,2022-10-28 16:44:14.875000
3137,52.22,2022-10-28 16:44:14.890625
3138,54.05,2022-10-28 16:44:14.906250
3139,54.45,2022-10-28 16:44:14.921875
