,BVP,time
0,11.98,2022-10-28 10:32:04.984375
1,15.84,2022-10-28 10:32:05.000000
2,19.99,2022-10-28 10:32:05.015625
3,29.09,2022-10-28 10:32:05.031250
4,46.43,2022-10-28 10:32:05.046875
5,73.23,2022-10-28 10:32:05.062500
6,108.12,2022-10-28 10:32:05.078125
7,146.87,2022-10-28 10:32:05.093750
8,182.9,2022-10-28 10:32:05.109375
9,208.65,2022-10-28 10:32:05.125000
10,217.95,2022-10-28 10:32:05.140625
11,208.29,2022-10-28 10:32:05.156250
12,182.11,2022-10-28 10:32:05.171875
13,146.27,2022-10-28 10:32:05.187500
14,109.54,2022-10-28 10:32:05.203125
15,79.37,2022-10-28 10:32:05.218750
16,59.49,2022-10-28 10:32:05.234375
17,49.44,2022-10-28 10:32:05.250000
18,46.1,2022-10-28 10:32:05.265625
19,46.1,2022-10-28 10:32:05.281250
20,47.73,2022-10-28 10:32:05.296875
21,51.21,2022-10-28 10:32:05.312500
22,57.79,2022-10-28 10:32:05.328125
23,68.28,2022-10-28 10:32:05.343750
24,81.79,2022-10-28 10:32:05.359375
25,95.72,2022-10-28 10:32:05.375000
26,106.56,2022-10-28 10:32:05.390625
27,110.88,2022-10-28 10:32:05.406250
28,105.87,2022-10-28 10:32:05.421875
29,89.53,2022-10-28 10:32:05.437500
30,60.79,2022-10-28 10:32:05.453125
31,19.93,2022-10-28 10:32:05.468750
32,-30.45,2022-10-28 10:32:05.484375
33,-84.8,2022-10-28 10:32:05.500000
34,-134.98,2022-10-28 10:32:05.515625
35,-172.07,2022-10-28 10:32:05.531250
36,-189.03,2022-10-28 10:32:05.546875
37,-183.12,2022-10-28 10:32:05.562500
38,-156.75,2022-10-28 10:32:05.578125
39,-116.41,2022-10-28 10:32:05.593750
40,-70.48,2022-10-28 10:32:05.609375
41,-27.02,2022-10-28 10:32:05.625000
42,7.74,2022-10-28 10:32:05.640625
43,29.73,2022-10-28 10:32:05.656250
44,36.99,2022-10-28 10:32:05.671875
45,29.78,2022-10-28 10:32:05.687500
46,10.88,2022-10-28 10:32:05.703125
47,-14.39,2022-10-28 10:32:05.718750
48,-39.16,2022-10-28 10:32:05.734375
49,-57.07,2022-10-28 10:32:05.750000
50,-64.68,2022-10-28 10:32:05.765625
51,-62.77,2022-10-28 10:32:05.781250
52,-55.67,2022-10-28 10:32:05.796875
53,-48.81,2022-10-28 10:32:05.812500
54,-45.82,2022-10-28 10:32:05.828125
55,-46.64,2022-10-28 10:32:05.843750
56,-48.0,2022-10-28 10:32:05.859375
57,-45.74,2022-10-28 10:32:05.875000
58,-37.63,2022-10-28 10:32:05.890625
59,-24.87,2022-10-28 10:32:05.906250
60,-11.69,2022-10-28 10:32:05.921875
61,-3.07,2022-10-28 10:32:05.937500
62,-2.48,2022-10-28 10:32:05.953125
63,-10.32,2022-10-28 10:32:05.968750
64,-24.08,2022-10-28 10:32:05.984375
65,-39.56,2022-10-28 10:32:06.000000
66,-52.37,2022-10-28 10:32:06.015625
67,-58.82,2022-10-28 10:32:06.031250
68,-56.01,2022-10-28 10:32:06.046875
69,-42.11,2022-10-28 10:32:06.062500
70,-16.85,2022-10-28 10:32:06.078125
71,17.28,2022-10-28 10:32:06.093750
72,54.59,2022-10-28 10:32:06.109375
73,86.65,2022-10-28 10:32:06.125000
74,104.21,2022-10-28 10:32:06.140625
75,99.81,2022-10-28 10:32:06.156250
76,70.31,2022-10-28 10:32:06.171875
77,18.15,2022-10-28 10:32:06.187500
78,-48.76,2022-10-28 10:32:06.203125
79,-119.01,2022-10-28 10:32:06.218750
80,-180.7,2022-10-28 10:32:06.234375
81,-224.44,2022-10-28 10:32:06.250000
82,-245.71,2022-10-28 10:32:06.265625
83,-244.87,2022-10-28 10:32:06.281250
84,-225.57,2022-10-28 10:32:06.296875
85,-192.72,2022-10-28 10:32:06.312500
86,-151.24,2022-10-28 10:32:06.328125
87,-105.85,2022-10-28 10:32:06.343750
88,-61.67,2022-10-28 10:32:06.359375
89,-24.63,2022-10-28 10:32:06.375000
90,-0.46,2022-10-28 10:32:06.390625
91,7.41,2022-10-28 10:32:06.406250
92,-0.14,2022-10-28 10:32:06.421875
93,-17.29,2022-10-28 10:32:06.437500
94,-35.29,2022-10-28 10:32:06.453125
95,-45.57,2022-10-28 10:32:06.468750
96,-42.82,2022-10-28 10:32:06.484375
97,-25.99,2022-10-28 10:32:06.500000
98,2.68,2022-10-28 10:32:06.515625
99,39.63,2022-10-28 10:32:06.531250
100,82.53,2022-10-28 10:32:06.546875
101,130.46,2022-10-28 10:32:06.562500
102,183.63,2022-10-28 10:32:06.578125
103,242.24,2022-10-28 10:32:06.593750
104,305.91,2022-10-28 10:32:06.609375
105,373.03,2022-10-28 10:32:06.625000
106,441.0,2022-10-28 10:32:06.640625
107,506.61,2022-10-28 10:32:06.656250
108,566.73,2022-10-28 10:32:06.671875
109,618.31,2022-10-28 10:32:06.687500
110,658.93,2022-10-28 10:32:06.703125
111,687.1,2022-10-28 10:32:06.718750
112,702.35,2022-10-28 10:32:06.734375
113,705.31,2022-10-28 10:32:06.750000
114,697.19,2022-10-28 10:32:06.765625
115,679.35,2022-10-28 10:32:06.781250
116,652.84,2022-10-28 10:32:06.796875
117,618.1,2022-10-28 10:32:06.812500
118,575.51,2022-10-28 10:32:06.828125
119,525.88,2022-10-28 10:32:06.843750
120,470.76,2022-10-28 10:32:06.859375
121,412.52,2022-10-28 10:32:06.875000
122,353.98,2022-10-28 10:32:06.890625
123,297.4,2022-10-28 10:32:06.906250
124,243.49,2022-10-28 10:32:06.921875
125,190.94,2022-10-28 10:32:06.937500
126,136.82,2022-10-28 10:32:06.953125
127,77.85,2022-10-28 10:32:06.968750
128,11.48,2022-10-28 10:32:06.984375
129,-63.09,2022-10-28 10:32:07.000000
130,-144.52,2022-10-28 10:32:07.015625
131,-229.8,2022-10-28 10:32:07.031250
132,-314.46,2022-10-28 10:32:07.046875
133,-392.34,2022-10-28 10:32:07.062500
134,-455.58,2022-10-28 10:32:07.078125
135,-496.75,2022-10-28 10:32:07.093750
136,-510.05,2022-10-28 10:32:07.109375
137,-494.91,2022-10-28 10:32:07.125000
138,-457.22,2022-10-28 10:32:07.140625
139,-408.17,2022-10-28 10:32:07.156250
140,-360.69,2022-10-28 10:32:07.171875
141,-324.23,2022-10-28 10:32:07.187500
142,-301.79,2022-10-28 10:32:07.203125
143,-290.33,2022-10-28 10:32:07.218750
144,-284.25,2022-10-28 10:32:07.234375
145,-280.04,2022-10-28 10:32:07.250000
146,-279.01,2022-10-28 10:32:07.265625
147,-285.75,2022-10-28 10:32:07.281250
148,-303.89,2022-10-28 10:32:07.296875
149,-332.33,2022-10-28 10:32:07.312500
150,-364.45,2022-10-28 10:32:07.328125
151,-390.62,2022-10-28 10:32:07.343750
152,-402.85,2022-10-28 10:32:07.359375
153,-398.76,2022-10-28 10:32:07.375000
154,-382.14,2022-10-28 10:32:07.390625
155,-360.07,2022-10-28 10:32:07.406250
156,-337.88,2022-10-28 10:32:07.421875
157,-316.79,2022-10-28 10:32:07.437500
158,-293.67,2022-10-28 10:32:07.453125
159,-263.19,2022-10-28 10:32:07.468750
160,-221.68,2022-10-28 10:32:07.484375
161,-168.74,2022-10-28 10:32:07.500000
162,-106.93,2022-10-28 10:32:07.515625
163,-39.76,2022-10-28 10:32:07.531250
164,29.36,2022-10-28 10:32:07.546875
165,97.83,2022-10-28 10:32:07.562500
166,163.74,2022-10-28 10:32:07.578125
167,224.46,2022-10-28 10:32:07.593750
168,277.69,2022-10-28 10:32:07.609375
169,321.45,2022-10-28 10:32:07.625000
170,354.4,2022-10-28 10:32:07.640625
171,376.25,2022-10-28 10:32:07.656250
172,386.67,2022-10-28 10:32:07.671875
173,385.26,2022-10-28 10:32:07.687500
174,372.2,2022-10-28 10:32:07.703125
175,349.11,2022-10-28 10:32:07.718750
176,320.02,2022-10-28 10:32:07.734375
177,290.39,2022-10-28 10:32:07.750000
178,264.89,2022-10-28 10:32:07.765625
179,244.8,2022-10-28 10:32:07.781250
180,226.47,2022-10-28 10:32:07.796875
181,202.14,2022-10-28 10:32:07.812500
182,162.82,2022-10-28 10:32:07.828125
183,101.57,2022-10-28 10:32:07.843750
184,15.74,2022-10-28 10:32:07.859375
185,-91.67,2022-10-28 10:32:07.875000
186,-212.13,2022-10-28 10:32:07.890625
187,-333.69,2022-10-28 10:32:07.906250
188,-443.13,2022-10-28 10:32:07.921875
189,-530.22,2022-10-28 10:32:07.937500
190,-591.38,2022-10-28 10:32:07.953125
191,-630.86,2022-10-28 10:32:07.968750
192,-658.51,2022-10-28 10:32:07.984375
193,-686.01,2022-10-28 10:32:08.000000
194,-721.96,2022-10-28 10:32:08.015625
195,-769.95,2022-10-28 10:32:08.031250
196,-829.1,2022-10-28 10:32:08.046875
197,-896.47,2022-10-28 10:32:08.062500
198,-969.0,2022-10-28 10:32:08.078125
199,-1042.82,2022-10-28 10:32:08.093750
200,-1111.61,2022-10-28 10:32:08.109375
201,-1165.67,2022-10-28 10:32:08.125000
202,-1193.25,2022-10-28 10:32:08.140625
203,-1184.22,2022-10-28 10:32:08.156250
204,-1133.72,2022-10-28 10:32:08.171875
205,-1043.82,2022-10-28 10:32:08.187500
206,-922.48,2022-10-28 10:32:08.203125
207,-779.81,2022-10-28 10:32:08.218750
208,-625.17,2022-10-28 10:32:08.234375
209,-465.86,2022-10-28 10:32:08.250000
210,-306.49,2022-10-28 10:32:08.265625
211,-150.26,2022-10-28 10:32:08.281250
212,1.52,2022-10-28 10:32:08.296875
213,148.23,2022-10-28 10:32:08.312500
214,289.92,2022-10-28 10:32:08.328125
215,426.2,2022-10-28 10:32:08.343750
216,554.85,2022-10-28 10:32:08.359375
217,671.24,2022-10-28 10:32:08.375000
218,769.42,2022-10-28 10:32:08.390625
219,843.38,2022-10-28 10:32:08.406250
220,889.56,2022-10-28 10:32:08.421875
221,908.24,2022-10-28 10:32:08.437500
222,904.19,2022-10-28 10:32:08.453125
223,885.15,2022-10-28 10:32:08.468750
224,859.38,2022-10-28 10:32:08.484375
225,833.46,2022-10-28 10:32:08.500000
226,810.19,2022-10-28 10:32:08.515625
227,788.59,2022-10-28 10:32:08.531250
228,765.61,2022-10-28 10:32:08.546875
229,738.21,2022-10-28 10:32:08.562500
230,705.09,2022-10-28 10:32:08.578125
231,666.96,2022-10-28 10:32:08.593750
232,624.9,2022-10-28 10:32:08.609375
233,578.73,2022-10-28 10:32:08.625000
234,526.58,2022-10-28 10:32:08.640625
235,465.45,2022-10-28 10:32:08.656250
236,393.75,2022-10-28 10:32:08.671875
237,314.97,2022-10-28 10:32:08.687500
238,236.72,2022-10-28 10:32:08.703125
239,168.9,2022-10-28 10:32:08.718750
240,118.33,2022-10-28 10:32:08.734375
241,84.53,2022-10-28 10:32:08.750000
242,59.34,2022-10-28 10:32:08.765625
243,30.96,2022-10-28 10:32:08.781250
244,-9.9,2022-10-28 10:32:08.796875
245,-65.5,2022-10-28 10:32:08.812500
246,-130.62,2022-10-28 10:32:08.828125
247,-195.58,2022-10-28 10:32:08.843750
248,-250.33,2022-10-28 10:32:08.859375
249,-287.89,2022-10-28 10:32:08.875000
250,-303.96,2022-10-28 10:32:08.890625
251,-296.17,2022-10-28 10:32:08.906250
252,-263.08,2022-10-28 10:32:08.921875
253,-205.92,2022-10-28 10:32:08.937500
254,-130.16,2022-10-28 10:32:08.953125
255,-45.14,2022-10-28 10:32:08.968750
256,37.84,2022-10-28 10:32:08.984375
257,110.39,2022-10-28 10:32:09.000000
258,168.78,2022-10-28 10:32:09.015625
259,213.94,2022-10-28 10:32:09.031250
260,248.0,2022-10-28 10:32:09.046875
261,270.96,2022-10-28 10:32:09.062500
262,280.3,2022-10-28 10:32:09.078125
263,272.97,2022-10-28 10:32:09.093750
264,248.65,2022-10-28 10:32:09.109375
265,210.77,2022-10-28 10:32:09.125000
266,165.59,2022-10-28 10:32:09.140625
267,119.56,2022-10-28 10:32:09.156250
268,75.65,2022-10-28 10:32:09.171875
269,33.89,2022-10-28 10:32:09.187500
270,-7.05,2022-10-28 10:32:09.203125
271,-47.15,2022-10-28 10:32:09.218750
272,-83.36,2022-10-28 10:32:09.234375
273,-110.88,2022-10-28 10:32:09.250000
274,-126.11,2022-10-28 10:32:09.265625
275,-129.16,2022-10-28 10:32:09.281250
276,-124.53,2022-10-28 10:32:09.296875
277,-118.57,2022-10-28 10:32:09.312500
278,-115.94,2022-10-28 10:32:09.328125
279,-117.45,2022-10-28 10:32:09.343750
280,-118.43,2022-10-28 10:32:09.359375
281,-110.69,2022-10-28 10:32:09.375000
282,-86.19,2022-10-28 10:32:09.390625
283,-41.19,2022-10-28 10:32:09.406250
284,21.47,2022-10-28 10:32:09.421875
285,91.39,2022-10-28 10:32:09.437500
286,153.62,2022-10-28 10:32:09.453125
287,193.8,2022-10-28 10:32:09.468750
288,203.74,2022-10-28 10:32:09.484375
289,185.35,2022-10-28 10:32:09.500000
290,150.09,2022-10-28 10:32:09.515625
291,115.52,2022-10-28 10:32:09.531250
292,97.4,2022-10-28 10:32:09.546875
293,103.44,2022-10-28 10:32:09.562500
294,131.44,2022-10-28 10:32:09.578125
295,170.37,2022-10-28 10:32:09.593750
296,206.97,2022-10-28 10:32:09.609375
297,231.08,2022-10-28 10:32:09.625000
298,239.59,2022-10-28 10:32:09.640625
299,236.64,2022-10-28 10:32:09.656250
300,229.33,2022-10-28 10:32:09.671875
301,223.87,2022-10-28 10:32:09.687500
302,222.87,2022-10-28 10:32:09.703125
303,224.43,2022-10-28 10:32:09.718750
304,224.7,2022-10-28 10:32:09.734375
305,220.47,2022-10-28 10:32:09.750000
306,210.89,2022-10-28 10:32:09.765625
307,197.87,2022-10-28 10:32:09.781250
308,184.08,2022-10-28 10:32:09.796875
309,170.97,2022-10-28 10:32:09.812500
310,158.43,2022-10-28 10:32:09.828125
311,144.16,2022-10-28 10:32:09.843750
312,125.08,2022-10-28 10:32:09.859375
313,99.66,2022-10-28 10:32:09.875000
314,69.72,2022-10-28 10:32:09.890625
315,40.15,2022-10-28 10:32:09.906250
316,17.89,2022-10-28 10:32:09.921875
317,9.34,2022-10-28 10:32:09.937500
318,18.19,2022-10-28 10:32:09.953125
319,43.33,2022-10-28 10:32:09.968750
320,79.62,2022-10-28 10:32:09.984375
321,118.7,2022-10-28 10:32:10.000000
322,150.93,2022-10-28 10:32:10.015625
323,167.79,2022-10-28 10:32:10.031250
324,163.55,2022-10-28 10:32:10.046875
325,137.06,2022-10-28 10:32:10.062500
326,92.16,2022-10-28 10:32:10.078125
327,35.24,2022-10-28 10:32:10.093750
328,-26.91,2022-10-28 10:32:10.109375
329,-90.3,2022-10-28 10:32:10.125000
330,-154.89,2022-10-28 10:32:10.140625
331,-222.88,2022-10-28 10:32:10.156250
332,-296.25,2022-10-28 10:32:10.171875
333,-373.6,2022-10-28 10:32:10.187500
334,-449.03,2022-10-28 10:32:10.203125
335,-514.57,2022-10-28 10:32:10.218750
336,-563.0,2022-10-28 10:32:10.234375
337,-590.03,2022-10-28 10:32:10.250000
338,-595.71,2022-10-28 10:32:10.265625
339,-582.58,2022-10-28 10:32:10.281250
340,-553.47,2022-10-28 10:32:10.296875
341,-511.57,2022-10-28 10:32:10.312500
342,-460.48,2022-10-28 10:32:10.328125
343,-404.98,2022-10-28 10:32:10.343750
344,-352.5,2022-10-28 10:32:10.359375
345,-311.26,2022-10-28 10:32:10.375000
346,-287.43,2022-10-28 10:32:10.390625
347,-282.03,2022-10-28 10:32:10.406250
348,-289.94,2022-10-28 10:32:10.421875
349,-302.1,2022-10-28 10:32:10.437500
350,-308.05,2022-10-28 10:32:10.453125
351,-301.16,2022-10-28 10:32:10.468750
352,-280.56,2022-10-28 10:32:10.484375
353,-251.35,2022-10-28 10:32:10.500000
354,-221.87,2022-10-28 10:32:10.515625
355,-198.83,2022-10-28 10:32:10.531250
356,-184.95,2022-10-28 10:32:10.546875
357,-177.6,2022-10-28 10:32:10.562500
358,-170.32,2022-10-28 10:32:10.578125
359,-156.89,2022-10-28 10:32:10.593750
360,-134.05,2022-10-28 10:32:10.609375
361,-103.34,2022-10-28 10:32:10.625000
362,-70.45,2022-10-28 10:32:10.640625
363,-42.59,2022-10-28 10:32:10.656250
364,-26.49,2022-10-28 10:32:10.671875
365,-26.15,2022-10-28 10:32:10.687500
366,-40.95,2022-10-28 10:32:10.703125
367,-66.63,2022-10-28 10:32:10.718750
368,-97.05,2022-10-28 10:32:10.734375
369,-126.56,2022-10-28 10:32:10.750000
370,-151.09,2022-10-28 10:32:10.765625
371,-168.65,2022-10-28 10:32:10.781250
372,-177.79,2022-10-28 10:32:10.796875
373,-176.8,2022-10-28 10:32:10.812500
374,-163.97,2022-10-28 10:32:10.828125
375,-138.71,2022-10-28 10:32:10.843750
376,-104.21,2022-10-28 10:32:10.859375
377,-66.73,2022-10-28 10:32:10.875000
378,-32.91,2022-10-28 10:32:10.890625
379,-5.51,2022-10-28 10:32:10.906250
380,20.48,2022-10-28 10:32:10.921875
381,55.14,2022-10-28 10:32:10.937500
382,108.29,2022-10-28 10:32:10.953125
383,182.34,2022-10-28 10:32:10.968750
384,268.81,2022-10-28 10:32:10.984375
385,352.78,2022-10-28 10:32:11.000000
386,420.02,2022-10-28 10:32:11.015625
387,463.95,2022-10-28 10:32:11.031250
388,486.97,2022-10-28 10:32:11.046875
389,495.99,2022-10-28 10:32:11.062500
390,496.75,2022-10-28 10:32:11.078125
391,490.34,2022-10-28 10:32:11.093750
392,474.65,2022-10-28 10:32:11.109375
393,448.94,2022-10-28 10:32:11.125000
394,416.26,2022-10-28 10:32:11.140625
395,382.81,2022-10-28 10:32:11.156250
396,353.42,2022-10-28 10:32:11.171875
397,328.07,2022-10-28 10:32:11.187500
398,301.71,2022-10-28 10:32:11.203125
399,268.29,2022-10-28 10:32:11.218750
400,225.97,2022-10-28 10:32:11.234375
401,179.06,2022-10-28 10:32:11.250000
402,136.8,2022-10-28 10:32:11.265625
403,108.05,2022-10-28 10:32:11.281250
404,96.83,2022-10-28 10:32:11.296875
405,99.09,2022-10-28 10:32:11.312500
406,104.43,2022-10-28 10:32:11.328125
407,100.71,2022-10-28 10:32:11.343750
408,79.58,2022-10-28 10:32:11.359375
409,39.88,2022-10-28 10:32:11.375000
410,-11.88,2022-10-28 10:32:11.390625
411,-64.04,2022-10-28 10:32:11.406250
412,-104.88,2022-10-28 10:32:11.421875
413,-127.22,2022-10-28 10:32:11.437500
414,-129.42,2022-10-28 10:32:11.453125
415,-114.49,2022-10-28 10:32:11.468750
416,-87.31,2022-10-28 10:32:11.484375
417,-51.83,2022-10-28 10:32:11.500000
418,-10.57,2022-10-28 10:32:11.515625
419,33.82,2022-10-28 10:32:11.531250
420,76.57,2022-10-28 10:32:11.546875
421,110.33,2022-10-28 10:32:11.562500
422,127.61,2022-10-28 10:32:11.578125
423,123.89,2022-10-28 10:32:11.593750
424,100.33,2022-10-28 10:32:11.609375
425,63.99,2022-10-28 10:32:11.625000
426,25.77,2022-10-28 10:32:11.640625
427,-3.15,2022-10-28 10:32:11.656250
428,-15.93,2022-10-28 10:32:11.671875
429,-11.36,2022-10-28 10:32:11.687500
430,5.7,2022-10-28 10:32:11.703125
431,26.92,2022-10-28 10:32:11.718750
432,44.76,2022-10-28 10:32:11.734375
433,54.55,2022-10-28 10:32:11.750000
434,55.75,2022-10-28 10:32:11.765625
435,49.59,2022-10-28 10:32:11.781250
436,37.24,2022-10-28 10:32:11.796875
437,18.33,2022-10-28 10:32:11.812500
438,-8.94,2022-10-28 10:32:11.828125
439,-45.58,2022-10-28 10:32:11.843750
440,-89.92,2022-10-28 10:32:11.859375
441,-136.36,2022-10-28 10:32:11.875000
442,-177.96,2022-10-28 10:32:11.890625
443,-208.87,2022-10-28 10:32:11.906250
444,-227.39,2022-10-28 10:32:11.921875
445,-237.29,2022-10-28 10:32:11.937500
446,-244.94,2022-10-28 10:32:11.953125
447,-257.12,2022-10-28 10:32:11.968750
448,-276.84,2022-10-28 10:32:11.984375
449,-301.31,2022-10-28 10:32:12.000000
450,-322.6,2022-10-28 10:32:12.015625
451,-329.82,2022-10-28 10:32:12.031250
452,-313.8,2022-10-28 10:32:12.046875
453,-271.52,2022-10-28 10:32:12.062500
454,-208.4,2022-10-28 10:32:12.078125
455,-137.63,2022-10-28 10:32:12.093750
456,-75.14,2022-10-28 10:32:12.109375
457,-34.58,2022-10-28 10:32:12.125000
458,-23.72,2022-10-28 10:32:12.140625
459,-42.36,2022-10-28 10:32:12.156250
460,-85.05,2022-10-28 10:32:12.171875
461,-143.08,2022-10-28 10:32:12.187500
462,-207.31,2022-10-28 10:32:12.203125
463,-269.74,2022-10-28 10:32:12.218750
464,-324.19,2022-10-28 10:32:12.234375
465,-367.9,2022-10-28 10:32:12.250000
466,-401.42,2022-10-28 10:32:12.265625
467,-428.58,2022-10-28 10:32:12.281250
468,-454.35,2022-10-28 10:32:12.296875
469,-481.77,2022-10-28 10:32:12.312500
470,-509.26,2022-10-28 10:32:12.328125
471,-529.62,2022-10-28 10:32:12.343750
472,-532.71,2022-10-28 10:32:12.359375
473,-509.47,2022-10-28 10:32:12.375000
474,-455.99,2022-10-28 10:32:12.390625
475,-374.92,2022-10-28 10:32:12.406250
476,-274.47,2022-10-28 10:32:12.421875
477,-165.72,2022-10-28 10:32:12.437500
478,-58.8,2022-10-28 10:32:12.453125
479,38.87,2022-10-28 10:32:12.468750
480,123.3,2022-10-28 10:32:12.484375
481,193.54,2022-10-28 10:32:12.500000
482,250.4,2022-10-28 10:32:12.515625
483,295.58,2022-10-28 10:32:12.531250
484,331.25,2022-10-28 10:32:12.546875
485,360.05,2022-10-28 10:32:12.562500
486,384.41,2022-10-28 10:32:12.578125
487,405.62,2022-10-28 10:32:12.593750
488,422.23,2022-10-28 10:32:12.609375
489,430.53,2022-10-28 10:32:12.625000
490,425.12,2022-10-28 10:32:12.640625
491,402.17,2022-10-28 10:32:12.656250
492,362.11,2022-10-28 10:32:12.671875
493,310.43,2022-10-28 10:32:12.687500
494,256.42,2022-10-28 10:32:12.703125
495,209.83,2022-10-28 10:32:12.718750
496,177.24,2022-10-28 10:32:12.734375
497,160.76,2022-10-28 10:32:12.750000
498,158.3,2022-10-28 10:32:12.765625
499,166.48,2022-10-28 10:32:12.781250
500,183.41,2022-10-28 10:32:12.796875
501,208.95,2022-10-28 10:32:12.812500
502,242.83,2022-10-28 10:32:12.828125
503,281.57,2022-10-28 10:32:12.843750
504,317.43,2022-10-28 10:32:12.859375
505,339.58,2022-10-28 10:32:12.875000
506,338.85,2022-10-28 10:32:12.890625
507,312.27,2022-10-28 10:32:12.906250
508,265.27,2022-10-28 10:32:12.921875
509,209.22,2022-10-28 10:32:12.937500
510,155.56,2022-10-28 10:32:12.953125
511,110.27,2022-10-28 10:32:12.968750
512,71.03,2022-10-28 10:32:12.984375
513,30.55,2022-10-28 10:32:13.000000
514,-17.43,2022-10-28 10:32:13.015625
515,-72.6,2022-10-28 10:32:13.031250
516,-126.65,2022-10-28 10:32:13.046875
517,-166.6,2022-10-28 10:32:13.062500
518,-181.05,2022-10-28 10:32:13.078125
519,-165.04,2022-10-28 10:32:13.093750
520,-122.86,2022-10-28 10:32:13.109375
521,-65.02,2022-10-28 10:32:13.125000
522,-4.34,2022-10-28 10:32:13.140625
523,48.01,2022-10-28 10:32:13.156250
524,85.59,2022-10-28 10:32:13.171875
525,106.49,2022-10-28 10:32:13.187500
526,112.5,2022-10-28 10:32:13.203125
527,107.42,2022-10-28 10:32:13.218750
528,95.07,2022-10-28 10:32:13.234375
529,78.49,2022-10-28 10:32:13.250000
530,58.96,2022-10-28 10:32:13.265625
531,36.37,2022-10-28 10:32:13.281250
532,10.3,2022-10-28 10:32:13.296875
533,-19.08,2022-10-28 10:32:13.312500
534,-50.41,2022-10-28 10:32:13.328125
535,-81.58,2022-10-28 10:32:13.343750
536,-110.13,2022-10-28 10:32:13.359375
537,-132.87,2022-10-28 10:32:13.375000
538,-145.81,2022-10-28 10:32:13.390625
539,-145.08,2022-10-28 10:32:13.406250
540,-128.41,2022-10-28 10:32:13.421875
541,-97.62,2022-10-28 10:32:13.437500
542,-59.79,2022-10-28 10:32:13.453125
543,-25.61,2022-10-28 10:32:13.468750
544,-5.1,2022-10-28 10:32:13.484375
545,-3.39,2022-10-28 10:32:13.500000
546,-18.87,2022-10-28 10:32:13.515625
547,-44.38,2022-10-28 10:32:13.531250
548,-70.97,2022-10-28 10:32:13.546875
549,-92.78,2022-10-28 10:32:13.562500
550,-108.04,2022-10-28 10:32:13.578125
551,-118.37,2022-10-28 10:32:13.593750
552,-126.32,2022-10-28 10:32:13.609375
553,-132.47,2022-10-28 10:32:13.625000
554,-135.12,2022-10-28 10:32:13.640625
555,-131.67,2022-10-28 10:32:13.656250
556,-120.42,2022-10-28 10:32:13.671875
557,-102.82,2022-10-28 10:32:13.687500
558,-83.19,2022-10-28 10:32:13.703125
559,-67.83,2022-10-28 10:32:13.718750
560,-63.28,2022-10-28 10:32:13.734375
561,-73.61,2022-10-28 10:32:13.750000
562,-98.78,2022-10-28 10:32:13.765625
563,-133.5,2022-10-28 10:32:13.781250
564,-168.95,2022-10-28 10:32:13.796875
565,-195.74,2022-10-28 10:32:13.812500
566,-207.72,2022-10-28 10:32:13.828125
567,-203.8,2022-10-28 10:32:13.843750
568,-187.62,2022-10-28 10:32:13.859375
569,-164.71,2022-10-28 10:32:13.875000
570,-138.83,2022-10-28 10:32:13.890625
571,-110.5,2022-10-28 10:32:13.906250
572,-77.71,2022-10-28 10:32:13.921875
573,-38.87,2022-10-28 10:32:13.937500
574,5.01,2022-10-28 10:32:13.953125
575,49.44,2022-10-28 10:32:13.968750
576,89.13,2022-10-28 10:32:13.984375
577,121.11,2022-10-28 10:32:14.000000
578,146.58,2022-10-28 10:32:14.015625
579,170.28,2022-10-28 10:32:14.031250
580,197.12,2022-10-28 10:32:14.046875
581,228.49,2022-10-28 10:32:14.062500
582,261.41,2022-10-28 10:32:14.078125
583,289.67,2022-10-28 10:32:14.093750
584,307.02,2022-10-28 10:32:14.109375
585,310.41,2022-10-28 10:32:14.125000
586,300.57,2022-10-28 10:32:14.140625
587,281.32,2022-10-28 10:32:14.156250
588,257.79,2022-10-28 10:32:14.171875
589,233.99,2022-10-28 10:32:14.187500
590,211.76,2022-10-28 10:32:14.203125
591,191.76,2022-10-28 10:32:14.218750
592,173.6,2022-10-28 10:32:14.234375
593,158.18,2022-10-28 10:32:14.250000
594,147.08,2022-10-28 10:32:14.265625
595,142.53,2022-10-28 10:32:14.281250
596,145.84,2022-10-28 10:32:14.296875
597,156.16,2022-10-28 10:32:14.312500
598,169.57,2022-10-28 10:32:14.328125
599,180.54,2022-10-28 10:32:14.343750
600,183.87,2022-10-28 10:32:14.359375
601,176.61,2022-10-28 10:32:14.375000
602,158.08,2022-10-28 10:32:14.390625
603,129.13,2022-10-28 10:32:14.406250
604,90.69,2022-10-28 10:32:14.421875
605,43.54,2022-10-28 10:32:14.437500
606,-10.17,2022-10-28 10:32:14.453125
607,-65.92,2022-10-28 10:32:14.468750
608,-117.13,2022-10-28 10:32:14.484375
609,-157.84,2022-10-28 10:32:14.500000
610,-186.46,2022-10-28 10:32:14.515625
611,-207.4,2022-10-28 10:32:14.531250
612,-228.51,2022-10-28 10:32:14.546875
613,-256.96,2022-10-28 10:32:14.562500
614,-295.22,2022-10-28 10:32:14.578125
615,-338.99,2022-10-28 10:32:14.593750
616,-380.43,2022-10-28 10:32:14.609375
617,-411.54,2022-10-28 10:32:14.625000
618,-427.43,2022-10-28 10:32:14.640625
619,-427.02,2022-10-28 10:32:14.656250
620,-411.54,2022-10-28 10:32:14.671875
621,-382.06,2022-10-28 10:32:14.687500
622,-339.49,2022-10-28 10:32:14.703125
623,-285.03,2022-10-28 10:32:14.718750
624,-221.77,2022-10-28 10:32:14.734375
625,-154.61,2022-10-28 10:32:14.750000
626,-88.31,2022-10-28 10:32:14.765625
627,-25.65,2022-10-28 10:32:14.781250
628,34.79,2022-10-28 10:32:14.796875
629,98.14,2022-10-28 10:32:14.812500
630,169.99,2022-10-28 10:32:14.828125
631,253.21,2022-10-28 10:32:14.843750
632,345.1,2022-10-28 10:32:14.859375
633,437.07,2022-10-28 10:32:14.875000
634,517.24,2022-10-28 10:32:14.890625
635,574.07,2022-10-28 10:32:14.906250
636,600.23,2022-10-28 10:32:14.921875
637,593.7,2022-10-28 10:32:14.937500
638,558.26,2022-10-28 10:32:14.953125
639,501.93,2022-10-28 10:32:14.968750
640,434.43,2022-10-28 10:32:14.984375
641,365.8,2022-10-28 10:32:15.000000
642,304.92,2022-10-28 10:32:15.015625
643,258.1,2022-10-28 10:32:15.031250
644,228.62,2022-10-28 10:32:15.046875
645,216.35,2022-10-28 10:32:15.062500
646,217.0,2022-10-28 10:32:15.078125
647,223.63,2022-10-28 10:32:15.093750
648,227.51,2022-10-28 10:32:15.109375
649,221.62,2022-10-28 10:32:15.125000
650,202.93,2022-10-28 10:32:15.140625
651,173.8,2022-10-28 10:32:15.156250
652,141.2,2022-10-28 10:32:15.171875
653,113.64,2022-10-28 10:32:15.187500
654,96.51,2022-10-28 10:32:15.203125
655,87.99,2022-10-28 10:32:15.218750
656,78.75,2022-10-28 10:32:15.234375
657,55.17,2022-10-28 10:32:15.250000
658,5.78,2022-10-28 10:32:15.265625
659,-72.8,2022-10-28 10:32:15.281250
660,-173.12,2022-10-28 10:32:15.296875
661,-279.3,2022-10-28 10:32:15.312500
662,-373.68,2022-10-28 10:32:15.328125
663,-443.79,2022-10-28 10:32:15.343750
664,-485.6,2022-10-28 10:32:15.359375
665,-503.36,2022-10-28 10:32:15.375000
666,-504.36,2022-10-28 10:32:15.390625
667,-495.57,2022-10-28 10:32:15.406250
668,-480.64,2022-10-28 10:32:15.421875
669,-460.92,2022-10-28 10:32:15.437500
670,-436.49,2022-10-28 10:32:15.453125
671,-407.25,2022-10-28 10:32:15.468750
672,-373.34,2022-10-28 10:32:15.484375
673,-333.67,2022-10-28 10:32:15.500000
674,-286.21,2022-10-28 10:32:15.515625
675,-229.48,2022-10-28 10:32:15.531250
676,-163.61,2022-10-28 10:32:15.546875
677,-91.65,2022-10-28 10:32:15.562500
678,-18.72,2022-10-28 10:32:15.578125
679,48.92,2022-10-28 10:32:15.593750
680,105.33,2022-10-28 10:32:15.609375
681,146.42,2022-10-28 10:32:15.625000
682,170.65,2022-10-28 10:32:15.640625
683,179.12,2022-10-28 10:32:15.656250
684,175.98,2022-10-28 10:32:15.671875
685,167.03,2022-10-28 10:32:15.687500
686,156.99,2022-10-28 10:32:15.703125
687,147.07,2022-10-28 10:32:15.718750
688,133.6,2022-10-28 10:32:15.734375
689,110.25,2022-10-28 10:32:15.750000
690,71.96,2022-10-28 10:32:15.765625
691,18.77,2022-10-28 10:32:15.781250
692,-43.49,2022-10-28 10:32:15.796875
693,-106.22,2022-10-28 10:32:15.812500
694,-161.87,2022-10-28 10:32:15.828125
695,-206.55,2022-10-28 10:32:15.843750
696,-238.99,2022-10-28 10:32:15.859375
697,-258.08,2022-10-28 10:32:15.875000
698,-259.6,2022-10-28 10:32:15.890625
699,-238.12,2022-10-28 10:32:15.906250
700,-190.35,2022-10-28 10:32:15.921875
701,-119.72,2022-10-28 10:32:15.937500
702,-36.38,2022-10-28 10:32:15.953125
703,45.78,2022-10-28 10:32:15.968750
704,114.83,2022-10-28 10:32:15.984375
705,165.16,2022-10-28 10:32:16.000000
706,197.53,2022-10-28 10:32:16.015625
707,214.97,2022-10-28 10:32:16.031250
708,218.02,2022-10-28 10:32:16.046875
709,202.59,2022-10-28 10:32:16.062500
710,163.53,2022-10-28 10:32:16.078125
711,99.05,2022-10-28 10:32:16.093750
712,15.82,2022-10-28 10:32:16.109375
713,-71.79,2022-10-28 10:32:16.125000
714,-146.23,2022-10-28 10:32:16.140625
715,-194.35,2022-10-28 10:32:16.156250
716,-212.92,2022-10-28 10:32:16.171875
717,-208.33,2022-10-28 10:32:16.187500
718,-192.51,2022-10-28 10:32:16.203125
719,-176.0,2022-10-28 10:32:16.218750
720,-163.05,2022-10-28 10:32:16.234375
721,-151.59,2022-10-28 10:32:16.250000
722,-137.82,2022-10-28 10:32:16.265625
723,-120.7,2022-10-28 10:32:16.281250
724,-104.14,2022-10-28 10:32:16.296875
725,-94.75,2022-10-28 10:32:16.312500
726,-97.45,2022-10-28 10:32:16.328125
727,-111.08,2022-10-28 10:32:16.343750
728,-128.03,2022-10-28 10:32:16.359375
729,-137.84,2022-10-28 10:32:16.375000
730,-131.75,2022-10-28 10:32:16.390625
731,-106.25,2022-10-28 10:32:16.406250
732,-63.07,2022-10-28 10:32:16.421875
733,-7.82,2022-10-28 10:32:16.437500
734,53.67,2022-10-28 10:32:16.453125
735,115.73,2022-10-28 10:32:16.468750
736,173.14,2022-10-28 10:32:16.484375
737,219.98,2022-10-28 10:32:16.500000
738,250.63,2022-10-28 10:32:16.515625
739,262.83,2022-10-28 10:32:16.531250
740,258.71,2022-10-28 10:32:16.546875
741,245.02,2022-10-28 10:32:16.562500
742,230.58,2022-10-28 10:32:16.578125
743,221.82,2022-10-28 10:32:16.593750
744,219.99,2022-10-28 10:32:16.609375
745,222.18,2022-10-28 10:32:16.625000
746,224.15,2022-10-28 10:32:16.640625
747,224.51,2022-10-28 10:32:16.656250
748,226.38,2022-10-28 10:32:16.671875
749,235.48,2022-10-28 10:32:16.687500
750,256.06,2022-10-28 10:32:16.703125
751,286.01,2022-10-28 10:32:16.718750
752,315.36,2022-10-28 10:32:16.734375
753,329.75,2022-10-28 10:32:16.750000
754,316.07,2022-10-28 10:32:16.765625
755,268.13,2022-10-28 10:32:16.781250
756,189.66,2022-10-28 10:32:16.796875
757,92.55,2022-10-28 10:32:16.812500
758,-8.45,2022-10-28 10:32:16.828125
759,-101.12,2022-10-28 10:32:16.843750
760,-178.96,2022-10-28 10:32:16.859375
761,-239.63,2022-10-28 10:32:16.875000
762,-281.93,2022-10-28 10:32:16.890625
763,-303.64,2022-10-28 10:32:16.906250
764,-301.56,2022-10-28 10:32:16.921875
765,-274.65,2022-10-28 10:32:16.937500
766,-227.0,2022-10-28 10:32:16.953125
767,-169.07,2022-10-28 10:32:16.968750
768,-113.13,2022-10-28 10:32:16.984375
769,-67.9,2022-10-28 10:32:17.000000
770,-34.88,2022-10-28 10:32:17.015625
771,-8.22,2022-10-28 10:32:17.031250
772,20.08,2022-10-28 10:32:17.046875
773,53.7,2022-10-28 10:32:17.062500
774,88.05,2022-10-28 10:32:17.078125
775,112.14,2022-10-28 10:32:17.093750
776,114.34,2022-10-28 10:32:17.109375
777,89.78,2022-10-28 10:32:17.125000
778,43.94,2022-10-28 10:32:17.140625
779,-9.69,2022-10-28 10:32:17.156250
780,-56.09,2022-10-28 10:32:17.171875
781,-86.88,2022-10-28 10:32:17.187500
782,-103.54,2022-10-28 10:32:17.203125
783,-114.98,2022-10-28 10:32:17.218750
784,-130.13,2022-10-28 10:32:17.234375
785,-151.23,2022-10-28 10:32:17.250000
786,-171.75,2022-10-28 10:32:17.265625
787,-180.68,2022-10-28 10:32:17.281250
788,-170.0,2022-10-28 10:32:17.296875
789,-140.36,2022-10-28 10:32:17.312500
790,-100.57,2022-10-28 10:32:17.328125
791,-61.75,2022-10-28 10:32:17.343750
792,-29.97,2022-10-28 10:32:17.359375
793,-2.81,2022-10-28 10:32:17.375000
794,28.2,2022-10-28 10:32:17.390625
795,70.54,2022-10-28 10:32:17.406250
796,123.95,2022-10-28 10:32:17.421875
797,178.44,2022-10-28 10:32:17.437500
798,219.25,2022-10-28 10:32:17.453125
799,233.91,2022-10-28 10:32:17.468750
800,219.04,2022-10-28 10:32:17.484375
801,182.2,2022-10-28 10:32:17.500000
802,137.83,2022-10-28 10:32:17.515625
803,100.02,2022-10-28 10:32:17.531250
804,76.11,2022-10-28 10:32:17.546875
805,64.62,2022-10-28 10:32:17.562500
806,57.7,2022-10-28 10:32:17.578125
807,45.41,2022-10-28 10:32:17.593750
808,20.3,2022-10-28 10:32:17.609375
809,-19.77,2022-10-28 10:32:17.625000
810,-71.17,2022-10-28 10:32:17.640625
811,-126.4,2022-10-28 10:32:17.656250
812,-175.58,2022-10-28 10:32:17.671875
813,-208.61,2022-10-28 10:32:17.687500
814,-216.83,2022-10-28 10:32:17.703125
815,-195.63,2022-10-28 10:32:17.718750
816,-145.73,2022-10-28 10:32:17.734375
817,-73.83,2022-10-28 10:32:17.750000
818,8.65,2022-10-28 10:32:17.765625
819,89.31,2022-10-28 10:32:17.781250
820,158.99,2022-10-28 10:32:17.796875
821,214.78,2022-10-28 10:32:17.812500
822,259.52,2022-10-28 10:32:17.828125
823,298.18,2022-10-28 10:32:17.843750
824,334.54,2022-10-28 10:32:17.859375
825,368.62,2022-10-28 10:32:17.875000
826,397.49,2022-10-28 10:32:17.890625
827,417.96,2022-10-28 10:32:17.906250
828,429.43,2022-10-28 10:32:17.921875
829,434.2,2022-10-28 10:32:17.937500
830,439.02,2022-10-28 10:32:17.953125
831,450.42,2022-10-28 10:32:17.968750
832,471.15,2022-10-28 10:32:17.984375
833,497.66,2022-10-28 10:32:18.000000
834,519.83,2022-10-28 10:32:18.015625
835,523.84,2022-10-28 10:32:18.031250
836,496.81,2022-10-28 10:32:18.046875
837,432.54,2022-10-28 10:32:18.062500
838,334.64,2022-10-28 10:32:18.078125
839,216.28,2022-10-28 10:32:18.093750
840,95.31,2022-10-28 10:32:18.109375
841,-11.9,2022-10-28 10:32:18.125000
842,-95.58,2022-10-28 10:32:18.140625
843,-154.73,2022-10-28 10:32:18.156250
844,-195.98,2022-10-28 10:32:18.171875
845,-229.49,2022-10-28 10:32:18.187500
846,-263.73,2022-10-28 10:32:18.203125
847,-302.53,2022-10-28 10:32:18.218750
848,-344.01,2022-10-28 10:32:18.234375
849,-381.56,2022-10-28 10:32:18.250000
850,-406.81,2022-10-28 10:32:18.265625
851,-414.01,2022-10-28 10:32:18.281250
852,-403.35,2022-10-28 10:32:18.296875
853,-381.3,2022-10-28 10:32:18.312500
854,-357.74,2022-10-28 10:32:18.328125
855,-341.79,2022-10-28 10:32:18.343750
856,-337.38,2022-10-28 10:32:18.359375
857,-341.99,2022-10-28 10:32:18.375000
858,-349.46,2022-10-28 10:32:18.390625
859,-353.74,2022-10-28 10:32:18.406250
860,-352.05,2022-10-28 10:32:18.421875
861,-345.75,2022-10-28 10:32:18.437500
862,-337.47,2022-10-28 10:32:18.453125
863,-328.0,2022-10-28 10:32:18.468750
864,-315.9,2022-10-28 10:32:18.484375
865,-299.34,2022-10-28 10:32:18.500000
866,-278.95,2022-10-28 10:32:18.515625
867,-258.97,2022-10-28 10:32:18.531250
868,-245.4,2022-10-28 10:32:18.546875
869,-241.51,2022-10-28 10:32:18.562500
870,-245.8,2022-10-28 10:32:18.578125
871,-252.96,2022-10-28 10:32:18.593750
872,-257.82,2022-10-28 10:32:18.609375
873,-259.57,2022-10-28 10:32:18.625000
874,-261.65,2022-10-28 10:32:18.640625
875,-267.42,2022-10-28 10:32:18.656250
876,-275.27,2022-10-28 10:32:18.671875
877,-276.73,2022-10-28 10:32:18.687500
878,-259.71,2022-10-28 10:32:18.703125
879,-215.89,2022-10-28 10:32:18.718750
880,-146.82,2022-10-28 10:32:18.734375
881,-63.78,2022-10-28 10:32:18.750000
882,17.47,2022-10-28 10:32:18.765625
883,84.93,2022-10-28 10:32:18.781250
884,135.56,2022-10-28 10:32:18.796875
885,174.81,2022-10-28 10:32:18.812500
886,210.94,2022-10-28 10:32:18.828125
887,248.94,2022-10-28 10:32:18.843750
888,287.63,2022-10-28 10:32:18.859375
889,321.76,2022-10-28 10:32:18.875000
890,345.53,2022-10-28 10:32:18.890625
891,356.6,2022-10-28 10:32:18.906250
892,356.97,2022-10-28 10:32:18.921875
893,351.41,2022-10-28 10:32:18.937500
894,344.84,2022-10-28 10:32:18.953125
895,340.19,2022-10-28 10:32:18.968750
896,336.93,2022-10-28 10:32:18.984375
897,330.67,2022-10-28 10:32:19.000000
898,314.08,2022-10-28 10:32:19.015625
899,279.68,2022-10-28 10:32:19.031250
900,223.38,2022-10-28 10:32:19.046875
901,147.76,2022-10-28 10:32:19.062500
902,63.54,2022-10-28 10:32:19.078125
903,-13.93,2022-10-28 10:32:19.093750
904,-69.15,2022-10-28 10:32:19.109375
905,-93.02,2022-10-28 10:32:19.125000
906,-86.95,2022-10-28 10:32:19.140625
907,-63.06,2022-10-28 10:32:19.156250
908,-40.05,2022-10-28 10:32:19.171875
909,-36.59,2022-10-28 10:32:19.187500
910,-64.53,2022-10-28 10:32:19.203125
911,-125.28,2022-10-28 10:32:19.218750
912,-209.92,2022-10-28 10:32:19.234375
913,-302.43,2022-10-28 10:32:19.250000
914,-385.81,2022-10-28 10:32:19.265625
915,-447.61,2022-10-28 10:32:19.281250
916,-483.59,2022-10-28 10:32:19.296875
917,-497.36,2022-10-28 10:32:19.312500
918,-497.24,2022-10-28 10:32:19.328125
919,-491.97,2022-10-28 10:32:19.343750
920,-487.42,2022-10-28 10:32:19.359375
921,-485.94,2022-10-28 10:32:19.375000
922,-486.95,2022-10-28 10:32:19.390625
923,-488.72,2022-10-28 10:32:19.406250
924,-488.49,2022-10-28 10:32:19.421875
925,-482.71,2022-10-28 10:32:19.437500
926,-466.69,2022-10-28 10:32:19.453125
927,-435.96,2022-10-28 10:32:19.468750
928,-388.18,2022-10-28 10:32:19.484375
929,-324.4,2022-10-28 10:32:19.500000
930,-248.99,2022-10-28 10:32:19.515625
931,-167.56,2022-10-28 10:32:19.531250
932,-84.27,2022-10-28 10:32:19.546875
933,-0.64,2022-10-28 10:32:19.562500
934,84.39,2022-10-28 10:32:19.578125
935,170.96,2022-10-28 10:32:19.593750
936,255.94,2022-10-28 10:32:19.609375
937,332.84,2022-10-28 10:32:19.625000
938,394.79,2022-10-28 10:32:19.640625
939,438.95,2022-10-28 10:32:19.656250
940,469.11,2022-10-28 10:32:19.671875
941,494.24,2022-10-28 10:32:19.687500
942,523.85,2022-10-28 10:32:19.703125
943,560.84,2022-10-28 10:32:19.718750
944,599.38,2022-10-28 10:32:19.734375
945,626.94,2022-10-28 10:32:19.750000
946,631.27,2022-10-28 10:32:19.765625
947,608.09,2022-10-28 10:32:19.781250
948,564.33,2022-10-28 10:32:19.796875
949,515.01,2022-10-28 10:32:19.812500
950,475.54,2022-10-28 10:32:19.828125
951,453.23,2022-10-28 10:32:19.843750
952,444.82,2022-10-28 10:32:19.859375
953,438.71,2022-10-28 10:32:19.875000
954,422.62,2022-10-28 10:32:19.890625
955,389.13,2022-10-28 10:32:19.906250
956,338.85,2022-10-28 10:32:19.921875
957,277.77,2022-10-28 10:32:19.937500
958,213.62,2022-10-28 10:32:19.953125
959,152.97,2022-10-28 10:32:19.968750
960,100.18,2022-10-28 10:32:19.984375
961,57.95,2022-10-28 10:32:20.000000
962,26.89,2022-10-28 10:32:20.015625
963,5.65,2022-10-28 10:32:20.031250
964,-9.12,2022-10-28 10:32:20.046875
965,-21.78,2022-10-28 10:32:20.062500
966,-34.62,2022-10-28 10:32:20.078125
967,-46.28,2022-10-28 10:32:20.093750
968,-52.02,2022-10-28 10:32:20.109375
969,-47.28,2022-10-28 10:32:20.125000
970,-31.38,2022-10-28 10:32:20.140625
971,-9.12,2022-10-28 10:32:20.156250
972,9.85,2022-10-28 10:32:20.171875
973,16.23,2022-10-28 10:32:20.187500
974,6.05,2022-10-28 10:32:20.203125
975,-18.24,2022-10-28 10:32:20.218750
976,-49.38,2022-10-28 10:32:20.234375
977,-79.97,2022-10-28 10:32:20.250000
978,-105.94,2022-10-28 10:32:20.265625
979,-127.55,2022-10-28 10:32:20.281250
980,-146.9,2022-10-28 10:32:20.296875
981,-165.25,2022-10-28 10:32:20.312500
982,-181.09,2022-10-28 10:32:20.328125
983,-191.44,2022-10-28 10:32:20.343750
984,-193.46,2022-10-28 10:32:20.359375
985,-186.62,2022-10-28 10:32:20.375000
986,-172.16,2022-10-28 10:32:20.390625
987,-152.79,2022-10-28 10:32:20.406250
988,-130.49,2022-10-28 10:32:20.421875
989,-105.34,2022-10-28 10:32:20.437500
990,-76.48,2022-10-28 10:32:20.453125
991,-43.06,2022-10-28 10:32:20.468750
992,-5.71,2022-10-28 10:32:20.484375
993,33.89,2022-10-28 10:32:20.500000
994,73.18,2022-10-28 10:32:20.515625
995,110.01,2022-10-28 10:32:20.531250
996,143.17,2022-10-28 10:32:20.546875
997,171.81,2022-10-28 10:32:20.562500
998,194.4,2022-10-28 10:32:20.578125
999,208.19,2022-10-28 10:32:20.593750
1000,209.79,2022-10-28 10:32:20.609375
1001,195.08,2022-10-28 10:32:20.625000
1002,161.51,2022-10-28 10:32:20.640625
1003,110.36,2022-10-28 10:32:20.656250
1004,46.31,2022-10-28 10:32:20.671875
1005,-23.04,2022-10-28 10:32:20.687500
1006,-89.21,2022-10-28 10:32:20.703125
1007,-145.57,2022-10-28 10:32:20.718750
1008,-189.39,2022-10-28 10:32:20.734375
1009,-221.85,2022-10-28 10:32:20.750000
1010,-247.03,2022-10-28 10:32:20.765625
1011,-269.94,2022-10-28 10:32:20.781250
1012,-293.29,2022-10-28 10:32:20.796875
1013,-316.1,2022-10-28 10:32:20.812500
1014,-333.49,2022-10-28 10:32:20.828125
1015,-340.0,2022-10-28 10:32:20.843750
1016,-333.2,2022-10-28 10:32:20.859375
1017,-316.67,2022-10-28 10:32:20.875000
1018,-299.44,2022-10-28 10:32:20.890625
1019,-292.3,2022-10-28 10:32:20.906250
1020,-302.37,2022-10-28 10:32:20.921875
1021,-329.52,2022-10-28 10:32:20.937500
1022,-366.26,2022-10-28 10:32:20.953125
1023,-401.06,2022-10-28 10:32:20.968750
1024,-423.08,2022-10-28 10:32:20.984375
1025,-425.96,2022-10-28 10:32:21.000000
1026,-408.15,2022-10-28 10:32:21.015625
1027,-370.97,2022-10-28 10:32:21.031250
1028,-316.55,2022-10-28 10:32:21.046875
1029,-246.76,2022-10-28 10:32:21.062500
1030,-164.64,2022-10-28 10:32:21.078125
1031,-75.88,2022-10-28 10:32:21.093750
1032,11.51,2022-10-28 10:32:21.109375
1033,88.43,2022-10-28 10:32:21.125000
1034,147.85,2022-10-28 10:32:21.140625
1035,187.72,2022-10-28 10:32:21.156250
1036,211.55,2022-10-28 10:32:21.171875
1037,227.02,2022-10-28 10:32:21.187500
1038,242.94,2022-10-28 10:32:21.203125
1039,266.52,2022-10-28 10:32:21.218750
1040,300.7,2022-10-28 10:32:21.234375
1041,344.11,2022-10-28 10:32:21.250000
1042,392.21,2022-10-28 10:32:21.265625
1043,437.79,2022-10-28 10:32:21.281250
1044,472.73,2022-10-28 10:32:21.296875
1045,488.43,2022-10-28 10:32:21.312500
1046,477.81,2022-10-28 10:32:21.328125
1047,436.7,2022-10-28 10:32:21.343750
1048,366.23,2022-10-28 10:32:21.359375
1049,273.85,2022-10-28 10:32:21.375000
1050,171.46,2022-10-28 10:32:21.390625
1051,71.82,2022-10-28 10:32:21.406250
1052,-15.76,2022-10-28 10:32:21.421875
1053,-88.01,2022-10-28 10:32:21.437500
1054,-147.55,2022-10-28 10:32:21.453125
1055,-199.74,2022-10-28 10:32:21.468750
1056,-248.21,2022-10-28 10:32:21.484375
1057,-292.33,2022-10-28 10:32:21.500000
1058,-326.99,2022-10-28 10:32:21.515625
1059,-345.21,2022-10-28 10:32:21.531250
1060,-341.65,2022-10-28 10:32:21.546875
1061,-315.71,2022-10-28 10:32:21.562500
1062,-272.43,2022-10-28 10:32:21.578125
1063,-220.73,2022-10-28 10:32:21.593750
1064,-169.57,2022-10-28 10:32:21.609375
1065,-124.15,2022-10-28 10:32:21.625000
1066,-83.62,2022-10-28 10:32:21.640625
1067,-42.25,2022-10-28 10:32:21.656250
1068,6.41,2022-10-28 10:32:21.671875
1069,65.57,2022-10-28 10:32:21.687500
1070,131.91,2022-10-28 10:32:21.703125
1071,197.29,2022-10-28 10:32:21.718750
1072,252.79,2022-10-28 10:32:21.734375
1073,292.89,2022-10-28 10:32:21.750000
1074,317.8,2022-10-28 10:32:21.765625
1075,331.69,2022-10-28 10:32:21.781250
1076,338.4,2022-10-28 10:32:21.796875
1077,337.84,2022-10-28 10:32:21.812500
1078,325.68,2022-10-28 10:32:21.828125
1079,295.06,2022-10-28 10:32:21.843750
1080,241.91,2022-10-28 10:32:21.859375
1081,168.35,2022-10-28 10:32:21.875000
1082,83.82,2022-10-28 10:32:21.890625
1083,2.81,2022-10-28 10:32:21.906250
1084,-60.1,2022-10-28 10:32:21.921875
1085,-95.41,2022-10-28 10:32:21.937500
1086,-102.02,2022-10-28 10:32:21.953125
1087,-86.3,2022-10-28 10:32:21.968750
1088,-58.09,2022-10-28 10:32:21.984375
1089,-25.6,2022-10-28 10:32:22.000000
1090,7.18,2022-10-28 10:32:22.015625
1091,40.38,2022-10-28 10:32:22.031250
1092,75.35,2022-10-28 10:32:22.046875
1093,111.45,2022-10-28 10:32:22.062500
1094,144.74,2022-10-28 10:32:22.078125
1095,168.87,2022-10-28 10:32:22.093750
1096,177.48,2022-10-28 10:32:22.109375
1097,166.51,2022-10-28 10:32:22.125000
1098,135.89,2022-10-28 10:32:22.140625
1099,89.51,2022-10-28 10:32:22.156250
1100,34.02,2022-10-28 10:32:22.171875
1101,-22.36,2022-10-28 10:32:22.187500
1102,-73.37,2022-10-28 10:32:22.203125
1103,-116.15,2022-10-28 10:32:22.218750
1104,-151.44,2022-10-28 10:32:22.234375
1105,-180.9,2022-10-28 10:32:22.250000
1106,-203.91,2022-10-28 10:32:22.265625
1107,-215.21,2022-10-28 10:32:22.281250
1108,-206.41,2022-10-28 10:32:22.296875
1109,-170.51,2022-10-28 10:32:22.312500
1110,-106.59,2022-10-28 10:32:22.328125
1111,-22.73,2022-10-28 10:32:22.343750
1112,66.03,2022-10-28 10:32:22.359375
1113,143.15,2022-10-28 10:32:22.375000
1114,195.56,2022-10-28 10:32:22.390625
1115,216.4,2022-10-28 10:32:22.406250
1116,205.12,2022-10-28 10:32:22.421875
1117,166.45,2022-10-28 10:32:22.437500
1118,108.25,2022-10-28 10:32:22.453125
1119,40.27,2022-10-28 10:32:22.468750
1120,-27.46,2022-10-28 10:32:22.484375
1121,-86.19,2022-10-28 10:32:22.500000
1122,-131.73,2022-10-28 10:32:22.515625
1123,-163.8,2022-10-28 10:32:22.531250
1124,-184.61,2022-10-28 10:32:22.546875
1125,-195.57,2022-10-28 10:32:22.562500
1126,-195.31,2022-10-28 10:32:22.578125
1127,-181.02,2022-10-28 10:32:22.593750
1128,-150.52,2022-10-28 10:32:22.609375
1129,-105.17,2022-10-28 10:32:22.625000
1130,-50.15,2022-10-28 10:32:22.640625
1131,6.75,2022-10-28 10:32:22.656250
1132,57.46,2022-10-28 10:32:22.671875
1133,97.46,2022-10-28 10:32:22.687500
1134,126.02,2022-10-28 10:32:22.703125
1135,146.18,2022-10-28 10:32:22.718750
1136,162.36,2022-10-28 10:32:22.734375
1137,177.69,2022-10-28 10:32:22.750000
1138,192.16,2022-10-28 10:32:22.765625
1139,201.44,2022-10-28 10:32:22.781250
1140,198.22,2022-10-28 10:32:22.796875
1141,175.62,2022-10-28 10:32:22.812500
1142,130.18,2022-10-28 10:32:22.828125
1143,64.17,2022-10-28 10:32:22.843750
1144,-15.09,2022-10-28 10:32:22.859375
1145,-97.74,2022-10-28 10:32:22.875000
1146,-175.34,2022-10-28 10:32:22.890625
1147,-243.02,2022-10-28 10:32:22.906250
1148,-300.07,2022-10-28 10:32:22.921875
1149,-347.81,2022-10-28 10:32:22.937500
1150,-388.17,2022-10-28 10:32:22.953125
1151,-422.69,2022-10-28 10:32:22.968750
1152,-452.39,2022-10-28 10:32:22.984375
1153,-477.31,2022-10-28 10:32:23.000000
1154,-496.4,2022-10-28 10:32:23.015625
1155,-507.31,2022-10-28 10:32:23.031250
1156,-507.74,2022-10-28 10:32:23.046875
1157,-497.19,2022-10-28 10:32:23.062500
1158,-476.98,2022-10-28 10:32:23.078125
1159,-449.32,2022-10-28 10:32:23.093750
1160,-414.39,2022-10-28 10:32:23.109375
1161,-368.76,2022-10-28 10:32:23.125000
1162,-306.76,2022-10-28 10:32:23.140625
1163,-224.55,2022-10-28 10:32:23.156250
1164,-124.81,2022-10-28 10:32:23.171875
1165,-17.42,2022-10-28 10:32:23.187500
1166,83.96,2022-10-28 10:32:23.203125
1167,168.27,2022-10-28 10:32:23.218750
1168,232.19,2022-10-28 10:32:23.234375
1169,280.3,2022-10-28 10:32:23.250000
1170,321.16,2022-10-28 10:32:23.265625
1171,361.78,2022-10-28 10:32:23.281250
1172,403.83,2022-10-28 10:32:23.296875
1173,444.59,2022-10-28 10:32:23.312500
1174,480.16,2022-10-28 10:32:23.328125
1175,508.28,2022-10-28 10:32:23.343750
1176,528.28,2022-10-28 10:32:23.359375
1177,540.1,2022-10-28 10:32:23.375000
1178,542.66,2022-10-28 10:32:23.390625
1179,534.33,2022-10-28 10:32:23.406250
1180,514.66,2022-10-28 10:32:23.421875
1181,485.68,2022-10-28 10:32:23.437500
1182,452.15,2022-10-28 10:32:23.453125
1183,419.58,2022-10-28 10:32:23.468750
1184,392.44,2022-10-28 10:32:23.484375
1185,372.27,2022-10-28 10:32:23.500000
1186,357.99,2022-10-28 10:32:23.515625
1187,345.99,2022-10-28 10:32:23.531250
1188,332.18,2022-10-28 10:32:23.546875
1189,313.15,2022-10-28 10:32:23.562500
1190,286.5,2022-10-28 10:32:23.578125
1191,251.63,2022-10-28 10:32:23.593750
1192,208.96,2022-10-28 10:32:23.609375
1193,158.41,2022-10-28 10:32:23.625000
1194,100.37,2022-10-28 10:32:23.640625
1195,34.61,2022-10-28 10:32:23.656250
1196,-38.59,2022-10-28 10:32:23.671875
1197,-117.92,2022-10-28 10:32:23.687500
1198,-199.88,2022-10-28 10:32:23.703125
1199,-279.55,2022-10-28 10:32:23.718750
1200,-351.0,2022-10-28 10:32:23.734375
1201,-408.66,2022-10-28 10:32:23.750000
1202,-448.51,2022-10-28 10:32:23.765625
1203,-468.42,2022-10-28 10:32:23.781250
1204,-467.68,2022-10-28 10:32:23.796875
1205,-446.57,2022-10-28 10:32:23.812500
1206,-406.35,2022-10-28 10:32:23.828125
1207,-348.77,2022-10-28 10:32:23.843750
1208,-276.96,2022-10-28 10:32:23.859375
1209,-195.19,2022-10-28 10:32:23.875000
1210,-109.02,2022-10-28 10:32:23.890625
1211,-25.32,2022-10-28 10:32:23.906250
1212,49.75,2022-10-28 10:32:23.921875
1213,111.95,2022-10-28 10:32:23.937500
1214,160.3,2022-10-28 10:32:23.953125
1215,197.02,2022-10-28 10:32:23.968750
1216,226.36,2022-10-28 10:32:23.984375
1217,251.98,2022-10-28 10:32:24.000000
1218,276.49,2022-10-28 10:32:24.015625
1219,300.33,2022-10-28 10:32:24.031250
1220,322.42,2022-10-28 10:32:24.046875
1221,341.08,2022-10-28 10:32:24.062500
1222,353.8,2022-10-28 10:32:24.078125
1223,357.46,2022-10-28 10:32:24.093750
1224,349.34,2022-10-28 10:32:24.109375
1225,327.72,2022-10-28 10:32:24.125000
1226,294.15,2022-10-28 10:32:24.140625
1227,253.27,2022-10-28 10:32:24.156250
1228,212.16,2022-10-28 10:32:24.171875
1229,176.84,2022-10-28 10:32:24.187500
1230,149.71,2022-10-28 10:32:24.203125
1231,126.81,2022-10-28 10:32:24.218750
1232,99.69,2022-10-28 10:32:24.234375
1233,60.5,2022-10-28 10:32:24.250000
1234,6.51,2022-10-28 10:32:24.265625
1235,-57.71,2022-10-28 10:32:24.281250
1236,-121.64,2022-10-28 10:32:24.296875
1237,-174.14,2022-10-28 10:32:24.312500
1238,-207.93,2022-10-28 10:32:24.328125
1239,-222.26,2022-10-28 10:32:24.343750
1240,-221.16,2022-10-28 10:32:24.359375
1241,-209.6,2022-10-28 10:32:24.375000
1242,-190.25,2022-10-28 10:32:24.390625
1243,-163.82,2022-10-28 10:32:24.406250
1244,-131.3,2022-10-28 10:32:24.421875
1245,-95.95,2022-10-28 10:32:24.437500
1246,-63.86,2022-10-28 10:32:24.453125
1247,-41.05,2022-10-28 10:32:24.468750
1248,-29.38,2022-10-28 10:32:24.484375
1249,-25.26,2022-10-28 10:32:24.500000
1250,-20.64,2022-10-28 10:32:24.515625
1251,-8.06,2022-10-28 10:32:24.531250
1252,15.62,2022-10-28 10:32:24.546875
1253,47.37,2022-10-28 10:32:24.562500
1254,79.98,2022-10-28 10:32:24.578125
1255,106.28,2022-10-28 10:32:24.593750
1256,122.27,2022-10-28 10:32:24.609375
1257,127.77,2022-10-28 10:32:24.625000
1258,125.07,2022-10-28 10:32:24.640625
1259,115.72,2022-10-28 10:32:24.656250
1260,99.57,2022-10-28 10:32:24.671875
1261,74.06,2022-10-28 10:32:24.687500
1262,37.11,2022-10-28 10:32:24.703125
1263,-11.3,2022-10-28 10:32:24.718750
1264,-68.41,2022-10-28 10:32:24.734375
1265,-127.93,2022-10-28 10:32:24.750000
1266,-181.24,2022-10-28 10:32:24.765625
1267,-220.17,2022-10-28 10:32:24.781250
1268,-238.43,2022-10-28 10:32:24.796875
1269,-234.51,2022-10-28 10:32:24.812500
1270,-211.43,2022-10-28 10:32:24.828125
1271,-176.74,2022-10-28 10:32:24.843750
1272,-139.63,2022-10-28 10:32:24.859375
1273,-108.41,2022-10-28 10:32:24.875000
1274,-88.18,2022-10-28 10:32:24.890625
1275,-80.02,2022-10-28 10:32:24.906250
1276,-81.8,2022-10-28 10:32:24.921875
1277,-90.36,2022-10-28 10:32:24.937500
1278,-102.68,2022-10-28 10:32:24.953125
1279,-116.36,2022-10-28 10:32:24.968750
1280,-129.7,2022-10-28 10:32:24.984375
1281,-141.2,2022-10-28 10:32:25.000000
1282,-149.76,2022-10-28 10:32:25.015625
1283,-156.4,2022-10-28 10:32:25.031250
1284,-164.46,2022-10-28 10:32:25.046875
1285,-179.5,2022-10-28 10:32:25.062500
1286,-207.23,2022-10-28 10:32:25.078125
1287,-250.84,2022-10-28 10:32:25.093750
1288,-308.3,2022-10-28 10:32:25.109375
1289,-371.92,2022-10-28 10:32:25.125000
1290,-429.64,2022-10-28 10:32:25.140625
1291,-470.06,2022-10-28 10:32:25.156250
1292,-485.92,2022-10-28 10:32:25.171875
1293,-477.42,2022-10-28 10:32:25.187500
1294,-450.79,2022-10-28 10:32:25.203125
1295,-413.99,2022-10-28 10:32:25.218750
1296,-371.81,2022-10-28 10:32:25.234375
1297,-323.69,2022-10-28 10:32:25.250000
1298,-264.73,2022-10-28 10:32:25.265625
1299,-190.53,2022-10-28 10:32:25.281250
1300,-101.65,2022-10-28 10:32:25.296875
1301,-5.66,2022-10-28 10:32:25.312500
1302,85.56,2022-10-28 10:32:25.328125
1303,161.24,2022-10-28 10:32:25.343750
1304,216.25,2022-10-28 10:32:25.359375
1305,251.5,2022-10-28 10:32:25.375000
1306,271.29,2022-10-28 10:32:25.390625
1307,278.87,2022-10-28 10:32:25.406250
1308,274.63,2022-10-28 10:32:25.421875
1309,257.25,2022-10-28 10:32:25.437500
1310,227.21,2022-10-28 10:32:25.453125
1311,189.31,2022-10-28 10:32:25.468750
1312,151.44,2022-10-28 10:32:25.484375
1313,120.76,2022-10-28 10:32:25.500000
1314,99.72,2022-10-28 10:32:25.515625
1315,84.01,2022-10-28 10:32:25.531250
1316,65.89,2022-10-28 10:32:25.546875
1317,38.49,2022-10-28 10:32:25.562500
1318,0.13,2022-10-28 10:32:25.578125
1319,-44.51,2022-10-28 10:32:25.593750
1320,-86.39,2022-10-28 10:32:25.609375
1321,-116.16,2022-10-28 10:32:25.625000
1322,-127.21,2022-10-28 10:32:25.640625
1323,-117.69,2022-10-28 10:32:25.656250
1324,-89.84,2022-10-28 10:32:25.671875
1325,-49.02,2022-10-28 10:32:25.687500
1326,-2.71,2022-10-28 10:32:25.703125
1327,40.72,2022-10-28 10:32:25.718750
1328,73.6,2022-10-28 10:32:25.734375
1329,90.3,2022-10-28 10:32:25.750000
1330,87.41,2022-10-28 10:32:25.765625
1331,64.04,2022-10-28 10:32:25.781250
1332,20.9,2022-10-28 10:32:25.796875
1333,-39.58,2022-10-28 10:32:25.812500
1334,-112.46,2022-10-28 10:32:25.828125
1335,-189.32,2022-10-28 10:32:25.843750
1336,-257.68,2022-10-28 10:32:25.859375
1337,-303.96,2022-10-28 10:32:25.875000
1338,-317.09,2022-10-28 10:32:25.890625
1339,-293.25,2022-10-28 10:32:25.906250
1340,-238.1,2022-10-28 10:32:25.921875
1341,-164.18,2022-10-28 10:32:25.937500
1342,-86.0,2022-10-28 10:32:25.953125
1343,-13.89,2022-10-28 10:32:25.968750
1344,49.75,2022-10-28 10:32:25.984375
1345,109.51,2022-10-28 10:32:26.000000
1346,173.12,2022-10-28 10:32:26.015625
1347,245.18,2022-10-28 10:32:26.031250
1348,324.9,2022-10-28 10:32:26.046875
1349,406.41,2022-10-28 10:32:26.062500
1350,482.09,2022-10-28 10:32:26.078125
1351,546.28,2022-10-28 10:32:26.093750
1352,597.19,2022-10-28 10:32:26.109375
1353,636.04,2022-10-28 10:32:26.125000
1354,664.62,2022-10-28 10:32:26.140625
1355,683.17,2022-10-28 10:32:26.156250
1356,689.85,2022-10-28 10:32:26.171875
1357,681.66,2022-10-28 10:32:26.187500
1358,656.27,2022-10-28 10:32:26.203125
1359,613.51,2022-10-28 10:32:26.218750
1360,555.01,2022-10-28 10:32:26.234375
1361,483.91,2022-10-28 10:32:26.250000
1362,404.41,2022-10-28 10:32:26.265625
1363,322.43,2022-10-28 10:32:26.281250
1364,244.97,2022-10-28 10:32:26.296875
1365,179.15,2022-10-28 10:32:26.312500
1366,129.58,2022-10-28 10:32:26.328125
1367,95.57,2022-10-28 10:32:26.343750
1368,71.14,2022-10-28 10:32:26.359375
1369,46.21,2022-10-28 10:32:26.375000
1370,11.53,2022-10-28 10:32:26.390625
1371,-38.07,2022-10-28 10:32:26.406250
1372,-102.47,2022-10-28 10:32:26.421875
1373,-176.66,2022-10-28 10:32:26.437500
1374,-254.05,2022-10-28 10:32:26.453125
1375,-328.16,2022-10-28 10:32:26.468750
1376,-394.27,2022-10-28 10:32:26.484375
1377,-449.88,2022-10-28 10:32:26.500000
1378,-493.27,2022-10-28 10:32:26.515625
1379,-524.37,2022-10-28 10:32:26.531250
1380,-544.31,2022-10-28 10:32:26.546875
1381,-556.04,2022-10-28 10:32:26.562500
1382,-564.26,2022-10-28 10:32:26.578125
1383,-573.88,2022-10-28 10:32:26.593750
1384,-588.16,2022-10-28 10:32:26.609375
1385,-606.6,2022-10-28 10:32:26.625000
1386,-624.61,2022-10-28 10:32:26.640625
1387,-635.87,2022-10-28 10:32:26.656250
1388,-635.13,2022-10-28 10:32:26.671875
1389,-621.88,2022-10-28 10:32:26.687500
1390,-600.66,2022-10-28 10:32:26.703125
1391,-579.25,2022-10-28 10:32:26.718750
1392,-564.88,2022-10-28 10:32:26.734375
1393,-561.24,2022-10-28 10:32:26.750000
1394,-566.84,2022-10-28 10:32:26.765625
1395,-576.44,2022-10-28 10:32:26.781250
1396,-584.03,2022-10-28 10:32:26.796875
1397,-584.73,2022-10-28 10:32:26.812500
1398,-575.95,2022-10-28 10:32:26.828125
1399,-556.6,2022-10-28 10:32:26.843750
1400,-525.64,2022-10-28 10:32:26.859375
1401,-483.09,2022-10-28 10:32:26.875000
1402,-430.53,2022-10-28 10:32:26.890625
1403,-371.8,2022-10-28 10:32:26.906250
1404,-312.06,2022-10-28 10:32:26.921875
1405,-255.11,2022-10-28 10:32:26.937500
1406,-202.0,2022-10-28 10:32:26.953125
1407,-150.37,2022-10-28 10:32:26.968750
1408,-95.95,2022-10-28 10:32:26.984375
1409,-35.94,2022-10-28 10:32:27.000000
1410,30.42,2022-10-28 10:32:27.015625
1411,101.74,2022-10-28 10:32:27.031250
1412,176.04,2022-10-28 10:32:27.046875
1413,251.59,2022-10-28 10:32:27.062500
1414,326.36,2022-10-28 10:32:27.078125
1415,397.51,2022-10-28 10:32:27.093750
1416,461.13,2022-10-28 10:32:27.109375
1417,512.69,2022-10-28 10:32:27.125000
1418,548.97,2022-10-28 10:32:27.140625
1419,570.22,2022-10-28 10:32:27.156250
1420,580.58,2022-10-28 10:32:27.171875
1421,585.36,2022-10-28 10:32:27.187500
1422,588.29,2022-10-28 10:32:27.203125
1423,588.57,2022-10-28 10:32:27.218750
1424,581.15,2022-10-28 10:32:27.234375
1425,559.03,2022-10-28 10:32:27.250000
1426,518.28,2022-10-28 10:32:27.265625
1427,460.46,2022-10-28 10:32:27.281250
1428,393.25,2022-10-28 10:32:27.296875
1429,327.29,2022-10-28 10:32:27.312500
1430,272.66,2022-10-28 10:32:27.328125
1431,235.13,2022-10-28 10:32:27.343750
1432,214.65,2022-10-28 10:32:27.359375
1433,206.86,2022-10-28 10:32:27.375000
1434,206.39,2022-10-28 10:32:27.390625
1435,210.38,2022-10-28 10:32:27.406250
1436,220.51,2022-10-28 10:32:27.421875
1437,241.29,2022-10-28 10:32:27.437500
1438,276.14,2022-10-28 10:32:27.453125
1439,323.32,2022-10-28 10:32:27.468750
1440,375.2,2022-10-28 10:32:27.484375
1441,421.05,2022-10-28 10:32:27.500000
1442,451.84,2022-10-28 10:32:27.515625
1443,464.41,2022-10-28 10:32:27.531250
1444,462.63,2022-10-28 10:32:27.546875
1445,454.7,2022-10-28 10:32:27.562500
1446,447.66,2022-10-28 10:32:27.578125
1447,442.69,2022-10-28 10:32:27.593750
1448,434.29,2022-10-28 10:32:27.609375
1449,413.42,2022-10-28 10:32:27.625000
1450,372.04,2022-10-28 10:32:27.640625
1451,308.45,2022-10-28 10:32:27.656250
1452,227.35,2022-10-28 10:32:27.671875
1453,137.81,2022-10-28 10:32:27.687500
1454,49.15,2022-10-28 10:32:27.703125
1455,-31.65,2022-10-28 10:32:27.718750
1456,-100.02,2022-10-28 10:32:27.734375
1457,-152.3,2022-10-28 10:32:27.750000
1458,-184.03,2022-10-28 10:32:27.765625
1459,-191.07,2022-10-28 10:32:27.781250
1460,-170.56,2022-10-28 10:32:27.796875
1461,-124.12,2022-10-28 10:32:27.812500
1462,-58.04,2022-10-28 10:32:27.828125
1463,17.81,2022-10-28 10:32:27.843750
1464,92.81,2022-10-28 10:32:27.859375
1465,158.14,2022-10-28 10:32:27.875000
1466,207.82,2022-10-28 10:32:27.890625
1467,238.31,2022-10-28 10:32:27.906250
1468,247.29,2022-10-28 10:32:27.921875
1469,234.34,2022-10-28 10:32:27.937500
1470,201.65,2022-10-28 10:32:27.953125
1471,154.48,2022-10-28 10:32:27.968750
1472,99.9,2022-10-28 10:32:27.984375
1473,44.04,2022-10-28 10:32:28.000000
1474,-10.51,2022-10-28 10:32:28.015625
1475,-64.99,2022-10-28 10:32:28.031250
1476,-122.14,2022-10-28 10:32:28.046875
1477,-183.11,2022-10-28 10:32:28.062500
1478,-245.58,2022-10-28 10:32:28.078125
1479,-304.37,2022-10-28 10:32:28.093750
1480,-353.95,2022-10-28 10:32:28.109375
1481,-390.89,2022-10-28 10:32:28.125000
1482,-415.26,2022-10-28 10:32:28.140625
1483,-429.49,2022-10-28 10:32:28.156250
1484,-437.27,2022-10-28 10:32:28.171875
1485,-441.02,2022-10-28 10:32:28.187500
1486,-441.12,2022-10-28 10:32:28.203125
1487,-436.11,2022-10-28 10:32:28.218750
1488,-424.33,2022-10-28 10:32:28.234375
1489,-405.46,2022-10-28 10:32:28.250000
1490,-381.42,2022-10-28 10:32:28.265625
1491,-356.85,2022-10-28 10:32:28.281250
1492,-337.16,2022-10-28 10:32:28.296875
1493,-327.05,2022-10-28 10:32:28.312500
1494,-328.39,2022-10-28 10:32:28.328125
1495,-339.84,2022-10-28 10:32:28.343750
1496,-356.85,2022-10-28 10:32:28.359375
1497,-373.88,2022-10-28 10:32:28.375000
1498,-386.21,2022-10-28 10:32:28.390625
1499,-390.92,2022-10-28 10:32:28.406250
1500,-387.41,2022-10-28 10:32:28.421875
1501,-376.34,2022-10-28 10:32:28.437500
1502,-358.61,2022-10-28 10:32:28.453125
1503,-334.9,2022-10-28 10:32:28.468750
1504,-304.85,2022-10-28 10:32:28.484375
1505,-267.16,2022-10-28 10:32:28.500000
1506,-219.09,2022-10-28 10:32:28.515625
1507,-157.77,2022-10-28 10:32:28.531250
1508,-82.52,2022-10-28 10:32:28.546875
1509,3.0,2022-10-28 10:32:28.562500
1510,89.96,2022-10-28 10:32:28.578125
1511,165.13,2022-10-28 10:32:28.593750
1512,215.71,2022-10-28 10:32:28.609375
1513,234.21,2022-10-28 10:32:28.625000
1514,222.56,2022-10-28 10:32:28.640625
1515,191.94,2022-10-28 10:32:28.656250
1516,158.41,2022-10-28 10:32:28.671875
1517,137.04,2022-10-28 10:32:28.687500
1518,137.17,2022-10-28 10:32:28.703125
1519,160.43,2022-10-28 10:32:28.718750
1520,202.91,2022-10-28 10:32:28.734375
1521,257.71,2022-10-28 10:32:28.750000
1522,317.18,2022-10-28 10:32:28.765625
1523,373.62,2022-10-28 10:32:28.781250
1524,420.4,2022-10-28 10:32:28.796875
1525,452.92,2022-10-28 10:32:28.812500
1526,470.56,2022-10-28 10:32:28.828125
1527,476.86,2022-10-28 10:32:28.843750
1528,477.14,2022-10-28 10:32:28.859375
1529,475.74,2022-10-28 10:32:28.875000
1530,473.73,2022-10-28 10:32:28.890625
1531,469.33,2022-10-28 10:32:28.906250
1532,461.33,2022-10-28 10:32:28.921875
1533,451.52,2022-10-28 10:32:28.937500
1534,445.3,2022-10-28 10:32:28.953125
1535,448.74,2022-10-28 10:32:28.968750
1536,464.23,2022-10-28 10:32:28.984375
1537,486.9,2022-10-28 10:32:29.000000
1538,505.94,2022-10-28 10:32:29.015625
1539,509.59,2022-10-28 10:32:29.031250
1540,490.47,2022-10-28 10:32:29.046875
1541,448.3,2022-10-28 10:32:29.062500
1542,389.71,2022-10-28 10:32:29.078125
1543,323.64,2022-10-28 10:32:29.093750
1544,258.14,2022-10-28 10:32:29.109375
1545,197.99,2022-10-28 10:32:29.125000
1546,144.39,2022-10-28 10:32:29.140625
1547,96.57,2022-10-28 10:32:29.156250
1548,52.25,2022-10-28 10:32:29.171875
1549,8.79,2022-10-28 10:32:29.187500
1550,-35.71,2022-10-28 10:32:29.203125
1551,-81.5,2022-10-28 10:32:29.218750
1552,-127.62,2022-10-28 10:32:29.234375
1553,-171.73,2022-10-28 10:32:29.250000
1554,-211.33,2022-10-28 10:32:29.265625
1555,-245.5,2022-10-28 10:32:29.281250
1556,-274.54,2022-10-28 10:32:29.296875
1557,-300.36,2022-10-28 10:32:29.312500
1558,-325.45,2022-10-28 10:32:29.328125
1559,-351.65,2022-10-28 10:32:29.343750
1560,-380.25,2022-10-28 10:32:29.359375
1561,-411.56,2022-10-28 10:32:29.375000
1562,-445.92,2022-10-28 10:32:29.390625
1563,-484.54,2022-10-28 10:32:29.406250
1564,-528.36,2022-10-28 10:32:29.421875
1565,-578.05,2022-10-28 10:32:29.437500
1566,-633.07,2022-10-28 10:32:29.453125
1567,-690.05,2022-10-28 10:32:29.468750
1568,-742.32,2022-10-28 10:32:29.484375
1569,-780.17,2022-10-28 10:32:29.500000
1570,-792.29,2022-10-28 10:32:29.515625
1571,-769.25,2022-10-28 10:32:29.531250
1572,-706.77,2022-10-28 10:32:29.546875
1573,-608.93,2022-10-28 10:32:29.562500
1574,-487.34,2022-10-28 10:32:29.578125
1575,-358.48,2022-10-28 10:32:29.593750
1576,-238.78,2022-10-28 10:32:29.609375
1577,-140.63,2022-10-28 10:32:29.625000
1578,-69.57,2022-10-28 10:32:29.640625
1579,-23.74,2022-10-28 10:32:29.656250
1580,4.03,2022-10-28 10:32:29.671875
1581,22.65,2022-10-28 10:32:29.687500
1582,38.31,2022-10-28 10:32:29.703125
1583,52.91,2022-10-28 10:32:29.718750
1584,62.58,2022-10-28 10:32:29.734375
1585,60.63,2022-10-28 10:32:29.750000
1586,41.75,2022-10-28 10:32:29.765625
1587,5.8,2022-10-28 10:32:29.781250
1588,-40.84,2022-10-28 10:32:29.796875
1589,-87.07,2022-10-28 10:32:29.812500
1590,-122.07,2022-10-28 10:32:29.828125
1591,-139.49,2022-10-28 10:32:29.843750
1592,-139.69,2022-10-28 10:32:29.859375
1593,-128.07,2022-10-28 10:32:29.875000
1594,-110.64,2022-10-28 10:32:29.890625
1595,-91.04,2022-10-28 10:32:29.906250
1596,-69.24,2022-10-28 10:32:29.921875
1597,-43.48,2022-10-28 10:32:29.937500
1598,-12.86,2022-10-28 10:32:29.953125
1599,21.56,2022-10-28 10:32:29.968750
1600,58.06,2022-10-28 10:32:29.984375
1601,95.76,2022-10-28 10:32:30.000000
1602,134.9,2022-10-28 10:32:30.015625
1603,175.87,2022-10-28 10:32:30.031250
1604,216.49,2022-10-28 10:32:30.046875
1605,251.67,2022-10-28 10:32:30.062500
1606,275.2,2022-10-28 10:32:30.078125
1607,284.3,2022-10-28 10:32:30.093750
1608,283.27,2022-10-28 10:32:30.109375
1609,282.49,2022-10-28 10:32:30.125000
1610,294.14,2022-10-28 10:32:30.140625
1611,324.66,2022-10-28 10:32:30.156250
1612,370.9,2022-10-28 10:32:30.171875
1613,420.46,2022-10-28 10:32:30.187500
1614,456.8,2022-10-28 10:32:30.203125
1615,467.5,2022-10-28 10:32:30.218750
1616,449.12,2022-10-28 10:32:30.234375
1617,408.21,2022-10-28 10:32:30.250000
1618,356.9,2022-10-28 10:32:30.265625
1619,306.46,2022-10-28 10:32:30.281250
1620,262.27,2022-10-28 10:32:30.296875
1621,222.74,2022-10-28 10:32:30.312500
1622,181.72,2022-10-28 10:32:30.328125
1623,133.29,2022-10-28 10:32:30.343750
1624,75.53,2022-10-28 10:32:30.359375
1625,10.93,2022-10-28 10:32:30.375000
1626,-55.28,2022-10-28 10:32:30.390625
1627,-117.45,2022-10-28 10:32:30.406250
1628,-171.11,2022-10-28 10:32:30.421875
1629,-212.9,2022-10-28 10:32:30.437500
1630,-238.91,2022-10-28 10:32:30.453125
1631,-243.88,2022-10-28 10:32:30.468750
1632,-222.53,2022-10-28 10:32:30.484375
1633,-173.23,2022-10-28 10:32:30.500000
1634,-101.83,2022-10-28 10:32:30.515625
1635,-21.68,2022-10-28 10:32:30.531250
1636,50.1,2022-10-28 10:32:30.546875
1637,99.49,2022-10-28 10:32:30.562500
1638,120.41,2022-10-28 10:32:30.578125
1639,116.25,2022-10-28 10:32:30.593750
1640,96.21,2022-10-28 10:32:30.609375
1641,69.82,2022-10-28 10:32:30.625000
1642,43.49,2022-10-28 10:32:30.640625
1643,19.48,2022-10-28 10:32:30.656250
1644,-2.25,2022-10-28 10:32:30.671875
1645,-21.83,2022-10-28 10:32:30.687500
1646,-38.82,2022-10-28 10:32:30.703125
1647,-52.37,2022-10-28 10:32:30.718750
1648,-63.02,2022-10-28 10:32:30.734375
1649,-73.29,2022-10-28 10:32:30.750000
1650,-86.57,2022-10-28 10:32:30.765625
1651,-105.5,2022-10-28 10:32:30.781250
1652,-130.39,2022-10-28 10:32:30.796875
1653,-158.82,2022-10-28 10:32:30.812500
1654,-186.52,2022-10-28 10:32:30.828125
1655,-208.21,2022-10-28 10:32:30.843750
1656,-218.84,2022-10-28 10:32:30.859375
1657,-213.89,2022-10-28 10:32:30.875000
1658,-190.59,2022-10-28 10:32:30.890625
1659,-149.33,2022-10-28 10:32:30.906250
1660,-93.7,2022-10-28 10:32:30.921875
1661,-30.72,2022-10-28 10:32:30.937500
1662,30.3,2022-10-28 10:32:30.953125
1663,79.35,2022-10-28 10:32:30.968750
1664,107.85,2022-10-28 10:32:30.984375
1665,110.16,2022-10-28 10:32:31.000000
1666,85.01,2022-10-28 10:32:31.015625
1667,35.01,2022-10-28 10:32:31.031250
1668,-33.82,2022-10-28 10:32:31.046875
1669,-113.25,2022-10-28 10:32:31.062500
1670,-194.69,2022-10-28 10:32:31.078125
1671,-269.66,2022-10-28 10:32:31.093750
1672,-331.46,2022-10-28 10:32:31.109375
1673,-376.91,2022-10-28 10:32:31.125000
1674,-407.26,2022-10-28 10:32:31.140625
1675,-428.62,2022-10-28 10:32:31.156250
1676,-450.13,2022-10-28 10:32:31.171875
1677,-479.93,2022-10-28 10:32:31.187500
1678,-520.96,2022-10-28 10:32:31.203125
1679,-568.37,2022-10-28 10:32:31.218750
1680,-610.19,2022-10-28 10:32:31.234375
1681,-632.01,2022-10-28 10:32:31.250000
1682,-622.33,2022-10-28 10:32:31.265625
1683,-576.79,2022-10-28 10:32:31.281250
1684,-498.03,2022-10-28 10:32:31.296875
1685,-394.48,2022-10-28 10:32:31.312500
1686,-277.52,2022-10-28 10:32:31.328125
1687,-158.75,2022-10-28 10:32:31.343750
1688,-49.1,2022-10-28 10:32:31.359375
1689,43.19,2022-10-28 10:32:31.375000
1690,114.32,2022-10-28 10:32:31.390625
1691,165.62,2022-10-28 10:32:31.406250
1692,203.31,2022-10-28 10:32:31.421875
1693,236.64,2022-10-28 10:32:31.437500
1694,274.84,2022-10-28 10:32:31.453125
1695,323.21,2022-10-28 10:32:31.468750
1696,381.09,2022-10-28 10:32:31.484375
1697,441.27,2022-10-28 10:32:31.500000
1698,492.36,2022-10-28 10:32:31.515625
1699,522.16,2022-10-28 10:32:31.531250
1700,522.81,2022-10-28 10:32:31.546875
1701,493.15,2022-10-28 10:32:31.562500
1702,438.88,2022-10-28 10:32:31.578125
1703,370.03,2022-10-28 10:32:31.593750
1704,297.93,2022-10-28 10:32:31.609375
1705,231.75,2022-10-28 10:32:31.625000
1706,177.23,2022-10-28 10:32:31.640625
1707,137.0,2022-10-28 10:32:31.656250
1708,111.8,2022-10-28 10:32:31.671875
1709,100.66,2022-10-28 10:32:31.687500
1710,100.9,2022-10-28 10:32:31.703125
1711,107.74,2022-10-28 10:32:31.718750
1712,114.64,2022-10-28 10:32:31.734375
1713,115.38,2022-10-28 10:32:31.750000
1714,106.44,2022-10-28 10:32:31.765625
1715,87.74,2022-10-28 10:32:31.781250
1716,63.29,2022-10-28 10:32:31.796875
1717,39.05,2022-10-28 10:32:31.812500
1718,20.87,2022-10-28 10:32:31.828125
1719,12.42,2022-10-28 10:32:31.843750
1720,13.66,2022-10-28 10:32:31.859375
1721,19.99,2022-10-28 10:32:31.875000
1722,23.46,2022-10-28 10:32:31.890625
1723,14.99,2022-10-28 10:32:31.906250
1724,-11.17,2022-10-28 10:32:31.921875
1725,-54.25,2022-10-28 10:32:31.937500
1726,-106.27,2022-10-28 10:32:31.953125
1727,-154.83,2022-10-28 10:32:31.968750
1728,-188.44,2022-10-28 10:32:31.984375
1729,-199.86,2022-10-28 10:32:32.000000
1730,-187.3,2022-10-28 10:32:32.015625
1731,-152.94,2022-10-28 10:32:32.031250
1732,-99.78,2022-10-28 10:32:32.046875
1733,-31.0,2022-10-28 10:32:32.062500
1734,49.14,2022-10-28 10:32:32.078125
1735,133.04,2022-10-28 10:32:32.093750
1736,209.92,2022-10-28 10:32:32.109375
1737,268.94,2022-10-28 10:32:32.125000
1738,303.71,2022-10-28 10:32:32.140625
1739,315.16,2022-10-28 10:32:32.156250
1740,311.28,2022-10-28 10:32:32.171875
1741,303.15,2022-10-28 10:32:32.187500
1742,299.22,2022-10-28 10:32:32.203125
1743,302.55,2022-10-28 10:32:32.218750
1744,310.15,2022-10-28 10:32:32.234375
1745,316.08,2022-10-28 10:32:32.250000
1746,315.42,2022-10-28 10:32:32.265625
1747,306.79,2022-10-28 10:32:32.281250
1748,293.18,2022-10-28 10:32:32.296875
1749,280.35,2022-10-28 10:32:32.312500
1750,273.6,2022-10-28 10:32:32.328125
1751,274.87,2022-10-28 10:32:32.343750
1752,282.37,2022-10-28 10:32:32.359375
1753,291.88,2022-10-28 10:32:32.375000
1754,299.81,2022-10-28 10:32:32.390625
1755,304.78,2022-10-28 10:32:32.406250
1756,307.26,2022-10-28 10:32:32.421875
1757,308.1,2022-10-28 10:32:32.437500
1758,306.13,2022-10-28 10:32:32.453125
1759,298.74,2022-10-28 10:32:32.468750
1760,282.85,2022-10-28 10:32:32.484375
1761,258.11,2022-10-28 10:32:32.500000
1762,228.15,2022-10-28 10:32:32.515625
1763,198.96,2022-10-28 10:32:32.531250
1764,175.57,2022-10-28 10:32:32.546875
1765,159.18,2022-10-28 10:32:32.562500
1766,147.59,2022-10-28 10:32:32.578125
1767,137.47,2022-10-28 10:32:32.593750
1768,128.27,2022-10-28 10:32:32.609375
1769,123.16,2022-10-28 10:32:32.625000
1770,127.35,2022-10-28 10:32:32.640625
1771,143.06,2022-10-28 10:32:32.656250
1772,166.21,2022-10-28 10:32:32.671875
1773,187.33,2022-10-28 10:32:32.687500
1774,194.83,2022-10-28 10:32:32.703125
1775,181.7,2022-10-28 10:32:32.718750
1776,149.4,2022-10-28 10:32:32.734375
1777,107.34,2022-10-28 10:32:32.750000
1778,67.96,2022-10-28 10:32:32.765625
1779,40.76,2022-10-28 10:32:32.781250
1780,28.46,2022-10-28 10:32:32.796875
1781,27.39,2022-10-28 10:32:32.812500
1782,31.54,2022-10-28 10:32:32.828125
1783,35.28,2022-10-28 10:32:32.843750
1784,35.76,2022-10-28 10:32:32.859375
1785,31.6,2022-10-28 10:32:32.875000
1786,22.06,2022-10-28 10:32:32.890625
1787,6.97,2022-10-28 10:32:32.906250
1788,-12.79,2022-10-28 10:32:32.921875
1789,-34.98,2022-10-28 10:32:32.937500
1790,-57.71,2022-10-28 10:32:32.953125
1791,-80.99,2022-10-28 10:32:32.968750
1792,-109.09,2022-10-28 10:32:32.984375
1793,-149.53,2022-10-28 10:32:33.000000
1794,-210.6,2022-10-28 10:32:33.015625
1795,-297.48,2022-10-28 10:32:33.031250
1796,-409.75,2022-10-28 10:32:33.046875
1797,-541.51,2022-10-28 10:32:33.062500
1798,-683.17,2022-10-28 10:32:33.078125
1799,-824.33,2022-10-28 10:32:33.093750
1800,-956.38,2022-10-28 10:32:33.109375
1801,-1074.46,2022-10-28 10:32:33.125000
1802,-1177.02,2022-10-28 10:32:33.140625
1803,-1265.2,2022-10-28 10:32:33.156250
1804,-1340.15,2022-10-28 10:32:33.171875
1805,-1400.72,2022-10-28 10:32:33.187500
1806,-1443.34,2022-10-28 10:32:33.203125
1807,-1463.42,2022-10-28 10:32:33.218750
1808,-1457.84,2022-10-28 10:32:33.234375
1809,-1426.37,2022-10-28 10:32:33.250000
1810,-1371.73,2022-10-28 10:32:33.265625
1811,-1297.88,2022-10-28 10:32:33.281250
1812,-1207.16,2022-10-28 10:32:33.296875
1813,-1100.54,2022-10-28 10:32:33.312500
1814,-977.66,2022-10-28 10:32:33.328125
1815,-838.95,2022-10-28 10:32:33.343750
1816,-685.37,2022-10-28 10:32:33.359375
1817,-518.27,2022-10-28 10:32:33.375000
1818,-338.59,2022-10-28 10:32:33.390625
1819,-148.37,2022-10-28 10:32:33.406250
1820,47.61,2022-10-28 10:32:33.421875
1821,239.83,2022-10-28 10:32:33.437500
1822,415.59,2022-10-28 10:32:33.453125
1823,562.93,2022-10-28 10:32:33.468750
1824,675.02,2022-10-28 10:32:33.484375
1825,751.84,2022-10-28 10:32:33.500000
1826,797.99,2022-10-28 10:32:33.515625
1827,819.12,2022-10-28 10:32:33.531250
1828,819.51,2022-10-28 10:32:33.546875
1829,802.71,2022-10-28 10:32:33.562500
1830,773.63,2022-10-28 10:32:33.578125
1831,739.54,2022-10-28 10:32:33.593750
1832,708.67,2022-10-28 10:32:33.609375
1833,686.26,2022-10-28 10:32:33.625000
1834,672.42,2022-10-28 10:32:33.640625
1835,662.97,2022-10-28 10:32:33.656250
1836,654.33,2022-10-28 10:32:33.671875
1837,647.96,2022-10-28 10:32:33.687500
1838,650.86,2022-10-28 10:32:33.703125
1839,671.13,2022-10-28 10:32:33.718750
1840,710.1,2022-10-28 10:32:33.734375
1841,757.94,2022-10-28 10:32:33.750000
1842,795.23,2022-10-28 10:32:33.765625
1843,800.74,2022-10-28 10:32:33.781250
1844,761.95,2022-10-28 10:32:33.796875
1845,680.86,2022-10-28 10:32:33.812500
1846,573.65,2022-10-28 10:32:33.828125
1847,462.59,2022-10-28 10:32:33.843750
1848,364.99,2022-10-28 10:32:33.859375
1849,286.44,2022-10-28 10:32:33.875000
1850,219.72,2022-10-28 10:32:33.890625
1851,150.89,2022-10-28 10:32:33.906250
1852,69.01,2022-10-28 10:32:33.921875
1853,-27.64,2022-10-28 10:32:33.937500
1854,-130.62,2022-10-28 10:32:33.953125
1855,-227.17,2022-10-28 10:32:33.968750
1856,-306.14,2022-10-28 10:32:33.984375
1857,-363.12,2022-10-28 10:32:34.000000
1858,-399.84,2022-10-28 10:32:34.015625
1859,-420.93,2022-10-28 10:32:34.031250
1860,-429.35,2022-10-28 10:32:34.046875
1861,-424.91,2022-10-28 10:32:34.062500
1862,-406.07,2022-10-28 10:32:34.078125
1863,-373.36,2022-10-28 10:32:34.093750
1864,-331.47,2022-10-28 10:32:34.109375
1865,-287.65,2022-10-28 10:32:34.125000
1866,-248.22,2022-10-28 10:32:34.140625
1867,-214.3,2022-10-28 10:32:34.156250
1868,-180.08,2022-10-28 10:32:34.171875
1869,-136.23,2022-10-28 10:32:34.187500
1870,-75.54,2022-10-28 10:32:34.203125
1871,2.32,2022-10-28 10:32:34.218750
1872,88.58,2022-10-28 10:32:34.234375
1873,168.87,2022-10-28 10:32:34.250000
1874,228.17,2022-10-28 10:32:34.265625
1875,257.36,2022-10-28 10:32:34.281250
1876,256.92,2022-10-28 10:32:34.296875
1877,235.56,2022-10-28 10:32:34.312500
1878,206.42,2022-10-28 10:32:34.328125
1879,181.15,2022-10-28 10:32:34.343750
1880,165.95,2022-10-28 10:32:34.359375
1881,160.78,2022-10-28 10:32:34.375000
1882,160.7,2022-10-28 10:32:34.390625
1883,158.29,2022-10-28 10:32:34.406250
1884,146.57,2022-10-28 10:32:34.421875
1885,120.98,2022-10-28 10:32:34.437500
1886,82.01,2022-10-28 10:32:34.453125
1887,35.09,2022-10-28 10:32:34.468750
1888,-9.9,2022-10-28 10:32:34.484375
1889,-41.23,2022-10-28 10:32:34.500000
1890,-49.04,2022-10-28 10:32:34.515625
1891,-29.19,2022-10-28 10:32:34.531250
1892,15.27,2022-10-28 10:32:34.546875
1893,74.93,2022-10-28 10:32:34.562500
1894,137.33,2022-10-28 10:32:34.578125
1895,189.98,2022-10-28 10:32:34.593750
1896,223.46,2022-10-28 10:32:34.609375
1897,233.66,2022-10-28 10:32:34.625000
1898,222.07,2022-10-28 10:32:34.640625
1899,195.0,2022-10-28 10:32:34.656250
1900,162.63,2022-10-28 10:32:34.671875
1901,135.58,2022-10-28 10:32:34.687500
1902,121.35,2022-10-28 10:32:34.703125
1903,121.74,2022-10-28 10:32:34.718750
1904,131.77,2022-10-28 10:32:34.734375
1905,141.82,2022-10-28 10:32:34.750000
1906,141.12,2022-10-28 10:32:34.765625
1907,121.08,2022-10-28 10:32:34.781250
1908,78.39,2022-10-28 10:32:34.796875
1909,16.38,2022-10-28 10:32:34.812500
1910,-54.97,2022-10-28 10:32:34.828125
1911,-121.7,2022-10-28 10:32:34.843750
1912,-170.08,2022-10-28 10:32:34.859375
1913,-190.94,2022-10-28 10:32:34.875000
1914,-183.2,2022-10-28 10:32:34.890625
1915,-154.34,2022-10-28 10:32:34.906250
1916,-117.07,2022-10-28 10:32:34.921875
1917,-84.0,2022-10-28 10:32:34.937500
1918,-61.32,2022-10-28 10:32:34.953125
1919,-47.18,2022-10-28 10:32:34.968750
1920,-34.18,2022-10-28 10:32:34.984375
1921,-15.43,2022-10-28 10:32:35.000000
1922,9.81,2022-10-28 10:32:35.015625
1923,35.12,2022-10-28 10:32:35.031250
1924,50.4,2022-10-28 10:32:35.046875
1925,48.01,2022-10-28 10:32:35.062500
1926,27.16,2022-10-28 10:32:35.078125
1927,-6.87,2022-10-28 10:32:35.093750
1928,-45.57,2022-10-28 10:32:35.109375
1929,-82.11,2022-10-28 10:32:35.125000
1930,-113.1,2022-10-28 10:32:35.140625
1931,-138.01,2022-10-28 10:32:35.156250
1932,-156.56,2022-10-28 10:32:35.171875
1933,-165.94,2022-10-28 10:32:35.187500
1934,-161.55,2022-10-28 10:32:35.203125
1935,-138.75,2022-10-28 10:32:35.218750
1936,-95.4,2022-10-28 10:32:35.234375
1937,-33.89,2022-10-28 10:32:35.250000
1938,40.6,2022-10-28 10:32:35.265625
1939,120.79,2022-10-28 10:32:35.281250
1940,199.25,2022-10-28 10:32:35.296875
1941,270.27,2022-10-28 10:32:35.312500
1942,330.17,2022-10-28 10:32:35.328125
1943,379.3,2022-10-28 10:32:35.343750
1944,421.41,2022-10-28 10:32:35.359375
1945,462.18,2022-10-28 10:32:35.375000
1946,505.48,2022-10-28 10:32:35.390625
1947,550.45,2022-10-28 10:32:35.406250
1948,590.91,2022-10-28 10:32:35.421875
1949,617.39,2022-10-28 10:32:35.437500
1950,622.32,2022-10-28 10:32:35.453125
1951,602.75,2022-10-28 10:32:35.468750
1952,560.03,2022-10-28 10:32:35.484375
1953,496.75,2022-10-28 10:32:35.500000
1954,412.82,2022-10-28 10:32:35.515625
1955,305.4,2022-10-28 10:32:35.531250
1956,171.29,2022-10-28 10:32:35.546875
1957,11.89,2022-10-28 10:32:35.562500
1958,-164.3,2022-10-28 10:32:35.578125
1959,-343.56,2022-10-28 10:32:35.593750
1960,-511.08,2022-10-28 10:32:35.609375
1961,-655.78,2022-10-28 10:32:35.625000
1962,-771.6,2022-10-28 10:32:35.640625
1963,-855.99,2022-10-28 10:32:35.656250
1964,-907.28,2022-10-28 10:32:35.671875
1965,-922.51,2022-10-28 10:32:35.687500
1966,-899.69,2022-10-28 10:32:35.703125
1967,-840.23,2022-10-28 10:32:35.718750
1968,-750.25,2022-10-28 10:32:35.734375
1969,-639.93,2022-10-28 10:32:35.750000
1970,-519.04,2022-10-28 10:32:35.765625
1971,-393.76,2022-10-28 10:32:35.781250
1972,-265.73,2022-10-28 10:32:35.796875
1973,-134.16,2022-10-28 10:32:35.812500
1974,-0.31,2022-10-28 10:32:35.828125
1975,130.29,2022-10-28 10:32:35.843750
1976,248.65,2022-10-28 10:32:35.859375
1977,346.97,2022-10-28 10:32:35.875000
1978,422.14,2022-10-28 10:32:35.890625
1979,477.21,2022-10-28 10:32:35.906250
1980,518.71,2022-10-28 10:32:35.921875
1981,551.22,2022-10-28 10:32:35.937500
1982,574.34,2022-10-28 10:32:35.953125
1983,582.17,2022-10-28 10:32:35.968750
1984,567.19,2022-10-28 10:32:35.984375
1985,525.14,2022-10-28 10:32:36.000000
1986,457.78,2022-10-28 10:32:36.015625
1987,372.18,2022-10-28 10:32:36.031250
1988,277.2,2022-10-28 10:32:36.046875
1989,179.67,2022-10-28 10:32:36.062500
1990,82.83,2022-10-28 10:32:36.078125
1991,-13.04,2022-10-28 10:32:36.093750
1992,-108.57,2022-10-28 10:32:36.109375
1993,-203.26,2022-10-28 10:32:36.125000
1994,-295.83,2022-10-28 10:32:36.140625
1995,-385.91,2022-10-28 10:32:36.156250
1996,-474.28,2022-10-28 10:32:36.171875
1997,-561.37,2022-10-28 10:32:36.187500
1998,-645.84,2022-10-28 10:32:36.203125
1999,-723.25,2022-10-28 10:32:36.218750
2000,-787.35,2022-10-28 10:32:36.234375
2001,-833.01,2022-10-28 10:32:36.250000
2002,-858.81,2022-10-28 10:32:36.265625
2003,-866.89,2022-10-28 10:32:36.281250
2004,-860.4,2022-10-28 10:32:36.296875
2005,-839.77,2022-10-28 10:32:36.312500
2006,-800.15,2022-10-28 10:32:36.328125
2007,-733.26,2022-10-28 10:32:36.343750
2008,-632.84,2022-10-28 10:32:36.359375
2009,-499.9,2022-10-28 10:32:36.375000
2010,-346.23,2022-10-28 10:32:36.390625
2011,-191.37,2022-10-28 10:32:36.406250
2012,-55.92,2022-10-28 10:32:36.421875
2013,46.34,2022-10-28 10:32:36.437500
2014,113.95,2022-10-28 10:32:36.453125
2015,156.01,2022-10-28 10:32:36.468750
2016,187.1,2022-10-28 10:32:36.484375
2017,219.55,2022-10-28 10:32:36.500000
2018,258.26,2022-10-28 10:32:36.515625
2019,300.1,2022-10-28 10:32:36.531250
2020,337.06,2022-10-28 10:32:36.546875
2021,361.86,2022-10-28 10:32:36.562500
2022,372.61,2022-10-28 10:32:36.578125
2023,372.97,2022-10-28 10:32:36.593750
2024,369.04,2022-10-28 10:32:36.609375
2025,365.37,2022-10-28 10:32:36.625000
2026,362.37,2022-10-28 10:32:36.640625
2027,357.69,2022-10-28 10:32:36.656250
2028,349.67,2022-10-28 10:32:36.671875
2029,341.08,2022-10-28 10:32:36.687500
2030,338.64,2022-10-28 10:32:36.703125
2031,348.49,2022-10-28 10:32:36.718750
2032,371.33,2022-10-28 10:32:36.734375
2033,400.48,2022-10-28 10:32:36.750000
2034,425.02,2022-10-28 10:32:36.765625
2035,435.9,2022-10-28 10:32:36.781250
2036,431.51,2022-10-28 10:32:36.796875
2037,417.83,2022-10-28 10:32:36.812500
2038,403.82,2022-10-28 10:32:36.828125
2039,394.43,2022-10-28 10:32:36.843750
2040,385.86,2022-10-28 10:32:36.859375
2041,368.04,2022-10-28 10:32:36.875000
2042,330.12,2022-10-28 10:32:36.890625
2043,268.25,2022-10-28 10:32:36.906250
2044,187.6,2022-10-28 10:32:36.921875
2045,99.43,2022-10-28 10:32:36.937500
2046,15.75,2022-10-28 10:32:36.953125
2047,-56.56,2022-10-28 10:32:36.968750
2048,-116.76,2022-10-28 10:32:36.984375
2049,-168.0,2022-10-28 10:32:37.000000
2050,-214.14,2022-10-28 10:32:37.015625
2051,-256.99,2022-10-28 10:32:37.031250
2052,-296.58,2022-10-28 10:32:37.046875
2053,-332.43,2022-10-28 10:32:37.062500
2054,-364.9,2022-10-28 10:32:37.078125
2055,-395.04,2022-10-28 10:32:37.093750
2056,-423.56,2022-10-28 10:32:37.109375
2057,-449.02,2022-10-28 10:32:37.125000
2058,-467.69,2022-10-28 10:32:37.140625
2059,-474.74,2022-10-28 10:32:37.156250
2060,-466.09,2022-10-28 10:32:37.171875
2061,-440.53,2022-10-28 10:32:37.187500
2062,-400.29,2022-10-28 10:32:37.203125
2063,-350.56,2022-10-28 10:32:37.218750
2064,-298.08,2022-10-28 10:32:37.234375
2065,-248.86,2022-10-28 10:32:37.250000
2066,-206.22,2022-10-28 10:32:37.265625
2067,-169.67,2022-10-28 10:32:37.281250
2068,-135.01,2022-10-28 10:32:37.296875
2069,-96.2,2022-10-28 10:32:37.312500
2070,-47.55,2022-10-28 10:32:37.328125
2071,14.25,2022-10-28 10:32:37.343750
2072,88.44,2022-10-28 10:32:37.359375
2073,170.25,2022-10-28 10:32:37.375000
2074,251.26,2022-10-28 10:32:37.390625
2075,321.99,2022-10-28 10:32:37.406250
2076,373.74,2022-10-28 10:32:37.421875
2077,400.17,2022-10-28 10:32:37.437500
2078,400.1,2022-10-28 10:32:37.453125
2079,377.78,2022-10-28 10:32:37.468750
2080,342.55,2022-10-28 10:32:37.484375
2081,306.35,2022-10-28 10:32:37.500000
2082,279.14,2022-10-28 10:32:37.515625
2083,265.12,2022-10-28 10:32:37.531250
2084,261.05,2022-10-28 10:32:37.546875
2085,258.48,2022-10-28 10:32:37.562500
2086,248.32,2022-10-28 10:32:37.578125
2087,225.86,2022-10-28 10:32:37.593750
2088,192.12,2022-10-28 10:32:37.609375
2089,152.65,2022-10-28 10:32:37.625000
2090,113.96,2022-10-28 10:32:37.640625
2091,80.07,2022-10-28 10:32:37.656250
2092,51.83,2022-10-28 10:32:37.671875
2093,27.73,2022-10-28 10:32:37.687500
2094,5.77,2022-10-28 10:32:37.703125
2095,-15.52,2022-10-28 10:32:37.718750
2096,-37.73,2022-10-28 10:32:37.734375
2097,-63.22,2022-10-28 10:32:37.750000
2098,-94.9,2022-10-28 10:32:37.765625
2099,-134.36,2022-10-28 10:32:37.781250
2100,-179.96,2022-10-28 10:32:37.796875
2101,-226.38,2022-10-28 10:32:37.812500
2102,-267.31,2022-10-28 10:32:37.828125
2103,-298.09,2022-10-28 10:32:37.843750
2104,-316.83,2022-10-28 10:32:37.859375
2105,-325.04,2022-10-28 10:32:37.875000
2106,-325.4,2022-10-28 10:32:37.890625
2107,-319.8,2022-10-28 10:32:37.906250
2108,-308.55,2022-10-28 10:32:37.921875
2109,-291.45,2022-10-28 10:32:37.937500
2110,-268.91,2022-10-28 10:32:37.953125
2111,-243.5,2022-10-28 10:32:37.968750
2112,-219.38,2022-10-28 10:32:37.984375
2113,-200.87,2022-10-28 10:32:38.000000
2114,-190.11,2022-10-28 10:32:38.015625
2115,-186.36,2022-10-28 10:32:38.031250
2116,-186.05,2022-10-28 10:32:38.046875
2117,-184.66,2022-10-28 10:32:38.062500
2118,-178.28,2022-10-28 10:32:38.078125
2119,-164.24,2022-10-28 10:32:38.093750
2120,-142.09,2022-10-28 10:32:38.109375
2121,-112.74,2022-10-28 10:32:38.125000
2122,-78.97,2022-10-28 10:32:38.140625
2123,-44.87,2022-10-28 10:32:38.156250
2124,-14.4,2022-10-28 10:32:38.171875
2125,9.84,2022-10-28 10:32:38.187500
2126,28.78,2022-10-28 10:32:38.203125
2127,46.93,2022-10-28 10:32:38.218750
2128,71.56,2022-10-28 10:32:38.234375
2129,109.9,2022-10-28 10:32:38.250000
2130,164.86,2022-10-28 10:32:38.265625
2131,232.29,2022-10-28 10:32:38.281250
2132,301.39,2022-10-28 10:32:38.296875
2133,358.48,2022-10-28 10:32:38.312500
2134,392.85,2022-10-28 10:32:38.328125
2135,401.35,2022-10-28 10:32:38.343750
2136,389.41,2022-10-28 10:32:38.359375
2137,367.98,2022-10-28 10:32:38.375000
2138,347.61,2022-10-28 10:32:38.390625
2139,333.59,2022-10-28 10:32:38.406250
2140,323.83,2022-10-28 10:32:38.421875
2141,311.06,2022-10-28 10:32:38.437500
2142,287.43,2022-10-28 10:32:38.453125
2143,250.08,2022-10-28 10:32:38.468750
2144,203.34,2022-10-28 10:32:38.484375
2145,156.99,2022-10-28 10:32:38.500000
2146,122.57,2022-10-28 10:32:38.515625
2147,108.07,2022-10-28 10:32:38.531250
2148,114.92,2022-10-28 10:32:38.546875
2149,137.72,2022-10-28 10:32:38.562500
2150,168.2,2022-10-28 10:32:38.578125
2151,199.42,2022-10-28 10:32:38.593750
2152,227.97,2022-10-28 10:32:38.609375
2153,254.97,2022-10-28 10:32:38.625000
2154,284.33,2022-10-28 10:32:38.640625
2155,318.8,2022-10-28 10:32:38.656250
2156,358.01,2022-10-28 10:32:38.671875
2157,396.46,2022-10-28 10:32:38.687500
2158,425.62,2022-10-28 10:32:38.703125
2159,436.72,2022-10-28 10:32:38.718750
2160,424.61,2022-10-28 10:32:38.734375
2161,390.69,2022-10-28 10:32:38.750000
2162,341.51,2022-10-28 10:32:38.765625
2163,284.6,2022-10-28 10:32:38.781250
2164,224.41,2022-10-28 10:32:38.796875
2165,159.63,2022-10-28 10:32:38.812500
2166,85.05,2022-10-28 10:32:38.828125
2167,-3.07,2022-10-28 10:32:38.843750
2168,-102.92,2022-10-28 10:32:38.859375
2169,-205.5,2022-10-28 10:32:38.875000
2170,-298.04,2022-10-28 10:32:38.890625
2171,-370.02,2022-10-28 10:32:38.906250
2172,-417.49,2022-10-28 10:32:38.921875
2173,-444.7,2022-10-28 10:32:38.937500
2174,-461.06,2022-10-28 10:32:38.953125
2175,-475.74,2022-10-28 10:32:38.968750
2176,-493.79,2022-10-28 10:32:38.984375
2177,-514.94,2022-10-28 10:32:39.000000
2178,-535.17,2022-10-28 10:32:39.015625
2179,-549.24,2022-10-28 10:32:39.031250
2180,-552.71,2022-10-28 10:32:39.046875
2181,-542.97,2022-10-28 10:32:39.062500
2182,-518.9,2022-10-28 10:32:39.078125
2183,-481.23,2022-10-28 10:32:39.093750
2184,-433.61,2022-10-28 10:32:39.109375
2185,-382.5,2022-10-28 10:32:39.125000
2186,-336.07,2022-10-28 10:32:39.140625
2187,-300.72,2022-10-28 10:32:39.156250
2188,-277.35,2022-10-28 10:32:39.171875
2189,-260.4,2022-10-28 10:32:39.187500
2190,-239.82,2022-10-28 10:32:39.203125
2191,-207.11,2022-10-28 10:32:39.218750
2192,-160.57,2022-10-28 10:32:39.234375
2193,-107.47,2022-10-28 10:32:39.250000
2194,-59.83,2022-10-28 10:32:39.265625
2195,-27.59,2022-10-28 10:32:39.281250
2196,-12.29,2022-10-28 10:32:39.296875
2197,-5.91,2022-10-28 10:32:39.312500
2198,4.46,2022-10-28 10:32:39.328125
2199,29.18,2022-10-28 10:32:39.343750
2200,70.66,2022-10-28 10:32:39.359375
2201,123.19,2022-10-28 10:32:39.375000
2202,177.17,2022-10-28 10:32:39.390625
2203,224.33,2022-10-28 10:32:39.406250
2204,260.22,2022-10-28 10:32:39.421875
2205,283.05,2022-10-28 10:32:39.437500
2206,290.9,2022-10-28 10:32:39.453125
2207,279.85,2022-10-28 10:32:39.468750
2208,246.55,2022-10-28 10:32:39.484375
2209,190.66,2022-10-28 10:32:39.500000
2210,117.42,2022-10-28 10:32:39.515625
2211,36.37,2022-10-28 10:32:39.531250
2212,-42.38,2022-10-28 10:32:39.546875
2213,-112.53,2022-10-28 10:32:39.562500
2214,-173.15,2022-10-28 10:32:39.578125
2215,-226.51,2022-10-28 10:32:39.593750
2216,-275.3,2022-10-28 10:32:39.609375
2217,-318.46,2022-10-28 10:32:39.625000
2218,-351.54,2022-10-28 10:32:39.640625
2219,-368.05,2022-10-28 10:32:39.656250
2220,-363.28,2022-10-28 10:32:39.671875
2221,-336.75,2022-10-28 10:32:39.687500
2222,-292.64,2022-10-28 10:32:39.703125
2223,-237.09,2022-10-28 10:32:39.718750
2224,-175.84,2022-10-28 10:32:39.734375
2225,-112.56,2022-10-28 10:32:39.750000
2226,-48.91,2022-10-28 10:32:39.765625
2227,13.98,2022-10-28 10:32:39.781250
2228,73.7,2022-10-28 10:32:39.796875
2229,125.33,2022-10-28 10:32:39.812500
2230,162.23,2022-10-28 10:32:39.828125
2231,178.44,2022-10-28 10:32:39.843750
2232,171.91,2022-10-28 10:32:39.859375
2233,146.51,2022-10-28 10:32:39.875000
2234,110.76,2022-10-28 10:32:39.890625
2235,74.72,2022-10-28 10:32:39.906250
2236,45.38,2022-10-28 10:32:39.921875
2237,24.57,2022-10-28 10:32:39.937500
2238,9.49,2022-10-28 10:32:39.953125
2239,-4.76,2022-10-28 10:32:39.968750
2240,-21.16,2022-10-28 10:32:39.984375
2241,-39.17,2022-10-28 10:32:40.000000
2242,-54.49,2022-10-28 10:32:40.015625
2243,-60.29,2022-10-28 10:32:40.031250
2244,-49.39,2022-10-28 10:32:40.046875
2245,-15.93,2022-10-28 10:32:40.062500
2246,42.64,2022-10-28 10:32:40.078125
2247,124.02,2022-10-28 10:32:40.093750
2248,220.01,2022-10-28 10:32:40.109375
2249,317.09,2022-10-28 10:32:40.125000
2250,399.24,2022-10-28 10:32:40.140625
2251,451.83,2022-10-28 10:32:40.156250
2252,466.98,2022-10-28 10:32:40.171875
2253,445.82,2022-10-28 10:32:40.187500
2254,397.56,2022-10-28 10:32:40.203125
2255,337.02,2022-10-28 10:32:40.218750
2256,279.86,2022-10-28 10:32:40.234375
2257,239.03,2022-10-28 10:32:40.250000
2258,221.58,2022-10-28 10:32:40.265625
2259,228.55,2022-10-28 10:32:40.281250
2260,256.41,2022-10-28 10:32:40.296875
2261,298.25,2022-10-28 10:32:40.312500
2262,345.79,2022-10-28 10:32:40.328125
2263,390.11,2022-10-28 10:32:40.343750
2264,422.52,2022-10-28 10:32:40.359375
2265,436.19,2022-10-28 10:32:40.375000
2266,428.71,2022-10-28 10:32:40.390625
2267,403.34,2022-10-28 10:32:40.406250
2268,368.52,2022-10-28 10:32:40.421875
2269,334.75,2022-10-28 10:32:40.437500
2270,309.48,2022-10-28 10:32:40.453125
2271,293.37,2022-10-28 10:32:40.468750
2272,280.52,2022-10-28 10:32:40.484375
2273,261.74,2022-10-28 10:32:40.500000
2274,229.43,2022-10-28 10:32:40.515625
2275,181.6,2022-10-28 10:32:40.531250
2276,122.2,2022-10-28 10:32:40.546875
2277,59.11,2022-10-28 10:32:40.562500
2278,1.16,2022-10-28 10:32:40.578125
2279,-44.66,2022-10-28 10:32:40.593750
2280,-74.72,2022-10-28 10:32:40.609375
2281,-89.78,2022-10-28 10:32:40.625000
2282,-94.41,2022-10-28 10:32:40.640625
2283,-97.01,2022-10-28 10:32:40.656250
2284,-107.07,2022-10-28 10:32:40.671875
2285,-132.91,2022-10-28 10:32:40.687500
2286,-178.13,2022-10-28 10:32:40.703125
2287,-239.77,2022-10-28 10:32:40.718750
2288,-308.67,2022-10-28 10:32:40.734375
2289,-372.13,2022-10-28 10:32:40.750000
2290,-418.07,2022-10-28 10:32:40.765625
2291,-439.56,2022-10-28 10:32:40.781250
2292,-436.19,2022-10-28 10:32:40.796875
2293,-413.39,2022-10-28 10:32:40.812500
2294,-378.82,2022-10-28 10:32:40.828125
2295,-338.69,2022-10-28 10:32:40.843750
2296,-295.72,2022-10-28 10:32:40.859375
2297,-249.06,2022-10-28 10:32:40.875000
2298,-197.54,2022-10-28 10:32:40.890625
2299,-142.56,2022-10-28 10:32:40.906250
2300,-89.24,2022-10-28 10:32:40.921875
2301,-44.79,2022-10-28 10:32:40.937500
2302,-14.91,2022-10-28 10:32:40.953125
2303,-1.58,2022-10-28 10:32:40.968750
2304,-2.67,2022-10-28 10:32:40.984375
2305,-13.92,2022-10-28 10:32:41.000000
2306,-31.22,2022-10-28 10:32:41.015625
2307,-51.54,2022-10-28 10:32:41.031250
2308,-71.65,2022-10-28 10:32:41.046875
2309,-87.35,2022-10-28 10:32:41.062500
2310,-92.82,2022-10-28 10:32:41.078125
2311,-82.8,2022-10-28 10:32:41.093750
2312,-54.86,2022-10-28 10:32:41.109375
2313,-11.35,2022-10-28 10:32:41.125000
2314,40.72,2022-10-28 10:32:41.140625
2315,91.97,2022-10-28 10:32:41.156250
2316,133.29,2022-10-28 10:32:41.171875
2317,157.64,2022-10-28 10:32:41.187500
2318,161.0,2022-10-28 10:32:41.203125
2319,142.94,2022-10-28 10:32:41.218750
2320,106.16,2022-10-28 10:32:41.234375
2321,56.07,2022-10-28 10:32:41.250000
2322,-0.23,2022-10-28 10:32:41.265625
2323,-56.44,2022-10-28 10:32:41.281250
2324,-109.12,2022-10-28 10:32:41.296875
2325,-158.57,2022-10-28 10:32:41.312500
2326,-207.54,2022-10-28 10:32:41.328125
2327,-258.6,2022-10-28 10:32:41.343750
2328,-310.98,2022-10-28 10:32:41.359375
2329,-359.08,2022-10-28 10:32:41.375000
2330,-395.36,2022-10-28 10:32:41.390625
2331,-414.41,2022-10-28 10:32:41.406250
2332,-417.51,2022-10-28 10:32:41.421875
2333,-412.95,2022-10-28 10:32:41.437500
2334,-412.32,2022-10-28 10:32:41.453125
2335,-423.87,2022-10-28 10:32:41.468750
2336,-447.69,2022-10-28 10:32:41.484375
2337,-475.33,2022-10-28 10:32:41.500000
2338,-494.04,2022-10-28 10:32:41.515625
2339,-493.21,2022-10-28 10:32:41.531250
2340,-469.16,2022-10-28 10:32:41.546875
2341,-426.51,2022-10-28 10:32:41.562500
2342,-373.91,2022-10-28 10:32:41.578125
2343,-319.8,2022-10-28 10:32:41.593750
2344,-268.34,2022-10-28 10:32:41.609375
2345,-219.71,2022-10-28 10:32:41.625000
2346,-173.2,2022-10-28 10:32:41.640625
2347,-130.44,2022-10-28 10:32:41.656250
2348,-95.95,2022-10-28 10:32:41.671875
2349,-74.64,2022-10-28 10:32:41.687500
2350,-68.12,2022-10-28 10:32:41.703125
2351,-71.94,2022-10-28 10:32:41.718750
2352,-77.17,2022-10-28 10:32:41.734375
2353,-74.33,2022-10-28 10:32:41.750000
2354,-58.21,2022-10-28 10:32:41.765625
2355,-29.78,2022-10-28 10:32:41.781250
2356,4.83,2022-10-28 10:32:41.796875
2357,38.1,2022-10-28 10:32:41.812500
2358,65.64,2022-10-28 10:32:41.828125
2359,88.06,2022-10-28 10:32:41.843750
2360,111.08,2022-10-28 10:32:41.859375
2361,142.11,2022-10-28 10:32:41.875000
2362,187.11,2022-10-28 10:32:41.890625
2363,247.61,2022-10-28 10:32:41.906250
2364,318.67,2022-10-28 10:32:41.921875
2365,390.38,2022-10-28 10:32:41.937500
2366,449.36,2022-10-28 10:32:41.953125
2367,482.7,2022-10-28 10:32:41.968750
2368,482.44,2022-10-28 10:32:41.984375
2369,448.28,2022-10-28 10:32:42.000000
2370,388.24,2022-10-28 10:32:42.015625
2371,316.9,2022-10-28 10:32:42.031250
2372,251.03,2022-10-28 10:32:42.046875
2373,204.26,2022-10-28 10:32:42.062500
2374,183.82,2022-10-28 10:32:42.078125
2375,188.43,2022-10-28 10:32:42.093750
2376,210.41,2022-10-28 10:32:42.109375
2377,238.14,2022-10-28 10:32:42.125000
2378,260.39,2022-10-28 10:32:42.140625
2379,268.81,2022-10-28 10:32:42.156250
2380,260.81,2022-10-28 10:32:42.171875
2381,240.24,2022-10-28 10:32:42.187500
2382,216.42,2022-10-28 10:32:42.203125
2383,202.03,2022-10-28 10:32:42.218750
2384,209.44,2022-10-28 10:32:42.234375
2385,246.1,2022-10-28 10:32:42.250000
2386,310.88,2022-10-28 10:32:42.265625
2387,393.28,2022-10-28 10:32:42.281250
2388,476.11,2022-10-28 10:32:42.296875
2389,541.29,2022-10-28 10:32:42.312500
2390,575.52,2022-10-28 10:32:42.328125
2391,572.9,2022-10-28 10:32:42.343750
2392,535.44,2022-10-28 10:32:42.359375
2393,469.85,2022-10-28 10:32:42.375000
2394,383.5,2022-10-28 10:32:42.390625
2395,283.22,2022-10-28 10:32:42.406250
2396,175.2,2022-10-28 10:32:42.421875
2397,66.29,2022-10-28 10:32:42.437500
2398,-35.15,2022-10-28 10:32:42.453125
2399,-122.12,2022-10-28 10:32:42.468750
2400,-190.91,2022-10-28 10:32:42.484375
2401,-243.4,2022-10-28 10:32:42.500000
2402,-285.76,2022-10-28 10:32:42.515625
2403,-324.45,2022-10-28 10:32:42.531250
2404,-362.8,2022-10-28 10:32:42.546875
2405,-398.71,2022-10-28 10:32:42.562500
2406,-426.24,2022-10-28 10:32:42.578125
2407,-438.73,2022-10-28 10:32:42.593750
2408,-432.85,2022-10-28 10:32:42.609375
2409,-410.22,2022-10-28 10:32:42.625000
2410,-376.46,2022-10-28 10:32:42.640625
2411,-338.73,2022-10-28 10:32:42.656250
2412,-302.26,2022-10-28 10:32:42.671875
2413,-268.44,2022-10-28 10:32:42.687500
2414,-235.25,2022-10-28 10:32:42.703125
2415,-200.1,2022-10-28 10:32:42.718750
2416,-161.38,2022-10-28 10:32:42.734375
2417,-120.02,2022-10-28 10:32:42.750000
2418,-78.67,2022-10-28 10:32:42.765625
2419,-40.05,2022-10-28 10:32:42.781250
2420,-6.36,2022-10-28 10:32:42.796875
2421,22.03,2022-10-28 10:32:42.812500
2422,46.0,2022-10-28 10:32:42.828125
2423,67.01,2022-10-28 10:32:42.843750
2424,86.31,2022-10-28 10:32:42.859375
2425,105.26,2022-10-28 10:32:42.875000
2426,124.27,2022-10-28 10:32:42.890625
2427,142.65,2022-10-28 10:32:42.906250
2428,158.51,2022-10-28 10:32:42.921875
2429,168.32,2022-10-28 10:32:42.937500
2430,168.93,2022-10-28 10:32:42.953125
2431,158.67,2022-10-28 10:32:42.968750
2432,138.62,2022-10-28 10:32:42.984375
2433,111.69,2022-10-28 10:32:43.000000
2434,80.83,2022-10-28 10:32:43.015625
2435,47.31,2022-10-28 10:32:43.031250
2436,10.44,2022-10-28 10:32:43.046875
2437,-30.15,2022-10-28 10:32:43.062500
2438,-73.86,2022-10-28 10:32:43.078125
2439,-116.24,2022-10-28 10:32:43.093750
2440,-150.63,2022-10-28 10:32:43.109375
2441,-170.87,2022-10-28 10:32:43.125000
2442,-174.33,2022-10-28 10:32:43.140625
2443,-163.78,2022-10-28 10:32:43.156250
2444,-145.77,2022-10-28 10:32:43.171875
2445,-126.6,2022-10-28 10:32:43.187500
2446,-108.14,2022-10-28 10:32:43.203125
2447,-87.22,2022-10-28 10:32:43.218750
2448,-57.02,2022-10-28 10:32:43.234375
2449,-12.72,2022-10-28 10:32:43.250000
2450,44.21,2022-10-28 10:32:43.265625
2451,105.01,2022-10-28 10:32:43.281250
2452,156.5,2022-10-28 10:32:43.296875
2453,187.15,2022-10-28 10:32:43.312500
2454,191.92,2022-10-28 10:32:43.328125
2455,174.93,2022-10-28 10:32:43.343750
2456,146.77,2022-10-28 10:32:43.359375
2457,119.17,2022-10-28 10:32:43.375000
2458,99.94,2022-10-28 10:32:43.390625
2459,90.18,2022-10-28 10:32:43.406250
2460,85.29,2022-10-28 10:32:43.421875
2461,77.69,2022-10-28 10:32:43.437500
2462,60.78,2022-10-28 10:32:43.453125
2463,31.18,2022-10-28 10:32:43.468750
2464,-10.6,2022-10-28 10:32:43.484375
2465,-61.66,2022-10-28 10:32:43.500000
2466,-117.57,2022-10-28 10:32:43.515625
2467,-173.04,2022-10-28 10:32:43.531250
2468,-222.93,2022-10-28 10:32:43.546875
2469,-262.11,2022-10-28 10:32:43.562500
2470,-287.25,2022-10-28 10:32:43.578125
2471,-297.99,2022-10-28 10:32:43.593750
2472,-297.4,2022-10-28 10:32:43.609375
2473,-291.63,2022-10-28 10:32:43.625000
2474,-286.53,2022-10-28 10:32:43.640625
2475,-285.35,2022-10-28 10:32:43.656250
2476,-287.15,2022-10-28 10:32:43.671875
2477,-287.62,2022-10-28 10:32:43.687500
2478,-281.41,2022-10-28 10:32:43.703125
2479,-264.57,2022-10-28 10:32:43.718750
2480,-235.35,2022-10-28 10:32:43.734375
2481,-193.73,2022-10-28 10:32:43.750000
2482,-140.62,2022-10-28 10:32:43.765625
2483,-77.9,2022-10-28 10:32:43.781250
2484,-9.37,2022-10-28 10:32:43.796875
2485,58.8,2022-10-28 10:32:43.812500
2486,118.4,2022-10-28 10:32:43.828125
2487,162.18,2022-10-28 10:32:43.843750
2488,187.17,2022-10-28 10:32:43.859375
2489,195.84,2022-10-28 10:32:43.875000
2490,196.11,2022-10-28 10:32:43.890625
2491,197.38,2022-10-28 10:32:43.906250
2492,207.07,2022-10-28 10:32:43.921875
2493,227.65,2022-10-28 10:32:43.937500
2494,256.89,2022-10-28 10:32:43.953125
2495,289.74,2022-10-28 10:32:43.968750
2496,321.84,2022-10-28 10:32:43.984375
2497,350.56,2022-10-28 10:32:44.000000
2498,374.92,2022-10-28 10:32:44.015625
2499,395.05,2022-10-28 10:32:44.031250
2500,411.22,2022-10-28 10:32:44.046875
2501,423.38,2022-10-28 10:32:44.062500
2502,430.52,2022-10-28 10:32:44.078125
2503,430.99,2022-10-28 10:32:44.093750
2504,423.08,2022-10-28 10:32:44.109375
2505,405.17,2022-10-28 10:32:44.125000
2506,376.28,2022-10-28 10:32:44.140625
2507,335.58,2022-10-28 10:32:44.156250
2508,283.12,2022-10-28 10:32:44.171875
2509,219.49,2022-10-28 10:32:44.187500
2510,146.32,2022-10-28 10:32:44.203125
2511,67.62,2022-10-28 10:32:44.218750
2512,-10.83,2022-10-28 10:32:44.234375
2513,-82.72,2022-10-28 10:32:44.250000
2514,-143.91,2022-10-28 10:32:44.265625
2515,-194.1,2022-10-28 10:32:44.281250
2516,-237.56,2022-10-28 10:32:44.296875
2517,-280.12,2022-10-28 10:32:44.312500
2518,-325.49,2022-10-28 10:32:44.328125
2519,-371.99,2022-10-28 10:32:44.343750
2520,-412.51,2022-10-28 10:32:44.359375
2521,-438.97,2022-10-28 10:32:44.375000
2522,-446.71,2022-10-28 10:32:44.390625
2523,-437.71,2022-10-28 10:32:44.406250
2524,-419.61,2022-10-28 10:32:44.421875
2525,-401.49,2022-10-28 10:32:44.437500
2526,-388.56,2022-10-28 10:32:44.453125
2527,-379.46,2022-10-28 10:32:44.468750
2528,-366.99,2022-10-28 10:32:44.484375
2529,-342.51,2022-10-28 10:32:44.500000
2530,-299.61,2022-10-28 10:32:44.515625
2531,-237.62,2022-10-28 10:32:44.531250
2532,-161.88,2022-10-28 10:32:44.546875
2533,-81.03,2022-10-28 10:32:44.562500
2534,-4.39,2022-10-28 10:32:44.578125
2535,61.54,2022-10-28 10:32:44.593750
2536,114.7,2022-10-28 10:32:44.609375
2537,157.4,2022-10-28 10:32:44.625000
2538,195.34,2022-10-28 10:32:44.640625
2539,233.95,2022-10-28 10:32:44.656250
2540,276.63,2022-10-28 10:32:44.671875
2541,323.79,2022-10-28 10:32:44.687500
2542,372.33,2022-10-28 10:32:44.703125
2543,417.14,2022-10-28 10:32:44.718750
2544,452.22,2022-10-28 10:32:44.734375
2545,472.26,2022-10-28 10:32:44.750000
2546,474.05,2022-10-28 10:32:44.765625
2547,457.22,2022-10-28 10:32:44.781250
2548,424.69,2022-10-28 10:32:44.796875
2549,381.36,2022-10-28 10:32:44.812500
2550,331.93,2022-10-28 10:32:44.828125
2551,279.17,2022-10-28 10:32:44.843750
2552,222.73,2022-10-28 10:32:44.859375
2553,160.62,2022-10-28 10:32:44.875000
2554,91.28,2022-10-28 10:32:44.890625
2555,15.89,2022-10-28 10:32:44.906250
2556,-60.42,2022-10-28 10:32:44.921875
2557,-129.87,2022-10-28 10:32:44.937500
2558,-185.14,2022-10-28 10:32:44.953125
2559,-222.51,2022-10-28 10:32:44.968750
2560,-243.66,2022-10-28 10:32:44.984375
2561,-254.94,2022-10-28 10:32:45.000000
2562,-263.87,2022-10-28 10:32:45.015625
2563,-275.87,2022-10-28 10:32:45.031250
2564,-290.9,2022-10-28 10:32:45.046875
2565,-304.16,2022-10-28 10:32:45.062500
2566,-309.71,2022-10-28 10:32:45.078125
2567,-305.1,2022-10-28 10:32:45.093750
2568,-294.45,2022-10-28 10:32:45.109375
2569,-286.64,2022-10-28 10:32:45.125000
2570,-289.67,2022-10-28 10:32:45.140625
2571,-305.97,2022-10-28 10:32:45.156250
2572,-330.44,2022-10-28 10:32:45.171875
2573,-352.81,2022-10-28 10:32:45.187500
2574,-363.58,2022-10-28 10:32:45.203125
2575,-358.33,2022-10-28 10:32:45.218750
2576,-339.65,2022-10-28 10:32:45.234375
2577,-314.02,2022-10-28 10:32:45.250000
2578,-287.2,2022-10-28 10:32:45.265625
2579,-261.15,2022-10-28 10:32:45.281250
2580,-232.66,2022-10-28 10:32:45.296875
2581,-194.61,2022-10-28 10:32:45.312500
2582,-139.26,2022-10-28 10:32:45.328125
2583,-60.17,2022-10-28 10:32:45.343750
2584,45.26,2022-10-28 10:32:45.359375
2585,174.22,2022-10-28 10:32:45.375000
2586,318.19,2022-10-28 10:32:45.390625
2587,463.2,2022-10-28 10:32:45.406250
2588,593.48,2022-10-28 10:32:45.421875
2589,695.28,2022-10-28 10:32:45.437500
2590,760.8,2022-10-28 10:32:45.453125
2591,789.9,2022-10-28 10:32:45.468750
2592,787.41,2022-10-28 10:32:45.484375
2593,760.5,2022-10-28 10:32:45.500000
2594,715.58,2022-10-28 10:32:45.515625
2595,656.07,2022-10-28 10:32:45.531250
2596,582.84,2022-10-28 10:32:45.546875
2597,495.31,2022-10-28 10:32:45.562500
2598,393.42,2022-10-28 10:32:45.578125
2599,279.88,2022-10-28 10:32:45.593750
2600,160.39,2022-10-28 10:32:45.609375
2601,42.43,2022-10-28 10:32:45.625000
2602,-67.49,2022-10-28 10:32:45.640625
2603,-166.27,2022-10-28 10:32:45.656250
2604,-254.9,2022-10-28 10:32:45.671875
2605,-336.67,2022-10-28 10:32:45.687500
2606,-413.0,2022-10-28 10:32:45.703125
2607,-480.76,2022-10-28 10:32:45.718750
2608,-533.04,2022-10-28 10:32:45.734375
2609,-561.59,2022-10-28 10:32:45.750000
2610,-561.46,2022-10-28 10:32:45.765625
2611,-534.58,2022-10-28 10:32:45.781250
2612,-490.26,2022-10-28 10:32:45.796875
2613,-440.99,2022-10-28 10:32:45.812500
2614,-398.02,2022-10-28 10:32:45.828125
2615,-366.45,2022-10-28 10:32:45.843750
2616,-343.57,2022-10-28 10:32:45.859375
2617,-321.27,2022-10-28 10:32:45.875000
2618,-290.27,2022-10-28 10:32:45.890625
2619,-245.07,2022-10-28 10:32:45.906250
2620,-186.61,2022-10-28 10:32:45.921875
2621,-120.68,2022-10-28 10:32:45.937500
2622,-54.28,2022-10-28 10:32:45.953125
2623,8.78,2022-10-28 10:32:45.968750
2624,69.47,2022-10-28 10:32:45.984375
2625,132.21,2022-10-28 10:32:46.000000
2626,200.59,2022-10-28 10:32:46.015625
2627,274.37,2022-10-28 10:32:46.031250
2628,347.88,2022-10-28 10:32:46.046875
2629,413.07,2022-10-28 10:32:46.062500
2630,463.59,2022-10-28 10:32:46.078125
2631,497.58,2022-10-28 10:32:46.093750
2632,517.57,2022-10-28 10:32:46.109375
2633,527.59,2022-10-28 10:32:46.125000
2634,529.96,2022-10-28 10:32:46.140625
2635,523.42,2022-10-28 10:32:46.156250
2636,504.5,2022-10-28 10:32:46.171875
2637,469.8,2022-10-28 10:32:46.187500
2638,418.29,2022-10-28 10:32:46.203125
2639,352.72,2022-10-28 10:32:46.218750
2640,279.45,2022-10-28 10:32:46.234375
2641,206.5,2022-10-28 10:32:46.250000
2642,141.03,2022-10-28 10:32:46.265625
2643,86.96,2022-10-28 10:32:46.281250
2644,43.5,2022-10-28 10:32:46.296875
2645,6.35,2022-10-28 10:32:46.312500
2646,-29.33,2022-10-28 10:32:46.328125
2647,-65.23,2022-10-28 10:32:46.343750
2648,-98.68,2022-10-28 10:32:46.359375
2649,-124.6,2022-10-28 10:32:46.375000
2650,-138.61,2022-10-28 10:32:46.390625
2651,-139.78,2022-10-28 10:32:46.406250
2652,-132.05,2022-10-28 10:32:46.421875
2653,-122.21,2022-10-28 10:32:46.437500
2654,-117.16,2022-10-28 10:32:46.453125
2655,-122.02,2022-10-28 10:32:46.468750
2656,-139.87,2022-10-28 10:32:46.484375
2657,-172.49,2022-10-28 10:32:46.500000
2658,-221.01,2022-10-28 10:32:46.515625
2659,-284.26,2022-10-28 10:32:46.531250
2660,-357.99,2022-10-28 10:32:46.546875
2661,-435.37,2022-10-28 10:32:46.562500
2662,-509.81,2022-10-28 10:32:46.578125
2663,-577.64,2022-10-28 10:32:46.593750
2664,-639.38,2022-10-28 10:32:46.609375
2665,-697.82,2022-10-28 10:32:46.625000
2666,-753.45,2022-10-28 10:32:46.640625
2667,-802.46,2022-10-28 10:32:46.656250
2668,-837.35,2022-10-28 10:32:46.671875
2669,-850.49,2022-10-28 10:32:46.687500
2670,-838.8,2022-10-28 10:32:46.703125
2671,-805.06,2022-10-28 10:32:46.718750
2672,-756.33,2022-10-28 10:32:46.734375
2673,-699.3,2022-10-28 10:32:46.750000
2674,-636.49,2022-10-28 10:32:46.765625
2675,-564.86,2022-10-28 10:32:46.781250
2676,-478.06,2022-10-28 10:32:46.796875
2677,-370.36,2022-10-28 10:32:46.812500
2678,-240.34,2022-10-28 10:32:46.828125
2679,-91.92,2022-10-28 10:32:46.843750
2680,67.09,2022-10-28 10:32:46.859375
2681,227.2,2022-10-28 10:32:46.875000
2682,379.9,2022-10-28 10:32:46.890625
2683,518.22,2022-10-28 10:32:46.906250
2684,638.06,2022-10-28 10:32:46.921875
2685,737.73,2022-10-28 10:32:46.937500
2686,817.03,2022-10-28 10:32:46.953125
2687,877.08,2022-10-28 10:32:46.968750
2688,918.79,2022-10-28 10:32:46.984375
2689,942.86,2022-10-28 10:32:47.000000
2690,949.9,2022-10-28 10:32:47.015625
2691,940.58,2022-10-28 10:32:47.031250
2692,915.7,2022-10-28 10:32:47.046875
2693,876.61,2022-10-28 10:32:47.062500
2694,823.86,2022-10-28 10:32:47.078125
2695,756.92,2022-10-28 10:32:47.093750
2696,673.37,2022-10-28 10:32:47.109375
2697,570.19,2022-10-28 10:32:47.125000
2698,446.3,2022-10-28 10:32:47.140625
2699,304.07,2022-10-28 10:32:47.156250
2700,150.95,2022-10-28 10:32:47.171875
2701,-1.52,2022-10-28 10:32:47.187500
2702,-141.72,2022-10-28 10:32:47.203125
2703,-260.73,2022-10-28 10:32:47.218750
2704,-355.45,2022-10-28 10:32:47.234375
2705,-427.42,2022-10-28 10:32:47.250000
2706,-480.19,2022-10-28 10:32:47.265625
2707,-516.13,2022-10-28 10:32:47.281250
2708,-534.7,2022-10-28 10:32:47.296875
2709,-533.07,2022-10-28 10:32:47.312500
2710,-510.19,2022-10-28 10:32:47.328125
2711,-469.63,2022-10-28 10:32:47.343750
2712,-421.29,2022-10-28 10:32:47.359375
2713,-379.1,2022-10-28 10:32:47.375000
2714,-355.13,2022-10-28 10:32:47.390625
2715,-354.75,2022-10-28 10:32:47.406250
2716,-373.52,2022-10-28 10:32:47.421875
2717,-398.34,2022-10-28 10:32:47.437500
2718,-413.71,2022-10-28 10:32:47.453125
2719,-408.02,2022-10-28 10:32:47.468750
2720,-378.54,2022-10-28 10:32:47.484375
2721,-332.22,2022-10-28 10:32:47.500000
2722,-281.95,2022-10-28 10:32:47.515625
2723,-240.2,2022-10-28 10:32:47.531250
2724,-214.74,2022-10-28 10:32:47.546875
2725,-205.59,2022-10-28 10:32:47.562500
2726,-206.16,2022-10-28 10:32:47.578125
2727,-206.18,2022-10-28 10:32:47.593750
2728,-195.44,2022-10-28 10:32:47.609375
2729,-167.11,2022-10-28 10:32:47.625000
2730,-119.44,2022-10-28 10:32:47.640625
2731,-55.03,2022-10-28 10:32:47.656250
2732,21.74,2022-10-28 10:32:47.671875
2733,107.1,2022-10-28 10:32:47.687500
2734,198.82,2022-10-28 10:32:47.703125
2735,295.55,2022-10-28 10:32:47.718750
2736,394.42,2022-10-28 10:32:47.734375
2737,489.94,2022-10-28 10:32:47.750000
2738,575.88,2022-10-28 10:32:47.765625
2739,648.14,2022-10-28 10:32:47.781250
2740,707.17,2022-10-28 10:32:47.796875
2741,758.0,2022-10-28 10:32:47.812500
2742,805.45,2022-10-28 10:32:47.828125
2743,850.02,2022-10-28 10:32:47.843750
2744,885.78,2022-10-28 10:32:47.859375
2745,901.75,2022-10-28 10:32:47.875000
2746,887.62,2022-10-28 10:32:47.890625
2747,837.74,2022-10-28 10:32:47.906250
2748,752.36,2022-10-28 10:32:47.921875
2749,637.04,2022-10-28 10:32:47.937500
2750,499.89,2022-10-28 10:32:47.953125
2751,349.86,2022-10-28 10:32:47.968750
2752,197.15,2022-10-28 10:32:47.984375
2753,51.97,2022-10-28 10:32:48.000000
2754,-76.81,2022-10-28 10:32:48.015625
2755,-183.94,2022-10-28 10:32:48.031250
2756,-269.59,2022-10-28 10:32:48.046875
2757,-337.38,2022-10-28 10:32:48.062500
2758,-390.98,2022-10-28 10:32:48.078125
2759,-430.08,2022-10-28 10:32:48.093750
2760,-449.72,2022-10-28 10:32:48.109375
2761,-443.62,2022-10-28 10:32:48.125000
2762,-409.27,2022-10-28 10:32:48.140625
2763,-352.19,2022-10-28 10:32:48.156250
2764,-285.29,2022-10-28 10:32:48.171875
2765,-224.73,2022-10-28 10:32:48.187500
2766,-183.67,2022-10-28 10:32:48.203125
2767,-167.28,2022-10-28 10:32:48.218750
2768,-172.11,2022-10-28 10:32:48.234375
2769,-189.11,2022-10-28 10:32:48.250000
2770,-208.1,2022-10-28 10:32:48.265625
2771,-221.29,2022-10-28 10:32:48.281250
2772,-225.28,2022-10-28 10:32:48.296875
2773,-219.51,2022-10-28 10:32:48.312500
2774,-204.13,2022-10-28 10:32:48.328125
2775,-178.92,2022-10-28 10:32:48.343750
2776,-144.25,2022-10-28 10:32:48.359375
2777,-103.12,2022-10-28 10:32:48.375000
2778,-61.56,2022-10-28 10:32:48.390625
2779,-27.18,2022-10-28 10:32:48.406250
2780,-6.12,2022-10-28 10:32:48.421875
2781,1.21,2022-10-28 10:32:48.437500
2782,1.3,2022-10-28 10:32:48.453125
2783,4.31,2022-10-28 10:32:48.468750
2784,19.01,2022-10-28 10:32:48.484375
2785,47.06,2022-10-28 10:32:48.500000
2786,81.08,2022-10-28 10:32:48.515625
2787,107.41,2022-10-28 10:32:48.531250
2788,112.8,2022-10-28 10:32:48.546875
2789,91.25,2022-10-28 10:32:48.562500
2790,46.19,2022-10-28 10:32:48.578125
2791,-11.8,2022-10-28 10:32:48.593750
2792,-70.84,2022-10-28 10:32:48.609375
2793,-123.34,2022-10-28 10:32:48.625000
2794,-167.37,2022-10-28 10:32:48.640625
2795,-204.85,2022-10-28 10:32:48.656250
2796,-237.31,2022-10-28 10:32:48.671875
2797,-263.46,2022-10-28 10:32:48.687500
2798,-280.19,2022-10-28 10:32:48.703125
2799,-284.62,2022-10-28 10:32:48.718750
2800,-276.29,2022-10-28 10:32:48.734375
2801,-257.67,2022-10-28 10:32:48.750000
2802,-232.71,2022-10-28 10:32:48.765625
2803,-204.86,2022-10-28 10:32:48.781250
2804,-175.25,2022-10-28 10:32:48.796875
2805,-144.19,2022-10-28 10:32:48.812500
2806,-112.82,2022-10-28 10:32:48.828125
2807,-83.37,2022-10-28 10:32:48.843750
2808,-59.76,2022-10-28 10:32:48.859375
2809,-44.99,2022-10-28 10:32:48.875000
2810,-39.57,2022-10-28 10:32:48.890625
2811,-40.39,2022-10-28 10:32:48.906250
2812,-42.08,2022-10-28 10:32:48.921875
2813,-39.68,2022-10-28 10:32:48.937500
2814,-30.97,2022-10-28 10:32:48.953125
2815,-16.83,2022-10-28 10:32:48.968750
2816,-0.34,2022-10-28 10:32:48.984375
2817,16.29,2022-10-28 10:32:49.000000
2818,34.09,2022-10-28 10:32:49.015625
2819,56.71,2022-10-28 10:32:49.031250
2820,88.0,2022-10-28 10:32:49.046875
2821,128.34,2022-10-28 10:32:49.062500
2822,173.55,2022-10-28 10:32:49.078125
2823,215.81,2022-10-28 10:32:49.093750
2824,246.72,2022-10-28 10:32:49.109375
2825,260.84,2022-10-28 10:32:49.125000
2826,256.73,2022-10-28 10:32:49.140625
2827,236.44,2022-10-28 10:32:49.156250
2828,204.19,2022-10-28 10:32:49.171875
2829,165.69,2022-10-28 10:32:49.187500
2830,127.44,2022-10-28 10:32:49.203125
2831,96.16,2022-10-28 10:32:49.218750
2832,77.44,2022-10-28 10:32:49.234375
2833,73.83,2022-10-28 10:32:49.250000
2834,83.76,2022-10-28 10:32:49.265625
2835,101.88,2022-10-28 10:32:49.281250
2836,121.57,2022-10-28 10:32:49.296875
2837,138.15,2022-10-28 10:32:49.312500
2838,150.19,2022-10-28 10:32:49.328125
2839,159.44,2022-10-28 10:32:49.343750
2840,169.07,2022-10-28 10:32:49.359375
2841,182.16,2022-10-28 10:32:49.375000
2842,201.35,2022-10-28 10:32:49.390625
2843,228.3,2022-10-28 10:32:49.406250
2844,263.1,2022-10-28 10:32:49.421875
2845,303.92,2022-10-28 10:32:49.437500
2846,345.46,2022-10-28 10:32:49.453125
2847,380.7,2022-10-28 10:32:49.468750
2848,401.91,2022-10-28 10:32:49.484375
2849,403.22,2022-10-28 10:32:49.500000
2850,382.93,2022-10-28 10:32:49.515625
2851,342.91,2022-10-28 10:32:49.531250
2852,287.78,2022-10-28 10:32:49.546875
2853,222.91,2022-10-28 10:32:49.562500
2854,153.06,2022-10-28 10:32:49.578125
2855,81.22,2022-10-28 10:32:49.593750
2856,8.23,2022-10-28 10:32:49.609375
2857,-66.52,2022-10-28 10:32:49.625000
2858,-145.42,2022-10-28 10:32:49.640625
2859,-230.92,2022-10-28 10:32:49.656250
2860,-323.87,2022-10-28 10:32:49.671875
2861,-420.9,2022-10-28 10:32:49.687500
2862,-513.84,2022-10-28 10:32:49.703125
2863,-592.24,2022-10-28 10:32:49.718750
2864,-647.62,2022-10-28 10:32:49.734375
2865,-677.16,2022-10-28 10:32:49.750000
2866,-685.53,2022-10-28 10:32:49.765625
2867,-681.09,2022-10-28 10:32:49.781250
2868,-671.96,2022-10-28 10:32:49.796875
2869,-662.02,2022-10-28 10:32:49.812500
2870,-650.67,2022-10-28 10:32:49.828125
2871,-636.04,2022-10-28 10:32:49.843750
2872,-617.44,2022-10-28 10:32:49.859375
2873,-596.74,2022-10-28 10:32:49.875000
2874,-576.63,2022-10-28 10:32:49.890625
2875,-556.52,2022-10-28 10:32:49.906250
2876,-531.2,2022-10-28 10:32:49.921875
2877,-491.39,2022-10-28 10:32:49.937500
2878,-429.64,2022-10-28 10:32:49.953125
2879,-344.0,2022-10-28 10:32:49.968750
2880,-240.74,2022-10-28 10:32:49.984375
2881,-131.66,2022-10-28 10:32:50.000000
2882,-28.16,2022-10-28 10:32:50.015625
2883,63.41,2022-10-28 10:32:50.031250
2884,143.64,2022-10-28 10:32:50.046875
2885,218.08,2022-10-28 10:32:50.062500
2886,293.0,2022-10-28 10:32:50.078125
2887,371.5,2022-10-28 10:32:50.093750
2888,452.51,2022-10-28 10:32:50.109375
2889,531.84,2022-10-28 10:32:50.125000
2890,604.67,2022-10-28 10:32:50.140625
2891,667.32,2022-10-28 10:32:50.156250
2892,717.24,2022-10-28 10:32:50.171875
2893,752.07,2022-10-28 10:32:50.187500
2894,768.84,2022-10-28 10:32:50.203125
2895,764.16,2022-10-28 10:32:50.218750
2896,735.45,2022-10-28 10:32:50.234375
2897,682.66,2022-10-28 10:32:50.250000
2898,608.2,2022-10-28 10:32:50.265625
2899,516.8,2022-10-28 10:32:50.281250
2900,414.07,2022-10-28 10:32:50.296875
2901,305.43,2022-10-28 10:32:50.312500
2902,194.99,2022-10-28 10:32:50.328125
2903,85.27,2022-10-28 10:32:50.343750
2904,-21.81,2022-10-28 10:32:50.359375
2905,-123.89,2022-10-28 10:32:50.375000
2906,-217.49,2022-10-28 10:32:50.390625
2907,-297.81,2022-10-28 10:32:50.406250
2908,-360.12,2022-10-28 10:32:50.421875
2909,-401.45,2022-10-28 10:32:50.437500
2910,-422.78,2022-10-28 10:32:50.453125
2911,-428.1,2022-10-28 10:32:50.468750
2912,-422.67,2022-10-28 10:32:50.484375
2913,-409.06,2022-10-28 10:32:50.500000
2914,-385.0,2022-10-28 10:32:50.515625
2915,-344.11,2022-10-28 10:32:50.531250
2916,-279.53,2022-10-28 10:32:50.546875
2917,-189.6,2022-10-28 10:32:50.562500
2918,-81.06,2022-10-28 10:32:50.578125
2919,31.79,2022-10-28 10:32:50.593750
2920,133.37,2022-10-28 10:32:50.609375
2921,211.9,2022-10-28 10:32:50.625000
2922,264.56,2022-10-28 10:32:50.640625
2923,297.31,2022-10-28 10:32:50.656250
2924,320.52,2022-10-28 10:32:50.671875
2925,343.58,2022-10-28 10:32:50.687500
2926,369.83,2022-10-28 10:32:50.703125
2927,396.5,2022-10-28 10:32:50.718750
2928,417.38,2022-10-28 10:32:50.734375
2929,427.27,2022-10-28 10:32:50.750000
2930,425.51,2022-10-28 10:32:50.765625
2931,415.93,2022-10-28 10:32:50.781250
2932,404.86,2022-10-28 10:32:50.796875
2933,396.71,2022-10-28 10:32:50.812500
2934,392.24,2022-10-28 10:32:50.828125
2935,388.94,2022-10-28 10:32:50.843750
2936,383.09,2022-10-28 10:32:50.859375
2937,372.26,2022-10-28 10:32:50.875000
2938,356.54,2022-10-28 10:32:50.890625
2939,336.88,2022-10-28 10:32:50.906250
2940,313.7,2022-10-28 10:32:50.921875
2941,285.47,2022-10-28 10:32:50.937500
2942,247.59,2022-10-28 10:32:50.953125
2943,194.56,2022-10-28 10:32:50.968750
2944,121.64,2022-10-28 10:32:50.984375
2945,28.53,2022-10-28 10:32:51.000000
2946,-78.86,2022-10-28 10:32:51.015625
2947,-188.78,2022-10-28 10:32:51.031250
2948,-286.17,2022-10-28 10:32:51.046875
2949,-358.16,2022-10-28 10:32:51.062500
2950,-398.17,2022-10-28 10:32:51.078125
2951,-408.36,2022-10-28 10:32:51.093750
2952,-397.92,2022-10-28 10:32:51.109375
2953,-378.42,2022-10-28 10:32:51.125000
2954,-359.14,2022-10-28 10:32:51.140625
2955,-342.88,2022-10-28 10:32:51.156250
2956,-327.0,2022-10-28 10:32:51.171875
2957,-306.01,2022-10-28 10:32:51.187500
2958,-276.3,2022-10-28 10:32:51.203125
2959,-238.14,2022-10-28 10:32:51.218750
2960,-194.67,2022-10-28 10:32:51.234375
2961,-148.97,2022-10-28 10:32:51.250000
2962,-101.95,2022-10-28 10:32:51.265625
2963,-53.61,2022-10-28 10:32:51.281250
2964,-5.01,2022-10-28 10:32:51.296875
2965,37.94,2022-10-28 10:32:51.312500
2966,64.39,2022-10-28 10:32:51.328125
2967,62.34,2022-10-28 10:32:51.343750
2968,24.7,2022-10-28 10:32:51.359375
2969,-45.42,2022-10-28 10:32:51.375000
2970,-134.06,2022-10-28 10:32:51.390625
2971,-221.81,2022-10-28 10:32:51.406250
2972,-292.14,2022-10-28 10:32:51.421875
2973,-338.29,2022-10-28 10:32:51.437500
2974,-364.44,2022-10-28 10:32:51.453125
2975,-380.94,2022-10-28 10:32:51.468750
2976,-396.99,2022-10-28 10:32:51.484375
2977,-415.6,2022-10-28 10:32:51.500000
2978,-433.64,2022-10-28 10:32:51.515625
2979,-445.53,2022-10-28 10:32:51.531250
2980,-447.28,2022-10-28 10:32:51.546875
2981,-438.89,2022-10-28 10:32:51.562500
2982,-423.53,2022-10-28 10:32:51.578125
2983,-404.43,2022-10-28 10:32:51.593750
2984,-383.21,2022-10-28 10:32:51.609375
2985,-358.97,2022-10-28 10:32:51.625000
2986,-329.48,2022-10-28 10:32:51.640625
2987,-292.24,2022-10-28 10:32:51.656250
2988,-244.85,2022-10-28 10:32:51.671875
2989,-185.02,2022-10-28 10:32:51.687500
2990,-112.28,2022-10-28 10:32:51.703125
2991,-29.89,2022-10-28 10:32:51.718750
2992,54.53,2022-10-28 10:32:51.734375
2993,129.64,2022-10-28 10:32:51.750000
2994,184.57,2022-10-28 10:32:51.765625
2995,212.57,2022-10-28 10:32:51.781250
2996,213.83,2022-10-28 10:32:51.796875
2997,194.22,2022-10-28 10:32:51.812500
2998,162.76,2022-10-28 10:32:51.828125
2999,127.82,2022-10-28 10:32:51.843750
3000,94.91,2022-10-28 10:32:51.859375
3001,66.84,2022-10-28 10:32:51.875000
3002,44.13,2022-10-28 10:32:51.890625
3003,26.67,2022-10-28 10:32:51.906250
3004,14.64,2022-10-28 10:32:51.921875
3005,8.59,2022-10-28 10:32:51.937500
3006,8.87,2022-10-28 10:32:51.953125
3007,15.19,2022-10-28 10:32:51.968750
3008,26.23,2022-10-28 10:32:51.984375
3009,39.02,2022-10-28 10:32:52.000000
3010,48.86,2022-10-28 10:32:52.015625
3011,50.12,2022-10-28 10:32:52.031250
3012,37.67,2022-10-28 10:32:52.046875
3013,9.08,2022-10-28 10:32:52.062500
3014,-33.57,2022-10-28 10:32:52.078125
3015,-84.48,2022-10-28 10:32:52.093750
3016,-136.15,2022-10-28 10:32:52.109375
3017,-182.51,2022-10-28 10:32:52.125000
3018,-219.82,2022-10-28 10:32:52.140625
3019,-246.71,2022-10-28 10:32:52.156250
3020,-262.67,2022-10-28 10:32:52.171875
3021,-265.71,2022-10-28 10:32:52.187500
3022,-252.27,2022-10-28 10:32:52.203125
3023,-219.66,2022-10-28 10:32:52.218750
3024,-167.86,2022-10-28 10:32:52.234375
3025,-101.13,2022-10-28 10:32:52.250000
3026,-26.87,2022-10-28 10:32:52.265625
3027,48.03,2022-10-28 10:32:52.281250
3028,121.41,2022-10-28 10:32:52.296875
3029,196.17,2022-10-28 10:32:52.312500
3030,277.91,2022-10-28 10:32:52.328125
3031,368.79,2022-10-28 10:32:52.343750
3032,463.0,2022-10-28 10:32:52.359375
3033,547.46,2022-10-28 10:32:52.375000
3034,605.71,2022-10-28 10:32:52.390625
3035,626.05,2022-10-28 10:32:52.406250
3036,608.17,2022-10-28 10:32:52.421875
3037,564.06,2022-10-28 10:32:52.437500
3038,513.09,2022-10-28 10:32:52.453125
3039,473.91,2022-10-28 10:32:52.468750
3040,456.02,2022-10-28 10:32:52.484375
3041,456.89,2022-10-28 10:32:52.500000
3042,464.37,2022-10-28 10:32:52.515625
3043,463.7,2022-10-28 10:32:52.531250
3044,444.96,2022-10-28 10:32:52.546875
3045,406.45,2022-10-28 10:32:52.562500
3046,354.39,2022-10-28 10:32:52.578125
3047,297.63,2022-10-28 10:32:52.593750
3048,242.38,2022-10-28 10:32:52.609375
3049,189.83,2022-10-28 10:32:52.625000
3050,138.11,2022-10-28 10:32:52.640625
3051,86.35,2022-10-28 10:32:52.656250
3052,38.3,2022-10-28 10:32:52.671875
3053,1.67,2022-10-28 10:32:52.687500
3054,-15.09,2022-10-28 10:32:52.703125
3055,-8.55,2022-10-28 10:32:52.718750
3056,18.1,2022-10-28 10:32:52.734375
3057,57.37,2022-10-28 10:32:52.750000
3058,101.4,2022-10-28 10:32:52.765625
3059,144.8,2022-10-28 10:32:52.781250
3060,184.96,2022-10-28 10:32:52.796875
3061,219.14,2022-10-28 10:32:52.812500
3062,242.67,2022-10-28 10:32:52.828125
3063,249.5,2022-10-28 10:32:52.843750
3064,235.39,2022-10-28 10:32:52.859375
3065,202.47,2022-10-28 10:32:52.875000
3066,159.51,2022-10-28 10:32:52.890625
3067,118.33,2022-10-28 10:32:52.906250
3068,89.67,2022-10-28 10:32:52.921875
3069,77.84,2022-10-28 10:32:52.937500
3070,80.45,2022-10-28 10:32:52.953125
3071,90.07,2022-10-28 10:32:52.968750
3072,97.53,2022-10-28 10:32:52.984375
3073,94.71,2022-10-28 10:32:53.000000
3074,75.63,2022-10-28 10:32:53.015625
3075,36.58,2022-10-28 10:32:53.031250
3076,-22.66,2022-10-28 10:32:53.046875
3077,-97.78,2022-10-28 10:32:53.062500
3078,-179.89,2022-10-28 10:32:53.078125
3079,-257.78,2022-10-28 10:32:53.093750
3080,-321.7,2022-10-28 10:32:53.109375
3081,-368.07,2022-10-28 10:32:53.125000
3082,-401.02,2022-10-28 10:32:53.140625
3083,-431.04,2022-10-28 10:32:53.156250
3084,-469.54,2022-10-28 10:32:53.171875
3085,-523.44,2022-10-28 10:32:53.187500
3086,-590.12,2022-10-28 10:32:53.203125
3087,-658.26,2022-10-28 10:32:53.218750
3088,-712.52,2022-10-28 10:32:53.234375
3089,-739.28,2022-10-28 10:32:53.250000
3090,-731.87,2022-10-28 10:32:53.265625
3091,-690.93,2022-10-28 10:32:53.281250
3092,-621.3,2022-10-28 10:32:53.296875
3093,-528.75,2022-10-28 10:32:53.312500
