,BVP,time
0,-167.57,2022-08-17 14:00:53.781250
1,-168.91,2022-08-17 14:00:53.796875
2,-170.49,2022-08-17 14:00:53.812500
3,-173.81,2022-08-17 14:00:53.828125
4,-179.55,2022-08-17 14:00:53.843750
5,-187.78,2022-08-17 14:00:53.859375
6,-198.21,2022-08-17 14:00:53.875000
7,-210.18,2022-08-17 14:00:53.890625
8,-222.62,2022-08-17 14:00:53.906250
9,-234.17,2022-08-17 14:00:53.921875
10,-243.63,2022-08-17 14:00:53.937500
11,-250.53,2022-08-17 14:00:53.953125
12,-255.39,2022-08-17 14:00:53.968750
13,-259.63,2022-08-17 14:00:53.984375
14,-264.97,2022-08-17 14:00:54.000000
15,-272.69,2022-08-17 14:00:54.015625
16,-282.79,2022-08-17 14:00:54.031250
17,-293.47,2022-08-17 14:00:54.046875
18,-301.17,2022-08-17 14:00:54.062500
19,-301.41,2022-08-17 14:00:54.078125
20,-289.94,2022-08-17 14:00:54.093750
21,-264.27,2022-08-17 14:00:54.109375
22,-224.63,2022-08-17 14:00:54.125000
23,-174.28,2022-08-17 14:00:54.140625
24,-118.74,2022-08-17 14:00:54.156250
25,-64.31,2022-08-17 14:00:54.171875
26,-16.48,2022-08-17 14:00:54.187500
27,21.28,2022-08-17 14:00:54.203125
28,47.83,2022-08-17 14:00:54.218750
29,64.01,2022-08-17 14:00:54.234375
30,71.76,2022-08-17 14:00:54.250000
31,73.39,2022-08-17 14:00:54.265625
32,71.1,2022-08-17 14:00:54.281250
33,66.91,2022-08-17 14:00:54.296875
34,62.7,2022-08-17 14:00:54.312500
35,60.07,2022-08-17 14:00:54.328125
36,60.13,2022-08-17 14:00:54.343750
37,63.06,2022-08-17 14:00:54.359375
38,68.1,2022-08-17 14:00:54.375000
39,73.59,2022-08-17 14:00:54.390625
40,77.74,2022-08-17 14:00:54.406250
41,79.39,2022-08-17 14:00:54.421875
42,78.52,2022-08-17 14:00:54.437500
43,76.32,2022-08-17 14:00:54.453125
44,74.48,2022-08-17 14:00:54.468750
45,74.43,2022-08-17 14:00:54.484375
46,76.6,2022-08-17 14:00:54.500000
47,80.27,2022-08-17 14:00:54.515625
48,83.98,2022-08-17 14:00:54.531250
49,86.33,2022-08-17 14:00:54.546875
50,86.68,2022-08-17 14:00:54.562500
51,85.47,2022-08-17 14:00:54.578125
52,84.11,2022-08-17 14:00:54.593750
53,84.43,2022-08-17 14:00:54.609375
54,88.16,2022-08-17 14:00:54.625000
55,96.42,2022-08-17 14:00:54.640625
56,109.3,2022-08-17 14:00:54.656250
57,125.51,2022-08-17 14:00:54.671875
58,142.28,2022-08-17 14:00:54.687500
59,155.53,2022-08-17 14:00:54.703125
60,160.79,2022-08-17 14:00:54.718750
61,154.58,2022-08-17 14:00:54.734375
62,135.88,2022-08-17 14:00:54.750000
63,106.91,2022-08-17 14:00:54.765625
64,72.68,2022-08-17 14:00:54.781250
65,39.5,2022-08-17 14:00:54.796875
66,12.87,2022-08-17 14:00:54.812500
67,-4.09,2022-08-17 14:00:54.828125
68,-11.18,2022-08-17 14:00:54.843750
69,-10.42,2022-08-17 14:00:54.859375
70,-4.73,2022-08-17 14:00:54.875000
71,3.27,2022-08-17 14:00:54.890625
72,11.85,2022-08-17 14:00:54.906250
73,20.03,2022-08-17 14:00:54.921875
74,27.15,2022-08-17 14:00:54.937500
75,32.51,2022-08-17 14:00:54.953125
76,35.43,2022-08-17 14:00:54.968750
77,35.61,2022-08-17 14:00:54.984375
78,33.36,2022-08-17 14:00:55.000000
79,29.76,2022-08-17 14:00:55.015625
80,26.28,2022-08-17 14:00:55.031250
81,24.27,2022-08-17 14:00:55.046875
82,24.43,2022-08-17 14:00:55.062500
83,26.46,2022-08-17 14:00:55.078125
84,29.3,2022-08-17 14:00:55.093750
85,31.61,2022-08-17 14:00:55.109375
86,32.45,2022-08-17 14:00:55.125000
87,31.76,2022-08-17 14:00:55.140625
88,30.39,2022-08-17 14:00:55.156250
89,29.66,2022-08-17 14:00:55.171875
90,30.73,2022-08-17 14:00:55.187500
91,34.15,2022-08-17 14:00:55.203125
92,39.64,2022-08-17 14:00:55.218750
93,46.51,2022-08-17 14:00:55.234375
94,54.21,2022-08-17 14:00:55.250000
95,62.77,2022-08-17 14:00:55.265625
96,72.84,2022-08-17 14:00:55.281250
97,85.24,2022-08-17 14:00:55.296875
98,100.13,2022-08-17 14:00:55.312500
99,116.4,2022-08-17 14:00:55.328125
100,131.51,2022-08-17 14:00:55.343750
101,142.18,2022-08-17 14:00:55.359375
102,145.54,2022-08-17 14:00:55.375000
103,140.3,2022-08-17 14:00:55.390625
104,127.36,2022-08-17 14:00:55.406250
105,109.46,2022-08-17 14:00:55.421875
106,90.05,2022-08-17 14:00:55.437500
107,71.91,2022-08-17 14:00:55.453125
108,56.27,2022-08-17 14:00:55.468750
109,42.66,2022-08-17 14:00:55.484375
110,29.56,2022-08-17 14:00:55.500000
111,15.44,2022-08-17 14:00:55.515625
112,-0.56,2022-08-17 14:00:55.531250
113,-18.36,2022-08-17 14:00:55.546875
114,-37.28,2022-08-17 14:00:55.562500
115,-56.72,2022-08-17 14:00:55.578125
116,-76.57,2022-08-17 14:00:55.593750
117,-97.49,2022-08-17 14:00:55.609375
118,-120.81,2022-08-17 14:00:55.625000
119,-148.35,2022-08-17 14:00:55.640625
120,-181.87,2022-08-17 14:00:55.656250
121,-222.4,2022-08-17 14:00:55.671875
122,-269.56,2022-08-17 14:00:55.687500
123,-321.11,2022-08-17 14:00:55.703125
124,-373.01,2022-08-17 14:00:55.718750
125,-420.15,2022-08-17 14:00:55.734375
126,-457.4,2022-08-17 14:00:55.750000
127,-480.9,2022-08-17 14:00:55.765625
128,-488.81,2022-08-17 14:00:55.781250
129,-481.53,2022-08-17 14:00:55.796875
130,-461.29,2022-08-17 14:00:55.812500
131,-431.36,2022-08-17 14:00:55.828125
132,-395.22,2022-08-17 14:00:55.843750
133,-355.89,2022-08-17 14:00:55.859375
134,-315.53,2022-08-17 14:00:55.875000
135,-275.21,2022-08-17 14:00:55.890625
136,-235.08,2022-08-17 14:00:55.906250
137,-194.83,2022-08-17 14:00:55.921875
138,-154.36,2022-08-17 14:00:55.937500
139,-114.45,2022-08-17 14:00:55.953125
140,-76.87,2022-08-17 14:00:55.968750
141,-43.97,2022-08-17 14:00:55.984375
142,-17.75,2022-08-17 14:00:56.000000
143,1.04,2022-08-17 14:00:56.015625
144,13.06,2022-08-17 14:00:56.031250
145,19.95,2022-08-17 14:00:56.046875
146,23.55,2022-08-17 14:00:56.062500
147,25.11,2022-08-17 14:00:56.078125
148,25.16,2022-08-17 14:00:56.093750
149,24.05,2022-08-17 14:00:56.109375
150,22.53,2022-08-17 14:00:56.125000
151,22.05,2022-08-17 14:00:56.140625
152,24.29,2022-08-17 14:00:56.156250
153,30.33,2022-08-17 14:00:56.171875
154,39.77,2022-08-17 14:00:56.187500
155,50.62,2022-08-17 14:00:56.203125
156,59.85,2022-08-17 14:00:56.218750
157,64.51,2022-08-17 14:00:56.234375
158,62.8,2022-08-17 14:00:56.250000
159,54.54,2022-08-17 14:00:56.265625
160,41.19,2022-08-17 14:00:56.281250
161,25.18,2022-08-17 14:00:56.296875
162,9.18,2022-08-17 14:00:56.312500
163,-4.64,2022-08-17 14:00:56.328125
164,-15.14,2022-08-17 14:00:56.343750
165,-22.34,2022-08-17 14:00:56.359375
166,-27.22,2022-08-17 14:00:56.375000
167,-31.18,2022-08-17 14:00:56.390625
168,-35.22,2022-08-17 14:00:56.406250
169,-39.4,2022-08-17 14:00:56.421875
170,-42.61,2022-08-17 14:00:56.437500
171,-43.01,2022-08-17 14:00:56.453125
172,-38.85,2022-08-17 14:00:56.468750
173,-29.35,2022-08-17 14:00:56.484375
174,-15.05,2022-08-17 14:00:56.500000
175,2.31,2022-08-17 14:00:56.515625
176,20.39,2022-08-17 14:00:56.531250
177,36.91,2022-08-17 14:00:56.546875
178,49.95,2022-08-17 14:00:56.562500
179,58.01,2022-08-17 14:00:56.578125
180,60.18,2022-08-17 14:00:56.593750
181,56.27,2022-08-17 14:00:56.609375
182,47.15,2022-08-17 14:00:56.625000
183,34.69,2022-08-17 14:00:56.640625
184,21.35,2022-08-17 14:00:56.656250
185,9.37,2022-08-17 14:00:56.671875
186,0.1,2022-08-17 14:00:56.687500
187,-6.25,2022-08-17 14:00:56.703125
188,-10.22,2022-08-17 14:00:56.718750
189,-12.47,2022-08-17 14:00:56.734375
190,-13.29,2022-08-17 14:00:56.750000
191,-12.6,2022-08-17 14:00:56.765625
192,-10.38,2022-08-17 14:00:56.781250
193,-6.99,2022-08-17 14:00:56.796875
194,-3.32,2022-08-17 14:00:56.812500
195,-0.42,2022-08-17 14:00:56.828125
196,0.79,2022-08-17 14:00:56.843750
197,-0.29,2022-08-17 14:00:56.859375
198,-4.22,2022-08-17 14:00:56.875000
199,-11.7,2022-08-17 14:00:56.890625
200,-23.62,2022-08-17 14:00:56.906250
201,-40.66,2022-08-17 14:00:56.921875
202,-62.59,2022-08-17 14:00:56.937500
203,-87.9,2022-08-17 14:00:56.953125
204,-113.73,2022-08-17 14:00:56.968750
205,-136.45,2022-08-17 14:00:56.984375
206,-152.52,2022-08-17 14:00:57.000000
207,-159.35,2022-08-17 14:00:57.015625
208,-155.78,2022-08-17 14:00:57.031250
209,-142.28,2022-08-17 14:00:57.046875
210,-120.52,2022-08-17 14:00:57.062500
211,-92.82,2022-08-17 14:00:57.078125
212,-61.55,2022-08-17 14:00:57.093750
213,-28.73,2022-08-17 14:00:57.109375
214,4.14,2022-08-17 14:00:57.125000
215,35.89,2022-08-17 14:00:57.140625
216,65.57,2022-08-17 14:00:57.156250
217,92.27,2022-08-17 14:00:57.171875
218,115.15,2022-08-17 14:00:57.187500
219,133.6,2022-08-17 14:00:57.203125
220,147.38,2022-08-17 14:00:57.218750
221,156.68,2022-08-17 14:00:57.234375
222,162.0,2022-08-17 14:00:57.250000
223,164.01,2022-08-17 14:00:57.265625
224,163.5,2022-08-17 14:00:57.281250
225,161.39,2022-08-17 14:00:57.296875
226,158.79,2022-08-17 14:00:57.312500
227,156.99,2022-08-17 14:00:57.328125
228,157.06,2022-08-17 14:00:57.343750
229,159.48,2022-08-17 14:00:57.359375
230,163.75,2022-08-17 14:00:57.375000
231,168.51,2022-08-17 14:00:57.390625
232,172.0,2022-08-17 14:00:57.406250
233,172.85,2022-08-17 14:00:57.421875
234,170.65,2022-08-17 14:00:57.437500
235,166.06,2022-08-17 14:00:57.453125
236,160.43,2022-08-17 14:00:57.468750
237,155.02,2022-08-17 14:00:57.484375
238,150.38,2022-08-17 14:00:57.500000
239,146.02,2022-08-17 14:00:57.515625
240,140.69,2022-08-17 14:00:57.531250
241,132.9,2022-08-17 14:00:57.546875
242,121.63,2022-08-17 14:00:57.562500
243,106.71,2022-08-17 14:00:57.578125
244,88.89,2022-08-17 14:00:57.593750
245,69.56,2022-08-17 14:00:57.609375
246,50.2,2022-08-17 14:00:57.625000
247,31.98,2022-08-17 14:00:57.640625
248,15.4,2022-08-17 14:00:57.656250
249,0.36,2022-08-17 14:00:57.671875
250,-13.68,2022-08-17 14:00:57.687500
251,-27.2,2022-08-17 14:00:57.703125
252,-40.16,2022-08-17 14:00:57.718750
253,-51.75,2022-08-17 14:00:57.734375
254,-60.36,2022-08-17 14:00:57.750000
255,-64.03,2022-08-17 14:00:57.765625
256,-61.04,2022-08-17 14:00:57.781250
257,-50.62,2022-08-17 14:00:57.796875
258,-33.44,2022-08-17 14:00:57.812500
259,-11.64,2022-08-17 14:00:57.828125
260,11.69,2022-08-17 14:00:57.843750
261,33.46,2022-08-17 14:00:57.859375
262,51.55,2022-08-17 14:00:57.875000
263,65.45,2022-08-17 14:00:57.890625
264,76.17,2022-08-17 14:00:57.906250
265,85.57,2022-08-17 14:00:57.921875
266,95.46,2022-08-17 14:00:57.937500
267,106.81,2022-08-17 14:00:57.953125
268,119.36,2022-08-17 14:00:57.968750
269,131.74,2022-08-17 14:00:57.984375
270,141.76,2022-08-17 14:00:58.000000
271,146.84,2022-08-17 14:00:58.015625
272,144.43,2022-08-17 14:00:58.031250
273,132.48,2022-08-17 14:00:58.046875
274,110.03,2022-08-17 14:00:58.062500
275,77.78,2022-08-17 14:00:58.078125
276,38.16,2022-08-17 14:00:58.093750
277,-5.04,2022-08-17 14:00:58.109375
278,-47.7,2022-08-17 14:00:58.125000
279,-86.34,2022-08-17 14:00:58.140625
280,-118.81,2022-08-17 14:00:58.156250
281,-144.28,2022-08-17 14:00:58.171875
282,-162.73,2022-08-17 14:00:58.187500
283,-174.5,2022-08-17 14:00:58.203125
284,-180.06,2022-08-17 14:00:58.218750
285,-180.28,2022-08-17 14:00:58.234375
286,-176.8,2022-08-17 14:00:58.250000
287,-172.22,2022-08-17 14:00:58.265625
288,-169.57,2022-08-17 14:00:58.281250
289,-171.47,2022-08-17 14:00:58.296875
290,-178.95,2022-08-17 14:00:58.312500
291,-190.75,2022-08-17 14:00:58.328125
292,-203.42,2022-08-17 14:00:58.343750
293,-212.35,2022-08-17 14:00:58.359375
294,-213.4,2022-08-17 14:00:58.375000
295,-204.36,2022-08-17 14:00:58.390625
296,-185.58,2022-08-17 14:00:58.406250
297,-159.54,2022-08-17 14:00:58.421875
298,-129.59,2022-08-17 14:00:58.437500
299,-98.47,2022-08-17 14:00:58.453125
300,-67.58,2022-08-17 14:00:58.468750
301,-37.07,2022-08-17 14:00:58.484375
302,-6.8,2022-08-17 14:00:58.500000
303,22.88,2022-08-17 14:00:58.515625
304,50.77,2022-08-17 14:00:58.531250
305,75.42,2022-08-17 14:00:58.546875
306,95.92,2022-08-17 14:00:58.562500
307,112.39,2022-08-17 14:00:58.578125
308,125.96,2022-08-17 14:00:58.593750
309,137.96,2022-08-17 14:00:58.609375
310,149.16,2022-08-17 14:00:58.625000
311,159.31,2022-08-17 14:00:58.640625
312,167.3,2022-08-17 14:00:58.656250
313,171.75,2022-08-17 14:00:58.671875
314,171.61,2022-08-17 14:00:58.687500
315,166.57,2022-08-17 14:00:58.703125
316,157.07,2022-08-17 14:00:58.718750
317,144.14,2022-08-17 14:00:58.734375
318,129.08,2022-08-17 14:00:58.750000
319,113.21,2022-08-17 14:00:58.765625
320,97.63,2022-08-17 14:00:58.781250
321,83.05,2022-08-17 14:00:58.796875
322,69.68,2022-08-17 14:00:58.812500
323,57.31,2022-08-17 14:00:58.828125
324,45.53,2022-08-17 14:00:58.843750
325,34.03,2022-08-17 14:00:58.859375
326,22.79,2022-08-17 14:00:58.875000
327,12.14,2022-08-17 14:00:58.890625
328,2.53,2022-08-17 14:00:58.906250
329,-5.66,2022-08-17 14:00:58.921875
330,-12.24,2022-08-17 14:00:58.937500
331,-17.25,2022-08-17 14:00:58.953125
332,-20.85,2022-08-17 14:00:58.968750
333,-23.24,2022-08-17 14:00:58.984375
334,-24.66,2022-08-17 14:00:59.000000
335,-25.43,2022-08-17 14:00:59.015625
336,-25.99,2022-08-17 14:00:59.031250
337,-26.78,2022-08-17 14:00:59.046875
338,-27.89,2022-08-17 14:00:59.062500
339,-28.95,2022-08-17 14:00:59.078125
340,-29.03,2022-08-17 14:00:59.093750
341,-26.89,2022-08-17 14:00:59.109375
342,-21.53,2022-08-17 14:00:59.125000
343,-12.59,2022-08-17 14:00:59.140625
344,-0.57,2022-08-17 14:00:59.156250
345,13.28,2022-08-17 14:00:59.171875
346,27.42,2022-08-17 14:00:59.187500
347,40.59,2022-08-17 14:00:59.203125
348,52.29,2022-08-17 14:00:59.218750
349,62.89,2022-08-17 14:00:59.234375
350,73.33,2022-08-17 14:00:59.250000
351,84.53,2022-08-17 14:00:59.265625
352,96.78,2022-08-17 14:00:59.281250
353,109.43,2022-08-17 14:00:59.296875
354,121.02,2022-08-17 14:00:59.312500
355,129.8,2022-08-17 14:00:59.328125
356,134.35,2022-08-17 14:00:59.343750
357,134.17,2022-08-17 14:00:59.359375
358,129.8,2022-08-17 14:00:59.375000
359,122.58,2022-08-17 14:00:59.390625
360,114.13,2022-08-17 14:00:59.406250
361,105.84,2022-08-17 14:00:59.421875
362,98.76,2022-08-17 14:00:59.437500
363,93.69,2022-08-17 14:00:59.453125
364,91.24,2022-08-17 14:00:59.468750
365,91.7,2022-08-17 14:00:59.484375
366,94.75,2022-08-17 14:00:59.500000
367,99.06,2022-08-17 14:00:59.515625
368,102.29,2022-08-17 14:00:59.531250
369,101.45,2022-08-17 14:00:59.546875
370,93.73,2022-08-17 14:00:59.562500
371,77.38,2022-08-17 14:00:59.578125
372,52.5,2022-08-17 14:00:59.593750
373,21.15,2022-08-17 14:00:59.609375
374,-13.16,2022-08-17 14:00:59.625000
375,-46.56,2022-08-17 14:00:59.640625
376,-75.9,2022-08-17 14:00:59.656250
377,-99.54,2022-08-17 14:00:59.671875
378,-117.43,2022-08-17 14:00:59.687500
379,-130.62,2022-08-17 14:00:59.703125
380,-140.48,2022-08-17 14:00:59.718750
381,-147.98,2022-08-17 14:00:59.734375
382,-153.47,2022-08-17 14:00:59.750000
383,-156.81,2022-08-17 14:00:59.765625
384,-157.82,2022-08-17 14:00:59.781250
385,-156.63,2022-08-17 14:00:59.796875
386,-153.62,2022-08-17 14:00:59.812500
387,-149.15,2022-08-17 14:00:59.828125
388,-143.24,2022-08-17 14:00:59.843750
389,-135.5,2022-08-17 14:00:59.859375
390,-125.47,2022-08-17 14:00:59.875000
391,-112.94,2022-08-17 14:00:59.890625
392,-98.18,2022-08-17 14:00:59.906250
393,-81.85,2022-08-17 14:00:59.921875
394,-64.65,2022-08-17 14:00:59.937500
395,-47.06,2022-08-17 14:00:59.953125
396,-29.28,2022-08-17 14:00:59.968750
397,-11.47,2022-08-17 14:00:59.984375
398,5.9,2022-08-17 14:01:00.000000
399,21.84,2022-08-17 14:01:00.015625
400,34.96,2022-08-17 14:01:00.031250
401,43.84,2022-08-17 14:01:00.046875
402,47.62,2022-08-17 14:01:00.062500
403,46.38,2022-08-17 14:01:00.078125
404,41.18,2022-08-17 14:01:00.093750
405,33.85,2022-08-17 14:01:00.109375
406,26.37,2022-08-17 14:01:00.125000
407,20.42,2022-08-17 14:01:00.140625
408,17.0,2022-08-17 14:01:00.156250
409,16.38,2022-08-17 14:01:00.171875
410,18.23,2022-08-17 14:01:00.187500
411,21.88,2022-08-17 14:01:00.203125
412,26.56,2022-08-17 14:01:00.218750
413,31.56,2022-08-17 14:01:00.234375
414,36.25,2022-08-17 14:01:00.250000
415,40.04,2022-08-17 14:01:00.265625
416,42.44,2022-08-17 14:01:00.281250
417,43.07,2022-08-17 14:01:00.296875
418,41.75,2022-08-17 14:01:00.312500
419,38.53,2022-08-17 14:01:00.328125
420,33.71,2022-08-17 14:01:00.343750
421,27.68,2022-08-17 14:01:00.359375
422,20.83,2022-08-17 14:01:00.375000
423,13.45,2022-08-17 14:01:00.390625
424,5.69,2022-08-17 14:01:00.406250
425,-2.41,2022-08-17 14:01:00.421875
426,-10.82,2022-08-17 14:01:00.437500
427,-19.46,2022-08-17 14:01:00.453125
428,-28.14,2022-08-17 14:01:00.468750
429,-36.65,2022-08-17 14:01:00.484375
430,-44.79,2022-08-17 14:01:00.500000
431,-52.44,2022-08-17 14:01:00.515625
432,-59.59,2022-08-17 14:01:00.531250
433,-66.27,2022-08-17 14:01:00.546875
434,-72.37,2022-08-17 14:01:00.562500
435,-77.54,2022-08-17 14:01:00.578125
436,-81.09,2022-08-17 14:01:00.593750
437,-82.17,2022-08-17 14:01:00.609375
438,-79.96,2022-08-17 14:01:00.625000
439,-73.95,2022-08-17 14:01:00.640625
440,-64.17,2022-08-17 14:01:00.656250
441,-51.16,2022-08-17 14:01:00.671875
442,-35.82,2022-08-17 14:01:00.687500
443,-19.25,2022-08-17 14:01:00.703125
444,-2.56,2022-08-17 14:01:00.718750
445,13.34,2022-08-17 14:01:00.734375
446,27.71,2022-08-17 14:01:00.750000
447,40.05,2022-08-17 14:01:00.765625
448,50.09,2022-08-17 14:01:00.781250
449,57.77,2022-08-17 14:01:00.796875
450,63.21,2022-08-17 14:01:00.812500
451,66.64,2022-08-17 14:01:00.828125
452,68.37,2022-08-17 14:01:00.843750
453,68.83,2022-08-17 14:01:00.859375
454,68.52,2022-08-17 14:01:00.875000
455,68.02,2022-08-17 14:01:00.890625
456,67.82,2022-08-17 14:01:00.906250
457,68.25,2022-08-17 14:01:00.921875
458,69.28,2022-08-17 14:01:00.937500
459,70.62,2022-08-17 14:01:00.953125
460,71.82,2022-08-17 14:01:00.968750
461,72.42,2022-08-17 14:01:00.984375
462,72.12,2022-08-17 14:01:01.000000
463,70.82,2022-08-17 14:01:01.015625
464,68.66,2022-08-17 14:01:01.031250
465,65.87,2022-08-17 14:01:01.046875
466,62.78,2022-08-17 14:01:01.062500
467,59.58,2022-08-17 14:01:01.078125
468,56.35,2022-08-17 14:01:01.093750
469,53.01,2022-08-17 14:01:01.109375
470,49.38,2022-08-17 14:01:01.125000
471,45.26,2022-08-17 14:01:01.140625
472,40.57,2022-08-17 14:01:01.156250
473,35.47,2022-08-17 14:01:01.171875
474,30.32,2022-08-17 14:01:01.187500
475,25.58,2022-08-17 14:01:01.203125
476,21.54,2022-08-17 14:01:01.218750
477,18.28,2022-08-17 14:01:01.234375
478,15.56,2022-08-17 14:01:01.250000
479,13.03,2022-08-17 14:01:01.265625
480,10.39,2022-08-17 14:01:01.281250
481,7.67,2022-08-17 14:01:01.296875
482,5.4,2022-08-17 14:01:01.312500
483,4.67,2022-08-17 14:01:01.328125
484,6.92,2022-08-17 14:01:01.343750
485,13.55,2022-08-17 14:01:01.359375
486,25.38,2022-08-17 14:01:01.375000
487,42.24,2022-08-17 14:01:01.390625
488,62.85,2022-08-17 14:01:01.406250
489,85.14,2022-08-17 14:01:01.421875
490,106.78,2022-08-17 14:01:01.437500
491,125.86,2022-08-17 14:01:01.453125
492,141.24,2022-08-17 14:01:01.468750
493,152.79,2022-08-17 14:01:01.484375
494,161.29,2022-08-17 14:01:01.500000
495,168.12,2022-08-17 14:01:01.515625
496,174.84,2022-08-17 14:01:01.531250
497,182.56,2022-08-17 14:01:01.546875
498,191.3,2022-08-17 14:01:01.562500
499,199.57,2022-08-17 14:01:01.578125
500,204.55,2022-08-17 14:01:01.593750
501,202.97,2022-08-17 14:01:01.609375
502,192.34,2022-08-17 14:01:01.625000
503,172.02,2022-08-17 14:01:01.640625
504,143.67,2022-08-17 14:01:01.656250
505,110.5,2022-08-17 14:01:01.671875
506,76.01,2022-08-17 14:01:01.687500
507,42.64,2022-08-17 14:01:01.703125
508,11.07,2022-08-17 14:01:01.718750
509,-19.65,2022-08-17 14:01:01.734375
510,-51.26,2022-08-17 14:01:01.750000
511,-85.32,2022-08-17 14:01:01.765625
512,-122.36,2022-08-17 14:01:01.781250
513,-161.39,2022-08-17 14:01:01.796875
514,-199.82,2022-08-17 14:01:01.812500
515,-233.74,2022-08-17 14:01:01.828125
516,-258.64,2022-08-17 14:01:01.843750
517,-270.54,2022-08-17 14:01:01.859375
518,-267.41,2022-08-17 14:01:01.875000
519,-250.23,2022-08-17 14:01:01.890625
520,-223.34,2022-08-17 14:01:01.906250
521,-193.53,2022-08-17 14:01:01.921875
522,-168.1,2022-08-17 14:01:01.937500
523,-152.55,2022-08-17 14:01:01.953125
524,-149.04,2022-08-17 14:01:01.968750
525,-156.2,2022-08-17 14:01:01.984375
526,-170.2,2022-08-17 14:01:02.000000
527,-186.45,2022-08-17 14:01:02.015625
528,-201.04,2022-08-17 14:01:02.031250
529,-211.27,2022-08-17 14:01:02.046875
530,-215.43,2022-08-17 14:01:02.062500
531,-212.56,2022-08-17 14:01:02.078125
532,-202.45,2022-08-17 14:01:02.093750
533,-186.0,2022-08-17 14:01:02.109375
534,-165.38,2022-08-17 14:01:02.125000
535,-143.58,2022-08-17 14:01:02.140625
536,-123.33,2022-08-17 14:01:02.156250
537,-105.96,2022-08-17 14:01:02.171875
538,-91.0,2022-08-17 14:01:02.187500
539,-76.68,2022-08-17 14:01:02.203125
540,-61.2,2022-08-17 14:01:02.218750
541,-43.87,2022-08-17 14:01:02.234375
542,-25.42,2022-08-17 14:01:02.250000
543,-7.62,2022-08-17 14:01:02.265625
544,7.71,2022-08-17 14:01:02.281250
545,19.37,2022-08-17 14:01:02.296875
546,27.0,2022-08-17 14:01:02.312500
547,30.92,2022-08-17 14:01:02.328125
548,31.74,2022-08-17 14:01:02.343750
549,30.23,2022-08-17 14:01:02.359375
550,27.19,2022-08-17 14:01:02.375000
551,23.44,2022-08-17 14:01:02.390625
552,19.76,2022-08-17 14:01:02.406250
553,16.63,2022-08-17 14:01:02.421875
554,14.23,2022-08-17 14:01:02.437500
555,12.38,2022-08-17 14:01:02.453125
556,10.73,2022-08-17 14:01:02.468750
557,8.96,2022-08-17 14:01:02.484375
558,6.88,2022-08-17 14:01:02.500000
559,4.52,2022-08-17 14:01:02.515625
560,2.12,2022-08-17 14:01:02.531250
561,-0.01,2022-08-17 14:01:02.546875
562,-1.63,2022-08-17 14:01:02.562500
563,-2.63,2022-08-17 14:01:02.578125
564,-3.12,2022-08-17 14:01:02.593750
565,-3.33,2022-08-17 14:01:02.609375
566,-3.5,2022-08-17 14:01:02.625000
567,-3.83,2022-08-17 14:01:02.640625
568,-4.36,2022-08-17 14:01:02.656250
569,-5.03,2022-08-17 14:01:02.671875
570,-5.76,2022-08-17 14:01:02.687500
571,-6.47,2022-08-17 14:01:02.703125
572,-7.17,2022-08-17 14:01:02.718750
573,-7.88,2022-08-17 14:01:02.734375
574,-8.69,2022-08-17 14:01:02.750000
575,-9.7,2022-08-17 14:01:02.765625
576,-11.04,2022-08-17 14:01:02.781250
577,-12.86,2022-08-17 14:01:02.796875
578,-15.25,2022-08-17 14:01:02.812500
579,-18.23,2022-08-17 14:01:02.828125
580,-21.7,2022-08-17 14:01:02.843750
581,-25.54,2022-08-17 14:01:02.859375
582,-29.62,2022-08-17 14:01:02.875000
583,-33.87,2022-08-17 14:01:02.890625
584,-38.22,2022-08-17 14:01:02.906250
585,-42.47,2022-08-17 14:01:02.921875
586,-46.24,2022-08-17 14:01:02.937500
587,-48.92,2022-08-17 14:01:02.953125
588,-49.84,2022-08-17 14:01:02.968750
589,-48.45,2022-08-17 14:01:02.984375
590,-44.55,2022-08-17 14:01:03.000000
591,-38.37,2022-08-17 14:01:03.015625
592,-30.48,2022-08-17 14:01:03.031250
593,-21.6,2022-08-17 14:01:03.046875
594,-12.43,2022-08-17 14:01:03.062500
595,-3.51,2022-08-17 14:01:03.078125
596,4.77,2022-08-17 14:01:03.093750
597,12.14,2022-08-17 14:01:03.109375
598,18.4,2022-08-17 14:01:03.125000
599,23.38,2022-08-17 14:01:03.140625
600,26.98,2022-08-17 14:01:03.156250
601,29.19,2022-08-17 14:01:03.171875
602,30.03,2022-08-17 14:01:03.187500
603,29.59,2022-08-17 14:01:03.203125
604,28.07,2022-08-17 14:01:03.218750
605,25.79,2022-08-17 14:01:03.234375
606,23.23,2022-08-17 14:01:03.250000
607,20.96,2022-08-17 14:01:03.265625
608,19.52,2022-08-17 14:01:03.281250
609,19.26,2022-08-17 14:01:03.296875
610,20.22,2022-08-17 14:01:03.312500
611,22.05,2022-08-17 14:01:03.328125
612,24.13,2022-08-17 14:01:03.343750
613,25.78,2022-08-17 14:01:03.359375
614,26.55,2022-08-17 14:01:03.375000
615,26.45,2022-08-17 14:01:03.390625
616,25.98,2022-08-17 14:01:03.406250
617,25.96,2022-08-17 14:01:03.421875
618,27.17,2022-08-17 14:01:03.437500
619,29.87,2022-08-17 14:01:03.453125
620,33.63,2022-08-17 14:01:03.468750
621,37.39,2022-08-17 14:01:03.484375
622,39.9,2022-08-17 14:01:03.500000
623,40.31,2022-08-17 14:01:03.515625
624,38.65,2022-08-17 14:01:03.531250
625,35.9,2022-08-17 14:01:03.546875
626,33.65,2022-08-17 14:01:03.562500
627,33.44,2022-08-17 14:01:03.578125
628,36.1,2022-08-17 14:01:03.593750
629,41.34,2022-08-17 14:01:03.609375
630,47.86,2022-08-17 14:01:03.625000
631,53.77,2022-08-17 14:01:03.640625
632,57.36,2022-08-17 14:01:03.656250
633,57.82,2022-08-17 14:01:03.671875
634,55.73,2022-08-17 14:01:03.687500
635,53.36,2022-08-17 14:01:03.703125
636,54.22,2022-08-17 14:01:03.718750
637,62.34,2022-08-17 14:01:03.734375
638,80.73,2022-08-17 14:01:03.750000
639,109.83,2022-08-17 14:01:03.765625
640,146.43,2022-08-17 14:01:03.781250
641,183.92,2022-08-17 14:01:03.796875
642,213.75,2022-08-17 14:01:03.812500
643,228.02,2022-08-17 14:01:03.828125
644,222.09,2022-08-17 14:01:03.843750
645,196.25,2022-08-17 14:01:03.859375
646,155.83,2022-08-17 14:01:03.875000
647,109.67,2022-08-17 14:01:03.890625
648,67.53,2022-08-17 14:01:03.906250
649,37.5,2022-08-17 14:01:03.921875
650,24.22,2022-08-17 14:01:03.937500
651,28.23,2022-08-17 14:01:03.953125
652,46.53,2022-08-17 14:01:03.968750
653,74.04,2022-08-17 14:01:03.984375
654,105.07,2022-08-17 14:01:04.000000
655,134.76,2022-08-17 14:01:04.015625
656,159.73,2022-08-17 14:01:04.031250
657,178.09,2022-08-17 14:01:04.046875
658,189.13,2022-08-17 14:01:04.062500
659,192.74,2022-08-17 14:01:04.078125
660,189.25,2022-08-17 14:01:04.093750
661,179.55,2022-08-17 14:01:04.109375
662,165.23,2022-08-17 14:01:04.125000
663,148.49,2022-08-17 14:01:04.140625
664,131.62,2022-08-17 14:01:04.156250
665,116.22,2022-08-17 14:01:04.171875
666,102.65,2022-08-17 14:01:04.187500
667,89.87,2022-08-17 14:01:04.203125
668,75.79,2022-08-17 14:01:04.218750
669,58.31,2022-08-17 14:01:04.234375
670,36.27,2022-08-17 14:01:04.250000
671,10.19,2022-08-17 14:01:04.265625
672,-17.73,2022-08-17 14:01:04.281250
673,-44.3,2022-08-17 14:01:04.296875
674,-66.4,2022-08-17 14:01:04.312500
675,-81.94,2022-08-17 14:01:04.328125
676,-90.57,2022-08-17 14:01:04.343750
677,-93.44,2022-08-17 14:01:04.359375
678,-92.53,2022-08-17 14:01:04.375000
679,-89.78,2022-08-17 14:01:04.390625
680,-86.5,2022-08-17 14:01:04.406250
681,-83.26,2022-08-17 14:01:04.421875
682,-80.31,2022-08-17 14:01:04.437500
683,-78.13,2022-08-17 14:01:04.453125
684,-77.71,2022-08-17 14:01:04.468750
685,-80.48,2022-08-17 14:01:04.484375
686,-87.7,2022-08-17 14:01:04.500000
687,-99.81,2022-08-17 14:01:04.515625
688,-116.08,2022-08-17 14:01:04.531250
689,-134.7,2022-08-17 14:01:04.546875
690,-153.42,2022-08-17 14:01:04.562500
691,-170.27,2022-08-17 14:01:04.578125
692,-184.27,2022-08-17 14:01:04.593750
693,-195.56,2022-08-17 14:01:04.609375
694,-205.34,2022-08-17 14:01:04.625000
695,-215.22,2022-08-17 14:01:04.640625
696,-226.72,2022-08-17 14:01:04.656250
697,-240.85,2022-08-17 14:01:04.671875
698,-257.9,2022-08-17 14:01:04.687500
699,-277.44,2022-08-17 14:01:04.703125
700,-298.32,2022-08-17 14:01:04.718750
701,-318.64,2022-08-17 14:01:04.734375
702,-335.76,2022-08-17 14:01:04.750000
703,-346.63,2022-08-17 14:01:04.765625
704,-348.3,2022-08-17 14:01:04.781250
705,-338.61,2022-08-17 14:01:04.796875
706,-316.82,2022-08-17 14:01:04.812500
707,-283.78,2022-08-17 14:01:04.828125
708,-241.74,2022-08-17 14:01:04.843750
709,-193.83,2022-08-17 14:01:04.859375
710,-143.54,2022-08-17 14:01:04.875000
711,-94.2,2022-08-17 14:01:04.890625
712,-48.66,2022-08-17 14:01:04.906250
713,-9.01,2022-08-17 14:01:04.921875
714,23.54,2022-08-17 14:01:04.937500
715,48.8,2022-08-17 14:01:04.953125
716,67.39,2022-08-17 14:01:04.968750
717,80.47,2022-08-17 14:01:04.984375
718,89.12,2022-08-17 14:01:05.000000
719,93.84,2022-08-17 14:01:05.015625
720,94.4,2022-08-17 14:01:05.031250
721,89.92,2022-08-17 14:01:05.046875
722,79.35,2022-08-17 14:01:05.062500
723,62.08,2022-08-17 14:01:05.078125
724,38.24,2022-08-17 14:01:05.093750
725,8.9,2022-08-17 14:01:05.109375
726,-24.17,2022-08-17 14:01:05.125000
727,-58.76,2022-08-17 14:01:05.140625
728,-92.72,2022-08-17 14:01:05.156250
729,-124.49,2022-08-17 14:01:05.171875
730,-153.42,2022-08-17 14:01:05.187500
731,-179.73,2022-08-17 14:01:05.203125
732,-203.94,2022-08-17 14:01:05.218750
733,-226.01,2022-08-17 14:01:05.234375
734,-244.64,2022-08-17 14:01:05.250000
735,-257.12,2022-08-17 14:01:05.265625
736,-260.13,2022-08-17 14:01:05.281250
737,-251.01,2022-08-17 14:01:05.296875
738,-229.08,2022-08-17 14:01:05.312500
739,-196.21,2022-08-17 14:01:05.328125
740,-156.29,2022-08-17 14:01:05.343750
741,-113.93,2022-08-17 14:01:05.359375
742,-72.96,2022-08-17 14:01:05.375000
743,-35.61,2022-08-17 14:01:05.390625
744,-2.5,2022-08-17 14:01:05.406250
745,26.66,2022-08-17 14:01:05.421875
746,52.21,2022-08-17 14:01:05.437500
747,74.1,2022-08-17 14:01:05.453125
748,91.89,2022-08-17 14:01:05.468750
749,105.23,2022-08-17 14:01:05.484375
750,114.2,2022-08-17 14:01:05.500000
751,119.41,2022-08-17 14:01:05.515625
752,121.81,2022-08-17 14:01:05.531250
753,122.35,2022-08-17 14:01:05.546875
754,121.64,2022-08-17 14:01:05.562500
755,119.78,2022-08-17 14:01:05.578125
756,116.61,2022-08-17 14:01:05.593750
757,111.92,2022-08-17 14:01:05.609375
758,105.86,2022-08-17 14:01:05.625000
759,99.01,2022-08-17 14:01:05.640625
760,92.26,2022-08-17 14:01:05.656250
761,86.47,2022-08-17 14:01:05.671875
762,82.16,2022-08-17 14:01:05.687500
763,79.23,2022-08-17 14:01:05.703125
764,77.16,2022-08-17 14:01:05.718750
765,75.18,2022-08-17 14:01:05.734375
766,72.7,2022-08-17 14:01:05.750000
767,69.51,2022-08-17 14:01:05.765625
768,65.77,2022-08-17 14:01:05.781250
769,61.85,2022-08-17 14:01:05.796875
770,58.04,2022-08-17 14:01:05.812500
771,54.4,2022-08-17 14:01:05.828125
772,50.68,2022-08-17 14:01:05.843750
773,46.47,2022-08-17 14:01:05.859375
774,41.33,2022-08-17 14:01:05.875000
775,35.06,2022-08-17 14:01:05.890625
776,27.75,2022-08-17 14:01:05.906250
777,19.72,2022-08-17 14:01:05.921875
778,11.43,2022-08-17 14:01:05.937500
779,3.2,2022-08-17 14:01:05.953125
780,-4.87,2022-08-17 14:01:05.968750
781,-13.06,2022-08-17 14:01:05.984375
782,-21.88,2022-08-17 14:01:06.000000
783,-31.71,2022-08-17 14:01:06.015625
784,-42.56,2022-08-17 14:01:06.031250
785,-53.72,2022-08-17 14:01:06.046875
786,-63.81,2022-08-17 14:01:06.062500
787,-71.08,2022-08-17 14:01:06.078125
788,-73.84,2022-08-17 14:01:06.093750
789,-71.04,2022-08-17 14:01:06.109375
790,-62.52,2022-08-17 14:01:06.125000
791,-49.03,2022-08-17 14:01:06.140625
792,-31.95,2022-08-17 14:01:06.156250
793,-12.89,2022-08-17 14:01:06.171875
794,6.69,2022-08-17 14:01:06.187500
795,25.61,2022-08-17 14:01:06.203125
796,43.04,2022-08-17 14:01:06.218750
797,58.36,2022-08-17 14:01:06.234375
798,71.08,2022-08-17 14:01:06.250000
799,80.79,2022-08-17 14:01:06.265625
800,87.24,2022-08-17 14:01:06.281250
801,90.44,2022-08-17 14:01:06.296875
802,90.68,2022-08-17 14:01:06.312500
803,88.53,2022-08-17 14:01:06.328125
804,84.79,2022-08-17 14:01:06.343750
805,80.28,2022-08-17 14:01:06.359375
806,75.67,2022-08-17 14:01:06.375000
807,71.45,2022-08-17 14:01:06.390625
808,67.9,2022-08-17 14:01:06.406250
809,65.04,2022-08-17 14:01:06.421875
810,62.83,2022-08-17 14:01:06.437500
811,61.19,2022-08-17 14:01:06.453125
812,59.99,2022-08-17 14:01:06.468750
813,59.12,2022-08-17 14:01:06.484375
814,58.43,2022-08-17 14:01:06.500000
815,57.73,2022-08-17 14:01:06.515625
816,56.81,2022-08-17 14:01:06.531250
817,55.49,2022-08-17 14:01:06.546875
818,53.59,2022-08-17 14:01:06.562500
819,51.03,2022-08-17 14:01:06.578125
820,47.72,2022-08-17 14:01:06.593750
821,43.66,2022-08-17 14:01:06.609375
822,38.88,2022-08-17 14:01:06.625000
823,33.48,2022-08-17 14:01:06.640625
824,27.54,2022-08-17 14:01:06.656250
825,21.17,2022-08-17 14:01:06.671875
826,14.45,2022-08-17 14:01:06.687500
827,7.4,2022-08-17 14:01:06.703125
828,0.09,2022-08-17 14:01:06.718750
829,-7.53,2022-08-17 14:01:06.734375
830,-15.54,2022-08-17 14:01:06.750000
831,-24.12,2022-08-17 14:01:06.765625
832,-33.41,2022-08-17 14:01:06.781250
833,-43.36,2022-08-17 14:01:06.796875
834,-53.46,2022-08-17 14:01:06.812500
835,-62.63,2022-08-17 14:01:06.828125
836,-69.36,2022-08-17 14:01:06.843750
837,-72.01,2022-08-17 14:01:06.859375
838,-69.43,2022-08-17 14:01:06.875000
839,-61.27,2022-08-17 14:01:06.890625
840,-48.14,2022-08-17 14:01:06.906250
841,-31.41,2022-08-17 14:01:06.921875
842,-12.78,2022-08-17 14:01:06.937500
843,6.14,2022-08-17 14:01:06.953125
844,24.03,2022-08-17 14:01:06.968750
845,39.96,2022-08-17 14:01:06.984375
846,53.26,2022-08-17 14:01:07.000000
847,63.49,2022-08-17 14:01:07.015625
848,70.37,2022-08-17 14:01:07.031250
849,73.88,2022-08-17 14:01:07.046875
850,74.24,2022-08-17 14:01:07.062500
851,71.94,2022-08-17 14:01:07.078125
852,67.72,2022-08-17 14:01:07.093750
853,62.35,2022-08-17 14:01:07.109375
854,56.6,2022-08-17 14:01:07.125000
855,51.04,2022-08-17 14:01:07.140625
856,46.02,2022-08-17 14:01:07.156250
857,41.67,2022-08-17 14:01:07.171875
858,37.94,2022-08-17 14:01:07.187500
859,34.74,2022-08-17 14:01:07.203125
860,32.0,2022-08-17 14:01:07.218750
861,29.73,2022-08-17 14:01:07.234375
862,27.92,2022-08-17 14:01:07.250000
863,26.54,2022-08-17 14:01:07.265625
864,25.46,2022-08-17 14:01:07.281250
865,24.42,2022-08-17 14:01:07.296875
866,23.13,2022-08-17 14:01:07.312500
867,21.29,2022-08-17 14:01:07.328125
868,18.7,2022-08-17 14:01:07.343750
869,15.3,2022-08-17 14:01:07.359375
870,11.14,2022-08-17 14:01:07.375000
871,6.38,2022-08-17 14:01:07.390625
872,1.17,2022-08-17 14:01:07.406250
873,-4.38,2022-08-17 14:01:07.421875
874,-10.19,2022-08-17 14:01:07.437500
875,-16.21,2022-08-17 14:01:07.453125
876,-22.39,2022-08-17 14:01:07.468750
877,-28.7,2022-08-17 14:01:07.484375
878,-35.17,2022-08-17 14:01:07.500000
879,-41.94,2022-08-17 14:01:07.515625
880,-49.23,2022-08-17 14:01:07.531250
881,-57.28,2022-08-17 14:01:07.546875
882,-65.99,2022-08-17 14:01:07.562500
883,-74.77,2022-08-17 14:01:07.578125
884,-82.34,2022-08-17 14:01:07.593750
885,-87.02,2022-08-17 14:01:07.609375
886,-87.12,2022-08-17 14:01:07.625000
887,-81.56,2022-08-17 14:01:07.640625
888,-70.19,2022-08-17 14:01:07.656250
889,-53.9,2022-08-17 14:01:07.671875
890,-34.31,2022-08-17 14:01:07.687500
891,-13.27,2022-08-17 14:01:07.703125
892,7.49,2022-08-17 14:01:07.718750
893,26.69,2022-08-17 14:01:07.734375
894,43.45,2022-08-17 14:01:07.750000
895,57.22,2022-08-17 14:01:07.765625
896,67.66,2022-08-17 14:01:07.781250
897,74.59,2022-08-17 14:01:07.796875
898,78.08,2022-08-17 14:01:07.812500
899,78.44,2022-08-17 14:01:07.828125
900,76.2,2022-08-17 14:01:07.843750
901,72.07,2022-08-17 14:01:07.859375
902,66.76,2022-08-17 14:01:07.875000
903,60.95,2022-08-17 14:01:07.890625
904,55.21,2022-08-17 14:01:07.906250
905,49.95,2022-08-17 14:01:07.921875
906,45.48,2022-08-17 14:01:07.937500
907,41.97,2022-08-17 14:01:07.953125
908,39.46,2022-08-17 14:01:07.968750
909,37.89,2022-08-17 14:01:07.984375
910,37.11,2022-08-17 14:01:08.000000
911,36.91,2022-08-17 14:01:08.015625
912,36.99,2022-08-17 14:01:08.031250
913,37.06,2022-08-17 14:01:08.046875
914,36.84,2022-08-17 14:01:08.062500
915,36.04,2022-08-17 14:01:08.078125
916,34.48,2022-08-17 14:01:08.093750
917,32.04,2022-08-17 14:01:08.109375
918,28.7,2022-08-17 14:01:08.125000
919,24.47,2022-08-17 14:01:08.140625
920,19.44,2022-08-17 14:01:08.156250
921,13.72,2022-08-17 14:01:08.171875
922,7.51,2022-08-17 14:01:08.187500
923,1.03,2022-08-17 14:01:08.203125
924,-5.45,2022-08-17 14:01:08.218750
925,-11.71,2022-08-17 14:01:08.234375
926,-17.62,2022-08-17 14:01:08.250000
927,-23.16,2022-08-17 14:01:08.265625
928,-28.49,2022-08-17 14:01:08.281250
929,-33.87,2022-08-17 14:01:08.296875
930,-39.7,2022-08-17 14:01:08.312500
931,-46.29,2022-08-17 14:01:08.328125
932,-53.77,2022-08-17 14:01:08.343750
933,-61.82,2022-08-17 14:01:08.359375
934,-69.52,2022-08-17 14:01:08.375000
935,-75.45,2022-08-17 14:01:08.390625
936,-77.95,2022-08-17 14:01:08.406250
937,-75.62,2022-08-17 14:01:08.421875
938,-67.83,2022-08-17 14:01:08.437500
939,-54.92,2022-08-17 14:01:08.453125
940,-38.15,2022-08-17 14:01:08.468750
941,-19.29,2022-08-17 14:01:08.484375
942,-0.1,2022-08-17 14:01:08.500000
943,18.04,2022-08-17 14:01:08.515625
944,34.22,2022-08-17 14:01:08.531250
945,47.97,2022-08-17 14:01:08.546875
946,59.01,2022-08-17 14:01:08.562500
947,67.1,2022-08-17 14:01:08.578125
948,72.07,2022-08-17 14:01:08.593750
949,73.95,2022-08-17 14:01:08.609375
950,73.05,2022-08-17 14:01:08.625000
951,69.95,2022-08-17 14:01:08.640625
952,65.42,2022-08-17 14:01:08.656250
953,60.18,2022-08-17 14:01:08.671875
954,54.81,2022-08-17 14:01:08.687500
955,49.68,2022-08-17 14:01:08.703125
956,45.01,2022-08-17 14:01:08.718750
957,40.95,2022-08-17 14:01:08.734375
958,37.68,2022-08-17 14:01:08.750000
959,35.42,2022-08-17 14:01:08.765625
960,34.3,2022-08-17 14:01:08.781250
961,34.3,2022-08-17 14:01:08.796875
962,35.08,2022-08-17 14:01:08.812500
963,36.09,2022-08-17 14:01:08.828125
964,36.67,2022-08-17 14:01:08.843750
965,36.27,2022-08-17 14:01:08.859375
966,34.67,2022-08-17 14:01:08.875000
967,31.96,2022-08-17 14:01:08.890625
968,28.56,2022-08-17 14:01:08.906250
969,24.88,2022-08-17 14:01:08.921875
970,21.2,2022-08-17 14:01:08.937500
971,17.52,2022-08-17 14:01:08.953125
972,13.61,2022-08-17 14:01:08.968750
973,9.2,2022-08-17 14:01:08.984375
974,4.11,2022-08-17 14:01:09.000000
975,-1.58,2022-08-17 14:01:09.015625
976,-7.56,2022-08-17 14:01:09.031250
977,-13.44,2022-08-17 14:01:09.046875
978,-18.86,2022-08-17 14:01:09.062500
979,-23.66,2022-08-17 14:01:09.078125
980,-27.93,2022-08-17 14:01:09.093750
981,-32.01,2022-08-17 14:01:09.109375
982,-36.37,2022-08-17 14:01:09.125000
983,-41.53,2022-08-17 14:01:09.140625
984,-47.72,2022-08-17 14:01:09.156250
985,-54.74,2022-08-17 14:01:09.171875
986,-61.79,2022-08-17 14:01:09.187500
987,-67.59,2022-08-17 14:01:09.203125
988,-70.66,2022-08-17 14:01:09.218750
989,-69.77,2022-08-17 14:01:09.234375
990,-64.29,2022-08-17 14:01:09.250000
991,-54.4,2022-08-17 14:01:09.265625
992,-40.96,2022-08-17 14:01:09.281250
993,-25.26,2022-08-17 14:01:09.296875
994,-8.67,2022-08-17 14:01:09.312500
995,7.6,2022-08-17 14:01:09.328125
996,22.57,2022-08-17 14:01:09.343750
997,35.5,2022-08-17 14:01:09.359375
998,45.87,2022-08-17 14:01:09.375000
999,53.32,2022-08-17 14:01:09.390625
1000,57.77,2022-08-17 14:01:09.406250
1001,59.35,2022-08-17 14:01:09.421875
1002,58.47,2022-08-17 14:01:09.437500
1003,55.7,2022-08-17 14:01:09.453125
1004,51.7,2022-08-17 14:01:09.468750
1005,47.12,2022-08-17 14:01:09.484375
1006,42.53,2022-08-17 14:01:09.500000
1007,38.32,2022-08-17 14:01:09.515625
1008,34.73,2022-08-17 14:01:09.531250
1009,31.82,2022-08-17 14:01:09.546875
1010,29.57,2022-08-17 14:01:09.562500
1011,27.94,2022-08-17 14:01:09.578125
1012,26.92,2022-08-17 14:01:09.593750
1013,26.53,2022-08-17 14:01:09.609375
1014,26.74,2022-08-17 14:01:09.625000
1015,27.36,2022-08-17 14:01:09.640625
1016,28.04,2022-08-17 14:01:09.656250
1017,28.32,2022-08-17 14:01:09.671875
1018,27.8,2022-08-17 14:01:09.687500
1019,26.27,2022-08-17 14:01:09.703125
1020,23.8,2022-08-17 14:01:09.718750
1021,20.69,2022-08-17 14:01:09.734375
1022,17.29,2022-08-17 14:01:09.750000
1023,13.87,2022-08-17 14:01:09.765625
1024,10.45,2022-08-17 14:01:09.781250
1025,6.9,2022-08-17 14:01:09.796875
1026,3.0,2022-08-17 14:01:09.812500
1027,-1.42,2022-08-17 14:01:09.828125
1028,-6.3,2022-08-17 14:01:09.843750
1029,-11.46,2022-08-17 14:01:09.859375
1030,-16.57,2022-08-17 14:01:09.875000
1031,-21.36,2022-08-17 14:01:09.890625
1032,-25.67,2022-08-17 14:01:09.906250
1033,-29.51,2022-08-17 14:01:09.921875
1034,-33.07,2022-08-17 14:01:09.937500
1035,-36.65,2022-08-17 14:01:09.953125
1036,-40.6,2022-08-17 14:01:09.968750
1037,-45.2,2022-08-17 14:01:09.984375
1038,-50.52,2022-08-17 14:01:10.000000
1039,-56.26,2022-08-17 14:01:10.015625
1040,-61.71,2022-08-17 14:01:10.031250
1041,-65.8,2022-08-17 14:01:10.046875
1042,-67.33,2022-08-17 14:01:10.062500
1043,-65.33,2022-08-17 14:01:10.078125
1044,-59.37,2022-08-17 14:01:10.093750
1045,-49.69,2022-08-17 14:01:10.109375
1046,-37.14,2022-08-17 14:01:10.125000
1047,-22.94,2022-08-17 14:01:10.140625
1048,-8.31,2022-08-17 14:01:10.156250
1049,5.71,2022-08-17 14:01:10.171875
1050,18.38,2022-08-17 14:01:10.187500
1051,29.2,2022-08-17 14:01:10.203125
1052,37.81,2022-08-17 14:01:10.218750
1053,43.98,2022-08-17 14:01:10.234375
1054,47.63,2022-08-17 14:01:10.250000
1055,48.9,2022-08-17 14:01:10.265625
1056,48.14,2022-08-17 14:01:10.281250
1057,45.91,2022-08-17 14:01:10.296875
1058,42.85,2022-08-17 14:01:10.312500
1059,39.52,2022-08-17 14:01:10.328125
1060,36.39,2022-08-17 14:01:10.343750
1061,33.7,2022-08-17 14:01:10.359375
1062,31.56,2022-08-17 14:01:10.375000
1063,29.95,2022-08-17 14:01:10.390625
1064,28.84,2022-08-17 14:01:10.406250
1065,28.15,2022-08-17 14:01:10.421875
1066,27.88,2022-08-17 14:01:10.437500
1067,27.97,2022-08-17 14:01:10.453125
1068,28.36,2022-08-17 14:01:10.468750
1069,28.85,2022-08-17 14:01:10.484375
1070,29.17,2022-08-17 14:01:10.500000
1071,29.02,2022-08-17 14:01:10.515625
1072,28.14,2022-08-17 14:01:10.531250
1073,26.45,2022-08-17 14:01:10.546875
1074,24.05,2022-08-17 14:01:10.562500
1075,21.17,2022-08-17 14:01:10.578125
1076,18.07,2022-08-17 14:01:10.593750
1077,14.92,2022-08-17 14:01:10.609375
1078,11.73,2022-08-17 14:01:10.625000
1079,8.39,2022-08-17 14:01:10.640625
1080,4.77,2022-08-17 14:01:10.656250
1081,0.81,2022-08-17 14:01:10.671875
1082,-3.41,2022-08-17 14:01:10.687500
1083,-7.68,2022-08-17 14:01:10.703125
1084,-11.8,2022-08-17 14:01:10.718750
1085,-15.57,2022-08-17 14:01:10.734375
1086,-18.95,2022-08-17 14:01:10.750000
1087,-21.98,2022-08-17 14:01:10.765625
1088,-24.81,2022-08-17 14:01:10.781250
1089,-27.66,2022-08-17 14:01:10.796875
1090,-30.77,2022-08-17 14:01:10.812500
1091,-34.39,2022-08-17 14:01:10.828125
1092,-38.63,2022-08-17 14:01:10.843750
1093,-43.39,2022-08-17 14:01:10.859375
1094,-48.23,2022-08-17 14:01:10.875000
1095,-52.42,2022-08-17 14:01:10.890625
1096,-54.98,2022-08-17 14:01:10.906250
1097,-55.0,2022-08-17 14:01:10.921875
1098,-51.88,2022-08-17 14:01:10.937500
1099,-45.52,2022-08-17 14:01:10.953125
1100,-36.37,2022-08-17 14:01:10.968750
1101,-25.27,2022-08-17 14:01:10.984375
1102,-13.26,2022-08-17 14:01:11.000000
1103,-1.32,2022-08-17 14:01:11.015625
1104,9.77,2022-08-17 14:01:11.031250
1105,19.47,2022-08-17 14:01:11.046875
1106,27.38,2022-08-17 14:01:11.062500
1107,33.24,2022-08-17 14:01:11.078125
1108,36.91,2022-08-17 14:01:11.093750
1109,38.42,2022-08-17 14:01:11.109375
1110,37.99,2022-08-17 14:01:11.125000
1111,36.06,2022-08-17 14:01:11.140625
1112,33.21,2022-08-17 14:01:11.156250
1113,30.02,2022-08-17 14:01:11.171875
1114,26.96,2022-08-17 14:01:11.187500
1115,24.33,2022-08-17 14:01:11.203125
1116,22.26,2022-08-17 14:01:11.218750
1117,20.76,2022-08-17 14:01:11.234375
1118,19.82,2022-08-17 14:01:11.250000
1119,19.41,2022-08-17 14:01:11.265625
1120,19.51,2022-08-17 14:01:11.281250
1121,20.04,2022-08-17 14:01:11.296875
1122,20.83,2022-08-17 14:01:11.312500
1123,21.68,2022-08-17 14:01:11.328125
1124,22.35,2022-08-17 14:01:11.343750
1125,22.6,2022-08-17 14:01:11.359375
1126,22.28,2022-08-17 14:01:11.375000
1127,21.28,2022-08-17 14:01:11.390625
1128,19.53,2022-08-17 14:01:11.406250
1129,17.06,2022-08-17 14:01:11.421875
1130,13.93,2022-08-17 14:01:11.437500
1131,10.33,2022-08-17 14:01:11.453125
1132,6.51,2022-08-17 14:01:11.468750
1133,2.69,2022-08-17 14:01:11.484375
1134,-0.95,2022-08-17 14:01:11.500000
1135,-4.4,2022-08-17 14:01:11.515625
1136,-7.7,2022-08-17 14:01:11.531250
1137,-10.95,2022-08-17 14:01:11.546875
1138,-14.19,2022-08-17 14:01:11.562500
1139,-17.36,2022-08-17 14:01:11.578125
1140,-20.44,2022-08-17 14:01:11.593750
1141,-23.4,2022-08-17 14:01:11.609375
1142,-26.34,2022-08-17 14:01:11.625000
1143,-29.45,2022-08-17 14:01:11.640625
1144,-32.96,2022-08-17 14:01:11.656250
1145,-36.99,2022-08-17 14:01:11.671875
1146,-41.44,2022-08-17 14:01:11.687500
1147,-45.87,2022-08-17 14:01:11.703125
1148,-49.55,2022-08-17 14:01:11.718750
1149,-51.58,2022-08-17 14:01:11.734375
1150,-51.18,2022-08-17 14:01:11.750000
1151,-47.93,2022-08-17 14:01:11.765625
1152,-41.88,2022-08-17 14:01:11.781250
1153,-33.6,2022-08-17 14:01:11.796875
1154,-23.91,2022-08-17 14:01:11.812500
1155,-13.66,2022-08-17 14:01:11.828125
1156,-3.62,2022-08-17 14:01:11.843750
1157,5.66,2022-08-17 14:01:11.859375
1158,13.73,2022-08-17 14:01:11.875000
1159,20.21,2022-08-17 14:01:11.890625
1160,24.76,2022-08-17 14:01:11.906250
1161,27.25,2022-08-17 14:01:11.921875
1162,27.77,2022-08-17 14:01:11.937500
1163,26.7,2022-08-17 14:01:11.953125
1164,24.62,2022-08-17 14:01:11.968750
1165,22.15,2022-08-17 14:01:11.984375
1166,19.78,2022-08-17 14:01:12.000000
1167,17.81,2022-08-17 14:01:12.015625
1168,16.35,2022-08-17 14:01:12.031250
1169,15.34,2022-08-17 14:01:12.046875
1170,14.69,2022-08-17 14:01:12.062500
1171,14.31,2022-08-17 14:01:12.078125
1172,14.18,2022-08-17 14:01:12.093750
1173,14.36,2022-08-17 14:01:12.109375
1174,14.88,2022-08-17 14:01:12.125000
1175,15.76,2022-08-17 14:01:12.140625
1176,16.85,2022-08-17 14:01:12.156250
1177,17.89,2022-08-17 14:01:12.171875
1178,18.56,2022-08-17 14:01:12.187500
1179,18.56,2022-08-17 14:01:12.203125
1180,17.73,2022-08-17 14:01:12.218750
1181,16.07,2022-08-17 14:01:12.234375
1182,13.76,2022-08-17 14:01:12.250000
1183,11.06,2022-08-17 14:01:12.265625
1184,8.23,2022-08-17 14:01:12.281250
1185,5.38,2022-08-17 14:01:12.296875
1186,2.49,2022-08-17 14:01:12.312500
1187,-0.57,2022-08-17 14:01:12.328125
1188,-3.89,2022-08-17 14:01:12.343750
1189,-7.46,2022-08-17 14:01:12.359375
1190,-11.1,2022-08-17 14:01:12.375000
1191,-14.56,2022-08-17 14:01:12.390625
1192,-17.63,2022-08-17 14:01:12.406250
1193,-20.24,2022-08-17 14:01:12.421875
1194,-22.54,2022-08-17 14:01:12.437500
1195,-24.81,2022-08-17 14:01:12.453125
1196,-27.4,2022-08-17 14:01:12.468750
1197,-30.54,2022-08-17 14:01:12.484375
1198,-34.31,2022-08-17 14:01:12.500000
1199,-38.58,2022-08-17 14:01:12.515625
1200,-42.98,2022-08-17 14:01:12.531250
1201,-46.94,2022-08-17 14:01:12.546875
1202,-49.7,2022-08-17 14:01:12.562500
1203,-50.57,2022-08-17 14:01:12.578125
1204,-49.02,2022-08-17 14:01:12.593750
1205,-44.89,2022-08-17 14:01:12.609375
1206,-38.45,2022-08-17 14:01:12.625000
1207,-30.32,2022-08-17 14:01:12.640625
1208,-21.25,2022-08-17 14:01:12.656250
1209,-12.01,2022-08-17 14:01:12.671875
1210,-3.24,2022-08-17 14:01:12.687500
1211,4.59,2022-08-17 14:01:12.703125
1212,11.14,2022-08-17 14:01:12.718750
1213,16.24,2022-08-17 14:01:12.734375
1214,19.76,2022-08-17 14:01:12.750000
1215,21.75,2022-08-17 14:01:12.765625
1216,22.37,2022-08-17 14:01:12.781250
1217,21.9,2022-08-17 14:01:12.796875
1218,20.7,2022-08-17 14:01:12.812500
1219,19.11,2022-08-17 14:01:12.828125
1220,17.44,2022-08-17 14:01:12.843750
1221,15.89,2022-08-17 14:01:12.859375
1222,14.55,2022-08-17 14:01:12.875000
1223,13.43,2022-08-17 14:01:12.890625
1224,12.53,2022-08-17 14:01:12.906250
1225,11.86,2022-08-17 14:01:12.921875
1226,11.5,2022-08-17 14:01:12.937500
1227,11.51,2022-08-17 14:01:12.953125
1228,11.96,2022-08-17 14:01:12.968750
1229,12.79,2022-08-17 14:01:12.984375
1230,13.76,2022-08-17 14:01:13.000000
1231,14.55,2022-08-17 14:01:13.015625
1232,14.8,2022-08-17 14:01:13.031250
1233,14.29,2022-08-17 14:01:13.046875
1234,13.01,2022-08-17 14:01:13.062500
1235,11.17,2022-08-17 14:01:13.078125
1236,9.09,2022-08-17 14:01:13.093750
1237,7.07,2022-08-17 14:01:13.109375
1238,5.23,2022-08-17 14:01:13.125000
1239,3.5,2022-08-17 14:01:13.140625
1240,1.66,2022-08-17 14:01:13.156250
1241,-0.58,2022-08-17 14:01:13.171875
1242,-3.36,2022-08-17 14:01:13.187500
1243,-6.68,2022-08-17 14:01:13.203125
1244,-10.34,2022-08-17 14:01:13.218750
1245,-14.03,2022-08-17 14:01:13.234375
1246,-17.45,2022-08-17 14:01:13.250000
1247,-20.42,2022-08-17 14:01:13.265625
1248,-22.95,2022-08-17 14:01:13.281250
1249,-25.22,2022-08-17 14:01:13.296875
1250,-27.51,2022-08-17 14:01:13.312500
1251,-30.1,2022-08-17 14:01:13.328125
1252,-33.16,2022-08-17 14:01:13.343750
1253,-36.72,2022-08-17 14:01:13.359375
1254,-40.54,2022-08-17 14:01:13.375000
1255,-44.13,2022-08-17 14:01:13.390625
1256,-46.79,2022-08-17 14:01:13.406250
1257,-47.76,2022-08-17 14:01:13.421875
1258,-46.41,2022-08-17 14:01:13.437500
1259,-42.48,2022-08-17 14:01:13.453125
1260,-36.16,2022-08-17 14:01:13.468750
1261,-28.12,2022-08-17 14:01:13.484375
1262,-19.23,2022-08-17 14:01:13.500000
1263,-10.36,2022-08-17 14:01:13.515625
1264,-2.13,2022-08-17 14:01:13.531250
1265,5.12,2022-08-17 14:01:13.546875
1266,11.28,2022-08-17 14:01:13.562500
1267,16.26,2022-08-17 14:01:13.578125
1268,19.96,2022-08-17 14:01:13.593750
1269,22.25,2022-08-17 14:01:13.609375
1270,23.13,2022-08-17 14:01:13.625000
1271,22.75,2022-08-17 14:01:13.640625
1272,21.49,2022-08-17 14:01:13.656250
1273,19.82,2022-08-17 14:01:13.671875
1274,18.13,2022-08-17 14:01:13.687500
1275,16.65,2022-08-17 14:01:13.703125
1276,15.43,2022-08-17 14:01:13.718750
1277,14.42,2022-08-17 14:01:13.734375
1278,13.57,2022-08-17 14:01:13.750000
1279,12.9,2022-08-17 14:01:13.765625
1280,12.58,2022-08-17 14:01:13.781250
1281,12.76,2022-08-17 14:01:13.796875
1282,13.49,2022-08-17 14:01:13.812500
1283,14.61,2022-08-17 14:01:13.828125
1284,15.78,2022-08-17 14:01:13.843750
1285,16.58,2022-08-17 14:01:13.859375
1286,16.67,2022-08-17 14:01:13.875000
1287,15.94,2022-08-17 14:01:13.890625
1288,14.52,2022-08-17 14:01:13.906250
1289,12.74,2022-08-17 14:01:13.921875
1290,10.9,2022-08-17 14:01:13.937500
1291,9.19,2022-08-17 14:01:13.953125
1292,7.58,2022-08-17 14:01:13.968750
1293,5.94,2022-08-17 14:01:13.984375
1294,4.08,2022-08-17 14:01:14.000000
1295,1.91,2022-08-17 14:01:14.015625
1296,-0.56,2022-08-17 14:01:14.031250
1297,-3.24,2022-08-17 14:01:14.046875
1298,-6.04,2022-08-17 14:01:14.062500
1299,-8.91,2022-08-17 14:01:14.078125
1300,-11.83,2022-08-17 14:01:14.093750
1301,-14.75,2022-08-17 14:01:14.109375
1302,-17.58,2022-08-17 14:01:14.125000
1303,-20.18,2022-08-17 14:01:14.140625
1304,-22.53,2022-08-17 14:01:14.156250
1305,-24.72,2022-08-17 14:01:14.171875
1306,-27.04,2022-08-17 14:01:14.187500
1307,-29.82,2022-08-17 14:01:14.203125
1308,-33.25,2022-08-17 14:01:14.218750
1309,-37.19,2022-08-17 14:01:14.234375
1310,-41.09,2022-08-17 14:01:14.250000
1311,-44.07,2022-08-17 14:01:14.265625
1312,-45.23,2022-08-17 14:01:14.281250
1313,-43.91,2022-08-17 14:01:14.296875
1314,-39.97,2022-08-17 14:01:14.312500
1315,-33.79,2022-08-17 14:01:14.328125
1316,-26.1,2022-08-17 14:01:14.343750
1317,-17.72,2022-08-17 14:01:14.359375
1318,-9.31,2022-08-17 14:01:14.375000
1319,-1.34,2022-08-17 14:01:14.390625
1320,5.91,2022-08-17 14:01:14.406250
1321,12.2,2022-08-17 14:01:14.421875
1322,17.27,2022-08-17 14:01:14.437500
1323,20.88,2022-08-17 14:01:14.453125
1324,22.93,2022-08-17 14:01:14.468750
1325,23.55,2022-08-17 14:01:14.484375
1326,23.1,2022-08-17 14:01:14.500000
1327,22.07,2022-08-17 14:01:14.515625
1328,20.86,2022-08-17 14:01:14.531250
1329,19.72,2022-08-17 14:01:14.546875
1330,18.66,2022-08-17 14:01:14.562500
1331,17.62,2022-08-17 14:01:14.578125
1332,16.56,2022-08-17 14:01:14.593750
1333,15.57,2022-08-17 14:01:14.609375
1334,14.89,2022-08-17 14:01:14.625000
1335,14.74,2022-08-17 14:01:14.640625
1336,15.26,2022-08-17 14:01:14.656250
1337,16.37,2022-08-17 14:01:14.671875
1338,17.79,2022-08-17 14:01:14.687500
1339,19.11,2022-08-17 14:01:14.703125
1340,19.96,2022-08-17 14:01:14.718750
1341,20.14,2022-08-17 14:01:14.734375
1342,19.6,2022-08-17 14:01:14.750000
1343,18.48,2022-08-17 14:01:14.765625
1344,16.95,2022-08-17 14:01:14.781250
1345,15.2,2022-08-17 14:01:14.796875
1346,13.33,2022-08-17 14:01:14.812500
1347,11.4,2022-08-17 14:01:14.828125
1348,9.4,2022-08-17 14:01:14.843750
1349,7.29,2022-08-17 14:01:14.859375
1350,5.05,2022-08-17 14:01:14.875000
1351,2.62,2022-08-17 14:01:14.890625
1352,-0.02,2022-08-17 14:01:14.906250
1353,-2.87,2022-08-17 14:01:14.921875
1354,-5.84,2022-08-17 14:01:14.937500
1355,-8.76,2022-08-17 14:01:14.953125
1356,-11.44,2022-08-17 14:01:14.968750
1357,-13.7,2022-08-17 14:01:14.984375
1358,-15.54,2022-08-17 14:01:15.000000
1359,-17.16,2022-08-17 14:01:15.015625
1360,-18.91,2022-08-17 14:01:15.031250
1361,-21.18,2022-08-17 14:01:15.046875
1362,-24.23,2022-08-17 14:01:15.062500
1363,-28.05,2022-08-17 14:01:15.078125
1364,-32.32,2022-08-17 14:01:15.093750
1365,-36.43,2022-08-17 14:01:15.109375
1366,-39.65,2022-08-17 14:01:15.125000
1367,-41.28,2022-08-17 14:01:15.140625
1368,-40.81,2022-08-17 14:01:15.156250
1369,-38.04,2022-08-17 14:01:15.171875
1370,-33.08,2022-08-17 14:01:15.187500
1371,-26.28,2022-08-17 14:01:15.203125
1372,-18.2,2022-08-17 14:01:15.218750
1373,-9.48,2022-08-17 14:01:15.234375
1374,-0.82,2022-08-17 14:01:15.250000
1375,7.09,2022-08-17 14:01:15.265625
1376,13.65,2022-08-17 14:01:15.281250
1377,18.49,2022-08-17 14:01:15.296875
1378,21.54,2022-08-17 14:01:15.312500
1379,23.0,2022-08-17 14:01:15.328125
1380,23.33,2022-08-17 14:01:15.343750
1381,23.02,2022-08-17 14:01:15.359375
1382,22.41,2022-08-17 14:01:15.375000
1383,21.65,2022-08-17 14:01:15.390625
1384,20.72,2022-08-17 14:01:15.406250
1385,19.58,2022-08-17 14:01:15.421875
1386,18.31,2022-08-17 14:01:15.437500
1387,17.1,2022-08-17 14:01:15.453125
1388,16.2,2022-08-17 14:01:15.468750
1389,15.76,2022-08-17 14:01:15.484375
1390,15.81,2022-08-17 14:01:15.500000
1391,16.26,2022-08-17 14:01:15.515625
1392,16.94,2022-08-17 14:01:15.531250
1393,17.71,2022-08-17 14:01:15.546875
1394,18.45,2022-08-17 14:01:15.562500
1395,19.02,2022-08-17 14:01:15.578125
1396,19.26,2022-08-17 14:01:15.593750
1397,18.99,2022-08-17 14:01:15.609375
1398,18.13,2022-08-17 14:01:15.625000
1399,16.64,2022-08-17 14:01:15.640625
1400,14.67,2022-08-17 14:01:15.656250
1401,12.34,2022-08-17 14:01:15.671875
1402,9.74,2022-08-17 14:01:15.687500
1403,6.88,2022-08-17 14:01:15.703125
1404,3.69,2022-08-17 14:01:15.718750
1405,0.18,2022-08-17 14:01:15.734375
1406,-3.55,2022-08-17 14:01:15.750000
1407,-7.27,2022-08-17 14:01:15.765625
1408,-10.74,2022-08-17 14:01:15.781250
1409,-13.81,2022-08-17 14:01:15.796875
1410,-16.46,2022-08-17 14:01:15.812500
1411,-18.85,2022-08-17 14:01:15.828125
1412,-21.25,2022-08-17 14:01:15.843750
1413,-23.89,2022-08-17 14:01:15.859375
1414,-26.95,2022-08-17 14:01:15.875000
1415,-30.45,2022-08-17 14:01:15.890625
1416,-34.29,2022-08-17 14:01:15.906250
1417,-38.19,2022-08-17 14:01:15.921875
1418,-41.72,2022-08-17 14:01:15.937500
1419,-44.3,2022-08-17 14:01:15.953125
1420,-45.3,2022-08-17 14:01:15.968750
1421,-44.2,2022-08-17 14:01:15.984375
1422,-40.73,2022-08-17 14:01:16.000000
1423,-34.98,2022-08-17 14:01:16.015625
1424,-27.46,2022-08-17 14:01:16.031250
1425,-18.91,2022-08-17 14:01:16.046875
1426,-10.17,2022-08-17 14:01:16.062500
1427,-1.95,2022-08-17 14:01:16.078125
1428,5.29,2022-08-17 14:01:16.093750
1429,11.38,2022-08-17 14:01:16.109375
1430,16.26,2022-08-17 14:01:16.125000
1431,19.92,2022-08-17 14:01:16.140625
1432,22.35,2022-08-17 14:01:16.156250
1433,23.5,2022-08-17 14:01:16.171875
1434,23.43,2022-08-17 14:01:16.187500
1435,22.32,2022-08-17 14:01:16.203125
1436,20.55,2022-08-17 14:01:16.218750
1437,18.53,2022-08-17 14:01:16.234375
1438,16.61,2022-08-17 14:01:16.250000
1439,15.0,2022-08-17 14:01:16.265625
1440,13.8,2022-08-17 14:01:16.281250
1441,13.02,2022-08-17 14:01:16.296875
1442,12.69,2022-08-17 14:01:16.312500
1443,12.88,2022-08-17 14:01:16.328125
1444,13.61,2022-08-17 14:01:16.343750
1445,14.78,2022-08-17 14:01:16.359375
1446,16.16,2022-08-17 14:01:16.375000
1447,17.41,2022-08-17 14:01:16.390625
1448,18.19,2022-08-17 14:01:16.406250
1449,18.26,2022-08-17 14:01:16.421875
1450,17.59,2022-08-17 14:01:16.437500
1451,16.3,2022-08-17 14:01:16.453125
1452,14.62,2022-08-17 14:01:16.468750
1453,12.7,2022-08-17 14:01:16.484375
1454,10.61,2022-08-17 14:01:16.500000
1455,8.29,2022-08-17 14:01:16.515625
1456,5.67,2022-08-17 14:01:16.531250
1457,2.67,2022-08-17 14:01:16.546875
1458,-0.66,2022-08-17 14:01:16.562500
1459,-4.19,2022-08-17 14:01:16.578125
1460,-7.77,2022-08-17 14:01:16.593750
1461,-11.24,2022-08-17 14:01:16.609375
1462,-14.49,2022-08-17 14:01:16.625000
1463,-17.49,2022-08-17 14:01:16.640625
1464,-20.25,2022-08-17 14:01:16.656250
1465,-22.88,2022-08-17 14:01:16.671875
1466,-25.56,2022-08-17 14:01:16.687500
1467,-28.56,2022-08-17 14:01:16.703125
1468,-32.1,2022-08-17 14:01:16.718750
1469,-36.32,2022-08-17 14:01:16.734375
1470,-41.02,2022-08-17 14:01:16.750000
1471,-45.66,2022-08-17 14:01:16.765625
1472,-49.41,2022-08-17 14:01:16.781250
1473,-51.36,2022-08-17 14:01:16.796875
1474,-50.78,2022-08-17 14:01:16.812500
1475,-47.42,2022-08-17 14:01:16.828125
1476,-41.53,2022-08-17 14:01:16.843750
1477,-33.78,2022-08-17 14:01:16.859375
1478,-25.02,2022-08-17 14:01:16.875000
1479,-16.03,2022-08-17 14:01:16.890625
1480,-7.39,2022-08-17 14:01:16.906250
1481,0.58,2022-08-17 14:01:16.921875
1482,7.64,2022-08-17 14:01:16.937500
1483,13.6,2022-08-17 14:01:16.953125
1484,18.26,2022-08-17 14:01:16.968750
1485,21.48,2022-08-17 14:01:16.984375
1486,23.26,2022-08-17 14:01:17.000000
1487,23.8,2022-08-17 14:01:17.015625
1488,23.43,2022-08-17 14:01:17.031250
1489,22.51,2022-08-17 14:01:17.046875
1490,21.36,2022-08-17 14:01:17.062500
1491,20.17,2022-08-17 14:01:17.078125
1492,19.09,2022-08-17 14:01:17.093750
1493,18.19,2022-08-17 14:01:17.109375
1494,17.56,2022-08-17 14:01:17.125000
1495,17.26,2022-08-17 14:01:17.140625
1496,17.34,2022-08-17 14:01:17.156250
1497,17.8,2022-08-17 14:01:17.171875
1498,18.57,2022-08-17 14:01:17.187500
1499,19.52,2022-08-17 14:01:17.203125
1500,20.41,2022-08-17 14:01:17.218750
1501,20.99,2022-08-17 14:01:17.234375
1502,20.99,2022-08-17 14:01:17.250000
1503,20.32,2022-08-17 14:01:17.265625
1504,19.01,2022-08-17 14:01:17.281250
1505,17.27,2022-08-17 14:01:17.296875
1506,15.34,2022-08-17 14:01:17.312500
1507,13.41,2022-08-17 14:01:17.328125
1508,11.53,2022-08-17 14:01:17.343750
1509,9.57,2022-08-17 14:01:17.359375
1510,7.38,2022-08-17 14:01:17.375000
1511,4.8,2022-08-17 14:01:17.390625
1512,1.78,2022-08-17 14:01:17.406250
1513,-1.63,2022-08-17 14:01:17.421875
1514,-5.28,2022-08-17 14:01:17.437500
1515,-9.0,2022-08-17 14:01:17.453125
1516,-12.58,2022-08-17 14:01:17.468750
1517,-15.83,2022-08-17 14:01:17.484375
1518,-18.66,2022-08-17 14:01:17.500000
1519,-21.12,2022-08-17 14:01:17.515625
1520,-23.41,2022-08-17 14:01:17.531250
1521,-25.88,2022-08-17 14:01:17.546875
1522,-28.94,2022-08-17 14:01:17.562500
1523,-32.85,2022-08-17 14:01:17.578125
1524,-37.57,2022-08-17 14:01:17.593750
1525,-42.68,2022-08-17 14:01:17.609375
1526,-47.38,2022-08-17 14:01:17.625000
1527,-50.72,2022-08-17 14:01:17.640625
1528,-51.81,2022-08-17 14:01:17.656250
1529,-50.09,2022-08-17 14:01:17.671875
1530,-45.46,2022-08-17 14:01:17.687500
1531,-38.31,2022-08-17 14:01:17.703125
1532,-29.35,2022-08-17 14:01:17.718750
1533,-19.44,2022-08-17 14:01:17.734375
1534,-9.43,2022-08-17 14:01:17.750000
1535,-0.0,2022-08-17 14:01:17.765625
1536,8.3,2022-08-17 14:01:17.781250
1537,15.14,2022-08-17 14:01:17.796875
1538,20.35,2022-08-17 14:01:17.812500
1539,23.93,2022-08-17 14:01:17.828125
1540,26.0,2022-08-17 14:01:17.843750
1541,26.85,2022-08-17 14:01:17.859375
1542,26.78,2022-08-17 14:01:17.875000
1543,26.12,2022-08-17 14:01:17.890625
1544,25.19,2022-08-17 14:01:17.906250
1545,24.22,2022-08-17 14:01:17.921875
1546,23.4,2022-08-17 14:01:17.937500
1547,22.85,2022-08-17 14:01:17.953125
1548,22.61,2022-08-17 14:01:17.968750
1549,22.65,2022-08-17 14:01:17.984375
1550,22.93,2022-08-17 14:01:18.000000
1551,23.35,2022-08-17 14:01:18.015625
1552,23.88,2022-08-17 14:01:18.031250
1553,24.44,2022-08-17 14:01:18.046875
1554,24.96,2022-08-17 14:01:18.062500
1555,25.36,2022-08-17 14:01:18.078125
1556,25.47,2022-08-17 14:01:18.093750
1557,25.15,2022-08-17 14:01:18.109375
1558,24.25,2022-08-17 14:01:18.125000
1559,22.7,2022-08-17 14:01:18.140625
1560,20.53,2022-08-17 14:01:18.156250
1561,17.88,2022-08-17 14:01:18.171875
1562,14.92,2022-08-17 14:01:18.187500
1563,11.87,2022-08-17 14:01:18.203125
1564,8.88,2022-08-17 14:01:18.218750
1565,6.05,2022-08-17 14:01:18.234375
1566,3.38,2022-08-17 14:01:18.250000
1567,0.8,2022-08-17 14:01:18.265625
1568,-1.76,2022-08-17 14:01:18.281250
1569,-4.38,2022-08-17 14:01:18.296875
1570,-7.06,2022-08-17 14:01:18.312500
1571,-9.77,2022-08-17 14:01:18.328125
1572,-12.44,2022-08-17 14:01:18.343750
1573,-15.01,2022-08-17 14:01:18.359375
1574,-17.47,2022-08-17 14:01:18.375000
1575,-19.87,2022-08-17 14:01:18.390625
1576,-22.37,2022-08-17 14:01:18.406250
1577,-25.18,2022-08-17 14:01:18.421875
1578,-28.47,2022-08-17 14:01:18.437500
1579,-32.3,2022-08-17 14:01:18.453125
1580,-36.44,2022-08-17 14:01:18.468750
1581,-40.41,2022-08-17 14:01:18.484375
1582,-43.51,2022-08-17 14:01:18.500000
1583,-45.04,2022-08-17 14:01:18.515625
1584,-44.47,2022-08-17 14:01:18.531250
1585,-41.57,2022-08-17 14:01:18.546875
1586,-36.48,2022-08-17 14:01:18.562500
1587,-29.59,2022-08-17 14:01:18.578125
1588,-21.47,2022-08-17 14:01:18.593750
1589,-12.7,2022-08-17 14:01:18.609375
1590,-3.89,2022-08-17 14:01:18.625000
1591,4.45,2022-08-17 14:01:18.640625
1592,11.86,2022-08-17 14:01:18.656250
1593,17.99,2022-08-17 14:01:18.671875
1594,22.6,2022-08-17 14:01:18.687500
1595,25.61,2022-08-17 14:01:18.703125
1596,27.11,2022-08-17 14:01:18.718750
1597,27.34,2022-08-17 14:01:18.734375
1598,26.67,2022-08-17 14:01:18.750000
1599,25.53,2022-08-17 14:01:18.765625
1600,24.28,2022-08-17 14:01:18.781250
1601,23.19,2022-08-17 14:01:18.796875
1602,22.37,2022-08-17 14:01:18.812500
1603,21.81,2022-08-17 14:01:18.828125
1604,21.45,2022-08-17 14:01:18.843750
1605,21.32,2022-08-17 14:01:18.859375
1606,21.48,2022-08-17 14:01:18.875000
1607,22.03,2022-08-17 14:01:18.890625
1608,22.98,2022-08-17 14:01:18.906250
1609,24.22,2022-08-17 14:01:18.921875
1610,25.52,2022-08-17 14:01:18.937500
1611,26.59,2022-08-17 14:01:18.953125
1612,27.2,2022-08-17 14:01:18.968750
1613,27.22,2022-08-17 14:01:18.984375
1614,26.61,2022-08-17 14:01:19.000000
1615,25.41,2022-08-17 14:01:19.015625
1616,23.67,2022-08-17 14:01:19.031250
1617,21.47,2022-08-17 14:01:19.046875
1618,18.93,2022-08-17 14:01:19.062500
1619,16.18,2022-08-17 14:01:19.078125
1620,13.34,2022-08-17 14:01:19.093750
1621,10.46,2022-08-17 14:01:19.109375
1622,7.52,2022-08-17 14:01:19.125000
1623,4.45,2022-08-17 14:01:19.140625
1624,1.14,2022-08-17 14:01:19.156250
1625,-2.41,2022-08-17 14:01:19.171875
1626,-6.09,2022-08-17 14:01:19.187500
1627,-9.69,2022-08-17 14:01:19.203125
1628,-12.97,2022-08-17 14:01:19.218750
1629,-15.86,2022-08-17 14:01:19.234375
1630,-18.4,2022-08-17 14:01:19.250000
1631,-20.83,2022-08-17 14:01:19.265625
1632,-23.48,2022-08-17 14:01:19.281250
1633,-26.61,2022-08-17 14:01:19.296875
1634,-30.32,2022-08-17 14:01:19.312500
1635,-34.4,2022-08-17 14:01:19.328125
1636,-38.34,2022-08-17 14:01:19.343750
1637,-41.4,2022-08-17 14:01:19.359375
1638,-42.83,2022-08-17 14:01:19.375000
1639,-42.06,2022-08-17 14:01:19.390625
1640,-38.87,2022-08-17 14:01:19.406250
1641,-33.48,2022-08-17 14:01:19.421875
1642,-26.43,2022-08-17 14:01:19.437500
1643,-18.39,2022-08-17 14:01:19.453125
1644,-10.02,2022-08-17 14:01:19.468750
1645,-1.82,2022-08-17 14:01:19.484375
1646,5.76,2022-08-17 14:01:19.500000
1647,12.36,2022-08-17 14:01:19.515625
1648,17.64,2022-08-17 14:01:19.531250
1649,21.3,2022-08-17 14:01:19.546875
1650,23.24,2022-08-17 14:01:19.562500
1651,23.62,2022-08-17 14:01:19.578125
1652,22.86,2022-08-17 14:01:19.593750
1653,21.49,2022-08-17 14:01:19.609375
1654,20.0,2022-08-17 14:01:19.625000
1655,18.65,2022-08-17 14:01:19.640625
1656,17.54,2022-08-17 14:01:19.656250
1657,16.63,2022-08-17 14:01:19.671875
1658,15.88,2022-08-17 14:01:19.687500
1659,15.34,2022-08-17 14:01:19.703125
1660,15.16,2022-08-17 14:01:19.718750
1661,15.42,2022-08-17 14:01:19.734375
1662,16.15,2022-08-17 14:01:19.750000
1663,17.21,2022-08-17 14:01:19.765625
1664,18.35,2022-08-17 14:01:19.781250
1665,19.32,2022-08-17 14:01:19.796875
1666,19.85,2022-08-17 14:01:19.812500
1667,19.77,2022-08-17 14:01:19.828125
1668,18.98,2022-08-17 14:01:19.843750
1669,17.45,2022-08-17 14:01:19.859375
1670,15.25,2022-08-17 14:01:19.875000
1671,12.53,2022-08-17 14:01:19.890625
1672,9.5,2022-08-17 14:01:19.906250
1673,6.32,2022-08-17 14:01:19.921875
1674,3.07,2022-08-17 14:01:19.937500
1675,-0.28,2022-08-17 14:01:19.953125
1676,-3.78,2022-08-17 14:01:19.968750
1677,-7.45,2022-08-17 14:01:19.984375
1678,-11.19,2022-08-17 14:01:20.000000
1679,-14.76,2022-08-17 14:01:20.015625
1680,-17.88,2022-08-17 14:01:20.031250
1681,-20.48,2022-08-17 14:01:20.046875
1682,-22.65,2022-08-17 14:01:20.062500
1683,-24.73,2022-08-17 14:01:20.078125
1684,-27.1,2022-08-17 14:01:20.093750
1685,-30.07,2022-08-17 14:01:20.109375
1686,-33.76,2022-08-17 14:01:20.125000
1687,-37.97,2022-08-17 14:01:20.140625
1688,-42.33,2022-08-17 14:01:20.156250
1689,-46.26,2022-08-17 14:01:20.171875
1690,-49.1,2022-08-17 14:01:20.187500
1691,-50.24,2022-08-17 14:01:20.203125
1692,-49.17,2022-08-17 14:01:20.218750
1693,-45.69,2022-08-17 14:01:20.234375
1694,-39.92,2022-08-17 14:01:20.250000
1695,-32.33,2022-08-17 14:01:20.265625
1696,-23.57,2022-08-17 14:01:20.281250
1697,-14.41,2022-08-17 14:01:20.296875
1698,-5.53,2022-08-17 14:01:20.312500
1699,2.54,2022-08-17 14:01:20.328125
1700,9.38,2022-08-17 14:01:20.343750
1701,14.79,2022-08-17 14:01:20.359375
1702,18.67,2022-08-17 14:01:20.375000
1703,21.07,2022-08-17 14:01:20.390625
1704,22.17,2022-08-17 14:01:20.406250
1705,22.29,2022-08-17 14:01:20.421875
1706,21.74,2022-08-17 14:01:20.437500
1707,20.81,2022-08-17 14:01:20.453125
1708,19.79,2022-08-17 14:01:20.468750
1709,18.84,2022-08-17 14:01:20.484375
1710,18.1,2022-08-17 14:01:20.500000
1711,17.63,2022-08-17 14:01:20.515625
1712,17.47,2022-08-17 14:01:20.531250
1713,17.59,2022-08-17 14:01:20.546875
1714,17.93,2022-08-17 14:01:20.562500
1715,18.43,2022-08-17 14:01:20.578125
1716,19.03,2022-08-17 14:01:20.593750
1717,19.64,2022-08-17 14:01:20.609375
1718,20.14,2022-08-17 14:01:20.625000
1719,20.37,2022-08-17 14:01:20.640625
1720,20.15,2022-08-17 14:01:20.656250
1721,19.35,2022-08-17 14:01:20.671875
1722,17.99,2022-08-17 14:01:20.687500
1723,16.15,2022-08-17 14:01:20.703125
1724,14.03,2022-08-17 14:01:20.718750
1725,11.79,2022-08-17 14:01:20.734375
1726,9.51,2022-08-17 14:01:20.750000
1727,7.14,2022-08-17 14:01:20.765625
1728,4.58,2022-08-17 14:01:20.781250
1729,1.75,2022-08-17 14:01:20.796875
1730,-1.4,2022-08-17 14:01:20.812500
1731,-4.79,2022-08-17 14:01:20.828125
1732,-8.3,2022-08-17 14:01:20.843750
1733,-11.79,2022-08-17 14:01:20.859375
1734,-15.14,2022-08-17 14:01:20.875000
1735,-18.25,2022-08-17 14:01:20.890625
1736,-21.13,2022-08-17 14:01:20.906250
1737,-23.83,2022-08-17 14:01:20.921875
1738,-26.52,2022-08-17 14:01:20.937500
1739,-29.4,2022-08-17 14:01:20.953125
1740,-32.69,2022-08-17 14:01:20.968750
1741,-36.49,2022-08-17 14:01:20.984375
1742,-40.68,2022-08-17 14:01:21.000000
1743,-44.87,2022-08-17 14:01:21.015625
1744,-48.43,2022-08-17 14:01:21.031250
1745,-50.6,2022-08-17 14:01:21.046875
1746,-50.7,2022-08-17 14:01:21.062500
1747,-48.27,2022-08-17 14:01:21.078125
1748,-43.27,2022-08-17 14:01:21.093750
1749,-36.07,2022-08-17 14:01:21.109375
1750,-27.37,2022-08-17 14:01:21.125000
1751,-18.02,2022-08-17 14:01:21.140625
1752,-8.82,2022-08-17 14:01:21.156250
1753,-0.39,2022-08-17 14:01:21.171875
1754,6.9,2022-08-17 14:01:21.187500
1755,12.84,2022-08-17 14:01:21.203125
1756,17.38,2022-08-17 14:01:21.218750
1757,20.56,2022-08-17 14:01:21.234375
1758,22.51,2022-08-17 14:01:21.250000
1759,23.42,2022-08-17 14:01:21.265625
1760,23.54,2022-08-17 14:01:21.281250
1761,23.12,2022-08-17 14:01:21.296875
1762,22.41,2022-08-17 14:01:21.312500
1763,21.61,2022-08-17 14:01:21.328125
1764,20.85,2022-08-17 14:01:21.343750
1765,20.25,2022-08-17 14:01:21.359375
1766,19.87,2022-08-17 14:01:21.375000
1767,19.77,2022-08-17 14:01:21.390625
1768,20.0,2022-08-17 14:01:21.406250
1769,20.55,2022-08-17 14:01:21.421875
1770,21.37,2022-08-17 14:01:21.437500
1771,22.36,2022-08-17 14:01:21.453125
1772,23.32,2022-08-17 14:01:21.468750
1773,24.06,2022-08-17 14:01:21.484375
1774,24.34,2022-08-17 14:01:21.500000
1775,24.01,2022-08-17 14:01:21.515625
1776,23.01,2022-08-17 14:01:21.531250
1777,21.43,2022-08-17 14:01:21.546875
1778,19.41,2022-08-17 14:01:21.562500
1779,17.17,2022-08-17 14:01:21.578125
1780,14.84,2022-08-17 14:01:21.593750
1781,12.47,2022-08-17 14:01:21.609375
1782,10.0,2022-08-17 14:01:21.625000
1783,7.29,2022-08-17 14:01:21.640625
1784,4.23,2022-08-17 14:01:21.656250
1785,0.82,2022-08-17 14:01:21.671875
1786,-2.81,2022-08-17 14:01:21.687500
1787,-6.4,2022-08-17 14:01:21.703125
1788,-9.69,2022-08-17 14:01:21.718750
1789,-12.52,2022-08-17 14:01:21.734375
1790,-14.94,2022-08-17 14:01:21.750000
1791,-17.14,2022-08-17 14:01:21.765625
1792,-19.46,2022-08-17 14:01:21.781250
1793,-22.18,2022-08-17 14:01:21.796875
1794,-25.51,2022-08-17 14:01:21.812500
1795,-29.51,2022-08-17 14:01:21.828125
1796,-34.05,2022-08-17 14:01:21.843750
1797,-38.81,2022-08-17 14:01:21.859375
1798,-43.21,2022-08-17 14:01:21.875000
1799,-46.55,2022-08-17 14:01:21.890625
1800,-48.04,2022-08-17 14:01:21.906250
1801,-47.06,2022-08-17 14:01:21.921875
1802,-43.31,2022-08-17 14:01:21.937500
1803,-36.95,2022-08-17 14:01:21.953125
1804,-28.57,2022-08-17 14:01:21.968750
1805,-19.08,2022-08-17 14:01:21.984375
1806,-9.41,2022-08-17 14:01:22.000000
1807,-0.32,2022-08-17 14:01:22.015625
1808,7.71,2022-08-17 14:01:22.031250
1809,14.5,2022-08-17 14:01:22.046875
1810,20.06,2022-08-17 14:01:22.062500
1811,24.43,2022-08-17 14:01:22.078125
1812,27.61,2022-08-17 14:01:22.093750
1813,29.55,2022-08-17 14:01:22.109375
1814,30.24,2022-08-17 14:01:22.125000
1815,29.77,2022-08-17 14:01:22.140625
1816,28.43,2022-08-17 14:01:22.156250
1817,26.64,2022-08-17 14:01:22.171875
1818,24.84,2022-08-17 14:01:22.187500
1819,23.38,2022-08-17 14:01:22.203125
1820,22.39,2022-08-17 14:01:22.218750
1821,21.85,2022-08-17 14:01:22.234375
1822,21.64,2022-08-17 14:01:22.250000
1823,21.72,2022-08-17 14:01:22.265625
1824,22.06,2022-08-17 14:01:22.281250
1825,22.71,2022-08-17 14:01:22.296875
1826,23.54,2022-08-17 14:01:22.312500
1827,24.35,2022-08-17 14:01:22.328125
1828,24.82,2022-08-17 14:01:22.343750
1829,24.66,2022-08-17 14:01:22.359375
1830,23.76,2022-08-17 14:01:22.375000
1831,22.2,2022-08-17 14:01:22.390625
1832,20.2,2022-08-17 14:01:22.406250
1833,17.97,2022-08-17 14:01:22.421875
1834,15.66,2022-08-17 14:01:22.437500
1835,13.24,2022-08-17 14:01:22.453125
1836,10.59,2022-08-17 14:01:22.468750
1837,7.61,2022-08-17 14:01:22.484375
1838,4.28,2022-08-17 14:01:22.500000
1839,0.73,2022-08-17 14:01:22.515625
1840,-2.84,2022-08-17 14:01:22.531250
1841,-6.19,2022-08-17 14:01:22.546875
1842,-9.18,2022-08-17 14:01:22.562500
1843,-11.76,2022-08-17 14:01:22.578125
1844,-14.06,2022-08-17 14:01:22.593750
1845,-16.31,2022-08-17 14:01:22.609375
1846,-18.81,2022-08-17 14:01:22.625000
1847,-21.84,2022-08-17 14:01:22.640625
1848,-25.55,2022-08-17 14:01:22.656250
1849,-29.93,2022-08-17 14:01:22.671875
1850,-34.63,2022-08-17 14:01:22.687500
1851,-39.05,2022-08-17 14:01:22.703125
1852,-42.34,2022-08-17 14:01:22.718750
1853,-43.67,2022-08-17 14:01:22.734375
1854,-42.43,2022-08-17 14:01:22.750000
1855,-38.46,2022-08-17 14:01:22.765625
1856,-32.1,2022-08-17 14:01:22.781250
1857,-24.06,2022-08-17 14:01:22.796875
1858,-15.26,2022-08-17 14:01:22.812500
1859,-6.5,2022-08-17 14:01:22.828125
1860,1.6,2022-08-17 14:01:22.843750
1861,8.69,2022-08-17 14:01:22.859375
1862,14.55,2022-08-17 14:01:22.875000
1863,19.05,2022-08-17 14:01:22.890625
1864,22.11,2022-08-17 14:01:22.906250
1865,23.71,2022-08-17 14:01:22.921875
1866,23.97,2022-08-17 14:01:22.937500
1867,23.17,2022-08-17 14:01:22.953125
1868,21.66,2022-08-17 14:01:22.968750
1869,19.79,2022-08-17 14:01:22.984375
1870,17.89,2022-08-17 14:01:23.000000
1871,16.17,2022-08-17 14:01:23.015625
1872,14.8,2022-08-17 14:01:23.031250
1873,13.9,2022-08-17 14:01:23.046875
1874,13.6,2022-08-17 14:01:23.062500
1875,13.98,2022-08-17 14:01:23.078125
1876,14.97,2022-08-17 14:01:23.093750
1877,16.42,2022-08-17 14:01:23.109375
1878,18.02,2022-08-17 14:01:23.125000
1879,19.44,2022-08-17 14:01:23.140625
1880,20.42,2022-08-17 14:01:23.156250
1881,20.78,2022-08-17 14:01:23.171875
1882,20.45,2022-08-17 14:01:23.187500
1883,19.47,2022-08-17 14:01:23.203125
1884,17.9,2022-08-17 14:01:23.218750
1885,15.82,2022-08-17 14:01:23.234375
1886,13.31,2022-08-17 14:01:23.250000
1887,10.4,2022-08-17 14:01:23.265625
1888,7.17,2022-08-17 14:01:23.281250
1889,3.67,2022-08-17 14:01:23.296875
1890,0.04,2022-08-17 14:01:23.312500
1891,-3.59,2022-08-17 14:01:23.328125
1892,-7.07,2022-08-17 14:01:23.343750
1893,-10.34,2022-08-17 14:01:23.359375
1894,-13.44,2022-08-17 14:01:23.375000
1895,-16.49,2022-08-17 14:01:23.390625
1896,-19.63,2022-08-17 14:01:23.406250
1897,-22.97,2022-08-17 14:01:23.421875
1898,-26.58,2022-08-17 14:01:23.437500
1899,-30.48,2022-08-17 14:01:23.453125
1900,-34.68,2022-08-17 14:01:23.468750
1901,-39.07,2022-08-17 14:01:23.484375
1902,-43.35,2022-08-17 14:01:23.500000
1903,-46.96,2022-08-17 14:01:23.515625
1904,-49.15,2022-08-17 14:01:23.531250
1905,-49.19,2022-08-17 14:01:23.546875
1906,-46.56,2022-08-17 14:01:23.562500
1907,-41.25,2022-08-17 14:01:23.578125
1908,-33.7,2022-08-17 14:01:23.593750
1909,-24.69,2022-08-17 14:01:23.609375
1910,-15.15,2022-08-17 14:01:23.625000
1911,-5.86,2022-08-17 14:01:23.640625
1912,2.53,2022-08-17 14:01:23.656250
1913,9.68,2022-08-17 14:01:23.671875
1914,15.37,2022-08-17 14:01:23.687500
1915,19.57,2022-08-17 14:01:23.703125
1916,22.33,2022-08-17 14:01:23.718750
1917,23.79,2022-08-17 14:01:23.734375
1918,24.12,2022-08-17 14:01:23.750000
1919,23.52,2022-08-17 14:01:23.765625
1920,22.25,2022-08-17 14:01:23.781250
1921,20.55,2022-08-17 14:01:23.796875
1922,18.72,2022-08-17 14:01:23.812500
1923,17.06,2022-08-17 14:01:23.828125
1924,15.83,2022-08-17 14:01:23.843750
1925,15.19,2022-08-17 14:01:23.859375
1926,15.2,2022-08-17 14:01:23.875000
1927,15.78,2022-08-17 14:01:23.890625
1928,16.8,2022-08-17 14:01:23.906250
1929,18.1,2022-08-17 14:01:23.921875
1930,19.48,2022-08-17 14:01:23.937500
1931,20.75,2022-08-17 14:01:23.953125
1932,21.69,2022-08-17 14:01:23.968750
1933,22.06,2022-08-17 14:01:23.984375
1934,21.71,2022-08-17 14:01:24.000000
1935,20.57,2022-08-17 14:01:24.015625
1936,18.74,2022-08-17 14:01:24.031250
1937,16.44,2022-08-17 14:01:24.046875
1938,13.89,2022-08-17 14:01:24.062500
1939,11.28,2022-08-17 14:01:24.078125
1940,8.67,2022-08-17 14:01:24.093750
1941,5.99,2022-08-17 14:01:24.109375
1942,3.1,2022-08-17 14:01:24.125000
1943,-0.06,2022-08-17 14:01:24.140625
1944,-3.52,2022-08-17 14:01:24.156250
1945,-7.14,2022-08-17 14:01:24.171875
1946,-10.78,2022-08-17 14:01:24.187500
1947,-14.25,2022-08-17 14:01:24.203125
1948,-17.46,2022-08-17 14:01:24.218750
1949,-20.4,2022-08-17 14:01:24.234375
1950,-23.26,2022-08-17 14:01:24.250000
1951,-26.28,2022-08-17 14:01:24.265625
1952,-29.78,2022-08-17 14:01:24.281250
1953,-33.94,2022-08-17 14:01:24.296875
1954,-38.64,2022-08-17 14:01:24.312500
1955,-43.42,2022-08-17 14:01:24.328125
1956,-47.45,2022-08-17 14:01:24.343750
1957,-49.79,2022-08-17 14:01:24.359375
1958,-49.63,2022-08-17 14:01:24.375000
1959,-46.6,2022-08-17 14:01:24.390625
1960,-40.81,2022-08-17 14:01:24.406250
1961,-32.89,2022-08-17 14:01:24.421875
1962,-23.69,2022-08-17 14:01:24.437500
1963,-14.05,2022-08-17 14:01:24.453125
1964,-4.68,2022-08-17 14:01:24.468750
1965,3.94,2022-08-17 14:01:24.484375
1966,11.49,2022-08-17 14:01:24.500000
1967,17.77,2022-08-17 14:01:24.515625
1968,22.61,2022-08-17 14:01:24.531250
1969,25.96,2022-08-17 14:01:24.546875
1970,27.87,2022-08-17 14:01:24.562500
1971,28.5,2022-08-17 14:01:24.578125
1972,28.12,2022-08-17 14:01:24.593750
1973,27.0,2022-08-17 14:01:24.609375
1974,25.44,2022-08-17 14:01:24.625000
1975,23.69,2022-08-17 14:01:24.640625
1976,21.99,2022-08-17 14:01:24.656250
1977,20.58,2022-08-17 14:01:24.671875
1978,19.68,2022-08-17 14:01:24.687500
1979,19.44,2022-08-17 14:01:24.703125
1980,19.89,2022-08-17 14:01:24.718750
1981,20.91,2022-08-17 14:01:24.734375
1982,22.23,2022-08-17 14:01:24.750000
1983,23.53,2022-08-17 14:01:24.765625
1984,24.48,2022-08-17 14:01:24.781250
1985,24.92,2022-08-17 14:01:24.796875
1986,24.78,2022-08-17 14:01:24.812500
1987,24.11,2022-08-17 14:01:24.828125
1988,22.94,2022-08-17 14:01:24.843750
1989,21.27,2022-08-17 14:01:24.859375
1990,19.06,2022-08-17 14:01:24.875000
1991,16.33,2022-08-17 14:01:24.890625
1992,13.23,2022-08-17 14:01:24.906250
1993,9.97,2022-08-17 14:01:24.921875
1994,6.79,2022-08-17 14:01:24.937500
1995,3.84,2022-08-17 14:01:24.953125
1996,1.09,2022-08-17 14:01:24.968750
1997,-1.59,2022-08-17 14:01:24.984375
1998,-4.31,2022-08-17 14:01:25.000000
1999,-7.1,2022-08-17 14:01:25.015625
2000,-9.9,2022-08-17 14:01:25.031250
2001,-12.6,2022-08-17 14:01:25.046875
2002,-15.15,2022-08-17 14:01:25.062500
2003,-17.66,2022-08-17 14:01:25.078125
2004,-20.29,2022-08-17 14:01:25.093750
2005,-23.22,2022-08-17 14:01:25.109375
2006,-26.56,2022-08-17 14:01:25.125000
2007,-30.3,2022-08-17 14:01:25.140625
2008,-34.29,2022-08-17 14:01:25.156250
2009,-38.19,2022-08-17 14:01:25.171875
2010,-41.49,2022-08-17 14:01:25.187500
2011,-43.53,2022-08-17 14:01:25.203125
2012,-43.62,2022-08-17 14:01:25.218750
2013,-41.23,2022-08-17 14:01:25.234375
2014,-36.23,2022-08-17 14:01:25.250000
2015,-28.92,2022-08-17 14:01:25.265625
2016,-20.02,2022-08-17 14:01:25.281250
2017,-10.45,2022-08-17 14:01:25.296875
2018,-1.1,2022-08-17 14:01:25.312500
2019,7.33,2022-08-17 14:01:25.328125
2020,14.42,2022-08-17 14:01:25.343750
2021,19.98,2022-08-17 14:01:25.359375
2022,23.99,2022-08-17 14:01:25.375000
2023,26.57,2022-08-17 14:01:25.390625
2024,27.91,2022-08-17 14:01:25.406250
2025,28.26,2022-08-17 14:01:25.421875
2026,27.87,2022-08-17 14:01:25.437500
2027,27.0,2022-08-17 14:01:25.453125
2028,25.81,2022-08-17 14:01:25.468750
2029,24.45,2022-08-17 14:01:25.484375
2030,23.02,2022-08-17 14:01:25.500000
2031,21.66,2022-08-17 14:01:25.515625
2032,20.56,2022-08-17 14:01:25.531250
2033,19.86,2022-08-17 14:01:25.546875
2034,19.71,2022-08-17 14:01:25.562500
2035,20.13,2022-08-17 14:01:25.578125
2036,20.99,2022-08-17 14:01:25.593750
2037,22.05,2022-08-17 14:01:25.609375
2038,22.99,2022-08-17 14:01:25.625000
2039,23.48,2022-08-17 14:01:25.640625
2040,23.3,2022-08-17 14:01:25.656250
2041,22.34,2022-08-17 14:01:25.671875
2042,20.7,2022-08-17 14:01:25.687500
2043,18.55,2022-08-17 14:01:25.703125
2044,16.11,2022-08-17 14:01:25.718750
2045,13.57,2022-08-17 14:01:25.734375
2046,10.98,2022-08-17 14:01:25.750000
2047,8.35,2022-08-17 14:01:25.765625
2048,5.6,2022-08-17 14:01:25.781250
2049,2.7,2022-08-17 14:01:25.796875
2050,-0.32,2022-08-17 14:01:25.812500
2051,-3.35,2022-08-17 14:01:25.828125
2052,-6.28,2022-08-17 14:01:25.843750
2053,-9.02,2022-08-17 14:01:25.859375
2054,-11.55,2022-08-17 14:01:25.875000
2055,-13.92,2022-08-17 14:01:25.890625
2056,-16.26,2022-08-17 14:01:25.906250
2057,-18.7,2022-08-17 14:01:25.921875
2058,-21.41,2022-08-17 14:01:25.937500
2059,-24.48,2022-08-17 14:01:25.953125
2060,-27.98,2022-08-17 14:01:25.968750
2061,-31.8,2022-08-17 14:01:25.984375
2062,-35.59,2022-08-17 14:01:26.000000
2063,-38.78,2022-08-17 14:01:26.015625
2064,-40.63,2022-08-17 14:01:26.031250
2065,-40.47,2022-08-17 14:01:26.046875
2066,-37.91,2022-08-17 14:01:26.062500
2067,-33.06,2022-08-17 14:01:26.078125
2068,-26.42,2022-08-17 14:01:26.093750
2069,-18.77,2022-08-17 14:01:26.109375
2070,-10.92,2022-08-17 14:01:26.125000
2071,-3.45,2022-08-17 14:01:26.140625
2072,3.25,2022-08-17 14:01:26.156250
2073,9.04,2022-08-17 14:01:26.171875
2074,13.78,2022-08-17 14:01:26.187500
2075,17.39,2022-08-17 14:01:26.203125
2076,19.74,2022-08-17 14:01:26.218750
2077,20.87,2022-08-17 14:01:26.234375
2078,20.94,2022-08-17 14:01:26.250000
2079,20.28,2022-08-17 14:01:26.265625
2080,19.3,2022-08-17 14:01:26.281250
2081,18.38,2022-08-17 14:01:26.296875
2082,17.74,2022-08-17 14:01:26.312500
2083,17.46,2022-08-17 14:01:26.328125
2084,17.5,2022-08-17 14:01:26.343750
2085,17.75,2022-08-17 14:01:26.359375
2086,18.13,2022-08-17 14:01:26.375000
2087,18.53,2022-08-17 14:01:26.390625
2088,18.86,2022-08-17 14:01:26.406250
2089,19.07,2022-08-17 14:01:26.421875
2090,19.12,2022-08-17 14:01:26.437500
2091,18.96,2022-08-17 14:01:26.453125
2092,18.58,2022-08-17 14:01:26.468750
2093,17.96,2022-08-17 14:01:26.484375
2094,17.08,2022-08-17 14:01:26.500000
2095,15.91,2022-08-17 14:01:26.515625
2096,14.42,2022-08-17 14:01:26.531250
2097,12.55,2022-08-17 14:01:26.546875
2098,10.25,2022-08-17 14:01:26.562500
2099,7.46,2022-08-17 14:01:26.578125
2100,4.21,2022-08-17 14:01:26.593750
2101,0.54,2022-08-17 14:01:26.609375
2102,-3.36,2022-08-17 14:01:26.625000
2103,-7.28,2022-08-17 14:01:26.640625
2104,-11.0,2022-08-17 14:01:26.656250
2105,-14.39,2022-08-17 14:01:26.671875
2106,-17.41,2022-08-17 14:01:26.687500
2107,-20.14,2022-08-17 14:01:26.703125
2108,-22.79,2022-08-17 14:01:26.718750
2109,-25.54,2022-08-17 14:01:26.734375
2110,-28.65,2022-08-17 14:01:26.750000
2111,-32.26,2022-08-17 14:01:26.765625
2112,-36.43,2022-08-17 14:01:26.781250
2113,-40.93,2022-08-17 14:01:26.796875
2114,-45.29,2022-08-17 14:01:26.812500
2115,-48.74,2022-08-17 14:01:26.828125
2116,-50.45,2022-08-17 14:01:26.843750
2117,-49.74,2022-08-17 14:01:26.859375
2118,-46.3,2022-08-17 14:01:26.875000
2119,-40.34,2022-08-17 14:01:26.890625
2120,-32.46,2022-08-17 14:01:26.906250
2121,-23.52,2022-08-17 14:01:26.921875
2122,-14.31,2022-08-17 14:01:26.937500
2123,-5.5,2022-08-17 14:01:26.953125
2124,2.48,2022-08-17 14:01:26.968750
2125,9.35,2022-08-17 14:01:26.984375
2126,14.93,2022-08-17 14:01:27.000000
2127,19.11,2022-08-17 14:01:27.015625
2128,21.84,2022-08-17 14:01:27.031250
2129,23.2,2022-08-17 14:01:27.046875
2130,23.39,2022-08-17 14:01:27.062500
2131,22.69,2022-08-17 14:01:27.078125
2132,21.42,2022-08-17 14:01:27.093750
2133,19.91,2022-08-17 14:01:27.109375
2134,18.46,2022-08-17 14:01:27.125000
2135,17.29,2022-08-17 14:01:27.140625
2136,16.58,2022-08-17 14:01:27.156250
2137,16.35,2022-08-17 14:01:27.171875
2138,16.56,2022-08-17 14:01:27.187500
2139,17.1,2022-08-17 14:01:27.203125
2140,17.86,2022-08-17 14:01:27.218750
2141,18.69,2022-08-17 14:01:27.234375
2142,19.49,2022-08-17 14:01:27.250000
2143,20.1,2022-08-17 14:01:27.265625
2144,20.34,2022-08-17 14:01:27.281250
2145,20.04,2022-08-17 14:01:27.296875
2146,19.13,2022-08-17 14:01:27.312500
2147,17.65,2022-08-17 14:01:27.328125
2148,15.72,2022-08-17 14:01:27.343750
2149,13.55,2022-08-17 14:01:27.359375
2150,11.26,2022-08-17 14:01:27.375000
2151,8.9,2022-08-17 14:01:27.390625
2152,6.4,2022-08-17 14:01:27.406250
2153,3.67,2022-08-17 14:01:27.421875
2154,0.64,2022-08-17 14:01:27.437500
2155,-2.63,2022-08-17 14:01:27.453125
2156,-5.96,2022-08-17 14:01:27.468750
2157,-9.13,2022-08-17 14:01:27.484375
2158,-11.98,2022-08-17 14:01:27.500000
2159,-14.44,2022-08-17 14:01:27.515625
2160,-16.66,2022-08-17 14:01:27.531250
2161,-18.93,2022-08-17 14:01:27.546875
2162,-21.58,2022-08-17 14:01:27.562500
2163,-24.86,2022-08-17 14:01:27.578125
2164,-28.86,2022-08-17 14:01:27.593750
2165,-33.42,2022-08-17 14:01:27.609375
2166,-38.16,2022-08-17 14:01:27.625000
2167,-42.51,2022-08-17 14:01:27.640625
2168,-45.86,2022-08-17 14:01:27.656250
2169,-47.57,2022-08-17 14:01:27.671875
2170,-47.15,2022-08-17 14:01:27.687500
2171,-44.35,2022-08-17 14:01:27.703125
2172,-39.23,2022-08-17 14:01:27.718750
2173,-32.21,2022-08-17 14:01:27.734375
2174,-23.93,2022-08-17 14:01:27.750000
2175,-15.12,2022-08-17 14:01:27.765625
2176,-6.45,2022-08-17 14:01:27.781250
2177,1.61,2022-08-17 14:01:27.796875
2178,8.74,2022-08-17 14:01:27.812500
2179,14.77,2022-08-17 14:01:27.828125
2180,19.6,2022-08-17 14:01:27.843750
2181,23.15,2022-08-17 14:01:27.859375
2182,25.42,2022-08-17 14:01:27.875000
2183,26.48,2022-08-17 14:01:27.890625
2184,26.5,2022-08-17 14:01:27.906250
2185,25.75,2022-08-17 14:01:27.921875
2186,24.56,2022-08-17 14:01:27.937500
2187,23.22,2022-08-17 14:01:27.953125
2188,22.01,2022-08-17 14:01:27.968750
2189,21.12,2022-08-17 14:01:27.984375
2190,20.66,2022-08-17 14:01:28.000000
2191,20.64,2022-08-17 14:01:28.015625
2192,21.0,2022-08-17 14:01:28.031250
2193,21.57,2022-08-17 14:01:28.046875
2194,22.19,2022-08-17 14:01:28.062500
2195,22.67,2022-08-17 14:01:28.078125
2196,22.89,2022-08-17 14:01:28.093750
2197,22.81,2022-08-17 14:01:28.109375
2198,22.44,2022-08-17 14:01:28.125000
2199,21.83,2022-08-17 14:01:28.140625
2200,21.06,2022-08-17 14:01:28.156250
2201,20.13,2022-08-17 14:01:28.171875
2202,19.04,2022-08-17 14:01:28.187500
2203,17.73,2022-08-17 14:01:28.203125
2204,16.16,2022-08-17 14:01:28.218750
2205,14.31,2022-08-17 14:01:28.234375
2206,12.16,2022-08-17 14:01:28.250000
2207,9.7,2022-08-17 14:01:28.265625
2208,6.87,2022-08-17 14:01:28.281250
2209,3.66,2022-08-17 14:01:28.296875
2210,0.15,2022-08-17 14:01:28.312500
2211,-3.53,2022-08-17 14:01:28.328125
2212,-7.14,2022-08-17 14:01:28.343750
2213,-10.46,2022-08-17 14:01:28.359375
2214,-13.4,2022-08-17 14:01:28.375000
2215,-16.02,2022-08-17 14:01:28.390625
2216,-18.52,2022-08-17 14:01:28.406250
2217,-21.19,2022-08-17 14:01:28.421875
2218,-24.23,2022-08-17 14:01:28.437500
2219,-27.72,2022-08-17 14:01:28.453125
2220,-31.55,2022-08-17 14:01:28.468750
2221,-35.36,2022-08-17 14:01:28.484375
2222,-38.64,2022-08-17 14:01:28.500000
2223,-40.79,2022-08-17 14:01:28.515625
2224,-41.27,2022-08-17 14:01:28.531250
2225,-39.69,2022-08-17 14:01:28.546875
2226,-35.97,2022-08-17 14:01:28.562500
2227,-30.32,2022-08-17 14:01:28.578125
2228,-23.21,2022-08-17 14:01:28.593750
2229,-15.25,2022-08-17 14:01:28.609375
2230,-7.09,2022-08-17 14:01:28.625000
2231,0.69,2022-08-17 14:01:28.640625
2232,7.62,2022-08-17 14:01:28.656250
2233,13.36,2022-08-17 14:01:28.671875
2234,17.72,2022-08-17 14:01:28.687500
2235,20.66,2022-08-17 14:01:28.703125
2236,22.29,2022-08-17 14:01:28.718750
2237,22.83,2022-08-17 14:01:28.734375
2238,22.55,2022-08-17 14:01:28.750000
2239,21.72,2022-08-17 14:01:28.765625
2240,20.55,2022-08-17 14:01:28.781250
2241,19.2,2022-08-17 14:01:28.796875
2242,17.84,2022-08-17 14:01:28.812500
2243,16.63,2022-08-17 14:01:28.828125
2244,15.77,2022-08-17 14:01:28.843750
2245,15.43,2022-08-17 14:01:28.859375
2246,15.73,2022-08-17 14:01:28.875000
2247,16.66,2022-08-17 14:01:28.890625
2248,18.08,2022-08-17 14:01:28.906250
2249,19.74,2022-08-17 14:01:28.921875
2250,21.31,2022-08-17 14:01:28.937500
2251,22.5,2022-08-17 14:01:28.953125
2252,23.08,2022-08-17 14:01:28.968750
2253,22.98,2022-08-17 14:01:28.984375
2254,22.24,2022-08-17 14:01:29.000000
2255,21.01,2022-08-17 14:01:29.015625
2256,19.43,2022-08-17 14:01:29.031250
2257,17.6,2022-08-17 14:01:29.046875
2258,15.52,2022-08-17 14:01:29.062500
2259,13.18,2022-08-17 14:01:29.078125
2260,10.57,2022-08-17 14:01:29.093750
2261,7.67,2022-08-17 14:01:29.109375
2262,4.53,2022-08-17 14:01:29.125000
2263,1.19,2022-08-17 14:01:29.140625
2264,-2.29,2022-08-17 14:01:29.156250
2265,-5.84,2022-08-17 14:01:29.171875
2266,-9.33,2022-08-17 14:01:29.187500
2267,-12.62,2022-08-17 14:01:29.203125
2268,-15.61,2022-08-17 14:01:29.218750
2269,-18.28,2022-08-17 14:01:29.234375
2270,-20.84,2022-08-17 14:01:29.250000
2271,-23.56,2022-08-17 14:01:29.265625
2272,-26.72,2022-08-17 14:01:29.281250
2273,-30.36,2022-08-17 14:01:29.296875
2274,-34.2,2022-08-17 14:01:29.312500
2275,-37.67,2022-08-17 14:01:29.328125
2276,-40.01,2022-08-17 14:01:29.343750
2277,-40.56,2022-08-17 14:01:29.359375
2278,-38.94,2022-08-17 14:01:29.375000
2279,-35.14,2022-08-17 14:01:29.390625
2280,-29.55,2022-08-17 14:01:29.406250
2281,-22.74,2022-08-17 14:01:29.421875
2282,-15.36,2022-08-17 14:01:29.437500
2283,-7.97,2022-08-17 14:01:29.453125
2284,-1.05,2022-08-17 14:01:29.468750
2285,5.11,2022-08-17 14:01:29.484375
2286,10.28,2022-08-17 14:01:29.500000
2287,14.29,2022-08-17 14:01:29.515625
2288,17.04,2022-08-17 14:01:29.531250
2289,18.51,2022-08-17 14:01:29.546875
2290,18.77,2022-08-17 14:01:29.562500
2291,18.08,2022-08-17 14:01:29.578125
2292,16.8,2022-08-17 14:01:29.593750
2293,15.37,2022-08-17 14:01:29.609375
2294,14.18,2022-08-17 14:01:29.625000
2295,13.48,2022-08-17 14:01:29.640625
2296,13.37,2022-08-17 14:01:29.656250
2297,13.74,2022-08-17 14:01:29.671875
2298,14.43,2022-08-17 14:01:29.687500
2299,15.32,2022-08-17 14:01:29.703125
2300,16.32,2022-08-17 14:01:29.718750
2301,17.38,2022-08-17 14:01:29.734375
2302,18.44,2022-08-17 14:01:29.750000
2303,19.36,2022-08-17 14:01:29.765625
2304,19.92,2022-08-17 14:01:29.781250
2305,19.91,2022-08-17 14:01:29.796875
2306,19.17,2022-08-17 14:01:29.812500
2307,17.7,2022-08-17 14:01:29.828125
2308,15.65,2022-08-17 14:01:29.843750
2309,13.21,2022-08-17 14:01:29.859375
2310,10.54,2022-08-17 14:01:29.875000
2311,7.75,2022-08-17 14:01:29.890625
2312,4.86,2022-08-17 14:01:29.906250
2313,1.83,2022-08-17 14:01:29.921875
2314,-1.35,2022-08-17 14:01:29.937500
2315,-4.61,2022-08-17 14:01:29.953125
2316,-7.79,2022-08-17 14:01:29.968750
2317,-10.73,2022-08-17 14:01:29.984375
2318,-13.39,2022-08-17 14:01:30.000000
2319,-15.82,2022-08-17 14:01:30.015625
2320,-18.25,2022-08-17 14:01:30.031250
2321,-20.93,2022-08-17 14:01:30.046875
2322,-24.05,2022-08-17 14:01:30.062500
2323,-27.65,2022-08-17 14:01:30.078125
2324,-31.66,2022-08-17 14:01:30.093750
2325,-35.94,2022-08-17 14:01:30.109375
2326,-40.25,2022-08-17 14:01:30.125000
2327,-44.23,2022-08-17 14:01:30.140625
2328,-47.35,2022-08-17 14:01:30.156250
2329,-48.99,2022-08-17 14:01:30.171875
2330,-48.53,2022-08-17 14:01:30.187500
2331,-45.61,2022-08-17 14:01:30.203125
2332,-40.33,2022-08-17 14:01:30.218750
2333,-33.23,2022-08-17 14:01:30.234375
2334,-25.16,2022-08-17 14:01:30.250000
2335,-16.91,2022-08-17 14:01:30.265625
2336,-9.09,2022-08-17 14:01:30.281250
2337,-1.96,2022-08-17 14:01:30.296875
2338,4.4,2022-08-17 14:01:30.312500
2339,9.94,2022-08-17 14:01:30.328125
2340,14.49,2022-08-17 14:01:30.343750
2341,17.85,2022-08-17 14:01:30.359375
2342,19.87,2022-08-17 14:01:30.375000
2343,20.6,2022-08-17 14:01:30.390625
2344,20.31,2022-08-17 14:01:30.406250
2345,19.43,2022-08-17 14:01:30.421875
2346,18.35,2022-08-17 14:01:30.437500
2347,17.38,2022-08-17 14:01:30.453125
2348,16.67,2022-08-17 14:01:30.468750
2349,16.28,2022-08-17 14:01:30.484375
2350,16.19,2022-08-17 14:01:30.500000
2351,16.4,2022-08-17 14:01:30.515625
2352,16.88,2022-08-17 14:01:30.531250
2353,17.58,2022-08-17 14:01:30.546875
2354,18.4,2022-08-17 14:01:30.562500
2355,19.19,2022-08-17 14:01:30.578125
2356,19.76,2022-08-17 14:01:30.593750
2357,19.94,2022-08-17 14:01:30.609375
2358,19.6,2022-08-17 14:01:30.625000
2359,18.72,2022-08-17 14:01:30.640625
2360,17.31,2022-08-17 14:01:30.656250
2361,15.52,2022-08-17 14:01:30.671875
2362,13.5,2022-08-17 14:01:30.687500
2363,11.41,2022-08-17 14:01:30.703125
2364,9.35,2022-08-17 14:01:30.718750
2365,7.3,2022-08-17 14:01:30.734375
2366,5.18,2022-08-17 14:01:30.750000
2367,2.87,2022-08-17 14:01:30.765625
2368,0.31,2022-08-17 14:01:30.781250
2369,-2.5,2022-08-17 14:01:30.796875
2370,-5.43,2022-08-17 14:01:30.812500
2371,-8.32,2022-08-17 14:01:30.828125
2372,-11.03,2022-08-17 14:01:30.843750
2373,-13.52,2022-08-17 14:01:30.859375
2374,-15.89,2022-08-17 14:01:30.875000
2375,-18.33,2022-08-17 14:01:30.890625
2376,-21.05,2022-08-17 14:01:30.906250
2377,-24.24,2022-08-17 14:01:30.921875
2378,-27.94,2022-08-17 14:01:30.937500
2379,-32.07,2022-08-17 14:01:30.953125
2380,-36.36,2022-08-17 14:01:30.968750
2381,-40.35,2022-08-17 14:01:30.984375
2382,-43.43,2022-08-17 14:01:31.000000
2383,-45.0,2022-08-17 14:01:31.015625
2384,-44.53,2022-08-17 14:01:31.031250
2385,-41.76,2022-08-17 14:01:31.046875
2386,-36.76,2022-08-17 14:01:31.062500
2387,-29.95,2022-08-17 14:01:31.078125
2388,-21.99,2022-08-17 14:01:31.093750
2389,-13.63,2022-08-17 14:01:31.109375
2390,-5.53,2022-08-17 14:01:31.125000
2391,1.82,2022-08-17 14:01:31.140625
2392,8.15,2022-08-17 14:01:31.156250
2393,13.32,2022-08-17 14:01:31.171875
2394,17.27,2022-08-17 14:01:31.187500
2395,20.0,2022-08-17 14:01:31.203125
2396,21.57,2022-08-17 14:01:31.218750
2397,22.13,2022-08-17 14:01:31.234375
2398,21.94,2022-08-17 14:01:31.250000
2399,21.32,2022-08-17 14:01:31.265625
2400,20.62,2022-08-17 14:01:31.281250
2401,20.07,2022-08-17 14:01:31.296875
2402,19.81,2022-08-17 14:01:31.312500
2403,19.82,2022-08-17 14:01:31.328125
2404,20.07,2022-08-17 14:01:31.343750
2405,20.47,2022-08-17 14:01:31.359375
2406,21.01,2022-08-17 14:01:31.375000
2407,21.67,2022-08-17 14:01:31.390625
2408,22.44,2022-08-17 14:01:31.406250
2409,23.23,2022-08-17 14:01:31.421875
2410,23.87,2022-08-17 14:01:31.437500
2411,24.19,2022-08-17 14:01:31.453125
2412,24.02,2022-08-17 14:01:31.468750
2413,23.32,2022-08-17 14:01:31.484375
2414,22.13,2022-08-17 14:01:31.500000
2415,20.61,2022-08-17 14:01:31.515625
2416,18.92,2022-08-17 14:01:31.531250
2417,17.16,2022-08-17 14:01:31.546875
2418,15.36,2022-08-17 14:01:31.562500
2419,13.44,2022-08-17 14:01:31.578125
2420,11.28,2022-08-17 14:01:31.593750
2421,8.79,2022-08-17 14:01:31.609375
2422,5.95,2022-08-17 14:01:31.625000
2423,2.85,2022-08-17 14:01:31.640625
2424,-0.36,2022-08-17 14:01:31.656250
2425,-3.49,2022-08-17 14:01:31.671875
2426,-6.43,2022-08-17 14:01:31.687500
2427,-9.13,2022-08-17 14:01:31.703125
2428,-11.63,2022-08-17 14:01:31.718750
2429,-14.05,2022-08-17 14:01:31.734375
2430,-16.57,2022-08-17 14:01:31.750000
2431,-19.4,2022-08-17 14:01:31.765625
2432,-22.73,2022-08-17 14:01:31.781250
2433,-26.67,2022-08-17 14:01:31.796875
2434,-31.14,2022-08-17 14:01:31.812500
2435,-35.77,2022-08-17 14:01:31.828125
2436,-39.88,2022-08-17 14:01:31.843750
2437,-42.63,2022-08-17 14:01:31.859375
2438,-43.19,2022-08-17 14:01:31.875000
2439,-41.12,2022-08-17 14:01:31.890625
2440,-36.47,2022-08-17 14:01:31.906250
2441,-29.82,2022-08-17 14:01:31.921875
2442,-22.01,2022-08-17 14:01:31.937500
2443,-13.83,2022-08-17 14:01:31.953125
2444,-5.85,2022-08-17 14:01:31.968750
2445,1.69,2022-08-17 14:01:31.984375
2446,8.66,2022-08-17 14:01:32.000000
2447,14.91,2022-08-17 14:01:32.015625
2448,20.2,2022-08-17 14:01:32.031250
2449,24.17,2022-08-17 14:01:32.046875
2450,26.63,2022-08-17 14:01:32.062500
2451,27.59,2022-08-17 14:01:32.078125
2452,27.35,2022-08-17 14:01:32.093750
2453,26.36,2022-08-17 14:01:32.109375
2454,25.06,2022-08-17 14:01:32.125000
2455,23.78,2022-08-17 14:01:32.140625
2456,22.67,2022-08-17 14:01:32.156250
2457,21.82,2022-08-17 14:01:32.171875
2458,21.28,2022-08-17 14:01:32.187500
2459,21.13,2022-08-17 14:01:32.203125
2460,21.38,2022-08-17 14:01:32.218750
2461,22.01,2022-08-17 14:01:32.234375
2462,22.89,2022-08-17 14:01:32.250000
2463,23.76,2022-08-17 14:01:32.265625
2464,24.36,2022-08-17 14:01:32.281250
2465,24.47,2022-08-17 14:01:32.296875
2466,24.0,2022-08-17 14:01:32.312500
2467,23.01,2022-08-17 14:01:32.328125
2468,21.68,2022-08-17 14:01:32.343750
2469,20.2,2022-08-17 14:01:32.359375
2470,18.75,2022-08-17 14:01:32.375000
2471,17.33,2022-08-17 14:01:32.390625
2472,15.87,2022-08-17 14:01:32.406250
2473,14.22,2022-08-17 14:01:32.421875
2474,12.22,2022-08-17 14:01:32.437500
2475,9.83,2022-08-17 14:01:32.453125
2476,7.07,2022-08-17 14:01:32.468750
2477,4.07,2022-08-17 14:01:32.484375
2478,0.96,2022-08-17 14:01:32.500000
2479,-2.14,2022-08-17 14:01:32.515625
2480,-5.14,2022-08-17 14:01:32.531250
2481,-7.97,2022-08-17 14:01:32.546875
2482,-10.61,2022-08-17 14:01:32.562500
2483,-13.05,2022-08-17 14:01:32.578125
2484,-15.38,2022-08-17 14:01:32.593750
2485,-17.79,2022-08-17 14:01:32.609375
2486,-20.5,2022-08-17 14:01:32.625000
2487,-23.73,2022-08-17 14:01:32.640625
2488,-27.51,2022-08-17 14:01:32.656250
2489,-31.57,2022-08-17 14:01:32.671875
2490,-35.36,2022-08-17 14:01:32.687500
2491,-38.13,2022-08-17 14:01:32.703125
2492,-39.14,2022-08-17 14:01:32.718750
2493,-37.94,2022-08-17 14:01:32.734375
2494,-34.43,2022-08-17 14:01:32.750000
2495,-28.93,2022-08-17 14:01:32.765625
2496,-22.02,2022-08-17 14:01:32.781250
2497,-14.41,2022-08-17 14:01:32.796875
2498,-6.72,2022-08-17 14:01:32.812500
2499,0.53,2022-08-17 14:01:32.828125
2500,6.95,2022-08-17 14:01:32.843750
2501,12.26,2022-08-17 14:01:32.859375
2502,16.26,2022-08-17 14:01:32.875000
2503,18.9,2022-08-17 14:01:32.890625
2504,20.24,2022-08-17 14:01:32.906250
2505,20.48,2022-08-17 14:01:32.921875
2506,19.94,2022-08-17 14:01:32.937500
2507,18.97,2022-08-17 14:01:32.953125
2508,17.89,2022-08-17 14:01:32.968750
2509,16.97,2022-08-17 14:01:32.984375
2510,16.36,2022-08-17 14:01:33.000000
2511,16.13,2022-08-17 14:01:33.015625
2512,16.25,2022-08-17 14:01:33.031250
2513,16.67,2022-08-17 14:01:33.046875
2514,17.22,2022-08-17 14:01:33.062500
2515,17.74,2022-08-17 14:01:33.078125
2516,18.06,2022-08-17 14:01:33.093750
2517,18.04,2022-08-17 14:01:33.109375
2518,17.61,2022-08-17 14:01:33.125000
2519,16.81,2022-08-17 14:01:33.140625
2520,15.71,2022-08-17 14:01:33.156250
2521,14.42,2022-08-17 14:01:33.171875
2522,12.97,2022-08-17 14:01:33.187500
2523,11.32,2022-08-17 14:01:33.203125
2524,9.4,2022-08-17 14:01:33.218750
2525,7.13,2022-08-17 14:01:33.234375
2526,4.49,2022-08-17 14:01:33.250000
2527,1.56,2022-08-17 14:01:33.265625
2528,-1.52,2022-08-17 14:01:33.281250
2529,-4.6,2022-08-17 14:01:33.296875
2530,-7.57,2022-08-17 14:01:33.312500
2531,-10.36,2022-08-17 14:01:33.328125
2532,-12.98,2022-08-17 14:01:33.343750
2533,-15.47,2022-08-17 14:01:33.359375
2534,-17.9,2022-08-17 14:01:33.375000
2535,-20.33,2022-08-17 14:01:33.390625
2536,-22.88,2022-08-17 14:01:33.406250
2537,-25.65,2022-08-17 14:01:33.421875
2538,-28.72,2022-08-17 14:01:33.437500
2539,-32.09,2022-08-17 14:01:33.453125
2540,-35.63,2022-08-17 14:01:33.468750
2541,-38.99,2022-08-17 14:01:33.484375
2542,-41.7,2022-08-17 14:01:33.500000
2543,-43.17,2022-08-17 14:01:33.515625
2544,-42.9,2022-08-17 14:01:33.531250
2545,-40.62,2022-08-17 14:01:33.546875
2546,-36.38,2022-08-17 14:01:33.562500
2547,-30.57,2022-08-17 14:01:33.578125
2548,-23.77,2022-08-17 14:01:33.593750
2549,-16.6,2022-08-17 14:01:33.609375
2550,-9.54,2022-08-17 14:01:33.625000
2551,-2.91,2022-08-17 14:01:33.640625
2552,3.07,2022-08-17 14:01:33.656250
2553,8.25,2022-08-17 14:01:33.671875
2554,12.43,2022-08-17 14:01:33.687500
2555,15.48,2022-08-17 14:01:33.703125
2556,17.31,2022-08-17 14:01:33.718750
2557,18.05,2022-08-17 14:01:33.734375
2558,17.95,2022-08-17 14:01:33.750000
2559,17.4,2022-08-17 14:01:33.765625
2560,16.81,2022-08-17 14:01:33.781250
2561,16.49,2022-08-17 14:01:33.796875
2562,16.58,2022-08-17 14:01:33.812500
2563,17.08,2022-08-17 14:01:33.828125
2564,17.87,2022-08-17 14:01:33.843750
2565,18.79,2022-08-17 14:01:33.859375
2566,19.73,2022-08-17 14:01:33.875000
2567,20.62,2022-08-17 14:01:33.890625
2568,21.47,2022-08-17 14:01:33.906250
2569,22.26,2022-08-17 14:01:33.921875
2570,22.97,2022-08-17 14:01:33.937500
2571,23.47,2022-08-17 14:01:33.953125
2572,23.55,2022-08-17 14:01:33.968750
2573,23.01,2022-08-17 14:01:33.984375
2574,21.66,2022-08-17 14:01:34.000000
2575,19.48,2022-08-17 14:01:34.015625
2576,16.64,2022-08-17 14:01:34.031250
2577,13.4,2022-08-17 14:01:34.046875
2578,10.07,2022-08-17 14:01:34.062500
2579,6.85,2022-08-17 14:01:34.078125
2580,3.82,2022-08-17 14:01:34.093750
2581,0.85,2022-08-17 14:01:34.109375
2582,-2.2,2022-08-17 14:01:34.125000
2583,-5.45,2022-08-17 14:01:34.140625
2584,-8.85,2022-08-17 14:01:34.156250
2585,-12.27,2022-08-17 14:01:34.171875
2586,-15.54,2022-08-17 14:01:34.187500
2587,-18.55,2022-08-17 14:01:34.203125
2588,-21.35,2022-08-17 14:01:34.218750
2589,-24.11,2022-08-17 14:01:34.234375
2590,-27.02,2022-08-17 14:01:34.250000
2591,-30.23,2022-08-17 14:01:34.265625
2592,-33.83,2022-08-17 14:01:34.281250
2593,-37.79,2022-08-17 14:01:34.296875
2594,-41.88,2022-08-17 14:01:34.312500
2595,-45.75,2022-08-17 14:01:34.328125
2596,-48.77,2022-08-17 14:01:34.343750
2597,-50.25,2022-08-17 14:01:34.359375
2598,-49.55,2022-08-17 14:01:34.375000
2599,-46.36,2022-08-17 14:01:34.390625
2600,-40.77,2022-08-17 14:01:34.406250
2601,-33.33,2022-08-17 14:01:34.421875
2602,-24.86,2022-08-17 14:01:34.437500
2603,-16.18,2022-08-17 14:01:34.453125
2604,-7.97,2022-08-17 14:01:34.468750
2605,-0.6,2022-08-17 14:01:34.484375
2606,5.76,2022-08-17 14:01:34.500000
2607,11.03,2022-08-17 14:01:34.515625
2608,15.14,2022-08-17 14:01:34.531250
2609,17.99,2022-08-17 14:01:34.546875
2610,19.59,2022-08-17 14:01:34.562500
2611,20.08,2022-08-17 14:01:34.578125
2612,19.82,2022-08-17 14:01:34.593750
2613,19.25,2022-08-17 14:01:34.609375
2614,18.78,2022-08-17 14:01:34.625000
2615,18.66,2022-08-17 14:01:34.640625
2616,18.92,2022-08-17 14:01:34.656250
2617,19.43,2022-08-17 14:01:34.671875
2618,20.01,2022-08-17 14:01:34.687500
2619,20.56,2022-08-17 14:01:34.703125
2620,21.04,2022-08-17 14:01:34.718750
2621,21.56,2022-08-17 14:01:34.734375
2622,22.16,2022-08-17 14:01:34.750000
2623,22.84,2022-08-17 14:01:34.765625
2624,23.48,2022-08-17 14:01:34.781250
2625,23.86,2022-08-17 14:01:34.796875
2626,23.77,2022-08-17 14:01:34.812500
2627,23.03,2022-08-17 14:01:34.828125
2628,21.6,2022-08-17 14:01:34.843750
2629,19.58,2022-08-17 14:01:34.859375
2630,17.18,2022-08-17 14:01:34.875000
2631,14.6,2022-08-17 14:01:34.890625
2632,12.03,2022-08-17 14:01:34.906250
2633,9.52,2022-08-17 14:01:34.921875
2634,7.02,2022-08-17 14:01:34.937500
2635,4.38,2022-08-17 14:01:34.953125
2636,1.51,2022-08-17 14:01:34.968750
2637,-1.6,2022-08-17 14:01:34.984375
2638,-4.85,2022-08-17 14:01:35.000000
2639,-8.01,2022-08-17 14:01:35.015625
2640,-10.9,2022-08-17 14:01:35.031250
2641,-13.42,2022-08-17 14:01:35.046875
2642,-15.65,2022-08-17 14:01:35.062500
2643,-17.81,2022-08-17 14:01:35.078125
2644,-20.16,2022-08-17 14:01:35.093750
2645,-22.93,2022-08-17 14:01:35.109375
2646,-26.25,2022-08-17 14:01:35.125000
2647,-30.16,2022-08-17 14:01:35.140625
2648,-34.55,2022-08-17 14:01:35.156250
2649,-39.19,2022-08-17 14:01:35.171875
2650,-43.6,2022-08-17 14:01:35.187500
2651,-47.11,2022-08-17 14:01:35.203125
2652,-48.96,2022-08-17 14:01:35.218750
2653,-48.52,2022-08-17 14:01:35.234375
2654,-45.47,2022-08-17 14:01:35.250000
2655,-39.94,2022-08-17 14:01:35.265625
2656,-32.53,2022-08-17 14:01:35.281250
2657,-24.04,2022-08-17 14:01:35.296875
2658,-15.26,2022-08-17 14:01:35.312500
2659,-6.79,2022-08-17 14:01:35.328125
2660,1.03,2022-08-17 14:01:35.343750
2661,8.01,2022-08-17 14:01:35.359375
2662,14.0,2022-08-17 14:01:35.375000
2663,18.84,2022-08-17 14:01:35.390625
2664,22.4,2022-08-17 14:01:35.406250
2665,24.62,2022-08-17 14:01:35.421875
2666,25.64,2022-08-17 14:01:35.437500
2667,25.74,2022-08-17 14:01:35.453125
2668,25.31,2022-08-17 14:01:35.468750
2669,24.73,2022-08-17 14:01:35.484375
2670,24.28,2022-08-17 14:01:35.500000
2671,24.08,2022-08-17 14:01:35.515625
2672,24.11,2022-08-17 14:01:35.531250
2673,24.26,2022-08-17 14:01:35.546875
2674,24.42,2022-08-17 14:01:35.562500
2675,24.54,2022-08-17 14:01:35.578125
2676,24.65,2022-08-17 14:01:35.593750
2677,24.81,2022-08-17 14:01:35.609375
2678,25.08,2022-08-17 14:01:35.625000
2679,25.43,2022-08-17 14:01:35.640625
2680,25.72,2022-08-17 14:01:35.656250
2681,25.76,2022-08-17 14:01:35.671875
2682,25.37,2022-08-17 14:01:35.687500
2683,24.48,2022-08-17 14:01:35.703125
2684,23.15,2022-08-17 14:01:35.718750
2685,21.51,2022-08-17 14:01:35.734375
2686,19.75,2022-08-17 14:01:35.750000
2687,17.97,2022-08-17 14:01:35.765625
2688,16.24,2022-08-17 14:01:35.781250
2689,14.49,2022-08-17 14:01:35.796875
2690,12.63,2022-08-17 14:01:35.812500
2691,10.52,2022-08-17 14:01:35.828125
2692,8.05,2022-08-17 14:01:35.843750
2693,5.21,2022-08-17 14:01:35.859375
2694,2.03,2022-08-17 14:01:35.875000
2695,-1.29,2022-08-17 14:01:35.890625
2696,-4.53,2022-08-17 14:01:35.906250
2697,-7.44,2022-08-17 14:01:35.921875
2698,-9.9,2022-08-17 14:01:35.937500
2699,-11.95,2022-08-17 14:01:35.953125
2700,-13.85,2022-08-17 14:01:35.968750
2701,-15.93,2022-08-17 14:01:35.984375
2702,-18.56,2022-08-17 14:01:36.000000
2703,-21.96,2022-08-17 14:01:36.015625
2704,-26.14,2022-08-17 14:01:36.031250
2705,-30.83,2022-08-17 14:01:36.046875
2706,-35.5,2022-08-17 14:01:36.062500
2707,-39.46,2022-08-17 14:01:36.078125
2708,-42.0,2022-08-17 14:01:36.093750
2709,-42.5,2022-08-17 14:01:36.109375
2710,-40.66,2022-08-17 14:01:36.125000
2711,-36.47,2022-08-17 14:01:36.140625
2712,-30.28,2022-08-17 14:01:36.156250
2713,-22.63,2022-08-17 14:01:36.171875
2714,-14.16,2022-08-17 14:01:36.187500
2715,-5.52,2022-08-17 14:01:36.203125
2716,2.7,2022-08-17 14:01:36.218750
2717,10.04,2022-08-17 14:01:36.234375
2718,16.15,2022-08-17 14:01:36.250000
2719,20.85,2022-08-17 14:01:36.265625
2720,24.09,2022-08-17 14:01:36.281250
2721,25.97,2022-08-17 14:01:36.296875
2722,26.65,2022-08-17 14:01:36.312500
2723,26.4,2022-08-17 14:01:36.328125
2724,25.48,2022-08-17 14:01:36.343750
2725,24.19,2022-08-17 14:01:36.359375
2726,22.83,2022-08-17 14:01:36.375000
2727,21.69,2022-08-17 14:01:36.390625
2728,20.99,2022-08-17 14:01:36.406250
2729,20.84,2022-08-17 14:01:36.421875
2730,21.19,2022-08-17 14:01:36.437500
2731,21.91,2022-08-17 14:01:36.453125
2732,22.82,2022-08-17 14:01:36.468750
2733,23.79,2022-08-17 14:01:36.484375
2734,24.74,2022-08-17 14:01:36.500000
2735,25.63,2022-08-17 14:01:36.515625
2736,26.35,2022-08-17 14:01:36.531250
2737,26.73,2022-08-17 14:01:36.546875
2738,26.54,2022-08-17 14:01:36.562500
2739,25.58,2022-08-17 14:01:36.578125
2740,23.83,2022-08-17 14:01:36.593750
2741,21.44,2022-08-17 14:01:36.609375
2742,18.73,2022-08-17 14:01:36.625000
2743,16.0,2022-08-17 14:01:36.640625
2744,13.41,2022-08-17 14:01:36.656250
2745,10.94,2022-08-17 14:01:36.671875
2746,8.4,2022-08-17 14:01:36.687500
2747,5.56,2022-08-17 14:01:36.703125
2748,2.35,2022-08-17 14:01:36.718750
2749,-1.12,2022-08-17 14:01:36.734375
2750,-4.62,2022-08-17 14:01:36.750000
2751,-7.89,2022-08-17 14:01:36.765625
2752,-10.8,2022-08-17 14:01:36.781250
2753,-13.35,2022-08-17 14:01:36.796875
2754,-15.69,2022-08-17 14:01:36.812500
2755,-17.95,2022-08-17 14:01:36.828125
2756,-20.28,2022-08-17 14:01:36.843750
2757,-22.8,2022-08-17 14:01:36.859375
2758,-25.63,2022-08-17 14:01:36.875000
2759,-28.82,2022-08-17 14:01:36.890625
2760,-32.23,2022-08-17 14:01:36.906250
2761,-35.48,2022-08-17 14:01:36.921875
2762,-37.93,2022-08-17 14:01:36.937500
2763,-38.86,2022-08-17 14:01:36.953125
2764,-37.74,2022-08-17 14:01:36.968750
2765,-34.39,2022-08-17 14:01:36.984375
2766,-29.11,2022-08-17 14:01:37.000000
2767,-22.46,2022-08-17 14:01:37.015625
2768,-15.17,2022-08-17 14:01:37.031250
2769,-7.82,2022-08-17 14:01:37.046875
2770,-0.86,2022-08-17 14:01:37.062500
2771,5.39,2022-08-17 14:01:37.078125
2772,10.69,2022-08-17 14:01:37.093750
2773,14.78,2022-08-17 14:01:37.109375
2774,17.5,2022-08-17 14:01:37.125000
2775,18.83,2022-08-17 14:01:37.140625
2776,19.0,2022-08-17 14:01:37.156250
2777,18.42,2022-08-17 14:01:37.171875
2778,17.57,2022-08-17 14:01:37.187500
2779,16.84,2022-08-17 14:01:37.203125
2780,16.47,2022-08-17 14:01:37.218750
2781,16.52,2022-08-17 14:01:37.234375
2782,16.94,2022-08-17 14:01:37.250000
2783,17.67,2022-08-17 14:01:37.265625
2784,18.64,2022-08-17 14:01:37.281250
2785,19.78,2022-08-17 14:01:37.296875
2786,20.98,2022-08-17 14:01:37.312500
2787,22.07,2022-08-17 14:01:37.328125
2788,22.87,2022-08-17 14:01:37.343750
2789,23.25,2022-08-17 14:01:37.359375
2790,23.13,2022-08-17 14:01:37.375000
2791,22.54,2022-08-17 14:01:37.390625
2792,21.48,2022-08-17 14:01:37.406250
2793,19.99,2022-08-17 14:01:37.421875
2794,18.05,2022-08-17 14:01:37.437500
2795,15.66,2022-08-17 14:01:37.453125
2796,12.84,2022-08-17 14:01:37.468750
2797,9.71,2022-08-17 14:01:37.484375
2798,6.38,2022-08-17 14:01:37.500000
2799,2.94,2022-08-17 14:01:37.515625
2800,-0.55,2022-08-17 14:01:37.531250
2801,-4.11,2022-08-17 14:01:37.546875
2802,-7.74,2022-08-17 14:01:37.562500
2803,-11.36,2022-08-17 14:01:37.578125
2804,-14.88,2022-08-17 14:01:37.593750
2805,-18.17,2022-08-17 14:01:37.609375
2806,-21.13,2022-08-17 14:01:37.625000
2807,-23.89,2022-08-17 14:01:37.640625
2808,-26.68,2022-08-17 14:01:37.656250
2809,-29.87,2022-08-17 14:01:37.671875
2810,-33.74,2022-08-17 14:01:37.687500
2811,-38.29,2022-08-17 14:01:37.703125
2812,-43.14,2022-08-17 14:01:37.718750
2813,-47.57,2022-08-17 14:01:37.734375
2814,-50.71,2022-08-17 14:01:37.750000
2815,-51.77,2022-08-17 14:01:37.765625
2816,-50.32,2022-08-17 14:01:37.781250
2817,-46.38,2022-08-17 14:01:37.796875
2818,-40.36,2022-08-17 14:01:37.812500
2819,-32.9,2022-08-17 14:01:37.828125
2820,-24.67,2022-08-17 14:01:37.843750
2821,-16.2,2022-08-17 14:01:37.859375
2822,-7.91,2022-08-17 14:01:37.875000
2823,-0.13,2022-08-17 14:01:37.890625
2824,6.73,2022-08-17 14:01:37.906250
2825,12.28,2022-08-17 14:01:37.921875
2826,16.18,2022-08-17 14:01:37.937500
2827,18.33,2022-08-17 14:01:37.953125
2828,18.95,2022-08-17 14:01:37.968750
2829,18.49,2022-08-17 14:01:37.984375
2830,17.52,2022-08-17 14:01:38.000000
2831,16.47,2022-08-17 14:01:38.015625
2832,15.59,2022-08-17 14:01:38.031250
2833,14.95,2022-08-17 14:01:38.046875
2834,14.5,2022-08-17 14:01:38.062500
2835,14.27,2022-08-17 14:01:38.078125
2836,14.3,2022-08-17 14:01:38.093750
2837,14.65,2022-08-17 14:01:38.109375
2838,15.3,2022-08-17 14:01:38.125000
2839,16.09,2022-08-17 14:01:38.140625
2840,16.89,2022-08-17 14:01:38.156250
2841,17.53,2022-08-17 14:01:38.171875
2842,17.94,2022-08-17 14:01:38.187500
2843,18.09,2022-08-17 14:01:38.203125
2844,17.91,2022-08-17 14:01:38.218750
2845,17.35,2022-08-17 14:01:38.234375
2846,16.32,2022-08-17 14:01:38.250000
2847,14.8,2022-08-17 14:01:38.265625
2848,12.89,2022-08-17 14:01:38.281250
2849,10.76,2022-08-17 14:01:38.296875
2850,8.56,2022-08-17 14:01:38.312500
2851,6.3,2022-08-17 14:01:38.328125
2852,3.92,2022-08-17 14:01:38.343750
2853,1.29,2022-08-17 14:01:38.359375
2854,-1.66,2022-08-17 14:01:38.375000
2855,-4.88,2022-08-17 14:01:38.390625
2856,-8.22,2022-08-17 14:01:38.406250
2857,-11.54,2022-08-17 14:01:38.421875
2858,-14.76,2022-08-17 14:01:38.437500
2859,-17.89,2022-08-17 14:01:38.453125
2860,-20.99,2022-08-17 14:01:38.468750
2861,-24.11,2022-08-17 14:01:38.484375
2862,-27.34,2022-08-17 14:01:38.500000
2863,-30.75,2022-08-17 14:01:38.515625
2864,-34.41,2022-08-17 14:01:38.531250
2865,-38.31,2022-08-17 14:01:38.546875
2866,-42.24,2022-08-17 14:01:38.562500
2867,-45.72,2022-08-17 14:01:38.578125
2868,-48.03,2022-08-17 14:01:38.593750
2869,-48.46,2022-08-17 14:01:38.609375
2870,-46.5,2022-08-17 14:01:38.625000
2871,-42.08,2022-08-17 14:01:38.640625
2872,-35.6,2022-08-17 14:01:38.656250
2873,-27.76,2022-08-17 14:01:38.671875
2874,-19.32,2022-08-17 14:01:38.687500
2875,-10.93,2022-08-17 14:01:38.703125
2876,-3.02,2022-08-17 14:01:38.718750
2877,4.16,2022-08-17 14:01:38.734375
2878,10.45,2022-08-17 14:01:38.750000
2879,15.66,2022-08-17 14:01:38.765625
2880,19.68,2022-08-17 14:01:38.781250
2881,22.42,2022-08-17 14:01:38.796875
2882,23.95,2022-08-17 14:01:38.812500
2883,24.49,2022-08-17 14:01:38.828125
2884,24.33,2022-08-17 14:01:38.843750
2885,23.81,2022-08-17 14:01:38.859375
2886,23.21,2022-08-17 14:01:38.875000
2887,22.71,2022-08-17 14:01:38.890625
2888,22.44,2022-08-17 14:01:38.906250
2889,22.45,2022-08-17 14:01:38.921875
2890,22.77,2022-08-17 14:01:38.937500
2891,23.33,2022-08-17 14:01:38.953125
2892,24.07,2022-08-17 14:01:38.968750
2893,24.84,2022-08-17 14:01:38.984375
2894,25.52,2022-08-17 14:01:39.000000
2895,25.98,2022-08-17 14:01:39.015625
2896,26.12,2022-08-17 14:01:39.031250
2897,25.9,2022-08-17 14:01:39.046875
2898,25.24,2022-08-17 14:01:39.062500
2899,24.06,2022-08-17 14:01:39.078125
2900,22.33,2022-08-17 14:01:39.093750
2901,20.11,2022-08-17 14:01:39.109375
2902,17.54,2022-08-17 14:01:39.125000
2903,14.85,2022-08-17 14:01:39.140625
2904,12.27,2022-08-17 14:01:39.156250
2905,9.84,2022-08-17 14:01:39.171875
2906,7.47,2022-08-17 14:01:39.187500
2907,4.99,2022-08-17 14:01:39.203125
2908,2.22,2022-08-17 14:01:39.218750
2909,-0.88,2022-08-17 14:01:39.234375
2910,-4.19,2022-08-17 14:01:39.250000
2911,-7.49,2022-08-17 14:01:39.265625
2912,-10.56,2022-08-17 14:01:39.281250
2913,-13.32,2022-08-17 14:01:39.296875
2914,-15.81,2022-08-17 14:01:39.312500
2915,-18.21,2022-08-17 14:01:39.328125
2916,-20.74,2022-08-17 14:01:39.343750
2917,-23.61,2022-08-17 14:01:39.359375
2918,-26.95,2022-08-17 14:01:39.375000
2919,-30.78,2022-08-17 14:01:39.390625
2920,-35.0,2022-08-17 14:01:39.406250
2921,-39.22,2022-08-17 14:01:39.421875
2922,-42.88,2022-08-17 14:01:39.437500
2923,-45.2,2022-08-17 14:01:39.453125
2924,-45.42,2022-08-17 14:01:39.468750
2925,-43.02,2022-08-17 14:01:39.484375
2926,-37.94,2022-08-17 14:01:39.500000
2927,-30.58,2022-08-17 14:01:39.515625
2928,-21.76,2022-08-17 14:01:39.531250
2929,-12.44,2022-08-17 14:01:39.546875
2930,-3.46,2022-08-17 14:01:39.562500
2931,4.58,2022-08-17 14:01:39.578125
2932,11.42,2022-08-17 14:01:39.593750
2933,16.99,2022-08-17 14:01:39.609375
2934,21.3,2022-08-17 14:01:39.625000
2935,24.41,2022-08-17 14:01:39.640625
2936,26.35,2022-08-17 14:01:39.656250
2937,27.23,2022-08-17 14:01:39.671875
2938,27.26,2022-08-17 14:01:39.687500
2939,26.7,2022-08-17 14:01:39.703125
2940,25.85,2022-08-17 14:01:39.718750
2941,24.96,2022-08-17 14:01:39.734375
2942,24.17,2022-08-17 14:01:39.750000
2943,23.55,2022-08-17 14:01:39.765625
2944,23.07,2022-08-17 14:01:39.781250
2945,22.71,2022-08-17 14:01:39.796875
2946,22.47,2022-08-17 14:01:39.812500
2947,22.39,2022-08-17 14:01:39.828125
2948,22.51,2022-08-17 14:01:39.843750
2949,22.79,2022-08-17 14:01:39.859375
2950,23.15,2022-08-17 14:01:39.875000
2951,23.45,2022-08-17 14:01:39.890625
2952,23.54,2022-08-17 14:01:39.906250
2953,23.27,2022-08-17 14:01:39.921875
2954,22.57,2022-08-17 14:01:39.937500
2955,21.38,2022-08-17 14:01:39.953125
2956,19.7,2022-08-17 14:01:39.968750
2957,17.58,2022-08-17 14:01:39.984375
2958,15.06,2022-08-17 14:01:40.000000
2959,12.23,2022-08-17 14:01:40.015625
2960,9.15,2022-08-17 14:01:40.031250
2961,5.87,2022-08-17 14:01:40.046875
2962,2.47,2022-08-17 14:01:40.062500
2963,-1.01,2022-08-17 14:01:40.078125
2964,-4.46,2022-08-17 14:01:40.093750
2965,-7.78,2022-08-17 14:01:40.109375
2966,-10.85,2022-08-17 14:01:40.125000
2967,-13.66,2022-08-17 14:01:40.140625
2968,-16.25,2022-08-17 14:01:40.156250
2969,-18.74,2022-08-17 14:01:40.171875
2970,-21.34,2022-08-17 14:01:40.187500
2971,-24.21,2022-08-17 14:01:40.203125
2972,-27.46,2022-08-17 14:01:40.218750
2973,-31.05,2022-08-17 14:01:40.234375
2974,-34.78,2022-08-17 14:01:40.250000
2975,-38.23,2022-08-17 14:01:40.265625
2976,-40.81,2022-08-17 14:01:40.281250
2977,-41.85,2022-08-17 14:01:40.296875
2978,-40.81,2022-08-17 14:01:40.312500
2979,-37.42,2022-08-17 14:01:40.328125
2980,-31.83,2022-08-17 14:01:40.343750
2981,-24.56,2022-08-17 14:01:40.359375
2982,-16.38,2022-08-17 14:01:40.375000
2983,-8.07,2022-08-17 14:01:40.390625
2984,-0.26,2022-08-17 14:01:40.406250
2985,6.59,2022-08-17 14:01:40.421875
2986,12.24,2022-08-17 14:01:40.437500
2987,16.53,2022-08-17 14:01:40.453125
2988,19.44,2022-08-17 14:01:40.468750
2989,20.99,2022-08-17 14:01:40.484375
2990,21.34,2022-08-17 14:01:40.500000
2991,20.78,2022-08-17 14:01:40.515625
2992,19.66,2022-08-17 14:01:40.531250
2993,18.33,2022-08-17 14:01:40.546875
2994,17.12,2022-08-17 14:01:40.562500
2995,16.25,2022-08-17 14:01:40.578125
2996,15.84,2022-08-17 14:01:40.593750
2997,15.92,2022-08-17 14:01:40.609375
2998,16.39,2022-08-17 14:01:40.625000
2999,17.11,2022-08-17 14:01:40.640625
3000,17.87,2022-08-17 14:01:40.656250
3001,18.52,2022-08-17 14:01:40.671875
3002,18.94,2022-08-17 14:01:40.687500
3003,19.05,2022-08-17 14:01:40.703125
3004,18.85,2022-08-17 14:01:40.718750
3005,18.34,2022-08-17 14:01:40.734375
3006,17.52,2022-08-17 14:01:40.750000
3007,16.42,2022-08-17 14:01:40.765625
3008,15.08,2022-08-17 14:01:40.781250
3009,13.5,2022-08-17 14:01:40.796875
3010,11.67,2022-08-17 14:01:40.812500
3011,9.53,2022-08-17 14:01:40.828125
3012,6.99,2022-08-17 14:01:40.843750
3013,3.97,2022-08-17 14:01:40.859375
3014,0.48,2022-08-17 14:01:40.875000
3015,-3.36,2022-08-17 14:01:40.890625
3016,-7.34,2022-08-17 14:01:40.906250
3017,-11.16,2022-08-17 14:01:40.921875
3018,-14.67,2022-08-17 14:01:40.937500
3019,-17.81,2022-08-17 14:01:40.953125
3020,-20.72,2022-08-17 14:01:40.968750
3021,-23.69,2022-08-17 14:01:40.984375
3022,-26.97,2022-08-17 14:01:41.000000
3023,-30.74,2022-08-17 14:01:41.015625
3024,-35.0,2022-08-17 14:01:41.031250
3025,-39.6,2022-08-17 14:01:41.046875
3026,-44.13,2022-08-17 14:01:41.062500
3027,-48.05,2022-08-17 14:01:41.078125
3028,-50.69,2022-08-17 14:01:41.093750
3029,-51.36,2022-08-17 14:01:41.109375
3030,-49.51,2022-08-17 14:01:41.125000
3031,-44.96,2022-08-17 14:01:41.140625
3032,-37.96,2022-08-17 14:01:41.156250
3033,-29.21,2022-08-17 14:01:41.171875
3034,-19.63,2022-08-17 14:01:41.187500
3035,-10.17,2022-08-17 14:01:41.203125
3036,-1.52,2022-08-17 14:01:41.218750
3037,5.93,2022-08-17 14:01:41.234375
3038,12.02,2022-08-17 14:01:41.250000
3039,16.72,2022-08-17 14:01:41.265625
3040,19.98,2022-08-17 14:01:41.281250
3041,21.8,2022-08-17 14:01:41.296875
3042,22.26,2022-08-17 14:01:41.312500
3043,21.6,2022-08-17 14:01:41.328125
3044,20.26,2022-08-17 14:01:41.343750
3045,18.72,2022-08-17 14:01:41.359375
3046,17.4,2022-08-17 14:01:41.375000
3047,16.54,2022-08-17 14:01:41.390625
3048,16.19,2022-08-17 14:01:41.406250
3049,16.26,2022-08-17 14:01:41.421875
3050,16.63,2022-08-17 14:01:41.437500
3051,17.24,2022-08-17 14:01:41.453125
3052,18.07,2022-08-17 14:01:41.468750
3053,19.13,2022-08-17 14:01:41.484375
3054,20.33,2022-08-17 14:01:41.500000
3055,21.47,2022-08-17 14:01:41.515625
3056,22.3,2022-08-17 14:01:41.531250
3057,22.54,2022-08-17 14:01:41.546875
3058,22.02,2022-08-17 14:01:41.562500
3059,20.74,2022-08-17 14:01:41.578125
3060,18.83,2022-08-17 14:01:41.593750
3061,16.5,2022-08-17 14:01:41.609375
3062,13.99,2022-08-17 14:01:41.625000
3063,11.44,2022-08-17 14:01:41.640625
3064,8.84,2022-08-17 14:01:41.656250
3065,6.15,2022-08-17 14:01:41.671875
3066,3.23,2022-08-17 14:01:41.687500
3067,0.04,2022-08-17 14:01:41.703125
3068,-3.42,2022-08-17 14:01:41.718750
3069,-7.0,2022-08-17 14:01:41.734375
3070,-10.54,2022-08-17 14:01:41.750000
3071,-13.87,2022-08-17 14:01:41.765625
3072,-16.9,2022-08-17 14:01:41.781250
3073,-19.69,2022-08-17 14:01:41.796875
3074,-22.4,2022-08-17 14:01:41.812500
3075,-25.28,2022-08-17 14:01:41.828125
3076,-28.55,2022-08-17 14:01:41.843750
3077,-32.33,2022-08-17 14:01:41.859375
3078,-36.55,2022-08-17 14:01:41.875000
3079,-40.95,2022-08-17 14:01:41.890625
3080,-45.06,2022-08-17 14:01:41.906250
3081,-48.27,2022-08-17 14:01:41.921875
3082,-49.93,2022-08-17 14:01:41.937500
3083,-49.45,2022-08-17 14:01:41.953125
3084,-46.47,2022-08-17 14:01:41.968750
3085,-41.01,2022-08-17 14:01:41.984375
3086,-33.43,2022-08-17 14:01:42.000000
3087,-24.41,2022-08-17 14:01:42.015625
3088,-14.79,2022-08-17 14:01:42.031250
3089,-5.35,2022-08-17 14:01:42.046875
3090,3.25,2022-08-17 14:01:42.062500
3091,10.58,2022-08-17 14:01:42.078125
3092,16.41,2022-08-17 14:01:42.093750
3093,20.66,2022-08-17 14:01:42.109375
3094,23.38,2022-08-17 14:01:42.125000
3095,24.73,2022-08-17 14:01:42.140625
3096,25.02,2022-08-17 14:01:42.156250
3097,24.61,2022-08-17 14:01:42.171875
3098,23.87,2022-08-17 14:01:42.187500
3099,23.09,2022-08-17 14:01:42.203125
3100,22.46,2022-08-17 14:01:42.218750
3101,22.09,2022-08-17 14:01:42.234375
3102,22.05,2022-08-17 14:01:42.250000
3103,22.38,2022-08-17 14:01:42.265625
3104,23.08,2022-08-17 14:01:42.281250
3105,24.03,2022-08-17 14:01:42.296875
3106,25.04,2022-08-17 14:01:42.312500
3107,25.91,2022-08-17 14:01:42.328125
3108,26.5,2022-08-17 14:01:42.343750
3109,26.78,2022-08-17 14:01:42.359375
3110,26.78,2022-08-17 14:01:42.375000
3111,26.55,2022-08-17 14:01:42.390625
3112,26.09,2022-08-17 14:01:42.406250
3113,25.27,2022-08-17 14:01:42.421875
3114,23.98,2022-08-17 14:01:42.437500
3115,22.07,2022-08-17 14:01:42.453125
3116,19.56,2022-08-17 14:01:42.468750
3117,16.52,2022-08-17 14:01:42.484375
3118,13.12,2022-08-17 14:01:42.500000
3119,9.51,2022-08-17 14:01:42.515625
3120,5.8,2022-08-17 14:01:42.531250
3121,2.03,2022-08-17 14:01:42.546875
3122,-1.75,2022-08-17 14:01:42.562500
3123,-5.5,2022-08-17 14:01:42.578125
3124,-9.11,2022-08-17 14:01:42.593750
3125,-12.48,2022-08-17 14:01:42.609375
3126,-15.53,2022-08-17 14:01:42.625000
3127,-18.28,2022-08-17 14:01:42.640625
3128,-20.84,2022-08-17 14:01:42.656250
3129,-23.45,2022-08-17 14:01:42.671875
3130,-26.3,2022-08-17 14:01:42.687500
3131,-29.55,2022-08-17 14:01:42.703125
3132,-33.14,2022-08-17 14:01:42.718750
3133,-36.76,2022-08-17 14:01:42.734375
3134,-39.93,2022-08-17 14:01:42.750000
3135,-42.0,2022-08-17 14:01:42.765625
3136,-42.34,2022-08-17 14:01:42.781250
3137,-40.54,2022-08-17 14:01:42.796875
3138,-36.49,2022-08-17 14:01:42.812500
3139,-30.48,2022-08-17 14:01:42.828125
3140,-23.06,2022-08-17 14:01:42.843750
3141,-14.92,2022-08-17 14:01:42.859375
3142,-6.67,2022-08-17 14:01:42.875000
3143,1.26,2022-08-17 14:01:42.890625
3144,8.56,2022-08-17 14:01:42.906250
3145,14.98,2022-08-17 14:01:42.921875
3146,20.22,2022-08-17 14:01:42.937500
3147,23.98,2022-08-17 14:01:42.953125
3148,26.06,2022-08-17 14:01:42.968750
3149,26.54,2022-08-17 14:01:42.984375
3150,25.82,2022-08-17 14:01:43.000000
3151,24.51,2022-08-17 14:01:43.015625
3152,23.21,2022-08-17 14:01:43.031250
3153,22.33,2022-08-17 14:01:43.046875
3154,21.94,2022-08-17 14:01:43.062500
3155,21.89,2022-08-17 14:01:43.078125
3156,21.94,2022-08-17 14:01:43.093750
3157,21.97,2022-08-17 14:01:43.109375
3158,22.01,2022-08-17 14:01:43.125000
3159,22.24,2022-08-17 14:01:43.140625
3160,22.78,2022-08-17 14:01:43.156250
3161,23.65,2022-08-17 14:01:43.171875
3162,24.62,2022-08-17 14:01:43.187500
3163,25.38,2022-08-17 14:01:43.203125
3164,25.63,2022-08-17 14:01:43.218750
