,BVP,time
0,213.76,2021-12-17 17:39:03.812500
1,171.97,2021-12-17 17:39:03.828125
2,124.25,2021-12-17 17:39:03.843750
3,78.37,2021-12-17 17:39:03.859375
4,41.57,2021-12-17 17:39:03.875000
5,18.49,2021-12-17 17:39:03.890625
6,10.0,2021-12-17 17:39:03.906250
7,13.27,2021-12-17 17:39:03.921875
8,22.31,2021-12-17 17:39:03.937500
9,31.38,2021-12-17 17:39:03.953125
10,37.11,2021-12-17 17:39:03.968750
11,39.32,2021-12-17 17:39:03.984375
12,40.07,2021-12-17 17:39:04.000000
13,41.39,2021-12-17 17:39:04.015625
14,44.55,2021-12-17 17:39:04.031250
15,49.53,2021-12-17 17:39:04.046875
16,55.19,2021-12-17 17:39:04.062500
17,59.53,2021-12-17 17:39:04.078125
18,61.35,2021-12-17 17:39:04.093750
19,60.85,2021-12-17 17:39:04.109375
20,59.42,2021-12-17 17:39:04.125000
21,58.91,2021-12-17 17:39:04.140625
22,59.8,2021-12-17 17:39:04.156250
23,61.07,2021-12-17 17:39:04.171875
24,60.63,2021-12-17 17:39:04.187500
25,56.26,2021-12-17 17:39:04.203125
26,46.41,2021-12-17 17:39:04.218750
27,31.17,2021-12-17 17:39:04.234375
28,12.21,2021-12-17 17:39:04.250000
29,-7.88,2021-12-17 17:39:04.265625
30,-26.36,2021-12-17 17:39:04.281250
31,-41.63,2021-12-17 17:39:04.296875
32,-53.33,2021-12-17 17:39:04.312500
33,-62.19,2021-12-17 17:39:04.328125
34,-69.38,2021-12-17 17:39:04.343750
35,-75.98,2021-12-17 17:39:04.359375
36,-82.42,2021-12-17 17:39:04.375000
37,-88.53,2021-12-17 17:39:04.390625
38,-93.82,2021-12-17 17:39:04.406250
39,-97.82,2021-12-17 17:39:04.421875
40,-100.48,2021-12-17 17:39:04.437500
41,-102.11,2021-12-17 17:39:04.453125
42,-103.07,2021-12-17 17:39:04.468750
43,-103.55,2021-12-17 17:39:04.484375
44,-103.49,2021-12-17 17:39:04.500000
45,-102.7,2021-12-17 17:39:04.515625
46,-101.14,2021-12-17 17:39:04.531250
47,-99.26,2021-12-17 17:39:04.546875
48,-97.96,2021-12-17 17:39:04.562500
49,-98.29,2021-12-17 17:39:04.578125
50,-100.86,2021-12-17 17:39:04.593750
51,-105.22,2021-12-17 17:39:04.609375
52,-109.76,2021-12-17 17:39:04.625000
53,-111.99,2021-12-17 17:39:04.640625
54,-109.42,2021-12-17 17:39:04.656250
55,-100.43,2021-12-17 17:39:04.671875
56,-84.88,2021-12-17 17:39:04.687500
57,-64.21,2021-12-17 17:39:04.703125
58,-40.91,2021-12-17 17:39:04.718750
59,-17.83,2021-12-17 17:39:04.734375
60,2.49,2021-12-17 17:39:04.750000
61,18.3,2021-12-17 17:39:04.765625
62,28.82,2021-12-17 17:39:04.781250
63,34.29,2021-12-17 17:39:04.796875
64,35.87,2021-12-17 17:39:04.812500
65,35.6,2021-12-17 17:39:04.828125
66,36.14,2021-12-17 17:39:04.843750
67,40.2,2021-12-17 17:39:04.859375
68,49.7,2021-12-17 17:39:04.875000
69,64.8,2021-12-17 17:39:04.890625
70,83.36,2021-12-17 17:39:04.906250
71,101.21,2021-12-17 17:39:04.921875
72,113.4,2021-12-17 17:39:04.937500
73,116.09,2021-12-17 17:39:04.953125
74,108.3,2021-12-17 17:39:04.968750
75,92.73,2021-12-17 17:39:04.984375
76,74.98,2021-12-17 17:39:05.000000
77,61.52,2021-12-17 17:39:05.015625
78,57.03,2021-12-17 17:39:05.031250
79,62.39,2021-12-17 17:39:05.046875
80,74.08,2021-12-17 17:39:05.062500
81,85.42,2021-12-17 17:39:05.078125
82,89.0,2021-12-17 17:39:05.093750
83,79.27,2021-12-17 17:39:05.109375
84,54.27,2021-12-17 17:39:05.125000
85,15.9,2021-12-17 17:39:05.140625
86,-31.34,2021-12-17 17:39:05.156250
87,-82.18,2021-12-17 17:39:05.171875
88,-132.23,2021-12-17 17:39:05.187500
89,-178.65,2021-12-17 17:39:05.203125
90,-219.92,2021-12-17 17:39:05.218750
91,-255.01,2021-12-17 17:39:05.234375
92,-282.81,2021-12-17 17:39:05.250000
93,-302.29,2021-12-17 17:39:05.265625
94,-313.16,2021-12-17 17:39:05.281250
95,-316.46,2021-12-17 17:39:05.296875
96,-314.63,2021-12-17 17:39:05.312500
97,-310.74,2021-12-17 17:39:05.328125
98,-307.23,2021-12-17 17:39:05.343750
99,-304.83,2021-12-17 17:39:05.359375
100,-302.26,2021-12-17 17:39:05.375000
101,-296.87,2021-12-17 17:39:05.390625
102,-286.12,2021-12-17 17:39:05.406250
103,-268.88,2021-12-17 17:39:05.421875
104,-245.99,2021-12-17 17:39:05.437500
105,-219.8,2021-12-17 17:39:05.453125
106,-193.04,2021-12-17 17:39:05.468750
107,-167.71,2021-12-17 17:39:05.484375
108,-144.49,2021-12-17 17:39:05.500000
109,-123.07,2021-12-17 17:39:05.515625
110,-102.94,2021-12-17 17:39:05.531250
111,-84.28,2021-12-17 17:39:05.546875
112,-68.28,2021-12-17 17:39:05.562500
113,-56.65,2021-12-17 17:39:05.578125
114,-50.73,2021-12-17 17:39:05.593750
115,-50.64,2021-12-17 17:39:05.609375
116,-54.94,2021-12-17 17:39:05.625000
117,-61.08,2021-12-17 17:39:05.640625
118,-66.31,2021-12-17 17:39:05.656250
119,-68.58,2021-12-17 17:39:05.671875
120,-66.96,2021-12-17 17:39:05.687500
121,-61.52,2021-12-17 17:39:05.703125
122,-52.76,2021-12-17 17:39:05.718750
123,-41.18,2021-12-17 17:39:05.734375
124,-27.07,2021-12-17 17:39:05.750000
125,-10.54,2021-12-17 17:39:05.765625
126,7.99,2021-12-17 17:39:05.781250
127,27.57,2021-12-17 17:39:05.796875
128,46.79,2021-12-17 17:39:05.812500
129,64.18,2021-12-17 17:39:05.828125
130,78.8,2021-12-17 17:39:05.843750
131,90.51,2021-12-17 17:39:05.859375
132,99.96,2021-12-17 17:39:05.875000
133,108.12,2021-12-17 17:39:05.890625
134,115.79,2021-12-17 17:39:05.906250
135,123.19,2021-12-17 17:39:05.921875
136,129.93,2021-12-17 17:39:05.937500
137,135.27,2021-12-17 17:39:05.953125
138,138.38,2021-12-17 17:39:05.968750
139,138.59,2021-12-17 17:39:05.984375
140,135.44,2021-12-17 17:39:06.000000
141,128.81,2021-12-17 17:39:06.015625
142,118.95,2021-12-17 17:39:06.031250
143,106.8,2021-12-17 17:39:06.046875
144,93.97,2021-12-17 17:39:06.062500
145,82.73,2021-12-17 17:39:06.078125
146,75.47,2021-12-17 17:39:06.093750
147,74.04,2021-12-17 17:39:06.109375
148,79.18,2021-12-17 17:39:06.125000
149,90.29,2021-12-17 17:39:06.140625
150,105.68,2021-12-17 17:39:06.156250
151,123.11,2021-12-17 17:39:06.171875
152,140.49,2021-12-17 17:39:06.187500
153,156.25,2021-12-17 17:39:06.203125
154,169.46,2021-12-17 17:39:06.218750
155,179.71,2021-12-17 17:39:06.234375
156,186.79,2021-12-17 17:39:06.250000
157,190.6,2021-12-17 17:39:06.265625
158,191.13,2021-12-17 17:39:06.281250
159,188.65,2021-12-17 17:39:06.296875
160,183.77,2021-12-17 17:39:06.312500
161,177.45,2021-12-17 17:39:06.328125
162,170.78,2021-12-17 17:39:06.343750
163,164.63,2021-12-17 17:39:06.359375
164,159.4,2021-12-17 17:39:06.375000
165,154.94,2021-12-17 17:39:06.390625
166,150.79,2021-12-17 17:39:06.406250
167,146.45,2021-12-17 17:39:06.421875
168,141.76,2021-12-17 17:39:06.437500
169,136.88,2021-12-17 17:39:06.453125
170,132.12,2021-12-17 17:39:06.468750
171,127.69,2021-12-17 17:39:06.484375
172,123.44,2021-12-17 17:39:06.500000
173,118.85,2021-12-17 17:39:06.515625
174,113.4,2021-12-17 17:39:06.531250
175,106.83,2021-12-17 17:39:06.546875
176,99.29,2021-12-17 17:39:06.562500
177,91.32,2021-12-17 17:39:06.578125
178,83.55,2021-12-17 17:39:06.593750
179,76.34,2021-12-17 17:39:06.609375
180,69.63,2021-12-17 17:39:06.625000
181,62.94,2021-12-17 17:39:06.640625
182,55.53,2021-12-17 17:39:06.656250
183,46.73,2021-12-17 17:39:06.671875
184,36.21,2021-12-17 17:39:06.687500
185,24.14,2021-12-17 17:39:06.703125
186,11.29,2021-12-17 17:39:06.718750
187,-1.06,2021-12-17 17:39:06.734375
188,-11.35,2021-12-17 17:39:06.750000
189,-18.11,2021-12-17 17:39:06.765625
190,-20.23,2021-12-17 17:39:06.781250
191,-17.25,2021-12-17 17:39:06.796875
192,-9.43,2021-12-17 17:39:06.812500
193,2.39,2021-12-17 17:39:06.828125
194,16.89,2021-12-17 17:39:06.843750
195,32.48,2021-12-17 17:39:06.859375
196,47.56,2021-12-17 17:39:06.875000
197,60.64,2021-12-17 17:39:06.890625
198,70.56,2021-12-17 17:39:06.906250
199,76.69,2021-12-17 17:39:06.921875
200,78.97,2021-12-17 17:39:06.937500
201,77.94,2021-12-17 17:39:06.953125
202,74.46,2021-12-17 17:39:06.968750
203,69.46,2021-12-17 17:39:06.984375
204,63.7,2021-12-17 17:39:07.000000
205,57.64,2021-12-17 17:39:07.015625
206,51.54,2021-12-17 17:39:07.031250
207,45.59,2021-12-17 17:39:07.046875
208,40.01,2021-12-17 17:39:07.062500
209,35.07,2021-12-17 17:39:07.078125
210,31.0,2021-12-17 17:39:07.093750
211,28.0,2021-12-17 17:39:07.109375
212,26.12,2021-12-17 17:39:07.125000
213,25.24,2021-12-17 17:39:07.140625
214,25.08,2021-12-17 17:39:07.156250
215,25.21,2021-12-17 17:39:07.171875
216,25.08,2021-12-17 17:39:07.187500
217,24.18,2021-12-17 17:39:07.203125
218,22.14,2021-12-17 17:39:07.218750
219,18.8,2021-12-17 17:39:07.234375
220,14.27,2021-12-17 17:39:07.250000
221,8.85,2021-12-17 17:39:07.265625
222,2.87,2021-12-17 17:39:07.281250
223,-3.43,2021-12-17 17:39:07.296875
224,-9.95,2021-12-17 17:39:07.312500
225,-16.76,2021-12-17 17:39:07.328125
226,-24.05,2021-12-17 17:39:07.343750
227,-31.98,2021-12-17 17:39:07.359375
228,-40.56,2021-12-17 17:39:07.375000
229,-49.51,2021-12-17 17:39:07.390625
230,-58.08,2021-12-17 17:39:07.406250
231,-65.09,2021-12-17 17:39:07.421875
232,-69.13,2021-12-17 17:39:07.437500
233,-68.82,2021-12-17 17:39:07.453125
234,-63.4,2021-12-17 17:39:07.468750
235,-52.93,2021-12-17 17:39:07.484375
236,-38.44,2021-12-17 17:39:07.500000
237,-21.62,2021-12-17 17:39:07.515625
238,-4.4,2021-12-17 17:39:07.531250
239,11.56,2021-12-17 17:39:07.546875
240,25.12,2021-12-17 17:39:07.562500
241,35.68,2021-12-17 17:39:07.578125
242,43.06,2021-12-17 17:39:07.593750
243,47.29,2021-12-17 17:39:07.609375
244,48.59,2021-12-17 17:39:07.625000
245,47.35,2021-12-17 17:39:07.640625
246,44.13,2021-12-17 17:39:07.656250
247,39.66,2021-12-17 17:39:07.671875
248,34.66,2021-12-17 17:39:07.687500
249,29.66,2021-12-17 17:39:07.703125
250,24.93,2021-12-17 17:39:07.718750
251,20.56,2021-12-17 17:39:07.734375
252,16.57,2021-12-17 17:39:07.750000
253,13.05,2021-12-17 17:39:07.765625
254,10.28,2021-12-17 17:39:07.781250
255,8.53,2021-12-17 17:39:07.796875
256,7.94,2021-12-17 17:39:07.812500
257,8.4,2021-12-17 17:39:07.828125
258,9.42,2021-12-17 17:39:07.843750
259,10.37,2021-12-17 17:39:07.859375
260,10.61,2021-12-17 17:39:07.875000
261,9.74,2021-12-17 17:39:07.890625
262,7.76,2021-12-17 17:39:07.906250
263,4.95,2021-12-17 17:39:07.921875
264,1.78,2021-12-17 17:39:07.937500
265,-1.4,2021-12-17 17:39:07.953125
266,-4.52,2021-12-17 17:39:07.968750
267,-7.87,2021-12-17 17:39:07.984375
268,-11.97,2021-12-17 17:39:08.000000
269,-17.4,2021-12-17 17:39:08.015625
270,-24.48,2021-12-17 17:39:08.031250
271,-33.09,2021-12-17 17:39:08.046875
272,-42.54,2021-12-17 17:39:08.062500
273,-51.58,2021-12-17 17:39:08.078125
274,-58.64,2021-12-17 17:39:08.093750
275,-62.14,2021-12-17 17:39:08.109375
276,-60.91,2021-12-17 17:39:08.125000
277,-54.55,2021-12-17 17:39:08.140625
278,-43.52,2021-12-17 17:39:08.156250
279,-29.11,2021-12-17 17:39:08.171875
280,-13.08,2021-12-17 17:39:08.187500
281,2.68,2021-12-17 17:39:08.203125
282,16.56,2021-12-17 17:39:08.218750
283,27.43,2021-12-17 17:39:08.234375
284,34.74,2021-12-17 17:39:08.250000
285,38.43,2021-12-17 17:39:08.265625
286,38.93,2021-12-17 17:39:08.281250
287,36.98,2021-12-17 17:39:08.296875
288,33.52,2021-12-17 17:39:08.312500
289,29.39,2021-12-17 17:39:08.328125
290,25.16,2021-12-17 17:39:08.343750
291,21.0,2021-12-17 17:39:08.359375
292,16.7,2021-12-17 17:39:08.375000
293,11.79,2021-12-17 17:39:08.390625
294,5.83,2021-12-17 17:39:08.406250
295,-1.46,2021-12-17 17:39:08.421875
296,-9.91,2021-12-17 17:39:08.437500
297,-18.94,2021-12-17 17:39:08.453125
298,-27.54,2021-12-17 17:39:08.468750
299,-34.52,2021-12-17 17:39:08.484375
300,-38.88,2021-12-17 17:39:08.500000
301,-40.13,2021-12-17 17:39:08.515625
302,-38.54,2021-12-17 17:39:08.531250
303,-35.18,2021-12-17 17:39:08.546875
304,-31.54,2021-12-17 17:39:08.562500
305,-29.01,2021-12-17 17:39:08.578125
306,-28.39,2021-12-17 17:39:08.593750
307,-29.67,2021-12-17 17:39:08.609375
308,-32.1,2021-12-17 17:39:08.625000
309,-34.7,2021-12-17 17:39:08.640625
310,-36.7,2021-12-17 17:39:08.656250
311,-37.93,2021-12-17 17:39:08.671875
312,-38.81,2021-12-17 17:39:08.687500
313,-40.09,2021-12-17 17:39:08.703125
314,-42.42,2021-12-17 17:39:08.718750
315,-45.9,2021-12-17 17:39:08.734375
316,-49.93,2021-12-17 17:39:08.750000
317,-53.26,2021-12-17 17:39:08.765625
318,-54.4,2021-12-17 17:39:08.781250
319,-52.03,2021-12-17 17:39:08.796875
320,-45.46,2021-12-17 17:39:08.812500
321,-34.77,2021-12-17 17:39:08.828125
322,-20.8,2021-12-17 17:39:08.843750
323,-4.87,2021-12-17 17:39:08.859375
324,11.55,2021-12-17 17:39:08.875000
325,27.16,2021-12-17 17:39:08.890625
326,40.93,2021-12-17 17:39:08.906250
327,52.14,2021-12-17 17:39:08.921875
328,60.36,2021-12-17 17:39:08.937500
329,65.4,2021-12-17 17:39:08.953125
330,67.41,2021-12-17 17:39:08.968750
331,66.87,2021-12-17 17:39:08.984375
332,64.56,2021-12-17 17:39:09.000000
333,61.4,2021-12-17 17:39:09.015625
334,58.32,2021-12-17 17:39:09.031250
335,55.93,2021-12-17 17:39:09.046875
336,54.46,2021-12-17 17:39:09.062500
337,53.77,2021-12-17 17:39:09.078125
338,53.45,2021-12-17 17:39:09.093750
339,53.02,2021-12-17 17:39:09.109375
340,52.03,2021-12-17 17:39:09.125000
341,50.21,2021-12-17 17:39:09.140625
342,47.42,2021-12-17 17:39:09.156250
343,43.71,2021-12-17 17:39:09.171875
344,39.18,2021-12-17 17:39:09.187500
345,34.06,2021-12-17 17:39:09.203125
346,28.59,2021-12-17 17:39:09.218750
347,23.01,2021-12-17 17:39:09.234375
348,17.6,2021-12-17 17:39:09.250000
349,12.51,2021-12-17 17:39:09.265625
350,7.86,2021-12-17 17:39:09.281250
351,3.72,2021-12-17 17:39:09.296875
352,0.07,2021-12-17 17:39:09.312500
353,-3.13,2021-12-17 17:39:09.328125
354,-5.94,2021-12-17 17:39:09.343750
355,-8.55,2021-12-17 17:39:09.359375
356,-11.35,2021-12-17 17:39:09.375000
357,-14.8,2021-12-17 17:39:09.390625
358,-19.34,2021-12-17 17:39:09.406250
359,-24.99,2021-12-17 17:39:09.421875
360,-31.2,2021-12-17 17:39:09.437500
361,-36.69,2021-12-17 17:39:09.453125
362,-39.83,2021-12-17 17:39:09.468750
363,-39.06,2021-12-17 17:39:09.484375
364,-33.52,2021-12-17 17:39:09.500000
365,-23.42,2021-12-17 17:39:09.515625
366,-9.93,2021-12-17 17:39:09.531250
367,5.22,2021-12-17 17:39:09.546875
368,20.28,2021-12-17 17:39:09.562500
369,33.87,2021-12-17 17:39:09.578125
370,45.12,2021-12-17 17:39:09.593750
371,53.6,2021-12-17 17:39:09.609375
372,59.1,2021-12-17 17:39:09.625000
373,61.61,2021-12-17 17:39:09.640625
374,61.34,2021-12-17 17:39:09.656250
375,58.82,2021-12-17 17:39:09.671875
376,54.85,2021-12-17 17:39:09.687500
377,50.31,2021-12-17 17:39:09.703125
378,45.89,2021-12-17 17:39:09.718750
379,41.85,2021-12-17 17:39:09.734375
380,38.12,2021-12-17 17:39:09.750000
381,34.42,2021-12-17 17:39:09.765625
382,30.56,2021-12-17 17:39:09.781250
383,26.61,2021-12-17 17:39:09.796875
384,22.92,2021-12-17 17:39:09.812500
385,19.79,2021-12-17 17:39:09.828125
386,17.29,2021-12-17 17:39:09.843750
387,15.02,2021-12-17 17:39:09.859375
388,12.17,2021-12-17 17:39:09.875000
389,7.81,2021-12-17 17:39:09.890625
390,1.25,2021-12-17 17:39:09.906250
391,-7.68,2021-12-17 17:39:09.921875
392,-18.48,2021-12-17 17:39:09.937500
393,-30.11,2021-12-17 17:39:09.953125
394,-41.37,2021-12-17 17:39:09.968750
395,-51.2,2021-12-17 17:39:09.984375
396,-59.0,2021-12-17 17:39:10.000000
397,-64.78,2021-12-17 17:39:10.015625
398,-69.09,2021-12-17 17:39:10.031250
399,-72.94,2021-12-17 17:39:10.046875
400,-77.41,2021-12-17 17:39:10.062500
401,-83.37,2021-12-17 17:39:10.078125
402,-91.08,2021-12-17 17:39:10.093750
403,-99.9,2021-12-17 17:39:10.109375
404,-108.22,2021-12-17 17:39:10.125000
405,-113.8,2021-12-17 17:39:10.140625
406,-114.29,2021-12-17 17:39:10.156250
407,-107.99,2021-12-17 17:39:10.171875
408,-94.37,2021-12-17 17:39:10.187500
409,-74.33,2021-12-17 17:39:10.203125
410,-50.0,2021-12-17 17:39:10.218750
411,-24.11,2021-12-17 17:39:10.234375
412,0.59,2021-12-17 17:39:10.250000
413,21.93,2021-12-17 17:39:10.265625
414,38.63,2021-12-17 17:39:10.281250
415,50.28,2021-12-17 17:39:10.296875
416,57.18,2021-12-17 17:39:10.312500
417,60.13,2021-12-17 17:39:10.328125
418,60.13,2021-12-17 17:39:10.343750
419,58.2,2021-12-17 17:39:10.359375
420,55.22,2021-12-17 17:39:10.375000
421,51.84,2021-12-17 17:39:10.390625
422,48.42,2021-12-17 17:39:10.406250
423,45.12,2021-12-17 17:39:10.421875
424,41.89,2021-12-17 17:39:10.437500
425,38.69,2021-12-17 17:39:10.453125
426,35.52,2021-12-17 17:39:10.468750
427,32.51,2021-12-17 17:39:10.484375
428,29.84,2021-12-17 17:39:10.500000
429,27.56,2021-12-17 17:39:10.515625
430,25.41,2021-12-17 17:39:10.531250
431,22.78,2021-12-17 17:39:10.546875
432,18.93,2021-12-17 17:39:10.562500
433,13.18,2021-12-17 17:39:10.578125
434,5.26,2021-12-17 17:39:10.593750
435,-4.57,2021-12-17 17:39:10.609375
436,-15.6,2021-12-17 17:39:10.625000
437,-26.87,2021-12-17 17:39:10.640625
438,-37.47,2021-12-17 17:39:10.656250
439,-46.74,2021-12-17 17:39:10.671875
440,-54.37,2021-12-17 17:39:10.687500
441,-60.38,2021-12-17 17:39:10.703125
442,-65.07,2021-12-17 17:39:10.718750
443,-68.77,2021-12-17 17:39:10.734375
444,-71.73,2021-12-17 17:39:10.750000
445,-73.82,2021-12-17 17:39:10.765625
446,-74.42,2021-12-17 17:39:10.781250
447,-72.51,2021-12-17 17:39:10.796875
448,-66.94,2021-12-17 17:39:10.812500
449,-56.95,2021-12-17 17:39:10.828125
450,-42.56,2021-12-17 17:39:10.843750
451,-24.78,2021-12-17 17:39:10.859375
452,-5.33,2021-12-17 17:39:10.875000
453,13.73,2021-12-17 17:39:10.890625
454,30.67,2021-12-17 17:39:10.906250
455,44.37,2021-12-17 17:39:10.921875
456,54.4,2021-12-17 17:39:10.937500
457,60.83,2021-12-17 17:39:10.953125
458,63.92,2021-12-17 17:39:10.968750
459,63.99,2021-12-17 17:39:10.984375
460,61.38,2021-12-17 17:39:11.000000
461,56.7,2021-12-17 17:39:11.015625
462,50.78,2021-12-17 17:39:11.031250
463,44.65,2021-12-17 17:39:11.046875
464,39.34,2021-12-17 17:39:11.062500
465,35.56,2021-12-17 17:39:11.078125
466,33.57,2021-12-17 17:39:11.093750
467,33.1,2021-12-17 17:39:11.109375
468,33.62,2021-12-17 17:39:11.125000
469,34.46,2021-12-17 17:39:11.140625
470,35.12,2021-12-17 17:39:11.156250
471,35.35,2021-12-17 17:39:11.171875
472,35.11,2021-12-17 17:39:11.187500
473,34.4,2021-12-17 17:39:11.203125
474,33.15,2021-12-17 17:39:11.218750
475,31.12,2021-12-17 17:39:11.234375
476,28.0,2021-12-17 17:39:11.250000
477,23.53,2021-12-17 17:39:11.265625
478,17.67,2021-12-17 17:39:11.281250
479,10.64,2021-12-17 17:39:11.296875
480,2.86,2021-12-17 17:39:11.312500
481,-5.25,2021-12-17 17:39:11.328125
482,-13.43,2021-12-17 17:39:11.343750
483,-21.61,2021-12-17 17:39:11.359375
484,-29.71,2021-12-17 17:39:11.375000
485,-37.39,2021-12-17 17:39:11.390625
486,-43.87,2021-12-17 17:39:11.406250
487,-47.98,2021-12-17 17:39:11.421875
488,-48.55,2021-12-17 17:39:11.437500
489,-44.83,2021-12-17 17:39:11.453125
490,-36.9,2021-12-17 17:39:11.468750
491,-25.81,2021-12-17 17:39:11.484375
492,-13.22,2021-12-17 17:39:11.500000
493,-0.94,2021-12-17 17:39:11.515625
494,9.53,2021-12-17 17:39:11.531250
495,17.4,2021-12-17 17:39:11.546875
496,22.55,2021-12-17 17:39:11.562500
497,25.26,2021-12-17 17:39:11.578125
498,26.0,2021-12-17 17:39:11.593750
499,25.18,2021-12-17 17:39:11.609375
500,23.01,2021-12-17 17:39:11.625000
501,19.62,2021-12-17 17:39:11.640625
502,15.14,2021-12-17 17:39:11.656250
503,9.91,2021-12-17 17:39:11.671875
504,4.54,2021-12-17 17:39:11.687500
505,-0.19,2021-12-17 17:39:11.703125
506,-3.55,2021-12-17 17:39:11.718750
507,-5.09,2021-12-17 17:39:11.734375
508,-4.92,2021-12-17 17:39:11.750000
509,-3.62,2021-12-17 17:39:11.765625
510,-2.04,2021-12-17 17:39:11.781250
511,-0.93,2021-12-17 17:39:11.796875
512,-0.65,2021-12-17 17:39:11.812500
513,-1.16,2021-12-17 17:39:11.828125
514,-2.21,2021-12-17 17:39:11.843750
515,-3.6,2021-12-17 17:39:11.859375
516,-5.35,2021-12-17 17:39:11.875000
517,-7.39,2021-12-17 17:39:11.890625
518,-9.34,2021-12-17 17:39:11.906250
519,-10.29,2021-12-17 17:39:11.921875
520,-9.21,2021-12-17 17:39:11.937500
521,-5.45,2021-12-17 17:39:11.953125
522,0.74,2021-12-17 17:39:11.968750
523,8.09,2021-12-17 17:39:11.984375
524,14.94,2021-12-17 17:39:12.000000
525,20.19,2021-12-17 17:39:12.015625
526,23.89,2021-12-17 17:39:12.031250
527,27.15,2021-12-17 17:39:12.046875
528,31.41,2021-12-17 17:39:12.062500
529,37.23,2021-12-17 17:39:12.078125
530,43.73,2021-12-17 17:39:12.093750
531,48.85,2021-12-17 17:39:12.109375
532,50.37,2021-12-17 17:39:12.125000
533,47.05,2021-12-17 17:39:12.140625
534,39.28,2021-12-17 17:39:12.156250
535,28.75,2021-12-17 17:39:12.171875
536,17.49,2021-12-17 17:39:12.187500
537,6.9,2021-12-17 17:39:12.203125
538,-2.76,2021-12-17 17:39:12.218750
539,-12.08,2021-12-17 17:39:12.234375
540,-21.87,2021-12-17 17:39:12.250000
541,-32.43,2021-12-17 17:39:12.265625
542,-43.41,2021-12-17 17:39:12.281250
543,-53.92,2021-12-17 17:39:12.296875
544,-62.87,2021-12-17 17:39:12.312500
545,-69.29,2021-12-17 17:39:12.328125
546,-72.38,2021-12-17 17:39:12.343750
547,-71.53,2021-12-17 17:39:12.359375
548,-66.36,2021-12-17 17:39:12.375000
549,-56.94,2021-12-17 17:39:12.390625
550,-43.99,2021-12-17 17:39:12.406250
551,-29.03,2021-12-17 17:39:12.421875
552,-14.17,2021-12-17 17:39:12.437500
553,-1.69,2021-12-17 17:39:12.453125
554,6.62,2021-12-17 17:39:12.468750
555,9.98,2021-12-17 17:39:12.484375
556,8.84,2021-12-17 17:39:12.500000
557,4.91,2021-12-17 17:39:12.515625
558,0.64,2021-12-17 17:39:12.531250
559,-1.35,2021-12-17 17:39:12.546875
560,0.94,2021-12-17 17:39:12.562500
561,8.29,2021-12-17 17:39:12.578125
562,19.94,2021-12-17 17:39:12.593750
563,33.82,2021-12-17 17:39:12.609375
564,47.26,2021-12-17 17:39:12.625000
565,57.91,2021-12-17 17:39:12.640625
566,64.59,2021-12-17 17:39:12.656250
567,67.6,2021-12-17 17:39:12.671875
568,68.37,2021-12-17 17:39:12.687500
569,68.65,2021-12-17 17:39:12.703125
570,69.41,2021-12-17 17:39:12.718750
571,70.31,2021-12-17 17:39:12.734375
572,69.75,2021-12-17 17:39:12.750000
573,65.79,2021-12-17 17:39:12.765625
574,57.18,2021-12-17 17:39:12.781250
575,44.16,2021-12-17 17:39:12.796875
576,28.33,2021-12-17 17:39:12.812500
577,11.83,2021-12-17 17:39:12.828125
578,-3.72,2021-12-17 17:39:12.843750
579,-17.86,2021-12-17 17:39:12.859375
580,-31.18,2021-12-17 17:39:12.875000
581,-44.59,2021-12-17 17:39:12.890625
582,-58.4,2021-12-17 17:39:12.906250
583,-71.81,2021-12-17 17:39:12.921875
584,-83.03,2021-12-17 17:39:12.937500
585,-89.76,2021-12-17 17:39:12.953125
586,-89.86,2021-12-17 17:39:12.968750
587,-81.69,2021-12-17 17:39:12.984375
588,-64.49,2021-12-17 17:39:13.000000
589,-38.64,2021-12-17 17:39:13.015625
590,-6.17,2021-12-17 17:39:13.031250
591,29.03,2021-12-17 17:39:13.046875
592,61.43,2021-12-17 17:39:13.062500
593,85.06,2021-12-17 17:39:13.078125
594,94.98,2021-12-17 17:39:13.093750
595,88.74,2021-12-17 17:39:13.109375
596,66.86,2021-12-17 17:39:13.125000
597,32.27,2021-12-17 17:39:13.140625
598,-10.9,2021-12-17 17:39:13.156250
599,-58.64,2021-12-17 17:39:13.171875
600,-107.74,2021-12-17 17:39:13.187500
601,-155.67,2021-12-17 17:39:13.203125
602,-200.06,2021-12-17 17:39:13.218750
603,-238.25,2021-12-17 17:39:13.234375
604,-267.47,2021-12-17 17:39:13.250000
605,-285.42,2021-12-17 17:39:13.265625
606,-291.04,2021-12-17 17:39:13.281250
607,-284.89,2021-12-17 17:39:13.296875
608,-268.85,2021-12-17 17:39:13.312500
609,-245.34,2021-12-17 17:39:13.328125
610,-216.61,2021-12-17 17:39:13.343750
611,-184.08,2021-12-17 17:39:13.359375
612,-148.58,2021-12-17 17:39:13.375000
613,-110.68,2021-12-17 17:39:13.390625
614,-71.33,2021-12-17 17:39:13.406250
615,-32.19,2021-12-17 17:39:13.421875
616,4.63,2021-12-17 17:39:13.437500
617,37.14,2021-12-17 17:39:13.453125
618,64.15,2021-12-17 17:39:13.468750
619,85.68,2021-12-17 17:39:13.484375
620,102.72,2021-12-17 17:39:13.500000
621,116.64,2021-12-17 17:39:13.515625
622,128.47,2021-12-17 17:39:13.531250
623,138.43,2021-12-17 17:39:13.546875
624,145.95,2021-12-17 17:39:13.562500
625,150.18,2021-12-17 17:39:13.578125
626,150.59,2021-12-17 17:39:13.593750
627,147.45,2021-12-17 17:39:13.609375
628,141.85,2021-12-17 17:39:13.625000
629,135.23,2021-12-17 17:39:13.640625
630,128.94,2021-12-17 17:39:13.656250
631,123.6,2021-12-17 17:39:13.671875
632,119.07,2021-12-17 17:39:13.687500
633,114.57,2021-12-17 17:39:13.703125
634,109.21,2021-12-17 17:39:13.718750
635,102.29,2021-12-17 17:39:13.734375
636,93.63,2021-12-17 17:39:13.750000
637,83.39,2021-12-17 17:39:13.765625
638,71.89,2021-12-17 17:39:13.781250
639,59.31,2021-12-17 17:39:13.796875
640,45.69,2021-12-17 17:39:13.812500
641,31.15,2021-12-17 17:39:13.828125
642,16.16,2021-12-17 17:39:13.843750
643,1.84,2021-12-17 17:39:13.859375
644,-10.14,2021-12-17 17:39:13.875000
645,-18.04,2021-12-17 17:39:13.890625
646,-20.64,2021-12-17 17:39:13.906250
647,-17.79,2021-12-17 17:39:13.921875
648,-10.5,2021-12-17 17:39:13.937500
649,-0.63,2021-12-17 17:39:13.953125
650,9.7,2021-12-17 17:39:13.968750
651,18.76,2021-12-17 17:39:13.984375
652,25.45,2021-12-17 17:39:14.000000
653,29.3,2021-12-17 17:39:14.015625
654,30.16,2021-12-17 17:39:14.031250
655,27.83,2021-12-17 17:39:14.046875
656,22.05,2021-12-17 17:39:14.062500
657,12.59,2021-12-17 17:39:14.078125
658,-0.53,2021-12-17 17:39:14.093750
659,-16.7,2021-12-17 17:39:14.109375
660,-34.86,2021-12-17 17:39:14.125000
661,-53.59,2021-12-17 17:39:14.140625
662,-71.4,2021-12-17 17:39:14.156250
663,-87.06,2021-12-17 17:39:14.171875
664,-99.72,2021-12-17 17:39:14.187500
665,-108.97,2021-12-17 17:39:14.203125
666,-114.71,2021-12-17 17:39:14.218750
667,-117.03,2021-12-17 17:39:14.234375
668,-116.05,2021-12-17 17:39:14.250000
669,-111.85,2021-12-17 17:39:14.265625
670,-104.61,2021-12-17 17:39:14.281250
671,-94.65,2021-12-17 17:39:14.296875
672,-82.61,2021-12-17 17:39:14.312500
673,-69.49,2021-12-17 17:39:14.328125
674,-56.54,2021-12-17 17:39:14.343750
675,-45.03,2021-12-17 17:39:14.359375
676,-36.0,2021-12-17 17:39:14.375000
677,-30.03,2021-12-17 17:39:14.390625
678,-27.18,2021-12-17 17:39:14.406250
679,-27.13,2021-12-17 17:39:14.421875
680,-29.15,2021-12-17 17:39:14.437500
681,-32.21,2021-12-17 17:39:14.453125
682,-35.04,2021-12-17 17:39:14.468750
683,-36.14,2021-12-17 17:39:14.484375
684,-34.12,2021-12-17 17:39:14.500000
685,-28.01,2021-12-17 17:39:14.515625
686,-17.54,2021-12-17 17:39:14.531250
687,-3.29,2021-12-17 17:39:14.546875
688,13.4,2021-12-17 17:39:14.562500
689,30.79,2021-12-17 17:39:14.578125
690,47.06,2021-12-17 17:39:14.593750
691,60.65,2021-12-17 17:39:14.609375
692,70.56,2021-12-17 17:39:14.625000
693,76.38,2021-12-17 17:39:14.640625
694,78.35,2021-12-17 17:39:14.656250
695,77.15,2021-12-17 17:39:14.671875
696,73.77,2021-12-17 17:39:14.687500
697,69.21,2021-12-17 17:39:14.703125
698,64.48,2021-12-17 17:39:14.718750
699,60.44,2021-12-17 17:39:14.734375
700,57.87,2021-12-17 17:39:14.750000
701,57.3,2021-12-17 17:39:14.765625
702,58.65,2021-12-17 17:39:14.781250
703,60.92,2021-12-17 17:39:14.796875
704,62.09,2021-12-17 17:39:14.812500
705,59.59,2021-12-17 17:39:14.828125
706,51.06,2021-12-17 17:39:14.843750
707,35.38,2021-12-17 17:39:14.859375
708,13.07,2021-12-17 17:39:14.875000
709,-13.79,2021-12-17 17:39:14.890625
710,-42.41,2021-12-17 17:39:14.906250
711,-70.17,2021-12-17 17:39:14.921875
712,-95.38,2021-12-17 17:39:14.937500
713,-117.26,2021-12-17 17:39:14.953125
714,-135.68,2021-12-17 17:39:14.968750
715,-150.69,2021-12-17 17:39:14.984375
716,-162.31,2021-12-17 17:39:15.000000
717,-170.53,2021-12-17 17:39:15.015625
718,-175.4,2021-12-17 17:39:15.031250
719,-177.07,2021-12-17 17:39:15.046875
720,-175.65,2021-12-17 17:39:15.062500
721,-170.99,2021-12-17 17:39:15.078125
722,-162.59,2021-12-17 17:39:15.093750
723,-149.75,2021-12-17 17:39:15.109375
724,-131.98,2021-12-17 17:39:15.125000
725,-109.32,2021-12-17 17:39:15.140625
726,-82.68,2021-12-17 17:39:15.156250
727,-53.7,2021-12-17 17:39:15.171875
728,-24.43,2021-12-17 17:39:15.187500
729,3.21,2021-12-17 17:39:15.203125
730,27.86,2021-12-17 17:39:15.218750
731,48.89,2021-12-17 17:39:15.234375
732,66.16,2021-12-17 17:39:15.250000
733,79.69,2021-12-17 17:39:15.265625
734,89.26,2021-12-17 17:39:15.281250
735,94.35,2021-12-17 17:39:15.296875
736,94.33,2021-12-17 17:39:15.312500
737,88.9,2021-12-17 17:39:15.328125
738,78.56,2021-12-17 17:39:15.343750
739,64.83,2021-12-17 17:39:15.359375
740,50.06,2021-12-17 17:39:15.375000
741,37.06,2021-12-17 17:39:15.390625
742,28.55,2021-12-17 17:39:15.406250
743,26.59,2021-12-17 17:39:15.421875
744,32.2,2021-12-17 17:39:15.437500
745,45.1,2021-12-17 17:39:15.453125
746,63.72,2021-12-17 17:39:15.468750
747,85.48,2021-12-17 17:39:15.484375
748,107.46,2021-12-17 17:39:15.500000
749,127.24,2021-12-17 17:39:15.515625
750,143.49,2021-12-17 17:39:15.531250
751,156.09,2021-12-17 17:39:15.546875
752,165.62,2021-12-17 17:39:15.562500
753,172.54,2021-12-17 17:39:15.578125
754,176.59,2021-12-17 17:39:15.593750
755,176.69,2021-12-17 17:39:15.609375
756,171.49,2021-12-17 17:39:15.625000
757,160.19,2021-12-17 17:39:15.640625
758,143.16,2021-12-17 17:39:15.656250
759,121.97,2021-12-17 17:39:15.671875
760,98.88,2021-12-17 17:39:15.687500
761,76.25,2021-12-17 17:39:15.703125
762,55.89,2021-12-17 17:39:15.718750
763,38.93,2021-12-17 17:39:15.734375
764,25.89,2021-12-17 17:39:15.750000
765,16.89,2021-12-17 17:39:15.765625
766,11.76,2021-12-17 17:39:15.781250
767,10.13,2021-12-17 17:39:15.796875
768,11.42,2021-12-17 17:39:15.812500
769,14.87,2021-12-17 17:39:15.828125
770,19.66,2021-12-17 17:39:15.843750
771,25.02,2021-12-17 17:39:15.859375
772,30.49,2021-12-17 17:39:15.875000
773,36.28,2021-12-17 17:39:15.890625
774,43.28,2021-12-17 17:39:15.906250
775,52.84,2021-12-17 17:39:15.921875
776,66.1,2021-12-17 17:39:15.937500
777,82.98,2021-12-17 17:39:15.953125
778,101.63,2021-12-17 17:39:15.968750
779,118.47,2021-12-17 17:39:15.984375
780,129.15,2021-12-17 17:39:16.000000
781,130.08,2021-12-17 17:39:16.015625
782,119.67,2021-12-17 17:39:16.031250
783,98.84,2021-12-17 17:39:16.046875
784,70.46,2021-12-17 17:39:16.062500
785,38.14,2021-12-17 17:39:16.078125
786,5.07,2021-12-17 17:39:16.093750
787,-26.55,2021-12-17 17:39:16.109375
788,-55.38,2021-12-17 17:39:16.125000
789,-80.37,2021-12-17 17:39:16.140625
790,-100.39,2021-12-17 17:39:16.156250
791,-114.19,2021-12-17 17:39:16.171875
792,-120.76,2021-12-17 17:39:16.187500
793,-119.72,2021-12-17 17:39:16.203125
794,-111.64,2021-12-17 17:39:16.218750
795,-98.02,2021-12-17 17:39:16.234375
796,-80.97,2021-12-17 17:39:16.250000
797,-62.85,2021-12-17 17:39:16.265625
798,-45.73,2021-12-17 17:39:16.281250
799,-31.08,2021-12-17 17:39:16.296875
800,-19.43,2021-12-17 17:39:16.312500
801,-10.31,2021-12-17 17:39:16.328125
802,-2.29,2021-12-17 17:39:16.343750
803,6.6,2021-12-17 17:39:16.359375
804,18.06,2021-12-17 17:39:16.375000
805,32.78,2021-12-17 17:39:16.390625
806,49.76,2021-12-17 17:39:16.406250
807,66.35,2021-12-17 17:39:16.421875
808,78.88,2021-12-17 17:39:16.437500
809,83.84,2021-12-17 17:39:16.453125
810,79.22,2021-12-17 17:39:16.468750
811,65.2,2021-12-17 17:39:16.484375
812,44.21,2021-12-17 17:39:16.500000
813,19.94,2021-12-17 17:39:16.515625
814,-3.86,2021-12-17 17:39:16.531250
815,-24.6,2021-12-17 17:39:16.546875
816,-41.28,2021-12-17 17:39:16.562500
817,-54.21,2021-12-17 17:39:16.578125
818,-64.23,2021-12-17 17:39:16.593750
819,-72.04,2021-12-17 17:39:16.609375
820,-77.91,2021-12-17 17:39:16.625000
821,-81.8,2021-12-17 17:39:16.640625
822,-83.74,2021-12-17 17:39:16.656250
823,-84.12,2021-12-17 17:39:16.671875
824,-83.66,2021-12-17 17:39:16.687500
825,-83.12,2021-12-17 17:39:16.703125
826,-82.78,2021-12-17 17:39:16.718750
827,-82.17,2021-12-17 17:39:16.734375
828,-80.0,2021-12-17 17:39:16.750000
829,-74.7,2021-12-17 17:39:16.765625
830,-65.09,2021-12-17 17:39:16.781250
831,-51.07,2021-12-17 17:39:16.796875
832,-33.77,2021-12-17 17:39:16.812500
833,-15.29,2021-12-17 17:39:16.828125
834,2.05,2021-12-17 17:39:16.843750
835,16.46,2021-12-17 17:39:16.859375
836,27.14,2021-12-17 17:39:16.875000
837,34.22,2021-12-17 17:39:16.890625
838,38.41,2021-12-17 17:39:16.906250
839,40.51,2021-12-17 17:39:16.921875
840,41.08,2021-12-17 17:39:16.937500
841,40.29,2021-12-17 17:39:16.953125
842,38.13,2021-12-17 17:39:16.968750
843,34.62,2021-12-17 17:39:16.984375
844,30.09,2021-12-17 17:39:17.000000
845,25.18,2021-12-17 17:39:17.015625
846,20.81,2021-12-17 17:39:17.031250
847,17.94,2021-12-17 17:39:17.046875
848,17.24,2021-12-17 17:39:17.062500
849,18.84,2021-12-17 17:39:17.078125
850,22.26,2021-12-17 17:39:17.093750
851,26.53,2021-12-17 17:39:17.109375
852,30.55,2021-12-17 17:39:17.125000
853,33.51,2021-12-17 17:39:17.140625
854,35.06,2021-12-17 17:39:17.156250
855,35.38,2021-12-17 17:39:17.171875
856,34.87,2021-12-17 17:39:17.187500
857,33.87,2021-12-17 17:39:17.203125
858,32.44,2021-12-17 17:39:17.218750
859,30.3,2021-12-17 17:39:17.234375
860,27.06,2021-12-17 17:39:17.250000
861,22.37,2021-12-17 17:39:17.265625
862,16.28,2021-12-17 17:39:17.281250
863,9.25,2021-12-17 17:39:17.296875
864,2.09,2021-12-17 17:39:17.312500
865,-4.26,2021-12-17 17:39:17.328125
866,-9.14,2021-12-17 17:39:17.343750
867,-12.36,2021-12-17 17:39:17.359375
868,-14.25,2021-12-17 17:39:17.375000
869,-15.48,2021-12-17 17:39:17.390625
870,-16.74,2021-12-17 17:39:17.406250
871,-18.49,2021-12-17 17:39:17.421875
872,-20.83,2021-12-17 17:39:17.437500
873,-23.61,2021-12-17 17:39:17.453125
874,-26.66,2021-12-17 17:39:17.468750
875,-29.96,2021-12-17 17:39:17.484375
876,-33.58,2021-12-17 17:39:17.500000
877,-37.58,2021-12-17 17:39:17.515625
878,-41.83,2021-12-17 17:39:17.531250
879,-45.97,2021-12-17 17:39:17.546875
880,-49.44,2021-12-17 17:39:17.562500
881,-51.8,2021-12-17 17:39:17.578125
882,-52.82,2021-12-17 17:39:17.593750
883,-52.66,2021-12-17 17:39:17.609375
884,-51.7,2021-12-17 17:39:17.625000
885,-50.55,2021-12-17 17:39:17.640625
886,-49.98,2021-12-17 17:39:17.656250
887,-50.85,2021-12-17 17:39:17.671875
888,-54.01,2021-12-17 17:39:17.687500
889,-60.07,2021-12-17 17:39:17.703125
890,-69.03,2021-12-17 17:39:17.718750
891,-80.03,2021-12-17 17:39:17.734375
892,-91.26,2021-12-17 17:39:17.750000
893,-100.35,2021-12-17 17:39:17.765625
894,-104.99,2021-12-17 17:39:17.781250
895,-103.71,2021-12-17 17:39:17.796875
896,-96.28,2021-12-17 17:39:17.812500
897,-83.78,2021-12-17 17:39:17.828125
898,-68.16,2021-12-17 17:39:17.843750
899,-51.6,2021-12-17 17:39:17.859375
900,-35.9,2021-12-17 17:39:17.875000
901,-22.13,2021-12-17 17:39:17.890625
902,-10.58,2021-12-17 17:39:17.906250
903,-1.06,2021-12-17 17:39:17.921875
904,6.85,2021-12-17 17:39:17.937500
905,13.4,2021-12-17 17:39:17.953125
906,18.52,2021-12-17 17:39:17.968750
907,21.85,2021-12-17 17:39:17.984375
908,22.93,2021-12-17 17:39:18.000000
909,21.47,2021-12-17 17:39:18.015625
910,17.41,2021-12-17 17:39:18.031250
911,11.21,2021-12-17 17:39:18.046875
912,3.54,2021-12-17 17:39:18.062500
913,-4.79,2021-12-17 17:39:18.078125
914,-13.05,2021-12-17 17:39:18.093750
915,-20.73,2021-12-17 17:39:18.109375
916,-27.54,2021-12-17 17:39:18.125000
917,-33.37,2021-12-17 17:39:18.140625
918,-38.27,2021-12-17 17:39:18.156250
919,-42.4,2021-12-17 17:39:18.171875
920,-45.82,2021-12-17 17:39:18.187500
921,-48.43,2021-12-17 17:39:18.203125
922,-49.72,2021-12-17 17:39:18.218750
923,-48.8,2021-12-17 17:39:18.234375
924,-44.63,2021-12-17 17:39:18.250000
925,-36.46,2021-12-17 17:39:18.265625
926,-24.23,2021-12-17 17:39:18.281250
927,-8.89,2021-12-17 17:39:18.296875
928,7.62,2021-12-17 17:39:18.312500
929,22.85,2021-12-17 17:39:18.328125
930,34.37,2021-12-17 17:39:18.343750
931,40.41,2021-12-17 17:39:18.359375
932,40.27,2021-12-17 17:39:18.375000
933,34.4,2021-12-17 17:39:18.390625
934,24.2,2021-12-17 17:39:18.406250
935,11.59,2021-12-17 17:39:18.421875
936,-1.4,2021-12-17 17:39:18.437500
937,-13.01,2021-12-17 17:39:18.453125
938,-21.9,2021-12-17 17:39:18.468750
939,-27.29,2021-12-17 17:39:18.484375
940,-28.82,2021-12-17 17:39:18.500000
941,-26.51,2021-12-17 17:39:18.515625
942,-20.81,2021-12-17 17:39:18.531250
943,-12.51,2021-12-17 17:39:18.546875
944,-2.77,2021-12-17 17:39:18.562500
945,7.03,2021-12-17 17:39:18.578125
946,15.56,2021-12-17 17:39:18.593750
947,21.84,2021-12-17 17:39:18.609375
948,25.51,2021-12-17 17:39:18.625000
949,26.78,2021-12-17 17:39:18.640625
950,26.35,2021-12-17 17:39:18.656250
951,25.02,2021-12-17 17:39:18.671875
952,23.41,2021-12-17 17:39:18.687500
953,21.69,2021-12-17 17:39:18.703125
954,19.7,2021-12-17 17:39:18.718750
955,17.11,2021-12-17 17:39:18.734375
956,13.72,2021-12-17 17:39:18.750000
957,9.61,2021-12-17 17:39:18.765625
958,5.11,2021-12-17 17:39:18.781250
959,0.69,2021-12-17 17:39:18.796875
960,-3.32,2021-12-17 17:39:18.812500
961,-6.81,2021-12-17 17:39:18.828125
962,-9.84,2021-12-17 17:39:18.843750
963,-12.52,2021-12-17 17:39:18.859375
964,-14.82,2021-12-17 17:39:18.875000
965,-16.56,2021-12-17 17:39:18.890625
966,-17.46,2021-12-17 17:39:18.906250
967,-17.36,2021-12-17 17:39:18.921875
968,-16.3,2021-12-17 17:39:18.937500
969,-14.59,2021-12-17 17:39:18.953125
970,-12.67,2021-12-17 17:39:18.968750
971,-10.9,2021-12-17 17:39:18.984375
972,-9.43,2021-12-17 17:39:19.000000
973,-8.08,2021-12-17 17:39:19.015625
974,-6.54,2021-12-17 17:39:19.031250
975,-4.5,2021-12-17 17:39:19.046875
976,-1.91,2021-12-17 17:39:19.062500
977,0.93,2021-12-17 17:39:19.078125
978,3.5,2021-12-17 17:39:19.093750
979,5.18,2021-12-17 17:39:19.109375
980,5.52,2021-12-17 17:39:19.125000
981,4.32,2021-12-17 17:39:19.140625
982,1.6,2021-12-17 17:39:19.156250
983,-2.4,2021-12-17 17:39:19.171875
984,-7.29,2021-12-17 17:39:19.187500
985,-12.4,2021-12-17 17:39:19.203125
986,-16.84,2021-12-17 17:39:19.218750
987,-19.63,2021-12-17 17:39:19.234375
988,-19.92,2021-12-17 17:39:19.250000
989,-17.33,2021-12-17 17:39:19.265625
990,-12.11,2021-12-17 17:39:19.281250
991,-5.09,2021-12-17 17:39:19.296875
992,2.55,2021-12-17 17:39:19.312500
993,9.69,2021-12-17 17:39:19.328125
994,15.46,2021-12-17 17:39:19.343750
995,19.37,2021-12-17 17:39:19.359375
996,21.23,2021-12-17 17:39:19.375000
997,21.0,2021-12-17 17:39:19.390625
998,18.76,2021-12-17 17:39:19.406250
999,14.71,2021-12-17 17:39:19.421875
1000,9.21,2021-12-17 17:39:19.437500
1001,2.84,2021-12-17 17:39:19.453125
1002,-3.7,2021-12-17 17:39:19.468750
1003,-9.73,2021-12-17 17:39:19.484375
1004,-14.72,2021-12-17 17:39:19.500000
1005,-18.39,2021-12-17 17:39:19.515625
1006,-20.73,2021-12-17 17:39:19.531250
1007,-21.97,2021-12-17 17:39:19.546875
1008,-22.41,2021-12-17 17:39:19.562500
1009,-22.37,2021-12-17 17:39:19.578125
1010,-21.98,2021-12-17 17:39:19.593750
1011,-21.28,2021-12-17 17:39:19.609375
1012,-20.23,2021-12-17 17:39:19.625000
1013,-18.88,2021-12-17 17:39:19.640625
1014,-17.48,2021-12-17 17:39:19.656250
1015,-16.39,2021-12-17 17:39:19.671875
1016,-16.0,2021-12-17 17:39:19.687500
1017,-16.5,2021-12-17 17:39:19.703125
1018,-17.71,2021-12-17 17:39:19.718750
1019,-19.08,2021-12-17 17:39:19.734375
1020,-19.89,2021-12-17 17:39:19.750000
1021,-19.56,2021-12-17 17:39:19.765625
1022,-17.95,2021-12-17 17:39:19.781250
1023,-15.49,2021-12-17 17:39:19.796875
1024,-13.06,2021-12-17 17:39:19.812500
1025,-11.72,2021-12-17 17:39:19.828125
1026,-12.29,2021-12-17 17:39:19.843750
1027,-15.19,2021-12-17 17:39:19.859375
1028,-20.34,2021-12-17 17:39:19.875000
1029,-27.2,2021-12-17 17:39:19.890625
1030,-34.83,2021-12-17 17:39:19.906250
1031,-41.89,2021-12-17 17:39:19.921875
1032,-46.86,2021-12-17 17:39:19.937500
1033,-48.51,2021-12-17 17:39:19.953125
1034,-46.42,2021-12-17 17:39:19.968750
1035,-41.35,2021-12-17 17:39:19.984375
1036,-35.11,2021-12-17 17:39:20.000000
1037,-29.92,2021-12-17 17:39:20.015625
1038,-27.37,2021-12-17 17:39:20.031250
1039,-27.77,2021-12-17 17:39:20.046875
1040,-30.04,2021-12-17 17:39:20.062500
1041,-32.31,2021-12-17 17:39:20.078125
1042,-33.0,2021-12-17 17:39:20.093750
1043,-31.45,2021-12-17 17:39:20.109375
1044,-28.05,2021-12-17 17:39:20.125000
1045,-23.7,2021-12-17 17:39:20.140625
1046,-19.16,2021-12-17 17:39:20.156250
1047,-14.67,2021-12-17 17:39:20.171875
1048,-10.08,2021-12-17 17:39:20.187500
1049,-5.31,2021-12-17 17:39:20.203125
1050,-0.73,2021-12-17 17:39:20.218750
1051,2.93,2021-12-17 17:39:20.234375
1052,4.88,2021-12-17 17:39:20.250000
1053,4.83,2021-12-17 17:39:20.265625
1054,3.16,2021-12-17 17:39:20.281250
1055,0.92,2021-12-17 17:39:20.296875
1056,-0.73,2021-12-17 17:39:20.312500
1057,-0.95,2021-12-17 17:39:20.328125
1058,0.38,2021-12-17 17:39:20.343750
1059,2.72,2021-12-17 17:39:20.359375
1060,5.13,2021-12-17 17:39:20.375000
1061,6.71,2021-12-17 17:39:20.390625
1062,6.96,2021-12-17 17:39:20.406250
1063,5.91,2021-12-17 17:39:20.421875
1064,4.05,2021-12-17 17:39:20.437500
1065,1.99,2021-12-17 17:39:20.453125
1066,0.18,2021-12-17 17:39:20.468750
1067,-1.31,2021-12-17 17:39:20.484375
1068,-2.82,2021-12-17 17:39:20.500000
1069,-4.83,2021-12-17 17:39:20.515625
1070,-7.79,2021-12-17 17:39:20.531250
1071,-11.83,2021-12-17 17:39:20.546875
1072,-16.71,2021-12-17 17:39:20.562500
1073,-21.77,2021-12-17 17:39:20.578125
1074,-26.14,2021-12-17 17:39:20.593750
1075,-28.86,2021-12-17 17:39:20.609375
1076,-29.15,2021-12-17 17:39:20.625000
1077,-26.58,2021-12-17 17:39:20.640625
1078,-21.16,2021-12-17 17:39:20.656250
1079,-13.37,2021-12-17 17:39:20.671875
1080,-4.06,2021-12-17 17:39:20.687500
1081,5.8,2021-12-17 17:39:20.703125
1082,15.23,2021-12-17 17:39:20.718750
1083,23.52,2021-12-17 17:39:20.734375
1084,30.22,2021-12-17 17:39:20.750000
1085,35.18,2021-12-17 17:39:20.765625
1086,38.48,2021-12-17 17:39:20.781250
1087,40.32,2021-12-17 17:39:20.796875
1088,40.93,2021-12-17 17:39:20.812500
1089,40.55,2021-12-17 17:39:20.828125
1090,39.3,2021-12-17 17:39:20.843750
1091,37.3,2021-12-17 17:39:20.859375
1092,34.63,2021-12-17 17:39:20.875000
1093,31.4,2021-12-17 17:39:20.890625
1094,27.75,2021-12-17 17:39:20.906250
1095,23.89,2021-12-17 17:39:20.921875
1096,20.02,2021-12-17 17:39:20.937500
1097,16.46,2021-12-17 17:39:20.953125
1098,13.48,2021-12-17 17:39:20.968750
1099,11.3,2021-12-17 17:39:20.984375
1100,9.99,2021-12-17 17:39:21.000000
1101,9.36,2021-12-17 17:39:21.015625
1102,9.02,2021-12-17 17:39:21.031250
1103,8.5,2021-12-17 17:39:21.046875
1104,7.47,2021-12-17 17:39:21.062500
1105,5.82,2021-12-17 17:39:21.078125
1106,3.69,2021-12-17 17:39:21.093750
1107,1.39,2021-12-17 17:39:21.109375
1108,-0.82,2021-12-17 17:39:21.125000
1109,-2.85,2021-12-17 17:39:21.140625
1110,-4.77,2021-12-17 17:39:21.156250
1111,-6.79,2021-12-17 17:39:21.171875
1112,-9.17,2021-12-17 17:39:21.187500
1113,-12.11,2021-12-17 17:39:21.203125
1114,-15.7,2021-12-17 17:39:21.218750
1115,-19.87,2021-12-17 17:39:21.234375
1116,-24.28,2021-12-17 17:39:21.250000
1117,-28.38,2021-12-17 17:39:21.265625
1118,-31.41,2021-12-17 17:39:21.281250
1119,-32.63,2021-12-17 17:39:21.296875
1120,-31.53,2021-12-17 17:39:21.312500
1121,-27.93,2021-12-17 17:39:21.328125
1122,-22.1,2021-12-17 17:39:21.343750
1123,-14.62,2021-12-17 17:39:21.359375
1124,-6.27,2021-12-17 17:39:21.375000
1125,2.15,2021-12-17 17:39:21.390625
1126,9.93,2021-12-17 17:39:21.406250
1127,16.54,2021-12-17 17:39:21.421875
1128,21.65,2021-12-17 17:39:21.437500
1129,25.17,2021-12-17 17:39:21.453125
1130,27.17,2021-12-17 17:39:21.468750
1131,27.85,2021-12-17 17:39:21.484375
1132,27.46,2021-12-17 17:39:21.500000
1133,26.23,2021-12-17 17:39:21.515625
1134,24.42,2021-12-17 17:39:21.531250
1135,22.24,2021-12-17 17:39:21.546875
1136,19.92,2021-12-17 17:39:21.562500
1137,17.67,2021-12-17 17:39:21.578125
1138,15.62,2021-12-17 17:39:21.593750
1139,13.86,2021-12-17 17:39:21.609375
1140,12.43,2021-12-17 17:39:21.625000
1141,11.3,2021-12-17 17:39:21.640625
1142,10.46,2021-12-17 17:39:21.656250
1143,9.87,2021-12-17 17:39:21.671875
1144,9.43,2021-12-17 17:39:21.687500
1145,9.03,2021-12-17 17:39:21.703125
1146,8.56,2021-12-17 17:39:21.718750
1147,7.92,2021-12-17 17:39:21.734375
1148,7.11,2021-12-17 17:39:21.750000
1149,6.12,2021-12-17 17:39:21.765625
1150,4.97,2021-12-17 17:39:21.781250
1151,3.59,2021-12-17 17:39:21.796875
1152,1.87,2021-12-17 17:39:21.812500
1153,-0.4,2021-12-17 17:39:21.828125
1154,-3.46,2021-12-17 17:39:21.843750
1155,-7.52,2021-12-17 17:39:21.859375
1156,-12.65,2021-12-17 17:39:21.875000
1157,-18.62,2021-12-17 17:39:21.890625
1158,-24.83,2021-12-17 17:39:21.906250
1159,-30.27,2021-12-17 17:39:21.921875
1160,-33.8,2021-12-17 17:39:21.937500
1161,-34.42,2021-12-17 17:39:21.953125
1162,-31.67,2021-12-17 17:39:21.968750
1163,-25.79,2021-12-17 17:39:21.984375
1164,-17.65,2021-12-17 17:39:22.000000
1165,-8.51,2021-12-17 17:39:22.015625
1166,0.48,2021-12-17 17:39:22.031250
1167,8.43,2021-12-17 17:39:22.046875
1168,14.94,2021-12-17 17:39:22.062500
1169,19.89,2021-12-17 17:39:22.078125
1170,23.33,2021-12-17 17:39:22.093750
1171,25.38,2021-12-17 17:39:22.109375
1172,26.19,2021-12-17 17:39:22.125000
1173,25.94,2021-12-17 17:39:22.140625
1174,24.89,2021-12-17 17:39:22.156250
1175,23.35,2021-12-17 17:39:22.171875
1176,21.58,2021-12-17 17:39:22.187500
1177,19.77,2021-12-17 17:39:22.203125
1178,18.03,2021-12-17 17:39:22.218750
1179,16.42,2021-12-17 17:39:22.234375
1180,15.0,2021-12-17 17:39:22.250000
1181,13.87,2021-12-17 17:39:22.265625
1182,13.13,2021-12-17 17:39:22.281250
1183,12.74,2021-12-17 17:39:22.296875
1184,12.64,2021-12-17 17:39:22.312500
1185,12.6,2021-12-17 17:39:22.328125
1186,12.39,2021-12-17 17:39:22.343750
1187,11.79,2021-12-17 17:39:22.359375
1188,10.72,2021-12-17 17:39:22.375000
1189,9.24,2021-12-17 17:39:22.390625
1190,7.48,2021-12-17 17:39:22.406250
1191,5.62,2021-12-17 17:39:22.421875
1192,3.72,2021-12-17 17:39:22.437500
1193,1.79,2021-12-17 17:39:22.453125
1194,-0.29,2021-12-17 17:39:22.468750
1195,-2.66,2021-12-17 17:39:22.484375
1196,-5.43,2021-12-17 17:39:22.500000
1197,-8.66,2021-12-17 17:39:22.515625
1198,-12.31,2021-12-17 17:39:22.531250
1199,-16.22,2021-12-17 17:39:22.546875
1200,-20.01,2021-12-17 17:39:22.562500
1201,-23.13,2021-12-17 17:39:22.578125
1202,-24.89,2021-12-17 17:39:22.593750
1203,-24.66,2021-12-17 17:39:22.609375
1204,-22.06,2021-12-17 17:39:22.625000
1205,-17.16,2021-12-17 17:39:22.640625
1206,-10.5,2021-12-17 17:39:22.656250
1207,-2.98,2021-12-17 17:39:22.671875
1208,4.43,2021-12-17 17:39:22.687500
1209,10.95,2021-12-17 17:39:22.703125
1210,16.17,2021-12-17 17:39:22.718750
1211,20.05,2021-12-17 17:39:22.734375
1212,22.79,2021-12-17 17:39:22.750000
1213,24.6,2021-12-17 17:39:22.765625
1214,25.61,2021-12-17 17:39:22.781250
1215,25.82,2021-12-17 17:39:22.796875
1216,25.22,2021-12-17 17:39:22.812500
1217,23.92,2021-12-17 17:39:22.828125
1218,22.16,2021-12-17 17:39:22.843750
1219,20.31,2021-12-17 17:39:22.859375
1220,18.71,2021-12-17 17:39:22.875000
1221,17.54,2021-12-17 17:39:22.890625
1222,16.8,2021-12-17 17:39:22.906250
1223,16.33,2021-12-17 17:39:22.921875
1224,15.93,2021-12-17 17:39:22.937500
1225,15.5,2021-12-17 17:39:22.953125
1226,15.07,2021-12-17 17:39:22.968750
1227,14.68,2021-12-17 17:39:22.984375
1228,14.34,2021-12-17 17:39:23.000000
1229,13.93,2021-12-17 17:39:23.015625
1230,13.27,2021-12-17 17:39:23.031250
1231,12.16,2021-12-17 17:39:23.046875
1232,10.55,2021-12-17 17:39:23.062500
1233,8.56,2021-12-17 17:39:23.078125
1234,6.44,2021-12-17 17:39:23.093750
1235,4.39,2021-12-17 17:39:23.109375
1236,2.5,2021-12-17 17:39:23.125000
1237,0.64,2021-12-17 17:39:23.140625
1238,-1.42,2021-12-17 17:39:23.156250
1239,-3.92,2021-12-17 17:39:23.171875
1240,-6.97,2021-12-17 17:39:23.187500
1241,-10.45,2021-12-17 17:39:23.203125
1242,-14.07,2021-12-17 17:39:23.218750
1243,-17.35,2021-12-17 17:39:23.234375
1244,-19.78,2021-12-17 17:39:23.250000
1245,-20.89,2021-12-17 17:39:23.265625
1246,-20.37,2021-12-17 17:39:23.281250
1247,-18.1,2021-12-17 17:39:23.296875
1248,-14.21,2021-12-17 17:39:23.312500
1249,-9.05,2021-12-17 17:39:23.328125
1250,-3.06,2021-12-17 17:39:23.343750
1251,3.18,2021-12-17 17:39:23.359375
1252,9.16,2021-12-17 17:39:23.375000
1253,14.46,2021-12-17 17:39:23.390625
1254,18.82,2021-12-17 17:39:23.406250
1255,22.15,2021-12-17 17:39:23.421875
1256,24.44,2021-12-17 17:39:23.437500
1257,25.78,2021-12-17 17:39:23.453125
1258,26.28,2021-12-17 17:39:23.468750
1259,26.1,2021-12-17 17:39:23.484375
1260,25.47,2021-12-17 17:39:23.500000
1261,24.66,2021-12-17 17:39:23.515625
1262,23.97,2021-12-17 17:39:23.531250
1263,23.62,2021-12-17 17:39:23.546875
1264,23.71,2021-12-17 17:39:23.562500
1265,24.2,2021-12-17 17:39:23.578125
1266,24.99,2021-12-17 17:39:23.593750
1267,25.99,2021-12-17 17:39:23.609375
1268,27.18,2021-12-17 17:39:23.625000
1269,28.62,2021-12-17 17:39:23.640625
1270,30.29,2021-12-17 17:39:23.656250
1271,32.1,2021-12-17 17:39:23.671875
1272,33.82,2021-12-17 17:39:23.687500
1273,35.19,2021-12-17 17:39:23.703125
1274,36.04,2021-12-17 17:39:23.718750
1275,36.37,2021-12-17 17:39:23.734375
1276,36.42,2021-12-17 17:39:23.750000
1277,36.51,2021-12-17 17:39:23.765625
1278,36.9,2021-12-17 17:39:23.781250
1279,37.67,2021-12-17 17:39:23.796875
1280,38.65,2021-12-17 17:39:23.812500
1281,39.5,2021-12-17 17:39:23.828125
1282,39.93,2021-12-17 17:39:23.843750
1283,39.78,2021-12-17 17:39:23.859375
1284,39.22,2021-12-17 17:39:23.875000
1285,38.69,2021-12-17 17:39:23.890625
1286,38.82,2021-12-17 17:39:23.906250
1287,40.16,2021-12-17 17:39:23.921875
1288,43.05,2021-12-17 17:39:23.937500
1289,47.44,2021-12-17 17:39:23.953125
1290,52.91,2021-12-17 17:39:23.968750
1291,58.85,2021-12-17 17:39:23.984375
1292,64.73,2021-12-17 17:39:24.000000
1293,70.27,2021-12-17 17:39:24.015625
1294,75.56,2021-12-17 17:39:24.031250
1295,80.91,2021-12-17 17:39:24.046875
1296,86.72,2021-12-17 17:39:24.062500
1297,93.25,2021-12-17 17:39:24.078125
1298,100.54,2021-12-17 17:39:24.093750
1299,108.4,2021-12-17 17:39:24.109375
1300,116.35,2021-12-17 17:39:24.125000
1301,123.68,2021-12-17 17:39:24.140625
1302,129.42,2021-12-17 17:39:24.156250
1303,132.5,2021-12-17 17:39:24.171875
1304,132.09,2021-12-17 17:39:24.187500
1305,127.96,2021-12-17 17:39:24.203125
1306,120.77,2021-12-17 17:39:24.218750
1307,112.01,2021-12-17 17:39:24.234375
1308,103.5,2021-12-17 17:39:24.250000
1309,96.84,2021-12-17 17:39:24.265625
1310,92.8,2021-12-17 17:39:24.281250
1311,91.12,2021-12-17 17:39:24.296875
1312,90.69,2021-12-17 17:39:24.312500
1313,89.99,2021-12-17 17:39:24.328125
1314,87.55,2021-12-17 17:39:24.343750
1315,82.09,2021-12-17 17:39:24.359375
1316,72.59,2021-12-17 17:39:24.375000
1317,58.39,2021-12-17 17:39:24.390625
1318,39.32,2021-12-17 17:39:24.406250
1319,15.97,2021-12-17 17:39:24.421875
1320,-10.06,2021-12-17 17:39:24.437500
1321,-36.35,2021-12-17 17:39:24.453125
1322,-60.05,2021-12-17 17:39:24.468750
1323,-78.65,2021-12-17 17:39:24.484375
1324,-90.64,2021-12-17 17:39:24.500000
1325,-96.04,2021-12-17 17:39:24.515625
1326,-96.26,2021-12-17 17:39:24.531250
1327,-93.59,2021-12-17 17:39:24.546875
1328,-90.27,2021-12-17 17:39:24.562500
1329,-87.67,2021-12-17 17:39:24.578125
1330,-85.88,2021-12-17 17:39:24.593750
1331,-83.75,2021-12-17 17:39:24.609375
1332,-79.55,2021-12-17 17:39:24.625000
1333,-71.83,2021-12-17 17:39:24.640625
1334,-60.11,2021-12-17 17:39:24.656250
1335,-45.2,2021-12-17 17:39:24.671875
1336,-28.87,2021-12-17 17:39:24.687500
1337,-13.11,2021-12-17 17:39:24.703125
1338,0.56,2021-12-17 17:39:24.718750
1339,11.54,2021-12-17 17:39:24.734375
1340,20.15,2021-12-17 17:39:24.750000
1341,27.2,2021-12-17 17:39:24.765625
1342,33.56,2021-12-17 17:39:24.781250
1343,39.9,2021-12-17 17:39:24.796875
1344,46.64,2021-12-17 17:39:24.812500
1345,53.97,2021-12-17 17:39:24.828125
1346,61.94,2021-12-17 17:39:24.843750
1347,70.4,2021-12-17 17:39:24.859375
1348,78.99,2021-12-17 17:39:24.875000
1349,87.18,2021-12-17 17:39:24.890625
1350,94.38,2021-12-17 17:39:24.906250
1351,100.0,2021-12-17 17:39:24.921875
1352,103.44,2021-12-17 17:39:24.937500
1353,103.9,2021-12-17 17:39:24.953125
1354,100.27,2021-12-17 17:39:24.968750
1355,91.23,2021-12-17 17:39:24.984375
1356,75.79,2021-12-17 17:39:25.000000
1357,53.77,2021-12-17 17:39:25.015625
1358,26.28,2021-12-17 17:39:25.031250
1359,-4.41,2021-12-17 17:39:25.046875
1360,-35.3,2021-12-17 17:39:25.062500
1361,-63.37,2021-12-17 17:39:25.078125
1362,-86.13,2021-12-17 17:39:25.093750
1363,-101.99,2021-12-17 17:39:25.109375
1364,-110.39,2021-12-17 17:39:25.125000
1365,-111.77,2021-12-17 17:39:25.140625
1366,-107.36,2021-12-17 17:39:25.156250
1367,-99.01,2021-12-17 17:39:25.171875
1368,-88.72,2021-12-17 17:39:25.187500
1369,-78.3,2021-12-17 17:39:25.203125
1370,-69.0,2021-12-17 17:39:25.218750
1371,-61.49,2021-12-17 17:39:25.234375
1372,-56.03,2021-12-17 17:39:25.250000
1373,-52.69,2021-12-17 17:39:25.265625
1374,-51.52,2021-12-17 17:39:25.281250
1375,-52.49,2021-12-17 17:39:25.296875
1376,-55.2,2021-12-17 17:39:25.312500
1377,-58.91,2021-12-17 17:39:25.328125
1378,-62.6,2021-12-17 17:39:25.343750
1379,-65.37,2021-12-17 17:39:25.359375
1380,-66.68,2021-12-17 17:39:25.375000
1381,-66.56,2021-12-17 17:39:25.390625
1382,-65.47,2021-12-17 17:39:25.406250
1383,-64.14,2021-12-17 17:39:25.421875
1384,-63.26,2021-12-17 17:39:25.437500
1385,-63.24,2021-12-17 17:39:25.453125
1386,-64.11,2021-12-17 17:39:25.468750
1387,-65.39,2021-12-17 17:39:25.484375
1388,-66.34,2021-12-17 17:39:25.500000
1389,-66.19,2021-12-17 17:39:25.515625
1390,-64.47,2021-12-17 17:39:25.531250
1391,-61.25,2021-12-17 17:39:25.546875
1392,-57.19,2021-12-17 17:39:25.562500
1393,-53.33,2021-12-17 17:39:25.578125
1394,-50.73,2021-12-17 17:39:25.593750
1395,-50.18,2021-12-17 17:39:25.609375
1396,-52.06,2021-12-17 17:39:25.625000
1397,-56.38,2021-12-17 17:39:25.640625
1398,-62.89,2021-12-17 17:39:25.656250
1399,-71.06,2021-12-17 17:39:25.671875
1400,-80.0,2021-12-17 17:39:25.687500
1401,-88.26,2021-12-17 17:39:25.703125
1402,-93.96,2021-12-17 17:39:25.718750
1403,-95.29,2021-12-17 17:39:25.734375
1404,-91.21,2021-12-17 17:39:25.750000
1405,-81.99,2021-12-17 17:39:25.765625
1406,-69.24,2021-12-17 17:39:25.781250
1407,-55.43,2021-12-17 17:39:25.796875
1408,-42.97,2021-12-17 17:39:25.812500
1409,-33.46,2021-12-17 17:39:25.828125
1410,-27.36,2021-12-17 17:39:25.843750
1411,-24.2,2021-12-17 17:39:25.859375
1412,-23.04,2021-12-17 17:39:25.875000
1413,-22.85,2021-12-17 17:39:25.890625
1414,-22.69,2021-12-17 17:39:25.906250
1415,-21.53,2021-12-17 17:39:25.921875
1416,-18.23,2021-12-17 17:39:25.937500
1417,-11.71,2021-12-17 17:39:25.953125
1418,-1.5,2021-12-17 17:39:25.968750
1419,11.73,2021-12-17 17:39:25.984375
1420,26.03,2021-12-17 17:39:26.000000
1421,38.51,2021-12-17 17:39:26.015625
1422,46.33,2021-12-17 17:39:26.031250
1423,47.65,2021-12-17 17:39:26.046875
1424,42.17,2021-12-17 17:39:26.062500
1425,31.2,2021-12-17 17:39:26.078125
1426,16.97,2021-12-17 17:39:26.093750
1427,1.85,2021-12-17 17:39:26.109375
1428,-12.39,2021-12-17 17:39:26.125000
1429,-24.79,2021-12-17 17:39:26.140625
1430,-35.16,2021-12-17 17:39:26.156250
1431,-43.61,2021-12-17 17:39:26.171875
1432,-50.29,2021-12-17 17:39:26.187500
1433,-55.23,2021-12-17 17:39:26.203125
1434,-58.47,2021-12-17 17:39:26.218750
1435,-60.16,2021-12-17 17:39:26.234375
1436,-60.83,2021-12-17 17:39:26.250000
1437,-61.25,2021-12-17 17:39:26.265625
1438,-62.18,2021-12-17 17:39:26.281250
1439,-64.12,2021-12-17 17:39:26.296875
1440,-67.02,2021-12-17 17:39:26.312500
1441,-70.32,2021-12-17 17:39:26.328125
1442,-73.17,2021-12-17 17:39:26.343750
1443,-74.8,2021-12-17 17:39:26.359375
1444,-74.84,2021-12-17 17:39:26.375000
1445,-73.45,2021-12-17 17:39:26.390625
1446,-71.3,2021-12-17 17:39:26.406250
1447,-69.15,2021-12-17 17:39:26.421875
1448,-67.65,2021-12-17 17:39:26.437500
1449,-66.94,2021-12-17 17:39:26.453125
1450,-66.61,2021-12-17 17:39:26.468750
1451,-65.82,2021-12-17 17:39:26.484375
1452,-63.7,2021-12-17 17:39:26.500000
1453,-59.74,2021-12-17 17:39:26.515625
1454,-54.07,2021-12-17 17:39:26.531250
1455,-47.52,2021-12-17 17:39:26.546875
1456,-41.27,2021-12-17 17:39:26.562500
1457,-36.34,2021-12-17 17:39:26.578125
1458,-33.05,2021-12-17 17:39:26.593750
1459,-30.93,2021-12-17 17:39:26.609375
1460,-28.9,2021-12-17 17:39:26.625000
1461,-25.86,2021-12-17 17:39:26.640625
1462,-21.18,2021-12-17 17:39:26.656250
1463,-14.97,2021-12-17 17:39:26.671875
1464,-7.88,2021-12-17 17:39:26.687500
1465,-0.76,2021-12-17 17:39:26.703125
1466,5.8,2021-12-17 17:39:26.718750
1467,11.66,2021-12-17 17:39:26.734375
1468,17.05,2021-12-17 17:39:26.750000
1469,22.39,2021-12-17 17:39:26.765625
1470,27.99,2021-12-17 17:39:26.781250
1471,33.93,2021-12-17 17:39:26.796875
1472,40.0,2021-12-17 17:39:26.812500
1473,45.69,2021-12-17 17:39:26.828125
1474,50.32,2021-12-17 17:39:26.843750
1475,53.1,2021-12-17 17:39:26.859375
1476,53.35,2021-12-17 17:39:26.875000
1477,50.68,2021-12-17 17:39:26.890625
1478,45.23,2021-12-17 17:39:26.906250
1479,37.64,2021-12-17 17:39:26.921875
1480,28.92,2021-12-17 17:39:26.937500
1481,20.19,2021-12-17 17:39:26.953125
1482,12.28,2021-12-17 17:39:26.968750
1483,5.6,2021-12-17 17:39:26.984375
1484,0.18,2021-12-17 17:39:27.000000
1485,-4.2,2021-12-17 17:39:27.015625
1486,-7.76,2021-12-17 17:39:27.031250
1487,-10.62,2021-12-17 17:39:27.046875
1488,-12.75,2021-12-17 17:39:27.062500
1489,-14.11,2021-12-17 17:39:27.078125
1490,-14.71,2021-12-17 17:39:27.093750
1491,-14.61,2021-12-17 17:39:27.109375
1492,-13.98,2021-12-17 17:39:27.125000
1493,-12.92,2021-12-17 17:39:27.140625
1494,-11.49,2021-12-17 17:39:27.156250
1495,-9.66,2021-12-17 17:39:27.171875
1496,-7.42,2021-12-17 17:39:27.187500
1497,-4.9,2021-12-17 17:39:27.203125
1498,-2.42,2021-12-17 17:39:27.218750
1499,-0.57,2021-12-17 17:39:27.234375
1500,-0.03,2021-12-17 17:39:27.250000
1501,-1.41,2021-12-17 17:39:27.265625
1502,-4.9,2021-12-17 17:39:27.281250
1503,-10.1,2021-12-17 17:39:27.296875
1504,-16.06,2021-12-17 17:39:27.312500
1505,-21.53,2021-12-17 17:39:27.328125
1506,-25.4,2021-12-17 17:39:27.343750
1507,-27.09,2021-12-17 17:39:27.359375
1508,-26.73,2021-12-17 17:39:27.375000
1509,-24.99,2021-12-17 17:39:27.390625
1510,-22.77,2021-12-17 17:39:27.406250
1511,-20.74,2021-12-17 17:39:27.421875
1512,-19.23,2021-12-17 17:39:27.437500
1513,-18.22,2021-12-17 17:39:27.453125
1514,-17.65,2021-12-17 17:39:27.468750
1515,-17.57,2021-12-17 17:39:27.484375
1516,-18.19,2021-12-17 17:39:27.500000
1517,-19.75,2021-12-17 17:39:27.515625
1518,-22.25,2021-12-17 17:39:27.531250
1519,-25.36,2021-12-17 17:39:27.546875
1520,-28.39,2021-12-17 17:39:27.562500
1521,-30.54,2021-12-17 17:39:27.578125
1522,-31.27,2021-12-17 17:39:27.593750
1523,-30.43,2021-12-17 17:39:27.609375
1524,-28.38,2021-12-17 17:39:27.625000
1525,-25.7,2021-12-17 17:39:27.640625
1526,-22.89,2021-12-17 17:39:27.656250
1527,-20.08,2021-12-17 17:39:27.671875
1528,-16.91,2021-12-17 17:39:27.687500
1529,-12.65,2021-12-17 17:39:27.703125
1530,-6.38,2021-12-17 17:39:27.718750
1531,2.69,2021-12-17 17:39:27.734375
1532,15.11,2021-12-17 17:39:27.750000
1533,31.07,2021-12-17 17:39:27.765625
1534,50.3,2021-12-17 17:39:27.781250
1535,72.04,2021-12-17 17:39:27.796875
1536,95.0,2021-12-17 17:39:27.812500
1537,117.41,2021-12-17 17:39:27.828125
1538,137.32,2021-12-17 17:39:27.843750
1539,153.01,2021-12-17 17:39:27.859375
1540,163.43,2021-12-17 17:39:27.875000
1541,168.44,2021-12-17 17:39:27.890625
1542,168.61,2021-12-17 17:39:27.906250
1543,164.83,2021-12-17 17:39:27.921875
1544,157.88,2021-12-17 17:39:27.937500
1545,148.2,2021-12-17 17:39:27.953125
1546,136.03,2021-12-17 17:39:27.968750
1547,121.87,2021-12-17 17:39:27.984375
1548,106.86,2021-12-17 17:39:28.000000
1549,92.93,2021-12-17 17:39:28.015625
1550,82.41,2021-12-17 17:39:28.031250
1551,77.29,2021-12-17 17:39:28.046875
1552,78.29,2021-12-17 17:39:28.062500
1553,84.49,2021-12-17 17:39:28.078125
1554,93.46,2021-12-17 17:39:28.093750
1555,102.1,2021-12-17 17:39:28.109375
1556,107.68,2021-12-17 17:39:28.125000
1557,108.7,2021-12-17 17:39:28.140625
1558,105.17,2021-12-17 17:39:28.156250
1559,98.19,2021-12-17 17:39:28.171875
1560,89.16,2021-12-17 17:39:28.187500
1561,79.09,2021-12-17 17:39:28.203125
1562,68.28,2021-12-17 17:39:28.218750
1563,56.49,2021-12-17 17:39:28.234375
1564,43.43,2021-12-17 17:39:28.250000
1565,29.22,2021-12-17 17:39:28.265625
1566,14.53,2021-12-17 17:39:28.281250
1567,0.35,2021-12-17 17:39:28.296875
1568,-12.45,2021-12-17 17:39:28.312500
1569,-23.44,2021-12-17 17:39:28.328125
1570,-32.79,2021-12-17 17:39:28.343750
1571,-40.97,2021-12-17 17:39:28.359375
1572,-48.41,2021-12-17 17:39:28.375000
1573,-55.21,2021-12-17 17:39:28.390625
1574,-61.07,2021-12-17 17:39:28.406250
1575,-65.49,2021-12-17 17:39:28.421875
1576,-68.15,2021-12-17 17:39:28.437500
1577,-69.09,2021-12-17 17:39:28.453125
1578,-68.71,2021-12-17 17:39:28.468750
1579,-67.51,2021-12-17 17:39:28.484375
1580,-65.83,2021-12-17 17:39:28.500000
1581,-63.79,2021-12-17 17:39:28.515625
1582,-61.53,2021-12-17 17:39:28.531250
1583,-59.32,2021-12-17 17:39:28.546875
1584,-57.78,2021-12-17 17:39:28.562500
1585,-57.64,2021-12-17 17:39:28.578125
1586,-59.34,2021-12-17 17:39:28.593750
1587,-62.78,2021-12-17 17:39:28.609375
1588,-67.31,2021-12-17 17:39:28.625000
1589,-72.06,2021-12-17 17:39:28.640625
1590,-76.28,2021-12-17 17:39:28.656250
1591,-79.63,2021-12-17 17:39:28.671875
1592,-81.99,2021-12-17 17:39:28.687500
1593,-83.27,2021-12-17 17:39:28.703125
1594,-83.19,2021-12-17 17:39:28.718750
1595,-81.35,2021-12-17 17:39:28.734375
1596,-77.57,2021-12-17 17:39:28.750000
1597,-72.21,2021-12-17 17:39:28.765625
1598,-66.22,2021-12-17 17:39:28.781250
1599,-60.76,2021-12-17 17:39:28.796875
1600,-56.78,2021-12-17 17:39:28.812500
1601,-54.6,2021-12-17 17:39:28.828125
1602,-53.89,2021-12-17 17:39:28.843750
1603,-54.08,2021-12-17 17:39:28.859375
1604,-54.83,2021-12-17 17:39:28.875000
1605,-56.28,2021-12-17 17:39:28.890625
1606,-59.06,2021-12-17 17:39:28.906250
1607,-63.77,2021-12-17 17:39:28.921875
1608,-70.61,2021-12-17 17:39:28.937500
1609,-79.1,2021-12-17 17:39:28.953125
1610,-88.1,2021-12-17 17:39:28.968750
1611,-96.29,2021-12-17 17:39:28.984375
1612,-102.54,2021-12-17 17:39:29.000000
1613,-106.18,2021-12-17 17:39:29.015625
1614,-106.85,2021-12-17 17:39:29.031250
1615,-104.15,2021-12-17 17:39:29.046875
1616,-97.4,2021-12-17 17:39:29.062500
1617,-85.76,2021-12-17 17:39:29.078125
1618,-68.76,2021-12-17 17:39:29.093750
1619,-46.88,2021-12-17 17:39:29.109375
1620,-21.83,2021-12-17 17:39:29.125000
1621,3.77,2021-12-17 17:39:29.140625
1622,27.15,2021-12-17 17:39:29.156250
1623,45.94,2021-12-17 17:39:29.171875
1624,58.44,2021-12-17 17:39:29.187500
1625,63.48,2021-12-17 17:39:29.203125
1626,60.51,2021-12-17 17:39:29.218750
1627,50.33,2021-12-17 17:39:29.234375
1628,35.93,2021-12-17 17:39:29.250000
1629,22.84,2021-12-17 17:39:29.265625
1630,18.03,2021-12-17 17:39:29.281250
1631,27.43,2021-12-17 17:39:29.296875
1632,53.27,2021-12-17 17:39:29.312500
1633,92.76,2021-12-17 17:39:29.328125
1634,138.99,2021-12-17 17:39:29.343750
1635,183.76,2021-12-17 17:39:29.359375
1636,220.8,2021-12-17 17:39:29.375000
1637,247.59,2021-12-17 17:39:29.390625
1638,265.05,2021-12-17 17:39:29.406250
1639,275.69,2021-12-17 17:39:29.421875
1640,281.6,2021-12-17 17:39:29.437500
1641,283.48,2021-12-17 17:39:29.453125
1642,281.16,2021-12-17 17:39:29.468750
1643,274.69,2021-12-17 17:39:29.484375
1644,264.99,2021-12-17 17:39:29.500000
1645,253.58,2021-12-17 17:39:29.515625
1646,241.47,2021-12-17 17:39:29.531250
1647,228.47,2021-12-17 17:39:29.546875
1648,213.05,2021-12-17 17:39:29.562500
1649,193.24,2021-12-17 17:39:29.578125
1650,167.81,2021-12-17 17:39:29.593750
1651,137.13,2021-12-17 17:39:29.609375
1652,103.22,2021-12-17 17:39:29.625000
1653,68.97,2021-12-17 17:39:29.640625
1654,37.19,2021-12-17 17:39:29.656250
1655,9.69,2021-12-17 17:39:29.671875
1656,-12.96,2021-12-17 17:39:29.687500
1657,-31.08,2021-12-17 17:39:29.703125
1658,-45.23,2021-12-17 17:39:29.718750
1659,-55.73,2021-12-17 17:39:29.734375
1660,-62.61,2021-12-17 17:39:29.750000
1661,-65.81,2021-12-17 17:39:29.765625
1662,-65.58,2021-12-17 17:39:29.781250
1663,-62.59,2021-12-17 17:39:29.796875
1664,-57.8,2021-12-17 17:39:29.812500
1665,-52.05,2021-12-17 17:39:29.828125
1666,-45.81,2021-12-17 17:39:29.843750
1667,-39.13,2021-12-17 17:39:29.859375
1668,-31.87,2021-12-17 17:39:29.875000
1669,-24.18,2021-12-17 17:39:29.890625
1670,-16.61,2021-12-17 17:39:29.906250
1671,-10.1,2021-12-17 17:39:29.921875
1672,-5.57,2021-12-17 17:39:29.937500
1673,-3.4,2021-12-17 17:39:29.953125
1674,-3.16,2021-12-17 17:39:29.968750
1675,-3.71,2021-12-17 17:39:29.984375
1676,-3.63,2021-12-17 17:39:30.000000
1677,-1.8,2021-12-17 17:39:30.015625
1678,2.22,2021-12-17 17:39:30.031250
1679,8.09,2021-12-17 17:39:30.046875
1680,14.94,2021-12-17 17:39:30.062500
1681,21.75,2021-12-17 17:39:30.078125
1682,27.79,2021-12-17 17:39:30.093750
1683,32.79,2021-12-17 17:39:30.109375
1684,36.84,2021-12-17 17:39:30.125000
1685,40.27,2021-12-17 17:39:30.140625
1686,43.32,2021-12-17 17:39:30.156250
1687,46.07,2021-12-17 17:39:30.171875
1688,48.4,2021-12-17 17:39:30.187500
1689,49.98,2021-12-17 17:39:30.203125
1690,50.39,2021-12-17 17:39:30.218750
1691,49.21,2021-12-17 17:39:30.234375
1692,46.07,2021-12-17 17:39:30.250000
1693,40.79,2021-12-17 17:39:30.265625
1694,33.61,2021-12-17 17:39:30.281250
1695,25.26,2021-12-17 17:39:30.296875
1696,16.99,2021-12-17 17:39:30.312500
1697,10.23,2021-12-17 17:39:30.328125
1698,6.11,2021-12-17 17:39:30.343750
1699,4.99,2021-12-17 17:39:30.359375
1700,6.1,2021-12-17 17:39:30.375000
1701,7.74,2021-12-17 17:39:30.390625
1702,7.77,2021-12-17 17:39:30.406250
1703,4.42,2021-12-17 17:39:30.421875
1704,-3.22,2021-12-17 17:39:30.437500
1705,-14.92,2021-12-17 17:39:30.453125
1706,-29.47,2021-12-17 17:39:30.468750
1707,-45.26,2021-12-17 17:39:30.484375
1708,-60.68,2021-12-17 17:39:30.500000
1709,-74.6,2021-12-17 17:39:30.515625
1710,-86.38,2021-12-17 17:39:30.531250
1711,-95.82,2021-12-17 17:39:30.546875
1712,-102.85,2021-12-17 17:39:30.562500
1713,-107.37,2021-12-17 17:39:30.578125
1714,-109.15,2021-12-17 17:39:30.593750
1715,-107.9,2021-12-17 17:39:30.609375
1716,-103.31,2021-12-17 17:39:30.625000
1717,-95.31,2021-12-17 17:39:30.640625
1718,-84.11,2021-12-17 17:39:30.656250
1719,-70.25,2021-12-17 17:39:30.671875
1720,-54.6,2021-12-17 17:39:30.687500
1721,-38.28,2021-12-17 17:39:30.703125
1722,-22.65,2021-12-17 17:39:30.718750
1723,-9.24,2021-12-17 17:39:30.734375
1724,0.43,2021-12-17 17:39:30.750000
1725,5.1,2021-12-17 17:39:30.765625
1726,4.11,2021-12-17 17:39:30.781250
1727,-2.22,2021-12-17 17:39:30.796875
1728,-12.56,2021-12-17 17:39:30.812500
1729,-24.83,2021-12-17 17:39:30.828125
1730,-36.79,2021-12-17 17:39:30.843750
1731,-46.73,2021-12-17 17:39:30.859375
1732,-53.85,2021-12-17 17:39:30.875000
1733,-58.27,2021-12-17 17:39:30.890625
1734,-60.77,2021-12-17 17:39:30.906250
1735,-62.15,2021-12-17 17:39:30.921875
1736,-62.81,2021-12-17 17:39:30.937500
1737,-62.65,2021-12-17 17:39:30.953125
1738,-61.27,2021-12-17 17:39:30.968750
1739,-58.32,2021-12-17 17:39:30.984375
1740,-53.86,2021-12-17 17:39:31.000000
1741,-48.45,2021-12-17 17:39:31.015625
1742,-42.97,2021-12-17 17:39:31.031250
1743,-38.36,2021-12-17 17:39:31.046875
1744,-35.31,2021-12-17 17:39:31.062500
1745,-34.07,2021-12-17 17:39:31.078125
1746,-34.44,2021-12-17 17:39:31.093750
1747,-35.85,2021-12-17 17:39:31.109375
1748,-37.7,2021-12-17 17:39:31.125000
1749,-39.49,2021-12-17 17:39:31.140625
1750,-40.92,2021-12-17 17:39:31.156250
1751,-41.89,2021-12-17 17:39:31.171875
1752,-42.46,2021-12-17 17:39:31.187500
1753,-42.72,2021-12-17 17:39:31.203125
1754,-42.81,2021-12-17 17:39:31.218750
1755,-42.84,2021-12-17 17:39:31.234375
1756,-42.9,2021-12-17 17:39:31.250000
1757,-42.92,2021-12-17 17:39:31.265625
1758,-42.6,2021-12-17 17:39:31.281250
1759,-41.41,2021-12-17 17:39:31.296875
1760,-38.76,2021-12-17 17:39:31.312500
1761,-34.21,2021-12-17 17:39:31.328125
1762,-27.76,2021-12-17 17:39:31.343750
1763,-19.93,2021-12-17 17:39:31.359375
1764,-11.65,2021-12-17 17:39:31.375000
1765,-3.98,2021-12-17 17:39:31.390625
1766,2.27,2021-12-17 17:39:31.406250
1767,6.73,2021-12-17 17:39:31.421875
1768,9.45,2021-12-17 17:39:31.437500
1769,10.78,2021-12-17 17:39:31.453125
1770,11.13,2021-12-17 17:39:31.468750
1771,10.79,2021-12-17 17:39:31.484375
1772,9.95,2021-12-17 17:39:31.500000
1773,8.63,2021-12-17 17:39:31.515625
1774,6.91,2021-12-17 17:39:31.531250
1775,4.84,2021-12-17 17:39:31.546875
1776,2.57,2021-12-17 17:39:31.562500
1777,0.29,2021-12-17 17:39:31.578125
1778,-1.79,2021-12-17 17:39:31.593750
1779,-3.42,2021-12-17 17:39:31.609375
1780,-4.37,2021-12-17 17:39:31.625000
1781,-4.57,2021-12-17 17:39:31.640625
1782,-4.15,2021-12-17 17:39:31.656250
1783,-3.48,2021-12-17 17:39:31.671875
1784,-3.16,2021-12-17 17:39:31.687500
1785,-3.71,2021-12-17 17:39:31.703125
1786,-5.41,2021-12-17 17:39:31.718750
1787,-8.12,2021-12-17 17:39:31.734375
1788,-11.34,2021-12-17 17:39:31.750000
1789,-14.46,2021-12-17 17:39:31.765625
1790,-17.05,2021-12-17 17:39:31.781250
1791,-19.09,2021-12-17 17:39:31.796875
1792,-20.94,2021-12-17 17:39:31.812500
1793,-23.32,2021-12-17 17:39:31.828125
1794,-27.02,2021-12-17 17:39:31.843750
1795,-32.73,2021-12-17 17:39:31.859375
1796,-40.87,2021-12-17 17:39:31.875000
1797,-51.34,2021-12-17 17:39:31.890625
1798,-63.34,2021-12-17 17:39:31.906250
1799,-75.4,2021-12-17 17:39:31.921875
1800,-85.59,2021-12-17 17:39:31.937500
1801,-92.18,2021-12-17 17:39:31.953125
1802,-94.22,2021-12-17 17:39:31.968750
1803,-92.0,2021-12-17 17:39:31.984375
1804,-87.03,2021-12-17 17:39:32.000000
1805,-81.46,2021-12-17 17:39:32.015625
1806,-77.28,2021-12-17 17:39:32.031250
1807,-75.64,2021-12-17 17:39:32.046875
1808,-76.55,2021-12-17 17:39:32.062500
1809,-79.2,2021-12-17 17:39:32.078125
1810,-82.47,2021-12-17 17:39:32.093750
1811,-85.41,2021-12-17 17:39:32.109375
1812,-87.51,2021-12-17 17:39:32.125000
1813,-88.59,2021-12-17 17:39:32.140625
1814,-88.61,2021-12-17 17:39:32.156250
1815,-87.4,2021-12-17 17:39:32.171875
1816,-84.71,2021-12-17 17:39:32.187500
1817,-80.25,2021-12-17 17:39:32.203125
1818,-73.97,2021-12-17 17:39:32.218750
1819,-66.08,2021-12-17 17:39:32.234375
1820,-57.09,2021-12-17 17:39:32.250000
1821,-47.64,2021-12-17 17:39:32.265625
1822,-38.26,2021-12-17 17:39:32.281250
1823,-29.24,2021-12-17 17:39:32.296875
1824,-20.55,2021-12-17 17:39:32.312500
1825,-12.01,2021-12-17 17:39:32.328125
1826,-3.42,2021-12-17 17:39:32.343750
1827,5.19,2021-12-17 17:39:32.359375
1828,13.62,2021-12-17 17:39:32.375000
1829,21.5,2021-12-17 17:39:32.390625
1830,28.53,2021-12-17 17:39:32.406250
1831,34.61,2021-12-17 17:39:32.421875
1832,39.86,2021-12-17 17:39:32.437500
1833,44.39,2021-12-17 17:39:32.453125
1834,48.1,2021-12-17 17:39:32.468750
1835,50.55,2021-12-17 17:39:32.484375
1836,50.99,2021-12-17 17:39:32.500000
1837,48.7,2021-12-17 17:39:32.515625
1838,43.44,2021-12-17 17:39:32.531250
1839,35.69,2021-12-17 17:39:32.546875
1840,26.7,2021-12-17 17:39:32.562500
1841,18.22,2021-12-17 17:39:32.578125
1842,12.0,2021-12-17 17:39:32.593750
1843,9.28,2021-12-17 17:39:32.609375
1844,10.45,2021-12-17 17:39:32.625000
1845,14.85,2021-12-17 17:39:32.640625
1846,20.91,2021-12-17 17:39:32.656250
1847,26.51,2021-12-17 17:39:32.671875
1848,29.57,2021-12-17 17:39:32.687500
1849,28.62,2021-12-17 17:39:32.703125
1850,23.3,2021-12-17 17:39:32.718750
1851,14.42,2021-12-17 17:39:32.734375
1852,3.63,2021-12-17 17:39:32.750000
1853,-7.22,2021-12-17 17:39:32.765625
1854,-16.79,2021-12-17 17:39:32.781250
1855,-24.59,2021-12-17 17:39:32.796875
1856,-30.95,2021-12-17 17:39:32.812500
1857,-36.61,2021-12-17 17:39:32.828125
1858,-42.13,2021-12-17 17:39:32.843750
1859,-47.57,2021-12-17 17:39:32.859375
1860,-52.4,2021-12-17 17:39:32.875000
1861,-55.83,2021-12-17 17:39:32.890625
1862,-57.06,2021-12-17 17:39:32.906250
1863,-55.59,2021-12-17 17:39:32.921875
1864,-51.29,2021-12-17 17:39:32.937500
1865,-44.38,2021-12-17 17:39:32.953125
1866,-35.46,2021-12-17 17:39:32.968750
1867,-25.32,2021-12-17 17:39:32.984375
1868,-14.81,2021-12-17 17:39:33.000000
1869,-4.67,2021-12-17 17:39:33.015625
1870,4.7,2021-12-17 17:39:33.031250
1871,13.18,2021-12-17 17:39:33.046875
1872,20.79,2021-12-17 17:39:33.062500
1873,27.53,2021-12-17 17:39:33.078125
1874,33.06,2021-12-17 17:39:33.093750
1875,36.82,2021-12-17 17:39:33.109375
1876,38.19,2021-12-17 17:39:33.125000
1877,36.76,2021-12-17 17:39:33.140625
1878,32.46,2021-12-17 17:39:33.156250
1879,25.66,2021-12-17 17:39:33.171875
1880,16.96,2021-12-17 17:39:33.187500
1881,7.15,2021-12-17 17:39:33.203125
1882,-2.82,2021-12-17 17:39:33.218750
1883,-11.79,2021-12-17 17:39:33.234375
1884,-18.41,2021-12-17 17:39:33.250000
1885,-21.33,2021-12-17 17:39:33.265625
1886,-19.61,2021-12-17 17:39:33.281250
1887,-13.08,2021-12-17 17:39:33.296875
1888,-2.52,2021-12-17 17:39:33.312500
1889,10.48,2021-12-17 17:39:33.328125
1890,24.02,2021-12-17 17:39:33.343750
1891,36.49,2021-12-17 17:39:33.359375
1892,46.89,2021-12-17 17:39:33.375000
1893,54.91,2021-12-17 17:39:33.390625
1894,60.73,2021-12-17 17:39:33.406250
1895,64.67,2021-12-17 17:39:33.421875
1896,67.02,2021-12-17 17:39:33.437500
1897,67.98,2021-12-17 17:39:33.453125
1898,67.75,2021-12-17 17:39:33.468750
1899,66.59,2021-12-17 17:39:33.484375
1900,64.81,2021-12-17 17:39:33.500000
1901,62.58,2021-12-17 17:39:33.515625
1902,59.84,2021-12-17 17:39:33.531250
1903,56.33,2021-12-17 17:39:33.546875
1904,51.77,2021-12-17 17:39:33.562500
1905,46.09,2021-12-17 17:39:33.578125
1906,39.51,2021-12-17 17:39:33.593750
1907,32.49,2021-12-17 17:39:33.609375
1908,25.53,2021-12-17 17:39:33.625000
1909,19.02,2021-12-17 17:39:33.640625
1910,13.12,2021-12-17 17:39:33.656250
1911,7.87,2021-12-17 17:39:33.671875
1912,3.3,2021-12-17 17:39:33.687500
1913,-0.5,2021-12-17 17:39:33.703125
1914,-3.38,2021-12-17 17:39:33.718750
1915,-5.23,2021-12-17 17:39:33.734375
1916,-6.11,2021-12-17 17:39:33.750000
1917,-6.27,2021-12-17 17:39:33.765625
1918,-6.1,2021-12-17 17:39:33.781250
1919,-6.04,2021-12-17 17:39:33.796875
1920,-6.44,2021-12-17 17:39:33.812500
1921,-7.48,2021-12-17 17:39:33.828125
1922,-9.15,2021-12-17 17:39:33.843750
1923,-11.22,2021-12-17 17:39:33.859375
1924,-13.18,2021-12-17 17:39:33.875000
1925,-14.27,2021-12-17 17:39:33.890625
1926,-13.47,2021-12-17 17:39:33.906250
1927,-9.83,2021-12-17 17:39:33.921875
1928,-2.75,2021-12-17 17:39:33.937500
1929,7.58,2021-12-17 17:39:33.953125
1930,20.03,2021-12-17 17:39:33.968750
1931,32.71,2021-12-17 17:39:33.984375
1932,43.52,2021-12-17 17:39:34.000000
1933,50.83,2021-12-17 17:39:34.015625
1934,53.95,2021-12-17 17:39:34.031250
1935,53.21,2021-12-17 17:39:34.046875
1936,49.64,2021-12-17 17:39:34.062500
1937,44.41,2021-12-17 17:39:34.078125
1938,38.5,2021-12-17 17:39:34.093750
1939,32.53,2021-12-17 17:39:34.109375
1940,26.86,2021-12-17 17:39:34.125000
1941,21.84,2021-12-17 17:39:34.140625
1942,17.81,2021-12-17 17:39:34.156250
1943,15.03,2021-12-17 17:39:34.171875
1944,13.6,2021-12-17 17:39:34.187500
1945,13.3,2021-12-17 17:39:34.203125
1946,13.77,2021-12-17 17:39:34.218750
1947,14.68,2021-12-17 17:39:34.234375
1948,15.98,2021-12-17 17:39:34.250000
1949,17.87,2021-12-17 17:39:34.265625
1950,20.73,2021-12-17 17:39:34.281250
1951,24.82,2021-12-17 17:39:34.296875
1952,30.14,2021-12-17 17:39:34.312500
1953,36.31,2021-12-17 17:39:34.328125
1954,42.7,2021-12-17 17:39:34.343750
1955,48.52,2021-12-17 17:39:34.359375
1956,53.07,2021-12-17 17:39:34.375000
1957,55.78,2021-12-17 17:39:34.390625
1958,56.33,2021-12-17 17:39:34.406250
1959,54.53,2021-12-17 17:39:34.421875
1960,50.36,2021-12-17 17:39:34.437500
1961,43.99,2021-12-17 17:39:34.453125
1962,35.75,2021-12-17 17:39:34.468750
1963,26.09,2021-12-17 17:39:34.484375
1964,15.5,2021-12-17 17:39:34.500000
1965,4.37,2021-12-17 17:39:34.515625
1966,-7.01,2021-12-17 17:39:34.531250
1967,-18.24,2021-12-17 17:39:34.546875
1968,-28.71,2021-12-17 17:39:34.562500
1969,-37.51,2021-12-17 17:39:34.578125
1970,-43.63,2021-12-17 17:39:34.593750
1971,-46.27,2021-12-17 17:39:34.609375
1972,-45.24,2021-12-17 17:39:34.625000
1973,-41.09,2021-12-17 17:39:34.640625
1974,-35.03,2021-12-17 17:39:34.656250
1975,-28.47,2021-12-17 17:39:34.671875
1976,-22.6,2021-12-17 17:39:34.687500
1977,-18.15,2021-12-17 17:39:34.703125
1978,-15.33,2021-12-17 17:39:34.718750
1979,-14.01,2021-12-17 17:39:34.734375
1980,-13.91,2021-12-17 17:39:34.750000
1981,-14.61,2021-12-17 17:39:34.765625
1982,-15.58,2021-12-17 17:39:34.781250
1983,-16.12,2021-12-17 17:39:34.796875
1984,-15.5,2021-12-17 17:39:34.812500
1985,-13.18,2021-12-17 17:39:34.828125
1986,-8.99,2021-12-17 17:39:34.843750
1987,-3.2,2021-12-17 17:39:34.859375
1988,3.55,2021-12-17 17:39:34.875000
1989,10.37,2021-12-17 17:39:34.890625
1990,16.43,2021-12-17 17:39:34.906250
1991,21.12,2021-12-17 17:39:34.921875
1992,24.22,2021-12-17 17:39:34.937500
1993,25.89,2021-12-17 17:39:34.953125
1994,26.56,2021-12-17 17:39:34.968750
1995,26.75,2021-12-17 17:39:34.984375
1996,26.78,2021-12-17 17:39:35.000000
1997,26.74,2021-12-17 17:39:35.015625
1998,26.5,2021-12-17 17:39:35.031250
1999,25.87,2021-12-17 17:39:35.046875
2000,24.76,2021-12-17 17:39:35.062500
2001,23.25,2021-12-17 17:39:35.078125
2002,21.57,2021-12-17 17:39:35.093750
2003,19.87,2021-12-17 17:39:35.109375
2004,18.11,2021-12-17 17:39:35.125000
2005,16.02,2021-12-17 17:39:35.140625
2006,13.16,2021-12-17 17:39:35.156250
2007,9.1,2021-12-17 17:39:35.171875
2008,3.68,2021-12-17 17:39:35.187500
2009,-2.91,2021-12-17 17:39:35.203125
2010,-10.02,2021-12-17 17:39:35.218750
2011,-16.66,2021-12-17 17:39:35.234375
2012,-21.67,2021-12-17 17:39:35.250000
2013,-24.06,2021-12-17 17:39:35.265625
2014,-23.27,2021-12-17 17:39:35.281250
2015,-19.32,2021-12-17 17:39:35.296875
2016,-12.71,2021-12-17 17:39:35.312500
2017,-4.23,2021-12-17 17:39:35.328125
2018,5.27,2021-12-17 17:39:35.343750
2019,15.02,2021-12-17 17:39:35.359375
2020,24.41,2021-12-17 17:39:35.375000
2021,32.93,2021-12-17 17:39:35.390625
2022,40.18,2021-12-17 17:39:35.406250
2023,45.89,2021-12-17 17:39:35.421875
2024,50.01,2021-12-17 17:39:35.437500
2025,52.61,2021-12-17 17:39:35.453125
2026,53.92,2021-12-17 17:39:35.468750
2027,54.06,2021-12-17 17:39:35.484375
2028,53.08,2021-12-17 17:39:35.500000
2029,50.85,2021-12-17 17:39:35.515625
2030,47.26,2021-12-17 17:39:35.531250
2031,42.33,2021-12-17 17:39:35.546875
2032,36.3,2021-12-17 17:39:35.562500
2033,29.62,2021-12-17 17:39:35.578125
2034,22.89,2021-12-17 17:39:35.593750
2035,16.68,2021-12-17 17:39:35.609375
2036,11.44,2021-12-17 17:39:35.625000
2037,7.32,2021-12-17 17:39:35.640625
2038,4.14,2021-12-17 17:39:35.656250
2039,1.48,2021-12-17 17:39:35.671875
2040,-1.15,2021-12-17 17:39:35.687500
2041,-4.13,2021-12-17 17:39:35.703125
2042,-7.41,2021-12-17 17:39:35.718750
2043,-10.52,2021-12-17 17:39:35.734375
2044,-12.71,2021-12-17 17:39:35.750000
2045,-13.23,2021-12-17 17:39:35.765625
2046,-11.88,2021-12-17 17:39:35.781250
2047,-9.23,2021-12-17 17:39:35.796875
2048,-6.6,2021-12-17 17:39:35.812500
2049,-5.56,2021-12-17 17:39:35.828125
2050,-7.36,2021-12-17 17:39:35.843750
2051,-12.48,2021-12-17 17:39:35.859375
2052,-20.4,2021-12-17 17:39:35.875000
2053,-29.91,2021-12-17 17:39:35.890625
2054,-39.53,2021-12-17 17:39:35.906250
2055,-47.87,2021-12-17 17:39:35.921875
2056,-53.89,2021-12-17 17:39:35.937500
2057,-56.94,2021-12-17 17:39:35.953125
2058,-56.79,2021-12-17 17:39:35.968750
2059,-53.53,2021-12-17 17:39:35.984375
2060,-47.72,2021-12-17 17:39:36.000000
2061,-40.25,2021-12-17 17:39:36.015625
2062,-32.27,2021-12-17 17:39:36.031250
2063,-24.89,2021-12-17 17:39:36.046875
2064,-18.91,2021-12-17 17:39:36.062500
2065,-14.69,2021-12-17 17:39:36.078125
2066,-12.16,2021-12-17 17:39:36.093750
2067,-10.9,2021-12-17 17:39:36.109375
2068,-10.33,2021-12-17 17:39:36.125000
2069,-9.9,2021-12-17 17:39:36.140625
2070,-9.19,2021-12-17 17:39:36.156250
2071,-8.04,2021-12-17 17:39:36.171875
2072,-6.56,2021-12-17 17:39:36.187500
2073,-5.04,2021-12-17 17:39:36.203125
2074,-3.78,2021-12-17 17:39:36.218750
2075,-2.91,2021-12-17 17:39:36.234375
2076,-2.33,2021-12-17 17:39:36.250000
2077,-1.72,2021-12-17 17:39:36.265625
2078,-0.76,2021-12-17 17:39:36.281250
2079,0.66,2021-12-17 17:39:36.296875
2080,2.38,2021-12-17 17:39:36.312500
2081,4.0,2021-12-17 17:39:36.328125
2082,5.08,2021-12-17 17:39:36.343750
2083,5.33,2021-12-17 17:39:36.359375
2084,4.75,2021-12-17 17:39:36.375000
2085,3.64,2021-12-17 17:39:36.390625
2086,2.37,2021-12-17 17:39:36.406250
2087,1.25,2021-12-17 17:39:36.421875
2088,0.41,2021-12-17 17:39:36.437500
2089,-0.32,2021-12-17 17:39:36.453125
2090,-1.25,2021-12-17 17:39:36.468750
2091,-2.73,2021-12-17 17:39:36.484375
2092,-4.98,2021-12-17 17:39:36.500000
2093,-8.11,2021-12-17 17:39:36.515625
2094,-12.12,2021-12-17 17:39:36.531250
2095,-16.97,2021-12-17 17:39:36.546875
2096,-22.54,2021-12-17 17:39:36.562500
2097,-28.52,2021-12-17 17:39:36.578125
2098,-34.33,2021-12-17 17:39:36.593750
2099,-39.14,2021-12-17 17:39:36.609375
2100,-42.06,2021-12-17 17:39:36.625000
2101,-42.43,2021-12-17 17:39:36.640625
2102,-40.03,2021-12-17 17:39:36.656250
2103,-35.16,2021-12-17 17:39:36.671875
2104,-28.5,2021-12-17 17:39:36.687500
2105,-20.9,2021-12-17 17:39:36.703125
2106,-13.15,2021-12-17 17:39:36.718750
2107,-5.85,2021-12-17 17:39:36.734375
2108,0.53,2021-12-17 17:39:36.750000
2109,5.69,2021-12-17 17:39:36.765625
2110,9.41,2021-12-17 17:39:36.781250
2111,11.59,2021-12-17 17:39:36.796875
2112,12.32,2021-12-17 17:39:36.812500
2113,11.81,2021-12-17 17:39:36.828125
2114,10.38,2021-12-17 17:39:36.843750
2115,8.36,2021-12-17 17:39:36.859375
2116,6.05,2021-12-17 17:39:36.875000
2117,3.72,2021-12-17 17:39:36.890625
2118,1.66,2021-12-17 17:39:36.906250
2119,0.17,2021-12-17 17:39:36.921875
2120,-0.54,2021-12-17 17:39:36.937500
2121,-0.4,2021-12-17 17:39:36.953125
2122,0.39,2021-12-17 17:39:36.968750
2123,1.51,2021-12-17 17:39:36.984375
2124,2.59,2021-12-17 17:39:37.000000
2125,3.37,2021-12-17 17:39:37.015625
2126,3.78,2021-12-17 17:39:37.031250
2127,3.86,2021-12-17 17:39:37.046875
2128,3.64,2021-12-17 17:39:37.062500
2129,3.08,2021-12-17 17:39:37.078125
2130,2.07,2021-12-17 17:39:37.093750
2131,0.48,2021-12-17 17:39:37.109375
2132,-1.64,2021-12-17 17:39:37.125000
2133,-4.09,2021-12-17 17:39:37.140625
2134,-6.64,2021-12-17 17:39:37.156250
2135,-9.12,2021-12-17 17:39:37.171875
2136,-11.63,2021-12-17 17:39:37.187500
2137,-14.44,2021-12-17 17:39:37.203125
2138,-17.92,2021-12-17 17:39:37.218750
2139,-22.2,2021-12-17 17:39:37.234375
2140,-27.06,2021-12-17 17:39:37.250000
2141,-31.8,2021-12-17 17:39:37.265625
2142,-35.41,2021-12-17 17:39:37.281250
2143,-36.91,2021-12-17 17:39:37.296875
2144,-35.62,2021-12-17 17:39:37.312500
2145,-31.48,2021-12-17 17:39:37.328125
2146,-25.04,2021-12-17 17:39:37.343750
2147,-17.26,2021-12-17 17:39:37.359375
2148,-9.23,2021-12-17 17:39:37.375000
2149,-1.86,2021-12-17 17:39:37.390625
2150,4.35,2021-12-17 17:39:37.406250
2151,9.26,2021-12-17 17:39:37.421875
2152,12.96,2021-12-17 17:39:37.437500
2153,15.62,2021-12-17 17:39:37.453125
2154,17.32,2021-12-17 17:39:37.468750
2155,18.13,2021-12-17 17:39:37.484375
2156,18.06,2021-12-17 17:39:37.500000
2157,17.29,2021-12-17 17:39:37.515625
2158,16.1,2021-12-17 17:39:37.531250
2159,14.84,2021-12-17 17:39:37.546875
2160,13.79,2021-12-17 17:39:37.562500
2161,13.07,2021-12-17 17:39:37.578125
2162,12.58,2021-12-17 17:39:37.593750
2163,12.11,2021-12-17 17:39:37.609375
2164,11.48,2021-12-17 17:39:37.625000
2165,10.67,2021-12-17 17:39:37.640625
2166,9.83,2021-12-17 17:39:37.656250
2167,9.15,2021-12-17 17:39:37.671875
2168,8.69,2021-12-17 17:39:37.687500
2169,8.3,2021-12-17 17:39:37.703125
2170,7.63,2021-12-17 17:39:37.718750
2171,6.37,2021-12-17 17:39:37.734375
2172,4.41,2021-12-17 17:39:37.750000
2173,1.91,2021-12-17 17:39:37.765625
2174,-0.78,2021-12-17 17:39:37.781250
2175,-3.35,2021-12-17 17:39:37.796875
2176,-5.66,2021-12-17 17:39:37.812500
2177,-7.86,2021-12-17 17:39:37.828125
2178,-10.21,2021-12-17 17:39:37.843750
2179,-12.96,2021-12-17 17:39:37.859375
2180,-16.15,2021-12-17 17:39:37.875000
2181,-19.64,2021-12-17 17:39:37.890625
2182,-23.12,2021-12-17 17:39:37.906250
2183,-26.25,2021-12-17 17:39:37.921875
2184,-28.64,2021-12-17 17:39:37.937500
2185,-29.97,2021-12-17 17:39:37.953125
2186,-29.92,2021-12-17 17:39:37.968750
2187,-28.21,2021-12-17 17:39:37.984375
2188,-24.75,2021-12-17 17:39:38.000000
2189,-19.64,2021-12-17 17:39:38.015625
2190,-13.29,2021-12-17 17:39:38.031250
2191,-6.33,2021-12-17 17:39:38.046875
2192,0.51,2021-12-17 17:39:38.062500
2193,6.55,2021-12-17 17:39:38.078125
2194,11.29,2021-12-17 17:39:38.093750
2195,14.5,2021-12-17 17:39:38.109375
2196,16.24,2021-12-17 17:39:38.125000
2197,16.7,2021-12-17 17:39:38.140625
2198,16.13,2021-12-17 17:39:38.156250
2199,14.8,2021-12-17 17:39:38.171875
2200,12.9,2021-12-17 17:39:38.187500
2201,10.56,2021-12-17 17:39:38.203125
2202,7.96,2021-12-17 17:39:38.218750
2203,5.28,2021-12-17 17:39:38.234375
2204,2.75,2021-12-17 17:39:38.250000
2205,0.58,2021-12-17 17:39:38.265625
2206,-1.08,2021-12-17 17:39:38.281250
2207,-2.24,2021-12-17 17:39:38.296875
2208,-3.01,2021-12-17 17:39:38.312500
2209,-3.61,2021-12-17 17:39:38.328125
2210,-4.25,2021-12-17 17:39:38.343750
2211,-5.16,2021-12-17 17:39:38.359375
2212,-6.49,2021-12-17 17:39:38.375000
2213,-8.35,2021-12-17 17:39:38.390625
2214,-10.73,2021-12-17 17:39:38.406250
2215,-13.53,2021-12-17 17:39:38.421875
2216,-16.49,2021-12-17 17:39:38.437500
2217,-19.31,2021-12-17 17:39:38.453125
2218,-21.7,2021-12-17 17:39:38.468750
2219,-23.5,2021-12-17 17:39:38.484375
2220,-24.82,2021-12-17 17:39:38.500000
2221,-25.98,2021-12-17 17:39:38.515625
2222,-27.5,2021-12-17 17:39:38.531250
2223,-29.89,2021-12-17 17:39:38.546875
2224,-33.49,2021-12-17 17:39:38.562500
2225,-38.34,2021-12-17 17:39:38.578125
2226,-44.09,2021-12-17 17:39:38.593750
2227,-50.07,2021-12-17 17:39:38.609375
2228,-55.47,2021-12-17 17:39:38.625000
2229,-59.51,2021-12-17 17:39:38.640625
2230,-61.66,2021-12-17 17:39:38.656250
2231,-61.73,2021-12-17 17:39:38.671875
2232,-59.69,2021-12-17 17:39:38.687500
2233,-55.67,2021-12-17 17:39:38.703125
2234,-49.7,2021-12-17 17:39:38.718750
2235,-41.77,2021-12-17 17:39:38.734375
2236,-31.94,2021-12-17 17:39:38.750000
2237,-20.45,2021-12-17 17:39:38.765625
2238,-7.95,2021-12-17 17:39:38.781250
2239,4.34,2021-12-17 17:39:38.796875
2240,14.72,2021-12-17 17:39:38.812500
2241,21.31,2021-12-17 17:39:38.828125
2242,22.61,2021-12-17 17:39:38.843750
2243,18.2,2021-12-17 17:39:38.859375
2244,9.18,2021-12-17 17:39:38.875000
2245,-1.94,2021-12-17 17:39:38.890625
2246,-11.91,2021-12-17 17:39:38.906250
2247,-17.82,2021-12-17 17:39:38.921875
2248,-18.13,2021-12-17 17:39:38.937500
2249,-13.09,2021-12-17 17:39:38.953125
2250,-4.46,2021-12-17 17:39:38.968750
2251,5.38,2021-12-17 17:39:38.984375
2252,14.23,2021-12-17 17:39:39.000000
2253,20.63,2021-12-17 17:39:39.015625
2254,23.87,2021-12-17 17:39:39.031250
2255,23.71,2021-12-17 17:39:39.046875
2256,20.15,2021-12-17 17:39:39.062500
2257,13.43,2021-12-17 17:39:39.078125
2258,4.11,2021-12-17 17:39:39.093750
2259,-6.75,2021-12-17 17:39:39.109375
2260,-17.82,2021-12-17 17:39:39.125000
2261,-27.83,2021-12-17 17:39:39.140625
2262,-35.92,2021-12-17 17:39:39.156250
2263,-41.84,2021-12-17 17:39:39.171875
2264,-45.94,2021-12-17 17:39:39.187500
2265,-48.94,2021-12-17 17:39:39.203125
2266,-51.62,2021-12-17 17:39:39.218750
2267,-54.53,2021-12-17 17:39:39.234375
2268,-57.81,2021-12-17 17:39:39.250000
2269,-61.12,2021-12-17 17:39:39.265625
2270,-63.73,2021-12-17 17:39:39.281250
2271,-64.7,2021-12-17 17:39:39.296875
2272,-63.25,2021-12-17 17:39:39.312500
2273,-58.98,2021-12-17 17:39:39.328125
2274,-52.05,2021-12-17 17:39:39.343750
2275,-43.15,2021-12-17 17:39:39.359375
2276,-33.24,2021-12-17 17:39:39.375000
2277,-23.28,2021-12-17 17:39:39.390625
2278,-13.96,2021-12-17 17:39:39.406250
2279,-5.67,2021-12-17 17:39:39.421875
2280,1.46,2021-12-17 17:39:39.437500
2281,7.42,2021-12-17 17:39:39.453125
2282,12.15,2021-12-17 17:39:39.468750
2283,15.63,2021-12-17 17:39:39.484375
2284,17.82,2021-12-17 17:39:39.500000
2285,18.77,2021-12-17 17:39:39.515625
2286,18.65,2021-12-17 17:39:39.531250
2287,17.74,2021-12-17 17:39:39.546875
2288,16.29,2021-12-17 17:39:39.562500
2289,14.55,2021-12-17 17:39:39.578125
2290,12.67,2021-12-17 17:39:39.593750
2291,10.79,2021-12-17 17:39:39.609375
2292,9.1,2021-12-17 17:39:39.625000
2293,7.75,2021-12-17 17:39:39.640625
2294,6.84,2021-12-17 17:39:39.656250
2295,6.32,2021-12-17 17:39:39.671875
2296,6.01,2021-12-17 17:39:39.687500
2297,5.62,2021-12-17 17:39:39.703125
2298,4.92,2021-12-17 17:39:39.718750
2299,3.94,2021-12-17 17:39:39.734375
2300,2.92,2021-12-17 17:39:39.750000
2301,2.25,2021-12-17 17:39:39.765625
2302,2.21,2021-12-17 17:39:39.781250
2303,2.8,2021-12-17 17:39:39.796875
2304,3.74,2021-12-17 17:39:39.812500
2305,4.56,2021-12-17 17:39:39.828125
2306,4.78,2021-12-17 17:39:39.843750
2307,4.01,2021-12-17 17:39:39.859375
2308,1.99,2021-12-17 17:39:39.875000
2309,-1.5,2021-12-17 17:39:39.890625
2310,-6.53,2021-12-17 17:39:39.906250
2311,-12.92,2021-12-17 17:39:39.921875
2312,-20.06,2021-12-17 17:39:39.937500
2313,-26.87,2021-12-17 17:39:39.953125
2314,-32.02,2021-12-17 17:39:39.968750
2315,-34.13,2021-12-17 17:39:39.984375
2316,-32.11,2021-12-17 17:39:40.000000
2317,-25.21,2021-12-17 17:39:40.015625
2318,-13.02,2021-12-17 17:39:40.031250
2319,4.56,2021-12-17 17:39:40.046875
2320,27.27,2021-12-17 17:39:40.062500
2321,54.24,2021-12-17 17:39:40.078125
2322,83.8,2021-12-17 17:39:40.093750
2323,113.43,2021-12-17 17:39:40.109375
2324,140.15,2021-12-17 17:39:40.125000
2325,161.03,2021-12-17 17:39:40.140625
2326,173.84,2021-12-17 17:39:40.156250
2327,177.46,2021-12-17 17:39:40.171875
2328,171.96,2021-12-17 17:39:40.187500
2329,158.38,2021-12-17 17:39:40.203125
2330,138.44,2021-12-17 17:39:40.218750
2331,114.28,2021-12-17 17:39:40.234375
2332,88.33,2021-12-17 17:39:40.250000
2333,63.23,2021-12-17 17:39:40.265625
2334,41.74,2021-12-17 17:39:40.281250
2335,26.34,2021-12-17 17:39:40.296875
2336,18.75,2021-12-17 17:39:40.312500
2337,19.43,2021-12-17 17:39:40.328125
2338,27.33,2021-12-17 17:39:40.343750
2339,40.25,2021-12-17 17:39:40.359375
2340,55.52,2021-12-17 17:39:40.375000
2341,71.0,2021-12-17 17:39:40.390625
2342,85.8,2021-12-17 17:39:40.406250
2343,100.52,2021-12-17 17:39:40.421875
2344,116.78,2021-12-17 17:39:40.437500
2345,136.38,2021-12-17 17:39:40.453125
2346,160.29,2021-12-17 17:39:40.468750
2347,188.01,2021-12-17 17:39:40.484375
2348,217.46,2021-12-17 17:39:40.500000
2349,245.31,2021-12-17 17:39:40.515625
2350,267.78,2021-12-17 17:39:40.531250
2351,281.42,2021-12-17 17:39:40.546875
2352,283.85,2021-12-17 17:39:40.562500
2353,274.05,2021-12-17 17:39:40.578125
2354,252.49,2021-12-17 17:39:40.593750
2355,221.09,2021-12-17 17:39:40.609375
2356,182.99,2021-12-17 17:39:40.625000
2357,142.23,2021-12-17 17:39:40.640625
2358,103.27,2021-12-17 17:39:40.656250
2359,70.2,2021-12-17 17:39:40.671875
2360,45.87,2021-12-17 17:39:40.687500
2361,31.22,2021-12-17 17:39:40.703125
2362,25.03,2021-12-17 17:39:40.718750
2363,24.48,2021-12-17 17:39:40.734375
2364,26.18,2021-12-17 17:39:40.750000
2365,27.3,2021-12-17 17:39:40.765625
2366,26.36,2021-12-17 17:39:40.781250
2367,23.32,2021-12-17 17:39:40.796875
2368,19.04,2021-12-17 17:39:40.812500
2369,14.43,2021-12-17 17:39:40.828125
2370,9.91,2021-12-17 17:39:40.843750
2371,5.32,2021-12-17 17:39:40.859375
2372,0.18,2021-12-17 17:39:40.875000
2373,-5.79,2021-12-17 17:39:40.890625
2374,-12.48,2021-12-17 17:39:40.906250
2375,-19.29,2021-12-17 17:39:40.921875
2376,-25.56,2021-12-17 17:39:40.937500
2377,-30.88,2021-12-17 17:39:40.953125
2378,-35.31,2021-12-17 17:39:40.968750
2379,-39.33,2021-12-17 17:39:40.984375
2380,-43.49,2021-12-17 17:39:41.000000
2381,-48.1,2021-12-17 17:39:41.015625
2382,-52.99,2021-12-17 17:39:41.031250
2383,-57.61,2021-12-17 17:39:41.046875
2384,-61.27,2021-12-17 17:39:41.062500
2385,-63.61,2021-12-17 17:39:41.078125
2386,-64.76,2021-12-17 17:39:41.093750
2387,-65.29,2021-12-17 17:39:41.109375
2388,-65.82,2021-12-17 17:39:41.125000
2389,-66.7,2021-12-17 17:39:41.140625
2390,-67.76,2021-12-17 17:39:41.156250
2391,-68.42,2021-12-17 17:39:41.171875
2392,-68.07,2021-12-17 17:39:41.187500
2393,-66.43,2021-12-17 17:39:41.203125
2394,-63.65,2021-12-17 17:39:41.218750
2395,-60.31,2021-12-17 17:39:41.234375
2396,-56.95,2021-12-17 17:39:41.250000
2397,-53.75,2021-12-17 17:39:41.265625
2398,-50.48,2021-12-17 17:39:41.281250
2399,-46.63,2021-12-17 17:39:41.296875
2400,-41.8,2021-12-17 17:39:41.312500
2401,-36.05,2021-12-17 17:39:41.328125
2402,-30.01,2021-12-17 17:39:41.343750
2403,-24.67,2021-12-17 17:39:41.359375
2404,-21.04,2021-12-17 17:39:41.375000
2405,-19.75,2021-12-17 17:39:41.390625
2406,-20.9,2021-12-17 17:39:41.406250
2407,-24.09,2021-12-17 17:39:41.421875
2408,-28.64,2021-12-17 17:39:41.437500
2409,-33.82,2021-12-17 17:39:41.453125
2410,-39.04,2021-12-17 17:39:41.468750
2411,-43.89,2021-12-17 17:39:41.484375
2412,-48.14,2021-12-17 17:39:41.500000
2413,-51.84,2021-12-17 17:39:41.515625
2414,-55.3,2021-12-17 17:39:41.531250
2415,-59.14,2021-12-17 17:39:41.546875
2416,-64.13,2021-12-17 17:39:41.562500
2417,-70.93,2021-12-17 17:39:41.578125
2418,-79.61,2021-12-17 17:39:41.593750
2419,-89.58,2021-12-17 17:39:41.609375
2420,-99.51,2021-12-17 17:39:41.625000
2421,-107.78,2021-12-17 17:39:41.640625
2422,-113.02,2021-12-17 17:39:41.656250
2423,-114.57,2021-12-17 17:39:41.671875
2424,-112.55,2021-12-17 17:39:41.687500
2425,-107.7,2021-12-17 17:39:41.703125
2426,-101.01,2021-12-17 17:39:41.718750
2427,-93.35,2021-12-17 17:39:41.734375
2428,-85.39,2021-12-17 17:39:41.750000
2429,-77.63,2021-12-17 17:39:41.765625
2430,-70.51,2021-12-17 17:39:41.781250
2431,-64.46,2021-12-17 17:39:41.796875
2432,-59.82,2021-12-17 17:39:41.812500
2433,-56.68,2021-12-17 17:39:41.828125
2434,-54.84,2021-12-17 17:39:41.843750
2435,-53.87,2021-12-17 17:39:41.859375
2436,-53.35,2021-12-17 17:39:41.875000
2437,-52.94,2021-12-17 17:39:41.890625
2438,-52.39,2021-12-17 17:39:41.906250
2439,-51.42,2021-12-17 17:39:41.921875
2440,-49.68,2021-12-17 17:39:41.937500
2441,-46.79,2021-12-17 17:39:41.953125
2442,-42.48,2021-12-17 17:39:41.968750
2443,-36.78,2021-12-17 17:39:41.984375
2444,-29.99,2021-12-17 17:39:42.000000
2445,-22.57,2021-12-17 17:39:42.015625
2446,-14.93,2021-12-17 17:39:42.031250
2447,-7.34,2021-12-17 17:39:42.046875
2448,0.05,2021-12-17 17:39:42.062500
2449,6.96,2021-12-17 17:39:42.078125
2450,12.89,2021-12-17 17:39:42.093750
2451,17.16,2021-12-17 17:39:42.109375
2452,19.22,2021-12-17 17:39:42.125000
2453,18.96,2021-12-17 17:39:42.140625
2454,16.86,2021-12-17 17:39:42.156250
2455,13.93,2021-12-17 17:39:42.171875
2456,11.21,2021-12-17 17:39:42.187500
2457,9.47,2021-12-17 17:39:42.203125
2458,8.95,2021-12-17 17:39:42.218750
2459,9.41,2021-12-17 17:39:42.234375
2460,10.42,2021-12-17 17:39:42.250000
2461,11.62,2021-12-17 17:39:42.265625
2462,12.93,2021-12-17 17:39:42.281250
2463,14.5,2021-12-17 17:39:42.296875
2464,16.57,2021-12-17 17:39:42.312500
2465,19.32,2021-12-17 17:39:42.328125
2466,22.8,2021-12-17 17:39:42.343750
2467,26.91,2021-12-17 17:39:42.359375
2468,31.6,2021-12-17 17:39:42.375000
2469,36.91,2021-12-17 17:39:42.390625
2470,42.92,2021-12-17 17:39:42.406250
2471,49.67,2021-12-17 17:39:42.421875
2472,56.92,2021-12-17 17:39:42.437500
2473,64.1,2021-12-17 17:39:42.453125
2474,70.33,2021-12-17 17:39:42.468750
2475,74.65,2021-12-17 17:39:42.484375
2476,76.34,2021-12-17 17:39:42.500000
2477,75.06,2021-12-17 17:39:42.515625
2478,71.01,2021-12-17 17:39:42.531250
2479,64.75,2021-12-17 17:39:42.546875
2480,57.05,2021-12-17 17:39:42.562500
2481,48.69,2021-12-17 17:39:42.578125
2482,40.35,2021-12-17 17:39:42.593750
2483,32.59,2021-12-17 17:39:42.609375
2484,25.8,2021-12-17 17:39:42.625000
2485,20.23,2021-12-17 17:39:42.640625
2486,15.96,2021-12-17 17:39:42.656250
2487,12.94,2021-12-17 17:39:42.671875
2488,11.0,2021-12-17 17:39:42.687500
2489,9.9,2021-12-17 17:39:42.703125
2490,9.44,2021-12-17 17:39:42.718750
2491,9.41,2021-12-17 17:39:42.734375
2492,9.54,2021-12-17 17:39:42.750000
2493,9.51,2021-12-17 17:39:42.765625
2494,8.94,2021-12-17 17:39:42.781250
2495,7.53,2021-12-17 17:39:42.796875
2496,5.12,2021-12-17 17:39:42.812500
2497,1.74,2021-12-17 17:39:42.828125
2498,-2.34,2021-12-17 17:39:42.843750
2499,-6.79,2021-12-17 17:39:42.859375
2500,-11.26,2021-12-17 17:39:42.875000
2501,-15.46,2021-12-17 17:39:42.890625
2502,-19.21,2021-12-17 17:39:42.906250
2503,-22.41,2021-12-17 17:39:42.921875
2504,-25.04,2021-12-17 17:39:42.937500
2505,-27.13,2021-12-17 17:39:42.953125
2506,-28.76,2021-12-17 17:39:42.968750
2507,-30.0,2021-12-17 17:39:42.984375
2508,-30.96,2021-12-17 17:39:43.000000
2509,-31.7,2021-12-17 17:39:43.015625
2510,-32.28,2021-12-17 17:39:43.031250
2511,-32.75,2021-12-17 17:39:43.046875
2512,-33.15,2021-12-17 17:39:43.062500
2513,-33.56,2021-12-17 17:39:43.078125
2514,-34.07,2021-12-17 17:39:43.093750
2515,-34.73,2021-12-17 17:39:43.109375
2516,-35.58,2021-12-17 17:39:43.125000
2517,-36.66,2021-12-17 17:39:43.140625
2518,-38.1,2021-12-17 17:39:43.156250
2519,-40.07,2021-12-17 17:39:43.171875
2520,-42.73,2021-12-17 17:39:43.187500
2521,-46.08,2021-12-17 17:39:43.203125
2522,-49.82,2021-12-17 17:39:43.218750
2523,-53.34,2021-12-17 17:39:43.234375
2524,-55.73,2021-12-17 17:39:43.250000
2525,-56.09,2021-12-17 17:39:43.265625
2526,-53.72,2021-12-17 17:39:43.281250
2527,-48.49,2021-12-17 17:39:43.296875
2528,-40.84,2021-12-17 17:39:43.312500
2529,-31.72,2021-12-17 17:39:43.328125
2530,-22.29,2021-12-17 17:39:43.343750
2531,-13.55,2021-12-17 17:39:43.359375
2532,-6.16,2021-12-17 17:39:43.375000
2533,-0.29,2021-12-17 17:39:43.390625
2534,4.2,2021-12-17 17:39:43.406250
2535,7.58,2021-12-17 17:39:43.421875
2536,10.04,2021-12-17 17:39:43.437500
2537,11.62,2021-12-17 17:39:43.453125
2538,12.25,2021-12-17 17:39:43.468750
2539,11.89,2021-12-17 17:39:43.484375
2540,10.63,2021-12-17 17:39:43.500000
2541,8.74,2021-12-17 17:39:43.515625
2542,6.64,2021-12-17 17:39:43.531250
2543,4.78,2021-12-17 17:39:43.546875
2544,3.53,2021-12-17 17:39:43.562500
2545,3.06,2021-12-17 17:39:43.578125
2546,3.32,2021-12-17 17:39:43.593750
2547,4.05,2021-12-17 17:39:43.609375
2548,4.9,2021-12-17 17:39:43.625000
2549,5.51,2021-12-17 17:39:43.640625
2550,5.65,2021-12-17 17:39:43.656250
2551,5.3,2021-12-17 17:39:43.671875
2552,4.53,2021-12-17 17:39:43.687500
2553,3.49,2021-12-17 17:39:43.703125
2554,2.3,2021-12-17 17:39:43.718750
2555,1.02,2021-12-17 17:39:43.734375
2556,-0.29,2021-12-17 17:39:43.750000
2557,-1.45,2021-12-17 17:39:43.765625
2558,-2.31,2021-12-17 17:39:43.781250
2559,-2.8,2021-12-17 17:39:43.796875
2560,-3.06,2021-12-17 17:39:43.812500
2561,-3.43,2021-12-17 17:39:43.828125
2562,-4.31,2021-12-17 17:39:43.843750
2563,-5.88,2021-12-17 17:39:43.859375
2564,-7.88,2021-12-17 17:39:43.875000
2565,-9.52,2021-12-17 17:39:43.890625
2566,-9.7,2021-12-17 17:39:43.906250
2567,-7.32,2021-12-17 17:39:43.921875
2568,-1.71,2021-12-17 17:39:43.937500
2569,7.19,2021-12-17 17:39:43.953125
2570,18.79,2021-12-17 17:39:43.968750
2571,32.05,2021-12-17 17:39:43.984375
2572,45.72,2021-12-17 17:39:44.000000
2573,58.63,2021-12-17 17:39:44.015625
2574,69.85,2021-12-17 17:39:44.031250
2575,78.79,2021-12-17 17:39:44.046875
2576,85.29,2021-12-17 17:39:44.062500
2577,89.5,2021-12-17 17:39:44.078125
2578,91.87,2021-12-17 17:39:44.093750
2579,92.98,2021-12-17 17:39:44.109375
2580,93.47,2021-12-17 17:39:44.125000
2581,93.87,2021-12-17 17:39:44.140625
2582,94.49,2021-12-17 17:39:44.156250
2583,95.33,2021-12-17 17:39:44.171875
2584,95.99,2021-12-17 17:39:44.187500
2585,95.68,2021-12-17 17:39:44.203125
2586,93.38,2021-12-17 17:39:44.218750
2587,88.05,2021-12-17 17:39:44.234375
2588,78.95,2021-12-17 17:39:44.250000
2589,65.9,2021-12-17 17:39:44.265625
2590,49.41,2021-12-17 17:39:44.281250
2591,30.55,2021-12-17 17:39:44.296875
2592,10.76,2021-12-17 17:39:44.312500
2593,-8.53,2021-12-17 17:39:44.328125
2594,-26.15,2021-12-17 17:39:44.343750
2595,-41.34,2021-12-17 17:39:44.359375
2596,-53.79,2021-12-17 17:39:44.375000
2597,-63.5,2021-12-17 17:39:44.390625
2598,-70.67,2021-12-17 17:39:44.406250
2599,-75.63,2021-12-17 17:39:44.421875
2600,-78.86,2021-12-17 17:39:44.437500
2601,-80.96,2021-12-17 17:39:44.453125
2602,-82.7,2021-12-17 17:39:44.468750
2603,-84.87,2021-12-17 17:39:44.484375
2604,-88.05,2021-12-17 17:39:44.500000
2605,-92.38,2021-12-17 17:39:44.515625
2606,-97.34,2021-12-17 17:39:44.531250
2607,-101.81,2021-12-17 17:39:44.546875
2608,-104.23,2021-12-17 17:39:44.562500
2609,-103.1,2021-12-17 17:39:44.578125
2610,-97.45,2021-12-17 17:39:44.593750
2611,-87.22,2021-12-17 17:39:44.609375
2612,-73.33,2021-12-17 17:39:44.625000
2613,-57.47,2021-12-17 17:39:44.640625
2614,-41.61,2021-12-17 17:39:44.656250
2615,-27.51,2021-12-17 17:39:44.671875
2616,-16.36,2021-12-17 17:39:44.687500
2617,-8.69,2021-12-17 17:39:44.703125
2618,-4.52,2021-12-17 17:39:44.718750
2619,-3.58,2021-12-17 17:39:44.734375
2620,-5.36,2021-12-17 17:39:44.750000
2621,-9.11,2021-12-17 17:39:44.765625
2622,-13.77,2021-12-17 17:39:44.781250
2623,-18.03,2021-12-17 17:39:44.796875
2624,-20.53,2021-12-17 17:39:44.812500
2625,-20.22,2021-12-17 17:39:44.828125
2626,-16.66,2021-12-17 17:39:44.843750
2627,-10.13,2021-12-17 17:39:44.859375
2628,-1.52,2021-12-17 17:39:44.875000
2629,8.01,2021-12-17 17:39:44.890625
2630,17.29,2021-12-17 17:39:44.906250
2631,25.36,2021-12-17 17:39:44.921875
2632,31.51,2021-12-17 17:39:44.937500
2633,35.25,2021-12-17 17:39:44.953125
2634,36.32,2021-12-17 17:39:44.968750
2635,34.72,2021-12-17 17:39:44.984375
2636,30.71,2021-12-17 17:39:45.000000
2637,24.71,2021-12-17 17:39:45.015625
2638,17.18,2021-12-17 17:39:45.031250
2639,8.51,2021-12-17 17:39:45.046875
2640,-1.05,2021-12-17 17:39:45.062500
2641,-11.25,2021-12-17 17:39:45.078125
2642,-21.77,2021-12-17 17:39:45.093750
2643,-32.17,2021-12-17 17:39:45.109375
2644,-42.0,2021-12-17 17:39:45.125000
2645,-51.03,2021-12-17 17:39:45.140625
2646,-59.26,2021-12-17 17:39:45.156250
2647,-66.88,2021-12-17 17:39:45.171875
2648,-73.92,2021-12-17 17:39:45.187500
2649,-79.98,2021-12-17 17:39:45.203125
2650,-84.05,2021-12-17 17:39:45.218750
2651,-84.85,2021-12-17 17:39:45.234375
2652,-81.25,2021-12-17 17:39:45.250000
2653,-72.85,2021-12-17 17:39:45.265625
2654,-60.16,2021-12-17 17:39:45.281250
2655,-44.46,2021-12-17 17:39:45.296875
2656,-27.32,2021-12-17 17:39:45.312500
2657,-10.19,2021-12-17 17:39:45.328125
2658,5.89,2021-12-17 17:39:45.343750
2659,20.27,2021-12-17 17:39:45.359375
2660,32.51,2021-12-17 17:39:45.375000
2661,42.22,2021-12-17 17:39:45.390625
2662,48.97,2021-12-17 17:39:45.406250
2663,52.59,2021-12-17 17:39:45.421875
2664,53.19,2021-12-17 17:39:45.437500
2665,51.38,2021-12-17 17:39:45.453125
2666,48.12,2021-12-17 17:39:45.468750
2667,44.52,2021-12-17 17:39:45.484375
2668,41.61,2021-12-17 17:39:45.500000
2669,40.04,2021-12-17 17:39:45.515625
2670,40.05,2021-12-17 17:39:45.531250
2671,41.39,2021-12-17 17:39:45.546875
2672,43.53,2021-12-17 17:39:45.562500
2673,45.73,2021-12-17 17:39:45.578125
2674,47.26,2021-12-17 17:39:45.593750
2675,47.52,2021-12-17 17:39:45.609375
2676,46.19,2021-12-17 17:39:45.625000
2677,43.29,2021-12-17 17:39:45.640625
2678,39.17,2021-12-17 17:39:45.656250
2679,34.48,2021-12-17 17:39:45.671875
2680,29.95,2021-12-17 17:39:45.687500
2681,26.15,2021-12-17 17:39:45.703125
2682,23.19,2021-12-17 17:39:45.718750
2683,20.64,2021-12-17 17:39:45.734375
2684,17.54,2021-12-17 17:39:45.750000
2685,12.82,2021-12-17 17:39:45.765625
2686,5.7,2021-12-17 17:39:45.781250
2687,-3.83,2021-12-17 17:39:45.796875
2688,-14.85,2021-12-17 17:39:45.812500
2689,-25.66,2021-12-17 17:39:45.828125
2690,-34.26,2021-12-17 17:39:45.843750
2691,-38.95,2021-12-17 17:39:45.859375
2692,-38.84,2021-12-17 17:39:45.875000
2693,-34.04,2021-12-17 17:39:45.890625
2694,-25.61,2021-12-17 17:39:45.906250
2695,-15.1,2021-12-17 17:39:45.921875
2696,-4.08,2021-12-17 17:39:45.937500
2697,6.23,2021-12-17 17:39:45.953125
2698,15.09,2021-12-17 17:39:45.968750
2699,22.12,2021-12-17 17:39:45.984375
2700,27.19,2021-12-17 17:39:46.000000
2701,30.27,2021-12-17 17:39:46.015625
2702,31.47,2021-12-17 17:39:46.031250
2703,31.18,2021-12-17 17:39:46.046875
2704,30.15,2021-12-17 17:39:46.062500
2705,29.31,2021-12-17 17:39:46.078125
2706,29.5,2021-12-17 17:39:46.093750
2707,30.97,2021-12-17 17:39:46.109375
2708,33.31,2021-12-17 17:39:46.125000
2709,35.48,2021-12-17 17:39:46.140625
2710,36.33,2021-12-17 17:39:46.156250
2711,35.11,2021-12-17 17:39:46.171875
2712,31.75,2021-12-17 17:39:46.187500
2713,26.81,2021-12-17 17:39:46.203125
2714,21.13,2021-12-17 17:39:46.218750
2715,15.4,2021-12-17 17:39:46.234375
2716,10.0,2021-12-17 17:39:46.250000
2717,5.04,2021-12-17 17:39:46.265625
2718,0.56,2021-12-17 17:39:46.281250
2719,-3.25,2021-12-17 17:39:46.296875
2720,-6.04,2021-12-17 17:39:46.312500
2721,-7.55,2021-12-17 17:39:46.328125
2722,-7.8,2021-12-17 17:39:46.343750
2723,-7.25,2021-12-17 17:39:46.359375
2724,-6.8,2021-12-17 17:39:46.375000
2725,-7.44,2021-12-17 17:39:46.390625
2726,-10.01,2021-12-17 17:39:46.406250
2727,-14.85,2021-12-17 17:39:46.421875
2728,-21.62,2021-12-17 17:39:46.437500
2729,-29.33,2021-12-17 17:39:46.453125
2730,-36.64,2021-12-17 17:39:46.468750
2731,-42.13,2021-12-17 17:39:46.484375
2732,-44.83,2021-12-17 17:39:46.500000
2733,-44.37,2021-12-17 17:39:46.515625
2734,-41.14,2021-12-17 17:39:46.531250
2735,-36.0,2021-12-17 17:39:46.546875
2736,-29.97,2021-12-17 17:39:46.562500
2737,-23.95,2021-12-17 17:39:46.578125
2738,-18.5,2021-12-17 17:39:46.593750
2739,-13.87,2021-12-17 17:39:46.609375
2740,-10.07,2021-12-17 17:39:46.625000
2741,-7.04,2021-12-17 17:39:46.640625
2742,-4.69,2021-12-17 17:39:46.656250
2743,-2.92,2021-12-17 17:39:46.671875
2744,-1.65,2021-12-17 17:39:46.687500
2745,-0.74,2021-12-17 17:39:46.703125
2746,-0.02,2021-12-17 17:39:46.718750
2747,0.71,2021-12-17 17:39:46.734375
2748,1.6,2021-12-17 17:39:46.750000
2749,2.81,2021-12-17 17:39:46.765625
2750,4.35,2021-12-17 17:39:46.781250
2751,6.13,2021-12-17 17:39:46.796875
2752,7.96,2021-12-17 17:39:46.812500
2753,9.58,2021-12-17 17:39:46.828125
2754,10.75,2021-12-17 17:39:46.843750
2755,11.32,2021-12-17 17:39:46.859375
2756,11.18,2021-12-17 17:39:46.875000
2757,10.34,2021-12-17 17:39:46.890625
2758,8.85,2021-12-17 17:39:46.906250
2759,6.8,2021-12-17 17:39:46.921875
2760,4.32,2021-12-17 17:39:46.937500
2761,1.54,2021-12-17 17:39:46.953125
2762,-1.44,2021-12-17 17:39:46.968750
2763,-4.51,2021-12-17 17:39:46.984375
2764,-7.61,2021-12-17 17:39:47.000000
2765,-10.74,2021-12-17 17:39:47.015625
2766,-13.98,2021-12-17 17:39:47.031250
2767,-17.45,2021-12-17 17:39:47.046875
2768,-21.25,2021-12-17 17:39:47.062500
2769,-25.27,2021-12-17 17:39:47.078125
2770,-29.08,2021-12-17 17:39:47.093750
2771,-31.91,2021-12-17 17:39:47.109375
2772,-32.84,2021-12-17 17:39:47.125000
2773,-31.13,2021-12-17 17:39:47.140625
2774,-26.55,2021-12-17 17:39:47.156250
2775,-19.55,2021-12-17 17:39:47.171875
2776,-11.19,2021-12-17 17:39:47.187500
2777,-2.7,2021-12-17 17:39:47.203125
2778,4.86,2021-12-17 17:39:47.218750
2779,10.89,2021-12-17 17:39:47.234375
2780,15.25,2021-12-17 17:39:47.250000
2781,18.05,2021-12-17 17:39:47.265625
2782,19.43,2021-12-17 17:39:47.281250
2783,19.5,2021-12-17 17:39:47.296875
2784,18.41,2021-12-17 17:39:47.312500
2785,16.41,2021-12-17 17:39:47.328125
2786,13.92,2021-12-17 17:39:47.343750
2787,11.44,2021-12-17 17:39:47.359375
2788,9.4,2021-12-17 17:39:47.375000
2789,8.01,2021-12-17 17:39:47.390625
2790,7.27,2021-12-17 17:39:47.406250
2791,7.01,2021-12-17 17:39:47.421875
2792,6.99,2021-12-17 17:39:47.437500
2793,7.06,2021-12-17 17:39:47.453125
2794,7.09,2021-12-17 17:39:47.468750
2795,6.97,2021-12-17 17:39:47.484375
2796,6.57,2021-12-17 17:39:47.500000
2797,5.8,2021-12-17 17:39:47.515625
2798,4.67,2021-12-17 17:39:47.531250
2799,3.32,2021-12-17 17:39:47.546875
2800,1.97,2021-12-17 17:39:47.562500
2801,0.87,2021-12-17 17:39:47.578125
2802,0.12,2021-12-17 17:39:47.593750
2803,-0.38,2021-12-17 17:39:47.609375
2804,-0.87,2021-12-17 17:39:47.625000
2805,-1.61,2021-12-17 17:39:47.640625
2806,-2.86,2021-12-17 17:39:47.656250
2807,-4.77,2021-12-17 17:39:47.671875
2808,-7.39,2021-12-17 17:39:47.687500
2809,-10.64,2021-12-17 17:39:47.703125
2810,-14.24,2021-12-17 17:39:47.718750
2811,-17.65,2021-12-17 17:39:47.734375
2812,-20.12,2021-12-17 17:39:47.750000
2813,-20.8,2021-12-17 17:39:47.765625
2814,-19.08,2021-12-17 17:39:47.781250
2815,-14.88,2021-12-17 17:39:47.796875
2816,-8.82,2021-12-17 17:39:47.812500
2817,-2.03,2021-12-17 17:39:47.828125
2818,4.24,2021-12-17 17:39:47.843750
2819,9.03,2021-12-17 17:39:47.859375
2820,11.92,2021-12-17 17:39:47.875000
2821,13.13,2021-12-17 17:39:47.890625
2822,13.18,2021-12-17 17:39:47.906250
2823,12.62,2021-12-17 17:39:47.921875
2824,11.78,2021-12-17 17:39:47.937500
2825,10.72,2021-12-17 17:39:47.953125
2826,9.37,2021-12-17 17:39:47.968750
2827,7.69,2021-12-17 17:39:47.984375
2828,5.8,2021-12-17 17:39:48.000000
2829,3.93,2021-12-17 17:39:48.015625
2830,2.33,2021-12-17 17:39:48.031250
2831,1.14,2021-12-17 17:39:48.046875
2832,0.35,2021-12-17 17:39:48.062500
2833,-0.17,2021-12-17 17:39:48.078125
2834,-0.52,2021-12-17 17:39:48.093750
2835,-0.76,2021-12-17 17:39:48.109375
2836,-0.89,2021-12-17 17:39:48.125000
2837,-0.93,2021-12-17 17:39:48.140625
2838,-1.0,2021-12-17 17:39:48.156250
2839,-1.29,2021-12-17 17:39:48.171875
2840,-1.93,2021-12-17 17:39:48.187500
2841,-2.98,2021-12-17 17:39:48.203125
2842,-4.34,2021-12-17 17:39:48.218750
2843,-5.79,2021-12-17 17:39:48.234375
2844,-7.17,2021-12-17 17:39:48.250000
2845,-8.35,2021-12-17 17:39:48.265625
2846,-9.31,2021-12-17 17:39:48.281250
2847,-10.11,2021-12-17 17:39:48.296875
2848,-10.86,2021-12-17 17:39:48.312500
2849,-11.67,2021-12-17 17:39:48.328125
2850,-12.67,2021-12-17 17:39:48.343750
2851,-13.92,2021-12-17 17:39:48.359375
2852,-15.32,2021-12-17 17:39:48.375000
2853,-16.52,2021-12-17 17:39:48.390625
2854,-16.94,2021-12-17 17:39:48.406250
2855,-15.94,2021-12-17 17:39:48.421875
2856,-13.09,2021-12-17 17:39:48.437500
2857,-8.41,2021-12-17 17:39:48.453125
2858,-2.42,2021-12-17 17:39:48.468750
2859,3.97,2021-12-17 17:39:48.484375
2860,9.74,2021-12-17 17:39:48.500000
2861,14.07,2021-12-17 17:39:48.515625
2862,16.54,2021-12-17 17:39:48.531250
2863,17.12,2021-12-17 17:39:48.546875
2864,16.13,2021-12-17 17:39:48.562500
2865,14.04,2021-12-17 17:39:48.578125
2866,11.3,2021-12-17 17:39:48.593750
2867,8.34,2021-12-17 17:39:48.609375
2868,5.49,2021-12-17 17:39:48.625000
2869,2.99,2021-12-17 17:39:48.640625
2870,0.92,2021-12-17 17:39:48.656250
2871,-0.73,2021-12-17 17:39:48.671875
2872,-2.11,2021-12-17 17:39:48.687500
2873,-3.42,2021-12-17 17:39:48.703125
2874,-4.85,2021-12-17 17:39:48.718750
2875,-6.49,2021-12-17 17:39:48.734375
2876,-8.25,2021-12-17 17:39:48.750000
2877,-9.89,2021-12-17 17:39:48.765625
2878,-10.98,2021-12-17 17:39:48.781250
2879,-11.07,2021-12-17 17:39:48.796875
2880,-9.71,2021-12-17 17:39:48.812500
2881,-6.7,2021-12-17 17:39:48.828125
2882,-2.1,2021-12-17 17:39:48.843750
2883,3.74,2021-12-17 17:39:48.859375
2884,10.24,2021-12-17 17:39:48.875000
2885,16.8,2021-12-17 17:39:48.890625
2886,22.88,2021-12-17 17:39:48.906250
2887,28.15,2021-12-17 17:39:48.921875
2888,32.41,2021-12-17 17:39:48.937500
2889,35.52,2021-12-17 17:39:48.953125
2890,37.28,2021-12-17 17:39:48.968750
2891,37.47,2021-12-17 17:39:48.984375
2892,36.01,2021-12-17 17:39:49.000000
2893,33.06,2021-12-17 17:39:49.015625
2894,29.11,2021-12-17 17:39:49.031250
2895,24.91,2021-12-17 17:39:49.046875
2896,21.23,2021-12-17 17:39:49.062500
2897,18.65,2021-12-17 17:39:49.078125
2898,17.48,2021-12-17 17:39:49.093750
2899,17.71,2021-12-17 17:39:49.109375
2900,19.22,2021-12-17 17:39:49.125000
2901,21.91,2021-12-17 17:39:49.140625
2902,25.66,2021-12-17 17:39:49.156250
2903,30.34,2021-12-17 17:39:49.171875
2904,35.68,2021-12-17 17:39:49.187500
2905,41.21,2021-12-17 17:39:49.203125
2906,46.36,2021-12-17 17:39:49.218750
2907,50.64,2021-12-17 17:39:49.234375
2908,53.75,2021-12-17 17:39:49.250000
2909,55.72,2021-12-17 17:39:49.265625
2910,56.86,2021-12-17 17:39:49.281250
2911,57.69,2021-12-17 17:39:49.296875
2912,58.81,2021-12-17 17:39:49.312500
2913,60.72,2021-12-17 17:39:49.328125
2914,63.68,2021-12-17 17:39:49.343750
2915,67.64,2021-12-17 17:39:49.359375
2916,72.23,2021-12-17 17:39:49.375000
2917,76.83,2021-12-17 17:39:49.390625
2918,80.84,2021-12-17 17:39:49.406250
2919,83.78,2021-12-17 17:39:49.421875
2920,85.41,2021-12-17 17:39:49.437500
2921,85.72,2021-12-17 17:39:49.453125
2922,84.84,2021-12-17 17:39:49.468750
2923,82.93,2021-12-17 17:39:49.484375
2924,80.19,2021-12-17 17:39:49.500000
2925,76.81,2021-12-17 17:39:49.515625
2926,72.95,2021-12-17 17:39:49.531250
2927,68.63,2021-12-17 17:39:49.546875
2928,63.7,2021-12-17 17:39:49.562500
2929,57.87,2021-12-17 17:39:49.578125
2930,50.92,2021-12-17 17:39:49.593750
2931,42.93,2021-12-17 17:39:49.609375
2932,34.4,2021-12-17 17:39:49.625000
2933,26.04,2021-12-17 17:39:49.640625
2934,18.43,2021-12-17 17:39:49.656250
2935,11.63,2021-12-17 17:39:49.671875
2936,5.23,2021-12-17 17:39:49.687500
2937,-1.3,2021-12-17 17:39:49.703125
2938,-8.16,2021-12-17 17:39:49.718750
2939,-14.83,2021-12-17 17:39:49.734375
2940,-20.22,2021-12-17 17:39:49.750000
2941,-23.05,2021-12-17 17:39:49.765625
2942,-22.48,2021-12-17 17:39:49.781250
2943,-18.43,2021-12-17 17:39:49.796875
2944,-11.57,2021-12-17 17:39:49.812500
2945,-3.11,2021-12-17 17:39:49.828125
2946,5.59,2021-12-17 17:39:49.843750
2947,13.17,2021-12-17 17:39:49.859375
2948,18.43,2021-12-17 17:39:49.875000
2949,20.45,2021-12-17 17:39:49.890625
2950,18.68,2021-12-17 17:39:49.906250
2951,13.14,2021-12-17 17:39:49.921875
2952,4.47,2021-12-17 17:39:49.937500
2953,-6.17,2021-12-17 17:39:49.953125
2954,-17.49,2021-12-17 17:39:49.968750
2955,-28.46,2021-12-17 17:39:49.984375
2956,-38.52,2021-12-17 17:39:50.000000
2957,-47.62,2021-12-17 17:39:50.015625
2958,-56.0,2021-12-17 17:39:50.031250
2959,-63.92,2021-12-17 17:39:50.046875
2960,-71.34,2021-12-17 17:39:50.062500
2961,-77.87,2021-12-17 17:39:50.078125
2962,-82.8,2021-12-17 17:39:50.093750
2963,-85.42,2021-12-17 17:39:50.109375
2964,-85.32,2021-12-17 17:39:50.125000
2965,-82.82,2021-12-17 17:39:50.140625
2966,-79.09,2021-12-17 17:39:50.156250
2967,-76.01,2021-12-17 17:39:50.171875
2968,-75.75,2021-12-17 17:39:50.187500
2969,-79.86,2021-12-17 17:39:50.203125
2970,-88.64,2021-12-17 17:39:50.218750
2971,-100.65,2021-12-17 17:39:50.234375
2972,-112.96,2021-12-17 17:39:50.250000
2973,-121.98,2021-12-17 17:39:50.265625
2974,-124.71,2021-12-17 17:39:50.281250
2975,-119.8,2021-12-17 17:39:50.296875
2976,-108.03,2021-12-17 17:39:50.312500
2977,-91.99,2021-12-17 17:39:50.328125
2978,-74.98,2021-12-17 17:39:50.343750
2979,-59.82,2021-12-17 17:39:50.359375
2980,-48.01,2021-12-17 17:39:50.375000
2981,-39.49,2021-12-17 17:39:50.390625
2982,-33.13,2021-12-17 17:39:50.406250
2983,-27.4,2021-12-17 17:39:50.421875
2984,-21.12,2021-12-17 17:39:50.437500
2985,-13.73,2021-12-17 17:39:50.453125
2986,-5.52,2021-12-17 17:39:50.468750
2987,2.72,2021-12-17 17:39:50.484375
2988,9.92,2021-12-17 17:39:50.500000
2989,15.05,2021-12-17 17:39:50.515625
2990,17.41,2021-12-17 17:39:50.531250
2991,16.78,2021-12-17 17:39:50.546875
2992,13.44,2021-12-17 17:39:50.562500
2993,8.01,2021-12-17 17:39:50.578125
2994,1.25,2021-12-17 17:39:50.593750
2995,-6.18,2021-12-17 17:39:50.609375
2996,-13.75,2021-12-17 17:39:50.625000
2997,-21.09,2021-12-17 17:39:50.640625
2998,-27.82,2021-12-17 17:39:50.656250
2999,-33.54,2021-12-17 17:39:50.671875
3000,-37.95,2021-12-17 17:39:50.687500
3001,-40.85,2021-12-17 17:39:50.703125
3002,-42.25,2021-12-17 17:39:50.718750
3003,-42.24,2021-12-17 17:39:50.734375
3004,-40.89,2021-12-17 17:39:50.750000
3005,-38.12,2021-12-17 17:39:50.765625
3006,-33.77,2021-12-17 17:39:50.781250
3007,-27.71,2021-12-17 17:39:50.796875
3008,-20.01,2021-12-17 17:39:50.812500
3009,-11.17,2021-12-17 17:39:50.828125
3010,-1.97,2021-12-17 17:39:50.843750
3011,6.62,2021-12-17 17:39:50.859375
3012,13.79,2021-12-17 17:39:50.875000
3013,19.09,2021-12-17 17:39:50.890625
3014,22.58,2021-12-17 17:39:50.906250
3015,24.7,2021-12-17 17:39:50.921875
3016,25.96,2021-12-17 17:39:50.937500
3017,26.72,2021-12-17 17:39:50.953125
3018,26.95,2021-12-17 17:39:50.968750
3019,26.28,2021-12-17 17:39:50.984375
3020,24.29,2021-12-17 17:39:51.000000
3021,20.77,2021-12-17 17:39:51.015625
3022,16.04,2021-12-17 17:39:51.031250
3023,10.91,2021-12-17 17:39:51.046875
3024,6.45,2021-12-17 17:39:51.062500
3025,3.71,2021-12-17 17:39:51.078125
3026,3.29,2021-12-17 17:39:51.093750
3027,5.22,2021-12-17 17:39:51.109375
3028,9.06,2021-12-17 17:39:51.125000
3029,14.01,2021-12-17 17:39:51.140625
3030,19.26,2021-12-17 17:39:51.156250
3031,24.11,2021-12-17 17:39:51.171875
3032,28.12,2021-12-17 17:39:51.187500
3033,31.09,2021-12-17 17:39:51.203125
3034,33.04,2021-12-17 17:39:51.218750
3035,34.2,2021-12-17 17:39:51.234375
3036,34.77,2021-12-17 17:39:51.250000
3037,34.9,2021-12-17 17:39:51.265625
3038,34.64,2021-12-17 17:39:51.281250
3039,33.92,2021-12-17 17:39:51.296875
3040,32.68,2021-12-17 17:39:51.312500
3041,31.02,2021-12-17 17:39:51.328125
3042,29.16,2021-12-17 17:39:51.343750
3043,27.37,2021-12-17 17:39:51.359375
3044,25.86,2021-12-17 17:39:51.375000
3045,24.59,2021-12-17 17:39:51.390625
3046,23.36,2021-12-17 17:39:51.406250
3047,21.89,2021-12-17 17:39:51.421875
3048,19.99,2021-12-17 17:39:51.437500
3049,17.62,2021-12-17 17:39:51.453125
3050,14.82,2021-12-17 17:39:51.468750
3051,11.6,2021-12-17 17:39:51.484375
3052,7.87,2021-12-17 17:39:51.500000
3053,3.48,2021-12-17 17:39:51.515625
3054,-1.64,2021-12-17 17:39:51.531250
3055,-7.35,2021-12-17 17:39:51.546875
3056,-13.29,2021-12-17 17:39:51.562500
3057,-19.0,2021-12-17 17:39:51.578125
3058,-24.13,2021-12-17 17:39:51.593750
3059,-28.54,2021-12-17 17:39:51.609375
3060,-32.39,2021-12-17 17:39:51.625000
3061,-36.03,2021-12-17 17:39:51.640625
3062,-39.83,2021-12-17 17:39:51.656250
3063,-43.94,2021-12-17 17:39:51.671875
3064,-48.15,2021-12-17 17:39:51.687500
3065,-51.75,2021-12-17 17:39:51.703125
3066,-53.85,2021-12-17 17:39:51.718750
3067,-53.5,2021-12-17 17:39:51.734375
3068,-50.17,2021-12-17 17:39:51.750000
3069,-43.92,2021-12-17 17:39:51.765625
3070,-35.47,2021-12-17 17:39:51.781250
3071,-25.99,2021-12-17 17:39:51.796875
3072,-16.72,2021-12-17 17:39:51.812500
3073,-8.62,2021-12-17 17:39:51.828125
3074,-2.17,2021-12-17 17:39:51.843750
3075,2.59,2021-12-17 17:39:51.859375
3076,5.89,2021-12-17 17:39:51.875000
3077,8.02,2021-12-17 17:39:51.890625
3078,9.2,2021-12-17 17:39:51.906250
3079,9.63,2021-12-17 17:39:51.921875
3080,9.48,2021-12-17 17:39:51.937500
3081,8.99,2021-12-17 17:39:51.953125
3082,8.41,2021-12-17 17:39:51.968750
3083,7.88,2021-12-17 17:39:51.984375
3084,7.4,2021-12-17 17:39:52.000000
3085,6.83,2021-12-17 17:39:52.015625
3086,6.01,2021-12-17 17:39:52.031250
3087,4.92,2021-12-17 17:39:52.046875
3088,3.78,2021-12-17 17:39:52.062500
3089,2.92,2021-12-17 17:39:52.078125
3090,2.62,2021-12-17 17:39:52.093750
3091,2.93,2021-12-17 17:39:52.109375
3092,3.57,2021-12-17 17:39:52.125000
3093,4.1,2021-12-17 17:39:52.140625
3094,4.05,2021-12-17 17:39:52.156250
3095,3.25,2021-12-17 17:39:52.171875
3096,1.79,2021-12-17 17:39:52.187500
3097,-0.12,2021-12-17 17:39:52.203125
3098,-2.18,2021-12-17 17:39:52.218750
3099,-4.28,2021-12-17 17:39:52.234375
3100,-6.39,2021-12-17 17:39:52.250000
3101,-8.56,2021-12-17 17:39:52.265625
3102,-10.84,2021-12-17 17:39:52.281250
3103,-13.24,2021-12-17 17:39:52.296875
3104,-15.8,2021-12-17 17:39:52.312500
3105,-18.64,2021-12-17 17:39:52.328125
3106,-21.91,2021-12-17 17:39:52.343750
3107,-25.67,2021-12-17 17:39:52.359375
3108,-29.72,2021-12-17 17:39:52.375000
3109,-33.46,2021-12-17 17:39:52.390625
3110,-36.05,2021-12-17 17:39:52.406250
3111,-36.6,2021-12-17 17:39:52.421875
3112,-34.56,2021-12-17 17:39:52.437500
3113,-29.92,2021-12-17 17:39:52.453125
3114,-23.26,2021-12-17 17:39:52.468750
3115,-15.5,2021-12-17 17:39:52.484375
3116,-7.57,2021-12-17 17:39:52.500000
3117,-0.16,2021-12-17 17:39:52.515625
3118,6.37,2021-12-17 17:39:52.531250
3119,11.89,2021-12-17 17:39:52.546875
3120,16.38,2021-12-17 17:39:52.562500
3121,19.78,2021-12-17 17:39:52.578125
3122,21.97,2021-12-17 17:39:52.593750
3123,22.83,2021-12-17 17:39:52.609375
3124,22.4,2021-12-17 17:39:52.625000
3125,20.93,2021-12-17 17:39:52.640625
3126,18.9,2021-12-17 17:39:52.656250
3127,16.94,2021-12-17 17:39:52.671875
3128,15.67,2021-12-17 17:39:52.687500
3129,15.51,2021-12-17 17:39:52.703125
3130,16.62,2021-12-17 17:39:52.718750
3131,18.86,2021-12-17 17:39:52.734375
3132,21.94,2021-12-17 17:39:52.750000
3133,25.52,2021-12-17 17:39:52.765625
3134,29.34,2021-12-17 17:39:52.781250
3135,33.22,2021-12-17 17:39:52.796875
3136,37.05,2021-12-17 17:39:52.812500
3137,40.75,2021-12-17 17:39:52.828125
3138,44.3,2021-12-17 17:39:52.843750
3139,47.85,2021-12-17 17:39:52.859375
3140,51.78,2021-12-17 17:39:52.875000
3141,56.61,2021-12-17 17:39:52.890625
3142,62.76,2021-12-17 17:39:52.906250
3143,70.23,2021-12-17 17:39:52.921875
3144,78.4,2021-12-17 17:39:52.937500
3145,86.11,2021-12-17 17:39:52.953125
3146,91.95,2021-12-17 17:39:52.968750
3147,94.82,2021-12-17 17:39:52.984375
3148,94.16,2021-12-17 17:39:53.000000
3149,90.13,2021-12-17 17:39:53.015625
3150,83.35,2021-12-17 17:39:53.031250
3151,74.59,2021-12-17 17:39:53.046875
3152,64.54,2021-12-17 17:39:53.062500
3153,53.78,2021-12-17 17:39:53.078125
3154,42.91,2021-12-17 17:39:53.093750
3155,32.61,2021-12-17 17:39:53.109375
3156,23.58,2021-12-17 17:39:53.125000
3157,16.33,2021-12-17 17:39:53.140625
3158,10.89,2021-12-17 17:39:53.156250
3159,6.82,2021-12-17 17:39:53.171875
3160,3.34,2021-12-17 17:39:53.187500
3161,-0.2,2021-12-17 17:39:53.203125
3162,-4.16,2021-12-17 17:39:53.218750
3163,-8.42,2021-12-17 17:39:53.234375
3164,-12.63,2021-12-17 17:39:53.250000
