,BVP,time
0,-19.15,2022-10-28 16:29:33.125000
1,-13.81,2022-10-28 16:29:33.140625
2,-7.35,2022-10-28 16:29:33.156250
3,0.07,2022-10-28 16:29:33.171875
4,8.2,2022-10-28 16:29:33.187500
5,16.67,2022-10-28 16:29:33.203125
6,24.9,2022-10-28 16:29:33.218750
7,32.16,2022-10-28 16:29:33.234375
8,37.68,2022-10-28 16:29:33.250000
9,40.91,2022-10-28 16:29:33.265625
10,41.7,2022-10-28 16:29:33.281250
11,40.37,2022-10-28 16:29:33.296875
12,37.7,2022-10-28 16:29:33.312500
13,34.78,2022-10-28 16:29:33.328125
14,32.67,2022-10-28 16:29:33.343750
15,32.24,2022-10-28 16:29:33.359375
16,33.98,2022-10-28 16:29:33.375000
17,37.79,2022-10-28 16:29:33.390625
18,42.83,2022-10-28 16:29:33.406250
19,47.39,2022-10-28 16:29:33.421875
20,49.3,2022-10-28 16:29:33.437500
21,46.69,2022-10-28 16:29:33.453125
22,39.06,2022-10-28 16:29:33.468750
23,27.9,2022-10-28 16:29:33.484375
24,16.63,2022-10-28 16:29:33.500000
25,9.41,2022-10-28 16:29:33.515625
26,9.49,2022-10-28 16:29:33.531250
27,17.67,2022-10-28 16:29:33.546875
28,31.85,2022-10-28 16:29:33.562500
29,47.81,2022-10-28 16:29:33.578125
30,61.0,2022-10-28 16:29:33.593750
31,68.28,2022-10-28 16:29:33.609375
32,68.98,2022-10-28 16:29:33.625000
33,64.76,2022-10-28 16:29:33.640625
34,58.55,2022-10-28 16:29:33.656250
35,53.23,2022-10-28 16:29:33.671875
36,50.56,2022-10-28 16:29:33.687500
37,50.83,2022-10-28 16:29:33.703125
38,53.09,2022-10-28 16:29:33.718750
39,55.78,2022-10-28 16:29:33.734375
40,57.33,2022-10-28 16:29:33.750000
41,56.8,2022-10-28 16:29:33.765625
42,54.07,2022-10-28 16:29:33.781250
43,49.77,2022-10-28 16:29:33.796875
44,44.88,2022-10-28 16:29:33.812500
45,40.28,2022-10-28 16:29:33.828125
46,36.4,2022-10-28 16:29:33.843750
47,33.1,2022-10-28 16:29:33.859375
48,29.97,2022-10-28 16:29:33.875000
49,26.68,2022-10-28 16:29:33.890625
50,23.29,2022-10-28 16:29:33.906250
51,20.24,2022-10-28 16:29:33.921875
52,17.87,2022-10-28 16:29:33.937500
53,16.07,2022-10-28 16:29:33.953125
54,13.98,2022-10-28 16:29:33.968750
55,10.36,2022-10-28 16:29:33.984375
56,4.03,2022-10-28 16:29:34.000000
57,-5.66,2022-10-28 16:29:34.015625
58,-18.75,2022-10-28 16:29:34.031250
59,-34.79,2022-10-28 16:29:34.046875
60,-52.93,2022-10-28 16:29:34.062500
61,-71.86,2022-10-28 16:29:34.078125
62,-89.69,2022-10-28 16:29:34.093750
63,-104.12,2022-10-28 16:29:34.109375
64,-112.84,2022-10-28 16:29:34.125000
65,-114.47,2022-10-28 16:29:34.140625
66,-109.11,2022-10-28 16:29:34.156250
67,-98.5,2022-10-28 16:29:34.171875
68,-85.46,2022-10-28 16:29:34.187500
69,-72.84,2022-10-28 16:29:34.203125
70,-62.58,2022-10-28 16:29:34.218750
71,-55.32,2022-10-28 16:29:34.234375
72,-50.34,2022-10-28 16:29:34.250000
73,-46.01,2022-10-28 16:29:34.265625
74,-40.42,2022-10-28 16:29:34.281250
75,-31.98,2022-10-28 16:29:34.296875
76,-20.1,2022-10-28 16:29:34.312500
77,-5.43,2022-10-28 16:29:34.328125
78,10.41,2022-10-28 16:29:34.343750
79,25.48,2022-10-28 16:29:34.359375
80,38.49,2022-10-28 16:29:34.375000
81,49.39,2022-10-28 16:29:34.390625
82,59.16,2022-10-28 16:29:34.406250
83,68.92,2022-10-28 16:29:34.421875
84,78.78,2022-10-28 16:29:34.437500
85,87.5,2022-10-28 16:29:34.453125
86,92.52,2022-10-28 16:29:34.468750
87,91.16,2022-10-28 16:29:34.484375
88,81.63,2022-10-28 16:29:34.500000
89,63.63,2022-10-28 16:29:34.515625
90,38.12,2022-10-28 16:29:34.531250
91,6.43,2022-10-28 16:29:34.546875
92,-30.9,2022-10-28 16:29:34.562500
93,-74.61,2022-10-28 16:29:34.578125
94,-126.2,2022-10-28 16:29:34.593750
95,-186.26,2022-10-28 16:29:34.609375
96,-252.45,2022-10-28 16:29:34.625000
97,-318.43,2022-10-28 16:29:34.640625
98,-374.74,2022-10-28 16:29:34.656250
99,-411.57,2022-10-28 16:29:34.671875
100,-422.49,2022-10-28 16:29:34.687500
101,-406.96,2022-10-28 16:29:34.703125
102,-370.44,2022-10-28 16:29:34.718750
103,-321.89,2022-10-28 16:29:34.734375
104,-270.05,2022-10-28 16:29:34.750000
105,-220.42,2022-10-28 16:29:34.765625
106,-174.51,2022-10-28 16:29:34.781250
107,-131.08,2022-10-28 16:29:34.796875
108,-88.55,2022-10-28 16:29:34.812500
109,-46.53,2022-10-28 16:29:34.828125
110,-5.89,2022-10-28 16:29:34.843750
111,32.52,2022-10-28 16:29:34.859375
112,69.14,2022-10-28 16:29:34.875000
113,105.98,2022-10-28 16:29:34.890625
114,145.76,2022-10-28 16:29:34.906250
115,190.2,2022-10-28 16:29:34.921875
116,238.82,2022-10-28 16:29:34.937500
117,288.7,2022-10-28 16:29:34.953125
118,335.1,2022-10-28 16:29:34.968750
119,373.24,2022-10-28 16:29:34.984375
120,399.93,2022-10-28 16:29:35.000000
121,414.54,2022-10-28 16:29:35.015625
122,419.1,2022-10-28 16:29:35.031250
123,417.46,2022-10-28 16:29:35.046875
124,413.92,2022-10-28 16:29:35.062500
125,411.92,2022-10-28 16:29:35.078125
126,412.93,2022-10-28 16:29:35.093750
127,416.22,2022-10-28 16:29:35.109375
128,419.33,2022-10-28 16:29:35.125000
129,419.06,2022-10-28 16:29:35.140625
130,412.72,2022-10-28 16:29:35.156250
131,399.14,2022-10-28 16:29:35.171875
132,378.96,2022-10-28 16:29:35.187500
133,354.34,2022-10-28 16:29:35.203125
134,328.03,2022-10-28 16:29:35.218750
135,302.31,2022-10-28 16:29:35.234375
136,278.35,2022-10-28 16:29:35.250000
137,255.98,2022-10-28 16:29:35.265625
138,234.2,2022-10-28 16:29:35.281250
139,211.74,2022-10-28 16:29:35.296875
140,187.66,2022-10-28 16:29:35.312500
141,161.58,2022-10-28 16:29:35.328125
142,133.5,2022-10-28 16:29:35.343750
143,103.6,2022-10-28 16:29:35.359375
144,72.08,2022-10-28 16:29:35.375000
145,39.12,2022-10-28 16:29:35.390625
146,4.97,2022-10-28 16:29:35.406250
147,-30.15,2022-10-28 16:29:35.421875
148,-66.16,2022-10-28 16:29:35.437500
149,-103.38,2022-10-28 16:29:35.453125
150,-142.44,2022-10-28 16:29:35.468750
151,-183.72,2022-10-28 16:29:35.484375
152,-226.55,2022-10-28 16:29:35.500000
153,-268.55,2022-10-28 16:29:35.515625
154,-305.85,2022-10-28 16:29:35.531250
155,-334.23,2022-10-28 16:29:35.546875
156,-350.74,2022-10-28 16:29:35.562500
157,-355.11,2022-10-28 16:29:35.578125
158,-350.22,2022-10-28 16:29:35.593750
159,-341.38,2022-10-28 16:29:35.609375
160,-334.77,2022-10-28 16:29:35.625000
161,-335.42,2022-10-28 16:29:35.640625
162,-345.78,2022-10-28 16:29:35.656250
163,-365.18,2022-10-28 16:29:35.671875
164,-390.28,2022-10-28 16:29:35.687500
165,-416.22,2022-10-28 16:29:35.703125
166,-437.93,2022-10-28 16:29:35.718750
167,-451.09,2022-10-28 16:29:35.734375
168,-452.67,2022-10-28 16:29:35.750000
169,-441.19,2022-10-28 16:29:35.765625
170,-416.91,2022-10-28 16:29:35.781250
171,-381.77,2022-10-28 16:29:35.796875
172,-339.08,2022-10-28 16:29:35.812500
173,-292.63,2022-10-28 16:29:35.828125
174,-245.68,2022-10-28 16:29:35.843750
175,-200.32,2022-10-28 16:29:35.859375
176,-157.28,2022-10-28 16:29:35.875000
177,-116.68,2022-10-28 16:29:35.890625
178,-78.99,2022-10-28 16:29:35.906250
179,-45.69,2022-10-28 16:29:35.921875
180,-18.73,2022-10-28 16:29:35.937500
181,0.69,2022-10-28 16:29:35.953125
182,13.37,2022-10-28 16:29:35.968750
183,22.25,2022-10-28 16:29:35.984375
184,31.19,2022-10-28 16:29:36.000000
185,43.07,2022-10-28 16:29:36.015625
186,58.3,2022-10-28 16:29:36.031250
187,74.91,2022-10-28 16:29:36.046875
188,89.9,2022-10-28 16:29:36.062500
189,101.03,2022-10-28 16:29:36.078125
190,107.92,2022-10-28 16:29:36.093750
191,111.92,2022-10-28 16:29:36.109375
192,114.97,2022-10-28 16:29:36.125000
193,118.5,2022-10-28 16:29:36.140625
194,122.75,2022-10-28 16:29:36.156250
195,127.01,2022-10-28 16:29:36.171875
196,130.29,2022-10-28 16:29:36.187500
197,132.09,2022-10-28 16:29:36.203125
198,132.79,2022-10-28 16:29:36.218750
199,133.45,2022-10-28 16:29:36.234375
200,135.44,2022-10-28 16:29:36.250000
201,139.66,2022-10-28 16:29:36.265625
202,145.95,2022-10-28 16:29:36.281250
203,152.81,2022-10-28 16:29:36.296875
204,157.82,2022-10-28 16:29:36.312500
205,158.58,2022-10-28 16:29:36.328125
206,153.86,2022-10-28 16:29:36.343750
207,144.08,2022-10-28 16:29:36.359375
208,130.99,2022-10-28 16:29:36.375000
209,116.47,2022-10-28 16:29:36.390625
210,101.01,2022-10-28 16:29:36.406250
211,83.25,2022-10-28 16:29:36.421875
212,60.51,2022-10-28 16:29:36.437500
213,30.49,2022-10-28 16:29:36.453125
214,-6.85,2022-10-28 16:29:36.468750
215,-48.79,2022-10-28 16:29:36.484375
216,-91.0,2022-10-28 16:29:36.500000
217,-129.95,2022-10-28 16:29:36.515625
218,-164.97,2022-10-28 16:29:36.531250
219,-198.35,2022-10-28 16:29:36.546875
220,-233.37,2022-10-28 16:29:36.562500
221,-271.23,2022-10-28 16:29:36.578125
222,-308.94,2022-10-28 16:29:36.593750
223,-339.49,2022-10-28 16:29:36.609375
224,-354.67,2022-10-28 16:29:36.625000
225,-348.87,2022-10-28 16:29:36.640625
226,-321.69,2022-10-28 16:29:36.656250
227,-278.21,2022-10-28 16:29:36.671875
228,-226.43,2022-10-28 16:29:36.687500
229,-173.42,2022-10-28 16:29:36.703125
230,-122.38,2022-10-28 16:29:36.718750
231,-72.44,2022-10-28 16:29:36.734375
232,-21.32,2022-10-28 16:29:36.750000
233,31.07,2022-10-28 16:29:36.765625
234,80.78,2022-10-28 16:29:36.781250
235,121.38,2022-10-28 16:29:36.796875
236,147.79,2022-10-28 16:29:36.812500
237,160.0,2022-10-28 16:29:36.828125
238,163.86,2022-10-28 16:29:36.843750
239,167.75,2022-10-28 16:29:36.859375
240,177.29,2022-10-28 16:29:36.875000
241,191.63,2022-10-28 16:29:36.890625
242,203.74,2022-10-28 16:29:36.906250
243,205.39,2022-10-28 16:29:36.921875
244,193.06,2022-10-28 16:29:36.937500
245,170.73,2022-10-28 16:29:36.953125
246,147.5,2022-10-28 16:29:36.968750
247,131.4,2022-10-28 16:29:36.984375
248,123.98,2022-10-28 16:29:37.000000
249,119.77,2022-10-28 16:29:37.015625
250,110.63,2022-10-28 16:29:37.031250
251,92.2,2022-10-28 16:29:37.046875
252,67.71,2022-10-28 16:29:37.062500
253,46.29,2022-10-28 16:29:37.078125
254,37.19,2022-10-28 16:29:37.093750
255,43.91,2022-10-28 16:29:37.109375
256,61.67,2022-10-28 16:29:37.125000
257,79.93,2022-10-28 16:29:37.140625
258,87.97,2022-10-28 16:29:37.156250
259,79.86,2022-10-28 16:29:37.171875
260,56.36,2022-10-28 16:29:37.187500
261,23.19,2022-10-28 16:29:37.203125
262,-12.49,2022-10-28 16:29:37.218750
263,-44.59,2022-10-28 16:29:37.234375
264,-69.13,2022-10-28 16:29:37.250000
265,-83.41,2022-10-28 16:29:37.265625
266,-85.48,2022-10-28 16:29:37.281250
267,-74.04,2022-10-28 16:29:37.296875
268,-49.32,2022-10-28 16:29:37.312500
269,-13.43,2022-10-28 16:29:37.328125
270,30.27,2022-10-28 16:29:37.343750
271,78.25,2022-10-28 16:29:37.359375
272,127.51,2022-10-28 16:29:37.375000
273,175.27,2022-10-28 16:29:37.390625
274,218.12,2022-10-28 16:29:37.406250
275,251.26,2022-10-28 16:29:37.421875
276,269.28,2022-10-28 16:29:37.437500
277,268.14,2022-10-28 16:29:37.453125
278,247.53,2022-10-28 16:29:37.468750
279,211.62,2022-10-28 16:29:37.484375
280,167.57,2022-10-28 16:29:37.500000
281,122.41,2022-10-28 16:29:37.515625
282,79.87,2022-10-28 16:29:37.531250
283,38.92,2022-10-28 16:29:37.546875
284,-4.93,2022-10-28 16:29:37.562500
285,-56.57,2022-10-28 16:29:37.578125
286,-117.67,2022-10-28 16:29:37.593750
287,-184.7,2022-10-28 16:29:37.609375
288,-249.3,2022-10-28 16:29:37.625000
289,-301.01,2022-10-28 16:29:37.640625
290,-330.75,2022-10-28 16:29:37.656250
291,-333.6,2022-10-28 16:29:37.671875
292,-309.49,2022-10-28 16:29:37.687500
293,-261.87,2022-10-28 16:29:37.703125
294,-195.81,2022-10-28 16:29:37.718750
295,-116.78,2022-10-28 16:29:37.734375
296,-31.4,2022-10-28 16:29:37.750000
297,51.68,2022-10-28 16:29:37.765625
298,122.16,2022-10-28 16:29:37.781250
299,170.83,2022-10-28 16:29:37.796875
300,193.54,2022-10-28 16:29:37.812500
301,193.72,2022-10-28 16:29:37.828125
302,181.28,2022-10-28 16:29:37.843750
303,168.22,2022-10-28 16:29:37.859375
304,162.74,2022-10-28 16:29:37.875000
305,165.52,2022-10-28 16:29:37.890625
306,170.23,2022-10-28 16:29:37.906250
307,167.39,2022-10-28 16:29:37.921875
308,149.0,2022-10-28 16:29:37.937500
309,111.56,2022-10-28 16:29:37.953125
310,56.0,2022-10-28 16:29:37.968750
311,-13.39,2022-10-28 16:29:37.984375
312,-90.04,2022-10-28 16:29:38.000000
313,-165.71,2022-10-28 16:29:38.015625
314,-230.46,2022-10-28 16:29:38.031250
315,-273.83,2022-10-28 16:29:38.046875
316,-287.51,2022-10-28 16:29:38.062500
317,-268.11,2022-10-28 16:29:38.078125
318,-219.2,2022-10-28 16:29:38.093750
319,-151.44,2022-10-28 16:29:38.109375
320,-80.28,2022-10-28 16:29:38.125000
321,-21.49,2022-10-28 16:29:38.140625
322,13.7,2022-10-28 16:29:38.156250
323,22.54,2022-10-28 16:29:38.171875
324,11.16,2022-10-28 16:29:38.187500
325,-8.95,2022-10-28 16:29:38.203125
326,-27.34,2022-10-28 16:29:38.218750
327,-40.47,2022-10-28 16:29:38.234375
328,-53.65,2022-10-28 16:29:38.250000
329,-77.48,2022-10-28 16:29:38.265625
330,-120.03,2022-10-28 16:29:38.281250
331,-180.15,2022-10-28 16:29:38.296875
332,-245.72,2022-10-28 16:29:38.312500
333,-298.77,2022-10-28 16:29:38.328125
334,-324.91,2022-10-28 16:29:38.343750
335,-320.35,2022-10-28 16:29:38.359375
336,-292.73,2022-10-28 16:29:38.375000
337,-255.26,2022-10-28 16:29:38.390625
338,-218.83,2022-10-28 16:29:38.406250
339,-187.2,2022-10-28 16:29:38.421875
340,-158.11,2022-10-28 16:29:38.437500
341,-127.71,2022-10-28 16:29:38.453125
342,-95.26,2022-10-28 16:29:38.468750
343,-64.09,2022-10-28 16:29:38.484375
344,-38.62,2022-10-28 16:29:38.500000
345,-21.01,2022-10-28 16:29:38.515625
346,-9.89,2022-10-28 16:29:38.531250
347,-2.33,2022-10-28 16:29:38.546875
348,2.48,2022-10-28 16:29:38.562500
349,1.5,2022-10-28 16:29:38.578125
350,-10.33,2022-10-28 16:29:38.593750
351,-36.15,2022-10-28 16:29:38.609375
352,-73.67,2022-10-28 16:29:38.625000
353,-114.88,2022-10-28 16:29:38.640625
354,-149.16,2022-10-28 16:29:38.656250
355,-168.05,2022-10-28 16:29:38.671875
356,-167.96,2022-10-28 16:29:38.687500
357,-149.9,2022-10-28 16:29:38.703125
358,-117.64,2022-10-28 16:29:38.718750
359,-75.81,2022-10-28 16:29:38.734375
360,-29.92,2022-10-28 16:29:38.750000
361,12.6,2022-10-28 16:29:38.765625
362,42.66,2022-10-28 16:29:38.781250
363,51.79,2022-10-28 16:29:38.796875
364,35.65,2022-10-28 16:29:38.812500
365,-2.95,2022-10-28 16:29:38.828125
366,-54.6,2022-10-28 16:29:38.843750
367,-107.28,2022-10-28 16:29:38.859375
368,-151.28,2022-10-28 16:29:38.875000
369,-182.55,2022-10-28 16:29:38.890625
370,-202.24,2022-10-28 16:29:38.906250
371,-213.58,2022-10-28 16:29:38.921875
372,-218.43,2022-10-28 16:29:38.937500
373,-216.07,2022-10-28 16:29:38.953125
374,-204.44,2022-10-28 16:29:38.968750
375,-182.74,2022-10-28 16:29:38.984375
376,-153.11,2022-10-28 16:29:39.000000
377,-119.85,2022-10-28 16:29:39.015625
378,-87.05,2022-10-28 16:29:39.031250
379,-56.59,2022-10-28 16:29:39.046875
380,-27.99,2022-10-28 16:29:39.062500
381,-0.31,2022-10-28 16:29:39.078125
382,25.67,2022-10-28 16:29:39.093750
383,46.76,2022-10-28 16:29:39.109375
384,58.74,2022-10-28 16:29:39.125000
385,59.02,2022-10-28 16:29:39.140625
386,48.99,2022-10-28 16:29:39.156250
387,33.79,2022-10-28 16:29:39.171875
388,20.45,2022-10-28 16:29:39.187500
389,14.78,2022-10-28 16:29:39.203125
390,19.04,2022-10-28 16:29:39.218750
391,31.58,2022-10-28 16:29:39.234375
392,48.7,2022-10-28 16:29:39.250000
393,67.03,2022-10-28 16:29:39.265625
394,85.34,2022-10-28 16:29:39.281250
395,104.98,2022-10-28 16:29:39.296875
396,128.3,2022-10-28 16:29:39.312500
397,156.93,2022-10-28 16:29:39.328125
398,190.44,2022-10-28 16:29:39.343750
399,226.01,2022-10-28 16:29:39.359375
400,259.42,2022-10-28 16:29:39.375000
401,286.49,2022-10-28 16:29:39.390625
402,304.46,2022-10-28 16:29:39.406250
403,313.02,2022-10-28 16:29:39.421875
404,314.92,2022-10-28 16:29:39.437500
405,314.87,2022-10-28 16:29:39.453125
406,317.74,2022-10-28 16:29:39.468750
407,326.34,2022-10-28 16:29:39.484375
408,339.99,2022-10-28 16:29:39.500000
409,354.9,2022-10-28 16:29:39.515625
410,366.14,2022-10-28 16:29:39.531250
411,370.2,2022-10-28 16:29:39.546875
412,366.51,2022-10-28 16:29:39.562500
413,357.12,2022-10-28 16:29:39.578125
414,344.74,2022-10-28 16:29:39.593750
415,330.72,2022-10-28 16:29:39.609375
416,314.19,2022-10-28 16:29:39.625000
417,292.94,2022-10-28 16:29:39.640625
418,265.34,2022-10-28 16:29:39.656250
419,231.73,2022-10-28 16:29:39.671875
420,194.41,2022-10-28 16:29:39.687500
421,156.35,2022-10-28 16:29:39.703125
422,119.57,2022-10-28 16:29:39.718750
423,84.38,2022-10-28 16:29:39.734375
424,49.91,2022-10-28 16:29:39.750000
425,15.35,2022-10-28 16:29:39.765625
426,-19.24,2022-10-28 16:29:39.781250
427,-52.82,2022-10-28 16:29:39.796875
428,-84.04,2022-10-28 16:29:39.812500
429,-111.75,2022-10-28 16:29:39.828125
430,-135.21,2022-10-28 16:29:39.843750
431,-153.7,2022-10-28 16:29:39.859375
432,-166.37,2022-10-28 16:29:39.875000
433,-172.29,2022-10-28 16:29:39.890625
434,-171.2,2022-10-28 16:29:39.906250
435,-164.03,2022-10-28 16:29:39.921875
436,-152.79,2022-10-28 16:29:39.937500
437,-139.93,2022-10-28 16:29:39.953125
438,-127.28,2022-10-28 16:29:39.968750
439,-115.64,2022-10-28 16:29:39.984375
440,-105.01,2022-10-28 16:29:40.000000
441,-95.28,2022-10-28 16:29:40.015625
442,-86.82,2022-10-28 16:29:40.031250
443,-80.35,2022-10-28 16:29:40.046875
444,-76.26,2022-10-28 16:29:40.062500
445,-73.91,2022-10-28 16:29:40.078125
446,-71.4,2022-10-28 16:29:40.093750
447,-66.38,2022-10-28 16:29:40.109375
448,-57.13,2022-10-28 16:29:40.125000
449,-43.57,2022-10-28 16:29:40.140625
450,-27.34,2022-10-28 16:29:40.156250
451,-10.93,2022-10-28 16:29:40.171875
452,3.59,2022-10-28 16:29:40.187500
453,15.42,2022-10-28 16:29:40.203125
454,25.11,2022-10-28 16:29:40.218750
455,33.79,2022-10-28 16:29:40.234375
456,42.25,2022-10-28 16:29:40.250000
457,50.35,2022-10-28 16:29:40.265625
458,57.21,2022-10-28 16:29:40.281250
459,61.77,2022-10-28 16:29:40.296875
460,63.47,2022-10-28 16:29:40.312500
461,62.65,2022-10-28 16:29:40.328125
462,60.27,2022-10-28 16:29:40.343750
463,57.53,2022-10-28 16:29:40.359375
464,55.28,2022-10-28 16:29:40.375000
465,53.77,2022-10-28 16:29:40.390625
466,52.74,2022-10-28 16:29:40.406250
467,51.67,2022-10-28 16:29:40.421875
468,50.18,2022-10-28 16:29:40.437500
469,48.14,2022-10-28 16:29:40.453125
470,45.71,2022-10-28 16:29:40.468750
471,43.16,2022-10-28 16:29:40.484375
472,40.65,2022-10-28 16:29:40.500000
473,38.18,2022-10-28 16:29:40.515625
474,35.58,2022-10-28 16:29:40.531250
475,32.65,2022-10-28 16:29:40.546875
476,29.33,2022-10-28 16:29:40.562500
477,25.73,2022-10-28 16:29:40.578125
478,22.06,2022-10-28 16:29:40.593750
479,18.52,2022-10-28 16:29:40.609375
480,15.18,2022-10-28 16:29:40.625000
481,12.03,2022-10-28 16:29:40.640625
482,8.95,2022-10-28 16:29:40.656250
483,5.79,2022-10-28 16:29:40.671875
484,2.46,2022-10-28 16:29:40.687500
485,-1.17,2022-10-28 16:29:40.703125
486,-5.14,2022-10-28 16:29:40.718750
487,-9.4,2022-10-28 16:29:40.734375
488,-13.62,2022-10-28 16:29:40.750000
489,-17.22,2022-10-28 16:29:40.765625
490,-19.38,2022-10-28 16:29:40.781250
491,-19.34,2022-10-28 16:29:40.796875
492,-16.6,2022-10-28 16:29:40.812500
493,-11.19,2022-10-28 16:29:40.828125
494,-3.75,2022-10-28 16:29:40.843750
495,4.53,2022-10-28 16:29:40.859375
496,12.19,2022-10-28 16:29:40.875000
497,18.05,2022-10-28 16:29:40.890625
498,21.58,2022-10-28 16:29:40.906250
499,23.06,2022-10-28 16:29:40.921875
500,23.35,2022-10-28 16:29:40.937500
501,23.3,2022-10-28 16:29:40.953125
502,23.22,2022-10-28 16:29:40.968750
503,22.54,2022-10-28 16:29:40.984375
504,20.14,2022-10-28 16:29:41.000000
505,15.01,2022-10-28 16:29:41.015625
506,6.81,2022-10-28 16:29:41.031250
507,-3.81,2022-10-28 16:29:41.046875
508,-15.44,2022-10-28 16:29:41.062500
509,-26.42,2022-10-28 16:29:41.078125
510,-35.3,2022-10-28 16:29:41.093750
511,-40.99,2022-10-28 16:29:41.109375
512,-42.7,2022-10-28 16:29:41.125000
513,-39.89,2022-10-28 16:29:41.140625
514,-32.6,2022-10-28 16:29:41.156250
515,-21.83,2022-10-28 16:29:41.171875
516,-9.72,2022-10-28 16:29:41.187500
517,0.8,2022-10-28 16:29:41.203125
518,6.89,2022-10-28 16:29:41.218750
519,6.81,2022-10-28 16:29:41.234375
520,0.33,2022-10-28 16:29:41.250000
521,-11.4,2022-10-28 16:29:41.265625
522,-26.74,2022-10-28 16:29:41.281250
523,-44.24,2022-10-28 16:29:41.296875
524,-62.99,2022-10-28 16:29:41.312500
525,-82.33,2022-10-28 16:29:41.328125
526,-101.35,2022-10-28 16:29:41.343750
527,-118.63,2022-10-28 16:29:41.359375
528,-132.58,2022-10-28 16:29:41.375000
529,-142.07,2022-10-28 16:29:41.390625
530,-146.83,2022-10-28 16:29:41.406250
531,-147.42,2022-10-28 16:29:41.421875
532,-144.68,2022-10-28 16:29:41.437500
533,-139.27,2022-10-28 16:29:41.453125
534,-131.53,2022-10-28 16:29:41.468750
535,-121.72,2022-10-28 16:29:41.484375
536,-110.4,2022-10-28 16:29:41.500000
537,-98.36,2022-10-28 16:29:41.515625
538,-86.03,2022-10-28 16:29:41.531250
539,-72.79,2022-10-28 16:29:41.546875
540,-56.62,2022-10-28 16:29:41.562500
541,-34.67,2022-10-28 16:29:41.578125
542,-4.6,2022-10-28 16:29:41.593750
543,33.82,2022-10-28 16:29:41.609375
544,77.75,2022-10-28 16:29:41.625000
545,121.79,2022-10-28 16:29:41.640625
546,159.65,2022-10-28 16:29:41.656250
547,186.46,2022-10-28 16:29:41.671875
548,200.44,2022-10-28 16:29:41.687500
549,203.06,2022-10-28 16:29:41.703125
550,197.86,2022-10-28 16:29:41.718750
551,188.52,2022-10-28 16:29:41.734375
552,177.47,2022-10-28 16:29:41.750000
553,165.7,2022-10-28 16:29:41.765625
554,153.53,2022-10-28 16:29:41.781250
555,141.62,2022-10-28 16:29:41.796875
556,131.44,2022-10-28 16:29:41.812500
557,124.91,2022-10-28 16:29:41.828125
558,123.66,2022-10-28 16:29:41.843750
559,128.4,2022-10-28 16:29:41.859375
560,138.79,2022-10-28 16:29:41.875000
561,153.61,2022-10-28 16:29:41.890625
562,170.93,2022-10-28 16:29:41.906250
563,188.2,2022-10-28 16:29:41.921875
564,202.4,2022-10-28 16:29:41.937500
565,210.54,2022-10-28 16:29:41.953125
566,210.52,2022-10-28 16:29:41.968750
567,201.89,2022-10-28 16:29:41.984375
568,185.81,2022-10-28 16:29:42.000000
569,164.29,2022-10-28 16:29:42.015625
570,138.71,2022-10-28 16:29:42.031250
571,108.93,2022-10-28 16:29:42.046875
572,73.39,2022-10-28 16:29:42.062500
573,30.34,2022-10-28 16:29:42.078125
574,-20.52,2022-10-28 16:29:42.093750
575,-77.05,2022-10-28 16:29:42.109375
576,-134.92,2022-10-28 16:29:42.125000
577,-188.82,2022-10-28 16:29:42.140625
578,-234.2,2022-10-28 16:29:42.156250
579,-268.69,2022-10-28 16:29:42.171875
580,-292.61,2022-10-28 16:29:42.187500
581,-308.55,2022-10-28 16:29:42.203125
582,-319.95,2022-10-28 16:29:42.218750
583,-329.28,2022-10-28 16:29:42.234375
584,-336.7,2022-10-28 16:29:42.250000
585,-339.81,2022-10-28 16:29:42.265625
586,-334.78,2022-10-28 16:29:42.281250
587,-318.51,2022-10-28 16:29:42.296875
588,-290.7,2022-10-28 16:29:42.312500
589,-254.78,2022-10-28 16:29:42.328125
590,-217.08,2022-10-28 16:29:42.343750
591,-184.46,2022-10-28 16:29:42.359375
592,-161.59,2022-10-28 16:29:42.375000
593,-149.22,2022-10-28 16:29:42.390625
594,-144.31,2022-10-28 16:29:42.406250
595,-141.7,2022-10-28 16:29:42.421875
596,-136.62,2022-10-28 16:29:42.437500
597,-126.6,2022-10-28 16:29:42.453125
598,-112.12,2022-10-28 16:29:42.468750
599,-95.85,2022-10-28 16:29:42.484375
600,-80.99,2022-10-28 16:29:42.500000
601,-69.44,2022-10-28 16:29:42.515625
602,-60.76,2022-10-28 16:29:42.531250
603,-52.22,2022-10-28 16:29:42.546875
604,-39.65,2022-10-28 16:29:42.562500
605,-19.26,2022-10-28 16:29:42.578125
606,10.52,2022-10-28 16:29:42.593750
607,47.69,2022-10-28 16:29:42.609375
608,86.51,2022-10-28 16:29:42.625000
609,118.97,2022-10-28 16:29:42.640625
610,137.3,2022-10-28 16:29:42.656250
611,136.94,2022-10-28 16:29:42.671875
612,118.51,2022-10-28 16:29:42.687500
613,87.96,2022-10-28 16:29:42.703125
614,54.81,2022-10-28 16:29:42.718750
615,29.16,2022-10-28 16:29:42.734375
616,18.49,2022-10-28 16:29:42.750000
617,25.51,2022-10-28 16:29:42.765625
618,47.88,2022-10-28 16:29:42.781250
619,79.27,2022-10-28 16:29:42.796875
620,111.41,2022-10-28 16:29:42.812500
621,136.57,2022-10-28 16:29:42.828125
622,149.48,2022-10-28 16:29:42.843750
623,148.49,2022-10-28 16:29:42.859375
624,135.99,2022-10-28 16:29:42.875000
625,117.14,2022-10-28 16:29:42.890625
626,97.85,2022-10-28 16:29:42.906250
627,82.31,2022-10-28 16:29:42.921875
628,71.53,2022-10-28 16:29:42.937500
629,63.54,2022-10-28 16:29:42.953125
630,55.1,2022-10-28 16:29:42.968750
631,43.79,2022-10-28 16:29:42.984375
632,29.04,2022-10-28 16:29:43.000000
633,12.01,2022-10-28 16:29:43.015625
634,-5.51,2022-10-28 16:29:43.031250
635,-21.96,2022-10-28 16:29:43.046875
636,-35.94,2022-10-28 16:29:43.062500
637,-45.23,2022-10-28 16:29:43.078125
638,-46.11,2022-10-28 16:29:43.093750
639,-33.89,2022-10-28 16:29:43.109375
640,-5.13,2022-10-28 16:29:43.125000
641,39.34,2022-10-28 16:29:43.140625
642,92.87,2022-10-28 16:29:43.156250
643,144.05,2022-10-28 16:29:43.171875
644,180.67,2022-10-28 16:29:43.187500
645,194.58,2022-10-28 16:29:43.203125
646,184.93,2022-10-28 16:29:43.218750
647,158.2,2022-10-28 16:29:43.234375
648,124.96,2022-10-28 16:29:43.250000
649,95.19,2022-10-28 16:29:43.265625
650,74.4,2022-10-28 16:29:43.281250
651,62.21,2022-10-28 16:29:43.296875
652,53.5,2022-10-28 16:29:43.312500
653,41.5,2022-10-28 16:29:43.328125
654,21.15,2022-10-28 16:29:43.343750
655,-8.72,2022-10-28 16:29:43.359375
656,-44.79,2022-10-28 16:29:43.375000
657,-80.68,2022-10-28 16:29:43.390625
658,-109.05,2022-10-28 16:29:43.406250
659,-124.15,2022-10-28 16:29:43.421875
660,-123.63,2022-10-28 16:29:43.437500
661,-109.13,2022-10-28 16:29:43.453125
662,-85.57,2022-10-28 16:29:43.468750
663,-59.46,2022-10-28 16:29:43.484375
664,-37.03,2022-10-28 16:29:43.500000
665,-22.66,2022-10-28 16:29:43.515625
666,-18.3,2022-10-28 16:29:43.531250
667,-23.19,2022-10-28 16:29:43.546875
668,-33.9,2022-10-28 16:29:43.562500
669,-44.88,2022-10-28 16:29:43.578125
670,-49.4,2022-10-28 16:29:43.593750
671,-41.79,2022-10-28 16:29:43.609375
672,-19.91,2022-10-28 16:29:43.625000
673,13.28,2022-10-28 16:29:43.640625
674,50.01,2022-10-28 16:29:43.656250
675,79.93,2022-10-28 16:29:43.671875
676,93.65,2022-10-28 16:29:43.687500
677,85.74,2022-10-28 16:29:43.703125
678,56.53,2022-10-28 16:29:43.718750
679,12.18,2022-10-28 16:29:43.734375
680,-36.84,2022-10-28 16:29:43.750000
681,-78.28,2022-10-28 16:29:43.765625
682,-101.44,2022-10-28 16:29:43.781250
683,-100.54,2022-10-28 16:29:43.796875
684,-76.92,2022-10-28 16:29:43.812500
685,-39.03,2022-10-28 16:29:43.828125
686,0.37,2022-10-28 16:29:43.843750
687,28.98,2022-10-28 16:29:43.859375
688,39.57,2022-10-28 16:29:43.875000
689,32.18,2022-10-28 16:29:43.890625
690,13.06,2022-10-28 16:29:43.906250
691,-9.02,2022-10-28 16:29:43.921875
692,-26.97,2022-10-28 16:29:43.937500
693,-37.76,2022-10-28 16:29:43.953125
694,-42.34,2022-10-28 16:29:43.968750
695,-43.41,2022-10-28 16:29:43.984375
696,-43.2,2022-10-28 16:29:44.000000
697,-42.14,2022-10-28 16:29:44.015625
698,-39.52,2022-10-28 16:29:44.031250
699,-34.65,2022-10-28 16:29:44.046875
700,-27.9,2022-10-28 16:29:44.062500
701,-20.82,2022-10-28 16:29:44.078125
702,-15.12,2022-10-28 16:29:44.093750
703,-11.64,2022-10-28 16:29:44.109375
704,-9.57,2022-10-28 16:29:44.125000
705,-6.58,2022-10-28 16:29:44.140625
706,0.04,2022-10-28 16:29:44.156250
707,11.82,2022-10-28 16:29:44.171875
708,28.18,2022-10-28 16:29:44.187500
709,46.36,2022-10-28 16:29:44.203125
710,62.69,2022-10-28 16:29:44.218750
711,74.42,2022-10-28 16:29:44.234375
712,81.08,2022-10-28 16:29:44.250000
713,84.69,2022-10-28 16:29:44.265625
714,88.53,2022-10-28 16:29:44.281250
715,95.27,2022-10-28 16:29:44.296875
716,105.39,2022-10-28 16:29:44.312500
717,116.86,2022-10-28 16:29:44.328125
718,126.17,2022-10-28 16:29:44.343750
719,130.16,2022-10-28 16:29:44.359375
720,127.67,2022-10-28 16:29:44.375000
721,119.88,2022-10-28 16:29:44.390625
722,109.53,2022-10-28 16:29:44.406250
723,99.29,2022-10-28 16:29:44.421875
724,90.57,2022-10-28 16:29:44.437500
725,83.17,2022-10-28 16:29:44.453125
726,75.97,2022-10-28 16:29:44.468750
727,67.86,2022-10-28 16:29:44.484375
728,58.41,2022-10-28 16:29:44.500000
729,47.92,2022-10-28 16:29:44.515625
730,37.16,2022-10-28 16:29:44.531250
731,26.89,2022-10-28 16:29:44.546875
732,17.74,2022-10-28 16:29:44.562500
733,10.18,2022-10-28 16:29:44.578125
734,4.46,2022-10-28 16:29:44.593750
735,0.53,2022-10-28 16:29:44.609375
736,-2.12,2022-10-28 16:29:44.625000
737,-4.27,2022-10-28 16:29:44.640625
738,-6.58,2022-10-28 16:29:44.656250
739,-9.12,2022-10-28 16:29:44.671875
740,-11.32,2022-10-28 16:29:44.687500
741,-12.32,2022-10-28 16:29:44.703125
742,-11.56,2022-10-28 16:29:44.718750
743,-9.17,2022-10-28 16:29:44.734375
744,-6.05,2022-10-28 16:29:44.750000
745,-3.28,2022-10-28 16:29:44.765625
746,-1.72,2022-10-28 16:29:44.781250
747,-1.72,2022-10-28 16:29:44.796875
748,-3.37,2022-10-28 16:29:44.812500
749,-6.64,2022-10-28 16:29:44.828125
750,-11.47,2022-10-28 16:29:44.843750
751,-17.58,2022-10-28 16:29:44.859375
752,-24.41,2022-10-28 16:29:44.875000
753,-31.3,2022-10-28 16:29:44.890625
754,-37.91,2022-10-28 16:29:44.906250
755,-44.53,2022-10-28 16:29:44.921875
756,-51.75,2022-10-28 16:29:44.937500
757,-59.65,2022-10-28 16:29:44.953125
758,-67.0,2022-10-28 16:29:44.968750
759,-71.18,2022-10-28 16:29:44.984375
760,-69.29,2022-10-28 16:29:45.000000
761,-59.95,2022-10-28 16:29:45.015625
762,-44.71,2022-10-28 16:29:45.031250
763,-27.86,2022-10-28 16:29:45.046875
764,-14.69,2022-10-28 16:29:45.062500
765,-8.97,2022-10-28 16:29:45.078125
766,-11.18,2022-10-28 16:29:45.093750
767,-18.7,2022-10-28 16:29:45.109375
768,-27.82,2022-10-28 16:29:45.125000
769,-36.27,2022-10-28 16:29:45.140625
770,-44.87,2022-10-28 16:29:45.156250
771,-57.24,2022-10-28 16:29:45.171875
772,-78.1,2022-10-28 16:29:45.187500
773,-110.76,2022-10-28 16:29:45.203125
774,-155.58,2022-10-28 16:29:45.218750
775,-209.17,2022-10-28 16:29:45.234375
776,-265.2,2022-10-28 16:29:45.250000
777,-315.71,2022-10-28 16:29:45.265625
778,-352.73,2022-10-28 16:29:45.281250
779,-369.9,2022-10-28 16:29:45.296875
780,-363.97,2022-10-28 16:29:45.312500
781,-335.89,2022-10-28 16:29:45.328125
782,-290.74,2022-10-28 16:29:45.343750
783,-236.6,2022-10-28 16:29:45.359375
784,-182.05,2022-10-28 16:29:45.375000
785,-133.62,2022-10-28 16:29:45.390625
786,-94.14,2022-10-28 16:29:45.406250
787,-62.79,2022-10-28 16:29:45.421875
788,-36.43,2022-10-28 16:29:45.437500
789,-11.41,2022-10-28 16:29:45.453125
790,14.78,2022-10-28 16:29:45.468750
791,42.99,2022-10-28 16:29:45.484375
792,72.72,2022-10-28 16:29:45.500000
793,102.94,2022-10-28 16:29:45.515625
794,132.82,2022-10-28 16:29:45.531250
795,162.14,2022-10-28 16:29:45.546875
796,190.55,2022-10-28 16:29:45.562500
797,216.91,2022-10-28 16:29:45.578125
798,238.57,2022-10-28 16:29:45.593750
799,251.46,2022-10-28 16:29:45.609375
800,251.24,2022-10-28 16:29:45.625000
801,234.91,2022-10-28 16:29:45.640625
802,202.5,2022-10-28 16:29:45.656250
803,157.59,2022-10-28 16:29:45.671875
804,106.73,2022-10-28 16:29:45.687500
805,57.93,2022-10-28 16:29:45.703125
806,18.52,2022-10-28 16:29:45.718750
807,-6.4,2022-10-28 16:29:45.734375
808,-15.07,2022-10-28 16:29:45.750000
809,-9.19,2022-10-28 16:29:45.765625
810,6.77,2022-10-28 16:29:45.781250
811,26.89,2022-10-28 16:29:45.796875
812,45.49,2022-10-28 16:29:45.812500
813,58.73,2022-10-28 16:29:45.828125
814,65.73,2022-10-28 16:29:45.843750
815,68.47,2022-10-28 16:29:45.859375
816,70.47,2022-10-28 16:29:45.875000
817,74.73,2022-10-28 16:29:45.890625
818,82.15,2022-10-28 16:29:45.906250
819,90.95,2022-10-28 16:29:45.921875
820,97.48,2022-10-28 16:29:45.937500
821,97.84,2022-10-28 16:29:45.953125
822,89.44,2022-10-28 16:29:45.968750
823,71.8,2022-10-28 16:29:45.984375
824,46.54,2022-10-28 16:29:46.000000
825,16.97,2022-10-28 16:29:46.015625
826,-12.47,2022-10-28 16:29:46.031250
827,-36.62,2022-10-28 16:29:46.046875
828,-51.02,2022-10-28 16:29:46.062500
829,-53.23,2022-10-28 16:29:46.078125
830,-43.98,2022-10-28 16:29:46.093750
831,-27.38,2022-10-28 16:29:46.109375
832,-9.56,2022-10-28 16:29:46.125000
833,3.63,2022-10-28 16:29:46.140625
834,8.95,2022-10-28 16:29:46.156250
835,6.92,2022-10-28 16:29:46.171875
836,1.22,2022-10-28 16:29:46.187500
837,-3.44,2022-10-28 16:29:46.203125
838,-3.65,2022-10-28 16:29:46.218750
839,1.17,2022-10-28 16:29:46.234375
840,8.78,2022-10-28 16:29:46.250000
841,15.52,2022-10-28 16:29:46.265625
842,17.94,2022-10-28 16:29:46.281250
843,14.16,2022-10-28 16:29:46.296875
844,4.27,2022-10-28 16:29:46.312500
845,-10.03,2022-10-28 16:29:46.328125
846,-26.3,2022-10-28 16:29:46.343750
847,-41.91,2022-10-28 16:29:46.359375
848,-54.52,2022-10-28 16:29:46.375000
849,-62.51,2022-10-28 16:29:46.390625
850,-65.26,2022-10-28 16:29:46.406250
851,-63.5,2022-10-28 16:29:46.421875
852,-59.5,2022-10-28 16:29:46.437500
853,-56.61,2022-10-28 16:29:46.453125
854,-58.31,2022-10-28 16:29:46.468750
855,-66.78,2022-10-28 16:29:46.484375
856,-81.77,2022-10-28 16:29:46.500000
857,-100.05,2022-10-28 16:29:46.515625
858,-116.21,2022-10-28 16:29:46.531250
859,-124.43,2022-10-28 16:29:46.546875
860,-120.63,2022-10-28 16:29:46.562500
861,-104.02,2022-10-28 16:29:46.578125
862,-77.5,2022-10-28 16:29:46.593750
863,-46.56,2022-10-28 16:29:46.609375
864,-17.42,2022-10-28 16:29:46.625000
865,5.12,2022-10-28 16:29:46.640625
866,18.94,2022-10-28 16:29:46.656250
867,24.74,2022-10-28 16:29:46.671875
868,25.1,2022-10-28 16:29:46.687500
869,23.14,2022-10-28 16:29:46.703125
870,21.34,2022-10-28 16:29:46.718750
871,21.12,2022-10-28 16:29:46.734375
872,22.83,2022-10-28 16:29:46.750000
873,26.35,2022-10-28 16:29:46.765625
874,31.39,2022-10-28 16:29:46.781250
875,37.54,2022-10-28 16:29:46.796875
876,44.25,2022-10-28 16:29:46.812500
877,50.81,2022-10-28 16:29:46.828125
878,56.51,2022-10-28 16:29:46.843750
879,60.91,2022-10-28 16:29:46.859375
880,63.96,2022-10-28 16:29:46.875000
881,65.89,2022-10-28 16:29:46.890625
882,66.87,2022-10-28 16:29:46.906250
883,66.76,2022-10-28 16:29:46.921875
884,65.19,2022-10-28 16:29:46.937500
885,61.95,2022-10-28 16:29:46.953125
886,57.46,2022-10-28 16:29:46.968750
887,52.88,2022-10-28 16:29:46.984375
888,49.71,2022-10-28 16:29:47.000000
889,49.07,2022-10-28 16:29:47.015625
890,51.03,2022-10-28 16:29:47.031250
891,54.53,2022-10-28 16:29:47.046875
892,57.79,2022-10-28 16:29:47.062500
893,58.98,2022-10-28 16:29:47.078125
894,56.8,2022-10-28 16:29:47.093750
895,50.3,2022-10-28 16:29:47.109375
896,38.7,2022-10-28 16:29:47.125000
897,21.58,2022-10-28 16:29:47.140625
898,-0.48,2022-10-28 16:29:47.156250
899,-25.13,2022-10-28 16:29:47.171875
900,-48.19,2022-10-28 16:29:47.187500
901,-64.79,2022-10-28 16:29:47.203125
902,-71.32,2022-10-28 16:29:47.218750
903,-67.16,2022-10-28 16:29:47.234375
904,-55.11,2022-10-28 16:29:47.250000
905,-40.06,2022-10-28 16:29:47.265625
906,-26.62,2022-10-28 16:29:47.281250
907,-16.99,2022-10-28 16:29:47.296875
908,-10.26,2022-10-28 16:29:47.312500
909,-3.51,2022-10-28 16:29:47.328125
910,6.05,2022-10-28 16:29:47.343750
911,19.11,2022-10-28 16:29:47.359375
912,33.73,2022-10-28 16:29:47.375000
913,46.1,2022-10-28 16:29:47.390625
914,52.47,2022-10-28 16:29:47.406250
915,50.76,2022-10-28 16:29:47.421875
916,41.37,2022-10-28 16:29:47.437500
917,26.95,2022-10-28 16:29:47.453125
918,11.54,2022-10-28 16:29:47.468750
919,-0.66,2022-10-28 16:29:47.484375
920,-6.44,2022-10-28 16:29:47.500000
921,-4.39,2022-10-28 16:29:47.515625
922,4.81,2022-10-28 16:29:47.531250
923,18.72,2022-10-28 16:29:47.546875
924,33.74,2022-10-28 16:29:47.562500
925,45.92,2022-10-28 16:29:47.578125
926,51.9,2022-10-28 16:29:47.593750
927,49.52,2022-10-28 16:29:47.609375
928,38.17,2022-10-28 16:29:47.625000
929,18.97,2022-10-28 16:29:47.640625
930,-5.59,2022-10-28 16:29:47.656250
931,-31.9,2022-10-28 16:29:47.671875
932,-55.58,2022-10-28 16:29:47.687500
933,-71.97,2022-10-28 16:29:47.703125
934,-77.07,2022-10-28 16:29:47.718750
935,-68.84,2022-10-28 16:29:47.734375
936,-48.52,2022-10-28 16:29:47.750000
937,-21.27,2022-10-28 16:29:47.765625
938,5.0,2022-10-28 16:29:47.781250
939,22.24,2022-10-28 16:29:47.796875
940,25.51,2022-10-28 16:29:47.812500
941,15.12,2022-10-28 16:29:47.828125
942,-4.12,2022-10-28 16:29:47.843750
943,-26.15,2022-10-28 16:29:47.859375
944,-47.73,2022-10-28 16:29:47.875000
945,-70.68,2022-10-28 16:29:47.890625
946,-100.33,2022-10-28 16:29:47.906250
947,-140.68,2022-10-28 16:29:47.921875
948,-189.56,2022-10-28 16:29:47.937500
949,-237.05,2022-10-28 16:29:47.953125
950,-269.02,2022-10-28 16:29:47.968750
951,-274.11,2022-10-28 16:29:47.984375
952,-249.83,2022-10-28 16:29:48.000000
953,-204.06,2022-10-28 16:29:48.015625
954,-150.82,2022-10-28 16:29:48.031250
955,-103.22,2022-10-28 16:29:48.046875
956,-67.83,2022-10-28 16:29:48.062500
957,-43.89,2022-10-28 16:29:48.078125
958,-26.35,2022-10-28 16:29:48.093750
959,-10.62,2022-10-28 16:29:48.109375
960,4.9,2022-10-28 16:29:48.125000
961,20.01,2022-10-28 16:29:48.140625
962,35.69,2022-10-28 16:29:48.156250
963,55.78,2022-10-28 16:29:48.171875
964,85.53,2022-10-28 16:29:48.187500
965,127.89,2022-10-28 16:29:48.203125
966,180.3,2022-10-28 16:29:48.218750
967,235.0,2022-10-28 16:29:48.234375
968,283.15,2022-10-28 16:29:48.250000
969,319.78,2022-10-28 16:29:48.265625
970,346.24,2022-10-28 16:29:48.281250
971,368.15,2022-10-28 16:29:48.296875
972,390.66,2022-10-28 16:29:48.312500
973,414.77,2022-10-28 16:29:48.328125
974,437.05,2022-10-28 16:29:48.343750
975,452.73,2022-10-28 16:29:48.359375
976,459.46,2022-10-28 16:29:48.375000
977,458.69,2022-10-28 16:29:48.390625
978,453.74,2022-10-28 16:29:48.406250
979,446.42,2022-10-28 16:29:48.421875
980,434.96,2022-10-28 16:29:48.437500
981,415.01,2022-10-28 16:29:48.453125
982,383.22,2022-10-28 16:29:48.468750
983,340.3,2022-10-28 16:29:48.484375
984,291.57,2022-10-28 16:29:48.500000
985,244.29,2022-10-28 16:29:48.515625
986,203.77,2022-10-28 16:29:48.531250
987,171.09,2022-10-28 16:29:48.546875
988,143.57,2022-10-28 16:29:48.562500
989,116.98,2022-10-28 16:29:48.578125
990,88.47,2022-10-28 16:29:48.593750
991,57.84,2022-10-28 16:29:48.609375
992,26.95,2022-10-28 16:29:48.625000
993,-1.86,2022-10-28 16:29:48.640625
994,-27.22,2022-10-28 16:29:48.656250
995,-49.63,2022-10-28 16:29:48.671875
996,-71.81,2022-10-28 16:29:48.687500
997,-97.78,2022-10-28 16:29:48.703125
998,-131.24,2022-10-28 16:29:48.718750
999,-173.49,2022-10-28 16:29:48.734375
1000,-221.61,2022-10-28 16:29:48.750000
1001,-268.06,2022-10-28 16:29:48.765625
1002,-302.3,2022-10-28 16:29:48.781250
1003,-314.0,2022-10-28 16:29:48.796875
1004,-296.51,2022-10-28 16:29:48.812500
1005,-248.98,2022-10-28 16:29:48.828125
1006,-176.51,2022-10-28 16:29:48.843750
1007,-88.49,2022-10-28 16:29:48.859375
1008,3.83,2022-10-28 16:29:48.875000
1009,89.5,2022-10-28 16:29:48.890625
1010,159.37,2022-10-28 16:29:48.906250
1011,207.09,2022-10-28 16:29:48.921875
1012,229.71,2022-10-28 16:29:48.937500
1013,228.08,2022-10-28 16:29:48.953125
1014,206.59,2022-10-28 16:29:48.968750
1015,171.96,2022-10-28 16:29:48.984375
1016,131.31,2022-10-28 16:29:49.000000
1017,90.4,2022-10-28 16:29:49.015625
1018,52.63,2022-10-28 16:29:49.031250
1019,19.62,2022-10-28 16:29:49.046875
1020,-7.79,2022-10-28 16:29:49.062500
1021,-29.07,2022-10-28 16:29:49.078125
1022,-44.08,2022-10-28 16:29:49.093750
1023,-53.9,2022-10-28 16:29:49.109375
1024,-61.58,2022-10-28 16:29:49.125000
1025,-71.69,2022-10-28 16:29:49.140625
1026,-88.9,2022-10-28 16:29:49.156250
1027,-116.01,2022-10-28 16:29:49.171875
1028,-152.89,2022-10-28 16:29:49.187500
1029,-196.26,2022-10-28 16:29:49.203125
1030,-240.52,2022-10-28 16:29:49.218750
1031,-279.24,2022-10-28 16:29:49.234375
1032,-306.27,2022-10-28 16:29:49.250000
1033,-316.61,2022-10-28 16:29:49.265625
1034,-307.16,2022-10-28 16:29:49.281250
1035,-277.63,2022-10-28 16:29:49.296875
1036,-231.43,2022-10-28 16:29:49.312500
1037,-175.94,2022-10-28 16:29:49.328125
1038,-121.42,2022-10-28 16:29:49.343750
1039,-78.56,2022-10-28 16:29:49.359375
1040,-55.2,2022-10-28 16:29:49.375000
1041,-54.22,2022-10-28 16:29:49.390625
1042,-73.02,2022-10-28 16:29:49.406250
1043,-105.29,2022-10-28 16:29:49.421875
1044,-143.94,2022-10-28 16:29:49.437500
1045,-183.77,2022-10-28 16:29:49.453125
1046,-222.75,2022-10-28 16:29:49.468750
1047,-261.87,2022-10-28 16:29:49.484375
1048,-303.93,2022-10-28 16:29:49.500000
1049,-351.83,2022-10-28 16:29:49.515625
1050,-407.13,2022-10-28 16:29:49.531250
1051,-468.57,2022-10-28 16:29:49.546875
1052,-531.56,2022-10-28 16:29:49.562500
1053,-589.05,2022-10-28 16:29:49.578125
1054,-633.3,2022-10-28 16:29:49.593750
1055,-658.56,2022-10-28 16:29:49.609375
1056,-663.23,2022-10-28 16:29:49.625000
1057,-650.31,2022-10-28 16:29:49.640625
1058,-626.07,2022-10-28 16:29:49.656250
1059,-597.33,2022-10-28 16:29:49.671875
1060,-569.02,2022-10-28 16:29:49.687500
1061,-543.29,2022-10-28 16:29:49.703125
1062,-519.97,2022-10-28 16:29:49.718750
1063,-498.06,2022-10-28 16:29:49.734375
1064,-476.84,2022-10-28 16:29:49.750000
1065,-455.97,2022-10-28 16:29:49.765625
1066,-434.87,2022-10-28 16:29:49.781250
1067,-412.05,2022-10-28 16:29:49.796875
1068,-385.22,2022-10-28 16:29:49.812500
1069,-352.06,2022-10-28 16:29:49.828125
1070,-311.35,2022-10-28 16:29:49.843750
1071,-263.56,2022-10-28 16:29:49.859375
1072,-210.68,2022-10-28 16:29:49.875000
1073,-155.66,2022-10-28 16:29:49.890625
1074,-101.27,2022-10-28 16:29:49.906250
1075,-49.33,2022-10-28 16:29:49.921875
1076,-0.56,2022-10-28 16:29:49.937500
1077,45.25,2022-10-28 16:29:49.953125
1078,88.59,2022-10-28 16:29:49.968750
1079,129.73,2022-10-28 16:29:49.984375
1080,168.34,2022-10-28 16:29:50.000000
1081,203.58,2022-10-28 16:29:50.015625
1082,234.41,2022-10-28 16:29:50.031250
1083,260.11,2022-10-28 16:29:50.046875
1084,280.59,2022-10-28 16:29:50.062500
1085,296.63,2022-10-28 16:29:50.078125
1086,309.54,2022-10-28 16:29:50.093750
1087,320.87,2022-10-28 16:29:50.109375
1088,331.95,2022-10-28 16:29:50.125000
1089,343.52,2022-10-28 16:29:50.140625
1090,355.77,2022-10-28 16:29:50.156250
1091,368.72,2022-10-28 16:29:50.171875
1092,382.73,2022-10-28 16:29:50.187500
1093,398.7,2022-10-28 16:29:50.203125
1094,417.63,2022-10-28 16:29:50.218750
1095,439.71,2022-10-28 16:29:50.234375
1096,463.36,2022-10-28 16:29:50.250000
1097,484.97,2022-10-28 16:29:50.265625
1098,499.76,2022-10-28 16:29:50.281250
1099,503.35,2022-10-28 16:29:50.296875
1100,493.58,2022-10-28 16:29:50.312500
1101,471.36,2022-10-28 16:29:50.328125
1102,440.26,2022-10-28 16:29:50.343750
1103,404.97,2022-10-28 16:29:50.359375
1104,369.69,2022-10-28 16:29:50.375000
1105,337.29,2022-10-28 16:29:50.390625
1106,309.53,2022-10-28 16:29:50.406250
1107,287.78,2022-10-28 16:29:50.421875
1108,273.57,2022-10-28 16:29:50.437500
1109,268.3,2022-10-28 16:29:50.453125
1110,272.38,2022-10-28 16:29:50.468750
1111,284.37,2022-10-28 16:29:50.484375
1112,300.98,2022-10-28 16:29:50.500000
1113,317.96,2022-10-28 16:29:50.515625
1114,331.45,2022-10-28 16:29:50.531250
1115,338.91,2022-10-28 16:29:50.546875
1116,339.24,2022-10-28 16:29:50.562500
1117,332.16,2022-10-28 16:29:50.578125
1118,317.37,2022-10-28 16:29:50.593750
1119,294.25,2022-10-28 16:29:50.609375
1120,262.19,2022-10-28 16:29:50.625000
1121,221.48,2022-10-28 16:29:50.640625
1122,173.87,2022-10-28 16:29:50.656250
1123,122.39,2022-10-28 16:29:50.671875
1124,70.49,2022-10-28 16:29:50.687500
1125,20.82,2022-10-28 16:29:50.703125
1126,-25.87,2022-10-28 16:29:50.718750
1127,-71.03,2022-10-28 16:29:50.734375
1128,-117.56,2022-10-28 16:29:50.750000
1129,-168.1,2022-10-28 16:29:50.765625
1130,-223.18,2022-10-28 16:29:50.781250
1131,-280.21,2022-10-28 16:29:50.796875
1132,-333.74,2022-10-28 16:29:50.812500
1133,-377.06,2022-10-28 16:29:50.828125
1134,-404.13,2022-10-28 16:29:50.843750
1135,-411.4,2022-10-28 16:29:50.859375
1136,-398.82,2022-10-28 16:29:50.875000
1137,-370.06,2022-10-28 16:29:50.890625
1138,-331.7,2022-10-28 16:29:50.906250
1139,-291.7,2022-10-28 16:29:50.921875
1140,-257.48,2022-10-28 16:29:50.937500
1141,-233.93,2022-10-28 16:29:50.953125
1142,-222.11,2022-10-28 16:29:50.968750
1143,-219.43,2022-10-28 16:29:50.984375
1144,-221.23,2022-10-28 16:29:51.000000
1145,-222.93,2022-10-28 16:29:51.015625
1146,-221.51,2022-10-28 16:29:51.031250
1147,-215.83,2022-10-28 16:29:51.046875
1148,-205.81,2022-10-28 16:29:51.062500
1149,-191.59,2022-10-28 16:29:51.078125
1150,-173.4,2022-10-28 16:29:51.093750
1151,-152.18,2022-10-28 16:29:51.109375
1152,-130.32,2022-10-28 16:29:51.125000
1153,-110.8,2022-10-28 16:29:51.140625
1154,-95.32,2022-10-28 16:29:51.156250
1155,-82.48,2022-10-28 16:29:51.171875
1156,-67.58,2022-10-28 16:29:51.187500
1157,-44.98,2022-10-28 16:29:51.203125
1158,-11.72,2022-10-28 16:29:51.218750
1159,29.62,2022-10-28 16:29:51.234375
1160,71.06,2022-10-28 16:29:51.250000
1161,102.53,2022-10-28 16:29:51.265625
1162,116.74,2022-10-28 16:29:51.281250
1163,112.63,2022-10-28 16:29:51.296875
1164,95.8,2022-10-28 16:29:51.312500
1165,75.45,2022-10-28 16:29:51.328125
1166,60.21,2022-10-28 16:29:51.343750
1167,54.86,2022-10-28 16:29:51.359375
1168,59.75,2022-10-28 16:29:51.375000
1169,72.32,2022-10-28 16:29:51.390625
1170,89.64,2022-10-28 16:29:51.406250
1171,110.07,2022-10-28 16:29:51.421875
1172,133.21,2022-10-28 16:29:51.437500
1173,158.47,2022-10-28 16:29:51.453125
1174,183.74,2022-10-28 16:29:51.468750
1175,205.29,2022-10-28 16:29:51.484375
1176,218.88,2022-10-28 16:29:51.500000
1177,221.59,2022-10-28 16:29:51.515625
1178,213.11,2022-10-28 16:29:51.531250
1179,195.38,2022-10-28 16:29:51.546875
1180,170.92,2022-10-28 16:29:51.562500
1181,140.81,2022-10-28 16:29:51.578125
1182,103.97,2022-10-28 16:29:51.593750
1183,58.39,2022-10-28 16:29:51.609375
1184,3.59,2022-10-28 16:29:51.625000
1185,-57.07,2022-10-28 16:29:51.640625
1186,-116.02,2022-10-28 16:29:51.656250
1187,-163.57,2022-10-28 16:29:51.671875
1188,-191.63,2022-10-28 16:29:51.687500
1189,-196.98,2022-10-28 16:29:51.703125
1190,-182.56,2022-10-28 16:29:51.718750
1191,-155.9,2022-10-28 16:29:51.734375
1192,-125.89,2022-10-28 16:29:51.750000
1193,-99.73,2022-10-28 16:29:51.765625
1194,-81.12,2022-10-28 16:29:51.781250
1195,-70.23,2022-10-28 16:29:51.796875
1196,-64.79,2022-10-28 16:29:51.812500
1197,-61.28,2022-10-28 16:29:51.828125
1198,-55.89,2022-10-28 16:29:51.843750
1199,-45.31,2022-10-28 16:29:51.859375
1200,-27.59,2022-10-28 16:29:51.875000
1201,-3.07,2022-10-28 16:29:51.890625
1202,25.36,2022-10-28 16:29:51.906250
1203,53.22,2022-10-28 16:29:51.921875
1204,76.38,2022-10-28 16:29:51.937500
1205,92.92,2022-10-28 16:29:51.953125
1206,103.93,2022-10-28 16:29:51.968750
1207,112.6,2022-10-28 16:29:51.984375
1208,122.38,2022-10-28 16:29:52.000000
1209,135.17,2022-10-28 16:29:52.015625
1210,150.71,2022-10-28 16:29:52.031250
1211,167.05,2022-10-28 16:29:52.046875
1212,181.69,2022-10-28 16:29:52.062500
1213,192.47,2022-10-28 16:29:52.078125
1214,197.84,2022-10-28 16:29:52.093750
1215,196.97,2022-10-28 16:29:52.109375
1216,189.87,2022-10-28 16:29:52.125000
1217,177.89,2022-10-28 16:29:52.140625
1218,164.01,2022-10-28 16:29:52.156250
1219,152.59,2022-10-28 16:29:52.171875
1220,148.0,2022-10-28 16:29:52.187500
1221,152.59,2022-10-28 16:29:52.203125
1222,164.75,2022-10-28 16:29:52.218750
1223,178.48,2022-10-28 16:29:52.234375
1224,185.14,2022-10-28 16:29:52.250000
1225,176.75,2022-10-28 16:29:52.265625
1226,149.72,2022-10-28 16:29:52.281250
1227,106.94,2022-10-28 16:29:52.296875
1228,57.16,2022-10-28 16:29:52.312500
1229,11.91,2022-10-28 16:29:52.328125
1230,-18.82,2022-10-28 16:29:52.343750
1231,-29.84,2022-10-28 16:29:52.359375
1232,-21.49,2022-10-28 16:29:52.375000
1233,2.17,2022-10-28 16:29:52.390625
1234,36.2,2022-10-28 16:29:52.406250
1235,76.74,2022-10-28 16:29:52.421875
1236,120.99,2022-10-28 16:29:52.437500
1237,165.36,2022-10-28 16:29:52.453125
1238,204.2,2022-10-28 16:29:52.468750
1239,230.09,2022-10-28 16:29:52.484375
1240,236.41,2022-10-28 16:29:52.500000
1241,220.57,2022-10-28 16:29:52.515625
1242,186.17,2022-10-28 16:29:52.531250
1243,142.33,2022-10-28 16:29:52.546875
1244,100.44,2022-10-28 16:29:52.562500
1245,69.79,2022-10-28 16:29:52.578125
1246,54.16,2022-10-28 16:29:52.593750
1247,50.95,2022-10-28 16:29:52.609375
1248,52.82,2022-10-28 16:29:52.625000
1249,51.11,2022-10-28 16:29:52.640625
1250,38.85,2022-10-28 16:29:52.656250
1251,12.54,2022-10-28 16:29:52.671875
1252,-27.67,2022-10-28 16:29:52.687500
1253,-78.7,2022-10-28 16:29:52.703125
1254,-135.12,2022-10-28 16:29:52.718750
1255,-189.79,2022-10-28 16:29:52.734375
1256,-234.58,2022-10-28 16:29:52.750000
1257,-261.96,2022-10-28 16:29:52.765625
1258,-266.75,2022-10-28 16:29:52.781250
1259,-248.08,2022-10-28 16:29:52.796875
1260,-210.25,2022-10-28 16:29:52.812500
1261,-161.88,2022-10-28 16:29:52.828125
1262,-113.61,2022-10-28 16:29:52.843750
1263,-74.76,2022-10-28 16:29:52.859375
1264,-50.5,2022-10-28 16:29:52.875000
1265,-40.47,2022-10-28 16:29:52.890625
1266,-39.67,2022-10-28 16:29:52.906250
1267,-41.05,2022-10-28 16:29:52.921875
1268,-38.81,2022-10-28 16:29:52.937500
1269,-31.3,2022-10-28 16:29:52.953125
1270,-21.66,2022-10-28 16:29:52.968750
1271,-16.05,2022-10-28 16:29:52.984375
1272,-20.1,2022-10-28 16:29:53.000000
1273,-35.54,2022-10-28 16:29:53.015625
1274,-58.71,2022-10-28 16:29:53.031250
1275,-81.95,2022-10-28 16:29:53.046875
1276,-97.1,2022-10-28 16:29:53.062500
1277,-98.82,2022-10-28 16:29:53.078125
1278,-85.83,2022-10-28 16:29:53.093750
1279,-59.78,2022-10-28 16:29:53.109375
1280,-23.02,2022-10-28 16:29:53.125000
1281,22.86,2022-10-28 16:29:53.140625
1282,76.75,2022-10-28 16:29:53.156250
1283,136.47,2022-10-28 16:29:53.171875
1284,197.59,2022-10-28 16:29:53.187500
1285,253.64,2022-10-28 16:29:53.203125
1286,297.91,2022-10-28 16:29:53.218750
1287,325.77,2022-10-28 16:29:53.234375
1288,336.16,2022-10-28 16:29:53.250000
1289,331.42,2022-10-28 16:29:53.265625
1290,315.93,2022-10-28 16:29:53.281250
1291,294.47,2022-10-28 16:29:53.296875
1292,270.91,2022-10-28 16:29:53.312500
1293,247.63,2022-10-28 16:29:53.328125
1294,225.5,2022-10-28 16:29:53.343750
1295,204.22,2022-10-28 16:29:53.359375
1296,182.94,2022-10-28 16:29:53.375000
1297,161.08,2022-10-28 16:29:53.390625
1298,138.85,2022-10-28 16:29:53.406250
1299,117.47,2022-10-28 16:29:53.421875
1300,98.6,2022-10-28 16:29:53.437500
1301,83.42,2022-10-28 16:29:53.453125
1302,71.58,2022-10-28 16:29:53.468750
1303,61.21,2022-10-28 16:29:53.484375
1304,49.32,2022-10-28 16:29:53.500000
1305,32.98,2022-10-28 16:29:53.515625
1306,10.54,2022-10-28 16:29:53.531250
1307,-18.07,2022-10-28 16:29:53.546875
1308,-51.39,2022-10-28 16:29:53.562500
1309,-87.25,2022-10-28 16:29:53.578125
1310,-123.4,2022-10-28 16:29:53.593750
1311,-158.19,2022-10-28 16:29:53.609375
1312,-190.91,2022-10-28 16:29:53.625000
1313,-222.14,2022-10-28 16:29:53.640625
1314,-253.85,2022-10-28 16:29:53.656250
1315,-288.59,2022-10-28 16:29:53.671875
1316,-327.79,2022-10-28 16:29:53.687500
1317,-369.74,2022-10-28 16:29:53.703125
1318,-408.51,2022-10-28 16:29:53.718750
1319,-435.14,2022-10-28 16:29:53.734375
1320,-440.88,2022-10-28 16:29:53.750000
1321,-421.26,2022-10-28 16:29:53.765625
1322,-379.08,2022-10-28 16:29:53.781250
1323,-324.33,2022-10-28 16:29:53.796875
1324,-270.58,2022-10-28 16:29:53.812500
1325,-230.05,2022-10-28 16:29:53.828125
1326,-209.35,2022-10-28 16:29:53.843750
1327,-208.28,2022-10-28 16:29:53.859375
1328,-221.6,2022-10-28 16:29:53.875000
1329,-242.08,2022-10-28 16:29:53.890625
1330,-262.77,2022-10-28 16:29:53.906250
1331,-277.74,2022-10-28 16:29:53.921875
1332,-281.91,2022-10-28 16:29:53.937500
1333,-271.69,2022-10-28 16:29:53.953125
1334,-247.17,2022-10-28 16:29:53.968750
1335,-213.27,2022-10-28 16:29:53.984375
1336,-179.34,2022-10-28 16:29:54.000000
1337,-155.64,2022-10-28 16:29:54.015625
1338,-148.12,2022-10-28 16:29:54.031250
1339,-154.58,2022-10-28 16:29:54.046875
1340,-165.14,2022-10-28 16:29:54.062500
1341,-167.2,2022-10-28 16:29:54.078125
1342,-152.21,2022-10-28 16:29:54.093750
1343,-120.41,2022-10-28 16:29:54.109375
1344,-80.25,2022-10-28 16:29:54.125000
1345,-42.59,2022-10-28 16:29:54.140625
1346,-14.04,2022-10-28 16:29:54.156250
1347,6.54,2022-10-28 16:29:54.171875
1348,26.27,2022-10-28 16:29:54.187500
1349,52.62,2022-10-28 16:29:54.203125
1350,88.27,2022-10-28 16:29:54.218750
1351,129.61,2022-10-28 16:29:54.234375
1352,169.36,2022-10-28 16:29:54.250000
1353,201.22,2022-10-28 16:29:54.265625
1354,223.06,2022-10-28 16:29:54.281250
1355,237.02,2022-10-28 16:29:54.296875
1356,247.51,2022-10-28 16:29:54.312500
1357,258.05,2022-10-28 16:29:54.328125
1358,269.56,2022-10-28 16:29:54.343750
1359,280.05,2022-10-28 16:29:54.359375
1360,285.88,2022-10-28 16:29:54.375000
1361,283.28,2022-10-28 16:29:54.390625
1362,269.51,2022-10-28 16:29:54.406250
1363,243.71,2022-10-28 16:29:54.421875
1364,207.11,2022-10-28 16:29:54.437500
1365,162.66,2022-10-28 16:29:54.453125
1366,113.36,2022-10-28 16:29:54.468750
1367,61.36,2022-10-28 16:29:54.484375
1368,7.74,2022-10-28 16:29:54.500000
1369,-46.37,2022-10-28 16:29:54.515625
1370,-98.21,2022-10-28 16:29:54.531250
1371,-142.81,2022-10-28 16:29:54.546875
1372,-174.94,2022-10-28 16:29:54.562500
1373,-192.79,2022-10-28 16:29:54.578125
1374,-200.48,2022-10-28 16:29:54.593750
1375,-207.41,2022-10-28 16:29:54.609375
1376,-223.84,2022-10-28 16:29:54.625000
1377,-254.86,2022-10-28 16:29:54.640625
1378,-296.92,2022-10-28 16:29:54.656250
1379,-338.75,2022-10-28 16:29:54.671875
1380,-366.49,2022-10-28 16:29:54.687500
1381,-370.05,2022-10-28 16:29:54.703125
1382,-346.72,2022-10-28 16:29:54.718750
1383,-300.76,2022-10-28 16:29:54.734375
1384,-239.81,2022-10-28 16:29:54.750000
1385,-171.04,2022-10-28 16:29:54.765625
1386,-99.79,2022-10-28 16:29:54.781250
1387,-30.92,2022-10-28 16:29:54.796875
1388,28.73,2022-10-28 16:29:54.812500
1389,69.92,2022-10-28 16:29:54.828125
1390,83.84,2022-10-28 16:29:54.843750
1391,66.63,2022-10-28 16:29:54.859375
1392,23.51,2022-10-28 16:29:54.875000
1393,-30.78,2022-10-28 16:29:54.890625
1394,-76.55,2022-10-28 16:29:54.906250
1395,-96.78,2022-10-28 16:29:54.921875
1396,-84.23,2022-10-28 16:29:54.937500
1397,-44.2,2022-10-28 16:29:54.953125
1398,8.19,2022-10-28 16:29:54.968750
1399,55.65,2022-10-28 16:29:54.984375
1400,86.42,2022-10-28 16:29:55.000000
1401,98.36,2022-10-28 16:29:55.015625
1402,97.57,2022-10-28 16:29:55.031250
1403,92.77,2022-10-28 16:29:55.046875
1404,89.04,2022-10-28 16:29:55.062500
1405,84.98,2022-10-28 16:29:55.078125
1406,74.53,2022-10-28 16:29:55.093750
1407,52.28,2022-10-28 16:29:55.109375
1408,18.45,2022-10-28 16:29:55.125000
1409,-19.9,2022-10-28 16:29:55.140625
1410,-52.33,2022-10-28 16:29:55.156250
1411,-70.93,2022-10-28 16:29:55.171875
1412,-74.95,2022-10-28 16:29:55.187500
1413,-70.99,2022-10-28 16:29:55.203125
1414,-68.37,2022-10-28 16:29:55.218750
1415,-72.91,2022-10-28 16:29:55.234375
1416,-83.21,2022-10-28 16:29:55.250000
1417,-91.93,2022-10-28 16:29:55.265625
1418,-91.23,2022-10-28 16:29:55.281250
1419,-78.02,2022-10-28 16:29:55.296875
1420,-56.11,2022-10-28 16:29:55.312500
1421,-33.6,2022-10-28 16:29:55.328125
1422,-17.76,2022-10-28 16:29:55.343750
1423,-10.72,2022-10-28 16:29:55.359375
1424,-9.13,2022-10-28 16:29:55.375000
1425,-7.3,2022-10-28 16:29:55.390625
1426,-1.09,2022-10-28 16:29:55.406250
1427,10.04,2022-10-28 16:29:55.421875
1428,24.31,2022-10-28 16:29:55.437500
1429,40.36,2022-10-28 16:29:55.453125
1430,58.89,2022-10-28 16:29:55.468750
1431,81.84,2022-10-28 16:29:55.484375
1432,110.1,2022-10-28 16:29:55.500000
1433,141.26,2022-10-28 16:29:55.515625
1434,169.77,2022-10-28 16:29:55.531250
1435,189.39,2022-10-28 16:29:55.546875
1436,196.02,2022-10-28 16:29:55.562500
1437,189.5,2022-10-28 16:29:55.578125
1438,173.08,2022-10-28 16:29:55.593750
1439,151.5,2022-10-28 16:29:55.609375
1440,129.26,2022-10-28 16:29:55.625000
1441,109.64,2022-10-28 16:29:55.640625
1442,94.81,2022-10-28 16:29:55.656250
1443,86.04,2022-10-28 16:29:55.671875
1444,83.69,2022-10-28 16:29:55.687500
1445,86.77,2022-10-28 16:29:55.703125
1446,92.71,2022-10-28 16:29:55.718750
1447,97.8,2022-10-28 16:29:55.734375
1448,98.64,2022-10-28 16:29:55.750000
1449,93.44,2022-10-28 16:29:55.765625
1450,82.67,2022-10-28 16:29:55.781250
1451,68.7,2022-10-28 16:29:55.796875
1452,54.5,2022-10-28 16:29:55.812500
1453,42.85,2022-10-28 16:29:55.828125
1454,35.56,2022-10-28 16:29:55.843750
1455,33.49,2022-10-28 16:29:55.859375
1456,36.97,2022-10-28 16:29:55.875000
1457,46.06,2022-10-28 16:29:55.890625
1458,60.19,2022-10-28 16:29:55.906250
1459,77.97,2022-10-28 16:29:55.921875
1460,96.99,2022-10-28 16:29:55.937500
1461,114.13,2022-10-28 16:29:55.953125
1462,126.77,2022-10-28 16:29:55.968750
1463,133.46,2022-10-28 16:29:55.984375
1464,134.25,2022-10-28 16:29:56.000000
1465,130.52,2022-10-28 16:29:56.015625
1466,124.19,2022-10-28 16:29:56.031250
1467,116.64,2022-10-28 16:29:56.046875
1468,108.78,2022-10-28 16:29:56.062500
1469,100.72,2022-10-28 16:29:56.078125
1470,91.81,2022-10-28 16:29:56.093750
1471,81.71,2022-10-28 16:29:56.109375
1472,70.29,2022-10-28 16:29:56.125000
1473,58.17,2022-10-28 16:29:56.140625
1474,47.03,2022-10-28 16:29:56.156250
1475,39.5,2022-10-28 16:29:56.171875
1476,38.05,2022-10-28 16:29:56.187500
1477,44.91,2022-10-28 16:29:56.203125
1478,60.76,2022-10-28 16:29:56.218750
1479,83.79,2022-10-28 16:29:56.234375
1480,110.48,2022-10-28 16:29:56.250000
1481,135.62,2022-10-28 16:29:56.265625
1482,153.97,2022-10-28 16:29:56.281250
1483,161.93,2022-10-28 16:29:56.296875
1484,158.77,2022-10-28 16:29:56.312500
1485,145.8,2022-10-28 16:29:56.328125
1486,126.74,2022-10-28 16:29:56.343750
1487,105.98,2022-10-28 16:29:56.359375
1488,82.34,2022-10-28 16:29:56.375000
1489,55.26,2022-10-28 16:29:56.390625
1490,24.16,2022-10-28 16:29:56.406250
1491,-11.34,2022-10-28 16:29:56.421875
1492,-51.01,2022-10-28 16:29:56.437500
1493,-90.26,2022-10-28 16:29:56.453125
1494,-129.2,2022-10-28 16:29:56.468750
1495,-168.61,2022-10-28 16:29:56.484375
1496,-207.83,2022-10-28 16:29:56.500000
1497,-243.52,2022-10-28 16:29:56.515625
1498,-269.48,2022-10-28 16:29:56.531250
1499,-278.64,2022-10-28 16:29:56.546875
1500,-266.51,2022-10-28 16:29:56.562500
1501,-233.26,2022-10-28 16:29:56.578125
1502,-183.54,2022-10-28 16:29:56.593750
1503,-125.2,2022-10-28 16:29:56.609375
1504,-65.58,2022-10-28 16:29:56.625000
1505,-10.47,2022-10-28 16:29:56.640625
1506,35.61,2022-10-28 16:29:56.656250
1507,69.38,2022-10-28 16:29:56.671875
1508,88.14,2022-10-28 16:29:56.687500
1509,90.73,2022-10-28 16:29:56.703125
1510,79.04,2022-10-28 16:29:56.718750
1511,58.5,2022-10-28 16:29:56.734375
1512,36.14,2022-10-28 16:29:56.750000
1513,18.43,2022-10-28 16:29:56.765625
1514,8.07,2022-10-28 16:29:56.781250
1515,2.49,2022-10-28 16:29:56.796875
1516,-4.33,2022-10-28 16:29:56.812500
1517,-18.94,2022-10-28 16:29:56.828125
1518,-44.8,2022-10-28 16:29:56.843750
1519,-80.04,2022-10-28 16:29:56.859375
1520,-118.19,2022-10-28 16:29:56.875000
1521,-151.54,2022-10-28 16:29:56.890625
1522,-174.17,2022-10-28 16:29:56.906250
1523,-184.73,2022-10-28 16:29:56.921875
1524,-186.41,2022-10-28 16:29:56.937500
1525,-184.64,2022-10-28 16:29:56.953125
1526,-184.17,2022-10-28 16:29:56.968750
1527,-186.8,2022-10-28 16:29:56.984375
1528,-191.19,2022-10-28 16:29:57.000000
1529,-194.46,2022-10-28 16:29:57.015625
1530,-194.44,2022-10-28 16:29:57.031250
1531,-190.52,2022-10-28 16:29:57.046875
1532,-183.4,2022-10-28 16:29:57.062500
1533,-173.78,2022-10-28 16:29:57.078125
1534,-161.31,2022-10-28 16:29:57.093750
1535,-144.62,2022-10-28 16:29:57.109375
1536,-122.35,2022-10-28 16:29:57.125000
1537,-94.2,2022-10-28 16:29:57.140625
1538,-61.33,2022-10-28 16:29:57.156250
1539,-26.08,2022-10-28 16:29:57.171875
1540,9.16,2022-10-28 16:29:57.187500
1541,42.41,2022-10-28 16:29:57.203125
1542,72.25,2022-10-28 16:29:57.218750
1543,97.58,2022-10-28 16:29:57.234375
1544,117.51,2022-10-28 16:29:57.250000
1545,131.38,2022-10-28 16:29:57.265625
1546,139.06,2022-10-28 16:29:57.281250
1547,141.0,2022-10-28 16:29:57.296875
1548,137.99,2022-10-28 16:29:57.312500
1549,130.84,2022-10-28 16:29:57.328125
1550,120.23,2022-10-28 16:29:57.343750
1551,106.92,2022-10-28 16:29:57.359375
1552,92.08,2022-10-28 16:29:57.375000
1553,77.33,2022-10-28 16:29:57.390625
1554,64.48,2022-10-28 16:29:57.406250
1555,54.84,2022-10-28 16:29:57.421875
1556,48.65,2022-10-28 16:29:57.437500
1557,45.04,2022-10-28 16:29:57.453125
1558,42.48,2022-10-28 16:29:57.468750
1559,39.5,2022-10-28 16:29:57.484375
1560,35.34,2022-10-28 16:29:57.500000
1561,30.09,2022-10-28 16:29:57.515625
1562,24.45,2022-10-28 16:29:57.531250
1563,19.2,2022-10-28 16:29:57.546875
1564,14.77,2022-10-28 16:29:57.562500
1565,11.15,2022-10-28 16:29:57.578125
1566,8.02,2022-10-28 16:29:57.593750
1567,5.06,2022-10-28 16:29:57.609375
1568,2.12,2022-10-28 16:29:57.625000
1569,-0.78,2022-10-28 16:29:57.640625
1570,-3.65,2022-10-28 16:29:57.656250
1571,-6.72,2022-10-28 16:29:57.671875
1572,-10.46,2022-10-28 16:29:57.687500
1573,-15.38,2022-10-28 16:29:57.703125
1574,-21.61,2022-10-28 16:29:57.718750
1575,-28.65,2022-10-28 16:29:57.734375
1576,-35.25,2022-10-28 16:29:57.750000
1577,-39.82,2022-10-28 16:29:57.765625
1578,-40.89,2022-10-28 16:29:57.781250
1579,-37.72,2022-10-28 16:29:57.796875
1580,-30.64,2022-10-28 16:29:57.812500
1581,-20.92,2022-10-28 16:29:57.828125
1582,-10.41,2022-10-28 16:29:57.843750
1583,-0.9,2022-10-28 16:29:57.859375
1584,6.32,2022-10-28 16:29:57.875000
1585,10.66,2022-10-28 16:29:57.890625
1586,12.24,2022-10-28 16:29:57.906250
1587,11.59,2022-10-28 16:29:57.921875
1588,9.49,2022-10-28 16:29:57.937500
1589,6.97,2022-10-28 16:29:57.953125
1590,5.24,2022-10-28 16:29:57.968750
1591,5.61,2022-10-28 16:29:57.984375
1592,9.07,2022-10-28 16:29:58.000000
1593,15.89,2022-10-28 16:29:58.015625
1594,25.41,2022-10-28 16:29:58.031250
1595,36.31,2022-10-28 16:29:58.046875
1596,47.18,2022-10-28 16:29:58.062500
1597,57.04,2022-10-28 16:29:58.078125
1598,65.38,2022-10-28 16:29:58.093750
1599,71.8,2022-10-28 16:29:58.109375
1600,75.44,2022-10-28 16:29:58.125000
1601,75.01,2022-10-28 16:29:58.140625
1602,69.19,2022-10-28 16:29:58.156250
1603,57.56,2022-10-28 16:29:58.171875
1604,41.29,2022-10-28 16:29:58.187500
1605,23.0,2022-10-28 16:29:58.203125
1606,5.92,2022-10-28 16:29:58.218750
1607,-7.23,2022-10-28 16:29:58.234375
1608,-15.11,2022-10-28 16:29:58.250000
1609,-17.96,2022-10-28 16:29:58.265625
1610,-17.1,2022-10-28 16:29:58.281250
1611,-14.31,2022-10-28 16:29:58.296875
1612,-11.48,2022-10-28 16:29:58.312500
1613,-10.3,2022-10-28 16:29:58.328125
1614,-12.13,2022-10-28 16:29:58.343750
1615,-17.62,2022-10-28 16:29:58.359375
1616,-26.42,2022-10-28 16:29:58.375000
1617,-37.11,2022-10-28 16:29:58.390625
1618,-47.72,2022-10-28 16:29:58.406250
1619,-56.41,2022-10-28 16:29:58.421875
1620,-62.15,2022-10-28 16:29:58.437500
1621,-64.84,2022-10-28 16:29:58.453125
1622,-64.79,2022-10-28 16:29:58.468750
1623,-62.22,2022-10-28 16:29:58.484375
1624,-56.85,2022-10-28 16:29:58.500000
1625,-48.2,2022-10-28 16:29:58.515625
1626,-36.3,2022-10-28 16:29:58.531250
1627,-22.4,2022-10-28 16:29:58.546875
1628,-8.91,2022-10-28 16:29:58.562500
1629,1.36,2022-10-28 16:29:58.578125
1630,6.45,2022-10-28 16:29:58.593750
1631,6.25,2022-10-28 16:29:58.609375
1632,2.61,2022-10-28 16:29:58.625000
1633,-1.43,2022-10-28 16:29:58.640625
1634,-3.15,2022-10-28 16:29:58.656250
1635,-1.19,2022-10-28 16:29:58.671875
1636,4.08,2022-10-28 16:29:58.687500
1637,11.25,2022-10-28 16:29:58.703125
1638,18.85,2022-10-28 16:29:58.718750
1639,26.14,2022-10-28 16:29:58.734375
1640,33.21,2022-10-28 16:29:58.750000
1641,40.41,2022-10-28 16:29:58.765625
1642,47.68,2022-10-28 16:29:58.781250
1643,54.18,2022-10-28 16:29:58.796875
1644,58.57,2022-10-28 16:29:58.812500
1645,59.68,2022-10-28 16:29:58.828125
1646,57.21,2022-10-28 16:29:58.843750
1647,51.85,2022-10-28 16:29:58.859375
1648,44.87,2022-10-28 16:29:58.875000
1649,37.49,2022-10-28 16:29:58.890625
1650,30.36,2022-10-28 16:29:58.906250
1651,23.47,2022-10-28 16:29:58.921875
1652,16.37,2022-10-28 16:29:58.937500
1653,8.55,2022-10-28 16:29:58.953125
1654,-0.22,2022-10-28 16:29:58.968750
1655,-9.72,2022-10-28 16:29:58.984375
1656,-19.4,2022-10-28 16:29:59.000000
1657,-28.54,2022-10-28 16:29:59.015625
1658,-36.41,2022-10-28 16:29:59.031250
1659,-42.42,2022-10-28 16:29:59.046875
1660,-46.23,2022-10-28 16:29:59.062500
1661,-47.73,2022-10-28 16:29:59.078125
1662,-46.98,2022-10-28 16:29:59.093750
1663,-44.13,2022-10-28 16:29:59.109375
1664,-39.33,2022-10-28 16:29:59.125000
1665,-32.68,2022-10-28 16:29:59.140625
1666,-24.4,2022-10-28 16:29:59.156250
1667,-14.9,2022-10-28 16:29:59.171875
1668,-4.92,2022-10-28 16:29:59.187500
1669,4.6,2022-10-28 16:29:59.203125
1670,12.8,2022-10-28 16:29:59.218750
1671,19.12,2022-10-28 16:29:59.234375
1672,23.47,2022-10-28 16:29:59.250000
1673,26.11,2022-10-28 16:29:59.265625
1674,27.41,2022-10-28 16:29:59.281250
1675,27.71,2022-10-28 16:29:59.296875
1676,27.27,2022-10-28 16:29:59.312500
1677,26.26,2022-10-28 16:29:59.328125
1678,24.89,2022-10-28 16:29:59.343750
1679,23.4,2022-10-28 16:29:59.359375
1680,22.01,2022-10-28 16:29:59.375000
1681,20.91,2022-10-28 16:29:59.390625
1682,20.24,2022-10-28 16:29:59.406250
1683,20.18,2022-10-28 16:29:59.421875
1684,20.97,2022-10-28 16:29:59.437500
1685,22.88,2022-10-28 16:29:59.453125
1686,25.99,2022-10-28 16:29:59.468750
1687,30.04,2022-10-28 16:29:59.484375
1688,34.51,2022-10-28 16:29:59.500000
1689,38.71,2022-10-28 16:29:59.515625
1690,42.08,2022-10-28 16:29:59.531250
1691,44.32,2022-10-28 16:29:59.546875
1692,45.39,2022-10-28 16:29:59.562500
1693,45.35,2022-10-28 16:29:59.578125
1694,44.21,2022-10-28 16:29:59.593750
1695,41.85,2022-10-28 16:29:59.609375
1696,38.09,2022-10-28 16:29:59.625000
1697,32.82,2022-10-28 16:29:59.640625
1698,26.22,2022-10-28 16:29:59.656250
1699,18.76,2022-10-28 16:29:59.671875
1700,11.11,2022-10-28 16:29:59.687500
1701,4.02,2022-10-28 16:29:59.703125
1702,-1.95,2022-10-28 16:29:59.718750
1703,-6.48,2022-10-28 16:29:59.734375
1704,-9.64,2022-10-28 16:29:59.750000
1705,-11.63,2022-10-28 16:29:59.765625
1706,-12.64,2022-10-28 16:29:59.781250
1707,-12.68,2022-10-28 16:29:59.796875
1708,-11.54,2022-10-28 16:29:59.812500
1709,-9.03,2022-10-28 16:29:59.828125
1710,-5.29,2022-10-28 16:29:59.843750
1711,-0.9,2022-10-28 16:29:59.859375
1712,3.13,2022-10-28 16:29:59.875000
1713,5.75,2022-10-28 16:29:59.890625
1714,6.35,2022-10-28 16:29:59.906250
1715,4.98,2022-10-28 16:29:59.921875
1716,2.39,2022-10-28 16:29:59.937500
1717,-0.31,2022-10-28 16:29:59.953125
1718,-2.13,2022-10-28 16:29:59.968750
1719,-2.56,2022-10-28 16:29:59.984375
1720,-1.67,2022-10-28 16:30:00.000000
1721,0.07,2022-10-28 16:30:00.015625
1722,2.04,2022-10-28 16:30:00.031250
1723,3.87,2022-10-28 16:30:00.046875
1724,5.56,2022-10-28 16:30:00.062500
1725,7.37,2022-10-28 16:30:00.078125
1726,9.62,2022-10-28 16:30:00.093750
1727,12.37,2022-10-28 16:30:00.109375
1728,15.26,2022-10-28 16:30:00.125000
1729,17.5,2022-10-28 16:30:00.140625
1730,18.19,2022-10-28 16:30:00.156250
1731,16.71,2022-10-28 16:30:00.171875
1732,13.1,2022-10-28 16:30:00.187500
1733,8.14,2022-10-28 16:30:00.203125
1734,3.19,2022-10-28 16:30:00.218750
1735,-0.23,2022-10-28 16:30:00.234375
1736,-0.9,2022-10-28 16:30:00.250000
1737,1.64,2022-10-28 16:30:00.265625
1738,6.99,2022-10-28 16:30:00.281250
1739,13.95,2022-10-28 16:30:00.296875
1740,20.67,2022-10-28 16:30:00.312500
1741,25.05,2022-10-28 16:30:00.328125
1742,25.41,2022-10-28 16:30:00.343750
1743,21.22,2022-10-28 16:30:00.359375
1744,13.58,2022-10-28 16:30:00.375000
1745,4.98,2022-10-28 16:30:00.390625
1746,-1.76,2022-10-28 16:30:00.406250
1747,-4.97,2022-10-28 16:30:00.421875
1748,-5.22,2022-10-28 16:30:00.437500
1749,-5.44,2022-10-28 16:30:00.453125
1750,-9.67,2022-10-28 16:30:00.468750
1751,-21.16,2022-10-28 16:30:00.484375
1752,-40.57,2022-10-28 16:30:00.500000
1753,-65.3,2022-10-28 16:30:00.515625
1754,-90.31,2022-10-28 16:30:00.531250
1755,-109.85,2022-10-28 16:30:00.546875
1756,-119.57,2022-10-28 16:30:00.562500
1757,-117.86,2022-10-28 16:30:00.578125
1758,-106.04,2022-10-28 16:30:00.593750
1759,-87.45,2022-10-28 16:30:00.609375
1760,-66.06,2022-10-28 16:30:00.625000
1761,-45.24,2022-10-28 16:30:00.640625
1762,-27.08,2022-10-28 16:30:00.656250
1763,-12.45,2022-10-28 16:30:00.671875
1764,-1.44,2022-10-28 16:30:00.687500
1765,6.12,2022-10-28 16:30:00.703125
1766,10.36,2022-10-28 16:30:00.718750
1767,11.67,2022-10-28 16:30:00.734375
1768,11.01,2022-10-28 16:30:00.750000
1769,9.84,2022-10-28 16:30:00.765625
1770,9.76,2022-10-28 16:30:00.781250
1771,11.77,2022-10-28 16:30:00.796875
1772,15.77,2022-10-28 16:30:00.812500
1773,20.59,2022-10-28 16:30:00.828125
1774,24.65,2022-10-28 16:30:00.843750
1775,26.76,2022-10-28 16:30:00.859375
1776,26.66,2022-10-28 16:30:00.875000
1777,24.98,2022-10-28 16:30:00.890625
1778,22.64,2022-10-28 16:30:00.906250
1779,20.23,2022-10-28 16:30:00.921875
1780,17.72,2022-10-28 16:30:00.937500
1781,14.63,2022-10-28 16:30:00.953125
1782,10.5,2022-10-28 16:30:00.968750
1783,5.3,2022-10-28 16:30:00.984375
1784,-0.42,2022-10-28 16:30:01.000000
1785,-5.77,2022-10-28 16:30:01.015625
1786,-9.8,2022-10-28 16:30:01.031250
1787,-11.65,2022-10-28 16:30:01.046875
1788,-10.66,2022-10-28 16:30:01.062500
1789,-6.41,2022-10-28 16:30:01.078125
1790,1.07,2022-10-28 16:30:01.093750
1791,11.02,2022-10-28 16:30:01.109375
1792,21.78,2022-10-28 16:30:01.125000
1793,31.08,2022-10-28 16:30:01.140625
1794,36.67,2022-10-28 16:30:01.156250
1795,37.12,2022-10-28 16:30:01.171875
1796,32.39,2022-10-28 16:30:01.187500
1797,23.83,2022-10-28 16:30:01.203125
1798,13.51,2022-10-28 16:30:01.218750
1799,3.45,2022-10-28 16:30:01.234375
1800,-5.09,2022-10-28 16:30:01.250000
1801,-11.75,2022-10-28 16:30:01.265625
1802,-16.79,2022-10-28 16:30:01.281250
1803,-20.65,2022-10-28 16:30:01.296875
1804,-23.58,2022-10-28 16:30:01.312500
1805,-25.53,2022-10-28 16:30:01.328125
1806,-26.36,2022-10-28 16:30:01.343750
1807,-26.08,2022-10-28 16:30:01.359375
1808,-24.95,2022-10-28 16:30:01.375000
1809,-23.46,2022-10-28 16:30:01.390625
1810,-22.18,2022-10-28 16:30:01.406250
1811,-21.51,2022-10-28 16:30:01.421875
1812,-21.66,2022-10-28 16:30:01.437500
1813,-22.61,2022-10-28 16:30:01.453125
1814,-24.14,2022-10-28 16:30:01.468750
1815,-25.87,2022-10-28 16:30:01.484375
1816,-27.3,2022-10-28 16:30:01.500000
1817,-27.93,2022-10-28 16:30:01.515625
1818,-27.39,2022-10-28 16:30:01.531250
1819,-25.62,2022-10-28 16:30:01.546875
1820,-22.93,2022-10-28 16:30:01.562500
1821,-19.95,2022-10-28 16:30:01.578125
1822,-17.37,2022-10-28 16:30:01.593750
1823,-15.65,2022-10-28 16:30:01.609375
1824,-14.82,2022-10-28 16:30:01.625000
1825,-14.5,2022-10-28 16:30:01.640625
1826,-14.11,2022-10-28 16:30:01.656250
1827,-13.16,2022-10-28 16:30:01.671875
1828,-11.48,2022-10-28 16:30:01.687500
1829,-9.09,2022-10-28 16:30:01.703125
1830,-6.09,2022-10-28 16:30:01.718750
1831,-2.35,2022-10-28 16:30:01.734375
1832,2.4,2022-10-28 16:30:01.750000
1833,8.36,2022-10-28 16:30:01.765625
1834,15.44,2022-10-28 16:30:01.781250
1835,23.03,2022-10-28 16:30:01.796875
1836,30.2,2022-10-28 16:30:01.812500
1837,35.98,2022-10-28 16:30:01.828125
1838,39.87,2022-10-28 16:30:01.843750
1839,42.0,2022-10-28 16:30:01.859375
1840,43.14,2022-10-28 16:30:01.875000
1841,44.22,2022-10-28 16:30:01.890625
1842,45.93,2022-10-28 16:30:01.906250
1843,48.4,2022-10-28 16:30:01.921875
1844,51.2,2022-10-28 16:30:01.937500
1845,53.68,2022-10-28 16:30:01.953125
1846,55.31,2022-10-28 16:30:01.968750
1847,55.98,2022-10-28 16:30:01.984375
1848,55.91,2022-10-28 16:30:02.000000
1849,55.48,2022-10-28 16:30:02.015625
1850,54.91,2022-10-28 16:30:02.031250
1851,54.2,2022-10-28 16:30:02.046875
1852,53.22,2022-10-28 16:30:02.062500
1853,51.88,2022-10-28 16:30:02.078125
1854,50.12,2022-10-28 16:30:02.093750
1855,47.93,2022-10-28 16:30:02.109375
1856,45.24,2022-10-28 16:30:02.125000
1857,41.93,2022-10-28 16:30:02.140625
1858,37.87,2022-10-28 16:30:02.156250
1859,33.14,2022-10-28 16:30:02.171875
1860,27.95,2022-10-28 16:30:02.187500
1861,22.55,2022-10-28 16:30:02.203125
1862,17.06,2022-10-28 16:30:02.218750
1863,11.37,2022-10-28 16:30:02.234375
1864,5.22,2022-10-28 16:30:02.250000
1865,-1.6,2022-10-28 16:30:02.265625
1866,-9.09,2022-10-28 16:30:02.281250
1867,-17.0,2022-10-28 16:30:02.296875
1868,-24.91,2022-10-28 16:30:02.312500
1869,-32.33,2022-10-28 16:30:02.328125
1870,-38.76,2022-10-28 16:30:02.343750
1871,-43.67,2022-10-28 16:30:02.359375
1872,-46.56,2022-10-28 16:30:02.375000
1873,-47.15,2022-10-28 16:30:02.390625
1874,-45.5,2022-10-28 16:30:02.406250
1875,-42.11,2022-10-28 16:30:02.421875
1876,-37.73,2022-10-28 16:30:02.437500
1877,-33.15,2022-10-28 16:30:02.453125
1878,-29.01,2022-10-28 16:30:02.468750
1879,-25.71,2022-10-28 16:30:02.484375
1880,-23.53,2022-10-28 16:30:02.500000
1881,-22.73,2022-10-28 16:30:02.515625
1882,-23.46,2022-10-28 16:30:02.531250
1883,-25.58,2022-10-28 16:30:02.546875
1884,-28.43,2022-10-28 16:30:02.562500
1885,-30.85,2022-10-28 16:30:02.578125
1886,-31.63,2022-10-28 16:30:02.593750
1887,-29.93,2022-10-28 16:30:02.609375
1888,-25.73,2022-10-28 16:30:02.625000
1889,-19.89,2022-10-28 16:30:02.640625
1890,-13.75,2022-10-28 16:30:02.656250
1891,-8.56,2022-10-28 16:30:02.671875
1892,-5.05,2022-10-28 16:30:02.687500
1893,-3.25,2022-10-28 16:30:02.703125
1894,-2.71,2022-10-28 16:30:02.718750
1895,-2.89,2022-10-28 16:30:02.734375
1896,-3.39,2022-10-28 16:30:02.750000
1897,-4.17,2022-10-28 16:30:02.765625
1898,-5.31,2022-10-28 16:30:02.781250
1899,-6.86,2022-10-28 16:30:02.796875
1900,-8.69,2022-10-28 16:30:02.812500
1901,-10.44,2022-10-28 16:30:02.828125
1902,-11.72,2022-10-28 16:30:02.843750
1903,-12.16,2022-10-28 16:30:02.859375
1904,-11.62,2022-10-28 16:30:02.875000
1905,-10.19,2022-10-28 16:30:02.890625
1906,-8.22,2022-10-28 16:30:02.906250
1907,-6.27,2022-10-28 16:30:02.921875
1908,-4.97,2022-10-28 16:30:02.937500
1909,-4.83,2022-10-28 16:30:02.953125
1910,-6.08,2022-10-28 16:30:02.968750
1911,-8.56,2022-10-28 16:30:02.984375
1912,-11.73,2022-10-28 16:30:03.000000
1913,-14.93,2022-10-28 16:30:03.015625
1914,-17.53,2022-10-28 16:30:03.031250
1915,-19.12,2022-10-28 16:30:03.046875
1916,-19.41,2022-10-28 16:30:03.062500
1917,-18.2,2022-10-28 16:30:03.078125
1918,-15.3,2022-10-28 16:30:03.093750
1919,-10.67,2022-10-28 16:30:03.109375
1920,-4.56,2022-10-28 16:30:03.125000
1921,2.38,2022-10-28 16:30:03.140625
1922,9.21,2022-10-28 16:30:03.156250
1923,15.03,2022-10-28 16:30:03.171875
1924,19.2,2022-10-28 16:30:03.187500
1925,21.62,2022-10-28 16:30:03.203125
1926,22.6,2022-10-28 16:30:03.218750
1927,22.61,2022-10-28 16:30:03.234375
1928,22.01,2022-10-28 16:30:03.250000
1929,20.99,2022-10-28 16:30:03.265625
1930,19.54,2022-10-28 16:30:03.281250
1931,17.69,2022-10-28 16:30:03.296875
1932,15.54,2022-10-28 16:30:03.312500
1933,13.35,2022-10-28 16:30:03.328125
1934,11.37,2022-10-28 16:30:03.343750
1935,9.76,2022-10-28 16:30:03.359375
1936,8.43,2022-10-28 16:30:03.375000
1937,7.17,2022-10-28 16:30:03.390625
1938,5.7,2022-10-28 16:30:03.406250
1939,3.91,2022-10-28 16:30:03.421875
1940,1.94,2022-10-28 16:30:03.437500
1941,0.15,2022-10-28 16:30:03.453125
1942,-1.04,2022-10-28 16:30:03.468750
1943,-1.4,2022-10-28 16:30:03.484375
1944,-1.05,2022-10-28 16:30:03.500000
1945,-0.42,2022-10-28 16:30:03.515625
1946,-0.06,2022-10-28 16:30:03.531250
1947,-0.44,2022-10-28 16:30:03.546875
1948,-1.74,2022-10-28 16:30:03.562500
1949,-3.85,2022-10-28 16:30:03.578125
1950,-6.5,2022-10-28 16:30:03.593750
1951,-9.34,2022-10-28 16:30:03.609375
1952,-12.04,2022-10-28 16:30:03.625000
1953,-14.33,2022-10-28 16:30:03.640625
1954,-15.93,2022-10-28 16:30:03.656250
1955,-16.61,2022-10-28 16:30:03.671875
1956,-16.19,2022-10-28 16:30:03.687500
1957,-14.61,2022-10-28 16:30:03.703125
1958,-12.0,2022-10-28 16:30:03.718750
1959,-8.63,2022-10-28 16:30:03.734375
1960,-4.91,2022-10-28 16:30:03.750000
1961,-1.23,2022-10-28 16:30:03.765625
1962,2.14,2022-10-28 16:30:03.781250
1963,5.1,2022-10-28 16:30:03.796875
1964,7.79,2022-10-28 16:30:03.812500
1965,10.4,2022-10-28 16:30:03.828125
1966,12.98,2022-10-28 16:30:03.843750
1967,15.38,2022-10-28 16:30:03.859375
1968,17.14,2022-10-28 16:30:03.875000
1969,17.8,2022-10-28 16:30:03.890625
1970,17.09,2022-10-28 16:30:03.906250
1971,15.17,2022-10-28 16:30:03.921875
1972,12.62,2022-10-28 16:30:03.937500
1973,10.16,2022-10-28 16:30:03.953125
1974,8.33,2022-10-28 16:30:03.968750
1975,7.23,2022-10-28 16:30:03.984375
1976,6.49,2022-10-28 16:30:04.000000
1977,5.6,2022-10-28 16:30:04.015625
1978,4.18,2022-10-28 16:30:04.031250
1979,2.23,2022-10-28 16:30:04.046875
1980,0.11,2022-10-28 16:30:04.062500
1981,-1.76,2022-10-28 16:30:04.078125
1982,-3.1,2022-10-28 16:30:04.093750
1983,-3.98,2022-10-28 16:30:04.109375
1984,-4.74,2022-10-28 16:30:04.125000
1985,-5.76,2022-10-28 16:30:04.140625
1986,-7.25,2022-10-28 16:30:04.156250
1987,-9.15,2022-10-28 16:30:04.171875
1988,-11.18,2022-10-28 16:30:04.187500
1989,-13.02,2022-10-28 16:30:04.203125
1990,-14.38,2022-10-28 16:30:04.218750
1991,-15.17,2022-10-28 16:30:04.234375
1992,-15.39,2022-10-28 16:30:04.250000
1993,-15.21,2022-10-28 16:30:04.265625
1994,-14.86,2022-10-28 16:30:04.281250
1995,-14.56,2022-10-28 16:30:04.296875
1996,-14.42,2022-10-28 16:30:04.312500
1997,-14.27,2022-10-28 16:30:04.328125
1998,-13.69,2022-10-28 16:30:04.343750
1999,-12.12,2022-10-28 16:30:04.359375
2000,-9.12,2022-10-28 16:30:04.375000
2001,-4.65,2022-10-28 16:30:04.390625
2002,0.84,2022-10-28 16:30:04.406250
2003,6.59,2022-10-28 16:30:04.421875
2004,11.79,2022-10-28 16:30:04.437500
2005,15.93,2022-10-28 16:30:04.453125
2006,18.89,2022-10-28 16:30:04.468750
2007,20.79,2022-10-28 16:30:04.484375
2008,21.72,2022-10-28 16:30:04.500000
2009,21.63,2022-10-28 16:30:04.515625
2010,20.36,2022-10-28 16:30:04.531250
2011,17.9,2022-10-28 16:30:04.546875
2012,14.64,2022-10-28 16:30:04.562500
2013,11.33,2022-10-28 16:30:04.578125
2014,8.83,2022-10-28 16:30:04.593750
2015,7.73,2022-10-28 16:30:04.609375
2016,8.04,2022-10-28 16:30:04.625000
2017,9.23,2022-10-28 16:30:04.640625
2018,10.5,2022-10-28 16:30:04.656250
2019,11.25,2022-10-28 16:30:04.671875
2020,11.26,2022-10-28 16:30:04.687500
2021,10.73,2022-10-28 16:30:04.703125
2022,10.02,2022-10-28 16:30:04.718750
2023,9.34,2022-10-28 16:30:04.734375
2024,8.62,2022-10-28 16:30:04.750000
2025,7.55,2022-10-28 16:30:04.765625
2026,5.88,2022-10-28 16:30:04.781250
2027,3.64,2022-10-28 16:30:04.796875
2028,1.16,2022-10-28 16:30:04.812500
2029,-1.05,2022-10-28 16:30:04.828125
2030,-2.6,2022-10-28 16:30:04.843750
2031,-3.44,2022-10-28 16:30:04.859375
2032,-3.87,2022-10-28 16:30:04.875000
2033,-4.48,2022-10-28 16:30:04.890625
2034,-5.83,2022-10-28 16:30:04.906250
2035,-8.2,2022-10-28 16:30:04.921875
2036,-11.43,2022-10-28 16:30:04.937500
2037,-14.95,2022-10-28 16:30:04.953125
2038,-17.89,2022-10-28 16:30:04.968750
2039,-19.48,2022-10-28 16:30:04.984375
2040,-19.24,2022-10-28 16:30:05.000000
2041,-17.24,2022-10-28 16:30:05.015625
2042,-13.91,2022-10-28 16:30:05.031250
2043,-9.97,2022-10-28 16:30:05.046875
2044,-6.02,2022-10-28 16:30:05.062500
2045,-2.46,2022-10-28 16:30:05.078125
2046,0.64,2022-10-28 16:30:05.093750
2047,3.36,2022-10-28 16:30:05.109375
2048,5.82,2022-10-28 16:30:05.125000
2049,8.05,2022-10-28 16:30:05.140625
2050,9.92,2022-10-28 16:30:05.156250
2051,11.27,2022-10-28 16:30:05.171875
2052,11.96,2022-10-28 16:30:05.187500
2053,11.99,2022-10-28 16:30:05.203125
2054,11.46,2022-10-28 16:30:05.218750
2055,10.57,2022-10-28 16:30:05.234375
2056,9.57,2022-10-28 16:30:05.250000
2057,8.63,2022-10-28 16:30:05.265625
2058,7.87,2022-10-28 16:30:05.281250
2059,7.31,2022-10-28 16:30:05.296875
2060,6.85,2022-10-28 16:30:05.312500
2061,6.39,2022-10-28 16:30:05.328125
2062,5.78,2022-10-28 16:30:05.343750
2063,4.89,2022-10-28 16:30:05.359375
2064,3.62,2022-10-28 16:30:05.375000
2065,1.9,2022-10-28 16:30:05.390625
2066,-0.26,2022-10-28 16:30:05.406250
2067,-2.72,2022-10-28 16:30:05.421875
2068,-5.19,2022-10-28 16:30:05.437500
2069,-7.23,2022-10-28 16:30:05.453125
2070,-8.47,2022-10-28 16:30:05.468750
2071,-8.68,2022-10-28 16:30:05.484375
2072,-7.94,2022-10-28 16:30:05.500000
2073,-6.64,2022-10-28 16:30:05.515625
2074,-5.28,2022-10-28 16:30:05.531250
2075,-4.34,2022-10-28 16:30:05.546875
2076,-4.18,2022-10-28 16:30:05.562500
2077,-4.96,2022-10-28 16:30:05.578125
2078,-6.75,2022-10-28 16:30:05.593750
2079,-9.51,2022-10-28 16:30:05.609375
2080,-12.96,2022-10-28 16:30:05.625000
2081,-16.6,2022-10-28 16:30:05.640625
2082,-19.63,2022-10-28 16:30:05.656250
2083,-21.2,2022-10-28 16:30:05.671875
2084,-20.67,2022-10-28 16:30:05.687500
2085,-17.88,2022-10-28 16:30:05.703125
2086,-13.27,2022-10-28 16:30:05.718750
2087,-7.73,2022-10-28 16:30:05.734375
2088,-2.28,2022-10-28 16:30:05.750000
2089,2.25,2022-10-28 16:30:05.765625
2090,5.49,2022-10-28 16:30:05.781250
2091,7.51,2022-10-28 16:30:05.796875
2092,8.73,2022-10-28 16:30:05.812500
2093,9.68,2022-10-28 16:30:05.828125
2094,10.77,2022-10-28 16:30:05.843750
2095,12.17,2022-10-28 16:30:05.859375
2096,13.85,2022-10-28 16:30:05.875000
2097,15.54,2022-10-28 16:30:05.890625
2098,16.94,2022-10-28 16:30:05.906250
2099,17.81,2022-10-28 16:30:05.921875
2100,18.06,2022-10-28 16:30:05.937500
2101,17.74,2022-10-28 16:30:05.953125
2102,16.97,2022-10-28 16:30:05.968750
2103,15.82,2022-10-28 16:30:05.984375
2104,14.33,2022-10-28 16:30:06.000000
2105,12.5,2022-10-28 16:30:06.015625
2106,10.41,2022-10-28 16:30:06.031250
2107,8.21,2022-10-28 16:30:06.046875
2108,6.2,2022-10-28 16:30:06.062500
2109,4.64,2022-10-28 16:30:06.078125
2110,3.7,2022-10-28 16:30:06.093750
2111,3.33,2022-10-28 16:30:06.109375
2112,3.28,2022-10-28 16:30:06.125000
2113,3.16,2022-10-28 16:30:06.140625
2114,2.63,2022-10-28 16:30:06.156250
2115,1.47,2022-10-28 16:30:06.171875
2116,-0.26,2022-10-28 16:30:06.187500
2117,-2.36,2022-10-28 16:30:06.203125
2118,-4.48,2022-10-28 16:30:06.218750
2119,-6.34,2022-10-28 16:30:06.234375
2120,-7.77,2022-10-28 16:30:06.250000
2121,-8.73,2022-10-28 16:30:06.265625
2122,-9.31,2022-10-28 16:30:06.281250
2123,-9.69,2022-10-28 16:30:06.296875
2124,-10.1,2022-10-28 16:30:06.312500
2125,-10.76,2022-10-28 16:30:06.328125
2126,-11.82,2022-10-28 16:30:06.343750
2127,-13.21,2022-10-28 16:30:06.359375
2128,-14.59,2022-10-28 16:30:06.375000
2129,-15.38,2022-10-28 16:30:06.390625
2130,-14.95,2022-10-28 16:30:06.406250
2131,-12.92,2022-10-28 16:30:06.421875
2132,-9.33,2022-10-28 16:30:06.437500
2133,-4.73,2022-10-28 16:30:06.453125
2134,0.03,2022-10-28 16:30:06.468750
2135,4.13,2022-10-28 16:30:06.484375
2136,7.06,2022-10-28 16:30:06.500000
2137,8.78,2022-10-28 16:30:06.515625
2138,9.55,2022-10-28 16:30:06.531250
2139,9.75,2022-10-28 16:30:06.546875
2140,9.61,2022-10-28 16:30:06.562500
2141,9.14,2022-10-28 16:30:06.578125
2142,8.25,2022-10-28 16:30:06.593750
2143,6.95,2022-10-28 16:30:06.609375
2144,5.43,2022-10-28 16:30:06.625000
2145,4.04,2022-10-28 16:30:06.640625
2146,3.16,2022-10-28 16:30:06.656250
2147,2.93,2022-10-28 16:30:06.671875
2148,3.24,2022-10-28 16:30:06.687500
2149,3.75,2022-10-28 16:30:06.703125
2150,4.11,2022-10-28 16:30:06.718750
2151,4.13,2022-10-28 16:30:06.734375
2152,3.79,2022-10-28 16:30:06.750000
2153,3.23,2022-10-28 16:30:06.765625
2154,2.62,2022-10-28 16:30:06.781250
2155,2.07,2022-10-28 16:30:06.796875
2156,1.63,2022-10-28 16:30:06.812500
2157,1.38,2022-10-28 16:30:06.828125
2158,1.37,2022-10-28 16:30:06.843750
2159,1.65,2022-10-28 16:30:06.859375
2160,2.16,2022-10-28 16:30:06.875000
2161,2.73,2022-10-28 16:30:06.890625
2162,3.14,2022-10-28 16:30:06.906250
2163,3.23,2022-10-28 16:30:06.921875
2164,2.88,2022-10-28 16:30:06.937500
2165,2.1,2022-10-28 16:30:06.953125
2166,0.93,2022-10-28 16:30:06.968750
2167,-0.63,2022-10-28 16:30:06.984375
2168,-2.6,2022-10-28 16:30:07.000000
2169,-4.97,2022-10-28 16:30:07.015625
2170,-7.69,2022-10-28 16:30:07.031250
2171,-10.66,2022-10-28 16:30:07.046875
2172,-13.74,2022-10-28 16:30:07.062500
2173,-16.73,2022-10-28 16:30:07.078125
2174,-19.37,2022-10-28 16:30:07.093750
2175,-21.29,2022-10-28 16:30:07.109375
2176,-22.07,2022-10-28 16:30:07.125000
2177,-21.34,2022-10-28 16:30:07.140625
2178,-18.92,2022-10-28 16:30:07.156250
2179,-14.92,2022-10-28 16:30:07.171875
2180,-9.74,2022-10-28 16:30:07.187500
2181,-3.96,2022-10-28 16:30:07.203125
2182,1.77,2022-10-28 16:30:07.218750
2183,6.92,2022-10-28 16:30:07.234375
2184,11.1,2022-10-28 16:30:07.250000
2185,14.06,2022-10-28 16:30:07.265625
2186,15.76,2022-10-28 16:30:07.281250
2187,16.29,2022-10-28 16:30:07.296875
2188,15.9,2022-10-28 16:30:07.312500
2189,14.9,2022-10-28 16:30:07.328125
2190,13.6,2022-10-28 16:30:07.343750
2191,12.24,2022-10-28 16:30:07.359375
2192,11.0,2022-10-28 16:30:07.375000
2193,9.97,2022-10-28 16:30:07.390625
2194,9.22,2022-10-28 16:30:07.406250
2195,8.7,2022-10-28 16:30:07.421875
2196,8.28,2022-10-28 16:30:07.437500
2197,7.78,2022-10-28 16:30:07.453125
2198,7.07,2022-10-28 16:30:07.468750
2199,6.14,2022-10-28 16:30:07.484375
2200,5.11,2022-10-28 16:30:07.500000
2201,4.19,2022-10-28 16:30:07.515625
2202,3.55,2022-10-28 16:30:07.531250
2203,3.22,2022-10-28 16:30:07.546875
2204,3.09,2022-10-28 16:30:07.562500
2205,2.95,2022-10-28 16:30:07.578125
2206,2.63,2022-10-28 16:30:07.593750
2207,2.08,2022-10-28 16:30:07.609375
2208,1.32,2022-10-28 16:30:07.625000
2209,0.44,2022-10-28 16:30:07.640625
2210,-0.53,2022-10-28 16:30:07.656250
2211,-1.58,2022-10-28 16:30:07.671875
2212,-2.75,2022-10-28 16:30:07.687500
2213,-4.04,2022-10-28 16:30:07.703125
2214,-5.43,2022-10-28 16:30:07.718750
2215,-6.89,2022-10-28 16:30:07.734375
2216,-8.36,2022-10-28 16:30:07.750000
2217,-9.76,2022-10-28 16:30:07.765625
2218,-11.05,2022-10-28 16:30:07.781250
2219,-12.23,2022-10-28 16:30:07.796875
2220,-13.44,2022-10-28 16:30:07.812500
2221,-14.81,2022-10-28 16:30:07.828125
2222,-16.42,2022-10-28 16:30:07.843750
2223,-18.15,2022-10-28 16:30:07.859375
2224,-19.61,2022-10-28 16:30:07.875000
2225,-20.24,2022-10-28 16:30:07.890625
2226,-19.57,2022-10-28 16:30:07.906250
2227,-17.42,2022-10-28 16:30:07.921875
2228,-14.03,2022-10-28 16:30:07.937500
2229,-9.92,2022-10-28 16:30:07.953125
2230,-5.71,2022-10-28 16:30:07.968750
2231,-1.87,2022-10-28 16:30:07.984375
2232,1.38,2022-10-28 16:30:08.000000
2233,4.05,2022-10-28 16:30:08.015625
2234,6.25,2022-10-28 16:30:08.031250
2235,8.05,2022-10-28 16:30:08.046875
2236,9.46,2022-10-28 16:30:08.062500
2237,10.4,2022-10-28 16:30:08.078125
2238,10.82,2022-10-28 16:30:08.093750
2239,10.69,2022-10-28 16:30:08.109375
2240,10.05,2022-10-28 16:30:08.125000
2241,9.0,2022-10-28 16:30:08.140625
2242,7.71,2022-10-28 16:30:08.156250
2243,6.38,2022-10-28 16:30:08.171875
2244,5.2,2022-10-28 16:30:08.187500
2245,4.32,2022-10-28 16:30:08.203125
2246,3.8,2022-10-28 16:30:08.218750
2247,3.55,2022-10-28 16:30:08.234375
2248,3.49,2022-10-28 16:30:08.250000
2249,3.5,2022-10-28 16:30:08.265625
2250,3.6,2022-10-28 16:30:08.281250
2251,3.87,2022-10-28 16:30:08.296875
2252,4.35,2022-10-28 16:30:08.312500
2253,4.99,2022-10-28 16:30:08.328125
2254,5.58,2022-10-28 16:30:08.343750
2255,5.82,2022-10-28 16:30:08.359375
2256,5.46,2022-10-28 16:30:08.375000
2257,4.44,2022-10-28 16:30:08.390625
2258,2.94,2022-10-28 16:30:08.406250
2259,1.26,2022-10-28 16:30:08.421875
2260,-0.3,2022-10-28 16:30:08.437500
2261,-1.58,2022-10-28 16:30:08.453125
2262,-2.6,2022-10-28 16:30:08.468750
2263,-3.43,2022-10-28 16:30:08.484375
2264,-4.13,2022-10-28 16:30:08.500000
2265,-4.68,2022-10-28 16:30:08.515625
2266,-5.13,2022-10-28 16:30:08.531250
2267,-5.66,2022-10-28 16:30:08.546875
2268,-6.59,2022-10-28 16:30:08.562500
2269,-8.24,2022-10-28 16:30:08.578125
2270,-10.69,2022-10-28 16:30:08.593750
2271,-13.62,2022-10-28 16:30:08.609375
2272,-16.27,2022-10-28 16:30:08.625000
2273,-17.79,2022-10-28 16:30:08.640625
2274,-17.56,2022-10-28 16:30:08.656250
2275,-15.46,2022-10-28 16:30:08.671875
2276,-11.9,2022-10-28 16:30:08.687500
2277,-7.65,2022-10-28 16:30:08.703125
2278,-3.49,2022-10-28 16:30:08.718750
2279,0.03,2022-10-28 16:30:08.734375
2280,2.73,2022-10-28 16:30:08.750000
2281,4.71,2022-10-28 16:30:08.765625
2282,6.17,2022-10-28 16:30:08.781250
2283,7.3,2022-10-28 16:30:08.796875
2284,8.11,2022-10-28 16:30:08.812500
2285,8.53,2022-10-28 16:30:08.828125
2286,8.52,2022-10-28 16:30:08.843750
2287,8.15,2022-10-28 16:30:08.859375
2288,7.65,2022-10-28 16:30:08.875000
2289,7.31,2022-10-28 16:30:08.890625
2290,7.33,2022-10-28 16:30:08.906250
2291,7.68,2022-10-28 16:30:08.921875
2292,8.13,2022-10-28 16:30:08.937500
2293,8.38,2022-10-28 16:30:08.953125
2294,8.2,2022-10-28 16:30:08.968750
2295,7.63,2022-10-28 16:30:08.984375
2296,6.91,2022-10-28 16:30:09.000000
2297,6.41,2022-10-28 16:30:09.015625
2298,6.39,2022-10-28 16:30:09.031250
2299,6.85,2022-10-28 16:30:09.046875
2300,7.56,2022-10-28 16:30:09.062500
2301,8.11,2022-10-28 16:30:09.078125
2302,8.1,2022-10-28 16:30:09.093750
2303,7.32,2022-10-28 16:30:09.109375
2304,5.83,2022-10-28 16:30:09.125000
2305,3.9,2022-10-28 16:30:09.140625
2306,1.92,2022-10-28 16:30:09.156250
2307,0.23,2022-10-28 16:30:09.171875
2308,-1.02,2022-10-28 16:30:09.187500
2309,-1.9,2022-10-28 16:30:09.203125
2310,-2.68,2022-10-28 16:30:09.218750
2311,-3.64,2022-10-28 16:30:09.234375
2312,-4.94,2022-10-28 16:30:09.250000
2313,-6.58,2022-10-28 16:30:09.265625
2314,-8.35,2022-10-28 16:30:09.281250
2315,-10.0,2022-10-28 16:30:09.296875
2316,-11.37,2022-10-28 16:30:09.312500
2317,-12.47,2022-10-28 16:30:09.328125
2318,-13.45,2022-10-28 16:30:09.343750
2319,-14.54,2022-10-28 16:30:09.359375
2320,-15.82,2022-10-28 16:30:09.375000
2321,-17.19,2022-10-28 16:30:09.390625
2322,-18.32,2022-10-28 16:30:09.406250
2323,-18.8,2022-10-28 16:30:09.421875
2324,-18.22,2022-10-28 16:30:09.437500
2325,-16.43,2022-10-28 16:30:09.453125
2326,-13.53,2022-10-28 16:30:09.468750
2327,-9.86,2022-10-28 16:30:09.484375
2328,-5.89,2022-10-28 16:30:09.500000
2329,-2.09,2022-10-28 16:30:09.515625
2330,1.19,2022-10-28 16:30:09.531250
2331,3.83,2022-10-28 16:30:09.546875
2332,5.86,2022-10-28 16:30:09.562500
2333,7.45,2022-10-28 16:30:09.578125
2334,8.78,2022-10-28 16:30:09.593750
2335,9.95,2022-10-28 16:30:09.609375
2336,10.91,2022-10-28 16:30:09.625000
2337,11.51,2022-10-28 16:30:09.640625
2338,11.59,2022-10-28 16:30:09.656250
2339,11.09,2022-10-28 16:30:09.671875
2340,10.13,2022-10-28 16:30:09.687500
2341,8.97,2022-10-28 16:30:09.703125
2342,7.87,2022-10-28 16:30:09.718750
2343,6.98,2022-10-28 16:30:09.734375
2344,6.34,2022-10-28 16:30:09.750000
2345,5.83,2022-10-28 16:30:09.765625
2346,5.38,2022-10-28 16:30:09.781250
2347,4.96,2022-10-28 16:30:09.796875
2348,4.61,2022-10-28 16:30:09.812500
2349,4.4,2022-10-28 16:30:09.828125
2350,4.31,2022-10-28 16:30:09.843750
2351,4.23,2022-10-28 16:30:09.859375
2352,3.96,2022-10-28 16:30:09.875000
2353,3.29,2022-10-28 16:30:09.890625
2354,2.12,2022-10-28 16:30:09.906250
2355,0.44,2022-10-28 16:30:09.921875
2356,-1.56,2022-10-28 16:30:09.937500
2357,-3.63,2022-10-28 16:30:09.953125
2358,-5.49,2022-10-28 16:30:09.968750
2359,-6.98,2022-10-28 16:30:09.984375
2360,-8.01,2022-10-28 16:30:10.000000
2361,-8.68,2022-10-28 16:30:10.015625
2362,-9.18,2022-10-28 16:30:10.031250
2363,-9.73,2022-10-28 16:30:10.046875
2364,-10.49,2022-10-28 16:30:10.062500
2365,-11.51,2022-10-28 16:30:10.078125
2366,-12.8,2022-10-28 16:30:10.093750
2367,-14.29,2022-10-28 16:30:10.109375
2368,-15.91,2022-10-28 16:30:10.125000
2369,-17.5,2022-10-28 16:30:10.140625
2370,-18.78,2022-10-28 16:30:10.156250
2371,-19.36,2022-10-28 16:30:10.171875
2372,-18.81,2022-10-28 16:30:10.187500
2373,-16.83,2022-10-28 16:30:10.203125
2374,-13.4,2022-10-28 16:30:10.218750
2375,-8.84,2022-10-28 16:30:10.234375
2376,-3.66,2022-10-28 16:30:10.250000
2377,1.54,2022-10-28 16:30:10.265625
2378,6.37,2022-10-28 16:30:10.281250
2379,10.61,2022-10-28 16:30:10.296875
2380,14.27,2022-10-28 16:30:10.312500
2381,17.44,2022-10-28 16:30:10.328125
2382,20.18,2022-10-28 16:30:10.343750
2383,22.48,2022-10-28 16:30:10.359375
2384,24.29,2022-10-28 16:30:10.375000
2385,25.52,2022-10-28 16:30:10.390625
2386,26.11,2022-10-28 16:30:10.406250
2387,26.07,2022-10-28 16:30:10.421875
2388,25.46,2022-10-28 16:30:10.437500
2389,24.51,2022-10-28 16:30:10.453125
2390,23.53,2022-10-28 16:30:10.468750
2391,22.85,2022-10-28 16:30:10.484375
2392,22.59,2022-10-28 16:30:10.500000
2393,22.64,2022-10-28 16:30:10.515625
2394,22.64,2022-10-28 16:30:10.531250
2395,22.12,2022-10-28 16:30:10.546875
2396,20.75,2022-10-28 16:30:10.562500
2397,18.53,2022-10-28 16:30:10.578125
2398,15.74,2022-10-28 16:30:10.593750
2399,12.85,2022-10-28 16:30:10.609375
2400,10.25,2022-10-28 16:30:10.625000
2401,8.1,2022-10-28 16:30:10.640625
2402,6.31,2022-10-28 16:30:10.656250
2403,4.68,2022-10-28 16:30:10.671875
2404,3.03,2022-10-28 16:30:10.687500
2405,1.32,2022-10-28 16:30:10.703125
2406,-0.43,2022-10-28 16:30:10.718750
2407,-2.17,2022-10-28 16:30:10.734375
2408,-3.94,2022-10-28 16:30:10.750000
2409,-5.85,2022-10-28 16:30:10.765625
2410,-8.03,2022-10-28 16:30:10.781250
2411,-10.45,2022-10-28 16:30:10.796875
2412,-12.98,2022-10-28 16:30:10.812500
2413,-15.37,2022-10-28 16:30:10.828125
2414,-17.4,2022-10-28 16:30:10.843750
2415,-19.02,2022-10-28 16:30:10.859375
2416,-20.37,2022-10-28 16:30:10.875000
2417,-21.74,2022-10-28 16:30:10.890625
2418,-23.34,2022-10-28 16:30:10.906250
2419,-25.14,2022-10-28 16:30:10.921875
2420,-26.84,2022-10-28 16:30:10.937500
2421,-27.89,2022-10-28 16:30:10.953125
2422,-27.76,2022-10-28 16:30:10.968750
2423,-26.1,2022-10-28 16:30:10.984375
2424,-22.95,2022-10-28 16:30:11.000000
2425,-18.73,2022-10-28 16:30:11.015625
2426,-14.08,2022-10-28 16:30:11.031250
2427,-9.59,2022-10-28 16:30:11.046875
2428,-5.65,2022-10-28 16:30:11.062500
2429,-2.34,2022-10-28 16:30:11.078125
2430,0.45,2022-10-28 16:30:11.093750
2431,2.84,2022-10-28 16:30:11.109375
2432,4.84,2022-10-28 16:30:11.125000
2433,6.26,2022-10-28 16:30:11.140625
2434,6.9,2022-10-28 16:30:11.156250
2435,6.66,2022-10-28 16:30:11.171875
2436,5.7,2022-10-28 16:30:11.187500
2437,4.39,2022-10-28 16:30:11.203125
2438,3.22,2022-10-28 16:30:11.218750
2439,2.62,2022-10-28 16:30:11.234375
2440,2.79,2022-10-28 16:30:11.250000
2441,3.72,2022-10-28 16:30:11.265625
2442,5.19,2022-10-28 16:30:11.281250
2443,6.92,2022-10-28 16:30:11.296875
2444,8.66,2022-10-28 16:30:11.312500
2445,10.24,2022-10-28 16:30:11.328125
2446,11.58,2022-10-28 16:30:11.343750
2447,12.71,2022-10-28 16:30:11.359375
2448,13.65,2022-10-28 16:30:11.375000
2449,14.48,2022-10-28 16:30:11.390625
2450,15.23,2022-10-28 16:30:11.406250
2451,15.85,2022-10-28 16:30:11.421875
2452,16.24,2022-10-28 16:30:11.437500
2453,16.21,2022-10-28 16:30:11.453125
2454,15.59,2022-10-28 16:30:11.468750
2455,14.25,2022-10-28 16:30:11.484375
2456,12.27,2022-10-28 16:30:11.500000
2457,9.92,2022-10-28 16:30:11.515625
2458,7.59,2022-10-28 16:30:11.531250
2459,5.64,2022-10-28 16:30:11.546875
2460,4.19,2022-10-28 16:30:11.562500
2461,3.21,2022-10-28 16:30:11.578125
2462,2.47,2022-10-28 16:30:11.593750
2463,1.76,2022-10-28 16:30:11.609375
2464,0.97,2022-10-28 16:30:11.625000
2465,0.05,2022-10-28 16:30:11.640625
2466,-1.05,2022-10-28 16:30:11.656250
2467,-2.47,2022-10-28 16:30:11.671875
2468,-4.31,2022-10-28 16:30:11.687500
2469,-6.52,2022-10-28 16:30:11.703125
2470,-8.64,2022-10-28 16:30:11.718750
2471,-9.94,2022-10-28 16:30:11.734375
2472,-9.63,2022-10-28 16:30:11.750000
2473,-7.26,2022-10-28 16:30:11.765625
2474,-2.98,2022-10-28 16:30:11.781250
2475,2.41,2022-10-28 16:30:11.796875
2476,7.8,2022-10-28 16:30:11.812500
2477,12.17,2022-10-28 16:30:11.828125
2478,14.91,2022-10-28 16:30:11.843750
2479,15.92,2022-10-28 16:30:11.859375
2480,15.47,2022-10-28 16:30:11.875000
2481,13.98,2022-10-28 16:30:11.890625
2482,11.85,2022-10-28 16:30:11.906250
2483,9.44,2022-10-28 16:30:11.921875
2484,7.05,2022-10-28 16:30:11.937500
2485,4.99,2022-10-28 16:30:11.953125
2486,3.54,2022-10-28 16:30:11.968750
2487,2.92,2022-10-28 16:30:11.984375
2488,3.21,2022-10-28 16:30:12.000000
2489,4.29,2022-10-28 16:30:12.015625
2490,5.88,2022-10-28 16:30:12.031250
2491,7.57,2022-10-28 16:30:12.046875
2492,8.96,2022-10-28 16:30:12.062500
2493,9.78,2022-10-28 16:30:12.078125
2494,10.04,2022-10-28 16:30:12.093750
2495,9.93,2022-10-28 16:30:12.109375
2496,9.8,2022-10-28 16:30:12.125000
2497,9.81,2022-10-28 16:30:12.140625
2498,9.9,2022-10-28 16:30:12.156250
2499,9.76,2022-10-28 16:30:12.171875
2500,9.07,2022-10-28 16:30:12.187500
2501,7.74,2022-10-28 16:30:12.203125
2502,5.94,2022-10-28 16:30:12.218750
2503,4.02,2022-10-28 16:30:12.234375
2504,2.2,2022-10-28 16:30:12.250000
2505,0.37,2022-10-28 16:30:12.265625
2506,-1.73,2022-10-28 16:30:12.281250
2507,-4.35,2022-10-28 16:30:12.296875
2508,-7.38,2022-10-28 16:30:12.312500
2509,-10.35,2022-10-28 16:30:12.328125
2510,-12.72,2022-10-28 16:30:12.343750
2511,-14.31,2022-10-28 16:30:12.359375
2512,-15.44,2022-10-28 16:30:12.375000
2513,-16.86,2022-10-28 16:30:12.390625
2514,-19.29,2022-10-28 16:30:12.406250
2515,-23.0,2022-10-28 16:30:12.421875
2516,-27.53,2022-10-28 16:30:12.437500
2517,-31.8,2022-10-28 16:30:12.453125
2518,-34.57,2022-10-28 16:30:12.468750
2519,-34.87,2022-10-28 16:30:12.484375
2520,-32.36,2022-10-28 16:30:12.500000
2521,-27.47,2022-10-28 16:30:12.515625
2522,-21.2,2022-10-28 16:30:12.531250
2523,-14.91,2022-10-28 16:30:12.546875
2524,-9.91,2022-10-28 16:30:12.562500
2525,-7.18,2022-10-28 16:30:12.578125
2526,-7.09,2022-10-28 16:30:12.593750
2527,-9.32,2022-10-28 16:30:12.609375
2528,-12.95,2022-10-28 16:30:12.625000
2529,-16.83,2022-10-28 16:30:12.640625
2530,-19.93,2022-10-28 16:30:12.656250
2531,-21.68,2022-10-28 16:30:12.671875
2532,-22.12,2022-10-28 16:30:12.687500
2533,-21.76,2022-10-28 16:30:12.703125
2534,-21.32,2022-10-28 16:30:12.718750
2535,-21.4,2022-10-28 16:30:12.734375
2536,-22.28,2022-10-28 16:30:12.750000
2537,-23.82,2022-10-28 16:30:12.765625
2538,-25.61,2022-10-28 16:30:12.781250
2539,-27.08,2022-10-28 16:30:12.796875
2540,-27.69,2022-10-28 16:30:12.812500
2541,-27.03,2022-10-28 16:30:12.828125
2542,-24.8,2022-10-28 16:30:12.843750
2543,-20.82,2022-10-28 16:30:12.859375
2544,-15.06,2022-10-28 16:30:12.875000
2545,-7.72,2022-10-28 16:30:12.890625
2546,0.73,2022-10-28 16:30:12.906250
2547,9.57,2022-10-28 16:30:12.921875
2548,17.89,2022-10-28 16:30:12.937500
2549,24.82,2022-10-28 16:30:12.953125
2550,29.69,2022-10-28 16:30:12.968750
2551,32.2,2022-10-28 16:30:12.984375
2552,32.54,2022-10-28 16:30:13.000000
2553,31.19,2022-10-28 16:30:13.015625
2554,28.79,2022-10-28 16:30:13.031250
2555,25.9,2022-10-28 16:30:13.046875
2556,22.9,2022-10-28 16:30:13.062500
2557,19.91,2022-10-28 16:30:13.078125
2558,16.94,2022-10-28 16:30:13.093750
2559,13.88,2022-10-28 16:30:13.109375
2560,10.58,2022-10-28 16:30:13.125000
2561,6.94,2022-10-28 16:30:13.140625
2562,2.97,2022-10-28 16:30:13.156250
2563,-1.21,2022-10-28 16:30:13.171875
2564,-5.28,2022-10-28 16:30:13.187500
2565,-8.85,2022-10-28 16:30:13.203125
2566,-11.53,2022-10-28 16:30:13.218750
2567,-13.14,2022-10-28 16:30:13.234375
2568,-13.73,2022-10-28 16:30:13.250000
2569,-13.55,2022-10-28 16:30:13.265625
2570,-12.94,2022-10-28 16:30:13.281250
2571,-12.21,2022-10-28 16:30:13.296875
2572,-11.59,2022-10-28 16:30:13.312500
2573,-11.22,2022-10-28 16:30:13.328125
2574,-11.23,2022-10-28 16:30:13.343750
2575,-11.66,2022-10-28 16:30:13.359375
2576,-12.5,2022-10-28 16:30:13.375000
2577,-13.61,2022-10-28 16:30:13.390625
2578,-14.75,2022-10-28 16:30:13.406250
2579,-15.61,2022-10-28 16:30:13.421875
2580,-15.85,2022-10-28 16:30:13.437500
2581,-15.21,2022-10-28 16:30:13.453125
2582,-13.51,2022-10-28 16:30:13.468750
2583,-10.72,2022-10-28 16:30:13.484375
2584,-6.97,2022-10-28 16:30:13.500000
2585,-2.53,2022-10-28 16:30:13.515625
2586,2.26,2022-10-28 16:30:13.531250
2587,7.11,2022-10-28 16:30:13.546875
2588,11.75,2022-10-28 16:30:13.562500
2589,16.04,2022-10-28 16:30:13.578125
2590,19.8,2022-10-28 16:30:13.593750
2591,22.78,2022-10-28 16:30:13.609375
2592,24.66,2022-10-28 16:30:13.625000
2593,25.26,2022-10-28 16:30:13.640625
2594,24.65,2022-10-28 16:30:13.656250
2595,23.24,2022-10-28 16:30:13.671875
2596,21.68,2022-10-28 16:30:13.687500
2597,20.62,2022-10-28 16:30:13.703125
2598,20.4,2022-10-28 16:30:13.718750
2599,20.97,2022-10-28 16:30:13.734375
2600,21.87,2022-10-28 16:30:13.750000
2601,22.45,2022-10-28 16:30:13.765625
2602,22.08,2022-10-28 16:30:13.781250
2603,20.27,2022-10-28 16:30:13.796875
2604,16.88,2022-10-28 16:30:13.812500
2605,12.08,2022-10-28 16:30:13.828125
2606,6.39,2022-10-28 16:30:13.843750
2607,0.53,2022-10-28 16:30:13.859375
2608,-4.8,2022-10-28 16:30:13.875000
2609,-9.04,2022-10-28 16:30:13.890625
2610,-11.92,2022-10-28 16:30:13.906250
2611,-13.43,2022-10-28 16:30:13.921875
2612,-13.76,2022-10-28 16:30:13.937500
2613,-13.14,2022-10-28 16:30:13.953125
2614,-11.74,2022-10-28 16:30:13.968750
2615,-9.63,2022-10-28 16:30:13.984375
2616,-6.77,2022-10-28 16:30:14.000000
2617,-3.09,2022-10-28 16:30:14.015625
2618,1.35,2022-10-28 16:30:14.031250
2619,6.23,2022-10-28 16:30:14.046875
2620,10.8,2022-10-28 16:30:14.062500
2621,14.09,2022-10-28 16:30:14.078125
2622,15.19,2022-10-28 16:30:14.093750
2623,13.76,2022-10-28 16:30:14.109375
2624,10.4,2022-10-28 16:30:14.125000
2625,6.56,2022-10-28 16:30:14.140625
2626,3.97,2022-10-28 16:30:14.156250
2627,3.84,2022-10-28 16:30:14.171875
2628,6.19,2022-10-28 16:30:14.187500
2629,9.75,2022-10-28 16:30:14.203125
2630,12.46,2022-10-28 16:30:14.218750
2631,12.4,2022-10-28 16:30:14.234375
2632,8.61,2022-10-28 16:30:14.250000
2633,1.44,2022-10-28 16:30:14.265625
2634,-7.67,2022-10-28 16:30:14.281250
2635,-16.73,2022-10-28 16:30:14.296875
2636,-23.79,2022-10-28 16:30:14.312500
2637,-27.31,2022-10-28 16:30:14.328125
2638,-26.34,2022-10-28 16:30:14.343750
2639,-20.63,2022-10-28 16:30:14.359375
2640,-10.67,2022-10-28 16:30:14.375000
2641,2.32,2022-10-28 16:30:14.390625
2642,16.55,2022-10-28 16:30:14.406250
2643,29.96,2022-10-28 16:30:14.421875
2644,40.81,2022-10-28 16:30:14.437500
2645,48.11,2022-10-28 16:30:14.453125
2646,51.81,2022-10-28 16:30:14.468750
2647,52.68,2022-10-28 16:30:14.484375
2648,51.71,2022-10-28 16:30:14.500000
2649,49.55,2022-10-28 16:30:14.515625
2650,46.17,2022-10-28 16:30:14.531250
2651,40.92,2022-10-28 16:30:14.546875
2652,33.07,2022-10-28 16:30:14.562500
2653,22.39,2022-10-28 16:30:14.578125
2654,9.48,2022-10-28 16:30:14.593750
2655,-4.39,2022-10-28 16:30:14.609375
2656,-17.76,2022-10-28 16:30:14.625000
2657,-29.57,2022-10-28 16:30:14.640625
2658,-39.41,2022-10-28 16:30:14.656250
2659,-47.39,2022-10-28 16:30:14.671875
2660,-53.76,2022-10-28 16:30:14.687500
2661,-58.48,2022-10-28 16:30:14.703125
2662,-61.3,2022-10-28 16:30:14.718750
2663,-62.01,2022-10-28 16:30:14.734375
2664,-60.89,2022-10-28 16:30:14.750000
2665,-58.73,2022-10-28 16:30:14.765625
2666,-56.44,2022-10-28 16:30:14.781250
2667,-54.36,2022-10-28 16:30:14.796875
2668,-51.68,2022-10-28 16:30:14.812500
2669,-46.62,2022-10-28 16:30:14.828125
2670,-37.1,2022-10-28 16:30:14.843750
2671,-21.89,2022-10-28 16:30:14.859375
2672,-1.42,2022-10-28 16:30:14.875000
2673,22.09,2022-10-28 16:30:14.890625
2674,45.19,2022-10-28 16:30:14.906250
2675,64.27,2022-10-28 16:30:14.921875
2676,76.6,2022-10-28 16:30:14.937500
2677,80.89,2022-10-28 16:30:14.953125
2678,77.45,2022-10-28 16:30:14.968750
2679,67.87,2022-10-28 16:30:14.984375
2680,54.46,2022-10-28 16:30:15.000000
2681,39.69,2022-10-28 16:30:15.015625
2682,25.74,2022-10-28 16:30:15.031250
2683,14.11,2022-10-28 16:30:15.046875
2684,5.6,2022-10-28 16:30:15.062500
2685,0.36,2022-10-28 16:30:15.078125
2686,-1.89,2022-10-28 16:30:15.093750
2687,-1.63,2022-10-28 16:30:15.109375
2688,0.72,2022-10-28 16:30:15.125000
2689,4.7,2022-10-28 16:30:15.140625
2690,9.76,2022-10-28 16:30:15.156250
2691,15.21,2022-10-28 16:30:15.171875
2692,20.17,2022-10-28 16:30:15.187500
2693,23.84,2022-10-28 16:30:15.203125
2694,25.62,2022-10-28 16:30:15.218750
2695,25.22,2022-10-28 16:30:15.234375
2696,22.62,2022-10-28 16:30:15.250000
2697,17.95,2022-10-28 16:30:15.265625
2698,11.37,2022-10-28 16:30:15.281250
2699,3.08,2022-10-28 16:30:15.296875
2700,-6.52,2022-10-28 16:30:15.312500
2701,-16.79,2022-10-28 16:30:15.328125
2702,-26.74,2022-10-28 16:30:15.343750
2703,-35.28,2022-10-28 16:30:15.359375
2704,-41.37,2022-10-28 16:30:15.375000
2705,-44.4,2022-10-28 16:30:15.390625
2706,-44.32,2022-10-28 16:30:15.406250
2707,-41.71,2022-10-28 16:30:15.421875
2708,-37.47,2022-10-28 16:30:15.437500
2709,-32.56,2022-10-28 16:30:15.453125
2710,-27.69,2022-10-28 16:30:15.468750
2711,-23.28,2022-10-28 16:30:15.484375
2712,-19.51,2022-10-28 16:30:15.500000
2713,-16.39,2022-10-28 16:30:15.515625
2714,-13.84,2022-10-28 16:30:15.531250
2715,-11.7,2022-10-28 16:30:15.546875
2716,-9.77,2022-10-28 16:30:15.562500
2717,-7.86,2022-10-28 16:30:15.578125
2718,-5.91,2022-10-28 16:30:15.593750
2719,-4.05,2022-10-28 16:30:15.609375
2720,-2.59,2022-10-28 16:30:15.625000
2721,-1.81,2022-10-28 16:30:15.640625
2722,-1.81,2022-10-28 16:30:15.656250
2723,-2.39,2022-10-28 16:30:15.671875
2724,-3.11,2022-10-28 16:30:15.687500
2725,-3.4,2022-10-28 16:30:15.703125
2726,-2.82,2022-10-28 16:30:15.718750
2727,-1.13,2022-10-28 16:30:15.734375
2728,1.65,2022-10-28 16:30:15.750000
2729,5.31,2022-10-28 16:30:15.765625
2730,9.52,2022-10-28 16:30:15.781250
2731,13.88,2022-10-28 16:30:15.796875
2732,17.95,2022-10-28 16:30:15.812500
2733,21.34,2022-10-28 16:30:15.828125
2734,23.74,2022-10-28 16:30:15.843750
2735,25.0,2022-10-28 16:30:15.859375
2736,25.14,2022-10-28 16:30:15.875000
2737,24.3,2022-10-28 16:30:15.890625
2738,22.67,2022-10-28 16:30:15.906250
2739,20.42,2022-10-28 16:30:15.921875
2740,17.71,2022-10-28 16:30:15.937500
2741,14.79,2022-10-28 16:30:15.953125
2742,11.95,2022-10-28 16:30:15.968750
2743,9.57,2022-10-28 16:30:15.984375
2744,7.91,2022-10-28 16:30:16.000000
2745,7.01,2022-10-28 16:30:16.015625
2746,6.55,2022-10-28 16:30:16.031250
2747,5.93,2022-10-28 16:30:16.046875
2748,4.53,2022-10-28 16:30:16.062500
2749,1.96,2022-10-28 16:30:16.078125
2750,-1.67,2022-10-28 16:30:16.093750
2751,-5.73,2022-10-28 16:30:16.109375
2752,-9.31,2022-10-28 16:30:16.125000
2753,-11.63,2022-10-28 16:30:16.140625
2754,-12.4,2022-10-28 16:30:16.156250
2755,-11.92,2022-10-28 16:30:16.171875
2756,-10.94,2022-10-28 16:30:16.187500
2757,-10.22,2022-10-28 16:30:16.203125
2758,-10.11,2022-10-28 16:30:16.218750
2759,-10.37,2022-10-28 16:30:16.234375
2760,-10.2,2022-10-28 16:30:16.250000
2761,-8.67,2022-10-28 16:30:16.265625
2762,-5.15,2022-10-28 16:30:16.281250
2763,0.31,2022-10-28 16:30:16.296875
2764,6.98,2022-10-28 16:30:16.312500
2765,13.6,2022-10-28 16:30:16.328125
2766,18.8,2022-10-28 16:30:16.343750
2767,21.49,2022-10-28 16:30:16.359375
2768,21.15,2022-10-28 16:30:16.375000
2769,17.96,2022-10-28 16:30:16.390625
2770,12.8,2022-10-28 16:30:16.406250
2771,7.02,2022-10-28 16:30:16.421875
2772,2.21,2022-10-28 16:30:16.437500
2773,-0.21,2022-10-28 16:30:16.453125
2774,0.64,2022-10-28 16:30:16.468750
2775,4.87,2022-10-28 16:30:16.484375
2776,11.77,2022-10-28 16:30:16.500000
2777,19.99,2022-10-28 16:30:16.515625
2778,27.93,2022-10-28 16:30:16.531250
2779,34.17,2022-10-28 16:30:16.546875
2780,37.7,2022-10-28 16:30:16.562500
2781,38.1,2022-10-28 16:30:16.578125
2782,35.49,2022-10-28 16:30:16.593750
2783,30.43,2022-10-28 16:30:16.609375
2784,23.69,2022-10-28 16:30:16.625000
2785,16.11,2022-10-28 16:30:16.640625
2786,8.42,2022-10-28 16:30:16.656250
2787,1.21,2022-10-28 16:30:16.671875
2788,-5.05,2022-10-28 16:30:16.687500
2789,-9.84,2022-10-28 16:30:16.703125
2790,-12.64,2022-10-28 16:30:16.718750
2791,-13.03,2022-10-28 16:30:16.734375
2792,-10.99,2022-10-28 16:30:16.750000
2793,-7.19,2022-10-28 16:30:16.765625
2794,-3.0,2022-10-28 16:30:16.781250
2795,-0.13,2022-10-28 16:30:16.796875
2796,0.01,2022-10-28 16:30:16.812500
2797,-3.15,2022-10-28 16:30:16.828125
2798,-9.0,2022-10-28 16:30:16.843750
2799,-16.18,2022-10-28 16:30:16.859375
2800,-23.12,2022-10-28 16:30:16.875000
2801,-28.81,2022-10-28 16:30:16.890625
2802,-32.99,2022-10-28 16:30:16.906250
2803,-35.98,2022-10-28 16:30:16.921875
2804,-38.24,2022-10-28 16:30:16.937500
2805,-39.84,2022-10-28 16:30:16.953125
2806,-40.48,2022-10-28 16:30:16.968750
2807,-39.76,2022-10-28 16:30:16.984375
2808,-37.59,2022-10-28 16:30:17.000000
2809,-34.51,2022-10-28 16:30:17.015625
2810,-31.52,2022-10-28 16:30:17.031250
2811,-29.65,2022-10-28 16:30:17.046875
2812,-29.35,2022-10-28 16:30:17.062500
2813,-30.12,2022-10-28 16:30:17.078125
2814,-30.69,2022-10-28 16:30:17.093750
2815,-29.49,2022-10-28 16:30:17.109375
2816,-25.43,2022-10-28 16:30:17.125000
2817,-18.38,2022-10-28 16:30:17.140625
2818,-9.22,2022-10-28 16:30:17.156250
2819,0.37,2022-10-28 16:30:17.171875
2820,8.54,2022-10-28 16:30:17.187500
2821,13.62,2022-10-28 16:30:17.203125
2822,14.52,2022-10-28 16:30:17.218750
2823,10.7,2022-10-28 16:30:17.234375
2824,2.24,2022-10-28 16:30:17.250000
2825,-10.17,2022-10-28 16:30:17.265625
2826,-25.18,2022-10-28 16:30:17.281250
2827,-40.8,2022-10-28 16:30:17.296875
2828,-54.62,2022-10-28 16:30:17.312500
2829,-64.15,2022-10-28 16:30:17.328125
2830,-67.41,2022-10-28 16:30:17.343750
2831,-63.44,2022-10-28 16:30:17.359375
2832,-52.62,2022-10-28 16:30:17.375000
2833,-36.62,2022-10-28 16:30:17.390625
2834,-18.02,2022-10-28 16:30:17.406250
2835,0.25,2022-10-28 16:30:17.421875
2836,15.63,2022-10-28 16:30:17.437500
2837,26.28,2022-10-28 16:30:17.453125
2838,31.36,2022-10-28 16:30:17.468750
2839,31.03,2022-10-28 16:30:17.484375
2840,26.36,2022-10-28 16:30:17.500000
2841,19.33,2022-10-28 16:30:17.515625
2842,12.62,2022-10-28 16:30:17.531250
2843,9.12,2022-10-28 16:30:17.546875
2844,11.27,2022-10-28 16:30:17.562500
2845,20.21,2022-10-28 16:30:17.578125
2846,35.17,2022-10-28 16:30:17.593750
2847,53.55,2022-10-28 16:30:17.609375
2848,71.52,2022-10-28 16:30:17.625000
2849,85.21,2022-10-28 16:30:17.640625
2850,91.85,2022-10-28 16:30:17.656250
2851,90.62,2022-10-28 16:30:17.671875
2852,82.72,2022-10-28 16:30:17.687500
2853,70.91,2022-10-28 16:30:17.703125
2854,58.6,2022-10-28 16:30:17.718750
2855,48.68,2022-10-28 16:30:17.734375
2856,42.64,2022-10-28 16:30:17.750000
2857,40.07,2022-10-28 16:30:17.765625
2858,39.08,2022-10-28 16:30:17.781250
2859,37.3,2022-10-28 16:30:17.796875
2860,33.13,2022-10-28 16:30:17.812500
2861,26.78,2022-10-28 16:30:17.828125
2862,20.11,2022-10-28 16:30:17.843750
2863,15.68,2022-10-28 16:30:17.859375
2864,15.1,2022-10-28 16:30:17.875000
2865,17.93,2022-10-28 16:30:17.890625
2866,21.64,2022-10-28 16:30:17.906250
2867,22.79,2022-10-28 16:30:17.921875
2868,18.81,2022-10-28 16:30:17.937500
2869,9.32,2022-10-28 16:30:17.953125
2870,-3.72,2022-10-28 16:30:17.968750
2871,-17.06,2022-10-28 16:30:17.984375
2872,-27.85,2022-10-28 16:30:18.000000
2873,-34.87,2022-10-28 16:30:18.015625
2874,-38.76,2022-10-28 16:30:18.031250
2875,-41.29,2022-10-28 16:30:18.046875
2876,-44.14,2022-10-28 16:30:18.062500
2877,-47.95,2022-10-28 16:30:18.078125
2878,-52.18,2022-10-28 16:30:18.093750
2879,-55.49,2022-10-28 16:30:18.109375
2880,-56.6,2022-10-28 16:30:18.125000
2881,-54.93,2022-10-28 16:30:18.140625
2882,-50.72,2022-10-28 16:30:18.156250
2883,-44.82,2022-10-28 16:30:18.171875
2884,-38.2,2022-10-28 16:30:18.187500
2885,-31.57,2022-10-28 16:30:18.203125
2886,-25.19,2022-10-28 16:30:18.218750
2887,-19.0,2022-10-28 16:30:18.234375
2888,-12.8,2022-10-28 16:30:18.250000
2889,-6.51,2022-10-28 16:30:18.265625
2890,-0.25,2022-10-28 16:30:18.281250
2891,5.67,2022-10-28 16:30:18.296875
2892,10.95,2022-10-28 16:30:18.312500
2893,15.39,2022-10-28 16:30:18.328125
2894,19.0,2022-10-28 16:30:18.343750
2895,21.94,2022-10-28 16:30:18.359375
2896,24.41,2022-10-28 16:30:18.375000
2897,26.39,2022-10-28 16:30:18.390625
2898,27.44,2022-10-28 16:30:18.406250
2899,26.65,2022-10-28 16:30:18.421875
2900,22.81,2022-10-28 16:30:18.437500
2901,14.96,2022-10-28 16:30:18.453125
2902,3.06,2022-10-28 16:30:18.468750
2903,-11.6,2022-10-28 16:30:18.484375
2904,-26.57,2022-10-28 16:30:18.500000
2905,-39.06,2022-10-28 16:30:18.515625
2906,-47.0,2022-10-28 16:30:18.531250
2907,-49.86,2022-10-28 16:30:18.546875
2908,-48.51,2022-10-28 16:30:18.562500
2909,-44.54,2022-10-28 16:30:18.578125
2910,-39.25,2022-10-28 16:30:18.593750
2911,-33.08,2022-10-28 16:30:18.609375
2912,-25.76,2022-10-28 16:30:18.625000
2913,-17.04,2022-10-28 16:30:18.640625
2914,-7.36,2022-10-28 16:30:18.656250
2915,2.05,2022-10-28 16:30:18.671875
2916,9.67,2022-10-28 16:30:18.687500
2917,14.43,2022-10-28 16:30:18.703125
2918,16.2,2022-10-28 16:30:18.718750
2919,15.67,2022-10-28 16:30:18.734375
2920,13.82,2022-10-28 16:30:18.750000
2921,11.31,2022-10-28 16:30:18.765625
2922,8.19,2022-10-28 16:30:18.781250
2923,4.1,2022-10-28 16:30:18.796875
2924,-1.29,2022-10-28 16:30:18.812500
2925,-7.95,2022-10-28 16:30:18.828125
2926,-15.27,2022-10-28 16:30:18.843750
2927,-22.21,2022-10-28 16:30:18.859375
2928,-27.69,2022-10-28 16:30:18.875000
2929,-30.9,2022-10-28 16:30:18.890625
2930,-31.6,2022-10-28 16:30:18.906250
2931,-30.19,2022-10-28 16:30:18.921875
2932,-27.55,2022-10-28 16:30:18.937500
2933,-24.67,2022-10-28 16:30:18.953125
2934,-22.25,2022-10-28 16:30:18.968750
2935,-20.45,2022-10-28 16:30:18.984375
2936,-18.85,2022-10-28 16:30:19.000000
2937,-16.85,2022-10-28 16:30:19.015625
2938,-13.96,2022-10-28 16:30:19.031250
2939,-10.18,2022-10-28 16:30:19.046875
2940,-5.94,2022-10-28 16:30:19.062500
2941,-1.86,2022-10-28 16:30:19.078125
2942,1.69,2022-10-28 16:30:19.093750
2943,4.76,2022-10-28 16:30:19.109375
2944,7.76,2022-10-28 16:30:19.125000
2945,11.23,2022-10-28 16:30:19.140625
2946,15.32,2022-10-28 16:30:19.156250
2947,19.77,2022-10-28 16:30:19.171875
2948,24.02,2022-10-28 16:30:19.187500
2949,27.52,2022-10-28 16:30:19.203125
2950,30.05,2022-10-28 16:30:19.218750
2951,31.71,2022-10-28 16:30:19.234375
2952,32.72,2022-10-28 16:30:19.250000
2953,33.08,2022-10-28 16:30:19.265625
2954,32.38,2022-10-28 16:30:19.281250
2955,29.99,2022-10-28 16:30:19.296875
2956,25.51,2022-10-28 16:30:19.312500
2957,19.17,2022-10-28 16:30:19.328125
2958,12.03,2022-10-28 16:30:19.343750
2959,5.68,2022-10-28 16:30:19.359375
2960,1.7,2022-10-28 16:30:19.375000
2961,1.07,2022-10-28 16:30:19.390625
2962,3.81,2022-10-28 16:30:19.406250
2963,9.15,2022-10-28 16:30:19.421875
2964,15.89,2022-10-28 16:30:19.437500
2965,22.95,2022-10-28 16:30:19.453125
2966,29.66,2022-10-28 16:30:19.468750
2967,35.91,2022-10-28 16:30:19.484375
2968,41.86,2022-10-28 16:30:19.500000
2969,47.49,2022-10-28 16:30:19.515625
2970,52.23,2022-10-28 16:30:19.531250
2971,54.85,2022-10-28 16:30:19.546875
2972,54.01,2022-10-28 16:30:19.562500
2973,48.96,2022-10-28 16:30:19.578125
2974,40.19,2022-10-28 16:30:19.593750
2975,29.52,2022-10-28 16:30:19.609375
2976,19.34,2022-10-28 16:30:19.625000
2977,11.58,2022-10-28 16:30:19.640625
2978,6.63,2022-10-28 16:30:19.656250
2979,3.23,2022-10-28 16:30:19.671875
2980,-0.83,2022-10-28 16:30:19.687500
2981,-7.49,2022-10-28 16:30:19.703125
2982,-17.44,2022-10-28 16:30:19.718750
2983,-29.86,2022-10-28 16:30:19.734375
2984,-43.02,2022-10-28 16:30:19.750000
2985,-55.24,2022-10-28 16:30:19.765625
2986,-65.64,2022-10-28 16:30:19.781250
2987,-74.16,2022-10-28 16:30:19.796875
2988,-81.11,2022-10-28 16:30:19.812500
2989,-86.38,2022-10-28 16:30:19.828125
2990,-89.07,2022-10-28 16:30:19.843750
2991,-87.55,2022-10-28 16:30:19.859375
2992,-80.2,2022-10-28 16:30:19.875000
2993,-66.24,2022-10-28 16:30:19.890625
2994,-46.51,2022-10-28 16:30:19.906250
2995,-23.59,2022-10-28 16:30:19.921875
2996,-1.25,2022-10-28 16:30:19.937500
2997,16.69,2022-10-28 16:30:19.953125
2998,27.66,2022-10-28 16:30:19.968750
2999,31.21,2022-10-28 16:30:19.984375
3000,29.01,2022-10-28 16:30:20.000000
3001,24.15,2022-10-28 16:30:20.015625
3002,19.8,2022-10-28 16:30:20.031250
3003,18.16,2022-10-28 16:30:20.046875
3004,20.07,2022-10-28 16:30:20.062500
3005,25.25,2022-10-28 16:30:20.078125
3006,32.69,2022-10-28 16:30:20.093750
3007,41.05,2022-10-28 16:30:20.109375
3008,48.55,2022-10-28 16:30:20.125000
3009,53.02,2022-10-28 16:30:20.140625
3010,52.25,2022-10-28 16:30:20.156250
3011,44.77,2022-10-28 16:30:20.171875
3012,30.95,2022-10-28 16:30:20.187500
3013,13.76,2022-10-28 16:30:20.203125
3014,-1.67,2022-10-28 16:30:20.218750
3015,-10.06,2022-10-28 16:30:20.234375
3016,-8.74,2022-10-28 16:30:20.250000
3017,0.08,2022-10-28 16:30:20.265625
3018,9.1,2022-10-28 16:30:20.281250
3019,8.72,2022-10-28 16:30:20.296875
3020,-8.4,2022-10-28 16:30:20.312500
3021,-43.27,2022-10-28 16:30:20.328125
3022,-88.92,2022-10-28 16:30:20.343750
3023,-132.45,2022-10-28 16:30:20.359375
3024,-160.1,2022-10-28 16:30:20.375000
3025,-162.64,2022-10-28 16:30:20.390625
3026,-138.85,2022-10-28 16:30:20.406250
3027,-95.21,2022-10-28 16:30:20.421875
3028,-42.55,2022-10-28 16:30:20.437500
3029,8.17,2022-10-28 16:30:20.453125
3030,49.08,2022-10-28 16:30:20.468750
3031,76.47,2022-10-28 16:30:20.484375
3032,89.63,2022-10-28 16:30:20.500000
3033,89.21,2022-10-28 16:30:20.515625
3034,76.24,2022-10-28 16:30:20.531250
3035,52.37,2022-10-28 16:30:20.546875
3036,20.51,2022-10-28 16:30:20.562500
3037,-14.24,2022-10-28 16:30:20.578125
3038,-45.66,2022-10-28 16:30:20.593750
3039,-68.15,2022-10-28 16:30:20.609375
3040,-78.35,2022-10-28 16:30:20.625000
3041,-75.84,2022-10-28 16:30:20.640625
3042,-62.75,2022-10-28 16:30:20.656250
3043,-42.65,2022-10-28 16:30:20.671875
3044,-19.65,2022-10-28 16:30:20.687500
3045,1.97,2022-10-28 16:30:20.703125
3046,18.42,2022-10-28 16:30:20.718750
3047,26.24,2022-10-28 16:30:20.734375
3048,23.09,2022-10-28 16:30:20.750000
3049,9.44,2022-10-28 16:30:20.765625
3050,-10.37,2022-10-28 16:30:20.781250
3051,-28.61,2022-10-28 16:30:20.796875
3052,-36.39,2022-10-28 16:30:20.812500
3053,-27.1,2022-10-28 16:30:20.828125
3054,1.03,2022-10-28 16:30:20.843750
3055,45.44,2022-10-28 16:30:20.859375
3056,100.22,2022-10-28 16:30:20.875000
3057,158.51,2022-10-28 16:30:20.890625
3058,214.39,2022-10-28 16:30:20.906250
3059,263.49,2022-10-28 16:30:20.921875
3060,302.51,2022-10-28 16:30:20.937500
3061,328.84,2022-10-28 16:30:20.953125
3062,340.8,2022-10-28 16:30:20.968750
3063,333.13,2022-10-28 16:30:20.984375
3064,304.58,2022-10-28 16:30:21.000000
3065,258.15,2022-10-28 16:30:21.015625
3066,200.54,2022-10-28 16:30:21.031250
3067,140.06,2022-10-28 16:30:21.046875
3068,83.71,2022-10-28 16:30:21.062500
3069,35.2,2022-10-28 16:30:21.078125
3070,-4.88,2022-10-28 16:30:21.093750
3071,-37.84,2022-10-28 16:30:21.109375
3072,-65.46,2022-10-28 16:30:21.125000
3073,-88.21,2022-10-28 16:30:21.140625
3074,-106.05,2022-10-28 16:30:21.156250
3075,-118.76,2022-10-28 16:30:21.171875
3076,-126.24,2022-10-28 16:30:21.187500
3077,-128.83,2022-10-28 16:30:21.203125
3078,-127.53,2022-10-28 16:30:21.218750
3079,-123.56,2022-10-28 16:30:21.234375
3080,-118.35,2022-10-28 16:30:21.250000
3081,-113.31,2022-10-28 16:30:21.265625
3082,-108.8,2022-10-28 16:30:21.281250
3083,-104.72,2022-10-28 16:30:21.296875
3084,-100.66,2022-10-28 16:30:21.312500
3085,-96.15,2022-10-28 16:30:21.328125
3086,-91.0,2022-10-28 16:30:21.343750
3087,-85.3,2022-10-28 16:30:21.359375
3088,-79.37,2022-10-28 16:30:21.375000
3089,-73.66,2022-10-28 16:30:21.390625
3090,-68.62,2022-10-28 16:30:21.406250
3091,-64.17,2022-10-28 16:30:21.421875
3092,-60.1,2022-10-28 16:30:21.437500
3093,-56.15,2022-10-28 16:30:21.453125
3094,-52.12,2022-10-28 16:30:21.468750
3095,-47.99,2022-10-28 16:30:21.484375
3096,-43.86,2022-10-28 16:30:21.500000
3097,-39.86,2022-10-28 16:30:21.515625
3098,-36.14,2022-10-28 16:30:21.531250
3099,-32.81,2022-10-28 16:30:21.546875
3100,-29.76,2022-10-28 16:30:21.562500
3101,-26.87,2022-10-28 16:30:21.578125
3102,-24.04,2022-10-28 16:30:21.593750
3103,-21.26,2022-10-28 16:30:21.609375
3104,-18.58,2022-10-28 16:30:21.625000
3105,-16.08,2022-10-28 16:30:21.640625
3106,-13.83,2022-10-28 16:30:21.656250
3107,-11.81,2022-10-28 16:30:21.671875
3108,-9.99,2022-10-28 16:30:21.687500
3109,-8.23,2022-10-28 16:30:21.703125
3110,-6.41,2022-10-28 16:30:21.718750
3111,-4.5,2022-10-28 16:30:21.734375
3112,-2.55,2022-10-28 16:30:21.750000
3113,-0.68,2022-10-28 16:30:21.765625
3114,0.96,2022-10-28 16:30:21.781250
3115,2.24,2022-10-28 16:30:21.796875
3116,3.19,2022-10-28 16:30:21.812500
3117,3.93,2022-10-28 16:30:21.828125
3118,4.69,2022-10-28 16:30:21.843750
3119,5.65,2022-10-28 16:30:21.859375
3120,6.89,2022-10-28 16:30:21.875000
3121,8.31,2022-10-28 16:30:21.890625
3122,9.68,2022-10-28 16:30:21.906250
3123,10.68,2022-10-28 16:30:21.921875
3124,11.15,2022-10-28 16:30:21.937500
3125,11.1,2022-10-28 16:30:21.953125
3126,10.85,2022-10-28 16:30:21.968750
3127,10.82,2022-10-28 16:30:21.984375
3128,11.44,2022-10-28 16:30:22.000000
3129,12.87,2022-10-28 16:30:22.015625
3130,14.92,2022-10-28 16:30:22.031250
3131,17.05,2022-10-28 16:30:22.046875
3132,18.56,2022-10-28 16:30:22.062500
3133,18.91,2022-10-28 16:30:22.078125
3134,17.93,2022-10-28 16:30:22.093750
3135,15.91,2022-10-28 16:30:22.109375
3136,13.51,2022-10-28 16:30:22.125000
3137,11.41,2022-10-28 16:30:22.140625
3138,9.97,2022-10-28 16:30:22.156250
3139,9.07,2022-10-28 16:30:22.171875
3140,8.02,2022-10-28 16:30:22.187500
3141,5.84,2022-10-28 16:30:22.203125
3142,1.72,2022-10-28 16:30:22.218750
3143,-4.73,2022-10-28 16:30:22.234375
3144,-13.18,2022-10-28 16:30:22.250000
3145,-22.56,2022-10-28 16:30:22.265625
3146,-31.04,2022-10-28 16:30:22.281250
3147,-36.61,2022-10-28 16:30:22.296875
3148,-37.7,2022-10-28 16:30:22.312500
3149,-34.01,2022-10-28 16:30:22.328125
3150,-27.11,2022-10-28 16:30:22.343750
3151,-20.09,2022-10-28 16:30:22.359375
3152,-16.54,2022-10-28 16:30:22.375000
3153,-18.72,2022-10-28 16:30:22.390625
3154,-26.27,2022-10-28 16:30:22.406250
