,BVP,time
0,52.2,2022-08-17 14:11:03.281250
1,51.76,2022-08-17 14:11:03.296875
2,51.47,2022-08-17 14:11:03.312500
3,51.24,2022-08-17 14:11:03.328125
4,50.9,2022-08-17 14:11:03.343750
5,50.19,2022-08-17 14:11:03.359375
6,48.88,2022-08-17 14:11:03.375000
7,46.92,2022-08-17 14:11:03.390625
8,44.36,2022-08-17 14:11:03.406250
9,41.46,2022-08-17 14:11:03.421875
10,38.57,2022-08-17 14:11:03.437500
11,36.0,2022-08-17 14:11:03.453125
12,33.87,2022-08-17 14:11:03.468750
13,32.02,2022-08-17 14:11:03.484375
14,30.0,2022-08-17 14:11:03.500000
15,27.28,2022-08-17 14:11:03.515625
16,23.41,2022-08-17 14:11:03.531250
17,18.11,2022-08-17 14:11:03.546875
18,11.33,2022-08-17 14:11:03.562500
19,3.23,2022-08-17 14:11:03.578125
20,-5.76,2022-08-17 14:11:03.593750
21,-15.06,2022-08-17 14:11:03.609375
22,-23.94,2022-08-17 14:11:03.625000
23,-31.72,2022-08-17 14:11:03.640625
24,-37.85,2022-08-17 14:11:03.656250
25,-42.21,2022-08-17 14:11:03.671875
26,-45.27,2022-08-17 14:11:03.687500
27,-47.81,2022-08-17 14:11:03.703125
28,-50.57,2022-08-17 14:11:03.718750
29,-53.99,2022-08-17 14:11:03.734375
30,-58.16,2022-08-17 14:11:03.750000
31,-63.03,2022-08-17 14:11:03.765625
32,-68.53,2022-08-17 14:11:03.781250
33,-74.71,2022-08-17 14:11:03.796875
34,-81.47,2022-08-17 14:11:03.812500
35,-88.91,2022-08-17 14:11:03.828125
36,-96.64,2022-08-17 14:11:03.843750
37,-103.77,2022-08-17 14:11:03.859375
38,-109.11,2022-08-17 14:11:03.875000
39,-111.84,2022-08-17 14:11:03.890625
40,-111.97,2022-08-17 14:11:03.906250
41,-110.34,2022-08-17 14:11:03.921875
42,-108.08,2022-08-17 14:11:03.937500
43,-105.88,2022-08-17 14:11:03.953125
44,-104.38,2022-08-17 14:11:03.968750
45,-103.25,2022-08-17 14:11:03.984375
46,-101.23,2022-08-17 14:11:04.000000
47,-96.63,2022-08-17 14:11:04.015625
48,-88.29,2022-08-17 14:11:04.031250
49,-76.42,2022-08-17 14:11:04.046875
50,-62.66,2022-08-17 14:11:04.062500
51,-49.5,2022-08-17 14:11:04.078125
52,-39.25,2022-08-17 14:11:04.093750
53,-34.74,2022-08-17 14:11:04.109375
54,-37.39,2022-08-17 14:11:04.125000
55,-46.34,2022-08-17 14:11:04.140625
56,-58.71,2022-08-17 14:11:04.156250
57,-70.72,2022-08-17 14:11:04.171875
58,-79.21,2022-08-17 14:11:04.187500
59,-82.6,2022-08-17 14:11:04.203125
60,-81.07,2022-08-17 14:11:04.218750
61,-76.07,2022-08-17 14:11:04.234375
62,-71.93,2022-08-17 14:11:04.250000
63,-73.19,2022-08-17 14:11:04.265625
64,-82.78,2022-08-17 14:11:04.281250
65,-100.98,2022-08-17 14:11:04.296875
66,-125.5,2022-08-17 14:11:04.312500
67,-152.62,2022-08-17 14:11:04.328125
68,-178.46,2022-08-17 14:11:04.343750
69,-199.93,2022-08-17 14:11:04.359375
70,-203.09,2022-08-17 14:11:04.375000
71,-179.61,2022-08-17 14:11:04.390625
72,-129.31,2022-08-17 14:11:04.406250
73,-61.15,2022-08-17 14:11:04.421875
74,11.25,2022-08-17 14:11:04.437500
75,76.6,2022-08-17 14:11:04.453125
76,129.4,2022-08-17 14:11:04.468750
77,168.73,2022-08-17 14:11:04.484375
78,195.55,2022-08-17 14:11:04.500000
79,209.81,2022-08-17 14:11:04.515625
80,210.97,2022-08-17 14:11:04.531250
81,198.15,2022-08-17 14:11:04.546875
82,172.25,2022-08-17 14:11:04.562500
83,137.23,2022-08-17 14:11:04.578125
84,99.62,2022-08-17 14:11:04.593750
85,66.59,2022-08-17 14:11:04.609375
86,43.69,2022-08-17 14:11:04.625000
87,33.49,2022-08-17 14:11:04.640625
88,39.04,2022-08-17 14:11:04.656250
89,56.58,2022-08-17 14:11:04.671875
90,78.02,2022-08-17 14:11:04.687500
91,94.69,2022-08-17 14:11:04.703125
92,101.41,2022-08-17 14:11:04.718750
93,98.29,2022-08-17 14:11:04.734375
94,89.52,2022-08-17 14:11:04.750000
95,80.98,2022-08-17 14:11:04.765625
96,76.5,2022-08-17 14:11:04.781250
97,77.76,2022-08-17 14:11:04.796875
98,83.78,2022-08-17 14:11:04.812500
99,93.22,2022-08-17 14:11:04.828125
100,105.54,2022-08-17 14:11:04.843750
101,121.04,2022-08-17 14:11:04.859375
102,138.38,2022-08-17 14:11:04.875000
103,155.21,2022-08-17 14:11:04.890625
104,168.36,2022-08-17 14:11:04.906250
105,175.2,2022-08-17 14:11:04.921875
106,175.11,2022-08-17 14:11:04.937500
107,169.01,2022-08-17 14:11:04.953125
108,159.46,2022-08-17 14:11:04.968750
109,149.64,2022-08-17 14:11:04.984375
110,142.12,2022-08-17 14:11:05.000000
111,137.78,2022-08-17 14:11:05.015625
112,135.67,2022-08-17 14:11:05.031250
113,133.36,2022-08-17 14:11:05.046875
114,127.77,2022-08-17 14:11:05.062500
115,116.46,2022-08-17 14:11:05.078125
116,97.95,2022-08-17 14:11:05.093750
117,72.59,2022-08-17 14:11:05.109375
118,42.61,2022-08-17 14:11:05.125000
119,11.3,2022-08-17 14:11:05.140625
120,-18.4,2022-08-17 14:11:05.156250
121,-44.93,2022-08-17 14:11:05.171875
122,-68.53,2022-08-17 14:11:05.187500
123,-90.5,2022-08-17 14:11:05.203125
124,-111.82,2022-08-17 14:11:05.218750
125,-132.4,2022-08-17 14:11:05.234375
126,-151.11,2022-08-17 14:11:05.250000
127,-166.6,2022-08-17 14:11:05.265625
128,-178.08,2022-08-17 14:11:05.281250
129,-185.35,2022-08-17 14:11:05.296875
130,-187.83,2022-08-17 14:11:05.312500
131,-184.02,2022-08-17 14:11:05.328125
132,-171.64,2022-08-17 14:11:05.343750
133,-149.17,2022-08-17 14:11:05.359375
134,-117.62,2022-08-17 14:11:05.375000
135,-81.38,2022-08-17 14:11:05.390625
136,-47.12,2022-08-17 14:11:05.406250
137,-21.13,2022-08-17 14:11:05.421875
138,-6.91,2022-08-17 14:11:05.437500
139,-3.93,2022-08-17 14:11:05.453125
140,-8.66,2022-08-17 14:11:05.468750
141,-16.76,2022-08-17 14:11:05.484375
142,-25.2,2022-08-17 14:11:05.500000
143,-32.87,2022-08-17 14:11:05.515625
144,-40.0,2022-08-17 14:11:05.531250
145,-46.86,2022-08-17 14:11:05.546875
146,-53.03,2022-08-17 14:11:05.562500
147,-57.46,2022-08-17 14:11:05.578125
148,-59.26,2022-08-17 14:11:05.593750
149,-58.23,2022-08-17 14:11:05.609375
150,-54.88,2022-08-17 14:11:05.625000
151,-49.93,2022-08-17 14:11:05.640625
152,-43.63,2022-08-17 14:11:05.656250
153,-35.59,2022-08-17 14:11:05.671875
154,-25.12,2022-08-17 14:11:05.687500
155,-11.76,2022-08-17 14:11:05.703125
156,4.09,2022-08-17 14:11:05.718750
157,21.22,2022-08-17 14:11:05.734375
158,38.02,2022-08-17 14:11:05.750000
159,53.04,2022-08-17 14:11:05.765625
160,65.43,2022-08-17 14:11:05.781250
161,74.99,2022-08-17 14:11:05.796875
162,81.92,2022-08-17 14:11:05.812500
163,86.52,2022-08-17 14:11:05.828125
164,89.09,2022-08-17 14:11:05.843750
165,89.88,2022-08-17 14:11:05.859375
166,89.28,2022-08-17 14:11:05.875000
167,87.84,2022-08-17 14:11:05.890625
168,86.2,2022-08-17 14:11:05.906250
169,84.9,2022-08-17 14:11:05.921875
170,84.15,2022-08-17 14:11:05.937500
171,83.83,2022-08-17 14:11:05.953125
172,83.52,2022-08-17 14:11:05.968750
173,82.75,2022-08-17 14:11:05.984375
174,81.26,2022-08-17 14:11:06.000000
175,79.2,2022-08-17 14:11:06.015625
176,77.1,2022-08-17 14:11:06.031250
177,75.6,2022-08-17 14:11:06.046875
178,75.18,2022-08-17 14:11:06.062500
179,75.88,2022-08-17 14:11:06.078125
180,77.21,2022-08-17 14:11:06.093750
181,78.39,2022-08-17 14:11:06.109375
182,78.6,2022-08-17 14:11:06.125000
183,77.18,2022-08-17 14:11:06.140625
184,73.7,2022-08-17 14:11:06.156250
185,67.87,2022-08-17 14:11:06.171875
186,59.69,2022-08-17 14:11:06.187500
187,49.73,2022-08-17 14:11:06.203125
188,39.32,2022-08-17 14:11:06.218750
189,30.41,2022-08-17 14:11:06.234375
190,24.81,2022-08-17 14:11:06.250000
191,23.16,2022-08-17 14:11:06.265625
192,24.29,2022-08-17 14:11:06.281250
193,25.44,2022-08-17 14:11:06.296875
194,23.4,2022-08-17 14:11:06.312500
195,16.05,2022-08-17 14:11:06.328125
196,3.26,2022-08-17 14:11:06.343750
197,-13.19,2022-08-17 14:11:06.359375
198,-30.69,2022-08-17 14:11:06.375000
199,-47.13,2022-08-17 14:11:06.390625
200,-61.63,2022-08-17 14:11:06.406250
201,-74.37,2022-08-17 14:11:06.421875
202,-85.74,2022-08-17 14:11:06.437500
203,-95.47,2022-08-17 14:11:06.453125
204,-102.4,2022-08-17 14:11:06.468750
205,-104.95,2022-08-17 14:11:06.484375
206,-101.99,2022-08-17 14:11:06.500000
207,-93.45,2022-08-17 14:11:06.515625
208,-80.4,2022-08-17 14:11:06.531250
209,-64.66,2022-08-17 14:11:06.546875
210,-48.14,2022-08-17 14:11:06.562500
211,-32.26,2022-08-17 14:11:06.578125
212,-17.71,2022-08-17 14:11:06.593750
213,-4.63,2022-08-17 14:11:06.609375
214,7.17,2022-08-17 14:11:06.625000
215,17.8,2022-08-17 14:11:06.640625
216,27.09,2022-08-17 14:11:06.656250
217,34.7,2022-08-17 14:11:06.671875
218,40.25,2022-08-17 14:11:06.687500
219,43.56,2022-08-17 14:11:06.703125
220,44.81,2022-08-17 14:11:06.718750
221,44.43,2022-08-17 14:11:06.734375
222,42.94,2022-08-17 14:11:06.750000
223,40.8,2022-08-17 14:11:06.765625
224,38.28,2022-08-17 14:11:06.781250
225,35.51,2022-08-17 14:11:06.796875
226,32.6,2022-08-17 14:11:06.812500
227,29.74,2022-08-17 14:11:06.828125
228,27.32,2022-08-17 14:11:06.843750
229,25.81,2022-08-17 14:11:06.859375
230,25.58,2022-08-17 14:11:06.875000
231,26.64,2022-08-17 14:11:06.890625
232,28.55,2022-08-17 14:11:06.906250
233,30.43,2022-08-17 14:11:06.921875
234,31.3,2022-08-17 14:11:06.937500
235,30.39,2022-08-17 14:11:06.953125
236,27.46,2022-08-17 14:11:06.968750
237,22.83,2022-08-17 14:11:06.984375
238,17.2,2022-08-17 14:11:07.000000
239,11.31,2022-08-17 14:11:07.015625
240,5.58,2022-08-17 14:11:07.031250
241,-0.1,2022-08-17 14:11:07.046875
242,-6.33,2022-08-17 14:11:07.062500
243,-13.85,2022-08-17 14:11:07.078125
244,-23.14,2022-08-17 14:11:07.093750
245,-34.07,2022-08-17 14:11:07.109375
246,-45.73,2022-08-17 14:11:07.125000
247,-56.73,2022-08-17 14:11:07.140625
248,-65.66,2022-08-17 14:11:07.156250
249,-71.76,2022-08-17 14:11:07.171875
250,-75.37,2022-08-17 14:11:07.187500
251,-77.98,2022-08-17 14:11:07.203125
252,-81.81,2022-08-17 14:11:07.218750
253,-88.89,2022-08-17 14:11:07.234375
254,-100.18,2022-08-17 14:11:07.250000
255,-114.85,2022-08-17 14:11:07.265625
256,-130.21,2022-08-17 14:11:07.281250
257,-142.35,2022-08-17 14:11:07.296875
258,-147.14,2022-08-17 14:11:07.312500
259,-141.52,2022-08-17 14:11:07.328125
260,-124.56,2022-08-17 14:11:07.343750
261,-97.75,2022-08-17 14:11:07.359375
262,-64.72,2022-08-17 14:11:07.375000
263,-30.29,2022-08-17 14:11:07.390625
264,0.86,2022-08-17 14:11:07.406250
265,25.3,2022-08-17 14:11:07.421875
266,41.74,2022-08-17 14:11:07.437500
267,51.35,2022-08-17 14:11:07.453125
268,57.22,2022-08-17 14:11:07.468750
269,63.14,2022-08-17 14:11:07.484375
270,71.93,2022-08-17 14:11:07.500000
271,84.07,2022-08-17 14:11:07.515625
272,97.4,2022-08-17 14:11:07.531250
273,108.06,2022-08-17 14:11:07.546875
274,112.39,2022-08-17 14:11:07.562500
275,108.69,2022-08-17 14:11:07.578125
276,98.1,2022-08-17 14:11:07.593750
277,83.9,2022-08-17 14:11:07.609375
278,69.93,2022-08-17 14:11:07.625000
279,58.95,2022-08-17 14:11:07.640625
280,51.88,2022-08-17 14:11:07.656250
281,48.11,2022-08-17 14:11:07.671875
282,46.58,2022-08-17 14:11:07.687500
283,46.68,2022-08-17 14:11:07.703125
284,48.48,2022-08-17 14:11:07.718750
285,52.15,2022-08-17 14:11:07.734375
286,57.31,2022-08-17 14:11:07.750000
287,62.66,2022-08-17 14:11:07.765625
288,66.33,2022-08-17 14:11:07.781250
289,66.62,2022-08-17 14:11:07.796875
290,62.69,2022-08-17 14:11:07.812500
291,54.94,2022-08-17 14:11:07.828125
292,44.74,2022-08-17 14:11:07.843750
293,33.81,2022-08-17 14:11:07.859375
294,23.6,2022-08-17 14:11:07.875000
295,14.75,2022-08-17 14:11:07.890625
296,7.11,2022-08-17 14:11:07.906250
297,0.03,2022-08-17 14:11:07.921875
298,-7.16,2022-08-17 14:11:07.937500
299,-14.74,2022-08-17 14:11:07.953125
300,-22.49,2022-08-17 14:11:07.968750
301,-29.96,2022-08-17 14:11:07.984375
302,-36.8,2022-08-17 14:11:08.000000
303,-42.98,2022-08-17 14:11:08.015625
304,-48.86,2022-08-17 14:11:08.031250
305,-54.86,2022-08-17 14:11:08.046875
306,-61.11,2022-08-17 14:11:08.062500
307,-67.27,2022-08-17 14:11:08.078125
308,-72.42,2022-08-17 14:11:08.093750
309,-75.32,2022-08-17 14:11:08.109375
310,-74.85,2022-08-17 14:11:08.125000
311,-70.38,2022-08-17 14:11:08.140625
312,-62.12,2022-08-17 14:11:08.156250
313,-51.15,2022-08-17 14:11:08.171875
314,-39.18,2022-08-17 14:11:08.187500
315,-27.96,2022-08-17 14:11:08.203125
316,-18.74,2022-08-17 14:11:08.218750
317,-11.81,2022-08-17 14:11:08.234375
318,-6.6,2022-08-17 14:11:08.250000
319,-2.03,2022-08-17 14:11:08.265625
320,2.88,2022-08-17 14:11:08.281250
321,8.59,2022-08-17 14:11:08.296875
322,15.11,2022-08-17 14:11:08.312500
323,22.24,2022-08-17 14:11:08.328125
324,29.9,2022-08-17 14:11:08.343750
325,38.01,2022-08-17 14:11:08.359375
326,46.46,2022-08-17 14:11:08.375000
327,54.96,2022-08-17 14:11:08.390625
328,63.35,2022-08-17 14:11:08.406250
329,71.93,2022-08-17 14:11:08.421875
330,81.54,2022-08-17 14:11:08.437500
331,93.08,2022-08-17 14:11:08.453125
332,106.61,2022-08-17 14:11:08.468750
333,120.63,2022-08-17 14:11:08.484375
334,131.97,2022-08-17 14:11:08.500000
335,136.8,2022-08-17 14:11:08.515625
336,132.2,2022-08-17 14:11:08.531250
337,117.57,2022-08-17 14:11:08.546875
338,95.2,2022-08-17 14:11:08.562500
339,69.5,2022-08-17 14:11:08.578125
340,45.55,2022-08-17 14:11:08.593750
341,27.4,2022-08-17 14:11:08.609375
342,16.98,2022-08-17 14:11:08.625000
343,13.78,2022-08-17 14:11:08.640625
344,15.42,2022-08-17 14:11:08.656250
345,18.71,2022-08-17 14:11:08.671875
346,20.7,2022-08-17 14:11:08.687500
347,19.69,2022-08-17 14:11:08.703125
348,15.45,2022-08-17 14:11:08.718750
349,9.09,2022-08-17 14:11:08.734375
350,2.25,2022-08-17 14:11:08.750000
351,-3.72,2022-08-17 14:11:08.765625
352,-8.36,2022-08-17 14:11:08.781250
353,-12.24,2022-08-17 14:11:08.796875
354,-16.56,2022-08-17 14:11:08.812500
355,-22.5,2022-08-17 14:11:08.828125
356,-30.6,2022-08-17 14:11:08.843750
357,-40.44,2022-08-17 14:11:08.859375
358,-50.83,2022-08-17 14:11:08.875000
359,-60.44,2022-08-17 14:11:08.890625
360,-68.38,2022-08-17 14:11:08.906250
361,-74.43,2022-08-17 14:11:08.921875
362,-78.71,2022-08-17 14:11:08.937500
363,-80.98,2022-08-17 14:11:08.953125
364,-80.38,2022-08-17 14:11:08.968750
365,-75.68,2022-08-17 14:11:08.984375
366,-66.3,2022-08-17 14:11:09.000000
367,-53.15,2022-08-17 14:11:09.015625
368,-38.45,2022-08-17 14:11:09.031250
369,-24.47,2022-08-17 14:11:09.046875
370,-11.91,2022-08-17 14:11:09.062500
371,0.67,2022-08-17 14:11:09.078125
372,15.6,2022-08-17 14:11:09.093750
373,33.84,2022-08-17 14:11:09.109375
374,53.16,2022-08-17 14:11:09.125000
375,68.34,2022-08-17 14:11:09.140625
376,73.64,2022-08-17 14:11:09.156250
377,66.11,2022-08-17 14:11:09.171875
378,47.63,2022-08-17 14:11:09.187500
379,24.39,2022-08-17 14:11:09.203125
380,4.0,2022-08-17 14:11:09.218750
381,-7.99,2022-08-17 14:11:09.234375
382,-10.07,2022-08-17 14:11:09.250000
383,-4.62,2022-08-17 14:11:09.265625
384,4.17,2022-08-17 14:11:09.281250
385,12.54,2022-08-17 14:11:09.296875
386,18.34,2022-08-17 14:11:09.312500
387,20.99,2022-08-17 14:11:09.328125
388,20.7,2022-08-17 14:11:09.343750
389,17.88,2022-08-17 14:11:09.359375
390,13.05,2022-08-17 14:11:09.375000
391,7.0,2022-08-17 14:11:09.390625
392,0.88,2022-08-17 14:11:09.406250
393,-4.06,2022-08-17 14:11:09.421875
394,-7.0,2022-08-17 14:11:09.437500
395,-7.79,2022-08-17 14:11:09.453125
396,-6.97,2022-08-17 14:11:09.468750
397,-5.39,2022-08-17 14:11:09.484375
398,-3.72,2022-08-17 14:11:09.500000
399,-2.22,2022-08-17 14:11:09.515625
400,-0.84,2022-08-17 14:11:09.531250
401,0.35,2022-08-17 14:11:09.546875
402,0.77,2022-08-17 14:11:09.562500
403,-0.76,2022-08-17 14:11:09.578125
404,-5.49,2022-08-17 14:11:09.593750
405,-14.05,2022-08-17 14:11:09.609375
406,-25.83,2022-08-17 14:11:09.625000
407,-38.79,2022-08-17 14:11:09.640625
408,-49.97,2022-08-17 14:11:09.656250
409,-56.3,2022-08-17 14:11:09.671875
410,-55.63,2022-08-17 14:11:09.687500
411,-47.14,2022-08-17 14:11:09.703125
412,-31.6,2022-08-17 14:11:09.718750
413,-11.18,2022-08-17 14:11:09.734375
414,10.82,2022-08-17 14:11:09.750000
415,30.45,2022-08-17 14:11:09.765625
416,44.01,2022-08-17 14:11:09.781250
417,49.12,2022-08-17 14:11:09.796875
418,45.76,2022-08-17 14:11:09.812500
419,36.5,2022-08-17 14:11:09.828125
420,25.69,2022-08-17 14:11:09.843750
421,17.63,2022-08-17 14:11:09.859375
422,14.5,2022-08-17 14:11:09.875000
423,15.19,2022-08-17 14:11:09.890625
424,15.77,2022-08-17 14:11:09.906250
425,11.62,2022-08-17 14:11:09.921875
426,0.1,2022-08-17 14:11:09.937500
427,-17.42,2022-08-17 14:11:09.953125
428,-35.9,2022-08-17 14:11:09.968750
429,-48.8,2022-08-17 14:11:09.984375
430,-51.44,2022-08-17 14:11:10.000000
431,-43.41,2022-08-17 14:11:10.015625
432,-28.84,2022-08-17 14:11:10.031250
433,-14.25,2022-08-17 14:11:10.046875
434,-5.26,2022-08-17 14:11:10.062500
435,-4.1,2022-08-17 14:11:10.078125
436,-8.98,2022-08-17 14:11:10.093750
437,-15.83,2022-08-17 14:11:10.109375
438,-20.9,2022-08-17 14:11:10.125000
439,-22.85,2022-08-17 14:11:10.140625
440,-23.0,2022-08-17 14:11:10.156250
441,-23.9,2022-08-17 14:11:10.171875
442,-27.32,2022-08-17 14:11:10.187500
443,-33.03,2022-08-17 14:11:10.203125
444,-39.0,2022-08-17 14:11:10.218750
445,-42.68,2022-08-17 14:11:10.234375
446,-42.52,2022-08-17 14:11:10.250000
447,-38.65,2022-08-17 14:11:10.265625
448,-32.51,2022-08-17 14:11:10.281250
449,-25.89,2022-08-17 14:11:10.296875
450,-19.91,2022-08-17 14:11:10.312500
451,-14.67,2022-08-17 14:11:10.328125
452,-9.64,2022-08-17 14:11:10.343750
453,-4.26,2022-08-17 14:11:10.359375
454,1.6,2022-08-17 14:11:10.375000
455,7.55,2022-08-17 14:11:10.390625
456,13.05,2022-08-17 14:11:10.406250
457,17.83,2022-08-17 14:11:10.421875
458,21.96,2022-08-17 14:11:10.437500
459,25.73,2022-08-17 14:11:10.453125
460,29.29,2022-08-17 14:11:10.468750
461,32.44,2022-08-17 14:11:10.484375
462,34.5,2022-08-17 14:11:10.500000
463,34.43,2022-08-17 14:11:10.515625
464,30.81,2022-08-17 14:11:10.531250
465,22.25,2022-08-17 14:11:10.546875
466,7.99,2022-08-17 14:11:10.562500
467,-11.13,2022-08-17 14:11:10.578125
468,-32.01,2022-08-17 14:11:10.593750
469,-49.73,2022-08-17 14:11:10.609375
470,-59.06,2022-08-17 14:11:10.625000
471,-56.86,2022-08-17 14:11:10.640625
472,-43.75,2022-08-17 14:11:10.656250
473,-24.25,2022-08-17 14:11:10.671875
474,-4.9,2022-08-17 14:11:10.687500
475,8.69,2022-08-17 14:11:10.703125
476,14.1,2022-08-17 14:11:10.718750
477,12.54,2022-08-17 14:11:10.734375
478,7.37,2022-08-17 14:11:10.750000
479,1.72,2022-08-17 14:11:10.765625
480,-3.15,2022-08-17 14:11:10.781250
481,-7.82,2022-08-17 14:11:10.796875
482,-13.4,2022-08-17 14:11:10.812500
483,-20.03,2022-08-17 14:11:10.828125
484,-26.35,2022-08-17 14:11:10.843750
485,-30.32,2022-08-17 14:11:10.859375
486,-30.76,2022-08-17 14:11:10.875000
487,-28.46,2022-08-17 14:11:10.890625
488,-26.05,2022-08-17 14:11:10.906250
489,-26.74,2022-08-17 14:11:10.921875
490,-32.43,2022-08-17 14:11:10.937500
491,-42.31,2022-08-17 14:11:10.953125
492,-52.72,2022-08-17 14:11:10.968750
493,-58.15,2022-08-17 14:11:10.984375
494,-53.04,2022-08-17 14:11:11.000000
495,-33.46,2022-08-17 14:11:11.015625
496,1.71,2022-08-17 14:11:11.031250
497,50.17,2022-08-17 14:11:11.046875
498,106.2,2022-08-17 14:11:11.062500
499,161.46,2022-08-17 14:11:11.078125
500,206.45,2022-08-17 14:11:11.093750
501,232.72,2022-08-17 14:11:11.109375
502,235.16,2022-08-17 14:11:11.125000
503,213.8,2022-08-17 14:11:11.140625
504,174.23,2022-08-17 14:11:11.156250
505,126.03,2022-08-17 14:11:11.171875
506,79.84,2022-08-17 14:11:11.187500
507,44.01,2022-08-17 14:11:11.203125
508,22.33,2022-08-17 14:11:11.218750
509,13.66,2022-08-17 14:11:11.234375
510,13.54,2022-08-17 14:11:11.250000
511,16.81,2022-08-17 14:11:11.265625
512,19.67,2022-08-17 14:11:11.281250
513,20.66,2022-08-17 14:11:11.296875
514,20.08,2022-08-17 14:11:11.312500
515,18.75,2022-08-17 14:11:11.328125
516,16.95,2022-08-17 14:11:11.343750
517,14.2,2022-08-17 14:11:11.359375
518,9.82,2022-08-17 14:11:11.375000
519,3.73,2022-08-17 14:11:11.390625
520,-2.92,2022-08-17 14:11:11.406250
521,-8.26,2022-08-17 14:11:11.421875
522,-10.64,2022-08-17 14:11:11.437500
523,-9.62,2022-08-17 14:11:11.453125
524,-6.42,2022-08-17 14:11:11.468750
525,-3.28,2022-08-17 14:11:11.484375
526,-2.33,2022-08-17 14:11:11.500000
527,-4.61,2022-08-17 14:11:11.515625
528,-9.56,2022-08-17 14:11:11.531250
529,-15.39,2022-08-17 14:11:11.546875
530,-20.03,2022-08-17 14:11:11.562500
531,-22.17,2022-08-17 14:11:11.578125
532,-21.74,2022-08-17 14:11:11.593750
533,-19.83,2022-08-17 14:11:11.609375
534,-18.07,2022-08-17 14:11:11.625000
535,-17.8,2022-08-17 14:11:11.640625
536,-19.5,2022-08-17 14:11:11.656250
537,-22.62,2022-08-17 14:11:11.671875
538,-25.89,2022-08-17 14:11:11.687500
539,-28.0,2022-08-17 14:11:11.703125
540,-28.26,2022-08-17 14:11:11.718750
541,-26.88,2022-08-17 14:11:11.734375
542,-24.9,2022-08-17 14:11:11.750000
543,-23.63,2022-08-17 14:11:11.765625
544,-24.08,2022-08-17 14:11:11.781250
545,-26.49,2022-08-17 14:11:11.796875
546,-30.27,2022-08-17 14:11:11.812500
547,-34.35,2022-08-17 14:11:11.828125
548,-37.62,2022-08-17 14:11:11.843750
549,-39.34,2022-08-17 14:11:11.859375
550,-39.18,2022-08-17 14:11:11.875000
551,-37.18,2022-08-17 14:11:11.890625
552,-33.54,2022-08-17 14:11:11.906250
553,-28.55,2022-08-17 14:11:11.921875
554,-22.72,2022-08-17 14:11:11.937500
555,-16.81,2022-08-17 14:11:11.953125
556,-11.8,2022-08-17 14:11:11.968750
557,-8.59,2022-08-17 14:11:11.984375
558,-7.64,2022-08-17 14:11:12.000000
559,-8.75,2022-08-17 14:11:12.015625
560,-11.18,2022-08-17 14:11:12.031250
561,-13.87,2022-08-17 14:11:12.046875
562,-15.99,2022-08-17 14:11:12.062500
563,-17.13,2022-08-17 14:11:12.078125
564,-17.38,2022-08-17 14:11:12.093750
565,-17.12,2022-08-17 14:11:12.109375
566,-16.75,2022-08-17 14:11:12.125000
567,-16.48,2022-08-17 14:11:12.140625
568,-16.33,2022-08-17 14:11:12.156250
569,-16.2,2022-08-17 14:11:12.171875
570,-16.01,2022-08-17 14:11:12.187500
571,-15.74,2022-08-17 14:11:12.203125
572,-15.37,2022-08-17 14:11:12.218750
573,-14.93,2022-08-17 14:11:12.234375
574,-14.37,2022-08-17 14:11:12.250000
575,-13.64,2022-08-17 14:11:12.265625
576,-12.71,2022-08-17 14:11:12.281250
577,-11.67,2022-08-17 14:11:12.296875
578,-10.72,2022-08-17 14:11:12.312500
579,-10.09,2022-08-17 14:11:12.328125
580,-9.96,2022-08-17 14:11:12.343750
581,-10.3,2022-08-17 14:11:12.359375
582,-10.89,2022-08-17 14:11:12.375000
583,-11.41,2022-08-17 14:11:12.390625
584,-11.53,2022-08-17 14:11:12.406250
585,-11.05,2022-08-17 14:11:12.421875
586,-10.0,2022-08-17 14:11:12.437500
587,-8.5,2022-08-17 14:11:12.453125
588,-6.78,2022-08-17 14:11:12.468750
589,-5.05,2022-08-17 14:11:12.484375
590,-3.46,2022-08-17 14:11:12.500000
591,-2.17,2022-08-17 14:11:12.515625
592,-1.24,2022-08-17 14:11:12.531250
593,-0.71,2022-08-17 14:11:12.546875
594,-0.54,2022-08-17 14:11:12.562500
595,-0.56,2022-08-17 14:11:12.578125
596,-0.57,2022-08-17 14:11:12.593750
597,-0.35,2022-08-17 14:11:12.609375
598,0.15,2022-08-17 14:11:12.625000
599,0.85,2022-08-17 14:11:12.640625
600,1.43,2022-08-17 14:11:12.656250
601,1.51,2022-08-17 14:11:12.671875
602,0.74,2022-08-17 14:11:12.687500
603,-0.98,2022-08-17 14:11:12.703125
604,-3.39,2022-08-17 14:11:12.718750
605,-5.94,2022-08-17 14:11:12.734375
606,-7.92,2022-08-17 14:11:12.750000
607,-8.75,2022-08-17 14:11:12.765625
608,-8.21,2022-08-17 14:11:12.781250
609,-6.51,2022-08-17 14:11:12.796875
610,-4.24,2022-08-17 14:11:12.812500
611,-2.18,2022-08-17 14:11:12.828125
612,-1.06,2022-08-17 14:11:12.843750
613,-1.4,2022-08-17 14:11:12.859375
614,-3.38,2022-08-17 14:11:12.875000
615,-6.82,2022-08-17 14:11:12.890625
616,-11.25,2022-08-17 14:11:12.906250
617,-15.93,2022-08-17 14:11:12.921875
618,-20.05,2022-08-17 14:11:12.937500
619,-22.93,2022-08-17 14:11:12.953125
620,-24.21,2022-08-17 14:11:12.968750
621,-23.91,2022-08-17 14:11:12.984375
622,-22.42,2022-08-17 14:11:13.000000
623,-20.37,2022-08-17 14:11:13.015625
624,-18.32,2022-08-17 14:11:13.031250
625,-16.65,2022-08-17 14:11:13.046875
626,-15.51,2022-08-17 14:11:13.062500
627,-14.82,2022-08-17 14:11:13.078125
628,-14.38,2022-08-17 14:11:13.093750
629,-13.98,2022-08-17 14:11:13.109375
630,-13.42,2022-08-17 14:11:13.125000
631,-12.58,2022-08-17 14:11:13.140625
632,-11.42,2022-08-17 14:11:13.156250
633,-10.0,2022-08-17 14:11:13.171875
634,-8.49,2022-08-17 14:11:13.187500
635,-7.13,2022-08-17 14:11:13.203125
636,-6.17,2022-08-17 14:11:13.218750
637,-5.75,2022-08-17 14:11:13.234375
638,-5.87,2022-08-17 14:11:13.250000
639,-6.32,2022-08-17 14:11:13.265625
640,-6.79,2022-08-17 14:11:13.281250
641,-6.97,2022-08-17 14:11:13.296875
642,-6.63,2022-08-17 14:11:13.312500
643,-5.7,2022-08-17 14:11:13.328125
644,-4.3,2022-08-17 14:11:13.343750
645,-2.66,2022-08-17 14:11:13.359375
646,-1.04,2022-08-17 14:11:13.375000
647,0.35,2022-08-17 14:11:13.390625
648,1.38,2022-08-17 14:11:13.406250
649,2.04,2022-08-17 14:11:13.421875
650,2.42,2022-08-17 14:11:13.437500
651,2.65,2022-08-17 14:11:13.453125
652,2.87,2022-08-17 14:11:13.468750
653,3.19,2022-08-17 14:11:13.484375
654,3.64,2022-08-17 14:11:13.500000
655,4.12,2022-08-17 14:11:13.515625
656,4.5,2022-08-17 14:11:13.531250
657,4.59,2022-08-17 14:11:13.546875
658,4.22,2022-08-17 14:11:13.562500
659,3.35,2022-08-17 14:11:13.578125
660,2.08,2022-08-17 14:11:13.593750
661,0.67,2022-08-17 14:11:13.609375
662,-0.51,2022-08-17 14:11:13.625000
663,-1.12,2022-08-17 14:11:13.640625
664,-0.97,2022-08-17 14:11:13.656250
665,-0.14,2022-08-17 14:11:13.671875
666,1.08,2022-08-17 14:11:13.687500
667,2.27,2022-08-17 14:11:13.703125
668,3.06,2022-08-17 14:11:13.718750
669,3.33,2022-08-17 14:11:13.734375
670,3.19,2022-08-17 14:11:13.750000
671,2.95,2022-08-17 14:11:13.765625
672,2.96,2022-08-17 14:11:13.781250
673,3.49,2022-08-17 14:11:13.796875
674,4.61,2022-08-17 14:11:13.812500
675,6.23,2022-08-17 14:11:13.828125
676,8.0,2022-08-17 14:11:13.843750
677,9.38,2022-08-17 14:11:13.859375
678,9.65,2022-08-17 14:11:13.875000
679,8.19,2022-08-17 14:11:13.890625
680,4.69,2022-08-17 14:11:13.906250
681,-0.63,2022-08-17 14:11:13.921875
682,-6.92,2022-08-17 14:11:13.937500
683,-13.05,2022-08-17 14:11:13.953125
684,-17.89,2022-08-17 14:11:13.968750
685,-20.82,2022-08-17 14:11:13.984375
686,-21.79,2022-08-17 14:11:14.000000
687,-21.3,2022-08-17 14:11:14.015625
688,-19.99,2022-08-17 14:11:14.031250
689,-18.43,2022-08-17 14:11:14.046875
690,-16.85,2022-08-17 14:11:14.062500
691,-15.33,2022-08-17 14:11:14.078125
692,-13.79,2022-08-17 14:11:14.093750
693,-12.26,2022-08-17 14:11:14.109375
694,-10.79,2022-08-17 14:11:14.125000
695,-9.46,2022-08-17 14:11:14.140625
696,-8.3,2022-08-17 14:11:14.156250
697,-7.28,2022-08-17 14:11:14.171875
698,-6.34,2022-08-17 14:11:14.187500
699,-5.47,2022-08-17 14:11:14.203125
700,-4.71,2022-08-17 14:11:14.218750
701,-4.2,2022-08-17 14:11:14.234375
702,-4.0,2022-08-17 14:11:14.250000
703,-4.16,2022-08-17 14:11:14.265625
704,-4.59,2022-08-17 14:11:14.281250
705,-5.08,2022-08-17 14:11:14.296875
706,-5.39,2022-08-17 14:11:14.312500
707,-5.27,2022-08-17 14:11:14.328125
708,-4.64,2022-08-17 14:11:14.343750
709,-3.53,2022-08-17 14:11:14.359375
710,-2.12,2022-08-17 14:11:14.375000
711,-0.65,2022-08-17 14:11:14.390625
712,0.66,2022-08-17 14:11:14.406250
713,1.74,2022-08-17 14:11:14.421875
714,2.59,2022-08-17 14:11:14.437500
715,3.28,2022-08-17 14:11:14.453125
716,3.91,2022-08-17 14:11:14.468750
717,4.49,2022-08-17 14:11:14.484375
718,5.04,2022-08-17 14:11:14.500000
719,5.55,2022-08-17 14:11:14.515625
720,6.02,2022-08-17 14:11:14.531250
721,6.48,2022-08-17 14:11:14.546875
722,6.93,2022-08-17 14:11:14.562500
723,7.36,2022-08-17 14:11:14.578125
724,7.69,2022-08-17 14:11:14.593750
725,7.87,2022-08-17 14:11:14.609375
726,7.86,2022-08-17 14:11:14.625000
727,7.67,2022-08-17 14:11:14.640625
728,7.36,2022-08-17 14:11:14.656250
729,7.02,2022-08-17 14:11:14.671875
730,6.75,2022-08-17 14:11:14.687500
731,6.68,2022-08-17 14:11:14.703125
732,6.96,2022-08-17 14:11:14.718750
733,7.67,2022-08-17 14:11:14.734375
734,8.81,2022-08-17 14:11:14.750000
735,10.09,2022-08-17 14:11:14.765625
736,11.0,2022-08-17 14:11:14.781250
737,10.9,2022-08-17 14:11:14.796875
738,9.26,2022-08-17 14:11:14.812500
739,5.95,2022-08-17 14:11:14.828125
740,1.41,2022-08-17 14:11:14.843750
741,-3.5,2022-08-17 14:11:14.859375
742,-7.75,2022-08-17 14:11:14.875000
743,-10.57,2022-08-17 14:11:14.890625
744,-11.72,2022-08-17 14:11:14.906250
745,-11.5,2022-08-17 14:11:14.921875
746,-10.53,2022-08-17 14:11:14.937500
747,-9.43,2022-08-17 14:11:14.953125
748,-8.54,2022-08-17 14:11:14.968750
749,-7.9,2022-08-17 14:11:14.984375
750,-7.31,2022-08-17 14:11:15.000000
751,-6.59,2022-08-17 14:11:15.015625
752,-5.64,2022-08-17 14:11:15.031250
753,-4.52,2022-08-17 14:11:15.046875
754,-3.32,2022-08-17 14:11:15.062500
755,-2.15,2022-08-17 14:11:15.078125
756,-1.05,2022-08-17 14:11:15.093750
757,-0.04,2022-08-17 14:11:15.109375
758,0.84,2022-08-17 14:11:15.125000
759,1.46,2022-08-17 14:11:15.140625
760,1.69,2022-08-17 14:11:15.156250
761,1.39,2022-08-17 14:11:15.171875
762,0.53,2022-08-17 14:11:15.187500
763,-0.75,2022-08-17 14:11:15.203125
764,-2.19,2022-08-17 14:11:15.218750
765,-3.45,2022-08-17 14:11:15.234375
766,-4.22,2022-08-17 14:11:15.250000
767,-4.36,2022-08-17 14:11:15.265625
768,-3.85,2022-08-17 14:11:15.281250
769,-2.84,2022-08-17 14:11:15.296875
770,-1.55,2022-08-17 14:11:15.312500
771,-0.19,2022-08-17 14:11:15.328125
772,1.07,2022-08-17 14:11:15.343750
773,2.09,2022-08-17 14:11:15.359375
774,2.8,2022-08-17 14:11:15.375000
775,3.21,2022-08-17 14:11:15.390625
776,3.4,2022-08-17 14:11:15.406250
777,3.53,2022-08-17 14:11:15.421875
778,3.74,2022-08-17 14:11:15.437500
779,4.15,2022-08-17 14:11:15.453125
780,4.72,2022-08-17 14:11:15.468750
781,5.29,2022-08-17 14:11:15.484375
782,5.65,2022-08-17 14:11:15.500000
783,5.6,2022-08-17 14:11:15.515625
784,5.08,2022-08-17 14:11:15.531250
785,4.14,2022-08-17 14:11:15.546875
786,3.03,2022-08-17 14:11:15.562500
787,2.04,2022-08-17 14:11:15.578125
788,1.44,2022-08-17 14:11:15.593750
789,1.44,2022-08-17 14:11:15.609375
790,2.09,2022-08-17 14:11:15.625000
791,3.2,2022-08-17 14:11:15.640625
792,4.39,2022-08-17 14:11:15.656250
793,5.04,2022-08-17 14:11:15.671875
794,4.55,2022-08-17 14:11:15.687500
795,2.5,2022-08-17 14:11:15.703125
796,-1.1,2022-08-17 14:11:15.718750
797,-5.74,2022-08-17 14:11:15.734375
798,-10.55,2022-08-17 14:11:15.750000
799,-14.63,2022-08-17 14:11:15.765625
800,-17.34,2022-08-17 14:11:15.781250
801,-18.58,2022-08-17 14:11:15.796875
802,-18.67,2022-08-17 14:11:15.812500
803,-18.13,2022-08-17 14:11:15.828125
804,-17.39,2022-08-17 14:11:15.843750
805,-16.6,2022-08-17 14:11:15.859375
806,-15.71,2022-08-17 14:11:15.875000
807,-14.66,2022-08-17 14:11:15.890625
808,-13.48,2022-08-17 14:11:15.906250
809,-12.33,2022-08-17 14:11:15.921875
810,-11.4,2022-08-17 14:11:15.937500
811,-10.76,2022-08-17 14:11:15.953125
812,-10.29,2022-08-17 14:11:15.968750
813,-9.75,2022-08-17 14:11:15.984375
814,-8.92,2022-08-17 14:11:16.000000
815,-7.73,2022-08-17 14:11:16.015625
816,-6.27,2022-08-17 14:11:16.031250
817,-4.79,2022-08-17 14:11:16.046875
818,-3.53,2022-08-17 14:11:16.062500
819,-2.67,2022-08-17 14:11:16.078125
820,-2.31,2022-08-17 14:11:16.093750
821,-2.36,2022-08-17 14:11:16.109375
822,-2.66,2022-08-17 14:11:16.125000
823,-2.98,2022-08-17 14:11:16.140625
824,-3.08,2022-08-17 14:11:16.156250
825,-2.8,2022-08-17 14:11:16.171875
826,-2.1,2022-08-17 14:11:16.187500
827,-1.1,2022-08-17 14:11:16.203125
828,0.01,2022-08-17 14:11:16.218750
829,1.03,2022-08-17 14:11:16.234375
830,1.86,2022-08-17 14:11:16.250000
831,2.45,2022-08-17 14:11:16.265625
832,2.86,2022-08-17 14:11:16.281250
833,3.09,2022-08-17 14:11:16.296875
834,3.11,2022-08-17 14:11:16.312500
835,2.9,2022-08-17 14:11:16.328125
836,2.49,2022-08-17 14:11:16.343750
837,1.98,2022-08-17 14:11:16.359375
838,1.56,2022-08-17 14:11:16.375000
839,1.39,2022-08-17 14:11:16.390625
840,1.55,2022-08-17 14:11:16.406250
841,2.0,2022-08-17 14:11:16.421875
842,2.59,2022-08-17 14:11:16.437500
843,3.12,2022-08-17 14:11:16.453125
844,3.47,2022-08-17 14:11:16.468750
845,3.61,2022-08-17 14:11:16.484375
846,3.63,2022-08-17 14:11:16.500000
847,3.66,2022-08-17 14:11:16.515625
848,3.85,2022-08-17 14:11:16.531250
849,4.29,2022-08-17 14:11:16.546875
850,4.98,2022-08-17 14:11:16.562500
851,5.77,2022-08-17 14:11:16.578125
852,6.44,2022-08-17 14:11:16.593750
853,6.76,2022-08-17 14:11:16.609375
854,6.59,2022-08-17 14:11:16.625000
855,5.96,2022-08-17 14:11:16.640625
856,5.07,2022-08-17 14:11:16.656250
857,4.22,2022-08-17 14:11:16.671875
858,3.68,2022-08-17 14:11:16.687500
859,3.65,2022-08-17 14:11:16.703125
860,4.14,2022-08-17 14:11:16.718750
861,4.99,2022-08-17 14:11:16.734375
862,5.87,2022-08-17 14:11:16.750000
863,6.29,2022-08-17 14:11:16.765625
864,5.68,2022-08-17 14:11:16.781250
865,3.62,2022-08-17 14:11:16.796875
866,0.0,2022-08-17 14:11:16.812500
867,-4.83,2022-08-17 14:11:16.828125
868,-10.09,2022-08-17 14:11:16.843750
869,-14.84,2022-08-17 14:11:16.859375
870,-18.24,2022-08-17 14:11:16.875000
871,-19.92,2022-08-17 14:11:16.890625
872,-20.0,2022-08-17 14:11:16.906250
873,-19.02,2022-08-17 14:11:16.921875
874,-17.59,2022-08-17 14:11:16.937500
875,-16.15,2022-08-17 14:11:16.953125
876,-14.89,2022-08-17 14:11:16.968750
877,-13.75,2022-08-17 14:11:16.984375
878,-12.66,2022-08-17 14:11:17.000000
879,-11.53,2022-08-17 14:11:17.015625
880,-10.37,2022-08-17 14:11:17.031250
881,-9.18,2022-08-17 14:11:17.046875
882,-7.92,2022-08-17 14:11:17.062500
883,-6.56,2022-08-17 14:11:17.078125
884,-5.09,2022-08-17 14:11:17.093750
885,-3.61,2022-08-17 14:11:17.109375
886,-2.36,2022-08-17 14:11:17.125000
887,-1.6,2022-08-17 14:11:17.140625
888,-1.49,2022-08-17 14:11:17.156250
889,-1.98,2022-08-17 14:11:17.171875
890,-2.8,2022-08-17 14:11:17.187500
891,-3.54,2022-08-17 14:11:17.203125
892,-3.82,2022-08-17 14:11:17.218750
893,-3.4,2022-08-17 14:11:17.234375
894,-2.29,2022-08-17 14:11:17.250000
895,-0.69,2022-08-17 14:11:17.265625
896,1.08,2022-08-17 14:11:17.281250
897,2.68,2022-08-17 14:11:17.296875
898,3.84,2022-08-17 14:11:17.312500
899,4.46,2022-08-17 14:11:17.328125
900,4.59,2022-08-17 14:11:17.343750
901,4.42,2022-08-17 14:11:17.359375
902,4.19,2022-08-17 14:11:17.375000
903,4.09,2022-08-17 14:11:17.390625
904,4.19,2022-08-17 14:11:17.406250
905,4.47,2022-08-17 14:11:17.421875
906,4.78,2022-08-17 14:11:17.437500
907,5.0,2022-08-17 14:11:17.453125
908,5.06,2022-08-17 14:11:17.468750
909,5.0,2022-08-17 14:11:17.484375
910,4.93,2022-08-17 14:11:17.500000
911,4.98,2022-08-17 14:11:17.515625
912,5.21,2022-08-17 14:11:17.531250
913,5.58,2022-08-17 14:11:17.546875
914,5.95,2022-08-17 14:11:17.562500
915,6.19,2022-08-17 14:11:17.578125
916,6.2,2022-08-17 14:11:17.593750
917,5.99,2022-08-17 14:11:17.609375
918,5.63,2022-08-17 14:11:17.625000
919,5.28,2022-08-17 14:11:17.640625
920,5.04,2022-08-17 14:11:17.656250
921,4.99,2022-08-17 14:11:17.671875
922,5.13,2022-08-17 14:11:17.687500
923,5.37,2022-08-17 14:11:17.703125
924,5.6,2022-08-17 14:11:17.718750
925,5.67,2022-08-17 14:11:17.734375
926,5.53,2022-08-17 14:11:17.750000
927,5.2,2022-08-17 14:11:17.765625
928,4.85,2022-08-17 14:11:17.781250
929,4.76,2022-08-17 14:11:17.796875
930,5.19,2022-08-17 14:11:17.812500
931,6.32,2022-08-17 14:11:17.828125
932,8.07,2022-08-17 14:11:17.843750
933,10.07,2022-08-17 14:11:17.859375
934,11.66,2022-08-17 14:11:17.875000
935,12.05,2022-08-17 14:11:17.890625
936,10.58,2022-08-17 14:11:17.906250
937,6.98,2022-08-17 14:11:17.921875
938,1.61,2022-08-17 14:11:17.937500
939,-4.65,2022-08-17 14:11:17.953125
940,-10.6,2022-08-17 14:11:17.968750
941,-15.18,2022-08-17 14:11:17.984375
942,-17.79,2022-08-17 14:11:18.000000
943,-18.43,2022-08-17 14:11:18.015625
944,-17.59,2022-08-17 14:11:18.031250
945,-15.95,2022-08-17 14:11:18.046875
946,-14.12,2022-08-17 14:11:18.062500
947,-12.47,2022-08-17 14:11:18.078125
948,-11.12,2022-08-17 14:11:18.093750
949,-10.01,2022-08-17 14:11:18.109375
950,-9.07,2022-08-17 14:11:18.125000
951,-8.18,2022-08-17 14:11:18.140625
952,-7.28,2022-08-17 14:11:18.156250
953,-6.29,2022-08-17 14:11:18.171875
954,-5.17,2022-08-17 14:11:18.187500
955,-3.92,2022-08-17 14:11:18.203125
956,-2.56,2022-08-17 14:11:18.218750
957,-1.23,2022-08-17 14:11:18.234375
958,-0.07,2022-08-17 14:11:18.250000
959,0.77,2022-08-17 14:11:18.265625
960,1.14,2022-08-17 14:11:18.281250
961,1.03,2022-08-17 14:11:18.296875
962,0.49,2022-08-17 14:11:18.312500
963,-0.22,2022-08-17 14:11:18.328125
964,-0.8,2022-08-17 14:11:18.343750
965,-0.96,2022-08-17 14:11:18.359375
966,-0.56,2022-08-17 14:11:18.375000
967,0.4,2022-08-17 14:11:18.390625
968,1.71,2022-08-17 14:11:18.406250
969,3.1,2022-08-17 14:11:18.421875
970,4.28,2022-08-17 14:11:18.437500
971,5.06,2022-08-17 14:11:18.453125
972,5.36,2022-08-17 14:11:18.468750
973,5.25,2022-08-17 14:11:18.484375
974,4.89,2022-08-17 14:11:18.500000
975,4.52,2022-08-17 14:11:18.515625
976,4.32,2022-08-17 14:11:18.531250
977,4.38,2022-08-17 14:11:18.546875
978,4.59,2022-08-17 14:11:18.562500
979,4.74,2022-08-17 14:11:18.578125
980,4.6,2022-08-17 14:11:18.593750
981,4.12,2022-08-17 14:11:18.609375
982,3.4,2022-08-17 14:11:18.625000
983,2.73,2022-08-17 14:11:18.640625
984,2.36,2022-08-17 14:11:18.656250
985,2.4,2022-08-17 14:11:18.671875
986,2.72,2022-08-17 14:11:18.687500
987,3.06,2022-08-17 14:11:18.703125
988,3.17,2022-08-17 14:11:18.718750
989,2.98,2022-08-17 14:11:18.734375
990,2.63,2022-08-17 14:11:18.750000
991,2.36,2022-08-17 14:11:18.765625
992,2.38,2022-08-17 14:11:18.781250
993,2.74,2022-08-17 14:11:18.796875
994,3.3,2022-08-17 14:11:18.812500
995,3.81,2022-08-17 14:11:18.828125
996,4.08,2022-08-17 14:11:18.843750
997,4.08,2022-08-17 14:11:18.859375
998,3.95,2022-08-17 14:11:18.875000
999,3.89,2022-08-17 14:11:18.890625
1000,4.05,2022-08-17 14:11:18.906250
1001,4.45,2022-08-17 14:11:18.921875
1002,5.02,2022-08-17 14:11:18.937500
1003,5.64,2022-08-17 14:11:18.953125
1004,6.16,2022-08-17 14:11:18.968750
1005,6.42,2022-08-17 14:11:18.984375
1006,6.17,2022-08-17 14:11:19.000000
1007,5.1,2022-08-17 14:11:19.015625
1008,2.94,2022-08-17 14:11:19.031250
1009,-0.38,2022-08-17 14:11:19.046875
1010,-4.53,2022-08-17 14:11:19.062500
1011,-8.87,2022-08-17 14:11:19.078125
1012,-12.61,2022-08-17 14:11:19.093750
1013,-15.03,2022-08-17 14:11:19.109375
1014,-15.85,2022-08-17 14:11:19.125000
1015,-15.22,2022-08-17 14:11:19.140625
1016,-13.64,2022-08-17 14:11:19.156250
1017,-11.71,2022-08-17 14:11:19.171875
1018,-9.89,2022-08-17 14:11:19.187500
1019,-8.42,2022-08-17 14:11:19.203125
1020,-7.3,2022-08-17 14:11:19.218750
1021,-6.36,2022-08-17 14:11:19.234375
1022,-5.43,2022-08-17 14:11:19.250000
1023,-4.43,2022-08-17 14:11:19.265625
1024,-3.35,2022-08-17 14:11:19.281250
1025,-2.27,2022-08-17 14:11:19.296875
1026,-1.28,2022-08-17 14:11:19.312500
1027,-0.42,2022-08-17 14:11:19.328125
1028,0.27,2022-08-17 14:11:19.343750
1029,0.84,2022-08-17 14:11:19.359375
1030,1.27,2022-08-17 14:11:19.375000
1031,1.52,2022-08-17 14:11:19.390625
1032,1.56,2022-08-17 14:11:19.406250
1033,1.36,2022-08-17 14:11:19.421875
1034,1.01,2022-08-17 14:11:19.437500
1035,0.67,2022-08-17 14:11:19.453125
1036,0.53,2022-08-17 14:11:19.468750
1037,0.73,2022-08-17 14:11:19.484375
1038,1.29,2022-08-17 14:11:19.500000
1039,2.09,2022-08-17 14:11:19.515625
1040,2.94,2022-08-17 14:11:19.531250
1041,3.6,2022-08-17 14:11:19.546875
1042,3.94,2022-08-17 14:11:19.562500
1043,3.98,2022-08-17 14:11:19.578125
1044,3.83,2022-08-17 14:11:19.593750
1045,3.71,2022-08-17 14:11:19.609375
1046,3.77,2022-08-17 14:11:19.625000
1047,4.06,2022-08-17 14:11:19.640625
1048,4.48,2022-08-17 14:11:19.656250
1049,4.8,2022-08-17 14:11:19.671875
1050,4.83,2022-08-17 14:11:19.687500
1051,4.47,2022-08-17 14:11:19.703125
1052,3.77,2022-08-17 14:11:19.718750
1053,2.93,2022-08-17 14:11:19.734375
1054,2.17,2022-08-17 14:11:19.750000
1055,1.64,2022-08-17 14:11:19.765625
1056,1.36,2022-08-17 14:11:19.781250
1057,1.27,2022-08-17 14:11:19.796875
1058,1.21,2022-08-17 14:11:19.812500
1059,1.09,2022-08-17 14:11:19.828125
1060,0.91,2022-08-17 14:11:19.843750
1061,0.72,2022-08-17 14:11:19.859375
1062,0.62,2022-08-17 14:11:19.875000
1063,0.67,2022-08-17 14:11:19.890625
1064,0.84,2022-08-17 14:11:19.906250
1065,1.07,2022-08-17 14:11:19.921875
1066,1.29,2022-08-17 14:11:19.937500
1067,1.47,2022-08-17 14:11:19.953125
1068,1.64,2022-08-17 14:11:19.968750
1069,1.79,2022-08-17 14:11:19.984375
1070,1.92,2022-08-17 14:11:20.000000
1071,2.0,2022-08-17 14:11:20.015625
1072,2.03,2022-08-17 14:11:20.031250
1073,2.09,2022-08-17 14:11:20.046875
1074,2.34,2022-08-17 14:11:20.062500
1075,2.92,2022-08-17 14:11:20.078125
1076,3.79,2022-08-17 14:11:20.093750
1077,4.6,2022-08-17 14:11:20.109375
1078,4.8,2022-08-17 14:11:20.125000
1079,3.83,2022-08-17 14:11:20.140625
1080,1.45,2022-08-17 14:11:20.156250
1081,-2.07,2022-08-17 14:11:20.171875
1082,-6.01,2022-08-17 14:11:20.187500
1083,-9.49,2022-08-17 14:11:20.203125
1084,-11.8,2022-08-17 14:11:20.218750
1085,-12.66,2022-08-17 14:11:20.234375
1086,-12.26,2022-08-17 14:11:20.250000
1087,-11.04,2022-08-17 14:11:20.265625
1088,-9.45,2022-08-17 14:11:20.281250
1089,-7.76,2022-08-17 14:11:20.296875
1090,-6.09,2022-08-17 14:11:20.312500
1091,-4.38,2022-08-17 14:11:20.328125
1092,-2.66,2022-08-17 14:11:20.343750
1093,-0.99,2022-08-17 14:11:20.359375
1094,0.51,2022-08-17 14:11:20.375000
1095,1.76,2022-08-17 14:11:20.390625
1096,2.7,2022-08-17 14:11:20.406250
1097,3.34,2022-08-17 14:11:20.421875
1098,3.69,2022-08-17 14:11:20.437500
1099,3.77,2022-08-17 14:11:20.453125
1100,3.62,2022-08-17 14:11:20.468750
1101,3.31,2022-08-17 14:11:20.484375
1102,2.91,2022-08-17 14:11:20.500000
1103,2.52,2022-08-17 14:11:20.515625
1104,2.23,2022-08-17 14:11:20.531250
1105,2.07,2022-08-17 14:11:20.546875
1106,2.04,2022-08-17 14:11:20.562500
1107,2.17,2022-08-17 14:11:20.578125
1108,2.48,2022-08-17 14:11:20.593750
1109,2.99,2022-08-17 14:11:20.609375
1110,3.65,2022-08-17 14:11:20.625000
1111,4.39,2022-08-17 14:11:20.640625
1112,5.04,2022-08-17 14:11:20.656250
1113,5.49,2022-08-17 14:11:20.671875
1114,5.65,2022-08-17 14:11:20.687500
1115,5.51,2022-08-17 14:11:20.703125
1116,5.17,2022-08-17 14:11:20.718750
1117,4.74,2022-08-17 14:11:20.734375
1118,4.33,2022-08-17 14:11:20.750000
1119,4.01,2022-08-17 14:11:20.765625
1120,3.85,2022-08-17 14:11:20.781250
1121,3.85,2022-08-17 14:11:20.796875
1122,3.97,2022-08-17 14:11:20.812500
1123,4.13,2022-08-17 14:11:20.828125
1124,4.21,2022-08-17 14:11:20.843750
1125,4.13,2022-08-17 14:11:20.859375
1126,3.86,2022-08-17 14:11:20.875000
1127,3.47,2022-08-17 14:11:20.890625
1128,3.13,2022-08-17 14:11:20.906250
1129,2.98,2022-08-17 14:11:20.921875
1130,3.07,2022-08-17 14:11:20.937500
1131,3.35,2022-08-17 14:11:20.953125
1132,3.61,2022-08-17 14:11:20.968750
1133,3.67,2022-08-17 14:11:20.984375
1134,3.4,2022-08-17 14:11:21.000000
1135,2.84,2022-08-17 14:11:21.015625
1136,2.13,2022-08-17 14:11:21.031250
1137,1.5,2022-08-17 14:11:21.046875
1138,1.12,2022-08-17 14:11:21.062500
1139,1.12,2022-08-17 14:11:21.078125
1140,1.57,2022-08-17 14:11:21.093750
1141,2.4,2022-08-17 14:11:21.109375
1142,3.47,2022-08-17 14:11:21.125000
1143,4.49,2022-08-17 14:11:21.140625
1144,5.01,2022-08-17 14:11:21.156250
1145,4.6,2022-08-17 14:11:21.171875
1146,2.95,2022-08-17 14:11:21.187500
1147,0.09,2022-08-17 14:11:21.203125
1148,-3.58,2022-08-17 14:11:21.218750
1149,-7.4,2022-08-17 14:11:21.234375
1150,-10.66,2022-08-17 14:11:21.250000
1151,-12.86,2022-08-17 14:11:21.265625
1152,-13.8,2022-08-17 14:11:21.281250
1153,-13.6,2022-08-17 14:11:21.296875
1154,-12.54,2022-08-17 14:11:21.312500
1155,-10.96,2022-08-17 14:11:21.328125
1156,-9.14,2022-08-17 14:11:21.343750
1157,-7.24,2022-08-17 14:11:21.359375
1158,-5.37,2022-08-17 14:11:21.375000
1159,-3.63,2022-08-17 14:11:21.390625
1160,-2.06,2022-08-17 14:11:21.406250
1161,-0.75,2022-08-17 14:11:21.421875
1162,0.27,2022-08-17 14:11:21.437500
1163,0.98,2022-08-17 14:11:21.453125
1164,1.44,2022-08-17 14:11:21.468750
1165,1.69,2022-08-17 14:11:21.484375
1166,1.81,2022-08-17 14:11:21.500000
1167,1.84,2022-08-17 14:11:21.515625
1168,1.75,2022-08-17 14:11:21.531250
1169,1.47,2022-08-17 14:11:21.546875
1170,0.95,2022-08-17 14:11:21.562500
1171,0.24,2022-08-17 14:11:21.578125
1172,-0.53,2022-08-17 14:11:21.593750
1173,-1.14,2022-08-17 14:11:21.609375
1174,-1.44,2022-08-17 14:11:21.625000
1175,-1.32,2022-08-17 14:11:21.640625
1176,-0.82,2022-08-17 14:11:21.656250
1177,-0.08,2022-08-17 14:11:21.671875
1178,0.74,2022-08-17 14:11:21.687500
1179,1.48,2022-08-17 14:11:21.703125
1180,2.04,2022-08-17 14:11:21.718750
1181,2.42,2022-08-17 14:11:21.734375
1182,2.64,2022-08-17 14:11:21.750000
1183,2.79,2022-08-17 14:11:21.765625
1184,2.95,2022-08-17 14:11:21.781250
1185,3.16,2022-08-17 14:11:21.796875
1186,3.43,2022-08-17 14:11:21.812500
1187,3.73,2022-08-17 14:11:21.828125
1188,4.02,2022-08-17 14:11:21.843750
1189,4.27,2022-08-17 14:11:21.859375
1190,4.44,2022-08-17 14:11:21.875000
1191,4.49,2022-08-17 14:11:21.890625
1192,4.39,2022-08-17 14:11:21.906250
1193,4.12,2022-08-17 14:11:21.921875
1194,3.72,2022-08-17 14:11:21.937500
1195,3.28,2022-08-17 14:11:21.953125
1196,2.98,2022-08-17 14:11:21.968750
1197,2.91,2022-08-17 14:11:21.984375
1198,3.1,2022-08-17 14:11:22.000000
1199,3.41,2022-08-17 14:11:22.015625
1200,3.65,2022-08-17 14:11:22.031250
1201,3.61,2022-08-17 14:11:22.046875
1202,3.25,2022-08-17 14:11:22.062500
1203,2.65,2022-08-17 14:11:22.078125
1204,2.03,2022-08-17 14:11:22.093750
1205,1.66,2022-08-17 14:11:22.109375
1206,1.74,2022-08-17 14:11:22.125000
1207,2.34,2022-08-17 14:11:22.140625
1208,3.4,2022-08-17 14:11:22.156250
1209,4.67,2022-08-17 14:11:22.171875
1210,5.75,2022-08-17 14:11:22.187500
1211,6.13,2022-08-17 14:11:22.203125
1212,5.36,2022-08-17 14:11:22.218750
1213,3.21,2022-08-17 14:11:22.234375
1214,-0.2,2022-08-17 14:11:22.250000
1215,-4.37,2022-08-17 14:11:22.265625
1216,-8.57,2022-08-17 14:11:22.281250
1217,-12.09,2022-08-17 14:11:22.296875
1218,-14.47,2022-08-17 14:11:22.312500
1219,-15.58,2022-08-17 14:11:22.328125
1220,-15.54,2022-08-17 14:11:22.343750
1221,-14.6,2022-08-17 14:11:22.359375
1222,-13.02,2022-08-17 14:11:22.375000
1223,-11.07,2022-08-17 14:11:22.390625
1224,-8.99,2022-08-17 14:11:22.406250
1225,-7.07,2022-08-17 14:11:22.421875
1226,-5.52,2022-08-17 14:11:22.437500
1227,-4.42,2022-08-17 14:11:22.453125
1228,-3.65,2022-08-17 14:11:22.468750
1229,-2.94,2022-08-17 14:11:22.484375
1230,-2.05,2022-08-17 14:11:22.500000
1231,-0.92,2022-08-17 14:11:22.515625
1232,0.31,2022-08-17 14:11:22.531250
1233,1.4,2022-08-17 14:11:22.546875
1234,2.14,2022-08-17 14:11:22.562500
1235,2.5,2022-08-17 14:11:22.578125
1236,2.6,2022-08-17 14:11:22.593750
1237,2.55,2022-08-17 14:11:22.609375
1238,2.42,2022-08-17 14:11:22.625000
1239,2.22,2022-08-17 14:11:22.640625
1240,1.94,2022-08-17 14:11:22.656250
1241,1.64,2022-08-17 14:11:22.671875
1242,1.48,2022-08-17 14:11:22.687500
1243,1.63,2022-08-17 14:11:22.703125
1244,2.2,2022-08-17 14:11:22.718750
1245,3.12,2022-08-17 14:11:22.734375
1246,4.27,2022-08-17 14:11:22.750000
1247,5.42,2022-08-17 14:11:22.765625
1248,6.39,2022-08-17 14:11:22.781250
1249,7.03,2022-08-17 14:11:22.796875
1250,7.24,2022-08-17 14:11:22.812500
1251,7.01,2022-08-17 14:11:22.828125
1252,6.39,2022-08-17 14:11:22.843750
1253,5.55,2022-08-17 14:11:22.859375
1254,4.72,2022-08-17 14:11:22.875000
1255,4.15,2022-08-17 14:11:22.890625
1256,3.95,2022-08-17 14:11:22.906250
1257,4.12,2022-08-17 14:11:22.921875
1258,4.48,2022-08-17 14:11:22.937500
1259,4.81,2022-08-17 14:11:22.953125
1260,4.94,2022-08-17 14:11:22.968750
1261,4.83,2022-08-17 14:11:22.984375
1262,4.53,2022-08-17 14:11:23.000000
1263,4.16,2022-08-17 14:11:23.015625
1264,3.85,2022-08-17 14:11:23.031250
1265,3.68,2022-08-17 14:11:23.046875
1266,3.7,2022-08-17 14:11:23.062500
1267,3.87,2022-08-17 14:11:23.078125
1268,4.15,2022-08-17 14:11:23.093750
1269,4.46,2022-08-17 14:11:23.109375
1270,4.75,2022-08-17 14:11:23.125000
1271,4.94,2022-08-17 14:11:23.140625
1272,4.98,2022-08-17 14:11:23.156250
1273,4.86,2022-08-17 14:11:23.171875
1274,4.61,2022-08-17 14:11:23.187500
1275,4.37,2022-08-17 14:11:23.203125
1276,4.31,2022-08-17 14:11:23.218750
1277,4.6,2022-08-17 14:11:23.234375
1278,5.27,2022-08-17 14:11:23.250000
1279,6.11,2022-08-17 14:11:23.265625
1280,6.65,2022-08-17 14:11:23.281250
1281,6.35,2022-08-17 14:11:23.296875
1282,4.75,2022-08-17 14:11:23.312500
1283,1.74,2022-08-17 14:11:23.328125
1284,-2.31,2022-08-17 14:11:23.343750
1285,-6.68,2022-08-17 14:11:23.359375
1286,-10.56,2022-08-17 14:11:23.375000
1287,-13.35,2022-08-17 14:11:23.390625
1288,-14.79,2022-08-17 14:11:23.406250
1289,-15.07,2022-08-17 14:11:23.421875
1290,-14.55,2022-08-17 14:11:23.437500
1291,-13.62,2022-08-17 14:11:23.453125
1292,-12.53,2022-08-17 14:11:23.468750
1293,-11.33,2022-08-17 14:11:23.484375
1294,-10.06,2022-08-17 14:11:23.500000
1295,-8.75,2022-08-17 14:11:23.515625
1296,-7.48,2022-08-17 14:11:23.531250
1297,-6.35,2022-08-17 14:11:23.546875
1298,-5.38,2022-08-17 14:11:23.562500
1299,-4.51,2022-08-17 14:11:23.578125
1300,-3.67,2022-08-17 14:11:23.593750
1301,-2.76,2022-08-17 14:11:23.609375
1302,-1.78,2022-08-17 14:11:23.625000
1303,-0.79,2022-08-17 14:11:23.640625
1304,0.08,2022-08-17 14:11:23.656250
1305,0.72,2022-08-17 14:11:23.671875
1306,1.04,2022-08-17 14:11:23.687500
1307,1.06,2022-08-17 14:11:23.703125
1308,0.88,2022-08-17 14:11:23.718750
1309,0.69,2022-08-17 14:11:23.734375
1310,0.65,2022-08-17 14:11:23.750000
1311,0.88,2022-08-17 14:11:23.765625
1312,1.35,2022-08-17 14:11:23.781250
1313,1.9,2022-08-17 14:11:23.796875
1314,2.34,2022-08-17 14:11:23.812500
1315,2.55,2022-08-17 14:11:23.828125
1316,2.51,2022-08-17 14:11:23.843750
1317,2.36,2022-08-17 14:11:23.859375
1318,2.27,2022-08-17 14:11:23.875000
1319,2.34,2022-08-17 14:11:23.890625
1320,2.58,2022-08-17 14:11:23.906250
1321,2.89,2022-08-17 14:11:23.921875
1322,3.15,2022-08-17 14:11:23.937500
1323,3.3,2022-08-17 14:11:23.953125
1324,3.32,2022-08-17 14:11:23.968750
1325,3.28,2022-08-17 14:11:23.984375
1326,3.26,2022-08-17 14:11:24.000000
1327,3.32,2022-08-17 14:11:24.015625
1328,3.46,2022-08-17 14:11:24.031250
1329,3.62,2022-08-17 14:11:24.046875
1330,3.68,2022-08-17 14:11:24.062500
1331,3.54,2022-08-17 14:11:24.078125
1332,3.2,2022-08-17 14:11:24.093750
1333,2.72,2022-08-17 14:11:24.109375
1334,2.32,2022-08-17 14:11:24.125000
1335,2.17,2022-08-17 14:11:24.140625
1336,2.35,2022-08-17 14:11:24.156250
1337,2.82,2022-08-17 14:11:24.171875
1338,3.41,2022-08-17 14:11:24.187500
1339,3.89,2022-08-17 14:11:24.203125
1340,4.15,2022-08-17 14:11:24.218750
1341,4.18,2022-08-17 14:11:24.234375
1342,4.01,2022-08-17 14:11:24.250000
1343,3.72,2022-08-17 14:11:24.265625
1344,3.35,2022-08-17 14:11:24.281250
1345,2.95,2022-08-17 14:11:24.296875
1346,2.64,2022-08-17 14:11:24.312500
1347,2.63,2022-08-17 14:11:24.328125
1348,3.1,2022-08-17 14:11:24.343750
1349,4.13,2022-08-17 14:11:24.359375
1350,5.49,2022-08-17 14:11:24.375000
1351,6.61,2022-08-17 14:11:24.390625
1352,6.79,2022-08-17 14:11:24.406250
1353,5.42,2022-08-17 14:11:24.421875
1354,2.34,2022-08-17 14:11:24.437500
1355,-2.04,2022-08-17 14:11:24.453125
1356,-6.83,2022-08-17 14:11:24.468750
1357,-11.04,2022-08-17 14:11:24.484375
1358,-13.92,2022-08-17 14:11:24.500000
1359,-15.22,2022-08-17 14:11:24.515625
1360,-15.19,2022-08-17 14:11:24.531250
1361,-14.34,2022-08-17 14:11:24.546875
1362,-13.17,2022-08-17 14:11:24.562500
1363,-11.93,2022-08-17 14:11:24.578125
1364,-10.69,2022-08-17 14:11:24.593750
1365,-9.37,2022-08-17 14:11:24.609375
1366,-7.93,2022-08-17 14:11:24.625000
1367,-6.46,2022-08-17 14:11:24.640625
1368,-5.1,2022-08-17 14:11:24.656250
1369,-3.99,2022-08-17 14:11:24.671875
1370,-3.17,2022-08-17 14:11:24.687500
1371,-2.55,2022-08-17 14:11:24.703125
1372,-2.0,2022-08-17 14:11:24.718750
1373,-1.36,2022-08-17 14:11:24.734375
1374,-0.59,2022-08-17 14:11:24.750000
1375,0.26,2022-08-17 14:11:24.765625
1376,1.02,2022-08-17 14:11:24.781250
1377,1.52,2022-08-17 14:11:24.796875
1378,1.64,2022-08-17 14:11:24.812500
1379,1.4,2022-08-17 14:11:24.828125
1380,0.98,2022-08-17 14:11:24.843750
1381,0.66,2022-08-17 14:11:24.859375
1382,0.68,2022-08-17 14:11:24.875000
1383,1.15,2022-08-17 14:11:24.890625
1384,2.0,2022-08-17 14:11:24.906250
1385,3.01,2022-08-17 14:11:24.921875
1386,3.92,2022-08-17 14:11:24.937500
1387,4.53,2022-08-17 14:11:24.953125
1388,4.78,2022-08-17 14:11:24.968750
1389,4.72,2022-08-17 14:11:24.984375
1390,4.48,2022-08-17 14:11:25.000000
1391,4.22,2022-08-17 14:11:25.015625
1392,4.07,2022-08-17 14:11:25.031250
1393,4.1,2022-08-17 14:11:25.046875
1394,4.31,2022-08-17 14:11:25.062500
1395,4.65,2022-08-17 14:11:25.078125
1396,5.0,2022-08-17 14:11:25.093750
1397,5.24,2022-08-17 14:11:25.109375
1398,5.32,2022-08-17 14:11:25.125000
1399,5.23,2022-08-17 14:11:25.140625
1400,5.04,2022-08-17 14:11:25.156250
1401,4.78,2022-08-17 14:11:25.171875
1402,4.45,2022-08-17 14:11:25.187500
1403,4.0,2022-08-17 14:11:25.203125
1404,3.41,2022-08-17 14:11:25.218750
1405,2.75,2022-08-17 14:11:25.234375
1406,2.2,2022-08-17 14:11:25.250000
1407,1.92,2022-08-17 14:11:25.265625
1408,2.05,2022-08-17 14:11:25.281250
1409,2.53,2022-08-17 14:11:25.296875
1410,3.17,2022-08-17 14:11:25.312500
1411,3.72,2022-08-17 14:11:25.328125
1412,4.0,2022-08-17 14:11:25.343750
1413,3.98,2022-08-17 14:11:25.359375
1414,3.78,2022-08-17 14:11:25.375000
1415,3.56,2022-08-17 14:11:25.390625
1416,3.46,2022-08-17 14:11:25.406250
1417,3.49,2022-08-17 14:11:25.421875
1418,3.62,2022-08-17 14:11:25.437500
1419,3.87,2022-08-17 14:11:25.453125
1420,4.25,2022-08-17 14:11:25.468750
1421,4.8,2022-08-17 14:11:25.484375
1422,5.38,2022-08-17 14:11:25.500000
1423,5.68,2022-08-17 14:11:25.515625
1424,5.18,2022-08-17 14:11:25.531250
1425,3.48,2022-08-17 14:11:25.546875
1426,0.43,2022-08-17 14:11:25.562500
1427,-3.66,2022-08-17 14:11:25.578125
1428,-8.1,2022-08-17 14:11:25.593750
1429,-12.01,2022-08-17 14:11:25.609375
1430,-14.72,2022-08-17 14:11:25.625000
1431,-15.92,2022-08-17 14:11:25.640625
1432,-15.74,2022-08-17 14:11:25.656250
1433,-14.6,2022-08-17 14:11:25.671875
1434,-12.99,2022-08-17 14:11:25.687500
1435,-11.3,2022-08-17 14:11:25.703125
1436,-9.68,2022-08-17 14:11:25.718750
1437,-8.16,2022-08-17 14:11:25.734375
1438,-6.65,2022-08-17 14:11:25.750000
1439,-5.11,2022-08-17 14:11:25.765625
1440,-3.56,2022-08-17 14:11:25.781250
1441,-2.12,2022-08-17 14:11:25.796875
1442,-0.93,2022-08-17 14:11:25.812500
1443,-0.11,2022-08-17 14:11:25.828125
1444,0.28,2022-08-17 14:11:25.843750
1445,0.32,2022-08-17 14:11:25.859375
1446,0.19,2022-08-17 14:11:25.875000
1447,0.03,2022-08-17 14:11:25.890625
1448,-0.04,2022-08-17 14:11:25.906250
1449,-0.02,2022-08-17 14:11:25.921875
1450,0.04,2022-08-17 14:11:25.937500
1451,0.12,2022-08-17 14:11:25.953125
1452,0.25,2022-08-17 14:11:25.968750
1453,0.52,2022-08-17 14:11:25.984375
1454,1.0,2022-08-17 14:11:26.000000
1455,1.64,2022-08-17 14:11:26.015625
1456,2.29,2022-08-17 14:11:26.031250
1457,2.72,2022-08-17 14:11:26.046875
1458,2.79,2022-08-17 14:11:26.062500
1459,2.53,2022-08-17 14:11:26.078125
1460,2.15,2022-08-17 14:11:26.093750
1461,1.92,2022-08-17 14:11:26.109375
1462,2.03,2022-08-17 14:11:26.125000
1463,2.5,2022-08-17 14:11:26.140625
1464,3.1,2022-08-17 14:11:26.156250
1465,3.58,2022-08-17 14:11:26.171875
1466,3.74,2022-08-17 14:11:26.187500
1467,3.58,2022-08-17 14:11:26.203125
1468,3.26,2022-08-17 14:11:26.218750
1469,2.99,2022-08-17 14:11:26.234375
1470,2.9,2022-08-17 14:11:26.250000
1471,2.94,2022-08-17 14:11:26.265625
1472,2.94,2022-08-17 14:11:26.281250
1473,2.76,2022-08-17 14:11:26.296875
1474,2.32,2022-08-17 14:11:26.312500
1475,1.73,2022-08-17 14:11:26.328125
1476,1.2,2022-08-17 14:11:26.343750
1477,0.96,2022-08-17 14:11:26.359375
1478,1.13,2022-08-17 14:11:26.375000
1479,1.71,2022-08-17 14:11:26.390625
1480,2.55,2022-08-17 14:11:26.406250
1481,3.48,2022-08-17 14:11:26.421875
1482,4.27,2022-08-17 14:11:26.437500
1483,4.79,2022-08-17 14:11:26.453125
1484,4.97,2022-08-17 14:11:26.468750
1485,4.82,2022-08-17 14:11:26.484375
1486,4.45,2022-08-17 14:11:26.500000
1487,4.02,2022-08-17 14:11:26.515625
1488,3.75,2022-08-17 14:11:26.531250
1489,3.81,2022-08-17 14:11:26.546875
1490,4.24,2022-08-17 14:11:26.562500
1491,4.89,2022-08-17 14:11:26.578125
1492,5.36,2022-08-17 14:11:26.593750
1493,5.2,2022-08-17 14:11:26.609375
1494,3.98,2022-08-17 14:11:26.625000
1495,1.57,2022-08-17 14:11:26.640625
1496,-1.76,2022-08-17 14:11:26.656250
1497,-5.45,2022-08-17 14:11:26.671875
1498,-8.8,2022-08-17 14:11:26.687500
1499,-11.21,2022-08-17 14:11:26.703125
1500,-12.41,2022-08-17 14:11:26.718750
1501,-12.45,2022-08-17 14:11:26.734375
1502,-11.63,2022-08-17 14:11:26.750000
1503,-10.32,2022-08-17 14:11:26.765625
1504,-8.84,2022-08-17 14:11:26.781250
1505,-7.39,2022-08-17 14:11:26.796875
1506,-6.04,2022-08-17 14:11:26.812500
1507,-4.84,2022-08-17 14:11:26.828125
1508,-3.77,2022-08-17 14:11:26.843750
1509,-2.82,2022-08-17 14:11:26.859375
1510,-1.94,2022-08-17 14:11:26.875000
1511,-1.1,2022-08-17 14:11:26.890625
1512,-0.25,2022-08-17 14:11:26.906250
1513,0.57,2022-08-17 14:11:26.921875
1514,1.3,2022-08-17 14:11:26.937500
1515,1.86,2022-08-17 14:11:26.953125
1516,2.19,2022-08-17 14:11:26.968750
1517,2.3,2022-08-17 14:11:26.984375
1518,2.23,2022-08-17 14:11:27.000000
1519,2.07,2022-08-17 14:11:27.015625
1520,1.88,2022-08-17 14:11:27.031250
1521,1.76,2022-08-17 14:11:27.046875
1522,1.79,2022-08-17 14:11:27.062500
1523,2.03,2022-08-17 14:11:27.078125
1524,2.51,2022-08-17 14:11:27.093750
1525,3.18,2022-08-17 14:11:27.109375
1526,3.96,2022-08-17 14:11:27.125000
1527,4.68,2022-08-17 14:11:27.140625
1528,5.17,2022-08-17 14:11:27.156250
1529,5.31,2022-08-17 14:11:27.171875
1530,5.14,2022-08-17 14:11:27.187500
1531,4.74,2022-08-17 14:11:27.203125
1532,4.32,2022-08-17 14:11:27.218750
1533,4.04,2022-08-17 14:11:27.234375
1534,4.01,2022-08-17 14:11:27.250000
1535,4.21,2022-08-17 14:11:27.265625
1536,4.49,2022-08-17 14:11:27.281250
1537,4.67,2022-08-17 14:11:27.296875
1538,4.58,2022-08-17 14:11:27.312500
1539,4.16,2022-08-17 14:11:27.328125
1540,3.47,2022-08-17 14:11:27.343750
1541,2.68,2022-08-17 14:11:27.359375
1542,1.99,2022-08-17 14:11:27.375000
1543,1.56,2022-08-17 14:11:27.390625
1544,1.42,2022-08-17 14:11:27.406250
1545,1.5,2022-08-17 14:11:27.421875
1546,1.64,2022-08-17 14:11:27.437500
1547,1.71,2022-08-17 14:11:27.453125
1548,1.64,2022-08-17 14:11:27.468750
1549,1.49,2022-08-17 14:11:27.484375
1550,1.39,2022-08-17 14:11:27.500000
1551,1.51,2022-08-17 14:11:27.515625
1552,1.96,2022-08-17 14:11:27.531250
1553,2.77,2022-08-17 14:11:27.546875
1554,3.89,2022-08-17 14:11:27.562500
1555,5.1,2022-08-17 14:11:27.578125
1556,6.03,2022-08-17 14:11:27.593750
1557,6.26,2022-08-17 14:11:27.609375
1558,5.37,2022-08-17 14:11:27.625000
1559,3.14,2022-08-17 14:11:27.640625
1560,-0.26,2022-08-17 14:11:27.656250
1561,-4.32,2022-08-17 14:11:27.671875
1562,-8.26,2022-08-17 14:11:27.687500
1563,-11.34,2022-08-17 14:11:27.703125
1564,-13.05,2022-08-17 14:11:27.718750
1565,-13.31,2022-08-17 14:11:27.734375
1566,-12.41,2022-08-17 14:11:27.750000
1567,-10.85,2022-08-17 14:11:27.765625
1568,-9.11,2022-08-17 14:11:27.781250
1569,-7.52,2022-08-17 14:11:27.796875
1570,-6.24,2022-08-17 14:11:27.812500
1571,-5.26,2022-08-17 14:11:27.828125
1572,-4.55,2022-08-17 14:11:27.843750
1573,-4.04,2022-08-17 14:11:27.859375
1574,-3.64,2022-08-17 14:11:27.875000
1575,-3.26,2022-08-17 14:11:27.890625
1576,-2.8,2022-08-17 14:11:27.906250
1577,-2.21,2022-08-17 14:11:27.921875
1578,-1.51,2022-08-17 14:11:27.937500
1579,-0.78,2022-08-17 14:11:27.953125
1580,-0.17,2022-08-17 14:11:27.968750
1581,0.2,2022-08-17 14:11:27.984375
1582,0.27,2022-08-17 14:11:28.000000
1583,0.1,2022-08-17 14:11:28.015625
1584,-0.16,2022-08-17 14:11:28.031250
1585,-0.33,2022-08-17 14:11:28.046875
1586,-0.22,2022-08-17 14:11:28.062500
1587,0.28,2022-08-17 14:11:28.078125
1588,1.18,2022-08-17 14:11:28.093750
1589,2.37,2022-08-17 14:11:28.109375
1590,3.6,2022-08-17 14:11:28.125000
1591,4.59,2022-08-17 14:11:28.140625
1592,5.1,2022-08-17 14:11:28.156250
1593,5.04,2022-08-17 14:11:28.171875
1594,4.51,2022-08-17 14:11:28.187500
1595,3.83,2022-08-17 14:11:28.203125
1596,3.33,2022-08-17 14:11:28.218750
1597,3.25,2022-08-17 14:11:28.234375
1598,3.63,2022-08-17 14:11:28.250000
1599,4.2,2022-08-17 14:11:28.265625
1600,4.57,2022-08-17 14:11:28.281250
1601,4.3,2022-08-17 14:11:28.296875
1602,3.12,2022-08-17 14:11:28.312500
1603,1.0,2022-08-17 14:11:28.328125
1604,-1.75,2022-08-17 14:11:28.343750
1605,-4.62,2022-08-17 14:11:28.359375
1606,-7.08,2022-08-17 14:11:28.375000
1607,-8.76,2022-08-17 14:11:28.390625
1608,-9.6,2022-08-17 14:11:28.406250
1609,-9.88,2022-08-17 14:11:28.421875
1610,-10.06,2022-08-17 14:11:28.437500
1611,-10.56,2022-08-17 14:11:28.453125
1612,-11.58,2022-08-17 14:11:28.468750
1613,-12.99,2022-08-17 14:11:28.484375
1614,-14.43,2022-08-17 14:11:28.500000
1615,-15.51,2022-08-17 14:11:28.515625
1616,-16.01,2022-08-17 14:11:28.531250
1617,-16.07,2022-08-17 14:11:28.546875
1618,-16.11,2022-08-17 14:11:28.562500
1619,-16.71,2022-08-17 14:11:28.578125
1620,-18.31,2022-08-17 14:11:28.593750
1621,-21.11,2022-08-17 14:11:28.609375
1622,-24.94,2022-08-17 14:11:28.625000
1623,-29.5,2022-08-17 14:11:28.640625
1624,-34.48,2022-08-17 14:11:28.656250
1625,-39.73,2022-08-17 14:11:28.671875
1626,-45.25,2022-08-17 14:11:28.687500
1627,-51.0,2022-08-17 14:11:28.703125
1628,-56.92,2022-08-17 14:11:28.718750
1629,-62.84,2022-08-17 14:11:28.734375
1630,-68.58,2022-08-17 14:11:28.750000
1631,-73.88,2022-08-17 14:11:28.765625
1632,-78.36,2022-08-17 14:11:28.781250
1633,-81.15,2022-08-17 14:11:28.796875
1634,-80.85,2022-08-17 14:11:28.812500
1635,-75.82,2022-08-17 14:11:28.828125
1636,-64.76,2022-08-17 14:11:28.843750
1637,-47.69,2022-08-17 14:11:28.859375
1638,-26.21,2022-08-17 14:11:28.875000
1639,-3.39,2022-08-17 14:11:28.890625
1640,17.26,2022-08-17 14:11:28.906250
1641,33.03,2022-08-17 14:11:28.921875
1642,42.87,2022-08-17 14:11:28.937500
1643,47.6,2022-08-17 14:11:28.953125
1644,49.2,2022-08-17 14:11:28.968750
1645,49.86,2022-08-17 14:11:28.984375
1646,51.08,2022-08-17 14:11:29.000000
1647,53.37,2022-08-17 14:11:29.015625
1648,56.49,2022-08-17 14:11:29.031250
1649,59.88,2022-08-17 14:11:29.046875
1650,63.11,2022-08-17 14:11:29.062500
1651,66.05,2022-08-17 14:11:29.078125
1652,68.72,2022-08-17 14:11:29.093750
1653,71.19,2022-08-17 14:11:29.109375
1654,73.4,2022-08-17 14:11:29.125000
1655,75.14,2022-08-17 14:11:29.140625
1656,76.23,2022-08-17 14:11:29.156250
1657,76.52,2022-08-17 14:11:29.171875
1658,76.04,2022-08-17 14:11:29.187500
1659,74.91,2022-08-17 14:11:29.203125
1660,73.33,2022-08-17 14:11:29.218750
1661,71.54,2022-08-17 14:11:29.234375
1662,69.8,2022-08-17 14:11:29.250000
1663,68.4,2022-08-17 14:11:29.265625
1664,67.63,2022-08-17 14:11:29.281250
1665,67.73,2022-08-17 14:11:29.296875
1666,68.73,2022-08-17 14:11:29.312500
1667,70.38,2022-08-17 14:11:29.328125
1668,71.98,2022-08-17 14:11:29.343750
1669,72.43,2022-08-17 14:11:29.359375
1670,70.41,2022-08-17 14:11:29.375000
1671,64.77,2022-08-17 14:11:29.390625
1672,54.98,2022-08-17 14:11:29.406250
1673,41.47,2022-08-17 14:11:29.421875
1674,25.71,2022-08-17 14:11:29.437500
1675,9.87,2022-08-17 14:11:29.453125
1676,-3.89,2022-08-17 14:11:29.468750
1677,-14.11,2022-08-17 14:11:29.484375
1678,-20.59,2022-08-17 14:11:29.500000
1679,-24.3,2022-08-17 14:11:29.515625
1680,-26.95,2022-08-17 14:11:29.531250
1681,-30.18,2022-08-17 14:11:29.546875
1682,-34.9,2022-08-17 14:11:29.562500
1683,-40.93,2022-08-17 14:11:29.578125
1684,-47.19,2022-08-17 14:11:29.593750
1685,-52.24,2022-08-17 14:11:29.609375
1686,-54.89,2022-08-17 14:11:29.625000
1687,-54.75,2022-08-17 14:11:29.640625
1688,-52.26,2022-08-17 14:11:29.656250
1689,-48.38,2022-08-17 14:11:29.671875
1690,-44.08,2022-08-17 14:11:29.687500
1691,-39.89,2022-08-17 14:11:29.703125
1692,-35.79,2022-08-17 14:11:29.718750
1693,-31.43,2022-08-17 14:11:29.734375
1694,-26.57,2022-08-17 14:11:29.750000
1695,-21.37,2022-08-17 14:11:29.765625
1696,-16.46,2022-08-17 14:11:29.781250
1697,-12.58,2022-08-17 14:11:29.796875
1698,-10.16,2022-08-17 14:11:29.812500
1699,-9.06,2022-08-17 14:11:29.828125
1700,-8.64,2022-08-17 14:11:29.843750
1701,-8.14,2022-08-17 14:11:29.859375
1702,-7.07,2022-08-17 14:11:29.875000
1703,-5.46,2022-08-17 14:11:29.890625
1704,-3.79,2022-08-17 14:11:29.906250
1705,-2.62,2022-08-17 14:11:29.921875
1706,-2.28,2022-08-17 14:11:29.937500
1707,-2.65,2022-08-17 14:11:29.953125
1708,-3.32,2022-08-17 14:11:29.968750
1709,-3.74,2022-08-17 14:11:29.984375
1710,-3.56,2022-08-17 14:11:30.000000
1711,-2.76,2022-08-17 14:11:30.015625
1712,-1.59,2022-08-17 14:11:30.031250
1713,-0.44,2022-08-17 14:11:30.046875
1714,0.33,2022-08-17 14:11:30.062500
1715,0.57,2022-08-17 14:11:30.078125
1716,0.32,2022-08-17 14:11:30.093750
1717,-0.2,2022-08-17 14:11:30.109375
1718,-0.69,2022-08-17 14:11:30.125000
1719,-0.9,2022-08-17 14:11:30.140625
1720,-0.75,2022-08-17 14:11:30.156250
1721,-0.29,2022-08-17 14:11:30.171875
1722,0.32,2022-08-17 14:11:30.187500
1723,0.93,2022-08-17 14:11:30.203125
1724,1.44,2022-08-17 14:11:30.218750
1725,1.84,2022-08-17 14:11:30.234375
1726,2.19,2022-08-17 14:11:30.250000
1727,2.53,2022-08-17 14:11:30.265625
1728,2.87,2022-08-17 14:11:30.281250
1729,3.15,2022-08-17 14:11:30.296875
1730,3.33,2022-08-17 14:11:30.312500
1731,3.41,2022-08-17 14:11:30.328125
1732,3.44,2022-08-17 14:11:30.343750
1733,3.48,2022-08-17 14:11:30.359375
1734,3.52,2022-08-17 14:11:30.375000
1735,3.49,2022-08-17 14:11:30.390625
1736,3.29,2022-08-17 14:11:30.406250
1737,2.87,2022-08-17 14:11:30.421875
1738,2.28,2022-08-17 14:11:30.437500
1739,1.63,2022-08-17 14:11:30.453125
1740,1.07,2022-08-17 14:11:30.468750
1741,0.7,2022-08-17 14:11:30.484375
1742,0.51,2022-08-17 14:11:30.500000
1743,0.41,2022-08-17 14:11:30.515625
1744,0.31,2022-08-17 14:11:30.531250
1745,0.14,2022-08-17 14:11:30.546875
1746,-0.06,2022-08-17 14:11:30.562500
1747,-0.25,2022-08-17 14:11:30.578125
1748,-0.33,2022-08-17 14:11:30.593750
1749,-0.3,2022-08-17 14:11:30.609375
1750,-0.19,2022-08-17 14:11:30.625000
1751,0.05,2022-08-17 14:11:30.640625
1752,0.48,2022-08-17 14:11:30.656250
1753,1.14,2022-08-17 14:11:30.671875
1754,2.01,2022-08-17 14:11:30.687500
1755,2.8,2022-08-17 14:11:30.703125
1756,3.06,2022-08-17 14:11:30.718750
1757,2.27,2022-08-17 14:11:30.734375
1758,0.18,2022-08-17 14:11:30.750000
1759,-3.09,2022-08-17 14:11:30.765625
1760,-6.95,2022-08-17 14:11:30.781250
1761,-10.6,2022-08-17 14:11:30.796875
1762,-13.32,2022-08-17 14:11:30.812500
1763,-14.73,2022-08-17 14:11:30.828125
1764,-14.87,2022-08-17 14:11:30.843750
1765,-14.05,2022-08-17 14:11:30.859375
1766,-12.66,2022-08-17 14:11:30.875000
1767,-11.03,2022-08-17 14:11:30.890625
1768,-9.35,2022-08-17 14:11:30.906250
1769,-7.8,2022-08-17 14:11:30.921875
1770,-6.52,2022-08-17 14:11:30.937500
1771,-5.65,2022-08-17 14:11:30.953125
1772,-5.23,2022-08-17 14:11:30.968750
1773,-5.2,2022-08-17 14:11:30.984375
1774,-5.35,2022-08-17 14:11:31.000000
1775,-5.45,2022-08-17 14:11:31.015625
1776,-5.36,2022-08-17 14:11:31.031250
1777,-5.02,2022-08-17 14:11:31.046875
1778,-4.53,2022-08-17 14:11:31.062500
1779,-4.03,2022-08-17 14:11:31.078125
1780,-3.63,2022-08-17 14:11:31.093750
1781,-3.37,2022-08-17 14:11:31.109375
1782,-3.25,2022-08-17 14:11:31.125000
1783,-3.2,2022-08-17 14:11:31.140625
1784,-3.13,2022-08-17 14:11:31.156250
1785,-2.96,2022-08-17 14:11:31.171875
1786,-2.58,2022-08-17 14:11:31.187500
1787,-1.93,2022-08-17 14:11:31.203125
1788,-0.98,2022-08-17 14:11:31.218750
1789,0.17,2022-08-17 14:11:31.234375
1790,1.31,2022-08-17 14:11:31.250000
1791,2.21,2022-08-17 14:11:31.265625
1792,2.71,2022-08-17 14:11:31.281250
1793,2.8,2022-08-17 14:11:31.296875
1794,2.62,2022-08-17 14:11:31.312500
1795,2.42,2022-08-17 14:11:31.328125
1796,2.4,2022-08-17 14:11:31.343750
1797,2.6,2022-08-17 14:11:31.359375
1798,2.95,2022-08-17 14:11:31.375000
1799,3.25,2022-08-17 14:11:31.390625
1800,3.36,2022-08-17 14:11:31.406250
1801,3.24,2022-08-17 14:11:31.421875
1802,2.97,2022-08-17 14:11:31.437500
1803,2.73,2022-08-17 14:11:31.453125
1804,2.68,2022-08-17 14:11:31.468750
1805,2.92,2022-08-17 14:11:31.484375
1806,3.41,2022-08-17 14:11:31.500000
1807,4.04,2022-08-17 14:11:31.515625
1808,4.61,2022-08-17 14:11:31.531250
1809,4.94,2022-08-17 14:11:31.546875
1810,4.9,2022-08-17 14:11:31.562500
1811,4.46,2022-08-17 14:11:31.578125
1812,3.7,2022-08-17 14:11:31.593750
1813,2.82,2022-08-17 14:11:31.609375
1814,2.1,2022-08-17 14:11:31.625000
1815,1.75,2022-08-17 14:11:31.640625
1816,1.92,2022-08-17 14:11:31.656250
1817,2.62,2022-08-17 14:11:31.671875
1818,3.68,2022-08-17 14:11:31.687500
1819,4.76,2022-08-17 14:11:31.703125
1820,5.4,2022-08-17 14:11:31.718750
1821,5.12,2022-08-17 14:11:31.734375
1822,3.57,2022-08-17 14:11:31.750000
1823,0.77,2022-08-17 14:11:31.765625
1824,-2.89,2022-08-17 14:11:31.781250
1825,-6.73,2022-08-17 14:11:31.796875
1826,-9.97,2022-08-17 14:11:31.812500
1827,-12.04,2022-08-17 14:11:31.828125
1828,-12.71,2022-08-17 14:11:31.843750
1829,-12.13,2022-08-17 14:11:31.859375
1830,-10.71,2022-08-17 14:11:31.875000
1831,-8.9,2022-08-17 14:11:31.890625
1832,-7.06,2022-08-17 14:11:31.906250
1833,-5.41,2022-08-17 14:11:31.921875
1834,-4.05,2022-08-17 14:11:31.937500
1835,-3.01,2022-08-17 14:11:31.953125
1836,-2.24,2022-08-17 14:11:31.968750
1837,-1.71,2022-08-17 14:11:31.984375
1838,-1.36,2022-08-17 14:11:32.000000
1839,-1.08,2022-08-17 14:11:32.015625
1840,-0.83,2022-08-17 14:11:32.031250
1841,-0.59,2022-08-17 14:11:32.046875
1842,-0.36,2022-08-17 14:11:32.062500
1843,-0.2,2022-08-17 14:11:32.078125
1844,-0.17,2022-08-17 14:11:32.093750
1845,-0.32,2022-08-17 14:11:32.109375
1846,-0.61,2022-08-17 14:11:32.125000
1847,-0.99,2022-08-17 14:11:32.140625
1848,-1.31,2022-08-17 14:11:32.156250
1849,-1.42,2022-08-17 14:11:32.171875
1850,-1.21,2022-08-17 14:11:32.187500
1851,-0.66,2022-08-17 14:11:32.203125
1852,0.2,2022-08-17 14:11:32.218750
1853,1.25,2022-08-17 14:11:32.234375
1854,2.36,2022-08-17 14:11:32.250000
1855,3.44,2022-08-17 14:11:32.265625
1856,4.41,2022-08-17 14:11:32.281250
1857,5.24,2022-08-17 14:11:32.296875
1858,5.9,2022-08-17 14:11:32.312500
1859,6.4,2022-08-17 14:11:32.328125
1860,6.71,2022-08-17 14:11:32.343750
1861,6.83,2022-08-17 14:11:32.359375
1862,6.74,2022-08-17 14:11:32.375000
1863,6.41,2022-08-17 14:11:32.390625
1864,5.82,2022-08-17 14:11:32.406250
1865,5.03,2022-08-17 14:11:32.421875
1866,4.15,2022-08-17 14:11:32.437500
1867,3.37,2022-08-17 14:11:32.453125
1868,2.9,2022-08-17 14:11:32.468750
1869,2.84,2022-08-17 14:11:32.484375
1870,3.14,2022-08-17 14:11:32.500000
1871,3.59,2022-08-17 14:11:32.515625
1872,3.93,2022-08-17 14:11:32.531250
1873,3.95,2022-08-17 14:11:32.546875
1874,3.6,2022-08-17 14:11:32.562500
1875,3.04,2022-08-17 14:11:32.578125
1876,2.61,2022-08-17 14:11:32.593750
1877,2.61,2022-08-17 14:11:32.609375
1878,3.26,2022-08-17 14:11:32.625000
1879,4.47,2022-08-17 14:11:32.640625
1880,5.88,2022-08-17 14:11:32.656250
1881,6.87,2022-08-17 14:11:32.671875
1882,6.8,2022-08-17 14:11:32.687500
1883,5.23,2022-08-17 14:11:32.703125
1884,2.17,2022-08-17 14:11:32.718750
1885,-1.88,2022-08-17 14:11:32.734375
1886,-6.04,2022-08-17 14:11:32.750000
1887,-9.38,2022-08-17 14:11:32.765625
1888,-11.28,2022-08-17 14:11:32.781250
1889,-11.61,2022-08-17 14:11:32.796875
1890,-10.75,2022-08-17 14:11:32.812500
1891,-9.3,2022-08-17 14:11:32.828125
1892,-7.86,2022-08-17 14:11:32.843750
1893,-6.71,2022-08-17 14:11:32.859375
1894,-5.85,2022-08-17 14:11:32.875000
1895,-5.14,2022-08-17 14:11:32.890625
1896,-4.39,2022-08-17 14:11:32.906250
1897,-3.56,2022-08-17 14:11:32.921875
1898,-2.7,2022-08-17 14:11:32.937500
1899,-1.91,2022-08-17 14:11:32.953125
1900,-1.27,2022-08-17 14:11:32.968750
1901,-0.8,2022-08-17 14:11:32.984375
1902,-0.46,2022-08-17 14:11:33.000000
1903,-0.23,2022-08-17 14:11:33.015625
1904,-0.12,2022-08-17 14:11:33.031250
1905,-0.14,2022-08-17 14:11:33.046875
1906,-0.34,2022-08-17 14:11:33.062500
1907,-0.67,2022-08-17 14:11:33.078125
1908,-1.01,2022-08-17 14:11:33.093750
1909,-1.19,2022-08-17 14:11:33.109375
1910,-1.09,2022-08-17 14:11:33.125000
1911,-0.67,2022-08-17 14:11:33.140625
1912,-0.06,2022-08-17 14:11:33.156250
1913,0.59,2022-08-17 14:11:33.171875
1914,1.16,2022-08-17 14:11:33.187500
1915,1.66,2022-08-17 14:11:33.203125
1916,2.21,2022-08-17 14:11:33.218750
1917,2.9,2022-08-17 14:11:33.234375
1918,3.74,2022-08-17 14:11:33.250000
1919,4.57,2022-08-17 14:11:33.265625
1920,5.21,2022-08-17 14:11:33.281250
1921,5.52,2022-08-17 14:11:33.296875
1922,5.55,2022-08-17 14:11:33.312500
1923,5.48,2022-08-17 14:11:33.328125
1924,5.52,2022-08-17 14:11:33.343750
1925,5.76,2022-08-17 14:11:33.359375
1926,6.08,2022-08-17 14:11:33.375000
1927,6.27,2022-08-17 14:11:33.390625
1928,6.14,2022-08-17 14:11:33.406250
1929,5.65,2022-08-17 14:11:33.421875
1930,4.9,2022-08-17 14:11:33.437500
1931,4.11,2022-08-17 14:11:33.453125
1932,3.43,2022-08-17 14:11:33.468750
1933,2.94,2022-08-17 14:11:33.484375
1934,2.65,2022-08-17 14:11:33.500000
1935,2.57,2022-08-17 14:11:33.515625
1936,2.78,2022-08-17 14:11:33.531250
1937,3.39,2022-08-17 14:11:33.546875
1938,4.38,2022-08-17 14:11:33.562500
1939,5.5,2022-08-17 14:11:33.578125
1940,6.27,2022-08-17 14:11:33.593750
1941,6.1,2022-08-17 14:11:33.609375
1942,4.58,2022-08-17 14:11:33.625000
1943,1.63,2022-08-17 14:11:33.640625
1944,-2.33,2022-08-17 14:11:33.656250
1945,-6.57,2022-08-17 14:11:33.671875
1946,-10.23,2022-08-17 14:11:33.687500
1947,-12.63,2022-08-17 14:11:33.703125
1948,-13.48,2022-08-17 14:11:33.718750
1949,-12.86,2022-08-17 14:11:33.734375
1950,-11.12,2022-08-17 14:11:33.750000
1951,-8.81,2022-08-17 14:11:33.765625
1952,-6.42,2022-08-17 14:11:33.781250
1953,-4.35,2022-08-17 14:11:33.796875
1954,-2.85,2022-08-17 14:11:33.812500
1955,-2.01,2022-08-17 14:11:33.828125
1956,-1.75,2022-08-17 14:11:33.843750
1957,-1.92,2022-08-17 14:11:33.859375
1958,-2.29,2022-08-17 14:11:33.875000
1959,-2.66,2022-08-17 14:11:33.890625
1960,-2.87,2022-08-17 14:11:33.906250
1961,-2.84,2022-08-17 14:11:33.921875
1962,-2.57,2022-08-17 14:11:33.937500
1963,-2.14,2022-08-17 14:11:33.953125
1964,-1.68,2022-08-17 14:11:33.968750
1965,-1.3,2022-08-17 14:11:33.984375
1966,-1.13,2022-08-17 14:11:34.000000
1967,-1.2,2022-08-17 14:11:34.015625
1968,-1.5,2022-08-17 14:11:34.031250
1969,-1.9,2022-08-17 14:11:34.046875
1970,-2.22,2022-08-17 14:11:34.062500
1971,-2.3,2022-08-17 14:11:34.078125
1972,-2.05,2022-08-17 14:11:34.093750
1973,-1.46,2022-08-17 14:11:34.109375
1974,-0.65,2022-08-17 14:11:34.125000
1975,0.19,2022-08-17 14:11:34.140625
1976,0.89,2022-08-17 14:11:34.156250
1977,1.31,2022-08-17 14:11:34.171875
1978,1.45,2022-08-17 14:11:34.187500
1979,1.38,2022-08-17 14:11:34.203125
1980,1.26,2022-08-17 14:11:34.218750
1981,1.25,2022-08-17 14:11:34.234375
1982,1.47,2022-08-17 14:11:34.250000
1983,1.91,2022-08-17 14:11:34.265625
1984,2.45,2022-08-17 14:11:34.281250
1985,2.88,2022-08-17 14:11:34.296875
1986,2.99,2022-08-17 14:11:34.312500
1987,2.65,2022-08-17 14:11:34.328125
1988,1.9,2022-08-17 14:11:34.343750
1989,0.91,2022-08-17 14:11:34.359375
1990,0.0,2022-08-17 14:11:34.375000
1991,-0.56,2022-08-17 14:11:34.390625
1992,-0.65,2022-08-17 14:11:34.406250
1993,-0.32,2022-08-17 14:11:34.421875
1994,0.2,2022-08-17 14:11:34.437500
1995,0.67,2022-08-17 14:11:34.453125
1996,0.91,2022-08-17 14:11:34.468750
1997,0.92,2022-08-17 14:11:34.484375
1998,0.84,2022-08-17 14:11:34.500000
1999,0.83,2022-08-17 14:11:34.515625
2000,1.01,2022-08-17 14:11:34.531250
2001,1.42,2022-08-17 14:11:34.546875
2002,2.04,2022-08-17 14:11:34.562500
2003,2.86,2022-08-17 14:11:34.578125
2004,3.81,2022-08-17 14:11:34.593750
2005,4.75,2022-08-17 14:11:34.609375
2006,5.35,2022-08-17 14:11:34.625000
2007,5.17,2022-08-17 14:11:34.640625
2008,3.78,2022-08-17 14:11:34.656250
2009,1.06,2022-08-17 14:11:34.671875
2010,-2.69,2022-08-17 14:11:34.687500
2011,-6.79,2022-08-17 14:11:34.703125
2012,-10.39,2022-08-17 14:11:34.718750
2013,-12.83,2022-08-17 14:11:34.734375
2014,-13.84,2022-08-17 14:11:34.750000
2015,-13.55,2022-08-17 14:11:34.765625
2016,-12.37,2022-08-17 14:11:34.781250
2017,-10.75,2022-08-17 14:11:34.796875
2018,-9.01,2022-08-17 14:11:34.812500
2019,-7.35,2022-08-17 14:11:34.828125
2020,-5.89,2022-08-17 14:11:34.843750
2021,-4.74,2022-08-17 14:11:34.859375
2022,-3.97,2022-08-17 14:11:34.875000
2023,-3.58,2022-08-17 14:11:34.890625
2024,-3.43,2022-08-17 14:11:34.906250
2025,-3.33,2022-08-17 14:11:34.921875
2026,-3.06,2022-08-17 14:11:34.937500
2027,-2.54,2022-08-17 14:11:34.953125
2028,-1.84,2022-08-17 14:11:34.968750
2029,-1.11,2022-08-17 14:11:34.984375
2030,-0.51,2022-08-17 14:11:35.000000
2031,-0.13,2022-08-17 14:11:35.015625
2032,0.02,2022-08-17 14:11:35.031250
2033,-0.02,2022-08-17 14:11:35.046875
2034,-0.22,2022-08-17 14:11:35.062500
2035,-0.53,2022-08-17 14:11:35.078125
2036,-0.88,2022-08-17 14:11:35.093750
2037,-1.16,2022-08-17 14:11:35.109375
2038,-1.23,2022-08-17 14:11:35.125000
2039,-1.0,2022-08-17 14:11:35.140625
2040,-0.45,2022-08-17 14:11:35.156250
2041,0.29,2022-08-17 14:11:35.171875
2042,1.05,2022-08-17 14:11:35.187500
2043,1.67,2022-08-17 14:11:35.203125
2044,2.1,2022-08-17 14:11:35.218750
2045,2.35,2022-08-17 14:11:35.234375
2046,2.49,2022-08-17 14:11:35.250000
2047,2.56,2022-08-17 14:11:35.265625
2048,2.54,2022-08-17 14:11:35.281250
2049,2.44,2022-08-17 14:11:35.296875
2050,2.3,2022-08-17 14:11:35.312500
2051,2.22,2022-08-17 14:11:35.328125
2052,2.28,2022-08-17 14:11:35.343750
2053,2.54,2022-08-17 14:11:35.359375
2054,2.9,2022-08-17 14:11:35.375000
2055,3.19,2022-08-17 14:11:35.390625
2056,3.25,2022-08-17 14:11:35.406250
2057,2.98,2022-08-17 14:11:35.421875
2058,2.47,2022-08-17 14:11:35.437500
2059,1.91,2022-08-17 14:11:35.453125
2060,1.55,2022-08-17 14:11:35.468750
2061,1.57,2022-08-17 14:11:35.484375
2062,1.94,2022-08-17 14:11:35.500000
2063,2.47,2022-08-17 14:11:35.515625
2064,2.92,2022-08-17 14:11:35.531250
2065,3.08,2022-08-17 14:11:35.546875
2066,2.94,2022-08-17 14:11:35.562500
2067,2.65,2022-08-17 14:11:35.578125
2068,2.43,2022-08-17 14:11:35.593750
2069,2.45,2022-08-17 14:11:35.609375
2070,2.77,2022-08-17 14:11:35.625000
2071,3.38,2022-08-17 14:11:35.640625
2072,4.15,2022-08-17 14:11:35.656250
2073,4.88,2022-08-17 14:11:35.671875
2074,5.29,2022-08-17 14:11:35.687500
2075,4.99,2022-08-17 14:11:35.703125
2076,3.63,2022-08-17 14:11:35.718750
2077,1.04,2022-08-17 14:11:35.734375
2078,-2.59,2022-08-17 14:11:35.750000
2079,-6.73,2022-08-17 14:11:35.765625
2080,-10.59,2022-08-17 14:11:35.781250
2081,-13.44,2022-08-17 14:11:35.796875
2082,-14.84,2022-08-17 14:11:35.812500
2083,-14.77,2022-08-17 14:11:35.828125
2084,-13.54,2022-08-17 14:11:35.843750
2085,-11.67,2022-08-17 14:11:35.859375
2086,-9.65,2022-08-17 14:11:35.875000
2087,-7.83,2022-08-17 14:11:35.890625
2088,-6.41,2022-08-17 14:11:35.906250
2089,-5.42,2022-08-17 14:11:35.921875
2090,-4.83,2022-08-17 14:11:35.937500
2091,-4.51,2022-08-17 14:11:35.953125
2092,-4.33,2022-08-17 14:11:35.968750
2093,-4.11,2022-08-17 14:11:35.984375
2094,-3.75,2022-08-17 14:11:36.000000
2095,-3.17,2022-08-17 14:11:36.015625
2096,-2.38,2022-08-17 14:11:36.031250
2097,-1.47,2022-08-17 14:11:36.046875
2098,-0.59,2022-08-17 14:11:36.062500
2099,0.13,2022-08-17 14:11:36.078125
2100,0.62,2022-08-17 14:11:36.093750
2101,0.89,2022-08-17 14:11:36.109375
2102,1.03,2022-08-17 14:11:36.125000
2103,1.15,2022-08-17 14:11:36.140625
2104,1.31,2022-08-17 14:11:36.156250
2105,1.54,2022-08-17 14:11:36.171875
2106,1.81,2022-08-17 14:11:36.187500
2107,2.04,2022-08-17 14:11:36.203125
2108,2.16,2022-08-17 14:11:36.218750
2109,2.1,2022-08-17 14:11:36.234375
2110,1.83,2022-08-17 14:11:36.250000
2111,1.43,2022-08-17 14:11:36.265625
2112,1.01,2022-08-17 14:11:36.281250
2113,0.7,2022-08-17 14:11:36.296875
2114,0.64,2022-08-17 14:11:36.312500
2115,0.88,2022-08-17 14:11:36.328125
2116,1.41,2022-08-17 14:11:36.343750
2117,2.15,2022-08-17 14:11:36.359375
2118,2.97,2022-08-17 14:11:36.375000
2119,3.76,2022-08-17 14:11:36.390625
2120,4.44,2022-08-17 14:11:36.406250
2121,4.96,2022-08-17 14:11:36.421875
2122,5.28,2022-08-17 14:11:36.437500
2123,5.39,2022-08-17 14:11:36.453125
2124,5.3,2022-08-17 14:11:36.468750
2125,5.06,2022-08-17 14:11:36.484375
2126,4.72,2022-08-17 14:11:36.500000
2127,4.36,2022-08-17 14:11:36.515625
2128,4.02,2022-08-17 14:11:36.531250
2129,3.72,2022-08-17 14:11:36.546875
2130,3.49,2022-08-17 14:11:36.562500
2131,3.29,2022-08-17 14:11:36.578125
2132,3.1,2022-08-17 14:11:36.593750
2133,2.91,2022-08-17 14:11:36.609375
2134,2.69,2022-08-17 14:11:36.625000
2135,2.46,2022-08-17 14:11:36.640625
2136,2.26,2022-08-17 14:11:36.656250
2137,2.07,2022-08-17 14:11:36.671875
2138,1.87,2022-08-17 14:11:36.687500
2139,1.65,2022-08-17 14:11:36.703125
2140,1.39,2022-08-17 14:11:36.718750
2141,1.16,2022-08-17 14:11:36.734375
2142,1.11,2022-08-17 14:11:36.750000
2143,1.45,2022-08-17 14:11:36.765625
2144,2.36,2022-08-17 14:11:36.781250
2145,3.87,2022-08-17 14:11:36.796875
2146,5.78,2022-08-17 14:11:36.812500
2147,7.61,2022-08-17 14:11:36.828125
2148,8.71,2022-08-17 14:11:36.843750
2149,8.48,2022-08-17 14:11:36.859375
2150,6.61,2022-08-17 14:11:36.875000
2151,3.26,2022-08-17 14:11:36.890625
2152,-0.91,2022-08-17 14:11:36.906250
2153,-4.99,2022-08-17 14:11:36.921875
2154,-8.14,2022-08-17 14:11:36.937500
2155,-9.86,2022-08-17 14:11:36.953125
2156,-10.15,2022-08-17 14:11:36.968750
2157,-9.41,2022-08-17 14:11:36.984375
2158,-8.2,2022-08-17 14:11:37.000000
2159,-6.99,2022-08-17 14:11:37.015625
2160,-6.01,2022-08-17 14:11:37.031250
2161,-5.28,2022-08-17 14:11:37.046875
2162,-4.69,2022-08-17 14:11:37.062500
2163,-4.14,2022-08-17 14:11:37.078125
2164,-3.56,2022-08-17 14:11:37.093750
2165,-2.94,2022-08-17 14:11:37.109375
2166,-2.27,2022-08-17 14:11:37.125000
2167,-1.53,2022-08-17 14:11:37.140625
2168,-0.75,2022-08-17 14:11:37.156250
2169,0.03,2022-08-17 14:11:37.171875
2170,0.67,2022-08-17 14:11:37.187500
2171,1.07,2022-08-17 14:11:37.203125
2172,1.13,2022-08-17 14:11:37.218750
2173,0.85,2022-08-17 14:11:37.234375
2174,0.28,2022-08-17 14:11:37.250000
2175,-0.46,2022-08-17 14:11:37.265625
2176,-1.24,2022-08-17 14:11:37.281250
2177,-1.89,2022-08-17 14:11:37.296875
2178,-2.25,2022-08-17 14:11:37.312500
2179,-2.16,2022-08-17 14:11:37.328125
2180,-1.57,2022-08-17 14:11:37.343750
2181,-0.54,2022-08-17 14:11:37.359375
2182,0.74,2022-08-17 14:11:37.375000
2183,2.02,2022-08-17 14:11:37.390625
2184,3.09,2022-08-17 14:11:37.406250
2185,3.82,2022-08-17 14:11:37.421875
2186,4.23,2022-08-17 14:11:37.437500
2187,4.41,2022-08-17 14:11:37.453125
2188,4.49,2022-08-17 14:11:37.468750
2189,4.57,2022-08-17 14:11:37.484375
2190,4.68,2022-08-17 14:11:37.500000
2191,4.84,2022-08-17 14:11:37.515625
2192,5.01,2022-08-17 14:11:37.531250
2193,5.14,2022-08-17 14:11:37.546875
2194,5.16,2022-08-17 14:11:37.562500
2195,4.99,2022-08-17 14:11:37.578125
2196,4.61,2022-08-17 14:11:37.593750
2197,4.03,2022-08-17 14:11:37.609375
2198,3.38,2022-08-17 14:11:37.625000
2199,2.81,2022-08-17 14:11:37.640625
2200,2.48,2022-08-17 14:11:37.656250
2201,2.52,2022-08-17 14:11:37.671875
2202,3.02,2022-08-17 14:11:37.687500
2203,3.94,2022-08-17 14:11:37.703125
2204,5.14,2022-08-17 14:11:37.718750
2205,6.25,2022-08-17 14:11:37.734375
2206,6.73,2022-08-17 14:11:37.750000
2207,6.07,2022-08-17 14:11:37.765625
2208,3.99,2022-08-17 14:11:37.781250
2209,0.65,2022-08-17 14:11:37.796875
2210,-3.37,2022-08-17 14:11:37.812500
2211,-7.19,2022-08-17 14:11:37.828125
2212,-10.02,2022-08-17 14:11:37.843750
2213,-11.37,2022-08-17 14:11:37.859375
2214,-11.24,2022-08-17 14:11:37.875000
2215,-9.99,2022-08-17 14:11:37.890625
2216,-8.17,2022-08-17 14:11:37.906250
2217,-6.29,2022-08-17 14:11:37.921875
2218,-4.68,2022-08-17 14:11:37.937500
2219,-3.5,2022-08-17 14:11:37.953125
2220,-2.71,2022-08-17 14:11:37.968750
2221,-2.18,2022-08-17 14:11:37.984375
2222,-1.78,2022-08-17 14:11:38.000000
2223,-1.41,2022-08-17 14:11:38.015625
2224,-1.05,2022-08-17 14:11:38.031250
2225,-0.74,2022-08-17 14:11:38.046875
2226,-0.49,2022-08-17 14:11:38.062500
2227,-0.33,2022-08-17 14:11:38.078125
2228,-0.21,2022-08-17 14:11:38.093750
2229,-0.12,2022-08-17 14:11:38.109375
2230,-0.06,2022-08-17 14:11:38.125000
2231,-0.05,2022-08-17 14:11:38.140625
2232,-0.11,2022-08-17 14:11:38.156250
2233,-0.17,2022-08-17 14:11:38.171875
2234,-0.11,2022-08-17 14:11:38.187500
2235,0.15,2022-08-17 14:11:38.203125
2236,0.65,2022-08-17 14:11:38.218750
2237,1.28,2022-08-17 14:11:38.234375
2238,1.91,2022-08-17 14:11:38.250000
2239,2.41,2022-08-17 14:11:38.265625
2240,2.75,2022-08-17 14:11:38.281250
2241,3.01,2022-08-17 14:11:38.296875
2242,3.25,2022-08-17 14:11:38.312500
2243,3.47,2022-08-17 14:11:38.328125
2244,3.58,2022-08-17 14:11:38.343750
2245,3.49,2022-08-17 14:11:38.359375
2246,3.19,2022-08-17 14:11:38.375000
2247,2.83,2022-08-17 14:11:38.390625
2248,2.62,2022-08-17 14:11:38.406250
2249,2.72,2022-08-17 14:11:38.421875
2250,3.17,2022-08-17 14:11:38.437500
2251,3.8,2022-08-17 14:11:38.453125
2252,4.35,2022-08-17 14:11:38.468750
2253,4.59,2022-08-17 14:11:38.484375
2254,4.45,2022-08-17 14:11:38.500000
2255,4.02,2022-08-17 14:11:38.515625
2256,3.51,2022-08-17 14:11:38.531250
2257,3.14,2022-08-17 14:11:38.546875
2258,3.08,2022-08-17 14:11:38.562500
2259,3.39,2022-08-17 14:11:38.578125
2260,4.05,2022-08-17 14:11:38.593750
2261,5.01,2022-08-17 14:11:38.609375
2262,6.1,2022-08-17 14:11:38.625000
2263,7.01,2022-08-17 14:11:38.640625
2264,7.29,2022-08-17 14:11:38.656250
2265,6.45,2022-08-17 14:11:38.671875
2266,4.21,2022-08-17 14:11:38.687500
2267,0.63,2022-08-17 14:11:38.703125
2268,-3.73,2022-08-17 14:11:38.718750
2269,-8.01,2022-08-17 14:11:38.734375
2270,-11.33,2022-08-17 14:11:38.750000
2271,-13.1,2022-08-17 14:11:38.765625
2272,-13.24,2022-08-17 14:11:38.781250
2273,-12.09,2022-08-17 14:11:38.796875
2274,-10.24,2022-08-17 14:11:38.812500
2275,-8.17,2022-08-17 14:11:38.828125
2276,-6.18,2022-08-17 14:11:38.843750
2277,-4.33,2022-08-17 14:11:38.859375
2278,-2.62,2022-08-17 14:11:38.875000
2279,-1.07,2022-08-17 14:11:38.890625
2280,0.2,2022-08-17 14:11:38.906250
2281,1.05,2022-08-17 14:11:38.921875
2282,1.41,2022-08-17 14:11:38.937500
2283,1.33,2022-08-17 14:11:38.953125
2284,0.95,2022-08-17 14:11:38.968750
2285,0.48,2022-08-17 14:11:38.984375
2286,0.07,2022-08-17 14:11:39.000000
2287,-0.17,2022-08-17 14:11:39.015625
2288,-0.25,2022-08-17 14:11:39.031250
2289,-0.18,2022-08-17 14:11:39.046875
2290,-0.03,2022-08-17 14:11:39.062500
2291,0.14,2022-08-17 14:11:39.078125
2292,0.3,2022-08-17 14:11:39.093750
2293,0.46,2022-08-17 14:11:39.109375
2294,0.69,2022-08-17 14:11:39.125000
2295,1.07,2022-08-17 14:11:39.140625
2296,1.68,2022-08-17 14:11:39.156250
2297,2.5,2022-08-17 14:11:39.171875
2298,3.46,2022-08-17 14:11:39.187500
2299,4.41,2022-08-17 14:11:39.203125
2300,5.16,2022-08-17 14:11:39.218750
2301,5.6,2022-08-17 14:11:39.234375
2302,5.67,2022-08-17 14:11:39.250000
2303,5.45,2022-08-17 14:11:39.265625
2304,5.13,2022-08-17 14:11:39.281250
2305,4.85,2022-08-17 14:11:39.296875
2306,4.72,2022-08-17 14:11:39.312500
2307,4.68,2022-08-17 14:11:39.328125
2308,4.52,2022-08-17 14:11:39.343750
2309,4.06,2022-08-17 14:11:39.359375
2310,3.22,2022-08-17 14:11:39.375000
2311,2.13,2022-08-17 14:11:39.390625
2312,1.11,2022-08-17 14:11:39.406250
2313,0.51,2022-08-17 14:11:39.421875
2314,0.51,2022-08-17 14:11:39.437500
2315,1.05,2022-08-17 14:11:39.453125
2316,1.87,2022-08-17 14:11:39.468750
2317,2.61,2022-08-17 14:11:39.484375
2318,3.01,2022-08-17 14:11:39.500000
2319,3.05,2022-08-17 14:11:39.515625
2320,2.82,2022-08-17 14:11:39.531250
2321,2.49,2022-08-17 14:11:39.546875
2322,2.19,2022-08-17 14:11:39.562500
2323,1.97,2022-08-17 14:11:39.578125
2324,1.88,2022-08-17 14:11:39.593750
2325,2.03,2022-08-17 14:11:39.609375
2326,2.54,2022-08-17 14:11:39.625000
2327,3.44,2022-08-17 14:11:39.640625
2328,4.5,2022-08-17 14:11:39.656250
2329,5.17,2022-08-17 14:11:39.671875
2330,4.81,2022-08-17 14:11:39.687500
2331,2.92,2022-08-17 14:11:39.703125
2332,-0.48,2022-08-17 14:11:39.718750
2333,-4.79,2022-08-17 14:11:39.734375
2334,-9.02,2022-08-17 14:11:39.750000
2335,-12.22,2022-08-17 14:11:39.765625
2336,-13.81,2022-08-17 14:11:39.781250
2337,-13.78,2022-08-17 14:11:39.796875
2338,-12.57,2022-08-17 14:11:39.812500
2339,-10.8,2022-08-17 14:11:39.828125
2340,-8.98,2022-08-17 14:11:39.843750
2341,-7.37,2022-08-17 14:11:39.859375
2342,-6.01,2022-08-17 14:11:39.875000
2343,-4.88,2022-08-17 14:11:39.890625
2344,-3.94,2022-08-17 14:11:39.906250
2345,-3.21,2022-08-17 14:11:39.921875
2346,-2.68,2022-08-17 14:11:39.937500
2347,-2.27,2022-08-17 14:11:39.953125
2348,-1.92,2022-08-17 14:11:39.968750
2349,-1.55,2022-08-17 14:11:39.984375
2350,-1.15,2022-08-17 14:11:40.000000
2351,-0.79,2022-08-17 14:11:40.015625
2352,-0.58,2022-08-17 14:11:40.031250
2353,-0.59,2022-08-17 14:11:40.046875
2354,-0.83,2022-08-17 14:11:40.062500
2355,-1.18,2022-08-17 14:11:40.078125
2356,-1.51,2022-08-17 14:11:40.093750
2357,-1.64,2022-08-17 14:11:40.109375
2358,-1.47,2022-08-17 14:11:40.125000
2359,-0.97,2022-08-17 14:11:40.140625
2360,-0.22,2022-08-17 14:11:40.156250
2361,0.62,2022-08-17 14:11:40.171875
2362,1.42,2022-08-17 14:11:40.187500
2363,2.09,2022-08-17 14:11:40.203125
2364,2.6,2022-08-17 14:11:40.218750
2365,3.01,2022-08-17 14:11:40.234375
2366,3.4,2022-08-17 14:11:40.250000
2367,3.8,2022-08-17 14:11:40.265625
2368,4.22,2022-08-17 14:11:40.281250
2369,4.62,2022-08-17 14:11:40.296875
2370,4.94,2022-08-17 14:11:40.312500
2371,5.16,2022-08-17 14:11:40.328125
2372,5.28,2022-08-17 14:11:40.343750
2373,5.29,2022-08-17 14:11:40.359375
2374,5.21,2022-08-17 14:11:40.375000
2375,5.02,2022-08-17 14:11:40.390625
2376,4.69,2022-08-17 14:11:40.406250
2377,4.24,2022-08-17 14:11:40.421875
2378,3.77,2022-08-17 14:11:40.437500
2379,3.45,2022-08-17 14:11:40.453125
2380,3.41,2022-08-17 14:11:40.468750
2381,3.71,2022-08-17 14:11:40.484375
2382,4.23,2022-08-17 14:11:40.500000
2383,4.72,2022-08-17 14:11:40.515625
2384,4.95,2022-08-17 14:11:40.531250
2385,4.77,2022-08-17 14:11:40.546875
2386,4.23,2022-08-17 14:11:40.562500
2387,3.51,2022-08-17 14:11:40.578125
2388,2.86,2022-08-17 14:11:40.593750
2389,2.44,2022-08-17 14:11:40.609375
2390,2.37,2022-08-17 14:11:40.625000
2391,2.67,2022-08-17 14:11:40.640625
2392,3.32,2022-08-17 14:11:40.656250
2393,4.25,2022-08-17 14:11:40.671875
2394,5.25,2022-08-17 14:11:40.687500
2395,5.94,2022-08-17 14:11:40.703125
2396,5.77,2022-08-17 14:11:40.718750
2397,4.24,2022-08-17 14:11:40.734375
2398,1.15,2022-08-17 14:11:40.750000
2399,-3.17,2022-08-17 14:11:40.765625
2400,-7.94,2022-08-17 14:11:40.781250
2401,-12.13,2022-08-17 14:11:40.796875
2402,-14.88,2022-08-17 14:11:40.812500
2403,-15.8,2022-08-17 14:11:40.828125
2404,-15.11,2022-08-17 14:11:40.843750
2405,-13.39,2022-08-17 14:11:40.859375
2406,-11.31,2022-08-17 14:11:40.875000
2407,-9.36,2022-08-17 14:11:40.890625
2408,-7.71,2022-08-17 14:11:40.906250
2409,-6.3,2022-08-17 14:11:40.921875
2410,-5.0,2022-08-17 14:11:40.937500
2411,-3.77,2022-08-17 14:11:40.953125
2412,-2.67,2022-08-17 14:11:40.968750
2413,-1.84,2022-08-17 14:11:40.984375
2414,-1.38,2022-08-17 14:11:41.000000
2415,-1.23,2022-08-17 14:11:41.015625
2416,-1.26,2022-08-17 14:11:41.031250
2417,-1.27,2022-08-17 14:11:41.046875
2418,-1.12,2022-08-17 14:11:41.062500
2419,-0.8,2022-08-17 14:11:41.078125
2420,-0.44,2022-08-17 14:11:41.093750
2421,-0.23,2022-08-17 14:11:41.109375
2422,-0.31,2022-08-17 14:11:41.125000
2423,-0.69,2022-08-17 14:11:41.140625
2424,-1.24,2022-08-17 14:11:41.156250
2425,-1.7,2022-08-17 14:11:41.171875
2426,-1.82,2022-08-17 14:11:41.187500
2427,-1.44,2022-08-17 14:11:41.203125
2428,-0.59,2022-08-17 14:11:41.218750
2429,0.58,2022-08-17 14:11:41.234375
2430,1.81,2022-08-17 14:11:41.250000
2431,2.88,2022-08-17 14:11:41.265625
2432,3.61,2022-08-17 14:11:41.281250
2433,3.96,2022-08-17 14:11:41.296875
2434,3.94,2022-08-17 14:11:41.312500
2435,3.65,2022-08-17 14:11:41.328125
2436,3.2,2022-08-17 14:11:41.343750
2437,2.71,2022-08-17 14:11:41.359375
2438,2.32,2022-08-17 14:11:41.375000
2439,2.12,2022-08-17 14:11:41.390625
2440,2.13,2022-08-17 14:11:41.406250
2441,2.34,2022-08-17 14:11:41.421875
2442,2.63,2022-08-17 14:11:41.437500
2443,2.88,2022-08-17 14:11:41.453125
2444,2.97,2022-08-17 14:11:41.468750
2445,2.87,2022-08-17 14:11:41.484375
2446,2.6,2022-08-17 14:11:41.500000
2447,2.31,2022-08-17 14:11:41.515625
2448,2.16,2022-08-17 14:11:41.531250
2449,2.23,2022-08-17 14:11:41.546875
2450,2.56,2022-08-17 14:11:41.562500
2451,2.99,2022-08-17 14:11:41.578125
2452,3.35,2022-08-17 14:11:41.593750
2453,3.46,2022-08-17 14:11:41.609375
2454,3.25,2022-08-17 14:11:41.625000
2455,2.76,2022-08-17 14:11:41.640625
2456,2.14,2022-08-17 14:11:41.656250
2457,1.61,2022-08-17 14:11:41.671875
2458,1.37,2022-08-17 14:11:41.687500
2459,1.56,2022-08-17 14:11:41.703125
2460,2.18,2022-08-17 14:11:41.718750
2461,3.03,2022-08-17 14:11:41.734375
2462,3.69,2022-08-17 14:11:41.750000
2463,3.6,2022-08-17 14:11:41.765625
2464,2.28,2022-08-17 14:11:41.781250
2465,-0.45,2022-08-17 14:11:41.796875
2466,-4.29,2022-08-17 14:11:41.812500
2467,-8.56,2022-08-17 14:11:41.828125
2468,-12.37,2022-08-17 14:11:41.843750
2469,-15.0,2022-08-17 14:11:41.859375
2470,-16.07,2022-08-17 14:11:41.875000
2471,-15.66,2022-08-17 14:11:41.890625
2472,-14.15,2022-08-17 14:11:41.906250
2473,-12.06,2022-08-17 14:11:41.921875
2474,-9.81,2022-08-17 14:11:41.937500
2475,-7.7,2022-08-17 14:11:41.953125
2476,-5.87,2022-08-17 14:11:41.968750
2477,-4.33,2022-08-17 14:11:41.984375
2478,-3.02,2022-08-17 14:11:42.000000
2479,-1.83,2022-08-17 14:11:42.015625
2480,-0.69,2022-08-17 14:11:42.031250
2481,0.42,2022-08-17 14:11:42.046875
2482,1.4,2022-08-17 14:11:42.062500
2483,2.15,2022-08-17 14:11:42.078125
2484,2.54,2022-08-17 14:11:42.093750
2485,2.57,2022-08-17 14:11:42.109375
2486,2.32,2022-08-17 14:11:42.125000
2487,1.92,2022-08-17 14:11:42.140625
2488,1.48,2022-08-17 14:11:42.156250
2489,1.06,2022-08-17 14:11:42.171875
2490,0.69,2022-08-17 14:11:42.187500
2491,0.4,2022-08-17 14:11:42.203125
2492,0.24,2022-08-17 14:11:42.218750
2493,0.32,2022-08-17 14:11:42.234375
2494,0.7,2022-08-17 14:11:42.250000
2495,1.39,2022-08-17 14:11:42.265625
2496,2.28,2022-08-17 14:11:42.281250
2497,3.23,2022-08-17 14:11:42.296875
2498,4.05,2022-08-17 14:11:42.312500
2499,4.66,2022-08-17 14:11:42.328125
2500,5.02,2022-08-17 14:11:42.343750
2501,5.16,2022-08-17 14:11:42.359375
2502,5.14,2022-08-17 14:11:42.375000
2503,4.99,2022-08-17 14:11:42.390625
2504,4.75,2022-08-17 14:11:42.406250
2505,4.46,2022-08-17 14:11:42.421875
2506,4.17,2022-08-17 14:11:42.437500
2507,3.91,2022-08-17 14:11:42.453125
2508,3.74,2022-08-17 14:11:42.468750
2509,3.63,2022-08-17 14:11:42.484375
2510,3.52,2022-08-17 14:11:42.500000
2511,3.32,2022-08-17 14:11:42.515625
2512,2.99,2022-08-17 14:11:42.531250
2513,2.56,2022-08-17 14:11:42.546875
2514,2.15,2022-08-17 14:11:42.562500
2515,1.94,2022-08-17 14:11:42.578125
2516,2.09,2022-08-17 14:11:42.593750
2517,2.73,2022-08-17 14:11:42.609375
2518,3.85,2022-08-17 14:11:42.625000
2519,5.24,2022-08-17 14:11:42.640625
2520,6.53,2022-08-17 14:11:42.656250
2521,7.24,2022-08-17 14:11:42.671875
2522,6.92,2022-08-17 14:11:42.687500
2523,5.33,2022-08-17 14:11:42.703125
2524,2.63,2022-08-17 14:11:42.718750
2525,-0.75,2022-08-17 14:11:42.734375
2526,-4.1,2022-08-17 14:11:42.750000
2527,-6.71,2022-08-17 14:11:42.765625
2528,-8.09,2022-08-17 14:11:42.781250
2529,-8.12,2022-08-17 14:11:42.796875
2530,-6.99,2022-08-17 14:11:42.812500
2531,-5.14,2022-08-17 14:11:42.828125
2532,-3.04,2022-08-17 14:11:42.843750
2533,-1.01,2022-08-17 14:11:42.859375
2534,0.82,2022-08-17 14:11:42.875000
2535,2.47,2022-08-17 14:11:42.890625
2536,4.02,2022-08-17 14:11:42.906250
2537,5.46,2022-08-17 14:11:42.921875
2538,6.73,2022-08-17 14:11:42.937500
2539,7.69,2022-08-17 14:11:42.953125
2540,8.28,2022-08-17 14:11:42.968750
2541,8.59,2022-08-17 14:11:42.984375
2542,8.82,2022-08-17 14:11:43.000000
2543,9.13,2022-08-17 14:11:43.015625
2544,9.54,2022-08-17 14:11:43.031250
2545,9.83,2022-08-17 14:11:43.046875
2546,9.64,2022-08-17 14:11:43.062500
2547,8.73,2022-08-17 14:11:43.078125
2548,7.12,2022-08-17 14:11:43.093750
2549,5.15,2022-08-17 14:11:43.109375
2550,3.38,2022-08-17 14:11:43.125000
2551,2.26,2022-08-17 14:11:43.140625
2552,1.93,2022-08-17 14:11:43.156250
2553,2.18,2022-08-17 14:11:43.171875
2554,2.55,2022-08-17 14:11:43.187500
2555,2.6,2022-08-17 14:11:43.203125
2556,2.06,2022-08-17 14:11:43.218750
2557,0.91,2022-08-17 14:11:43.234375
2558,-0.69,2022-08-17 14:11:43.250000
2559,-2.46,2022-08-17 14:11:43.265625
2560,-4.13,2022-08-17 14:11:43.281250
2561,-5.46,2022-08-17 14:11:43.296875
2562,-6.31,2022-08-17 14:11:43.312500
2563,-6.62,2022-08-17 14:11:43.328125
2564,-6.47,2022-08-17 14:11:43.343750
2565,-6.02,2022-08-17 14:11:43.359375
2566,-5.46,2022-08-17 14:11:43.375000
2567,-4.95,2022-08-17 14:11:43.390625
2568,-4.46,2022-08-17 14:11:43.406250
2569,-3.87,2022-08-17 14:11:43.421875
2570,-2.97,2022-08-17 14:11:43.437500
2571,-1.71,2022-08-17 14:11:43.453125
2572,-0.29,2022-08-17 14:11:43.468750
2573,0.82,2022-08-17 14:11:43.484375
2574,1.0,2022-08-17 14:11:43.500000
2575,-0.22,2022-08-17 14:11:43.515625
2576,-2.91,2022-08-17 14:11:43.531250
2577,-6.62,2022-08-17 14:11:43.546875
2578,-10.55,2022-08-17 14:11:43.562500
2579,-13.84,2022-08-17 14:11:43.578125
2580,-15.86,2022-08-17 14:11:43.593750
2581,-16.43,2022-08-17 14:11:43.609375
2582,-15.74,2022-08-17 14:11:43.625000
2583,-14.16,2022-08-17 14:11:43.640625
2584,-12.07,2022-08-17 14:11:43.656250
2585,-9.68,2022-08-17 14:11:43.671875
2586,-7.17,2022-08-17 14:11:43.687500
2587,-4.69,2022-08-17 14:11:43.703125
2588,-2.47,2022-08-17 14:11:43.718750
2589,-0.69,2022-08-17 14:11:43.734375
2590,0.6,2022-08-17 14:11:43.750000
2591,1.48,2022-08-17 14:11:43.765625
2592,2.12,2022-08-17 14:11:43.781250
2593,2.66,2022-08-17 14:11:43.796875
2594,3.11,2022-08-17 14:11:43.812500
2595,3.34,2022-08-17 14:11:43.828125
2596,3.24,2022-08-17 14:11:43.843750
2597,2.75,2022-08-17 14:11:43.859375
2598,1.95,2022-08-17 14:11:43.875000
2599,1.05,2022-08-17 14:11:43.890625
2600,0.23,2022-08-17 14:11:43.906250
2601,-0.29,2022-08-17 14:11:43.921875
2602,-0.4,2022-08-17 14:11:43.937500
2603,-0.07,2022-08-17 14:11:43.953125
2604,0.65,2022-08-17 14:11:43.968750
2605,1.61,2022-08-17 14:11:43.984375
2606,2.59,2022-08-17 14:11:44.000000
2607,3.4,2022-08-17 14:11:44.015625
2608,3.96,2022-08-17 14:11:44.031250
2609,4.28,2022-08-17 14:11:44.046875
2610,4.48,2022-08-17 14:11:44.062500
2611,4.65,2022-08-17 14:11:44.078125
2612,4.8,2022-08-17 14:11:44.093750
2613,4.8,2022-08-17 14:11:44.109375
2614,4.5,2022-08-17 14:11:44.125000
2615,3.79,2022-08-17 14:11:44.140625
2616,2.71,2022-08-17 14:11:44.156250
2617,1.43,2022-08-17 14:11:44.171875
2618,0.21,2022-08-17 14:11:44.187500
2619,-0.67,2022-08-17 14:11:44.203125
2620,-1.01,2022-08-17 14:11:44.218750
2621,-0.78,2022-08-17 14:11:44.234375
2622,-0.07,2022-08-17 14:11:44.250000
2623,0.86,2022-08-17 14:11:44.265625
2624,1.61,2022-08-17 14:11:44.281250
2625,1.74,2022-08-17 14:11:44.296875
2626,0.82,2022-08-17 14:11:44.312500
2627,-1.33,2022-08-17 14:11:44.328125
2628,-4.54,2022-08-17 14:11:44.343750
2629,-8.27,2022-08-17 14:11:44.359375
2630,-11.73,2022-08-17 14:11:44.375000
2631,-14.14,2022-08-17 14:11:44.390625
2632,-15.0,2022-08-17 14:11:44.406250
2633,-14.23,2022-08-17 14:11:44.421875
2634,-12.18,2022-08-17 14:11:44.437500
2635,-9.48,2022-08-17 14:11:44.453125
2636,-6.7,2022-08-17 14:11:44.468750
2637,-4.25,2022-08-17 14:11:44.484375
2638,-2.28,2022-08-17 14:11:44.500000
2639,-0.74,2022-08-17 14:11:44.515625
2640,0.47,2022-08-17 14:11:44.531250
2641,1.4,2022-08-17 14:11:44.546875
2642,2.04,2022-08-17 14:11:44.562500
2643,2.36,2022-08-17 14:11:44.578125
2644,2.37,2022-08-17 14:11:44.593750
2645,2.11,2022-08-17 14:11:44.609375
2646,1.69,2022-08-17 14:11:44.625000
2647,1.24,2022-08-17 14:11:44.640625
2648,0.83,2022-08-17 14:11:44.656250
2649,0.51,2022-08-17 14:11:44.671875
2650,0.28,2022-08-17 14:11:44.687500
2651,0.11,2022-08-17 14:11:44.703125
2652,0.02,2022-08-17 14:11:44.718750
2653,0.01,2022-08-17 14:11:44.734375
2654,0.14,2022-08-17 14:11:44.750000
2655,0.49,2022-08-17 14:11:44.765625
2656,1.06,2022-08-17 14:11:44.781250
2657,1.8,2022-08-17 14:11:44.796875
2658,2.59,2022-08-17 14:11:44.812500
2659,3.25,2022-08-17 14:11:44.828125
2660,3.58,2022-08-17 14:11:44.843750
2661,3.54,2022-08-17 14:11:44.859375
2662,3.19,2022-08-17 14:11:44.875000
2663,2.69,2022-08-17 14:11:44.890625
2664,2.32,2022-08-17 14:11:44.906250
2665,2.24,2022-08-17 14:11:44.921875
2666,2.5,2022-08-17 14:11:44.937500
2667,2.96,2022-08-17 14:11:44.953125
2668,3.4,2022-08-17 14:11:44.968750
2669,3.53,2022-08-17 14:11:44.984375
2670,3.2,2022-08-17 14:11:45.000000
2671,2.4,2022-08-17 14:11:45.015625
2672,1.37,2022-08-17 14:11:45.031250
2673,0.45,2022-08-17 14:11:45.046875
2674,0.02,2022-08-17 14:11:45.062500
2675,0.27,2022-08-17 14:11:45.078125
2676,1.18,2022-08-17 14:11:45.093750
2677,2.42,2022-08-17 14:11:45.109375
2678,3.41,2022-08-17 14:11:45.125000
2679,3.55,2022-08-17 14:11:45.140625
2680,2.4,2022-08-17 14:11:45.156250
2681,-0.1,2022-08-17 14:11:45.171875
2682,-3.6,2022-08-17 14:11:45.187500
2683,-7.41,2022-08-17 14:11:45.203125
2684,-10.74,2022-08-17 14:11:45.218750
2685,-12.93,2022-08-17 14:11:45.234375
2686,-13.61,2022-08-17 14:11:45.250000
2687,-12.82,2022-08-17 14:11:45.265625
2688,-10.86,2022-08-17 14:11:45.281250
2689,-8.21,2022-08-17 14:11:45.296875
2690,-5.37,2022-08-17 14:11:45.312500
2691,-2.71,2022-08-17 14:11:45.328125
2692,-0.52,2022-08-17 14:11:45.343750
2693,1.07,2022-08-17 14:11:45.359375
2694,2.01,2022-08-17 14:11:45.375000
2695,2.37,2022-08-17 14:11:45.390625
2696,2.34,2022-08-17 14:11:45.406250
2697,2.14,2022-08-17 14:11:45.421875
2698,1.97,2022-08-17 14:11:45.437500
2699,1.97,2022-08-17 14:11:45.453125
2700,2.14,2022-08-17 14:11:45.468750
2701,2.35,2022-08-17 14:11:45.484375
2702,2.47,2022-08-17 14:11:45.500000
2703,2.38,2022-08-17 14:11:45.515625
2704,2.08,2022-08-17 14:11:45.531250
2705,1.7,2022-08-17 14:11:45.546875
2706,1.41,2022-08-17 14:11:45.562500
2707,1.36,2022-08-17 14:11:45.578125
2708,1.58,2022-08-17 14:11:45.593750
2709,1.98,2022-08-17 14:11:45.609375
2710,2.4,2022-08-17 14:11:45.625000
2711,2.71,2022-08-17 14:11:45.640625
2712,2.86,2022-08-17 14:11:45.656250
2713,2.87,2022-08-17 14:11:45.671875
2714,2.85,2022-08-17 14:11:45.687500
2715,2.87,2022-08-17 14:11:45.703125
2716,2.97,2022-08-17 14:11:45.718750
2717,3.13,2022-08-17 14:11:45.734375
2718,3.27,2022-08-17 14:11:45.750000
2719,3.34,2022-08-17 14:11:45.765625
2720,3.27,2022-08-17 14:11:45.781250
2721,3.05,2022-08-17 14:11:45.796875
2722,2.7,2022-08-17 14:11:45.812500
2723,2.31,2022-08-17 14:11:45.828125
2724,1.96,2022-08-17 14:11:45.843750
2725,1.73,2022-08-17 14:11:45.859375
2726,1.69,2022-08-17 14:11:45.875000
2727,1.77,2022-08-17 14:11:45.890625
2728,1.86,2022-08-17 14:11:45.906250
2729,1.82,2022-08-17 14:11:45.921875
2730,1.54,2022-08-17 14:11:45.937500
2731,0.99,2022-08-17 14:11:45.953125
2732,0.25,2022-08-17 14:11:45.968750
2733,-0.55,2022-08-17 14:11:45.984375
2734,-1.25,2022-08-17 14:11:46.000000
2735,-1.65,2022-08-17 14:11:46.015625
2736,-1.63,2022-08-17 14:11:46.031250
2737,-1.13,2022-08-17 14:11:46.046875
2738,-0.27,2022-08-17 14:11:46.062500
2739,0.55,2022-08-17 14:11:46.078125
2740,0.77,2022-08-17 14:11:46.093750
2741,-0.15,2022-08-17 14:11:46.109375
2742,-2.5,2022-08-17 14:11:46.125000
2743,-6.06,2022-08-17 14:11:46.140625
2744,-10.17,2022-08-17 14:11:46.156250
2745,-13.89,2022-08-17 14:11:46.171875
2746,-16.37,2022-08-17 14:11:46.187500
2747,-17.16,2022-08-17 14:11:46.203125
2748,-16.34,2022-08-17 14:11:46.218750
2749,-14.41,2022-08-17 14:11:46.234375
2750,-12.01,2022-08-17 14:11:46.250000
2751,-9.65,2022-08-17 14:11:46.265625
2752,-7.56,2022-08-17 14:11:46.281250
2753,-5.72,2022-08-17 14:11:46.296875
2754,-4.02,2022-08-17 14:11:46.312500
2755,-2.38,2022-08-17 14:11:46.328125
2756,-0.81,2022-08-17 14:11:46.343750
2757,0.58,2022-08-17 14:11:46.359375
2758,1.7,2022-08-17 14:11:46.375000
2759,2.5,2022-08-17 14:11:46.390625
2760,3.06,2022-08-17 14:11:46.406250
2761,3.44,2022-08-17 14:11:46.421875
2762,3.72,2022-08-17 14:11:46.437500
2763,3.88,2022-08-17 14:11:46.453125
2764,3.88,2022-08-17 14:11:46.468750
2765,3.71,2022-08-17 14:11:46.484375
2766,3.42,2022-08-17 14:11:46.500000
2767,3.16,2022-08-17 14:11:46.515625
2768,3.06,2022-08-17 14:11:46.531250
2769,3.21,2022-08-17 14:11:46.546875
2770,3.6,2022-08-17 14:11:46.562500
2771,4.16,2022-08-17 14:11:46.578125
2772,4.79,2022-08-17 14:11:46.593750
2773,5.44,2022-08-17 14:11:46.609375
2774,6.04,2022-08-17 14:11:46.625000
2775,6.53,2022-08-17 14:11:46.640625
2776,6.81,2022-08-17 14:11:46.656250
2777,6.8,2022-08-17 14:11:46.671875
2778,6.47,2022-08-17 14:11:46.687500
2779,5.9,2022-08-17 14:11:46.703125
2780,5.26,2022-08-17 14:11:46.718750
2781,4.69,2022-08-17 14:11:46.734375
2782,4.27,2022-08-17 14:11:46.750000
2783,3.98,2022-08-17 14:11:46.765625
2784,3.73,2022-08-17 14:11:46.781250
2785,3.49,2022-08-17 14:11:46.796875
2786,3.29,2022-08-17 14:11:46.812500
2787,3.17,2022-08-17 14:11:46.828125
2788,3.16,2022-08-17 14:11:46.843750
2789,3.13,2022-08-17 14:11:46.859375
2790,2.89,2022-08-17 14:11:46.875000
2791,2.26,2022-08-17 14:11:46.890625
2792,1.22,2022-08-17 14:11:46.906250
2793,-0.08,2022-08-17 14:11:46.921875
2794,-1.33,2022-08-17 14:11:46.937500
2795,-2.21,2022-08-17 14:11:46.953125
2796,-2.48,2022-08-17 14:11:46.968750
2797,-2.1,2022-08-17 14:11:46.984375
2798,-1.2,2022-08-17 14:11:47.000000
2799,-0.12,2022-08-17 14:11:47.015625
2800,0.67,2022-08-17 14:11:47.031250
2801,0.64,2022-08-17 14:11:47.046875
2802,-0.59,2022-08-17 14:11:47.062500
2803,-3.06,2022-08-17 14:11:47.078125
2804,-6.44,2022-08-17 14:11:47.093750
2805,-9.98,2022-08-17 14:11:47.109375
2806,-12.85,2022-08-17 14:11:47.125000
2807,-14.38,2022-08-17 14:11:47.140625
2808,-14.33,2022-08-17 14:11:47.156250
2809,-12.9,2022-08-17 14:11:47.171875
2810,-10.58,2022-08-17 14:11:47.187500
2811,-7.9,2022-08-17 14:11:47.203125
2812,-5.28,2022-08-17 14:11:47.218750
2813,-2.94,2022-08-17 14:11:47.234375
2814,-1.01,2022-08-17 14:11:47.250000
2815,0.42,2022-08-17 14:11:47.265625
2816,1.33,2022-08-17 14:11:47.281250
2817,1.75,2022-08-17 14:11:47.296875
2818,1.86,2022-08-17 14:11:47.312500
2819,1.94,2022-08-17 14:11:47.328125
2820,2.21,2022-08-17 14:11:47.343750
2821,2.8,2022-08-17 14:11:47.359375
2822,3.61,2022-08-17 14:11:47.375000
2823,4.4,2022-08-17 14:11:47.390625
2824,4.9,2022-08-17 14:11:47.406250
2825,4.96,2022-08-17 14:11:47.421875
2826,4.6,2022-08-17 14:11:47.437500
2827,4.04,2022-08-17 14:11:47.453125
2828,3.56,2022-08-17 14:11:47.468750
2829,3.43,2022-08-17 14:11:47.484375
2830,3.78,2022-08-17 14:11:47.500000
2831,4.56,2022-08-17 14:11:47.515625
2832,5.57,2022-08-17 14:11:47.531250
2833,6.51,2022-08-17 14:11:47.546875
2834,7.1,2022-08-17 14:11:47.562500
2835,7.16,2022-08-17 14:11:47.578125
2836,6.67,2022-08-17 14:11:47.593750
2837,5.81,2022-08-17 14:11:47.609375
2838,4.85,2022-08-17 14:11:47.625000
2839,4.11,2022-08-17 14:11:47.640625
2840,3.76,2022-08-17 14:11:47.656250
2841,3.8,2022-08-17 14:11:47.671875
2842,4.04,2022-08-17 14:11:47.687500
2843,4.21,2022-08-17 14:11:47.703125
2844,4.1,2022-08-17 14:11:47.718750
2845,3.7,2022-08-17 14:11:47.734375
2846,3.22,2022-08-17 14:11:47.750000
2847,2.94,2022-08-17 14:11:47.765625
2848,3.04,2022-08-17 14:11:47.781250
2849,3.43,2022-08-17 14:11:47.796875
2850,3.84,2022-08-17 14:11:47.812500
2851,3.94,2022-08-17 14:11:47.828125
2852,3.53,2022-08-17 14:11:47.843750
2853,2.68,2022-08-17 14:11:47.859375
2854,1.65,2022-08-17 14:11:47.875000
2855,0.75,2022-08-17 14:11:47.890625
2856,0.2,2022-08-17 14:11:47.906250
2857,0.03,2022-08-17 14:11:47.921875
2858,0.18,2022-08-17 14:11:47.937500
2859,0.51,2022-08-17 14:11:47.953125
2860,0.86,2022-08-17 14:11:47.968750
2861,0.97,2022-08-17 14:11:47.984375
2862,0.5,2022-08-17 14:11:48.000000
2863,-0.88,2022-08-17 14:11:48.015625
2864,-3.29,2022-08-17 14:11:48.031250
2865,-6.5,2022-08-17 14:11:48.046875
2866,-9.89,2022-08-17 14:11:48.062500
2867,-12.67,2022-08-17 14:11:48.078125
2868,-14.19,2022-08-17 14:11:48.093750
2869,-14.22,2022-08-17 14:11:48.109375
2870,-12.98,2022-08-17 14:11:48.125000
2871,-11.0,2022-08-17 14:11:48.140625
2872,-8.83,2022-08-17 14:11:48.156250
2873,-6.84,2022-08-17 14:11:48.171875
2874,-5.13,2022-08-17 14:11:48.187500
2875,-3.66,2022-08-17 14:11:48.203125
2876,-2.32,2022-08-17 14:11:48.218750
2877,-1.09,2022-08-17 14:11:48.234375
2878,-0.02,2022-08-17 14:11:48.250000
2879,0.83,2022-08-17 14:11:48.265625
2880,1.45,2022-08-17 14:11:48.281250
2881,1.89,2022-08-17 14:11:48.296875
2882,2.27,2022-08-17 14:11:48.312500
2883,2.69,2022-08-17 14:11:48.328125
2884,3.18,2022-08-17 14:11:48.343750
2885,3.65,2022-08-17 14:11:48.359375
2886,4.0,2022-08-17 14:11:48.375000
2887,4.09,2022-08-17 14:11:48.390625
2888,3.94,2022-08-17 14:11:48.406250
2889,3.65,2022-08-17 14:11:48.421875
2890,3.45,2022-08-17 14:11:48.437500
2891,3.56,2022-08-17 14:11:48.453125
2892,4.06,2022-08-17 14:11:48.468750
2893,4.9,2022-08-17 14:11:48.484375
2894,5.81,2022-08-17 14:11:48.500000
2895,6.55,2022-08-17 14:11:48.515625
2896,6.9,2022-08-17 14:11:48.531250
2897,6.82,2022-08-17 14:11:48.546875
2898,6.41,2022-08-17 14:11:48.562500
2899,5.85,2022-08-17 14:11:48.578125
2900,5.36,2022-08-17 14:11:48.593750
2901,5.08,2022-08-17 14:11:48.609375
2902,5.08,2022-08-17 14:11:48.625000
2903,5.35,2022-08-17 14:11:48.640625
2904,5.76,2022-08-17 14:11:48.656250
2905,6.16,2022-08-17 14:11:48.671875
2906,6.39,2022-08-17 14:11:48.687500
2907,6.37,2022-08-17 14:11:48.703125
2908,6.07,2022-08-17 14:11:48.718750
2909,5.59,2022-08-17 14:11:48.734375
2910,5.02,2022-08-17 14:11:48.750000
2911,4.5,2022-08-17 14:11:48.765625
2912,4.12,2022-08-17 14:11:48.781250
2913,3.87,2022-08-17 14:11:48.796875
2914,3.72,2022-08-17 14:11:48.812500
2915,3.59,2022-08-17 14:11:48.828125
2916,3.37,2022-08-17 14:11:48.843750
2917,2.96,2022-08-17 14:11:48.859375
2918,2.33,2022-08-17 14:11:48.875000
2919,1.51,2022-08-17 14:11:48.890625
2920,0.65,2022-08-17 14:11:48.906250
2921,-0.05,2022-08-17 14:11:48.921875
2922,-0.4,2022-08-17 14:11:48.937500
2923,-0.3,2022-08-17 14:11:48.953125
2924,0.17,2022-08-17 14:11:48.968750
2925,0.76,2022-08-17 14:11:48.984375
2926,1.04,2022-08-17 14:11:49.000000
2927,0.57,2022-08-17 14:11:49.015625
2928,-1.0,2022-08-17 14:11:49.031250
2929,-3.7,2022-08-17 14:11:49.046875
2930,-7.21,2022-08-17 14:11:49.062500
2931,-10.91,2022-08-17 14:11:49.078125
2932,-14.03,2022-08-17 14:11:49.093750
2933,-15.98,2022-08-17 14:11:49.109375
2934,-16.43,2022-08-17 14:11:49.125000
2935,-15.47,2022-08-17 14:11:49.140625
2936,-13.54,2022-08-17 14:11:49.156250
2937,-11.17,2022-08-17 14:11:49.171875
2938,-8.84,2022-08-17 14:11:49.187500
2939,-6.79,2022-08-17 14:11:49.203125
2940,-5.03,2022-08-17 14:11:49.218750
2941,-3.42,2022-08-17 14:11:49.234375
2942,-1.82,2022-08-17 14:11:49.250000
2943,-0.2,2022-08-17 14:11:49.265625
2944,1.36,2022-08-17 14:11:49.281250
2945,2.67,2022-08-17 14:11:49.296875
2946,3.6,2022-08-17 14:11:49.312500
2947,4.04,2022-08-17 14:11:49.328125
2948,4.08,2022-08-17 14:11:49.343750
2949,3.88,2022-08-17 14:11:49.359375
2950,3.61,2022-08-17 14:11:49.375000
2951,3.41,2022-08-17 14:11:49.390625
2952,3.3,2022-08-17 14:11:49.406250
2953,3.28,2022-08-17 14:11:49.421875
2954,3.35,2022-08-17 14:11:49.437500
2955,3.52,2022-08-17 14:11:49.453125
2956,3.81,2022-08-17 14:11:49.468750
2957,4.21,2022-08-17 14:11:49.484375
2958,4.61,2022-08-17 14:11:49.500000
2959,4.96,2022-08-17 14:11:49.515625
2960,5.19,2022-08-17 14:11:49.531250
2961,5.34,2022-08-17 14:11:49.546875
2962,5.47,2022-08-17 14:11:49.562500
2963,5.66,2022-08-17 14:11:49.578125
2964,5.91,2022-08-17 14:11:49.593750
2965,6.15,2022-08-17 14:11:49.609375
2966,6.3,2022-08-17 14:11:49.625000
2967,6.33,2022-08-17 14:11:49.640625
2968,6.26,2022-08-17 14:11:49.656250
2969,6.24,2022-08-17 14:11:49.671875
2970,6.33,2022-08-17 14:11:49.687500
2971,6.56,2022-08-17 14:11:49.703125
2972,6.82,2022-08-17 14:11:49.718750
2973,6.93,2022-08-17 14:11:49.734375
2974,6.73,2022-08-17 14:11:49.750000
2975,6.16,2022-08-17 14:11:49.765625
2976,5.29,2022-08-17 14:11:49.781250
2977,4.29,2022-08-17 14:11:49.796875
2978,3.38,2022-08-17 14:11:49.812500
2979,2.69,2022-08-17 14:11:49.828125
2980,2.27,2022-08-17 14:11:49.843750
2981,2.03,2022-08-17 14:11:49.859375
2982,1.83,2022-08-17 14:11:49.875000
2983,1.57,2022-08-17 14:11:49.890625
2984,1.22,2022-08-17 14:11:49.906250
2985,0.83,2022-08-17 14:11:49.921875
2986,0.46,2022-08-17 14:11:49.937500
2987,0.14,2022-08-17 14:11:49.953125
2988,-0.16,2022-08-17 14:11:49.968750
2989,-0.44,2022-08-17 14:11:49.984375
2990,-0.66,2022-08-17 14:11:50.000000
2991,-0.7,2022-08-17 14:11:50.015625
2992,-0.47,2022-08-17 14:11:50.031250
2993,-0.13,2022-08-17 14:11:50.046875
2994,-0.05,2022-08-17 14:11:50.062500
2995,-0.78,2022-08-17 14:11:50.078125
2996,-2.69,2022-08-17 14:11:50.093750
2997,-5.77,2022-08-17 14:11:50.109375
2998,-9.51,2022-08-17 14:11:50.125000
2999,-13.01,2022-08-17 14:11:50.140625
3000,-15.39,2022-08-17 14:11:50.156250
3001,-16.1,2022-08-17 14:11:50.171875
3002,-15.13,2022-08-17 14:11:50.187500
3003,-12.97,2022-08-17 14:11:50.203125
3004,-10.32,2022-08-17 14:11:50.218750
3005,-7.79,2022-08-17 14:11:50.234375
3006,-5.72,2022-08-17 14:11:50.250000
3007,-4.2,2022-08-17 14:11:50.265625
3008,-3.13,2022-08-17 14:11:50.281250
3009,-2.37,2022-08-17 14:11:50.296875
3010,-1.79,2022-08-17 14:11:50.312500
3011,-1.31,2022-08-17 14:11:50.328125
3012,-0.87,2022-08-17 14:11:50.343750
3013,-0.41,2022-08-17 14:11:50.359375
3014,0.12,2022-08-17 14:11:50.375000
3015,0.75,2022-08-17 14:11:50.390625
3016,1.42,2022-08-17 14:11:50.406250
3017,2.02,2022-08-17 14:11:50.421875
3018,2.43,2022-08-17 14:11:50.437500
3019,2.59,2022-08-17 14:11:50.453125
3020,2.55,2022-08-17 14:11:50.468750
3021,2.46,2022-08-17 14:11:50.484375
3022,2.53,2022-08-17 14:11:50.500000
3023,2.89,2022-08-17 14:11:50.515625
3024,3.53,2022-08-17 14:11:50.531250
3025,4.28,2022-08-17 14:11:50.546875
3026,4.91,2022-08-17 14:11:50.562500
3027,5.25,2022-08-17 14:11:50.578125
3028,5.24,2022-08-17 14:11:50.593750
3029,5.03,2022-08-17 14:11:50.609375
3030,4.81,2022-08-17 14:11:50.625000
3031,4.76,2022-08-17 14:11:50.640625
3032,4.97,2022-08-17 14:11:50.656250
3033,5.35,2022-08-17 14:11:50.671875
3034,5.77,2022-08-17 14:11:50.687500
3035,6.09,2022-08-17 14:11:50.703125
3036,6.2,2022-08-17 14:11:50.718750
3037,6.08,2022-08-17 14:11:50.734375
3038,5.78,2022-08-17 14:11:50.750000
3039,5.35,2022-08-17 14:11:50.765625
3040,4.87,2022-08-17 14:11:50.781250
3041,4.37,2022-08-17 14:11:50.796875
3042,3.83,2022-08-17 14:11:50.812500
3043,3.27,2022-08-17 14:11:50.828125
3044,2.68,2022-08-17 14:11:50.843750
3045,2.2,2022-08-17 14:11:50.859375
3046,1.94,2022-08-17 14:11:50.875000
3047,2.05,2022-08-17 14:11:50.890625
3048,2.52,2022-08-17 14:11:50.906250
3049,3.2,2022-08-17 14:11:50.921875
3050,3.76,2022-08-17 14:11:50.937500
3051,3.88,2022-08-17 14:11:50.953125
3052,3.41,2022-08-17 14:11:50.968750
3053,2.4,2022-08-17 14:11:50.984375
3054,1.15,2022-08-17 14:11:51.000000
3055,0.05,2022-08-17 14:11:51.015625
3056,-0.58,2022-08-17 14:11:51.031250
3057,-0.57,2022-08-17 14:11:51.046875
3058,0.02,2022-08-17 14:11:51.062500
3059,1.0,2022-08-17 14:11:51.078125
3060,2.02,2022-08-17 14:11:51.093750
3061,2.62,2022-08-17 14:11:51.109375
3062,2.32,2022-08-17 14:11:51.125000
3063,0.77,2022-08-17 14:11:51.140625
3064,-2.08,2022-08-17 14:11:51.156250
3065,-5.85,2022-08-17 14:11:51.171875
3066,-9.8,2022-08-17 14:11:51.187500
3067,-13.08,2022-08-17 14:11:51.203125
3068,-15.0,2022-08-17 14:11:51.218750
3069,-15.28,2022-08-17 14:11:51.234375
3070,-14.09,2022-08-17 14:11:51.250000
3071,-11.93,2022-08-17 14:11:51.265625
3072,-9.35,2022-08-17 14:11:51.281250
3073,-6.84,2022-08-17 14:11:51.296875
3074,-4.69,2022-08-17 14:11:51.312500
3075,-3.02,2022-08-17 14:11:51.328125
3076,-1.81,2022-08-17 14:11:51.343750
3077,-0.94,2022-08-17 14:11:51.359375
3078,-0.2,2022-08-17 14:11:51.375000
3079,0.61,2022-08-17 14:11:51.390625
3080,1.58,2022-08-17 14:11:51.406250
3081,2.66,2022-08-17 14:11:51.421875
3082,3.68,2022-08-17 14:11:51.437500
3083,4.46,2022-08-17 14:11:51.453125
3084,4.85,2022-08-17 14:11:51.468750
3085,4.86,2022-08-17 14:11:51.484375
3086,4.56,2022-08-17 14:11:51.500000
3087,4.03,2022-08-17 14:11:51.515625
3088,3.33,2022-08-17 14:11:51.531250
3089,2.54,2022-08-17 14:11:51.546875
3090,1.81,2022-08-17 14:11:51.562500
3091,1.38,2022-08-17 14:11:51.578125
3092,1.45,2022-08-17 14:11:51.593750
3093,2.12,2022-08-17 14:11:51.609375
3094,3.27,2022-08-17 14:11:51.625000
3095,4.61,2022-08-17 14:11:51.640625
3096,5.81,2022-08-17 14:11:51.656250
3097,6.63,2022-08-17 14:11:51.671875
3098,7.01,2022-08-17 14:11:51.687500
3099,7.05,2022-08-17 14:11:51.703125
3100,6.91,2022-08-17 14:11:51.718750
3101,6.72,2022-08-17 14:11:51.734375
3102,6.54,2022-08-17 14:11:51.750000
3103,6.35,2022-08-17 14:11:51.765625
3104,6.11,2022-08-17 14:11:51.781250
3105,5.8,2022-08-17 14:11:51.796875
3106,5.42,2022-08-17 14:11:51.812500
3107,4.96,2022-08-17 14:11:51.828125
3108,4.45,2022-08-17 14:11:51.843750
3109,3.93,2022-08-17 14:11:51.859375
3110,3.43,2022-08-17 14:11:51.875000
3111,2.95,2022-08-17 14:11:51.890625
3112,2.48,2022-08-17 14:11:51.906250
3113,1.96,2022-08-17 14:11:51.921875
3114,1.34,2022-08-17 14:11:51.937500
3115,0.63,2022-08-17 14:11:51.953125
3116,-0.1,2022-08-17 14:11:51.968750
3117,-0.71,2022-08-17 14:11:51.984375
3118,-1.0,2022-08-17 14:11:52.000000
3119,-0.83,2022-08-17 14:11:52.015625
3120,-0.19,2022-08-17 14:11:52.031250
3121,0.7,2022-08-17 14:11:52.046875
3122,1.41,2022-08-17 14:11:52.062500
3123,1.34,2022-08-17 14:11:52.078125
3124,-0.02,2022-08-17 14:11:52.093750
3125,-2.83,2022-08-17 14:11:52.109375
3126,-6.75,2022-08-17 14:11:52.125000
3127,-10.95,2022-08-17 14:11:52.140625
3128,-14.4,2022-08-17 14:11:52.156250
3129,-16.28,2022-08-17 14:11:52.171875
3130,-16.28,2022-08-17 14:11:52.187500
3131,-14.69,2022-08-17 14:11:52.203125
3132,-12.21,2022-08-17 14:11:52.218750
3133,-9.64,2022-08-17 14:11:52.234375
3134,-7.48,2022-08-17 14:11:52.250000
3135,-5.87,2022-08-17 14:11:52.265625
3136,-4.69,2022-08-17 14:11:52.281250
3137,-3.73,2022-08-17 14:11:52.296875
3138,-2.84,2022-08-17 14:11:52.312500
3139,-1.98,2022-08-17 14:11:52.328125
3140,-1.17,2022-08-17 14:11:52.343750
3141,-0.4,2022-08-17 14:11:52.359375
3142,0.38,2022-08-17 14:11:52.375000
3143,1.22,2022-08-17 14:11:52.390625
3144,2.08,2022-08-17 14:11:52.406250
3145,2.87,2022-08-17 14:11:52.421875
3146,3.41,2022-08-17 14:11:52.437500
3147,3.59,2022-08-17 14:11:52.453125
3148,3.39,2022-08-17 14:11:52.468750
3149,2.92,2022-08-17 14:11:52.484375
3150,2.38,2022-08-17 14:11:52.500000
3151,1.99,2022-08-17 14:11:52.515625
3152,1.92,2022-08-17 14:11:52.531250
3153,2.24,2022-08-17 14:11:52.546875
3154,2.92,2022-08-17 14:11:52.562500
3155,3.8,2022-08-17 14:11:52.578125
3156,4.68,2022-08-17 14:11:52.593750
3157,5.37,2022-08-17 14:11:52.609375
3158,5.8,2022-08-17 14:11:52.625000
3159,6.01,2022-08-17 14:11:52.640625
3160,6.14,2022-08-17 14:11:52.656250
3161,6.35,2022-08-17 14:11:52.671875
3162,6.66,2022-08-17 14:11:52.687500
3163,6.98,2022-08-17 14:11:52.703125
3164,7.12,2022-08-17 14:11:52.718750
3165,6.9,2022-08-17 14:11:52.734375
3166,6.32,2022-08-17 14:11:52.750000
3167,5.52,2022-08-17 14:11:52.765625
3168,4.73,2022-08-17 14:11:52.781250
3169,4.18,2022-08-17 14:11:52.796875
3170,3.9,2022-08-17 14:11:52.812500
3171,3.85,2022-08-17 14:11:52.828125
3172,3.87,2022-08-17 14:11:52.843750
3173,3.82,2022-08-17 14:11:52.859375
3174,3.58,2022-08-17 14:11:52.875000
3175,3.12,2022-08-17 14:11:52.890625
3176,2.43,2022-08-17 14:11:52.906250
3177,1.56,2022-08-17 14:11:52.921875
3178,0.62,2022-08-17 14:11:52.937500
3179,-0.19,2022-08-17 14:11:52.953125
3180,-0.64,2022-08-17 14:11:52.968750
3181,-0.52,2022-08-17 14:11:52.984375
3182,0.21,2022-08-17 14:11:53.000000
3183,1.28,2022-08-17 14:11:53.015625
3184,2.12,2022-08-17 14:11:53.031250
3185,2.02,2022-08-17 14:11:53.046875
3186,0.37,2022-08-17 14:11:53.062500
3187,-3.0,2022-08-17 14:11:53.078125
3188,-7.68,2022-08-17 14:11:53.093750
3189,-12.78,2022-08-17 14:11:53.109375
3190,-17.17,2022-08-17 14:11:53.125000
3191,-19.94,2022-08-17 14:11:53.140625
3192,-20.65,2022-08-17 14:11:53.156250
3193,-19.47,2022-08-17 14:11:53.171875
3194,-17.0,2022-08-17 14:11:53.187500
3195,-14.01,2022-08-17 14:11:53.203125
3196,-11.13,2022-08-17 14:11:53.218750
3197,-8.67,2022-08-17 14:11:53.234375
3198,-6.68,2022-08-17 14:11:53.250000
3199,-5.03,2022-08-17 14:11:53.265625
3200,-3.57,2022-08-17 14:11:53.281250
3201,-2.2,2022-08-17 14:11:53.296875
3202,-0.93,2022-08-17 14:11:53.312500
3203,0.17,2022-08-17 14:11:53.328125
3204,1.03,2022-08-17 14:11:53.343750
3205,1.6,2022-08-17 14:11:53.359375
3206,1.9,2022-08-17 14:11:53.375000
3207,2.02,2022-08-17 14:11:53.390625
3208,2.07,2022-08-17 14:11:53.406250
3209,2.12,2022-08-17 14:11:53.421875
3210,2.19,2022-08-17 14:11:53.437500
3211,2.25,2022-08-17 14:11:53.453125
3212,2.29,2022-08-17 14:11:53.468750
3213,2.31,2022-08-17 14:11:53.484375
3214,2.41,2022-08-17 14:11:53.500000
3215,2.73,2022-08-17 14:11:53.515625
3216,3.41,2022-08-17 14:11:53.531250
3217,4.47,2022-08-17 14:11:53.546875
3218,5.79,2022-08-17 14:11:53.562500
3219,7.07,2022-08-17 14:11:53.578125
3220,7.99,2022-08-17 14:11:53.593750
