,BVP,time
0,-77.88,2022-08-17 14:00:53.843750
1,-79.15,2022-08-17 14:00:53.859375
2,-79.43,2022-08-17 14:00:53.875000
3,-77.59,2022-08-17 14:00:53.890625
4,-73.18,2022-08-17 14:00:53.906250
5,-66.77,2022-08-17 14:00:53.921875
6,-59.68,2022-08-17 14:00:53.937500
7,-53.43,2022-08-17 14:00:53.953125
8,-49.2,2022-08-17 14:00:53.968750
9,-47.46,2022-08-17 14:00:53.984375
10,-48.03,2022-08-17 14:00:54.000000
11,-50.32,2022-08-17 14:00:54.015625
12,-53.66,2022-08-17 14:00:54.031250
13,-57.45,2022-08-17 14:00:54.046875
14,-61.13,2022-08-17 14:00:54.062500
15,-64.11,2022-08-17 14:00:54.078125
16,-65.84,2022-08-17 14:00:54.093750
17,-65.84,2022-08-17 14:00:54.109375
18,-64.03,2022-08-17 14:00:54.125000
19,-60.88,2022-08-17 14:00:54.140625
20,-57.31,2022-08-17 14:00:54.156250
21,-54.37,2022-08-17 14:00:54.171875
22,-52.79,2022-08-17 14:00:54.187500
23,-52.68,2022-08-17 14:00:54.203125
24,-53.5,2022-08-17 14:00:54.218750
25,-54.47,2022-08-17 14:00:54.234375
26,-55.03,2022-08-17 14:00:54.250000
27,-55.22,2022-08-17 14:00:54.265625
28,-55.64,2022-08-17 14:00:54.281250
29,-56.98,2022-08-17 14:00:54.296875
30,-59.5,2022-08-17 14:00:54.312500
31,-62.61,2022-08-17 14:00:54.328125
32,-65.0,2022-08-17 14:00:54.343750
33,-65.13,2022-08-17 14:00:54.359375
34,-61.94,2022-08-17 14:00:54.375000
35,-55.27,2022-08-17 14:00:54.390625
36,-45.87,2022-08-17 14:00:54.406250
37,-34.97,2022-08-17 14:00:54.421875
38,-23.79,2022-08-17 14:00:54.437500
39,-13.0,2022-08-17 14:00:54.453125
40,-2.71,2022-08-17 14:00:54.468750
41,7.04,2022-08-17 14:00:54.484375
42,16.24,2022-08-17 14:00:54.500000
43,24.8,2022-08-17 14:00:54.515625
44,32.44,2022-08-17 14:00:54.531250
45,38.7,2022-08-17 14:00:54.546875
46,43.11,2022-08-17 14:00:54.562500
47,45.46,2022-08-17 14:00:54.578125
48,45.91,2022-08-17 14:00:54.593750
49,44.82,2022-08-17 14:00:54.609375
50,42.18,2022-08-17 14:00:54.625000
51,37.78,2022-08-17 14:00:54.640625
52,31.58,2022-08-17 14:00:54.656250
53,24.23,2022-08-17 14:00:54.671875
54,17.4,2022-08-17 14:00:54.687500
55,13.7,2022-08-17 14:00:54.703125
56,16.08,2022-08-17 14:00:54.718750
57,26.87,2022-08-17 14:00:54.734375
58,46.74,2022-08-17 14:00:54.750000
59,73.71,2022-08-17 14:00:54.765625
60,104.56,2022-08-17 14:00:54.781250
61,136.19,2022-08-17 14:00:54.796875
62,166.55,2022-08-17 14:00:54.812500
63,194.3,2022-08-17 14:00:54.828125
64,218.15,2022-08-17 14:00:54.843750
65,236.51,2022-08-17 14:00:54.859375
66,247.78,2022-08-17 14:00:54.875000
67,251.24,2022-08-17 14:00:54.890625
68,245.95,2022-08-17 14:00:54.906250
69,233.43,2022-08-17 14:00:54.921875
70,217.74,2022-08-17 14:00:54.937500
71,203.43,2022-08-17 14:00:54.953125
72,192.5,2022-08-17 14:00:54.968750
73,183.04,2022-08-17 14:00:54.984375
74,170.57,2022-08-17 14:00:55.000000
75,150.61,2022-08-17 14:00:55.015625
76,120.96,2022-08-17 14:00:55.031250
77,78.73,2022-08-17 14:00:55.046875
78,25.09,2022-08-17 14:00:55.062500
79,-33.99,2022-08-17 14:00:55.078125
80,-89.75,2022-08-17 14:00:55.093750
81,-135.12,2022-08-17 14:00:55.109375
82,-167.48,2022-08-17 14:00:55.125000
83,-188.56,2022-08-17 14:00:55.140625
84,-202.92,2022-08-17 14:00:55.156250
85,-215.69,2022-08-17 14:00:55.171875
86,-237.2,2022-08-17 14:00:55.187500
87,-273.04,2022-08-17 14:00:55.203125
88,-320.25,2022-08-17 14:00:55.218750
89,-368.98,2022-08-17 14:00:55.234375
90,-409.14,2022-08-17 14:00:55.250000
91,-435.38,2022-08-17 14:00:55.265625
92,-447.4,2022-08-17 14:00:55.281250
93,-448.09,2022-08-17 14:00:55.296875
94,-441.1,2022-08-17 14:00:55.312500
95,-438.1,2022-08-17 14:00:55.328125
96,-447.63,2022-08-17 14:00:55.343750
97,-470.89,2022-08-17 14:00:55.359375
98,-502.9,2022-08-17 14:00:55.375000
99,-537.92,2022-08-17 14:00:55.390625
100,-572.99,2022-08-17 14:00:55.406250
101,-606.96,2022-08-17 14:00:55.421875
102,-638.74,2022-08-17 14:00:55.437500
103,-614.1,2022-08-17 14:00:55.453125
104,-504.66,2022-08-17 14:00:55.468750
105,-326.18,2022-08-17 14:00:55.484375
106,-128.64,2022-08-17 14:00:55.500000
107,43.91,2022-08-17 14:00:55.515625
108,174.55,2022-08-17 14:00:55.531250
109,266.02,2022-08-17 14:00:55.546875
110,327.82,2022-08-17 14:00:55.562500
111,368.81,2022-08-17 14:00:55.578125
112,395.5,2022-08-17 14:00:55.593750
113,403.67,2022-08-17 14:00:55.609375
114,389.83,2022-08-17 14:00:55.625000
115,356.19,2022-08-17 14:00:55.640625
116,311.29,2022-08-17 14:00:55.656250
117,265.15,2022-08-17 14:00:55.671875
118,225.36,2022-08-17 14:00:55.687500
119,196.74,2022-08-17 14:00:55.703125
120,182.11,2022-08-17 14:00:55.718750
121,182.38,2022-08-17 14:00:55.734375
122,189.56,2022-08-17 14:00:55.750000
123,195.29,2022-08-17 14:00:55.765625
124,198.69,2022-08-17 14:00:55.781250
125,198.12,2022-08-17 14:00:55.796875
126,193.96,2022-08-17 14:00:55.812500
127,187.93,2022-08-17 14:00:55.828125
128,182.93,2022-08-17 14:00:55.843750
129,180.15,2022-08-17 14:00:55.859375
130,178.76,2022-08-17 14:00:55.875000
131,172.82,2022-08-17 14:00:55.890625
132,157.96,2022-08-17 14:00:55.906250
133,134.54,2022-08-17 14:00:55.921875
134,107.08,2022-08-17 14:00:55.937500
135,81.3,2022-08-17 14:00:55.953125
136,61.65,2022-08-17 14:00:55.968750
137,49.78,2022-08-17 14:00:55.984375
138,44.84,2022-08-17 14:00:56.000000
139,44.85,2022-08-17 14:00:56.015625
140,45.42,2022-08-17 14:00:56.031250
141,43.1,2022-08-17 14:00:56.046875
142,36.96,2022-08-17 14:00:56.062500
143,28.11,2022-08-17 14:00:56.078125
144,19.01,2022-08-17 14:00:56.093750
145,11.58,2022-08-17 14:00:56.109375
146,6.34,2022-08-17 14:00:56.125000
147,2.58,2022-08-17 14:00:56.140625
148,-0.82,2022-08-17 14:00:56.156250
149,-5.52,2022-08-17 14:00:56.171875
150,-12.46,2022-08-17 14:00:56.187500
151,-21.43,2022-08-17 14:00:56.203125
152,-31.54,2022-08-17 14:00:56.218750
153,-41.45,2022-08-17 14:00:56.234375
154,-50.27,2022-08-17 14:00:56.250000
155,-58.05,2022-08-17 14:00:56.265625
156,-65.58,2022-08-17 14:00:56.281250
157,-73.64,2022-08-17 14:00:56.296875
158,-82.52,2022-08-17 14:00:56.312500
159,-91.83,2022-08-17 14:00:56.328125
160,-100.49,2022-08-17 14:00:56.343750
161,-107.3,2022-08-17 14:00:56.359375
162,-110.98,2022-08-17 14:00:56.375000
163,-110.74,2022-08-17 14:00:56.390625
164,-106.6,2022-08-17 14:00:56.406250
165,-99.31,2022-08-17 14:00:56.421875
166,-89.85,2022-08-17 14:00:56.437500
167,-79.02,2022-08-17 14:00:56.453125
168,-67.12,2022-08-17 14:00:56.468750
169,-53.98,2022-08-17 14:00:56.484375
170,-39.25,2022-08-17 14:00:56.500000
171,-22.57,2022-08-17 14:00:56.515625
172,-3.95,2022-08-17 14:00:56.531250
173,16.04,2022-08-17 14:00:56.546875
174,36.32,2022-08-17 14:00:56.562500
175,55.54,2022-08-17 14:00:56.578125
176,72.38,2022-08-17 14:00:56.593750
177,85.73,2022-08-17 14:00:56.609375
178,94.8,2022-08-17 14:00:56.625000
179,99.17,2022-08-17 14:00:56.640625
180,98.74,2022-08-17 14:00:56.656250
181,93.76,2022-08-17 14:00:56.671875
182,84.8,2022-08-17 14:00:56.687500
183,72.67,2022-08-17 14:00:56.703125
184,58.32,2022-08-17 14:00:56.718750
185,42.7,2022-08-17 14:00:56.734375
186,26.64,2022-08-17 14:00:56.750000
187,10.88,2022-08-17 14:00:56.765625
188,-3.94,2022-08-17 14:00:56.781250
189,-17.24,2022-08-17 14:00:56.796875
190,-28.45,2022-08-17 14:00:56.812500
191,-37.1,2022-08-17 14:00:56.828125
192,-42.81,2022-08-17 14:00:56.843750
193,-45.36,2022-08-17 14:00:56.859375
194,-44.81,2022-08-17 14:00:56.875000
195,-41.56,2022-08-17 14:00:56.890625
196,-36.5,2022-08-17 14:00:56.906250
197,-30.84,2022-08-17 14:00:56.921875
198,-25.81,2022-08-17 14:00:56.937500
199,-21.97,2022-08-17 14:00:56.953125
200,-18.79,2022-08-17 14:00:56.968750
201,-14.53,2022-08-17 14:00:56.984375
202,-6.9,2022-08-17 14:00:57.000000
203,6.12,2022-08-17 14:00:57.015625
204,25.05,2022-08-17 14:00:57.031250
205,48.31,2022-08-17 14:00:57.046875
206,72.55,2022-08-17 14:00:57.062500
207,93.96,2022-08-17 14:00:57.078125
208,109.82,2022-08-17 14:00:57.093750
209,119.24,2022-08-17 14:00:57.109375
210,123.06,2022-08-17 14:00:57.125000
211,122.87,2022-08-17 14:00:57.140625
212,120.26,2022-08-17 14:00:57.156250
213,116.38,2022-08-17 14:00:57.171875
214,111.99,2022-08-17 14:00:57.187500
215,107.86,2022-08-17 14:00:57.203125
216,105.02,2022-08-17 14:00:57.218750
217,104.64,2022-08-17 14:00:57.234375
218,106.94,2022-08-17 14:00:57.250000
219,110.52,2022-08-17 14:00:57.265625
220,112.24,2022-08-17 14:00:57.281250
221,109.18,2022-08-17 14:00:57.296875
222,99.99,2022-08-17 14:00:57.312500
223,85.84,2022-08-17 14:00:57.328125
224,70.02,2022-08-17 14:00:57.343750
225,56.68,2022-08-17 14:00:57.359375
226,49.53,2022-08-17 14:00:57.375000
227,49.7,2022-08-17 14:00:57.390625
228,55.2,2022-08-17 14:00:57.406250
229,61.35,2022-08-17 14:00:57.421875
230,64.55,2022-08-17 14:00:57.437500
231,63.21,2022-08-17 14:00:57.453125
232,58.02,2022-08-17 14:00:57.468750
233,50.75,2022-08-17 14:00:57.484375
234,43.26,2022-08-17 14:00:57.500000
235,38.13,2022-08-17 14:00:57.515625
236,36.67,2022-08-17 14:00:57.531250
237,38.4,2022-08-17 14:00:57.546875
238,40.04,2022-08-17 14:00:57.562500
239,39.88,2022-08-17 14:00:57.578125
240,36.96,2022-08-17 14:00:57.593750
241,31.01,2022-08-17 14:00:57.609375
242,21.61,2022-08-17 14:00:57.625000
243,8.82,2022-08-17 14:00:57.640625
244,-4.3,2022-08-17 14:00:57.656250
245,-14.5,2022-08-17 14:00:57.671875
246,-20.1,2022-08-17 14:00:57.687500
247,-23.92,2022-08-17 14:00:57.703125
248,-26.88,2022-08-17 14:00:57.718750
249,-29.3,2022-08-17 14:00:57.734375
250,-30.66,2022-08-17 14:00:57.750000
251,-31.0,2022-08-17 14:00:57.765625
252,-30.44,2022-08-17 14:00:57.781250
253,-26.14,2022-08-17 14:00:57.796875
254,-15.9,2022-08-17 14:00:57.812500
255,0.41,2022-08-17 14:00:57.828125
256,18.03,2022-08-17 14:00:57.843750
257,36.11,2022-08-17 14:00:57.859375
258,55.7,2022-08-17 14:00:57.875000
259,78.94,2022-08-17 14:00:57.890625
260,106.22,2022-08-17 14:00:57.906250
261,117.99,2022-08-17 14:00:57.921875
262,101.61,2022-08-17 14:00:57.937500
263,58.86,2022-08-17 14:00:57.953125
264,22.91,2022-08-17 14:00:57.968750
265,0.26,2022-08-17 14:00:57.984375
266,-9.6,2022-08-17 14:00:58.000000
267,-15.41,2022-08-17 14:00:58.015625
268,-19.79,2022-08-17 14:00:58.031250
269,-23.82,2022-08-17 14:00:58.046875
270,-27.48,2022-08-17 14:00:58.062500
271,-27.11,2022-08-17 14:00:58.078125
272,-19.83,2022-08-17 14:00:58.093750
273,-5.96,2022-08-17 14:00:58.109375
274,7.8,2022-08-17 14:00:58.125000
275,17.34,2022-08-17 14:00:58.140625
276,20.47,2022-08-17 14:00:58.156250
277,17.61,2022-08-17 14:00:58.171875
278,10.12,2022-08-17 14:00:58.187500
279,0.43,2022-08-17 14:00:58.203125
280,-6.34,2022-08-17 14:00:58.218750
281,-6.03,2022-08-17 14:00:58.234375
282,2.38,2022-08-17 14:00:58.250000
283,14.42,2022-08-17 14:00:58.265625
284,27.16,2022-08-17 14:00:58.281250
285,38.66,2022-08-17 14:00:58.296875
286,48.53,2022-08-17 14:00:58.312500
287,56.76,2022-08-17 14:00:58.328125
288,63.89,2022-08-17 14:00:58.343750
289,72.07,2022-08-17 14:00:58.359375
290,82.59,2022-08-17 14:00:58.375000
291,94.43,2022-08-17 14:00:58.390625
292,102.86,2022-08-17 14:00:58.406250
293,104.27,2022-08-17 14:00:58.421875
294,96.62,2022-08-17 14:00:58.437500
295,80.34,2022-08-17 14:00:58.453125
296,57.58,2022-08-17 14:00:58.468750
297,31.89,2022-08-17 14:00:58.484375
298,7.64,2022-08-17 14:00:58.500000
299,-12.07,2022-08-17 14:00:58.515625
300,-26.4,2022-08-17 14:00:58.531250
301,-37.38,2022-08-17 14:00:58.546875
302,-46.96,2022-08-17 14:00:58.562500
303,-56.51,2022-08-17 14:00:58.578125
304,-66.27,2022-08-17 14:00:58.593750
305,-76.09,2022-08-17 14:00:58.609375
306,-85.85,2022-08-17 14:00:58.625000
307,-95.55,2022-08-17 14:00:58.640625
308,-105.81,2022-08-17 14:00:58.656250
309,-117.63,2022-08-17 14:00:58.671875
310,-132.06,2022-08-17 14:00:58.687500
311,-149.25,2022-08-17 14:00:58.703125
312,-168.56,2022-08-17 14:00:58.718750
313,-188.96,2022-08-17 14:00:58.734375
314,-209.58,2022-08-17 14:00:58.750000
315,-229.67,2022-08-17 14:00:58.765625
316,-248.36,2022-08-17 14:00:58.781250
317,-264.14,2022-08-17 14:00:58.796875
318,-274.62,2022-08-17 14:00:58.812500
319,-276.94,2022-08-17 14:00:58.828125
320,-268.65,2022-08-17 14:00:58.843750
321,-248.79,2022-08-17 14:00:58.859375
322,-218.45,2022-08-17 14:00:58.875000
323,-180.68,2022-08-17 14:00:58.890625
324,-139.72,2022-08-17 14:00:58.906250
325,-100.1,2022-08-17 14:00:58.921875
326,-65.76,2022-08-17 14:00:58.937500
327,-39.59,2022-08-17 14:00:58.953125
328,-23.16,2022-08-17 14:00:58.968750
329,-16.45,2022-08-17 14:00:58.984375
330,-17.96,2022-08-17 14:00:59.000000
331,-25.17,2022-08-17 14:00:59.015625
332,-35.6,2022-08-17 14:00:59.031250
333,-48.07,2022-08-17 14:00:59.046875
334,-63.34,2022-08-17 14:00:59.062500
335,-83.78,2022-08-17 14:00:59.078125
336,-111.65,2022-08-17 14:00:59.093750
337,-147.01,2022-08-17 14:00:59.109375
338,-186.46,2022-08-17 14:00:59.125000
339,-223.46,2022-08-17 14:00:59.140625
340,-250.57,2022-08-17 14:00:59.156250
341,-262.25,2022-08-17 14:00:59.171875
342,-257.03,2022-08-17 14:00:59.187500
343,-237.76,2022-08-17 14:00:59.203125
344,-210.05,2022-08-17 14:00:59.218750
345,-179.82,2022-08-17 14:00:59.234375
346,-151.24,2022-08-17 14:00:59.250000
347,-125.89,2022-08-17 14:00:59.265625
348,-103.38,2022-08-17 14:00:59.281250
349,-82.59,2022-08-17 14:00:59.296875
350,-62.59,2022-08-17 14:00:59.312500
351,-42.94,2022-08-17 14:00:59.328125
352,-23.42,2022-08-17 14:00:59.343750
353,-3.67,2022-08-17 14:00:59.359375
354,16.77,2022-08-17 14:00:59.375000
355,38.0,2022-08-17 14:00:59.390625
356,59.38,2022-08-17 14:00:59.406250
357,79.41,2022-08-17 14:00:59.421875
358,96.21,2022-08-17 14:00:59.437500
359,108.3,2022-08-17 14:00:59.453125
360,115.19,2022-08-17 14:00:59.468750
361,117.61,2022-08-17 14:00:59.484375
362,117.13,2022-08-17 14:00:59.500000
363,115.62,2022-08-17 14:00:59.515625
364,114.58,2022-08-17 14:00:59.531250
365,114.83,2022-08-17 14:00:59.546875
366,116.35,2022-08-17 14:00:59.562500
367,118.5,2022-08-17 14:00:59.578125
368,120.25,2022-08-17 14:00:59.593750
369,120.55,2022-08-17 14:00:59.609375
370,118.64,2022-08-17 14:00:59.625000
371,114.28,2022-08-17 14:00:59.640625
372,107.82,2022-08-17 14:00:59.656250
373,100.07,2022-08-17 14:00:59.671875
374,92.01,2022-08-17 14:00:59.687500
375,84.46,2022-08-17 14:00:59.703125
376,77.84,2022-08-17 14:00:59.718750
377,72.05,2022-08-17 14:00:59.734375
378,66.6,2022-08-17 14:00:59.750000
379,60.87,2022-08-17 14:00:59.765625
380,54.39,2022-08-17 14:00:59.781250
381,47.04,2022-08-17 14:00:59.796875
382,39.1,2022-08-17 14:00:59.812500
383,31.09,2022-08-17 14:00:59.828125
384,23.5,2022-08-17 14:00:59.843750
385,16.61,2022-08-17 14:00:59.859375
386,10.27,2022-08-17 14:00:59.875000
387,3.96,2022-08-17 14:00:59.890625
388,-3.01,2022-08-17 14:00:59.906250
389,-11.29,2022-08-17 14:00:59.921875
390,-21.07,2022-08-17 14:00:59.937500
391,-31.87,2022-08-17 14:00:59.953125
392,-42.41,2022-08-17 14:00:59.968750
393,-50.77,2022-08-17 14:00:59.984375
394,-54.92,2022-08-17 14:01:00.000000
395,-53.29,2022-08-17 14:01:00.015625
396,-45.36,2022-08-17 14:01:00.031250
397,-31.87,2022-08-17 14:01:00.046875
398,-14.61,2022-08-17 14:01:00.062500
399,4.22,2022-08-17 14:01:00.078125
400,22.58,2022-08-17 14:01:00.093750
401,39.09,2022-08-17 14:01:00.109375
402,53.1,2022-08-17 14:01:00.125000
403,64.52,2022-08-17 14:01:00.140625
404,73.47,2022-08-17 14:01:00.156250
405,80.12,2022-08-17 14:01:00.171875
406,84.56,2022-08-17 14:01:00.187500
407,86.94,2022-08-17 14:01:00.203125
408,87.5,2022-08-17 14:01:00.218750
409,86.62,2022-08-17 14:01:00.234375
410,84.75,2022-08-17 14:01:00.250000
411,82.38,2022-08-17 14:01:00.265625
412,79.84,2022-08-17 14:01:00.281250
413,77.38,2022-08-17 14:01:00.296875
414,75.11,2022-08-17 14:01:00.312500
415,73.1,2022-08-17 14:01:00.328125
416,71.4,2022-08-17 14:01:00.343750
417,70.1,2022-08-17 14:01:00.359375
418,69.28,2022-08-17 14:01:00.375000
419,68.91,2022-08-17 14:01:00.390625
420,68.8,2022-08-17 14:01:00.406250
421,68.55,2022-08-17 14:01:00.421875
422,67.64,2022-08-17 14:01:00.437500
423,65.6,2022-08-17 14:01:00.453125
424,62.19,2022-08-17 14:01:00.468750
425,57.53,2022-08-17 14:01:00.484375
426,52.03,2022-08-17 14:01:00.500000
427,46.27,2022-08-17 14:01:00.515625
428,40.75,2022-08-17 14:01:00.531250
429,35.64,2022-08-17 14:01:00.546875
430,30.83,2022-08-17 14:01:00.562500
431,25.9,2022-08-17 14:01:00.578125
432,20.46,2022-08-17 14:01:00.593750
433,14.29,2022-08-17 14:01:00.609375
434,7.48,2022-08-17 14:01:00.625000
435,0.42,2022-08-17 14:01:00.640625
436,-6.42,2022-08-17 14:01:00.656250
437,-12.62,2022-08-17 14:01:00.671875
438,-18.04,2022-08-17 14:01:00.687500
439,-22.83,2022-08-17 14:01:00.703125
440,-27.43,2022-08-17 14:01:00.718750
441,-32.42,2022-08-17 14:01:00.734375
442,-38.37,2022-08-17 14:01:00.750000
443,-45.5,2022-08-17 14:01:00.765625
444,-53.54,2022-08-17 14:01:00.781250
445,-61.53,2022-08-17 14:01:00.796875
446,-67.97,2022-08-17 14:01:00.812500
447,-71.21,2022-08-17 14:01:00.828125
448,-69.86,2022-08-17 14:01:00.843750
449,-63.36,2022-08-17 14:01:00.859375
450,-52.13,2022-08-17 14:01:00.875000
451,-37.47,2022-08-17 14:01:00.890625
452,-21.15,2022-08-17 14:01:00.906250
453,-4.91,2022-08-17 14:01:00.921875
454,9.91,2022-08-17 14:01:00.937500
455,22.6,2022-08-17 14:01:00.953125
456,32.91,2022-08-17 14:01:00.968750
457,40.92,2022-08-17 14:01:00.984375
458,46.85,2022-08-17 14:01:01.000000
459,50.88,2022-08-17 14:01:01.015625
460,53.22,2022-08-17 14:01:01.031250
461,54.09,2022-08-17 14:01:01.046875
462,53.75,2022-08-17 14:01:01.062500
463,52.52,2022-08-17 14:01:01.078125
464,50.73,2022-08-17 14:01:01.093750
465,48.71,2022-08-17 14:01:01.109375
466,46.74,2022-08-17 14:01:01.125000
467,44.98,2022-08-17 14:01:01.140625
468,43.48,2022-08-17 14:01:01.156250
469,42.24,2022-08-17 14:01:01.171875
470,41.23,2022-08-17 14:01:01.187500
471,40.46,2022-08-17 14:01:01.203125
472,39.9,2022-08-17 14:01:01.218750
473,39.49,2022-08-17 14:01:01.234375
474,39.01,2022-08-17 14:01:01.250000
475,38.15,2022-08-17 14:01:01.265625
476,36.62,2022-08-17 14:01:01.281250
477,34.23,2022-08-17 14:01:01.296875
478,31.07,2022-08-17 14:01:01.312500
479,27.35,2022-08-17 14:01:01.328125
480,23.37,2022-08-17 14:01:01.343750
481,19.27,2022-08-17 14:01:01.359375
482,15.0,2022-08-17 14:01:01.375000
483,10.37,2022-08-17 14:01:01.390625
484,5.15,2022-08-17 14:01:01.406250
485,-0.7,2022-08-17 14:01:01.421875
486,-7.05,2022-08-17 14:01:01.437500
487,-13.48,2022-08-17 14:01:01.453125
488,-19.57,2022-08-17 14:01:01.468750
489,-24.94,2022-08-17 14:01:01.484375
490,-29.5,2022-08-17 14:01:01.500000
491,-33.46,2022-08-17 14:01:01.515625
492,-37.31,2022-08-17 14:01:01.531250
493,-41.66,2022-08-17 14:01:01.546875
494,-47.0,2022-08-17 14:01:01.562500
495,-53.45,2022-08-17 14:01:01.578125
496,-60.54,2022-08-17 14:01:01.593750
497,-67.17,2022-08-17 14:01:01.609375
498,-71.85,2022-08-17 14:01:01.625000
499,-73.07,2022-08-17 14:01:01.640625
500,-69.81,2022-08-17 14:01:01.656250
501,-61.89,2022-08-17 14:01:01.671875
502,-50.01,2022-08-17 14:01:01.687500
503,-35.56,2022-08-17 14:01:01.703125
504,-20.17,2022-08-17 14:01:01.718750
505,-5.26,2022-08-17 14:01:01.734375
506,8.23,2022-08-17 14:01:01.750000
507,19.86,2022-08-17 14:01:01.765625
508,29.6,2022-08-17 14:01:01.781250
509,37.56,2022-08-17 14:01:01.796875
510,43.82,2022-08-17 14:01:01.812500
511,48.46,2022-08-17 14:01:01.828125
512,51.55,2022-08-17 14:01:01.843750
513,53.22,2022-08-17 14:01:01.859375
514,53.75,2022-08-17 14:01:01.875000
515,53.44,2022-08-17 14:01:01.890625
516,52.63,2022-08-17 14:01:01.906250
517,51.55,2022-08-17 14:01:01.921875
518,50.36,2022-08-17 14:01:01.937500
519,49.11,2022-08-17 14:01:01.953125
520,47.88,2022-08-17 14:01:01.968750
521,46.75,2022-08-17 14:01:01.984375
522,45.84,2022-08-17 14:01:02.000000
523,45.28,2022-08-17 14:01:02.015625
524,45.13,2022-08-17 14:01:02.031250
525,45.3,2022-08-17 14:01:02.046875
526,45.57,2022-08-17 14:01:02.062500
527,45.56,2022-08-17 14:01:02.078125
528,44.93,2022-08-17 14:01:02.093750
529,43.41,2022-08-17 14:01:02.109375
530,40.92,2022-08-17 14:01:02.125000
531,37.64,2022-08-17 14:01:02.140625
532,33.92,2022-08-17 14:01:02.156250
533,30.1,2022-08-17 14:01:02.171875
534,26.49,2022-08-17 14:01:02.187500
535,23.17,2022-08-17 14:01:02.203125
536,20.06,2022-08-17 14:01:02.218750
537,16.96,2022-08-17 14:01:02.234375
538,13.68,2022-08-17 14:01:02.250000
539,10.09,2022-08-17 14:01:02.265625
540,6.22,2022-08-17 14:01:02.281250
541,2.17,2022-08-17 14:01:02.296875
542,-1.88,2022-08-17 14:01:02.312500
543,-5.79,2022-08-17 14:01:02.328125
544,-9.4,2022-08-17 14:01:02.343750
545,-12.65,2022-08-17 14:01:02.359375
546,-15.51,2022-08-17 14:01:02.375000
547,-18.11,2022-08-17 14:01:02.390625
548,-20.75,2022-08-17 14:01:02.406250
549,-23.84,2022-08-17 14:01:02.421875
550,-27.78,2022-08-17 14:01:02.437500
551,-32.74,2022-08-17 14:01:02.453125
552,-38.48,2022-08-17 14:01:02.468750
553,-44.28,2022-08-17 14:01:02.484375
554,-49.0,2022-08-17 14:01:02.500000
555,-51.39,2022-08-17 14:01:02.515625
556,-50.48,2022-08-17 14:01:02.531250
557,-45.84,2022-08-17 14:01:02.546875
558,-37.69,2022-08-17 14:01:02.562500
559,-26.86,2022-08-17 14:01:02.578125
560,-14.53,2022-08-17 14:01:02.593750
561,-1.87,2022-08-17 14:01:02.609375
562,10.11,2022-08-17 14:01:02.625000
563,20.78,2022-08-17 14:01:02.640625
564,29.83,2022-08-17 14:01:02.656250
565,37.18,2022-08-17 14:01:02.671875
566,42.9,2022-08-17 14:01:02.687500
567,47.06,2022-08-17 14:01:02.703125
568,49.78,2022-08-17 14:01:02.718750
569,51.21,2022-08-17 14:01:02.734375
570,51.55,2022-08-17 14:01:02.750000
571,51.1,2022-08-17 14:01:02.765625
572,50.16,2022-08-17 14:01:02.781250
573,49.0,2022-08-17 14:01:02.796875
574,47.79,2022-08-17 14:01:02.812500
575,46.57,2022-08-17 14:01:02.828125
576,45.35,2022-08-17 14:01:02.843750
577,44.17,2022-08-17 14:01:02.859375
578,43.15,2022-08-17 14:01:02.875000
579,42.45,2022-08-17 14:01:02.890625
580,42.14,2022-08-17 14:01:02.906250
581,42.14,2022-08-17 14:01:02.921875
582,42.19,2022-08-17 14:01:02.937500
583,41.91,2022-08-17 14:01:02.953125
584,40.99,2022-08-17 14:01:02.968750
585,39.33,2022-08-17 14:01:02.984375
586,37.03,2022-08-17 14:01:03.000000
587,34.36,2022-08-17 14:01:03.015625
588,31.65,2022-08-17 14:01:03.031250
589,29.08,2022-08-17 14:01:03.046875
590,26.68,2022-08-17 14:01:03.062500
591,24.3,2022-08-17 14:01:03.078125
592,21.73,2022-08-17 14:01:03.093750
593,18.81,2022-08-17 14:01:03.109375
594,15.52,2022-08-17 14:01:03.125000
595,12.01,2022-08-17 14:01:03.140625
596,8.54,2022-08-17 14:01:03.156250
597,5.32,2022-08-17 14:01:03.171875
598,2.45,2022-08-17 14:01:03.187500
599,-0.14,2022-08-17 14:01:03.203125
600,-2.63,2022-08-17 14:01:03.218750
601,-5.25,2022-08-17 14:01:03.234375
602,-8.17,2022-08-17 14:01:03.250000
603,-11.38,2022-08-17 14:01:03.265625
604,-14.79,2022-08-17 14:01:03.281250
605,-18.2,2022-08-17 14:01:03.296875
606,-21.43,2022-08-17 14:01:03.312500
607,-24.35,2022-08-17 14:01:03.328125
608,-26.96,2022-08-17 14:01:03.343750
609,-29.32,2022-08-17 14:01:03.359375
610,-31.63,2022-08-17 14:01:03.375000
611,-34.2,2022-08-17 14:01:03.390625
612,-37.35,2022-08-17 14:01:03.406250
613,-41.3,2022-08-17 14:01:03.421875
614,-45.94,2022-08-17 14:01:03.437500
615,-50.7,2022-08-17 14:01:03.453125
616,-54.6,2022-08-17 14:01:03.468750
617,-56.49,2022-08-17 14:01:03.484375
618,-55.46,2022-08-17 14:01:03.500000
619,-51.17,2022-08-17 14:01:03.515625
620,-43.95,2022-08-17 14:01:03.531250
621,-34.68,2022-08-17 14:01:03.546875
622,-24.45,2022-08-17 14:01:03.562500
623,-14.26,2022-08-17 14:01:03.578125
624,-4.76,2022-08-17 14:01:03.593750
625,3.7,2022-08-17 14:01:03.609375
626,10.98,2022-08-17 14:01:03.625000
627,17.04,2022-08-17 14:01:03.640625
628,21.85,2022-08-17 14:01:03.656250
629,25.43,2022-08-17 14:01:03.671875
630,27.86,2022-08-17 14:01:03.687500
631,29.31,2022-08-17 14:01:03.703125
632,30.02,2022-08-17 14:01:03.718750
633,30.21,2022-08-17 14:01:03.734375
634,30.08,2022-08-17 14:01:03.750000
635,29.76,2022-08-17 14:01:03.765625
636,29.34,2022-08-17 14:01:03.781250
637,28.83,2022-08-17 14:01:03.796875
638,28.27,2022-08-17 14:01:03.812500
639,27.68,2022-08-17 14:01:03.828125
640,27.1,2022-08-17 14:01:03.843750
641,26.55,2022-08-17 14:01:03.859375
642,26.05,2022-08-17 14:01:03.875000
643,25.59,2022-08-17 14:01:03.890625
644,25.12,2022-08-17 14:01:03.906250
645,24.54,2022-08-17 14:01:03.921875
646,23.73,2022-08-17 14:01:03.937500
647,22.57,2022-08-17 14:01:03.953125
648,21.01,2022-08-17 14:01:03.968750
649,19.09,2022-08-17 14:01:03.984375
650,16.99,2022-08-17 14:01:04.000000
651,14.89,2022-08-17 14:01:04.015625
652,12.96,2022-08-17 14:01:04.031250
653,11.23,2022-08-17 14:01:04.046875
654,9.58,2022-08-17 14:01:04.062500
655,7.81,2022-08-17 14:01:04.078125
656,5.74,2022-08-17 14:01:04.093750
657,3.32,2022-08-17 14:01:04.109375
658,0.66,2022-08-17 14:01:04.125000
659,-2.0,2022-08-17 14:01:04.140625
660,-4.43,2022-08-17 14:01:04.156250
661,-6.54,2022-08-17 14:01:04.171875
662,-8.38,2022-08-17 14:01:04.187500
663,-10.15,2022-08-17 14:01:04.203125
664,-12.08,2022-08-17 14:01:04.218750
665,-14.28,2022-08-17 14:01:04.234375
666,-16.76,2022-08-17 14:01:04.250000
667,-19.4,2022-08-17 14:01:04.265625
668,-22.02,2022-08-17 14:01:04.281250
669,-24.46,2022-08-17 14:01:04.296875
670,-26.68,2022-08-17 14:01:04.312500
671,-28.7,2022-08-17 14:01:04.328125
672,-30.64,2022-08-17 14:01:04.343750
673,-32.64,2022-08-17 14:01:04.359375
674,-34.87,2022-08-17 14:01:04.375000
675,-37.48,2022-08-17 14:01:04.390625
676,-40.62,2022-08-17 14:01:04.406250
677,-44.28,2022-08-17 14:01:04.421875
678,-48.15,2022-08-17 14:01:04.437500
679,-51.62,2022-08-17 14:01:04.453125
680,-53.8,2022-08-17 14:01:04.468750
681,-53.8,2022-08-17 14:01:04.484375
682,-51.06,2022-08-17 14:01:04.500000
683,-45.56,2022-08-17 14:01:04.515625
684,-37.89,2022-08-17 14:01:04.531250
685,-29.06,2022-08-17 14:01:04.546875
686,-20.1,2022-08-17 14:01:04.562500
687,-11.79,2022-08-17 14:01:04.578125
688,-4.47,2022-08-17 14:01:04.593750
689,1.9,2022-08-17 14:01:04.609375
690,7.45,2022-08-17 14:01:04.625000
691,12.24,2022-08-17 14:01:04.640625
692,16.17,2022-08-17 14:01:04.656250
693,19.07,2022-08-17 14:01:04.671875
694,20.87,2022-08-17 14:01:04.687500
695,21.73,2022-08-17 14:01:04.703125
696,22.02,2022-08-17 14:01:04.718750
697,22.12,2022-08-17 14:01:04.734375
698,22.25,2022-08-17 14:01:04.750000
699,22.39,2022-08-17 14:01:04.765625
700,22.36,2022-08-17 14:01:04.781250
701,22.01,2022-08-17 14:01:04.796875
702,21.34,2022-08-17 14:01:04.812500
703,20.54,2022-08-17 14:01:04.828125
704,19.89,2022-08-17 14:01:04.843750
705,19.53,2022-08-17 14:01:04.859375
706,19.42,2022-08-17 14:01:04.875000
707,19.38,2022-08-17 14:01:04.890625
708,19.12,2022-08-17 14:01:04.906250
709,18.48,2022-08-17 14:01:04.921875
710,17.39,2022-08-17 14:01:04.937500
711,15.9,2022-08-17 14:01:04.953125
712,14.11,2022-08-17 14:01:04.968750
713,12.13,2022-08-17 14:01:04.984375
714,10.08,2022-08-17 14:01:05.000000
715,8.07,2022-08-17 14:01:05.015625
716,6.18,2022-08-17 14:01:05.031250
717,4.45,2022-08-17 14:01:05.046875
718,2.79,2022-08-17 14:01:05.062500
719,1.05,2022-08-17 14:01:05.078125
720,-0.93,2022-08-17 14:01:05.093750
721,-3.23,2022-08-17 14:01:05.109375
722,-5.75,2022-08-17 14:01:05.125000
723,-8.34,2022-08-17 14:01:05.140625
724,-10.78,2022-08-17 14:01:05.156250
725,-12.94,2022-08-17 14:01:05.171875
726,-14.82,2022-08-17 14:01:05.187500
727,-16.54,2022-08-17 14:01:05.203125
728,-18.26,2022-08-17 14:01:05.218750
729,-20.06,2022-08-17 14:01:05.234375
730,-21.97,2022-08-17 14:01:05.250000
731,-23.92,2022-08-17 14:01:05.265625
732,-25.79,2022-08-17 14:01:05.281250
733,-27.53,2022-08-17 14:01:05.296875
734,-29.1,2022-08-17 14:01:05.312500
735,-30.59,2022-08-17 14:01:05.328125
736,-32.14,2022-08-17 14:01:05.343750
737,-33.92,2022-08-17 14:01:05.359375
738,-36.11,2022-08-17 14:01:05.375000
739,-38.75,2022-08-17 14:01:05.390625
740,-41.68,2022-08-17 14:01:05.406250
741,-44.54,2022-08-17 14:01:05.421875
742,-46.74,2022-08-17 14:01:05.437500
743,-47.63,2022-08-17 14:01:05.453125
744,-46.7,2022-08-17 14:01:05.468750
745,-43.71,2022-08-17 14:01:05.484375
746,-38.83,2022-08-17 14:01:05.500000
747,-32.56,2022-08-17 14:01:05.515625
748,-25.57,2022-08-17 14:01:05.531250
749,-18.56,2022-08-17 14:01:05.546875
750,-12.04,2022-08-17 14:01:05.562500
751,-6.26,2022-08-17 14:01:05.578125
752,-1.31,2022-08-17 14:01:05.593750
753,2.87,2022-08-17 14:01:05.609375
754,6.32,2022-08-17 14:01:05.625000
755,9.05,2022-08-17 14:01:05.640625
756,11.03,2022-08-17 14:01:05.656250
757,12.31,2022-08-17 14:01:05.671875
758,12.98,2022-08-17 14:01:05.687500
759,13.19,2022-08-17 14:01:05.703125
760,13.13,2022-08-17 14:01:05.718750
761,12.99,2022-08-17 14:01:05.734375
762,12.96,2022-08-17 14:01:05.750000
763,13.12,2022-08-17 14:01:05.765625
764,13.51,2022-08-17 14:01:05.781250
765,14.07,2022-08-17 14:01:05.796875
766,14.68,2022-08-17 14:01:05.812500
767,15.18,2022-08-17 14:01:05.828125
768,15.47,2022-08-17 14:01:05.843750
769,15.53,2022-08-17 14:01:05.859375
770,15.42,2022-08-17 14:01:05.875000
771,15.16,2022-08-17 14:01:05.890625
772,14.77,2022-08-17 14:01:05.906250
773,14.15,2022-08-17 14:01:05.921875
774,13.2,2022-08-17 14:01:05.937500
775,11.88,2022-08-17 14:01:05.953125
776,10.3,2022-08-17 14:01:05.968750
777,8.6,2022-08-17 14:01:05.984375
778,6.97,2022-08-17 14:01:06.000000
779,5.5,2022-08-17 14:01:06.015625
780,4.18,2022-08-17 14:01:06.031250
781,2.91,2022-08-17 14:01:06.046875
782,1.58,2022-08-17 14:01:06.062500
783,0.11,2022-08-17 14:01:06.078125
784,-1.56,2022-08-17 14:01:06.093750
785,-3.4,2022-08-17 14:01:06.109375
786,-5.39,2022-08-17 14:01:06.125000
787,-7.46,2022-08-17 14:01:06.140625
788,-9.48,2022-08-17 14:01:06.156250
789,-11.36,2022-08-17 14:01:06.171875
790,-13.02,2022-08-17 14:01:06.187500
791,-14.46,2022-08-17 14:01:06.203125
792,-15.78,2022-08-17 14:01:06.218750
793,-17.16,2022-08-17 14:01:06.234375
794,-18.75,2022-08-17 14:01:06.250000
795,-20.75,2022-08-17 14:01:06.265625
796,-23.23,2022-08-17 14:01:06.281250
797,-26.15,2022-08-17 14:01:06.296875
798,-29.27,2022-08-17 14:01:06.312500
799,-32.11,2022-08-17 14:01:06.328125
800,-34.03,2022-08-17 14:01:06.343750
801,-34.43,2022-08-17 14:01:06.359375
802,-32.87,2022-08-17 14:01:06.375000
803,-29.31,2022-08-17 14:01:06.390625
804,-24.05,2022-08-17 14:01:06.406250
805,-17.67,2022-08-17 14:01:06.421875
806,-10.86,2022-08-17 14:01:06.437500
807,-4.2,2022-08-17 14:01:06.453125
808,1.92,2022-08-17 14:01:06.468750
809,7.33,2022-08-17 14:01:06.484375
810,11.98,2022-08-17 14:01:06.500000
811,15.84,2022-08-17 14:01:06.515625
812,18.89,2022-08-17 14:01:06.531250
813,21.1,2022-08-17 14:01:06.546875
814,22.47,2022-08-17 14:01:06.562500
815,23.08,2022-08-17 14:01:06.578125
816,23.1,2022-08-17 14:01:06.593750
817,22.78,2022-08-17 14:01:06.609375
818,22.35,2022-08-17 14:01:06.625000
819,21.91,2022-08-17 14:01:06.640625
820,21.53,2022-08-17 14:01:06.656250
821,21.13,2022-08-17 14:01:06.671875
822,20.68,2022-08-17 14:01:06.687500
823,20.17,2022-08-17 14:01:06.703125
824,19.67,2022-08-17 14:01:06.718750
825,19.24,2022-08-17 14:01:06.734375
826,18.89,2022-08-17 14:01:06.750000
827,18.55,2022-08-17 14:01:06.765625
828,18.09,2022-08-17 14:01:06.781250
829,17.39,2022-08-17 14:01:06.796875
830,16.37,2022-08-17 14:01:06.812500
831,15.03,2022-08-17 14:01:06.828125
832,13.41,2022-08-17 14:01:06.843750
833,11.53,2022-08-17 14:01:06.859375
834,9.44,2022-08-17 14:01:06.875000
835,7.16,2022-08-17 14:01:06.890625
836,4.75,2022-08-17 14:01:06.906250
837,2.32,2022-08-17 14:01:06.921875
838,-0.0,2022-08-17 14:01:06.937500
839,-2.16,2022-08-17 14:01:06.953125
840,-4.15,2022-08-17 14:01:06.968750
841,-6.1,2022-08-17 14:01:06.984375
842,-8.17,2022-08-17 14:01:07.000000
843,-10.5,2022-08-17 14:01:07.015625
844,-13.15,2022-08-17 14:01:07.031250
845,-15.95,2022-08-17 14:01:07.046875
846,-18.7,2022-08-17 14:01:07.062500
847,-21.16,2022-08-17 14:01:07.078125
848,-23.23,2022-08-17 14:01:07.093750
849,-24.97,2022-08-17 14:01:07.109375
850,-26.57,2022-08-17 14:01:07.125000
851,-28.31,2022-08-17 14:01:07.140625
852,-30.43,2022-08-17 14:01:07.156250
853,-33.12,2022-08-17 14:01:07.171875
854,-36.4,2022-08-17 14:01:07.187500
855,-40.13,2022-08-17 14:01:07.203125
856,-43.89,2022-08-17 14:01:07.218750
857,-47.05,2022-08-17 14:01:07.234375
858,-48.9,2022-08-17 14:01:07.250000
859,-48.83,2022-08-17 14:01:07.265625
860,-46.54,2022-08-17 14:01:07.281250
861,-42.15,2022-08-17 14:01:07.296875
862,-36.14,2022-08-17 14:01:07.312500
863,-29.11,2022-08-17 14:01:07.328125
864,-21.65,2022-08-17 14:01:07.343750
865,-14.13,2022-08-17 14:01:07.359375
866,-6.78,2022-08-17 14:01:07.375000
867,0.25,2022-08-17 14:01:07.390625
868,6.75,2022-08-17 14:01:07.406250
869,12.44,2022-08-17 14:01:07.421875
870,17.1,2022-08-17 14:01:07.437500
871,20.61,2022-08-17 14:01:07.453125
872,23.06,2022-08-17 14:01:07.468750
873,24.68,2022-08-17 14:01:07.484375
874,25.76,2022-08-17 14:01:07.500000
875,26.5,2022-08-17 14:01:07.515625
876,26.98,2022-08-17 14:01:07.531250
877,27.21,2022-08-17 14:01:07.546875
878,27.19,2022-08-17 14:01:07.562500
879,26.98,2022-08-17 14:01:07.578125
880,26.7,2022-08-17 14:01:07.593750
881,26.49,2022-08-17 14:01:07.609375
882,26.43,2022-08-17 14:01:07.625000
883,26.48,2022-08-17 14:01:07.640625
884,26.55,2022-08-17 14:01:07.656250
885,26.52,2022-08-17 14:01:07.671875
886,26.3,2022-08-17 14:01:07.687500
887,25.8,2022-08-17 14:01:07.703125
888,25.0,2022-08-17 14:01:07.718750
889,23.88,2022-08-17 14:01:07.734375
890,22.42,2022-08-17 14:01:07.750000
891,20.65,2022-08-17 14:01:07.765625
892,18.61,2022-08-17 14:01:07.781250
893,16.43,2022-08-17 14:01:07.796875
894,14.21,2022-08-17 14:01:07.812500
895,12.05,2022-08-17 14:01:07.828125
896,9.95,2022-08-17 14:01:07.843750
897,7.87,2022-08-17 14:01:07.859375
898,5.7,2022-08-17 14:01:07.875000
899,3.41,2022-08-17 14:01:07.890625
900,0.98,2022-08-17 14:01:07.906250
901,-1.51,2022-08-17 14:01:07.921875
902,-3.94,2022-08-17 14:01:07.937500
903,-6.21,2022-08-17 14:01:07.953125
904,-8.28,2022-08-17 14:01:07.968750
905,-10.21,2022-08-17 14:01:07.984375
906,-12.1,2022-08-17 14:01:08.000000
907,-14.07,2022-08-17 14:01:08.015625
908,-16.18,2022-08-17 14:01:08.031250
909,-18.39,2022-08-17 14:01:08.046875
910,-20.55,2022-08-17 14:01:08.062500
911,-22.54,2022-08-17 14:01:08.078125
912,-24.27,2022-08-17 14:01:08.093750
913,-25.74,2022-08-17 14:01:08.109375
914,-27.08,2022-08-17 14:01:08.125000
915,-28.51,2022-08-17 14:01:08.140625
916,-30.28,2022-08-17 14:01:08.156250
917,-32.63,2022-08-17 14:01:08.171875
918,-35.69,2022-08-17 14:01:08.187500
919,-39.38,2022-08-17 14:01:08.203125
920,-43.33,2022-08-17 14:01:08.218750
921,-46.84,2022-08-17 14:01:08.234375
922,-49.04,2022-08-17 14:01:08.250000
923,-49.12,2022-08-17 14:01:08.265625
924,-46.65,2022-08-17 14:01:08.281250
925,-41.71,2022-08-17 14:01:08.296875
926,-34.88,2022-08-17 14:01:08.312500
927,-27.04,2022-08-17 14:01:08.328125
928,-19.0,2022-08-17 14:01:08.343750
929,-11.31,2022-08-17 14:01:08.359375
930,-4.23,2022-08-17 14:01:08.375000
931,2.21,2022-08-17 14:01:08.390625
932,7.98,2022-08-17 14:01:08.406250
933,13.01,2022-08-17 14:01:08.421875
934,17.14,2022-08-17 14:01:08.437500
935,20.27,2022-08-17 14:01:08.453125
936,22.45,2022-08-17 14:01:08.468750
937,23.79,2022-08-17 14:01:08.484375
938,24.53,2022-08-17 14:01:08.500000
939,24.85,2022-08-17 14:01:08.515625
940,24.87,2022-08-17 14:01:08.531250
941,24.67,2022-08-17 14:01:08.546875
942,24.31,2022-08-17 14:01:08.562500
943,23.87,2022-08-17 14:01:08.578125
944,23.46,2022-08-17 14:01:08.593750
945,23.21,2022-08-17 14:01:08.609375
946,23.18,2022-08-17 14:01:08.625000
947,23.37,2022-08-17 14:01:08.640625
948,23.66,2022-08-17 14:01:08.656250
949,23.85,2022-08-17 14:01:08.671875
950,23.77,2022-08-17 14:01:08.687500
951,23.31,2022-08-17 14:01:08.703125
952,22.48,2022-08-17 14:01:08.718750
953,21.33,2022-08-17 14:01:08.734375
954,19.97,2022-08-17 14:01:08.750000
955,18.44,2022-08-17 14:01:08.765625
956,16.78,2022-08-17 14:01:08.781250
957,14.99,2022-08-17 14:01:08.796875
958,13.09,2022-08-17 14:01:08.812500
959,11.1,2022-08-17 14:01:08.828125
960,9.07,2022-08-17 14:01:08.843750
961,7.03,2022-08-17 14:01:08.859375
962,5.02,2022-08-17 14:01:08.875000
963,3.03,2022-08-17 14:01:08.890625
964,1.09,2022-08-17 14:01:08.906250
965,-0.78,2022-08-17 14:01:08.921875
966,-2.58,2022-08-17 14:01:08.937500
967,-4.29,2022-08-17 14:01:08.953125
968,-5.92,2022-08-17 14:01:08.968750
969,-7.43,2022-08-17 14:01:08.984375
970,-8.84,2022-08-17 14:01:09.000000
971,-10.17,2022-08-17 14:01:09.015625
972,-11.47,2022-08-17 14:01:09.031250
973,-12.87,2022-08-17 14:01:09.046875
974,-14.47,2022-08-17 14:01:09.062500
975,-16.31,2022-08-17 14:01:09.078125
976,-18.33,2022-08-17 14:01:09.093750
977,-20.39,2022-08-17 14:01:09.109375
978,-22.32,2022-08-17 14:01:09.125000
979,-24.05,2022-08-17 14:01:09.140625
980,-25.62,2022-08-17 14:01:09.156250
981,-27.2,2022-08-17 14:01:09.171875
982,-29.01,2022-08-17 14:01:09.187500
983,-31.24,2022-08-17 14:01:09.203125
984,-34.0,2022-08-17 14:01:09.218750
985,-37.19,2022-08-17 14:01:09.234375
986,-40.49,2022-08-17 14:01:09.250000
987,-43.34,2022-08-17 14:01:09.265625
988,-45.04,2022-08-17 14:01:09.281250
989,-44.93,2022-08-17 14:01:09.296875
990,-42.61,2022-08-17 14:01:09.312500
991,-38.07,2022-08-17 14:01:09.328125
992,-31.73,2022-08-17 14:01:09.343750
993,-24.27,2022-08-17 14:01:09.359375
994,-16.45,2022-08-17 14:01:09.375000
995,-8.86,2022-08-17 14:01:09.390625
996,-1.85,2022-08-17 14:01:09.406250
997,4.41,2022-08-17 14:01:09.421875
998,9.86,2022-08-17 14:01:09.437500
999,14.43,2022-08-17 14:01:09.453125
1000,18.06,2022-08-17 14:01:09.468750
1001,20.65,2022-08-17 14:01:09.484375
1002,22.18,2022-08-17 14:01:09.500000
1003,22.75,2022-08-17 14:01:09.515625
1004,22.59,2022-08-17 14:01:09.531250
1005,21.98,2022-08-17 14:01:09.546875
1006,21.2,2022-08-17 14:01:09.562500
1007,20.48,2022-08-17 14:01:09.578125
1008,19.93,2022-08-17 14:01:09.593750
1009,19.56,2022-08-17 14:01:09.609375
1010,19.36,2022-08-17 14:01:09.625000
1011,19.31,2022-08-17 14:01:09.640625
1012,19.35,2022-08-17 14:01:09.656250
1013,19.44,2022-08-17 14:01:09.671875
1014,19.53,2022-08-17 14:01:09.687500
1015,19.53,2022-08-17 14:01:09.703125
1016,19.36,2022-08-17 14:01:09.718750
1017,19.0,2022-08-17 14:01:09.734375
1018,18.46,2022-08-17 14:01:09.750000
1019,17.77,2022-08-17 14:01:09.765625
1020,16.94,2022-08-17 14:01:09.781250
1021,15.91,2022-08-17 14:01:09.796875
1022,14.64,2022-08-17 14:01:09.812500
1023,13.07,2022-08-17 14:01:09.828125
1024,11.29,2022-08-17 14:01:09.843750
1025,9.41,2022-08-17 14:01:09.859375
1026,7.54,2022-08-17 14:01:09.875000
1027,5.76,2022-08-17 14:01:09.890625
1028,4.04,2022-08-17 14:01:09.906250
1029,2.34,2022-08-17 14:01:09.921875
1030,0.63,2022-08-17 14:01:09.937500
1031,-1.08,2022-08-17 14:01:09.953125
1032,-2.73,2022-08-17 14:01:09.968750
1033,-4.31,2022-08-17 14:01:09.984375
1034,-5.89,2022-08-17 14:01:10.000000
1035,-7.59,2022-08-17 14:01:10.015625
1036,-9.52,2022-08-17 14:01:10.031250
1037,-11.73,2022-08-17 14:01:10.046875
1038,-14.13,2022-08-17 14:01:10.062500
1039,-16.55,2022-08-17 14:01:10.078125
1040,-18.75,2022-08-17 14:01:10.093750
1041,-20.58,2022-08-17 14:01:10.109375
1042,-22.01,2022-08-17 14:01:10.125000
1043,-23.2,2022-08-17 14:01:10.140625
1044,-24.4,2022-08-17 14:01:10.156250
1045,-25.94,2022-08-17 14:01:10.171875
1046,-28.06,2022-08-17 14:01:10.187500
1047,-30.82,2022-08-17 14:01:10.203125
1048,-34.04,2022-08-17 14:01:10.218750
1049,-37.21,2022-08-17 14:01:10.234375
1050,-39.62,2022-08-17 14:01:10.250000
1051,-40.51,2022-08-17 14:01:10.265625
1052,-39.29,2022-08-17 14:01:10.281250
1053,-35.75,2022-08-17 14:01:10.296875
1054,-30.13,2022-08-17 14:01:10.312500
1055,-23.06,2022-08-17 14:01:10.328125
1056,-15.32,2022-08-17 14:01:10.343750
1057,-7.66,2022-08-17 14:01:10.359375
1058,-0.59,2022-08-17 14:01:10.375000
1059,5.67,2022-08-17 14:01:10.390625
1060,11.1,2022-08-17 14:01:10.406250
1061,15.77,2022-08-17 14:01:10.421875
1062,19.7,2022-08-17 14:01:10.437500
1063,22.84,2022-08-17 14:01:10.453125
1064,25.12,2022-08-17 14:01:10.468750
1065,26.53,2022-08-17 14:01:10.484375
1066,27.19,2022-08-17 14:01:10.500000
1067,27.32,2022-08-17 14:01:10.515625
1068,27.19,2022-08-17 14:01:10.531250
1069,27.02,2022-08-17 14:01:10.546875
1070,26.89,2022-08-17 14:01:10.562500
1071,26.75,2022-08-17 14:01:10.578125
1072,26.49,2022-08-17 14:01:10.593750
1073,26.06,2022-08-17 14:01:10.609375
1074,25.52,2022-08-17 14:01:10.625000
1075,25.05,2022-08-17 14:01:10.640625
1076,24.78,2022-08-17 14:01:10.656250
1077,24.75,2022-08-17 14:01:10.671875
1078,24.77,2022-08-17 14:01:10.687500
1079,24.58,2022-08-17 14:01:10.703125
1080,23.9,2022-08-17 14:01:10.718750
1081,22.63,2022-08-17 14:01:10.734375
1082,20.88,2022-08-17 14:01:10.750000
1083,18.87,2022-08-17 14:01:10.765625
1084,16.89,2022-08-17 14:01:10.781250
1085,15.12,2022-08-17 14:01:10.796875
1086,13.58,2022-08-17 14:01:10.812500
1087,12.19,2022-08-17 14:01:10.828125
1088,10.77,2022-08-17 14:01:10.843750
1089,9.18,2022-08-17 14:01:10.859375
1090,7.33,2022-08-17 14:01:10.875000
1091,5.22,2022-08-17 14:01:10.890625
1092,2.95,2022-08-17 14:01:10.906250
1093,0.64,2022-08-17 14:01:10.921875
1094,-1.6,2022-08-17 14:01:10.937500
1095,-3.75,2022-08-17 14:01:10.953125
1096,-5.88,2022-08-17 14:01:10.968750
1097,-8.1,2022-08-17 14:01:10.984375
1098,-10.49,2022-08-17 14:01:11.000000
1099,-13.05,2022-08-17 14:01:11.015625
1100,-15.64,2022-08-17 14:01:11.031250
1101,-18.1,2022-08-17 14:01:11.046875
1102,-20.24,2022-08-17 14:01:11.062500
1103,-22.03,2022-08-17 14:01:11.078125
1104,-23.52,2022-08-17 14:01:11.093750
1105,-24.91,2022-08-17 14:01:11.109375
1106,-26.49,2022-08-17 14:01:11.125000
1107,-28.53,2022-08-17 14:01:11.140625
1108,-31.3,2022-08-17 14:01:11.156250
1109,-34.83,2022-08-17 14:01:11.171875
1110,-38.92,2022-08-17 14:01:11.187500
1111,-43.01,2022-08-17 14:01:11.203125
1112,-46.32,2022-08-17 14:01:11.218750
1113,-48.02,2022-08-17 14:01:11.234375
1114,-47.5,2022-08-17 14:01:11.250000
1115,-44.56,2022-08-17 14:01:11.265625
1116,-39.46,2022-08-17 14:01:11.281250
1117,-32.79,2022-08-17 14:01:11.296875
1118,-25.27,2022-08-17 14:01:11.312500
1119,-17.55,2022-08-17 14:01:11.328125
1120,-10.07,2022-08-17 14:01:11.343750
1121,-3.05,2022-08-17 14:01:11.359375
1122,3.4,2022-08-17 14:01:11.375000
1123,9.24,2022-08-17 14:01:11.390625
1124,14.4,2022-08-17 14:01:11.406250
1125,18.79,2022-08-17 14:01:11.421875
1126,22.31,2022-08-17 14:01:11.437500
1127,24.88,2022-08-17 14:01:11.453125
1128,26.5,2022-08-17 14:01:11.468750
1129,27.26,2022-08-17 14:01:11.484375
1130,27.37,2022-08-17 14:01:11.500000
1131,27.09,2022-08-17 14:01:11.515625
1132,26.7,2022-08-17 14:01:11.531250
1133,26.36,2022-08-17 14:01:11.546875
1134,26.14,2022-08-17 14:01:11.562500
1135,25.97,2022-08-17 14:01:11.578125
1136,25.8,2022-08-17 14:01:11.593750
1137,25.59,2022-08-17 14:01:11.609375
1138,25.4,2022-08-17 14:01:11.625000
1139,25.33,2022-08-17 14:01:11.640625
1140,25.43,2022-08-17 14:01:11.656250
1141,25.6,2022-08-17 14:01:11.671875
1142,25.65,2022-08-17 14:01:11.687500
1143,25.33,2022-08-17 14:01:11.703125
1144,24.45,2022-08-17 14:01:11.718750
1145,22.98,2022-08-17 14:01:11.734375
1146,21.0,2022-08-17 14:01:11.750000
1147,18.72,2022-08-17 14:01:11.765625
1148,16.35,2022-08-17 14:01:11.781250
1149,14.07,2022-08-17 14:01:11.796875
1150,12.0,2022-08-17 14:01:11.812500
1151,10.18,2022-08-17 14:01:11.828125
1152,8.58,2022-08-17 14:01:11.843750
1153,7.12,2022-08-17 14:01:11.859375
1154,5.65,2022-08-17 14:01:11.875000
1155,4.02,2022-08-17 14:01:11.890625
1156,2.14,2022-08-17 14:01:11.906250
1157,0.03,2022-08-17 14:01:11.921875
1158,-2.21,2022-08-17 14:01:11.937500
1159,-4.42,2022-08-17 14:01:11.953125
1160,-6.44,2022-08-17 14:01:11.968750
1161,-8.25,2022-08-17 14:01:11.984375
1162,-9.9,2022-08-17 14:01:12.000000
1163,-11.51,2022-08-17 14:01:12.015625
1164,-13.22,2022-08-17 14:01:12.031250
1165,-15.04,2022-08-17 14:01:12.046875
1166,-17.0,2022-08-17 14:01:12.062500
1167,-19.05,2022-08-17 14:01:12.078125
1168,-21.16,2022-08-17 14:01:12.093750
1169,-23.33,2022-08-17 14:01:12.109375
1170,-25.55,2022-08-17 14:01:12.125000
1171,-27.82,2022-08-17 14:01:12.140625
1172,-30.14,2022-08-17 14:01:12.156250
1173,-32.55,2022-08-17 14:01:12.171875
1174,-35.17,2022-08-17 14:01:12.187500
1175,-38.12,2022-08-17 14:01:12.203125
1176,-41.43,2022-08-17 14:01:12.218750
1177,-44.87,2022-08-17 14:01:12.234375
1178,-47.97,2022-08-17 14:01:12.250000
1179,-50.02,2022-08-17 14:01:12.265625
1180,-50.31,2022-08-17 14:01:12.281250
1181,-48.39,2022-08-17 14:01:12.296875
1182,-44.19,2022-08-17 14:01:12.312500
1183,-38.06,2022-08-17 14:01:12.328125
1184,-30.62,2022-08-17 14:01:12.343750
1185,-22.52,2022-08-17 14:01:12.359375
1186,-14.33,2022-08-17 14:01:12.375000
1187,-6.47,2022-08-17 14:01:12.390625
1188,0.78,2022-08-17 14:01:12.406250
1189,7.21,2022-08-17 14:01:12.421875
1190,12.73,2022-08-17 14:01:12.437500
1191,17.28,2022-08-17 14:01:12.453125
1192,20.94,2022-08-17 14:01:12.468750
1193,23.82,2022-08-17 14:01:12.484375
1194,26.04,2022-08-17 14:01:12.500000
1195,27.68,2022-08-17 14:01:12.515625
1196,28.81,2022-08-17 14:01:12.531250
1197,29.46,2022-08-17 14:01:12.546875
1198,29.66,2022-08-17 14:01:12.562500
1199,29.5,2022-08-17 14:01:12.578125
1200,29.04,2022-08-17 14:01:12.593750
1201,28.39,2022-08-17 14:01:12.609375
1202,27.67,2022-08-17 14:01:12.625000
1203,26.99,2022-08-17 14:01:12.640625
1204,26.48,2022-08-17 14:01:12.656250
1205,26.21,2022-08-17 14:01:12.671875
1206,26.13,2022-08-17 14:01:12.687500
1207,26.16,2022-08-17 14:01:12.703125
1208,26.14,2022-08-17 14:01:12.718750
1209,25.91,2022-08-17 14:01:12.734375
1210,25.36,2022-08-17 14:01:12.750000
1211,24.44,2022-08-17 14:01:12.765625
1212,23.12,2022-08-17 14:01:12.781250
1213,21.41,2022-08-17 14:01:12.796875
1214,19.38,2022-08-17 14:01:12.812500
1215,17.13,2022-08-17 14:01:12.828125
1216,14.8,2022-08-17 14:01:12.843750
1217,12.53,2022-08-17 14:01:12.859375
1218,10.4,2022-08-17 14:01:12.875000
1219,8.46,2022-08-17 14:01:12.890625
1220,6.68,2022-08-17 14:01:12.906250
1221,5.0,2022-08-17 14:01:12.921875
1222,3.39,2022-08-17 14:01:12.937500
1223,1.82,2022-08-17 14:01:12.953125
1224,0.29,2022-08-17 14:01:12.968750
1225,-1.19,2022-08-17 14:01:12.984375
1226,-2.61,2022-08-17 14:01:13.000000
1227,-3.95,2022-08-17 14:01:13.015625
1228,-5.22,2022-08-17 14:01:13.031250
1229,-6.44,2022-08-17 14:01:13.046875
1230,-7.72,2022-08-17 14:01:13.062500
1231,-9.19,2022-08-17 14:01:13.078125
1232,-10.99,2022-08-17 14:01:13.093750
1233,-13.17,2022-08-17 14:01:13.109375
1234,-15.64,2022-08-17 14:01:13.125000
1235,-18.26,2022-08-17 14:01:13.140625
1236,-20.83,2022-08-17 14:01:13.156250
1237,-23.25,2022-08-17 14:01:13.171875
1238,-25.5,2022-08-17 14:01:13.187500
1239,-27.69,2022-08-17 14:01:13.203125
1240,-29.95,2022-08-17 14:01:13.218750
1241,-32.4,2022-08-17 14:01:13.234375
1242,-35.15,2022-08-17 14:01:13.250000
1243,-38.19,2022-08-17 14:01:13.265625
1244,-41.44,2022-08-17 14:01:13.281250
1245,-44.61,2022-08-17 14:01:13.296875
1246,-47.2,2022-08-17 14:01:13.312500
1247,-48.63,2022-08-17 14:01:13.328125
1248,-48.28,2022-08-17 14:01:13.343750
1249,-45.77,2022-08-17 14:01:13.359375
1250,-41.02,2022-08-17 14:01:13.375000
1251,-34.34,2022-08-17 14:01:13.390625
1252,-26.37,2022-08-17 14:01:13.406250
1253,-17.88,2022-08-17 14:01:13.421875
1254,-9.58,2022-08-17 14:01:13.437500
1255,-1.99,2022-08-17 14:01:13.453125
1256,4.64,2022-08-17 14:01:13.468750
1257,10.26,2022-08-17 14:01:13.484375
1258,14.94,2022-08-17 14:01:13.500000
1259,18.75,2022-08-17 14:01:13.515625
1260,21.76,2022-08-17 14:01:13.531250
1261,24.0,2022-08-17 14:01:13.546875
1262,25.52,2022-08-17 14:01:13.562500
1263,26.43,2022-08-17 14:01:13.578125
1264,26.89,2022-08-17 14:01:13.593750
1265,27.07,2022-08-17 14:01:13.609375
1266,27.08,2022-08-17 14:01:13.625000
1267,26.97,2022-08-17 14:01:13.640625
1268,26.72,2022-08-17 14:01:13.656250
1269,26.28,2022-08-17 14:01:13.671875
1270,25.68,2022-08-17 14:01:13.687500
1271,25.03,2022-08-17 14:01:13.703125
1272,24.52,2022-08-17 14:01:13.718750
1273,24.27,2022-08-17 14:01:13.734375
1274,24.31,2022-08-17 14:01:13.750000
1275,24.47,2022-08-17 14:01:13.765625
1276,24.49,2022-08-17 14:01:13.781250
1277,24.07,2022-08-17 14:01:13.796875
1278,23.08,2022-08-17 14:01:13.812500
1279,21.53,2022-08-17 14:01:13.828125
1280,19.65,2022-08-17 14:01:13.843750
1281,17.68,2022-08-17 14:01:13.859375
1282,15.81,2022-08-17 14:01:13.875000
1283,14.11,2022-08-17 14:01:13.890625
1284,12.53,2022-08-17 14:01:13.906250
1285,11.01,2022-08-17 14:01:13.921875
1286,9.52,2022-08-17 14:01:13.937500
1287,8.08,2022-08-17 14:01:13.953125
1288,6.68,2022-08-17 14:01:13.968750
1289,5.26,2022-08-17 14:01:13.984375
1290,3.68,2022-08-17 14:01:14.000000
1291,1.81,2022-08-17 14:01:14.015625
1292,-0.35,2022-08-17 14:01:14.031250
1293,-2.69,2022-08-17 14:01:14.046875
1294,-4.98,2022-08-17 14:01:14.062500
1295,-7.01,2022-08-17 14:01:14.078125
1296,-8.7,2022-08-17 14:01:14.093750
1297,-10.16,2022-08-17 14:01:14.109375
1298,-11.63,2022-08-17 14:01:14.125000
1299,-13.34,2022-08-17 14:01:14.140625
1300,-15.36,2022-08-17 14:01:14.156250
1301,-17.57,2022-08-17 14:01:14.171875
1302,-19.74,2022-08-17 14:01:14.187500
1303,-21.65,2022-08-17 14:01:14.203125
1304,-23.24,2022-08-17 14:01:14.218750
1305,-24.63,2022-08-17 14:01:14.234375
1306,-26.12,2022-08-17 14:01:14.250000
1307,-27.96,2022-08-17 14:01:14.265625
1308,-30.31,2022-08-17 14:01:14.281250
1309,-33.17,2022-08-17 14:01:14.296875
1310,-36.41,2022-08-17 14:01:14.312500
1311,-39.79,2022-08-17 14:01:14.328125
1312,-42.99,2022-08-17 14:01:14.343750
1313,-45.56,2022-08-17 14:01:14.359375
1314,-46.96,2022-08-17 14:01:14.375000
1315,-46.66,2022-08-17 14:01:14.390625
1316,-44.32,2022-08-17 14:01:14.406250
1317,-39.88,2022-08-17 14:01:14.421875
1318,-33.62,2022-08-17 14:01:14.437500
1319,-26.1,2022-08-17 14:01:14.453125
1320,-18.02,2022-08-17 14:01:14.468750
1321,-9.97,2022-08-17 14:01:14.484375
1322,-2.4,2022-08-17 14:01:14.500000
1323,4.39,2022-08-17 14:01:14.515625
1324,10.25,2022-08-17 14:01:14.531250
1325,15.06,2022-08-17 14:01:14.546875
1326,18.78,2022-08-17 14:01:14.562500
1327,21.4,2022-08-17 14:01:14.578125
1328,23.04,2022-08-17 14:01:14.593750
1329,23.85,2022-08-17 14:01:14.609375
1330,24.06,2022-08-17 14:01:14.625000
1331,23.85,2022-08-17 14:01:14.640625
1332,23.36,2022-08-17 14:01:14.656250
1333,22.71,2022-08-17 14:01:14.671875
1334,21.98,2022-08-17 14:01:14.687500
1335,21.31,2022-08-17 14:01:14.703125
1336,20.84,2022-08-17 14:01:14.718750
1337,20.67,2022-08-17 14:01:14.734375
1338,20.85,2022-08-17 14:01:14.750000
1339,21.31,2022-08-17 14:01:14.765625
1340,21.87,2022-08-17 14:01:14.781250
1341,22.35,2022-08-17 14:01:14.796875
1342,22.57,2022-08-17 14:01:14.812500
1343,22.41,2022-08-17 14:01:14.828125
1344,21.87,2022-08-17 14:01:14.843750
1345,20.94,2022-08-17 14:01:14.859375
1346,19.66,2022-08-17 14:01:14.875000
1347,18.06,2022-08-17 14:01:14.890625
1348,16.2,2022-08-17 14:01:14.906250
1349,14.19,2022-08-17 14:01:14.921875
1350,12.14,2022-08-17 14:01:14.937500
1351,10.17,2022-08-17 14:01:14.953125
1352,8.35,2022-08-17 14:01:14.968750
1353,6.71,2022-08-17 14:01:14.984375
1354,5.23,2022-08-17 14:01:15.000000
1355,3.84,2022-08-17 14:01:15.015625
1356,2.48,2022-08-17 14:01:15.031250
1357,1.07,2022-08-17 14:01:15.046875
1358,-0.45,2022-08-17 14:01:15.062500
1359,-2.1,2022-08-17 14:01:15.078125
1360,-3.87,2022-08-17 14:01:15.093750
1361,-5.71,2022-08-17 14:01:15.109375
1362,-7.53,2022-08-17 14:01:15.125000
1363,-9.28,2022-08-17 14:01:15.140625
1364,-10.97,2022-08-17 14:01:15.156250
1365,-12.67,2022-08-17 14:01:15.171875
1366,-14.49,2022-08-17 14:01:15.187500
1367,-16.5,2022-08-17 14:01:15.203125
1368,-18.67,2022-08-17 14:01:15.218750
1369,-20.89,2022-08-17 14:01:15.234375
1370,-23.02,2022-08-17 14:01:15.250000
1371,-24.94,2022-08-17 14:01:15.265625
1372,-26.64,2022-08-17 14:01:15.281250
1373,-28.22,2022-08-17 14:01:15.296875
1374,-29.9,2022-08-17 14:01:15.312500
1375,-31.95,2022-08-17 14:01:15.328125
1376,-34.56,2022-08-17 14:01:15.343750
1377,-37.72,2022-08-17 14:01:15.359375
1378,-41.19,2022-08-17 14:01:15.375000
1379,-44.44,2022-08-17 14:01:15.390625
1380,-46.77,2022-08-17 14:01:15.406250
1381,-47.46,2022-08-17 14:01:15.421875
1382,-46.04,2022-08-17 14:01:15.437500
1383,-42.35,2022-08-17 14:01:15.453125
1384,-36.62,2022-08-17 14:01:15.468750
1385,-29.38,2022-08-17 14:01:15.484375
1386,-21.27,2022-08-17 14:01:15.500000
1387,-12.9,2022-08-17 14:01:15.515625
1388,-4.75,2022-08-17 14:01:15.531250
1389,2.84,2022-08-17 14:01:15.546875
1390,9.6,2022-08-17 14:01:15.562500
1391,15.32,2022-08-17 14:01:15.578125
1392,19.82,2022-08-17 14:01:15.593750
1393,23.04,2022-08-17 14:01:15.609375
1394,25.02,2022-08-17 14:01:15.625000
1395,25.96,2022-08-17 14:01:15.640625
1396,26.14,2022-08-17 14:01:15.656250
1397,25.86,2022-08-17 14:01:15.671875
1398,25.35,2022-08-17 14:01:15.687500
1399,24.75,2022-08-17 14:01:15.703125
1400,24.15,2022-08-17 14:01:15.718750
1401,23.63,2022-08-17 14:01:15.734375
1402,23.24,2022-08-17 14:01:15.750000
1403,23.06,2022-08-17 14:01:15.765625
1404,23.1,2022-08-17 14:01:15.781250
1405,23.29,2022-08-17 14:01:15.796875
1406,23.54,2022-08-17 14:01:15.812500
1407,23.73,2022-08-17 14:01:15.828125
1408,23.78,2022-08-17 14:01:15.843750
1409,23.6,2022-08-17 14:01:15.859375
1410,23.16,2022-08-17 14:01:15.875000
1411,22.4,2022-08-17 14:01:15.890625
1412,21.3,2022-08-17 14:01:15.906250
1413,19.88,2022-08-17 14:01:15.921875
1414,18.22,2022-08-17 14:01:15.937500
1415,16.45,2022-08-17 14:01:15.953125
1416,14.72,2022-08-17 14:01:15.968750
1417,13.07,2022-08-17 14:01:15.984375
1418,11.52,2022-08-17 14:01:16.000000
1419,10.0,2022-08-17 14:01:16.015625
1420,8.45,2022-08-17 14:01:16.031250
1421,6.82,2022-08-17 14:01:16.046875
1422,5.05,2022-08-17 14:01:16.062500
1423,3.13,2022-08-17 14:01:16.078125
1424,1.01,2022-08-17 14:01:16.093750
1425,-1.29,2022-08-17 14:01:16.109375
1426,-3.72,2022-08-17 14:01:16.125000
1427,-6.18,2022-08-17 14:01:16.140625
1428,-8.57,2022-08-17 14:01:16.156250
1429,-10.86,2022-08-17 14:01:16.171875
1430,-13.08,2022-08-17 14:01:16.187500
1431,-15.28,2022-08-17 14:01:16.203125
1432,-17.52,2022-08-17 14:01:16.218750
1433,-19.78,2022-08-17 14:01:16.234375
1434,-21.98,2022-08-17 14:01:16.250000
1435,-24.02,2022-08-17 14:01:16.265625
1436,-25.88,2022-08-17 14:01:16.281250
1437,-27.61,2022-08-17 14:01:16.296875
1438,-29.47,2022-08-17 14:01:16.312500
1439,-31.75,2022-08-17 14:01:16.328125
1440,-34.74,2022-08-17 14:01:16.343750
1441,-38.52,2022-08-17 14:01:16.359375
1442,-42.81,2022-08-17 14:01:16.375000
1443,-46.95,2022-08-17 14:01:16.390625
1444,-49.99,2022-08-17 14:01:16.406250
1445,-50.99,2022-08-17 14:01:16.421875
1446,-49.3,2022-08-17 14:01:16.437500
1447,-44.75,2022-08-17 14:01:16.453125
1448,-37.73,2022-08-17 14:01:16.468750
1449,-29.02,2022-08-17 14:01:16.484375
1450,-19.53,2022-08-17 14:01:16.500000
1451,-10.09,2022-08-17 14:01:16.515625
1452,-1.26,2022-08-17 14:01:16.531250
1453,6.62,2022-08-17 14:01:16.546875
1454,13.4,2022-08-17 14:01:16.562500
1455,19.06,2022-08-17 14:01:16.578125
1456,23.6,2022-08-17 14:01:16.593750
1457,27.08,2022-08-17 14:01:16.609375
1458,29.56,2022-08-17 14:01:16.625000
1459,31.17,2022-08-17 14:01:16.640625
1460,32.06,2022-08-17 14:01:16.656250
1461,32.39,2022-08-17 14:01:16.671875
1462,32.32,2022-08-17 14:01:16.687500
1463,32.0,2022-08-17 14:01:16.703125
1464,31.56,2022-08-17 14:01:16.718750
1465,31.04,2022-08-17 14:01:16.734375
1466,30.51,2022-08-17 14:01:16.750000
1467,30.02,2022-08-17 14:01:16.765625
1468,29.63,2022-08-17 14:01:16.781250
1469,29.42,2022-08-17 14:01:16.796875
1470,29.43,2022-08-17 14:01:16.812500
1471,29.6,2022-08-17 14:01:16.828125
1472,29.78,2022-08-17 14:01:16.843750
1473,29.71,2022-08-17 14:01:16.859375
1474,29.18,2022-08-17 14:01:16.875000
1475,28.03,2022-08-17 14:01:16.890625
1476,26.26,2022-08-17 14:01:16.906250
1477,23.99,2022-08-17 14:01:16.921875
1478,21.45,2022-08-17 14:01:16.937500
1479,18.86,2022-08-17 14:01:16.953125
1480,16.38,2022-08-17 14:01:16.968750
1481,14.13,2022-08-17 14:01:16.984375
1482,12.07,2022-08-17 14:01:17.000000
1483,10.12,2022-08-17 14:01:17.015625
1484,8.14,2022-08-17 14:01:17.031250
1485,5.96,2022-08-17 14:01:17.046875
1486,3.48,2022-08-17 14:01:17.062500
1487,0.69,2022-08-17 14:01:17.078125
1488,-2.24,2022-08-17 14:01:17.093750
1489,-5.13,2022-08-17 14:01:17.109375
1490,-7.79,2022-08-17 14:01:17.125000
1491,-10.17,2022-08-17 14:01:17.140625
1492,-12.38,2022-08-17 14:01:17.156250
1493,-14.63,2022-08-17 14:01:17.171875
1494,-17.07,2022-08-17 14:01:17.187500
1495,-19.75,2022-08-17 14:01:17.203125
1496,-22.52,2022-08-17 14:01:17.218750
1497,-25.19,2022-08-17 14:01:17.234375
1498,-27.59,2022-08-17 14:01:17.250000
1499,-29.7,2022-08-17 14:01:17.265625
1500,-31.64,2022-08-17 14:01:17.281250
1501,-33.6,2022-08-17 14:01:17.296875
1502,-35.8,2022-08-17 14:01:17.312500
1503,-38.48,2022-08-17 14:01:17.328125
1504,-41.76,2022-08-17 14:01:17.343750
1505,-45.69,2022-08-17 14:01:17.359375
1506,-50.04,2022-08-17 14:01:17.375000
1507,-54.28,2022-08-17 14:01:17.390625
1508,-57.59,2022-08-17 14:01:17.406250
1509,-59.0,2022-08-17 14:01:17.421875
1510,-57.73,2022-08-17 14:01:17.437500
1511,-53.41,2022-08-17 14:01:17.453125
1512,-46.24,2022-08-17 14:01:17.468750
1513,-36.95,2022-08-17 14:01:17.484375
1514,-26.48,2022-08-17 14:01:17.500000
1515,-15.75,2022-08-17 14:01:17.515625
1516,-5.47,2022-08-17 14:01:17.531250
1517,3.95,2022-08-17 14:01:17.546875
1518,12.31,2022-08-17 14:01:17.562500
1519,19.51,2022-08-17 14:01:17.578125
1520,25.49,2022-08-17 14:01:17.593750
1521,30.24,2022-08-17 14:01:17.609375
1522,33.79,2022-08-17 14:01:17.625000
1523,36.26,2022-08-17 14:01:17.640625
1524,37.8,2022-08-17 14:01:17.656250
1525,38.6,2022-08-17 14:01:17.671875
1526,38.84,2022-08-17 14:01:17.687500
1527,38.68,2022-08-17 14:01:17.703125
1528,38.29,2022-08-17 14:01:17.718750
1529,37.78,2022-08-17 14:01:17.734375
1530,37.26,2022-08-17 14:01:17.750000
1531,36.83,2022-08-17 14:01:17.765625
1532,36.53,2022-08-17 14:01:17.781250
1533,36.4,2022-08-17 14:01:17.796875
1534,36.41,2022-08-17 14:01:17.812500
1535,36.46,2022-08-17 14:01:17.828125
1536,36.41,2022-08-17 14:01:17.843750
1537,36.1,2022-08-17 14:01:17.859375
1538,35.35,2022-08-17 14:01:17.875000
1539,34.04,2022-08-17 14:01:17.890625
1540,32.1,2022-08-17 14:01:17.906250
1541,29.57,2022-08-17 14:01:17.921875
1542,26.61,2022-08-17 14:01:17.937500
1543,23.42,2022-08-17 14:01:17.953125
1544,20.23,2022-08-17 14:01:17.968750
1545,17.27,2022-08-17 14:01:17.984375
1546,14.65,2022-08-17 14:01:18.000000
1547,12.36,2022-08-17 14:01:18.015625
1548,10.26,2022-08-17 14:01:18.031250
1549,8.16,2022-08-17 14:01:18.046875
1550,5.89,2022-08-17 14:01:18.062500
1551,3.39,2022-08-17 14:01:18.078125
1552,0.74,2022-08-17 14:01:18.093750
1553,-1.84,2022-08-17 14:01:18.109375
1554,-4.1,2022-08-17 14:01:18.125000
1555,-5.89,2022-08-17 14:01:18.140625
1556,-7.24,2022-08-17 14:01:18.156250
1557,-8.41,2022-08-17 14:01:18.171875
1558,-9.78,2022-08-17 14:01:18.187500
1559,-11.72,2022-08-17 14:01:18.203125
1560,-14.36,2022-08-17 14:01:18.218750
1561,-17.57,2022-08-17 14:01:18.234375
1562,-21.03,2022-08-17 14:01:18.250000
1563,-24.35,2022-08-17 14:01:18.265625
1564,-27.26,2022-08-17 14:01:18.281250
1565,-29.73,2022-08-17 14:01:18.296875
1566,-31.91,2022-08-17 14:01:18.312500
1567,-34.07,2022-08-17 14:01:18.328125
1568,-36.51,2022-08-17 14:01:18.343750
1569,-39.48,2022-08-17 14:01:18.359375
1570,-43.13,2022-08-17 14:01:18.375000
1571,-47.34,2022-08-17 14:01:18.390625
1572,-51.72,2022-08-17 14:01:18.406250
1573,-55.54,2022-08-17 14:01:18.421875
1574,-57.82,2022-08-17 14:01:18.437500
1575,-57.67,2022-08-17 14:01:18.453125
1576,-54.5,2022-08-17 14:01:18.468750
1577,-48.27,2022-08-17 14:01:18.484375
1578,-39.5,2022-08-17 14:01:18.500000
1579,-29.12,2022-08-17 14:01:18.515625
1580,-18.16,2022-08-17 14:01:18.531250
1581,-7.53,2022-08-17 14:01:18.546875
1582,2.15,2022-08-17 14:01:18.562500
1583,10.56,2022-08-17 14:01:18.578125
1584,17.59,2022-08-17 14:01:18.593750
1585,23.31,2022-08-17 14:01:18.609375
1586,27.81,2022-08-17 14:01:18.625000
1587,31.23,2022-08-17 14:01:18.640625
1588,33.67,2022-08-17 14:01:18.656250
1589,35.25,2022-08-17 14:01:18.671875
1590,36.1,2022-08-17 14:01:18.687500
1591,36.31,2022-08-17 14:01:18.703125
1592,36.05,2022-08-17 14:01:18.718750
1593,35.43,2022-08-17 14:01:18.734375
1594,34.59,2022-08-17 14:01:18.750000
1595,33.65,2022-08-17 14:01:18.765625
1596,32.71,2022-08-17 14:01:18.781250
1597,31.85,2022-08-17 14:01:18.796875
1598,31.16,2022-08-17 14:01:18.812500
1599,30.69,2022-08-17 14:01:18.828125
1600,30.45,2022-08-17 14:01:18.843750
1601,30.38,2022-08-17 14:01:18.859375
1602,30.37,2022-08-17 14:01:18.875000
1603,30.18,2022-08-17 14:01:18.890625
1604,29.56,2022-08-17 14:01:18.906250
1605,28.33,2022-08-17 14:01:18.921875
1606,26.41,2022-08-17 14:01:18.937500
1607,23.9,2022-08-17 14:01:18.953125
1608,21.07,2022-08-17 14:01:18.968750
1609,18.23,2022-08-17 14:01:18.984375
1610,15.65,2022-08-17 14:01:19.000000
1611,13.44,2022-08-17 14:01:19.015625
1612,11.53,2022-08-17 14:01:19.031250
1613,9.73,2022-08-17 14:01:19.046875
1614,7.84,2022-08-17 14:01:19.062500
1615,5.73,2022-08-17 14:01:19.078125
1616,3.41,2022-08-17 14:01:19.093750
1617,1.01,2022-08-17 14:01:19.109375
1618,-1.26,2022-08-17 14:01:19.125000
1619,-3.31,2022-08-17 14:01:19.140625
1620,-5.11,2022-08-17 14:01:19.156250
1621,-6.78,2022-08-17 14:01:19.171875
1622,-8.5,2022-08-17 14:01:19.187500
1623,-10.46,2022-08-17 14:01:19.203125
1624,-12.75,2022-08-17 14:01:19.218750
1625,-15.32,2022-08-17 14:01:19.234375
1626,-18.01,2022-08-17 14:01:19.250000
1627,-20.58,2022-08-17 14:01:19.265625
1628,-22.86,2022-08-17 14:01:19.281250
1629,-24.8,2022-08-17 14:01:19.296875
1630,-26.5,2022-08-17 14:01:19.312500
1631,-28.21,2022-08-17 14:01:19.328125
1632,-30.23,2022-08-17 14:01:19.343750
1633,-32.8,2022-08-17 14:01:19.359375
1634,-36.03,2022-08-17 14:01:19.375000
1635,-39.77,2022-08-17 14:01:19.390625
1636,-43.62,2022-08-17 14:01:19.406250
1637,-46.99,2022-08-17 14:01:19.421875
1638,-49.21,2022-08-17 14:01:19.437500
1639,-49.62,2022-08-17 14:01:19.453125
1640,-47.76,2022-08-17 14:01:19.468750
1641,-43.44,2022-08-17 14:01:19.484375
1642,-36.82,2022-08-17 14:01:19.500000
1643,-28.38,2022-08-17 14:01:19.515625
1644,-18.87,2022-08-17 14:01:19.531250
1645,-9.14,2022-08-17 14:01:19.546875
1646,0.02,2022-08-17 14:01:19.562500
1647,8.06,2022-08-17 14:01:19.578125
1648,14.73,2022-08-17 14:01:19.593750
1649,20.04,2022-08-17 14:01:19.609375
1650,24.15,2022-08-17 14:01:19.625000
1651,27.19,2022-08-17 14:01:19.640625
1652,29.26,2022-08-17 14:01:19.656250
1653,30.39,2022-08-17 14:01:19.671875
1654,30.66,2022-08-17 14:01:19.687500
1655,30.28,2022-08-17 14:01:19.703125
1656,29.53,2022-08-17 14:01:19.718750
1657,28.74,2022-08-17 14:01:19.734375
1658,28.13,2022-08-17 14:01:19.750000
1659,27.75,2022-08-17 14:01:19.765625
1660,27.5,2022-08-17 14:01:19.781250
1661,27.25,2022-08-17 14:01:19.796875
1662,26.91,2022-08-17 14:01:19.812500
1663,26.53,2022-08-17 14:01:19.828125
1664,26.18,2022-08-17 14:01:19.843750
1665,25.89,2022-08-17 14:01:19.859375
1666,25.59,2022-08-17 14:01:19.875000
1667,25.12,2022-08-17 14:01:19.890625
1668,24.3,2022-08-17 14:01:19.906250
1669,23.01,2022-08-17 14:01:19.921875
1670,21.28,2022-08-17 14:01:19.937500
1671,19.2,2022-08-17 14:01:19.953125
1672,16.9,2022-08-17 14:01:19.968750
1673,14.43,2022-08-17 14:01:19.984375
1674,11.82,2022-08-17 14:01:20.000000
1675,9.09,2022-08-17 14:01:20.015625
1676,6.3,2022-08-17 14:01:20.031250
1677,3.6,2022-08-17 14:01:20.046875
1678,1.14,2022-08-17 14:01:20.062500
1679,-1.0,2022-08-17 14:01:20.078125
1680,-2.89,2022-08-17 14:01:20.093750
1681,-4.69,2022-08-17 14:01:20.109375
1682,-6.67,2022-08-17 14:01:20.125000
1683,-8.98,2022-08-17 14:01:20.140625
1684,-11.66,2022-08-17 14:01:20.156250
1685,-14.63,2022-08-17 14:01:20.171875
1686,-17.69,2022-08-17 14:01:20.187500
1687,-20.68,2022-08-17 14:01:20.203125
1688,-23.44,2022-08-17 14:01:20.218750
1689,-25.87,2022-08-17 14:01:20.234375
1690,-27.91,2022-08-17 14:01:20.250000
1691,-29.64,2022-08-17 14:01:20.265625
1692,-31.25,2022-08-17 14:01:20.281250
1693,-33.08,2022-08-17 14:01:20.296875
1694,-35.52,2022-08-17 14:01:20.312500
1695,-38.71,2022-08-17 14:01:20.328125
1696,-42.44,2022-08-17 14:01:20.343750
1697,-45.98,2022-08-17 14:01:20.359375
1698,-48.31,2022-08-17 14:01:20.375000
1699,-48.44,2022-08-17 14:01:20.390625
1700,-45.73,2022-08-17 14:01:20.406250
1701,-40.17,2022-08-17 14:01:20.421875
1702,-32.33,2022-08-17 14:01:20.437500
1703,-23.11,2022-08-17 14:01:20.453125
1704,-13.45,2022-08-17 14:01:20.468750
1705,-4.06,2022-08-17 14:01:20.484375
1706,4.66,2022-08-17 14:01:20.500000
1707,12.47,2022-08-17 14:01:20.515625
1708,19.25,2022-08-17 14:01:20.531250
1709,24.83,2022-08-17 14:01:20.546875
1710,29.08,2022-08-17 14:01:20.562500
1711,31.98,2022-08-17 14:01:20.578125
1712,33.68,2022-08-17 14:01:20.593750
1713,34.43,2022-08-17 14:01:20.609375
1714,34.55,2022-08-17 14:01:20.625000
1715,34.31,2022-08-17 14:01:20.640625
1716,33.85,2022-08-17 14:01:20.656250
1717,33.26,2022-08-17 14:01:20.671875
1718,32.55,2022-08-17 14:01:20.687500
1719,31.76,2022-08-17 14:01:20.703125
1720,30.94,2022-08-17 14:01:20.718750
1721,30.16,2022-08-17 14:01:20.734375
1722,29.46,2022-08-17 14:01:20.750000
1723,28.84,2022-08-17 14:01:20.765625
1724,28.25,2022-08-17 14:01:20.781250
1725,27.62,2022-08-17 14:01:20.796875
1726,26.84,2022-08-17 14:01:20.812500
1727,25.79,2022-08-17 14:01:20.828125
1728,24.33,2022-08-17 14:01:20.843750
1729,22.38,2022-08-17 14:01:20.859375
1730,19.88,2022-08-17 14:01:20.875000
1731,16.93,2022-08-17 14:01:20.890625
1732,13.74,2022-08-17 14:01:20.906250
1733,10.58,2022-08-17 14:01:20.921875
1734,7.71,2022-08-17 14:01:20.937500
1735,5.21,2022-08-17 14:01:20.953125
1736,3.0,2022-08-17 14:01:20.968750
1737,0.86,2022-08-17 14:01:20.984375
1738,-1.46,2022-08-17 14:01:21.000000
1739,-4.1,2022-08-17 14:01:21.015625
1740,-7.03,2022-08-17 14:01:21.031250
1741,-10.1,2022-08-17 14:01:21.046875
1742,-13.09,2022-08-17 14:01:21.062500
1743,-15.79,2022-08-17 14:01:21.078125
1744,-18.11,2022-08-17 14:01:21.093750
1745,-20.09,2022-08-17 14:01:21.109375
1746,-21.83,2022-08-17 14:01:21.125000
1747,-23.58,2022-08-17 14:01:21.140625
1748,-25.67,2022-08-17 14:01:21.156250
1749,-28.44,2022-08-17 14:01:21.171875
1750,-32.09,2022-08-17 14:01:21.187500
1751,-36.52,2022-08-17 14:01:21.203125
1752,-41.23,2022-08-17 14:01:21.218750
1753,-45.38,2022-08-17 14:01:21.234375
1754,-48.0,2022-08-17 14:01:21.250000
1755,-48.3,2022-08-17 14:01:21.265625
1756,-45.87,2022-08-17 14:01:21.281250
1757,-40.85,2022-08-17 14:01:21.296875
1758,-33.72,2022-08-17 14:01:21.312500
1759,-25.2,2022-08-17 14:01:21.328125
1760,-16.01,2022-08-17 14:01:21.343750
1761,-6.76,2022-08-17 14:01:21.359375
1762,2.05,2022-08-17 14:01:21.375000
1763,10.04,2022-08-17 14:01:21.390625
1764,16.95,2022-08-17 14:01:21.406250
1765,22.67,2022-08-17 14:01:21.421875
1766,27.23,2022-08-17 14:01:21.437500
1767,30.73,2022-08-17 14:01:21.453125
1768,33.25,2022-08-17 14:01:21.468750
1769,34.85,2022-08-17 14:01:21.484375
1770,35.54,2022-08-17 14:01:21.500000
1771,35.39,2022-08-17 14:01:21.515625
1772,34.57,2022-08-17 14:01:21.531250
1773,33.35,2022-08-17 14:01:21.546875
1774,32.08,2022-08-17 14:01:21.562500
1775,30.98,2022-08-17 14:01:21.578125
1776,30.14,2022-08-17 14:01:21.593750
1777,29.49,2022-08-17 14:01:21.609375
1778,28.88,2022-08-17 14:01:21.625000
1779,28.21,2022-08-17 14:01:21.640625
1780,27.47,2022-08-17 14:01:21.656250
1781,26.67,2022-08-17 14:01:21.671875
1782,25.81,2022-08-17 14:01:21.687500
1783,24.81,2022-08-17 14:01:21.703125
1784,23.53,2022-08-17 14:01:21.718750
1785,21.84,2022-08-17 14:01:21.734375
1786,19.69,2022-08-17 14:01:21.750000
1787,17.13,2022-08-17 14:01:21.765625
1788,14.3,2022-08-17 14:01:21.781250
1789,11.33,2022-08-17 14:01:21.796875
1790,8.33,2022-08-17 14:01:21.812500
1791,5.34,2022-08-17 14:01:21.828125
1792,2.38,2022-08-17 14:01:21.843750
1793,-0.51,2022-08-17 14:01:21.859375
1794,-3.28,2022-08-17 14:01:21.875000
1795,-5.81,2022-08-17 14:01:21.890625
1796,-8.06,2022-08-17 14:01:21.906250
1797,-10.04,2022-08-17 14:01:21.921875
1798,-11.89,2022-08-17 14:01:21.937500
1799,-13.81,2022-08-17 14:01:21.953125
1800,-15.96,2022-08-17 14:01:21.968750
1801,-18.42,2022-08-17 14:01:21.984375
1802,-21.1,2022-08-17 14:01:22.000000
1803,-23.79,2022-08-17 14:01:22.015625
1804,-26.27,2022-08-17 14:01:22.031250
1805,-28.43,2022-08-17 14:01:22.046875
1806,-30.29,2022-08-17 14:01:22.062500
1807,-32.1,2022-08-17 14:01:22.078125
1808,-34.17,2022-08-17 14:01:22.093750
1809,-36.81,2022-08-17 14:01:22.109375
1810,-40.16,2022-08-17 14:01:22.125000
1811,-44.06,2022-08-17 14:01:22.140625
1812,-48.05,2022-08-17 14:01:22.156250
1813,-51.39,2022-08-17 14:01:22.171875
1814,-53.27,2022-08-17 14:01:22.187500
1815,-53.01,2022-08-17 14:01:22.203125
1816,-50.26,2022-08-17 14:01:22.218750
1817,-45.08,2022-08-17 14:01:22.234375
1818,-37.89,2022-08-17 14:01:22.250000
1819,-29.34,2022-08-17 14:01:22.265625
1820,-20.1,2022-08-17 14:01:22.281250
1821,-10.76,2022-08-17 14:01:22.296875
1822,-1.83,2022-08-17 14:01:22.312500
1823,6.31,2022-08-17 14:01:22.328125
1824,13.39,2022-08-17 14:01:22.343750
1825,19.3,2022-08-17 14:01:22.359375
1826,24.07,2022-08-17 14:01:22.375000
1827,27.87,2022-08-17 14:01:22.390625
1828,30.86,2022-08-17 14:01:22.406250
1829,33.18,2022-08-17 14:01:22.421875
1830,34.83,2022-08-17 14:01:22.437500
1831,35.77,2022-08-17 14:01:22.453125
1832,36.01,2022-08-17 14:01:22.468750
1833,35.66,2022-08-17 14:01:22.484375
1834,34.94,2022-08-17 14:01:22.500000
1835,34.08,2022-08-17 14:01:22.515625
1836,33.21,2022-08-17 14:01:22.531250
1837,32.36,2022-08-17 14:01:22.546875
1838,31.48,2022-08-17 14:01:22.562500
1839,30.58,2022-08-17 14:01:22.578125
1840,29.73,2022-08-17 14:01:22.593750
1841,29.11,2022-08-17 14:01:22.609375
1842,28.79,2022-08-17 14:01:22.625000
1843,28.7,2022-08-17 14:01:22.640625
1844,28.6,2022-08-17 14:01:22.656250
1845,28.15,2022-08-17 14:01:22.671875
1846,27.07,2022-08-17 14:01:22.687500
1847,25.27,2022-08-17 14:01:22.703125
1848,22.89,2022-08-17 14:01:22.718750
1849,20.17,2022-08-17 14:01:22.734375
1850,17.4,2022-08-17 14:01:22.750000
1851,14.74,2022-08-17 14:01:22.765625
1852,12.25,2022-08-17 14:01:22.781250
1853,9.88,2022-08-17 14:01:22.796875
1854,7.53,2022-08-17 14:01:22.812500
1855,5.14,2022-08-17 14:01:22.828125
1856,2.66,2022-08-17 14:01:22.843750
1857,0.12,2022-08-17 14:01:22.859375
1858,-2.42,2022-08-17 14:01:22.875000
1859,-4.9,2022-08-17 14:01:22.890625
1860,-7.22,2022-08-17 14:01:22.906250
1861,-9.35,2022-08-17 14:01:22.921875
1862,-11.29,2022-08-17 14:01:22.937500
1863,-13.09,2022-08-17 14:01:22.953125
1864,-14.83,2022-08-17 14:01:22.968750
1865,-16.61,2022-08-17 14:01:22.984375
1866,-18.52,2022-08-17 14:01:23.000000
1867,-20.56,2022-08-17 14:01:23.015625
1868,-22.71,2022-08-17 14:01:23.031250
1869,-24.85,2022-08-17 14:01:23.046875
1870,-26.86,2022-08-17 14:01:23.062500
1871,-28.62,2022-08-17 14:01:23.078125
1872,-30.08,2022-08-17 14:01:23.093750
1873,-31.34,2022-08-17 14:01:23.109375
1874,-32.64,2022-08-17 14:01:23.125000
1875,-34.35,2022-08-17 14:01:23.140625
1876,-36.77,2022-08-17 14:01:23.156250
1877,-39.97,2022-08-17 14:01:23.171875
1878,-43.64,2022-08-17 14:01:23.187500
1879,-47.07,2022-08-17 14:01:23.203125
1880,-49.34,2022-08-17 14:01:23.218750
1881,-49.6,2022-08-17 14:01:23.234375
1882,-47.35,2022-08-17 14:01:23.250000
1883,-42.61,2022-08-17 14:01:23.265625
1884,-35.87,2022-08-17 14:01:23.281250
1885,-27.94,2022-08-17 14:01:23.296875
1886,-19.63,2022-08-17 14:01:23.312500
1887,-11.56,2022-08-17 14:01:23.328125
1888,-4.09,2022-08-17 14:01:23.343750
1889,2.67,2022-08-17 14:01:23.359375
1890,8.72,2022-08-17 14:01:23.375000
1891,14.09,2022-08-17 14:01:23.390625
1892,18.74,2022-08-17 14:01:23.406250
1893,22.63,2022-08-17 14:01:23.421875
1894,25.77,2022-08-17 14:01:23.437500
1895,28.23,2022-08-17 14:01:23.453125
1896,30.15,2022-08-17 14:01:23.468750
1897,31.66,2022-08-17 14:01:23.484375
1898,32.77,2022-08-17 14:01:23.500000
1899,33.43,2022-08-17 14:01:23.515625
1900,33.51,2022-08-17 14:01:23.531250
1901,32.97,2022-08-17 14:01:23.546875
1902,31.85,2022-08-17 14:01:23.562500
1903,30.39,2022-08-17 14:01:23.578125
1904,28.89,2022-08-17 14:01:23.593750
1905,27.62,2022-08-17 14:01:23.609375
1906,26.7,2022-08-17 14:01:23.625000
1907,26.11,2022-08-17 14:01:23.640625
1908,25.69,2022-08-17 14:01:23.656250
1909,25.2,2022-08-17 14:01:23.671875
1910,24.47,2022-08-17 14:01:23.687500
1911,23.37,2022-08-17 14:01:23.703125
1912,21.86,2022-08-17 14:01:23.718750
1913,19.97,2022-08-17 14:01:23.734375
1914,17.81,2022-08-17 14:01:23.750000
1915,15.54,2022-08-17 14:01:23.765625
1916,13.28,2022-08-17 14:01:23.781250
1917,11.16,2022-08-17 14:01:23.796875
1918,9.2,2022-08-17 14:01:23.812500
1919,7.41,2022-08-17 14:01:23.828125
1920,5.71,2022-08-17 14:01:23.843750
1921,4.04,2022-08-17 14:01:23.859375
1922,2.36,2022-08-17 14:01:23.875000
1923,0.63,2022-08-17 14:01:23.890625
1924,-1.13,2022-08-17 14:01:23.906250
1925,-2.89,2022-08-17 14:01:23.921875
1926,-4.61,2022-08-17 14:01:23.937500
1927,-6.24,2022-08-17 14:01:23.953125
1928,-7.77,2022-08-17 14:01:23.968750
1929,-9.21,2022-08-17 14:01:23.984375
1930,-10.64,2022-08-17 14:01:24.000000
1931,-12.11,2022-08-17 14:01:24.015625
1932,-13.7,2022-08-17 14:01:24.031250
1933,-15.39,2022-08-17 14:01:24.046875
1934,-17.18,2022-08-17 14:01:24.062500
1935,-18.97,2022-08-17 14:01:24.078125
1936,-20.74,2022-08-17 14:01:24.093750
1937,-22.46,2022-08-17 14:01:24.109375
1938,-24.14,2022-08-17 14:01:24.125000
1939,-25.84,2022-08-17 14:01:24.140625
1940,-27.61,2022-08-17 14:01:24.156250
1941,-29.55,2022-08-17 14:01:24.171875
1942,-31.76,2022-08-17 14:01:24.187500
1943,-34.36,2022-08-17 14:01:24.203125
1944,-37.34,2022-08-17 14:01:24.218750
1945,-40.55,2022-08-17 14:01:24.234375
1946,-43.58,2022-08-17 14:01:24.250000
1947,-45.85,2022-08-17 14:01:24.265625
1948,-46.7,2022-08-17 14:01:24.281250
1949,-45.6,2022-08-17 14:01:24.296875
1950,-42.33,2022-08-17 14:01:24.312500
1951,-37.01,2022-08-17 14:01:24.328125
1952,-30.11,2022-08-17 14:01:24.343750
1953,-22.27,2022-08-17 14:01:24.359375
1954,-14.17,2022-08-17 14:01:24.375000
1955,-6.37,2022-08-17 14:01:24.390625
1956,0.74,2022-08-17 14:01:24.406250
1957,6.94,2022-08-17 14:01:24.421875
1958,12.11,2022-08-17 14:01:24.437500
1959,16.21,2022-08-17 14:01:24.453125
1960,19.3,2022-08-17 14:01:24.468750
1961,21.52,2022-08-17 14:01:24.484375
1962,23.05,2022-08-17 14:01:24.500000
1963,24.11,2022-08-17 14:01:24.515625
1964,24.86,2022-08-17 14:01:24.531250
1965,25.42,2022-08-17 14:01:24.546875
1966,25.79,2022-08-17 14:01:24.562500
1967,25.94,2022-08-17 14:01:24.578125
1968,25.82,2022-08-17 14:01:24.593750
1969,25.47,2022-08-17 14:01:24.609375
1970,24.97,2022-08-17 14:01:24.625000
1971,24.49,2022-08-17 14:01:24.640625
1972,24.17,2022-08-17 14:01:24.656250
1973,24.07,2022-08-17 14:01:24.671875
1974,24.13,2022-08-17 14:01:24.687500
1975,24.17,2022-08-17 14:01:24.703125
1976,23.98,2022-08-17 14:01:24.718750
1977,23.4,2022-08-17 14:01:24.734375
1978,22.38,2022-08-17 14:01:24.750000
1979,20.99,2022-08-17 14:01:24.765625
1980,19.39,2022-08-17 14:01:24.781250
1981,17.74,2022-08-17 14:01:24.796875
1982,16.13,2022-08-17 14:01:24.812500
1983,14.57,2022-08-17 14:01:24.828125
1984,13.0,2022-08-17 14:01:24.843750
1985,11.34,2022-08-17 14:01:24.859375
1986,9.56,2022-08-17 14:01:24.875000
1987,7.69,2022-08-17 14:01:24.890625
1988,5.78,2022-08-17 14:01:24.906250
1989,3.86,2022-08-17 14:01:24.921875
1990,1.93,2022-08-17 14:01:24.937500
1991,-0.03,2022-08-17 14:01:24.953125
1992,-1.98,2022-08-17 14:01:24.968750
1993,-3.85,2022-08-17 14:01:24.984375
1994,-5.5,2022-08-17 14:01:25.000000
1995,-6.87,2022-08-17 14:01:25.015625
1996,-7.99,2022-08-17 14:01:25.031250
1997,-9.06,2022-08-17 14:01:25.046875
1998,-10.33,2022-08-17 14:01:25.062500
1999,-12.02,2022-08-17 14:01:25.078125
2000,-14.17,2022-08-17 14:01:25.093750
2001,-16.67,2022-08-17 14:01:25.109375
2002,-19.27,2022-08-17 14:01:25.125000
2003,-21.7,2022-08-17 14:01:25.140625
2004,-23.8,2022-08-17 14:01:25.156250
2005,-25.54,2022-08-17 14:01:25.171875
2006,-26.99,2022-08-17 14:01:25.187500
2007,-28.33,2022-08-17 14:01:25.203125
2008,-29.8,2022-08-17 14:01:25.218750
2009,-31.65,2022-08-17 14:01:25.234375
2010,-34.04,2022-08-17 14:01:25.250000
2011,-36.94,2022-08-17 14:01:25.265625
2012,-40.05,2022-08-17 14:01:25.281250
2013,-42.73,2022-08-17 14:01:25.296875
2014,-44.2,2022-08-17 14:01:25.312500
2015,-43.78,2022-08-17 14:01:25.328125
2016,-41.1,2022-08-17 14:01:25.343750
2017,-36.25,2022-08-17 14:01:25.359375
2018,-29.77,2022-08-17 14:01:25.375000
2019,-22.37,2022-08-17 14:01:25.390625
2020,-14.74,2022-08-17 14:01:25.406250
2021,-7.38,2022-08-17 14:01:25.421875
2022,-0.54,2022-08-17 14:01:25.437500
2023,5.66,2022-08-17 14:01:25.453125
2024,11.14,2022-08-17 14:01:25.468750
2025,15.77,2022-08-17 14:01:25.484375
2026,19.39,2022-08-17 14:01:25.500000
2027,21.91,2022-08-17 14:01:25.515625
2028,23.36,2022-08-17 14:01:25.531250
2029,23.96,2022-08-17 14:01:25.546875
2030,23.99,2022-08-17 14:01:25.562500
2031,23.77,2022-08-17 14:01:25.578125
2032,23.51,2022-08-17 14:01:25.593750
2033,23.34,2022-08-17 14:01:25.609375
2034,23.26,2022-08-17 14:01:25.625000
2035,23.23,2022-08-17 14:01:25.640625
2036,23.22,2022-08-17 14:01:25.656250
2037,23.15,2022-08-17 14:01:25.671875
2038,23.02,2022-08-17 14:01:25.687500
2039,22.82,2022-08-17 14:01:25.703125
2040,22.57,2022-08-17 14:01:25.718750
2041,22.31,2022-08-17 14:01:25.734375
2042,21.99,2022-08-17 14:01:25.750000
2043,21.54,2022-08-17 14:01:25.765625
2044,20.78,2022-08-17 14:01:25.781250
2045,19.6,2022-08-17 14:01:25.796875
2046,18.02,2022-08-17 14:01:25.812500
2047,16.21,2022-08-17 14:01:25.828125
2048,14.43,2022-08-17 14:01:25.843750
2049,12.89,2022-08-17 14:01:25.859375
2050,11.61,2022-08-17 14:01:25.875000
2051,10.42,2022-08-17 14:01:25.890625
2052,9.08,2022-08-17 14:01:25.906250
2053,7.42,2022-08-17 14:01:25.921875
2054,5.42,2022-08-17 14:01:25.937500
2055,3.21,2022-08-17 14:01:25.953125
2056,1.0,2022-08-17 14:01:25.968750
2057,-1.07,2022-08-17 14:01:25.984375
2058,-2.9,2022-08-17 14:01:26.000000
2059,-4.45,2022-08-17 14:01:26.015625
2060,-5.69,2022-08-17 14:01:26.031250
2061,-6.59,2022-08-17 14:01:26.046875
2062,-7.26,2022-08-17 14:01:26.062500
2063,-7.89,2022-08-17 14:01:26.078125
2064,-8.76,2022-08-17 14:01:26.093750
2065,-10.08,2022-08-17 14:01:26.109375
2066,-11.93,2022-08-17 14:01:26.125000
2067,-14.14,2022-08-17 14:01:26.140625
2068,-16.46,2022-08-17 14:01:26.156250
2069,-18.61,2022-08-17 14:01:26.171875
2070,-20.46,2022-08-17 14:01:26.187500
2071,-22.03,2022-08-17 14:01:26.203125
2072,-23.5,2022-08-17 14:01:26.218750
2073,-25.11,2022-08-17 14:01:26.234375
2074,-27.07,2022-08-17 14:01:26.250000
2075,-29.53,2022-08-17 14:01:26.265625
2076,-32.45,2022-08-17 14:01:26.281250
2077,-35.67,2022-08-17 14:01:26.296875
2078,-38.79,2022-08-17 14:01:26.312500
2079,-41.29,2022-08-17 14:01:26.328125
2080,-42.57,2022-08-17 14:01:26.343750
2081,-42.13,2022-08-17 14:01:26.359375
2082,-39.69,2022-08-17 14:01:26.375000
2083,-35.29,2022-08-17 14:01:26.390625
2084,-29.26,2022-08-17 14:01:26.406250
2085,-22.13,2022-08-17 14:01:26.421875
2086,-14.55,2022-08-17 14:01:26.437500
2087,-7.17,2022-08-17 14:01:26.453125
2088,-0.49,2022-08-17 14:01:26.468750
2089,5.17,2022-08-17 14:01:26.484375
2090,9.74,2022-08-17 14:01:26.500000
2091,13.29,2022-08-17 14:01:26.515625
2092,16.03,2022-08-17 14:01:26.531250
2093,18.12,2022-08-17 14:01:26.546875
2094,19.68,2022-08-17 14:01:26.562500
2095,20.77,2022-08-17 14:01:26.578125
2096,21.44,2022-08-17 14:01:26.593750
2097,21.72,2022-08-17 14:01:26.609375
2098,21.72,2022-08-17 14:01:26.625000
2099,21.56,2022-08-17 14:01:26.640625
2100,21.34,2022-08-17 14:01:26.656250
2101,21.11,2022-08-17 14:01:26.671875
2102,20.86,2022-08-17 14:01:26.687500
2103,20.62,2022-08-17 14:01:26.703125
2104,20.41,2022-08-17 14:01:26.718750
2105,20.31,2022-08-17 14:01:26.734375
2106,20.36,2022-08-17 14:01:26.750000
2107,20.55,2022-08-17 14:01:26.765625
2108,20.77,2022-08-17 14:01:26.781250
2109,20.85,2022-08-17 14:01:26.796875
2110,20.58,2022-08-17 14:01:26.812500
2111,19.84,2022-08-17 14:01:26.828125
2112,18.59,2022-08-17 14:01:26.843750
2113,16.93,2022-08-17 14:01:26.859375
2114,15.06,2022-08-17 14:01:26.875000
2115,13.13,2022-08-17 14:01:26.890625
2116,11.24,2022-08-17 14:01:26.906250
2117,9.38,2022-08-17 14:01:26.921875
2118,7.43,2022-08-17 14:01:26.937500
2119,5.34,2022-08-17 14:01:26.953125
2120,3.09,2022-08-17 14:01:26.968750
2121,0.79,2022-08-17 14:01:26.984375
2122,-1.39,2022-08-17 14:01:27.000000
2123,-3.34,2022-08-17 14:01:27.015625
2124,-5.02,2022-08-17 14:01:27.031250
2125,-6.55,2022-08-17 14:01:27.046875
2126,-8.15,2022-08-17 14:01:27.062500
2127,-9.99,2022-08-17 14:01:27.078125
2128,-12.17,2022-08-17 14:01:27.093750
2129,-14.58,2022-08-17 14:01:27.109375
2130,-17.04,2022-08-17 14:01:27.125000
2131,-19.28,2022-08-17 14:01:27.140625
2132,-21.14,2022-08-17 14:01:27.156250
2133,-22.6,2022-08-17 14:01:27.171875
2134,-23.76,2022-08-17 14:01:27.187500
2135,-24.85,2022-08-17 14:01:27.203125
2136,-26.07,2022-08-17 14:01:27.218750
2137,-27.61,2022-08-17 14:01:27.234375
2138,-29.61,2022-08-17 14:01:27.250000
2139,-32.13,2022-08-17 14:01:27.265625
2140,-35.11,2022-08-17 14:01:27.281250
2141,-38.28,2022-08-17 14:01:27.296875
2142,-41.11,2022-08-17 14:01:27.312500
2143,-42.9,2022-08-17 14:01:27.328125
2144,-42.99,2022-08-17 14:01:27.343750
2145,-40.92,2022-08-17 14:01:27.359375
2146,-36.66,2022-08-17 14:01:27.375000
2147,-30.58,2022-08-17 14:01:27.390625
2148,-23.33,2022-08-17 14:01:27.406250
2149,-15.64,2022-08-17 14:01:27.421875
2150,-8.13,2022-08-17 14:01:27.437500
2151,-1.25,2022-08-17 14:01:27.453125
2152,4.8,2022-08-17 14:01:27.468750
2153,9.89,2022-08-17 14:01:27.484375
2154,14.03,2022-08-17 14:01:27.500000
2155,17.22,2022-08-17 14:01:27.515625
2156,19.51,2022-08-17 14:01:27.531250
2157,20.98,2022-08-17 14:01:27.546875
2158,21.74,2022-08-17 14:01:27.562500
2159,21.89,2022-08-17 14:01:27.578125
2160,21.59,2022-08-17 14:01:27.593750
2161,20.99,2022-08-17 14:01:27.609375
2162,20.31,2022-08-17 14:01:27.625000
2163,19.7,2022-08-17 14:01:27.640625
2164,19.27,2022-08-17 14:01:27.656250
2165,19.05,2022-08-17 14:01:27.671875
2166,18.99,2022-08-17 14:01:27.687500
2167,19.04,2022-08-17 14:01:27.703125
2168,19.17,2022-08-17 14:01:27.718750
2169,19.34,2022-08-17 14:01:27.734375
2170,19.52,2022-08-17 14:01:27.750000
2171,19.63,2022-08-17 14:01:27.765625
2172,19.52,2022-08-17 14:01:27.781250
2173,19.05,2022-08-17 14:01:27.796875
2174,18.11,2022-08-17 14:01:27.812500
2175,16.67,2022-08-17 14:01:27.828125
2176,14.82,2022-08-17 14:01:27.843750
2177,12.71,2022-08-17 14:01:27.859375
2178,10.48,2022-08-17 14:01:27.875000
2179,8.22,2022-08-17 14:01:27.890625
2180,6.01,2022-08-17 14:01:27.906250
2181,3.85,2022-08-17 14:01:27.921875
2182,1.72,2022-08-17 14:01:27.937500
2183,-0.39,2022-08-17 14:01:27.953125
2184,-2.51,2022-08-17 14:01:27.968750
2185,-4.62,2022-08-17 14:01:27.984375
2186,-6.71,2022-08-17 14:01:28.000000
2187,-8.79,2022-08-17 14:01:28.015625
2188,-10.87,2022-08-17 14:01:28.031250
2189,-13.01,2022-08-17 14:01:28.046875
2190,-15.28,2022-08-17 14:01:28.062500
2191,-17.71,2022-08-17 14:01:28.078125
2192,-20.26,2022-08-17 14:01:28.093750
2193,-22.82,2022-08-17 14:01:28.109375
2194,-25.27,2022-08-17 14:01:28.125000
2195,-27.58,2022-08-17 14:01:28.140625
2196,-29.9,2022-08-17 14:01:28.156250
2197,-32.44,2022-08-17 14:01:28.171875
2198,-35.34,2022-08-17 14:01:28.187500
2199,-38.44,2022-08-17 14:01:28.203125
2200,-41.19,2022-08-17 14:01:28.218750
2201,-42.82,2022-08-17 14:01:28.234375
2202,-42.58,2022-08-17 14:01:28.250000
2203,-40.06,2022-08-17 14:01:28.265625
2204,-35.37,2022-08-17 14:01:28.281250
2205,-29.02,2022-08-17 14:01:28.296875
2206,-21.72,2022-08-17 14:01:28.312500
2207,-14.11,2022-08-17 14:01:28.328125
2208,-6.64,2022-08-17 14:01:28.343750
2209,0.41,2022-08-17 14:01:28.359375
2210,6.83,2022-08-17 14:01:28.375000
2211,12.35,2022-08-17 14:01:28.390625
2212,16.76,2022-08-17 14:01:28.406250
2213,19.89,2022-08-17 14:01:28.421875
2214,21.78,2022-08-17 14:01:28.437500
2215,22.65,2022-08-17 14:01:28.453125
2216,22.79,2022-08-17 14:01:28.468750
2217,22.52,2022-08-17 14:01:28.484375
2218,22.06,2022-08-17 14:01:28.500000
2219,21.57,2022-08-17 14:01:28.515625
2220,21.15,2022-08-17 14:01:28.531250
2221,20.88,2022-08-17 14:01:28.546875
2222,20.82,2022-08-17 14:01:28.562500
2223,20.97,2022-08-17 14:01:28.578125
2224,21.24,2022-08-17 14:01:28.593750
2225,21.54,2022-08-17 14:01:28.609375
2226,21.73,2022-08-17 14:01:28.625000
2227,21.71,2022-08-17 14:01:28.640625
2228,21.43,2022-08-17 14:01:28.656250
2229,20.81,2022-08-17 14:01:28.671875
2230,19.82,2022-08-17 14:01:28.687500
2231,18.46,2022-08-17 14:01:28.703125
2232,16.74,2022-08-17 14:01:28.718750
2233,14.75,2022-08-17 14:01:28.734375
2234,12.57,2022-08-17 14:01:28.750000
2235,10.31,2022-08-17 14:01:28.765625
2236,7.97,2022-08-17 14:01:28.781250
2237,5.48,2022-08-17 14:01:28.796875
2238,2.73,2022-08-17 14:01:28.812500
2239,-0.37,2022-08-17 14:01:28.828125
2240,-3.83,2022-08-17 14:01:28.843750
2241,-7.55,2022-08-17 14:01:28.859375
2242,-11.3,2022-08-17 14:01:28.875000
2243,-14.81,2022-08-17 14:01:28.890625
2244,-17.9,2022-08-17 14:01:28.906250
2245,-20.51,2022-08-17 14:01:28.921875
2246,-22.83,2022-08-17 14:01:28.937500
2247,-25.17,2022-08-17 14:01:28.953125
2248,-27.92,2022-08-17 14:01:28.968750
2249,-31.33,2022-08-17 14:01:28.984375
2250,-35.39,2022-08-17 14:01:29.000000
2251,-39.76,2022-08-17 14:01:29.015625
2252,-43.77,2022-08-17 14:01:29.031250
2253,-46.58,2022-08-17 14:01:29.046875
2254,-47.47,2022-08-17 14:01:29.062500
2255,-45.93,2022-08-17 14:01:29.078125
2256,-41.89,2022-08-17 14:01:29.093750
2257,-35.65,2022-08-17 14:01:29.109375
2258,-27.81,2022-08-17 14:01:29.125000
2259,-19.08,2022-08-17 14:01:29.140625
2260,-10.12,2022-08-17 14:01:29.156250
2261,-1.46,2022-08-17 14:01:29.171875
2262,6.54,2022-08-17 14:01:29.187500
2263,13.69,2022-08-17 14:01:29.203125
2264,19.87,2022-08-17 14:01:29.218750
2265,24.98,2022-08-17 14:01:29.234375
2266,28.93,2022-08-17 14:01:29.250000
2267,31.68,2022-08-17 14:01:29.265625
2268,33.25,2022-08-17 14:01:29.281250
2269,33.77,2022-08-17 14:01:29.296875
2270,33.5,2022-08-17 14:01:29.312500
2271,32.72,2022-08-17 14:01:29.328125
2272,31.75,2022-08-17 14:01:29.343750
2273,30.82,2022-08-17 14:01:29.359375
2274,30.07,2022-08-17 14:01:29.375000
2275,29.54,2022-08-17 14:01:29.390625
2276,29.24,2022-08-17 14:01:29.406250
2277,29.13,2022-08-17 14:01:29.421875
2278,29.09,2022-08-17 14:01:29.437500
2279,29.0,2022-08-17 14:01:29.453125
2280,28.67,2022-08-17 14:01:29.468750
2281,27.96,2022-08-17 14:01:29.484375
2282,26.82,2022-08-17 14:01:29.500000
2283,25.33,2022-08-17 14:01:29.515625
2284,23.6,2022-08-17 14:01:29.531250
2285,21.74,2022-08-17 14:01:29.546875
2286,19.71,2022-08-17 14:01:29.562500
2287,17.36,2022-08-17 14:01:29.578125
2288,14.5,2022-08-17 14:01:29.593750
2289,10.98,2022-08-17 14:01:29.609375
2290,6.85,2022-08-17 14:01:29.625000
2291,2.31,2022-08-17 14:01:29.640625
2292,-2.31,2022-08-17 14:01:29.656250
2293,-6.7,2022-08-17 14:01:29.671875
2294,-10.67,2022-08-17 14:01:29.687500
2295,-14.2,2022-08-17 14:01:29.703125
2296,-17.39,2022-08-17 14:01:29.718750
2297,-20.44,2022-08-17 14:01:29.734375
2298,-23.6,2022-08-17 14:01:29.750000
2299,-27.09,2022-08-17 14:01:29.765625
2300,-31.03,2022-08-17 14:01:29.781250
2301,-35.29,2022-08-17 14:01:29.796875
2302,-39.41,2022-08-17 14:01:29.812500
2303,-42.65,2022-08-17 14:01:29.828125
2304,-44.14,2022-08-17 14:01:29.843750
2305,-43.18,2022-08-17 14:01:29.859375
2306,-39.5,2022-08-17 14:01:29.875000
2307,-33.32,2022-08-17 14:01:29.890625
2308,-25.29,2022-08-17 14:01:29.906250
2309,-16.23,2022-08-17 14:01:29.921875
2310,-6.93,2022-08-17 14:01:29.937500
2311,2.08,2022-08-17 14:01:29.953125
2312,10.48,2022-08-17 14:01:29.968750
2313,18.12,2022-08-17 14:01:29.984375
2314,24.83,2022-08-17 14:01:30.000000
2315,30.45,2022-08-17 14:01:30.015625
2316,34.79,2022-08-17 14:01:30.031250
2317,37.77,2022-08-17 14:01:30.046875
2318,39.49,2022-08-17 14:01:30.062500
2319,40.2,2022-08-17 14:01:30.078125
2320,40.22,2022-08-17 14:01:30.093750
2321,39.83,2022-08-17 14:01:30.109375
2322,39.2,2022-08-17 14:01:30.125000
2323,38.32,2022-08-17 14:01:30.140625
2324,37.14,2022-08-17 14:01:30.156250
2325,35.64,2022-08-17 14:01:30.171875
2326,33.94,2022-08-17 14:01:30.187500
2327,32.24,2022-08-17 14:01:30.203125
2328,30.79,2022-08-17 14:01:30.218750
2329,29.71,2022-08-17 14:01:30.234375
2330,28.95,2022-08-17 14:01:30.250000
2331,28.27,2022-08-17 14:01:30.265625
2332,27.35,2022-08-17 14:01:30.281250
2333,25.95,2022-08-17 14:01:30.296875
2334,23.91,2022-08-17 14:01:30.312500
2335,21.24,2022-08-17 14:01:30.328125
2336,18.11,2022-08-17 14:01:30.343750
2337,14.74,2022-08-17 14:01:30.359375
2338,11.35,2022-08-17 14:01:30.375000
2339,8.11,2022-08-17 14:01:30.390625
2340,5.08,2022-08-17 14:01:30.406250
2341,2.19,2022-08-17 14:01:30.421875
2342,-0.73,2022-08-17 14:01:30.437500
2343,-3.86,2022-08-17 14:01:30.453125
2344,-7.31,2022-08-17 14:01:30.468750
2345,-10.99,2022-08-17 14:01:30.484375
2346,-14.66,2022-08-17 14:01:30.500000
2347,-18.05,2022-08-17 14:01:30.515625
2348,-20.94,2022-08-17 14:01:30.531250
2349,-23.31,2022-08-17 14:01:30.546875
2350,-25.37,2022-08-17 14:01:30.562500
2351,-27.5,2022-08-17 14:01:30.578125
2352,-30.1,2022-08-17 14:01:30.593750
2353,-33.42,2022-08-17 14:01:30.609375
2354,-37.48,2022-08-17 14:01:30.625000
2355,-41.96,2022-08-17 14:01:30.640625
2356,-46.25,2022-08-17 14:01:30.656250
2357,-49.49,2022-08-17 14:01:30.671875
2358,-50.8,2022-08-17 14:01:30.687500
2359,-49.52,2022-08-17 14:01:30.703125
2360,-45.42,2022-08-17 14:01:30.718750
2361,-38.75,2022-08-17 14:01:30.734375
2362,-30.18,2022-08-17 14:01:30.750000
2363,-20.61,2022-08-17 14:01:30.765625
2364,-10.91,2022-08-17 14:01:30.781250
2365,-1.69,2022-08-17 14:01:30.796875
2366,6.69,2022-08-17 14:01:30.812500
2367,14.12,2022-08-17 14:01:30.828125
2368,20.59,2022-08-17 14:01:30.843750
2369,26.1,2022-08-17 14:01:30.859375
2370,30.66,2022-08-17 14:01:30.875000
2371,34.28,2022-08-17 14:01:30.890625
2372,36.98,2022-08-17 14:01:30.906250
2373,38.78,2022-08-17 14:01:30.921875
2374,39.72,2022-08-17 14:01:30.937500
2375,39.85,2022-08-17 14:01:30.953125
2376,39.29,2022-08-17 14:01:30.968750
2377,38.18,2022-08-17 14:01:30.984375
2378,36.71,2022-08-17 14:01:31.000000
2379,35.09,2022-08-17 14:01:31.015625
2380,33.47,2022-08-17 14:01:31.031250
2381,31.95,2022-08-17 14:01:31.046875
2382,30.62,2022-08-17 14:01:31.062500
2383,29.54,2022-08-17 14:01:31.078125
2384,28.72,2022-08-17 14:01:31.093750
2385,28.1,2022-08-17 14:01:31.109375
2386,27.47,2022-08-17 14:01:31.125000
2387,26.57,2022-08-17 14:01:31.140625
2388,25.16,2022-08-17 14:01:31.156250
2389,23.12,2022-08-17 14:01:31.171875
2390,20.56,2022-08-17 14:01:31.187500
2391,17.74,2022-08-17 14:01:31.203125
2392,14.99,2022-08-17 14:01:31.218750
2393,12.51,2022-08-17 14:01:31.234375
2394,10.35,2022-08-17 14:01:31.250000
2395,8.34,2022-08-17 14:01:31.265625
2396,6.27,2022-08-17 14:01:31.281250
2397,4.01,2022-08-17 14:01:31.296875
2398,1.51,2022-08-17 14:01:31.312500
2399,-1.1,2022-08-17 14:01:31.328125
2400,-3.67,2022-08-17 14:01:31.343750
2401,-6.08,2022-08-17 14:01:31.359375
2402,-8.31,2022-08-17 14:01:31.375000
2403,-10.44,2022-08-17 14:01:31.390625
2404,-12.61,2022-08-17 14:01:31.406250
2405,-14.89,2022-08-17 14:01:31.421875
2406,-17.31,2022-08-17 14:01:31.437500
2407,-19.8,2022-08-17 14:01:31.453125
2408,-22.24,2022-08-17 14:01:31.468750
2409,-24.59,2022-08-17 14:01:31.484375
2410,-26.85,2022-08-17 14:01:31.500000
2411,-29.11,2022-08-17 14:01:31.515625
2412,-31.5,2022-08-17 14:01:31.531250
2413,-34.2,2022-08-17 14:01:31.546875
2414,-37.31,2022-08-17 14:01:31.562500
2415,-40.88,2022-08-17 14:01:31.578125
2416,-44.77,2022-08-17 14:01:31.593750
2417,-48.58,2022-08-17 14:01:31.609375
2418,-51.71,2022-08-17 14:01:31.625000
2419,-53.38,2022-08-17 14:01:31.640625
2420,-52.91,2022-08-17 14:01:31.656250
2421,-49.92,2022-08-17 14:01:31.671875
2422,-44.46,2022-08-17 14:01:31.687500
2423,-37.01,2022-08-17 14:01:31.703125
2424,-28.3,2022-08-17 14:01:31.718750
2425,-19.08,2022-08-17 14:01:31.734375
2426,-9.94,2022-08-17 14:01:31.750000
2427,-1.21,2022-08-17 14:01:31.765625
2428,6.96,2022-08-17 14:01:31.781250
2429,14.48,2022-08-17 14:01:31.796875
2430,21.19,2022-08-17 14:01:31.812500
2431,26.91,2022-08-17 14:01:31.828125
2432,31.42,2022-08-17 14:01:31.843750
2433,34.66,2022-08-17 14:01:31.859375
2434,36.72,2022-08-17 14:01:31.875000
2435,37.84,2022-08-17 14:01:31.890625
2436,38.29,2022-08-17 14:01:31.906250
2437,38.3,2022-08-17 14:01:31.921875
2438,37.93,2022-08-17 14:01:31.937500
2439,37.18,2022-08-17 14:01:31.953125
2440,36.04,2022-08-17 14:01:31.968750
2441,34.55,2022-08-17 14:01:31.984375
2442,32.88,2022-08-17 14:01:32.000000
2443,31.27,2022-08-17 14:01:32.015625
2444,29.96,2022-08-17 14:01:32.031250
2445,29.11,2022-08-17 14:01:32.046875
2446,28.74,2022-08-17 14:01:32.062500
2447,28.66,2022-08-17 14:01:32.078125
2448,28.57,2022-08-17 14:01:32.093750
2449,28.11,2022-08-17 14:01:32.109375
2450,27.03,2022-08-17 14:01:32.125000
2451,25.22,2022-08-17 14:01:32.140625
2452,22.82,2022-08-17 14:01:32.156250
2453,20.11,2022-08-17 14:01:32.171875
2454,17.39,2022-08-17 14:01:32.187500
2455,14.85,2022-08-17 14:01:32.203125
2456,12.52,2022-08-17 14:01:32.218750
2457,10.32,2022-08-17 14:01:32.234375
2458,8.13,2022-08-17 14:01:32.250000
2459,5.87,2022-08-17 14:01:32.265625
2460,3.55,2022-08-17 14:01:32.281250
2461,1.26,2022-08-17 14:01:32.296875
2462,-0.93,2022-08-17 14:01:32.312500
2463,-2.94,2022-08-17 14:01:32.328125
2464,-4.74,2022-08-17 14:01:32.343750
2465,-6.37,2022-08-17 14:01:32.359375
2466,-7.9,2022-08-17 14:01:32.375000
2467,-9.46,2022-08-17 14:01:32.390625
2468,-11.13,2022-08-17 14:01:32.406250
2469,-13.0,2022-08-17 14:01:32.421875
2470,-15.08,2022-08-17 14:01:32.437500
2471,-17.35,2022-08-17 14:01:32.453125
2472,-19.75,2022-08-17 14:01:32.468750
2473,-22.21,2022-08-17 14:01:32.484375
2474,-24.65,2022-08-17 14:01:32.500000
2475,-27.01,2022-08-17 14:01:32.515625
2476,-29.24,2022-08-17 14:01:32.531250
2477,-31.38,2022-08-17 14:01:32.546875
2478,-33.54,2022-08-17 14:01:32.562500
2479,-35.92,2022-08-17 14:01:32.578125
2480,-38.71,2022-08-17 14:01:32.593750
2481,-41.92,2022-08-17 14:01:32.609375
2482,-45.33,2022-08-17 14:01:32.625000
2483,-48.41,2022-08-17 14:01:32.640625
2484,-50.45,2022-08-17 14:01:32.656250
2485,-50.75,2022-08-17 14:01:32.671875
2486,-48.79,2022-08-17 14:01:32.687500
2487,-44.46,2022-08-17 14:01:32.703125
2488,-38.05,2022-08-17 14:01:32.718750
2489,-30.18,2022-08-17 14:01:32.734375
2490,-21.57,2022-08-17 14:01:32.750000
2491,-12.93,2022-08-17 14:01:32.765625
2492,-4.74,2022-08-17 14:01:32.781250
2493,2.72,2022-08-17 14:01:32.796875
2494,9.33,2022-08-17 14:01:32.812500
2495,15.07,2022-08-17 14:01:32.828125
2496,19.93,2022-08-17 14:01:32.843750
2497,23.93,2022-08-17 14:01:32.859375
2498,27.1,2022-08-17 14:01:32.875000
2499,29.49,2022-08-17 14:01:32.890625
2500,31.13,2022-08-17 14:01:32.906250
2501,32.07,2022-08-17 14:01:32.921875
2502,32.37,2022-08-17 14:01:32.937500
2503,32.12,2022-08-17 14:01:32.953125
2504,31.44,2022-08-17 14:01:32.968750
2505,30.49,2022-08-17 14:01:32.984375
2506,29.37,2022-08-17 14:01:33.000000
2507,28.17,2022-08-17 14:01:33.015625
2508,26.95,2022-08-17 14:01:33.031250
2509,25.78,2022-08-17 14:01:33.046875
2510,24.73,2022-08-17 14:01:33.062500
2511,23.9,2022-08-17 14:01:33.078125
2512,23.31,2022-08-17 14:01:33.093750
2513,22.85,2022-08-17 14:01:33.109375
2514,22.3,2022-08-17 14:01:33.125000
2515,21.44,2022-08-17 14:01:33.140625
2516,20.14,2022-08-17 14:01:33.156250
2517,18.45,2022-08-17 14:01:33.171875
2518,16.56,2022-08-17 14:01:33.187500
2519,14.75,2022-08-17 14:01:33.203125
2520,13.18,2022-08-17 14:01:33.218750
2521,11.84,2022-08-17 14:01:33.234375
2522,10.51,2022-08-17 14:01:33.250000
2523,8.96,2022-08-17 14:01:33.265625
2524,6.97,2022-08-17 14:01:33.281250
2525,4.55,2022-08-17 14:01:33.296875
2526,1.85,2022-08-17 14:01:33.312500
2527,-0.85,2022-08-17 14:01:33.328125
2528,-3.26,2022-08-17 14:01:33.343750
2529,-5.22,2022-08-17 14:01:33.359375
2530,-6.74,2022-08-17 14:01:33.375000
2531,-7.98,2022-08-17 14:01:33.390625
2532,-9.18,2022-08-17 14:01:33.406250
2533,-10.56,2022-08-17 14:01:33.421875
2534,-12.27,2022-08-17 14:01:33.437500
2535,-14.32,2022-08-17 14:01:33.453125
2536,-16.62,2022-08-17 14:01:33.468750
2537,-19.03,2022-08-17 14:01:33.484375
2538,-21.4,2022-08-17 14:01:33.500000
2539,-23.6,2022-08-17 14:01:33.515625
2540,-25.62,2022-08-17 14:01:33.531250
2541,-27.5,2022-08-17 14:01:33.546875
2542,-29.34,2022-08-17 14:01:33.562500
2543,-31.3,2022-08-17 14:01:33.578125
2544,-33.55,2022-08-17 14:01:33.593750
2545,-36.15,2022-08-17 14:01:33.609375
2546,-39.07,2022-08-17 14:01:33.625000
2547,-42.01,2022-08-17 14:01:33.640625
2548,-44.46,2022-08-17 14:01:33.656250
2549,-45.8,2022-08-17 14:01:33.671875
2550,-45.47,2022-08-17 14:01:33.687500
2551,-43.1,2022-08-17 14:01:33.703125
2552,-38.72,2022-08-17 14:01:33.718750
2553,-32.63,2022-08-17 14:01:33.734375
2554,-25.36,2022-08-17 14:01:33.750000
2555,-17.48,2022-08-17 14:01:33.765625
2556,-9.52,2022-08-17 14:01:33.781250
2557,-1.86,2022-08-17 14:01:33.796875
2558,5.16,2022-08-17 14:01:33.812500
2559,11.31,2022-08-17 14:01:33.828125
2560,16.42,2022-08-17 14:01:33.843750
2561,20.42,2022-08-17 14:01:33.859375
2562,23.36,2022-08-17 14:01:33.875000
2563,25.36,2022-08-17 14:01:33.890625
2564,26.58,2022-08-17 14:01:33.906250
2565,27.19,2022-08-17 14:01:33.921875
2566,27.33,2022-08-17 14:01:33.937500
2567,27.15,2022-08-17 14:01:33.953125
2568,26.8,2022-08-17 14:01:33.968750
2569,26.43,2022-08-17 14:01:33.984375
2570,26.12,2022-08-17 14:01:34.000000
2571,25.9,2022-08-17 14:01:34.015625
2572,25.73,2022-08-17 14:01:34.031250
2573,25.56,2022-08-17 14:01:34.046875
2574,25.33,2022-08-17 14:01:34.062500
2575,25.07,2022-08-17 14:01:34.078125
2576,24.78,2022-08-17 14:01:34.093750
2577,24.46,2022-08-17 14:01:34.109375
2578,24.02,2022-08-17 14:01:34.125000
2579,23.34,2022-08-17 14:01:34.140625
2580,22.27,2022-08-17 14:01:34.156250
2581,20.78,2022-08-17 14:01:34.171875
2582,18.92,2022-08-17 14:01:34.187500
2583,16.85,2022-08-17 14:01:34.203125
2584,14.73,2022-08-17 14:01:34.218750
2585,12.64,2022-08-17 14:01:34.234375
2586,10.59,2022-08-17 14:01:34.250000
2587,8.53,2022-08-17 14:01:34.265625
2588,6.44,2022-08-17 14:01:34.281250
2589,4.34,2022-08-17 14:01:34.296875
2590,2.27,2022-08-17 14:01:34.312500
2591,0.28,2022-08-17 14:01:34.328125
2592,-1.66,2022-08-17 14:01:34.343750
2593,-3.63,2022-08-17 14:01:34.359375
2594,-5.73,2022-08-17 14:01:34.375000
2595,-7.97,2022-08-17 14:01:34.390625
2596,-10.31,2022-08-17 14:01:34.406250
2597,-12.67,2022-08-17 14:01:34.421875
2598,-14.96,2022-08-17 14:01:34.437500
2599,-17.13,2022-08-17 14:01:34.453125
2600,-19.18,2022-08-17 14:01:34.468750
2601,-21.07,2022-08-17 14:01:34.484375
2602,-22.78,2022-08-17 14:01:34.500000
2603,-24.26,2022-08-17 14:01:34.515625
2604,-25.51,2022-08-17 14:01:34.531250
2605,-26.62,2022-08-17 14:01:34.546875
2606,-27.82,2022-08-17 14:01:34.562500
2607,-29.37,2022-08-17 14:01:34.578125
2608,-31.51,2022-08-17 14:01:34.593750
2609,-34.32,2022-08-17 14:01:34.609375
2610,-37.61,2022-08-17 14:01:34.625000
2611,-40.97,2022-08-17 14:01:34.640625
2612,-43.75,2022-08-17 14:01:34.656250
2613,-45.32,2022-08-17 14:01:34.671875
2614,-45.14,2022-08-17 14:01:34.687500
2615,-42.96,2022-08-17 14:01:34.703125
2616,-38.84,2022-08-17 14:01:34.718750
2617,-33.12,2022-08-17 14:01:34.734375
2618,-26.3,2022-08-17 14:01:34.750000
2619,-18.94,2022-08-17 14:01:34.765625
2620,-11.55,2022-08-17 14:01:34.781250
2621,-4.53,2022-08-17 14:01:34.796875
2622,1.84,2022-08-17 14:01:34.812500
2623,7.42,2022-08-17 14:01:34.828125
2624,12.14,2022-08-17 14:01:34.843750
2625,16.0,2022-08-17 14:01:34.859375
2626,19.05,2022-08-17 14:01:34.875000
2627,21.33,2022-08-17 14:01:34.890625
2628,22.93,2022-08-17 14:01:34.906250
2629,23.87,2022-08-17 14:01:34.921875
2630,24.25,2022-08-17 14:01:34.937500
2631,24.16,2022-08-17 14:01:34.953125
2632,23.73,2022-08-17 14:01:34.968750
2633,23.08,2022-08-17 14:01:34.984375
2634,22.33,2022-08-17 14:01:35.000000
2635,21.56,2022-08-17 14:01:35.015625
2636,20.83,2022-08-17 14:01:35.031250
2637,20.27,2022-08-17 14:01:35.046875
2638,19.99,2022-08-17 14:01:35.062500
2639,20.06,2022-08-17 14:01:35.078125
2640,20.46,2022-08-17 14:01:35.093750
2641,21.03,2022-08-17 14:01:35.109375
2642,21.51,2022-08-17 14:01:35.125000
2643,21.56,2022-08-17 14:01:35.140625
2644,20.94,2022-08-17 14:01:35.156250
2645,19.6,2022-08-17 14:01:35.171875
2646,17.65,2022-08-17 14:01:35.187500
2647,15.4,2022-08-17 14:01:35.203125
2648,13.12,2022-08-17 14:01:35.218750
2649,10.96,2022-08-17 14:01:35.234375
2650,8.92,2022-08-17 14:01:35.250000
2651,6.83,2022-08-17 14:01:35.265625
2652,4.56,2022-08-17 14:01:35.281250
2653,2.08,2022-08-17 14:01:35.296875
2654,-0.49,2022-08-17 14:01:35.312500
2655,-2.94,2022-08-17 14:01:35.328125
2656,-5.1,2022-08-17 14:01:35.343750
2657,-6.91,2022-08-17 14:01:35.359375
2658,-8.49,2022-08-17 14:01:35.375000
2659,-10.04,2022-08-17 14:01:35.390625
2660,-11.74,2022-08-17 14:01:35.406250
2661,-13.69,2022-08-17 14:01:35.421875
2662,-15.82,2022-08-17 14:01:35.437500
2663,-18.02,2022-08-17 14:01:35.453125
2664,-20.15,2022-08-17 14:01:35.468750
2665,-22.12,2022-08-17 14:01:35.484375
2666,-23.88,2022-08-17 14:01:35.500000
2667,-25.44,2022-08-17 14:01:35.515625
2668,-26.8,2022-08-17 14:01:35.531250
2669,-27.98,2022-08-17 14:01:35.546875
2670,-29.1,2022-08-17 14:01:35.562500
2671,-30.34,2022-08-17 14:01:35.578125
2672,-31.94,2022-08-17 14:01:35.593750
2673,-34.04,2022-08-17 14:01:35.609375
2674,-36.63,2022-08-17 14:01:35.625000
2675,-39.34,2022-08-17 14:01:35.640625
2676,-41.59,2022-08-17 14:01:35.656250
2677,-42.69,2022-08-17 14:01:35.671875
2678,-42.1,2022-08-17 14:01:35.687500
2679,-39.56,2022-08-17 14:01:35.703125
2680,-35.2,2022-08-17 14:01:35.718750
2681,-29.39,2022-08-17 14:01:35.734375
2682,-22.58,2022-08-17 14:01:35.750000
2683,-15.24,2022-08-17 14:01:35.765625
2684,-7.73,2022-08-17 14:01:35.781250
2685,-0.42,2022-08-17 14:01:35.796875
2686,6.31,2022-08-17 14:01:35.812500
2687,12.1,2022-08-17 14:01:35.828125
2688,16.65,2022-08-17 14:01:35.843750
2689,19.83,2022-08-17 14:01:35.859375
2690,21.75,2022-08-17 14:01:35.875000
2691,22.69,2022-08-17 14:01:35.890625
2692,22.96,2022-08-17 14:01:35.906250
2693,22.84,2022-08-17 14:01:35.921875
2694,22.53,2022-08-17 14:01:35.937500
2695,22.09,2022-08-17 14:01:35.953125
2696,21.58,2022-08-17 14:01:35.968750
2697,21.07,2022-08-17 14:01:35.984375
2698,20.62,2022-08-17 14:01:36.000000
2699,20.33,2022-08-17 14:01:36.015625
2700,20.19,2022-08-17 14:01:36.031250
2701,20.17,2022-08-17 14:01:36.046875
2702,20.17,2022-08-17 14:01:36.062500
2703,20.08,2022-08-17 14:01:36.078125
2704,19.83,2022-08-17 14:01:36.093750
2705,19.39,2022-08-17 14:01:36.109375
2706,18.69,2022-08-17 14:01:36.125000
2707,17.69,2022-08-17 14:01:36.140625
2708,16.33,2022-08-17 14:01:36.156250
2709,14.58,2022-08-17 14:01:36.171875
2710,12.52,2022-08-17 14:01:36.187500
2711,10.3,2022-08-17 14:01:36.203125
2712,8.13,2022-08-17 14:01:36.218750
2713,6.16,2022-08-17 14:01:36.234375
2714,4.42,2022-08-17 14:01:36.250000
2715,2.81,2022-08-17 14:01:36.265625
2716,1.11,2022-08-17 14:01:36.281250
2717,-0.9,2022-08-17 14:01:36.296875
2718,-3.33,2022-08-17 14:01:36.312500
2719,-6.14,2022-08-17 14:01:36.328125
2720,-9.11,2022-08-17 14:01:36.343750
2721,-12.0,2022-08-17 14:01:36.359375
2722,-14.61,2022-08-17 14:01:36.375000
2723,-16.88,2022-08-17 14:01:36.390625
2724,-18.89,2022-08-17 14:01:36.406250
2725,-20.81,2022-08-17 14:01:36.421875
2726,-22.74,2022-08-17 14:01:36.437500
2727,-24.78,2022-08-17 14:01:36.453125
2728,-26.98,2022-08-17 14:01:36.468750
2729,-29.4,2022-08-17 14:01:36.484375
2730,-32.18,2022-08-17 14:01:36.500000
2731,-35.38,2022-08-17 14:01:36.515625
2732,-38.92,2022-08-17 14:01:36.531250
2733,-42.41,2022-08-17 14:01:36.546875
2734,-45.14,2022-08-17 14:01:36.562500
2735,-46.33,2022-08-17 14:01:36.578125
2736,-45.33,2022-08-17 14:01:36.593750
2737,-41.9,2022-08-17 14:01:36.609375
2738,-36.28,2022-08-17 14:01:36.625000
2739,-29.08,2022-08-17 14:01:36.640625
2740,-21.04,2022-08-17 14:01:36.656250
2741,-12.81,2022-08-17 14:01:36.671875
2742,-4.85,2022-08-17 14:01:36.687500
2743,2.56,2022-08-17 14:01:36.703125
2744,9.18,2022-08-17 14:01:36.718750
2745,14.84,2022-08-17 14:01:36.734375
2746,19.36,2022-08-17 14:01:36.750000
2747,22.67,2022-08-17 14:01:36.765625
2748,24.84,2022-08-17 14:01:36.781250
2749,26.07,2022-08-17 14:01:36.796875
2750,26.64,2022-08-17 14:01:36.812500
2751,26.77,2022-08-17 14:01:36.828125
2752,26.61,2022-08-17 14:01:36.843750
2753,26.25,2022-08-17 14:01:36.859375
2754,25.73,2022-08-17 14:01:36.875000
2755,25.13,2022-08-17 14:01:36.890625
2756,24.56,2022-08-17 14:01:36.906250
2757,24.09,2022-08-17 14:01:36.921875
2758,23.73,2022-08-17 14:01:36.937500
2759,23.45,2022-08-17 14:01:36.953125
2760,23.12,2022-08-17 14:01:36.968750
2761,22.61,2022-08-17 14:01:36.984375
2762,21.8,2022-08-17 14:01:37.000000
2763,20.62,2022-08-17 14:01:37.015625
2764,19.06,2022-08-17 14:01:37.031250
2765,17.17,2022-08-17 14:01:37.046875
2766,15.06,2022-08-17 14:01:37.062500
2767,12.86,2022-08-17 14:01:37.078125
2768,10.68,2022-08-17 14:01:37.093750
2769,8.5,2022-08-17 14:01:37.109375
2770,6.23,2022-08-17 14:01:37.125000
2771,3.7,2022-08-17 14:01:37.140625
2772,0.75,2022-08-17 14:01:37.156250
2773,-2.64,2022-08-17 14:01:37.171875
2774,-6.32,2022-08-17 14:01:37.187500
2775,-10.04,2022-08-17 14:01:37.203125
2776,-13.52,2022-08-17 14:01:37.218750
2777,-16.56,2022-08-17 14:01:37.234375
2778,-19.14,2022-08-17 14:01:37.250000
2779,-21.37,2022-08-17 14:01:37.265625
2780,-23.49,2022-08-17 14:01:37.281250
2781,-25.78,2022-08-17 14:01:37.296875
2782,-28.55,2022-08-17 14:01:37.312500
2783,-32.01,2022-08-17 14:01:37.328125
2784,-36.18,2022-08-17 14:01:37.343750
2785,-40.73,2022-08-17 14:01:37.359375
2786,-45.02,2022-08-17 14:01:37.375000
2787,-48.16,2022-08-17 14:01:37.390625
2788,-49.28,2022-08-17 14:01:37.406250
2789,-47.81,2022-08-17 14:01:37.421875
2790,-43.65,2022-08-17 14:01:37.437500
2791,-37.15,2022-08-17 14:01:37.453125
2792,-29.02,2022-08-17 14:01:37.468750
2793,-20.05,2022-08-17 14:01:37.484375
2794,-10.91,2022-08-17 14:01:37.500000
2795,-2.08,2022-08-17 14:01:37.515625
2796,6.15,2022-08-17 14:01:37.531250
2797,13.66,2022-08-17 14:01:37.546875
2798,20.36,2022-08-17 14:01:37.562500
2799,26.14,2022-08-17 14:01:37.578125
2800,30.89,2022-08-17 14:01:37.593750
2801,34.49,2022-08-17 14:01:37.609375
2802,36.9,2022-08-17 14:01:37.625000
2803,38.15,2022-08-17 14:01:37.640625
2804,38.4,2022-08-17 14:01:37.656250
2805,37.92,2022-08-17 14:01:37.671875
2806,37.02,2022-08-17 14:01:37.687500
2807,35.92,2022-08-17 14:01:37.703125
2808,34.8,2022-08-17 14:01:37.718750
2809,33.71,2022-08-17 14:01:37.734375
2810,32.69,2022-08-17 14:01:37.750000
2811,31.78,2022-08-17 14:01:37.765625
2812,30.99,2022-08-17 14:01:37.781250
2813,30.31,2022-08-17 14:01:37.796875
2814,29.65,2022-08-17 14:01:37.812500
2815,28.81,2022-08-17 14:01:37.828125
2816,27.56,2022-08-17 14:01:37.843750
2817,25.74,2022-08-17 14:01:37.859375
2818,23.34,2022-08-17 14:01:37.875000
2819,20.52,2022-08-17 14:01:37.890625
2820,17.55,2022-08-17 14:01:37.906250
2821,14.64,2022-08-17 14:01:37.921875
2822,11.88,2022-08-17 14:01:37.937500
2823,9.19,2022-08-17 14:01:37.953125
2824,6.41,2022-08-17 14:01:37.968750
2825,3.36,2022-08-17 14:01:37.984375
2826,0.01,2022-08-17 14:01:38.000000
2827,-3.57,2022-08-17 14:01:38.015625
2828,-7.24,2022-08-17 14:01:38.031250
2829,-10.83,2022-08-17 14:01:38.046875
2830,-14.22,2022-08-17 14:01:38.062500
2831,-17.35,2022-08-17 14:01:38.078125
2832,-20.26,2022-08-17 14:01:38.093750
2833,-23.06,2022-08-17 14:01:38.109375
2834,-25.97,2022-08-17 14:01:38.125000
2835,-29.27,2022-08-17 14:01:38.140625
2836,-33.2,2022-08-17 14:01:38.156250
2837,-37.88,2022-08-17 14:01:38.171875
2838,-43.06,2022-08-17 14:01:38.187500
2839,-48.14,2022-08-17 14:01:38.203125
2840,-52.24,2022-08-17 14:01:38.218750
2841,-54.32,2022-08-17 14:01:38.234375
2842,-53.6,2022-08-17 14:01:38.250000
2843,-49.72,2022-08-17 14:01:38.265625
2844,-42.83,2022-08-17 14:01:38.281250
2845,-33.61,2022-08-17 14:01:38.296875
2846,-23.02,2022-08-17 14:01:38.312500
2847,-12.04,2022-08-17 14:01:38.328125
2848,-1.45,2022-08-17 14:01:38.343750
2849,8.22,2022-08-17 14:01:38.359375
2850,16.75,2022-08-17 14:01:38.375000
2851,24.11,2022-08-17 14:01:38.390625
2852,30.29,2022-08-17 14:01:38.406250
2853,35.27,2022-08-17 14:01:38.421875
2854,39.0,2022-08-17 14:01:38.437500
2855,41.46,2022-08-17 14:01:38.453125
2856,42.75,2022-08-17 14:01:38.468750
2857,43.07,2022-08-17 14:01:38.484375
2858,42.73,2022-08-17 14:01:38.500000
2859,42.04,2022-08-17 14:01:38.515625
2860,41.2,2022-08-17 14:01:38.531250
2861,40.31,2022-08-17 14:01:38.546875
2862,39.39,2022-08-17 14:01:38.562500
2863,38.4,2022-08-17 14:01:38.578125
2864,37.34,2022-08-17 14:01:38.593750
2865,36.25,2022-08-17 14:01:38.609375
2866,35.15,2022-08-17 14:01:38.625000
2867,34.01,2022-08-17 14:01:38.640625
2868,32.75,2022-08-17 14:01:38.656250
2869,31.3,2022-08-17 14:01:38.671875
2870,29.6,2022-08-17 14:01:38.687500
2871,27.62,2022-08-17 14:01:38.703125
2872,25.39,2022-08-17 14:01:38.718750
2873,22.9,2022-08-17 14:01:38.734375
2874,20.17,2022-08-17 14:01:38.750000
2875,17.19,2022-08-17 14:01:38.765625
2876,14.03,2022-08-17 14:01:38.781250
2877,10.85,2022-08-17 14:01:38.796875
2878,7.81,2022-08-17 14:01:38.812500
2879,5.04,2022-08-17 14:01:38.828125
2880,2.59,2022-08-17 14:01:38.843750
2881,0.31,2022-08-17 14:01:38.859375
2882,-2.0,2022-08-17 14:01:38.875000
2883,-4.54,2022-08-17 14:01:38.890625
2884,-7.42,2022-08-17 14:01:38.906250
2885,-10.6,2022-08-17 14:01:38.921875
2886,-13.95,2022-08-17 14:01:38.937500
2887,-17.33,2022-08-17 14:01:38.953125
2888,-20.64,2022-08-17 14:01:38.968750
2889,-23.85,2022-08-17 14:01:38.984375
2890,-26.96,2022-08-17 14:01:39.000000
2891,-30.0,2022-08-17 14:01:39.015625
2892,-33.02,2022-08-17 14:01:39.031250
2893,-36.19,2022-08-17 14:01:39.046875
2894,-39.72,2022-08-17 14:01:39.062500
2895,-43.84,2022-08-17 14:01:39.078125
2896,-48.59,2022-08-17 14:01:39.093750
2897,-53.66,2022-08-17 14:01:39.109375
2898,-58.33,2022-08-17 14:01:39.125000
2899,-61.57,2022-08-17 14:01:39.140625
2900,-62.35,2022-08-17 14:01:39.156250
2901,-59.97,2022-08-17 14:01:39.171875
2902,-54.28,2022-08-17 14:01:39.187500
2903,-45.7,2022-08-17 14:01:39.203125
2904,-35.1,2022-08-17 14:01:39.218750
2905,-23.48,2022-08-17 14:01:39.234375
2906,-11.74,2022-08-17 14:01:39.250000
2907,-0.57,2022-08-17 14:01:39.265625
2908,9.56,2022-08-17 14:01:39.281250
2909,18.41,2022-08-17 14:01:39.296875
2910,25.86,2022-08-17 14:01:39.312500
2911,31.86,2022-08-17 14:01:39.328125
2912,36.43,2022-08-17 14:01:39.343750
2913,39.64,2022-08-17 14:01:39.359375
2914,41.67,2022-08-17 14:01:39.375000
2915,42.72,2022-08-17 14:01:39.390625
2916,43.08,2022-08-17 14:01:39.406250
2917,42.96,2022-08-17 14:01:39.421875
2918,42.57,2022-08-17 14:01:39.437500
2919,41.95,2022-08-17 14:01:39.453125
2920,41.12,2022-08-17 14:01:39.468750
2921,40.09,2022-08-17 14:01:39.484375
2922,38.91,2022-08-17 14:01:39.500000
2923,37.69,2022-08-17 14:01:39.515625
2924,36.58,2022-08-17 14:01:39.531250
2925,35.64,2022-08-17 14:01:39.546875
2926,34.8,2022-08-17 14:01:39.562500
2927,33.92,2022-08-17 14:01:39.578125
2928,32.78,2022-08-17 14:01:39.593750
2929,31.27,2022-08-17 14:01:39.609375
2930,29.34,2022-08-17 14:01:39.625000
2931,27.05,2022-08-17 14:01:39.640625
2932,24.51,2022-08-17 14:01:39.656250
2933,21.83,2022-08-17 14:01:39.671875
2934,19.08,2022-08-17 14:01:39.687500
2935,16.36,2022-08-17 14:01:39.703125
2936,13.73,2022-08-17 14:01:39.718750
2937,11.21,2022-08-17 14:01:39.734375
2938,8.79,2022-08-17 14:01:39.750000
2939,6.36,2022-08-17 14:01:39.765625
2940,3.81,2022-08-17 14:01:39.781250
2941,1.07,2022-08-17 14:01:39.796875
2942,-1.83,2022-08-17 14:01:39.812500
2943,-4.78,2022-08-17 14:01:39.828125
2944,-7.63,2022-08-17 14:01:39.843750
2945,-10.31,2022-08-17 14:01:39.859375
2946,-12.85,2022-08-17 14:01:39.875000
2947,-15.33,2022-08-17 14:01:39.890625
2948,-17.85,2022-08-17 14:01:39.906250
2949,-20.45,2022-08-17 14:01:39.921875
2950,-23.06,2022-08-17 14:01:39.937500
2951,-25.59,2022-08-17 14:01:39.953125
2952,-27.99,2022-08-17 14:01:39.968750
2953,-30.27,2022-08-17 14:01:39.984375
2954,-32.54,2022-08-17 14:01:40.000000
2955,-34.94,2022-08-17 14:01:40.015625
2956,-37.62,2022-08-17 14:01:40.031250
2957,-40.68,2022-08-17 14:01:40.046875
2958,-44.19,2022-08-17 14:01:40.062500
2959,-48.03,2022-08-17 14:01:40.078125
2960,-51.81,2022-08-17 14:01:40.093750
2961,-54.89,2022-08-17 14:01:40.109375
2962,-56.41,2022-08-17 14:01:40.125000
2963,-55.56,2022-08-17 14:01:40.140625
2964,-51.81,2022-08-17 14:01:40.156250
2965,-45.16,2022-08-17 14:01:40.171875
2966,-36.16,2022-08-17 14:01:40.187500
2967,-25.72,2022-08-17 14:01:40.203125
2968,-14.88,2022-08-17 14:01:40.218750
2969,-4.48,2022-08-17 14:01:40.234375
2970,4.93,2022-08-17 14:01:40.250000
2971,13.16,2022-08-17 14:01:40.265625
2972,20.21,2022-08-17 14:01:40.281250
2973,26.14,2022-08-17 14:01:40.296875
2974,31.0,2022-08-17 14:01:40.312500
2975,34.77,2022-08-17 14:01:40.328125
2976,37.44,2022-08-17 14:01:40.343750
2977,39.03,2022-08-17 14:01:40.359375
2978,39.65,2022-08-17 14:01:40.375000
2979,39.48,2022-08-17 14:01:40.390625
2980,38.72,2022-08-17 14:01:40.406250
2981,37.56,2022-08-17 14:01:40.421875
2982,36.16,2022-08-17 14:01:40.437500
2983,34.68,2022-08-17 14:01:40.453125
2984,33.29,2022-08-17 14:01:40.468750
2985,32.17,2022-08-17 14:01:40.484375
2986,31.45,2022-08-17 14:01:40.500000
2987,31.17,2022-08-17 14:01:40.515625
2988,31.16,2022-08-17 14:01:40.531250
2989,31.17,2022-08-17 14:01:40.546875
2990,30.87,2022-08-17 14:01:40.562500
2991,29.99,2022-08-17 14:01:40.578125
2992,28.43,2022-08-17 14:01:40.593750
2993,26.24,2022-08-17 14:01:40.609375
2994,23.6,2022-08-17 14:01:40.625000
2995,20.75,2022-08-17 14:01:40.640625
2996,17.93,2022-08-17 14:01:40.656250
2997,15.34,2022-08-17 14:01:40.671875
2998,13.06,2022-08-17 14:01:40.687500
2999,11.1,2022-08-17 14:01:40.703125
3000,9.34,2022-08-17 14:01:40.718750
3001,7.58,2022-08-17 14:01:40.734375
3002,5.64,2022-08-17 14:01:40.750000
3003,3.42,2022-08-17 14:01:40.765625
3004,0.95,2022-08-17 14:01:40.781250
3005,-1.61,2022-08-17 14:01:40.796875
3006,-4.03,2022-08-17 14:01:40.812500
3007,-6.16,2022-08-17 14:01:40.828125
3008,-7.96,2022-08-17 14:01:40.843750
3009,-9.58,2022-08-17 14:01:40.859375
3010,-11.23,2022-08-17 14:01:40.875000
3011,-13.15,2022-08-17 14:01:40.890625
3012,-15.43,2022-08-17 14:01:40.906250
3013,-17.98,2022-08-17 14:01:40.921875
3014,-20.64,2022-08-17 14:01:40.937500
3015,-23.16,2022-08-17 14:01:40.953125
3016,-25.39,2022-08-17 14:01:40.968750
3017,-27.27,2022-08-17 14:01:40.984375
3018,-28.9,2022-08-17 14:01:41.000000
3019,-30.41,2022-08-17 14:01:41.015625
3020,-32.01,2022-08-17 14:01:41.031250
3021,-33.92,2022-08-17 14:01:41.046875
3022,-36.37,2022-08-17 14:01:41.062500
3023,-39.45,2022-08-17 14:01:41.078125
3024,-43.08,2022-08-17 14:01:41.093750
3025,-46.86,2022-08-17 14:01:41.109375
3026,-50.08,2022-08-17 14:01:41.125000
3027,-51.87,2022-08-17 14:01:41.140625
3028,-51.42,2022-08-17 14:01:41.156250
3029,-48.3,2022-08-17 14:01:41.171875
3030,-42.59,2022-08-17 14:01:41.187500
3031,-34.86,2022-08-17 14:01:41.203125
3032,-25.95,2022-08-17 14:01:41.218750
3033,-16.72,2022-08-17 14:01:41.234375
3034,-7.82,2022-08-17 14:01:41.250000
3035,0.36,2022-08-17 14:01:41.265625
3036,7.65,2022-08-17 14:01:41.281250
3037,13.97,2022-08-17 14:01:41.296875
3038,19.22,2022-08-17 14:01:41.312500
3039,23.34,2022-08-17 14:01:41.328125
3040,26.27,2022-08-17 14:01:41.343750
3041,28.09,2022-08-17 14:01:41.359375
3042,28.98,2022-08-17 14:01:41.375000
3043,29.19,2022-08-17 14:01:41.390625
3044,29.01,2022-08-17 14:01:41.406250
3045,28.62,2022-08-17 14:01:41.421875
3046,28.14,2022-08-17 14:01:41.437500
3047,27.56,2022-08-17 14:01:41.453125
3048,26.88,2022-08-17 14:01:41.468750
3049,26.12,2022-08-17 14:01:41.484375
3050,25.35,2022-08-17 14:01:41.500000
3051,24.71,2022-08-17 14:01:41.515625
3052,24.27,2022-08-17 14:01:41.531250
3053,24.07,2022-08-17 14:01:41.546875
3054,23.99,2022-08-17 14:01:41.562500
3055,23.86,2022-08-17 14:01:41.578125
3056,23.49,2022-08-17 14:01:41.593750
3057,22.72,2022-08-17 14:01:41.609375
3058,21.46,2022-08-17 14:01:41.625000
3059,19.73,2022-08-17 14:01:41.640625
3060,17.63,2022-08-17 14:01:41.656250
3061,15.32,2022-08-17 14:01:41.671875
3062,12.99,2022-08-17 14:01:41.687500
3063,10.81,2022-08-17 14:01:41.703125
3064,8.87,2022-08-17 14:01:41.718750
3065,7.17,2022-08-17 14:01:41.734375
3066,5.61,2022-08-17 14:01:41.750000
3067,4.04,2022-08-17 14:01:41.765625
3068,2.34,2022-08-17 14:01:41.781250
3069,0.49,2022-08-17 14:01:41.796875
3070,-1.5,2022-08-17 14:01:41.812500
3071,-3.56,2022-08-17 14:01:41.828125
3072,-5.64,2022-08-17 14:01:41.843750
3073,-7.73,2022-08-17 14:01:41.859375
3074,-9.85,2022-08-17 14:01:41.875000
3075,-12.02,2022-08-17 14:01:41.890625
3076,-14.22,2022-08-17 14:01:41.906250
3077,-16.44,2022-08-17 14:01:41.921875
3078,-18.66,2022-08-17 14:01:41.937500
3079,-20.86,2022-08-17 14:01:41.953125
3080,-22.94,2022-08-17 14:01:41.968750
3081,-24.82,2022-08-17 14:01:41.984375
3082,-26.42,2022-08-17 14:01:42.000000
3083,-27.7,2022-08-17 14:01:42.015625
3084,-28.76,2022-08-17 14:01:42.031250
3085,-29.82,2022-08-17 14:01:42.046875
3086,-31.21,2022-08-17 14:01:42.062500
3087,-33.23,2022-08-17 14:01:42.078125
3088,-35.98,2022-08-17 14:01:42.093750
3089,-39.3,2022-08-17 14:01:42.109375
3090,-42.7,2022-08-17 14:01:42.125000
3091,-45.45,2022-08-17 14:01:42.140625
3092,-46.8,2022-08-17 14:01:42.156250
3093,-46.12,2022-08-17 14:01:42.171875
3094,-43.15,2022-08-17 14:01:42.187500
3095,-37.99,2022-08-17 14:01:42.203125
3096,-31.1,2022-08-17 14:01:42.218750
3097,-23.14,2022-08-17 14:01:42.234375
3098,-14.77,2022-08-17 14:01:42.250000
3099,-6.57,2022-08-17 14:01:42.265625
3100,1.04,2022-08-17 14:01:42.281250
3101,7.77,2022-08-17 14:01:42.296875
3102,13.44,2022-08-17 14:01:42.312500
3103,17.95,2022-08-17 14:01:42.328125
3104,21.29,2022-08-17 14:01:42.343750
3105,23.53,2022-08-17 14:01:42.359375
3106,24.81,2022-08-17 14:01:42.375000
3107,25.34,2022-08-17 14:01:42.390625
3108,25.31,2022-08-17 14:01:42.406250
3109,24.91,2022-08-17 14:01:42.421875
3110,24.24,2022-08-17 14:01:42.437500
3111,23.42,2022-08-17 14:01:42.453125
3112,22.55,2022-08-17 14:01:42.468750
3113,21.72,2022-08-17 14:01:42.484375
3114,21.01,2022-08-17 14:01:42.500000
3115,20.49,2022-08-17 14:01:42.515625
3116,20.14,2022-08-17 14:01:42.531250
3117,19.87,2022-08-17 14:01:42.546875
3118,19.59,2022-08-17 14:01:42.562500
3119,19.18,2022-08-17 14:01:42.578125
3120,18.57,2022-08-17 14:01:42.593750
3121,17.75,2022-08-17 14:01:42.609375
3122,16.73,2022-08-17 14:01:42.625000
3123,15.51,2022-08-17 14:01:42.640625
3124,14.08,2022-08-17 14:01:42.656250
3125,12.39,2022-08-17 14:01:42.671875
3126,10.45,2022-08-17 14:01:42.687500
3127,8.34,2022-08-17 14:01:42.703125
3128,6.18,2022-08-17 14:01:42.718750
3129,4.14,2022-08-17 14:01:42.734375
3130,2.26,2022-08-17 14:01:42.750000
3131,0.5,2022-08-17 14:01:42.765625
3132,-1.26,2022-08-17 14:01:42.781250
3133,-3.11,2022-08-17 14:01:42.796875
3134,-5.08,2022-08-17 14:01:42.812500
3135,-7.11,2022-08-17 14:01:42.828125
3136,-9.16,2022-08-17 14:01:42.843750
3137,-11.21,2022-08-17 14:01:42.859375
3138,-13.3,2022-08-17 14:01:42.875000
3139,-15.52,2022-08-17 14:01:42.890625
3140,-17.86,2022-08-17 14:01:42.906250
3141,-20.25,2022-08-17 14:01:42.921875
3142,-22.52,2022-08-17 14:01:42.937500
3143,-24.56,2022-08-17 14:01:42.953125
3144,-26.31,2022-08-17 14:01:42.968750
3145,-27.95,2022-08-17 14:01:42.984375
3146,-29.73,2022-08-17 14:01:43.000000
3147,-31.94,2022-08-17 14:01:43.015625
3148,-34.69,2022-08-17 14:01:43.031250
3149,-37.84,2022-08-17 14:01:43.046875
3150,-40.91,2022-08-17 14:01:43.062500
3151,-43.21,2022-08-17 14:01:43.078125
3152,-43.95,2022-08-17 14:01:43.093750
3153,-42.56,2022-08-17 14:01:43.109375
3154,-38.81,2022-08-17 14:01:43.125000
3155,-32.91,2022-08-17 14:01:43.140625
3156,-25.41,2022-08-17 14:01:43.156250
3157,-17.03,2022-08-17 14:01:43.171875
3158,-8.54,2022-08-17 14:01:43.187500
3159,-0.53,2022-08-17 14:01:43.203125
3160,6.57,2022-08-17 14:01:43.218750
3161,12.56,2022-08-17 14:01:43.234375
3162,17.39,2022-08-17 14:01:43.250000
3163,21.14,2022-08-17 14:01:43.265625
3164,23.94,2022-08-17 14:01:43.281250
3165,25.93,2022-08-17 14:01:43.296875
3166,27.24,2022-08-17 14:01:43.312500
