,BVP,time
0,176.91,2022-10-26 10:14:11.140625
1,121.8,2022-10-26 10:14:11.156250
2,64.13,2022-10-26 10:14:11.171875
3,13.86,2022-10-26 10:14:11.187500
4,-22.69,2022-10-26 10:14:11.203125
5,-44.14,2022-10-26 10:14:11.218750
6,-54.21,2022-10-26 10:14:11.234375
7,-58.63,2022-10-26 10:14:11.250000
8,-62.38,2022-10-26 10:14:11.265625
9,-67.53,2022-10-26 10:14:11.281250
10,-72.89,2022-10-26 10:14:11.296875
11,-75.06,2022-10-26 10:14:11.312500
12,-70.53,2022-10-26 10:14:11.328125
13,-58.11,2022-10-26 10:14:11.343750
14,-38.99,2022-10-26 10:14:11.359375
15,-16.67,2022-10-26 10:14:11.375000
16,4.01,2022-10-26 10:14:11.390625
17,18.95,2022-10-26 10:14:11.406250
18,25.78,2022-10-26 10:14:11.421875
19,24.31,2022-10-26 10:14:11.437500
20,16.24,2022-10-26 10:14:11.453125
21,4.65,2022-10-26 10:14:11.468750
22,-7.38,2022-10-26 10:14:11.484375
23,-17.53,2022-10-26 10:14:11.500000
24,-25.07,2022-10-26 10:14:11.515625
25,-30.71,2022-10-26 10:14:11.531250
26,-35.04,2022-10-26 10:14:11.546875
27,-37.61,2022-10-26 10:14:11.562500
28,-35.9,2022-10-26 10:14:11.578125
29,-26.32,2022-10-26 10:14:11.593750
30,-6.58,2022-10-26 10:14:11.609375
31,22.61,2022-10-26 10:14:11.625000
32,56.6,2022-10-26 10:14:11.640625
33,88.01,2022-10-26 10:14:11.656250
34,110.6,2022-10-26 10:14:11.671875
35,122.13,2022-10-26 10:14:11.687500
36,125.02,2022-10-26 10:14:11.703125
37,124.86,2022-10-26 10:14:11.718750
38,127.22,2022-10-26 10:14:11.734375
39,135.19,2022-10-26 10:14:11.750000
40,148.91,2022-10-26 10:14:11.765625
41,166.56,2022-10-26 10:14:11.781250
42,186.09,2022-10-26 10:14:11.796875
43,206.67,2022-10-26 10:14:11.812500
44,228.18,2022-10-26 10:14:11.828125
45,249.6,2022-10-26 10:14:11.843750
46,268.73,2022-10-26 10:14:11.859375
47,282.73,2022-10-26 10:14:11.875000
48,289.93,2022-10-26 10:14:11.890625
49,291.68,2022-10-26 10:14:11.906250
50,292.32,2022-10-26 10:14:11.921875
51,296.91,2022-10-26 10:14:11.937500
52,308.42,2022-10-26 10:14:11.953125
53,325.28,2022-10-26 10:14:11.968750
54,341.95,2022-10-26 10:14:11.984375
55,351.23,2022-10-26 10:14:12.000000
56,347.33,2022-10-26 10:14:12.015625
57,327.81,2022-10-26 10:14:12.031250
58,294.31,2022-10-26 10:14:12.046875
59,250.63,2022-10-26 10:14:12.062500
60,200.9,2022-10-26 10:14:12.078125
61,148.1,2022-10-26 10:14:12.093750
62,93.68,2022-10-26 10:14:12.109375
63,38.7,2022-10-26 10:14:12.125000
64,-15.23,2022-10-26 10:14:12.140625
65,-65.61,2022-10-26 10:14:12.156250
66,-109.62,2022-10-26 10:14:12.171875
67,-145.32,2022-10-26 10:14:12.187500
68,-171.99,2022-10-26 10:14:12.203125
69,-190.62,2022-10-26 10:14:12.218750
70,-203.04,2022-10-26 10:14:12.234375
71,-211.64,2022-10-26 10:14:12.250000
72,-218.55,2022-10-26 10:14:12.265625
73,-225.69,2022-10-26 10:14:12.281250
74,-234.82,2022-10-26 10:14:12.296875
75,-247.06,2022-10-26 10:14:12.312500
76,-262.18,2022-10-26 10:14:12.328125
77,-278.53,2022-10-26 10:14:12.343750
78,-293.4,2022-10-26 10:14:12.359375
79,-304.58,2022-10-26 10:14:12.375000
80,-311.89,2022-10-26 10:14:12.390625
81,-317.74,2022-10-26 10:14:12.406250
82,-326.3,2022-10-26 10:14:12.421875
83,-341.89,2022-10-26 10:14:12.437500
84,-367.33,2022-10-26 10:14:12.453125
85,-403.32,2022-10-26 10:14:12.468750
86,-448.57,2022-10-26 10:14:12.484375
87,-500.09,2022-10-26 10:14:12.500000
88,-553.44,2022-10-26 10:14:12.515625
89,-602.98,2022-10-26 10:14:12.531250
90,-642.63,2022-10-26 10:14:12.546875
91,-667.32,2022-10-26 10:14:12.562500
92,-674.67,2022-10-26 10:14:12.578125
93,-666.39,2022-10-26 10:14:12.593750
94,-647.58,2022-10-26 10:14:12.609375
95,-624.35,2022-10-26 10:14:12.625000
96,-601.19,2022-10-26 10:14:12.640625
97,-579.06,2022-10-26 10:14:12.656250
98,-555.84,2022-10-26 10:14:12.671875
99,-528.54,2022-10-26 10:14:12.687500
100,-495.41,2022-10-26 10:14:12.703125
101,-456.96,2022-10-26 10:14:12.718750
102,-414.97,2022-10-26 10:14:12.734375
103,-370.92,2022-10-26 10:14:12.750000
104,-325.03,2022-10-26 10:14:12.765625
105,-276.31,2022-10-26 10:14:12.781250
106,-223.34,2022-10-26 10:14:12.796875
107,-165.45,2022-10-26 10:14:12.812500
108,-102.79,2022-10-26 10:14:12.828125
109,-36.09,2022-10-26 10:14:12.843750
110,33.69,2022-10-26 10:14:12.859375
111,104.44,2022-10-26 10:14:12.875000
112,171.87,2022-10-26 10:14:12.890625
113,228.93,2022-10-26 10:14:12.906250
114,267.63,2022-10-26 10:14:12.921875
115,282.72,2022-10-26 10:14:12.937500
116,274.86,2022-10-26 10:14:12.953125
117,251.75,2022-10-26 10:14:12.968750
118,225.57,2022-10-26 10:14:12.984375
119,208.18,2022-10-26 10:14:13.000000
120,205.68,2022-10-26 10:14:13.015625
121,217.18,2022-10-26 10:14:13.031250
122,236.67,2022-10-26 10:14:13.046875
123,257.06,2022-10-26 10:14:13.062500
124,273.79,2022-10-26 10:14:13.078125
125,285.37,2022-10-26 10:14:13.093750
126,291.15,2022-10-26 10:14:13.109375
127,289.34,2022-10-26 10:14:13.125000
128,276.54,2022-10-26 10:14:13.140625
129,249.51,2022-10-26 10:14:13.156250
130,208.09,2022-10-26 10:14:13.171875
131,156.88,2022-10-26 10:14:13.187500
132,104.25,2022-10-26 10:14:13.203125
133,59.37,2022-10-26 10:14:13.218750
134,29.1,2022-10-26 10:14:13.234375
135,16.54,2022-10-26 10:14:13.250000
136,20.7,2022-10-26 10:14:13.265625
137,37.49,2022-10-26 10:14:13.281250
138,61.67,2022-10-26 10:14:13.296875
139,87.78,2022-10-26 10:14:13.312500
140,110.91,2022-10-26 10:14:13.328125
141,126.33,2022-10-26 10:14:13.343750
142,129.86,2022-10-26 10:14:13.359375
143,118.73,2022-10-26 10:14:13.375000
144,92.91,2022-10-26 10:14:13.390625
145,56.08,2022-10-26 10:14:13.406250
146,15.34,2022-10-26 10:14:13.421875
147,-20.73,2022-10-26 10:14:13.437500
148,-44.49,2022-10-26 10:14:13.453125
149,-52.26,2022-10-26 10:14:13.468750
150,-44.96,2022-10-26 10:14:13.484375
151,-27.37,2022-10-26 10:14:13.500000
152,-5.95,2022-10-26 10:14:13.515625
153,13.19,2022-10-26 10:14:13.531250
154,25.44,2022-10-26 10:14:13.546875
155,27.81,2022-10-26 10:14:13.562500
156,18.89,2022-10-26 10:14:13.578125
157,-0.08,2022-10-26 10:14:13.593750
158,-25.06,2022-10-26 10:14:13.609375
159,-49.24,2022-10-26 10:14:13.625000
160,-64.92,2022-10-26 10:14:13.640625
161,-66.97,2022-10-26 10:14:13.656250
162,-55.34,2022-10-26 10:14:13.671875
163,-35.32,2022-10-26 10:14:13.687500
164,-14.8,2022-10-26 10:14:13.703125
165,-0.44,2022-10-26 10:14:13.718750
166,5.45,2022-10-26 10:14:13.734375
167,5.63,2022-10-26 10:14:13.750000
168,5.55,2022-10-26 10:14:13.765625
169,9.89,2022-10-26 10:14:13.781250
170,20.24,2022-10-26 10:14:13.796875
171,34.9,2022-10-26 10:14:13.812500
172,50.63,2022-10-26 10:14:13.828125
173,64.9,2022-10-26 10:14:13.843750
174,76.07,2022-10-26 10:14:13.859375
175,82.34,2022-10-26 10:14:13.875000
176,80.69,2022-10-26 10:14:13.890625
177,67.19,2022-10-26 10:14:13.906250
178,39.75,2022-10-26 10:14:13.921875
179,0.88,2022-10-26 10:14:13.937500
180,-41.02,2022-10-26 10:14:13.953125
181,-75.13,2022-10-26 10:14:13.968750
182,-92.51,2022-10-26 10:14:13.984375
183,-91.95,2022-10-26 10:14:14.000000
184,-80.23,2022-10-26 10:14:14.015625
185,-68.2,2022-10-26 10:14:14.031250
186,-64.0,2022-10-26 10:14:14.046875
187,-68.21,2022-10-26 10:14:14.062500
188,-74.51,2022-10-26 10:14:14.078125
189,-75.04,2022-10-26 10:14:14.093750
190,-66.78,2022-10-26 10:14:14.109375
191,-53.67,2022-10-26 10:14:14.125000
192,-44.38,2022-10-26 10:14:14.140625
193,-46.19,2022-10-26 10:14:14.156250
194,-60.39,2022-10-26 10:14:14.171875
195,-82.42,2022-10-26 10:14:14.187500
196,-104.91,2022-10-26 10:14:14.203125
197,-122.18,2022-10-26 10:14:14.218750
198,-132.54,2022-10-26 10:14:14.234375
199,-137.03,2022-10-26 10:14:14.250000
200,-136.82,2022-10-26 10:14:14.265625
201,-131.31,2022-10-26 10:14:14.281250
202,-118.8,2022-10-26 10:14:14.296875
203,-98.03,2022-10-26 10:14:14.312500
204,-70.89,2022-10-26 10:14:14.328125
205,-41.66,2022-10-26 10:14:14.343750
206,-15.34,2022-10-26 10:14:14.359375
207,4.82,2022-10-26 10:14:14.375000
208,19.27,2022-10-26 10:14:14.390625
209,31.31,2022-10-26 10:14:14.406250
210,44.82,2022-10-26 10:14:14.421875
211,62.3,2022-10-26 10:14:14.437500
212,83.41,2022-10-26 10:14:14.453125
213,105.43,2022-10-26 10:14:14.468750
214,125.35,2022-10-26 10:14:14.484375
215,140.69,2022-10-26 10:14:14.500000
216,150.35,2022-10-26 10:14:14.515625
217,154.6,2022-10-26 10:14:14.531250
218,154.47,2022-10-26 10:14:14.546875
219,150.86,2022-10-26 10:14:14.562500
220,144.72,2022-10-26 10:14:14.578125
221,137.55,2022-10-26 10:14:14.593750
222,131.28,2022-10-26 10:14:14.609375
223,128.12,2022-10-26 10:14:14.625000
224,128.17,2022-10-26 10:14:14.640625
225,128.69,2022-10-26 10:14:14.656250
226,124.5,2022-10-26 10:14:14.671875
227,110.75,2022-10-26 10:14:14.687500
228,87.16,2022-10-26 10:14:14.703125
229,59.78,2022-10-26 10:14:14.718750
230,38.23,2022-10-26 10:14:14.734375
231,30.32,2022-10-26 10:14:14.750000
232,36.8,2022-10-26 10:14:14.765625
233,50.13,2022-10-26 10:14:14.781250
234,58.55,2022-10-26 10:14:14.796875
235,53.6,2022-10-26 10:14:14.812500
236,35.05,2022-10-26 10:14:14.828125
237,11.16,2022-10-26 10:14:14.843750
238,-6.46,2022-10-26 10:14:14.859375
239,-9.78,2022-10-26 10:14:14.875000
240,1.51,2022-10-26 10:14:14.890625
241,20.56,2022-10-26 10:14:14.906250
242,37.6,2022-10-26 10:14:14.921875
243,45.36,2022-10-26 10:14:14.937500
244,40.47,2022-10-26 10:14:14.953125
245,22.92,2022-10-26 10:14:14.968750
246,-6.05,2022-10-26 10:14:14.984375
247,-45.13,2022-10-26 10:14:15.000000
248,-91.38,2022-10-26 10:14:15.015625
249,-139.33,2022-10-26 10:14:15.031250
250,-180.43,2022-10-26 10:14:15.046875
251,-205.31,2022-10-26 10:14:15.062500
252,-206.91,2022-10-26 10:14:15.078125
253,-183.02,2022-10-26 10:14:15.093750
254,-136.64,2022-10-26 10:14:15.109375
255,-74.32,2022-10-26 10:14:15.125000
256,-4.04,2022-10-26 10:14:15.140625
257,66.49,2022-10-26 10:14:15.156250
258,130.34,2022-10-26 10:14:15.171875
259,181.35,2022-10-26 10:14:15.187500
260,214.79,2022-10-26 10:14:15.203125
261,228.07,2022-10-26 10:14:15.218750
262,221.99,2022-10-26 10:14:15.234375
263,201.37,2022-10-26 10:14:15.250000
264,174.4,2022-10-26 10:14:15.265625
265,150.16,2022-10-26 10:14:15.281250
266,135.67,2022-10-26 10:14:15.296875
267,132.71,2022-10-26 10:14:15.312500
268,137.22,2022-10-26 10:14:15.328125
269,140.79,2022-10-26 10:14:15.343750
270,135.02,2022-10-26 10:14:15.359375
271,116.42,2022-10-26 10:14:15.375000
272,88.46,2022-10-26 10:14:15.390625
273,60.25,2022-10-26 10:14:15.406250
274,40.78,2022-10-26 10:14:15.421875
275,33.82,2022-10-26 10:14:15.437500
276,35.19,2022-10-26 10:14:15.453125
277,35.88,2022-10-26 10:14:15.468750
278,28.19,2022-10-26 10:14:15.484375
279,10.2,2022-10-26 10:14:15.500000
280,-12.24,2022-10-26 10:14:15.515625
281,-30.04,2022-10-26 10:14:15.531250
282,-36.74,2022-10-26 10:14:15.546875
283,-32.74,2022-10-26 10:14:15.562500
284,-24.75,2022-10-26 10:14:15.578125
285,-21.28,2022-10-26 10:14:15.593750
286,-26.74,2022-10-26 10:14:15.609375
287,-38.85,2022-10-26 10:14:15.625000
288,-49.76,2022-10-26 10:14:15.640625
289,-50.83,2022-10-26 10:14:15.656250
290,-37.86,2022-10-26 10:14:15.671875
291,-13.18,2022-10-26 10:14:15.687500
292,15.27,2022-10-26 10:14:15.703125
293,38.0,2022-10-26 10:14:15.718750
294,48.28,2022-10-26 10:14:15.734375
295,44.74,2022-10-26 10:14:15.750000
296,31.97,2022-10-26 10:14:15.765625
297,17.38,2022-10-26 10:14:15.781250
298,7.28,2022-10-26 10:14:15.796875
299,3.02,2022-10-26 10:14:15.812500
300,-0.06,2022-10-26 10:14:15.828125
301,-9.63,2022-10-26 10:14:15.843750
302,-31.72,2022-10-26 10:14:15.859375
303,-66.75,2022-10-26 10:14:15.875000
304,-109.02,2022-10-26 10:14:15.890625
305,-149.06,2022-10-26 10:14:15.906250
306,-178.87,2022-10-26 10:14:15.921875
307,-195.2,2022-10-26 10:14:15.937500
308,-199.63,2022-10-26 10:14:15.953125
309,-195.96,2022-10-26 10:14:15.968750
310,-186.87,2022-10-26 10:14:15.984375
311,-172.1,2022-10-26 10:14:16.000000
312,-149.37,2022-10-26 10:14:16.015625
313,-117.16,2022-10-26 10:14:16.031250
314,-76.93,2022-10-26 10:14:16.046875
315,-33.1,2022-10-26 10:14:16.062500
316,7.8,2022-10-26 10:14:16.078125
317,40.48,2022-10-26 10:14:16.093750
318,62.46,2022-10-26 10:14:16.109375
319,73.76,2022-10-26 10:14:16.125000
320,75.85,2022-10-26 10:14:16.140625
321,70.88,2022-10-26 10:14:16.156250
322,60.68,2022-10-26 10:14:16.171875
323,47.73,2022-10-26 10:14:16.187500
324,35.26,2022-10-26 10:14:16.203125
325,26.47,2022-10-26 10:14:16.218750
326,23.67,2022-10-26 10:14:16.234375
327,26.17,2022-10-26 10:14:16.250000
328,31.12,2022-10-26 10:14:16.265625
329,34.13,2022-10-26 10:14:16.281250
330,31.46,2022-10-26 10:14:16.296875
331,21.94,2022-10-26 10:14:16.312500
332,6.22,2022-10-26 10:14:16.328125
333,-13.61,2022-10-26 10:14:16.343750
334,-35.22,2022-10-26 10:14:16.359375
335,-57.23,2022-10-26 10:14:16.375000
336,-78.76,2022-10-26 10:14:16.390625
337,-98.36,2022-10-26 10:14:16.406250
338,-113.5,2022-10-26 10:14:16.421875
339,-121.16,2022-10-26 10:14:16.437500
340,-118.78,2022-10-26 10:14:16.453125
341,-105.65,2022-10-26 10:14:16.468750
342,-83.96,2022-10-26 10:14:16.484375
343,-58.04,2022-10-26 10:14:16.500000
344,-33.0,2022-10-26 10:14:16.515625
345,-12.24,2022-10-26 10:14:16.531250
346,3.66,2022-10-26 10:14:16.546875
347,17.3,2022-10-26 10:14:16.562500
348,32.34,2022-10-26 10:14:16.578125
349,51.47,2022-10-26 10:14:16.593750
350,74.42,2022-10-26 10:14:16.609375
351,96.8,2022-10-26 10:14:16.625000
352,112.05,2022-10-26 10:14:16.640625
353,114.23,2022-10-26 10:14:16.656250
354,100.39,2022-10-26 10:14:16.671875
355,71.82,2022-10-26 10:14:16.687500
356,33.88,2022-10-26 10:14:16.703125
357,-5.7,2022-10-26 10:14:16.718750
358,-38.44,2022-10-26 10:14:16.734375
359,-57.21,2022-10-26 10:14:16.750000
360,-57.65,2022-10-26 10:14:16.765625
361,-39.69,2022-10-26 10:14:16.781250
362,-7.87,2022-10-26 10:14:16.796875
363,30.2,2022-10-26 10:14:16.812500
364,65.97,2022-10-26 10:14:16.828125
365,93.55,2022-10-26 10:14:16.843750
366,111.67,2022-10-26 10:14:16.859375
367,123.35,2022-10-26 10:14:16.875000
368,134.28,2022-10-26 10:14:16.890625
369,150.03,2022-10-26 10:14:16.906250
370,174.05,2022-10-26 10:14:16.921875
371,206.59,2022-10-26 10:14:16.937500
372,244.18,2022-10-26 10:14:16.953125
373,280.68,2022-10-26 10:14:16.968750
374,309.11,2022-10-26 10:14:16.984375
375,323.13,2022-10-26 10:14:17.000000
376,319.38,2022-10-26 10:14:17.015625
377,299.16,2022-10-26 10:14:17.031250
378,267.32,2022-10-26 10:14:17.046875
379,230.04,2022-10-26 10:14:17.062500
380,191.39,2022-10-26 10:14:17.078125
381,151.35,2022-10-26 10:14:17.093750
382,106.79,2022-10-26 10:14:17.109375
383,54.55,2022-10-26 10:14:17.125000
384,-4.88,2022-10-26 10:14:17.140625
385,-65.28,2022-10-26 10:14:17.156250
386,-116.74,2022-10-26 10:14:17.171875
387,-150.38,2022-10-26 10:14:17.187500
388,-163.05,2022-10-26 10:14:17.203125
389,-159.17,2022-10-26 10:14:17.218750
390,-149.29,2022-10-26 10:14:17.234375
391,-143.97,2022-10-26 10:14:17.250000
392,-148.45,2022-10-26 10:14:17.265625
393,-160.0,2022-10-26 10:14:17.281250
394,-170.21,2022-10-26 10:14:17.296875
395,-170.48,2022-10-26 10:14:17.312500
396,-158.22,2022-10-26 10:14:17.328125
397,-138.66,2022-10-26 10:14:17.343750
398,-122.31,2022-10-26 10:14:17.359375
399,-118.96,2022-10-26 10:14:17.375000
400,-131.94,2022-10-26 10:14:17.390625
401,-156.5,2022-10-26 10:14:17.406250
402,-182.67,2022-10-26 10:14:17.421875
403,-199.85,2022-10-26 10:14:17.437500
404,-201.58,2022-10-26 10:14:17.453125
405,-187.25,2022-10-26 10:14:17.468750
406,-160.86,2022-10-26 10:14:17.484375
407,-129.32,2022-10-26 10:14:17.500000
408,-100.62,2022-10-26 10:14:17.515625
409,-81.21,2022-10-26 10:14:17.531250
410,-74.51,2022-10-26 10:14:17.546875
411,-79.21,2022-10-26 10:14:17.562500
412,-89.62,2022-10-26 10:14:17.578125
413,-97.07,2022-10-26 10:14:17.593750
414,-93.64,2022-10-26 10:14:17.609375
415,-75.0,2022-10-26 10:14:17.625000
416,-42.03,2022-10-26 10:14:17.640625
417,0.26,2022-10-26 10:14:17.656250
418,45.22,2022-10-26 10:14:17.671875
419,86.96,2022-10-26 10:14:17.687500
420,120.76,2022-10-26 10:14:17.703125
421,143.42,2022-10-26 10:14:17.718750
422,152.44,2022-10-26 10:14:17.734375
423,147.08,2022-10-26 10:14:17.750000
424,129.6,2022-10-26 10:14:17.765625
425,105.61,2022-10-26 10:14:17.781250
426,81.84,2022-10-26 10:14:17.796875
427,63.61,2022-10-26 10:14:17.812500
428,52.63,2022-10-26 10:14:17.828125
429,47.88,2022-10-26 10:14:17.843750
430,47.22,2022-10-26 10:14:17.859375
431,49.35,2022-10-26 10:14:17.875000
432,53.98,2022-10-26 10:14:17.890625
433,60.49,2022-10-26 10:14:17.906250
434,66.66,2022-10-26 10:14:17.921875
435,68.74,2022-10-26 10:14:17.937500
436,62.97,2022-10-26 10:14:17.953125
437,48.27,2022-10-26 10:14:17.968750
438,27.93,2022-10-26 10:14:17.984375
439,9.93,2022-10-26 10:14:18.000000
440,3.62,2022-10-26 10:14:18.015625
441,15.64,2022-10-26 10:14:18.031250
442,46.48,2022-10-26 10:14:18.046875
443,89.3,2022-10-26 10:14:18.062500
444,132.05,2022-10-26 10:14:18.078125
445,162.08,2022-10-26 10:14:18.093750
446,170.9,2022-10-26 10:14:18.109375
447,157.09,2022-10-26 10:14:18.125000
448,125.91,2022-10-26 10:14:18.140625
449,86.34,2022-10-26 10:14:18.156250
450,47.39,2022-10-26 10:14:18.171875
451,16.07,2022-10-26 10:14:18.187500
452,-3.45,2022-10-26 10:14:18.203125
453,-8.87,2022-10-26 10:14:18.218750
454,0.08,2022-10-26 10:14:18.234375
455,20.39,2022-10-26 10:14:18.250000
456,44.93,2022-10-26 10:14:18.265625
457,63.66,2022-10-26 10:14:18.281250
458,67.01,2022-10-26 10:14:18.296875
459,49.69,2022-10-26 10:14:18.312500
460,12.35,2022-10-26 10:14:18.328125
461,-39.34,2022-10-26 10:14:18.343750
462,-98.63,2022-10-26 10:14:18.359375
463,-160.13,2022-10-26 10:14:18.375000
464,-220.22,2022-10-26 10:14:18.390625
465,-275.45,2022-10-26 10:14:18.406250
466,-320.9,2022-10-26 10:14:18.421875
467,-350.44,2022-10-26 10:14:18.437500
468,-359.24,2022-10-26 10:14:18.453125
469,-346.32,2022-10-26 10:14:18.468750
470,-315.55,2022-10-26 10:14:18.484375
471,-273.34,2022-10-26 10:14:18.500000
472,-226.36,2022-10-26 10:14:18.515625
473,-179.43,2022-10-26 10:14:18.531250
474,-135.54,2022-10-26 10:14:18.546875
475,-96.99,2022-10-26 10:14:18.562500
476,-66.37,2022-10-26 10:14:18.578125
477,-45.98,2022-10-26 10:14:18.593750
478,-36.6,2022-10-26 10:14:18.609375
479,-36.51,2022-10-26 10:14:18.625000
480,-41.65,2022-10-26 10:14:18.640625
481,-47.06,2022-10-26 10:14:18.656250
482,-47.71,2022-10-26 10:14:18.671875
483,-39.78,2022-10-26 10:14:18.687500
484,-21.34,2022-10-26 10:14:18.703125
485,7.47,2022-10-26 10:14:18.718750
486,43.29,2022-10-26 10:14:18.734375
487,79.96,2022-10-26 10:14:18.750000
488,109.67,2022-10-26 10:14:18.765625
489,125.84,2022-10-26 10:14:18.781250
490,125.56,2022-10-26 10:14:18.796875
491,111.27,2022-10-26 10:14:18.812500
492,90.02,2022-10-26 10:14:18.828125
493,70.57,2022-10-26 10:14:18.843750
494,59.28,2022-10-26 10:14:18.859375
495,57.09,2022-10-26 10:14:18.875000
496,59.29,2022-10-26 10:14:18.890625
497,57.7,2022-10-26 10:14:18.906250
498,44.46,2022-10-26 10:14:18.921875
499,16.83,2022-10-26 10:14:18.937500
500,-20.99,2022-10-26 10:14:18.953125
501,-58.65,2022-10-26 10:14:18.968750
502,-83.06,2022-10-26 10:14:18.984375
503,-83.76,2022-10-26 10:14:19.000000
504,-58.23,2022-10-26 10:14:19.015625
505,-13.91,2022-10-26 10:14:19.031250
506,33.92,2022-10-26 10:14:19.046875
507,68.79,2022-10-26 10:14:19.062500
508,79.79,2022-10-26 10:14:19.078125
509,67.77,2022-10-26 10:14:19.093750
510,44.88,2022-10-26 10:14:19.109375
511,28.85,2022-10-26 10:14:19.125000
512,34.12,2022-10-26 10:14:19.140625
513,63.71,2022-10-26 10:14:19.156250
514,107.81,2022-10-26 10:14:19.171875
515,148.64,2022-10-26 10:14:19.187500
516,169.57,2022-10-26 10:14:19.203125
517,163.75,2022-10-26 10:14:19.218750
518,136.83,2022-10-26 10:14:19.234375
519,103.14,2022-10-26 10:14:19.250000
520,77.89,2022-10-26 10:14:19.265625
521,70.49,2022-10-26 10:14:19.281250
522,81.97,2022-10-26 10:14:19.296875
523,107.28,2022-10-26 10:14:19.312500
524,139.62,2022-10-26 10:14:19.328125
525,173.13,2022-10-26 10:14:19.343750
526,203.19,2022-10-26 10:14:19.359375
527,224.9,2022-10-26 10:14:19.375000
528,232.55,2022-10-26 10:14:19.390625
529,221.95,2022-10-26 10:14:19.406250
530,193.51,2022-10-26 10:14:19.421875
531,155.09,2022-10-26 10:14:19.437500
532,119.55,2022-10-26 10:14:19.453125
533,99.55,2022-10-26 10:14:19.468750
534,100.72,2022-10-26 10:14:19.484375
535,118.02,2022-10-26 10:14:19.500000
536,137.74,2022-10-26 10:14:19.515625
537,144.69,2022-10-26 10:14:19.531250
538,129.62,2022-10-26 10:14:19.546875
539,94.8,2022-10-26 10:14:19.562500
540,52.11,2022-10-26 10:14:19.578125
541,17.05,2022-10-26 10:14:19.593750
542,0.2,2022-10-26 10:14:19.609375
543,1.96,2022-10-26 10:14:19.625000
544,12.96,2022-10-26 10:14:19.640625
545,19.05,2022-10-26 10:14:19.656250
546,8.87,2022-10-26 10:14:19.671875
547,-20.32,2022-10-26 10:14:19.687500
548,-61.86,2022-10-26 10:14:19.703125
549,-103.7,2022-10-26 10:14:19.718750
550,-134.36,2022-10-26 10:14:19.734375
551,-148.95,2022-10-26 10:14:19.750000
552,-150.03,2022-10-26 10:14:19.765625
553,-145.3,2022-10-26 10:14:19.781250
554,-143.34,2022-10-26 10:14:19.796875
555,-149.53,2022-10-26 10:14:19.812500
556,-164.94,2022-10-26 10:14:19.828125
557,-187.1,2022-10-26 10:14:19.843750
558,-211.9,2022-10-26 10:14:19.859375
559,-235.12,2022-10-26 10:14:19.875000
560,-253.6,2022-10-26 10:14:19.890625
561,-265.38,2022-10-26 10:14:19.906250
562,-270.24,2022-10-26 10:14:19.921875
563,-268.98,2022-10-26 10:14:19.937500
564,-262.69,2022-10-26 10:14:19.953125
565,-250.81,2022-10-26 10:14:19.968750
566,-230.09,2022-10-26 10:14:19.984375
567,-195.89,2022-10-26 10:14:20.000000
568,-144.81,2022-10-26 10:14:20.015625
569,-77.17,2022-10-26 10:14:20.031250
570,0.85,2022-10-26 10:14:20.046875
571,78.84,2022-10-26 10:14:20.062500
572,145.27,2022-10-26 10:14:20.078125
573,192.05,2022-10-26 10:14:20.093750
574,216.56,2022-10-26 10:14:20.109375
575,221.44,2022-10-26 10:14:20.125000
576,212.84,2022-10-26 10:14:20.140625
577,197.4,2022-10-26 10:14:20.156250
578,180.95,2022-10-26 10:14:20.171875
579,168.25,2022-10-26 10:14:20.187500
580,163.24,2022-10-26 10:14:20.203125
581,168.3,2022-10-26 10:14:20.218750
582,183.36,2022-10-26 10:14:20.234375
583,204.05,2022-10-26 10:14:20.250000
584,221.89,2022-10-26 10:14:20.265625
585,225.95,2022-10-26 10:14:20.281250
586,206.92,2022-10-26 10:14:20.296875
587,161.8,2022-10-26 10:14:20.312500
588,96.28,2022-10-26 10:14:20.328125
589,23.4,2022-10-26 10:14:20.343750
590,-41.46,2022-10-26 10:14:20.359375
591,-88.14,2022-10-26 10:14:20.375000
592,-117.01,2022-10-26 10:14:20.390625
593,-138.24,2022-10-26 10:14:20.406250
594,-165.44,2022-10-26 10:14:20.421875
595,-207.07,2022-10-26 10:14:20.437500
596,-259.87,2022-10-26 10:14:20.453125
597,-310.2,2022-10-26 10:14:20.468750
598,-340.25,2022-10-26 10:14:20.484375
599,-338.33,2022-10-26 10:14:20.500000
600,-304.74,2022-10-26 10:14:20.515625
601,-251.4,2022-10-26 10:14:20.531250
602,-196.08,2022-10-26 10:14:20.546875
603,-153.18,2022-10-26 10:14:20.562500
604,-128.22,2022-10-26 10:14:20.578125
605,-116.21,2022-10-26 10:14:20.593750
606,-106.27,2022-10-26 10:14:20.609375
607,-87.49,2022-10-26 10:14:20.625000
608,-53.27,2022-10-26 10:14:20.640625
609,-3.54,2022-10-26 10:14:20.656250
610,57.4,2022-10-26 10:14:20.671875
611,123.73,2022-10-26 10:14:20.687500
612,190.43,2022-10-26 10:14:20.703125
613,253.35,2022-10-26 10:14:20.718750
614,308.6,2022-10-26 10:14:20.734375
615,351.37,2022-10-26 10:14:20.750000
616,376.19,2022-10-26 10:14:20.765625
617,377.93,2022-10-26 10:14:20.781250
618,355.04,2022-10-26 10:14:20.796875
619,311.35,2022-10-26 10:14:20.812500
620,256.25,2022-10-26 10:14:20.828125
621,202.23,2022-10-26 10:14:20.843750
622,160.33,2022-10-26 10:14:20.859375
623,135.45,2022-10-26 10:14:20.875000
624,124.48,2022-10-26 10:14:20.890625
625,118.55,2022-10-26 10:14:20.906250
626,107.51,2022-10-26 10:14:20.921875
627,85.74,2022-10-26 10:14:20.937500
628,55.13,2022-10-26 10:14:20.953125
629,23.38,2022-10-26 10:14:20.968750
630,0.35,2022-10-26 10:14:20.984375
631,-8.38,2022-10-26 10:14:21.000000
632,-3.35,2022-10-26 10:14:21.015625
633,10.18,2022-10-26 10:14:21.031250
634,25.69,2022-10-26 10:14:21.046875
635,39.39,2022-10-26 10:14:21.062500
636,50.57,2022-10-26 10:14:21.078125
637,60.39,2022-10-26 10:14:21.093750
638,68.51,2022-10-26 10:14:21.109375
639,72.76,2022-10-26 10:14:21.125000
640,70.52,2022-10-26 10:14:21.140625
641,60.92,2022-10-26 10:14:21.156250
642,45.64,2022-10-26 10:14:21.171875
643,27.69,2022-10-26 10:14:21.187500
644,9.5,2022-10-26 10:14:21.203125
645,-8.59,2022-10-26 10:14:21.218750
646,-28.38,2022-10-26 10:14:21.234375
647,-51.69,2022-10-26 10:14:21.250000
648,-78.45,2022-10-26 10:14:21.265625
649,-106.97,2022-10-26 10:14:21.281250
650,-134.24,2022-10-26 10:14:21.296875
651,-157.33,2022-10-26 10:14:21.312500
652,-174.55,2022-10-26 10:14:21.328125
653,-185.09,2022-10-26 10:14:21.343750
654,-188.59,2022-10-26 10:14:21.359375
655,-185.41,2022-10-26 10:14:21.375000
656,-176.88,2022-10-26 10:14:21.390625
657,-165.15,2022-10-26 10:14:21.406250
658,-153.13,2022-10-26 10:14:21.421875
659,-142.7,2022-10-26 10:14:21.437500
660,-134.45,2022-10-26 10:14:21.453125
661,-127.64,2022-10-26 10:14:21.468750
662,-120.98,2022-10-26 10:14:21.484375
663,-114.24,2022-10-26 10:14:21.500000
664,-107.53,2022-10-26 10:14:21.515625
665,-100.7,2022-10-26 10:14:21.531250
666,-92.33,2022-10-26 10:14:21.546875
667,-79.83,2022-10-26 10:14:21.562500
668,-60.98,2022-10-26 10:14:21.578125
669,-35.79,2022-10-26 10:14:21.593750
670,-7.57,2022-10-26 10:14:21.609375
671,18.03,2022-10-26 10:14:21.625000
672,34.41,2022-10-26 10:14:21.640625
673,37.26,2022-10-26 10:14:21.656250
674,25.77,2022-10-26 10:14:21.671875
675,3.0,2022-10-26 10:14:21.687500
676,-25.34,2022-10-26 10:14:21.703125
677,-52.69,2022-10-26 10:14:21.718750
678,-74.47,2022-10-26 10:14:21.734375
679,-88.93,2022-10-26 10:14:21.750000
680,-97.64,2022-10-26 10:14:21.765625
681,-104.95,2022-10-26 10:14:21.781250
682,-115.43,2022-10-26 10:14:21.796875
683,-131.86,2022-10-26 10:14:21.812500
684,-153.23,2022-10-26 10:14:21.828125
685,-175.19,2022-10-26 10:14:21.843750
686,-191.9,2022-10-26 10:14:21.859375
687,-198.93,2022-10-26 10:14:21.875000
688,-194.76,2022-10-26 10:14:21.890625
689,-181.16,2022-10-26 10:14:21.906250
690,-161.27,2022-10-26 10:14:21.921875
691,-137.5,2022-10-26 10:14:21.937500
692,-111.77,2022-10-26 10:14:21.953125
693,-86.09,2022-10-26 10:14:21.968750
694,-64.0,2022-10-26 10:14:21.984375
695,-50.46,2022-10-26 10:14:22.000000
696,-49.26,2022-10-26 10:14:22.015625
697,-59.92,2022-10-26 10:14:22.031250
698,-76.02,2022-10-26 10:14:22.046875
699,-86.61,2022-10-26 10:14:22.062500
700,-81.46,2022-10-26 10:14:22.078125
701,-56.82,2022-10-26 10:14:22.093750
702,-18.23,2022-10-26 10:14:22.109375
703,22.34,2022-10-26 10:14:22.125000
704,52.23,2022-10-26 10:14:22.140625
705,64.91,2022-10-26 10:14:22.156250
706,62.59,2022-10-26 10:14:22.171875
707,53.83,2022-10-26 10:14:22.187500
708,48.4,2022-10-26 10:14:22.203125
709,51.57,2022-10-26 10:14:22.218750
710,62.11,2022-10-26 10:14:22.234375
711,74.31,2022-10-26 10:14:22.250000
712,81.27,2022-10-26 10:14:22.265625
713,78.14,2022-10-26 10:14:22.281250
714,64.1,2022-10-26 10:14:22.296875
715,42.28,2022-10-26 10:14:22.312500
716,18.33,2022-10-26 10:14:22.328125
717,-0.47,2022-10-26 10:14:22.343750
718,-7.25,2022-10-26 10:14:22.359375
719,3.01,2022-10-26 10:14:22.375000
720,31.14,2022-10-26 10:14:22.390625
721,72.07,2022-10-26 10:14:22.406250
722,115.14,2022-10-26 10:14:22.421875
723,147.11,2022-10-26 10:14:22.437500
724,157.12,2022-10-26 10:14:22.453125
725,141.22,2022-10-26 10:14:22.468750
726,104.54,2022-10-26 10:14:22.484375
727,58.99,2022-10-26 10:14:22.500000
728,18.22,2022-10-26 10:14:22.515625
729,-7.9,2022-10-26 10:14:22.531250
730,-16.67,2022-10-26 10:14:22.546875
731,-11.5,2022-10-26 10:14:22.562500
732,0.85,2022-10-26 10:14:22.578125
733,13.96,2022-10-26 10:14:22.593750
734,22.53,2022-10-26 10:14:22.609375
735,22.63,2022-10-26 10:14:22.625000
736,10.66,2022-10-26 10:14:22.640625
737,-15.93,2022-10-26 10:14:22.656250
738,-56.53,2022-10-26 10:14:22.671875
739,-105.27,2022-10-26 10:14:22.687500
740,-151.62,2022-10-26 10:14:22.703125
741,-184.5,2022-10-26 10:14:22.718750
742,-197.24,2022-10-26 10:14:22.734375
743,-190.31,2022-10-26 10:14:22.750000
744,-170.51,2022-10-26 10:14:22.765625
745,-146.01,2022-10-26 10:14:22.781250
746,-121.97,2022-10-26 10:14:22.796875
747,-98.2,2022-10-26 10:14:22.812500
748,-72.48,2022-10-26 10:14:22.828125
749,-44.21,2022-10-26 10:14:22.843750
750,-18.04,2022-10-26 10:14:22.859375
751,-2.04,2022-10-26 10:14:22.875000
752,-3.19,2022-10-26 10:14:22.890625
753,-21.95,2022-10-26 10:14:22.906250
754,-50.32,2022-10-26 10:14:22.921875
755,-75.18,2022-10-26 10:14:22.937500
756,-84.19,2022-10-26 10:14:22.953125
757,-72.26,2022-10-26 10:14:22.968750
758,-43.97,2022-10-26 10:14:22.984375
759,-11.53,2022-10-26 10:14:23.000000
760,10.84,2022-10-26 10:14:23.015625
761,12.85,2022-10-26 10:14:23.031250
762,-7.82,2022-10-26 10:14:23.046875
763,-45.02,2022-10-26 10:14:23.062500
764,-86.98,2022-10-26 10:14:23.078125
765,-120.7,2022-10-26 10:14:23.093750
766,-136.81,2022-10-26 10:14:23.109375
767,-132.47,2022-10-26 10:14:23.125000
768,-112.16,2022-10-26 10:14:23.140625
769,-84.76,2022-10-26 10:14:23.156250
770,-59.54,2022-10-26 10:14:23.171875
771,-41.31,2022-10-26 10:14:23.187500
772,-28.28,2022-10-26 10:14:23.203125
773,-12.93,2022-10-26 10:14:23.218750
774,13.7,2022-10-26 10:14:23.234375
775,57.9,2022-10-26 10:14:23.250000
776,120.08,2022-10-26 10:14:23.265625
777,195.15,2022-10-26 10:14:23.281250
778,275.1,2022-10-26 10:14:23.296875
779,351.96,2022-10-26 10:14:23.312500
780,418.75,2022-10-26 10:14:23.328125
781,470.77,2022-10-26 10:14:23.343750
782,504.94,2022-10-26 10:14:23.359375
783,519.83,2022-10-26 10:14:23.375000
784,515.53,2022-10-26 10:14:23.390625
785,493.07,2022-10-26 10:14:23.406250
786,454.57,2022-10-26 10:14:23.421875
787,402.68,2022-10-26 10:14:23.437500
788,341.63,2022-10-26 10:14:23.453125
789,276.83,2022-10-26 10:14:23.468750
790,214.34,2022-10-26 10:14:23.484375
791,158.86,2022-10-26 10:14:23.500000
792,111.99,2022-10-26 10:14:23.515625
793,71.8,2022-10-26 10:14:23.531250
794,34.46,2022-10-26 10:14:23.546875
795,-3.0,2022-10-26 10:14:23.562500
796,-40.58,2022-10-26 10:14:23.578125
797,-75.35,2022-10-26 10:14:23.593750
798,-103.56,2022-10-26 10:14:23.609375
799,-123.8,2022-10-26 10:14:23.625000
800,-138.94,2022-10-26 10:14:23.640625
801,-155.44,2022-10-26 10:14:23.656250
802,-179.57,2022-10-26 10:14:23.671875
803,-213.89,2022-10-26 10:14:23.687500
804,-255.5,2022-10-26 10:14:23.703125
805,-296.57,2022-10-26 10:14:23.718750
806,-327.11,2022-10-26 10:14:23.734375
807,-337.92,2022-10-26 10:14:23.750000
808,-323.46,2022-10-26 10:14:23.765625
809,-283.11,2022-10-26 10:14:23.781250
810,-221.99,2022-10-26 10:14:23.796875
811,-149.51,2022-10-26 10:14:23.812500
812,-77.48,2022-10-26 10:14:23.828125
813,-16.77,2022-10-26 10:14:23.843750
814,24.61,2022-10-26 10:14:23.859375
815,42.91,2022-10-26 10:14:23.875000
816,39.41,2022-10-26 10:14:23.890625
817,19.02,2022-10-26 10:14:23.906250
818,-10.53,2022-10-26 10:14:23.921875
819,-40.6,2022-10-26 10:14:23.937500
820,-63.48,2022-10-26 10:14:23.953125
821,-74.26,2022-10-26 10:14:23.968750
822,-71.32,2022-10-26 10:14:23.984375
823,-56.63,2022-10-26 10:14:24.000000
824,-34.86,2022-10-26 10:14:24.015625
825,-11.93,2022-10-26 10:14:24.031250
826,6.69,2022-10-26 10:14:24.046875
827,17.68,2022-10-26 10:14:24.062500
828,21.12,2022-10-26 10:14:24.078125
829,21.04,2022-10-26 10:14:24.093750
830,23.52,2022-10-26 10:14:24.109375
831,33.58,2022-10-26 10:14:24.125000
832,52.96,2022-10-26 10:14:24.140625
833,77.91,2022-10-26 10:14:24.156250
834,101.77,2022-10-26 10:14:24.171875
835,117.4,2022-10-26 10:14:24.187500
836,121.29,2022-10-26 10:14:24.203125
837,114.54,2022-10-26 10:14:24.218750
838,101.45,2022-10-26 10:14:24.234375
839,86.51,2022-10-26 10:14:24.250000
840,71.45,2022-10-26 10:14:24.265625
841,55.26,2022-10-26 10:14:24.281250
842,35.45,2022-10-26 10:14:24.296875
843,10.88,2022-10-26 10:14:24.312500
844,-17.67,2022-10-26 10:14:24.328125
845,-46.86,2022-10-26 10:14:24.343750
846,-72.33,2022-10-26 10:14:24.359375
847,-90.4,2022-10-26 10:14:24.375000
848,-98.65,2022-10-26 10:14:24.390625
849,-96.92,2022-10-26 10:14:24.406250
850,-87.03,2022-10-26 10:14:24.421875
851,-72.63,2022-10-26 10:14:24.437500
852,-57.6,2022-10-26 10:14:24.453125
853,-44.22,2022-10-26 10:14:24.468750
854,-32.1,2022-10-26 10:14:24.484375
855,-18.61,2022-10-26 10:14:24.500000
856,-0.9,2022-10-26 10:14:24.515625
857,21.95,2022-10-26 10:14:24.531250
858,48.34,2022-10-26 10:14:24.546875
859,75.42,2022-10-26 10:14:24.562500
860,101.27,2022-10-26 10:14:24.578125
861,127.5,2022-10-26 10:14:24.593750
862,157.69,2022-10-26 10:14:24.609375
863,194.04,2022-10-26 10:14:24.625000
864,234.08,2022-10-26 10:14:24.640625
865,269.26,2022-10-26 10:14:24.656250
866,289.0,2022-10-26 10:14:24.671875
867,285.06,2022-10-26 10:14:24.687500
868,256.13,2022-10-26 10:14:24.703125
869,207.92,2022-10-26 10:14:24.718750
870,149.78,2022-10-26 10:14:24.734375
871,91.02,2022-10-26 10:14:24.750000
872,38.24,2022-10-26 10:14:24.765625
873,-5.47,2022-10-26 10:14:24.781250
874,-39.45,2022-10-26 10:14:24.796875
875,-64.51,2022-10-26 10:14:24.812500
876,-82.72,2022-10-26 10:14:24.828125
877,-96.94,2022-10-26 10:14:24.843750
878,-110.3,2022-10-26 10:14:24.859375
879,-125.03,2022-10-26 10:14:24.875000
880,-141.03,2022-10-26 10:14:24.890625
881,-156.09,2022-10-26 10:14:24.906250
882,-166.83,2022-10-26 10:14:24.921875
883,-170.67,2022-10-26 10:14:24.937500
884,-166.24,2022-10-26 10:14:24.953125
885,-153.34,2022-10-26 10:14:24.968750
886,-132.02,2022-10-26 10:14:24.984375
887,-102.31,2022-10-26 10:14:25.000000
888,-64.93,2022-10-26 10:14:25.015625
889,-22.78,2022-10-26 10:14:25.031250
890,18.34,2022-10-26 10:14:25.046875
891,50.9,2022-10-26 10:14:25.062500
892,67.51,2022-10-26 10:14:25.078125
893,64.12,2022-10-26 10:14:25.093750
894,41.59,2022-10-26 10:14:25.109375
895,6.13,2022-10-26 10:14:25.125000
896,-31.74,2022-10-26 10:14:25.140625
897,-61.01,2022-10-26 10:14:25.156250
898,-73.99,2022-10-26 10:14:25.171875
899,-70.45,2022-10-26 10:14:25.187500
900,-58.21,2022-10-26 10:14:25.203125
901,-49.48,2022-10-26 10:14:25.218750
902,-55.61,2022-10-26 10:14:25.234375
903,-80.86,2022-10-26 10:14:25.250000
904,-119.89,2022-10-26 10:14:25.265625
905,-161.0,2022-10-26 10:14:25.281250
906,-191.78,2022-10-26 10:14:25.296875
907,-205.33,2022-10-26 10:14:25.312500
908,-202.21,2022-10-26 10:14:25.328125
909,-188.12,2022-10-26 10:14:25.343750
910,-169.0,2022-10-26 10:14:25.359375
911,-148.07,2022-10-26 10:14:25.375000
912,-124.67,2022-10-26 10:14:25.390625
913,-96.6,2022-10-26 10:14:25.406250
914,-62.97,2022-10-26 10:14:25.421875
915,-25.19,2022-10-26 10:14:25.437500
916,14.14,2022-10-26 10:14:25.453125
917,53.29,2022-10-26 10:14:25.468750
918,91.73,2022-10-26 10:14:25.484375
919,129.62,2022-10-26 10:14:25.500000
920,165.5,2022-10-26 10:14:25.515625
921,196.25,2022-10-26 10:14:25.531250
922,217.64,2022-10-26 10:14:25.546875
923,226.62,2022-10-26 10:14:25.562500
924,223.04,2022-10-26 10:14:25.578125
925,209.42,2022-10-26 10:14:25.593750
926,190.01,2022-10-26 10:14:25.609375
927,168.98,2022-10-26 10:14:25.625000
928,150.82,2022-10-26 10:14:25.640625
929,139.71,2022-10-26 10:14:25.656250
930,139.69,2022-10-26 10:14:25.671875
931,153.24,2022-10-26 10:14:25.687500
932,179.39,2022-10-26 10:14:25.703125
933,214.06,2022-10-26 10:14:25.718750
934,251.03,2022-10-26 10:14:25.734375
935,284.24,2022-10-26 10:14:25.750000
936,310.44,2022-10-26 10:14:25.765625
937,329.38,2022-10-26 10:14:25.781250
938,341.73,2022-10-26 10:14:25.796875
939,347.31,2022-10-26 10:14:25.812500
940,344.39,2022-10-26 10:14:25.828125
941,331.03,2022-10-26 10:14:25.843750
942,308.64,2022-10-26 10:14:25.859375
943,282.8,2022-10-26 10:14:25.875000
944,260.63,2022-10-26 10:14:25.890625
945,246.9,2022-10-26 10:14:25.906250
946,240.19,2022-10-26 10:14:25.921875
947,232.82,2022-10-26 10:14:25.937500
948,215.07,2022-10-26 10:14:25.953125
949,180.96,2022-10-26 10:14:25.968750
950,130.78,2022-10-26 10:14:25.984375
951,71.12,2022-10-26 10:14:26.000000
952,10.38,2022-10-26 10:14:26.015625
953,-44.79,2022-10-26 10:14:26.031250
954,-91.81,2022-10-26 10:14:26.046875
955,-131.6,2022-10-26 10:14:26.062500
956,-166.21,2022-10-26 10:14:26.078125
957,-196.57,2022-10-26 10:14:26.093750
958,-222.33,2022-10-26 10:14:26.109375
959,-243.71,2022-10-26 10:14:26.125000
960,-262.14,2022-10-26 10:14:26.140625
961,-280.29,2022-10-26 10:14:26.156250
962,-300.69,2022-10-26 10:14:26.171875
963,-322.96,2022-10-26 10:14:26.187500
964,-343.34,2022-10-26 10:14:26.203125
965,-355.95,2022-10-26 10:14:26.218750
966,-355.42,2022-10-26 10:14:26.234375
967,-340.61,2022-10-26 10:14:26.250000
968,-315.81,2022-10-26 10:14:26.265625
969,-289.4,2022-10-26 10:14:26.281250
970,-270.38,2022-10-26 10:14:26.296875
971,-263.54,2022-10-26 10:14:26.312500
972,-267.11,2022-10-26 10:14:26.328125
973,-273.86,2022-10-26 10:14:26.343750
974,-275.41,2022-10-26 10:14:26.359375
975,-265.3,2022-10-26 10:14:26.375000
976,-242.05,2022-10-26 10:14:26.390625
977,-207.88,2022-10-26 10:14:26.406250
978,-166.05,2022-10-26 10:14:26.421875
979,-120.21,2022-10-26 10:14:26.437500
980,-74.11,2022-10-26 10:14:26.453125
981,-33.2,2022-10-26 10:14:26.468750
982,-5.37,2022-10-26 10:14:26.484375
983,1.02,2022-10-26 10:14:26.500000
984,-19.59,2022-10-26 10:14:26.515625
985,-66.23,2022-10-26 10:14:26.531250
986,-130.06,2022-10-26 10:14:26.546875
987,-196.71,2022-10-26 10:14:26.562500
988,-251.43,2022-10-26 10:14:26.578125
989,-284.14,2022-10-26 10:14:26.593750
990,-291.92,2022-10-26 10:14:26.609375
991,-278.65,2022-10-26 10:14:26.625000
992,-251.59,2022-10-26 10:14:26.640625
993,-217.49,2022-10-26 10:14:26.656250
994,-180.57,2022-10-26 10:14:26.671875
995,-141.6,2022-10-26 10:14:26.687500
996,-99.0,2022-10-26 10:14:26.703125
997,-50.77,2022-10-26 10:14:26.718750
998,4.62,2022-10-26 10:14:26.734375
999,66.36,2022-10-26 10:14:26.750000
1000,131.16,2022-10-26 10:14:26.765625
1001,193.5,2022-10-26 10:14:26.781250
1002,246.94,2022-10-26 10:14:26.796875
1003,286.27,2022-10-26 10:14:26.812500
1004,309.64,2022-10-26 10:14:26.828125
1005,319.7,2022-10-26 10:14:26.843750
1006,322.25,2022-10-26 10:14:26.859375
1007,324.62,2022-10-26 10:14:26.875000
1008,331.92,2022-10-26 10:14:26.890625
1009,345.46,2022-10-26 10:14:26.906250
1010,362.54,2022-10-26 10:14:26.921875
1011,377.63,2022-10-26 10:14:26.937500
1012,385.17,2022-10-26 10:14:26.953125
1013,381.12,2022-10-26 10:14:26.968750
1014,363.45,2022-10-26 10:14:26.984375
1015,331.77,2022-10-26 10:14:27.000000
1016,286.62,2022-10-26 10:14:27.015625
1017,229.29,2022-10-26 10:14:27.031250
1018,162.01,2022-10-26 10:14:27.046875
1019,88.79,2022-10-26 10:14:27.062500
1020,15.17,2022-10-26 10:14:27.078125
1021,-53.78,2022-10-26 10:14:27.093750
1022,-114.04,2022-10-26 10:14:27.109375
1023,-163.58,2022-10-26 10:14:27.125000
1024,-201.8,2022-10-26 10:14:27.140625
1025,-228.12,2022-10-26 10:14:27.156250
1026,-241.66,2022-10-26 10:14:27.171875
1027,-241.77,2022-10-26 10:14:27.187500
1028,-229.75,2022-10-26 10:14:27.203125
1029,-209.85,2022-10-26 10:14:27.218750
1030,-188.17,2022-10-26 10:14:27.234375
1031,-170.17,2022-10-26 10:14:27.250000
1032,-157.03,2022-10-26 10:14:27.265625
1033,-144.71,2022-10-26 10:14:27.281250
1034,-125.93,2022-10-26 10:14:27.296875
1035,-94.68,2022-10-26 10:14:27.312500
1036,-50.29,2022-10-26 10:14:27.328125
1037,1.25,2022-10-26 10:14:27.343750
1038,50.15,2022-10-26 10:14:27.359375
1039,87.18,2022-10-26 10:14:27.375000
1040,106.99,2022-10-26 10:14:27.390625
1041,109.28,2022-10-26 10:14:27.406250
1042,97.95,2022-10-26 10:14:27.421875
1043,79.03,2022-10-26 10:14:27.437500
1044,60.04,2022-10-26 10:14:27.453125
1045,49.3,2022-10-26 10:14:27.468750
1046,54.65,2022-10-26 10:14:27.484375
1047,80.55,2022-10-26 10:14:27.500000
1048,125.38,2022-10-26 10:14:27.515625
1049,180.45,2022-10-26 10:14:27.531250
1050,232.51,2022-10-26 10:14:27.546875
1051,269.83,2022-10-26 10:14:27.562500
1052,287.83,2022-10-26 10:14:27.578125
1053,290.22,2022-10-26 10:14:27.593750
1054,285.33,2022-10-26 10:14:27.609375
1055,279.99,2022-10-26 10:14:27.625000
1056,274.32,2022-10-26 10:14:27.640625
1057,261.92,2022-10-26 10:14:27.656250
1058,234.79,2022-10-26 10:14:27.671875
1059,189.8,2022-10-26 10:14:27.687500
1060,131.49,2022-10-26 10:14:27.703125
1061,69.84,2022-10-26 10:14:27.718750
1062,14.03,2022-10-26 10:14:27.734375
1063,-33.3,2022-10-26 10:14:27.750000
1064,-76.39,2022-10-26 10:14:27.765625
1065,-122.05,2022-10-26 10:14:27.781250
1066,-172.88,2022-10-26 10:14:27.796875
1067,-224.3,2022-10-26 10:14:27.812500
1068,-266.7,2022-10-26 10:14:27.828125
1069,-292.1,2022-10-26 10:14:27.843750
1070,-299.8,2022-10-26 10:14:27.859375
1071,-296.72,2022-10-26 10:14:27.875000
1072,-292.99,2022-10-26 10:14:27.890625
1073,-295.5,2022-10-26 10:14:27.906250
1074,-304.5,2022-10-26 10:14:27.921875
1075,-314.19,2022-10-26 10:14:27.937500
1076,-316.68,2022-10-26 10:14:27.953125
1077,-306.7,2022-10-26 10:14:27.968750
1078,-283.0,2022-10-26 10:14:27.984375
1079,-247.77,2022-10-26 10:14:28.000000
1080,-204.55,2022-10-26 10:14:28.015625
1081,-156.87,2022-10-26 10:14:28.031250
1082,-108.48,2022-10-26 10:14:28.046875
1083,-63.45,2022-10-26 10:14:28.062500
1084,-25.59,2022-10-26 10:14:28.078125
1085,2.94,2022-10-26 10:14:28.093750
1086,22.54,2022-10-26 10:14:28.109375
1087,36.65,2022-10-26 10:14:28.125000
1088,50.04,2022-10-26 10:14:28.140625
1089,66.77,2022-10-26 10:14:28.156250
1090,87.93,2022-10-26 10:14:28.171875
1091,110.61,2022-10-26 10:14:28.187500
1092,128.76,2022-10-26 10:14:28.203125
1093,135.17,2022-10-26 10:14:28.218750
1094,125.21,2022-10-26 10:14:28.234375
1095,99.15,2022-10-26 10:14:28.250000
1096,63.14,2022-10-26 10:14:28.265625
1097,28.01,2022-10-26 10:14:28.281250
1098,5.12,2022-10-26 10:14:28.296875
1099,1.31,2022-10-26 10:14:28.312500
1100,16.21,2022-10-26 10:14:28.328125
1101,42.61,2022-10-26 10:14:28.343750
1102,70.57,2022-10-26 10:14:28.359375
1103,92.22,2022-10-26 10:14:28.375000
1104,104.88,2022-10-26 10:14:28.390625
1105,110.91,2022-10-26 10:14:28.406250
1106,114.66,2022-10-26 10:14:28.421875
1107,119.02,2022-10-26 10:14:28.437500
1108,123.92,2022-10-26 10:14:28.453125
1109,126.9,2022-10-26 10:14:28.468750
1110,125.45,2022-10-26 10:14:28.484375
1111,119.18,2022-10-26 10:14:28.500000
1112,110.31,2022-10-26 10:14:28.515625
1113,102.97,2022-10-26 10:14:28.531250
1114,100.89,2022-10-26 10:14:28.546875
1115,105.29,2022-10-26 10:14:28.562500
1116,113.21,2022-10-26 10:14:28.578125
1117,118.03,2022-10-26 10:14:28.593750
1118,111.3,2022-10-26 10:14:28.609375
1119,86.24,2022-10-26 10:14:28.625000
1120,41.35,2022-10-26 10:14:28.640625
1121,-17.78,2022-10-26 10:14:28.656250
1122,-79.3,2022-10-26 10:14:28.671875
1123,-130.07,2022-10-26 10:14:28.687500
1124,-160.88,2022-10-26 10:14:28.703125
1125,-170.01,2022-10-26 10:14:28.718750
1126,-162.91,2022-10-26 10:14:28.734375
1127,-148.72,2022-10-26 10:14:28.750000
1128,-136.52,2022-10-26 10:14:28.765625
1129,-132.27,2022-10-26 10:14:28.781250
1130,-138.48,2022-10-26 10:14:28.796875
1131,-155.36,2022-10-26 10:14:28.812500
1132,-180.73,2022-10-26 10:14:28.828125
1133,-210.51,2022-10-26 10:14:28.843750
1134,-238.1,2022-10-26 10:14:28.859375
1135,-255.72,2022-10-26 10:14:28.875000
1136,-257.17,2022-10-26 10:14:28.890625
1137,-240.89,2022-10-26 10:14:28.906250
1138,-210.54,2022-10-26 10:14:28.921875
1139,-173.23,2022-10-26 10:14:28.937500
1140,-135.78,2022-10-26 10:14:28.953125
1141,-101.92,2022-10-26 10:14:28.968750
1142,-71.74,2022-10-26 10:14:28.984375
1143,-43.16,2022-10-26 10:14:29.000000
1144,-13.59,2022-10-26 10:14:29.015625
1145,19.21,2022-10-26 10:14:29.031250
1146,56.7,2022-10-26 10:14:29.046875
1147,98.97,2022-10-26 10:14:29.062500
1148,142.85,2022-10-26 10:14:29.078125
1149,181.16,2022-10-26 10:14:29.093750
1150,203.91,2022-10-26 10:14:29.109375
1151,202.29,2022-10-26 10:14:29.125000
1152,174.18,2022-10-26 10:14:29.140625
1153,127.19,2022-10-26 10:14:29.156250
1154,77.71,2022-10-26 10:14:29.171875
1155,44.78,2022-10-26 10:14:29.187500
1156,41.46,2022-10-26 10:14:29.203125
1157,68.94,2022-10-26 10:14:29.218750
1158,116.09,2022-10-26 10:14:29.234375
1159,164.87,2022-10-26 10:14:29.250000
1160,198.86,2022-10-26 10:14:29.265625
1161,209.48,2022-10-26 10:14:29.281250
1162,197.98,2022-10-26 10:14:29.296875
1163,172.69,2022-10-26 10:14:29.312500
1164,143.54,2022-10-26 10:14:29.328125
1165,117.36,2022-10-26 10:14:29.343750
1166,95.97,2022-10-26 10:14:29.359375
1167,77.41,2022-10-26 10:14:29.375000
1168,58.26,2022-10-26 10:14:29.390625
1169,36.2,2022-10-26 10:14:29.406250
1170,10.69,2022-10-26 10:14:29.421875
1171,-17.03,2022-10-26 10:14:29.437500
1172,-44.8,2022-10-26 10:14:29.453125
1173,-69.89,2022-10-26 10:14:29.468750
1174,-89.3,2022-10-26 10:14:29.484375
1175,-99.83,2022-10-26 10:14:29.500000
1176,-98.74,2022-10-26 10:14:29.515625
1177,-84.59,2022-10-26 10:14:29.531250
1178,-57.95,2022-10-26 10:14:29.546875
1179,-22.14,2022-10-26 10:14:29.562500
1180,16.7,2022-10-26 10:14:29.578125
1181,50.78,2022-10-26 10:14:29.593750
1182,72.52,2022-10-26 10:14:29.609375
1183,76.93,2022-10-26 10:14:29.625000
1184,63.97,2022-10-26 10:14:29.640625
1185,38.56,2022-10-26 10:14:29.656250
1186,9.06,2022-10-26 10:14:29.671875
1187,-15.17,2022-10-26 10:14:29.687500
1188,-26.95,2022-10-26 10:14:29.703125
1189,-22.8,2022-10-26 10:14:29.718750
1190,-3.4,2022-10-26 10:14:29.734375
1191,27.19,2022-10-26 10:14:29.750000
1192,63.21,2022-10-26 10:14:29.765625
1193,98.97,2022-10-26 10:14:29.781250
1194,129.32,2022-10-26 10:14:29.796875
1195,150.67,2022-10-26 10:14:29.812500
1196,161.92,2022-10-26 10:14:29.828125
1197,164.38,2022-10-26 10:14:29.843750
1198,161.74,2022-10-26 10:14:29.859375
1199,158.66,2022-10-26 10:14:29.875000
1200,158.78,2022-10-26 10:14:29.890625
1201,163.36,2022-10-26 10:14:29.906250
1202,170.62,2022-10-26 10:14:29.921875
1203,177.15,2022-10-26 10:14:29.937500
1204,179.56,2022-10-26 10:14:29.953125
1205,176.56,2022-10-26 10:14:29.968750
1206,168.82,2022-10-26 10:14:29.984375
1207,158.22,2022-10-26 10:14:30.000000
1208,145.75,2022-10-26 10:14:30.015625
1209,130.16,2022-10-26 10:14:30.031250
1210,107.94,2022-10-26 10:14:30.046875
1211,75.31,2022-10-26 10:14:30.062500
1212,30.66,2022-10-26 10:14:30.078125
1213,-22.82,2022-10-26 10:14:30.093750
1214,-76.43,2022-10-26 10:14:30.109375
1215,-118.69,2022-10-26 10:14:30.125000
1216,-138.65,2022-10-26 10:14:30.140625
1217,-130.8,2022-10-26 10:14:30.156250
1218,-97.16,2022-10-26 10:14:30.171875
1219,-46.52,2022-10-26 10:14:30.187500
1220,8.36,2022-10-26 10:14:30.203125
1221,55.14,2022-10-26 10:14:30.218750
1222,84.58,2022-10-26 10:14:30.234375
1223,91.96,2022-10-26 10:14:30.250000
1224,76.32,2022-10-26 10:14:30.265625
1225,40.5,2022-10-26 10:14:30.281250
1226,-9.66,2022-10-26 10:14:30.296875
1227,-65.21,2022-10-26 10:14:30.312500
1228,-115.28,2022-10-26 10:14:30.328125
1229,-149.26,2022-10-26 10:14:30.343750
1230,-160.63,2022-10-26 10:14:30.359375
1231,-150.25,2022-10-26 10:14:30.375000
1232,-126.48,2022-10-26 10:14:30.390625
1233,-101.86,2022-10-26 10:14:30.406250
1234,-87.62,2022-10-26 10:14:30.421875
1235,-88.56,2022-10-26 10:14:30.437500
1236,-101.6,2022-10-26 10:14:30.453125
1237,-117.78,2022-10-26 10:14:30.468750
1238,-127.92,2022-10-26 10:14:30.484375
1239,-126.59,2022-10-26 10:14:30.500000
1240,-114.53,2022-10-26 10:14:30.515625
1241,-97.62,2022-10-26 10:14:30.531250
1242,-83.39,2022-10-26 10:14:30.546875
1243,-77.21,2022-10-26 10:14:30.562500
1244,-79.73,2022-10-26 10:14:30.578125
1245,-86.98,2022-10-26 10:14:30.593750
1246,-92.46,2022-10-26 10:14:30.609375
1247,-90.66,2022-10-26 10:14:30.625000
1248,-79.0,2022-10-26 10:14:30.640625
1249,-58.58,2022-10-26 10:14:30.656250
1250,-32.77,2022-10-26 10:14:30.671875
1251,-4.48,2022-10-26 10:14:30.687500
1252,25.12,2022-10-26 10:14:30.703125
1253,56.85,2022-10-26 10:14:30.718750
1254,91.51,2022-10-26 10:14:30.734375
1255,127.67,2022-10-26 10:14:30.750000
1256,160.99,2022-10-26 10:14:30.765625
1257,185.64,2022-10-26 10:14:30.781250
1258,197.13,2022-10-26 10:14:30.796875
1259,195.42,2022-10-26 10:14:30.812500
1260,184.78,2022-10-26 10:14:30.828125
1261,171.66,2022-10-26 10:14:30.843750
1262,160.16,2022-10-26 10:14:30.859375
1263,148.67,2022-10-26 10:14:30.875000
1264,130.18,2022-10-26 10:14:30.890625
1265,95.31,2022-10-26 10:14:30.906250
1266,37.49,2022-10-26 10:14:30.921875
1267,-43.06,2022-10-26 10:14:30.937500
1268,-138.26,2022-10-26 10:14:30.953125
1269,-234.61,2022-10-26 10:14:30.968750
1270,-318.72,2022-10-26 10:14:30.984375
1271,-381.16,2022-10-26 10:14:31.000000
1272,-419.12,2022-10-26 10:14:31.015625
1273,-435.6,2022-10-26 10:14:31.031250
1274,-436.5,2022-10-26 10:14:31.046875
1275,-428.63,2022-10-26 10:14:31.062500
1276,-417.53,2022-10-26 10:14:31.078125
1277,-407.13,2022-10-26 10:14:31.093750
1278,-399.25,2022-10-26 10:14:31.109375
1279,-393.82,2022-10-26 10:14:31.125000
1280,-388.08,2022-10-26 10:14:31.140625
1281,-377.31,2022-10-26 10:14:31.156250
1282,-356.39,2022-10-26 10:14:31.171875
1283,-321.96,2022-10-26 10:14:31.187500
1284,-275.19,2022-10-26 10:14:31.203125
1285,-222.35,2022-10-26 10:14:31.218750
1286,-173.0,2022-10-26 10:14:31.234375
1287,-136.26,2022-10-26 10:14:31.250000
1288,-116.79,2022-10-26 10:14:31.265625
1289,-112.19,2022-10-26 10:14:31.281250
1290,-114.39,2022-10-26 10:14:31.296875
1291,-113.72,2022-10-26 10:14:31.312500
1292,-104.54,2022-10-26 10:14:31.328125
1293,-87.81,2022-10-26 10:14:31.343750
1294,-70.45,2022-10-26 10:14:31.359375
1295,-60.37,2022-10-26 10:14:31.375000
1296,-60.91,2022-10-26 10:14:31.390625
1297,-68.45,2022-10-26 10:14:31.406250
1298,-73.17,2022-10-26 10:14:31.421875
1299,-64.93,2022-10-26 10:14:31.437500
1300,-39.08,2022-10-26 10:14:31.453125
1301,1.42,2022-10-26 10:14:31.468750
1302,47.87,2022-10-26 10:14:31.484375
1303,91.98,2022-10-26 10:14:31.500000
1304,130.51,2022-10-26 10:14:31.515625
1305,166.24,2022-10-26 10:14:31.531250
1306,204.38,2022-10-26 10:14:31.546875
1307,246.8,2022-10-26 10:14:31.562500
1308,288.71,2022-10-26 10:14:31.578125
1309,320.16,2022-10-26 10:14:31.593750
1310,332.08,2022-10-26 10:14:31.609375
1311,320.97,2022-10-26 10:14:31.625000
1312,290.7,2022-10-26 10:14:31.640625
1313,249.66,2022-10-26 10:14:31.656250
1314,205.18,2022-10-26 10:14:31.671875
1315,160.31,2022-10-26 10:14:31.687500
1316,114.66,2022-10-26 10:14:31.703125
1317,68.38,2022-10-26 10:14:31.718750
1318,25.82,2022-10-26 10:14:31.734375
1319,-4.64,2022-10-26 10:14:31.750000
1320,-14.99,2022-10-26 10:14:31.765625
1321,-2.97,2022-10-26 10:14:31.781250
1322,24.97,2022-10-26 10:14:31.796875
1323,56.6,2022-10-26 10:14:31.812500
1324,79.63,2022-10-26 10:14:31.828125
1325,87.32,2022-10-26 10:14:31.843750
1326,79.3,2022-10-26 10:14:31.859375
1327,59.09,2022-10-26 10:14:31.875000
1328,30.72,2022-10-26 10:14:31.890625
1329,-4.22,2022-10-26 10:14:31.906250
1330,-44.74,2022-10-26 10:14:31.921875
1331,-87.32,2022-10-26 10:14:31.937500
1332,-124.24,2022-10-26 10:14:31.953125
1333,-145.26,2022-10-26 10:14:31.968750
1334,-142.49,2022-10-26 10:14:31.984375
1335,-114.88,2022-10-26 10:14:32.000000
1336,-68.84,2022-10-26 10:14:32.015625
1337,-14.83,2022-10-26 10:14:32.031250
1338,38.53,2022-10-26 10:14:32.046875
1339,87.87,2022-10-26 10:14:32.062500
1340,134.37,2022-10-26 10:14:32.078125
1341,179.6,2022-10-26 10:14:32.093750
1342,222.04,2022-10-26 10:14:32.109375
1343,256.22,2022-10-26 10:14:32.125000
1344,274.59,2022-10-26 10:14:32.140625
1345,272.27,2022-10-26 10:14:32.156250
1346,250.34,2022-10-26 10:14:32.171875
1347,215.77,2022-10-26 10:14:32.187500
1348,178.13,2022-10-26 10:14:32.203125
1349,145.3,2022-10-26 10:14:32.218750
1350,120.55,2022-10-26 10:14:32.234375
1351,102.24,2022-10-26 10:14:32.250000
1352,85.96,2022-10-26 10:14:32.265625
1353,67.18,2022-10-26 10:14:32.281250
1354,43.09,2022-10-26 10:14:32.296875
1355,12.56,2022-10-26 10:14:32.312500
1356,-23.52,2022-10-26 10:14:32.328125
1357,-61.74,2022-10-26 10:14:32.343750
1358,-96.04,2022-10-26 10:14:32.359375
1359,-118.85,2022-10-26 10:14:32.375000
1360,-123.43,2022-10-26 10:14:32.390625
1361,-107.03,2022-10-26 10:14:32.406250
1362,-73.44,2022-10-26 10:14:32.421875
1363,-32.07,2022-10-26 10:14:32.437500
1364,6.08,2022-10-26 10:14:32.453125
1365,33.45,2022-10-26 10:14:32.468750
1366,49.39,2022-10-26 10:14:32.484375
1367,59.9,2022-10-26 10:14:32.500000
1368,73.24,2022-10-26 10:14:32.515625
1369,94.56,2022-10-26 10:14:32.531250
1370,122.8,2022-10-26 10:14:32.546875
1371,151.25,2022-10-26 10:14:32.562500
1372,171.95,2022-10-26 10:14:32.578125
1373,179.9,2022-10-26 10:14:32.593750
1374,175.09,2022-10-26 10:14:32.609375
1375,162.1,2022-10-26 10:14:32.625000
1376,146.24,2022-10-26 10:14:32.640625
1377,130.05,2022-10-26 10:14:32.656250
1378,111.56,2022-10-26 10:14:32.671875
1379,84.83,2022-10-26 10:14:32.687500
1380,43.13,2022-10-26 10:14:32.703125
1381,-17.22,2022-10-26 10:14:32.718750
1382,-94.06,2022-10-26 10:14:32.734375
1383,-179.03,2022-10-26 10:14:32.750000
1384,-260.51,2022-10-26 10:14:32.765625
1385,-328.46,2022-10-26 10:14:32.781250
1386,-377.33,2022-10-26 10:14:32.796875
1387,-407.11,2022-10-26 10:14:32.812500
1388,-420.77,2022-10-26 10:14:32.828125
1389,-421.01,2022-10-26 10:14:32.843750
1390,-408.83,2022-10-26 10:14:32.859375
1391,-384.31,2022-10-26 10:14:32.875000
1392,-349.2,2022-10-26 10:14:32.890625
1393,-307.77,2022-10-26 10:14:32.906250
1394,-265.87,2022-10-26 10:14:32.921875
1395,-228.72,2022-10-26 10:14:32.937500
1396,-198.75,2022-10-26 10:14:32.953125
1397,-175.46,2022-10-26 10:14:32.968750
1398,-156.63,2022-10-26 10:14:32.984375
1399,-139.78,2022-10-26 10:14:33.000000
1400,-123.26,2022-10-26 10:14:33.015625
1401,-105.24,2022-10-26 10:14:33.031250
1402,-83.96,2022-10-26 10:14:33.046875
1403,-58.22,2022-10-26 10:14:33.062500
1404,-28.41,2022-10-26 10:14:33.078125
1405,2.93,2022-10-26 10:14:33.093750
1406,32.17,2022-10-26 10:14:33.109375
1407,56.64,2022-10-26 10:14:33.125000
1408,75.48,2022-10-26 10:14:33.140625
1409,90.09,2022-10-26 10:14:33.156250
1410,102.66,2022-10-26 10:14:33.171875
1411,114.7,2022-10-26 10:14:33.187500
1412,126.58,2022-10-26 10:14:33.203125
1413,137.61,2022-10-26 10:14:33.218750
1414,147.23,2022-10-26 10:14:33.234375
1415,154.59,2022-10-26 10:14:33.250000
1416,159.05,2022-10-26 10:14:33.265625
1417,159.12,2022-10-26 10:14:33.281250
1418,152.61,2022-10-26 10:14:33.296875
1419,137.26,2022-10-26 10:14:33.312500
1420,111.06,2022-10-26 10:14:33.328125
1421,73.22,2022-10-26 10:14:33.343750
1422,24.21,2022-10-26 10:14:33.359375
1423,-33.03,2022-10-26 10:14:33.375000
1424,-93.39,2022-10-26 10:14:33.390625
1425,-149.25,2022-10-26 10:14:33.406250
1426,-191.55,2022-10-26 10:14:33.421875
1427,-212.8,2022-10-26 10:14:33.437500
1428,-209.46,2022-10-26 10:14:33.453125
1429,-184.0,2022-10-26 10:14:33.468750
1430,-144.59,2022-10-26 10:14:33.484375
1431,-101.92,2022-10-26 10:14:33.500000
1432,-65.48,2022-10-26 10:14:33.515625
1433,-39.53,2022-10-26 10:14:33.531250
1434,-21.96,2022-10-26 10:14:33.546875
1435,-5.56,2022-10-26 10:14:33.562500
1436,18.14,2022-10-26 10:14:33.578125
1437,54.85,2022-10-26 10:14:33.593750
1438,105.61,2022-10-26 10:14:33.609375
1439,166.75,2022-10-26 10:14:33.625000
1440,231.37,2022-10-26 10:14:33.640625
1441,291.65,2022-10-26 10:14:33.656250
1442,340.25,2022-10-26 10:14:33.671875
1443,372.14,2022-10-26 10:14:33.687500
1444,386.14,2022-10-26 10:14:33.703125
1445,385.47,2022-10-26 10:14:33.718750
1446,378.0,2022-10-26 10:14:33.734375
1447,372.18,2022-10-26 10:14:33.750000
1448,373.4,2022-10-26 10:14:33.765625
1449,381.01,2022-10-26 10:14:33.781250
1450,387.98,2022-10-26 10:14:33.796875
1451,385.54,2022-10-26 10:14:33.812500
1452,367.74,2022-10-26 10:14:33.828125
1453,334.64,2022-10-26 10:14:33.843750
1454,290.81,2022-10-26 10:14:33.859375
1455,241.77,2022-10-26 10:14:33.875000
1456,190.86,2022-10-26 10:14:33.890625
1457,138.3,2022-10-26 10:14:33.906250
1458,84.21,2022-10-26 10:14:33.921875
1459,30.51,2022-10-26 10:14:33.937500
1460,-18.02,2022-10-26 10:14:33.953125
1461,-55.55,2022-10-26 10:14:33.968750
1462,-78.41,2022-10-26 10:14:33.984375
1463,-86.49,2022-10-26 10:14:34.000000
1464,-82.65,2022-10-26 10:14:34.015625
1465,-70.66,2022-10-26 10:14:34.031250
1466,-53.79,2022-10-26 10:14:34.046875
1467,-34.51,2022-10-26 10:14:34.062500
1468,-16.57,2022-10-26 10:14:34.078125
1469,-5.47,2022-10-26 10:14:34.093750
1470,-6.61,2022-10-26 10:14:34.109375
1471,-22.35,2022-10-26 10:14:34.125000
1472,-49.37,2022-10-26 10:14:34.140625
1473,-79.12,2022-10-26 10:14:34.156250
1474,-101.78,2022-10-26 10:14:34.171875
1475,-111.1,2022-10-26 10:14:34.187500
1476,-107.11,2022-10-26 10:14:34.203125
1477,-95.54,2022-10-26 10:14:34.218750
1478,-83.73,2022-10-26 10:14:34.234375
1479,-77.27,2022-10-26 10:14:34.250000
1480,-77.75,2022-10-26 10:14:34.265625
1481,-83.08,2022-10-26 10:14:34.281250
1482,-89.83,2022-10-26 10:14:34.296875
1483,-94.88,2022-10-26 10:14:34.312500
1484,-97.09,2022-10-26 10:14:34.328125
1485,-97.01,2022-10-26 10:14:34.343750
1486,-95.38,2022-10-26 10:14:34.359375
1487,-92.97,2022-10-26 10:14:34.375000
1488,-89.68,2022-10-26 10:14:34.390625
1489,-85.16,2022-10-26 10:14:34.406250
1490,-78.96,2022-10-26 10:14:34.421875
1491,-70.69,2022-10-26 10:14:34.437500
1492,-60.97,2022-10-26 10:14:34.453125
1493,-51.84,2022-10-26 10:14:34.468750
1494,-46.8,2022-10-26 10:14:34.484375
1495,-49.89,2022-10-26 10:14:34.500000
1496,-62.66,2022-10-26 10:14:34.515625
1497,-83.05,2022-10-26 10:14:34.531250
1498,-105.89,2022-10-26 10:14:34.546875
1499,-125.11,2022-10-26 10:14:34.562500
1500,-137.3,2022-10-26 10:14:34.578125
1501,-143.66,2022-10-26 10:14:34.593750
1502,-148.16,2022-10-26 10:14:34.609375
1503,-154.77,2022-10-26 10:14:34.625000
1504,-164.33,2022-10-26 10:14:34.640625
1505,-173.75,2022-10-26 10:14:34.656250
1506,-177.65,2022-10-26 10:14:34.671875
1507,-170.95,2022-10-26 10:14:34.687500
1508,-151.12,2022-10-26 10:14:34.703125
1509,-118.96,2022-10-26 10:14:34.718750
1510,-76.95,2022-10-26 10:14:34.734375
1511,-28.21,2022-10-26 10:14:34.750000
1512,23.73,2022-10-26 10:14:34.765625
1513,74.31,2022-10-26 10:14:34.781250
1514,117.37,2022-10-26 10:14:34.796875
1515,146.62,2022-10-26 10:14:34.812500
1516,157.93,2022-10-26 10:14:34.828125
1517,151.73,2022-10-26 10:14:34.843750
1518,134.03,2022-10-26 10:14:34.859375
1519,113.97,2022-10-26 10:14:34.875000
1520,100.48,2022-10-26 10:14:34.890625
1521,98.55,2022-10-26 10:14:34.906250
1522,107.4,2022-10-26 10:14:34.921875
1523,121.87,2022-10-26 10:14:34.937500
1524,134.67,2022-10-26 10:14:34.953125
1525,140.03,2022-10-26 10:14:34.968750
1526,135.75,2022-10-26 10:14:34.984375
1527,123.61,2022-10-26 10:14:35.000000
1528,107.96,2022-10-26 10:14:35.015625
1529,92.9,2022-10-26 10:14:35.031250
1530,79.79,2022-10-26 10:14:35.046875
1531,66.2,2022-10-26 10:14:35.062500
1532,48.33,2022-10-26 10:14:35.078125
1533,23.82,2022-10-26 10:14:35.093750
1534,-4.72,2022-10-26 10:14:35.109375
1535,-29.99,2022-10-26 10:14:35.125000
1536,-43.52,2022-10-26 10:14:35.140625
1537,-40.26,2022-10-26 10:14:35.156250
1538,-22.39,2022-10-26 10:14:35.171875
1539,1.97,2022-10-26 10:14:35.187500
1540,23.18,2022-10-26 10:14:35.203125
1541,35.34,2022-10-26 10:14:35.218750
1542,38.29,2022-10-26 10:14:35.234375
1543,36.14,2022-10-26 10:14:35.250000
1544,32.48,2022-10-26 10:14:35.265625
1545,27.89,2022-10-26 10:14:35.281250
1546,20.2,2022-10-26 10:14:35.296875
1547,7.73,2022-10-26 10:14:35.312500
1548,-7.64,2022-10-26 10:14:35.328125
1549,-21.05,2022-10-26 10:14:35.343750
1550,-28.02,2022-10-26 10:14:35.359375
1551,-28.16,2022-10-26 10:14:35.375000
1552,-25.57,2022-10-26 10:14:35.390625
1553,-25.88,2022-10-26 10:14:35.406250
1554,-31.85,2022-10-26 10:14:35.421875
1555,-41.01,2022-10-26 10:14:35.437500
1556,-47.53,2022-10-26 10:14:35.453125
1557,-46.56,2022-10-26 10:14:35.468750
1558,-39.12,2022-10-26 10:14:35.484375
1559,-32.46,2022-10-26 10:14:35.500000
1560,-37.54,2022-10-26 10:14:35.515625
1561,-62.86,2022-10-26 10:14:35.531250
1562,-109.99,2022-10-26 10:14:35.546875
1563,-171.76,2022-10-26 10:14:35.562500
1564,-234.15,2022-10-26 10:14:35.578125
1565,-281.67,2022-10-26 10:14:35.593750
1566,-302.76,2022-10-26 10:14:35.609375
1567,-293.64,2022-10-26 10:14:35.625000
1568,-259.52,2022-10-26 10:14:35.640625
1569,-212.28,2022-10-26 10:14:35.656250
1570,-166.07,2022-10-26 10:14:35.671875
1571,-131.28,2022-10-26 10:14:35.687500
1572,-111.44,2022-10-26 10:14:35.703125
1573,-103.23,2022-10-26 10:14:35.718750
1574,-100.12,2022-10-26 10:14:35.734375
1575,-96.82,2022-10-26 10:14:35.750000
1576,-92.44,2022-10-26 10:14:35.765625
1577,-89.07,2022-10-26 10:14:35.781250
1578,-88.62,2022-10-26 10:14:35.796875
1579,-89.33,2022-10-26 10:14:35.812500
1580,-85.59,2022-10-26 10:14:35.828125
1581,-70.47,2022-10-26 10:14:35.843750
1582,-40.46,2022-10-26 10:14:35.859375
1583,1.65,2022-10-26 10:14:35.875000
1584,47.05,2022-10-26 10:14:35.890625
1585,85.0,2022-10-26 10:14:35.906250
1586,107.8,2022-10-26 10:14:35.921875
1587,114.05,2022-10-26 10:14:35.937500
1588,108.66,2022-10-26 10:14:35.953125
1589,99.96,2022-10-26 10:14:35.968750
1590,94.87,2022-10-26 10:14:35.984375
1591,96.64,2022-10-26 10:14:36.000000
1592,103.29,2022-10-26 10:14:36.015625
1593,109.7,2022-10-26 10:14:36.031250
1594,110.69,2022-10-26 10:14:36.046875
1595,104.28,2022-10-26 10:14:36.062500
1596,93.18,2022-10-26 10:14:36.078125
1597,84.37,2022-10-26 10:14:36.093750
1598,84.99,2022-10-26 10:14:36.109375
1599,98.27,2022-10-26 10:14:36.125000
1600,120.9,2022-10-26 10:14:36.140625
1601,143.92,2022-10-26 10:14:36.156250
1602,157.67,2022-10-26 10:14:36.171875
1603,156.88,2022-10-26 10:14:36.187500
1604,144.53,2022-10-26 10:14:36.203125
1605,130.34,2022-10-26 10:14:36.218750
1606,125.56,2022-10-26 10:14:36.234375
1607,136.62,2022-10-26 10:14:36.250000
1608,161.72,2022-10-26 10:14:36.265625
1609,191.87,2022-10-26 10:14:36.281250
1610,215.62,2022-10-26 10:14:36.296875
1611,225.44,2022-10-26 10:14:36.312500
1612,219.56,2022-10-26 10:14:36.328125
1613,201.53,2022-10-26 10:14:36.343750
1614,176.02,2022-10-26 10:14:36.359375
1615,145.31,2022-10-26 10:14:36.375000
1616,108.13,2022-10-26 10:14:36.390625
1617,62.21,2022-10-26 10:14:36.406250
1618,8.36,2022-10-26 10:14:36.421875
1619,-47.27,2022-10-26 10:14:36.437500
1620,-94.05,2022-10-26 10:14:36.453125
1621,-121.3,2022-10-26 10:14:36.468750
1622,-124.33,2022-10-26 10:14:36.484375
1623,-107.72,2022-10-26 10:14:36.500000
1624,-83.82,2022-10-26 10:14:36.515625
1625,-67.65,2022-10-26 10:14:36.531250
1626,-69.4,2022-10-26 10:14:36.546875
1627,-89.96,2022-10-26 10:14:36.562500
1628,-121.29,2022-10-26 10:14:36.578125
1629,-150.17,2022-10-26 10:14:36.593750
1630,-166.0,2022-10-26 10:14:36.609375
1631,-164.91,2022-10-26 10:14:36.625000
1632,-150.85,2022-10-26 10:14:36.640625
1633,-132.36,2022-10-26 10:14:36.656250
1634,-116.56,2022-10-26 10:14:36.671875
1635,-106.12,2022-10-26 10:14:36.687500
1636,-98.73,2022-10-26 10:14:36.703125
1637,-89.72,2022-10-26 10:14:36.718750
1638,-76.14,2022-10-26 10:14:36.734375
1639,-59.18,2022-10-26 10:14:36.750000
1640,-42.96,2022-10-26 10:14:36.765625
1641,-31.87,2022-10-26 10:14:36.781250
1642,-27.69,2022-10-26 10:14:36.796875
1643,-28.58,2022-10-26 10:14:36.812500
1644,-30.8,2022-10-26 10:14:36.828125
1645,-30.48,2022-10-26 10:14:36.843750
1646,-25.44,2022-10-26 10:14:36.859375
1647,-14.74,2022-10-26 10:14:36.875000
1648,2.18,2022-10-26 10:14:36.890625
1649,26.12,2022-10-26 10:14:36.906250
1650,57.12,2022-10-26 10:14:36.921875
1651,92.95,2022-10-26 10:14:36.937500
1652,127.97,2022-10-26 10:14:36.953125
1653,154.76,2022-10-26 10:14:36.968750
1654,167.47,2022-10-26 10:14:36.984375
1655,165.21,2022-10-26 10:14:37.000000
1656,153.97,2022-10-26 10:14:37.015625
1657,144.21,2022-10-26 10:14:37.031250
1658,146.05,2022-10-26 10:14:37.046875
1659,163.86,2022-10-26 10:14:37.062500
1660,193.05,2022-10-26 10:14:37.078125
1661,222.39,2022-10-26 10:14:37.093750
1662,238.73,2022-10-26 10:14:37.109375
1663,232.77,2022-10-26 10:14:37.125000
1664,202.23,2022-10-26 10:14:37.140625
1665,152.26,2022-10-26 10:14:37.156250
1666,93.09,2022-10-26 10:14:37.171875
1667,36.3,2022-10-26 10:14:37.187500
1668,-9.39,2022-10-26 10:14:37.203125
1669,-40.01,2022-10-26 10:14:37.218750
1670,-57.07,2022-10-26 10:14:37.234375
1671,-65.56,2022-10-26 10:14:37.250000
1672,-71.47,2022-10-26 10:14:37.265625
1673,-79.35,2022-10-26 10:14:37.281250
1674,-90.66,2022-10-26 10:14:37.296875
1675,-104.35,2022-10-26 10:14:37.312500
1676,-117.33,2022-10-26 10:14:37.328125
1677,-125.82,2022-10-26 10:14:37.343750
1678,-126.91,2022-10-26 10:14:37.359375
1679,-120.25,2022-10-26 10:14:37.375000
1680,-108.05,2022-10-26 10:14:37.390625
1681,-94.82,2022-10-26 10:14:37.406250
1682,-86.33,2022-10-26 10:14:37.421875
1683,-87.07,2022-10-26 10:14:37.437500
1684,-98.3,2022-10-26 10:14:37.453125
1685,-116.82,2022-10-26 10:14:37.468750
1686,-135.57,2022-10-26 10:14:37.484375
1687,-146.08,2022-10-26 10:14:37.500000
1688,-142.6,2022-10-26 10:14:37.515625
1689,-124.95,2022-10-26 10:14:37.531250
1690,-99.01,2022-10-26 10:14:37.546875
1691,-73.6,2022-10-26 10:14:37.562500
1692,-56.53,2022-10-26 10:14:37.578125
1693,-51.89,2022-10-26 10:14:37.593750
1694,-59.39,2022-10-26 10:14:37.609375
1695,-76.04,2022-10-26 10:14:37.625000
1696,-97.74,2022-10-26 10:14:37.640625
1697,-120.1,2022-10-26 10:14:37.656250
1698,-138.66,2022-10-26 10:14:37.671875
1699,-148.21,2022-10-26 10:14:37.687500
1700,-144.64,2022-10-26 10:14:37.703125
1701,-126.11,2022-10-26 10:14:37.718750
1702,-95.5,2022-10-26 10:14:37.734375
1703,-60.29,2022-10-26 10:14:37.750000
1704,-29.88,2022-10-26 10:14:37.765625
1705,-12.41,2022-10-26 10:14:37.781250
1706,-10.58,2022-10-26 10:14:37.796875
1707,-21.39,2022-10-26 10:14:37.812500
1708,-37.61,2022-10-26 10:14:37.828125
1709,-51.22,2022-10-26 10:14:37.843750
1710,-56.27,2022-10-26 10:14:37.859375
1711,-50.52,2022-10-26 10:14:37.875000
1712,-34.15,2022-10-26 10:14:37.890625
1713,-8.58,2022-10-26 10:14:37.906250
1714,24.14,2022-10-26 10:14:37.921875
1715,61.68,2022-10-26 10:14:37.937500
1716,101.43,2022-10-26 10:14:37.953125
1717,140.76,2022-10-26 10:14:37.968750
1718,176.44,2022-10-26 10:14:37.984375
1719,206.1,2022-10-26 10:14:38.000000
1720,228.13,2022-10-26 10:14:38.015625
1721,242.64,2022-10-26 10:14:38.031250
1722,250.51,2022-10-26 10:14:38.046875
1723,252.49,2022-10-26 10:14:38.062500
1724,247.87,2022-10-26 10:14:38.078125
1725,234.02,2022-10-26 10:14:38.093750
1726,207.62,2022-10-26 10:14:38.109375
1727,166.7,2022-10-26 10:14:38.125000
1728,113.14,2022-10-26 10:14:38.140625
1729,53.29,2022-10-26 10:14:38.156250
1730,-3.88,2022-10-26 10:14:38.171875
1731,-49.76,2022-10-26 10:14:38.187500
1732,-79.23,2022-10-26 10:14:38.203125
1733,-91.15,2022-10-26 10:14:38.218750
1734,-87.57,2022-10-26 10:14:38.234375
1735,-71.72,2022-10-26 10:14:38.250000
1736,-46.62,2022-10-26 10:14:38.265625
1737,-15.85,2022-10-26 10:14:38.281250
1738,15.52,2022-10-26 10:14:38.296875
1739,40.29,2022-10-26 10:14:38.312500
1740,50.99,2022-10-26 10:14:38.328125
1741,44.04,2022-10-26 10:14:38.343750
1742,21.95,2022-10-26 10:14:38.359375
1743,-7.17,2022-10-26 10:14:38.375000
1744,-33.36,2022-10-26 10:14:38.390625
1745,-49.16,2022-10-26 10:14:38.406250
1746,-52.99,2022-10-26 10:14:38.421875
1747,-48.29,2022-10-26 10:14:38.437500
1748,-40.13,2022-10-26 10:14:38.453125
1749,-31.5,2022-10-26 10:14:38.468750
1750,-22.17,2022-10-26 10:14:38.484375
1751,-10.28,2022-10-26 10:14:38.500000
1752,4.03,2022-10-26 10:14:38.515625
1753,17.21,2022-10-26 10:14:38.531250
1754,23.59,2022-10-26 10:14:38.546875
1755,19.06,2022-10-26 10:14:38.562500
1756,4.18,2022-10-26 10:14:38.578125
1757,-14.72,2022-10-26 10:14:38.593750
1758,-28.27,2022-10-26 10:14:38.609375
1759,-28.25,2022-10-26 10:14:38.625000
1760,-11.36,2022-10-26 10:14:38.640625
1761,19.97,2022-10-26 10:14:38.656250
1762,58.87,2022-10-26 10:14:38.671875
1763,96.96,2022-10-26 10:14:38.687500
1764,127.06,2022-10-26 10:14:38.703125
1765,144.89,2022-10-26 10:14:38.718750
1766,149.36,2022-10-26 10:14:38.734375
1767,141.84,2022-10-26 10:14:38.750000
1768,125.01,2022-10-26 10:14:38.765625
1769,101.47,2022-10-26 10:14:38.781250
1770,72.33,2022-10-26 10:14:38.796875
1771,37.78,2022-10-26 10:14:38.812500
1772,-2.64,2022-10-26 10:14:38.828125
1773,-48.07,2022-10-26 10:14:38.843750
1774,-95.46,2022-10-26 10:14:38.859375
1775,-139.48,2022-10-26 10:14:38.875000
1776,-174.52,2022-10-26 10:14:38.890625
1777,-195.8,2022-10-26 10:14:38.906250
1778,-201.38,2022-10-26 10:14:38.921875
1779,-192.34,2022-10-26 10:14:38.937500
1780,-171.73,2022-10-26 10:14:38.953125
1781,-144.5,2022-10-26 10:14:38.968750
1782,-116.72,2022-10-26 10:14:38.984375
1783,-95.24,2022-10-26 10:14:39.000000
1784,-86.41,2022-10-26 10:14:39.015625
1785,-94.21,2022-10-26 10:14:39.031250
1786,-117.49,2022-10-26 10:14:39.046875
1787,-148.69,2022-10-26 10:14:39.062500
1788,-175.83,2022-10-26 10:14:39.078125
1789,-186.56,2022-10-26 10:14:39.093750
1790,-173.54,2022-10-26 10:14:39.109375
1791,-137.07,2022-10-26 10:14:39.125000
1792,-84.36,2022-10-26 10:14:39.140625
1793,-25.56,2022-10-26 10:14:39.156250
1794,30.4,2022-10-26 10:14:39.171875
1795,78.95,2022-10-26 10:14:39.187500
1796,119.34,2022-10-26 10:14:39.203125
1797,152.53,2022-10-26 10:14:39.218750
1798,178.44,2022-10-26 10:14:39.234375
1799,195.4,2022-10-26 10:14:39.250000
1800,202.01,2022-10-26 10:14:39.265625
1801,199.48,2022-10-26 10:14:39.281250
1802,191.66,2022-10-26 10:14:39.296875
1803,183.89,2022-10-26 10:14:39.312500
1804,180.03,2022-10-26 10:14:39.328125
1805,180.64,2022-10-26 10:14:39.343750
1806,182.73,2022-10-26 10:14:39.359375
1807,181.07,2022-10-26 10:14:39.375000
1808,169.65,2022-10-26 10:14:39.390625
1809,143.32,2022-10-26 10:14:39.406250
1810,99.54,2022-10-26 10:14:39.421875
1811,39.57,2022-10-26 10:14:39.437500
1812,-29.62,2022-10-26 10:14:39.453125
1813,-96.29,2022-10-26 10:14:39.468750
1814,-147.31,2022-10-26 10:14:39.484375
1815,-173.48,2022-10-26 10:14:39.500000
1816,-173.55,2022-10-26 10:14:39.515625
1817,-155.27,2022-10-26 10:14:39.531250
1818,-132.19,2022-10-26 10:14:39.546875
1819,-117.2,2022-10-26 10:14:39.562500
1820,-117.13,2022-10-26 10:14:39.578125
1821,-130.14,2022-10-26 10:14:39.593750
1822,-148.25,2022-10-26 10:14:39.609375
1823,-161.96,2022-10-26 10:14:39.625000
1824,-164.55,2022-10-26 10:14:39.640625
1825,-154.16,2022-10-26 10:14:39.656250
1826,-133.47,2022-10-26 10:14:39.671875
1827,-107.75,2022-10-26 10:14:39.687500
1828,-82.14,2022-10-26 10:14:39.703125
1829,-60.15,2022-10-26 10:14:39.718750
1830,-42.86,2022-10-26 10:14:39.734375
1831,-28.34,2022-10-26 10:14:39.750000
1832,-12.37,2022-10-26 10:14:39.765625
1833,10.35,2022-10-26 10:14:39.781250
1834,43.55,2022-10-26 10:14:39.796875
1835,86.86,2022-10-26 10:14:39.812500
1836,134.75,2022-10-26 10:14:39.828125
1837,177.68,2022-10-26 10:14:39.843750
1838,205.76,2022-10-26 10:14:39.859375
1839,213.29,2022-10-26 10:14:39.875000
1840,201.99,2022-10-26 10:14:39.890625
1841,180.23,2022-10-26 10:14:39.906250
1842,159.09,2022-10-26 10:14:39.921875
1843,146.91,2022-10-26 10:14:39.937500
1844,145.34,2022-10-26 10:14:39.953125
1845,150.14,2022-10-26 10:14:39.968750
1846,154.97,2022-10-26 10:14:39.984375
1847,155.6,2022-10-26 10:14:40.000000
1848,152.15,2022-10-26 10:14:40.015625
1849,147.24,2022-10-26 10:14:40.031250
1850,142.84,2022-10-26 10:14:40.046875
1851,137.58,2022-10-26 10:14:40.062500
1852,126.74,2022-10-26 10:14:40.078125
1853,105.84,2022-10-26 10:14:40.093750
1854,73.04,2022-10-26 10:14:40.109375
1855,30.42,2022-10-26 10:14:40.125000
1856,-17.59,2022-10-26 10:14:40.140625
1857,-67.06,2022-10-26 10:14:40.156250
1858,-115.22,2022-10-26 10:14:40.171875
1859,-160.54,2022-10-26 10:14:40.187500
1860,-200.35,2022-10-26 10:14:40.203125
1861,-229.87,2022-10-26 10:14:40.218750
1862,-244.28,2022-10-26 10:14:40.234375
1863,-241.04,2022-10-26 10:14:40.250000
1864,-222.78,2022-10-26 10:14:40.265625
1865,-197.06,2022-10-26 10:14:40.281250
1866,-173.02,2022-10-26 10:14:40.296875
1867,-157.74,2022-10-26 10:14:40.312500
1868,-152.44,2022-10-26 10:14:40.328125
1869,-152.51,2022-10-26 10:14:40.343750
1870,-150.39,2022-10-26 10:14:40.359375
1871,-139.96,2022-10-26 10:14:40.375000
1872,-119.45,2022-10-26 10:14:40.390625
1873,-92.01,2022-10-26 10:14:40.406250
1874,-63.18,2022-10-26 10:14:40.421875
1875,-37.21,2022-10-26 10:14:40.437500
1876,-14.75,2022-10-26 10:14:40.453125
1877,7.21,2022-10-26 10:14:40.468750
1878,32.57,2022-10-26 10:14:40.484375
1879,62.64,2022-10-26 10:14:40.500000
1880,94.41,2022-10-26 10:14:40.515625
1881,121.23,2022-10-26 10:14:40.531250
1882,136.06,2022-10-26 10:14:40.546875
1883,135.54,2022-10-26 10:14:40.562500
1884,121.45,2022-10-26 10:14:40.578125
1885,100.39,2022-10-26 10:14:40.593750
1886,80.36,2022-10-26 10:14:40.609375
1887,67.17,2022-10-26 10:14:40.625000
1888,62.57,2022-10-26 10:14:40.640625
1889,64.11,2022-10-26 10:14:40.656250
1890,67.77,2022-10-26 10:14:40.671875
1891,69.65,2022-10-26 10:14:40.687500
1892,67.36,2022-10-26 10:14:40.703125
1893,60.19,2022-10-26 10:14:40.718750
1894,48.53,2022-10-26 10:14:40.734375
1895,34.22,2022-10-26 10:14:40.750000
1896,20.86,2022-10-26 10:14:40.765625
1897,12.05,2022-10-26 10:14:40.781250
1898,10.67,2022-10-26 10:14:40.796875
1899,16.17,2022-10-26 10:14:40.812500
1900,24.15,2022-10-26 10:14:40.828125
1901,28.57,2022-10-26 10:14:40.843750
1902,24.66,2022-10-26 10:14:40.859375
1903,11.89,2022-10-26 10:14:40.875000
1904,-5.41,2022-10-26 10:14:40.890625
1905,-20.64,2022-10-26 10:14:40.906250
1906,-28.6,2022-10-26 10:14:40.921875
1907,-29.28,2022-10-26 10:14:40.937500
1908,-27.36,2022-10-26 10:14:40.953125
1909,-29.55,2022-10-26 10:14:40.968750
1910,-40.76,2022-10-26 10:14:40.984375
1911,-61.43,2022-10-26 10:14:41.000000
1912,-87.82,2022-10-26 10:14:41.015625
1913,-114.08,2022-10-26 10:14:41.031250
1914,-135.37,2022-10-26 10:14:41.046875
1915,-149.04,2022-10-26 10:14:41.062500
1916,-155.03,2022-10-26 10:14:41.078125
1917,-154.27,2022-10-26 10:14:41.093750
1918,-147.82,2022-10-26 10:14:41.109375
1919,-136.82,2022-10-26 10:14:41.125000
1920,-122.69,2022-10-26 10:14:41.140625
1921,-107.76,2022-10-26 10:14:41.156250
1922,-94.95,2022-10-26 10:14:41.171875
1923,-86.77,2022-10-26 10:14:41.187500
1924,-83.8,2022-10-26 10:14:41.203125
1925,-84.47,2022-10-26 10:14:41.218750
1926,-85.41,2022-10-26 10:14:41.234375
1927,-82.76,2022-10-26 10:14:41.250000
1928,-74.31,2022-10-26 10:14:41.265625
1929,-60.75,2022-10-26 10:14:41.281250
1930,-44.91,2022-10-26 10:14:41.296875
1931,-29.9,2022-10-26 10:14:41.312500
1932,-17.19,2022-10-26 10:14:41.328125
1933,-5.3,2022-10-26 10:14:41.343750
1934,9.55,2022-10-26 10:14:41.359375
1935,31.35,2022-10-26 10:14:41.375000
1936,62.12,2022-10-26 10:14:41.390625
1937,100.0,2022-10-26 10:14:41.406250
1938,140.29,2022-10-26 10:14:41.421875
1939,177.57,2022-10-26 10:14:41.437500
1940,208.56,2022-10-26 10:14:41.453125
1941,233.7,2022-10-26 10:14:41.468750
1942,256.86,2022-10-26 10:14:41.484375
1943,282.54,2022-10-26 10:14:41.500000
1944,312.42,2022-10-26 10:14:41.515625
1945,344.18,2022-10-26 10:14:41.531250
1946,372.1,2022-10-26 10:14:41.546875
1947,389.9,2022-10-26 10:14:41.562500
1948,393.43,2022-10-26 10:14:41.578125
1949,382.42,2022-10-26 10:14:41.593750
1950,360.41,2022-10-26 10:14:41.609375
1951,332.33,2022-10-26 10:14:41.625000
1952,301.91,2022-10-26 10:14:41.640625
1953,269.98,2022-10-26 10:14:41.656250
1954,233.23,2022-10-26 10:14:41.671875
1955,186.43,2022-10-26 10:14:41.687500
1956,126.05,2022-10-26 10:14:41.703125
1957,53.07,2022-10-26 10:14:41.718750
1958,-26.27,2022-10-26 10:14:41.734375
1959,-102.49,2022-10-26 10:14:41.750000
1960,-167.61,2022-10-26 10:14:41.765625
1961,-218.54,2022-10-26 10:14:41.781250
1962,-258.3,2022-10-26 10:14:41.796875
1963,-292.78,2022-10-26 10:14:41.812500
1964,-325.37,2022-10-26 10:14:41.828125
1965,-353.5,2022-10-26 10:14:41.843750
1966,-369.19,2022-10-26 10:14:41.859375
1967,-363.95,2022-10-26 10:14:41.875000
1968,-334.88,2022-10-26 10:14:41.890625
1969,-288.8,2022-10-26 10:14:41.906250
1970,-239.51,2022-10-26 10:14:41.921875
1971,-201.03,2022-10-26 10:14:41.937500
1972,-180.35,2022-10-26 10:14:41.953125
1973,-173.75,2022-10-26 10:14:41.968750
1974,-169.87,2022-10-26 10:14:41.984375
1975,-156.87,2022-10-26 10:14:42.000000
1976,-129.37,2022-10-26 10:14:42.015625
1977,-90.69,2022-10-26 10:14:42.031250
1978,-50.04,2022-10-26 10:14:42.046875
1979,-17.16,2022-10-26 10:14:42.062500
1980,3.4,2022-10-26 10:14:42.078125
1981,13.07,2022-10-26 10:14:42.093750
1982,17.02,2022-10-26 10:14:42.109375
1983,19.54,2022-10-26 10:14:42.125000
1984,21.27,2022-10-26 10:14:42.140625
1985,20.08,2022-10-26 10:14:42.156250
1986,13.31,2022-10-26 10:14:42.171875
1987,1.13,2022-10-26 10:14:42.187500
1988,-12.86,2022-10-26 10:14:42.203125
1989,-23.23,2022-10-26 10:14:42.218750
1990,-25.6,2022-10-26 10:14:42.234375
1991,-18.13,2022-10-26 10:14:42.250000
1992,-1.75,2022-10-26 10:14:42.265625
1993,21.12,2022-10-26 10:14:42.281250
1994,47.78,2022-10-26 10:14:42.296875
1995,75.76,2022-10-26 10:14:42.312500
1996,102.13,2022-10-26 10:14:42.328125
1997,122.9,2022-10-26 10:14:42.343750
1998,133.39,2022-10-26 10:14:42.359375
1999,130.67,2022-10-26 10:14:42.375000
2000,115.29,2022-10-26 10:14:42.390625
2001,92.27,2022-10-26 10:14:42.406250
2002,69.98,2022-10-26 10:14:42.421875
2003,56.52,2022-10-26 10:14:42.437500
2004,55.77,2022-10-26 10:14:42.453125
2005,65.7,2022-10-26 10:14:42.468750
2006,78.49,2022-10-26 10:14:42.484375
2007,83.57,2022-10-26 10:14:42.500000
2008,72.07,2022-10-26 10:14:42.515625
2009,41.32,2022-10-26 10:14:42.531250
2010,-3.54,2022-10-26 10:14:42.546875
2011,-52.13,2022-10-26 10:14:42.562500
2012,-92.97,2022-10-26 10:14:42.578125
2013,-118.89,2022-10-26 10:14:42.593750
2014,-129.81,2022-10-26 10:14:42.609375
2015,-131.66,2022-10-26 10:14:42.625000
2016,-132.63,2022-10-26 10:14:42.640625
2017,-138.38,2022-10-26 10:14:42.656250
2018,-150.2,2022-10-26 10:14:42.671875
2019,-165.11,2022-10-26 10:14:42.687500
2020,-178.54,2022-10-26 10:14:42.703125
2021,-186.7,2022-10-26 10:14:42.718750
2022,-187.64,2022-10-26 10:14:42.734375
2023,-180.89,2022-10-26 10:14:42.750000
2024,-166.62,2022-10-26 10:14:42.765625
2025,-145.73,2022-10-26 10:14:42.781250
2026,-120.38,2022-10-26 10:14:42.796875
2027,-93.65,2022-10-26 10:14:42.812500
2028,-68.61,2022-10-26 10:14:42.828125
2029,-46.56,2022-10-26 10:14:42.843750
2030,-26.27,2022-10-26 10:14:42.859375
2031,-4.95,2022-10-26 10:14:42.875000
2032,19.0,2022-10-26 10:14:42.890625
2033,43.99,2022-10-26 10:14:42.906250
2034,65.74,2022-10-26 10:14:42.921875
2035,79.83,2022-10-26 10:14:42.937500
2036,84.49,2022-10-26 10:14:42.953125
2037,81.95,2022-10-26 10:14:42.968750
2038,76.86,2022-10-26 10:14:42.984375
2039,73.5,2022-10-26 10:14:43.000000
2040,72.71,2022-10-26 10:14:43.015625
2041,72.33,2022-10-26 10:14:43.031250
2042,69.75,2022-10-26 10:14:43.046875
2043,65.34,2022-10-26 10:14:43.062500
2044,63.68,2022-10-26 10:14:43.078125
2045,71.47,2022-10-26 10:14:43.093750
2046,93.0,2022-10-26 10:14:43.109375
2047,126.98,2022-10-26 10:14:43.125000
2048,165.78,2022-10-26 10:14:43.140625
2049,198.9,2022-10-26 10:14:43.156250
2050,217.14,2022-10-26 10:14:43.171875
2051,216.47,2022-10-26 10:14:43.187500
2052,198.14,2022-10-26 10:14:43.203125
2053,166.24,2022-10-26 10:14:43.218750
2054,125.72,2022-10-26 10:14:43.234375
2055,81.02,2022-10-26 10:14:43.250000
2056,36.5,2022-10-26 10:14:43.265625
2057,-3.21,2022-10-26 10:14:43.281250
2058,-33.66,2022-10-26 10:14:43.296875
2059,-52.29,2022-10-26 10:14:43.312500
2060,-60.28,2022-10-26 10:14:43.328125
2061,-62.64,2022-10-26 10:14:43.343750
2062,-65.85,2022-10-26 10:14:43.359375
2063,-74.37,2022-10-26 10:14:43.375000
2064,-88.24,2022-10-26 10:14:43.390625
2065,-102.65,2022-10-26 10:14:43.406250
2066,-111.34,2022-10-26 10:14:43.421875
2067,-110.3,2022-10-26 10:14:43.437500
2068,-100.6,2022-10-26 10:14:43.453125
2069,-87.72,2022-10-26 10:14:43.468750
2070,-78.76,2022-10-26 10:14:43.484375
2071,-78.44,2022-10-26 10:14:43.500000
2072,-86.17,2022-10-26 10:14:43.515625
2073,-97.16,2022-10-26 10:14:43.531250
2074,-105.25,2022-10-26 10:14:43.546875
2075,-105.61,2022-10-26 10:14:43.562500
2076,-97.02,2022-10-26 10:14:43.578125
2077,-80.9,2022-10-26 10:14:43.593750
2078,-60.0,2022-10-26 10:14:43.609375
2079,-36.82,2022-10-26 10:14:43.625000
2080,-13.25,2022-10-26 10:14:43.640625
2081,8.4,2022-10-26 10:14:43.656250
2082,24.48,2022-10-26 10:14:43.671875
2083,31.09,2022-10-26 10:14:43.687500
2084,25.05,2022-10-26 10:14:43.703125
2085,6.05,2022-10-26 10:14:43.718750
2086,-22.4,2022-10-26 10:14:43.734375
2087,-54.52,2022-10-26 10:14:43.750000
2088,-83.97,2022-10-26 10:14:43.765625
2089,-106.34,2022-10-26 10:14:43.781250
2090,-119.15,2022-10-26 10:14:43.796875
2091,-121.3,2022-10-26 10:14:43.812500
2092,-112.19,2022-10-26 10:14:43.828125
2093,-91.4,2022-10-26 10:14:43.843750
2094,-59.59,2022-10-26 10:14:43.859375
2095,-18.91,2022-10-26 10:14:43.875000
2096,26.65,2022-10-26 10:14:43.890625
2097,73.34,2022-10-26 10:14:43.906250
2098,118.52,2022-10-26 10:14:43.921875
2099,161.34,2022-10-26 10:14:43.937500
2100,201.45,2022-10-26 10:14:43.953125
2101,237.39,2022-10-26 10:14:43.968750
2102,266.53,2022-10-26 10:14:43.984375
2103,286.55,2022-10-26 10:14:44.000000
2104,297.86,2022-10-26 10:14:44.015625
2105,305.01,2022-10-26 10:14:44.031250
2106,314.5,2022-10-26 10:14:44.046875
2107,330.47,2022-10-26 10:14:44.062500
2108,349.74,2022-10-26 10:14:44.078125
2109,361.78,2022-10-26 10:14:44.093750
2110,352.44,2022-10-26 10:14:44.109375
2111,312.03,2022-10-26 10:14:44.125000
2112,241.37,2022-10-26 10:14:44.140625
2113,151.97,2022-10-26 10:14:44.156250
2114,60.19,2022-10-26 10:14:44.171875
2115,-21.05,2022-10-26 10:14:44.187500
2116,-88.2,2022-10-26 10:14:44.203125
2117,-146.5,2022-10-26 10:14:44.218750
2118,-203.43,2022-10-26 10:14:44.234375
2119,-262.21,2022-10-26 10:14:44.250000
2120,-318.73,2022-10-26 10:14:44.265625
2121,-364.73,2022-10-26 10:14:44.281250
2122,-393.76,2022-10-26 10:14:44.296875
2123,-405.85,2022-10-26 10:14:44.312500
2124,-407.86,2022-10-26 10:14:44.328125
2125,-409.14,2022-10-26 10:14:44.343750
2126,-415.61,2022-10-26 10:14:44.359375
2127,-426.85,2022-10-26 10:14:44.375000
2128,-437.72,2022-10-26 10:14:44.390625
2129,-441.81,2022-10-26 10:14:44.406250
2130,-436.1,2022-10-26 10:14:44.421875
2131,-421.81,2022-10-26 10:14:44.437500
2132,-401.55,2022-10-26 10:14:44.453125
2133,-376.33,2022-10-26 10:14:44.468750
2134,-343.12,2022-10-26 10:14:44.484375
2135,-296.55,2022-10-26 10:14:44.500000
2136,-233.39,2022-10-26 10:14:44.515625
2137,-155.85,2022-10-26 10:14:44.531250
2138,-71.82,2022-10-26 10:14:44.546875
2139,8.11,2022-10-26 10:14:44.562500
2140,75.75,2022-10-26 10:14:44.578125
2141,129.09,2022-10-26 10:14:44.593750
2142,171.7,2022-10-26 10:14:44.609375
2143,209.51,2022-10-26 10:14:44.625000
2144,245.76,2022-10-26 10:14:44.640625
2145,279.41,2022-10-26 10:14:44.656250
2146,306.15,2022-10-26 10:14:44.671875
2147,322.09,2022-10-26 10:14:44.687500
2148,326.82,2022-10-26 10:14:44.703125
2149,323.14,2022-10-26 10:14:44.718750
2150,315.34,2022-10-26 10:14:44.734375
2151,305.95,2022-10-26 10:14:44.750000
2152,294.71,2022-10-26 10:14:44.765625
2153,279.31,2022-10-26 10:14:44.781250
2154,257.64,2022-10-26 10:14:44.796875
2155,229.46,2022-10-26 10:14:44.812500
2156,197.36,2022-10-26 10:14:44.828125
2157,166.38,2022-10-26 10:14:44.843750
2158,142.25,2022-10-26 10:14:44.859375
2159,129.53,2022-10-26 10:14:44.875000
2160,128.98,2022-10-26 10:14:44.890625
2161,137.38,2022-10-26 10:14:44.906250
2162,147.62,2022-10-26 10:14:44.921875
2163,151.68,2022-10-26 10:14:44.937500
2164,143.73,2022-10-26 10:14:44.953125
2165,121.89,2022-10-26 10:14:44.968750
2166,89.47,2022-10-26 10:14:44.984375
2167,53.07,2022-10-26 10:14:45.000000
2168,20.25,2022-10-26 10:14:45.015625
2169,-3.36,2022-10-26 10:14:45.031250
2170,-14.74,2022-10-26 10:14:45.046875
2171,-14.36,2022-10-26 10:14:45.062500
2172,-5.73,2022-10-26 10:14:45.078125
2173,4.93,2022-10-26 10:14:45.093750
2174,10.35,2022-10-26 10:14:45.109375
2175,4.77,2022-10-26 10:14:45.125000
2176,-14.37,2022-10-26 10:14:45.140625
2177,-44.21,2022-10-26 10:14:45.156250
2178,-78.27,2022-10-26 10:14:45.171875
2179,-108.95,2022-10-26 10:14:45.187500
2180,-130.45,2022-10-26 10:14:45.203125
2181,-140.23,2022-10-26 10:14:45.218750
2182,-138.18,2022-10-26 10:14:45.234375
2183,-125.98,2022-10-26 10:14:45.250000
2184,-106.48,2022-10-26 10:14:45.265625
2185,-84.01,2022-10-26 10:14:45.281250
2186,-64.09,2022-10-26 10:14:45.296875
2187,-52.39,2022-10-26 10:14:45.312500
2188,-52.02,2022-10-26 10:14:45.328125
2189,-60.87,2022-10-26 10:14:45.343750
2190,-72.16,2022-10-26 10:14:45.359375
2191,-76.68,2022-10-26 10:14:45.375000
2192,-68.18,2022-10-26 10:14:45.390625
2193,-46.21,2022-10-26 10:14:45.406250
2194,-17.15,2022-10-26 10:14:45.421875
2195,9.32,2022-10-26 10:14:45.437500
2196,24.69,2022-10-26 10:14:45.453125
2197,25.73,2022-10-26 10:14:45.468750
2198,15.31,2022-10-26 10:14:45.484375
2199,-0.38,2022-10-26 10:14:45.500000
2200,-14.78,2022-10-26 10:14:45.515625
2201,-23.55,2022-10-26 10:14:45.531250
2202,-24.88,2022-10-26 10:14:45.546875
2203,-18.84,2022-10-26 10:14:45.562500
2204,-6.6,2022-10-26 10:14:45.578125
2205,9.74,2022-10-26 10:14:45.593750
2206,26.68,2022-10-26 10:14:45.609375
2207,39.23,2022-10-26 10:14:45.625000
2208,42.68,2022-10-26 10:14:45.640625
2209,35.11,2022-10-26 10:14:45.656250
2210,18.04,2022-10-26 10:14:45.671875
2211,-3.71,2022-10-26 10:14:45.687500
2212,-25.0,2022-10-26 10:14:45.703125
2213,-42.64,2022-10-26 10:14:45.718750
2214,-55.43,2022-10-26 10:14:45.734375
2215,-63.21,2022-10-26 10:14:45.750000
2216,-64.79,2022-10-26 10:14:45.765625
2217,-57.51,2022-10-26 10:14:45.781250
2218,-38.72,2022-10-26 10:14:45.796875
2219,-8.84,2022-10-26 10:14:45.812500
2220,27.23,2022-10-26 10:14:45.828125
2221,61.25,2022-10-26 10:14:45.843750
2222,85.04,2022-10-26 10:14:45.859375
2223,95.15,2022-10-26 10:14:45.875000
2224,93.59,2022-10-26 10:14:45.890625
2225,86.42,2022-10-26 10:14:45.906250
2226,79.86,2022-10-26 10:14:45.921875
2227,76.82,2022-10-26 10:14:45.937500
2228,76.34,2022-10-26 10:14:45.953125
2229,76.24,2022-10-26 10:14:45.968750
2230,75.68,2022-10-26 10:14:45.984375
2231,76.33,2022-10-26 10:14:46.000000
2232,80.44,2022-10-26 10:14:46.015625
2233,88.46,2022-10-26 10:14:46.031250
2234,97.41,2022-10-26 10:14:46.046875
2235,101.99,2022-10-26 10:14:46.062500
2236,97.86,2022-10-26 10:14:46.078125
2237,84.41,2022-10-26 10:14:46.093750
2238,65.56,2022-10-26 10:14:46.109375
2239,46.38,2022-10-26 10:14:46.125000
2240,29.81,2022-10-26 10:14:46.140625
2241,15.09,2022-10-26 10:14:46.156250
2242,-1.19,2022-10-26 10:14:46.171875
2243,-21.11,2022-10-26 10:14:46.187500
2244,-43.37,2022-10-26 10:14:46.203125
2245,-63.56,2022-10-26 10:14:46.218750
2246,-77.46,2022-10-26 10:14:46.234375
2247,-83.98,2022-10-26 10:14:46.250000
2248,-85.3,2022-10-26 10:14:46.265625
2249,-83.9,2022-10-26 10:14:46.281250
2250,-78.92,2022-10-26 10:14:46.296875
2251,-65.61,2022-10-26 10:14:46.312500
2252,-39.03,2022-10-26 10:14:46.328125
2253,0.48,2022-10-26 10:14:46.343750
2254,44.4,2022-10-26 10:14:46.359375
2255,78.55,2022-10-26 10:14:46.375000
2256,89.6,2022-10-26 10:14:46.390625
2257,71.86,2022-10-26 10:14:46.406250
2258,29.77,2022-10-26 10:14:46.421875
2259,-25.58,2022-10-26 10:14:46.437500
2260,-81.94,2022-10-26 10:14:46.453125
2261,-130.05,2022-10-26 10:14:46.468750
2262,-164.79,2022-10-26 10:14:46.484375
2263,-182.57,2022-10-26 10:14:46.500000
2264,-180.24,2022-10-26 10:14:46.515625
2265,-156.34,2022-10-26 10:14:46.531250
2266,-113.81,2022-10-26 10:14:46.546875
2267,-62.16,2022-10-26 10:14:46.562500
2268,-15.18,2022-10-26 10:14:46.578125
2269,14.28,2022-10-26 10:14:46.593750
2270,20.98,2022-10-26 10:14:46.609375
2271,9.13,2022-10-26 10:14:46.625000
2272,-10.97,2022-10-26 10:14:46.640625
2273,-29.43,2022-10-26 10:14:46.656250
2274,-41.92,2022-10-26 10:14:46.671875
2275,-50.36,2022-10-26 10:14:46.687500
2276,-59.61,2022-10-26 10:14:46.703125
2277,-72.67,2022-10-26 10:14:46.718750
2278,-88.95,2022-10-26 10:14:46.734375
2279,-105.9,2022-10-26 10:14:46.750000
2280,-122.59,2022-10-26 10:14:46.765625
2281,-140.69,2022-10-26 10:14:46.781250
2282,-163.19,2022-10-26 10:14:46.796875
2283,-190.62,2022-10-26 10:14:46.812500
2284,-218.38,2022-10-26 10:14:46.828125
2285,-237.45,2022-10-26 10:14:46.843750
2286,-238.84,2022-10-26 10:14:46.859375
2287,-218.35,2022-10-26 10:14:46.875000
2288,-178.93,2022-10-26 10:14:46.890625
2289,-129.08,2022-10-26 10:14:46.906250
2290,-77.98,2022-10-26 10:14:46.921875
2291,-31.38,2022-10-26 10:14:46.937500
2292,10.59,2022-10-26 10:14:46.953125
2293,51.48,2022-10-26 10:14:46.968750
2294,94.09,2022-10-26 10:14:46.984375
2295,137.79,2022-10-26 10:14:47.000000
2296,177.89,2022-10-26 10:14:47.015625
2297,208.87,2022-10-26 10:14:47.031250
2298,227.32,2022-10-26 10:14:47.046875
2299,233.98,2022-10-26 10:14:47.062500
2300,232.61,2022-10-26 10:14:47.078125
2301,227.22,2022-10-26 10:14:47.093750
2302,220.15,2022-10-26 10:14:47.109375
2303,211.84,2022-10-26 10:14:47.125000
2304,202.09,2022-10-26 10:14:47.140625
2305,191.51,2022-10-26 10:14:47.156250
2306,182.47,2022-10-26 10:14:47.171875
2307,177.88,2022-10-26 10:14:47.187500
2308,178.56,2022-10-26 10:14:47.203125
2309,181.77,2022-10-26 10:14:47.218750
2310,181.65,2022-10-26 10:14:47.234375
2311,172.36,2022-10-26 10:14:47.250000
2312,150.67,2022-10-26 10:14:47.265625
2313,118.7,2022-10-26 10:14:47.281250
2314,83.07,2022-10-26 10:14:47.296875
2315,52.26,2022-10-26 10:14:47.312500
2316,32.68,2022-10-26 10:14:47.328125
2317,26.52,2022-10-26 10:14:47.343750
2318,30.61,2022-10-26 10:14:47.359375
2319,38.01,2022-10-26 10:14:47.375000
2320,40.54,2022-10-26 10:14:47.390625
2321,32.29,2022-10-26 10:14:47.406250
2322,12.55,2022-10-26 10:14:47.421875
2323,-14.92,2022-10-26 10:14:47.437500
2324,-44.05,2022-10-26 10:14:47.453125
2325,-69.4,2022-10-26 10:14:47.468750
2326,-88.84,2022-10-26 10:14:47.484375
2327,-102.66,2022-10-26 10:14:47.500000
2328,-112.99,2022-10-26 10:14:47.515625
2329,-121.04,2022-10-26 10:14:47.531250
2330,-126.94,2022-10-26 10:14:47.546875
2331,-129.84,2022-10-26 10:14:47.562500
2332,-128.69,2022-10-26 10:14:47.578125
2333,-123.1,2022-10-26 10:14:47.593750
2334,-113.78,2022-10-26 10:14:47.609375
2335,-101.73,2022-10-26 10:14:47.625000
2336,-87.34,2022-10-26 10:14:47.640625
2337,-70.55,2022-10-26 10:14:47.656250
2338,-49.95,2022-10-26 10:14:47.671875
2339,-23.81,2022-10-26 10:14:47.687500
2340,8.35,2022-10-26 10:14:47.703125
2341,44.95,2022-10-26 10:14:47.718750
2342,81.35,2022-10-26 10:14:47.734375
2343,111.2,2022-10-26 10:14:47.750000
2344,128.48,2022-10-26 10:14:47.765625
2345,130.09,2022-10-26 10:14:47.781250
2346,117.49,2022-10-26 10:14:47.796875
2347,96.08,2022-10-26 10:14:47.812500
2348,72.66,2022-10-26 10:14:47.828125
2349,52.41,2022-10-26 10:14:47.843750
2350,37.12,2022-10-26 10:14:47.859375
2351,26.52,2022-10-26 10:14:47.875000
2352,19.7,2022-10-26 10:14:47.890625
2353,17.09,2022-10-26 10:14:47.906250
2354,20.62,2022-10-26 10:14:47.921875
2355,31.65,2022-10-26 10:14:47.937500
2356,48.78,2022-10-26 10:14:47.953125
2357,66.92,2022-10-26 10:14:47.968750
2358,78.79,2022-10-26 10:14:47.984375
2359,78.17,2022-10-26 10:14:48.000000
2360,62.26,2022-10-26 10:14:48.015625
2361,33.86,2022-10-26 10:14:48.031250
2362,0.73,2022-10-26 10:14:48.046875
2363,-27.39,2022-10-26 10:14:48.062500
2364,-42.68,2022-10-26 10:14:48.078125
2365,-43.04,2022-10-26 10:14:48.093750
2366,-32.82,2022-10-26 10:14:48.109375
2367,-20.73,2022-10-26 10:14:48.125000
2368,-15.98,2022-10-26 10:14:48.140625
2369,-24.22,2022-10-26 10:14:48.156250
2370,-45.51,2022-10-26 10:14:48.171875
2371,-74.78,2022-10-26 10:14:48.187500
2372,-104.71,2022-10-26 10:14:48.203125
2373,-128.61,2022-10-26 10:14:48.218750
2374,-142.51,2022-10-26 10:14:48.234375
2375,-145.65,2022-10-26 10:14:48.250000
2376,-139.74,2022-10-26 10:14:48.265625
2377,-128.32,2022-10-26 10:14:48.281250
2378,-114.93,2022-10-26 10:14:48.296875
2379,-102.77,2022-10-26 10:14:48.312500
2380,-93.44,2022-10-26 10:14:48.328125
2381,-85.86,2022-10-26 10:14:48.343750
2382,-76.96,2022-10-26 10:14:48.359375
2383,-62.8,2022-10-26 10:14:48.375000
2384,-41.87,2022-10-26 10:14:48.390625
2385,-16.07,2022-10-26 10:14:48.406250
2386,9.67,2022-10-26 10:14:48.421875
2387,30.51,2022-10-26 10:14:48.437500
2388,44.31,2022-10-26 10:14:48.453125
2389,52.13,2022-10-26 10:14:48.468750
2390,56.71,2022-10-26 10:14:48.484375
2391,59.94,2022-10-26 10:14:48.500000
2392,61.61,2022-10-26 10:14:48.515625
2393,60.52,2022-10-26 10:14:48.531250
2394,56.67,2022-10-26 10:14:48.546875
2395,52.52,2022-10-26 10:14:48.562500
2396,52.42,2022-10-26 10:14:48.578125
2397,58.94,2022-10-26 10:14:48.593750
2398,70.96,2022-10-26 10:14:48.609375
2399,84.12,2022-10-26 10:14:48.625000
2400,93.09,2022-10-26 10:14:48.640625
2401,95.22,2022-10-26 10:14:48.656250
2402,91.1,2022-10-26 10:14:48.671875
2403,84.0,2022-10-26 10:14:48.687500
2404,76.53,2022-10-26 10:14:48.703125
2405,68.41,2022-10-26 10:14:48.718750
2406,57.04,2022-10-26 10:14:48.734375
2407,40.11,2022-10-26 10:14:48.750000
2408,18.66,2022-10-26 10:14:48.765625
2409,-2.29,2022-10-26 10:14:48.781250
2410,-15.29,2022-10-26 10:14:48.796875
2411,-13.99,2022-10-26 10:14:48.812500
2412,3.75,2022-10-26 10:14:48.828125
2413,34.17,2022-10-26 10:14:48.843750
2414,68.2,2022-10-26 10:14:48.859375
2415,94.27,2022-10-26 10:14:48.875000
2416,101.68,2022-10-26 10:14:48.890625
2417,84.61,2022-10-26 10:14:48.906250
2418,44.34,2022-10-26 10:14:48.921875
2419,-9.4,2022-10-26 10:14:48.937500
2420,-61.69,2022-10-26 10:14:48.953125
2421,-96.98,2022-10-26 10:14:48.968750
2422,-104.3,2022-10-26 10:14:48.984375
2423,-80.63,2022-10-26 10:14:49.000000
2424,-31.65,2022-10-26 10:14:49.015625
2425,30.4,2022-10-26 10:14:49.031250
2426,91.0,2022-10-26 10:14:49.046875
2427,137.38,2022-10-26 10:14:49.062500
2428,161.7,2022-10-26 10:14:49.078125
2429,161.22,2022-10-26 10:14:49.093750
2430,137.03,2022-10-26 10:14:49.109375
2431,92.89,2022-10-26 10:14:49.125000
2432,34.26,2022-10-26 10:14:49.140625
2433,-30.62,2022-10-26 10:14:49.156250
2434,-91.19,2022-10-26 10:14:49.171875
2435,-135.51,2022-10-26 10:14:49.187500
2436,-154.03,2022-10-26 10:14:49.203125
2437,-143.13,2022-10-26 10:14:49.218750
2438,-108.44,2022-10-26 10:14:49.234375
2439,-63.49,2022-10-26 10:14:49.250000
2440,-25.26,2022-10-26 10:14:49.265625
2441,-7.51,2022-10-26 10:14:49.281250
2442,-14.69,2022-10-26 10:14:49.296875
2443,-41.04,2022-10-26 10:14:49.312500
2444,-73.59,2022-10-26 10:14:49.328125
2445,-99.08,2022-10-26 10:14:49.343750
2446,-110.15,2022-10-26 10:14:49.359375
2447,-107.96,2022-10-26 10:14:49.375000
2448,-100.82,2022-10-26 10:14:49.390625
2449,-99.01,2022-10-26 10:14:49.406250
2450,-110.02,2022-10-26 10:14:49.421875
2451,-135.47,2022-10-26 10:14:49.437500
2452,-171.44,2022-10-26 10:14:49.453125
2453,-211.26,2022-10-26 10:14:49.468750
2454,-248.23,2022-10-26 10:14:49.484375
2455,-277.24,2022-10-26 10:14:49.500000
2456,-294.3,2022-10-26 10:14:49.515625
2457,-295.73,2022-10-26 10:14:49.531250
2458,-278.25,2022-10-26 10:14:49.546875
2459,-240.66,2022-10-26 10:14:49.562500
2460,-186.23,2022-10-26 10:14:49.578125
2461,-123.66,2022-10-26 10:14:49.593750
2462,-65.07,2022-10-26 10:14:49.609375
2463,-21.1,2022-10-26 10:14:49.625000
2464,3.76,2022-10-26 10:14:49.640625
2465,12.93,2022-10-26 10:14:49.656250
2466,15.49,2022-10-26 10:14:49.671875
2467,21.07,2022-10-26 10:14:49.687500
2468,34.12,2022-10-26 10:14:49.703125
2469,52.21,2022-10-26 10:14:49.718750
2470,67.72,2022-10-26 10:14:49.734375
2471,73.0,2022-10-26 10:14:49.750000
2472,65.18,2022-10-26 10:14:49.765625
2473,46.8,2022-10-26 10:14:49.781250
2474,24.11,2022-10-26 10:14:49.796875
2475,3.19,2022-10-26 10:14:49.812500
2476,-12.62,2022-10-26 10:14:49.828125
2477,-23.27,2022-10-26 10:14:49.843750
2478,-30.4,2022-10-26 10:14:49.859375
2479,-34.98,2022-10-26 10:14:49.875000
2480,-36.58,2022-10-26 10:14:49.890625
2481,-33.97,2022-10-26 10:14:49.906250
2482,-25.48,2022-10-26 10:14:49.921875
2483,-9.38,2022-10-26 10:14:49.937500
2484,16.16,2022-10-26 10:14:49.953125
2485,52.44,2022-10-26 10:14:49.968750
2486,99.3,2022-10-26 10:14:49.984375
2487,152.82,2022-10-26 10:14:50.000000
2488,204.68,2022-10-26 10:14:50.015625
2489,243.78,2022-10-26 10:14:50.031250
2490,259.77,2022-10-26 10:14:50.046875
2491,248.63,2022-10-26 10:14:50.062500
2492,214.66,2022-10-26 10:14:50.078125
2493,169.79,2022-10-26 10:14:50.093750
2494,128.15,2022-10-26 10:14:50.109375
2495,100.14,2022-10-26 10:14:50.125000
2496,88.64,2022-10-26 10:14:50.140625
2497,89.42,2022-10-26 10:14:50.156250
2498,94.5,2022-10-26 10:14:50.171875
2499,96.06,2022-10-26 10:14:50.187500
2500,89.59,2022-10-26 10:14:50.203125
2501,73.76,2022-10-26 10:14:50.218750
2502,49.35,2022-10-26 10:14:50.234375
2503,17.05,2022-10-26 10:14:50.250000
2504,-22.16,2022-10-26 10:14:50.265625
2505,-66.3,2022-10-26 10:14:50.281250
2506,-111.39,2022-10-26 10:14:50.296875
2507,-151.61,2022-10-26 10:14:50.312500
2508,-181.17,2022-10-26 10:14:50.328125
2509,-196.42,2022-10-26 10:14:50.343750
2510,-198.15,2022-10-26 10:14:50.359375
2511,-191.47,2022-10-26 10:14:50.375000
2512,-183.91,2022-10-26 10:14:50.390625
2513,-182.59,2022-10-26 10:14:50.406250
2514,-191.28,2022-10-26 10:14:50.421875
2515,-208.44,2022-10-26 10:14:50.437500
2516,-226.73,2022-10-26 10:14:50.453125
2517,-235.78,2022-10-26 10:14:50.468750
2518,-225.92,2022-10-26 10:14:50.484375
2519,-191.98,2022-10-26 10:14:50.500000
2520,-135.47,2022-10-26 10:14:50.515625
2521,-64.61,2022-10-26 10:14:50.531250
2522,8.39,2022-10-26 10:14:50.546875
2523,72.3,2022-10-26 10:14:50.562500
2524,120.94,2022-10-26 10:14:50.578125
2525,156.51,2022-10-26 10:14:50.593750
2526,186.35,2022-10-26 10:14:50.609375
2527,218.75,2022-10-26 10:14:50.625000
2528,257.47,2022-10-26 10:14:50.640625
2529,299.61,2022-10-26 10:14:50.656250
2530,337.9,2022-10-26 10:14:50.671875
2531,365.4,2022-10-26 10:14:50.687500
2532,380.3,2022-10-26 10:14:50.703125
2533,386.62,2022-10-26 10:14:50.718750
2534,391.81,2022-10-26 10:14:50.734375
2535,399.82,2022-10-26 10:14:50.750000
2536,407.26,2022-10-26 10:14:50.765625
2537,405.39,2022-10-26 10:14:50.781250
2538,385.1,2022-10-26 10:14:50.796875
2539,342.74,2022-10-26 10:14:50.812500
2540,284.72,2022-10-26 10:14:50.828125
2541,222.74,2022-10-26 10:14:50.843750
2542,164.07,2022-10-26 10:14:50.859375
2543,112.32,2022-10-26 10:14:50.875000
2544,67.96,2022-10-26 10:14:50.890625
2545,26.75,2022-10-26 10:14:50.906250
2546,-16.29,2022-10-26 10:14:50.921875
2547,-63.61,2022-10-26 10:14:50.937500
2548,-114.15,2022-10-26 10:14:50.953125
2549,-164.1,2022-10-26 10:14:50.968750
2550,-208.52,2022-10-26 10:14:50.984375
2551,-242.61,2022-10-26 10:14:51.000000
2552,-262.55,2022-10-26 10:14:51.015625
2553,-267.34,2022-10-26 10:14:51.031250
2554,-260.16,2022-10-26 10:14:51.046875
2555,-247.16,2022-10-26 10:14:51.062500
2556,-235.55,2022-10-26 10:14:51.078125
2557,-230.64,2022-10-26 10:14:51.093750
2558,-233.46,2022-10-26 10:14:51.109375
2559,-240.73,2022-10-26 10:14:51.125000
2560,-245.85,2022-10-26 10:14:51.140625
2561,-241.68,2022-10-26 10:14:51.156250
2562,-224.78,2022-10-26 10:14:51.171875
2563,-197.45,2022-10-26 10:14:51.187500
2564,-166.79,2022-10-26 10:14:51.203125
2565,-141.13,2022-10-26 10:14:51.218750
2566,-125.69,2022-10-26 10:14:51.234375
2567,-120.33,2022-10-26 10:14:51.250000
2568,-120.02,2022-10-26 10:14:51.265625
2569,-117.5,2022-10-26 10:14:51.281250
2570,-107.39,2022-10-26 10:14:51.296875
2571,-89.17,2022-10-26 10:14:51.312500
2572,-67.81,2022-10-26 10:14:51.328125
2573,-51.31,2022-10-26 10:14:51.343750
2574,-46.24,2022-10-26 10:14:51.359375
2575,-55.52,2022-10-26 10:14:51.375000
2576,-77.45,2022-10-26 10:14:51.390625
2577,-106.53,2022-10-26 10:14:51.406250
2578,-136.08,2022-10-26 10:14:51.421875
2579,-159.23,2022-10-26 10:14:51.437500
2580,-170.4,2022-10-26 10:14:51.453125
2581,-166.5,2022-10-26 10:14:51.468750
2582,-146.8,2022-10-26 10:14:51.484375
2583,-113.46,2022-10-26 10:14:51.500000
2584,-72.22,2022-10-26 10:14:51.515625
2585,-31.14,2022-10-26 10:14:51.531250
2586,1.04,2022-10-26 10:14:51.546875
2587,17.48,2022-10-26 10:14:51.562500
2588,15.65,2022-10-26 10:14:51.578125
2589,-1.89,2022-10-26 10:14:51.593750
2590,-28.24,2022-10-26 10:14:51.609375
2591,-54.02,2022-10-26 10:14:51.625000
2592,-69.6,2022-10-26 10:14:51.640625
2593,-67.77,2022-10-26 10:14:51.656250
2594,-45.98,2022-10-26 10:14:51.671875
2595,-7.07,2022-10-26 10:14:51.687500
2596,41.11,2022-10-26 10:14:51.703125
2597,88.25,2022-10-26 10:14:51.718750
2598,125.31,2022-10-26 10:14:51.734375
2599,146.36,2022-10-26 10:14:51.750000
2600,150.52,2022-10-26 10:14:51.765625
2601,141.39,2022-10-26 10:14:51.781250
2602,124.56,2022-10-26 10:14:51.796875
2603,106.04,2022-10-26 10:14:51.812500
2604,90.77,2022-10-26 10:14:51.828125
2605,81.3,2022-10-26 10:14:51.843750
2606,78.15,2022-10-26 10:14:51.859375
2607,80.23,2022-10-26 10:14:51.875000
2608,84.62,2022-10-26 10:14:51.890625
2609,88.0,2022-10-26 10:14:51.906250
2610,87.3,2022-10-26 10:14:51.921875
2611,80.82,2022-10-26 10:14:51.937500
2612,69.78,2022-10-26 10:14:51.953125
2613,57.55,2022-10-26 10:14:51.968750
2614,48.66,2022-10-26 10:14:51.984375
2615,47.26,2022-10-26 10:14:52.000000
2616,55.68,2022-10-26 10:14:52.015625
2617,73.66,2022-10-26 10:14:52.031250
2618,98.79,2022-10-26 10:14:52.046875
2619,127.69,2022-10-26 10:14:52.062500
2620,156.21,2022-10-26 10:14:52.078125
2621,181.63,2022-10-26 10:14:52.093750
2622,202.67,2022-10-26 10:14:52.109375
2623,218.73,2022-10-26 10:14:52.125000
2624,228.65,2022-10-26 10:14:52.140625
2625,230.02,2022-10-26 10:14:52.156250
2626,220.37,2022-10-26 10:14:52.171875
2627,198.97,2022-10-26 10:14:52.187500
2628,168.2,2022-10-26 10:14:52.203125
2629,132.51,2022-10-26 10:14:52.218750
2630,96.31,2022-10-26 10:14:52.234375
2631,59.94,2022-10-26 10:14:52.250000
2632,19.81,2022-10-26 10:14:52.265625
2633,-28.18,2022-10-26 10:14:52.281250
2634,-85.22,2022-10-26 10:14:52.296875
2635,-145.93,2022-10-26 10:14:52.312500
2636,-199.78,2022-10-26 10:14:52.328125
2637,-236.4,2022-10-26 10:14:52.343750
2638,-250.96,2022-10-26 10:14:52.359375
2639,-246.47,2022-10-26 10:14:52.375000
2640,-231.53,2022-10-26 10:14:52.390625
2641,-214.11,2022-10-26 10:14:52.406250
2642,-196.78,2022-10-26 10:14:52.421875
2643,-176.06,2022-10-26 10:14:52.437500
2644,-146.83,2022-10-26 10:14:52.453125
2645,-107.62,2022-10-26 10:14:52.468750
2646,-63.76,2022-10-26 10:14:52.484375
2647,-25.51,2022-10-26 10:14:52.500000
2648,-2.56,2022-10-26 10:14:52.515625
2649,1.08,2022-10-26 10:14:52.531250
2650,-11.56,2022-10-26 10:14:52.546875
2651,-32.36,2022-10-26 10:14:52.562500
2652,-52.83,2022-10-26 10:14:52.578125
2653,-68.13,2022-10-26 10:14:52.593750
2654,-78.48,2022-10-26 10:14:52.609375
2655,-87.56,2022-10-26 10:14:52.625000
2656,-99.04,2022-10-26 10:14:52.640625
2657,-113.47,2022-10-26 10:14:52.656250
2658,-126.79,2022-10-26 10:14:52.671875
2659,-132.34,2022-10-26 10:14:52.687500
2660,-123.94,2022-10-26 10:14:52.703125
2661,-99.51,2022-10-26 10:14:52.718750
2662,-61.78,2022-10-26 10:14:52.734375
2663,-16.88,2022-10-26 10:14:52.750000
2664,28.83,2022-10-26 10:14:52.765625
2665,71.77,2022-10-26 10:14:52.781250
2666,111.49,2022-10-26 10:14:52.796875
2667,149.35,2022-10-26 10:14:52.812500
2668,185.84,2022-10-26 10:14:52.828125
2669,219.69,2022-10-26 10:14:52.843750
2670,247.93,2022-10-26 10:14:52.859375
2671,267.55,2022-10-26 10:14:52.875000
2672,276.74,2022-10-26 10:14:52.890625
2673,274.79,2022-10-26 10:14:52.906250
2674,261.33,2022-10-26 10:14:52.921875
2675,236.16,2022-10-26 10:14:52.937500
2676,199.93,2022-10-26 10:14:52.953125
2677,155.5,2022-10-26 10:14:52.968750
2678,108.86,2022-10-26 10:14:52.984375
2679,67.47,2022-10-26 10:14:53.000000
2680,37.6,2022-10-26 10:14:53.015625
2681,22.59,2022-10-26 10:14:53.031250
2682,22.18,2022-10-26 10:14:53.046875
2683,33.26,2022-10-26 10:14:53.062500
2684,51.49,2022-10-26 10:14:53.078125
2685,72.45,2022-10-26 10:14:53.093750
2686,91.13,2022-10-26 10:14:53.109375
2687,102.68,2022-10-26 10:14:53.125000
2688,103.35,2022-10-26 10:14:53.140625
2689,92.0,2022-10-26 10:14:53.156250
2690,71.77,2022-10-26 10:14:53.171875
2691,48.42,2022-10-26 10:14:53.187500
2692,28.13,2022-10-26 10:14:53.203125
2693,14.28,2022-10-26 10:14:53.218750
2694,6.35,2022-10-26 10:14:53.234375
2695,0.63,2022-10-26 10:14:53.250000
2696,-6.92,2022-10-26 10:14:53.265625
2697,-18.71,2022-10-26 10:14:53.281250
2698,-34.26,2022-10-26 10:14:53.296875
2699,-50.96,2022-10-26 10:14:53.312500
2700,-65.97,2022-10-26 10:14:53.328125
2701,-76.89,2022-10-26 10:14:53.343750
2702,-82.74,2022-10-26 10:14:53.359375
2703,-82.59,2022-10-26 10:14:53.375000
2704,-76.09,2022-10-26 10:14:53.390625
2705,-63.32,2022-10-26 10:14:53.406250
2706,-45.68,2022-10-26 10:14:53.421875
2707,-26.55,2022-10-26 10:14:53.437500
2708,-10.07,2022-10-26 10:14:53.453125
2709,-0.54,2022-10-26 10:14:53.468750
2710,-0.03,2022-10-26 10:14:53.484375
2711,-7.1,2022-10-26 10:14:53.500000
2712,-16.9,2022-10-26 10:14:53.515625
2713,-23.18,2022-10-26 10:14:53.531250
2714,-20.5,2022-10-26 10:14:53.546875
2715,-7.45,2022-10-26 10:14:53.562500
2716,11.97,2022-10-26 10:14:53.578125
2717,30.09,2022-10-26 10:14:53.593750
2718,38.12,2022-10-26 10:14:53.609375
2719,30.72,2022-10-26 10:14:53.625000
2720,7.8,2022-10-26 10:14:53.640625
2721,-25.88,2022-10-26 10:14:53.656250
2722,-63.5,2022-10-26 10:14:53.671875
2723,-99.7,2022-10-26 10:14:53.687500
2724,-132.46,2022-10-26 10:14:53.703125
2725,-162.24,2022-10-26 10:14:53.718750
2726,-189.2,2022-10-26 10:14:53.734375
2727,-211.92,2022-10-26 10:14:53.750000
2728,-227.25,2022-10-26 10:14:53.765625
2729,-232.33,2022-10-26 10:14:53.781250
2730,-227.45,2022-10-26 10:14:53.796875
2731,-216.35,2022-10-26 10:14:53.812500
2732,-204.64,2022-10-26 10:14:53.828125
2733,-196.75,2022-10-26 10:14:53.843750
2734,-194.2,2022-10-26 10:14:53.859375
2735,-195.08,2022-10-26 10:14:53.875000
2736,-196.08,2022-10-26 10:14:53.890625
2737,-193.83,2022-10-26 10:14:53.906250
2738,-185.48,2022-10-26 10:14:53.921875
2739,-168.7,2022-10-26 10:14:53.937500
2740,-141.57,2022-10-26 10:14:53.953125
2741,-103.44,2022-10-26 10:14:53.968750
2742,-56.5,2022-10-26 10:14:53.984375
2743,-6.83,2022-10-26 10:14:54.000000
2744,37.72,2022-10-26 10:14:54.015625
2745,70.25,2022-10-26 10:14:54.031250
2746,88.54,2022-10-26 10:14:54.046875
2747,96.13,2022-10-26 10:14:54.062500
2748,100.38,2022-10-26 10:14:54.078125
2749,108.93,2022-10-26 10:14:54.093750
2750,126.19,2022-10-26 10:14:54.109375
2751,152.29,2022-10-26 10:14:54.125000
2752,183.53,2022-10-26 10:14:54.140625
2753,214.41,2022-10-26 10:14:54.156250
2754,238.97,2022-10-26 10:14:54.171875
2755,252.31,2022-10-26 10:14:54.187500
2756,250.91,2022-10-26 10:14:54.203125
2757,233.97,2022-10-26 10:14:54.218750
2758,205.37,2022-10-26 10:14:54.234375
2759,172.65,2022-10-26 10:14:54.250000
2760,144.52,2022-10-26 10:14:54.265625
2761,126.56,2022-10-26 10:14:54.281250
2762,117.43,2022-10-26 10:14:54.296875
2763,108.77,2022-10-26 10:14:54.312500
2764,88.67,2022-10-26 10:14:54.328125
2765,48.35,2022-10-26 10:14:54.343750
2766,-12.98,2022-10-26 10:14:54.359375
2767,-86.27,2022-10-26 10:14:54.375000
2768,-156.45,2022-10-26 10:14:54.390625
2769,-209.26,2022-10-26 10:14:54.406250
2770,-237.37,2022-10-26 10:14:54.421875
2771,-242.5,2022-10-26 10:14:54.437500
2772,-232.94,2022-10-26 10:14:54.453125
2773,-217.74,2022-10-26 10:14:54.468750
2774,-201.86,2022-10-26 10:14:54.484375
2775,-185.04,2022-10-26 10:14:54.500000
2776,-163.96,2022-10-26 10:14:54.515625
2777,-136.48,2022-10-26 10:14:54.531250
2778,-103.59,2022-10-26 10:14:54.546875
2779,-68.93,2022-10-26 10:14:54.562500
2780,-35.83,2022-10-26 10:14:54.578125
2781,-5.12,2022-10-26 10:14:54.593750
2782,24.37,2022-10-26 10:14:54.609375
2783,53.53,2022-10-26 10:14:54.625000
2784,79.97,2022-10-26 10:14:54.640625
2785,98.72,2022-10-26 10:14:54.656250
2786,104.36,2022-10-26 10:14:54.671875
2787,96.06,2022-10-26 10:14:54.687500
2788,78.9,2022-10-26 10:14:54.703125
2789,61.26,2022-10-26 10:14:54.718750
2790,51.06,2022-10-26 10:14:54.734375
2791,50.89,2022-10-26 10:14:54.750000
2792,58.73,2022-10-26 10:14:54.765625
2793,70.85,2022-10-26 10:14:54.781250
2794,85.74,2022-10-26 10:14:54.796875
2795,105.05,2022-10-26 10:14:54.812500
2796,131.34,2022-10-26 10:14:54.828125
2797,164.2,2022-10-26 10:14:54.843750
2798,198.18,2022-10-26 10:14:54.859375
2799,224.53,2022-10-26 10:14:54.875000
2800,235.3,2022-10-26 10:14:54.890625
2801,227.89,2022-10-26 10:14:54.906250
2802,205.34,2022-10-26 10:14:54.921875
2803,174.09,2022-10-26 10:14:54.937500
2804,139.98,2022-10-26 10:14:54.953125
2805,105.53,2022-10-26 10:14:54.968750
2806,70.66,2022-10-26 10:14:54.984375
2807,36.18,2022-10-26 10:14:55.000000
2808,7.12,2022-10-26 10:14:55.015625
2809,-7.92,2022-10-26 10:14:55.031250
2810,-0.5,2022-10-26 10:14:55.046875
2811,31.6,2022-10-26 10:14:55.062500
2812,80.97,2022-10-26 10:14:55.078125
2813,131.78,2022-10-26 10:14:55.093750
2814,166.1,2022-10-26 10:14:55.109375
2815,172.55,2022-10-26 10:14:55.125000
2816,150.31,2022-10-26 10:14:55.140625
2817,108.74,2022-10-26 10:14:55.156250
2818,61.16,2022-10-26 10:14:55.171875
2819,18.9,2022-10-26 10:14:55.187500
2820,-13.23,2022-10-26 10:14:55.203125
2821,-36.03,2022-10-26 10:14:55.218750
2822,-52.79,2022-10-26 10:14:55.234375
2823,-65.65,2022-10-26 10:14:55.250000
2824,-74.2,2022-10-26 10:14:55.265625
2825,-76.63,2022-10-26 10:14:55.281250
2826,-71.1,2022-10-26 10:14:55.296875
2827,-57.53,2022-10-26 10:14:55.312500
2828,-36.9,2022-10-26 10:14:55.328125
2829,-11.1,2022-10-26 10:14:55.343750
2830,17.33,2022-10-26 10:14:55.359375
2831,45.16,2022-10-26 10:14:55.375000
2832,67.58,2022-10-26 10:14:55.390625
2833,78.72,2022-10-26 10:14:55.406250
2834,72.85,2022-10-26 10:14:55.421875
2835,45.91,2022-10-26 10:14:55.437500
2836,-2.51,2022-10-26 10:14:55.453125
2837,-68.29,2022-10-26 10:14:55.468750
2838,-142.98,2022-10-26 10:14:55.484375
2839,-214.97,2022-10-26 10:14:55.500000
2840,-271.94,2022-10-26 10:14:55.515625
2841,-304.26,2022-10-26 10:14:55.531250
2842,-308.84,2022-10-26 10:14:55.546875
2843,-289.67,2022-10-26 10:14:55.562500
2844,-255.59,2022-10-26 10:14:55.578125
2845,-215.94,2022-10-26 10:14:55.593750
2846,-176.87,2022-10-26 10:14:55.609375
2847,-139.01,2022-10-26 10:14:55.625000
2848,-100.0,2022-10-26 10:14:55.640625
2849,-57.46,2022-10-26 10:14:55.656250
2850,-11.49,2022-10-26 10:14:55.671875
2851,35.41,2022-10-26 10:14:55.687500
2852,80.4,2022-10-26 10:14:55.703125
2853,122.55,2022-10-26 10:14:55.718750
2854,162.05,2022-10-26 10:14:55.734375
2855,198.88,2022-10-26 10:14:55.750000
2856,230.83,2022-10-26 10:14:55.765625
2857,254.14,2022-10-26 10:14:55.781250
2858,265.6,2022-10-26 10:14:55.796875
2859,264.68,2022-10-26 10:14:55.812500
2860,253.97,2022-10-26 10:14:55.828125
2861,236.91,2022-10-26 10:14:55.843750
2862,215.39,2022-10-26 10:14:55.859375
2863,188.84,2022-10-26 10:14:55.875000
2864,156.15,2022-10-26 10:14:55.890625
2865,118.51,2022-10-26 10:14:55.906250
2866,81.0,2022-10-26 10:14:55.921875
2867,51.29,2022-10-26 10:14:55.937500
2868,35.91,2022-10-26 10:14:55.953125
2869,36.72,2022-10-26 10:14:55.968750
2870,49.28,2022-10-26 10:14:55.984375
2871,64.26,2022-10-26 10:14:56.000000
2872,72.35,2022-10-26 10:14:56.015625
2873,68.74,2022-10-26 10:14:56.031250
2874,54.49,2022-10-26 10:14:56.046875
2875,35.25,2022-10-26 10:14:56.062500
2876,16.7,2022-10-26 10:14:56.078125
2877,1.06,2022-10-26 10:14:56.093750
2878,-13.39,2022-10-26 10:14:56.109375
2879,-29.35,2022-10-26 10:14:56.125000
2880,-46.8,2022-10-26 10:14:56.140625
2881,-61.21,2022-10-26 10:14:56.156250
2882,-64.47,2022-10-26 10:14:56.171875
2883,-50.19,2022-10-26 10:14:56.187500
2884,-18.65,2022-10-26 10:14:56.203125
2885,22.29,2022-10-26 10:14:56.218750
2886,59.85,2022-10-26 10:14:56.234375
2887,83.17,2022-10-26 10:14:56.250000
2888,88.31,2022-10-26 10:14:56.265625
2889,79.75,2022-10-26 10:14:56.281250
2890,66.85,2022-10-26 10:14:56.296875
2891,57.67,2022-10-26 10:14:56.312500
2892,55.36,2022-10-26 10:14:56.328125
2893,56.89,2022-10-26 10:14:56.343750
2894,56.34,2022-10-26 10:14:56.359375
2895,48.73,2022-10-26 10:14:56.375000
2896,31.43,2022-10-26 10:14:56.390625
2897,4.26,2022-10-26 10:14:56.406250
2898,-31.83,2022-10-26 10:14:56.421875
2899,-74.9,2022-10-26 10:14:56.437500
2900,-121.92,2022-10-26 10:14:56.453125
2901,-168.6,2022-10-26 10:14:56.468750
2902,-210.25,2022-10-26 10:14:56.484375
2903,-243.94,2022-10-26 10:14:56.500000
2904,-269.39,2022-10-26 10:14:56.515625
2905,-288.29,2022-10-26 10:14:56.531250
2906,-302.72,2022-10-26 10:14:56.546875
2907,-313.0,2022-10-26 10:14:56.562500
2908,-317.36,2022-10-26 10:14:56.578125
2909,-313.47,2022-10-26 10:14:56.593750
2910,-299.86,2022-10-26 10:14:56.609375
2911,-277.89,2022-10-26 10:14:56.625000
2912,-250.35,2022-10-26 10:14:56.640625
2913,-220.59,2022-10-26 10:14:56.656250
2914,-190.16,2022-10-26 10:14:56.671875
2915,-158.07,2022-10-26 10:14:56.687500
2916,-122.65,2022-10-26 10:14:56.703125
2917,-82.88,2022-10-26 10:14:56.718750
2918,-40.93,2022-10-26 10:14:56.734375
2919,-1.41,2022-10-26 10:14:56.750000
2920,29.78,2022-10-26 10:14:56.765625
2921,47.49,2022-10-26 10:14:56.781250
2922,49.78,2022-10-26 10:14:56.796875
2923,39.21,2022-10-26 10:14:56.812500
2924,22.7,2022-10-26 10:14:56.828125
2925,10.18,2022-10-26 10:14:56.843750
2926,10.38,2022-10-26 10:14:56.859375
2927,27.29,2022-10-26 10:14:56.875000
2928,58.18,2022-10-26 10:14:56.890625
2929,93.91,2022-10-26 10:14:56.906250
2930,123.65,2022-10-26 10:14:56.921875
2931,139.91,2022-10-26 10:14:56.937500
2932,141.56,2022-10-26 10:14:56.953125
2933,133.29,2022-10-26 10:14:56.968750
2934,122.17,2022-10-26 10:14:56.984375
2935,112.69,2022-10-26 10:14:57.000000
2936,104.32,2022-10-26 10:14:57.015625
2937,92.41,2022-10-26 10:14:57.031250
2938,71.61,2022-10-26 10:14:57.046875
2939,40.28,2022-10-26 10:14:57.062500
2940,1.46,2022-10-26 10:14:57.078125
2941,-38.38,2022-10-26 10:14:57.093750
2942,-73.36,2022-10-26 10:14:57.109375
2943,-101.46,2022-10-26 10:14:57.125000
2944,-124.98,2022-10-26 10:14:57.140625
2945,-148.48,2022-10-26 10:14:57.156250
2946,-174.21,2022-10-26 10:14:57.171875
2947,-199.58,2022-10-26 10:14:57.187500
2948,-217.78,2022-10-26 10:14:57.203125
2949,-220.02,2022-10-26 10:14:57.218750
2950,-200.06,2022-10-26 10:14:57.234375
2951,-156.64,2022-10-26 10:14:57.250000
2952,-94.5,2022-10-26 10:14:57.265625
2953,-22.55,2022-10-26 10:14:57.281250
2954,49.27,2022-10-26 10:14:57.296875
2955,113.04,2022-10-26 10:14:57.312500
2956,163.72,2022-10-26 10:14:57.328125
2957,199.25,2022-10-26 10:14:57.343750
2958,219.23,2022-10-26 10:14:57.359375
2959,223.73,2022-10-26 10:14:57.375000
2960,214.68,2022-10-26 10:14:57.390625
2961,195.51,2022-10-26 10:14:57.406250
2962,171.8,2022-10-26 10:14:57.421875
2963,149.52,2022-10-26 10:14:57.437500
2964,132.67,2022-10-26 10:14:57.453125
2965,121.46,2022-10-26 10:14:57.468750
2966,112.52,2022-10-26 10:14:57.484375
2967,100.44,2022-10-26 10:14:57.500000
2968,80.71,2022-10-26 10:14:57.515625
2969,51.47,2022-10-26 10:14:57.531250
2970,14.02,2022-10-26 10:14:57.546875
2971,-27.56,2022-10-26 10:14:57.562500
2972,-67.68,2022-10-26 10:14:57.578125
2973,-99.44,2022-10-26 10:14:57.593750
2974,-115.8,2022-10-26 10:14:57.609375
2975,-111.25,2022-10-26 10:14:57.625000
2976,-84.45,2022-10-26 10:14:57.640625
2977,-40.56,2022-10-26 10:14:57.656250
2978,9.93,2022-10-26 10:14:57.671875
2979,55.07,2022-10-26 10:14:57.687500
2980,85.16,2022-10-26 10:14:57.703125
2981,96.35,2022-10-26 10:14:57.718750
2982,90.16,2022-10-26 10:14:57.734375
2983,71.31,2022-10-26 10:14:57.750000
2984,45.25,2022-10-26 10:14:57.765625
2985,16.12,2022-10-26 10:14:57.781250
2986,-13.07,2022-10-26 10:14:57.796875
2987,-40.21,2022-10-26 10:14:57.812500
2988,-64.01,2022-10-26 10:14:57.828125
2989,-84.13,2022-10-26 10:14:57.843750
2990,-101.93,2022-10-26 10:14:57.859375
2991,-119.27,2022-10-26 10:14:57.875000
2992,-136.69,2022-10-26 10:14:57.890625
2993,-151.94,2022-10-26 10:14:57.906250
2994,-160.08,2022-10-26 10:14:57.921875
2995,-155.64,2022-10-26 10:14:57.937500
2996,-135.72,2022-10-26 10:14:57.953125
2997,-102.2,2022-10-26 10:14:57.968750
2998,-61.39,2022-10-26 10:14:57.984375
2999,-21.28,2022-10-26 10:14:58.000000
3000,11.38,2022-10-26 10:14:58.015625
3001,33.29,2022-10-26 10:14:58.031250
3002,44.39,2022-10-26 10:14:58.046875
3003,46.07,2022-10-26 10:14:58.062500
3004,39.67,2022-10-26 10:14:58.078125
3005,26.08,2022-10-26 10:14:58.093750
3006,6.62,2022-10-26 10:14:58.109375
3007,-15.7,2022-10-26 10:14:58.125000
3008,-35.49,2022-10-26 10:14:58.140625
3009,-47.1,2022-10-26 10:14:58.156250
3010,-47.61,2022-10-26 10:14:58.171875
3011,-38.52,2022-10-26 10:14:58.187500
3012,-26.09,2022-10-26 10:14:58.203125
3013,-17.9,2022-10-26 10:14:58.218750
3014,-19.09,2022-10-26 10:14:58.234375
3015,-29.44,2022-10-26 10:14:58.250000
3016,-43.67,2022-10-26 10:14:58.265625
3017,-55.36,2022-10-26 10:14:58.281250
3018,-59.94,2022-10-26 10:14:58.296875
3019,-56.65,2022-10-26 10:14:58.312500
3020,-47.9,2022-10-26 10:14:58.328125
3021,-35.11,2022-10-26 10:14:58.343750
3022,-17.07,2022-10-26 10:14:58.359375
3023,10.56,2022-10-26 10:14:58.375000
3024,51.89,2022-10-26 10:14:58.390625
3025,107.25,2022-10-26 10:14:58.406250
3026,170.13,2022-10-26 10:14:58.421875
3027,227.44,2022-10-26 10:14:58.437500
3028,264.18,2022-10-26 10:14:58.453125
3029,269.43,2022-10-26 10:14:58.468750
3030,240.82,2022-10-26 10:14:58.484375
3031,186.0,2022-10-26 10:14:58.500000
3032,118.93,2022-10-26 10:14:58.515625
3033,54.69,2022-10-26 10:14:58.531250
3034,4.1,2022-10-26 10:14:58.546875
3035,-28.59,2022-10-26 10:14:58.562500
3036,-45.38,2022-10-26 10:14:58.578125
3037,-51.64,2022-10-26 10:14:58.593750
3038,-53.16,2022-10-26 10:14:58.609375
3039,-54.54,2022-10-26 10:14:58.625000
3040,-57.46,2022-10-26 10:14:58.640625
3041,-60.7,2022-10-26 10:14:58.656250
3042,-60.89,2022-10-26 10:14:58.671875
3043,-54.16,2022-10-26 10:14:58.687500
3044,-38.37,2022-10-26 10:14:58.703125
3045,-15.53,2022-10-26 10:14:58.718750
3046,8.13,2022-10-26 10:14:58.734375
3047,24.71,2022-10-26 10:14:58.750000
3048,29.22,2022-10-26 10:14:58.765625
3049,22.33,2022-10-26 10:14:58.781250
3050,9.69,2022-10-26 10:14:58.796875
3051,-1.67,2022-10-26 10:14:58.812500
3052,-8.47,2022-10-26 10:14:58.828125
3053,-12.49,2022-10-26 10:14:58.843750
3054,-18.65,2022-10-26 10:14:58.859375
3055,-29.95,2022-10-26 10:14:58.875000
3056,-44.8,2022-10-26 10:14:58.890625
3057,-57.82,2022-10-26 10:14:58.906250
3058,-63.99,2022-10-26 10:14:58.921875
3059,-62.59,2022-10-26 10:14:58.937500
3060,-57.57,2022-10-26 10:14:58.953125
3061,-54.26,2022-10-26 10:14:58.968750
3062,-54.92,2022-10-26 10:14:58.984375
3063,-56.6,2022-10-26 10:14:59.000000
3064,-53.79,2022-10-26 10:14:59.015625
3065,-42.77,2022-10-26 10:14:59.031250
3066,-25.68,2022-10-26 10:14:59.046875
3067,-8.78,2022-10-26 10:14:59.062500
3068,1.25,2022-10-26 10:14:59.078125
3069,2.79,2022-10-26 10:14:59.093750
3070,0.82,2022-10-26 10:14:59.109375
3071,3.17,2022-10-26 10:14:59.125000
3072,15.44,2022-10-26 10:14:59.140625
3073,36.49,2022-10-26 10:14:59.156250
3074,58.39,2022-10-26 10:14:59.171875
3075,70.2,2022-10-26 10:14:59.187500
3076,64.17,2022-10-26 10:14:59.203125
3077,39.34,2022-10-26 10:14:59.218750
3078,1.54,2022-10-26 10:14:59.234375
3079,-39.61,2022-10-26 10:14:59.250000
3080,-75.33,2022-10-26 10:14:59.265625
3081,-99.85,2022-10-26 10:14:59.281250
3082,-110.89,2022-10-26 10:14:59.296875
3083,-108.27,2022-10-26 10:14:59.312500
3084,-93.55,2022-10-26 10:14:59.328125
3085,-70.0,2022-10-26 10:14:59.343750
3086,-42.83,2022-10-26 10:14:59.359375
3087,-18.39,2022-10-26 10:14:59.375000
3088,-2.41,2022-10-26 10:14:59.390625
3089,1.73,2022-10-26 10:14:59.406250
3090,-6.05,2022-10-26 10:14:59.421875
3091,-23.1,2022-10-26 10:14:59.437500
3092,-44.76,2022-10-26 10:14:59.453125
3093,-65.68,2022-10-26 10:14:59.468750
3094,-80.79,2022-10-26 10:14:59.484375
3095,-85.85,2022-10-26 10:14:59.500000
3096,-78.72,2022-10-26 10:14:59.515625
3097,-59.55,2022-10-26 10:14:59.531250
3098,-31.88,2022-10-26 10:14:59.546875
3099,-1.38,2022-10-26 10:14:59.562500
3100,25.62,2022-10-26 10:14:59.578125
3101,44.84,2022-10-26 10:14:59.593750
3102,55.19,2022-10-26 10:14:59.609375
3103,58.2,2022-10-26 10:14:59.625000
3104,56.0,2022-10-26 10:14:59.640625
3105,49.33,2022-10-26 10:14:59.656250
3106,37.03,2022-10-26 10:14:59.671875
3107,16.96,2022-10-26 10:14:59.687500
3108,-11.66,2022-10-26 10:14:59.703125
3109,-46.39,2022-10-26 10:14:59.718750
3110,-81.8,2022-10-26 10:14:59.734375
3111,-110.34,2022-10-26 10:14:59.750000
3112,-125.13,2022-10-26 10:14:59.765625
3113,-122.27,2022-10-26 10:14:59.781250
3114,-101.8,2022-10-26 10:14:59.796875
3115,-66.83,2022-10-26 10:14:59.812500
3116,-21.18,2022-10-26 10:14:59.828125
3117,31.77,2022-10-26 10:14:59.843750
3118,89.35,2022-10-26 10:14:59.859375
