,BVP,time
0,-119.25,2022-08-17 13:36:29.093750
1,-115.29,2022-08-17 13:36:29.109375
2,-105.64,2022-08-17 13:36:29.125000
3,-89.83,2022-08-17 13:36:29.140625
4,-68.9,2022-08-17 13:36:29.156250
5,-45.23,2022-08-17 13:36:29.171875
6,-21.74,2022-08-17 13:36:29.187500
7,-0.8,2022-08-17 13:36:29.203125
8,16.47,2022-08-17 13:36:29.218750
9,29.94,2022-08-17 13:36:29.234375
10,39.8,2022-08-17 13:36:29.250000
11,46.02,2022-08-17 13:36:29.265625
12,48.26,2022-08-17 13:36:29.281250
13,46.28,2022-08-17 13:36:29.296875
14,40.5,2022-08-17 13:36:29.312500
15,32.11,2022-08-17 13:36:29.328125
16,22.68,2022-08-17 13:36:29.343750
17,13.96,2022-08-17 13:36:29.359375
18,7.51,2022-08-17 13:36:29.375000
19,4.45,2022-08-17 13:36:29.390625
20,5.39,2022-08-17 13:36:29.406250
21,10.42,2022-08-17 13:36:29.421875
22,18.86,2022-08-17 13:36:29.437500
23,29.09,2022-08-17 13:36:29.453125
24,38.6,2022-08-17 13:36:29.468750
25,44.14,2022-08-17 13:36:29.484375
26,43.36,2022-08-17 13:36:29.500000
27,35.55,2022-08-17 13:36:29.515625
28,21.83,2022-08-17 13:36:29.531250
29,4.64,2022-08-17 13:36:29.546875
30,-13.16,2022-08-17 13:36:29.562500
31,-29.25,2022-08-17 13:36:29.578125
32,-42.35,2022-08-17 13:36:29.593750
33,-52.22,2022-08-17 13:36:29.609375
34,-59.93,2022-08-17 13:36:29.625000
35,-66.42,2022-08-17 13:36:29.640625
36,-72.14,2022-08-17 13:36:29.656250
37,-77.5,2022-08-17 13:36:29.671875
38,-83.15,2022-08-17 13:36:29.687500
39,-89.76,2022-08-17 13:36:29.703125
40,-97.58,2022-08-17 13:36:29.718750
41,-105.83,2022-08-17 13:36:29.734375
42,-112.55,2022-08-17 13:36:29.750000
43,-115.93,2022-08-17 13:36:29.765625
44,-113.63,2022-08-17 13:36:29.781250
45,-103.8,2022-08-17 13:36:29.796875
46,-86.12,2022-08-17 13:36:29.812500
47,-62.41,2022-08-17 13:36:29.828125
48,-36.34,2022-08-17 13:36:29.843750
49,-12.65,2022-08-17 13:36:29.859375
50,3.92,2022-08-17 13:36:29.875000
51,15.94,2022-08-17 13:36:29.890625
52,23.53,2022-08-17 13:36:29.906250
53,26.78,2022-08-17 13:36:29.921875
54,26.99,2022-08-17 13:36:29.937500
55,26.62,2022-08-17 13:36:29.953125
56,27.93,2022-08-17 13:36:29.968750
57,31.63,2022-08-17 13:36:29.984375
58,36.89,2022-08-17 13:36:30.000000
59,42.24,2022-08-17 13:36:30.015625
60,46.63,2022-08-17 13:36:30.031250
61,49.01,2022-08-17 13:36:30.046875
62,49.65,2022-08-17 13:36:30.062500
63,49.43,2022-08-17 13:36:30.078125
64,48.88,2022-08-17 13:36:30.093750
65,47.91,2022-08-17 13:36:30.109375
66,46.14,2022-08-17 13:36:30.125000
67,43.38,2022-08-17 13:36:30.140625
68,39.97,2022-08-17 13:36:30.156250
69,36.63,2022-08-17 13:36:30.171875
70,33.32,2022-08-17 13:36:30.187500
71,30.09,2022-08-17 13:36:30.203125
72,26.92,2022-08-17 13:36:30.218750
73,23.66,2022-08-17 13:36:30.234375
74,20.07,2022-08-17 13:36:30.250000
75,16.28,2022-08-17 13:36:30.265625
76,12.71,2022-08-17 13:36:30.281250
77,9.74,2022-08-17 13:36:30.296875
78,6.98,2022-08-17 13:36:30.312500
79,2.69,2022-08-17 13:36:30.328125
80,-5.15,2022-08-17 13:36:30.343750
81,-16.32,2022-08-17 13:36:30.359375
82,-28.4,2022-08-17 13:36:30.375000
83,-37.17,2022-08-17 13:36:30.390625
84,-37.74,2022-08-17 13:36:30.406250
85,-27.06,2022-08-17 13:36:30.421875
86,-5.86,2022-08-17 13:36:30.437500
87,20.87,2022-08-17 13:36:30.453125
88,45.48,2022-08-17 13:36:30.468750
89,61.18,2022-08-17 13:36:30.484375
90,64.93,2022-08-17 13:36:30.500000
91,58.19,2022-08-17 13:36:30.515625
92,45.29,2022-08-17 13:36:30.531250
93,31.32,2022-08-17 13:36:30.546875
94,20.19,2022-08-17 13:36:30.562500
95,13.94,2022-08-17 13:36:30.578125
96,13.07,2022-08-17 13:36:30.593750
97,17.37,2022-08-17 13:36:30.609375
98,26.21,2022-08-17 13:36:30.625000
99,37.88,2022-08-17 13:36:30.640625
100,48.67,2022-08-17 13:36:30.656250
101,52.7,2022-08-17 13:36:30.671875
102,44.87,2022-08-17 13:36:30.687500
103,23.4,2022-08-17 13:36:30.703125
104,-8.39,2022-08-17 13:36:30.718750
105,-43.74,2022-08-17 13:36:30.734375
106,-75.67,2022-08-17 13:36:30.750000
107,-100.07,2022-08-17 13:36:30.765625
108,-117.25,2022-08-17 13:36:30.781250
109,-126.94,2022-08-17 13:36:30.796875
110,-131.21,2022-08-17 13:36:30.812500
111,-131.49,2022-08-17 13:36:30.828125
112,-126.4,2022-08-17 13:36:30.843750
113,-111.14,2022-08-17 13:36:30.859375
114,-81.36,2022-08-17 13:36:30.875000
115,-37.07,2022-08-17 13:36:30.890625
116,15.64,2022-08-17 13:36:30.906250
117,66.0,2022-08-17 13:36:30.921875
118,102.47,2022-08-17 13:36:30.937500
119,116.74,2022-08-17 13:36:30.953125
120,107.97,2022-08-17 13:36:30.968750
121,83.53,2022-08-17 13:36:30.984375
122,57.25,2022-08-17 13:36:31.000000
123,42.2,2022-08-17 13:36:31.015625
124,44.78,2022-08-17 13:36:31.031250
125,62.74,2022-08-17 13:36:31.046875
126,87.59,2022-08-17 13:36:31.062500
127,109.56,2022-08-17 13:36:31.078125
128,121.33,2022-08-17 13:36:31.093750
129,121.16,2022-08-17 13:36:31.109375
130,112.91,2022-08-17 13:36:31.125000
131,104.95,2022-08-17 13:36:31.140625
132,103.93,2022-08-17 13:36:31.156250
133,111.07,2022-08-17 13:36:31.171875
134,122.67,2022-08-17 13:36:31.187500
135,133.12,2022-08-17 13:36:31.203125
136,138.79,2022-08-17 13:36:31.218750
137,139.11,2022-08-17 13:36:31.234375
138,136.07,2022-08-17 13:36:31.250000
139,122.8,2022-08-17 13:36:31.265625
140,97.91,2022-08-17 13:36:31.281250
141,66.75,2022-08-17 13:36:31.296875
142,36.0,2022-08-17 13:36:31.312500
143,7.32,2022-08-17 13:36:31.328125
144,-21.24,2022-08-17 13:36:31.343750
145,-49.46,2022-08-17 13:36:31.359375
146,-73.74,2022-08-17 13:36:31.375000
147,-89.85,2022-08-17 13:36:31.390625
148,-95.52,2022-08-17 13:36:31.406250
149,-90.72,2022-08-17 13:36:31.421875
150,-79.21,2022-08-17 13:36:31.437500
151,-67.05,2022-08-17 13:36:31.453125
152,-59.47,2022-08-17 13:36:31.468750
153,-59.31,2022-08-17 13:36:31.484375
154,-66.71,2022-08-17 13:36:31.500000
155,-78.85,2022-08-17 13:36:31.515625
156,-93.16,2022-08-17 13:36:31.531250
157,-107.2,2022-08-17 13:36:31.546875
158,-116.63,2022-08-17 13:36:31.562500
159,-117.18,2022-08-17 13:36:31.578125
160,-106.35,2022-08-17 13:36:31.593750
161,-81.17,2022-08-17 13:36:31.609375
162,-47.73,2022-08-17 13:36:31.625000
163,-14.32,2022-08-17 13:36:31.640625
164,11.81,2022-08-17 13:36:31.656250
165,26.51,2022-08-17 13:36:31.671875
166,29.93,2022-08-17 13:36:31.687500
167,25.61,2022-08-17 13:36:31.703125
168,16.52,2022-08-17 13:36:31.718750
169,2.99,2022-08-17 13:36:31.734375
170,-16.26,2022-08-17 13:36:31.750000
171,-41.16,2022-08-17 13:36:31.765625
172,-67.29,2022-08-17 13:36:31.781250
173,-85.85,2022-08-17 13:36:31.796875
174,-88.11,2022-08-17 13:36:31.812500
175,-69.73,2022-08-17 13:36:31.828125
176,-33.53,2022-08-17 13:36:31.843750
177,10.42,2022-08-17 13:36:31.859375
178,48.57,2022-08-17 13:36:31.875000
179,69.27,2022-08-17 13:36:31.890625
180,67.13,2022-08-17 13:36:31.906250
181,45.35,2022-08-17 13:36:31.921875
182,13.27,2022-08-17 13:36:31.937500
183,-18.72,2022-08-17 13:36:31.953125
184,-42.79,2022-08-17 13:36:31.968750
185,-55.68,2022-08-17 13:36:31.984375
186,-58.64,2022-08-17 13:36:32.000000
187,-55.56,2022-08-17 13:36:32.015625
188,-50.77,2022-08-17 13:36:32.031250
189,-47.58,2022-08-17 13:36:32.046875
190,-47.27,2022-08-17 13:36:32.062500
191,-48.74,2022-08-17 13:36:32.078125
192,-51.47,2022-08-17 13:36:32.093750
193,-55.43,2022-08-17 13:36:32.109375
194,-61.06,2022-08-17 13:36:32.125000
195,-68.66,2022-08-17 13:36:32.140625
196,-77.62,2022-08-17 13:36:32.156250
197,-86.3,2022-08-17 13:36:32.171875
198,-92.88,2022-08-17 13:36:32.187500
199,-96.43,2022-08-17 13:36:32.203125
200,-97.97,2022-08-17 13:36:32.218750
201,-100.34,2022-08-17 13:36:32.234375
202,-106.01,2022-08-17 13:36:32.250000
203,-114.81,2022-08-17 13:36:32.265625
204,-122.75,2022-08-17 13:36:32.281250
205,-123.13,2022-08-17 13:36:32.296875
206,-109.61,2022-08-17 13:36:32.312500
207,-79.92,2022-08-17 13:36:32.328125
208,-38.14,2022-08-17 13:36:32.343750
209,5.93,2022-08-17 13:36:32.359375
210,39.97,2022-08-17 13:36:32.375000
211,54.31,2022-08-17 13:36:32.390625
212,45.89,2022-08-17 13:36:32.406250
213,19.56,2022-08-17 13:36:32.421875
214,-13.94,2022-08-17 13:36:32.437500
215,-42.37,2022-08-17 13:36:32.453125
216,-56.61,2022-08-17 13:36:32.468750
217,-53.46,2022-08-17 13:36:32.484375
218,-35.71,2022-08-17 13:36:32.500000
219,-9.81,2022-08-17 13:36:32.515625
220,17.72,2022-08-17 13:36:32.531250
221,42.81,2022-08-17 13:36:32.546875
222,64.45,2022-08-17 13:36:32.562500
223,83.46,2022-08-17 13:36:32.578125
224,100.57,2022-08-17 13:36:32.593750
225,115.02,2022-08-17 13:36:32.609375
226,124.59,2022-08-17 13:36:32.625000
227,127.05,2022-08-17 13:36:32.640625
228,121.68,2022-08-17 13:36:32.656250
229,110.08,2022-08-17 13:36:32.671875
230,95.66,2022-08-17 13:36:32.687500
231,82.31,2022-08-17 13:36:32.703125
232,72.68,2022-08-17 13:36:32.718750
233,67.25,2022-08-17 13:36:32.734375
234,64.38,2022-08-17 13:36:32.750000
235,61.48,2022-08-17 13:36:32.765625
236,56.51,2022-08-17 13:36:32.781250
237,49.08,2022-08-17 13:36:32.796875
238,40.6,2022-08-17 13:36:32.812500
239,33.34,2022-08-17 13:36:32.828125
240,28.96,2022-08-17 13:36:32.843750
241,27.33,2022-08-17 13:36:32.859375
242,26.48,2022-08-17 13:36:32.875000
243,23.65,2022-08-17 13:36:32.890625
244,16.79,2022-08-17 13:36:32.906250
245,5.77,2022-08-17 13:36:32.921875
246,-7.58,2022-08-17 13:36:32.937500
247,-20.53,2022-08-17 13:36:32.953125
248,-30.84,2022-08-17 13:36:32.968750
249,-37.85,2022-08-17 13:36:32.984375
250,-42.48,2022-08-17 13:36:33.000000
251,-46.49,2022-08-17 13:36:33.015625
252,-51.43,2022-08-17 13:36:33.031250
253,-57.95,2022-08-17 13:36:33.046875
254,-65.66,2022-08-17 13:36:33.062500
255,-73.52,2022-08-17 13:36:33.078125
256,-80.16,2022-08-17 13:36:33.093750
257,-84.12,2022-08-17 13:36:33.109375
258,-83.95,2022-08-17 13:36:33.125000
259,-78.43,2022-08-17 13:36:33.140625
260,-66.9,2022-08-17 13:36:33.156250
261,-49.68,2022-08-17 13:36:33.171875
262,-28.23,2022-08-17 13:36:33.187500
263,-4.89,2022-08-17 13:36:33.203125
264,17.71,2022-08-17 13:36:33.218750
265,37.47,2022-08-17 13:36:33.234375
266,53.24,2022-08-17 13:36:33.250000
267,64.95,2022-08-17 13:36:33.265625
268,73.21,2022-08-17 13:36:33.281250
269,78.84,2022-08-17 13:36:33.296875
270,82.37,2022-08-17 13:36:33.312500
271,83.99,2022-08-17 13:36:33.328125
272,83.66,2022-08-17 13:36:33.343750
273,81.3,2022-08-17 13:36:33.359375
274,77.01,2022-08-17 13:36:33.375000
275,71.2,2022-08-17 13:36:33.390625
276,64.48,2022-08-17 13:36:33.406250
277,57.56,2022-08-17 13:36:33.421875
278,51.08,2022-08-17 13:36:33.437500
279,45.5,2022-08-17 13:36:33.453125
280,41.09,2022-08-17 13:36:33.468750
281,37.96,2022-08-17 13:36:33.484375
282,36.06,2022-08-17 13:36:33.500000
283,35.23,2022-08-17 13:36:33.515625
284,35.11,2022-08-17 13:36:33.531250
285,35.23,2022-08-17 13:36:33.546875
286,35.01,2022-08-17 13:36:33.562500
287,34.01,2022-08-17 13:36:33.578125
288,31.98,2022-08-17 13:36:33.593750
289,28.96,2022-08-17 13:36:33.609375
290,25.18,2022-08-17 13:36:33.625000
291,20.85,2022-08-17 13:36:33.640625
292,15.97,2022-08-17 13:36:33.656250
293,10.25,2022-08-17 13:36:33.671875
294,3.26,2022-08-17 13:36:33.687500
295,-5.39,2022-08-17 13:36:33.703125
296,-15.59,2022-08-17 13:36:33.718750
297,-26.59,2022-08-17 13:36:33.734375
298,-36.93,2022-08-17 13:36:33.750000
299,-44.76,2022-08-17 13:36:33.765625
300,-48.29,2022-08-17 13:36:33.781250
301,-46.38,2022-08-17 13:36:33.796875
302,-38.92,2022-08-17 13:36:33.812500
303,-26.95,2022-08-17 13:36:33.828125
304,-12.31,2022-08-17 13:36:33.843750
305,2.87,2022-08-17 13:36:33.859375
306,16.84,2022-08-17 13:36:33.875000
307,28.57,2022-08-17 13:36:33.890625
308,37.73,2022-08-17 13:36:33.906250
309,44.47,2022-08-17 13:36:33.921875
310,49.03,2022-08-17 13:36:33.937500
311,51.49,2022-08-17 13:36:33.953125
312,51.75,2022-08-17 13:36:33.968750
313,49.7,2022-08-17 13:36:33.984375
314,45.47,2022-08-17 13:36:34.000000
315,39.54,2022-08-17 13:36:34.015625
316,32.72,2022-08-17 13:36:34.031250
317,25.86,2022-08-17 13:36:34.046875
318,19.61,2022-08-17 13:36:34.062500
319,14.25,2022-08-17 13:36:34.078125
320,9.69,2022-08-17 13:36:34.093750
321,5.65,2022-08-17 13:36:34.109375
322,1.91,2022-08-17 13:36:34.125000
323,-1.55,2022-08-17 13:36:34.140625
324,-4.56,2022-08-17 13:36:34.156250
325,-6.86,2022-08-17 13:36:34.171875
326,-8.32,2022-08-17 13:36:34.187500
327,-9.07,2022-08-17 13:36:34.203125
328,-9.49,2022-08-17 13:36:34.218750
329,-10.06,2022-08-17 13:36:34.234375
330,-11.17,2022-08-17 13:36:34.250000
331,-13.0,2022-08-17 13:36:34.265625
332,-15.55,2022-08-17 13:36:34.281250
333,-18.69,2022-08-17 13:36:34.296875
334,-22.37,2022-08-17 13:36:34.312500
335,-26.65,2022-08-17 13:36:34.328125
336,-31.59,2022-08-17 13:36:34.343750
337,-36.99,2022-08-17 13:36:34.359375
338,-42.24,2022-08-17 13:36:34.375000
339,-46.26,2022-08-17 13:36:34.390625
340,-47.71,2022-08-17 13:36:34.406250
341,-45.49,2022-08-17 13:36:34.421875
342,-39.17,2022-08-17 13:36:34.437500
343,-29.17,2022-08-17 13:36:34.453125
344,-16.69,2022-08-17 13:36:34.468750
345,-3.29,2022-08-17 13:36:34.484375
346,9.52,2022-08-17 13:36:34.500000
347,20.66,2022-08-17 13:36:34.515625
348,29.52,2022-08-17 13:36:34.531250
349,35.87,2022-08-17 13:36:34.546875
350,39.69,2022-08-17 13:36:34.562500
351,41.06,2022-08-17 13:36:34.578125
352,40.14,2022-08-17 13:36:34.593750
353,37.22,2022-08-17 13:36:34.609375
354,32.75,2022-08-17 13:36:34.625000
355,27.29,2022-08-17 13:36:34.640625
356,21.4,2022-08-17 13:36:34.656250
357,15.62,2022-08-17 13:36:34.671875
358,10.34,2022-08-17 13:36:34.687500
359,5.82,2022-08-17 13:36:34.703125
360,2.19,2022-08-17 13:36:34.718750
361,-0.55,2022-08-17 13:36:34.734375
362,-2.53,2022-08-17 13:36:34.750000
363,-3.93,2022-08-17 13:36:34.765625
364,-5.02,2022-08-17 13:36:34.781250
365,-6.1,2022-08-17 13:36:34.796875
366,-7.42,2022-08-17 13:36:34.812500
367,-9.13,2022-08-17 13:36:34.828125
368,-11.22,2022-08-17 13:36:34.843750
369,-13.51,2022-08-17 13:36:34.859375
370,-15.74,2022-08-17 13:36:34.875000
371,-17.7,2022-08-17 13:36:34.890625
372,-19.33,2022-08-17 13:36:34.906250
373,-20.8,2022-08-17 13:36:34.921875
374,-22.52,2022-08-17 13:36:34.937500
375,-24.97,2022-08-17 13:36:34.953125
376,-28.47,2022-08-17 13:36:34.968750
377,-32.94,2022-08-17 13:36:34.984375
378,-37.79,2022-08-17 13:36:35.000000
379,-41.91,2022-08-17 13:36:35.015625
380,-43.92,2022-08-17 13:36:35.031250
381,-42.59,2022-08-17 13:36:35.046875
382,-37.15,2022-08-17 13:36:35.062500
383,-27.59,2022-08-17 13:36:35.078125
384,-14.66,2022-08-17 13:36:35.093750
385,0.3,2022-08-17 13:36:35.109375
386,15.72,2022-08-17 13:36:35.125000
387,30.14,2022-08-17 13:36:35.140625
388,42.45,2022-08-17 13:36:35.156250
389,51.99,2022-08-17 13:36:35.171875
390,58.55,2022-08-17 13:36:35.187500
391,62.2,2022-08-17 13:36:35.203125
392,63.24,2022-08-17 13:36:35.218750
393,62.03,2022-08-17 13:36:35.234375
394,58.97,2022-08-17 13:36:35.250000
395,54.5,2022-08-17 13:36:35.265625
396,49.14,2022-08-17 13:36:35.281250
397,43.47,2022-08-17 13:36:35.296875
398,38.22,2022-08-17 13:36:35.312500
399,34.01,2022-08-17 13:36:35.328125
400,31.29,2022-08-17 13:36:35.343750
401,30.08,2022-08-17 13:36:35.359375
402,30.0,2022-08-17 13:36:35.375000
403,30.36,2022-08-17 13:36:35.390625
404,30.46,2022-08-17 13:36:35.406250
405,29.81,2022-08-17 13:36:35.421875
406,28.31,2022-08-17 13:36:35.437500
407,26.17,2022-08-17 13:36:35.453125
408,23.78,2022-08-17 13:36:35.468750
409,21.54,2022-08-17 13:36:35.484375
410,19.74,2022-08-17 13:36:35.500000
411,18.53,2022-08-17 13:36:35.515625
412,18.02,2022-08-17 13:36:35.531250
413,18.2,2022-08-17 13:36:35.546875
414,18.96,2022-08-17 13:36:35.562500
415,20.08,2022-08-17 13:36:35.578125
416,21.13,2022-08-17 13:36:35.593750
417,21.64,2022-08-17 13:36:35.609375
418,21.12,2022-08-17 13:36:35.625000
419,19.28,2022-08-17 13:36:35.640625
420,16.07,2022-08-17 13:36:35.656250
421,11.74,2022-08-17 13:36:35.671875
422,6.74,2022-08-17 13:36:35.687500
423,1.64,2022-08-17 13:36:35.703125
424,-2.98,2022-08-17 13:36:35.718750
425,-6.67,2022-08-17 13:36:35.734375
426,-9.16,2022-08-17 13:36:35.750000
427,-10.46,2022-08-17 13:36:35.765625
428,-10.8,2022-08-17 13:36:35.781250
429,-10.59,2022-08-17 13:36:35.796875
430,-10.29,2022-08-17 13:36:35.812500
431,-10.35,2022-08-17 13:36:35.828125
432,-11.03,2022-08-17 13:36:35.843750
433,-12.39,2022-08-17 13:36:35.859375
434,-14.3,2022-08-17 13:36:35.875000
435,-16.51,2022-08-17 13:36:35.890625
436,-18.74,2022-08-17 13:36:35.906250
437,-20.81,2022-08-17 13:36:35.921875
438,-22.68,2022-08-17 13:36:35.937500
439,-24.36,2022-08-17 13:36:35.953125
440,-25.92,2022-08-17 13:36:35.968750
441,-27.4,2022-08-17 13:36:35.984375
442,-28.76,2022-08-17 13:36:36.000000
443,-29.97,2022-08-17 13:36:36.015625
444,-31.01,2022-08-17 13:36:36.031250
445,-31.99,2022-08-17 13:36:36.046875
446,-33.04,2022-08-17 13:36:36.062500
447,-34.4,2022-08-17 13:36:36.078125
448,-36.26,2022-08-17 13:36:36.093750
449,-38.83,2022-08-17 13:36:36.109375
450,-42.22,2022-08-17 13:36:36.125000
451,-46.29,2022-08-17 13:36:36.140625
452,-50.57,2022-08-17 13:36:36.156250
453,-54.12,2022-08-17 13:36:36.171875
454,-55.65,2022-08-17 13:36:36.187500
455,-53.91,2022-08-17 13:36:36.203125
456,-48.05,2022-08-17 13:36:36.218750
457,-38.0,2022-08-17 13:36:36.234375
458,-24.55,2022-08-17 13:36:36.250000
459,-9.13,2022-08-17 13:36:36.265625
460,6.59,2022-08-17 13:36:36.281250
461,21.11,2022-08-17 13:36:36.296875
462,33.34,2022-08-17 13:36:36.312500
463,42.68,2022-08-17 13:36:36.328125
464,48.97,2022-08-17 13:36:36.343750
465,52.31,2022-08-17 13:36:36.359375
466,53.01,2022-08-17 13:36:36.375000
467,51.5,2022-08-17 13:36:36.390625
468,48.3,2022-08-17 13:36:36.406250
469,43.96,2022-08-17 13:36:36.421875
470,39.01,2022-08-17 13:36:36.437500
471,34.0,2022-08-17 13:36:36.453125
472,29.4,2022-08-17 13:36:36.468750
473,25.63,2022-08-17 13:36:36.484375
474,22.91,2022-08-17 13:36:36.500000
475,21.31,2022-08-17 13:36:36.515625
476,20.67,2022-08-17 13:36:36.531250
477,20.77,2022-08-17 13:36:36.546875
478,21.33,2022-08-17 13:36:36.562500
479,22.12,2022-08-17 13:36:36.578125
480,22.93,2022-08-17 13:36:36.593750
481,23.52,2022-08-17 13:36:36.609375
482,23.62,2022-08-17 13:36:36.625000
483,23.06,2022-08-17 13:36:36.640625
484,21.78,2022-08-17 13:36:36.656250
485,19.97,2022-08-17 13:36:36.671875
486,17.97,2022-08-17 13:36:36.687500
487,16.15,2022-08-17 13:36:36.703125
488,14.69,2022-08-17 13:36:36.718750
489,13.49,2022-08-17 13:36:36.734375
490,12.24,2022-08-17 13:36:36.750000
491,10.57,2022-08-17 13:36:36.765625
492,8.21,2022-08-17 13:36:36.781250
493,5.19,2022-08-17 13:36:36.796875
494,1.76,2022-08-17 13:36:36.812500
495,-1.66,2022-08-17 13:36:36.828125
496,-4.64,2022-08-17 13:36:36.843750
497,-6.97,2022-08-17 13:36:36.859375
498,-8.67,2022-08-17 13:36:36.875000
499,-10.03,2022-08-17 13:36:36.890625
500,-11.42,2022-08-17 13:36:36.906250
501,-13.19,2022-08-17 13:36:36.921875
502,-15.47,2022-08-17 13:36:36.937500
503,-18.14,2022-08-17 13:36:36.953125
504,-20.91,2022-08-17 13:36:36.968750
505,-23.42,2022-08-17 13:36:36.984375
506,-25.4,2022-08-17 13:36:37.000000
507,-26.73,2022-08-17 13:36:37.015625
508,-27.51,2022-08-17 13:36:37.031250
509,-27.87,2022-08-17 13:36:37.046875
510,-28.06,2022-08-17 13:36:37.062500
511,-28.26,2022-08-17 13:36:37.078125
512,-28.57,2022-08-17 13:36:37.093750
513,-29.01,2022-08-17 13:36:37.109375
514,-29.52,2022-08-17 13:36:37.125000
515,-30.02,2022-08-17 13:36:37.140625
516,-30.44,2022-08-17 13:36:37.156250
517,-30.85,2022-08-17 13:36:37.171875
518,-31.47,2022-08-17 13:36:37.187500
519,-32.66,2022-08-17 13:36:37.203125
520,-34.76,2022-08-17 13:36:37.218750
521,-37.91,2022-08-17 13:36:37.234375
522,-41.83,2022-08-17 13:36:37.250000
523,-45.77,2022-08-17 13:36:37.265625
524,-48.64,2022-08-17 13:36:37.281250
525,-49.31,2022-08-17 13:36:37.296875
526,-46.9,2022-08-17 13:36:37.312500
527,-41.12,2022-08-17 13:36:37.328125
528,-32.34,2022-08-17 13:36:37.343750
529,-21.41,2022-08-17 13:36:37.359375
530,-9.47,2022-08-17 13:36:37.375000
531,2.39,2022-08-17 13:36:37.390625
532,13.32,2022-08-17 13:36:37.406250
533,22.73,2022-08-17 13:36:37.421875
534,30.36,2022-08-17 13:36:37.437500
535,36.09,2022-08-17 13:36:37.453125
536,40.0,2022-08-17 13:36:37.468750
537,42.27,2022-08-17 13:36:37.484375
538,43.11,2022-08-17 13:36:37.500000
539,42.78,2022-08-17 13:36:37.515625
540,41.51,2022-08-17 13:36:37.531250
541,39.48,2022-08-17 13:36:37.546875
542,36.91,2022-08-17 13:36:37.562500
543,34.01,2022-08-17 13:36:37.578125
544,31.05,2022-08-17 13:36:37.593750
545,28.27,2022-08-17 13:36:37.609375
546,25.87,2022-08-17 13:36:37.625000
547,23.96,2022-08-17 13:36:37.640625
548,22.59,2022-08-17 13:36:37.656250
549,21.66,2022-08-17 13:36:37.671875
550,21.02,2022-08-17 13:36:37.687500
551,20.44,2022-08-17 13:36:37.703125
552,19.62,2022-08-17 13:36:37.718750
553,18.3,2022-08-17 13:36:37.734375
554,16.33,2022-08-17 13:36:37.750000
555,13.76,2022-08-17 13:36:37.765625
556,10.83,2022-08-17 13:36:37.781250
557,7.94,2022-08-17 13:36:37.796875
558,5.47,2022-08-17 13:36:37.812500
559,3.64,2022-08-17 13:36:37.828125
560,2.45,2022-08-17 13:36:37.843750
561,1.65,2022-08-17 13:36:37.859375
562,0.9,2022-08-17 13:36:37.875000
563,-0.12,2022-08-17 13:36:37.890625
564,-1.58,2022-08-17 13:36:37.906250
565,-3.47,2022-08-17 13:36:37.921875
566,-5.69,2022-08-17 13:36:37.937500
567,-8.08,2022-08-17 13:36:37.953125
568,-10.56,2022-08-17 13:36:37.968750
569,-13.07,2022-08-17 13:36:37.984375
570,-15.56,2022-08-17 13:36:38.000000
571,-17.94,2022-08-17 13:36:38.015625
572,-20.01,2022-08-17 13:36:38.031250
573,-21.55,2022-08-17 13:36:38.046875
574,-22.45,2022-08-17 13:36:38.062500
575,-22.72,2022-08-17 13:36:38.078125
576,-22.6,2022-08-17 13:36:38.093750
577,-22.41,2022-08-17 13:36:38.109375
578,-22.52,2022-08-17 13:36:38.125000
579,-23.13,2022-08-17 13:36:38.140625
580,-24.27,2022-08-17 13:36:38.156250
581,-25.79,2022-08-17 13:36:38.171875
582,-27.3,2022-08-17 13:36:38.187500
583,-28.25,2022-08-17 13:36:38.203125
584,-28.04,2022-08-17 13:36:38.218750
585,-26.09,2022-08-17 13:36:38.234375
586,-22.06,2022-08-17 13:36:38.250000
587,-16.01,2022-08-17 13:36:38.265625
588,-8.37,2022-08-17 13:36:38.281250
589,0.07,2022-08-17 13:36:38.296875
590,8.47,2022-08-17 13:36:38.312500
591,16.07,2022-08-17 13:36:38.328125
592,22.37,2022-08-17 13:36:38.343750
593,27.17,2022-08-17 13:36:38.359375
594,30.44,2022-08-17 13:36:38.375000
595,32.31,2022-08-17 13:36:38.390625
596,32.88,2022-08-17 13:36:38.406250
597,32.31,2022-08-17 13:36:38.421875
598,30.79,2022-08-17 13:36:38.437500
599,28.57,2022-08-17 13:36:38.453125
600,26.02,2022-08-17 13:36:38.468750
601,23.49,2022-08-17 13:36:38.484375
602,21.32,2022-08-17 13:36:38.500000
603,19.7,2022-08-17 13:36:38.515625
604,18.68,2022-08-17 13:36:38.531250
605,18.15,2022-08-17 13:36:38.546875
606,17.97,2022-08-17 13:36:38.562500
607,17.98,2022-08-17 13:36:38.578125
608,18.11,2022-08-17 13:36:38.593750
609,18.32,2022-08-17 13:36:38.609375
610,18.56,2022-08-17 13:36:38.625000
611,18.77,2022-08-17 13:36:38.640625
612,18.85,2022-08-17 13:36:38.656250
613,18.72,2022-08-17 13:36:38.671875
614,18.32,2022-08-17 13:36:38.687500
615,17.65,2022-08-17 13:36:38.703125
616,16.69,2022-08-17 13:36:38.718750
617,15.38,2022-08-17 13:36:38.734375
618,13.68,2022-08-17 13:36:38.750000
619,11.56,2022-08-17 13:36:38.765625
620,9.12,2022-08-17 13:36:38.781250
621,6.53,2022-08-17 13:36:38.796875
622,4.01,2022-08-17 13:36:38.812500
623,1.77,2022-08-17 13:36:38.828125
624,-0.06,2022-08-17 13:36:38.843750
625,-1.53,2022-08-17 13:36:38.859375
626,-2.76,2022-08-17 13:36:38.875000
627,-3.95,2022-08-17 13:36:38.890625
628,-5.29,2022-08-17 13:36:38.906250
629,-6.92,2022-08-17 13:36:38.921875
630,-8.95,2022-08-17 13:36:38.937500
631,-11.41,2022-08-17 13:36:38.953125
632,-14.32,2022-08-17 13:36:38.968750
633,-17.67,2022-08-17 13:36:38.984375
634,-21.35,2022-08-17 13:36:39.000000
635,-25.27,2022-08-17 13:36:39.015625
636,-29.25,2022-08-17 13:36:39.031250
637,-33.17,2022-08-17 13:36:39.046875
638,-36.93,2022-08-17 13:36:39.062500
639,-40.41,2022-08-17 13:36:39.078125
640,-43.42,2022-08-17 13:36:39.093750
641,-45.66,2022-08-17 13:36:39.109375
642,-46.68,2022-08-17 13:36:39.125000
643,-46.05,2022-08-17 13:36:39.140625
644,-43.46,2022-08-17 13:36:39.156250
645,-38.85,2022-08-17 13:36:39.171875
646,-32.48,2022-08-17 13:36:39.187500
647,-24.8,2022-08-17 13:36:39.203125
648,-16.42,2022-08-17 13:36:39.218750
649,-8.0,2022-08-17 13:36:39.234375
650,-0.17,2022-08-17 13:36:39.250000
651,6.5,2022-08-17 13:36:39.265625
652,11.62,2022-08-17 13:36:39.281250
653,14.99,2022-08-17 13:36:39.296875
654,16.63,2022-08-17 13:36:39.312500
655,16.79,2022-08-17 13:36:39.328125
656,15.84,2022-08-17 13:36:39.343750
657,14.2,2022-08-17 13:36:39.359375
658,12.22,2022-08-17 13:36:39.375000
659,10.22,2022-08-17 13:36:39.390625
660,8.47,2022-08-17 13:36:39.406250
661,7.14,2022-08-17 13:36:39.421875
662,6.34,2022-08-17 13:36:39.437500
663,6.02,2022-08-17 13:36:39.453125
664,6.06,2022-08-17 13:36:39.468750
665,6.3,2022-08-17 13:36:39.484375
666,6.62,2022-08-17 13:36:39.500000
667,6.99,2022-08-17 13:36:39.515625
668,7.4,2022-08-17 13:36:39.531250
669,7.81,2022-08-17 13:36:39.546875
670,8.08,2022-08-17 13:36:39.562500
671,7.97,2022-08-17 13:36:39.578125
672,7.27,2022-08-17 13:36:39.593750
673,5.91,2022-08-17 13:36:39.609375
674,3.98,2022-08-17 13:36:39.625000
675,1.77,2022-08-17 13:36:39.640625
676,-0.46,2022-08-17 13:36:39.656250
677,-2.51,2022-08-17 13:36:39.671875
678,-4.42,2022-08-17 13:36:39.687500
679,-6.37,2022-08-17 13:36:39.703125
680,-8.62,2022-08-17 13:36:39.718750
681,-11.38,2022-08-17 13:36:39.734375
682,-14.73,2022-08-17 13:36:39.750000
683,-18.54,2022-08-17 13:36:39.765625
684,-22.55,2022-08-17 13:36:39.781250
685,-26.36,2022-08-17 13:36:39.796875
686,-29.61,2022-08-17 13:36:39.812500
687,-32.04,2022-08-17 13:36:39.828125
688,-33.63,2022-08-17 13:36:39.843750
689,-34.53,2022-08-17 13:36:39.859375
690,-35.11,2022-08-17 13:36:39.875000
691,-35.76,2022-08-17 13:36:39.890625
692,-36.8,2022-08-17 13:36:39.906250
693,-38.33,2022-08-17 13:36:39.921875
694,-40.2,2022-08-17 13:36:39.937500
695,-41.96,2022-08-17 13:36:39.953125
696,-42.98,2022-08-17 13:36:39.968750
697,-42.56,2022-08-17 13:36:39.984375
698,-40.07,2022-08-17 13:36:40.000000
699,-35.19,2022-08-17 13:36:40.015625
700,-27.98,2022-08-17 13:36:40.031250
701,-18.99,2022-08-17 13:36:40.046875
702,-9.11,2022-08-17 13:36:40.062500
703,0.62,2022-08-17 13:36:40.078125
704,9.29,2022-08-17 13:36:40.093750
705,16.3,2022-08-17 13:36:40.109375
706,21.44,2022-08-17 13:36:40.125000
707,24.79,2022-08-17 13:36:40.140625
708,26.61,2022-08-17 13:36:40.156250
709,27.15,2022-08-17 13:36:40.171875
710,26.66,2022-08-17 13:36:40.187500
711,25.37,2022-08-17 13:36:40.203125
712,23.53,2022-08-17 13:36:40.218750
713,21.44,2022-08-17 13:36:40.234375
714,19.39,2022-08-17 13:36:40.250000
715,17.62,2022-08-17 13:36:40.265625
716,16.24,2022-08-17 13:36:40.281250
717,15.23,2022-08-17 13:36:40.296875
718,14.48,2022-08-17 13:36:40.312500
719,13.88,2022-08-17 13:36:40.328125
720,13.35,2022-08-17 13:36:40.343750
721,12.85,2022-08-17 13:36:40.359375
722,12.42,2022-08-17 13:36:40.375000
723,12.06,2022-08-17 13:36:40.390625
724,11.79,2022-08-17 13:36:40.406250
725,11.56,2022-08-17 13:36:40.421875
726,11.28,2022-08-17 13:36:40.437500
727,10.9,2022-08-17 13:36:40.453125
728,10.4,2022-08-17 13:36:40.468750
729,9.83,2022-08-17 13:36:40.484375
730,9.24,2022-08-17 13:36:40.500000
731,8.63,2022-08-17 13:36:40.515625
732,7.91,2022-08-17 13:36:40.531250
733,6.91,2022-08-17 13:36:40.546875
734,5.47,2022-08-17 13:36:40.562500
735,3.54,2022-08-17 13:36:40.578125
736,1.27,2022-08-17 13:36:40.593750
737,-1.1,2022-08-17 13:36:40.609375
738,-3.28,2022-08-17 13:36:40.625000
739,-5.17,2022-08-17 13:36:40.640625
740,-6.89,2022-08-17 13:36:40.656250
741,-8.77,2022-08-17 13:36:40.671875
742,-11.24,2022-08-17 13:36:40.687500
743,-14.61,2022-08-17 13:36:40.703125
744,-18.85,2022-08-17 13:36:40.718750
745,-23.54,2022-08-17 13:36:40.734375
746,-27.88,2022-08-17 13:36:40.750000
747,-30.87,2022-08-17 13:36:40.765625
748,-31.66,2022-08-17 13:36:40.781250
749,-29.72,2022-08-17 13:36:40.796875
750,-25.12,2022-08-17 13:36:40.812500
751,-18.43,2022-08-17 13:36:40.828125
752,-10.61,2022-08-17 13:36:40.843750
753,-2.74,2022-08-17 13:36:40.859375
754,4.23,2022-08-17 13:36:40.875000
755,9.66,2022-08-17 13:36:40.890625
756,13.28,2022-08-17 13:36:40.906250
757,15.14,2022-08-17 13:36:40.921875
758,15.53,2022-08-17 13:36:40.937500
759,14.76,2022-08-17 13:36:40.953125
760,13.1,2022-08-17 13:36:40.968750
761,10.68,2022-08-17 13:36:40.984375
762,7.59,2022-08-17 13:36:41.000000
763,3.97,2022-08-17 13:36:41.015625
764,0.1,2022-08-17 13:36:41.031250
765,-3.55,2022-08-17 13:36:41.046875
766,-6.52,2022-08-17 13:36:41.062500
767,-8.44,2022-08-17 13:36:41.078125
768,-9.21,2022-08-17 13:36:41.093750
769,-8.97,2022-08-17 13:36:41.109375
770,-7.95,2022-08-17 13:36:41.125000
771,-6.34,2022-08-17 13:36:41.140625
772,-4.23,2022-08-17 13:36:41.156250
773,-1.72,2022-08-17 13:36:41.171875
774,0.96,2022-08-17 13:36:41.187500
775,3.28,2022-08-17 13:36:41.203125
776,4.55,2022-08-17 13:36:41.218750
777,4.17,2022-08-17 13:36:41.234375
778,1.93,2022-08-17 13:36:41.250000
779,-1.79,2022-08-17 13:36:41.265625
780,-6.15,2022-08-17 13:36:41.281250
781,-10.23,2022-08-17 13:36:41.296875
782,-13.36,2022-08-17 13:36:41.312500
783,-15.38,2022-08-17 13:36:41.328125
784,-16.62,2022-08-17 13:36:41.343750
785,-17.54,2022-08-17 13:36:41.359375
786,-18.47,2022-08-17 13:36:41.375000
787,-19.32,2022-08-17 13:36:41.390625
788,-19.74,2022-08-17 13:36:41.406250
789,-19.31,2022-08-17 13:36:41.421875
790,-17.83,2022-08-17 13:36:41.437500
791,-15.45,2022-08-17 13:36:41.453125
792,-12.52,2022-08-17 13:36:41.468750
793,-9.42,2022-08-17 13:36:41.484375
794,-6.28,2022-08-17 13:36:41.500000
795,-3.03,2022-08-17 13:36:41.515625
796,0.49,2022-08-17 13:36:41.531250
797,4.29,2022-08-17 13:36:41.546875
798,8.09,2022-08-17 13:36:41.562500
799,11.38,2022-08-17 13:36:41.578125
800,13.61,2022-08-17 13:36:41.593750
801,14.38,2022-08-17 13:36:41.609375
802,13.54,2022-08-17 13:36:41.625000
803,11.11,2022-08-17 13:36:41.640625
804,7.17,2022-08-17 13:36:41.656250
805,1.72,2022-08-17 13:36:41.671875
806,-5.09,2022-08-17 13:36:41.687500
807,-12.83,2022-08-17 13:36:41.703125
808,-20.5,2022-08-17 13:36:41.718750
809,-26.65,2022-08-17 13:36:41.734375
810,-29.81,2022-08-17 13:36:41.750000
811,-28.97,2022-08-17 13:36:41.765625
812,-24.14,2022-08-17 13:36:41.781250
813,-16.35,2022-08-17 13:36:41.796875
814,-7.4,2022-08-17 13:36:41.812500
815,0.92,2022-08-17 13:36:41.828125
816,7.33,2022-08-17 13:36:41.843750
817,11.4,2022-08-17 13:36:41.859375
818,13.47,2022-08-17 13:36:41.875000
819,14.15,2022-08-17 13:36:41.890625
820,13.97,2022-08-17 13:36:41.906250
821,13.17,2022-08-17 13:36:41.921875
822,11.69,2022-08-17 13:36:41.937500
823,9.42,2022-08-17 13:36:41.953125
824,6.39,2022-08-17 13:36:41.968750
825,2.77,2022-08-17 13:36:41.984375
826,-1.21,2022-08-17 13:36:42.000000
827,-5.32,2022-08-17 13:36:42.015625
828,-9.29,2022-08-17 13:36:42.031250
829,-12.78,2022-08-17 13:36:42.046875
830,-15.28,2022-08-17 13:36:42.062500
831,-16.18,2022-08-17 13:36:42.078125
832,-15.06,2022-08-17 13:36:42.093750
833,-11.87,2022-08-17 13:36:42.109375
834,-7.11,2022-08-17 13:36:42.125000
835,-1.76,2022-08-17 13:36:42.140625
836,3.13,2022-08-17 13:36:42.156250
837,6.79,2022-08-17 13:36:42.171875
838,9.08,2022-08-17 13:36:42.187500
839,10.47,2022-08-17 13:36:42.203125
840,11.85,2022-08-17 13:36:42.218750
841,14.11,2022-08-17 13:36:42.234375
842,17.79,2022-08-17 13:36:42.250000
843,22.9,2022-08-17 13:36:42.265625
844,28.93,2022-08-17 13:36:42.281250
845,35.06,2022-08-17 13:36:42.296875
846,40.42,2022-08-17 13:36:42.312500
847,44.39,2022-08-17 13:36:42.328125
848,46.64,2022-08-17 13:36:42.343750
849,47.16,2022-08-17 13:36:42.359375
850,46.1,2022-08-17 13:36:42.375000
851,43.64,2022-08-17 13:36:42.390625
852,39.97,2022-08-17 13:36:42.406250
853,35.32,2022-08-17 13:36:42.421875
854,30.08,2022-08-17 13:36:42.437500
855,24.82,2022-08-17 13:36:42.453125
856,20.23,2022-08-17 13:36:42.468750
857,16.92,2022-08-17 13:36:42.484375
858,15.18,2022-08-17 13:36:42.500000
859,14.92,2022-08-17 13:36:42.515625
860,15.71,2022-08-17 13:36:42.531250
861,16.94,2022-08-17 13:36:42.546875
862,18.12,2022-08-17 13:36:42.562500
863,18.93,2022-08-17 13:36:42.578125
864,19.23,2022-08-17 13:36:42.593750
865,19.06,2022-08-17 13:36:42.609375
866,18.5,2022-08-17 13:36:42.625000
867,17.72,2022-08-17 13:36:42.640625
868,16.92,2022-08-17 13:36:42.656250
869,16.38,2022-08-17 13:36:42.671875
870,16.37,2022-08-17 13:36:42.687500
871,17.04,2022-08-17 13:36:42.703125
872,18.33,2022-08-17 13:36:42.718750
873,19.9,2022-08-17 13:36:42.734375
874,21.34,2022-08-17 13:36:42.750000
875,22.39,2022-08-17 13:36:42.765625
876,23.1,2022-08-17 13:36:42.781250
877,23.89,2022-08-17 13:36:42.796875
878,25.38,2022-08-17 13:36:42.812500
879,28.08,2022-08-17 13:36:42.828125
880,32.12,2022-08-17 13:36:42.843750
881,37.06,2022-08-17 13:36:42.859375
882,41.85,2022-08-17 13:36:42.875000
883,45.32,2022-08-17 13:36:42.890625
884,46.7,2022-08-17 13:36:42.906250
885,45.92,2022-08-17 13:36:42.921875
886,43.72,2022-08-17 13:36:42.937500
887,41.52,2022-08-17 13:36:42.953125
888,40.84,2022-08-17 13:36:42.968750
889,42.68,2022-08-17 13:36:42.984375
890,46.9,2022-08-17 13:36:43.000000
891,51.54,2022-08-17 13:36:43.015625
892,53.9,2022-08-17 13:36:43.031250
893,51.35,2022-08-17 13:36:43.046875
894,42.51,2022-08-17 13:36:43.062500
895,28.1,2022-08-17 13:36:43.078125
896,10.9,2022-08-17 13:36:43.093750
897,-5.0,2022-08-17 13:36:43.109375
898,-15.5,2022-08-17 13:36:43.125000
899,-17.66,2022-08-17 13:36:43.140625
900,-11.36,2022-08-17 13:36:43.156250
901,1.13,2022-08-17 13:36:43.171875
902,15.08,2022-08-17 13:36:43.187500
903,24.02,2022-08-17 13:36:43.203125
904,21.52,2022-08-17 13:36:43.218750
905,3.66,2022-08-17 13:36:43.234375
906,-28.81,2022-08-17 13:36:43.250000
907,-69.95,2022-08-17 13:36:43.265625
908,-110.26,2022-08-17 13:36:43.281250
909,-141.1,2022-08-17 13:36:43.296875
910,-157.08,2022-08-17 13:36:43.312500
911,-157.86,2022-08-17 13:36:43.328125
912,-147.49,2022-08-17 13:36:43.343750
913,-131.67,2022-08-17 13:36:43.359375
914,-115.39,2022-08-17 13:36:43.375000
915,-101.94,2022-08-17 13:36:43.390625
916,-93.63,2022-08-17 13:36:43.406250
917,-86.99,2022-08-17 13:36:43.421875
918,-80.84,2022-08-17 13:36:43.437500
919,-73.91,2022-08-17 13:36:43.453125
920,-63.76,2022-08-17 13:36:43.468750
921,-47.26,2022-08-17 13:36:43.484375
922,-22.41,2022-08-17 13:36:43.500000
923,9.26,2022-08-17 13:36:43.515625
924,42.57,2022-08-17 13:36:43.531250
925,70.89,2022-08-17 13:36:43.546875
926,89.86,2022-08-17 13:36:43.562500
927,98.6,2022-08-17 13:36:43.578125
928,100.43,2022-08-17 13:36:43.593750
929,100.03,2022-08-17 13:36:43.609375
930,100.22,2022-08-17 13:36:43.625000
931,101.43,2022-08-17 13:36:43.640625
932,102.41,2022-08-17 13:36:43.656250
933,102.62,2022-08-17 13:36:43.671875
934,102.72,2022-08-17 13:36:43.687500
935,104.11,2022-08-17 13:36:43.703125
936,106.94,2022-08-17 13:36:43.718750
937,110.14,2022-08-17 13:36:43.734375
938,111.55,2022-08-17 13:36:43.750000
939,108.4,2022-08-17 13:36:43.765625
940,99.49,2022-08-17 13:36:43.781250
941,85.91,2022-08-17 13:36:43.796875
942,70.66,2022-08-17 13:36:43.812500
943,57.17,2022-08-17 13:36:43.828125
944,47.52,2022-08-17 13:36:43.843750
945,40.93,2022-08-17 13:36:43.859375
946,34.13,2022-08-17 13:36:43.875000
947,26.19,2022-08-17 13:36:43.890625
948,15.08,2022-08-17 13:36:43.906250
949,0.08,2022-08-17 13:36:43.921875
950,-17.55,2022-08-17 13:36:43.937500
951,-34.86,2022-08-17 13:36:43.953125
952,-48.52,2022-08-17 13:36:43.968750
953,-56.13,2022-08-17 13:36:43.984375
954,-57.49,2022-08-17 13:36:44.000000
955,-54.44,2022-08-17 13:36:44.015625
956,-49.95,2022-08-17 13:36:44.031250
957,-47.51,2022-08-17 13:36:44.046875
958,-49.07,2022-08-17 13:36:44.062500
959,-54.51,2022-08-17 13:36:44.078125
960,-61.81,2022-08-17 13:36:44.093750
961,-68.1,2022-08-17 13:36:44.109375
962,-70.89,2022-08-17 13:36:44.125000
963,-69.31,2022-08-17 13:36:44.140625
964,-64.48,2022-08-17 13:36:44.156250
965,-58.97,2022-08-17 13:36:44.171875
966,-56.14,2022-08-17 13:36:44.187500
967,-58.15,2022-08-17 13:36:44.203125
968,-65.03,2022-08-17 13:36:44.218750
969,-74.71,2022-08-17 13:36:44.234375
970,-84.05,2022-08-17 13:36:44.250000
971,-90.48,2022-08-17 13:36:44.265625
972,-93.05,2022-08-17 13:36:44.281250
973,-92.49,2022-08-17 13:36:44.296875
974,-90.33,2022-08-17 13:36:44.312500
975,-88.22,2022-08-17 13:36:44.328125
976,-86.92,2022-08-17 13:36:44.343750
977,-86.4,2022-08-17 13:36:44.359375
978,-86.35,2022-08-17 13:36:44.375000
979,-86.47,2022-08-17 13:36:44.390625
980,-86.37,2022-08-17 13:36:44.406250
981,-85.42,2022-08-17 13:36:44.421875
982,-82.45,2022-08-17 13:36:44.437500
983,-76.41,2022-08-17 13:36:44.453125
984,-67.53,2022-08-17 13:36:44.468750
985,-57.83,2022-08-17 13:36:44.484375
986,-50.53,2022-08-17 13:36:44.500000
987,-48.49,2022-08-17 13:36:44.515625
988,-52.41,2022-08-17 13:36:44.531250
989,-60.23,2022-08-17 13:36:44.546875
990,-68.55,2022-08-17 13:36:44.562500
991,-73.78,2022-08-17 13:36:44.578125
992,-73.72,2022-08-17 13:36:44.593750
993,-68.54,2022-08-17 13:36:44.609375
994,-60.22,2022-08-17 13:36:44.625000
995,-51.12,2022-08-17 13:36:44.640625
996,-42.35,2022-08-17 13:36:44.656250
997,-33.35,2022-08-17 13:36:44.671875
998,-22.52,2022-08-17 13:36:44.687500
999,-9.82,2022-08-17 13:36:44.703125
1000,3.94,2022-08-17 13:36:44.718750
1001,17.39,2022-08-17 13:36:44.734375
1002,29.18,2022-08-17 13:36:44.750000
1003,38.34,2022-08-17 13:36:44.765625
1004,44.73,2022-08-17 13:36:44.781250
1005,49.22,2022-08-17 13:36:44.796875
1006,53.41,2022-08-17 13:36:44.812500
1007,58.95,2022-08-17 13:36:44.828125
1008,65.0,2022-08-17 13:36:44.843750
1009,70.42,2022-08-17 13:36:44.859375
1010,74.18,2022-08-17 13:36:44.875000
1011,75.08,2022-08-17 13:36:44.890625
1012,71.08,2022-08-17 13:36:44.906250
1013,59.62,2022-08-17 13:36:44.921875
1014,38.88,2022-08-17 13:36:44.937500
1015,8.92,2022-08-17 13:36:44.953125
1016,-28.07,2022-08-17 13:36:44.968750
1017,-70.59,2022-08-17 13:36:44.984375
1018,-115.27,2022-08-17 13:36:45.000000
1019,-157.14,2022-08-17 13:36:45.015625
1020,-190.89,2022-08-17 13:36:45.031250
1021,-212.79,2022-08-17 13:36:45.046875
1022,-221.75,2022-08-17 13:36:45.062500
1023,-219.42,2022-08-17 13:36:45.078125
1024,-209.61,2022-08-17 13:36:45.093750
1025,-182.03,2022-08-17 13:36:45.109375
1026,-136.15,2022-08-17 13:36:45.125000
1027,-80.74,2022-08-17 13:36:45.140625
1028,-28.37,2022-08-17 13:36:45.156250
1029,13.04,2022-08-17 13:36:45.171875
1030,42.06,2022-08-17 13:36:45.187500
1031,60.82,2022-08-17 13:36:45.203125
1032,72.59,2022-08-17 13:36:45.218750
1033,81.17,2022-08-17 13:36:45.234375
1034,90.66,2022-08-17 13:36:45.250000
1035,101.73,2022-08-17 13:36:45.265625
1036,113.42,2022-08-17 13:36:45.281250
1037,123.45,2022-08-17 13:36:45.296875
1038,129.56,2022-08-17 13:36:45.312500
1039,129.69,2022-08-17 13:36:45.328125
1040,123.08,2022-08-17 13:36:45.343750
1041,111.14,2022-08-17 13:36:45.359375
1042,97.5,2022-08-17 13:36:45.375000
1043,86.55,2022-08-17 13:36:45.390625
1044,79.54,2022-08-17 13:36:45.406250
1045,75.92,2022-08-17 13:36:45.421875
1046,74.16,2022-08-17 13:36:45.437500
1047,72.85,2022-08-17 13:36:45.453125
1048,70.58,2022-08-17 13:36:45.468750
1049,66.52,2022-08-17 13:36:45.484375
1050,60.93,2022-08-17 13:36:45.500000
1051,54.1,2022-08-17 13:36:45.515625
1052,46.63,2022-08-17 13:36:45.531250
1053,39.84,2022-08-17 13:36:45.546875
1054,35.48,2022-08-17 13:36:45.562500
1055,34.13,2022-08-17 13:36:45.578125
1056,34.84,2022-08-17 13:36:45.593750
1057,35.48,2022-08-17 13:36:45.609375
1058,35.62,2022-08-17 13:36:45.625000
1059,34.68,2022-08-17 13:36:45.640625
1060,32.63,2022-08-17 13:36:45.656250
1061,29.92,2022-08-17 13:36:45.671875
1062,26.46,2022-08-17 13:36:45.687500
1063,22.15,2022-08-17 13:36:45.703125
1064,15.92,2022-08-17 13:36:45.718750
1065,8.42,2022-08-17 13:36:45.734375
1066,0.72,2022-08-17 13:36:45.750000
1067,-6.45,2022-08-17 13:36:45.765625
1068,-13.39,2022-08-17 13:36:45.781250
1069,-20.94,2022-08-17 13:36:45.796875
1070,-29.87,2022-08-17 13:36:45.812500
1071,-40.52,2022-08-17 13:36:45.828125
1072,-52.28,2022-08-17 13:36:45.843750
1073,-63.55,2022-08-17 13:36:45.859375
1074,-71.81,2022-08-17 13:36:45.875000
1075,-74.73,2022-08-17 13:36:45.890625
1076,-70.95,2022-08-17 13:36:45.906250
1077,-60.65,2022-08-17 13:36:45.921875
1078,-45.26,2022-08-17 13:36:45.937500
1079,-27.02,2022-08-17 13:36:45.953125
1080,-8.4,2022-08-17 13:36:45.968750
1081,8.31,2022-08-17 13:36:45.984375
1082,21.6,2022-08-17 13:36:46.000000
1083,31.18,2022-08-17 13:36:46.015625
1084,37.69,2022-08-17 13:36:46.031250
1085,42.2,2022-08-17 13:36:46.046875
1086,45.59,2022-08-17 13:36:46.062500
1087,48.32,2022-08-17 13:36:46.078125
1088,50.29,2022-08-17 13:36:46.093750
1089,50.97,2022-08-17 13:36:46.109375
1090,49.65,2022-08-17 13:36:46.125000
1091,45.93,2022-08-17 13:36:46.140625
1092,40.14,2022-08-17 13:36:46.156250
1093,33.17,2022-08-17 13:36:46.171875
1094,26.18,2022-08-17 13:36:46.187500
1095,20.06,2022-08-17 13:36:46.203125
1096,15.23,2022-08-17 13:36:46.218750
1097,11.64,2022-08-17 13:36:46.234375
1098,8.95,2022-08-17 13:36:46.250000
1099,6.82,2022-08-17 13:36:46.265625
1100,5.0,2022-08-17 13:36:46.281250
1101,3.36,2022-08-17 13:36:46.296875
1102,1.65,2022-08-17 13:36:46.312500
1103,-0.41,2022-08-17 13:36:46.328125
1104,-3.0,2022-08-17 13:36:46.343750
1105,-5.84,2022-08-17 13:36:46.359375
1106,-8.12,2022-08-17 13:36:46.375000
1107,-8.87,2022-08-17 13:36:46.390625
1108,-7.58,2022-08-17 13:36:46.406250
1109,-4.66,2022-08-17 13:36:46.421875
1110,-1.42,2022-08-17 13:36:46.437500
1111,0.52,2022-08-17 13:36:46.453125
1112,0.08,2022-08-17 13:36:46.468750
1113,-2.69,2022-08-17 13:36:46.484375
1114,-6.77,2022-08-17 13:36:46.500000
1115,-10.85,2022-08-17 13:36:46.515625
1116,-14.22,2022-08-17 13:36:46.531250
1117,-17.21,2022-08-17 13:36:46.546875
1118,-20.96,2022-08-17 13:36:46.562500
1119,-26.65,2022-08-17 13:36:46.578125
1120,-34.68,2022-08-17 13:36:46.593750
1121,-44.18,2022-08-17 13:36:46.609375
1122,-53.3,2022-08-17 13:36:46.625000
1123,-59.93,2022-08-17 13:36:46.640625
1124,-62.5,2022-08-17 13:36:46.656250
1125,-60.47,2022-08-17 13:36:46.671875
1126,-54.37,2022-08-17 13:36:46.687500
1127,-45.37,2022-08-17 13:36:46.703125
1128,-34.72,2022-08-17 13:36:46.718750
1129,-23.41,2022-08-17 13:36:46.734375
1130,-11.93,2022-08-17 13:36:46.750000
1131,-0.59,2022-08-17 13:36:46.765625
1132,10.32,2022-08-17 13:36:46.781250
1133,20.19,2022-08-17 13:36:46.796875
1134,28.18,2022-08-17 13:36:46.812500
1135,33.47,2022-08-17 13:36:46.828125
1136,35.65,2022-08-17 13:36:46.843750
1137,35.01,2022-08-17 13:36:46.859375
1138,32.48,2022-08-17 13:36:46.875000
1139,29.37,2022-08-17 13:36:46.890625
1140,26.88,2022-08-17 13:36:46.906250
1141,25.71,2022-08-17 13:36:46.921875
1142,25.93,2022-08-17 13:36:46.937500
1143,27.15,2022-08-17 13:36:46.953125
1144,28.79,2022-08-17 13:36:46.968750
1145,30.48,2022-08-17 13:36:46.984375
1146,32.15,2022-08-17 13:36:47.000000
1147,34.04,2022-08-17 13:36:47.015625
1148,36.41,2022-08-17 13:36:47.031250
1149,39.39,2022-08-17 13:36:47.046875
1150,42.79,2022-08-17 13:36:47.062500
1151,46.17,2022-08-17 13:36:47.078125
1152,49.02,2022-08-17 13:36:47.093750
1153,50.94,2022-08-17 13:36:47.109375
1154,51.74,2022-08-17 13:36:47.125000
1155,51.54,2022-08-17 13:36:47.140625
1156,50.62,2022-08-17 13:36:47.156250
1157,49.35,2022-08-17 13:36:47.171875
1158,48.08,2022-08-17 13:36:47.187500
1159,46.98,2022-08-17 13:36:47.203125
1160,46.05,2022-08-17 13:36:47.218750
1161,44.96,2022-08-17 13:36:47.234375
1162,43.15,2022-08-17 13:36:47.250000
1163,39.89,2022-08-17 13:36:47.265625
1164,34.44,2022-08-17 13:36:47.281250
1165,26.26,2022-08-17 13:36:47.296875
1166,15.19,2022-08-17 13:36:47.312500
1167,1.48,2022-08-17 13:36:47.328125
1168,-14.1,2022-08-17 13:36:47.343750
1169,-30.39,2022-08-17 13:36:47.359375
1170,-45.91,2022-08-17 13:36:47.375000
1171,-59.02,2022-08-17 13:36:47.390625
1172,-68.22,2022-08-17 13:36:47.406250
1173,-72.43,2022-08-17 13:36:47.421875
1174,-71.2,2022-08-17 13:36:47.437500
1175,-64.86,2022-08-17 13:36:47.453125
1176,-54.47,2022-08-17 13:36:47.468750
1177,-41.6,2022-08-17 13:36:47.484375
1178,-28.06,2022-08-17 13:36:47.500000
1179,-15.59,2022-08-17 13:36:47.515625
1180,-5.54,2022-08-17 13:36:47.531250
1181,1.27,2022-08-17 13:36:47.546875
1182,4.63,2022-08-17 13:36:47.562500
1183,4.89,2022-08-17 13:36:47.578125
1184,2.77,2022-08-17 13:36:47.593750
1185,-0.95,2022-08-17 13:36:47.609375
1186,-5.59,2022-08-17 13:36:47.625000
1187,-10.66,2022-08-17 13:36:47.640625
1188,-15.83,2022-08-17 13:36:47.656250
1189,-20.72,2022-08-17 13:36:47.671875
1190,-24.89,2022-08-17 13:36:47.687500
1191,-27.85,2022-08-17 13:36:47.703125
1192,-29.28,2022-08-17 13:36:47.718750
1193,-29.12,2022-08-17 13:36:47.734375
1194,-27.61,2022-08-17 13:36:47.750000
1195,-25.19,2022-08-17 13:36:47.765625
1196,-22.3,2022-08-17 13:36:47.781250
1197,-19.24,2022-08-17 13:36:47.796875
1198,-16.19,2022-08-17 13:36:47.812500
1199,-13.39,2022-08-17 13:36:47.828125
1200,-11.17,2022-08-17 13:36:47.843750
1201,-10.06,2022-08-17 13:36:47.859375
1202,-10.57,2022-08-17 13:36:47.875000
1203,-13.04,2022-08-17 13:36:47.890625
1204,-17.35,2022-08-17 13:36:47.906250
1205,-22.94,2022-08-17 13:36:47.921875
1206,-28.93,2022-08-17 13:36:47.937500
1207,-34.42,2022-08-17 13:36:47.953125
1208,-38.77,2022-08-17 13:36:47.968750
1209,-41.82,2022-08-17 13:36:47.984375
1210,-43.89,2022-08-17 13:36:48.000000
1211,-45.68,2022-08-17 13:36:48.015625
1212,-47.97,2022-08-17 13:36:48.031250
1213,-51.38,2022-08-17 13:36:48.046875
1214,-56.03,2022-08-17 13:36:48.062500
1215,-61.44,2022-08-17 13:36:48.078125
1216,-66.49,2022-08-17 13:36:48.093750
1217,-69.65,2022-08-17 13:36:48.109375
1218,-69.33,2022-08-17 13:36:48.125000
1219,-64.39,2022-08-17 13:36:48.140625
1220,-54.54,2022-08-17 13:36:48.156250
1221,-40.42,2022-08-17 13:36:48.171875
1222,-23.51,2022-08-17 13:36:48.187500
1223,-5.64,2022-08-17 13:36:48.203125
1224,11.49,2022-08-17 13:36:48.218750
1225,26.66,2022-08-17 13:36:48.234375
1226,39.25,2022-08-17 13:36:48.250000
1227,49.06,2022-08-17 13:36:48.265625
1228,56.1,2022-08-17 13:36:48.281250
1229,60.39,2022-08-17 13:36:48.296875
1230,61.9,2022-08-17 13:36:48.312500
1231,60.68,2022-08-17 13:36:48.328125
1232,56.96,2022-08-17 13:36:48.343750
1233,51.28,2022-08-17 13:36:48.359375
1234,44.41,2022-08-17 13:36:48.375000
1235,37.32,2022-08-17 13:36:48.390625
1236,30.92,2022-08-17 13:36:48.406250
1237,25.91,2022-08-17 13:36:48.421875
1238,22.66,2022-08-17 13:36:48.437500
1239,21.15,2022-08-17 13:36:48.453125
1240,21.03,2022-08-17 13:36:48.468750
1241,21.75,2022-08-17 13:36:48.484375
1242,22.81,2022-08-17 13:36:48.500000
1243,23.82,2022-08-17 13:36:48.515625
1244,24.5,2022-08-17 13:36:48.531250
1245,24.63,2022-08-17 13:36:48.546875
1246,23.93,2022-08-17 13:36:48.562500
1247,22.07,2022-08-17 13:36:48.578125
1248,18.8,2022-08-17 13:36:48.593750
1249,14.12,2022-08-17 13:36:48.609375
1250,8.36,2022-08-17 13:36:48.625000
1251,2.16,2022-08-17 13:36:48.640625
1252,-3.71,2022-08-17 13:36:48.656250
1253,-8.65,2022-08-17 13:36:48.671875
1254,-12.35,2022-08-17 13:36:48.687500
1255,-14.89,2022-08-17 13:36:48.703125
1256,-16.68,2022-08-17 13:36:48.718750
1257,-18.25,2022-08-17 13:36:48.734375
1258,-20.21,2022-08-17 13:36:48.750000
1259,-23.07,2022-08-17 13:36:48.765625
1260,-27.13,2022-08-17 13:36:48.781250
1261,-32.31,2022-08-17 13:36:48.796875
1262,-37.97,2022-08-17 13:36:48.812500
1263,-42.94,2022-08-17 13:36:48.828125
1264,-45.72,2022-08-17 13:36:48.843750
1265,-44.93,2022-08-17 13:36:48.859375
1266,-39.76,2022-08-17 13:36:48.875000
1267,-30.31,2022-08-17 13:36:48.890625
1268,-17.61,2022-08-17 13:36:48.906250
1269,-3.25,2022-08-17 13:36:48.921875
1270,11.03,2022-08-17 13:36:48.937500
1271,23.82,2022-08-17 13:36:48.953125
1272,34.23,2022-08-17 13:36:48.968750
1273,42.0,2022-08-17 13:36:48.984375
1274,47.22,2022-08-17 13:36:49.000000
1275,50.2,2022-08-17 13:36:49.015625
1276,51.26,2022-08-17 13:36:49.031250
1277,50.69,2022-08-17 13:36:49.046875
1278,48.76,2022-08-17 13:36:49.062500
1279,45.78,2022-08-17 13:36:49.078125
1280,42.18,2022-08-17 13:36:49.093750
1281,38.4,2022-08-17 13:36:49.109375
1282,34.87,2022-08-17 13:36:49.125000
1283,31.94,2022-08-17 13:36:49.140625
1284,29.82,2022-08-17 13:36:49.156250
1285,28.62,2022-08-17 13:36:49.171875
1286,28.38,2022-08-17 13:36:49.187500
1287,29.05,2022-08-17 13:36:49.203125
1288,30.54,2022-08-17 13:36:49.218750
1289,32.59,2022-08-17 13:36:49.234375
1290,34.79,2022-08-17 13:36:49.250000
1291,36.59,2022-08-17 13:36:49.265625
1292,37.49,2022-08-17 13:36:49.281250
1293,37.12,2022-08-17 13:36:49.296875
1294,35.45,2022-08-17 13:36:49.312500
1295,32.72,2022-08-17 13:36:49.328125
1296,29.44,2022-08-17 13:36:49.343750
1297,26.2,2022-08-17 13:36:49.359375
1298,23.48,2022-08-17 13:36:49.375000
1299,21.46,2022-08-17 13:36:49.390625
1300,19.92,2022-08-17 13:36:49.406250
1301,18.32,2022-08-17 13:36:49.421875
1302,16.09,2022-08-17 13:36:49.437500
1303,12.86,2022-08-17 13:36:49.453125
1304,8.73,2022-08-17 13:36:49.468750
1305,4.28,2022-08-17 13:36:49.484375
1306,0.4,2022-08-17 13:36:49.500000
1307,-1.84,2022-08-17 13:36:49.515625
1308,-1.43,2022-08-17 13:36:49.531250
1309,2.54,2022-08-17 13:36:49.546875
1310,10.66,2022-08-17 13:36:49.562500
1311,23.09,2022-08-17 13:36:49.578125
1312,39.27,2022-08-17 13:36:49.593750
1313,57.85,2022-08-17 13:36:49.609375
1314,76.62,2022-08-17 13:36:49.625000
1315,92.93,2022-08-17 13:36:49.640625
1316,104.12,2022-08-17 13:36:49.656250
1317,108.27,2022-08-17 13:36:49.671875
1318,104.54,2022-08-17 13:36:49.687500
1319,93.41,2022-08-17 13:36:49.703125
1320,76.51,2022-08-17 13:36:49.718750
1321,56.26,2022-08-17 13:36:49.734375
1322,35.2,2022-08-17 13:36:49.750000
1323,15.46,2022-08-17 13:36:49.765625
1324,-1.81,2022-08-17 13:36:49.781250
1325,-16.53,2022-08-17 13:36:49.796875
1326,-29.45,2022-08-17 13:36:49.812500
1327,-41.52,2022-08-17 13:36:49.828125
1328,-53.24,2022-08-17 13:36:49.843750
1329,-64.29,2022-08-17 13:36:49.859375
1330,-73.63,2022-08-17 13:36:49.875000
1331,-80.02,2022-08-17 13:36:49.890625
1332,-82.68,2022-08-17 13:36:49.906250
1333,-81.75,2022-08-17 13:36:49.921875
1334,-78.29,2022-08-17 13:36:49.937500
1335,-73.86,2022-08-17 13:36:49.953125
1336,-70.0,2022-08-17 13:36:49.968750
1337,-67.75,2022-08-17 13:36:49.984375
1338,-67.46,2022-08-17 13:36:50.000000
1339,-68.86,2022-08-17 13:36:50.015625
1340,-71.26,2022-08-17 13:36:50.031250
1341,-73.72,2022-08-17 13:36:50.046875
1342,-75.27,2022-08-17 13:36:50.062500
1343,-75.02,2022-08-17 13:36:50.078125
1344,-72.34,2022-08-17 13:36:50.093750
1345,-67.02,2022-08-17 13:36:50.109375
1346,-59.35,2022-08-17 13:36:50.125000
1347,-50.08,2022-08-17 13:36:50.140625
1348,-40.43,2022-08-17 13:36:50.156250
1349,-31.81,2022-08-17 13:36:50.171875
1350,-25.58,2022-08-17 13:36:50.187500
1351,-22.64,2022-08-17 13:36:50.203125
1352,-23.06,2022-08-17 13:36:50.218750
1353,-25.87,2022-08-17 13:36:50.234375
1354,-29.23,2022-08-17 13:36:50.250000
1355,-31.0,2022-08-17 13:36:50.265625
1356,-29.41,2022-08-17 13:36:50.281250
1357,-23.71,2022-08-17 13:36:50.296875
1358,-14.4,2022-08-17 13:36:50.312500
1359,-2.97,2022-08-17 13:36:50.328125
1360,8.75,2022-08-17 13:36:50.343750
1361,19.14,2022-08-17 13:36:50.359375
1362,27.22,2022-08-17 13:36:50.375000
1363,32.64,2022-08-17 13:36:50.390625
1364,35.53,2022-08-17 13:36:50.406250
1365,36.29,2022-08-17 13:36:50.421875
1366,35.36,2022-08-17 13:36:50.437500
1367,33.14,2022-08-17 13:36:50.453125
1368,30.0,2022-08-17 13:36:50.468750
1369,26.32,2022-08-17 13:36:50.484375
1370,22.48,2022-08-17 13:36:50.500000
1371,18.9,2022-08-17 13:36:50.515625
1372,16.02,2022-08-17 13:36:50.531250
1373,14.24,2022-08-17 13:36:50.546875
1374,13.83,2022-08-17 13:36:50.562500
1375,14.85,2022-08-17 13:36:50.578125
1376,17.12,2022-08-17 13:36:50.593750
1377,20.3,2022-08-17 13:36:50.609375
1378,23.99,2022-08-17 13:36:50.625000
1379,27.83,2022-08-17 13:36:50.640625
1380,31.56,2022-08-17 13:36:50.656250
1381,35.02,2022-08-17 13:36:50.671875
1382,38.1,2022-08-17 13:36:50.687500
1383,40.73,2022-08-17 13:36:50.703125
1384,42.91,2022-08-17 13:36:50.718750
1385,44.74,2022-08-17 13:36:50.734375
1386,46.43,2022-08-17 13:36:50.750000
1387,48.26,2022-08-17 13:36:50.765625
1388,50.45,2022-08-17 13:36:50.781250
1389,53.03,2022-08-17 13:36:50.796875
1390,55.69,2022-08-17 13:36:50.812500
1391,57.73,2022-08-17 13:36:50.828125
1392,58.17,2022-08-17 13:36:50.843750
1393,56.02,2022-08-17 13:36:50.859375
1394,50.72,2022-08-17 13:36:50.875000
1395,42.47,2022-08-17 13:36:50.890625
1396,32.27,2022-08-17 13:36:50.906250
1397,21.67,2022-08-17 13:36:50.921875
1398,12.23,2022-08-17 13:36:50.937500
1399,5.0,2022-08-17 13:36:50.953125
1400,0.39,2022-08-17 13:36:50.968750
1401,-1.84,2022-08-17 13:36:50.984375
1402,-2.28,2022-08-17 13:36:51.000000
1403,-1.69,2022-08-17 13:36:51.015625
1404,-0.92,2022-08-17 13:36:51.031250
1405,-1.0,2022-08-17 13:36:51.046875
1406,-3.0,2022-08-17 13:36:51.062500
1407,-7.78,2022-08-17 13:36:51.078125
1408,-15.62,2022-08-17 13:36:51.093750
1409,-26.04,2022-08-17 13:36:51.109375
1410,-37.9,2022-08-17 13:36:51.125000
1411,-49.86,2022-08-17 13:36:51.140625
1412,-60.81,2022-08-17 13:36:51.156250
1413,-70.19,2022-08-17 13:36:51.171875
1414,-77.88,2022-08-17 13:36:51.187500
1415,-83.92,2022-08-17 13:36:51.203125
1416,-88.16,2022-08-17 13:36:51.218750
1417,-90.12,2022-08-17 13:36:51.234375
1418,-89.06,2022-08-17 13:36:51.250000
1419,-84.36,2022-08-17 13:36:51.265625
1420,-75.86,2022-08-17 13:36:51.281250
1421,-64.1,2022-08-17 13:36:51.296875
1422,-50.1,2022-08-17 13:36:51.312500
1423,-35.04,2022-08-17 13:36:51.328125
1424,-19.81,2022-08-17 13:36:51.343750
1425,-4.87,2022-08-17 13:36:51.359375
1426,9.44,2022-08-17 13:36:51.375000
1427,22.57,2022-08-17 13:36:51.390625
1428,33.52,2022-08-17 13:36:51.406250
1429,41.23,2022-08-17 13:36:51.421875
1430,45.22,2022-08-17 13:36:51.437500
1431,46.0,2022-08-17 13:36:51.453125
1432,45.01,2022-08-17 13:36:51.468750
1433,43.71,2022-08-17 13:36:51.484375
1434,42.71,2022-08-17 13:36:51.500000
1435,41.24,2022-08-17 13:36:51.515625
1436,37.66,2022-08-17 13:36:51.531250
1437,30.55,2022-08-17 13:36:51.546875
1438,19.87,2022-08-17 13:36:51.562500
1439,7.25,2022-08-17 13:36:51.578125
1440,-4.68,2022-08-17 13:36:51.593750
1441,-13.53,2022-08-17 13:36:51.609375
1442,-18.18,2022-08-17 13:36:51.625000
1443,-19.07,2022-08-17 13:36:51.640625
1444,-17.74,2022-08-17 13:36:51.656250
1445,-15.97,2022-08-17 13:36:51.671875
1446,-15.12,2022-08-17 13:36:51.687500
1447,-15.91,2022-08-17 13:36:51.703125
1448,-18.48,2022-08-17 13:36:51.718750
1449,-22.67,2022-08-17 13:36:51.734375
1450,-28.15,2022-08-17 13:36:51.750000
1451,-34.45,2022-08-17 13:36:51.765625
1452,-40.84,2022-08-17 13:36:51.781250
1453,-46.35,2022-08-17 13:36:51.796875
1454,-49.87,2022-08-17 13:36:51.812500
1455,-50.46,2022-08-17 13:36:51.828125
1456,-47.6,2022-08-17 13:36:51.843750
1457,-41.38,2022-08-17 13:36:51.859375
1458,-32.48,2022-08-17 13:36:51.875000
1459,-21.84,2022-08-17 13:36:51.890625
1460,-10.58,2022-08-17 13:36:51.906250
1461,0.34,2022-08-17 13:36:51.921875
1462,10.35,2022-08-17 13:36:51.937500
1463,19.44,2022-08-17 13:36:51.953125
1464,28.23,2022-08-17 13:36:51.968750
1465,37.89,2022-08-17 13:36:51.984375
1466,49.7,2022-08-17 13:36:52.000000
1467,64.47,2022-08-17 13:36:52.015625
1468,81.99,2022-08-17 13:36:52.031250
1469,100.68,2022-08-17 13:36:52.046875
1470,117.99,2022-08-17 13:36:52.062500
1471,131.43,2022-08-17 13:36:52.078125
1472,139.5,2022-08-17 13:36:52.093750
1473,142.03,2022-08-17 13:36:52.109375
1474,140.18,2022-08-17 13:36:52.125000
1475,135.67,2022-08-17 13:36:52.140625
1476,130.23,2022-08-17 13:36:52.156250
1477,125.37,2022-08-17 13:36:52.171875
1478,121.81,2022-08-17 13:36:52.187500
1479,119.88,2022-08-17 13:36:52.203125
1480,119.57,2022-08-17 13:36:52.218750
1481,120.41,2022-08-17 13:36:52.234375
1482,120.99,2022-08-17 13:36:52.250000
1483,119.51,2022-08-17 13:36:52.265625
1484,114.2,2022-08-17 13:36:52.281250
1485,104.59,2022-08-17 13:36:52.296875
1486,92.0,2022-08-17 13:36:52.312500
1487,78.31,2022-08-17 13:36:52.328125
1488,65.75,2022-08-17 13:36:52.343750
1489,56.52,2022-08-17 13:36:52.359375
1490,51.76,2022-08-17 13:36:52.375000
1491,50.89,2022-08-17 13:36:52.390625
1492,52.14,2022-08-17 13:36:52.406250
1493,52.32,2022-08-17 13:36:52.421875
1494,48.91,2022-08-17 13:36:52.437500
1495,41.29,2022-08-17 13:36:52.453125
1496,29.85,2022-08-17 13:36:52.468750
1497,16.44,2022-08-17 13:36:52.484375
1498,3.99,2022-08-17 13:36:52.500000
1499,-5.33,2022-08-17 13:36:52.515625
1500,-11.81,2022-08-17 13:36:52.531250
1501,-17.49,2022-08-17 13:36:52.546875
1502,-26.23,2022-08-17 13:36:52.562500
1503,-40.32,2022-08-17 13:36:52.578125
1504,-59.11,2022-08-17 13:36:52.593750
1505,-81.26,2022-08-17 13:36:52.609375
1506,-105.07,2022-08-17 13:36:52.625000
1507,-128.67,2022-08-17 13:36:52.640625
1508,-150.99,2022-08-17 13:36:52.656250
1509,-172.18,2022-08-17 13:36:52.671875
1510,-192.04,2022-08-17 13:36:52.687500
1511,-211.48,2022-08-17 13:36:52.703125
1512,-230.73,2022-08-17 13:36:52.718750
1513,-238.4,2022-08-17 13:36:52.734375
1514,-226.77,2022-08-17 13:36:52.750000
1515,-197.09,2022-08-17 13:36:52.765625
1516,-158.15,2022-08-17 13:36:52.781250
1517,-119.18,2022-08-17 13:36:52.796875
1518,-91.95,2022-08-17 13:36:52.812500
1519,-74.79,2022-08-17 13:36:52.828125
1520,-65.87,2022-08-17 13:36:52.843750
1521,-63.87,2022-08-17 13:36:52.859375
1522,-67.85,2022-08-17 13:36:52.875000
1523,-74.93,2022-08-17 13:36:52.890625
1524,-83.68,2022-08-17 13:36:52.906250
1525,-91.8,2022-08-17 13:36:52.921875
1526,-96.5,2022-08-17 13:36:52.937500
1527,-95.7,2022-08-17 13:36:52.953125
1528,-87.72,2022-08-17 13:36:52.968750
1529,-73.47,2022-08-17 13:36:52.984375
1530,-54.42,2022-08-17 13:36:53.000000
1531,-32.06,2022-08-17 13:36:53.015625
1532,-9.11,2022-08-17 13:36:53.031250
1533,11.32,2022-08-17 13:36:53.046875
1534,27.25,2022-08-17 13:36:53.062500
1535,38.06,2022-08-17 13:36:53.078125
1536,43.88,2022-08-17 13:36:53.093750
1537,45.93,2022-08-17 13:36:53.109375
1538,44.54,2022-08-17 13:36:53.125000
1539,40.38,2022-08-17 13:36:53.140625
1540,34.48,2022-08-17 13:36:53.156250
1541,27.44,2022-08-17 13:36:53.171875
1542,19.38,2022-08-17 13:36:53.187500
1543,10.77,2022-08-17 13:36:53.203125
1544,2.29,2022-08-17 13:36:53.218750
1545,-5.43,2022-08-17 13:36:53.234375
1546,-11.51,2022-08-17 13:36:53.250000
1547,-16.02,2022-08-17 13:36:53.265625
1548,-19.24,2022-08-17 13:36:53.281250
1549,-21.6,2022-08-17 13:36:53.296875
1550,-23.43,2022-08-17 13:36:53.312500
1551,-25.43,2022-08-17 13:36:53.328125
1552,-28.21,2022-08-17 13:36:53.343750
1553,-32.25,2022-08-17 13:36:53.359375
1554,-37.8,2022-08-17 13:36:53.375000
1555,-44.79,2022-08-17 13:36:53.390625
1556,-53.49,2022-08-17 13:36:53.406250
1557,-64.0,2022-08-17 13:36:53.421875
1558,-75.75,2022-08-17 13:36:53.437500
1559,-86.15,2022-08-17 13:36:53.453125
1560,-92.45,2022-08-17 13:36:53.468750
1561,-92.95,2022-08-17 13:36:53.484375
1562,-87.87,2022-08-17 13:36:53.500000
1563,-79.08,2022-08-17 13:36:53.515625
1564,-69.18,2022-08-17 13:36:53.531250
1565,-60.77,2022-08-17 13:36:53.546875
1566,-55.21,2022-08-17 13:36:53.562500
1567,-52.24,2022-08-17 13:36:53.578125
1568,-48.54,2022-08-17 13:36:53.593750
1569,-41.39,2022-08-17 13:36:53.609375
1570,-30.58,2022-08-17 13:36:53.625000
1571,-18.16,2022-08-17 13:36:53.640625
1572,-6.07,2022-08-17 13:36:53.656250
1573,5.62,2022-08-17 13:36:53.671875
1574,18.82,2022-08-17 13:36:53.687500
1575,36.36,2022-08-17 13:36:53.703125
1576,60.05,2022-08-17 13:36:53.718750
1577,91.78,2022-08-17 13:36:53.734375
1578,130.08,2022-08-17 13:36:53.750000
1579,170.05,2022-08-17 13:36:53.765625
1580,205.59,2022-08-17 13:36:53.781250
1581,232.62,2022-08-17 13:36:53.796875
1582,250.25,2022-08-17 13:36:53.812500
1583,259.54,2022-08-17 13:36:53.828125
1584,262.07,2022-08-17 13:36:53.843750
1585,244.53,2022-08-17 13:36:53.859375
1586,202.14,2022-08-17 13:36:53.875000
1587,144.05,2022-08-17 13:36:53.890625
1588,88.03,2022-08-17 13:36:53.906250
1589,46.97,2022-08-17 13:36:53.921875
1590,22.93,2022-08-17 13:36:53.937500
1591,10.57,2022-08-17 13:36:53.953125
1592,2.39,2022-08-17 13:36:53.968750
1593,-6.98,2022-08-17 13:36:53.984375
1594,-19.32,2022-08-17 13:36:54.000000
1595,-31.12,2022-08-17 13:36:54.015625
1596,-38.71,2022-08-17 13:36:54.031250
1597,-41.54,2022-08-17 13:36:54.046875
1598,-42.02,2022-08-17 13:36:54.062500
1599,-43.25,2022-08-17 13:36:54.078125
1600,-46.14,2022-08-17 13:36:54.093750
1601,-50.99,2022-08-17 13:36:54.109375
1602,-56.98,2022-08-17 13:36:54.125000
1603,-63.25,2022-08-17 13:36:54.140625
1604,-67.61,2022-08-17 13:36:54.156250
1605,-69.11,2022-08-17 13:36:54.171875
1606,-68.68,2022-08-17 13:36:54.187500
1607,-68.26,2022-08-17 13:36:54.203125
1608,-69.2,2022-08-17 13:36:54.218750
1609,-71.4,2022-08-17 13:36:54.234375
1610,-73.7,2022-08-17 13:36:54.250000
1611,-74.33,2022-08-17 13:36:54.265625
1612,-71.71,2022-08-17 13:36:54.281250
1613,-63.81,2022-08-17 13:36:54.296875
1614,-50.02,2022-08-17 13:36:54.312500
1615,-32.9,2022-08-17 13:36:54.328125
1616,-16.45,2022-08-17 13:36:54.343750
1617,-4.39,2022-08-17 13:36:54.359375
1618,1.41,2022-08-17 13:36:54.375000
1619,1.27,2022-08-17 13:36:54.390625
1620,-2.66,2022-08-17 13:36:54.406250
1621,-7.64,2022-08-17 13:36:54.421875
1622,-10.98,2022-08-17 13:36:54.437500
1623,-11.41,2022-08-17 13:36:54.453125
1624,-9.44,2022-08-17 13:36:54.468750
1625,-6.49,2022-08-17 13:36:54.484375
1626,-3.87,2022-08-17 13:36:54.500000
1627,-2.1,2022-08-17 13:36:54.515625
1628,-0.91,2022-08-17 13:36:54.531250
1629,0.4,2022-08-17 13:36:54.546875
1630,2.56,2022-08-17 13:36:54.562500
1631,6.11,2022-08-17 13:36:54.578125
1632,11.1,2022-08-17 13:36:54.593750
1633,17.0,2022-08-17 13:36:54.609375
1634,23.01,2022-08-17 13:36:54.625000
1635,28.34,2022-08-17 13:36:54.640625
1636,32.53,2022-08-17 13:36:54.656250
1637,35.33,2022-08-17 13:36:54.671875
1638,36.71,2022-08-17 13:36:54.687500
1639,36.64,2022-08-17 13:36:54.703125
1640,34.94,2022-08-17 13:36:54.718750
1641,31.39,2022-08-17 13:36:54.734375
1642,25.79,2022-08-17 13:36:54.750000
1643,18.26,2022-08-17 13:36:54.765625
1644,9.18,2022-08-17 13:36:54.781250
1645,-0.86,2022-08-17 13:36:54.796875
1646,-11.2,2022-08-17 13:36:54.812500
1647,-21.25,2022-08-17 13:36:54.828125
1648,-30.46,2022-08-17 13:36:54.843750
1649,-38.21,2022-08-17 13:36:54.859375
1650,-43.7,2022-08-17 13:36:54.875000
1651,-45.97,2022-08-17 13:36:54.890625
1652,-44.0,2022-08-17 13:36:54.906250
1653,-37.25,2022-08-17 13:36:54.921875
1654,-25.88,2022-08-17 13:36:54.937500
1655,-10.99,2022-08-17 13:36:54.953125
1656,5.63,2022-08-17 13:36:54.968750
1657,21.89,2022-08-17 13:36:54.984375
1658,36.01,2022-08-17 13:36:55.000000
1659,46.86,2022-08-17 13:36:55.015625
1660,53.97,2022-08-17 13:36:55.031250
1661,57.47,2022-08-17 13:36:55.046875
1662,57.72,2022-08-17 13:36:55.062500
1663,55.17,2022-08-17 13:36:55.078125
1664,50.29,2022-08-17 13:36:55.093750
1665,43.67,2022-08-17 13:36:55.109375
1666,35.98,2022-08-17 13:36:55.125000
1667,27.99,2022-08-17 13:36:55.140625
1668,20.38,2022-08-17 13:36:55.156250
1669,13.69,2022-08-17 13:36:55.171875
1670,8.22,2022-08-17 13:36:55.187500
1671,3.99,2022-08-17 13:36:55.203125
1672,0.91,2022-08-17 13:36:55.218750
1673,-1.27,2022-08-17 13:36:55.234375
1674,-2.83,2022-08-17 13:36:55.250000
1675,-4.08,2022-08-17 13:36:55.265625
1676,-5.3,2022-08-17 13:36:55.281250
1677,-6.71,2022-08-17 13:36:55.296875
1678,-8.42,2022-08-17 13:36:55.312500
1679,-10.42,2022-08-17 13:36:55.328125
1680,-12.66,2022-08-17 13:36:55.343750
1681,-15.09,2022-08-17 13:36:55.359375
1682,-17.72,2022-08-17 13:36:55.375000
1683,-20.61,2022-08-17 13:36:55.390625
1684,-23.84,2022-08-17 13:36:55.406250
1685,-27.49,2022-08-17 13:36:55.421875
1686,-31.63,2022-08-17 13:36:55.437500
1687,-36.29,2022-08-17 13:36:55.453125
1688,-41.34,2022-08-17 13:36:55.468750
1689,-46.33,2022-08-17 13:36:55.484375
1690,-50.39,2022-08-17 13:36:55.500000
1691,-52.26,2022-08-17 13:36:55.515625
1692,-50.65,2022-08-17 13:36:55.531250
1693,-44.65,2022-08-17 13:36:55.546875
1694,-34.16,2022-08-17 13:36:55.562500
1695,-20.06,2022-08-17 13:36:55.578125
1696,-3.97,2022-08-17 13:36:55.593750
1697,12.19,2022-08-17 13:36:55.609375
1698,26.74,2022-08-17 13:36:55.625000
1699,38.53,2022-08-17 13:36:55.640625
1700,47.02,2022-08-17 13:36:55.656250
1701,52.17,2022-08-17 13:36:55.671875
1702,54.19,2022-08-17 13:36:55.687500
1703,53.49,2022-08-17 13:36:55.703125
1704,50.58,2022-08-17 13:36:55.718750
1705,46.07,2022-08-17 13:36:55.734375
1706,40.63,2022-08-17 13:36:55.750000
1707,34.85,2022-08-17 13:36:55.765625
1708,29.18,2022-08-17 13:36:55.781250
1709,23.93,2022-08-17 13:36:55.796875
1710,19.3,2022-08-17 13:36:55.812500
1711,15.46,2022-08-17 13:36:55.828125
1712,12.55,2022-08-17 13:36:55.843750
1713,10.65,2022-08-17 13:36:55.859375
1714,9.73,2022-08-17 13:36:55.875000
1715,9.63,2022-08-17 13:36:55.890625
1716,10.0,2022-08-17 13:36:55.906250
1717,10.41,2022-08-17 13:36:55.921875
1718,10.38,2022-08-17 13:36:55.937500
1719,9.51,2022-08-17 13:36:55.953125
1720,7.54,2022-08-17 13:36:55.968750
1721,4.47,2022-08-17 13:36:55.984375
1722,0.57,2022-08-17 13:36:56.000000
1723,-3.76,2022-08-17 13:36:56.015625
1724,-8.12,2022-08-17 13:36:56.031250
1725,-12.26,2022-08-17 13:36:56.046875
1726,-16.23,2022-08-17 13:36:56.062500
1727,-20.31,2022-08-17 13:36:56.078125
1728,-24.88,2022-08-17 13:36:56.093750
1729,-30.23,2022-08-17 13:36:56.109375
1730,-36.31,2022-08-17 13:36:56.125000
1731,-42.64,2022-08-17 13:36:56.140625
1732,-48.23,2022-08-17 13:36:56.156250
1733,-51.76,2022-08-17 13:36:56.171875
1734,-51.89,2022-08-17 13:36:56.187500
1735,-47.63,2022-08-17 13:36:56.203125
1736,-38.72,2022-08-17 13:36:56.218750
1737,-25.82,2022-08-17 13:36:56.234375
1738,-10.42,2022-08-17 13:36:56.250000
1739,5.57,2022-08-17 13:36:56.265625
1740,20.31,2022-08-17 13:36:56.281250
1741,32.49,2022-08-17 13:36:56.296875
1742,41.49,2022-08-17 13:36:56.312500
1743,47.3,2022-08-17 13:36:56.328125
1744,50.24,2022-08-17 13:36:56.343750
1745,50.69,2022-08-17 13:36:56.359375
1746,48.95,2022-08-17 13:36:56.375000
1747,45.34,2022-08-17 13:36:56.390625
1748,40.33,2022-08-17 13:36:56.406250
1749,34.55,2022-08-17 13:36:56.421875
1750,28.74,2022-08-17 13:36:56.437500
1751,23.58,2022-08-17 13:36:56.453125
1752,19.5,2022-08-17 13:36:56.468750
1753,16.6,2022-08-17 13:36:56.484375
1754,14.72,2022-08-17 13:36:56.500000
1755,13.6,2022-08-17 13:36:56.515625
1756,12.98,2022-08-17 13:36:56.531250
1757,12.75,2022-08-17 13:36:56.546875
1758,12.86,2022-08-17 13:36:56.562500
1759,13.27,2022-08-17 13:36:56.578125
1760,13.78,2022-08-17 13:36:56.593750
1761,14.05,2022-08-17 13:36:56.609375
1762,13.62,2022-08-17 13:36:56.625000
1763,12.07,2022-08-17 13:36:56.640625
1764,9.19,2022-08-17 13:36:56.656250
1765,5.08,2022-08-17 13:36:56.671875
1766,0.17,2022-08-17 13:36:56.687500
1767,-4.93,2022-08-17 13:36:56.703125
1768,-9.63,2022-08-17 13:36:56.718750
1769,-13.56,2022-08-17 13:36:56.734375
1770,-16.69,2022-08-17 13:36:56.750000
1771,-19.33,2022-08-17 13:36:56.765625
1772,-22.01,2022-08-17 13:36:56.781250
1773,-25.28,2022-08-17 13:36:56.796875
1774,-29.51,2022-08-17 13:36:56.812500
1775,-34.69,2022-08-17 13:36:56.828125
1776,-40.31,2022-08-17 13:36:56.843750
1777,-45.35,2022-08-17 13:36:56.859375
1778,-48.48,2022-08-17 13:36:56.875000
1779,-48.35,2022-08-17 13:36:56.890625
1780,-44.0,2022-08-17 13:36:56.906250
1781,-35.22,2022-08-17 13:36:56.921875
1782,-22.71,2022-08-17 13:36:56.937500
1783,-7.92,2022-08-17 13:36:56.953125
1784,7.32,2022-08-17 13:36:56.968750
1785,21.25,2022-08-17 13:36:56.984375
1786,32.62,2022-08-17 13:36:57.000000
1787,40.82,2022-08-17 13:36:57.015625
1788,45.8,2022-08-17 13:36:57.031250
1789,47.94,2022-08-17 13:36:57.046875
1790,47.69,2022-08-17 13:36:57.062500
1791,45.5,2022-08-17 13:36:57.078125
1792,41.76,2022-08-17 13:36:57.093750
1793,36.84,2022-08-17 13:36:57.109375
1794,31.19,2022-08-17 13:36:57.125000
1795,25.32,2022-08-17 13:36:57.140625
1796,19.84,2022-08-17 13:36:57.156250
1797,15.27,2022-08-17 13:36:57.171875
1798,12.0,2022-08-17 13:36:57.187500
1799,10.12,2022-08-17 13:36:57.203125
1800,9.44,2022-08-17 13:36:57.218750
1801,9.59,2022-08-17 13:36:57.234375
1802,10.12,2022-08-17 13:36:57.250000
1803,10.65,2022-08-17 13:36:57.265625
1804,10.98,2022-08-17 13:36:57.281250
1805,11.04,2022-08-17 13:36:57.296875
1806,10.84,2022-08-17 13:36:57.312500
1807,10.34,2022-08-17 13:36:57.328125
1808,9.38,2022-08-17 13:36:57.343750
1809,7.73,2022-08-17 13:36:57.359375
1810,5.19,2022-08-17 13:36:57.375000
1811,1.7,2022-08-17 13:36:57.390625
1812,-2.54,2022-08-17 13:36:57.406250
1813,-7.12,2022-08-17 13:36:57.421875
1814,-11.53,2022-08-17 13:36:57.437500
1815,-15.28,2022-08-17 13:36:57.453125
1816,-18.1,2022-08-17 13:36:57.468750
1817,-19.99,2022-08-17 13:36:57.484375
1818,-21.25,2022-08-17 13:36:57.500000
1819,-22.33,2022-08-17 13:36:57.515625
1820,-23.74,2022-08-17 13:36:57.531250
1821,-25.91,2022-08-17 13:36:57.546875
1822,-29.05,2022-08-17 13:36:57.562500
1823,-33.11,2022-08-17 13:36:57.578125
1824,-37.71,2022-08-17 13:36:57.593750
1825,-42.11,2022-08-17 13:36:57.609375
1826,-45.25,2022-08-17 13:36:57.625000
1827,-45.97,2022-08-17 13:36:57.640625
1828,-43.26,2022-08-17 13:36:57.656250
1829,-36.6,2022-08-17 13:36:57.671875
1830,-26.24,2022-08-17 13:36:57.687500
1831,-13.18,2022-08-17 13:36:57.703125
1832,0.99,2022-08-17 13:36:57.718750
1833,14.56,2022-08-17 13:36:57.734375
1834,26.1,2022-08-17 13:36:57.750000
1835,34.74,2022-08-17 13:36:57.765625
1836,40.22,2022-08-17 13:36:57.781250
1837,42.75,2022-08-17 13:36:57.796875
1838,42.76,2022-08-17 13:36:57.812500
1839,40.7,2022-08-17 13:36:57.828125
1840,37.02,2022-08-17 13:36:57.843750
1841,32.12,2022-08-17 13:36:57.859375
1842,26.52,2022-08-17 13:36:57.875000
1843,20.79,2022-08-17 13:36:57.890625
1844,15.5,2022-08-17 13:36:57.906250
1845,11.13,2022-08-17 13:36:57.921875
1846,7.98,2022-08-17 13:36:57.937500
1847,6.08,2022-08-17 13:36:57.953125
1848,5.25,2022-08-17 13:36:57.968750
1849,5.23,2022-08-17 13:36:57.984375
1850,5.67,2022-08-17 13:36:58.000000
1851,6.31,2022-08-17 13:36:58.015625
1852,6.97,2022-08-17 13:36:58.031250
1853,7.54,2022-08-17 13:36:58.046875
1854,7.91,2022-08-17 13:36:58.062500
1855,7.97,2022-08-17 13:36:58.078125
1856,7.59,2022-08-17 13:36:58.093750
1857,6.61,2022-08-17 13:36:58.109375
1858,4.94,2022-08-17 13:36:58.125000
1859,2.54,2022-08-17 13:36:58.140625
1860,-0.46,2022-08-17 13:36:58.156250
1861,-3.86,2022-08-17 13:36:58.171875
1862,-7.38,2022-08-17 13:36:58.187500
1863,-10.74,2022-08-17 13:36:58.203125
1864,-13.77,2022-08-17 13:36:58.218750
1865,-16.38,2022-08-17 13:36:58.234375
1866,-18.62,2022-08-17 13:36:58.250000
1867,-20.65,2022-08-17 13:36:58.265625
1868,-22.68,2022-08-17 13:36:58.281250
1869,-24.95,2022-08-17 13:36:58.296875
1870,-27.65,2022-08-17 13:36:58.312500
1871,-30.89,2022-08-17 13:36:58.328125
1872,-34.65,2022-08-17 13:36:58.343750
1873,-38.65,2022-08-17 13:36:58.359375
1874,-42.36,2022-08-17 13:36:58.375000
1875,-44.99,2022-08-17 13:36:58.390625
1876,-45.58,2022-08-17 13:36:58.406250
1877,-43.29,2022-08-17 13:36:58.421875
1878,-37.62,2022-08-17 13:36:58.437500
1879,-28.66,2022-08-17 13:36:58.453125
1880,-17.19,2022-08-17 13:36:58.468750
1881,-4.49,2022-08-17 13:36:58.484375
1882,7.99,2022-08-17 13:36:58.500000
1883,18.95,2022-08-17 13:36:58.515625
1884,27.58,2022-08-17 13:36:58.531250
1885,33.6,2022-08-17 13:36:58.546875
1886,37.15,2022-08-17 13:36:58.562500
1887,38.56,2022-08-17 13:36:58.578125
1888,38.13,2022-08-17 13:36:58.593750
1889,36.13,2022-08-17 13:36:58.609375
1890,32.82,2022-08-17 13:36:58.625000
1891,28.55,2022-08-17 13:36:58.640625
1892,23.84,2022-08-17 13:36:58.656250
1893,19.27,2022-08-17 13:36:58.671875
1894,15.32,2022-08-17 13:36:58.687500
1895,12.26,2022-08-17 13:36:58.703125
1896,10.11,2022-08-17 13:36:58.718750
1897,8.69,2022-08-17 13:36:58.734375
1898,7.78,2022-08-17 13:36:58.750000
1899,7.24,2022-08-17 13:36:58.765625
1900,7.05,2022-08-17 13:36:58.781250
1901,7.18,2022-08-17 13:36:58.796875
1902,7.59,2022-08-17 13:36:58.812500
1903,8.07,2022-08-17 13:36:58.828125
1904,8.36,2022-08-17 13:36:58.843750
1905,8.16,2022-08-17 13:36:58.859375
1906,7.32,2022-08-17 13:36:58.875000
1907,5.84,2022-08-17 13:36:58.890625
1908,3.89,2022-08-17 13:36:58.906250
1909,1.66,2022-08-17 13:36:58.921875
1910,-0.68,2022-08-17 13:36:58.937500
1911,-3.06,2022-08-17 13:36:58.953125
1912,-5.44,2022-08-17 13:36:58.968750
1913,-7.79,2022-08-17 13:36:58.984375
1914,-10.07,2022-08-17 13:36:59.000000
1915,-12.22,2022-08-17 13:36:59.015625
1916,-14.19,2022-08-17 13:36:59.031250
1917,-16.07,2022-08-17 13:36:59.046875
1918,-18.03,2022-08-17 13:36:59.062500
1919,-20.31,2022-08-17 13:36:59.078125
1920,-23.01,2022-08-17 13:36:59.093750
1921,-26.01,2022-08-17 13:36:59.109375
1922,-28.87,2022-08-17 13:36:59.125000
1923,-30.83,2022-08-17 13:36:59.140625
1924,-31.02,2022-08-17 13:36:59.156250
1925,-28.66,2022-08-17 13:36:59.171875
1926,-23.35,2022-08-17 13:36:59.187500
1927,-15.14,2022-08-17 13:36:59.203125
1928,-4.61,2022-08-17 13:36:59.218750
1929,7.28,2022-08-17 13:36:59.234375
1930,19.38,2022-08-17 13:36:59.250000
1931,30.59,2022-08-17 13:36:59.265625
1932,39.97,2022-08-17 13:36:59.281250
1933,46.86,2022-08-17 13:36:59.296875
1934,50.92,2022-08-17 13:36:59.312500
1935,52.13,2022-08-17 13:36:59.328125
1936,50.71,2022-08-17 13:36:59.343750
1937,47.26,2022-08-17 13:36:59.359375
1938,42.55,2022-08-17 13:36:59.375000
1939,37.49,2022-08-17 13:36:59.390625
1940,32.96,2022-08-17 13:36:59.406250
1941,29.54,2022-08-17 13:36:59.421875
1942,27.43,2022-08-17 13:36:59.437500
1943,26.47,2022-08-17 13:36:59.453125
1944,26.28,2022-08-17 13:36:59.468750
1945,26.52,2022-08-17 13:36:59.484375
1946,27.16,2022-08-17 13:36:59.500000
1947,28.39,2022-08-17 13:36:59.515625
1948,30.54,2022-08-17 13:36:59.531250
1949,33.72,2022-08-17 13:36:59.546875
1950,37.69,2022-08-17 13:36:59.562500
1951,41.82,2022-08-17 13:36:59.578125
1952,45.28,2022-08-17 13:36:59.593750
1953,47.24,2022-08-17 13:36:59.609375
1954,47.12,2022-08-17 13:36:59.625000
1955,44.59,2022-08-17 13:36:59.640625
1956,39.68,2022-08-17 13:36:59.656250
1957,32.74,2022-08-17 13:36:59.671875
1958,24.45,2022-08-17 13:36:59.687500
1959,15.75,2022-08-17 13:36:59.703125
1960,7.65,2022-08-17 13:36:59.718750
1961,0.9,2022-08-17 13:36:59.734375
1962,-4.27,2022-08-17 13:36:59.750000
1963,-8.2,2022-08-17 13:36:59.765625
1964,-11.58,2022-08-17 13:36:59.781250
1965,-14.97,2022-08-17 13:36:59.796875
1966,-18.45,2022-08-17 13:36:59.812500
1967,-21.49,2022-08-17 13:36:59.828125
1968,-23.18,2022-08-17 13:36:59.843750
1969,-22.84,2022-08-17 13:36:59.859375
1970,-20.51,2022-08-17 13:36:59.875000
1971,-17.14,2022-08-17 13:36:59.890625
1972,-14.3,2022-08-17 13:36:59.906250
1973,-13.64,2022-08-17 13:36:59.921875
1974,-16.23,2022-08-17 13:36:59.937500
1975,-22.22,2022-08-17 13:36:59.953125
1976,-30.97,2022-08-17 13:36:59.968750
1977,-41.39,2022-08-17 13:36:59.984375
1978,-52.48,2022-08-17 13:37:00.000000
1979,-63.53,2022-08-17 13:37:00.015625
1980,-74.09,2022-08-17 13:37:00.031250
1981,-83.74,2022-08-17 13:37:00.046875
1982,-91.84,2022-08-17 13:37:00.062500
1983,-97.55,2022-08-17 13:37:00.078125
1984,-100.11,2022-08-17 13:37:00.093750
1985,-99.2,2022-08-17 13:37:00.109375
1986,-95.16,2022-08-17 13:37:00.125000
1987,-88.89,2022-08-17 13:37:00.140625
1988,-81.56,2022-08-17 13:37:00.156250
1989,-74.1,2022-08-17 13:37:00.171875
1990,-66.98,2022-08-17 13:37:00.187500
1991,-60.16,2022-08-17 13:37:00.203125
1992,-53.36,2022-08-17 13:37:00.218750
1993,-46.42,2022-08-17 13:37:00.234375
1994,-39.48,2022-08-17 13:37:00.250000
1995,-33.06,2022-08-17 13:37:00.265625
1996,-27.79,2022-08-17 13:37:00.281250
1997,-24.22,2022-08-17 13:37:00.296875
1998,-22.51,2022-08-17 13:37:00.312500
1999,-22.46,2022-08-17 13:37:00.328125
2000,-23.54,2022-08-17 13:37:00.343750
2001,-25.11,2022-08-17 13:37:00.359375
2002,-26.65,2022-08-17 13:37:00.375000
2003,-27.83,2022-08-17 13:37:00.390625
2004,-28.65,2022-08-17 13:37:00.406250
2005,-29.36,2022-08-17 13:37:00.421875
2006,-30.36,2022-08-17 13:37:00.437500
2007,-32.1,2022-08-17 13:37:00.453125
2008,-34.87,2022-08-17 13:37:00.468750
2009,-38.63,2022-08-17 13:37:00.484375
2010,-42.87,2022-08-17 13:37:00.500000
2011,-46.64,2022-08-17 13:37:00.515625
2012,-48.67,2022-08-17 13:37:00.531250
2013,-47.71,2022-08-17 13:37:00.546875
2014,-42.87,2022-08-17 13:37:00.562500
2015,-33.98,2022-08-17 13:37:00.578125
2016,-21.64,2022-08-17 13:37:00.593750
2017,-7.15,2022-08-17 13:37:00.609375
2018,7.89,2022-08-17 13:37:00.625000
2019,21.93,2022-08-17 13:37:00.640625
2020,33.85,2022-08-17 13:37:00.656250
2021,43.0,2022-08-17 13:37:00.671875
2022,49.2,2022-08-17 13:37:00.687500
2023,52.53,2022-08-17 13:37:00.703125
2024,53.22,2022-08-17 13:37:00.718750
2025,51.57,2022-08-17 13:37:00.734375
2026,48.04,2022-08-17 13:37:00.750000
2027,43.17,2022-08-17 13:37:00.765625
2028,37.63,2022-08-17 13:37:00.781250
2029,32.07,2022-08-17 13:37:00.796875
2030,27.03,2022-08-17 13:37:00.812500
2031,22.83,2022-08-17 13:37:00.828125
2032,19.61,2022-08-17 13:37:00.843750
2033,17.37,2022-08-17 13:37:00.859375
2034,16.02,2022-08-17 13:37:00.875000
2035,15.47,2022-08-17 13:37:00.890625
2036,15.58,2022-08-17 13:37:00.906250
2037,16.16,2022-08-17 13:37:00.921875
2038,16.92,2022-08-17 13:37:00.937500
2039,17.49,2022-08-17 13:37:00.953125
2040,17.49,2022-08-17 13:37:00.968750
2041,16.6,2022-08-17 13:37:00.984375
2042,14.66,2022-08-17 13:37:01.000000
2043,11.73,2022-08-17 13:37:01.015625
2044,8.1,2022-08-17 13:37:01.031250
2045,4.17,2022-08-17 13:37:01.046875
2046,0.37,2022-08-17 13:37:01.062500
2047,-3.03,2022-08-17 13:37:01.078125
2048,-6.01,2022-08-17 13:37:01.093750
2049,-8.78,2022-08-17 13:37:01.109375
2050,-11.72,2022-08-17 13:37:01.125000
2051,-15.25,2022-08-17 13:37:01.140625
2052,-19.58,2022-08-17 13:37:01.156250
2053,-24.57,2022-08-17 13:37:01.171875
2054,-29.63,2022-08-17 13:37:01.187500
2055,-33.72,2022-08-17 13:37:01.203125
2056,-35.57,2022-08-17 13:37:01.218750
2057,-34.06,2022-08-17 13:37:01.234375
2058,-28.59,2022-08-17 13:37:01.250000
2059,-19.33,2022-08-17 13:37:01.265625
2060,-7.24,2022-08-17 13:37:01.281250
2061,6.21,2022-08-17 13:37:01.296875
2062,19.42,2022-08-17 13:37:01.312500
2063,31.12,2022-08-17 13:37:01.328125
2064,40.54,2022-08-17 13:37:01.343750
2065,47.38,2022-08-17 13:37:01.359375
2066,51.66,2022-08-17 13:37:01.375000
2067,53.51,2022-08-17 13:37:01.390625
2068,53.06,2022-08-17 13:37:01.406250
2069,50.57,2022-08-17 13:37:01.421875
2070,46.44,2022-08-17 13:37:01.437500
2071,41.29,2022-08-17 13:37:01.453125
2072,35.87,2022-08-17 13:37:01.468750
2073,30.82,2022-08-17 13:37:01.484375
2074,26.55,2022-08-17 13:37:01.500000
2075,23.1,2022-08-17 13:37:01.515625
2076,20.3,2022-08-17 13:37:01.531250
2077,17.84,2022-08-17 13:37:01.546875
2078,15.55,2022-08-17 13:37:01.562500
2079,13.41,2022-08-17 13:37:01.578125
2080,11.58,2022-08-17 13:37:01.593750
2081,10.22,2022-08-17 13:37:01.609375
2082,9.42,2022-08-17 13:37:01.625000
2083,9.03,2022-08-17 13:37:01.640625
2084,8.71,2022-08-17 13:37:01.656250
2085,7.97,2022-08-17 13:37:01.671875
2086,6.32,2022-08-17 13:37:01.687500
2087,3.45,2022-08-17 13:37:01.703125
2088,-0.7,2022-08-17 13:37:01.718750
2089,-5.82,2022-08-17 13:37:01.734375
2090,-11.39,2022-08-17 13:37:01.750000
2091,-16.7,2022-08-17 13:37:01.765625
2092,-21.19,2022-08-17 13:37:01.781250
2093,-24.55,2022-08-17 13:37:01.796875
2094,-26.86,2022-08-17 13:37:01.812500
2095,-28.58,2022-08-17 13:37:01.828125
2096,-30.37,2022-08-17 13:37:01.843750
2097,-32.9,2022-08-17 13:37:01.859375
2098,-36.54,2022-08-17 13:37:01.875000
2099,-41.1,2022-08-17 13:37:01.890625
2100,-45.83,2022-08-17 13:37:01.906250
2101,-49.53,2022-08-17 13:37:01.921875
2102,-50.88,2022-08-17 13:37:01.937500
2103,-48.85,2022-08-17 13:37:01.953125
2104,-43.05,2022-08-17 13:37:01.968750
2105,-33.86,2022-08-17 13:37:01.984375
2106,-22.34,2022-08-17 13:37:02.000000
2107,-9.9,2022-08-17 13:37:02.015625
2108,2.04,2022-08-17 13:37:02.031250
2109,12.37,2022-08-17 13:37:02.046875
2110,20.4,2022-08-17 13:37:02.062500
2111,25.79,2022-08-17 13:37:02.078125
2112,28.53,2022-08-17 13:37:02.093750
2113,28.77,2022-08-17 13:37:02.109375
2114,26.77,2022-08-17 13:37:02.125000
2115,23.0,2022-08-17 13:37:02.140625
2116,18.11,2022-08-17 13:37:02.156250
2117,12.98,2022-08-17 13:37:02.171875
2118,8.57,2022-08-17 13:37:02.187500
2119,5.71,2022-08-17 13:37:02.203125
2120,4.88,2022-08-17 13:37:02.218750
2121,6.07,2022-08-17 13:37:02.234375
2122,8.77,2022-08-17 13:37:02.250000
2123,12.26,2022-08-17 13:37:02.265625
2124,15.84,2022-08-17 13:37:02.281250
2125,19.09,2022-08-17 13:37:02.296875
2126,21.97,2022-08-17 13:37:02.312500
2127,24.67,2022-08-17 13:37:02.328125
2128,27.4,2022-08-17 13:37:02.343750
2129,30.23,2022-08-17 13:37:02.359375
2130,32.99,2022-08-17 13:37:02.375000
2131,35.3,2022-08-17 13:37:02.390625
2132,36.69,2022-08-17 13:37:02.406250
2133,36.78,2022-08-17 13:37:02.421875
2134,35.31,2022-08-17 13:37:02.437500
2135,32.29,2022-08-17 13:37:02.453125
2136,27.95,2022-08-17 13:37:02.468750
2137,22.72,2022-08-17 13:37:02.484375
2138,17.11,2022-08-17 13:37:02.500000
2139,11.56,2022-08-17 13:37:02.515625
2140,6.31,2022-08-17 13:37:02.531250
2141,1.33,2022-08-17 13:37:02.546875
2142,-3.61,2022-08-17 13:37:02.562500
2143,-8.87,2022-08-17 13:37:02.578125
2144,-14.7,2022-08-17 13:37:02.593750
2145,-21.11,2022-08-17 13:37:02.609375
2146,-27.71,2022-08-17 13:37:02.625000
2147,-33.7,2022-08-17 13:37:02.640625
2148,-38.05,2022-08-17 13:37:02.656250
2149,-39.69,2022-08-17 13:37:02.671875
2150,-37.88,2022-08-17 13:37:02.687500
2151,-32.48,2022-08-17 13:37:02.703125
2152,-23.99,2022-08-17 13:37:02.718750
2153,-13.51,2022-08-17 13:37:02.734375
2154,-2.4,2022-08-17 13:37:02.750000
2155,8.03,2022-08-17 13:37:02.765625
2156,16.78,2022-08-17 13:37:02.781250
2157,23.3,2022-08-17 13:37:02.796875
2158,27.38,2022-08-17 13:37:02.812500
2159,29.04,2022-08-17 13:37:02.828125
2160,28.45,2022-08-17 13:37:02.843750
2161,25.99,2022-08-17 13:37:02.859375
2162,22.18,2022-08-17 13:37:02.875000
2163,17.78,2022-08-17 13:37:02.890625
2164,13.58,2022-08-17 13:37:02.906250
2165,10.29,2022-08-17 13:37:02.921875
2166,8.29,2022-08-17 13:37:02.937500
2167,7.62,2022-08-17 13:37:02.953125
2168,7.97,2022-08-17 13:37:02.968750
2169,8.87,2022-08-17 13:37:02.984375
2170,9.91,2022-08-17 13:37:03.000000
2171,10.79,2022-08-17 13:37:03.015625
2172,11.43,2022-08-17 13:37:03.031250
2173,11.88,2022-08-17 13:37:03.046875
2174,12.24,2022-08-17 13:37:03.062500
2175,12.6,2022-08-17 13:37:03.078125
2176,12.95,2022-08-17 13:37:03.093750
2177,13.17,2022-08-17 13:37:03.109375
2178,13.03,2022-08-17 13:37:03.125000
2179,12.27,2022-08-17 13:37:03.140625
2180,10.73,2022-08-17 13:37:03.156250
2181,8.45,2022-08-17 13:37:03.171875
2182,5.69,2022-08-17 13:37:03.187500
2183,2.85,2022-08-17 13:37:03.203125
2184,0.3,2022-08-17 13:37:03.218750
2185,-1.76,2022-08-17 13:37:03.234375
2186,-3.42,2022-08-17 13:37:03.250000
2187,-5.03,2022-08-17 13:37:03.265625
2188,-7.01,2022-08-17 13:37:03.281250
2189,-9.71,2022-08-17 13:37:03.296875
2190,-13.18,2022-08-17 13:37:03.312500
2191,-17.11,2022-08-17 13:37:03.328125
2192,-20.81,2022-08-17 13:37:03.343750
2193,-23.34,2022-08-17 13:37:03.359375
2194,-23.71,2022-08-17 13:37:03.375000
2195,-21.22,2022-08-17 13:37:03.390625
2196,-15.68,2022-08-17 13:37:03.406250
2197,-7.5,2022-08-17 13:37:03.421875
2198,2.35,2022-08-17 13:37:03.437500
2199,12.56,2022-08-17 13:37:03.453125
2200,21.86,2022-08-17 13:37:03.468750
2201,29.21,2022-08-17 13:37:03.484375
2202,33.99,2022-08-17 13:37:03.500000
2203,35.98,2022-08-17 13:37:03.515625
2204,35.28,2022-08-17 13:37:03.531250
2205,32.17,2022-08-17 13:37:03.546875
2206,27.09,2022-08-17 13:37:03.562500
2207,20.57,2022-08-17 13:37:03.578125
2208,13.28,2022-08-17 13:37:03.593750
2209,5.99,2022-08-17 13:37:03.609375
2210,-0.55,2022-08-17 13:37:03.625000
2211,-5.7,2022-08-17 13:37:03.640625
2212,-9.09,2022-08-17 13:37:03.656250
2213,-10.65,2022-08-17 13:37:03.671875
2214,-10.59,2022-08-17 13:37:03.687500
2215,-9.27,2022-08-17 13:37:03.703125
2216,-7.07,2022-08-17 13:37:03.718750
2217,-4.31,2022-08-17 13:37:03.734375
2218,-1.28,2022-08-17 13:37:03.750000
2219,1.71,2022-08-17 13:37:03.765625
2220,4.27,2022-08-17 13:37:03.781250
2221,6.0,2022-08-17 13:37:03.796875
2222,6.56,2022-08-17 13:37:03.812500
2223,5.81,2022-08-17 13:37:03.828125
2224,3.86,2022-08-17 13:37:03.843750
2225,1.05,2022-08-17 13:37:03.859375
2226,-2.14,2022-08-17 13:37:03.875000
2227,-5.22,2022-08-17 13:37:03.890625
2228,-7.81,2022-08-17 13:37:03.906250
2229,-9.7,2022-08-17 13:37:03.921875
2230,-10.9,2022-08-17 13:37:03.937500
2231,-11.64,2022-08-17 13:37:03.953125
2232,-12.4,2022-08-17 13:37:03.968750
2233,-13.69,2022-08-17 13:37:03.984375
2234,-15.92,2022-08-17 13:37:04.000000
2235,-19.06,2022-08-17 13:37:04.015625
2236,-22.56,2022-08-17 13:37:04.031250
2237,-25.35,2022-08-17 13:37:04.046875
2238,-26.2,2022-08-17 13:37:04.062500
2239,-24.12,2022-08-17 13:37:04.078125
2240,-18.77,2022-08-17 13:37:04.093750
2241,-10.58,2022-08-17 13:37:04.109375
2242,-0.67,2022-08-17 13:37:04.125000
2243,9.55,2022-08-17 13:37:04.140625
2244,18.77,2022-08-17 13:37:04.156250
2245,26.02,2022-08-17 13:37:04.171875
2246,30.81,2022-08-17 13:37:04.187500
2247,33.08,2022-08-17 13:37:04.203125
2248,32.98,2022-08-17 13:37:04.218750
2249,30.8,2022-08-17 13:37:04.234375
2250,26.87,2022-08-17 13:37:04.250000
2251,21.55,2022-08-17 13:37:04.265625
2252,15.25,2022-08-17 13:37:04.281250
2253,8.52,2022-08-17 13:37:04.296875
2254,1.97,2022-08-17 13:37:04.312500
2255,-3.73,2022-08-17 13:37:04.328125
2256,-8.07,2022-08-17 13:37:04.343750
2257,-10.76,2022-08-17 13:37:04.359375
2258,-11.81,2022-08-17 13:37:04.375000
2259,-11.49,2022-08-17 13:37:04.390625
2260,-10.18,2022-08-17 13:37:04.406250
2261,-8.24,2022-08-17 13:37:04.421875
2262,-5.93,2022-08-17 13:37:04.437500
2263,-3.41,2022-08-17 13:37:04.453125
2264,-0.81,2022-08-17 13:37:04.468750
2265,1.67,2022-08-17 13:37:04.484375
2266,3.79,2022-08-17 13:37:04.500000
2267,5.25,2022-08-17 13:37:04.515625
2268,5.81,2022-08-17 13:37:04.531250
2269,5.33,2022-08-17 13:37:04.546875
2270,3.86,2022-08-17 13:37:04.562500
2271,1.57,2022-08-17 13:37:04.578125
2272,-1.25,2022-08-17 13:37:04.593750
2273,-4.27,2022-08-17 13:37:04.609375
2274,-7.25,2022-08-17 13:37:04.625000
2275,-10.07,2022-08-17 13:37:04.640625
2276,-12.83,2022-08-17 13:37:04.656250
2277,-15.72,2022-08-17 13:37:04.671875
2278,-18.97,2022-08-17 13:37:04.687500
2279,-22.71,2022-08-17 13:37:04.703125
2280,-26.84,2022-08-17 13:37:04.718750
2281,-31.03,2022-08-17 13:37:04.734375
2282,-34.72,2022-08-17 13:37:04.750000
2283,-37.12,2022-08-17 13:37:04.765625
2284,-37.42,2022-08-17 13:37:04.781250
2285,-34.9,2022-08-17 13:37:04.796875
2286,-29.22,2022-08-17 13:37:04.812500
2287,-20.57,2022-08-17 13:37:04.828125
2288,-9.73,2022-08-17 13:37:04.843750
2289,2.04,2022-08-17 13:37:04.859375
2290,13.35,2022-08-17 13:37:04.875000
2291,22.93,2022-08-17 13:37:04.890625
2292,29.97,2022-08-17 13:37:04.906250
2293,34.19,2022-08-17 13:37:04.921875
2294,35.76,2022-08-17 13:37:04.937500
2295,35.08,2022-08-17 13:37:04.953125
2296,32.66,2022-08-17 13:37:04.968750
2297,28.94,2022-08-17 13:37:04.984375
2298,24.36,2022-08-17 13:37:05.000000
2299,19.29,2022-08-17 13:37:05.015625
2300,14.19,2022-08-17 13:37:05.031250
2301,9.48,2022-08-17 13:37:05.046875
2302,5.59,2022-08-17 13:37:05.062500
2303,2.79,2022-08-17 13:37:05.078125
2304,1.17,2022-08-17 13:37:05.093750
2305,0.6,2022-08-17 13:37:05.109375
2306,0.74,2022-08-17 13:37:05.125000
2307,1.25,2022-08-17 13:37:05.140625
2308,1.83,2022-08-17 13:37:05.156250
2309,2.36,2022-08-17 13:37:05.171875
2310,2.81,2022-08-17 13:37:05.187500
2311,3.16,2022-08-17 13:37:05.203125
2312,3.29,2022-08-17 13:37:05.218750
2313,2.99,2022-08-17 13:37:05.234375
2314,2.0,2022-08-17 13:37:05.250000
2315,0.2,2022-08-17 13:37:05.265625
2316,-2.34,2022-08-17 13:37:05.281250
2317,-5.28,2022-08-17 13:37:05.296875
2318,-8.22,2022-08-17 13:37:05.312500
2319,-10.81,2022-08-17 13:37:05.328125
2320,-12.92,2022-08-17 13:37:05.343750
2321,-14.6,2022-08-17 13:37:05.359375
2322,-16.03,2022-08-17 13:37:05.375000
2323,-17.31,2022-08-17 13:37:05.390625
2324,-18.51,2022-08-17 13:37:05.406250
2325,-19.59,2022-08-17 13:37:05.421875
2326,-20.56,2022-08-17 13:37:05.437500
2327,-21.43,2022-08-17 13:37:05.453125
2328,-22.22,2022-08-17 13:37:05.468750
2329,-22.83,2022-08-17 13:37:05.484375
2330,-22.93,2022-08-17 13:37:05.500000
2331,-21.99,2022-08-17 13:37:05.515625
2332,-19.43,2022-08-17 13:37:05.531250
2333,-14.86,2022-08-17 13:37:05.546875
2334,-8.22,2022-08-17 13:37:05.562500
2335,0.09,2022-08-17 13:37:05.578125
2336,9.38,2022-08-17 13:37:05.593750
2337,18.79,2022-08-17 13:37:05.609375
2338,27.46,2022-08-17 13:37:05.625000
2339,34.69,2022-08-17 13:37:05.640625
2340,39.93,2022-08-17 13:37:05.656250
2341,42.83,2022-08-17 13:37:05.671875
2342,43.25,2022-08-17 13:37:05.687500
2343,41.37,2022-08-17 13:37:05.703125
2344,37.64,2022-08-17 13:37:05.718750
2345,32.79,2022-08-17 13:37:05.734375
2346,27.66,2022-08-17 13:37:05.750000
2347,23.04,2022-08-17 13:37:05.765625
2348,19.53,2022-08-17 13:37:05.781250
2349,17.42,2022-08-17 13:37:05.796875
2350,16.73,2022-08-17 13:37:05.812500
2351,17.28,2022-08-17 13:37:05.828125
2352,18.74,2022-08-17 13:37:05.843750
2353,20.77,2022-08-17 13:37:05.859375
2354,23.08,2022-08-17 13:37:05.875000
2355,25.55,2022-08-17 13:37:05.890625
2356,28.18,2022-08-17 13:37:05.906250
2357,31.05,2022-08-17 13:37:05.921875
2358,34.14,2022-08-17 13:37:05.937500
2359,37.26,2022-08-17 13:37:05.953125
2360,40.04,2022-08-17 13:37:05.968750
2361,42.04,2022-08-17 13:37:05.984375
2362,43.07,2022-08-17 13:37:06.000000
2363,43.32,2022-08-17 13:37:06.015625
2364,43.45,2022-08-17 13:37:06.031250
2365,44.34,2022-08-17 13:37:06.046875
2366,46.74,2022-08-17 13:37:06.062500
2367,50.83,2022-08-17 13:37:06.078125
2368,55.99,2022-08-17 13:37:06.093750
2369,60.87,2022-08-17 13:37:06.109375
2370,63.66,2022-08-17 13:37:06.125000
2371,62.67,2022-08-17 13:37:06.140625
2372,56.86,2022-08-17 13:37:06.156250
2373,46.29,2022-08-17 13:37:06.171875
2374,32.23,2022-08-17 13:37:06.187500
2375,16.92,2022-08-17 13:37:06.203125
2376,3.0,2022-08-17 13:37:06.218750
2377,-7.21,2022-08-17 13:37:06.234375
2378,-12.37,2022-08-17 13:37:06.250000
2379,-12.34,2022-08-17 13:37:06.265625
2380,-8.13,2022-08-17 13:37:06.281250
2381,-1.34,2022-08-17 13:37:06.296875
2382,6.39,2022-08-17 13:37:06.312500
2383,13.8,2022-08-17 13:37:06.328125
2384,20.19,2022-08-17 13:37:06.343750
2385,25.3,2022-08-17 13:37:06.359375
2386,29.08,2022-08-17 13:37:06.375000
2387,31.4,2022-08-17 13:37:06.390625
2388,32.12,2022-08-17 13:37:06.406250
2389,31.1,2022-08-17 13:37:06.421875
2390,28.37,2022-08-17 13:37:06.437500
2391,24.15,2022-08-17 13:37:06.453125
2392,18.82,2022-08-17 13:37:06.468750
2393,12.78,2022-08-17 13:37:06.484375
2394,6.3,2022-08-17 13:37:06.500000
2395,-0.56,2022-08-17 13:37:06.515625
2396,-7.93,2022-08-17 13:37:06.531250
2397,-16.01,2022-08-17 13:37:06.546875
2398,-25.15,2022-08-17 13:37:06.562500
2399,-35.62,2022-08-17 13:37:06.578125
2400,-47.66,2022-08-17 13:37:06.593750
2401,-61.25,2022-08-17 13:37:06.609375
2402,-76.0,2022-08-17 13:37:06.625000
2403,-91.11,2022-08-17 13:37:06.640625
2404,-105.44,2022-08-17 13:37:06.656250
2405,-117.73,2022-08-17 13:37:06.671875
2406,-127.01,2022-08-17 13:37:06.687500
2407,-132.82,2022-08-17 13:37:06.703125
2408,-135.28,2022-08-17 13:37:06.718750
2409,-134.92,2022-08-17 13:37:06.734375
2410,-132.41,2022-08-17 13:37:06.750000
2411,-128.27,2022-08-17 13:37:06.765625
2412,-122.86,2022-08-17 13:37:06.781250
2413,-116.51,2022-08-17 13:37:06.796875
2414,-109.69,2022-08-17 13:37:06.812500
2415,-103.06,2022-08-17 13:37:06.828125
2416,-97.37,2022-08-17 13:37:06.843750
2417,-93.08,2022-08-17 13:37:06.859375
2418,-90.2,2022-08-17 13:37:06.875000
2419,-88.1,2022-08-17 13:37:06.890625
2420,-85.71,2022-08-17 13:37:06.906250
2421,-81.86,2022-08-17 13:37:06.921875
2422,-75.67,2022-08-17 13:37:06.937500
2423,-66.8,2022-08-17 13:37:06.953125
2424,-55.58,2022-08-17 13:37:06.968750
2425,-42.86,2022-08-17 13:37:06.984375
2426,-29.73,2022-08-17 13:37:07.000000
2427,-17.27,2022-08-17 13:37:07.015625
2428,-6.37,2022-08-17 13:37:07.031250
2429,2.44,2022-08-17 13:37:07.046875
2430,8.96,2022-08-17 13:37:07.062500
2431,13.19,2022-08-17 13:37:07.078125
2432,15.3,2022-08-17 13:37:07.093750
2433,15.52,2022-08-17 13:37:07.109375
2434,14.16,2022-08-17 13:37:07.125000
2435,11.62,2022-08-17 13:37:07.140625
2436,8.41,2022-08-17 13:37:07.156250
2437,5.13,2022-08-17 13:37:07.171875
2438,2.32,2022-08-17 13:37:07.187500
2439,0.33,2022-08-17 13:37:07.203125
2440,-0.68,2022-08-17 13:37:07.218750
2441,-0.81,2022-08-17 13:37:07.234375
2442,-0.25,2022-08-17 13:37:07.250000
2443,0.8,2022-08-17 13:37:07.265625
2444,2.21,2022-08-17 13:37:07.281250
2445,3.86,2022-08-17 13:37:07.296875
2446,5.63,2022-08-17 13:37:07.312500
2447,7.35,2022-08-17 13:37:07.328125
2448,8.76,2022-08-17 13:37:07.343750
2449,9.65,2022-08-17 13:37:07.359375
2450,9.88,2022-08-17 13:37:07.375000
2451,9.41,2022-08-17 13:37:07.390625
2452,8.35,2022-08-17 13:37:07.406250
2453,6.84,2022-08-17 13:37:07.421875
2454,5.05,2022-08-17 13:37:07.437500
2455,3.11,2022-08-17 13:37:07.453125
2456,1.14,2022-08-17 13:37:07.468750
2457,-0.87,2022-08-17 13:37:07.484375
2458,-3.03,2022-08-17 13:37:07.500000
2459,-5.5,2022-08-17 13:37:07.515625
2460,-8.49,2022-08-17 13:37:07.531250
2461,-12.03,2022-08-17 13:37:07.546875
2462,-15.85,2022-08-17 13:37:07.562500
2463,-19.28,2022-08-17 13:37:07.578125
2464,-21.34,2022-08-17 13:37:07.593750
2465,-20.98,2022-08-17 13:37:07.609375
2466,-17.49,2022-08-17 13:37:07.625000
2467,-10.69,2022-08-17 13:37:07.640625
2468,-1.08,2022-08-17 13:37:07.656250
2469,10.33,2022-08-17 13:37:07.671875
2470,22.32,2022-08-17 13:37:07.687500
2471,33.7,2022-08-17 13:37:07.703125
2472,43.62,2022-08-17 13:37:07.718750
2473,51.52,2022-08-17 13:37:07.734375
2474,57.14,2022-08-17 13:37:07.750000
2475,60.41,2022-08-17 13:37:07.765625
2476,61.41,2022-08-17 13:37:07.781250
2477,60.33,2022-08-17 13:37:07.796875
2478,57.53,2022-08-17 13:37:07.812500
2479,53.54,2022-08-17 13:37:07.828125
2480,49.05,2022-08-17 13:37:07.843750
2481,44.72,2022-08-17 13:37:07.859375
2482,41.07,2022-08-17 13:37:07.875000
2483,38.25,2022-08-17 13:37:07.890625
2484,36.04,2022-08-17 13:37:07.906250
2485,33.91,2022-08-17 13:37:07.921875
2486,31.31,2022-08-17 13:37:07.937500
2487,27.93,2022-08-17 13:37:07.953125
2488,23.91,2022-08-17 13:37:07.968750
2489,19.74,2022-08-17 13:37:07.984375
2490,15.99,2022-08-17 13:37:08.000000
2491,13.03,2022-08-17 13:37:08.015625
2492,10.8,2022-08-17 13:37:08.031250
2493,8.91,2022-08-17 13:37:08.046875
2494,6.88,2022-08-17 13:37:08.062500
2495,4.41,2022-08-17 13:37:08.078125
2496,1.57,2022-08-17 13:37:08.093750
2497,-1.29,2022-08-17 13:37:08.109375
2498,-3.8,2022-08-17 13:37:08.125000
2499,-5.73,2022-08-17 13:37:08.140625
2500,-7.12,2022-08-17 13:37:08.156250
2501,-8.24,2022-08-17 13:37:08.171875
2502,-9.53,2022-08-17 13:37:08.187500
2503,-11.5,2022-08-17 13:37:08.203125
2504,-14.64,2022-08-17 13:37:08.218750
2505,-19.29,2022-08-17 13:37:08.234375
2506,-25.44,2022-08-17 13:37:08.250000
2507,-32.51,2022-08-17 13:37:08.265625
2508,-39.28,2022-08-17 13:37:08.281250
2509,-44.05,2022-08-17 13:37:08.296875
2510,-45.22,2022-08-17 13:37:08.312500
2511,-41.86,2022-08-17 13:37:08.328125
2512,-34.1,2022-08-17 13:37:08.343750
2513,-23.13,2022-08-17 13:37:08.359375
2514,-10.78,2022-08-17 13:37:08.375000
2515,1.16,2022-08-17 13:37:08.390625
2516,11.44,2022-08-17 13:37:08.406250
2517,19.51,2022-08-17 13:37:08.421875
2518,25.35,2022-08-17 13:37:08.437500
2519,29.08,2022-08-17 13:37:08.453125
2520,30.75,2022-08-17 13:37:08.468750
2521,30.39,2022-08-17 13:37:08.484375
2522,28.11,2022-08-17 13:37:08.500000
2523,24.34,2022-08-17 13:37:08.515625
2524,19.79,2022-08-17 13:37:08.531250
2525,15.38,2022-08-17 13:37:08.546875
2526,11.91,2022-08-17 13:37:08.562500
2527,9.84,2022-08-17 13:37:08.578125
2528,9.2,2022-08-17 13:37:08.593750
2529,9.66,2022-08-17 13:37:08.609375
2530,10.68,2022-08-17 13:37:08.625000
2531,11.71,2022-08-17 13:37:08.640625
2532,12.41,2022-08-17 13:37:08.656250
2533,12.69,2022-08-17 13:37:08.671875
2534,12.67,2022-08-17 13:37:08.687500
2535,12.56,2022-08-17 13:37:08.703125
2536,12.43,2022-08-17 13:37:08.718750
2537,12.19,2022-08-17 13:37:08.734375
2538,11.54,2022-08-17 13:37:08.750000
2539,10.15,2022-08-17 13:37:08.765625
2540,7.83,2022-08-17 13:37:08.781250
2541,4.68,2022-08-17 13:37:08.796875
2542,1.02,2022-08-17 13:37:08.812500
2543,-2.67,2022-08-17 13:37:08.828125
2544,-5.95,2022-08-17 13:37:08.843750
2545,-8.55,2022-08-17 13:37:08.859375
2546,-10.43,2022-08-17 13:37:08.875000
2547,-11.75,2022-08-17 13:37:08.890625
2548,-12.86,2022-08-17 13:37:08.906250
2549,-14.17,2022-08-17 13:37:08.921875
2550,-16.07,2022-08-17 13:37:08.937500
2551,-18.81,2022-08-17 13:37:08.953125
2552,-22.4,2022-08-17 13:37:08.968750
2553,-26.5,2022-08-17 13:37:08.984375
2554,-30.38,2022-08-17 13:37:09.000000
2555,-32.99,2022-08-17 13:37:09.015625
2556,-33.22,2022-08-17 13:37:09.031250
2557,-30.2,2022-08-17 13:37:09.046875
2558,-23.58,2022-08-17 13:37:09.062500
2559,-13.8,2022-08-17 13:37:09.078125
2560,-1.95,2022-08-17 13:37:09.093750
2561,10.41,2022-08-17 13:37:09.109375
2562,21.77,2022-08-17 13:37:09.125000
2563,30.99,2022-08-17 13:37:09.140625
2564,37.53,2022-08-17 13:37:09.156250
2565,41.36,2022-08-17 13:37:09.171875
2566,42.75,2022-08-17 13:37:09.187500
2567,42.07,2022-08-17 13:37:09.203125
2568,39.59,2022-08-17 13:37:09.218750
2569,35.61,2022-08-17 13:37:09.234375
2570,30.47,2022-08-17 13:37:09.250000
2571,24.69,2022-08-17 13:37:09.265625
2572,18.91,2022-08-17 13:37:09.281250
2573,13.73,2022-08-17 13:37:09.296875
2574,9.64,2022-08-17 13:37:09.312500
2575,6.81,2022-08-17 13:37:09.328125
2576,5.22,2022-08-17 13:37:09.343750
2577,4.63,2022-08-17 13:37:09.359375
2578,4.77,2022-08-17 13:37:09.375000
2579,5.36,2022-08-17 13:37:09.390625
2580,6.2,2022-08-17 13:37:09.406250
2581,7.08,2022-08-17 13:37:09.421875
2582,7.83,2022-08-17 13:37:09.437500
2583,8.3,2022-08-17 13:37:09.453125
2584,8.34,2022-08-17 13:37:09.468750
2585,7.86,2022-08-17 13:37:09.484375
2586,6.81,2022-08-17 13:37:09.500000
2587,5.14,2022-08-17 13:37:09.515625
2588,2.86,2022-08-17 13:37:09.531250
2589,0.05,2022-08-17 13:37:09.546875
2590,-3.11,2022-08-17 13:37:09.562500
2591,-6.34,2022-08-17 13:37:09.578125
2592,-9.31,2022-08-17 13:37:09.593750
2593,-11.77,2022-08-17 13:37:09.609375
2594,-13.64,2022-08-17 13:37:09.625000
2595,-15.05,2022-08-17 13:37:09.640625
2596,-16.31,2022-08-17 13:37:09.656250
2597,-17.79,2022-08-17 13:37:09.671875
2598,-19.85,2022-08-17 13:37:09.687500
2599,-22.68,2022-08-17 13:37:09.703125
2600,-26.21,2022-08-17 13:37:09.718750
2601,-30.0,2022-08-17 13:37:09.734375
2602,-33.24,2022-08-17 13:37:09.750000
2603,-34.87,2022-08-17 13:37:09.765625
2604,-33.78,2022-08-17 13:37:09.781250
2605,-29.23,2022-08-17 13:37:09.796875
2606,-21.06,2022-08-17 13:37:09.812500
2607,-9.88,2022-08-17 13:37:09.828125
2608,3.04,2022-08-17 13:37:09.843750
2609,16.1,2022-08-17 13:37:09.859375
2610,27.78,2022-08-17 13:37:09.875000
2611,36.93,2022-08-17 13:37:09.890625
2612,42.96,2022-08-17 13:37:09.906250
2613,45.78,2022-08-17 13:37:09.921875
2614,45.73,2022-08-17 13:37:09.937500
2615,43.34,2022-08-17 13:37:09.953125
2616,39.24,2022-08-17 13:37:09.968750
2617,34.07,2022-08-17 13:37:09.984375
2618,28.42,2022-08-17 13:37:10.000000
2619,22.84,2022-08-17 13:37:10.015625
2620,17.85,2022-08-17 13:37:10.031250
2621,13.9,2022-08-17 13:37:10.046875
2622,11.3,2022-08-17 13:37:10.062500
2623,10.17,2022-08-17 13:37:10.078125
2624,10.38,2022-08-17 13:37:10.093750
2625,11.6,2022-08-17 13:37:10.109375
2626,13.33,2022-08-17 13:37:10.125000
2627,15.12,2022-08-17 13:37:10.140625
2628,16.65,2022-08-17 13:37:10.156250
2629,17.81,2022-08-17 13:37:10.171875
2630,18.61,2022-08-17 13:37:10.187500
2631,19.11,2022-08-17 13:37:10.203125
2632,19.3,2022-08-17 13:37:10.218750
2633,19.07,2022-08-17 13:37:10.234375
2634,18.26,2022-08-17 13:37:10.250000
2635,16.76,2022-08-17 13:37:10.265625
2636,14.57,2022-08-17 13:37:10.281250
2637,11.84,2022-08-17 13:37:10.296875
2638,8.82,2022-08-17 13:37:10.312500
2639,5.79,2022-08-17 13:37:10.328125
2640,3.01,2022-08-17 13:37:10.343750
2641,0.61,2022-08-17 13:37:10.359375
2642,-1.34,2022-08-17 13:37:10.375000
2643,-2.86,2022-08-17 13:37:10.390625
2644,-4.09,2022-08-17 13:37:10.406250
2645,-5.24,2022-08-17 13:37:10.421875
2646,-6.66,2022-08-17 13:37:10.437500
2647,-8.68,2022-08-17 13:37:10.453125
2648,-11.42,2022-08-17 13:37:10.468750
2649,-14.55,2022-08-17 13:37:10.484375
2650,-17.32,2022-08-17 13:37:10.500000
2651,-18.61,2022-08-17 13:37:10.515625
2652,-17.41,2022-08-17 13:37:10.531250
2653,-13.25,2022-08-17 13:37:10.546875
2654,-6.44,2022-08-17 13:37:10.562500
2655,1.92,2022-08-17 13:37:10.578125
2656,10.24,2022-08-17 13:37:10.593750
2657,17.08,2022-08-17 13:37:10.609375
2658,21.41,2022-08-17 13:37:10.625000
2659,22.95,2022-08-17 13:37:10.640625
2660,21.93,2022-08-17 13:37:10.656250
2661,18.89,2022-08-17 13:37:10.671875
2662,14.37,2022-08-17 13:37:10.687500
2663,8.84,2022-08-17 13:37:10.703125
2664,2.79,2022-08-17 13:37:10.718750
2665,-3.15,2022-08-17 13:37:10.734375
2666,-8.19,2022-08-17 13:37:10.750000
2667,-11.51,2022-08-17 13:37:10.765625
2668,-12.56,2022-08-17 13:37:10.781250
2669,-11.29,2022-08-17 13:37:10.796875
2670,-8.2,2022-08-17 13:37:10.812500
2671,-4.17,2022-08-17 13:37:10.828125
2672,-0.05,2022-08-17 13:37:10.843750
2673,3.58,2022-08-17 13:37:10.859375
2674,6.57,2022-08-17 13:37:10.875000
2675,9.09,2022-08-17 13:37:10.890625
2676,11.29,2022-08-17 13:37:10.906250
2677,13.12,2022-08-17 13:37:10.921875
2678,14.2,2022-08-17 13:37:10.937500
2679,13.96,2022-08-17 13:37:10.953125
2680,11.83,2022-08-17 13:37:10.968750
2681,7.49,2022-08-17 13:37:10.984375
2682,1.01,2022-08-17 13:37:11.000000
2683,-7.12,2022-08-17 13:37:11.015625
2684,-16.07,2022-08-17 13:37:11.031250
2685,-24.83,2022-08-17 13:37:11.046875
2686,-32.4,2022-08-17 13:37:11.062500
2687,-38.05,2022-08-17 13:37:11.078125
2688,-41.44,2022-08-17 13:37:11.093750
2689,-42.68,2022-08-17 13:37:11.109375
2690,-42.3,2022-08-17 13:37:11.125000
2691,-41.03,2022-08-17 13:37:11.140625
2692,-39.56,2022-08-17 13:37:11.156250
2693,-38.4,2022-08-17 13:37:11.171875
2694,-37.66,2022-08-17 13:37:11.187500
2695,-37.0,2022-08-17 13:37:11.203125
2696,-35.7,2022-08-17 13:37:11.218750
2697,-32.78,2022-08-17 13:37:11.234375
2698,-27.31,2022-08-17 13:37:11.250000
2699,-18.72,2022-08-17 13:37:11.265625
2700,-7.08,2022-08-17 13:37:11.281250
2701,6.79,2022-08-17 13:37:11.296875
2702,21.48,2022-08-17 13:37:11.312500
2703,35.31,2022-08-17 13:37:11.328125
2704,46.79,2022-08-17 13:37:11.343750
2705,54.96,2022-08-17 13:37:11.359375
2706,59.61,2022-08-17 13:37:11.375000
2707,61.19,2022-08-17 13:37:11.390625
2708,60.54,2022-08-17 13:37:11.406250
2709,58.53,2022-08-17 13:37:11.421875
2710,55.81,2022-08-17 13:37:11.437500
2711,52.64,2022-08-17 13:37:11.453125
2712,49.0,2022-08-17 13:37:11.468750
2713,44.74,2022-08-17 13:37:11.484375
2714,39.65,2022-08-17 13:37:11.500000
2715,33.65,2022-08-17 13:37:11.515625
2716,26.74,2022-08-17 13:37:11.531250
2717,18.98,2022-08-17 13:37:11.546875
2718,10.58,2022-08-17 13:37:11.562500
2719,1.97,2022-08-17 13:37:11.578125
2720,-6.05,2022-08-17 13:37:11.593750
2721,-12.37,2022-08-17 13:37:11.609375
2722,-15.84,2022-08-17 13:37:11.625000
2723,-15.68,2022-08-17 13:37:11.640625
2724,-11.82,2022-08-17 13:37:11.656250
2725,-5.09,2022-08-17 13:37:11.671875
2726,3.06,2022-08-17 13:37:11.687500
2727,10.91,2022-08-17 13:37:11.703125
2728,17.07,2022-08-17 13:37:11.718750
2729,20.73,2022-08-17 13:37:11.734375
2730,21.72,2022-08-17 13:37:11.750000
2731,20.23,2022-08-17 13:37:11.765625
2732,16.6,2022-08-17 13:37:11.781250
2733,11.05,2022-08-17 13:37:11.796875
2734,3.63,2022-08-17 13:37:11.812500
2735,-5.63,2022-08-17 13:37:11.828125
2736,-16.67,2022-08-17 13:37:11.843750
2737,-29.26,2022-08-17 13:37:11.859375
2738,-42.99,2022-08-17 13:37:11.875000
2739,-57.25,2022-08-17 13:37:11.890625
2740,-71.17,2022-08-17 13:37:11.906250
2741,-83.61,2022-08-17 13:37:11.921875
2742,-93.26,2022-08-17 13:37:11.937500
2743,-98.84,2022-08-17 13:37:11.953125
2744,-99.46,2022-08-17 13:37:11.968750
2745,-94.91,2022-08-17 13:37:11.984375
2746,-85.85,2022-08-17 13:37:12.000000
2747,-73.65,2022-08-17 13:37:12.015625
2748,-59.94,2022-08-17 13:37:12.031250
2749,-46.21,2022-08-17 13:37:12.046875
2750,-33.47,2022-08-17 13:37:12.062500
2751,-22.17,2022-08-17 13:37:12.078125
2752,-12.41,2022-08-17 13:37:12.093750
2753,-4.23,2022-08-17 13:37:12.109375
2754,2.23,2022-08-17 13:37:12.125000
2755,6.77,2022-08-17 13:37:12.140625
2756,9.31,2022-08-17 13:37:12.156250
2757,10.02,2022-08-17 13:37:12.171875
2758,9.43,2022-08-17 13:37:12.187500
2759,8.18,2022-08-17 13:37:12.203125
2760,6.8,2022-08-17 13:37:12.218750
2761,5.51,2022-08-17 13:37:12.234375
2762,4.21,2022-08-17 13:37:12.250000
2763,2.59,2022-08-17 13:37:12.265625
2764,0.44,2022-08-17 13:37:12.281250
2765,-2.21,2022-08-17 13:37:12.296875
2766,-5.09,2022-08-17 13:37:12.312500
2767,-7.78,2022-08-17 13:37:12.328125
2768,-9.99,2022-08-17 13:37:12.343750
2769,-11.67,2022-08-17 13:37:12.359375
2770,-13.07,2022-08-17 13:37:12.375000
2771,-14.58,2022-08-17 13:37:12.390625
2772,-16.52,2022-08-17 13:37:12.406250
2773,-18.98,2022-08-17 13:37:12.421875
2774,-21.73,2022-08-17 13:37:12.437500
2775,-24.36,2022-08-17 13:37:12.453125
2776,-26.47,2022-08-17 13:37:12.468750
2777,-27.81,2022-08-17 13:37:12.484375
2778,-28.46,2022-08-17 13:37:12.500000
2779,-28.74,2022-08-17 13:37:12.515625
2780,-29.13,2022-08-17 13:37:12.531250
2781,-30.08,2022-08-17 13:37:12.546875
2782,-31.85,2022-08-17 13:37:12.562500
2783,-34.46,2022-08-17 13:37:12.578125
2784,-37.59,2022-08-17 13:37:12.593750
2785,-40.68,2022-08-17 13:37:12.609375
2786,-42.87,2022-08-17 13:37:12.625000
2787,-43.22,2022-08-17 13:37:12.640625
2788,-40.85,2022-08-17 13:37:12.656250
2789,-35.22,2022-08-17 13:37:12.671875
2790,-26.32,2022-08-17 13:37:12.687500
2791,-14.74,2022-08-17 13:37:12.703125
2792,-1.62,2022-08-17 13:37:12.718750
2793,11.63,2022-08-17 13:37:12.734375
2794,23.57,2022-08-17 13:37:12.750000
2795,33.06,2022-08-17 13:37:12.765625
2796,39.41,2022-08-17 13:37:12.781250
2797,42.49,2022-08-17 13:37:12.796875
2798,42.63,2022-08-17 13:37:12.812500
2799,40.54,2022-08-17 13:37:12.828125
2800,37.05,2022-08-17 13:37:12.843750
2801,32.97,2022-08-17 13:37:12.859375
2802,28.91,2022-08-17 13:37:12.875000
2803,25.27,2022-08-17 13:37:12.890625
2804,22.34,2022-08-17 13:37:12.906250
2805,20.34,2022-08-17 13:37:12.921875
2806,19.46,2022-08-17 13:37:12.937500
2807,19.86,2022-08-17 13:37:12.953125
2808,21.48,2022-08-17 13:37:12.968750
2809,24.05,2022-08-17 13:37:12.984375
2810,27.1,2022-08-17 13:37:13.000000
2811,30.07,2022-08-17 13:37:13.015625
2812,32.49,2022-08-17 13:37:13.031250
2813,34.02,2022-08-17 13:37:13.046875
2814,34.49,2022-08-17 13:37:13.062500
2815,33.81,2022-08-17 13:37:13.078125
2816,31.97,2022-08-17 13:37:13.093750
2817,28.99,2022-08-17 13:37:13.109375
2818,25.03,2022-08-17 13:37:13.125000
2819,20.38,2022-08-17 13:37:13.140625
2820,15.44,2022-08-17 13:37:13.156250
2821,10.59,2022-08-17 13:37:13.171875
2822,6.07,2022-08-17 13:37:13.187500
2823,1.88,2022-08-17 13:37:13.203125
2824,-2.15,2022-08-17 13:37:13.218750
2825,-6.32,2022-08-17 13:37:13.234375
2826,-10.79,2022-08-17 13:37:13.250000
2827,-15.49,2022-08-17 13:37:13.265625
2828,-19.96,2022-08-17 13:37:13.281250
2829,-23.35,2022-08-17 13:37:13.296875
2830,-24.61,2022-08-17 13:37:13.312500
2831,-22.78,2022-08-17 13:37:13.328125
2832,-17.32,2022-08-17 13:37:13.343750
2833,-8.34,2022-08-17 13:37:13.359375
2834,3.33,2022-08-17 13:37:13.375000
2835,16.35,2022-08-17 13:37:13.390625
2836,29.18,2022-08-17 13:37:13.406250
2837,40.38,2022-08-17 13:37:13.421875
2838,48.77,2022-08-17 13:37:13.437500
2839,53.5,2022-08-17 13:37:13.453125
2840,54.02,2022-08-17 13:37:13.468750
2841,50.14,2022-08-17 13:37:13.484375
2842,42.23,2022-08-17 13:37:13.500000
2843,31.35,2022-08-17 13:37:13.515625
2844,19.21,2022-08-17 13:37:13.531250
2845,7.85,2022-08-17 13:37:13.546875
2846,-0.88,2022-08-17 13:37:13.562500
2847,-5.86,2022-08-17 13:37:13.578125
2848,-6.95,2022-08-17 13:37:13.593750
2849,-4.92,2022-08-17 13:37:13.609375
2850,-1.02,2022-08-17 13:37:13.625000
2851,3.48,2022-08-17 13:37:13.640625
2852,7.7,2022-08-17 13:37:13.656250
2853,11.3,2022-08-17 13:37:13.671875
2854,14.37,2022-08-17 13:37:13.687500
2855,17.19,2022-08-17 13:37:13.703125
2856,19.99,2022-08-17 13:37:13.718750
2857,22.75,2022-08-17 13:37:13.734375
2858,25.12,2022-08-17 13:37:13.750000
2859,26.51,2022-08-17 13:37:13.765625
2860,26.21,2022-08-17 13:37:13.781250
2861,23.61,2022-08-17 13:37:13.796875
2862,18.46,2022-08-17 13:37:13.812500
2863,10.97,2022-08-17 13:37:13.828125
2864,1.76,2022-08-17 13:37:13.843750
2865,-8.25,2022-08-17 13:37:13.859375
2866,-18.1,2022-08-17 13:37:13.875000
2867,-27.02,2022-08-17 13:37:13.890625
2868,-34.59,2022-08-17 13:37:13.906250
2869,-40.78,2022-08-17 13:37:13.921875
2870,-45.88,2022-08-17 13:37:13.937500
2871,-50.29,2022-08-17 13:37:13.953125
2872,-54.27,2022-08-17 13:37:13.968750
2873,-57.74,2022-08-17 13:37:13.984375
2874,-60.16,2022-08-17 13:37:14.000000
2875,-60.68,2022-08-17 13:37:14.015625
2876,-58.37,2022-08-17 13:37:14.031250
2877,-52.61,2022-08-17 13:37:14.046875
2878,-43.33,2022-08-17 13:37:14.062500
2879,-31.13,2022-08-17 13:37:14.078125
2880,-17.08,2022-08-17 13:37:14.093750
2881,-2.5,2022-08-17 13:37:14.109375
2882,11.32,2022-08-17 13:37:14.125000
2883,23.36,2022-08-17 13:37:14.140625
2884,32.83,2022-08-17 13:37:14.156250
2885,39.22,2022-08-17 13:37:14.171875
2886,42.14,2022-08-17 13:37:14.187500
2887,41.49,2022-08-17 13:37:14.203125
2888,37.53,2022-08-17 13:37:14.218750
2889,30.99,2022-08-17 13:37:14.234375
2890,22.98,2022-08-17 13:37:14.250000
2891,14.84,2022-08-17 13:37:14.265625
2892,7.81,2022-08-17 13:37:14.281250
2893,2.74,2022-08-17 13:37:14.296875
2894,-0.07,2022-08-17 13:37:14.312500
2895,-0.96,2022-08-17 13:37:14.328125
2896,-0.72,2022-08-17 13:37:14.343750
2897,-0.24,2022-08-17 13:37:14.359375
2898,-0.26,2022-08-17 13:37:14.375000
2899,-1.15,2022-08-17 13:37:14.390625
2900,-2.88,2022-08-17 13:37:14.406250
2901,-5.17,2022-08-17 13:37:14.421875
2902,-7.63,2022-08-17 13:37:14.437500
2903,-10.03,2022-08-17 13:37:14.453125
2904,-12.59,2022-08-17 13:37:14.468750
2905,-15.81,2022-08-17 13:37:14.484375
2906,-20.16,2022-08-17 13:37:14.500000
2907,-25.8,2022-08-17 13:37:14.515625
2908,-32.34,2022-08-17 13:37:14.531250
2909,-38.81,2022-08-17 13:37:14.546875
2910,-43.87,2022-08-17 13:37:14.562500
2911,-46.17,2022-08-17 13:37:14.578125
2912,-44.73,2022-08-17 13:37:14.593750
2913,-39.66,2022-08-17 13:37:14.609375
2914,-32.0,2022-08-17 13:37:14.625000
2915,-23.19,2022-08-17 13:37:14.640625
2916,-14.78,2022-08-17 13:37:14.656250
2917,-7.95,2022-08-17 13:37:14.671875
2918,-3.04,2022-08-17 13:37:14.687500
2919,0.46,2022-08-17 13:37:14.703125
2920,3.85,2022-08-17 13:37:14.718750
2921,8.8,2022-08-17 13:37:14.734375
2922,15.78,2022-08-17 13:37:14.750000
2923,24.18,2022-08-17 13:37:14.765625
2924,32.82,2022-08-17 13:37:14.781250
2925,40.1,2022-08-17 13:37:14.796875
2926,44.78,2022-08-17 13:37:14.812500
2927,46.48,2022-08-17 13:37:14.828125
2928,45.93,2022-08-17 13:37:14.843750
2929,44.78,2022-08-17 13:37:14.859375
2930,44.94,2022-08-17 13:37:14.875000
2931,46.49,2022-08-17 13:37:14.890625
2932,48.01,2022-08-17 13:37:14.906250
2933,47.72,2022-08-17 13:37:14.921875
2934,43.52,2022-08-17 13:37:14.937500
2935,33.91,2022-08-17 13:37:14.953125
2936,18.63,2022-08-17 13:37:14.968750
2937,-1.03,2022-08-17 13:37:14.984375
2938,-22.05,2022-08-17 13:37:15.000000
2939,-40.04,2022-08-17 13:37:15.015625
2940,-51.69,2022-08-17 13:37:15.031250
2941,-54.59,2022-08-17 13:37:15.046875
2942,-47.03,2022-08-17 13:37:15.062500
2943,-29.24,2022-08-17 13:37:15.078125
2944,-3.77,2022-08-17 13:37:15.093750
2945,24.94,2022-08-17 13:37:15.109375
2946,49.46,2022-08-17 13:37:15.125000
2947,60.38,2022-08-17 13:37:15.140625
2948,59.32,2022-08-17 13:37:15.156250
2949,51.84,2022-08-17 13:37:15.171875
2950,41.36,2022-08-17 13:37:15.187500
2951,33.36,2022-08-17 13:37:15.203125
2952,32.52,2022-08-17 13:37:15.218750
2953,40.79,2022-08-17 13:37:15.234375
2954,56.49,2022-08-17 13:37:15.250000
2955,74.95,2022-08-17 13:37:15.265625
2956,90.64,2022-08-17 13:37:15.281250
2957,99.6,2022-08-17 13:37:15.296875
2958,99.2,2022-08-17 13:37:15.312500
2959,89.46,2022-08-17 13:37:15.328125
2960,73.07,2022-08-17 13:37:15.343750
2961,53.33,2022-08-17 13:37:15.359375
2962,32.83,2022-08-17 13:37:15.375000
2963,13.23,2022-08-17 13:37:15.390625
2964,-4.31,2022-08-17 13:37:15.406250
2965,-18.33,2022-08-17 13:37:15.421875
2966,-26.93,2022-08-17 13:37:15.437500
2967,-29.63,2022-08-17 13:37:15.453125
2968,-27.45,2022-08-17 13:37:15.468750
2969,-22.34,2022-08-17 13:37:15.484375
2970,-17.18,2022-08-17 13:37:15.500000
2971,-14.78,2022-08-17 13:37:15.515625
2972,-16.53,2022-08-17 13:37:15.531250
2973,-21.79,2022-08-17 13:37:15.546875
2974,-27.94,2022-08-17 13:37:15.562500
2975,-31.48,2022-08-17 13:37:15.578125
2976,-30.35,2022-08-17 13:37:15.593750
2977,-24.5,2022-08-17 13:37:15.609375
2978,-15.37,2022-08-17 13:37:15.625000
2979,-5.39,2022-08-17 13:37:15.640625
2980,3.07,2022-08-17 13:37:15.656250
2981,8.64,2022-08-17 13:37:15.671875
2982,11.11,2022-08-17 13:37:15.687500
2983,11.11,2022-08-17 13:37:15.703125
2984,9.5,2022-08-17 13:37:15.718750
2985,6.6,2022-08-17 13:37:15.734375
2986,2.39,2022-08-17 13:37:15.750000
2987,-2.82,2022-08-17 13:37:15.765625
2988,-8.25,2022-08-17 13:37:15.781250
2989,-12.73,2022-08-17 13:37:15.796875
2990,-15.09,2022-08-17 13:37:15.812500
2991,-14.7,2022-08-17 13:37:15.828125
2992,-11.72,2022-08-17 13:37:15.843750
2993,-6.94,2022-08-17 13:37:15.859375
2994,-1.45,2022-08-17 13:37:15.875000
2995,3.86,2022-08-17 13:37:15.890625
2996,8.6,2022-08-17 13:37:15.906250
2997,12.73,2022-08-17 13:37:15.921875
2998,16.32,2022-08-17 13:37:15.937500
2999,19.52,2022-08-17 13:37:15.953125
3000,22.51,2022-08-17 13:37:15.968750
3001,25.55,2022-08-17 13:37:15.984375
3002,29.15,2022-08-17 13:37:16.000000
3003,33.89,2022-08-17 13:37:16.015625
3004,40.31,2022-08-17 13:37:16.031250
3005,48.64,2022-08-17 13:37:16.046875
3006,58.65,2022-08-17 13:37:16.062500
3007,69.62,2022-08-17 13:37:16.078125
3008,80.49,2022-08-17 13:37:16.093750
3009,90.04,2022-08-17 13:37:16.109375
3010,97.03,2022-08-17 13:37:16.125000
3011,100.32,2022-08-17 13:37:16.140625
3012,98.94,2022-08-17 13:37:16.156250
3013,92.22,2022-08-17 13:37:16.171875
3014,79.99,2022-08-17 13:37:16.187500
3015,62.66,2022-08-17 13:37:16.203125
3016,41.27,2022-08-17 13:37:16.218750
3017,17.27,2022-08-17 13:37:16.234375
3018,-7.71,2022-08-17 13:37:16.250000
3019,-32.19,2022-08-17 13:37:16.265625
3020,-54.99,2022-08-17 13:37:16.281250
3021,-75.35,2022-08-17 13:37:16.296875
3022,-92.81,2022-08-17 13:37:16.312500
3023,-107.12,2022-08-17 13:37:16.328125
3024,-118.15,2022-08-17 13:37:16.343750
3025,-125.93,2022-08-17 13:37:16.359375
3026,-130.64,2022-08-17 13:37:16.375000
3027,-132.73,2022-08-17 13:37:16.390625
3028,-132.8,2022-08-17 13:37:16.406250
3029,-131.53,2022-08-17 13:37:16.421875
3030,-129.45,2022-08-17 13:37:16.437500
3031,-126.88,2022-08-17 13:37:16.453125
3032,-123.91,2022-08-17 13:37:16.468750
3033,-120.49,2022-08-17 13:37:16.484375
3034,-116.56,2022-08-17 13:37:16.500000
3035,-112.14,2022-08-17 13:37:16.515625
3036,-107.37,2022-08-17 13:37:16.531250
3037,-102.44,2022-08-17 13:37:16.546875
3038,-97.56,2022-08-17 13:37:16.562500
3039,-92.89,2022-08-17 13:37:16.578125
3040,-88.63,2022-08-17 13:37:16.593750
3041,-84.94,2022-08-17 13:37:16.609375
3042,-82.02,2022-08-17 13:37:16.625000
3043,-79.9,2022-08-17 13:37:16.640625
3044,-78.35,2022-08-17 13:37:16.656250
3045,-76.71,2022-08-17 13:37:16.671875
3046,-73.98,2022-08-17 13:37:16.687500
3047,-69.0,2022-08-17 13:37:16.703125
3048,-60.88,2022-08-17 13:37:16.718750
3049,-49.31,2022-08-17 13:37:16.734375
3050,-34.73,2022-08-17 13:37:16.750000
3051,-18.19,2022-08-17 13:37:16.765625
3052,-1.08,2022-08-17 13:37:16.781250
3053,15.3,2022-08-17 13:37:16.796875
3054,29.95,2022-08-17 13:37:16.812500
3055,42.33,2022-08-17 13:37:16.828125
3056,52.2,2022-08-17 13:37:16.843750
3057,59.52,2022-08-17 13:37:16.859375
3058,64.33,2022-08-17 13:37:16.875000
3059,66.75,2022-08-17 13:37:16.890625
3060,66.98,2022-08-17 13:37:16.906250
3061,65.4,2022-08-17 13:37:16.921875
3062,62.56,2022-08-17 13:37:16.937500
3063,59.09,2022-08-17 13:37:16.953125
3064,55.63,2022-08-17 13:37:16.968750
3065,52.64,2022-08-17 13:37:16.984375
3066,50.26,2022-08-17 13:37:17.000000
3067,48.39,2022-08-17 13:37:17.015625
3068,46.72,2022-08-17 13:37:17.031250
3069,44.96,2022-08-17 13:37:17.046875
3070,42.99,2022-08-17 13:37:17.062500
3071,40.93,2022-08-17 13:37:17.078125
3072,39.02,2022-08-17 13:37:17.093750
3073,37.45,2022-08-17 13:37:17.109375
3074,36.18,2022-08-17 13:37:17.125000
3075,34.91,2022-08-17 13:37:17.140625
3076,33.22,2022-08-17 13:37:17.156250
3077,30.86,2022-08-17 13:37:17.171875
3078,27.85,2022-08-17 13:37:17.187500
3079,24.57,2022-08-17 13:37:17.203125
3080,21.53,2022-08-17 13:37:17.218750
3081,19.06,2022-08-17 13:37:17.234375
3082,17.08,2022-08-17 13:37:17.250000
3083,15.07,2022-08-17 13:37:17.265625
3084,12.28,2022-08-17 13:37:17.281250
3085,8.12,2022-08-17 13:37:17.296875
3086,2.59,2022-08-17 13:37:17.312500
3087,-3.6,2022-08-17 13:37:17.328125
3088,-9.11,2022-08-17 13:37:17.343750
3089,-12.45,2022-08-17 13:37:17.359375
3090,-12.52,2022-08-17 13:37:17.375000
3091,-8.98,2022-08-17 13:37:17.390625
3092,-2.39,2022-08-17 13:37:17.406250
3093,6.09,2022-08-17 13:37:17.421875
3094,15.08,2022-08-17 13:37:17.437500
3095,23.46,2022-08-17 13:37:17.453125
3096,30.54,2022-08-17 13:37:17.468750
3097,36.02,2022-08-17 13:37:17.484375
3098,39.84,2022-08-17 13:37:17.500000
3099,42.01,2022-08-17 13:37:17.515625
3100,42.48,2022-08-17 13:37:17.531250
3101,41.25,2022-08-17 13:37:17.546875
3102,38.45,2022-08-17 13:37:17.562500
3103,34.34,2022-08-17 13:37:17.578125
3104,29.29,2022-08-17 13:37:17.593750
3105,23.67,2022-08-17 13:37:17.609375
3106,17.82,2022-08-17 13:37:17.625000
3107,12.01,2022-08-17 13:37:17.640625
3108,6.55,2022-08-17 13:37:17.656250
3109,1.79,2022-08-17 13:37:17.671875
3110,-1.98,2022-08-17 13:37:17.687500
3111,-4.61,2022-08-17 13:37:17.703125
3112,-6.24,2022-08-17 13:37:17.718750
3113,-7.29,2022-08-17 13:37:17.734375
3114,-8.34,2022-08-17 13:37:17.750000
3115,-9.92,2022-08-17 13:37:17.765625
3116,-12.31,2022-08-17 13:37:17.781250
3117,-15.43,2022-08-17 13:37:17.796875
3118,-18.91,2022-08-17 13:37:17.812500
3119,-22.3,2022-08-17 13:37:17.828125
3120,-25.25,2022-08-17 13:37:17.843750
3121,-27.7,2022-08-17 13:37:17.859375
3122,-29.91,2022-08-17 13:37:17.875000
3123,-32.37,2022-08-17 13:37:17.890625
3124,-35.58,2022-08-17 13:37:17.906250
3125,-39.91,2022-08-17 13:37:17.921875
3126,-45.49,2022-08-17 13:37:17.937500
3127,-52.14,2022-08-17 13:37:17.953125
3128,-59.41,2022-08-17 13:37:17.968750
3129,-66.56,2022-08-17 13:37:17.984375
3130,-72.56,2022-08-17 13:37:18.000000
3131,-76.29,2022-08-17 13:37:18.015625
3132,-76.66,2022-08-17 13:37:18.031250
3133,-72.96,2022-08-17 13:37:18.046875
3134,-65.15,2022-08-17 13:37:18.062500
3135,-53.94,2022-08-17 13:37:18.078125
3136,-40.71,2022-08-17 13:37:18.093750
3137,-27.07,2022-08-17 13:37:18.109375
3138,-14.48,2022-08-17 13:37:18.125000
3139,-3.8,2022-08-17 13:37:18.140625
3140,4.69,2022-08-17 13:37:18.156250
3141,11.17,2022-08-17 13:37:18.171875
3142,15.92,2022-08-17 13:37:18.187500
3143,19.13,2022-08-17 13:37:18.203125
3144,20.74,2022-08-17 13:37:18.218750
3145,20.61,2022-08-17 13:37:18.234375
3146,18.68,2022-08-17 13:37:18.250000
3147,15.16,2022-08-17 13:37:18.265625
3148,10.54,2022-08-17 13:37:18.281250
3149,5.49,2022-08-17 13:37:18.296875
3150,0.65,2022-08-17 13:37:18.312500
3151,-3.52,2022-08-17 13:37:18.328125
3152,-6.82,2022-08-17 13:37:18.343750
3153,-9.25,2022-08-17 13:37:18.359375
3154,-10.9,2022-08-17 13:37:18.375000
3155,-11.88,2022-08-17 13:37:18.390625
3156,-12.31,2022-08-17 13:37:18.406250
3157,-12.39,2022-08-17 13:37:18.421875
3158,-12.4,2022-08-17 13:37:18.437500
3159,-12.68,2022-08-17 13:37:18.453125
3160,-13.54,2022-08-17 13:37:18.468750
3161,-15.11,2022-08-17 13:37:18.484375
3162,-17.29,2022-08-17 13:37:18.500000
3163,-19.78,2022-08-17 13:37:18.515625
3164,-22.24,2022-08-17 13:37:18.531250
3165,-24.45,2022-08-17 13:37:18.546875
3166,-26.4,2022-08-17 13:37:18.562500
3167,-28.32,2022-08-17 13:37:18.578125
