,BVP,time
0,-8.08,2021-12-17 16:56:31.671875
1,-7.69,2021-12-17 16:56:31.687500
2,-7.02,2021-12-17 16:56:31.703125
3,-5.95,2021-12-17 16:56:31.718750
4,-4.45,2021-12-17 16:56:31.734375
5,-2.65,2021-12-17 16:56:31.750000
6,-0.71,2021-12-17 16:56:31.765625
7,1.2,2021-12-17 16:56:31.781250
8,2.95,2021-12-17 16:56:31.796875
9,4.47,2021-12-17 16:56:31.812500
10,5.72,2021-12-17 16:56:31.828125
11,6.64,2021-12-17 16:56:31.843750
12,7.17,2021-12-17 16:56:31.859375
13,7.28,2021-12-17 16:56:31.875000
14,7.07,2021-12-17 16:56:31.890625
15,6.7,2021-12-17 16:56:31.906250
16,6.37,2021-12-17 16:56:31.921875
17,6.27,2021-12-17 16:56:31.937500
18,6.43,2021-12-17 16:56:31.953125
19,6.72,2021-12-17 16:56:31.968750
20,6.93,2021-12-17 16:56:31.984375
21,6.87,2021-12-17 16:56:32.000000
22,6.44,2021-12-17 16:56:32.015625
23,5.72,2021-12-17 16:56:32.031250
24,4.87,2021-12-17 16:56:32.046875
25,4.09,2021-12-17 16:56:32.062500
26,3.44,2021-12-17 16:56:32.078125
27,2.87,2021-12-17 16:56:32.093750
28,2.23,2021-12-17 16:56:32.109375
29,1.36,2021-12-17 16:56:32.125000
30,0.16,2021-12-17 16:56:32.140625
31,-1.29,2021-12-17 16:56:32.156250
32,-2.81,2021-12-17 16:56:32.171875
33,-4.19,2021-12-17 16:56:32.187500
34,-5.29,2021-12-17 16:56:32.203125
35,-6.09,2021-12-17 16:56:32.218750
36,-6.73,2021-12-17 16:56:32.234375
37,-7.39,2021-12-17 16:56:32.250000
38,-8.15,2021-12-17 16:56:32.265625
39,-8.96,2021-12-17 16:56:32.281250
40,-9.57,2021-12-17 16:56:32.296875
41,-9.66,2021-12-17 16:56:32.312500
42,-9.02,2021-12-17 16:56:32.328125
43,-7.59,2021-12-17 16:56:32.343750
44,-5.58,2021-12-17 16:56:32.359375
45,-3.29,2021-12-17 16:56:32.375000
46,-1.08,2021-12-17 16:56:32.390625
47,0.8,2021-12-17 16:56:32.406250
48,2.3,2021-12-17 16:56:32.421875
49,3.52,2021-12-17 16:56:32.437500
50,4.7,2021-12-17 16:56:32.453125
51,6.09,2021-12-17 16:56:32.468750
52,7.81,2021-12-17 16:56:32.484375
53,9.85,2021-12-17 16:56:32.500000
54,11.94,2021-12-17 16:56:32.515625
55,13.71,2021-12-17 16:56:32.531250
56,14.84,2021-12-17 16:56:32.546875
57,15.17,2021-12-17 16:56:32.562500
58,14.94,2021-12-17 16:56:32.578125
59,14.67,2021-12-17 16:56:32.593750
60,14.94,2021-12-17 16:56:32.609375
61,16.18,2021-12-17 16:56:32.625000
62,18.3,2021-12-17 16:56:32.640625
63,20.73,2021-12-17 16:56:32.656250
64,22.65,2021-12-17 16:56:32.671875
65,23.47,2021-12-17 16:56:32.687500
66,23.15,2021-12-17 16:56:32.703125
67,22.35,2021-12-17 16:56:32.718750
68,22.08,2021-12-17 16:56:32.734375
69,23.12,2021-12-17 16:56:32.750000
70,25.54,2021-12-17 16:56:32.765625
71,28.5,2021-12-17 16:56:32.781250
72,30.7,2021-12-17 16:56:32.796875
73,30.99,2021-12-17 16:56:32.812500
74,28.81,2021-12-17 16:56:32.828125
75,24.24,2021-12-17 16:56:32.843750
76,17.79,2021-12-17 16:56:32.859375
77,10.19,2021-12-17 16:56:32.875000
78,2.34,2021-12-17 16:56:32.890625
79,-4.23,2021-12-17 16:56:32.906250
80,-7.46,2021-12-17 16:56:32.921875
81,-5.15,2021-12-17 16:56:32.937500
82,4.53,2021-12-17 16:56:32.953125
83,22.28,2021-12-17 16:56:32.968750
84,47.04,2021-12-17 16:56:32.984375
85,76.21,2021-12-17 16:56:33.000000
86,105.99,2021-12-17 16:56:33.015625
87,132.48,2021-12-17 16:56:33.031250
88,152.71,2021-12-17 16:56:33.046875
89,164.9,2021-12-17 16:56:33.062500
90,168.06,2021-12-17 16:56:33.078125
91,161.17,2021-12-17 16:56:33.093750
92,142.73,2021-12-17 16:56:33.109375
93,111.17,2021-12-17 16:56:33.125000
94,66.32,2021-12-17 16:56:33.140625
95,10.89,2021-12-17 16:56:33.156250
96,-49.02,2021-12-17 16:56:33.171875
97,-104.6,2021-12-17 16:56:33.187500
98,-147.07,2021-12-17 16:56:33.203125
99,-170.63,2021-12-17 16:56:33.218750
100,-174.09,2021-12-17 16:56:33.234375
101,-160.66,2021-12-17 16:56:33.250000
102,-136.1,2021-12-17 16:56:33.265625
103,-106.4,2021-12-17 16:56:33.281250
104,-76.23,2021-12-17 16:56:33.296875
105,-49.06,2021-12-17 16:56:33.312500
106,-27.54,2021-12-17 16:56:33.328125
107,-14.52,2021-12-17 16:56:33.343750
108,-12.53,2021-12-17 16:56:33.359375
109,-22.42,2021-12-17 16:56:33.375000
110,-42.33,2021-12-17 16:56:33.390625
111,-67.34,2021-12-17 16:56:33.406250
112,-90.56,2021-12-17 16:56:33.421875
113,-105.16,2021-12-17 16:56:33.437500
114,-106.27,2021-12-17 16:56:33.453125
115,-91.71,2021-12-17 16:56:33.468750
116,-63.15,2021-12-17 16:56:33.484375
117,-25.51,2021-12-17 16:56:33.500000
118,14.33,2021-12-17 16:56:33.515625
119,49.52,2021-12-17 16:56:33.531250
120,75.4,2021-12-17 16:56:33.546875
121,90.86,2021-12-17 16:56:33.562500
122,98.31,2021-12-17 16:56:33.578125
123,99.12,2021-12-17 16:56:33.593750
124,96.17,2021-12-17 16:56:33.609375
125,92.16,2021-12-17 16:56:33.625000
126,88.54,2021-12-17 16:56:33.640625
127,85.24,2021-12-17 16:56:33.656250
128,81.16,2021-12-17 16:56:33.671875
129,75.78,2021-12-17 16:56:33.687500
130,69.95,2021-12-17 16:56:33.703125
131,65.06,2021-12-17 16:56:33.718750
132,62.22,2021-12-17 16:56:33.734375
133,61.97,2021-12-17 16:56:33.750000
134,63.66,2021-12-17 16:56:33.765625
135,65.86,2021-12-17 16:56:33.781250
136,67.25,2021-12-17 16:56:33.796875
137,66.93,2021-12-17 16:56:33.812500
138,65.09,2021-12-17 16:56:33.828125
139,62.83,2021-12-17 16:56:33.843750
140,61.31,2021-12-17 16:56:33.859375
141,61.03,2021-12-17 16:56:33.875000
142,61.95,2021-12-17 16:56:33.890625
143,62.88,2021-12-17 16:56:33.906250
144,61.78,2021-12-17 16:56:33.921875
145,56.56,2021-12-17 16:56:33.937500
146,45.79,2021-12-17 16:56:33.953125
147,28.91,2021-12-17 16:56:33.968750
148,7.1,2021-12-17 16:56:33.984375
149,-17.33,2021-12-17 16:56:34.000000
150,-41.95,2021-12-17 16:56:34.015625
151,-65.06,2021-12-17 16:56:34.031250
152,-86.32,2021-12-17 16:56:34.046875
153,-106.71,2021-12-17 16:56:34.062500
154,-125.21,2021-12-17 16:56:34.078125
155,-142.75,2021-12-17 16:56:34.093750
156,-159.92,2021-12-17 16:56:34.109375
157,-176.54,2021-12-17 16:56:34.125000
158,-192.04,2021-12-17 16:56:34.140625
159,-205.32,2021-12-17 16:56:34.156250
160,-214.51,2021-12-17 16:56:34.171875
161,-216.78,2021-12-17 16:56:34.187500
162,-208.68,2021-12-17 16:56:34.203125
163,-187.59,2021-12-17 16:56:34.218750
164,-153.89,2021-12-17 16:56:34.234375
165,-111.28,2021-12-17 16:56:34.250000
166,-66.24,2021-12-17 16:56:34.265625
167,-26.03,2021-12-17 16:56:34.281250
168,4.33,2021-12-17 16:56:34.296875
169,23.72,2021-12-17 16:56:34.312500
170,35.08,2021-12-17 16:56:34.328125
171,43.19,2021-12-17 16:56:34.343750
172,51.26,2021-12-17 16:56:34.359375
173,58.14,2021-12-17 16:56:34.375000
174,59.03,2021-12-17 16:56:34.390625
175,47.93,2021-12-17 16:56:34.406250
176,21.32,2021-12-17 16:56:34.421875
177,-19.01,2021-12-17 16:56:34.437500
178,-66.6,2021-12-17 16:56:34.453125
179,-112.48,2021-12-17 16:56:34.468750
180,-148.62,2021-12-17 16:56:34.484375
181,-170.75,2021-12-17 16:56:34.500000
182,-179.21,2021-12-17 16:56:34.515625
183,-177.13,2021-12-17 16:56:34.531250
184,-168.09,2021-12-17 16:56:34.546875
185,-156.06,2021-12-17 16:56:34.562500
186,-140.56,2021-12-17 16:56:34.578125
187,-121.18,2021-12-17 16:56:34.593750
188,-98.62,2021-12-17 16:56:34.609375
189,-74.94,2021-12-17 16:56:34.625000
190,-52.68,2021-12-17 16:56:34.640625
191,-33.56,2021-12-17 16:56:34.656250
192,-17.0,2021-12-17 16:56:34.671875
193,-0.35,2021-12-17 16:56:34.687500
194,19.62,2021-12-17 16:56:34.703125
195,44.97,2021-12-17 16:56:34.718750
196,74.17,2021-12-17 16:56:34.734375
197,102.56,2021-12-17 16:56:34.750000
198,124.22,2021-12-17 16:56:34.765625
199,134.58,2021-12-17 16:56:34.781250
200,132.45,2021-12-17 16:56:34.796875
201,120.51,2021-12-17 16:56:34.812500
202,103.96,2021-12-17 16:56:34.828125
203,88.13,2021-12-17 16:56:34.843750
204,76.72,2021-12-17 16:56:34.859375
205,70.62,2021-12-17 16:56:34.875000
206,68.8,2021-12-17 16:56:34.890625
207,69.3,2021-12-17 16:56:34.906250
208,70.1,2021-12-17 16:56:34.921875
209,69.56,2021-12-17 16:56:34.937500
210,66.61,2021-12-17 16:56:34.953125
211,60.93,2021-12-17 16:56:34.968750
212,53.05,2021-12-17 16:56:34.984375
213,44.29,2021-12-17 16:56:35.000000
214,35.87,2021-12-17 16:56:35.015625
215,28.62,2021-12-17 16:56:35.031250
216,22.66,2021-12-17 16:56:35.046875
217,17.68,2021-12-17 16:56:35.062500
218,13.5,2021-12-17 16:56:35.078125
219,10.48,2021-12-17 16:56:35.093750
220,9.23,2021-12-17 16:56:35.109375
221,9.97,2021-12-17 16:56:35.125000
222,12.07,2021-12-17 16:56:35.140625
223,13.85,2021-12-17 16:56:35.156250
224,13.38,2021-12-17 16:56:35.171875
225,9.46,2021-12-17 16:56:35.187500
226,2.31,2021-12-17 16:56:35.203125
227,-6.54,2021-12-17 16:56:35.218750
228,-14.89,2021-12-17 16:56:35.234375
229,-20.93,2021-12-17 16:56:35.250000
230,-24.01,2021-12-17 16:56:35.265625
231,-24.75,2021-12-17 16:56:35.281250
232,-24.65,2021-12-17 16:56:35.296875
233,-25.29,2021-12-17 16:56:35.312500
234,-27.54,2021-12-17 16:56:35.328125
235,-31.11,2021-12-17 16:56:35.343750
236,-34.81,2021-12-17 16:56:35.359375
237,-37.11,2021-12-17 16:56:35.375000
238,-37.09,2021-12-17 16:56:35.390625
239,-34.78,2021-12-17 16:56:35.406250
240,-31.32,2021-12-17 16:56:35.421875
241,-28.47,2021-12-17 16:56:35.437500
242,-28.08,2021-12-17 16:56:35.453125
243,-31.64,2021-12-17 16:56:35.468750
244,-39.85,2021-12-17 16:56:35.484375
245,-52.35,2021-12-17 16:56:35.500000
246,-67.4,2021-12-17 16:56:35.515625
247,-81.72,2021-12-17 16:56:35.531250
248,-90.87,2021-12-17 16:56:35.546875
249,-90.34,2021-12-17 16:56:35.562500
250,-77.11,2021-12-17 16:56:35.578125
251,-51.01,2021-12-17 16:56:35.593750
252,-15.19,2021-12-17 16:56:35.609375
253,24.64,2021-12-17 16:56:35.625000
254,62.02,2021-12-17 16:56:35.640625
255,91.59,2021-12-17 16:56:35.656250
256,110.57,2021-12-17 16:56:35.671875
257,118.86,2021-12-17 16:56:35.687500
258,118.37,2021-12-17 16:56:35.703125
259,111.66,2021-12-17 16:56:35.718750
260,100.79,2021-12-17 16:56:35.734375
261,86.5,2021-12-17 16:56:35.750000
262,68.21,2021-12-17 16:56:35.765625
263,44.42,2021-12-17 16:56:35.781250
264,13.76,2021-12-17 16:56:35.796875
265,-23.88,2021-12-17 16:56:35.812500
266,-66.37,2021-12-17 16:56:35.828125
267,-109.05,2021-12-17 16:56:35.843750
268,-145.48,2021-12-17 16:56:35.859375
269,-169.24,2021-12-17 16:56:35.875000
270,-176.24,2021-12-17 16:56:35.890625
271,-166.47,2021-12-17 16:56:35.906250
272,-144.14,2021-12-17 16:56:35.921875
273,-116.08,2021-12-17 16:56:35.937500
274,-88.91,2021-12-17 16:56:35.953125
275,-66.87,2021-12-17 16:56:35.968750
276,-50.96,2021-12-17 16:56:35.984375
277,-39.9,2021-12-17 16:56:36.000000
278,-31.82,2021-12-17 16:56:36.015625
279,-25.33,2021-12-17 16:56:36.031250
280,-19.77,2021-12-17 16:56:36.046875
281,-14.26,2021-12-17 16:56:36.062500
282,-6.98,2021-12-17 16:56:36.078125
283,4.81,2021-12-17 16:56:36.093750
284,23.99,2021-12-17 16:56:36.109375
285,52.49,2021-12-17 16:56:36.125000
286,90.77,2021-12-17 16:56:36.140625
287,137.6,2021-12-17 16:56:36.156250
288,190.23,2021-12-17 16:56:36.171875
289,244.15,2021-12-17 16:56:36.187500
290,293.3,2021-12-17 16:56:36.203125
291,330.68,2021-12-17 16:56:36.218750
292,349.98,2021-12-17 16:56:36.234375
293,347.63,2021-12-17 16:56:36.250000
294,324.11,2021-12-17 16:56:36.265625
295,283.62,2021-12-17 16:56:36.281250
296,232.15,2021-12-17 16:56:36.296875
297,175.33,2021-12-17 16:56:36.312500
298,117.25,2021-12-17 16:56:36.328125
299,60.91,2021-12-17 16:56:36.343750
300,9.31,2021-12-17 16:56:36.359375
301,-33.69,2021-12-17 16:56:36.375000
302,-64.07,2021-12-17 16:56:36.390625
303,-79.47,2021-12-17 16:56:36.406250
304,-80.67,2021-12-17 16:56:36.421875
305,-71.86,2021-12-17 16:56:36.437500
306,-59.09,2021-12-17 16:56:36.453125
307,-47.9,2021-12-17 16:56:36.468750
308,-41.32,2021-12-17 16:56:36.484375
309,-39.57,2021-12-17 16:56:36.500000
310,-40.88,2021-12-17 16:56:36.515625
311,-42.93,2021-12-17 16:56:36.531250
312,-44.12,2021-12-17 16:56:36.546875
313,-43.95,2021-12-17 16:56:36.562500
314,-42.85,2021-12-17 16:56:36.578125
315,-41.56,2021-12-17 16:56:36.593750
316,-40.8,2021-12-17 16:56:36.609375
317,-40.92,2021-12-17 16:56:36.625000
318,-41.92,2021-12-17 16:56:36.640625
319,-43.4,2021-12-17 16:56:36.656250
320,-44.8,2021-12-17 16:56:36.671875
321,-45.59,2021-12-17 16:56:36.687500
322,-45.45,2021-12-17 16:56:36.703125
323,-44.45,2021-12-17 16:56:36.718750
324,-42.93,2021-12-17 16:56:36.734375
325,-41.33,2021-12-17 16:56:36.750000
326,-39.92,2021-12-17 16:56:36.765625
327,-38.7,2021-12-17 16:56:36.781250
328,-37.45,2021-12-17 16:56:36.796875
329,-35.92,2021-12-17 16:56:36.812500
330,-34.1,2021-12-17 16:56:36.828125
331,-32.22,2021-12-17 16:56:36.843750
332,-30.69,2021-12-17 16:56:36.859375
333,-29.83,2021-12-17 16:56:36.875000
334,-29.65,2021-12-17 16:56:36.890625
335,-29.85,2021-12-17 16:56:36.906250
336,-29.94,2021-12-17 16:56:36.921875
337,-29.46,2021-12-17 16:56:36.937500
338,-28.28,2021-12-17 16:56:36.953125
339,-26.6,2021-12-17 16:56:36.968750
340,-24.76,2021-12-17 16:56:36.984375
341,-23.11,2021-12-17 16:56:37.000000
342,-21.77,2021-12-17 16:56:37.015625
343,-20.61,2021-12-17 16:56:37.031250
344,-19.4,2021-12-17 16:56:37.046875
345,-17.99,2021-12-17 16:56:37.062500
346,-16.37,2021-12-17 16:56:37.078125
347,-14.7,2021-12-17 16:56:37.093750
348,-13.18,2021-12-17 16:56:37.109375
349,-11.93,2021-12-17 16:56:37.125000
350,-10.95,2021-12-17 16:56:37.140625
351,-10.15,2021-12-17 16:56:37.156250
352,-9.4,2021-12-17 16:56:37.171875
353,-8.62,2021-12-17 16:56:37.187500
354,-7.83,2021-12-17 16:56:37.203125
355,-7.06,2021-12-17 16:56:37.218750
356,-6.43,2021-12-17 16:56:37.234375
357,-5.99,2021-12-17 16:56:37.250000
358,-5.76,2021-12-17 16:56:37.265625
359,-5.69,2021-12-17 16:56:37.281250
360,-5.68,2021-12-17 16:56:37.296875
361,-5.6,2021-12-17 16:56:37.312500
362,-5.31,2021-12-17 16:56:37.328125
363,-4.75,2021-12-17 16:56:37.343750
364,-3.92,2021-12-17 16:56:37.359375
365,-2.93,2021-12-17 16:56:37.375000
366,-1.91,2021-12-17 16:56:37.390625
367,-1.04,2021-12-17 16:56:37.406250
368,-0.42,2021-12-17 16:56:37.421875
369,-0.09,2021-12-17 16:56:37.437500
370,-0.03,2021-12-17 16:56:37.453125
371,-0.14,2021-12-17 16:56:37.468750
372,-0.31,2021-12-17 16:56:37.484375
373,-0.44,2021-12-17 16:56:37.500000
374,-0.47,2021-12-17 16:56:37.515625
375,-0.42,2021-12-17 16:56:37.531250
376,-0.37,2021-12-17 16:56:37.546875
377,-0.41,2021-12-17 16:56:37.562500
378,-0.67,2021-12-17 16:56:37.578125
379,-1.18,2021-12-17 16:56:37.593750
380,-1.9,2021-12-17 16:56:37.609375
381,-2.67,2021-12-17 16:56:37.625000
382,-3.29,2021-12-17 16:56:37.640625
383,-3.6,2021-12-17 16:56:37.656250
384,-3.56,2021-12-17 16:56:37.671875
385,-3.21,2021-12-17 16:56:37.687500
386,-2.68,2021-12-17 16:56:37.703125
387,-2.07,2021-12-17 16:56:37.718750
388,-1.42,2021-12-17 16:56:37.734375
389,-0.7,2021-12-17 16:56:37.750000
390,0.11,2021-12-17 16:56:37.765625
391,1.05,2021-12-17 16:56:37.781250
392,2.09,2021-12-17 16:56:37.796875
393,3.14,2021-12-17 16:56:37.812500
394,4.17,2021-12-17 16:56:37.828125
395,5.11,2021-12-17 16:56:37.843750
396,5.9,2021-12-17 16:56:37.859375
397,6.5,2021-12-17 16:56:37.875000
398,6.86,2021-12-17 16:56:37.890625
399,6.94,2021-12-17 16:56:37.906250
400,6.68,2021-12-17 16:56:37.921875
401,6.14,2021-12-17 16:56:37.937500
402,5.37,2021-12-17 16:56:37.953125
403,4.54,2021-12-17 16:56:37.968750
404,3.83,2021-12-17 16:56:37.984375
405,3.34,2021-12-17 16:56:38.000000
406,3.12,2021-12-17 16:56:38.015625
407,3.08,2021-12-17 16:56:38.031250
408,3.02,2021-12-17 16:56:38.046875
409,2.79,2021-12-17 16:56:38.062500
410,2.3,2021-12-17 16:56:38.078125
411,1.64,2021-12-17 16:56:38.093750
412,0.97,2021-12-17 16:56:38.109375
413,0.45,2021-12-17 16:56:38.125000
414,0.1,2021-12-17 16:56:38.140625
415,-0.14,2021-12-17 16:56:38.156250
416,-0.4,2021-12-17 16:56:38.171875
417,-0.73,2021-12-17 16:56:38.187500
418,-1.05,2021-12-17 16:56:38.203125
419,-1.23,2021-12-17 16:56:38.218750
420,-1.14,2021-12-17 16:56:38.234375
421,-0.77,2021-12-17 16:56:38.250000
422,-0.25,2021-12-17 16:56:38.265625
423,0.24,2021-12-17 16:56:38.281250
424,0.59,2021-12-17 16:56:38.296875
425,0.75,2021-12-17 16:56:38.312500
426,0.77,2021-12-17 16:56:38.328125
427,0.69,2021-12-17 16:56:38.343750
428,0.5,2021-12-17 16:56:38.359375
429,0.07,2021-12-17 16:56:38.375000
430,-0.71,2021-12-17 16:56:38.390625
431,-1.96,2021-12-17 16:56:38.406250
432,-3.69,2021-12-17 16:56:38.421875
433,-5.78,2021-12-17 16:56:38.437500
434,-8.04,2021-12-17 16:56:38.453125
435,-10.26,2021-12-17 16:56:38.468750
436,-12.2,2021-12-17 16:56:38.484375
437,-13.61,2021-12-17 16:56:38.500000
438,-14.27,2021-12-17 16:56:38.515625
439,-13.98,2021-12-17 16:56:38.531250
440,-12.59,2021-12-17 16:56:38.546875
441,-10.05,2021-12-17 16:56:38.562500
442,-6.41,2021-12-17 16:56:38.578125
443,-1.89,2021-12-17 16:56:38.593750
444,3.12,2021-12-17 16:56:38.609375
445,8.11,2021-12-17 16:56:38.625000
446,12.46,2021-12-17 16:56:38.640625
447,15.57,2021-12-17 16:56:38.656250
448,16.9,2021-12-17 16:56:38.671875
449,16.2,2021-12-17 16:56:38.687500
450,13.48,2021-12-17 16:56:38.703125
451,9.07,2021-12-17 16:56:38.718750
452,3.56,2021-12-17 16:56:38.734375
453,-2.42,2021-12-17 16:56:38.750000
454,-8.26,2021-12-17 16:56:38.765625
455,-13.38,2021-12-17 16:56:38.781250
456,-17.33,2021-12-17 16:56:38.796875
457,-19.71,2021-12-17 16:56:38.812500
458,-20.2,2021-12-17 16:56:38.828125
459,-18.73,2021-12-17 16:56:38.843750
460,-15.54,2021-12-17 16:56:38.859375
461,-11.21,2021-12-17 16:56:38.875000
462,-6.61,2021-12-17 16:56:38.890625
463,-2.56,2021-12-17 16:56:38.906250
464,0.31,2021-12-17 16:56:38.921875
465,1.72,2021-12-17 16:56:38.937500
466,1.79,2021-12-17 16:56:38.953125
467,0.78,2021-12-17 16:56:38.968750
468,-1.01,2021-12-17 16:56:38.984375
469,-3.3,2021-12-17 16:56:39.000000
470,-5.89,2021-12-17 16:56:39.015625
471,-8.55,2021-12-17 16:56:39.031250
472,-11.04,2021-12-17 16:56:39.046875
473,-13.09,2021-12-17 16:56:39.062500
474,-14.45,2021-12-17 16:56:39.078125
475,-14.96,2021-12-17 16:56:39.093750
476,-14.61,2021-12-17 16:56:39.109375
477,-13.44,2021-12-17 16:56:39.125000
478,-11.63,2021-12-17 16:56:39.140625
479,-9.35,2021-12-17 16:56:39.156250
480,-6.84,2021-12-17 16:56:39.171875
481,-4.35,2021-12-17 16:56:39.187500
482,-2.13,2021-12-17 16:56:39.203125
483,-0.35,2021-12-17 16:56:39.218750
484,0.92,2021-12-17 16:56:39.234375
485,1.74,2021-12-17 16:56:39.250000
486,2.23,2021-12-17 16:56:39.265625
487,2.53,2021-12-17 16:56:39.281250
488,2.75,2021-12-17 16:56:39.296875
489,2.95,2021-12-17 16:56:39.312500
490,3.18,2021-12-17 16:56:39.328125
491,3.48,2021-12-17 16:56:39.343750
492,3.89,2021-12-17 16:56:39.359375
493,4.48,2021-12-17 16:56:39.375000
494,5.26,2021-12-17 16:56:39.390625
495,6.21,2021-12-17 16:56:39.406250
496,7.25,2021-12-17 16:56:39.421875
497,8.26,2021-12-17 16:56:39.437500
498,9.13,2021-12-17 16:56:39.453125
499,9.79,2021-12-17 16:56:39.468750
500,10.22,2021-12-17 16:56:39.484375
501,10.44,2021-12-17 16:56:39.500000
502,10.51,2021-12-17 16:56:39.515625
503,10.42,2021-12-17 16:56:39.531250
504,10.18,2021-12-17 16:56:39.546875
505,9.75,2021-12-17 16:56:39.562500
506,9.12,2021-12-17 16:56:39.578125
507,8.27,2021-12-17 16:56:39.593750
508,7.19,2021-12-17 16:56:39.609375
509,5.94,2021-12-17 16:56:39.625000
510,4.6,2021-12-17 16:56:39.640625
511,3.28,2021-12-17 16:56:39.656250
512,2.1,2021-12-17 16:56:39.671875
513,1.11,2021-12-17 16:56:39.687500
514,0.32,2021-12-17 16:56:39.703125
515,-0.32,2021-12-17 16:56:39.718750
516,-0.89,2021-12-17 16:56:39.734375
517,-1.48,2021-12-17 16:56:39.750000
518,-2.18,2021-12-17 16:56:39.765625
519,-3.03,2021-12-17 16:56:39.781250
520,-4.09,2021-12-17 16:56:39.796875
521,-5.36,2021-12-17 16:56:39.812500
522,-6.83,2021-12-17 16:56:39.828125
523,-8.39,2021-12-17 16:56:39.843750
524,-9.86,2021-12-17 16:56:39.859375
525,-11.02,2021-12-17 16:56:39.875000
526,-11.69,2021-12-17 16:56:39.890625
527,-11.79,2021-12-17 16:56:39.906250
528,-11.39,2021-12-17 16:56:39.921875
529,-10.67,2021-12-17 16:56:39.937500
530,-9.85,2021-12-17 16:56:39.953125
531,-9.11,2021-12-17 16:56:39.968750
532,-8.5,2021-12-17 16:56:39.984375
533,-7.97,2021-12-17 16:56:40.000000
534,-7.43,2021-12-17 16:56:40.015625
535,-6.79,2021-12-17 16:56:40.031250
536,-6.0,2021-12-17 16:56:40.046875
537,-5.11,2021-12-17 16:56:40.062500
538,-4.13,2021-12-17 16:56:40.078125
539,-3.02,2021-12-17 16:56:40.093750
540,-1.66,2021-12-17 16:56:40.109375
541,0.04,2021-12-17 16:56:40.125000
542,2.08,2021-12-17 16:56:40.140625
543,4.23,2021-12-17 16:56:40.156250
544,6.16,2021-12-17 16:56:40.171875
545,7.48,2021-12-17 16:56:40.187500
546,8.0,2021-12-17 16:56:40.203125
547,7.81,2021-12-17 16:56:40.218750
548,7.22,2021-12-17 16:56:40.234375
549,6.59,2021-12-17 16:56:40.250000
550,6.18,2021-12-17 16:56:40.265625
551,6.02,2021-12-17 16:56:40.281250
552,5.97,2021-12-17 16:56:40.296875
553,5.84,2021-12-17 16:56:40.312500
554,5.54,2021-12-17 16:56:40.328125
555,5.13,2021-12-17 16:56:40.343750
556,4.71,2021-12-17 16:56:40.359375
557,4.36,2021-12-17 16:56:40.375000
558,4.04,2021-12-17 16:56:40.390625
559,3.66,2021-12-17 16:56:40.406250
560,3.07,2021-12-17 16:56:40.421875
561,2.21,2021-12-17 16:56:40.437500
562,1.1,2021-12-17 16:56:40.453125
563,-0.16,2021-12-17 16:56:40.468750
564,-1.44,2021-12-17 16:56:40.484375
565,-2.59,2021-12-17 16:56:40.500000
566,-3.5,2021-12-17 16:56:40.515625
567,-4.12,2021-12-17 16:56:40.531250
568,-4.42,2021-12-17 16:56:40.546875
569,-4.39,2021-12-17 16:56:40.562500
570,-4.05,2021-12-17 16:56:40.578125
571,-3.35,2021-12-17 16:56:40.593750
572,-2.27,2021-12-17 16:56:40.609375
573,-0.86,2021-12-17 16:56:40.625000
574,0.78,2021-12-17 16:56:40.640625
575,2.46,2021-12-17 16:56:40.656250
576,3.95,2021-12-17 16:56:40.671875
577,5.1,2021-12-17 16:56:40.687500
578,5.86,2021-12-17 16:56:40.703125
579,6.3,2021-12-17 16:56:40.718750
580,6.54,2021-12-17 16:56:40.734375
581,6.66,2021-12-17 16:56:40.750000
582,6.67,2021-12-17 16:56:40.765625
583,6.55,2021-12-17 16:56:40.781250
584,6.26,2021-12-17 16:56:40.796875
585,5.84,2021-12-17 16:56:40.812500
586,5.4,2021-12-17 16:56:40.828125
587,5.04,2021-12-17 16:56:40.843750
588,4.8,2021-12-17 16:56:40.859375
589,4.59,2021-12-17 16:56:40.875000
590,4.22,2021-12-17 16:56:40.890625
591,3.55,2021-12-17 16:56:40.906250
592,2.54,2021-12-17 16:56:40.921875
593,1.3,2021-12-17 16:56:40.937500
594,0.07,2021-12-17 16:56:40.953125
595,-0.94,2021-12-17 16:56:40.968750
596,-1.66,2021-12-17 16:56:40.984375
597,-2.12,2021-12-17 16:56:41.000000
598,-2.45,2021-12-17 16:56:41.015625
599,-2.7,2021-12-17 16:56:41.031250
600,-2.79,2021-12-17 16:56:41.046875
601,-2.59,2021-12-17 16:56:41.062500
602,-2.01,2021-12-17 16:56:41.078125
603,-1.12,2021-12-17 16:56:41.093750
604,-0.21,2021-12-17 16:56:41.109375
605,0.38,2021-12-17 16:56:41.125000
606,0.43,2021-12-17 16:56:41.140625
607,-0.08,2021-12-17 16:56:41.156250
608,-0.9,2021-12-17 16:56:41.171875
609,-1.75,2021-12-17 16:56:41.187500
610,-2.44,2021-12-17 16:56:41.203125
611,-2.92,2021-12-17 16:56:41.218750
612,-3.33,2021-12-17 16:56:41.234375
613,-3.81,2021-12-17 16:56:41.250000
614,-4.38,2021-12-17 16:56:41.265625
615,-4.99,2021-12-17 16:56:41.281250
616,-5.46,2021-12-17 16:56:41.296875
617,-5.65,2021-12-17 16:56:41.312500
618,-5.51,2021-12-17 16:56:41.328125
619,-5.03,2021-12-17 16:56:41.343750
620,-4.23,2021-12-17 16:56:41.359375
621,-3.12,2021-12-17 16:56:41.375000
622,-1.72,2021-12-17 16:56:41.390625
623,-0.06,2021-12-17 16:56:41.406250
624,1.7,2021-12-17 16:56:41.421875
625,3.34,2021-12-17 16:56:41.437500
626,4.68,2021-12-17 16:56:41.453125
627,5.63,2021-12-17 16:56:41.468750
628,6.28,2021-12-17 16:56:41.484375
629,6.85,2021-12-17 16:56:41.500000
630,7.6,2021-12-17 16:56:41.515625
631,8.61,2021-12-17 16:56:41.531250
632,9.8,2021-12-17 16:56:41.546875
633,10.94,2021-12-17 16:56:41.562500
634,11.79,2021-12-17 16:56:41.578125
635,12.26,2021-12-17 16:56:41.593750
636,12.48,2021-12-17 16:56:41.609375
637,12.71,2021-12-17 16:56:41.625000
638,13.17,2021-12-17 16:56:41.640625
639,13.94,2021-12-17 16:56:41.656250
640,14.88,2021-12-17 16:56:41.671875
641,15.67,2021-12-17 16:56:41.687500
642,16.04,2021-12-17 16:56:41.703125
643,15.87,2021-12-17 16:56:41.718750
644,15.21,2021-12-17 16:56:41.734375
645,14.27,2021-12-17 16:56:41.750000
646,13.28,2021-12-17 16:56:41.765625
647,12.45,2021-12-17 16:56:41.781250
648,11.97,2021-12-17 16:56:41.796875
649,11.98,2021-12-17 16:56:41.812500
650,12.61,2021-12-17 16:56:41.828125
651,13.86,2021-12-17 16:56:41.843750
652,15.48,2021-12-17 16:56:41.859375
653,16.88,2021-12-17 16:56:41.875000
654,17.25,2021-12-17 16:56:41.890625
655,15.79,2021-12-17 16:56:41.906250
656,12.11,2021-12-17 16:56:41.921875
657,6.43,2021-12-17 16:56:41.937500
658,-0.4,2021-12-17 16:56:41.953125
659,-7.19,2021-12-17 16:56:41.968750
660,-12.9,2021-12-17 16:56:41.984375
661,-16.94,2021-12-17 16:56:42.000000
662,-19.36,2021-12-17 16:56:42.015625
663,-20.62,2021-12-17 16:56:42.031250
664,-21.32,2021-12-17 16:56:42.046875
665,-21.87,2021-12-17 16:56:42.062500
666,-22.44,2021-12-17 16:56:42.078125
667,-22.98,2021-12-17 16:56:42.093750
668,-23.42,2021-12-17 16:56:42.109375
669,-23.82,2021-12-17 16:56:42.125000
670,-24.38,2021-12-17 16:56:42.140625
671,-25.23,2021-12-17 16:56:42.156250
672,-26.34,2021-12-17 16:56:42.171875
673,-27.42,2021-12-17 16:56:42.187500
674,-28.07,2021-12-17 16:56:42.203125
675,-28.03,2021-12-17 16:56:42.218750
676,-27.36,2021-12-17 16:56:42.234375
677,-26.54,2021-12-17 16:56:42.250000
678,-26.18,2021-12-17 16:56:42.265625
679,-26.76,2021-12-17 16:56:42.281250
680,-28.34,2021-12-17 16:56:42.296875
681,-30.49,2021-12-17 16:56:42.312500
682,-32.52,2021-12-17 16:56:42.328125
683,-33.82,2021-12-17 16:56:42.343750
684,-34.09,2021-12-17 16:56:42.359375
685,-33.42,2021-12-17 16:56:42.375000
686,-32.02,2021-12-17 16:56:42.390625
687,-30.05,2021-12-17 16:56:42.406250
688,-27.44,2021-12-17 16:56:42.421875
689,-24.01,2021-12-17 16:56:42.437500
690,-19.64,2021-12-17 16:56:42.453125
691,-14.44,2021-12-17 16:56:42.468750
692,-8.8,2021-12-17 16:56:42.484375
693,-3.18,2021-12-17 16:56:42.500000
694,2.11,2021-12-17 16:56:42.515625
695,6.98,2021-12-17 16:56:42.531250
696,11.62,2021-12-17 16:56:42.546875
697,16.29,2021-12-17 16:56:42.562500
698,21.12,2021-12-17 16:56:42.578125
699,26.04,2021-12-17 16:56:42.593750
700,30.76,2021-12-17 16:56:42.609375
701,34.93,2021-12-17 16:56:42.625000
702,38.28,2021-12-17 16:56:42.640625
703,40.71,2021-12-17 16:56:42.656250
704,42.29,2021-12-17 16:56:42.671875
705,43.1,2021-12-17 16:56:42.687500
706,43.2,2021-12-17 16:56:42.703125
707,42.49,2021-12-17 16:56:42.718750
708,40.85,2021-12-17 16:56:42.734375
709,38.24,2021-12-17 16:56:42.750000
710,34.84,2021-12-17 16:56:42.765625
711,31.06,2021-12-17 16:56:42.781250
712,27.44,2021-12-17 16:56:42.796875
713,24.43,2021-12-17 16:56:42.812500
714,22.26,2021-12-17 16:56:42.828125
715,20.84,2021-12-17 16:56:42.843750
716,19.9,2021-12-17 16:56:42.859375
717,19.07,2021-12-17 16:56:42.875000
718,18.14,2021-12-17 16:56:42.890625
719,17.03,2021-12-17 16:56:42.906250
720,15.87,2021-12-17 16:56:42.921875
721,14.95,2021-12-17 16:56:42.937500
722,14.53,2021-12-17 16:56:42.953125
723,14.85,2021-12-17 16:56:42.968750
724,16.06,2021-12-17 16:56:42.984375
725,18.19,2021-12-17 16:56:43.000000
726,21.09,2021-12-17 16:56:43.015625
727,24.48,2021-12-17 16:56:43.031250
728,27.79,2021-12-17 16:56:43.046875
729,30.3,2021-12-17 16:56:43.062500
730,31.24,2021-12-17 16:56:43.078125
731,30.05,2021-12-17 16:56:43.093750
732,26.61,2021-12-17 16:56:43.109375
733,21.34,2021-12-17 16:56:43.125000
734,15.06,2021-12-17 16:56:43.140625
735,8.76,2021-12-17 16:56:43.156250
736,3.24,2021-12-17 16:56:43.171875
737,-1.07,2021-12-17 16:56:43.187500
738,-4.14,2021-12-17 16:56:43.203125
739,-6.22,2021-12-17 16:56:43.218750
740,-7.61,2021-12-17 16:56:43.234375
741,-8.56,2021-12-17 16:56:43.250000
742,-9.25,2021-12-17 16:56:43.265625
743,-9.81,2021-12-17 16:56:43.281250
744,-10.41,2021-12-17 16:56:43.296875
745,-11.17,2021-12-17 16:56:43.312500
746,-12.1,2021-12-17 16:56:43.328125
747,-13.03,2021-12-17 16:56:43.343750
748,-13.64,2021-12-17 16:56:43.359375
749,-13.5,2021-12-17 16:56:43.375000
750,-12.21,2021-12-17 16:56:43.390625
751,-9.57,2021-12-17 16:56:43.406250
752,-5.61,2021-12-17 16:56:43.421875
753,-0.71,2021-12-17 16:56:43.437500
754,4.58,2021-12-17 16:56:43.453125
755,9.63,2021-12-17 16:56:43.468750
756,13.89,2021-12-17 16:56:43.484375
757,17.02,2021-12-17 16:56:43.500000
758,18.91,2021-12-17 16:56:43.515625
759,19.67,2021-12-17 16:56:43.531250
760,19.53,2021-12-17 16:56:43.546875
761,18.89,2021-12-17 16:56:43.562500
762,18.12,2021-12-17 16:56:43.578125
763,17.62,2021-12-17 16:56:43.593750
764,17.61,2021-12-17 16:56:43.609375
765,18.1,2021-12-17 16:56:43.625000
766,18.89,2021-12-17 16:56:43.640625
767,19.67,2021-12-17 16:56:43.656250
768,20.25,2021-12-17 16:56:43.671875
769,20.66,2021-12-17 16:56:43.687500
770,21.28,2021-12-17 16:56:43.703125
771,22.6,2021-12-17 16:56:43.718750
772,25.0,2021-12-17 16:56:43.734375
773,28.46,2021-12-17 16:56:43.750000
774,32.43,2021-12-17 16:56:43.765625
775,36.05,2021-12-17 16:56:43.781250
776,38.49,2021-12-17 16:56:43.796875
777,39.35,2021-12-17 16:56:43.812500
778,38.84,2021-12-17 16:56:43.828125
779,37.73,2021-12-17 16:56:43.843750
780,37.06,2021-12-17 16:56:43.859375
781,37.72,2021-12-17 16:56:43.875000
782,40.21,2021-12-17 16:56:43.890625
783,44.51,2021-12-17 16:56:43.906250
784,50.12,2021-12-17 16:56:43.921875
785,56.12,2021-12-17 16:56:43.937500
786,61.29,2021-12-17 16:56:43.953125
787,64.18,2021-12-17 16:56:43.968750
788,63.33,2021-12-17 16:56:43.984375
789,57.61,2021-12-17 16:56:44.000000
790,46.66,2021-12-17 16:56:44.015625
791,31.12,2021-12-17 16:56:44.031250
792,12.58,2021-12-17 16:56:44.046875
793,-6.7,2021-12-17 16:56:44.062500
794,-24.45,2021-12-17 16:56:44.078125
795,-38.7,2021-12-17 16:56:44.093750
796,-47.96,2021-12-17 16:56:44.109375
797,-51.0,2021-12-17 16:56:44.125000
798,-46.7,2021-12-17 16:56:44.140625
799,-34.29,2021-12-17 16:56:44.156250
800,-14.01,2021-12-17 16:56:44.171875
801,11.91,2021-12-17 16:56:44.187500
802,38.85,2021-12-17 16:56:44.203125
803,60.38,2021-12-17 16:56:44.218750
804,70.04,2021-12-17 16:56:44.234375
805,63.62,2021-12-17 16:56:44.250000
806,41.02,2021-12-17 16:56:44.265625
807,6.76,2021-12-17 16:56:44.281250
808,-31.09,2021-12-17 16:56:44.296875
809,-63.25,2021-12-17 16:56:44.312500
810,-81.93,2021-12-17 16:56:44.328125
811,-82.87,2021-12-17 16:56:44.343750
812,-66.16,2021-12-17 16:56:44.359375
813,-35.74,2021-12-17 16:56:44.375000
814,2.0,2021-12-17 16:56:44.390625
815,39.95,2021-12-17 16:56:44.406250
816,71.89,2021-12-17 16:56:44.421875
817,93.49,2021-12-17 16:56:44.437500
818,102.85,2021-12-17 16:56:44.453125
819,100.44,2021-12-17 16:56:44.468750
820,88.54,2021-12-17 16:56:44.484375
821,70.6,2021-12-17 16:56:44.500000
822,50.39,2021-12-17 16:56:44.515625
823,31.3,2021-12-17 16:56:44.531250
824,15.86,2021-12-17 16:56:44.546875
825,5.37,2021-12-17 16:56:44.562500
826,-0.04,2021-12-17 16:56:44.578125
827,-1.23,2021-12-17 16:56:44.593750
828,0.36,2021-12-17 16:56:44.609375
829,3.13,2021-12-17 16:56:44.625000
830,5.63,2021-12-17 16:56:44.640625
831,6.75,2021-12-17 16:56:44.656250
832,5.8,2021-12-17 16:56:44.671875
833,2.53,2021-12-17 16:56:44.687500
834,-2.91,2021-12-17 16:56:44.703125
835,-9.99,2021-12-17 16:56:44.718750
836,-17.85,2021-12-17 16:56:44.734375
837,-25.59,2021-12-17 16:56:44.750000
838,-32.34,2021-12-17 16:56:44.765625
839,-37.55,2021-12-17 16:56:44.781250
840,-41.0,2021-12-17 16:56:44.796875
841,-42.74,2021-12-17 16:56:44.812500
842,-43.01,2021-12-17 16:56:44.828125
843,-42.08,2021-12-17 16:56:44.843750
844,-40.21,2021-12-17 16:56:44.859375
845,-37.67,2021-12-17 16:56:44.875000
846,-34.78,2021-12-17 16:56:44.890625
847,-32.01,2021-12-17 16:56:44.906250
848,-29.89,2021-12-17 16:56:44.921875
849,-28.94,2021-12-17 16:56:44.937500
850,-29.47,2021-12-17 16:56:44.953125
851,-31.45,2021-12-17 16:56:44.968750
852,-34.51,2021-12-17 16:56:44.984375
853,-38.1,2021-12-17 16:56:45.000000
854,-41.67,2021-12-17 16:56:45.015625
855,-44.91,2021-12-17 16:56:45.031250
856,-47.73,2021-12-17 16:56:45.046875
857,-50.26,2021-12-17 16:56:45.062500
858,-52.59,2021-12-17 16:56:45.078125
859,-54.63,2021-12-17 16:56:45.093750
860,-56.03,2021-12-17 16:56:45.109375
861,-56.38,2021-12-17 16:56:45.125000
862,-55.33,2021-12-17 16:56:45.140625
863,-52.97,2021-12-17 16:56:45.156250
864,-49.78,2021-12-17 16:56:45.171875
865,-46.61,2021-12-17 16:56:45.187500
866,-44.35,2021-12-17 16:56:45.203125
867,-43.64,2021-12-17 16:56:45.218750
868,-44.62,2021-12-17 16:56:45.234375
869,-46.89,2021-12-17 16:56:45.250000
870,-49.66,2021-12-17 16:56:45.265625
871,-52.02,2021-12-17 16:56:45.281250
872,-53.28,2021-12-17 16:56:45.296875
873,-53.07,2021-12-17 16:56:45.312500
874,-51.46,2021-12-17 16:56:45.328125
875,-48.8,2021-12-17 16:56:45.343750
876,-45.56,2021-12-17 16:56:45.359375
877,-42.21,2021-12-17 16:56:45.375000
878,-39.05,2021-12-17 16:56:45.390625
879,-36.32,2021-12-17 16:56:45.406250
880,-34.14,2021-12-17 16:56:45.421875
881,-32.58,2021-12-17 16:56:45.437500
882,-31.58,2021-12-17 16:56:45.453125
883,-30.92,2021-12-17 16:56:45.468750
884,-30.25,2021-12-17 16:56:45.484375
885,-29.2,2021-12-17 16:56:45.500000
886,-27.42,2021-12-17 16:56:45.515625
887,-24.82,2021-12-17 16:56:45.531250
888,-21.49,2021-12-17 16:56:45.546875
889,-17.7,2021-12-17 16:56:45.562500
890,-13.79,2021-12-17 16:56:45.578125
891,-10.07,2021-12-17 16:56:45.593750
892,-6.72,2021-12-17 16:56:45.609375
893,-3.84,2021-12-17 16:56:45.625000
894,-1.4,2021-12-17 16:56:45.640625
895,0.71,2021-12-17 16:56:45.656250
896,2.65,2021-12-17 16:56:45.671875
897,4.51,2021-12-17 16:56:45.687500
898,6.3,2021-12-17 16:56:45.703125
899,7.88,2021-12-17 16:56:45.718750
900,9.04,2021-12-17 16:56:45.734375
901,9.62,2021-12-17 16:56:45.750000
902,9.53,2021-12-17 16:56:45.765625
903,8.91,2021-12-17 16:56:45.781250
904,7.98,2021-12-17 16:56:45.796875
905,7.09,2021-12-17 16:56:45.812500
906,6.57,2021-12-17 16:56:45.828125
907,6.62,2021-12-17 16:56:45.843750
908,7.28,2021-12-17 16:56:45.859375
909,8.43,2021-12-17 16:56:45.875000
910,9.71,2021-12-17 16:56:45.890625
911,10.7,2021-12-17 16:56:45.906250
912,11.01,2021-12-17 16:56:45.921875
913,10.44,2021-12-17 16:56:45.937500
914,9.09,2021-12-17 16:56:45.953125
915,7.3,2021-12-17 16:56:45.968750
916,5.57,2021-12-17 16:56:45.984375
917,4.35,2021-12-17 16:56:46.000000
918,3.92,2021-12-17 16:56:46.015625
919,4.29,2021-12-17 16:56:46.031250
920,5.2,2021-12-17 16:56:46.046875
921,6.18,2021-12-17 16:56:46.062500
922,6.7,2021-12-17 16:56:46.078125
923,6.32,2021-12-17 16:56:46.093750
924,4.96,2021-12-17 16:56:46.109375
925,3.06,2021-12-17 16:56:46.125000
926,1.6,2021-12-17 16:56:46.140625
927,1.95,2021-12-17 16:56:46.156250
928,5.41,2021-12-17 16:56:46.171875
929,12.76,2021-12-17 16:56:46.187500
930,23.88,2021-12-17 16:56:46.203125
931,37.74,2021-12-17 16:56:46.218750
932,52.74,2021-12-17 16:56:46.234375
933,67.22,2021-12-17 16:56:46.250000
934,80.07,2021-12-17 16:56:46.265625
935,90.85,2021-12-17 16:56:46.281250
936,99.75,2021-12-17 16:56:46.296875
937,107.12,2021-12-17 16:56:46.312500
938,113.02,2021-12-17 16:56:46.328125
939,117.01,2021-12-17 16:56:46.343750
940,118.17,2021-12-17 16:56:46.359375
941,115.55,2021-12-17 16:56:46.375000
942,108.58,2021-12-17 16:56:46.390625
943,97.36,2021-12-17 16:56:46.406250
944,82.75,2021-12-17 16:56:46.421875
945,66.06,2021-12-17 16:56:46.437500
946,48.72,2021-12-17 16:56:46.453125
947,31.92,2021-12-17 16:56:46.468750
948,16.42,2021-12-17 16:56:46.484375
949,2.7,2021-12-17 16:56:46.500000
950,-8.99,2021-12-17 16:56:46.515625
951,-18.45,2021-12-17 16:56:46.531250
952,-25.49,2021-12-17 16:56:46.546875
953,-30.16,2021-12-17 16:56:46.562500
954,-32.73,2021-12-17 16:56:46.578125
955,-33.81,2021-12-17 16:56:46.593750
956,-34.17,2021-12-17 16:56:46.609375
957,-34.48,2021-12-17 16:56:46.625000
958,-35.11,2021-12-17 16:56:46.640625
959,-36.05,2021-12-17 16:56:46.656250
960,-36.96,2021-12-17 16:56:46.671875
961,-37.46,2021-12-17 16:56:46.687500
962,-37.31,2021-12-17 16:56:46.703125
963,-36.56,2021-12-17 16:56:46.718750
964,-35.48,2021-12-17 16:56:46.734375
965,-34.49,2021-12-17 16:56:46.750000
966,-33.88,2021-12-17 16:56:46.765625
967,-33.73,2021-12-17 16:56:46.781250
968,-33.88,2021-12-17 16:56:46.796875
969,-34.04,2021-12-17 16:56:46.812500
970,-33.85,2021-12-17 16:56:46.828125
971,-33.1,2021-12-17 16:56:46.843750
972,-31.75,2021-12-17 16:56:46.859375
973,-30.01,2021-12-17 16:56:46.875000
974,-28.21,2021-12-17 16:56:46.890625
975,-26.67,2021-12-17 16:56:46.906250
976,-25.58,2021-12-17 16:56:46.921875
977,-24.89,2021-12-17 16:56:46.937500
978,-24.35,2021-12-17 16:56:46.953125
979,-23.64,2021-12-17 16:56:46.968750
980,-22.49,2021-12-17 16:56:46.984375
981,-20.88,2021-12-17 16:56:47.000000
982,-18.92,2021-12-17 16:56:47.015625
983,-16.88,2021-12-17 16:56:47.031250
984,-15.0,2021-12-17 16:56:47.046875
985,-13.4,2021-12-17 16:56:47.062500
986,-12.08,2021-12-17 16:56:47.078125
987,-10.97,2021-12-17 16:56:47.093750
988,-9.99,2021-12-17 16:56:47.109375
989,-9.12,2021-12-17 16:56:47.125000
990,-8.41,2021-12-17 16:56:47.140625
991,-7.92,2021-12-17 16:56:47.156250
992,-7.71,2021-12-17 16:56:47.171875
993,-7.8,2021-12-17 16:56:47.187500
994,-8.19,2021-12-17 16:56:47.203125
995,-8.81,2021-12-17 16:56:47.218750
996,-9.61,2021-12-17 16:56:47.234375
997,-10.52,2021-12-17 16:56:47.250000
998,-11.42,2021-12-17 16:56:47.265625
999,-12.15,2021-12-17 16:56:47.281250
1000,-12.54,2021-12-17 16:56:47.296875
1001,-12.39,2021-12-17 16:56:47.312500
1002,-11.62,2021-12-17 16:56:47.328125
1003,-10.22,2021-12-17 16:56:47.343750
1004,-8.32,2021-12-17 16:56:47.359375
1005,-6.15,2021-12-17 16:56:47.375000
1006,-3.96,2021-12-17 16:56:47.390625
1007,-2.05,2021-12-17 16:56:47.406250
1008,-0.57,2021-12-17 16:56:47.421875
1009,0.36,2021-12-17 16:56:47.437500
1010,0.77,2021-12-17 16:56:47.453125
1011,0.78,2021-12-17 16:56:47.468750
1012,0.54,2021-12-17 16:56:47.484375
1013,0.23,2021-12-17 16:56:47.500000
1014,-0.06,2021-12-17 16:56:47.515625
1015,-0.21,2021-12-17 16:56:47.531250
1016,-0.19,2021-12-17 16:56:47.546875
1017,0.03,2021-12-17 16:56:47.562500
1018,0.42,2021-12-17 16:56:47.578125
1019,0.91,2021-12-17 16:56:47.593750
1020,1.41,2021-12-17 16:56:47.609375
1021,1.81,2021-12-17 16:56:47.625000
1022,2.03,2021-12-17 16:56:47.640625
1023,2.05,2021-12-17 16:56:47.656250
1024,1.88,2021-12-17 16:56:47.671875
1025,1.56,2021-12-17 16:56:47.687500
1026,1.13,2021-12-17 16:56:47.703125
1027,0.58,2021-12-17 16:56:47.718750
1028,-0.05,2021-12-17 16:56:47.734375
1029,-0.78,2021-12-17 16:56:47.750000
1030,-1.57,2021-12-17 16:56:47.765625
1031,-2.4,2021-12-17 16:56:47.781250
1032,-3.28,2021-12-17 16:56:47.796875
1033,-4.21,2021-12-17 16:56:47.812500
1034,-5.21,2021-12-17 16:56:47.828125
1035,-6.25,2021-12-17 16:56:47.843750
1036,-7.29,2021-12-17 16:56:47.859375
1037,-8.29,2021-12-17 16:56:47.875000
1038,-9.25,2021-12-17 16:56:47.890625
1039,-10.24,2021-12-17 16:56:47.906250
1040,-11.41,2021-12-17 16:56:47.921875
1041,-12.93,2021-12-17 16:56:47.937500
1042,-14.96,2021-12-17 16:56:47.953125
1043,-17.52,2021-12-17 16:56:47.968750
1044,-20.48,2021-12-17 16:56:47.984375
1045,-23.52,2021-12-17 16:56:48.000000
1046,-26.2,2021-12-17 16:56:48.015625
1047,-28.1,2021-12-17 16:56:48.031250
1048,-28.86,2021-12-17 16:56:48.046875
1049,-28.34,2021-12-17 16:56:48.062500
1050,-26.57,2021-12-17 16:56:48.078125
1051,-23.75,2021-12-17 16:56:48.093750
1052,-20.12,2021-12-17 16:56:48.109375
1053,-15.93,2021-12-17 16:56:48.125000
1054,-11.38,2021-12-17 16:56:48.140625
1055,-6.61,2021-12-17 16:56:48.156250
1056,-1.74,2021-12-17 16:56:48.171875
1057,3.04,2021-12-17 16:56:48.187500
1058,7.52,2021-12-17 16:56:48.203125
1059,11.4,2021-12-17 16:56:48.218750
1060,14.43,2021-12-17 16:56:48.234375
1061,16.45,2021-12-17 16:56:48.250000
1062,17.47,2021-12-17 16:56:48.265625
1063,17.76,2021-12-17 16:56:48.281250
1064,17.72,2021-12-17 16:56:48.296875
1065,17.77,2021-12-17 16:56:48.312500
1066,18.21,2021-12-17 16:56:48.328125
1067,19.08,2021-12-17 16:56:48.343750
1068,20.18,2021-12-17 16:56:48.359375
1069,21.27,2021-12-17 16:56:48.375000
1070,22.15,2021-12-17 16:56:48.390625
1071,22.83,2021-12-17 16:56:48.406250
1072,23.43,2021-12-17 16:56:48.421875
1073,24.18,2021-12-17 16:56:48.437500
1074,25.24,2021-12-17 16:56:48.453125
1075,26.76,2021-12-17 16:56:48.468750
1076,28.8,2021-12-17 16:56:48.484375
1077,31.4,2021-12-17 16:56:48.500000
1078,34.48,2021-12-17 16:56:48.515625
1079,37.81,2021-12-17 16:56:48.531250
1080,40.99,2021-12-17 16:56:48.546875
1081,43.54,2021-12-17 16:56:48.562500
1082,45.07,2021-12-17 16:56:48.578125
1083,45.38,2021-12-17 16:56:48.593750
1084,44.59,2021-12-17 16:56:48.609375
1085,42.89,2021-12-17 16:56:48.625000
1086,40.33,2021-12-17 16:56:48.640625
1087,36.65,2021-12-17 16:56:48.656250
1088,31.4,2021-12-17 16:56:48.671875
1089,24.27,2021-12-17 16:56:48.687500
1090,15.45,2021-12-17 16:56:48.703125
1091,5.83,2021-12-17 16:56:48.718750
1092,-3.23,2021-12-17 16:56:48.734375
1093,-10.47,2021-12-17 16:56:48.750000
1094,-15.21,2021-12-17 16:56:48.765625
1095,-17.64,2021-12-17 16:56:48.781250
1096,-18.57,2021-12-17 16:56:48.796875
1097,-18.94,2021-12-17 16:56:48.812500
1098,-19.33,2021-12-17 16:56:48.828125
1099,-19.65,2021-12-17 16:56:48.843750
1100,-19.42,2021-12-17 16:56:48.859375
1101,-18.17,2021-12-17 16:56:48.875000
1102,-15.75,2021-12-17 16:56:48.890625
1103,-12.58,2021-12-17 16:56:48.906250
1104,-9.39,2021-12-17 16:56:48.921875
1105,-6.9,2021-12-17 16:56:48.937500
1106,-5.66,2021-12-17 16:56:48.953125
1107,-5.82,2021-12-17 16:56:48.968750
1108,-7.25,2021-12-17 16:56:48.984375
1109,-9.41,2021-12-17 16:56:49.000000
1110,-11.58,2021-12-17 16:56:49.015625
1111,-12.88,2021-12-17 16:56:49.031250
1112,-12.58,2021-12-17 16:56:49.046875
1113,-10.4,2021-12-17 16:56:49.062500
1114,-6.66,2021-12-17 16:56:49.078125
1115,-2.19,2021-12-17 16:56:49.093750
1116,1.97,2021-12-17 16:56:49.109375
1117,5.06,2021-12-17 16:56:49.125000
1118,6.78,2021-12-17 16:56:49.140625
1119,7.28,2021-12-17 16:56:49.156250
1120,6.95,2021-12-17 16:56:49.171875
1121,6.13,2021-12-17 16:56:49.187500
1122,4.97,2021-12-17 16:56:49.203125
1123,3.48,2021-12-17 16:56:49.218750
1124,1.71,2021-12-17 16:56:49.234375
1125,-0.22,2021-12-17 16:56:49.250000
1126,-2.05,2021-12-17 16:56:49.265625
1127,-3.6,2021-12-17 16:56:49.281250
1128,-4.83,2021-12-17 16:56:49.296875
1129,-5.91,2021-12-17 16:56:49.312500
1130,-7.13,2021-12-17 16:56:49.328125
1131,-8.7,2021-12-17 16:56:49.343750
1132,-10.66,2021-12-17 16:56:49.359375
1133,-12.81,2021-12-17 16:56:49.375000
1134,-14.75,2021-12-17 16:56:49.390625
1135,-15.97,2021-12-17 16:56:49.406250
1136,-16.07,2021-12-17 16:56:49.421875
1137,-14.97,2021-12-17 16:56:49.437500
1138,-12.92,2021-12-17 16:56:49.453125
1139,-10.48,2021-12-17 16:56:49.468750
1140,-8.25,2021-12-17 16:56:49.484375
1141,-6.67,2021-12-17 16:56:49.500000
1142,-5.8,2021-12-17 16:56:49.515625
1143,-5.34,2021-12-17 16:56:49.531250
1144,-4.84,2021-12-17 16:56:49.546875
1145,-3.96,2021-12-17 16:56:49.562500
1146,-2.62,2021-12-17 16:56:49.578125
1147,-1.07,2021-12-17 16:56:49.593750
1148,0.33,2021-12-17 16:56:49.609375
1149,1.24,2021-12-17 16:56:49.625000
1150,1.51,2021-12-17 16:56:49.640625
1151,1.29,2021-12-17 16:56:49.656250
1152,0.83,2021-12-17 16:56:49.671875
1153,0.45,2021-12-17 16:56:49.687500
1154,0.34,2021-12-17 16:56:49.703125
1155,0.59,2021-12-17 16:56:49.718750
1156,1.17,2021-12-17 16:56:49.734375
1157,2.01,2021-12-17 16:56:49.750000
1158,3.04,2021-12-17 16:56:49.765625
1159,4.17,2021-12-17 16:56:49.781250
1160,5.3,2021-12-17 16:56:49.796875
1161,6.29,2021-12-17 16:56:49.812500
1162,6.99,2021-12-17 16:56:49.828125
1163,7.27,2021-12-17 16:56:49.843750
1164,7.08,2021-12-17 16:56:49.859375
1165,6.52,2021-12-17 16:56:49.875000
1166,5.78,2021-12-17 16:56:49.890625
1167,5.07,2021-12-17 16:56:49.906250
1168,4.55,2021-12-17 16:56:49.921875
1169,4.29,2021-12-17 16:56:49.937500
1170,4.17,2021-12-17 16:56:49.953125
1171,4.08,2021-12-17 16:56:49.968750
1172,3.88,2021-12-17 16:56:49.984375
1173,3.55,2021-12-17 16:56:50.000000
1174,3.17,2021-12-17 16:56:50.015625
1175,2.87,2021-12-17 16:56:50.031250
1176,2.72,2021-12-17 16:56:50.046875
1177,2.74,2021-12-17 16:56:50.062500
1178,2.84,2021-12-17 16:56:50.078125
1179,2.87,2021-12-17 16:56:50.093750
1180,2.71,2021-12-17 16:56:50.109375
1181,2.28,2021-12-17 16:56:50.125000
1182,1.6,2021-12-17 16:56:50.140625
1183,0.72,2021-12-17 16:56:50.156250
1184,-0.26,2021-12-17 16:56:50.171875
1185,-1.27,2021-12-17 16:56:50.187500
1186,-2.26,2021-12-17 16:56:50.203125
1187,-3.27,2021-12-17 16:56:50.218750
1188,-4.42,2021-12-17 16:56:50.234375
1189,-5.83,2021-12-17 16:56:50.250000
1190,-7.53,2021-12-17 16:56:50.265625
1191,-9.42,2021-12-17 16:56:50.281250
1192,-11.21,2021-12-17 16:56:50.296875
1193,-12.55,2021-12-17 16:56:50.312500
1194,-13.15,2021-12-17 16:56:50.328125
1195,-12.9,2021-12-17 16:56:50.343750
1196,-11.95,2021-12-17 16:56:50.359375
1197,-10.58,2021-12-17 16:56:50.375000
1198,-9.07,2021-12-17 16:56:50.390625
1199,-7.6,2021-12-17 16:56:50.406250
1200,-6.21,2021-12-17 16:56:50.421875
1201,-4.86,2021-12-17 16:56:50.437500
1202,-3.51,2021-12-17 16:56:50.453125
1203,-2.23,2021-12-17 16:56:50.468750
1204,-1.07,2021-12-17 16:56:50.484375
1205,-0.07,2021-12-17 16:56:50.500000
1206,0.84,2021-12-17 16:56:50.515625
1207,1.8,2021-12-17 16:56:50.531250
1208,2.89,2021-12-17 16:56:50.546875
1209,4.04,2021-12-17 16:56:50.562500
1210,5.1,2021-12-17 16:56:50.578125
1211,5.86,2021-12-17 16:56:50.593750
1212,6.23,2021-12-17 16:56:50.609375
1213,6.26,2021-12-17 16:56:50.625000
1214,6.15,2021-12-17 16:56:50.640625
1215,6.09,2021-12-17 16:56:50.656250
1216,6.2,2021-12-17 16:56:50.671875
1217,6.45,2021-12-17 16:56:50.687500
1218,6.74,2021-12-17 16:56:50.703125
1219,6.96,2021-12-17 16:56:50.718750
1220,7.09,2021-12-17 16:56:50.734375
1221,7.17,2021-12-17 16:56:50.750000
1222,7.24,2021-12-17 16:56:50.765625
1223,7.29,2021-12-17 16:56:50.781250
1224,7.27,2021-12-17 16:56:50.796875
1225,7.08,2021-12-17 16:56:50.812500
1226,6.72,2021-12-17 16:56:50.828125
1227,6.24,2021-12-17 16:56:50.843750
1228,5.78,2021-12-17 16:56:50.859375
1229,5.43,2021-12-17 16:56:50.875000
1230,5.22,2021-12-17 16:56:50.890625
1231,5.07,2021-12-17 16:56:50.906250
1232,4.86,2021-12-17 16:56:50.921875
1233,4.49,2021-12-17 16:56:50.937500
1234,3.94,2021-12-17 16:56:50.953125
1235,3.28,2021-12-17 16:56:50.968750
1236,2.57,2021-12-17 16:56:50.984375
1237,1.82,2021-12-17 16:56:51.000000
1238,1.02,2021-12-17 16:56:51.015625
1239,0.12,2021-12-17 16:56:51.031250
1240,-0.87,2021-12-17 16:56:51.046875
1241,-1.89,2021-12-17 16:56:51.062500
1242,-2.82,2021-12-17 16:56:51.078125
1243,-3.55,2021-12-17 16:56:51.093750
1244,-4.05,2021-12-17 16:56:51.109375
1245,-4.41,2021-12-17 16:56:51.125000
1246,-4.75,2021-12-17 16:56:51.140625
1247,-5.18,2021-12-17 16:56:51.156250
1248,-5.72,2021-12-17 16:56:51.171875
1249,-6.36,2021-12-17 16:56:51.187500
1250,-7.09,2021-12-17 16:56:51.203125
1251,-7.95,2021-12-17 16:56:51.218750
1252,-8.98,2021-12-17 16:56:51.234375
1253,-10.2,2021-12-17 16:56:51.250000
1254,-11.53,2021-12-17 16:56:51.265625
1255,-12.73,2021-12-17 16:56:51.281250
1256,-13.47,2021-12-17 16:56:51.296875
1257,-13.51,2021-12-17 16:56:51.312500
1258,-12.73,2021-12-17 16:56:51.328125
1259,-11.26,2021-12-17 16:56:51.343750
1260,-9.37,2021-12-17 16:56:51.359375
1261,-7.42,2021-12-17 16:56:51.375000
1262,-5.68,2021-12-17 16:56:51.390625
1263,-4.25,2021-12-17 16:56:51.406250
1264,-3.13,2021-12-17 16:56:51.421875
1265,-2.22,2021-12-17 16:56:51.437500
1266,-1.38,2021-12-17 16:56:51.453125
1267,-0.54,2021-12-17 16:56:51.468750
1268,0.34,2021-12-17 16:56:51.484375
1269,1.28,2021-12-17 16:56:51.500000
1270,2.28,2021-12-17 16:56:51.515625
1271,3.33,2021-12-17 16:56:51.531250
1272,4.41,2021-12-17 16:56:51.546875
1273,5.49,2021-12-17 16:56:51.562500
1274,6.49,2021-12-17 16:56:51.578125
1275,7.38,2021-12-17 16:56:51.593750
1276,8.14,2021-12-17 16:56:51.609375
1277,8.76,2021-12-17 16:56:51.625000
1278,9.26,2021-12-17 16:56:51.640625
1279,9.65,2021-12-17 16:56:51.656250
1280,9.93,2021-12-17 16:56:51.671875
1281,10.09,2021-12-17 16:56:51.687500
1282,10.16,2021-12-17 16:56:51.703125
1283,10.18,2021-12-17 16:56:51.718750
1284,10.15,2021-12-17 16:56:51.734375
1285,10.07,2021-12-17 16:56:51.750000
1286,9.85,2021-12-17 16:56:51.765625
1287,9.46,2021-12-17 16:56:51.781250
1288,8.93,2021-12-17 16:56:51.796875
1289,8.37,2021-12-17 16:56:51.812500
1290,7.93,2021-12-17 16:56:51.828125
1291,7.64,2021-12-17 16:56:51.843750
1292,7.45,2021-12-17 16:56:51.859375
1293,7.17,2021-12-17 16:56:51.875000
1294,6.63,2021-12-17 16:56:51.890625
1295,5.8,2021-12-17 16:56:51.906250
1296,4.79,2021-12-17 16:56:51.921875
1297,3.83,2021-12-17 16:56:51.937500
1298,3.08,2021-12-17 16:56:51.953125
1299,2.6,2021-12-17 16:56:51.968750
1300,2.33,2021-12-17 16:56:51.984375
1301,2.12,2021-12-17 16:56:52.000000
1302,1.89,2021-12-17 16:56:52.015625
1303,1.61,2021-12-17 16:56:52.031250
1304,1.32,2021-12-17 16:56:52.046875
1305,1.07,2021-12-17 16:56:52.062500
1306,0.83,2021-12-17 16:56:52.078125
1307,0.58,2021-12-17 16:56:52.093750
1308,0.26,2021-12-17 16:56:52.109375
1309,-0.13,2021-12-17 16:56:52.125000
1310,-0.52,2021-12-17 16:56:52.140625
1311,-0.87,2021-12-17 16:56:52.156250
1312,-1.14,2021-12-17 16:56:52.171875
1313,-1.37,2021-12-17 16:56:52.187500
1314,-1.66,2021-12-17 16:56:52.203125
1315,-2.16,2021-12-17 16:56:52.218750
1316,-2.96,2021-12-17 16:56:52.234375
1317,-4.05,2021-12-17 16:56:52.250000
1318,-5.31,2021-12-17 16:56:52.265625
1319,-6.48,2021-12-17 16:56:52.281250
1320,-7.29,2021-12-17 16:56:52.296875
1321,-7.54,2021-12-17 16:56:52.312500
1322,-7.21,2021-12-17 16:56:52.328125
1323,-6.45,2021-12-17 16:56:52.343750
1324,-5.5,2021-12-17 16:56:52.359375
1325,-4.6,2021-12-17 16:56:52.375000
1326,-3.82,2021-12-17 16:56:52.390625
1327,-3.18,2021-12-17 16:56:52.406250
1328,-2.59,2021-12-17 16:56:52.421875
1329,-2.04,2021-12-17 16:56:52.437500
1330,-1.55,2021-12-17 16:56:52.453125
1331,-1.23,2021-12-17 16:56:52.468750
1332,-1.08,2021-12-17 16:56:52.484375
1333,-1.05,2021-12-17 16:56:52.500000
1334,-0.97,2021-12-17 16:56:52.515625
1335,-0.64,2021-12-17 16:56:52.531250
1336,0.1,2021-12-17 16:56:52.546875
1337,1.23,2021-12-17 16:56:52.562500
1338,2.45,2021-12-17 16:56:52.578125
1339,3.25,2021-12-17 16:56:52.593750
1340,2.93,2021-12-17 16:56:52.609375
1341,0.9,2021-12-17 16:56:52.625000
1342,-3.2,2021-12-17 16:56:52.640625
1343,-9.33,2021-12-17 16:56:52.656250
1344,-17.05,2021-12-17 16:56:52.671875
1345,-25.7,2021-12-17 16:56:52.687500
1346,-34.64,2021-12-17 16:56:52.703125
1347,-43.42,2021-12-17 16:56:52.718750
1348,-51.85,2021-12-17 16:56:52.734375
1349,-59.87,2021-12-17 16:56:52.750000
1350,-67.42,2021-12-17 16:56:52.765625
1351,-74.37,2021-12-17 16:56:52.781250
1352,-80.58,2021-12-17 16:56:52.796875
1353,-86.01,2021-12-17 16:56:52.812500
1354,-90.95,2021-12-17 16:56:52.828125
1355,-95.87,2021-12-17 16:56:52.843750
1356,-101.34,2021-12-17 16:56:52.859375
1357,-107.72,2021-12-17 16:56:52.875000
1358,-115.03,2021-12-17 16:56:52.890625
1359,-122.91,2021-12-17 16:56:52.906250
1360,-130.76,2021-12-17 16:56:52.921875
1361,-137.84,2021-12-17 16:56:52.937500
1362,-143.47,2021-12-17 16:56:52.953125
1363,-147.1,2021-12-17 16:56:52.968750
1364,-148.53,2021-12-17 16:56:52.984375
1365,-148.06,2021-12-17 16:56:53.000000
1366,-146.52,2021-12-17 16:56:53.015625
1367,-144.89,2021-12-17 16:56:53.031250
1368,-143.64,2021-12-17 16:56:53.046875
1369,-142.12,2021-12-17 16:56:53.062500
1370,-138.46,2021-12-17 16:56:53.078125
1371,-130.28,2021-12-17 16:56:53.093750
1372,-115.93,2021-12-17 16:56:53.109375
1373,-95.46,2021-12-17 16:56:53.125000
1374,-70.89,2021-12-17 16:56:53.140625
1375,-45.53,2021-12-17 16:56:53.156250
1376,-22.85,2021-12-17 16:56:53.171875
1377,-5.67,2021-12-17 16:56:53.187500
1378,4.55,2021-12-17 16:56:53.203125
1379,7.91,2021-12-17 16:56:53.218750
1380,6.19,2021-12-17 16:56:53.234375
1381,2.8,2021-12-17 16:56:53.250000
1382,2.1,2021-12-17 16:56:53.265625
1383,7.99,2021-12-17 16:56:53.281250
1384,22.45,2021-12-17 16:56:53.296875
1385,44.55,2021-12-17 16:56:53.312500
1386,70.61,2021-12-17 16:56:53.328125
1387,95.48,2021-12-17 16:56:53.343750
1388,114.45,2021-12-17 16:56:53.359375
1389,124.78,2021-12-17 16:56:53.375000
1390,126.36,2021-12-17 16:56:53.390625
1391,121.59,2021-12-17 16:56:53.406250
1392,114.5,2021-12-17 16:56:53.421875
1393,109.59,2021-12-17 16:56:53.437500
1394,110.57,2021-12-17 16:56:53.453125
1395,119.16,2021-12-17 16:56:53.468750
1396,134.55,2021-12-17 16:56:53.484375
1397,153.63,2021-12-17 16:56:53.500000
1398,172.22,2021-12-17 16:56:53.515625
1399,186.92,2021-12-17 16:56:53.531250
1400,196.33,2021-12-17 16:56:53.546875
1401,200.93,2021-12-17 16:56:53.562500
1402,202.11,2021-12-17 16:56:53.578125
1403,200.93,2021-12-17 16:56:53.593750
1404,197.63,2021-12-17 16:56:53.609375
1405,192.04,2021-12-17 16:56:53.625000
1406,184.13,2021-12-17 16:56:53.640625
1407,174.14,2021-12-17 16:56:53.656250
1408,162.08,2021-12-17 16:56:53.671875
1409,147.15,2021-12-17 16:56:53.687500
1410,128.11,2021-12-17 16:56:53.703125
1411,104.31,2021-12-17 16:56:53.718750
1412,76.83,2021-12-17 16:56:53.734375
1413,48.96,2021-12-17 16:56:53.750000
1414,25.25,2021-12-17 16:56:53.765625
1415,9.67,2021-12-17 16:56:53.781250
1416,4.01,2021-12-17 16:56:53.796875
1417,7.3,2021-12-17 16:56:53.812500
1418,16.42,2021-12-17 16:56:53.828125
1419,27.46,2021-12-17 16:56:53.843750
1420,36.91,2021-12-17 16:56:53.859375
1421,42.45,2021-12-17 16:56:53.875000
1422,42.91,2021-12-17 16:56:53.890625
1423,38.27,2021-12-17 16:56:53.906250
1424,29.49,2021-12-17 16:56:53.921875
1425,18.3,2021-12-17 16:56:53.937500
1426,6.81,2021-12-17 16:56:53.953125
1427,-3.05,2021-12-17 16:56:53.968750
1428,-10.06,2021-12-17 16:56:53.984375
1429,-13.94,2021-12-17 16:56:54.000000
1430,-15.27,2021-12-17 16:56:54.015625
1431,-15.14,2021-12-17 16:56:54.031250
1432,-14.75,2021-12-17 16:56:54.046875
1433,-15.21,2021-12-17 16:56:54.062500
1434,-17.39,2021-12-17 16:56:54.078125
1435,-21.78,2021-12-17 16:56:54.093750
1436,-28.31,2021-12-17 16:56:54.109375
1437,-36.36,2021-12-17 16:56:54.125000
1438,-44.9,2021-12-17 16:56:54.140625
1439,-52.95,2021-12-17 16:56:54.156250
1440,-59.96,2021-12-17 16:56:54.171875
1441,-66.08,2021-12-17 16:56:54.187500
1442,-71.89,2021-12-17 16:56:54.203125
1443,-77.9,2021-12-17 16:56:54.218750
1444,-84.06,2021-12-17 16:56:54.234375
1445,-89.51,2021-12-17 16:56:54.250000
1446,-92.92,2021-12-17 16:56:54.265625
1447,-93.14,2021-12-17 16:56:54.281250
1448,-89.82,2021-12-17 16:56:54.296875
1449,-83.57,2021-12-17 16:56:54.312500
1450,-75.65,2021-12-17 16:56:54.328125
1451,-67.45,2021-12-17 16:56:54.343750
1452,-59.89,2021-12-17 16:56:54.359375
1453,-53.35,2021-12-17 16:56:54.375000
1454,-47.78,2021-12-17 16:56:54.390625
1455,-43.04,2021-12-17 16:56:54.406250
1456,-39.15,2021-12-17 16:56:54.421875
1457,-36.24,2021-12-17 16:56:54.437500
1458,-34.27,2021-12-17 16:56:54.453125
1459,-32.83,2021-12-17 16:56:54.468750
1460,-31.2,2021-12-17 16:56:54.484375
1461,-28.65,2021-12-17 16:56:54.500000
1462,-24.95,2021-12-17 16:56:54.515625
1463,-20.52,2021-12-17 16:56:54.531250
1464,-16.25,2021-12-17 16:56:54.546875
1465,-12.95,2021-12-17 16:56:54.562500
1466,-10.67,2021-12-17 16:56:54.578125
1467,-8.35,2021-12-17 16:56:54.593750
1468,-3.87,2021-12-17 16:56:54.609375
1469,5.24,2021-12-17 16:56:54.625000
1470,20.8,2021-12-17 16:56:54.640625
1471,42.94,2021-12-17 16:56:54.656250
1472,69.58,2021-12-17 16:56:54.671875
1473,96.66,2021-12-17 16:56:54.687500
1474,119.26,2021-12-17 16:56:54.703125
1475,133.16,2021-12-17 16:56:54.718750
1476,136.24,2021-12-17 16:56:54.734375
1477,129.11,2021-12-17 16:56:54.750000
1478,114.8,2021-12-17 16:56:54.765625
1479,97.63,2021-12-17 16:56:54.781250
1480,81.69,2021-12-17 16:56:54.796875
1481,69.64,2021-12-17 16:56:54.812500
1482,62.17,2021-12-17 16:56:54.828125
1483,58.23,2021-12-17 16:56:54.843750
1484,55.8,2021-12-17 16:56:54.859375
1485,52.83,2021-12-17 16:56:54.875000
1486,47.93,2021-12-17 16:56:54.890625
1487,40.7,2021-12-17 16:56:54.906250
1488,31.62,2021-12-17 16:56:54.921875
1489,21.63,2021-12-17 16:56:54.937500
1490,11.65,2021-12-17 16:56:54.953125
1491,2.24,2021-12-17 16:56:54.968750
1492,-6.43,2021-12-17 16:56:54.984375
1493,-14.46,2021-12-17 16:56:55.000000
1494,-21.86,2021-12-17 16:56:55.015625
1495,-28.47,2021-12-17 16:56:55.031250
1496,-33.96,2021-12-17 16:56:55.046875
1497,-38.2,2021-12-17 16:56:55.062500
1498,-41.47,2021-12-17 16:56:55.078125
1499,-44.53,2021-12-17 16:56:55.093750
1500,-48.26,2021-12-17 16:56:55.109375
1501,-53.2,2021-12-17 16:56:55.125000
1502,-59.17,2021-12-17 16:56:55.140625
1503,-65.25,2021-12-17 16:56:55.156250
1504,-70.1,2021-12-17 16:56:55.171875
1505,-72.27,2021-12-17 16:56:55.187500
1506,-70.69,2021-12-17 16:56:55.203125
1507,-64.7,2021-12-17 16:56:55.218750
1508,-53.98,2021-12-17 16:56:55.234375
1509,-38.47,2021-12-17 16:56:55.250000
1510,-18.39,2021-12-17 16:56:55.265625
1511,5.39,2021-12-17 16:56:55.281250
1512,31.09,2021-12-17 16:56:55.296875
1513,55.76,2021-12-17 16:56:55.312500
1514,75.94,2021-12-17 16:56:55.328125
1515,88.05,2021-12-17 16:56:55.343750
1516,89.36,2021-12-17 16:56:55.359375
1517,78.89,2021-12-17 16:56:55.375000
1518,57.77,2021-12-17 16:56:55.390625
1519,29.12,2021-12-17 16:56:55.406250
1520,-2.69,2021-12-17 16:56:55.421875
1521,-33.18,2021-12-17 16:56:55.437500
1522,-58.96,2021-12-17 16:56:55.453125
1523,-77.73,2021-12-17 16:56:55.468750
1524,-88.95,2021-12-17 16:56:55.484375
1525,-93.4,2021-12-17 16:56:55.500000
1526,-92.53,2021-12-17 16:56:55.515625
1527,-87.8,2021-12-17 16:56:55.531250
1528,-80.34,2021-12-17 16:56:55.546875
1529,-70.9,2021-12-17 16:56:55.562500
1530,-59.96,2021-12-17 16:56:55.578125
1531,-47.95,2021-12-17 16:56:55.593750
1532,-33.63,2021-12-17 16:56:55.609375
1533,-15.14,2021-12-17 16:56:55.625000
1534,9.64,2021-12-17 16:56:55.640625
1535,42.27,2021-12-17 16:56:55.656250
1536,82.77,2021-12-17 16:56:55.671875
1537,129.05,2021-12-17 16:56:55.687500
1538,176.94,2021-12-17 16:56:55.703125
1539,220.97,2021-12-17 16:56:55.718750
1540,255.17,2021-12-17 16:56:55.734375
1541,276.58,2021-12-17 16:56:55.750000
1542,284.96,2021-12-17 16:56:55.765625
1543,282.81,2021-12-17 16:56:55.781250
1544,274.7,2021-12-17 16:56:55.796875
1545,265.87,2021-12-17 16:56:55.812500
1546,260.85,2021-12-17 16:56:55.828125
1547,262.46,2021-12-17 16:56:55.843750
1548,271.5,2021-12-17 16:56:55.859375
1549,280.24,2021-12-17 16:56:55.875000
1550,282.21,2021-12-17 16:56:55.890625
1551,272.47,2021-12-17 16:56:55.906250
1552,249.43,2021-12-17 16:56:55.921875
1553,215.43,2021-12-17 16:56:55.937500
1554,175.43,2021-12-17 16:56:55.953125
1555,134.5,2021-12-17 16:56:55.968750
1556,95.99,2021-12-17 16:56:55.984375
1557,64.66,2021-12-17 16:56:56.000000
1558,38.46,2021-12-17 16:56:56.015625
1559,15.58,2021-12-17 16:56:56.031250
1560,-5.07,2021-12-17 16:56:56.046875
1561,-23.66,2021-12-17 16:56:56.062500
1562,-39.95,2021-12-17 16:56:56.078125
1563,-54.15,2021-12-17 16:56:56.093750
1564,-67.1,2021-12-17 16:56:56.109375
1565,-80.31,2021-12-17 16:56:56.125000
1566,-95.19,2021-12-17 16:56:56.140625
1567,-113.58,2021-12-17 16:56:56.156250
1568,-135.61,2021-12-17 16:56:56.171875
1569,-161.13,2021-12-17 16:56:56.187500
1570,-190.25,2021-12-17 16:56:56.203125
1571,-223.43,2021-12-17 16:56:56.218750
1572,-260.9,2021-12-17 16:56:56.234375
1573,-301.51,2021-12-17 16:56:56.250000
1574,-341.9,2021-12-17 16:56:56.265625
1575,-376.74,2021-12-17 16:56:56.281250
1576,-400.8,2021-12-17 16:56:56.296875
1577,-409.83,2021-12-17 16:56:56.312500
1578,-403.16,2021-12-17 16:56:56.328125
1579,-383.95,2021-12-17 16:56:56.343750
1580,-357.61,2021-12-17 16:56:56.359375
1581,-329.26,2021-12-17 16:56:56.375000
1582,-301.72,2021-12-17 16:56:56.390625
1583,-275.14,2021-12-17 16:56:56.406250
1584,-248.21,2021-12-17 16:56:56.421875
1585,-220.3,2021-12-17 16:56:56.437500
1586,-191.72,2021-12-17 16:56:56.453125
1587,-163.96,2021-12-17 16:56:56.468750
1588,-138.58,2021-12-17 16:56:56.484375
1589,-116.05,2021-12-17 16:56:56.500000
1590,-95.35,2021-12-17 16:56:56.515625
1591,-74.58,2021-12-17 16:56:56.531250
1592,-51.92,2021-12-17 16:56:56.546875
1593,-26.32,2021-12-17 16:56:56.562500
1594,2.38,2021-12-17 16:56:56.578125
1595,34.15,2021-12-17 16:56:56.593750
1596,68.95,2021-12-17 16:56:56.609375
1597,106.4,2021-12-17 16:56:56.625000
1598,145.2,2021-12-17 16:56:56.640625
1599,182.7,2021-12-17 16:56:56.656250
1600,215.09,2021-12-17 16:56:56.671875
1601,238.49,2021-12-17 16:56:56.687500
1602,250.28,2021-12-17 16:56:56.703125
1603,249.92,2021-12-17 16:56:56.718750
1604,239.11,2021-12-17 16:56:56.734375
1605,220.92,2021-12-17 16:56:56.750000
1606,198.61,2021-12-17 16:56:56.765625
1607,174.69,2021-12-17 16:56:56.781250
1608,150.84,2021-12-17 16:56:56.796875
1609,128.08,2021-12-17 16:56:56.812500
1610,107.15,2021-12-17 16:56:56.828125
1611,88.56,2021-12-17 16:56:56.843750
1612,72.31,2021-12-17 16:56:56.859375
1613,57.74,2021-12-17 16:56:56.875000
1614,43.67,2021-12-17 16:56:56.890625
1615,28.97,2021-12-17 16:56:56.906250
1616,13.21,2021-12-17 16:56:56.921875
1617,-3.05,2021-12-17 16:56:56.937500
1618,-18.52,2021-12-17 16:56:56.953125
1619,-31.68,2021-12-17 16:56:56.968750
1620,-41.5,2021-12-17 16:56:56.984375
1621,-47.78,2021-12-17 16:56:57.000000
1622,-51.13,2021-12-17 16:56:57.015625
1623,-52.64,2021-12-17 16:56:57.031250
1624,-53.55,2021-12-17 16:56:57.046875
1625,-54.93,2021-12-17 16:56:57.062500
1626,-57.65,2021-12-17 16:56:57.078125
1627,-62.27,2021-12-17 16:56:57.093750
1628,-68.9,2021-12-17 16:56:57.109375
1629,-77.09,2021-12-17 16:56:57.125000
1630,-85.78,2021-12-17 16:56:57.140625
1631,-93.52,2021-12-17 16:56:57.156250
1632,-98.79,2021-12-17 16:56:57.171875
1633,-100.61,2021-12-17 16:56:57.187500
1634,-98.91,2021-12-17 16:56:57.203125
1635,-94.63,2021-12-17 16:56:57.218750
1636,-89.35,2021-12-17 16:56:57.234375
1637,-84.73,2021-12-17 16:56:57.250000
1638,-81.89,2021-12-17 16:56:57.265625
1639,-81.15,2021-12-17 16:56:57.281250
1640,-81.94,2021-12-17 16:56:57.296875
1641,-83.08,2021-12-17 16:56:57.312500
1642,-83.22,2021-12-17 16:56:57.328125
1643,-81.12,2021-12-17 16:56:57.343750
1644,-76.09,2021-12-17 16:56:57.359375
1645,-68.15,2021-12-17 16:56:57.375000
1646,-58.14,2021-12-17 16:56:57.390625
1647,-47.6,2021-12-17 16:56:57.406250
1648,-38.33,2021-12-17 16:56:57.421875
1649,-31.71,2021-12-17 16:56:57.437500
1650,-28.15,2021-12-17 16:56:57.453125
1651,-26.83,2021-12-17 16:56:57.468750
1652,-25.98,2021-12-17 16:56:57.484375
1653,-23.66,2021-12-17 16:56:57.500000
1654,-18.67,2021-12-17 16:56:57.515625
1655,-11.07,2021-12-17 16:56:57.531250
1656,-2.17,2021-12-17 16:56:57.546875
1657,6.21,2021-12-17 16:56:57.562500
1658,12.58,2021-12-17 16:56:57.578125
1659,16.47,2021-12-17 16:56:57.593750
1660,18.52,2021-12-17 16:56:57.609375
1661,20.08,2021-12-17 16:56:57.625000
1662,22.39,2021-12-17 16:56:57.640625
1663,25.96,2021-12-17 16:56:57.656250
1664,30.35,2021-12-17 16:56:57.671875
1665,34.29,2021-12-17 16:56:57.687500
1666,36.24,2021-12-17 16:56:57.703125
1667,34.98,2021-12-17 16:56:57.718750
1668,30.04,2021-12-17 16:56:57.734375
1669,21.85,2021-12-17 16:56:57.750000
1670,11.55,2021-12-17 16:56:57.765625
1671,0.72,2021-12-17 16:56:57.781250
1672,-9.09,2021-12-17 16:56:57.796875
1673,-16.71,2021-12-17 16:56:57.812500
1674,-21.52,2021-12-17 16:56:57.828125
1675,-23.56,2021-12-17 16:56:57.843750
1676,-23.35,2021-12-17 16:56:57.859375
1677,-21.68,2021-12-17 16:56:57.875000
1678,-19.35,2021-12-17 16:56:57.890625
1679,-16.86,2021-12-17 16:56:57.906250
1680,-14.31,2021-12-17 16:56:57.921875
1681,-11.37,2021-12-17 16:56:57.937500
1682,-7.52,2021-12-17 16:56:57.953125
1683,-2.27,2021-12-17 16:56:57.968750
1684,4.61,2021-12-17 16:56:57.984375
1685,13.05,2021-12-17 16:56:58.000000
1686,22.76,2021-12-17 16:56:58.015625
1687,33.5,2021-12-17 16:56:58.031250
1688,45.23,2021-12-17 16:56:58.046875
1689,58.01,2021-12-17 16:56:58.062500
1690,71.77,2021-12-17 16:56:58.078125
1691,85.92,2021-12-17 16:56:58.093750
1692,99.11,2021-12-17 16:56:58.109375
1693,109.43,2021-12-17 16:56:58.125000
1694,114.84,2021-12-17 16:56:58.140625
1695,113.87,2021-12-17 16:56:58.156250
1696,106.12,2021-12-17 16:56:58.171875
1697,92.32,2021-12-17 16:56:58.187500
1698,74.07,2021-12-17 16:56:58.203125
1699,53.11,2021-12-17 16:56:58.218750
1700,30.87,2021-12-17 16:56:58.234375
1701,8.19,2021-12-17 16:56:58.250000
1702,-14.57,2021-12-17 16:56:58.265625
1703,-37.26,2021-12-17 16:56:58.281250
1704,-59.66,2021-12-17 16:56:58.296875
1705,-81.51,2021-12-17 16:56:58.312500
1706,-102.55,2021-12-17 16:56:58.328125
1707,-122.42,2021-12-17 16:56:58.343750
1708,-140.52,2021-12-17 16:56:58.359375
1709,-155.66,2021-12-17 16:56:58.375000
1710,-166.04,2021-12-17 16:56:58.390625
1711,-169.65,2021-12-17 16:56:58.406250
1712,-165.01,2021-12-17 16:56:58.421875
1713,-151.85,2021-12-17 16:56:58.437500
1714,-131.14,2021-12-17 16:56:58.453125
1715,-104.57,2021-12-17 16:56:58.468750
1716,-73.92,2021-12-17 16:56:58.484375
1717,-40.62,2021-12-17 16:56:58.500000
1718,-6.23,2021-12-17 16:56:58.515625
1719,26.72,2021-12-17 16:56:58.531250
1720,54.48,2021-12-17 16:56:58.546875
1721,72.8,2021-12-17 16:56:58.562500
1722,78.48,2021-12-17 16:56:58.578125
1723,71.2,2021-12-17 16:56:58.593750
1724,54.1,2021-12-17 16:56:58.609375
1725,32.67,2021-12-17 16:56:58.625000
1726,12.23,2021-12-17 16:56:58.640625
1727,-4.17,2021-12-17 16:56:58.656250
1728,-16.55,2021-12-17 16:56:58.671875
1729,-27.25,2021-12-17 16:56:58.687500
1730,-39.43,2021-12-17 16:56:58.703125
1731,-55.72,2021-12-17 16:56:58.718750
1732,-77.62,2021-12-17 16:56:58.734375
1733,-105.33,2021-12-17 16:56:58.750000
1734,-137.55,2021-12-17 16:56:58.765625
1735,-171.31,2021-12-17 16:56:58.781250
1736,-202.06,2021-12-17 16:56:58.796875
1737,-224.65,2021-12-17 16:56:58.812500
1738,-235.22,2021-12-17 16:56:58.828125
1739,-232.95,2021-12-17 16:56:58.843750
1740,-220.45,2021-12-17 16:56:58.859375
1741,-202.75,2021-12-17 16:56:58.875000
1742,-184.85,2021-12-17 16:56:58.890625
1743,-169.47,2021-12-17 16:56:58.906250
1744,-156.36,2021-12-17 16:56:58.921875
1745,-143.06,2021-12-17 16:56:58.937500
1746,-126.48,2021-12-17 16:56:58.953125
1747,-104.22,2021-12-17 16:56:58.968750
1748,-75.31,2021-12-17 16:56:58.984375
1749,-40.42,2021-12-17 16:56:59.000000
1750,-1.96,2021-12-17 16:56:59.015625
1751,35.76,2021-12-17 16:56:59.031250
1752,67.29,2021-12-17 16:56:59.046875
1753,87.44,2021-12-17 16:56:59.062500
1754,93.34,2021-12-17 16:56:59.078125
1755,85.89,2021-12-17 16:56:59.093750
1756,69.79,2021-12-17 16:56:59.109375
1757,51.75,2021-12-17 16:56:59.125000
1758,37.71,2021-12-17 16:56:59.140625
1759,30.5,2021-12-17 16:56:59.156250
1760,29.43,2021-12-17 16:56:59.171875
1761,31.79,2021-12-17 16:56:59.187500
1762,35.11,2021-12-17 16:56:59.203125
1763,38.97,2021-12-17 16:56:59.218750
1764,45.05,2021-12-17 16:56:59.234375
1765,55.85,2021-12-17 16:56:59.250000
1766,72.88,2021-12-17 16:56:59.265625
1767,95.59,2021-12-17 16:56:59.281250
1768,121.58,2021-12-17 16:56:59.296875
1769,147.83,2021-12-17 16:56:59.312500
1770,172.19,2021-12-17 16:56:59.328125
1771,194.0,2021-12-17 16:56:59.343750
1772,214.02,2021-12-17 16:56:59.359375
1773,233.26,2021-12-17 16:56:59.375000
1774,251.98,2021-12-17 16:56:59.390625
1775,269.32,2021-12-17 16:56:59.406250
1776,283.64,2021-12-17 16:56:59.421875
1777,293.27,2021-12-17 16:56:59.437500
1778,297.19,2021-12-17 16:56:59.453125
1779,295.31,2021-12-17 16:56:59.468750
1780,288.36,2021-12-17 16:56:59.484375
1781,277.32,2021-12-17 16:56:59.500000
1782,263.16,2021-12-17 16:56:59.515625
1783,246.65,2021-12-17 16:56:59.531250
1784,228.41,2021-12-17 16:56:59.546875
1785,209.17,2021-12-17 16:56:59.562500
1786,189.81,2021-12-17 16:56:59.578125
1787,171.25,2021-12-17 16:56:59.593750
1788,154.3,2021-12-17 16:56:59.609375
1789,139.71,2021-12-17 16:56:59.625000
1790,128.45,2021-12-17 16:56:59.640625
1791,121.92,2021-12-17 16:56:59.656250
1792,121.79,2021-12-17 16:56:59.671875
1793,129.22,2021-12-17 16:56:59.687500
1794,143.94,2021-12-17 16:56:59.703125
1795,163.61,2021-12-17 16:56:59.718750
1796,184.0,2021-12-17 16:56:59.734375
1797,200.22,2021-12-17 16:56:59.750000
1798,207.96,2021-12-17 16:56:59.765625
1799,204.48,2021-12-17 16:56:59.781250
1800,188.39,2021-12-17 16:56:59.796875
1801,159.31,2021-12-17 16:56:59.812500
1802,117.8,2021-12-17 16:56:59.828125
1803,66.1,2021-12-17 16:56:59.843750
1804,9.26,2021-12-17 16:56:59.859375
1805,-44.54,2021-12-17 16:56:59.875000
1806,-85.29,2021-12-17 16:56:59.890625
1807,-104.6,2021-12-17 16:56:59.906250
1808,-99.63,2021-12-17 16:56:59.921875
1809,-75.2,2021-12-17 16:56:59.937500
1810,-42.52,2021-12-17 16:56:59.953125
1811,-14.84,2021-12-17 16:56:59.968750
1812,-2.08,2021-12-17 16:56:59.984375
1813,-7.28,2021-12-17 16:57:00.000000
1814,-26.55,2021-12-17 16:57:00.015625
1815,-51.96,2021-12-17 16:57:00.031250
1816,-75.61,2021-12-17 16:57:00.046875
1817,-92.46,2021-12-17 16:57:00.062500
1818,-100.93,2021-12-17 16:57:00.078125
1819,-101.63,2021-12-17 16:57:00.093750
1820,-95.52,2021-12-17 16:57:00.109375
1821,-83.05,2021-12-17 16:57:00.125000
1822,-64.61,2021-12-17 16:57:00.140625
1823,-41.66,2021-12-17 16:57:00.156250
1824,-17.42,2021-12-17 16:57:00.171875
1825,3.45,2021-12-17 16:57:00.187500
1826,16.53,2021-12-17 16:57:00.203125
1827,19.42,2021-12-17 16:57:00.218750
1828,12.79,2021-12-17 16:57:00.234375
1829,0.08,2021-12-17 16:57:00.250000
1830,-14.11,2021-12-17 16:57:00.265625
1831,-25.75,2021-12-17 16:57:00.281250
1832,-32.99,2021-12-17 16:57:00.296875
1833,-36.62,2021-12-17 16:57:00.312500
1834,-39.28,2021-12-17 16:57:00.328125
1835,-43.94,2021-12-17 16:57:00.343750
1836,-52.33,2021-12-17 16:57:00.359375
1837,-64.26,2021-12-17 16:57:00.375000
1838,-77.83,2021-12-17 16:57:00.390625
1839,-90.42,2021-12-17 16:57:00.406250
1840,-99.89,2021-12-17 16:57:00.421875
1841,-105.24,2021-12-17 16:57:00.437500
1842,-106.66,2021-12-17 16:57:00.453125
1843,-105.13,2021-12-17 16:57:00.468750
1844,-101.87,2021-12-17 16:57:00.484375
1845,-97.79,2021-12-17 16:57:00.500000
1846,-93.29,2021-12-17 16:57:00.515625
1847,-88.33,2021-12-17 16:57:00.531250
1848,-82.69,2021-12-17 16:57:00.546875
1849,-76.28,2021-12-17 16:57:00.562500
1850,-69.23,2021-12-17 16:57:00.578125
1851,-62.08,2021-12-17 16:57:00.593750
1852,-55.48,2021-12-17 16:57:00.609375
1853,-49.98,2021-12-17 16:57:00.625000
1854,-45.83,2021-12-17 16:57:00.640625
1855,-43.01,2021-12-17 16:57:00.656250
1856,-41.27,2021-12-17 16:57:00.671875
1857,-40.32,2021-12-17 16:57:00.687500
1858,-39.89,2021-12-17 16:57:00.703125
1859,-39.76,2021-12-17 16:57:00.718750
1860,-39.71,2021-12-17 16:57:00.734375
1861,-39.44,2021-12-17 16:57:00.750000
1862,-38.6,2021-12-17 16:57:00.765625
1863,-36.93,2021-12-17 16:57:00.781250
1864,-34.41,2021-12-17 16:57:00.796875
1865,-31.3,2021-12-17 16:57:00.812500
1866,-28.03,2021-12-17 16:57:00.828125
1867,-25.06,2021-12-17 16:57:00.843750
1868,-22.69,2021-12-17 16:57:00.859375
1869,-20.94,2021-12-17 16:57:00.875000
1870,-19.58,2021-12-17 16:57:00.890625
1871,-18.24,2021-12-17 16:57:00.906250
1872,-16.56,2021-12-17 16:57:00.921875
1873,-14.32,2021-12-17 16:57:00.937500
1874,-11.43,2021-12-17 16:57:00.953125
1875,-7.98,2021-12-17 16:57:00.968750
1876,-4.09,2021-12-17 16:57:00.984375
1877,0.06,2021-12-17 16:57:01.000000
1878,4.3,2021-12-17 16:57:01.015625
1879,8.52,2021-12-17 16:57:01.031250
1880,12.76,2021-12-17 16:57:01.046875
1881,17.28,2021-12-17 16:57:01.062500
1882,22.58,2021-12-17 16:57:01.078125
1883,29.3,2021-12-17 16:57:01.093750
1884,37.93,2021-12-17 16:57:01.109375
1885,48.49,2021-12-17 16:57:01.125000
1886,60.13,2021-12-17 16:57:01.140625
1887,71.14,2021-12-17 16:57:01.156250
1888,79.18,2021-12-17 16:57:01.171875
1889,81.93,2021-12-17 16:57:01.187500
1890,77.89,2021-12-17 16:57:01.203125
1891,66.88,2021-12-17 16:57:01.218750
1892,50.08,2021-12-17 16:57:01.234375
1893,29.68,2021-12-17 16:57:01.250000
1894,8.2,2021-12-17 16:57:01.265625
1895,-12.01,2021-12-17 16:57:01.281250
1896,-29.02,2021-12-17 16:57:01.296875
1897,-41.37,2021-12-17 16:57:01.312500
1898,-48.12,2021-12-17 16:57:01.328125
1899,-49.21,2021-12-17 16:57:01.343750
1900,-45.7,2021-12-17 16:57:01.359375
1901,-39.95,2021-12-17 16:57:01.375000
1902,-35.15,2021-12-17 16:57:01.390625
1903,-34.29,2021-12-17 16:57:01.406250
1904,-38.97,2021-12-17 16:57:01.421875
1905,-48.55,2021-12-17 16:57:01.437500
1906,-60.31,2021-12-17 16:57:01.453125
1907,-70.43,2021-12-17 16:57:01.468750
1908,-75.55,2021-12-17 16:57:01.484375
1909,-74.03,2021-12-17 16:57:01.500000
1910,-66.36,2021-12-17 16:57:01.515625
1911,-54.67,2021-12-17 16:57:01.531250
1912,-41.61,2021-12-17 16:57:01.546875
1913,-29.29,2021-12-17 16:57:01.562500
1914,-18.82,2021-12-17 16:57:01.578125
1915,-10.31,2021-12-17 16:57:01.593750
1916,-3.42,2021-12-17 16:57:01.609375
1917,2.2,2021-12-17 16:57:01.625000
1918,6.62,2021-12-17 16:57:01.640625
1919,9.74,2021-12-17 16:57:01.656250
1920,11.5,2021-12-17 16:57:01.671875
1921,11.97,2021-12-17 16:57:01.687500
1922,11.33,2021-12-17 16:57:01.703125
1923,9.7,2021-12-17 16:57:01.718750
1924,6.92,2021-12-17 16:57:01.734375
1925,2.65,2021-12-17 16:57:01.750000
1926,-3.45,2021-12-17 16:57:01.765625
1927,-11.46,2021-12-17 16:57:01.781250
1928,-20.92,2021-12-17 16:57:01.796875
1929,-30.91,2021-12-17 16:57:01.812500
1930,-40.21,2021-12-17 16:57:01.828125
1931,-47.63,2021-12-17 16:57:01.843750
1932,-52.29,2021-12-17 16:57:01.859375
1933,-53.86,2021-12-17 16:57:01.875000
1934,-52.55,2021-12-17 16:57:01.890625
1935,-49.06,2021-12-17 16:57:01.906250
1936,-44.32,2021-12-17 16:57:01.921875
1937,-39.24,2021-12-17 16:57:01.937500
1938,-34.47,2021-12-17 16:57:01.953125
1939,-30.24,2021-12-17 16:57:01.968750
1940,-26.43,2021-12-17 16:57:01.984375
1941,-22.72,2021-12-17 16:57:02.000000
1942,-18.82,2021-12-17 16:57:02.015625
1943,-14.77,2021-12-17 16:57:02.031250
1944,-10.96,2021-12-17 16:57:02.046875
1945,-8.05,2021-12-17 16:57:02.062500
1946,-6.72,2021-12-17 16:57:02.078125
1947,-7.3,2021-12-17 16:57:02.093750
1948,-9.59,2021-12-17 16:57:02.109375
1949,-12.78,2021-12-17 16:57:02.125000
1950,-15.72,2021-12-17 16:57:02.140625
1951,-17.44,2021-12-17 16:57:02.156250
1952,-17.46,2021-12-17 16:57:02.171875
1953,-16.12,2021-12-17 16:57:02.187500
1954,-14.38,2021-12-17 16:57:02.203125
1955,-13.44,2021-12-17 16:57:02.218750
1956,-14.13,2021-12-17 16:57:02.234375
1957,-16.49,2021-12-17 16:57:02.250000
1958,-19.72,2021-12-17 16:57:02.265625
1959,-22.5,2021-12-17 16:57:02.281250
1960,-23.67,2021-12-17 16:57:02.296875
1961,-22.81,2021-12-17 16:57:02.312500
1962,-20.6,2021-12-17 16:57:02.328125
1963,-18.52,2021-12-17 16:57:02.343750
1964,-18.3,2021-12-17 16:57:02.359375
1965,-21.06,2021-12-17 16:57:02.375000
1966,-26.77,2021-12-17 16:57:02.390625
1967,-34.21,2021-12-17 16:57:02.406250
1968,-41.44,2021-12-17 16:57:02.421875
1969,-46.46,2021-12-17 16:57:02.437500
1970,-47.89,2021-12-17 16:57:02.453125
1971,-45.38,2021-12-17 16:57:02.468750
1972,-39.79,2021-12-17 16:57:02.484375
1973,-33.27,2021-12-17 16:57:02.500000
1974,-29.21,2021-12-17 16:57:02.515625
1975,-31.69,2021-12-17 16:57:02.531250
1976,-44.09,2021-12-17 16:57:02.546875
1977,-67.2,2021-12-17 16:57:02.562500
1978,-97.77,2021-12-17 16:57:02.578125
1979,-128.52,2021-12-17 16:57:02.593750
1980,-150.27,2021-12-17 16:57:02.609375
1981,-155.3,2021-12-17 16:57:02.625000
1982,-140.68,2021-12-17 16:57:02.640625
1983,-109.66,2021-12-17 16:57:02.656250
1984,-70.63,2021-12-17 16:57:02.671875
1985,-33.89,2021-12-17 16:57:02.687500
1986,-8.05,2021-12-17 16:57:02.703125
1987,2.56,2021-12-17 16:57:02.718750
1988,-1.45,2021-12-17 16:57:02.734375
1989,-15.79,2021-12-17 16:57:02.750000
1990,-34.45,2021-12-17 16:57:02.765625
1991,-51.72,2021-12-17 16:57:02.781250
1992,-63.43,2021-12-17 16:57:02.796875
1993,-67.44,2021-12-17 16:57:02.812500
1994,-63.71,2021-12-17 16:57:02.828125
1995,-53.89,2021-12-17 16:57:02.843750
1996,-40.94,2021-12-17 16:57:02.859375
1997,-28.53,2021-12-17 16:57:02.875000
1998,-20.45,2021-12-17 16:57:02.890625
1999,-19.87,2021-12-17 16:57:02.906250
2000,-28.5,2021-12-17 16:57:02.921875
2001,-45.81,2021-12-17 16:57:02.937500
2002,-68.62,2021-12-17 16:57:02.953125
2003,-91.87,2021-12-17 16:57:02.968750
2004,-110.29,2021-12-17 16:57:02.984375
2005,-120.47,2021-12-17 16:57:03.000000
2006,-122.52,2021-12-17 16:57:03.015625
2007,-120.43,2021-12-17 16:57:03.031250
2008,-120.79,2021-12-17 16:57:03.046875
2009,-130.11,2021-12-17 16:57:03.062500
2010,-151.83,2021-12-17 16:57:03.078125
2011,-184.26,2021-12-17 16:57:03.093750
2012,-220.54,2021-12-17 16:57:03.109375
2013,-250.91,2021-12-17 16:57:03.125000
2014,-266.32,2021-12-17 16:57:03.140625
2015,-261.66,2021-12-17 16:57:03.156250
2016,-237.32,2021-12-17 16:57:03.171875
2017,-198.33,2021-12-17 16:57:03.187500
2018,-151.68,2021-12-17 16:57:03.203125
2019,-104.13,2021-12-17 16:57:03.218750
2020,-60.56,2021-12-17 16:57:03.234375
2021,-24.27,2021-12-17 16:57:03.250000
2022,2.6,2021-12-17 16:57:03.265625
2023,18.95,2021-12-17 16:57:03.281250
2024,25.75,2021-12-17 16:57:03.296875
2025,27.04,2021-12-17 16:57:03.312500
2026,29.62,2021-12-17 16:57:03.328125
2027,40.78,2021-12-17 16:57:03.343750
2028,65.22,2021-12-17 16:57:03.359375
2029,102.84,2021-12-17 16:57:03.375000
2030,148.93,2021-12-17 16:57:03.390625
2031,196.74,2021-12-17 16:57:03.406250
2032,240.58,2021-12-17 16:57:03.421875
2033,277.66,2021-12-17 16:57:03.437500
2034,307.86,2021-12-17 16:57:03.453125
2035,331.7,2021-12-17 16:57:03.468750
2036,348.58,2021-12-17 16:57:03.484375
2037,356.62,2021-12-17 16:57:03.500000
2038,354.03,2021-12-17 16:57:03.515625
2039,340.98,2021-12-17 16:57:03.531250
2040,320.54,2021-12-17 16:57:03.546875
2041,297.79,2021-12-17 16:57:03.562500
2042,277.61,2021-12-17 16:57:03.578125
2043,262.48,2021-12-17 16:57:03.593750
2044,251.3,2021-12-17 16:57:03.609375
2045,240.12,2021-12-17 16:57:03.625000
2046,224.25,2021-12-17 16:57:03.640625
2047,200.87,2021-12-17 16:57:03.656250
2048,170.58,2021-12-17 16:57:03.671875
2049,137.37,2021-12-17 16:57:03.687500
2050,107.22,2021-12-17 16:57:03.703125
2051,85.39,2021-12-17 16:57:03.718750
2052,75.14,2021-12-17 16:57:03.734375
2053,76.32,2021-12-17 16:57:03.750000
2054,86.11,2021-12-17 16:57:03.765625
2055,100.4,2021-12-17 16:57:03.781250
2056,115.28,2021-12-17 16:57:03.796875
2057,128.02,2021-12-17 16:57:03.812500
2058,137.29,2021-12-17 16:57:03.828125
2059,142.74,2021-12-17 16:57:03.843750
2060,144.59,2021-12-17 16:57:03.859375
2061,144.17,2021-12-17 16:57:03.875000
2062,143.13,2021-12-17 16:57:03.890625
2063,143.0,2021-12-17 16:57:03.906250
2064,144.75,2021-12-17 16:57:03.921875
2065,148.51,2021-12-17 16:57:03.937500
2066,153.59,2021-12-17 16:57:03.953125
2067,158.95,2021-12-17 16:57:03.968750
2068,163.72,2021-12-17 16:57:03.984375
2069,167.62,2021-12-17 16:57:04.000000
2070,172.25,2021-12-17 16:57:04.015625
2071,179.51,2021-12-17 16:57:04.031250
2072,190.53,2021-12-17 16:57:04.046875
2073,204.76,2021-12-17 16:57:04.062500
2074,219.73,2021-12-17 16:57:04.078125
2075,231.69,2021-12-17 16:57:04.093750
2076,236.78,2021-12-17 16:57:04.109375
2077,232.38,2021-12-17 16:57:04.125000
2078,218.39,2021-12-17 16:57:04.140625
2079,199.1,2021-12-17 16:57:04.156250
2080,181.3,2021-12-17 16:57:04.171875
2081,171.75,2021-12-17 16:57:04.187500
2082,174.46,2021-12-17 16:57:04.203125
2083,188.99,2021-12-17 16:57:04.218750
2084,210.74,2021-12-17 16:57:04.234375
2085,232.91,2021-12-17 16:57:04.250000
2086,249.32,2021-12-17 16:57:04.265625
2087,246.07,2021-12-17 16:57:04.281250
2088,216.26,2021-12-17 16:57:04.296875
2089,160.79,2021-12-17 16:57:04.312500
2090,87.84,2021-12-17 16:57:04.328125
2091,9.58,2021-12-17 16:57:04.343750
2092,-62.73,2021-12-17 16:57:04.359375
2093,-122.13,2021-12-17 16:57:04.375000
2094,-167.04,2021-12-17 16:57:04.390625
2095,-200.28,2021-12-17 16:57:04.406250
2096,-225.9,2021-12-17 16:57:04.421875
2097,-249.24,2021-12-17 16:57:04.437500
2098,-273.21,2021-12-17 16:57:04.453125
2099,-297.25,2021-12-17 16:57:04.468750
2100,-318.02,2021-12-17 16:57:04.484375
2101,-331.31,2021-12-17 16:57:04.500000
2102,-334.59,2021-12-17 16:57:04.515625
2103,-329.0,2021-12-17 16:57:04.531250
2104,-319.67,2021-12-17 16:57:04.546875
2105,-312.3,2021-12-17 16:57:04.562500
2106,-311.08,2021-12-17 16:57:04.578125
2107,-316.23,2021-12-17 16:57:04.593750
2108,-323.52,2021-12-17 16:57:04.609375
2109,-326.34,2021-12-17 16:57:04.625000
2110,-318.94,2021-12-17 16:57:04.640625
2111,-299.21,2021-12-17 16:57:04.656250
2112,-269.35,2021-12-17 16:57:04.671875
2113,-234.5,2021-12-17 16:57:04.687500
2114,-200.44,2021-12-17 16:57:04.703125
2115,-170.72,2021-12-17 16:57:04.718750
2116,-145.86,2021-12-17 16:57:04.734375
2117,-124.31,2021-12-17 16:57:04.750000
2118,-104.23,2021-12-17 16:57:04.765625
2119,-84.96,2021-12-17 16:57:04.781250
2120,-67.46,2021-12-17 16:57:04.796875
2121,-53.85,2021-12-17 16:57:04.812500
2122,-46.33,2021-12-17 16:57:04.828125
2123,-46.13,2021-12-17 16:57:04.843750
2124,-52.5,2021-12-17 16:57:04.859375
2125,-62.63,2021-12-17 16:57:04.875000
2126,-72.74,2021-12-17 16:57:04.890625
2127,-79.39,2021-12-17 16:57:04.906250
2128,-80.59,2021-12-17 16:57:04.921875
2129,-76.16,2021-12-17 16:57:04.937500
2130,-67.32,2021-12-17 16:57:04.953125
2131,-54.23,2021-12-17 16:57:04.968750
2132,-37.63,2021-12-17 16:57:04.984375
2133,-18.55,2021-12-17 16:57:05.000000
2134,1.6,2021-12-17 16:57:05.015625
2135,21.02,2021-12-17 16:57:05.031250
2136,37.8,2021-12-17 16:57:05.046875
2137,50.22,2021-12-17 16:57:05.062500
2138,57.27,2021-12-17 16:57:05.078125
2139,58.94,2021-12-17 16:57:05.093750
2140,55.43,2021-12-17 16:57:05.109375
2141,46.71,2021-12-17 16:57:05.125000
2142,32.61,2021-12-17 16:57:05.140625
2143,12.67,2021-12-17 16:57:05.156250
2144,-14.17,2021-12-17 16:57:05.171875
2145,-48.8,2021-12-17 16:57:05.187500
2146,-91.24,2021-12-17 16:57:05.203125
2147,-139.29,2021-12-17 16:57:05.218750
2148,-187.71,2021-12-17 16:57:05.234375
2149,-228.69,2021-12-17 16:57:05.250000
2150,-254.06,2021-12-17 16:57:05.265625
2151,-258.03,2021-12-17 16:57:05.281250
2152,-239.59,2021-12-17 16:57:05.296875
2153,-202.78,2021-12-17 16:57:05.312500
2154,-154.91,2021-12-17 16:57:05.328125
2155,-103.37,2021-12-17 16:57:05.343750
2156,-52.96,2021-12-17 16:57:05.359375
2157,-5.16,2021-12-17 16:57:05.375000
2158,40.62,2021-12-17 16:57:05.390625
2159,84.75,2021-12-17 16:57:05.406250
2160,126.36,2021-12-17 16:57:05.421875
2161,163.76,2021-12-17 16:57:05.437500
2162,196.01,2021-12-17 16:57:05.453125
2163,223.98,2021-12-17 16:57:05.468750
2164,249.7,2021-12-17 16:57:05.484375
2165,274.55,2021-12-17 16:57:05.500000
2166,297.19,2021-12-17 16:57:05.515625
2167,313.05,2021-12-17 16:57:05.531250
2168,315.9,2021-12-17 16:57:05.546875
2169,300.46,2021-12-17 16:57:05.562500
2170,264.66,2021-12-17 16:57:05.578125
2171,210.2,2021-12-17 16:57:05.593750
2172,141.6,2021-12-17 16:57:05.609375
2173,64.92,2021-12-17 16:57:05.625000
2174,-12.85,2021-12-17 16:57:05.640625
2175,-83.67,2021-12-17 16:57:05.656250
2176,-138.64,2021-12-17 16:57:05.671875
2177,-169.63,2021-12-17 16:57:05.687500
2178,-172.27,2021-12-17 16:57:05.703125
2179,-148.89,2021-12-17 16:57:05.718750
2180,-109.38,2021-12-17 16:57:05.734375
2181,-68.64,2021-12-17 16:57:05.750000
2182,-41.5,2021-12-17 16:57:05.765625
2183,-37.29,2021-12-17 16:57:05.781250
2184,-57.03,2021-12-17 16:57:05.796875
2185,-94.23,2021-12-17 16:57:05.812500
2186,-138.69,2021-12-17 16:57:05.828125
2187,-181.26,2021-12-17 16:57:05.843750
2188,-216.76,2021-12-17 16:57:05.859375
2189,-244.24,2021-12-17 16:57:05.875000
2190,-264.96,2021-12-17 16:57:05.890625
2191,-279.78,2021-12-17 16:57:05.906250
2192,-287.72,2021-12-17 16:57:05.921875
2193,-286.33,2021-12-17 16:57:05.937500
2194,-273.4,2021-12-17 16:57:05.953125
2195,-248.59,2021-12-17 16:57:05.968750
2196,-214.41,2021-12-17 16:57:05.984375
2197,-175.24,2021-12-17 16:57:06.000000
2198,-135.56,2021-12-17 16:57:06.015625
2199,-98.17,2021-12-17 16:57:06.031250
2200,-63.25,2021-12-17 16:57:06.046875
2201,-28.8,2021-12-17 16:57:06.062500
2202,8.0,2021-12-17 16:57:06.078125
2203,49.19,2021-12-17 16:57:06.093750
2204,94.75,2021-12-17 16:57:06.109375
2205,142.34,2021-12-17 16:57:06.125000
2206,187.91,2021-12-17 16:57:06.140625
2207,226.89,2021-12-17 16:57:06.156250
2208,255.53,2021-12-17 16:57:06.171875
2209,272.0,2021-12-17 16:57:06.187500
2210,276.74,2021-12-17 16:57:06.203125
2211,272.15,2021-12-17 16:57:06.218750
2212,261.44,2021-12-17 16:57:06.234375
2213,247.54,2021-12-17 16:57:06.250000
2214,232.26,2021-12-17 16:57:06.265625
2215,216.42,2021-12-17 16:57:06.281250
2216,200.63,2021-12-17 16:57:06.296875
2217,185.97,2021-12-17 16:57:06.312500
2218,174.02,2021-12-17 16:57:06.328125
2219,165.84,2021-12-17 16:57:06.343750
2220,160.61,2021-12-17 16:57:06.359375
2221,154.71,2021-12-17 16:57:06.375000
2222,142.17,2021-12-17 16:57:06.390625
2223,116.58,2021-12-17 16:57:06.406250
2224,73.86,2021-12-17 16:57:06.421875
2225,14.44,2021-12-17 16:57:06.437500
2226,-56.15,2021-12-17 16:57:06.453125
2227,-128.39,2021-12-17 16:57:06.468750
2228,-191.55,2021-12-17 16:57:06.484375
2229,-236.71,2021-12-17 16:57:06.500000
2230,-258.82,2021-12-17 16:57:06.515625
2231,-257.2,2021-12-17 16:57:06.531250
2232,-234.66,2021-12-17 16:57:06.546875
2233,-195.92,2021-12-17 16:57:06.562500
2234,-146.4,2021-12-17 16:57:06.578125
2235,-91.69,2021-12-17 16:57:06.593750
2236,-37.57,2021-12-17 16:57:06.609375
2237,9.95,2021-12-17 16:57:06.625000
2238,45.31,2021-12-17 16:57:06.640625
2239,64.65,2021-12-17 16:57:06.656250
2240,67.19,2021-12-17 16:57:06.671875
2241,55.82,2021-12-17 16:57:06.687500
2242,36.49,2021-12-17 16:57:06.703125
2243,16.32,2021-12-17 16:57:06.718750
2244,1.38,2021-12-17 16:57:06.734375
2245,-4.92,2021-12-17 16:57:06.750000
2246,-2.32,2021-12-17 16:57:06.765625
2247,6.97,2021-12-17 16:57:06.781250
2248,19.59,2021-12-17 16:57:06.796875
2249,32.4,2021-12-17 16:57:06.812500
2250,43.14,2021-12-17 16:57:06.828125
2251,50.73,2021-12-17 16:57:06.843750
2252,55.0,2021-12-17 16:57:06.859375
2253,56.46,2021-12-17 16:57:06.875000
2254,55.95,2021-12-17 16:57:06.890625
2255,54.4,2021-12-17 16:57:06.906250
2256,52.67,2021-12-17 16:57:06.921875
2257,51.27,2021-12-17 16:57:06.937500
2258,50.28,2021-12-17 16:57:06.953125
2259,49.26,2021-12-17 16:57:06.968750
2260,47.59,2021-12-17 16:57:06.984375
2261,44.7,2021-12-17 16:57:07.000000
2262,40.45,2021-12-17 16:57:07.015625
2263,35.26,2021-12-17 16:57:07.031250
2264,30.1,2021-12-17 16:57:07.046875
2265,26.33,2021-12-17 16:57:07.062500
2266,25.43,2021-12-17 16:57:07.078125
2267,28.61,2021-12-17 16:57:07.093750
2268,36.13,2021-12-17 16:57:07.109375
2269,46.64,2021-12-17 16:57:07.125000
2270,56.93,2021-12-17 16:57:07.140625
2271,62.36,2021-12-17 16:57:07.156250
2272,58.32,2021-12-17 16:57:07.171875
2273,42.1,2021-12-17 16:57:07.187500
2274,14.35,2021-12-17 16:57:07.203125
2275,-20.76,2021-12-17 16:57:07.218750
2276,-56.85,2021-12-17 16:57:07.234375
2277,-87.6,2021-12-17 16:57:07.250000
2278,-108.83,2021-12-17 16:57:07.265625
2279,-119.37,2021-12-17 16:57:07.281250
2280,-120.54,2021-12-17 16:57:07.296875
2281,-114.63,2021-12-17 16:57:07.312500
2282,-103.58,2021-12-17 16:57:07.328125
2283,-88.52,2021-12-17 16:57:07.343750
2284,-70.15,2021-12-17 16:57:07.359375
2285,-49.51,2021-12-17 16:57:07.375000
2286,-28.46,2021-12-17 16:57:07.390625
2287,-9.29,2021-12-17 16:57:07.406250
2288,6.03,2021-12-17 16:57:07.421875
2289,16.66,2021-12-17 16:57:07.437500
2290,23.08,2021-12-17 16:57:07.453125
2291,26.79,2021-12-17 16:57:07.468750
2292,29.52,2021-12-17 16:57:07.484375
2293,32.54,2021-12-17 16:57:07.500000
2294,36.28,2021-12-17 16:57:07.515625
2295,40.44,2021-12-17 16:57:07.531250
2296,44.43,2021-12-17 16:57:07.546875
2297,47.85,2021-12-17 16:57:07.562500
2298,50.74,2021-12-17 16:57:07.578125
2299,53.58,2021-12-17 16:57:07.593750
2300,56.94,2021-12-17 16:57:07.609375
2301,61.09,2021-12-17 16:57:07.625000
2302,65.69,2021-12-17 16:57:07.640625
2303,69.81,2021-12-17 16:57:07.656250
2304,72.23,2021-12-17 16:57:07.671875
2305,71.92,2021-12-17 16:57:07.687500
2306,68.42,2021-12-17 16:57:07.703125
2307,62.01,2021-12-17 16:57:07.718750
2308,53.59,2021-12-17 16:57:07.734375
2309,44.34,2021-12-17 16:57:07.750000
2310,35.32,2021-12-17 16:57:07.765625
2311,27.26,2021-12-17 16:57:07.781250
2312,20.42,2021-12-17 16:57:07.796875
2313,14.74,2021-12-17 16:57:07.812500
2314,9.99,2021-12-17 16:57:07.828125
2315,5.91,2021-12-17 16:57:07.843750
2316,2.36,2021-12-17 16:57:07.859375
2317,-0.69,2021-12-17 16:57:07.875000
2318,-3.16,2021-12-17 16:57:07.890625
2319,-4.97,2021-12-17 16:57:07.906250
2320,-6.11,2021-12-17 16:57:07.921875
2321,-6.63,2021-12-17 16:57:07.937500
2322,-6.7,2021-12-17 16:57:07.953125
2323,-6.46,2021-12-17 16:57:07.968750
2324,-6.02,2021-12-17 16:57:07.984375
2325,-5.46,2021-12-17 16:57:08.000000
2326,-4.83,2021-12-17 16:57:08.015625
2327,-4.19,2021-12-17 16:57:08.031250
2328,-3.69,2021-12-17 16:57:08.046875
2329,-3.46,2021-12-17 16:57:08.062500
2330,-3.6,2021-12-17 16:57:08.078125
2331,-4.15,2021-12-17 16:57:08.093750
2332,-5.06,2021-12-17 16:57:08.109375
2333,-6.2,2021-12-17 16:57:08.125000
2334,-7.43,2021-12-17 16:57:08.140625
2335,-8.54,2021-12-17 16:57:08.156250
2336,-9.4,2021-12-17 16:57:08.171875
2337,-9.88,2021-12-17 16:57:08.187500
2338,-9.98,2021-12-17 16:57:08.203125
2339,-9.86,2021-12-17 16:57:08.218750
2340,-9.74,2021-12-17 16:57:08.234375
2341,-9.81,2021-12-17 16:57:08.250000
2342,-10.15,2021-12-17 16:57:08.265625
2343,-10.57,2021-12-17 16:57:08.281250
2344,-10.72,2021-12-17 16:57:08.296875
2345,-10.28,2021-12-17 16:57:08.312500
2346,-9.06,2021-12-17 16:57:08.328125
2347,-7.16,2021-12-17 16:57:08.343750
2348,-4.89,2021-12-17 16:57:08.359375
2349,-2.63,2021-12-17 16:57:08.375000
2350,-0.67,2021-12-17 16:57:08.390625
2351,0.89,2021-12-17 16:57:08.406250
2352,2.09,2021-12-17 16:57:08.421875
2353,3.05,2021-12-17 16:57:08.437500
2354,3.86,2021-12-17 16:57:08.453125
2355,4.55,2021-12-17 16:57:08.468750
2356,5.14,2021-12-17 16:57:08.484375
2357,5.62,2021-12-17 16:57:08.500000
2358,5.97,2021-12-17 16:57:08.515625
2359,6.26,2021-12-17 16:57:08.531250
2360,6.5,2021-12-17 16:57:08.546875
2361,6.72,2021-12-17 16:57:08.562500
2362,6.91,2021-12-17 16:57:08.578125
2363,7.0,2021-12-17 16:57:08.593750
2364,6.9,2021-12-17 16:57:08.609375
2365,6.54,2021-12-17 16:57:08.625000
2366,5.92,2021-12-17 16:57:08.640625
2367,5.1,2021-12-17 16:57:08.656250
2368,4.21,2021-12-17 16:57:08.671875
2369,3.38,2021-12-17 16:57:08.687500
2370,2.7,2021-12-17 16:57:08.703125
2371,2.15,2021-12-17 16:57:08.718750
2372,1.63,2021-12-17 16:57:08.734375
2373,1.05,2021-12-17 16:57:08.750000
2374,0.32,2021-12-17 16:57:08.765625
2375,-0.59,2021-12-17 16:57:08.781250
2376,-1.65,2021-12-17 16:57:08.796875
2377,-2.81,2021-12-17 16:57:08.812500
2378,-4.04,2021-12-17 16:57:08.828125
2379,-5.26,2021-12-17 16:57:08.843750
2380,-6.4,2021-12-17 16:57:08.859375
2381,-7.32,2021-12-17 16:57:08.875000
2382,-7.96,2021-12-17 16:57:08.890625
2383,-8.27,2021-12-17 16:57:08.906250
2384,-8.29,2021-12-17 16:57:08.921875
2385,-8.11,2021-12-17 16:57:08.937500
2386,-7.86,2021-12-17 16:57:08.953125
2387,-7.63,2021-12-17 16:57:08.968750
2388,-7.45,2021-12-17 16:57:08.984375
2389,-7.33,2021-12-17 16:57:09.000000
2390,-7.21,2021-12-17 16:57:09.015625
2391,-7.01,2021-12-17 16:57:09.031250
2392,-6.59,2021-12-17 16:57:09.046875
2393,-5.84,2021-12-17 16:57:09.062500
2394,-4.69,2021-12-17 16:57:09.078125
2395,-3.19,2021-12-17 16:57:09.093750
2396,-1.47,2021-12-17 16:57:09.109375
2397,0.22,2021-12-17 16:57:09.125000
2398,1.68,2021-12-17 16:57:09.140625
2399,2.8,2021-12-17 16:57:09.156250
2400,3.62,2021-12-17 16:57:09.171875
2401,4.28,2021-12-17 16:57:09.187500
2402,4.89,2021-12-17 16:57:09.203125
2403,5.45,2021-12-17 16:57:09.218750
2404,5.85,2021-12-17 16:57:09.234375
2405,5.92,2021-12-17 16:57:09.250000
2406,5.57,2021-12-17 16:57:09.265625
2407,4.9,2021-12-17 16:57:09.281250
2408,4.13,2021-12-17 16:57:09.296875
2409,3.49,2021-12-17 16:57:09.312500
2410,3.17,2021-12-17 16:57:09.328125
2411,3.17,2021-12-17 16:57:09.343750
2412,3.34,2021-12-17 16:57:09.359375
2413,3.52,2021-12-17 16:57:09.375000
2414,3.57,2021-12-17 16:57:09.390625
2415,3.45,2021-12-17 16:57:09.406250
2416,3.23,2021-12-17 16:57:09.421875
2417,2.96,2021-12-17 16:57:09.437500
2418,2.65,2021-12-17 16:57:09.453125
2419,2.27,2021-12-17 16:57:09.468750
2420,1.79,2021-12-17 16:57:09.484375
2421,1.26,2021-12-17 16:57:09.500000
2422,0.74,2021-12-17 16:57:09.515625
2423,0.34,2021-12-17 16:57:09.531250
2424,0.12,2021-12-17 16:57:09.546875
2425,0.05,2021-12-17 16:57:09.562500
2426,0.05,2021-12-17 16:57:09.578125
2427,0.0,2021-12-17 16:57:09.593750
2428,-0.16,2021-12-17 16:57:09.609375
2429,-0.48,2021-12-17 16:57:09.625000
2430,-0.93,2021-12-17 16:57:09.640625
2431,-1.52,2021-12-17 16:57:09.656250
2432,-2.22,2021-12-17 16:57:09.671875
2433,-3.04,2021-12-17 16:57:09.687500
2434,-3.93,2021-12-17 16:57:09.703125
2435,-4.79,2021-12-17 16:57:09.718750
2436,-5.51,2021-12-17 16:57:09.734375
2437,-5.97,2021-12-17 16:57:09.750000
2438,-6.17,2021-12-17 16:57:09.765625
2439,-6.17,2021-12-17 16:57:09.781250
2440,-6.16,2021-12-17 16:57:09.796875
2441,-6.32,2021-12-17 16:57:09.812500
2442,-6.77,2021-12-17 16:57:09.828125
2443,-7.46,2021-12-17 16:57:09.843750
2444,-8.19,2021-12-17 16:57:09.859375
2445,-8.7,2021-12-17 16:57:09.875000
2446,-8.68,2021-12-17 16:57:09.890625
2447,-7.97,2021-12-17 16:57:09.906250
2448,-6.58,2021-12-17 16:57:09.921875
2449,-4.7,2021-12-17 16:57:09.937500
2450,-2.64,2021-12-17 16:57:09.953125
2451,-0.73,2021-12-17 16:57:09.968750
2452,0.82,2021-12-17 16:57:09.984375
2453,1.96,2021-12-17 16:57:10.000000
2454,2.79,2021-12-17 16:57:10.015625
2455,3.44,2021-12-17 16:57:10.031250
2456,4.01,2021-12-17 16:57:10.046875
2457,4.5,2021-12-17 16:57:10.062500
2458,4.86,2021-12-17 16:57:10.078125
2459,5.0,2021-12-17 16:57:10.093750
2460,4.91,2021-12-17 16:57:10.109375
2461,4.66,2021-12-17 16:57:10.125000
2462,4.38,2021-12-17 16:57:10.140625
2463,4.18,2021-12-17 16:57:10.156250
2464,4.14,2021-12-17 16:57:10.171875
2465,4.23,2021-12-17 16:57:10.187500
2466,4.33,2021-12-17 16:57:10.203125
2467,4.33,2021-12-17 16:57:10.218750
2468,4.1,2021-12-17 16:57:10.234375
2469,3.6,2021-12-17 16:57:10.250000
2470,2.89,2021-12-17 16:57:10.265625
2471,2.12,2021-12-17 16:57:10.281250
2472,1.43,2021-12-17 16:57:10.296875
2473,0.98,2021-12-17 16:57:10.312500
2474,0.82,2021-12-17 16:57:10.328125
2475,0.94,2021-12-17 16:57:10.343750
2476,1.29,2021-12-17 16:57:10.359375
2477,1.74,2021-12-17 16:57:10.375000
2478,2.2,2021-12-17 16:57:10.390625
2479,2.58,2021-12-17 16:57:10.406250
2480,2.8,2021-12-17 16:57:10.421875
2481,2.82,2021-12-17 16:57:10.437500
2482,2.61,2021-12-17 16:57:10.453125
2483,2.2,2021-12-17 16:57:10.468750
2484,1.64,2021-12-17 16:57:10.484375
2485,1.02,2021-12-17 16:57:10.500000
2486,0.38,2021-12-17 16:57:10.515625
2487,-0.21,2021-12-17 16:57:10.531250
2488,-0.76,2021-12-17 16:57:10.546875
2489,-1.31,2021-12-17 16:57:10.562500
2490,-1.92,2021-12-17 16:57:10.578125
2491,-2.62,2021-12-17 16:57:10.593750
2492,-3.46,2021-12-17 16:57:10.609375
2493,-4.42,2021-12-17 16:57:10.625000
2494,-5.4,2021-12-17 16:57:10.640625
2495,-6.35,2021-12-17 16:57:10.656250
2496,-7.21,2021-12-17 16:57:10.671875
2497,-7.96,2021-12-17 16:57:10.687500
2498,-8.53,2021-12-17 16:57:10.703125
2499,-8.84,2021-12-17 16:57:10.718750
2500,-8.71,2021-12-17 16:57:10.734375
2501,-7.99,2021-12-17 16:57:10.750000
2502,-6.62,2021-12-17 16:57:10.765625
2503,-4.73,2021-12-17 16:57:10.781250
2504,-2.56,2021-12-17 16:57:10.796875
2505,-0.48,2021-12-17 16:57:10.812500
2506,1.24,2021-12-17 16:57:10.828125
2507,2.45,2021-12-17 16:57:10.843750
2508,3.13,2021-12-17 16:57:10.859375
2509,3.4,2021-12-17 16:57:10.875000
2510,3.38,2021-12-17 16:57:10.890625
2511,3.19,2021-12-17 16:57:10.906250
2512,2.94,2021-12-17 16:57:10.921875
2513,2.71,2021-12-17 16:57:10.937500
2514,2.57,2021-12-17 16:57:10.953125
2515,2.54,2021-12-17 16:57:10.968750
2516,2.6,2021-12-17 16:57:10.984375
2517,2.66,2021-12-17 16:57:11.000000
2518,2.62,2021-12-17 16:57:11.015625
2519,2.39,2021-12-17 16:57:11.031250
2520,1.88,2021-12-17 16:57:11.046875
2521,1.13,2021-12-17 16:57:11.062500
2522,0.27,2021-12-17 16:57:11.078125
2523,-0.5,2021-12-17 16:57:11.093750
2524,-0.94,2021-12-17 16:57:11.109375
2525,-0.85,2021-12-17 16:57:11.125000
2526,-0.2,2021-12-17 16:57:11.140625
2527,0.88,2021-12-17 16:57:11.156250
2528,2.11,2021-12-17 16:57:11.171875
2529,3.22,2021-12-17 16:57:11.187500
2530,4.0,2021-12-17 16:57:11.203125
2531,4.4,2021-12-17 16:57:11.218750
2532,4.47,2021-12-17 16:57:11.234375
2533,4.3,2021-12-17 16:57:11.250000
2534,3.92,2021-12-17 16:57:11.265625
2535,3.26,2021-12-17 16:57:11.281250
2536,2.26,2021-12-17 16:57:11.296875
2537,0.95,2021-12-17 16:57:11.312500
2538,-0.49,2021-12-17 16:57:11.328125
2539,-1.8,2021-12-17 16:57:11.343750
2540,-2.7,2021-12-17 16:57:11.359375
2541,-3.07,2021-12-17 16:57:11.375000
2542,-2.99,2021-12-17 16:57:11.390625
2543,-2.68,2021-12-17 16:57:11.406250
2544,-2.44,2021-12-17 16:57:11.421875
2545,-2.51,2021-12-17 16:57:11.437500
2546,-2.98,2021-12-17 16:57:11.453125
2547,-3.84,2021-12-17 16:57:11.468750
2548,-4.98,2021-12-17 16:57:11.484375
2549,-6.23,2021-12-17 16:57:11.500000
2550,-7.4,2021-12-17 16:57:11.515625
2551,-8.28,2021-12-17 16:57:11.531250
2552,-8.64,2021-12-17 16:57:11.546875
2553,-8.3,2021-12-17 16:57:11.562500
2554,-7.24,2021-12-17 16:57:11.578125
2555,-5.58,2021-12-17 16:57:11.593750
2556,-3.66,2021-12-17 16:57:11.609375
2557,-1.84,2021-12-17 16:57:11.625000
2558,-0.39,2021-12-17 16:57:11.640625
2559,0.58,2021-12-17 16:57:11.656250
2560,1.16,2021-12-17 16:57:11.671875
2561,1.54,2021-12-17 16:57:11.687500
2562,1.9,2021-12-17 16:57:11.703125
2563,2.32,2021-12-17 16:57:11.718750
2564,2.76,2021-12-17 16:57:11.734375
2565,3.16,2021-12-17 16:57:11.750000
2566,3.51,2021-12-17 16:57:11.765625
2567,3.84,2021-12-17 16:57:11.781250
2568,4.2,2021-12-17 16:57:11.796875
2569,4.59,2021-12-17 16:57:11.812500
2570,4.94,2021-12-17 16:57:11.828125
2571,5.1,2021-12-17 16:57:11.843750
2572,4.99,2021-12-17 16:57:11.859375
2573,4.57,2021-12-17 16:57:11.875000
2574,3.96,2021-12-17 16:57:11.890625
2575,3.31,2021-12-17 16:57:11.906250
2576,2.75,2021-12-17 16:57:11.921875
2577,2.32,2021-12-17 16:57:11.937500
2578,1.94,2021-12-17 16:57:11.953125
2579,1.51,2021-12-17 16:57:11.968750
2580,0.93,2021-12-17 16:57:11.984375
2581,0.22,2021-12-17 16:57:12.000000
2582,-0.55,2021-12-17 16:57:12.015625
2583,-1.23,2021-12-17 16:57:12.031250
2584,-1.74,2021-12-17 16:57:12.046875
2585,-2.06,2021-12-17 16:57:12.062500
2586,-2.26,2021-12-17 16:57:12.078125
2587,-2.43,2021-12-17 16:57:12.093750
2588,-2.66,2021-12-17 16:57:12.109375
2589,-2.94,2021-12-17 16:57:12.125000
2590,-3.24,2021-12-17 16:57:12.140625
2591,-3.49,2021-12-17 16:57:12.156250
2592,-3.67,2021-12-17 16:57:12.171875
2593,-3.75,2021-12-17 16:57:12.187500
2594,-3.77,2021-12-17 16:57:12.203125
2595,-3.77,2021-12-17 16:57:12.218750
2596,-3.75,2021-12-17 16:57:12.234375
2597,-3.72,2021-12-17 16:57:12.250000
2598,-3.74,2021-12-17 16:57:12.265625
2599,-3.93,2021-12-17 16:57:12.281250
2600,-4.41,2021-12-17 16:57:12.296875
2601,-5.28,2021-12-17 16:57:12.312500
2602,-6.43,2021-12-17 16:57:12.328125
2603,-7.61,2021-12-17 16:57:12.343750
2604,-8.42,2021-12-17 16:57:12.359375
2605,-8.51,2021-12-17 16:57:12.375000
2606,-7.73,2021-12-17 16:57:12.390625
2607,-6.19,2021-12-17 16:57:12.406250
2608,-4.21,2021-12-17 16:57:12.421875
2609,-2.24,2021-12-17 16:57:12.437500
2610,-0.61,2021-12-17 16:57:12.453125
2611,0.53,2021-12-17 16:57:12.468750
2612,1.23,2021-12-17 16:57:12.484375
2613,1.64,2021-12-17 16:57:12.500000
2614,1.92,2021-12-17 16:57:12.515625
2615,2.17,2021-12-17 16:57:12.531250
2616,2.44,2021-12-17 16:57:12.546875
2617,2.72,2021-12-17 16:57:12.562500
2618,3.02,2021-12-17 16:57:12.578125
2619,3.35,2021-12-17 16:57:12.593750
2620,3.69,2021-12-17 16:57:12.609375
2621,3.98,2021-12-17 16:57:12.625000
2622,4.13,2021-12-17 16:57:12.640625
2623,4.07,2021-12-17 16:57:12.656250
2624,3.77,2021-12-17 16:57:12.671875
2625,3.28,2021-12-17 16:57:12.687500
2626,2.74,2021-12-17 16:57:12.703125
2627,2.27,2021-12-17 16:57:12.718750
2628,1.97,2021-12-17 16:57:12.734375
2629,1.86,2021-12-17 16:57:12.750000
2630,1.93,2021-12-17 16:57:12.765625
2631,2.09,2021-12-17 16:57:12.781250
2632,2.22,2021-12-17 16:57:12.796875
2633,2.24,2021-12-17 16:57:12.812500
2634,2.06,2021-12-17 16:57:12.828125
2635,1.64,2021-12-17 16:57:12.843750
2636,1.03,2021-12-17 16:57:12.859375
2637,0.3,2021-12-17 16:57:12.875000
2638,-0.41,2021-12-17 16:57:12.890625
2639,-1.0,2021-12-17 16:57:12.906250
2640,-1.4,2021-12-17 16:57:12.921875
2641,-1.66,2021-12-17 16:57:12.937500
2642,-1.88,2021-12-17 16:57:12.953125
2643,-2.18,2021-12-17 16:57:12.968750
2644,-2.65,2021-12-17 16:57:12.984375
2645,-3.27,2021-12-17 16:57:13.000000
2646,-3.95,2021-12-17 16:57:13.015625
2647,-4.58,2021-12-17 16:57:13.031250
2648,-5.08,2021-12-17 16:57:13.046875
2649,-5.39,2021-12-17 16:57:13.062500
2650,-5.5,2021-12-17 16:57:13.078125
2651,-5.43,2021-12-17 16:57:13.093750
2652,-5.24,2021-12-17 16:57:13.109375
2653,-5.04,2021-12-17 16:57:13.125000
2654,-4.99,2021-12-17 16:57:13.140625
2655,-5.27,2021-12-17 16:57:13.156250
2656,-6.01,2021-12-17 16:57:13.171875
2657,-7.16,2021-12-17 16:57:13.187500
2658,-8.47,2021-12-17 16:57:13.203125
2659,-9.5,2021-12-17 16:57:13.218750
2660,-9.82,2021-12-17 16:57:13.234375
2661,-9.13,2021-12-17 16:57:13.250000
2662,-7.44,2021-12-17 16:57:13.265625
2663,-5.01,2021-12-17 16:57:13.281250
2664,-2.28,2021-12-17 16:57:13.296875
2665,0.33,2021-12-17 16:57:13.312500
2666,2.52,2021-12-17 16:57:13.328125
2667,4.18,2021-12-17 16:57:13.343750
2668,5.34,2021-12-17 16:57:13.359375
2669,6.09,2021-12-17 16:57:13.375000
2670,6.53,2021-12-17 16:57:13.390625
2671,6.75,2021-12-17 16:57:13.406250
2672,6.8,2021-12-17 16:57:13.421875
2673,6.77,2021-12-17 16:57:13.437500
2674,6.72,2021-12-17 16:57:13.453125
2675,6.67,2021-12-17 16:57:13.468750
2676,6.62,2021-12-17 16:57:13.484375
2677,6.48,2021-12-17 16:57:13.500000
2678,6.18,2021-12-17 16:57:13.515625
2679,5.71,2021-12-17 16:57:13.531250
2680,5.09,2021-12-17 16:57:13.546875
2681,4.44,2021-12-17 16:57:13.562500
2682,3.94,2021-12-17 16:57:13.578125
2683,3.7,2021-12-17 16:57:13.593750
2684,3.74,2021-12-17 16:57:13.609375
2685,3.94,2021-12-17 16:57:13.625000
2686,4.12,2021-12-17 16:57:13.640625
2687,4.08,2021-12-17 16:57:13.656250
2688,3.72,2021-12-17 16:57:13.671875
2689,3.05,2021-12-17 16:57:13.687500
2690,2.18,2021-12-17 16:57:13.703125
2691,1.25,2021-12-17 16:57:13.718750
2692,0.38,2021-12-17 16:57:13.734375
2693,-0.41,2021-12-17 16:57:13.750000
2694,-1.16,2021-12-17 16:57:13.765625
2695,-1.93,2021-12-17 16:57:13.781250
2696,-2.74,2021-12-17 16:57:13.796875
2697,-3.57,2021-12-17 16:57:13.812500
2698,-4.37,2021-12-17 16:57:13.828125
2699,-5.09,2021-12-17 16:57:13.843750
2700,-5.69,2021-12-17 16:57:13.859375
2701,-6.18,2021-12-17 16:57:13.875000
2702,-6.58,2021-12-17 16:57:13.890625
2703,-6.91,2021-12-17 16:57:13.906250
2704,-7.2,2021-12-17 16:57:13.921875
2705,-7.48,2021-12-17 16:57:13.937500
2706,-7.8,2021-12-17 16:57:13.953125
2707,-8.2,2021-12-17 16:57:13.968750
2708,-8.72,2021-12-17 16:57:13.984375
2709,-9.35,2021-12-17 16:57:14.000000
2710,-10.04,2021-12-17 16:57:14.015625
2711,-10.64,2021-12-17 16:57:14.031250
2712,-10.95,2021-12-17 16:57:14.046875
2713,-10.77,2021-12-17 16:57:14.062500
2714,-9.93,2021-12-17 16:57:14.078125
2715,-8.42,2021-12-17 16:57:14.093750
2716,-6.34,2021-12-17 16:57:14.109375
2717,-3.96,2021-12-17 16:57:14.125000
2718,-1.61,2021-12-17 16:57:14.140625
2719,0.39,2021-12-17 16:57:14.156250
2720,1.85,2021-12-17 16:57:14.171875
2721,2.74,2021-12-17 16:57:14.187500
2722,3.18,2021-12-17 16:57:14.203125
2723,3.34,2021-12-17 16:57:14.218750
2724,3.4,2021-12-17 16:57:14.234375
2725,3.43,2021-12-17 16:57:14.250000
2726,3.46,2021-12-17 16:57:14.265625
2727,3.46,2021-12-17 16:57:14.281250
2728,3.43,2021-12-17 16:57:14.296875
2729,3.4,2021-12-17 16:57:14.312500
2730,3.39,2021-12-17 16:57:14.328125
2731,3.43,2021-12-17 16:57:14.343750
2732,3.49,2021-12-17 16:57:14.359375
2733,3.54,2021-12-17 16:57:14.375000
2734,3.58,2021-12-17 16:57:14.390625
2735,3.63,2021-12-17 16:57:14.406250
2736,3.78,2021-12-17 16:57:14.421875
2737,4.07,2021-12-17 16:57:14.437500
2738,4.44,2021-12-17 16:57:14.453125
2739,4.78,2021-12-17 16:57:14.468750
2740,4.92,2021-12-17 16:57:14.484375
2741,4.77,2021-12-17 16:57:14.500000
2742,4.34,2021-12-17 16:57:14.515625
2743,3.7,2021-12-17 16:57:14.531250
2744,2.98,2021-12-17 16:57:14.546875
2745,2.29,2021-12-17 16:57:14.562500
2746,1.67,2021-12-17 16:57:14.578125
2747,1.08,2021-12-17 16:57:14.593750
2748,0.51,2021-12-17 16:57:14.609375
2749,-0.07,2021-12-17 16:57:14.625000
2750,-0.61,2021-12-17 16:57:14.640625
2751,-1.08,2021-12-17 16:57:14.656250
2752,-1.46,2021-12-17 16:57:14.671875
2753,-1.81,2021-12-17 16:57:14.687500
2754,-2.23,2021-12-17 16:57:14.703125
2755,-2.79,2021-12-17 16:57:14.718750
2756,-3.47,2021-12-17 16:57:14.734375
2757,-4.2,2021-12-17 16:57:14.750000
2758,-4.86,2021-12-17 16:57:14.765625
2759,-5.35,2021-12-17 16:57:14.781250
2760,-5.73,2021-12-17 16:57:14.796875
2761,-6.11,2021-12-17 16:57:14.812500
2762,-6.62,2021-12-17 16:57:14.828125
2763,-7.34,2021-12-17 16:57:14.843750
2764,-8.19,2021-12-17 16:57:14.859375
2765,-8.99,2021-12-17 16:57:14.875000
2766,-9.48,2021-12-17 16:57:14.890625
2767,-9.48,2021-12-17 16:57:14.906250
2768,-8.91,2021-12-17 16:57:14.921875
2769,-7.86,2021-12-17 16:57:14.937500
2770,-6.47,2021-12-17 16:57:14.953125
2771,-4.99,2021-12-17 16:57:14.968750
2772,-3.59,2021-12-17 16:57:14.984375
2773,-2.4,2021-12-17 16:57:15.000000
2774,-1.47,2021-12-17 16:57:15.015625
2775,-0.74,2021-12-17 16:57:15.031250
2776,-0.14,2021-12-17 16:57:15.046875
2777,0.41,2021-12-17 16:57:15.062500
2778,0.93,2021-12-17 16:57:15.078125
2779,1.45,2021-12-17 16:57:15.093750
2780,1.94,2021-12-17 16:57:15.109375
2781,2.38,2021-12-17 16:57:15.125000
2782,2.77,2021-12-17 16:57:15.140625
2783,3.08,2021-12-17 16:57:15.156250
2784,3.27,2021-12-17 16:57:15.171875
2785,3.28,2021-12-17 16:57:15.187500
2786,3.05,2021-12-17 16:57:15.203125
2787,2.56,2021-12-17 16:57:15.218750
2788,1.92,2021-12-17 16:57:15.234375
2789,1.29,2021-12-17 16:57:15.250000
2790,0.86,2021-12-17 16:57:15.265625
2791,0.78,2021-12-17 16:57:15.281250
2792,1.08,2021-12-17 16:57:15.296875
2793,1.65,2021-12-17 16:57:15.312500
2794,2.25,2021-12-17 16:57:15.328125
2795,2.65,2021-12-17 16:57:15.343750
2796,2.71,2021-12-17 16:57:15.359375
2797,2.4,2021-12-17 16:57:15.375000
2798,1.86,2021-12-17 16:57:15.390625
2799,1.27,2021-12-17 16:57:15.406250
2800,0.78,2021-12-17 16:57:15.421875
2801,0.41,2021-12-17 16:57:15.437500
2802,0.12,2021-12-17 16:57:15.453125
2803,-0.19,2021-12-17 16:57:15.468750
2804,-0.57,2021-12-17 16:57:15.484375
2805,-1.04,2021-12-17 16:57:15.500000
2806,-1.54,2021-12-17 16:57:15.515625
2807,-2.03,2021-12-17 16:57:15.531250
2808,-2.47,2021-12-17 16:57:15.546875
2809,-2.86,2021-12-17 16:57:15.562500
2810,-3.2,2021-12-17 16:57:15.578125
2811,-3.46,2021-12-17 16:57:15.593750
2812,-3.65,2021-12-17 16:57:15.609375
2813,-3.83,2021-12-17 16:57:15.625000
2814,-4.11,2021-12-17 16:57:15.640625
2815,-4.67,2021-12-17 16:57:15.656250
2816,-5.57,2021-12-17 16:57:15.671875
2817,-6.76,2021-12-17 16:57:15.687500
2818,-8.03,2021-12-17 16:57:15.703125
2819,-9.08,2021-12-17 16:57:15.718750
2820,-9.63,2021-12-17 16:57:15.734375
2821,-9.52,2021-12-17 16:57:15.750000
2822,-8.78,2021-12-17 16:57:15.765625
2823,-7.55,2021-12-17 16:57:15.781250
2824,-6.03,2021-12-17 16:57:15.796875
2825,-4.45,2021-12-17 16:57:15.812500
2826,-2.99,2021-12-17 16:57:15.828125
2827,-1.78,2021-12-17 16:57:15.843750
2828,-0.89,2021-12-17 16:57:15.859375
2829,-0.33,2021-12-17 16:57:15.875000
2830,-0.05,2021-12-17 16:57:15.890625
2831,0.08,2021-12-17 16:57:15.906250
2832,0.22,2021-12-17 16:57:15.921875
2833,0.51,2021-12-17 16:57:15.937500
2834,1.0,2021-12-17 16:57:15.953125
2835,1.65,2021-12-17 16:57:15.968750
2836,2.32,2021-12-17 16:57:15.984375
2837,2.89,2021-12-17 16:57:16.000000
2838,3.27,2021-12-17 16:57:16.015625
2839,3.45,2021-12-17 16:57:16.031250
2840,3.48,2021-12-17 16:57:16.046875
2841,3.43,2021-12-17 16:57:16.062500
2842,3.34,2021-12-17 16:57:16.078125
2843,3.24,2021-12-17 16:57:16.093750
2844,3.1,2021-12-17 16:57:16.109375
2845,2.87,2021-12-17 16:57:16.125000
2846,2.56,2021-12-17 16:57:16.140625
2847,2.19,2021-12-17 16:57:16.156250
2848,1.8,2021-12-17 16:57:16.171875
2849,1.43,2021-12-17 16:57:16.187500
2850,1.09,2021-12-17 16:57:16.203125
2851,0.76,2021-12-17 16:57:16.218750
2852,0.43,2021-12-17 16:57:16.234375
2853,0.14,2021-12-17 16:57:16.250000
2854,-0.07,2021-12-17 16:57:16.265625
2855,-0.19,2021-12-17 16:57:16.281250
2856,-0.24,2021-12-17 16:57:16.296875
2857,-0.28,2021-12-17 16:57:16.312500
2858,-0.4,2021-12-17 16:57:16.328125
2859,-0.69,2021-12-17 16:57:16.343750
2860,-1.14,2021-12-17 16:57:16.359375
2861,-1.7,2021-12-17 16:57:16.375000
2862,-2.3,2021-12-17 16:57:16.390625
2863,-2.85,2021-12-17 16:57:16.406250
2864,-3.36,2021-12-17 16:57:16.421875
2865,-3.87,2021-12-17 16:57:16.437500
2866,-4.48,2021-12-17 16:57:16.453125
2867,-5.22,2021-12-17 16:57:16.468750
2868,-6.12,2021-12-17 16:57:16.484375
2869,-7.11,2021-12-17 16:57:16.500000
2870,-8.08,2021-12-17 16:57:16.515625
2871,-8.87,2021-12-17 16:57:16.531250
2872,-9.33,2021-12-17 16:57:16.546875
2873,-9.34,2021-12-17 16:57:16.562500
2874,-8.86,2021-12-17 16:57:16.578125
2875,-7.91,2021-12-17 16:57:16.593750
2876,-6.63,2021-12-17 16:57:16.609375
2877,-5.2,2021-12-17 16:57:16.625000
2878,-3.82,2021-12-17 16:57:16.640625
2879,-2.66,2021-12-17 16:57:16.656250
2880,-1.79,2021-12-17 16:57:16.671875
2881,-1.21,2021-12-17 16:57:16.687500
2882,-0.81,2021-12-17 16:57:16.703125
2883,-0.47,2021-12-17 16:57:16.718750
2884,-0.08,2021-12-17 16:57:16.734375
2885,0.45,2021-12-17 16:57:16.750000
2886,1.15,2021-12-17 16:57:16.765625
2887,1.95,2021-12-17 16:57:16.781250
2888,2.74,2021-12-17 16:57:16.796875
2889,3.36,2021-12-17 16:57:16.812500
2890,3.71,2021-12-17 16:57:16.828125
2891,3.7,2021-12-17 16:57:16.843750
2892,3.38,2021-12-17 16:57:16.859375
2893,2.89,2021-12-17 16:57:16.875000
2894,2.37,2021-12-17 16:57:16.890625
2895,1.96,2021-12-17 16:57:16.906250
2896,1.7,2021-12-17 16:57:16.921875
2897,1.58,2021-12-17 16:57:16.937500
2898,1.53,2021-12-17 16:57:16.953125
2899,1.55,2021-12-17 16:57:16.968750
2900,1.58,2021-12-17 16:57:16.984375
2901,1.64,2021-12-17 16:57:17.000000
2902,1.67,2021-12-17 16:57:17.015625
2903,1.6,2021-12-17 16:57:17.031250
2904,1.35,2021-12-17 16:57:17.046875
2905,0.89,2021-12-17 16:57:17.062500
2906,0.3,2021-12-17 16:57:17.078125
2907,-0.33,2021-12-17 16:57:17.093750
2908,-0.82,2021-12-17 16:57:17.109375
2909,-1.13,2021-12-17 16:57:17.125000
2910,-1.31,2021-12-17 16:57:17.140625
2911,-1.46,2021-12-17 16:57:17.156250
2912,-1.77,2021-12-17 16:57:17.171875
2913,-2.3,2021-12-17 16:57:17.187500
2914,-3.12,2021-12-17 16:57:17.203125
2915,-4.21,2021-12-17 16:57:17.218750
2916,-5.49,2021-12-17 16:57:17.234375
2917,-6.81,2021-12-17 16:57:17.250000
2918,-8.01,2021-12-17 16:57:17.265625
2919,-8.91,2021-12-17 16:57:17.281250
2920,-9.35,2021-12-17 16:57:17.296875
2921,-9.26,2021-12-17 16:57:17.312500
2922,-8.67,2021-12-17 16:57:17.328125
2923,-7.72,2021-12-17 16:57:17.343750
2924,-6.61,2021-12-17 16:57:17.359375
2925,-5.51,2021-12-17 16:57:17.375000
2926,-4.49,2021-12-17 16:57:17.390625
2927,-3.53,2021-12-17 16:57:17.406250
2928,-2.53,2021-12-17 16:57:17.421875
2929,-1.39,2021-12-17 16:57:17.437500
2930,-0.08,2021-12-17 16:57:17.453125
2931,1.34,2021-12-17 16:57:17.468750
2932,2.8,2021-12-17 16:57:17.484375
2933,4.23,2021-12-17 16:57:17.500000
2934,5.55,2021-12-17 16:57:17.515625
2935,6.71,2021-12-17 16:57:17.531250
2936,7.63,2021-12-17 16:57:17.546875
2937,8.24,2021-12-17 16:57:17.562500
2938,8.48,2021-12-17 16:57:17.578125
2939,8.32,2021-12-17 16:57:17.593750
2940,7.87,2021-12-17 16:57:17.609375
2941,7.29,2021-12-17 16:57:17.625000
2942,6.74,2021-12-17 16:57:17.640625
2943,6.31,2021-12-17 16:57:17.656250
2944,6.0,2021-12-17 16:57:17.671875
2945,5.7,2021-12-17 16:57:17.687500
2946,5.28,2021-12-17 16:57:17.703125
2947,4.69,2021-12-17 16:57:17.718750
2948,3.96,2021-12-17 16:57:17.734375
2949,3.19,2021-12-17 16:57:17.750000
2950,2.48,2021-12-17 16:57:17.765625
2951,1.89,2021-12-17 16:57:17.781250
2952,1.39,2021-12-17 16:57:17.796875
2953,0.91,2021-12-17 16:57:17.812500
2954,0.39,2021-12-17 16:57:17.828125
2955,-0.24,2021-12-17 16:57:17.843750
2956,-1.0,2021-12-17 16:57:17.859375
2957,-1.85,2021-12-17 16:57:17.875000
2958,-2.75,2021-12-17 16:57:17.890625
2959,-3.59,2021-12-17 16:57:17.906250
2960,-4.29,2021-12-17 16:57:17.921875
2961,-4.84,2021-12-17 16:57:17.937500
2962,-5.25,2021-12-17 16:57:17.953125
2963,-5.63,2021-12-17 16:57:17.968750
2964,-6.11,2021-12-17 16:57:17.984375
2965,-6.76,2021-12-17 16:57:18.000000
2966,-7.65,2021-12-17 16:57:18.015625
2967,-8.77,2021-12-17 16:57:18.031250
2968,-10.02,2021-12-17 16:57:18.046875
2969,-11.23,2021-12-17 16:57:18.062500
2970,-12.2,2021-12-17 16:57:18.078125
2971,-12.66,2021-12-17 16:57:18.093750
2972,-12.45,2021-12-17 16:57:18.109375
2973,-11.54,2021-12-17 16:57:18.125000
2974,-10.1,2021-12-17 16:57:18.140625
2975,-8.41,2021-12-17 16:57:18.156250
2976,-6.78,2021-12-17 16:57:18.171875
2977,-5.35,2021-12-17 16:57:18.187500
2978,-4.08,2021-12-17 16:57:18.203125
2979,-2.84,2021-12-17 16:57:18.218750
2980,-1.51,2021-12-17 16:57:18.234375
2981,-0.05,2021-12-17 16:57:18.250000
2982,1.44,2021-12-17 16:57:18.265625
2983,2.8,2021-12-17 16:57:18.281250
2984,3.95,2021-12-17 16:57:18.296875
2985,4.87,2021-12-17 16:57:18.312500
2986,5.66,2021-12-17 16:57:18.328125
2987,6.44,2021-12-17 16:57:18.343750
2988,7.27,2021-12-17 16:57:18.359375
2989,8.15,2021-12-17 16:57:18.375000
2990,8.98,2021-12-17 16:57:18.390625
2991,9.64,2021-12-17 16:57:18.406250
2992,9.99,2021-12-17 16:57:18.421875
2993,9.96,2021-12-17 16:57:18.437500
2994,9.56,2021-12-17 16:57:18.453125
2995,8.94,2021-12-17 16:57:18.468750
2996,8.29,2021-12-17 16:57:18.484375
2997,7.84,2021-12-17 16:57:18.500000
2998,7.68,2021-12-17 16:57:18.515625
2999,7.79,2021-12-17 16:57:18.531250
3000,8.03,2021-12-17 16:57:18.546875
3001,8.2,2021-12-17 16:57:18.562500
3002,8.16,2021-12-17 16:57:18.578125
3003,7.86,2021-12-17 16:57:18.593750
3004,7.34,2021-12-17 16:57:18.609375
3005,6.67,2021-12-17 16:57:18.625000
3006,5.91,2021-12-17 16:57:18.640625
3007,5.09,2021-12-17 16:57:18.656250
3008,4.26,2021-12-17 16:57:18.671875
3009,3.46,2021-12-17 16:57:18.687500
3010,2.74,2021-12-17 16:57:18.703125
3011,2.13,2021-12-17 16:57:18.718750
3012,1.61,2021-12-17 16:57:18.734375
3013,1.1,2021-12-17 16:57:18.750000
3014,0.53,2021-12-17 16:57:18.765625
3015,-0.14,2021-12-17 16:57:18.781250
3016,-0.92,2021-12-17 16:57:18.796875
3017,-1.78,2021-12-17 16:57:18.812500
3018,-2.65,2021-12-17 16:57:18.828125
3019,-3.5,2021-12-17 16:57:18.843750
3020,-4.31,2021-12-17 16:57:18.859375
3021,-5.1,2021-12-17 16:57:18.875000
3022,-5.93,2021-12-17 16:57:18.890625
3023,-6.88,2021-12-17 16:57:18.906250
3024,-8.04,2021-12-17 16:57:18.921875
3025,-9.4,2021-12-17 16:57:18.937500
3026,-10.83,2021-12-17 16:57:18.953125
3027,-12.11,2021-12-17 16:57:18.968750
3028,-12.97,2021-12-17 16:57:18.984375
3029,-13.21,2021-12-17 16:57:19.000000
3030,-12.74,2021-12-17 16:57:19.015625
3031,-11.69,2021-12-17 16:57:19.031250
3032,-10.22,2021-12-17 16:57:19.046875
3033,-8.57,2021-12-17 16:57:19.062500
3034,-6.88,2021-12-17 16:57:19.078125
3035,-5.25,2021-12-17 16:57:19.093750
3036,-3.68,2021-12-17 16:57:19.109375
3037,-2.15,2021-12-17 16:57:19.125000
3038,-0.64,2021-12-17 16:57:19.140625
3039,0.87,2021-12-17 16:57:19.156250
3040,2.4,2021-12-17 16:57:19.171875
3041,3.95,2021-12-17 16:57:19.187500
3042,5.48,2021-12-17 16:57:19.203125
3043,6.92,2021-12-17 16:57:19.218750
3044,8.18,2021-12-17 16:57:19.234375
3045,9.16,2021-12-17 16:57:19.250000
3046,9.8,2021-12-17 16:57:19.265625
3047,10.07,2021-12-17 16:57:19.281250
3048,10.03,2021-12-17 16:57:19.296875
3049,9.78,2021-12-17 16:57:19.312500
3050,9.48,2021-12-17 16:57:19.328125
3051,9.2,2021-12-17 16:57:19.343750
3052,8.98,2021-12-17 16:57:19.359375
3053,8.78,2021-12-17 16:57:19.375000
3054,8.5,2021-12-17 16:57:19.390625
3055,8.13,2021-12-17 16:57:19.406250
3056,7.73,2021-12-17 16:57:19.421875
3057,7.42,2021-12-17 16:57:19.437500
3058,7.33,2021-12-17 16:57:19.453125
3059,7.47,2021-12-17 16:57:19.468750
3060,7.71,2021-12-17 16:57:19.484375
3061,7.84,2021-12-17 16:57:19.500000
3062,7.7,2021-12-17 16:57:19.515625
3063,7.27,2021-12-17 16:57:19.531250
3064,6.73,2021-12-17 16:57:19.546875
3065,6.33,2021-12-17 16:57:19.562500
3066,6.21,2021-12-17 16:57:19.578125
3067,6.34,2021-12-17 16:57:19.593750
3068,6.5,2021-12-17 16:57:19.609375
3069,6.45,2021-12-17 16:57:19.625000
3070,5.99,2021-12-17 16:57:19.640625
3071,5.14,2021-12-17 16:57:19.656250
3072,3.99,2021-12-17 16:57:19.671875
3073,2.72,2021-12-17 16:57:19.687500
3074,1.36,2021-12-17 16:57:19.703125
3075,-0.08,2021-12-17 16:57:19.718750
3076,-1.59,2021-12-17 16:57:19.734375
3077,-3.11,2021-12-17 16:57:19.750000
3078,-4.45,2021-12-17 16:57:19.765625
3079,-5.48,2021-12-17 16:57:19.781250
3080,-6.19,2021-12-17 16:57:19.796875
3081,-6.76,2021-12-17 16:57:19.812500
3082,-7.45,2021-12-17 16:57:19.828125
3083,-8.48,2021-12-17 16:57:19.843750
3084,-9.86,2021-12-17 16:57:19.859375
3085,-11.37,2021-12-17 16:57:19.875000
3086,-12.64,2021-12-17 16:57:19.890625
3087,-13.35,2021-12-17 16:57:19.906250
3088,-13.3,2021-12-17 16:57:19.921875
3089,-12.5,2021-12-17 16:57:19.937500
3090,-11.09,2021-12-17 16:57:19.953125
3091,-9.29,2021-12-17 16:57:19.968750
3092,-7.31,2021-12-17 16:57:19.984375
3093,-5.32,2021-12-17 16:57:20.000000
3094,-3.42,2021-12-17 16:57:20.015625
3095,-1.69,2021-12-17 16:57:20.031250
3096,-0.14,2021-12-17 16:57:20.046875
3097,1.23,2021-12-17 16:57:20.062500
3098,2.45,2021-12-17 16:57:20.078125
3099,3.55,2021-12-17 16:57:20.093750
3100,4.55,2021-12-17 16:57:20.109375
3101,5.43,2021-12-17 16:57:20.125000
3102,6.2,2021-12-17 16:57:20.140625
3103,6.81,2021-12-17 16:57:20.156250
3104,7.2,2021-12-17 16:57:20.171875
3105,7.33,2021-12-17 16:57:20.187500
3106,7.18,2021-12-17 16:57:20.203125
3107,6.82,2021-12-17 16:57:20.218750
3108,6.41,2021-12-17 16:57:20.234375
3109,6.16,2021-12-17 16:57:20.250000
3110,6.23,2021-12-17 16:57:20.265625
3111,6.66,2021-12-17 16:57:20.281250
3112,7.33,2021-12-17 16:57:20.296875
3113,8.06,2021-12-17 16:57:20.312500
3114,8.65,2021-12-17 16:57:20.328125
3115,8.98,2021-12-17 16:57:20.343750
3116,9.04,2021-12-17 16:57:20.359375
3117,8.88,2021-12-17 16:57:20.375000
3118,8.61,2021-12-17 16:57:20.390625
3119,8.35,2021-12-17 16:57:20.406250
3120,8.19,2021-12-17 16:57:20.421875
3121,8.22,2021-12-17 16:57:20.437500
3122,8.43,2021-12-17 16:57:20.453125
3123,8.76,2021-12-17 16:57:20.468750
3124,9.05,2021-12-17 16:57:20.484375
3125,9.09,2021-12-17 16:57:20.500000
3126,8.78,2021-12-17 16:57:20.515625
3127,8.09,2021-12-17 16:57:20.531250
3128,7.13,2021-12-17 16:57:20.546875
3129,6.06,2021-12-17 16:57:20.562500
3130,5.02,2021-12-17 16:57:20.578125
3131,4.03,2021-12-17 16:57:20.593750
3132,3.04,2021-12-17 16:57:20.609375
3133,1.93,2021-12-17 16:57:20.625000
3134,0.68,2021-12-17 16:57:20.640625
3135,-0.67,2021-12-17 16:57:20.656250
3136,-2.01,2021-12-17 16:57:20.671875
3137,-3.22,2021-12-17 16:57:20.687500
3138,-4.22,2021-12-17 16:57:20.703125
3139,-5.03,2021-12-17 16:57:20.718750
3140,-5.74,2021-12-17 16:57:20.734375
3141,-6.5,2021-12-17 16:57:20.750000
3142,-7.44,2021-12-17 16:57:20.765625
3143,-8.62,2021-12-17 16:57:20.781250
3144,-10.01,2021-12-17 16:57:20.796875
3145,-11.44,2021-12-17 16:57:20.812500
3146,-12.67,2021-12-17 16:57:20.828125
3147,-13.4,2021-12-17 16:57:20.843750
3148,-13.44,2021-12-17 16:57:20.859375
3149,-12.68,2021-12-17 16:57:20.875000
3150,-11.18,2021-12-17 16:57:20.890625
3151,-9.14,2021-12-17 16:57:20.906250
3152,-6.84,2021-12-17 16:57:20.921875
3153,-4.55,2021-12-17 16:57:20.937500
3154,-2.5,2021-12-17 16:57:20.953125
3155,-0.85,2021-12-17 16:57:20.968750
3156,0.41,2021-12-17 16:57:20.984375
3157,1.38,2021-12-17 16:57:21.000000
3158,2.25,2021-12-17 16:57:21.015625
3159,3.21,2021-12-17 16:57:21.031250
3160,4.34,2021-12-17 16:57:21.046875
3161,5.58,2021-12-17 16:57:21.062500
3162,6.76,2021-12-17 16:57:21.078125
3163,7.66,2021-12-17 16:57:21.093750
3164,8.1,2021-12-17 16:57:21.109375
3165,8.07,2021-12-17 16:57:21.125000
3166,7.69,2021-12-17 16:57:21.140625
3167,7.17,2021-12-17 16:57:21.156250
3168,6.7,2021-12-17 16:57:21.171875
3169,6.4,2021-12-17 16:57:21.187500
3170,6.34,2021-12-17 16:57:21.203125
3171,6.49,2021-12-17 16:57:21.218750
3172,6.78,2021-12-17 16:57:21.234375
3173,7.14,2021-12-17 16:57:21.250000
3174,7.45,2021-12-17 16:57:21.265625
3175,7.61,2021-12-17 16:57:21.281250
3176,7.55,2021-12-17 16:57:21.296875
3177,7.24,2021-12-17 16:57:21.312500
3178,6.73,2021-12-17 16:57:21.328125
3179,6.15,2021-12-17 16:57:21.343750
3180,5.57,2021-12-17 16:57:21.359375
3181,5.08,2021-12-17 16:57:21.375000
