,BVP,time
0,5.22,2022-08-17 14:00:54.500000
1,4.37,2022-08-17 14:00:54.515625
2,3.27,2022-08-17 14:00:54.531250
3,2.04,2022-08-17 14:00:54.546875
4,0.88,2022-08-17 14:00:54.562500
5,0.08,2022-08-17 14:00:54.578125
6,-0.1,2022-08-17 14:00:54.593750
7,0.46,2022-08-17 14:00:54.609375
8,1.67,2022-08-17 14:00:54.625000
9,3.15,2022-08-17 14:00:54.640625
10,4.32,2022-08-17 14:00:54.656250
11,4.68,2022-08-17 14:00:54.671875
12,4.07,2022-08-17 14:00:54.687500
13,2.89,2022-08-17 14:00:54.703125
14,1.96,2022-08-17 14:00:54.718750
15,2.26,2022-08-17 14:00:54.734375
16,4.39,2022-08-17 14:00:54.750000
17,8.29,2022-08-17 14:00:54.765625
18,13.18,2022-08-17 14:00:54.781250
19,17.9,2022-08-17 14:00:54.796875
20,21.59,2022-08-17 14:00:54.812500
21,24.07,2022-08-17 14:00:54.828125
22,26.08,2022-08-17 14:00:54.843750
23,28.99,2022-08-17 14:00:54.859375
24,34.17,2022-08-17 14:00:54.875000
25,42.19,2022-08-17 14:00:54.890625
26,52.39,2022-08-17 14:00:54.906250
27,62.86,2022-08-17 14:00:54.921875
28,71.05,2022-08-17 14:00:54.937500
29,74.83,2022-08-17 14:00:54.953125
30,73.5,2022-08-17 14:00:54.968750
31,68.4,2022-08-17 14:00:54.984375
32,62.67,2022-08-17 14:00:55.000000
33,60.0,2022-08-17 14:00:55.015625
34,62.99,2022-08-17 14:00:55.031250
35,71.56,2022-08-17 14:00:55.046875
36,82.37,2022-08-17 14:00:55.062500
37,89.79,2022-08-17 14:00:55.078125
38,87.62,2022-08-17 14:00:55.093750
39,71.16,2022-08-17 14:00:55.109375
40,38.53,2022-08-17 14:00:55.125000
41,-8.77,2022-08-17 14:00:55.140625
42,-65.94,2022-08-17 14:00:55.156250
43,-125.16,2022-08-17 14:00:55.171875
44,-176.63,2022-08-17 14:00:55.187500
45,-210.73,2022-08-17 14:00:55.203125
46,-220.99,2022-08-17 14:00:55.218750
47,-206.76,2022-08-17 14:00:55.234375
48,-173.95,2022-08-17 14:00:55.250000
49,-132.94,2022-08-17 14:00:55.265625
50,-94.15,2022-08-17 14:00:55.281250
51,-63.74,2022-08-17 14:00:55.296875
52,-41.71,2022-08-17 14:00:55.312500
53,-23.58,2022-08-17 14:00:55.328125
54,-4.43,2022-08-17 14:00:55.343750
55,17.32,2022-08-17 14:00:55.359375
56,38.94,2022-08-17 14:00:55.375000
57,55.86,2022-08-17 14:00:55.390625
58,65.33,2022-08-17 14:00:55.406250
59,68.75,2022-08-17 14:00:55.421875
60,71.01,2022-08-17 14:00:55.437500
61,77.6,2022-08-17 14:00:55.453125
62,91.71,2022-08-17 14:00:55.468750
63,112.88,2022-08-17 14:00:55.484375
64,137.43,2022-08-17 14:00:55.500000
65,159.94,2022-08-17 14:00:55.515625
66,175.12,2022-08-17 14:00:55.531250
67,179.07,2022-08-17 14:00:55.546875
68,170.26,2022-08-17 14:00:55.562500
69,150.27,2022-08-17 14:00:55.578125
70,124.11,2022-08-17 14:00:55.593750
71,99.41,2022-08-17 14:00:55.609375
72,83.85,2022-08-17 14:00:55.625000
73,82.07,2022-08-17 14:00:55.640625
74,93.62,2022-08-17 14:00:55.656250
75,113.03,2022-08-17 14:00:55.671875
76,132.76,2022-08-17 14:00:55.687500
77,146.81,2022-08-17 14:00:55.703125
78,153.22,2022-08-17 14:00:55.718750
79,153.76,2022-08-17 14:00:55.734375
80,151.83,2022-08-17 14:00:55.750000
81,149.75,2022-08-17 14:00:55.765625
82,147.75,2022-08-17 14:00:55.781250
83,144.94,2022-08-17 14:00:55.796875
84,140.9,2022-08-17 14:00:55.812500
85,136.71,2022-08-17 14:00:55.828125
86,134.82,2022-08-17 14:00:55.843750
87,137.31,2022-08-17 14:00:55.859375
88,144.21,2022-08-17 14:00:55.875000
89,152.83,2022-08-17 14:00:55.890625
90,158.38,2022-08-17 14:00:55.906250
91,155.63,2022-08-17 14:00:55.921875
92,140.61,2022-08-17 14:00:55.937500
93,111.74,2022-08-17 14:00:55.953125
94,70.75,2022-08-17 14:00:55.968750
95,23.23,2022-08-17 14:00:55.984375
96,-22.02,2022-08-17 14:00:56.000000
97,-55.15,2022-08-17 14:00:56.015625
98,-68.6,2022-08-17 14:00:56.031250
99,-60.12,2022-08-17 14:00:56.046875
100,-34.42,2022-08-17 14:00:56.062500
101,-1.26,2022-08-17 14:00:56.078125
102,28.34,2022-08-17 14:00:56.093750
103,46.35,2022-08-17 14:00:56.109375
104,49.38,2022-08-17 14:00:56.125000
105,38.26,2022-08-17 14:00:56.140625
106,16.13,2022-08-17 14:00:56.156250
107,-13.71,2022-08-17 14:00:56.171875
108,-48.73,2022-08-17 14:00:56.187500
109,-87.21,2022-08-17 14:00:56.203125
110,-127.08,2022-08-17 14:00:56.218750
111,-165.63,2022-08-17 14:00:56.234375
112,-199.57,2022-08-17 14:00:56.250000
113,-225.63,2022-08-17 14:00:56.265625
114,-240.83,2022-08-17 14:00:56.281250
115,-242.57,2022-08-17 14:00:56.296875
116,-229.5,2022-08-17 14:00:56.312500
117,-203.16,2022-08-17 14:00:56.328125
118,-170.02,2022-08-17 14:00:56.343750
119,-139.63,2022-08-17 14:00:56.359375
120,-121.3,2022-08-17 14:00:56.375000
121,-120.02,2022-08-17 14:00:56.390625
122,-134.25,2022-08-17 14:00:56.406250
123,-156.7,2022-08-17 14:00:56.421875
124,-177.55,2022-08-17 14:00:56.437500
125,-188.63,2022-08-17 14:00:56.453125
126,-186.38,2022-08-17 14:00:56.468750
127,-174.82,2022-08-17 14:00:56.484375
128,-160.22,2022-08-17 14:00:56.500000
129,-146.75,2022-08-17 14:00:56.515625
130,-134.44,2022-08-17 14:00:56.531250
131,-120.62,2022-08-17 14:00:56.546875
132,-102.83,2022-08-17 14:00:56.562500
133,-80.34,2022-08-17 14:00:56.578125
134,-54.39,2022-08-17 14:00:56.593750
135,-27.11,2022-08-17 14:00:56.609375
136,-6.0,2022-08-17 14:00:56.625000
137,3.25,2022-08-17 14:00:56.640625
138,-0.13,2022-08-17 14:00:56.656250
139,-11.96,2022-08-17 14:00:56.671875
140,-26.83,2022-08-17 14:00:56.687500
141,-41.86,2022-08-17 14:00:56.703125
142,-57.12,2022-08-17 14:00:56.718750
143,-74.34,2022-08-17 14:00:56.734375
144,-95.27,2022-08-17 14:00:56.750000
145,-129.13,2022-08-17 14:00:56.765625
146,-182.17,2022-08-17 14:00:56.781250
147,-253.03,2022-08-17 14:00:56.796875
148,-332.56,2022-08-17 14:00:56.812500
149,-409.31,2022-08-17 14:00:56.828125
150,-475.22,2022-08-17 14:00:56.843750
151,-527.08,2022-08-17 14:00:56.859375
152,-565.7,2022-08-17 14:00:56.875000
153,-594.26,2022-08-17 14:00:56.890625
154,-627.86,2022-08-17 14:00:56.906250
155,-679.45,2022-08-17 14:00:56.921875
156,-752.35,2022-08-17 14:00:56.937500
157,-839.01,2022-08-17 14:00:56.953125
158,-927.97,2022-08-17 14:00:56.968750
159,-1011.21,2022-08-17 14:00:56.984375
160,-1085.7,2022-08-17 14:00:57.000000
161,-1150.63,2022-08-17 14:00:57.015625
162,-1132.38,2022-08-17 14:00:57.031250
163,-984.59,2022-08-17 14:00:57.046875
164,-712.6,2022-08-17 14:00:57.062500
165,-376.3,2022-08-17 14:00:57.078125
166,-49.5,2022-08-17 14:00:57.093750
167,217.82,2022-08-17 14:00:57.109375
168,406.74,2022-08-17 14:00:57.125000
169,520.73,2022-08-17 14:00:57.140625
170,576.52,2022-08-17 14:00:57.156250
171,595.1,2022-08-17 14:00:57.171875
172,590.45,2022-08-17 14:00:57.187500
173,570.72,2022-08-17 14:00:57.203125
174,544.59,2022-08-17 14:00:57.218750
175,523.17,2022-08-17 14:00:57.234375
176,514.77,2022-08-17 14:00:57.250000
177,520.3,2022-08-17 14:00:57.265625
178,534.53,2022-08-17 14:00:57.281250
179,550.82,2022-08-17 14:00:57.296875
180,560.31,2022-08-17 14:00:57.312500
181,550.58,2022-08-17 14:00:57.328125
182,516.38,2022-08-17 14:00:57.343750
183,463.34,2022-08-17 14:00:57.359375
184,404.79,2022-08-17 14:00:57.375000
185,353.49,2022-08-17 14:00:57.390625
186,315.4,2022-08-17 14:00:57.406250
187,289.55,2022-08-17 14:00:57.421875
188,271.71,2022-08-17 14:00:57.437500
189,257.57,2022-08-17 14:00:57.453125
190,239.7,2022-08-17 14:00:57.468750
191,212.74,2022-08-17 14:00:57.484375
192,176.29,2022-08-17 14:00:57.500000
193,134.76,2022-08-17 14:00:57.515625
194,94.22,2022-08-17 14:00:57.531250
195,59.47,2022-08-17 14:00:57.546875
196,33.22,2022-08-17 14:00:57.562500
197,16.42,2022-08-17 14:00:57.578125
198,8.61,2022-08-17 14:00:57.593750
199,6.27,2022-08-17 14:00:57.609375
200,5.51,2022-08-17 14:00:57.625000
201,4.21,2022-08-17 14:00:57.640625
202,2.45,2022-08-17 14:00:57.656250
203,1.4,2022-08-17 14:00:57.671875
204,1.82,2022-08-17 14:00:57.687500
205,3.99,2022-08-17 14:00:57.703125
206,7.92,2022-08-17 14:00:57.718750
207,13.55,2022-08-17 14:00:57.734375
208,20.04,2022-08-17 14:00:57.750000
209,26.14,2022-08-17 14:00:57.765625
210,30.69,2022-08-17 14:00:57.781250
211,32.85,2022-08-17 14:00:57.796875
212,32.06,2022-08-17 14:00:57.812500
213,28.13,2022-08-17 14:00:57.828125
214,21.58,2022-08-17 14:00:57.843750
215,13.75,2022-08-17 14:00:57.859375
216,6.39,2022-08-17 14:00:57.875000
217,1.21,2022-08-17 14:00:57.890625
218,-0.97,2022-08-17 14:00:57.906250
219,-0.26,2022-08-17 14:00:57.921875
220,2.49,2022-08-17 14:00:57.937500
221,6.29,2022-08-17 14:00:57.953125
222,10.39,2022-08-17 14:00:57.968750
223,14.59,2022-08-17 14:00:57.984375
224,19.01,2022-08-17 14:00:58.000000
225,23.88,2022-08-17 14:00:58.015625
226,29.38,2022-08-17 14:00:58.031250
227,35.42,2022-08-17 14:00:58.046875
228,41.79,2022-08-17 14:00:58.062500
229,48.09,2022-08-17 14:00:58.078125
230,53.93,2022-08-17 14:00:58.093750
231,58.76,2022-08-17 14:00:58.109375
232,62.13,2022-08-17 14:00:58.125000
233,63.67,2022-08-17 14:00:58.140625
234,63.17,2022-08-17 14:00:58.156250
235,60.7,2022-08-17 14:00:58.171875
236,56.5,2022-08-17 14:00:58.187500
237,50.97,2022-08-17 14:00:58.203125
238,44.61,2022-08-17 14:00:58.218750
239,37.98,2022-08-17 14:00:58.234375
240,31.62,2022-08-17 14:00:58.250000
241,26.09,2022-08-17 14:00:58.265625
242,21.77,2022-08-17 14:00:58.281250
243,18.69,2022-08-17 14:00:58.296875
244,16.56,2022-08-17 14:00:58.312500
245,14.74,2022-08-17 14:00:58.328125
246,12.47,2022-08-17 14:00:58.343750
247,9.18,2022-08-17 14:00:58.359375
248,4.86,2022-08-17 14:00:58.375000
249,0.28,2022-08-17 14:00:58.390625
250,-3.04,2022-08-17 14:00:58.406250
251,-3.35,2022-08-17 14:00:58.421875
252,0.58,2022-08-17 14:00:58.437500
253,8.8,2022-08-17 14:00:58.453125
254,19.8,2022-08-17 14:00:58.468750
255,30.9,2022-08-17 14:00:58.484375
256,39.07,2022-08-17 14:00:58.500000
257,41.91,2022-08-17 14:00:58.515625
258,38.36,2022-08-17 14:00:58.531250
259,29.02,2022-08-17 14:00:58.546875
260,15.89,2022-08-17 14:00:58.562500
261,1.88,2022-08-17 14:00:58.578125
262,-9.78,2022-08-17 14:00:58.593750
263,-16.43,2022-08-17 14:00:58.609375
264,-16.77,2022-08-17 14:00:58.625000
265,-11.51,2022-08-17 14:00:58.640625
266,-3.29,2022-08-17 14:00:58.656250
267,4.31,2022-08-17 14:00:58.671875
268,8.33,2022-08-17 14:00:58.687500
269,7.85,2022-08-17 14:00:58.703125
270,4.32,2022-08-17 14:00:58.718750
271,0.62,2022-08-17 14:00:58.734375
272,-0.83,2022-08-17 14:00:58.750000
273,0.55,2022-08-17 14:00:58.765625
274,3.17,2022-08-17 14:00:58.781250
275,4.44,2022-08-17 14:00:58.796875
276,2.56,2022-08-17 14:00:58.812500
277,-2.25,2022-08-17 14:00:58.828125
278,-7.9,2022-08-17 14:00:58.843750
279,-11.77,2022-08-17 14:00:58.859375
280,-12.4,2022-08-17 14:00:58.875000
281,-10.44,2022-08-17 14:00:58.890625
282,-8.15,2022-08-17 14:00:58.906250
283,-8.1,2022-08-17 14:00:58.921875
284,-11.68,2022-08-17 14:00:58.937500
285,-18.35,2022-08-17 14:00:58.953125
286,-26.04,2022-08-17 14:00:58.968750
287,-32.3,2022-08-17 14:00:58.984375
288,-35.38,2022-08-17 14:00:59.000000
289,-34.91,2022-08-17 14:00:59.015625
290,-31.54,2022-08-17 14:00:59.031250
291,-26.05,2022-08-17 14:00:59.046875
292,-18.69,2022-08-17 14:00:59.062500
293,-8.99,2022-08-17 14:00:59.078125
294,3.62,2022-08-17 14:00:59.093750
295,18.83,2022-08-17 14:00:59.109375
296,34.82,2022-08-17 14:00:59.125000
297,48.54,2022-08-17 14:00:59.140625
298,56.72,2022-08-17 14:00:59.156250
299,57.19,2022-08-17 14:00:59.171875
300,49.92,2022-08-17 14:00:59.187500
301,36.96,2022-08-17 14:00:59.203125
302,21.62,2022-08-17 14:00:59.218750
303,7.21,2022-08-17 14:00:59.234375
304,-4.0,2022-08-17 14:00:59.250000
305,-11.14,2022-08-17 14:00:59.265625
306,-14.47,2022-08-17 14:00:59.281250
307,-14.72,2022-08-17 14:00:59.296875
308,-12.69,2022-08-17 14:00:59.312500
309,-8.99,2022-08-17 14:00:59.328125
310,-4.14,2022-08-17 14:00:59.343750
311,1.33,2022-08-17 14:00:59.359375
312,6.79,2022-08-17 14:00:59.375000
313,11.63,2022-08-17 14:00:59.390625
314,15.49,2022-08-17 14:00:59.406250
315,18.27,2022-08-17 14:00:59.421875
316,20.11,2022-08-17 14:00:59.437500
317,21.45,2022-08-17 14:00:59.453125
318,22.98,2022-08-17 14:00:59.468750
319,25.43,2022-08-17 14:00:59.484375
320,29.21,2022-08-17 14:00:59.500000
321,34.04,2022-08-17 14:00:59.515625
322,38.79,2022-08-17 14:00:59.531250
323,42.02,2022-08-17 14:00:59.546875
324,42.38,2022-08-17 14:00:59.562500
325,39.01,2022-08-17 14:00:59.578125
326,32.07,2022-08-17 14:00:59.593750
327,22.72,2022-08-17 14:00:59.609375
328,12.73,2022-08-17 14:00:59.625000
329,3.92,2022-08-17 14:00:59.640625
330,-2.48,2022-08-17 14:00:59.656250
331,-6.08,2022-08-17 14:00:59.671875
332,-6.76,2022-08-17 14:00:59.687500
333,-4.75,2022-08-17 14:00:59.703125
334,-0.68,2022-08-17 14:00:59.718750
335,4.88,2022-08-17 14:00:59.734375
336,11.72,2022-08-17 14:00:59.750000
337,20.1,2022-08-17 14:00:59.765625
338,30.36,2022-08-17 14:00:59.781250
339,42.51,2022-08-17 14:00:59.796875
340,55.67,2022-08-17 14:00:59.812500
341,69.42,2022-08-17 14:00:59.828125
342,82.7,2022-08-17 14:00:59.843750
343,93.68,2022-08-17 14:00:59.859375
344,100.69,2022-08-17 14:00:59.875000
345,103.32,2022-08-17 14:00:59.890625
346,102.9,2022-08-17 14:00:59.906250
347,101.82,2022-08-17 14:00:59.921875
348,102.58,2022-08-17 14:00:59.937500
349,106.79,2022-08-17 14:00:59.953125
350,117.51,2022-08-17 14:00:59.968750
351,136.3,2022-08-17 14:00:59.984375
352,161.22,2022-08-17 14:01:00.000000
353,187.42,2022-08-17 14:01:00.015625
354,209.42,2022-08-17 14:01:00.031250
355,223.51,2022-08-17 14:01:00.046875
356,228.69,2022-08-17 14:01:00.062500
357,225.93,2022-08-17 14:01:00.078125
358,216.57,2022-08-17 14:01:00.093750
359,205.15,2022-08-17 14:01:00.109375
360,193.83,2022-08-17 14:01:00.125000
361,180.01,2022-08-17 14:01:00.140625
362,158.99,2022-08-17 14:01:00.156250
363,128.05,2022-08-17 14:01:00.171875
364,89.28,2022-08-17 14:01:00.187500
365,48.53,2022-08-17 14:01:00.203125
366,12.14,2022-08-17 14:01:00.218750
367,-15.4,2022-08-17 14:01:00.234375
368,-25.03,2022-08-17 14:01:00.250000
369,-8.99,2022-08-17 14:01:00.265625
370,35.13,2022-08-17 14:01:00.281250
371,104.21,2022-08-17 14:01:00.296875
372,190.25,2022-08-17 14:01:00.312500
373,282.55,2022-08-17 14:01:00.328125
374,370.05,2022-08-17 14:01:00.343750
375,443.57,2022-08-17 14:01:00.359375
376,467.14,2022-08-17 14:01:00.375000
377,424.54,2022-08-17 14:01:00.390625
378,327.06,2022-08-17 14:01:00.406250
379,205.47,2022-08-17 14:01:00.421875
380,88.58,2022-08-17 14:01:00.437500
381,-10.83,2022-08-17 14:01:00.453125
382,-92.32,2022-08-17 14:01:00.468750
383,-158.03,2022-08-17 14:01:00.484375
384,-204.08,2022-08-17 14:01:00.500000
385,-235.78,2022-08-17 14:01:00.515625
386,-255.99,2022-08-17 14:01:00.531250
387,-264.59,2022-08-17 14:01:00.546875
388,-270.53,2022-08-17 14:01:00.562500
389,-284.65,2022-08-17 14:01:00.578125
390,-313.32,2022-08-17 14:01:00.593750
391,-355.56,2022-08-17 14:01:00.609375
392,-399.64,2022-08-17 14:01:00.625000
393,-430.86,2022-08-17 14:01:00.640625
394,-439.94,2022-08-17 14:01:00.656250
395,-421.87,2022-08-17 14:01:00.671875
396,-380.46,2022-08-17 14:01:00.687500
397,-327.0,2022-08-17 14:01:00.703125
398,-273.38,2022-08-17 14:01:00.718750
399,-227.19,2022-08-17 14:01:00.734375
400,-190.19,2022-08-17 14:01:00.750000
401,-160.31,2022-08-17 14:01:00.765625
402,-135.91,2022-08-17 14:01:00.781250
403,-117.67,2022-08-17 14:01:00.796875
404,-103.71,2022-08-17 14:01:00.812500
405,-91.98,2022-08-17 14:01:00.828125
406,-81.63,2022-08-17 14:01:00.843750
407,-72.16,2022-08-17 14:01:00.859375
408,-62.76,2022-08-17 14:01:00.875000
409,-52.36,2022-08-17 14:01:00.890625
410,-39.92,2022-08-17 14:01:00.906250
411,-25.74,2022-08-17 14:01:00.921875
412,-11.64,2022-08-17 14:01:00.937500
413,2.28,2022-08-17 14:01:00.953125
414,16.45,2022-08-17 14:01:00.968750
415,30.84,2022-08-17 14:01:00.984375
416,45.32,2022-08-17 14:01:01.000000
417,59.57,2022-08-17 14:01:01.015625
418,73.2,2022-08-17 14:01:01.031250
419,85.33,2022-08-17 14:01:01.046875
420,94.24,2022-08-17 14:01:01.062500
421,97.74,2022-08-17 14:01:01.078125
422,94.87,2022-08-17 14:01:01.093750
423,85.76,2022-08-17 14:01:01.109375
424,71.25,2022-08-17 14:01:01.125000
425,52.96,2022-08-17 14:01:01.140625
426,33.34,2022-08-17 14:01:01.156250
427,14.47,2022-08-17 14:01:01.171875
428,-2.13,2022-08-17 14:01:01.187500
429,-15.84,2022-08-17 14:01:01.203125
430,-26.71,2022-08-17 14:01:01.218750
431,-35.03,2022-08-17 14:01:01.234375
432,-41.07,2022-08-17 14:01:01.250000
433,-45.01,2022-08-17 14:01:01.265625
434,-46.89,2022-08-17 14:01:01.281250
435,-46.86,2022-08-17 14:01:01.296875
436,-45.32,2022-08-17 14:01:01.312500
437,-42.81,2022-08-17 14:01:01.328125
438,-39.95,2022-08-17 14:01:01.343750
439,-37.26,2022-08-17 14:01:01.359375
440,-35.08,2022-08-17 14:01:01.375000
441,-33.51,2022-08-17 14:01:01.390625
442,-32.37,2022-08-17 14:01:01.406250
443,-31.37,2022-08-17 14:01:01.421875
444,-30.31,2022-08-17 14:01:01.437500
445,-29.12,2022-08-17 14:01:01.453125
446,-27.86,2022-08-17 14:01:01.468750
447,-26.67,2022-08-17 14:01:01.484375
448,-25.63,2022-08-17 14:01:01.500000
449,-24.83,2022-08-17 14:01:01.515625
450,-24.25,2022-08-17 14:01:01.531250
451,-23.74,2022-08-17 14:01:01.546875
452,-23.23,2022-08-17 14:01:01.562500
453,-22.7,2022-08-17 14:01:01.578125
454,-22.16,2022-08-17 14:01:01.593750
455,-21.59,2022-08-17 14:01:01.609375
456,-21.15,2022-08-17 14:01:01.625000
457,-20.98,2022-08-17 14:01:01.640625
458,-21.22,2022-08-17 14:01:01.656250
459,-21.94,2022-08-17 14:01:01.671875
460,-23.04,2022-08-17 14:01:01.687500
461,-24.63,2022-08-17 14:01:01.703125
462,-26.91,2022-08-17 14:01:01.718750
463,-30.16,2022-08-17 14:01:01.734375
464,-34.67,2022-08-17 14:01:01.750000
465,-40.89,2022-08-17 14:01:01.765625
466,-48.89,2022-08-17 14:01:01.781250
467,-58.3,2022-08-17 14:01:01.796875
468,-69.05,2022-08-17 14:01:01.812500
469,-78.98,2022-08-17 14:01:01.828125
470,-86.03,2022-08-17 14:01:01.843750
471,-88.28,2022-08-17 14:01:01.859375
472,-84.22,2022-08-17 14:01:01.875000
473,-73.17,2022-08-17 14:01:01.890625
474,-55.49,2022-08-17 14:01:01.906250
475,-32.3,2022-08-17 14:01:01.921875
476,-5.3,2022-08-17 14:01:01.937500
477,23.62,2022-08-17 14:01:01.953125
478,52.75,2022-08-17 14:01:01.968750
479,80.25,2022-08-17 14:01:01.984375
480,104.29,2022-08-17 14:01:02.000000
481,123.05,2022-08-17 14:01:02.015625
482,134.62,2022-08-17 14:01:02.031250
483,137.32,2022-08-17 14:01:02.046875
484,130.19,2022-08-17 14:01:02.062500
485,113.44,2022-08-17 14:01:02.078125
486,88.54,2022-08-17 14:01:02.093750
487,58.63,2022-08-17 14:01:02.109375
488,27.32,2022-08-17 14:01:02.125000
489,-2.21,2022-08-17 14:01:02.140625
490,-27.76,2022-08-17 14:01:02.156250
491,-48.57,2022-08-17 14:01:02.171875
492,-65.08,2022-08-17 14:01:02.187500
493,-78.3,2022-08-17 14:01:02.203125
494,-89.47,2022-08-17 14:01:02.218750
495,-99.9,2022-08-17 14:01:02.234375
496,-110.44,2022-08-17 14:01:02.250000
497,-121.57,2022-08-17 14:01:02.265625
498,-132.46,2022-08-17 14:01:02.281250
499,-140.35,2022-08-17 14:01:02.296875
500,-141.31,2022-08-17 14:01:02.312500
501,-131.75,2022-08-17 14:01:02.328125
502,-110.46,2022-08-17 14:01:02.343750
503,-80.15,2022-08-17 14:01:02.359375
504,-47.0,2022-08-17 14:01:02.375000
505,-18.28,2022-08-17 14:01:02.390625
506,0.05,2022-08-17 14:01:02.406250
507,5.76,2022-08-17 14:01:02.421875
508,0.65,2022-08-17 14:01:02.437500
509,-11.17,2022-08-17 14:01:02.453125
510,-25.62,2022-08-17 14:01:02.468750
511,-40.09,2022-08-17 14:01:02.484375
512,-53.63,2022-08-17 14:01:02.500000
513,-65.88,2022-08-17 14:01:02.515625
514,-75.63,2022-08-17 14:01:02.531250
515,-80.92,2022-08-17 14:01:02.546875
516,-79.55,2022-08-17 14:01:02.562500
517,-70.25,2022-08-17 14:01:02.578125
518,-53.37,2022-08-17 14:01:02.593750
519,-30.87,2022-08-17 14:01:02.609375
520,-5.52,2022-08-17 14:01:02.625000
521,19.72,2022-08-17 14:01:02.640625
522,42.77,2022-08-17 14:01:02.656250
523,62.78,2022-08-17 14:01:02.671875
524,79.69,2022-08-17 14:01:02.687500
525,93.7,2022-08-17 14:01:02.703125
526,104.89,2022-08-17 14:01:02.718750
527,112.93,2022-08-17 14:01:02.734375
528,117.32,2022-08-17 14:01:02.750000
529,118.15,2022-08-17 14:01:02.765625
530,115.12,2022-08-17 14:01:02.781250
531,109.02,2022-08-17 14:01:02.796875
532,101.19,2022-08-17 14:01:02.812500
533,93.12,2022-08-17 14:01:02.828125
534,85.91,2022-08-17 14:01:02.843750
535,80.09,2022-08-17 14:01:02.859375
536,75.54,2022-08-17 14:01:02.875000
537,71.66,2022-08-17 14:01:02.890625
538,67.79,2022-08-17 14:01:02.906250
539,63.31,2022-08-17 14:01:02.921875
540,58.19,2022-08-17 14:01:02.937500
541,52.83,2022-08-17 14:01:02.953125
542,47.69,2022-08-17 14:01:02.968750
543,43.16,2022-08-17 14:01:02.984375
544,39.43,2022-08-17 14:01:03.000000
545,36.41,2022-08-17 14:01:03.015625
546,33.78,2022-08-17 14:01:03.031250
547,31.23,2022-08-17 14:01:03.046875
548,28.49,2022-08-17 14:01:03.062500
549,25.6,2022-08-17 14:01:03.078125
550,22.79,2022-08-17 14:01:03.093750
551,20.34,2022-08-17 14:01:03.109375
552,18.5,2022-08-17 14:01:03.125000
553,17.55,2022-08-17 14:01:03.140625
554,17.68,2022-08-17 14:01:03.156250
555,18.87,2022-08-17 14:01:03.171875
556,21.05,2022-08-17 14:01:03.187500
557,23.99,2022-08-17 14:01:03.203125
558,27.42,2022-08-17 14:01:03.218750
559,30.91,2022-08-17 14:01:03.234375
560,34.34,2022-08-17 14:01:03.250000
561,36.85,2022-08-17 14:01:03.265625
562,37.84,2022-08-17 14:01:03.281250
563,36.82,2022-08-17 14:01:03.296875
564,33.5,2022-08-17 14:01:03.312500
565,27.84,2022-08-17 14:01:03.328125
566,19.97,2022-08-17 14:01:03.343750
567,10.3,2022-08-17 14:01:03.359375
568,-0.61,2022-08-17 14:01:03.375000
569,-12.09,2022-08-17 14:01:03.390625
570,-23.44,2022-08-17 14:01:03.406250
571,-33.9,2022-08-17 14:01:03.421875
572,-42.82,2022-08-17 14:01:03.437500
573,-49.74,2022-08-17 14:01:03.453125
574,-54.29,2022-08-17 14:01:03.468750
575,-56.42,2022-08-17 14:01:03.484375
576,-56.22,2022-08-17 14:01:03.500000
577,-53.97,2022-08-17 14:01:03.515625
578,-50.14,2022-08-17 14:01:03.531250
579,-45.38,2022-08-17 14:01:03.546875
580,-40.19,2022-08-17 14:01:03.562500
581,-35.07,2022-08-17 14:01:03.578125
582,-30.46,2022-08-17 14:01:03.593750
583,-26.66,2022-08-17 14:01:03.609375
584,-23.9,2022-08-17 14:01:03.625000
585,-22.27,2022-08-17 14:01:03.640625
586,-21.76,2022-08-17 14:01:03.656250
587,-22.3,2022-08-17 14:01:03.671875
588,-23.84,2022-08-17 14:01:03.687500
589,-26.05,2022-08-17 14:01:03.703125
590,-28.61,2022-08-17 14:01:03.718750
591,-31.26,2022-08-17 14:01:03.734375
592,-33.85,2022-08-17 14:01:03.750000
593,-36.24,2022-08-17 14:01:03.765625
594,-38.39,2022-08-17 14:01:03.781250
595,-40.41,2022-08-17 14:01:03.796875
596,-42.49,2022-08-17 14:01:03.812500
597,-45.0,2022-08-17 14:01:03.828125
598,-47.87,2022-08-17 14:01:03.843750
599,-50.99,2022-08-17 14:01:03.859375
600,-54.22,2022-08-17 14:01:03.875000
601,-57.4,2022-08-17 14:01:03.890625
602,-60.4,2022-08-17 14:01:03.906250
603,-63.23,2022-08-17 14:01:03.921875
604,-66.14,2022-08-17 14:01:03.937500
605,-69.52,2022-08-17 14:01:03.953125
606,-73.9,2022-08-17 14:01:03.968750
607,-79.04,2022-08-17 14:01:03.984375
608,-84.54,2022-08-17 14:01:04.000000
609,-89.71,2022-08-17 14:01:04.015625
610,-93.65,2022-08-17 14:01:04.031250
611,-95.48,2022-08-17 14:01:04.046875
612,-94.71,2022-08-17 14:01:04.062500
613,-91.4,2022-08-17 14:01:04.078125
614,-86.18,2022-08-17 14:01:04.093750
615,-80.16,2022-08-17 14:01:04.109375
616,-73.64,2022-08-17 14:01:04.125000
617,-66.81,2022-08-17 14:01:04.140625
618,-59.49,2022-08-17 14:01:04.156250
619,-51.05,2022-08-17 14:01:04.171875
620,-40.62,2022-08-17 14:01:04.187500
621,-27.41,2022-08-17 14:01:04.203125
622,-10.66,2022-08-17 14:01:04.218750
623,10.66,2022-08-17 14:01:04.234375
624,32.48,2022-08-17 14:01:04.250000
625,53.41,2022-08-17 14:01:04.265625
626,73.08,2022-08-17 14:01:04.281250
627,91.82,2022-08-17 14:01:04.296875
628,110.5,2022-08-17 14:01:04.312500
629,130.31,2022-08-17 14:01:04.328125
630,152.36,2022-08-17 14:01:04.343750
631,177.56,2022-08-17 14:01:04.359375
632,206.11,2022-08-17 14:01:04.375000
633,236.91,2022-08-17 14:01:04.390625
634,267.89,2022-08-17 14:01:04.406250
635,295.15,2022-08-17 14:01:04.421875
636,313.84,2022-08-17 14:01:04.437500
637,319.98,2022-08-17 14:01:04.453125
638,312.06,2022-08-17 14:01:04.468750
639,291.62,2022-08-17 14:01:04.484375
640,262.72,2022-08-17 14:01:04.500000
641,230.3,2022-08-17 14:01:04.515625
642,198.34,2022-08-17 14:01:04.531250
643,169.46,2022-08-17 14:01:04.546875
644,144.23,2022-08-17 14:01:04.562500
645,122.06,2022-08-17 14:01:04.578125
646,102.38,2022-08-17 14:01:04.593750
647,85.05,2022-08-17 14:01:04.609375
648,70.16,2022-08-17 14:01:04.625000
649,57.62,2022-08-17 14:01:04.640625
650,46.74,2022-08-17 14:01:04.656250
651,36.37,2022-08-17 14:01:04.671875
652,25.77,2022-08-17 14:01:04.687500
653,14.71,2022-08-17 14:01:04.703125
654,3.49,2022-08-17 14:01:04.718750
655,-7.16,2022-08-17 14:01:04.734375
656,-16.38,2022-08-17 14:01:04.750000
657,-23.76,2022-08-17 14:01:04.765625
658,-29.47,2022-08-17 14:01:04.781250
659,-34.3,2022-08-17 14:01:04.796875
660,-39.43,2022-08-17 14:01:04.812500
661,-45.82,2022-08-17 14:01:04.828125
662,-54.03,2022-08-17 14:01:04.843750
663,-64.09,2022-08-17 14:01:04.859375
664,-75.47,2022-08-17 14:01:04.875000
665,-87.26,2022-08-17 14:01:04.890625
666,-98.57,2022-08-17 14:01:04.906250
667,-108.68,2022-08-17 14:01:04.921875
668,-117.2,2022-08-17 14:01:04.937500
669,-123.94,2022-08-17 14:01:04.953125
670,-128.69,2022-08-17 14:01:04.968750
671,-131.13,2022-08-17 14:01:04.984375
672,-130.85,2022-08-17 14:01:05.000000
673,-127.46,2022-08-17 14:01:05.015625
674,-120.8,2022-08-17 14:01:05.031250
675,-111.2,2022-08-17 14:01:05.046875
676,-99.41,2022-08-17 14:01:05.062500
677,-86.61,2022-08-17 14:01:05.078125
678,-74.06,2022-08-17 14:01:05.093750
679,-62.84,2022-08-17 14:01:05.109375
680,-53.57,2022-08-17 14:01:05.125000
681,-46.36,2022-08-17 14:01:05.140625
682,-40.91,2022-08-17 14:01:05.156250
683,-36.69,2022-08-17 14:01:05.171875
684,-33.26,2022-08-17 14:01:05.187500
685,-30.32,2022-08-17 14:01:05.203125
686,-27.65,2022-08-17 14:01:05.218750
687,-25.2,2022-08-17 14:01:05.234375
688,-22.93,2022-08-17 14:01:05.250000
689,-20.75,2022-08-17 14:01:05.265625
690,-18.59,2022-08-17 14:01:05.281250
691,-16.39,2022-08-17 14:01:05.296875
692,-14.13,2022-08-17 14:01:05.312500
693,-11.96,2022-08-17 14:01:05.328125
694,-10.0,2022-08-17 14:01:05.343750
695,-8.31,2022-08-17 14:01:05.359375
696,-6.91,2022-08-17 14:01:05.375000
697,-5.72,2022-08-17 14:01:05.390625
698,-4.66,2022-08-17 14:01:05.406250
699,-3.71,2022-08-17 14:01:05.421875
700,-2.92,2022-08-17 14:01:05.437500
701,-2.38,2022-08-17 14:01:05.453125
702,-2.16,2022-08-17 14:01:05.468750
703,-2.25,2022-08-17 14:01:05.484375
704,-2.55,2022-08-17 14:01:05.500000
705,-2.85,2022-08-17 14:01:05.515625
706,-2.95,2022-08-17 14:01:05.531250
707,-2.71,2022-08-17 14:01:05.546875
708,-2.12,2022-08-17 14:01:05.562500
709,-1.33,2022-08-17 14:01:05.578125
710,-0.58,2022-08-17 14:01:05.593750
711,-0.14,2022-08-17 14:01:05.609375
712,-0.12,2022-08-17 14:01:05.625000
713,-0.47,2022-08-17 14:01:05.640625
714,-0.93,2022-08-17 14:01:05.656250
715,-1.19,2022-08-17 14:01:05.671875
716,-1.0,2022-08-17 14:01:05.687500
717,-0.28,2022-08-17 14:01:05.703125
718,0.9,2022-08-17 14:01:05.718750
719,2.33,2022-08-17 14:01:05.734375
720,3.8,2022-08-17 14:01:05.750000
721,5.07,2022-08-17 14:01:05.765625
722,5.89,2022-08-17 14:01:05.781250
723,6.01,2022-08-17 14:01:05.796875
724,5.16,2022-08-17 14:01:05.812500
725,3.16,2022-08-17 14:01:05.828125
726,-0.01,2022-08-17 14:01:05.843750
727,-4.17,2022-08-17 14:01:05.859375
728,-8.94,2022-08-17 14:01:05.875000
729,-13.95,2022-08-17 14:01:05.890625
730,-18.79,2022-08-17 14:01:05.906250
731,-23.14,2022-08-17 14:01:05.921875
732,-26.7,2022-08-17 14:01:05.937500
733,-29.28,2022-08-17 14:01:05.953125
734,-30.85,2022-08-17 14:01:05.968750
735,-31.57,2022-08-17 14:01:05.984375
736,-31.73,2022-08-17 14:01:06.000000
737,-31.57,2022-08-17 14:01:06.015625
738,-31.09,2022-08-17 14:01:06.031250
739,-29.93,2022-08-17 14:01:06.046875
740,-27.56,2022-08-17 14:01:06.062500
741,-23.47,2022-08-17 14:01:06.078125
742,-17.52,2022-08-17 14:01:06.093750
743,-9.97,2022-08-17 14:01:06.109375
744,-1.47,2022-08-17 14:01:06.125000
745,7.14,2022-08-17 14:01:06.140625
746,15.06,2022-08-17 14:01:06.156250
747,21.69,2022-08-17 14:01:06.171875
748,26.6,2022-08-17 14:01:06.187500
749,29.65,2022-08-17 14:01:06.203125
750,30.94,2022-08-17 14:01:06.218750
751,30.82,2022-08-17 14:01:06.234375
752,29.81,2022-08-17 14:01:06.250000
753,28.43,2022-08-17 14:01:06.265625
754,27.05,2022-08-17 14:01:06.281250
755,25.78,2022-08-17 14:01:06.296875
756,24.52,2022-08-17 14:01:06.312500
757,23.16,2022-08-17 14:01:06.328125
758,21.62,2022-08-17 14:01:06.343750
759,19.91,2022-08-17 14:01:06.359375
760,18.09,2022-08-17 14:01:06.375000
761,16.19,2022-08-17 14:01:06.390625
762,14.2,2022-08-17 14:01:06.406250
763,12.09,2022-08-17 14:01:06.421875
764,9.92,2022-08-17 14:01:06.437500
765,7.8,2022-08-17 14:01:06.453125
766,5.83,2022-08-17 14:01:06.468750
767,4.07,2022-08-17 14:01:06.484375
768,2.51,2022-08-17 14:01:06.500000
769,1.11,2022-08-17 14:01:06.515625
770,-0.09,2022-08-17 14:01:06.531250
771,-1.06,2022-08-17 14:01:06.546875
772,-1.77,2022-08-17 14:01:06.562500
773,-2.3,2022-08-17 14:01:06.578125
774,-2.85,2022-08-17 14:01:06.593750
775,-3.59,2022-08-17 14:01:06.609375
776,-4.6,2022-08-17 14:01:06.625000
777,-5.75,2022-08-17 14:01:06.640625
778,-6.88,2022-08-17 14:01:06.656250
779,-7.76,2022-08-17 14:01:06.671875
780,-8.33,2022-08-17 14:01:06.687500
781,-8.72,2022-08-17 14:01:06.703125
782,-9.11,2022-08-17 14:01:06.718750
783,-9.6,2022-08-17 14:01:06.734375
784,-10.06,2022-08-17 14:01:06.750000
785,-10.25,2022-08-17 14:01:06.765625
786,-9.86,2022-08-17 14:01:06.781250
787,-8.81,2022-08-17 14:01:06.796875
788,-7.16,2022-08-17 14:01:06.812500
789,-5.17,2022-08-17 14:01:06.828125
790,-3.1,2022-08-17 14:01:06.843750
791,-1.13,2022-08-17 14:01:06.859375
792,0.57,2022-08-17 14:01:06.875000
793,1.89,2022-08-17 14:01:06.890625
794,2.69,2022-08-17 14:01:06.906250
795,2.86,2022-08-17 14:01:06.921875
796,2.37,2022-08-17 14:01:06.937500
797,1.37,2022-08-17 14:01:06.953125
798,0.13,2022-08-17 14:01:06.968750
799,-1.05,2022-08-17 14:01:06.984375
800,-1.95,2022-08-17 14:01:07.000000
801,-2.62,2022-08-17 14:01:07.015625
802,-3.17,2022-08-17 14:01:07.031250
803,-3.7,2022-08-17 14:01:07.046875
804,-4.2,2022-08-17 14:01:07.062500
805,-4.49,2022-08-17 14:01:07.078125
806,-4.4,2022-08-17 14:01:07.093750
807,-3.89,2022-08-17 14:01:07.109375
808,-3.07,2022-08-17 14:01:07.125000
809,-2.1,2022-08-17 14:01:07.140625
810,-1.17,2022-08-17 14:01:07.156250
811,-0.29,2022-08-17 14:01:07.171875
812,0.61,2022-08-17 14:01:07.187500
813,1.58,2022-08-17 14:01:07.203125
814,2.61,2022-08-17 14:01:07.218750
815,3.59,2022-08-17 14:01:07.234375
816,4.38,2022-08-17 14:01:07.250000
817,4.83,2022-08-17 14:01:07.265625
818,5.0,2022-08-17 14:01:07.281250
819,4.98,2022-08-17 14:01:07.296875
820,4.97,2022-08-17 14:01:07.312500
821,5.14,2022-08-17 14:01:07.328125
822,5.54,2022-08-17 14:01:07.343750
823,6.12,2022-08-17 14:01:07.359375
824,6.82,2022-08-17 14:01:07.375000
825,7.55,2022-08-17 14:01:07.390625
826,8.21,2022-08-17 14:01:07.406250
827,8.71,2022-08-17 14:01:07.421875
828,8.93,2022-08-17 14:01:07.437500
829,8.92,2022-08-17 14:01:07.453125
830,8.79,2022-08-17 14:01:07.468750
831,8.56,2022-08-17 14:01:07.484375
832,8.33,2022-08-17 14:01:07.500000
833,8.13,2022-08-17 14:01:07.515625
834,8.0,2022-08-17 14:01:07.531250
835,7.98,2022-08-17 14:01:07.546875
836,8.19,2022-08-17 14:01:07.562500
837,8.74,2022-08-17 14:01:07.578125
838,9.82,2022-08-17 14:01:07.593750
839,11.59,2022-08-17 14:01:07.609375
840,13.87,2022-08-17 14:01:07.625000
841,16.44,2022-08-17 14:01:07.640625
842,19.09,2022-08-17 14:01:07.656250
843,21.73,2022-08-17 14:01:07.671875
844,24.34,2022-08-17 14:01:07.687500
845,27.0,2022-08-17 14:01:07.703125
846,29.65,2022-08-17 14:01:07.718750
847,32.42,2022-08-17 14:01:07.734375
848,35.35,2022-08-17 14:01:07.750000
849,37.92,2022-08-17 14:01:07.765625
850,39.69,2022-08-17 14:01:07.781250
851,40.61,2022-08-17 14:01:07.796875
852,41.07,2022-08-17 14:01:07.812500
853,41.76,2022-08-17 14:01:07.828125
854,43.05,2022-08-17 14:01:07.843750
855,44.82,2022-08-17 14:01:07.859375
856,46.9,2022-08-17 14:01:07.875000
857,48.89,2022-08-17 14:01:07.890625
858,49.56,2022-08-17 14:01:07.906250
859,48.09,2022-08-17 14:01:07.921875
860,44.7,2022-08-17 14:01:07.937500
861,40.73,2022-08-17 14:01:07.953125
862,37.92,2022-08-17 14:01:07.968750
863,37.34,2022-08-17 14:01:07.984375
864,39.02,2022-08-17 14:01:08.000000
865,43.02,2022-08-17 14:01:08.015625
866,48.63,2022-08-17 14:01:08.031250
867,53.52,2022-08-17 14:01:08.046875
868,55.36,2022-08-17 14:01:08.062500
869,52.78,2022-08-17 14:01:08.078125
870,45.97,2022-08-17 14:01:08.093750
871,36.19,2022-08-17 14:01:08.109375
872,24.68,2022-08-17 14:01:08.125000
873,12.16,2022-08-17 14:01:08.140625
874,0.01,2022-08-17 14:01:08.156250
875,-11.86,2022-08-17 14:01:08.171875
876,-26.66,2022-08-17 14:01:08.187500
877,-48.89,2022-08-17 14:01:08.203125
878,-82.62,2022-08-17 14:01:08.218750
879,-129.51,2022-08-17 14:01:08.234375
880,-188.44,2022-08-17 14:01:08.250000
881,-256.56,2022-08-17 14:01:08.265625
882,-330.15,2022-08-17 14:01:08.281250
883,-403.39,2022-08-17 14:01:08.296875
884,-456.61,2022-08-17 14:01:08.312500
885,-471.8,2022-08-17 14:01:08.328125
886,-441.6,2022-08-17 14:01:08.343750
887,-375.03,2022-08-17 14:01:08.359375
888,-290.45,2022-08-17 14:01:08.375000
889,-204.03,2022-08-17 14:01:08.390625
890,-125.03,2022-08-17 14:01:08.406250
891,-63.56,2022-08-17 14:01:08.421875
892,-14.97,2022-08-17 14:01:08.437500
893,24.19,2022-08-17 14:01:08.453125
894,53.77,2022-08-17 14:01:08.468750
895,73.28,2022-08-17 14:01:08.484375
896,84.39,2022-08-17 14:01:08.500000
897,92.65,2022-08-17 14:01:08.515625
898,106.19,2022-08-17 14:01:08.531250
899,131.0,2022-08-17 14:01:08.546875
900,166.26,2022-08-17 14:01:08.562500
901,205.83,2022-08-17 14:01:08.578125
902,239.08,2022-08-17 14:01:08.593750
903,256.04,2022-08-17 14:01:08.609375
904,252.64,2022-08-17 14:01:08.625000
905,231.28,2022-08-17 14:01:08.640625
906,198.88,2022-08-17 14:01:08.656250
907,163.27,2022-08-17 14:01:08.671875
908,131.92,2022-08-17 14:01:08.687500
909,105.76,2022-08-17 14:01:08.703125
910,86.26,2022-08-17 14:01:08.718750
911,74.95,2022-08-17 14:01:08.734375
912,72.73,2022-08-17 14:01:08.750000
913,79.2,2022-08-17 14:01:08.765625
914,91.81,2022-08-17 14:01:08.781250
915,106.16,2022-08-17 14:01:08.796875
916,116.56,2022-08-17 14:01:08.812500
917,115.66,2022-08-17 14:01:08.828125
918,97.23,2022-08-17 14:01:08.843750
919,58.71,2022-08-17 14:01:08.859375
920,4.73,2022-08-17 14:01:08.875000
921,-53.0,2022-08-17 14:01:08.890625
922,-100.33,2022-08-17 14:01:08.906250
923,-127.87,2022-08-17 14:01:08.921875
924,-134.29,2022-08-17 14:01:08.937500
925,-125.29,2022-08-17 14:01:08.953125
926,-109.33,2022-08-17 14:01:08.968750
927,-93.24,2022-08-17 14:01:08.984375
928,-79.24,2022-08-17 14:01:09.000000
929,-66.43,2022-08-17 14:01:09.015625
930,-53.34,2022-08-17 14:01:09.031250
931,-39.94,2022-08-17 14:01:09.046875
932,-28.1,2022-08-17 14:01:09.062500
933,-19.97,2022-08-17 14:01:09.078125
934,-16.6,2022-08-17 14:01:09.093750
935,-17.45,2022-08-17 14:01:09.109375
936,-20.59,2022-08-17 14:01:09.125000
937,-23.25,2022-08-17 14:01:09.140625
938,-23.19,2022-08-17 14:01:09.156250
939,-19.74,2022-08-17 14:01:09.171875
940,-13.94,2022-08-17 14:01:09.187500
941,-8.0,2022-08-17 14:01:09.203125
942,-3.94,2022-08-17 14:01:09.218750
943,-2.7,2022-08-17 14:01:09.234375
944,-3.91,2022-08-17 14:01:09.250000
945,-6.21,2022-08-17 14:01:09.265625
946,-7.99,2022-08-17 14:01:09.281250
947,-7.97,2022-08-17 14:01:09.296875
948,-5.95,2022-08-17 14:01:09.312500
949,-2.77,2022-08-17 14:01:09.328125
950,0.2,2022-08-17 14:01:09.343750
951,1.86,2022-08-17 14:01:09.359375
952,1.86,2022-08-17 14:01:09.375000
953,0.66,2022-08-17 14:01:09.390625
954,-0.86,2022-08-17 14:01:09.406250
955,-1.84,2022-08-17 14:01:09.421875
956,-1.86,2022-08-17 14:01:09.437500
957,-1.1,2022-08-17 14:01:09.453125
958,-0.13,2022-08-17 14:01:09.468750
959,0.37,2022-08-17 14:01:09.484375
960,0.08,2022-08-17 14:01:09.500000
961,-0.88,2022-08-17 14:01:09.515625
962,-2.09,2022-08-17 14:01:09.531250
963,-2.99,2022-08-17 14:01:09.546875
964,-3.19,2022-08-17 14:01:09.562500
965,-2.57,2022-08-17 14:01:09.578125
966,-1.19,2022-08-17 14:01:09.593750
967,0.83,2022-08-17 14:01:09.609375
968,3.47,2022-08-17 14:01:09.625000
969,6.86,2022-08-17 14:01:09.640625
970,11.04,2022-08-17 14:01:09.656250
971,15.84,2022-08-17 14:01:09.671875
972,20.76,2022-08-17 14:01:09.687500
973,25.05,2022-08-17 14:01:09.703125
974,27.93,2022-08-17 14:01:09.718750
975,28.91,2022-08-17 14:01:09.734375
976,27.71,2022-08-17 14:01:09.750000
977,23.93,2022-08-17 14:01:09.765625
978,17.01,2022-08-17 14:01:09.781250
979,6.22,2022-08-17 14:01:09.796875
980,-8.46,2022-08-17 14:01:09.812500
981,-25.55,2022-08-17 14:01:09.828125
982,-41.68,2022-08-17 14:01:09.843750
983,-52.64,2022-08-17 14:01:09.859375
984,-55.15,2022-08-17 14:01:09.875000
985,-48.63,2022-08-17 14:01:09.890625
986,-35.61,2022-08-17 14:01:09.906250
987,-20.49,2022-08-17 14:01:09.921875
988,-7.39,2022-08-17 14:01:09.937500
989,1.45,2022-08-17 14:01:09.953125
990,6.19,2022-08-17 14:01:09.968750
991,8.21,2022-08-17 14:01:09.984375
992,8.51,2022-08-17 14:01:10.000000
993,6.96,2022-08-17 14:01:10.015625
994,2.86,2022-08-17 14:01:10.031250
995,-3.62,2022-08-17 14:01:10.046875
996,-10.41,2022-08-17 14:01:10.062500
997,-14.16,2022-08-17 14:01:10.078125
998,-12.12,2022-08-17 14:01:10.093750
999,-4.11,2022-08-17 14:01:10.109375
1000,6.85,2022-08-17 14:01:10.125000
1001,16.16,2022-08-17 14:01:10.140625
1002,20.08,2022-08-17 14:01:10.156250
1003,17.88,2022-08-17 14:01:10.171875
1004,12.09,2022-08-17 14:01:10.187500
1005,6.83,2022-08-17 14:01:10.203125
1006,5.43,2022-08-17 14:01:10.218750
1007,8.68,2022-08-17 14:01:10.234375
1008,14.82,2022-08-17 14:01:10.250000
1009,20.63,2022-08-17 14:01:10.265625
1010,23.47,2022-08-17 14:01:10.281250
1011,22.42,2022-08-17 14:01:10.296875
1012,18.48,2022-08-17 14:01:10.312500
1013,13.49,2022-08-17 14:01:10.328125
1014,8.78,2022-08-17 14:01:10.343750
1015,4.29,2022-08-17 14:01:10.359375
1016,-1.23,2022-08-17 14:01:10.375000
1017,-9.16,2022-08-17 14:01:10.390625
1018,-20.04,2022-08-17 14:01:10.406250
1019,-33.04,2022-08-17 14:01:10.421875
1020,-46.04,2022-08-17 14:01:10.437500
1021,-56.35,2022-08-17 14:01:10.453125
1022,-61.6,2022-08-17 14:01:10.468750
1023,-60.69,2022-08-17 14:01:10.484375
1024,-54.0,2022-08-17 14:01:10.500000
1025,-42.91,2022-08-17 14:01:10.515625
1026,-29.02,2022-08-17 14:01:10.531250
1027,-13.39,2022-08-17 14:01:10.546875
1028,3.98,2022-08-17 14:01:10.562500
1029,22.7,2022-08-17 14:01:10.578125
1030,41.95,2022-08-17 14:01:10.593750
1031,60.52,2022-08-17 14:01:10.609375
1032,76.86,2022-08-17 14:01:10.625000
1033,89.51,2022-08-17 14:01:10.640625
1034,97.46,2022-08-17 14:01:10.656250
1035,100.54,2022-08-17 14:01:10.671875
1036,99.44,2022-08-17 14:01:10.687500
1037,95.46,2022-08-17 14:01:10.703125
1038,90.12,2022-08-17 14:01:10.718750
1039,84.81,2022-08-17 14:01:10.734375
1040,80.53,2022-08-17 14:01:10.750000
1041,77.61,2022-08-17 14:01:10.765625
1042,75.83,2022-08-17 14:01:10.781250
1043,74.64,2022-08-17 14:01:10.796875
1044,73.29,2022-08-17 14:01:10.812500
1045,71.03,2022-08-17 14:01:10.828125
1046,67.18,2022-08-17 14:01:10.843750
1047,61.13,2022-08-17 14:01:10.859375
1048,52.52,2022-08-17 14:01:10.875000
1049,41.33,2022-08-17 14:01:10.890625
1050,27.92,2022-08-17 14:01:10.906250
1051,13.0,2022-08-17 14:01:10.921875
1052,-2.61,2022-08-17 14:01:10.937500
1053,-18.35,2022-08-17 14:01:10.953125
1054,-34.18,2022-08-17 14:01:10.968750
1055,-50.57,2022-08-17 14:01:10.984375
1056,-68.06,2022-08-17 14:01:11.000000
1057,-86.69,2022-08-17 14:01:11.015625
1058,-105.58,2022-08-17 14:01:11.031250
1059,-123.13,2022-08-17 14:01:11.046875
1060,-137.65,2022-08-17 14:01:11.062500
1061,-147.99,2022-08-17 14:01:11.078125
1062,-153.94,2022-08-17 14:01:11.093750
1063,-155.98,2022-08-17 14:01:11.109375
1064,-154.79,2022-08-17 14:01:11.125000
1065,-150.89,2022-08-17 14:01:11.140625
1066,-144.71,2022-08-17 14:01:11.156250
1067,-136.98,2022-08-17 14:01:11.171875
1068,-129.08,2022-08-17 14:01:11.187500
1069,-122.76,2022-08-17 14:01:11.203125
1070,-119.2,2022-08-17 14:01:11.218750
1071,-118.1,2022-08-17 14:01:11.234375
1072,-117.41,2022-08-17 14:01:11.250000
1073,-113.95,2022-08-17 14:01:11.265625
1074,-104.88,2022-08-17 14:01:11.281250
1075,-88.8,2022-08-17 14:01:11.296875
1076,-66.25,2022-08-17 14:01:11.312500
1077,-39.05,2022-08-17 14:01:11.328125
1078,-9.33,2022-08-17 14:01:11.343750
1079,21.19,2022-08-17 14:01:11.359375
1080,51.22,2022-08-17 14:01:11.375000
1081,79.43,2022-08-17 14:01:11.390625
1082,104.06,2022-08-17 14:01:11.406250
1083,122.96,2022-08-17 14:01:11.421875
1084,134.24,2022-08-17 14:01:11.437500
1085,137.01,2022-08-17 14:01:11.453125
1086,131.9,2022-08-17 14:01:11.468750
1087,120.81,2022-08-17 14:01:11.484375
1088,106.29,2022-08-17 14:01:11.500000
1089,90.7,2022-08-17 14:01:11.515625
1090,75.67,2022-08-17 14:01:11.531250
1091,61.94,2022-08-17 14:01:11.546875
1092,49.45,2022-08-17 14:01:11.562500
1093,37.66,2022-08-17 14:01:11.578125
1094,25.93,2022-08-17 14:01:11.593750
1095,13.92,2022-08-17 14:01:11.609375
1096,1.82,2022-08-17 14:01:11.625000
1097,-9.61,2022-08-17 14:01:11.640625
1098,-19.37,2022-08-17 14:01:11.656250
1099,-26.66,2022-08-17 14:01:11.671875
1100,-31.24,2022-08-17 14:01:11.687500
1101,-33.51,2022-08-17 14:01:11.703125
1102,-34.28,2022-08-17 14:01:11.718750
1103,-34.29,2022-08-17 14:01:11.734375
1104,-33.82,2022-08-17 14:01:11.750000
1105,-32.68,2022-08-17 14:01:11.765625
1106,-30.39,2022-08-17 14:01:11.781250
1107,-26.59,2022-08-17 14:01:11.796875
1108,-21.34,2022-08-17 14:01:11.812500
1109,-15.18,2022-08-17 14:01:11.828125
1110,-8.9,2022-08-17 14:01:11.843750
1111,-3.34,2022-08-17 14:01:11.859375
1112,0.89,2022-08-17 14:01:11.875000
1113,3.41,2022-08-17 14:01:11.890625
1114,4.17,2022-08-17 14:01:11.906250
1115,3.49,2022-08-17 14:01:11.921875
1116,1.98,2022-08-17 14:01:11.937500
1117,0.39,2022-08-17 14:01:11.953125
1118,-0.63,2022-08-17 14:01:11.968750
1119,-0.72,2022-08-17 14:01:11.984375
1120,0.08,2022-08-17 14:01:12.000000
1121,1.43,2022-08-17 14:01:12.015625
1122,2.9,2022-08-17 14:01:12.031250
1123,4.25,2022-08-17 14:01:12.046875
1124,5.64,2022-08-17 14:01:12.062500
1125,7.52,2022-08-17 14:01:12.078125
1126,10.27,2022-08-17 14:01:12.093750
1127,13.98,2022-08-17 14:01:12.109375
1128,18.2,2022-08-17 14:01:12.125000
1129,22.15,2022-08-17 14:01:12.140625
1130,25.03,2022-08-17 14:01:12.156250
1131,26.4,2022-08-17 14:01:12.171875
1132,26.3,2022-08-17 14:01:12.187500
1133,25.12,2022-08-17 14:01:12.203125
1134,23.18,2022-08-17 14:01:12.218750
1135,20.49,2022-08-17 14:01:12.234375
1136,16.8,2022-08-17 14:01:12.250000
1137,11.9,2022-08-17 14:01:12.265625
1138,6.06,2022-08-17 14:01:12.281250
1139,0.14,2022-08-17 14:01:12.296875
1140,-4.7,2022-08-17 14:01:12.312500
1141,-7.58,2022-08-17 14:01:12.328125
1142,-8.43,2022-08-17 14:01:12.343750
1143,-8.12,2022-08-17 14:01:12.359375
1144,-7.99,2022-08-17 14:01:12.375000
1145,-9.14,2022-08-17 14:01:12.390625
1146,-11.91,2022-08-17 14:01:12.406250
1147,-15.69,2022-08-17 14:01:12.421875
1148,-19.29,2022-08-17 14:01:12.437500
1149,-21.5,2022-08-17 14:01:12.453125
1150,-21.62,2022-08-17 14:01:12.468750
1151,-19.65,2022-08-17 14:01:12.484375
1152,-16.24,2022-08-17 14:01:12.500000
1153,-12.38,2022-08-17 14:01:12.515625
1154,-9.07,2022-08-17 14:01:12.531250
1155,-7.19,2022-08-17 14:01:12.546875
1156,-7.29,2022-08-17 14:01:12.562500
1157,-9.54,2022-08-17 14:01:12.578125
1158,-13.73,2022-08-17 14:01:12.593750
1159,-19.2,2022-08-17 14:01:12.609375
1160,-24.76,2022-08-17 14:01:12.625000
1161,-28.56,2022-08-17 14:01:12.640625
1162,-28.3,2022-08-17 14:01:12.656250
1163,-21.76,2022-08-17 14:01:12.671875
1164,-7.83,2022-08-17 14:01:12.687500
1165,12.82,2022-08-17 14:01:12.703125
1166,37.44,2022-08-17 14:01:12.718750
1167,61.89,2022-08-17 14:01:12.734375
1168,82.0,2022-08-17 14:01:12.750000
1169,94.9,2022-08-17 14:01:12.765625
1170,99.72,2022-08-17 14:01:12.781250
1171,97.39,2022-08-17 14:01:12.796875
1172,89.7,2022-08-17 14:01:12.812500
1173,78.29,2022-08-17 14:01:12.828125
1174,64.31,2022-08-17 14:01:12.843750
1175,48.45,2022-08-17 14:01:12.859375
1176,31.43,2022-08-17 14:01:12.875000
1177,14.15,2022-08-17 14:01:12.890625
1178,-2.54,2022-08-17 14:01:12.906250
1179,-18.32,2022-08-17 14:01:12.921875
1180,-33.68,2022-08-17 14:01:12.937500
1181,-49.67,2022-08-17 14:01:12.953125
1182,-67.29,2022-08-17 14:01:12.968750
1183,-86.75,2022-08-17 14:01:12.984375
1184,-107.11,2022-08-17 14:01:13.000000
1185,-126.51,2022-08-17 14:01:13.015625
1186,-142.83,2022-08-17 14:01:13.031250
1187,-154.61,2022-08-17 14:01:13.046875
1188,-161.61,2022-08-17 14:01:13.062500
1189,-164.91,2022-08-17 14:01:13.078125
1190,-166.46,2022-08-17 14:01:13.093750
1191,-168.09,2022-08-17 14:01:13.109375
1192,-170.45,2022-08-17 14:01:13.125000
1193,-172.22,2022-08-17 14:01:13.140625
1194,-170.09,2022-08-17 14:01:13.156250
1195,-159.58,2022-08-17 14:01:13.171875
1196,-136.66,2022-08-17 14:01:13.187500
1197,-99.39,2022-08-17 14:01:13.203125
1198,-48.91,2022-08-17 14:01:13.218750
1199,10.62,2022-08-17 14:01:13.234375
1200,73.41,2022-08-17 14:01:13.250000
1201,133.8,2022-08-17 14:01:13.265625
1202,187.92,2022-08-17 14:01:13.281250
1203,234.4,2022-08-17 14:01:13.296875
1204,274.13,2022-08-17 14:01:13.312500
1205,309.24,2022-08-17 14:01:13.328125
1206,341.93,2022-08-17 14:01:13.343750
1207,373.25,2022-08-17 14:01:13.359375
1208,402.28,2022-08-17 14:01:13.375000
1209,425.82,2022-08-17 14:01:13.390625
1210,438.84,2022-08-17 14:01:13.406250
1211,435.95,2022-08-17 14:01:13.421875
1212,413.22,2022-08-17 14:01:13.437500
1213,370.11,2022-08-17 14:01:13.453125
1214,310.18,2022-08-17 14:01:13.468750
1215,240.3,2022-08-17 14:01:13.484375
1216,168.62,2022-08-17 14:01:13.500000
1217,102.0,2022-08-17 14:01:13.515625
1218,44.33,2022-08-17 14:01:13.531250
1219,-3.92,2022-08-17 14:01:13.546875
1220,-44.57,2022-08-17 14:01:13.562500
1221,-80.01,2022-08-17 14:01:13.578125
1222,-111.56,2022-08-17 14:01:13.593750
1223,-138.82,2022-08-17 14:01:13.609375
1224,-160.05,2022-08-17 14:01:13.625000
1225,-173.3,2022-08-17 14:01:13.640625
1226,-177.53,2022-08-17 14:01:13.656250
1227,-173.28,2022-08-17 14:01:13.671875
1228,-162.53,2022-08-17 14:01:13.687500
1229,-147.95,2022-08-17 14:01:13.703125
1230,-131.96,2022-08-17 14:01:13.718750
1231,-116.11,2022-08-17 14:01:13.734375
1232,-101.11,2022-08-17 14:01:13.750000
1233,-87.49,2022-08-17 14:01:13.765625
1234,-75.97,2022-08-17 14:01:13.781250
1235,-67.6,2022-08-17 14:01:13.796875
1236,-63.3,2022-08-17 14:01:13.812500
1237,-63.18,2022-08-17 14:01:13.828125
1238,-66.17,2022-08-17 14:01:13.843750
1239,-70.35,2022-08-17 14:01:13.859375
1240,-73.7,2022-08-17 14:01:13.875000
1241,-74.96,2022-08-17 14:01:13.890625
1242,-74.04,2022-08-17 14:01:13.906250
1243,-71.74,2022-08-17 14:01:13.921875
1244,-69.29,2022-08-17 14:01:13.937500
1245,-67.6,2022-08-17 14:01:13.953125
1246,-66.93,2022-08-17 14:01:13.968750
1247,-66.98,2022-08-17 14:01:13.984375
1248,-67.08,2022-08-17 14:01:14.000000
1249,-66.65,2022-08-17 14:01:14.015625
1250,-65.38,2022-08-17 14:01:14.031250
1251,-63.37,2022-08-17 14:01:14.046875
1252,-60.95,2022-08-17 14:01:14.062500
1253,-58.66,2022-08-17 14:01:14.078125
1254,-56.93,2022-08-17 14:01:14.093750
1255,-56.02,2022-08-17 14:01:14.109375
1256,-55.91,2022-08-17 14:01:14.125000
1257,-56.16,2022-08-17 14:01:14.140625
1258,-56.0,2022-08-17 14:01:14.156250
1259,-54.42,2022-08-17 14:01:14.171875
1260,-50.41,2022-08-17 14:01:14.187500
1261,-43.2,2022-08-17 14:01:14.203125
1262,-32.72,2022-08-17 14:01:14.218750
1263,-19.63,2022-08-17 14:01:14.234375
1264,-5.28,2022-08-17 14:01:14.250000
1265,8.57,2022-08-17 14:01:14.265625
1266,20.23,2022-08-17 14:01:14.281250
1267,28.51,2022-08-17 14:01:14.296875
1268,32.81,2022-08-17 14:01:14.312500
1269,32.99,2022-08-17 14:01:14.328125
1270,29.27,2022-08-17 14:01:14.343750
1271,22.23,2022-08-17 14:01:14.359375
1272,13.19,2022-08-17 14:01:14.375000
1273,4.63,2022-08-17 14:01:14.390625
1274,-0.04,2022-08-17 14:01:14.406250
1275,2.62,2022-08-17 14:01:14.421875
1276,14.49,2022-08-17 14:01:14.437500
1277,34.66,2022-08-17 14:01:14.453125
1278,59.19,2022-08-17 14:01:14.468750
1279,82.34,2022-08-17 14:01:14.484375
1280,98.68,2022-08-17 14:01:14.500000
1281,105.03,2022-08-17 14:01:14.515625
1282,101.35,2022-08-17 14:01:14.531250
1283,90.09,2022-08-17 14:01:14.546875
1284,74.62,2022-08-17 14:01:14.562500
1285,57.78,2022-08-17 14:01:14.578125
1286,41.18,2022-08-17 14:01:14.593750
1287,25.45,2022-08-17 14:01:14.609375
1288,10.94,2022-08-17 14:01:14.625000
1289,-1.73,2022-08-17 14:01:14.640625
1290,-11.66,2022-08-17 14:01:14.656250
1291,-18.19,2022-08-17 14:01:14.671875
1292,-21.27,2022-08-17 14:01:14.687500
1293,-21.51,2022-08-17 14:01:14.703125
1294,-19.92,2022-08-17 14:01:14.718750
1295,-17.54,2022-08-17 14:01:14.734375
1296,-15.07,2022-08-17 14:01:14.750000
1297,-12.86,2022-08-17 14:01:14.765625
1298,-10.86,2022-08-17 14:01:14.781250
1299,-8.86,2022-08-17 14:01:14.796875
1300,-6.6,2022-08-17 14:01:14.812500
1301,-4.05,2022-08-17 14:01:14.828125
1302,-1.43,2022-08-17 14:01:14.843750
1303,0.77,2022-08-17 14:01:14.859375
1304,2.07,2022-08-17 14:01:14.875000
1305,2.26,2022-08-17 14:01:14.890625
1306,1.6,2022-08-17 14:01:14.906250
1307,0.79,2022-08-17 14:01:14.921875
1308,0.65,2022-08-17 14:01:14.937500
1309,1.7,2022-08-17 14:01:14.953125
1310,3.84,2022-08-17 14:01:14.968750
1311,6.41,2022-08-17 14:01:14.984375
1312,8.5,2022-08-17 14:01:15.000000
1313,9.43,2022-08-17 14:01:15.015625
1314,9.06,2022-08-17 14:01:15.031250
1315,7.75,2022-08-17 14:01:15.046875
1316,6.13,2022-08-17 14:01:15.062500
1317,4.84,2022-08-17 14:01:15.078125
1318,4.4,2022-08-17 14:01:15.093750
1319,5.15,2022-08-17 14:01:15.109375
1320,7.33,2022-08-17 14:01:15.125000
1321,10.94,2022-08-17 14:01:15.140625
1322,15.64,2022-08-17 14:01:15.156250
1323,20.63,2022-08-17 14:01:15.171875
1324,24.81,2022-08-17 14:01:15.187500
1325,27.12,2022-08-17 14:01:15.203125
1326,26.9,2022-08-17 14:01:15.218750
1327,24.2,2022-08-17 14:01:15.234375
1328,19.68,2022-08-17 14:01:15.250000
1329,14.29,2022-08-17 14:01:15.265625
1330,8.84,2022-08-17 14:01:15.281250
1331,3.77,2022-08-17 14:01:15.296875
1332,-0.84,2022-08-17 14:01:15.312500
1333,-5.03,2022-08-17 14:01:15.328125
1334,-8.7,2022-08-17 14:01:15.343750
1335,-11.63,2022-08-17 14:01:15.359375
1336,-13.64,2022-08-17 14:01:15.375000
1337,-14.8,2022-08-17 14:01:15.390625
1338,-15.5,2022-08-17 14:01:15.406250
1339,-16.27,2022-08-17 14:01:15.421875
1340,-17.46,2022-08-17 14:01:15.437500
1341,-18.97,2022-08-17 14:01:15.453125
1342,-20.28,2022-08-17 14:01:15.468750
1343,-20.76,2022-08-17 14:01:15.484375
1344,-20.15,2022-08-17 14:01:15.500000
1345,-18.85,2022-08-17 14:01:15.515625
1346,-17.81,2022-08-17 14:01:15.531250
1347,-18.1,2022-08-17 14:01:15.546875
1348,-20.28,2022-08-17 14:01:15.562500
1349,-24.12,2022-08-17 14:01:15.578125
1350,-28.59,2022-08-17 14:01:15.593750
1351,-32.3,2022-08-17 14:01:15.609375
1352,-34.06,2022-08-17 14:01:15.625000
1353,-33.27,2022-08-17 14:01:15.640625
1354,-29.98,2022-08-17 14:01:15.656250
1355,-24.65,2022-08-17 14:01:15.671875
1356,-17.95,2022-08-17 14:01:15.687500
1357,-10.51,2022-08-17 14:01:15.703125
1358,-2.88,2022-08-17 14:01:15.718750
1359,4.36,2022-08-17 14:01:15.734375
1360,10.62,2022-08-17 14:01:15.750000
1361,15.38,2022-08-17 14:01:15.765625
1362,18.4,2022-08-17 14:01:15.781250
1363,19.82,2022-08-17 14:01:15.796875
1364,20.19,2022-08-17 14:01:15.812500
1365,20.31,2022-08-17 14:01:15.828125
1366,20.92,2022-08-17 14:01:15.843750
1367,22.49,2022-08-17 14:01:15.859375
1368,25.0,2022-08-17 14:01:15.875000
1369,27.91,2022-08-17 14:01:15.890625
1370,30.4,2022-08-17 14:01:15.906250
1371,31.64,2022-08-17 14:01:15.921875
1372,31.12,2022-08-17 14:01:15.937500
1373,28.93,2022-08-17 14:01:15.953125
1374,25.84,2022-08-17 14:01:15.968750
1375,23.13,2022-08-17 14:01:15.984375
1376,22.16,2022-08-17 14:01:16.000000
1377,23.91,2022-08-17 14:01:16.015625
1378,28.63,2022-08-17 14:01:16.031250
1379,35.67,2022-08-17 14:01:16.046875
1380,43.74,2022-08-17 14:01:16.062500
1381,51.22,2022-08-17 14:01:16.078125
1382,56.59,2022-08-17 14:01:16.093750
1383,58.79,2022-08-17 14:01:16.109375
1384,57.35,2022-08-17 14:01:16.125000
1385,52.33,2022-08-17 14:01:16.140625
1386,44.19,2022-08-17 14:01:16.156250
1387,33.67,2022-08-17 14:01:16.171875
1388,21.58,2022-08-17 14:01:16.187500
1389,8.76,2022-08-17 14:01:16.203125
1390,-3.98,2022-08-17 14:01:16.218750
1391,-15.9,2022-08-17 14:01:16.234375
1392,-26.34,2022-08-17 14:01:16.250000
1393,-34.8,2022-08-17 14:01:16.265625
1394,-40.91,2022-08-17 14:01:16.281250
1395,-44.57,2022-08-17 14:01:16.296875
1396,-45.91,2022-08-17 14:01:16.312500
1397,-45.36,2022-08-17 14:01:16.328125
1398,-43.48,2022-08-17 14:01:16.343750
1399,-40.71,2022-08-17 14:01:16.359375
1400,-37.29,2022-08-17 14:01:16.375000
1401,-33.15,2022-08-17 14:01:16.390625
1402,-28.05,2022-08-17 14:01:16.406250
1403,-21.95,2022-08-17 14:01:16.421875
1404,-15.23,2022-08-17 14:01:16.437500
1405,-8.85,2022-08-17 14:01:16.453125
1406,-4.11,2022-08-17 14:01:16.468750
1407,-2.11,2022-08-17 14:01:16.484375
1408,-3.2,2022-08-17 14:01:16.500000
1409,-6.71,2022-08-17 14:01:16.515625
1410,-11.21,2022-08-17 14:01:16.531250
1411,-15.09,2022-08-17 14:01:16.546875
1412,-17.18,2022-08-17 14:01:16.562500
1413,-17.13,2022-08-17 14:01:16.578125
1414,-15.38,2022-08-17 14:01:16.593750
1415,-12.77,2022-08-17 14:01:16.609375
1416,-10.24,2022-08-17 14:01:16.625000
1417,-8.77,2022-08-17 14:01:16.640625
1418,-9.25,2022-08-17 14:01:16.656250
1419,-12.39,2022-08-17 14:01:16.671875
1420,-18.23,2022-08-17 14:01:16.687500
1421,-25.79,2022-08-17 14:01:16.703125
1422,-32.93,2022-08-17 14:01:16.718750
1423,-36.99,2022-08-17 14:01:16.734375
1424,-35.81,2022-08-17 14:01:16.750000
1425,-28.67,2022-08-17 14:01:16.765625
1426,-16.56,2022-08-17 14:01:16.781250
1427,-1.62,2022-08-17 14:01:16.796875
1428,14.04,2022-08-17 14:01:16.812500
1429,29.2,2022-08-17 14:01:16.828125
1430,43.69,2022-08-17 14:01:16.843750
1431,57.77,2022-08-17 14:01:16.859375
1432,71.21,2022-08-17 14:01:16.875000
1433,82.75,2022-08-17 14:01:16.890625
1434,90.35,2022-08-17 14:01:16.906250
1435,91.96,2022-08-17 14:01:16.921875
1436,86.39,2022-08-17 14:01:16.937500
1437,73.75,2022-08-17 14:01:16.953125
1438,55.41,2022-08-17 14:01:16.968750
1439,33.57,2022-08-17 14:01:16.984375
1440,10.85,2022-08-17 14:01:17.000000
1441,-10.04,2022-08-17 14:01:17.015625
1442,-26.75,2022-08-17 14:01:17.031250
1443,-37.51,2022-08-17 14:01:17.046875
1444,-41.54,2022-08-17 14:01:17.062500
1445,-39.1,2022-08-17 14:01:17.078125
1446,-31.51,2022-08-17 14:01:17.093750
1447,-20.82,2022-08-17 14:01:17.109375
1448,-9.23,2022-08-17 14:01:17.125000
1449,1.32,2022-08-17 14:01:17.140625
1450,9.5,2022-08-17 14:01:17.156250
1451,14.65,2022-08-17 14:01:17.171875
1452,16.79,2022-08-17 14:01:17.187500
1453,16.35,2022-08-17 14:01:17.203125
1454,14.07,2022-08-17 14:01:17.218750
1455,10.86,2022-08-17 14:01:17.234375
1456,7.64,2022-08-17 14:01:17.250000
1457,5.2,2022-08-17 14:01:17.265625
1458,4.14,2022-08-17 14:01:17.281250
1459,4.56,2022-08-17 14:01:17.296875
1460,5.95,2022-08-17 14:01:17.312500
1461,7.3,2022-08-17 14:01:17.328125
1462,7.49,2022-08-17 14:01:17.343750
1463,5.92,2022-08-17 14:01:17.359375
1464,3.04,2022-08-17 14:01:17.375000
1465,0.2,2022-08-17 14:01:17.390625
1466,-0.98,2022-08-17 14:01:17.406250
1467,0.29,2022-08-17 14:01:17.421875
1468,3.34,2022-08-17 14:01:17.437500
1469,6.17,2022-08-17 14:01:17.453125
1470,6.47,2022-08-17 14:01:17.468750
1471,2.72,2022-08-17 14:01:17.484375
1472,-5.22,2022-08-17 14:01:17.500000
1473,-16.28,2022-08-17 14:01:17.515625
1474,-29.34,2022-08-17 14:01:17.531250
1475,-43.86,2022-08-17 14:01:17.546875
1476,-59.97,2022-08-17 14:01:17.562500
1477,-77.56,2022-08-17 14:01:17.578125
1478,-95.1,2022-08-17 14:01:17.593750
1479,-109.32,2022-08-17 14:01:17.609375
1480,-116.08,2022-08-17 14:01:17.625000
1481,-112.01,2022-08-17 14:01:17.640625
1482,-96.15,2022-08-17 14:01:17.656250
1483,-70.56,2022-08-17 14:01:17.671875
1484,-39.38,2022-08-17 14:01:17.687500
1485,-7.24,2022-08-17 14:01:17.703125
1486,22.32,2022-08-17 14:01:17.718750
1487,47.44,2022-08-17 14:01:17.734375
1488,67.47,2022-08-17 14:01:17.750000
1489,81.92,2022-08-17 14:01:17.765625
1490,89.83,2022-08-17 14:01:17.781250
1491,90.03,2022-08-17 14:01:17.796875
1492,82.05,2022-08-17 14:01:17.812500
1493,67.11,2022-08-17 14:01:17.828125
1494,48.37,2022-08-17 14:01:17.843750
1495,29.9,2022-08-17 14:01:17.859375
1496,15.0,2022-08-17 14:01:17.875000
1497,4.71,2022-08-17 14:01:17.890625
1498,-2.47,2022-08-17 14:01:17.906250
1499,-9.43,2022-08-17 14:01:17.921875
1500,-18.4,2022-08-17 14:01:17.937500
1501,-29.39,2022-08-17 14:01:17.953125
1502,-39.83,2022-08-17 14:01:17.968750
1503,-45.75,2022-08-17 14:01:17.984375
1504,-43.98,2022-08-17 14:01:18.000000
1505,-33.77,2022-08-17 14:01:18.015625
1506,-17.13,2022-08-17 14:01:18.031250
1507,2.33,2022-08-17 14:01:18.046875
1508,21.17,2022-08-17 14:01:18.062500
1509,37.4,2022-08-17 14:01:18.078125
1510,50.31,2022-08-17 14:01:18.093750
1511,59.24,2022-08-17 14:01:18.109375
1512,62.06,2022-08-17 14:01:18.125000
1513,54.95,2022-08-17 14:01:18.140625
1514,34.0,2022-08-17 14:01:18.156250
1515,-2.03,2022-08-17 14:01:18.171875
1516,-49.41,2022-08-17 14:01:18.187500
1517,-99.46,2022-08-17 14:01:18.203125
1518,-141.38,2022-08-17 14:01:18.218750
1519,-166.4,2022-08-17 14:01:18.234375
1520,-171.27,2022-08-17 14:01:18.250000
1521,-159.29,2022-08-17 14:01:18.265625
1522,-138.17,2022-08-17 14:01:18.281250
1523,-116.35,2022-08-17 14:01:18.296875
1524,-99.6,2022-08-17 14:01:18.312500
1525,-89.71,2022-08-17 14:01:18.328125
1526,-85.18,2022-08-17 14:01:18.343750
1527,-83.13,2022-08-17 14:01:18.359375
1528,-80.87,2022-08-17 14:01:18.375000
1529,-76.25,2022-08-17 14:01:18.390625
1530,-67.57,2022-08-17 14:01:18.406250
1531,-53.26,2022-08-17 14:01:18.421875
1532,-32.52,2022-08-17 14:01:18.437500
1533,-6.0,2022-08-17 14:01:18.453125
1534,23.52,2022-08-17 14:01:18.468750
1535,51.88,2022-08-17 14:01:18.484375
1536,74.98,2022-08-17 14:01:18.500000
1537,90.44,2022-08-17 14:01:18.515625
1538,98.76,2022-08-17 14:01:18.531250
1539,102.92,2022-08-17 14:01:18.546875
1540,106.96,2022-08-17 14:01:18.562500
1541,113.7,2022-08-17 14:01:18.578125
1542,123.33,2022-08-17 14:01:18.593750
1543,132.89,2022-08-17 14:01:18.609375
1544,137.55,2022-08-17 14:01:18.625000
1545,132.76,2022-08-17 14:01:18.640625
1546,116.23,2022-08-17 14:01:18.656250
1547,89.02,2022-08-17 14:01:18.671875
1548,55.17,2022-08-17 14:01:18.687500
1549,20.11,2022-08-17 14:01:18.703125
1550,-11.26,2022-08-17 14:01:18.718750
1551,-35.9,2022-08-17 14:01:18.734375
1552,-52.97,2022-08-17 14:01:18.750000
1553,-63.28,2022-08-17 14:01:18.765625
1554,-68.23,2022-08-17 14:01:18.781250
1555,-69.14,2022-08-17 14:01:18.796875
1556,-67.0,2022-08-17 14:01:18.812500
1557,-62.58,2022-08-17 14:01:18.828125
1558,-56.76,2022-08-17 14:01:18.843750
1559,-50.56,2022-08-17 14:01:18.859375
1560,-45.0,2022-08-17 14:01:18.875000
1561,-40.72,2022-08-17 14:01:18.890625
1562,-37.75,2022-08-17 14:01:18.906250
1563,-35.43,2022-08-17 14:01:18.921875
1564,-32.76,2022-08-17 14:01:18.937500
1565,-28.8,2022-08-17 14:01:18.953125
1566,-23.1,2022-08-17 14:01:18.968750
1567,-15.96,2022-08-17 14:01:18.984375
1568,-8.12,2022-08-17 14:01:19.000000
1569,-0.31,2022-08-17 14:01:19.015625
1570,7.35,2022-08-17 14:01:19.031250
1571,15.55,2022-08-17 14:01:19.046875
1572,25.44,2022-08-17 14:01:19.062500
1573,37.87,2022-08-17 14:01:19.078125
1574,52.69,2022-08-17 14:01:19.093750
1575,68.5,2022-08-17 14:01:19.109375
1576,82.99,2022-08-17 14:01:19.125000
1577,93.87,2022-08-17 14:01:19.140625
1578,99.67,2022-08-17 14:01:19.156250
1579,100.24,2022-08-17 14:01:19.171875
1580,96.59,2022-08-17 14:01:19.187500
1581,90.32,2022-08-17 14:01:19.203125
1582,83.02,2022-08-17 14:01:19.218750
1583,75.84,2022-08-17 14:01:19.234375
1584,69.4,2022-08-17 14:01:19.250000
1585,63.67,2022-08-17 14:01:19.265625
1586,58.11,2022-08-17 14:01:19.281250
1587,51.78,2022-08-17 14:01:19.296875
1588,43.5,2022-08-17 14:01:19.312500
1589,32.36,2022-08-17 14:01:19.328125
1590,17.97,2022-08-17 14:01:19.343750
1591,0.7,2022-08-17 14:01:19.359375
1592,-18.45,2022-08-17 14:01:19.375000
1593,-38.05,2022-08-17 14:01:19.390625
1594,-56.36,2022-08-17 14:01:19.406250
1595,-71.44,2022-08-17 14:01:19.421875
1596,-81.03,2022-08-17 14:01:19.437500
1597,-82.9,2022-08-17 14:01:19.453125
1598,-75.53,2022-08-17 14:01:19.468750
1599,-59.13,2022-08-17 14:01:19.484375
1600,-36.19,2022-08-17 14:01:19.500000
1601,-11.32,2022-08-17 14:01:19.515625
1602,10.09,2022-08-17 14:01:19.531250
1603,23.68,2022-08-17 14:01:19.546875
1604,27.78,2022-08-17 14:01:19.562500
1605,23.99,2022-08-17 14:01:19.578125
1606,16.37,2022-08-17 14:01:19.593750
1607,9.83,2022-08-17 14:01:19.609375
1608,8.15,2022-08-17 14:01:19.625000
1609,12.89,2022-08-17 14:01:19.640625
1610,23.3,2022-08-17 14:01:19.656250
1611,37.19,2022-08-17 14:01:19.671875
1612,52.09,2022-08-17 14:01:19.687500
1613,66.25,2022-08-17 14:01:19.703125
1614,78.75,2022-08-17 14:01:19.718750
1615,89.18,2022-08-17 14:01:19.734375
1616,97.13,2022-08-17 14:01:19.750000
1617,102.09,2022-08-17 14:01:19.765625
1618,103.86,2022-08-17 14:01:19.781250
1619,102.88,2022-08-17 14:01:19.796875
1620,100.14,2022-08-17 14:01:19.812500
1621,96.31,2022-08-17 14:01:19.828125
1622,90.56,2022-08-17 14:01:19.843750
1623,80.04,2022-08-17 14:01:19.859375
1624,60.56,2022-08-17 14:01:19.875000
1625,28.79,2022-08-17 14:01:19.890625
1626,-15.31,2022-08-17 14:01:19.906250
1627,-67.19,2022-08-17 14:01:19.921875
1628,-118.75,2022-08-17 14:01:19.937500
1629,-161.21,2022-08-17 14:01:19.953125
1630,-188.49,2022-08-17 14:01:19.968750
1631,-199.23,2022-08-17 14:01:19.984375
1632,-196.38,2022-08-17 14:01:20.000000
1633,-184.89,2022-08-17 14:01:20.015625
1634,-169.0,2022-08-17 14:01:20.031250
1635,-150.67,2022-08-17 14:01:20.046875
1636,-129.77,2022-08-17 14:01:20.062500
1637,-105.5,2022-08-17 14:01:20.078125
1638,-77.86,2022-08-17 14:01:20.093750
1639,-48.33,2022-08-17 14:01:20.109375
1640,-19.33,2022-08-17 14:01:20.125000
1641,6.66,2022-08-17 14:01:20.140625
1642,27.91,2022-08-17 14:01:20.156250
1643,43.81,2022-08-17 14:01:20.171875
1644,54.68,2022-08-17 14:01:20.187500
1645,61.38,2022-08-17 14:01:20.203125
1646,65.05,2022-08-17 14:01:20.218750
1647,66.95,2022-08-17 14:01:20.234375
1648,68.11,2022-08-17 14:01:20.250000
1649,69.3,2022-08-17 14:01:20.265625
1650,70.85,2022-08-17 14:01:20.281250
1651,72.82,2022-08-17 14:01:20.296875
1652,75.06,2022-08-17 14:01:20.312500
1653,77.35,2022-08-17 14:01:20.328125
1654,79.38,2022-08-17 14:01:20.343750
1655,80.61,2022-08-17 14:01:20.359375
1656,80.0,2022-08-17 14:01:20.375000
1657,76.22,2022-08-17 14:01:20.390625
1658,68.21,2022-08-17 14:01:20.406250
1659,55.93,2022-08-17 14:01:20.421875
1660,41.24,2022-08-17 14:01:20.437500
1661,27.69,2022-08-17 14:01:20.453125
1662,19.39,2022-08-17 14:01:20.468750
1663,19.11,2022-08-17 14:01:20.484375
1664,26.45,2022-08-17 14:01:20.500000
1665,37.32,2022-08-17 14:01:20.515625
1666,45.11,2022-08-17 14:01:20.531250
1667,43.26,2022-08-17 14:01:20.546875
1668,27.69,2022-08-17 14:01:20.562500
1669,-1.93,2022-08-17 14:01:20.578125
1670,-42.71,2022-08-17 14:01:20.593750
1671,-90.37,2022-08-17 14:01:20.609375
1672,-140.74,2022-08-17 14:01:20.625000
1673,-190.16,2022-08-17 14:01:20.640625
1674,-234.86,2022-08-17 14:01:20.656250
1675,-270.15,2022-08-17 14:01:20.671875
1676,-290.52,2022-08-17 14:01:20.687500
1677,-291.17,2022-08-17 14:01:20.703125
1678,-269.97,2022-08-17 14:01:20.718750
1679,-228.85,2022-08-17 14:01:20.734375
1680,-173.64,2022-08-17 14:01:20.750000
1681,-112.3,2022-08-17 14:01:20.765625
1682,-52.74,2022-08-17 14:01:20.781250
1683,-0.82,2022-08-17 14:01:20.796875
1684,40.28,2022-08-17 14:01:20.812500
1685,69.74,2022-08-17 14:01:20.828125
1686,88.16,2022-08-17 14:01:20.843750
1687,96.91,2022-08-17 14:01:20.859375
1688,97.63,2022-08-17 14:01:20.875000
1689,91.98,2022-08-17 14:01:20.890625
1690,81.84,2022-08-17 14:01:20.906250
1691,69.08,2022-08-17 14:01:20.921875
1692,55.52,2022-08-17 14:01:20.937500
1693,42.77,2022-08-17 14:01:20.953125
1694,32.09,2022-08-17 14:01:20.968750
1695,24.16,2022-08-17 14:01:20.984375
1696,18.98,2022-08-17 14:01:21.000000
1697,16.03,2022-08-17 14:01:21.015625
1698,14.45,2022-08-17 14:01:21.031250
1699,13.59,2022-08-17 14:01:21.046875
1700,13.17,2022-08-17 14:01:21.062500
1701,13.44,2022-08-17 14:01:21.078125
1702,14.95,2022-08-17 14:01:21.093750
1703,18.15,2022-08-17 14:01:21.109375
1704,23.12,2022-08-17 14:01:21.125000
1705,29.38,2022-08-17 14:01:21.140625
1706,35.85,2022-08-17 14:01:21.156250
1707,41.08,2022-08-17 14:01:21.171875
1708,43.68,2022-08-17 14:01:21.187500
1709,42.72,2022-08-17 14:01:21.203125
1710,38.2,2022-08-17 14:01:21.218750
1711,31.29,2022-08-17 14:01:21.234375
1712,23.94,2022-08-17 14:01:21.250000
1713,18.37,2022-08-17 14:01:21.265625
1714,16.14,2022-08-17 14:01:21.281250
1715,17.58,2022-08-17 14:01:21.296875
1716,21.62,2022-08-17 14:01:21.312500
1717,26.25,2022-08-17 14:01:21.328125
1718,29.37,2022-08-17 14:01:21.343750
1719,29.72,2022-08-17 14:01:21.359375
1720,27.5,2022-08-17 14:01:21.375000
1721,24.11,2022-08-17 14:01:21.390625
1722,21.55,2022-08-17 14:01:21.406250
1723,21.36,2022-08-17 14:01:21.421875
1724,23.82,2022-08-17 14:01:21.437500
1725,27.76,2022-08-17 14:01:21.453125
1726,31.15,2022-08-17 14:01:21.468750
1727,32.14,2022-08-17 14:01:21.484375
1728,30.09,2022-08-17 14:01:21.500000
1729,25.94,2022-08-17 14:01:21.515625
1730,21.68,2022-08-17 14:01:21.531250
1731,19.39,2022-08-17 14:01:21.546875
1732,20.12,2022-08-17 14:01:21.562500
1733,23.57,2022-08-17 14:01:21.578125
1734,28.45,2022-08-17 14:01:21.593750
1735,32.96,2022-08-17 14:01:21.609375
1736,35.29,2022-08-17 14:01:21.625000
1737,33.62,2022-08-17 14:01:21.640625
1738,26.11,2022-08-17 14:01:21.656250
1739,11.33,2022-08-17 14:01:21.671875
1740,-10.92,2022-08-17 14:01:21.687500
1741,-38.62,2022-08-17 14:01:21.703125
1742,-67.3,2022-08-17 14:01:21.718750
1743,-91.03,2022-08-17 14:01:21.734375
1744,-104.47,2022-08-17 14:01:21.750000
1745,-104.93,2022-08-17 14:01:21.765625
1746,-93.33,2022-08-17 14:01:21.781250
1747,-73.8,2022-08-17 14:01:21.796875
1748,-51.79,2022-08-17 14:01:21.812500
1749,-32.04,2022-08-17 14:01:21.828125
1750,-17.19,2022-08-17 14:01:21.843750
1751,-7.77,2022-08-17 14:01:21.859375
1752,-2.87,2022-08-17 14:01:21.875000
1753,-1.31,2022-08-17 14:01:21.890625
1754,-2.19,2022-08-17 14:01:21.906250
1755,-4.83,2022-08-17 14:01:21.921875
1756,-8.59,2022-08-17 14:01:21.937500
1757,-12.49,2022-08-17 14:01:21.953125
1758,-15.38,2022-08-17 14:01:21.968750
1759,-16.24,2022-08-17 14:01:21.984375
1760,-14.69,2022-08-17 14:01:22.000000
1761,-11.07,2022-08-17 14:01:22.015625
1762,-6.36,2022-08-17 14:01:22.031250
1763,-1.67,2022-08-17 14:01:22.046875
1764,2.11,2022-08-17 14:01:22.062500
1765,4.57,2022-08-17 14:01:22.078125
1766,5.74,2022-08-17 14:01:22.093750
1767,5.87,2022-08-17 14:01:22.109375
1768,5.19,2022-08-17 14:01:22.125000
1769,3.78,2022-08-17 14:01:22.140625
1770,1.61,2022-08-17 14:01:22.156250
1771,-1.2,2022-08-17 14:01:22.171875
1772,-4.3,2022-08-17 14:01:22.187500
1773,-7.09,2022-08-17 14:01:22.203125
1774,-8.92,2022-08-17 14:01:22.218750
1775,-9.32,2022-08-17 14:01:22.234375
1776,-8.16,2022-08-17 14:01:22.250000
1777,-5.68,2022-08-17 14:01:22.265625
1778,-2.44,2022-08-17 14:01:22.281250
1779,0.9,2022-08-17 14:01:22.296875
1780,3.76,2022-08-17 14:01:22.312500
1781,5.83,2022-08-17 14:01:22.328125
1782,7.12,2022-08-17 14:01:22.343750
1783,7.92,2022-08-17 14:01:22.359375
1784,8.8,2022-08-17 14:01:22.375000
1785,10.34,2022-08-17 14:01:22.390625
1786,12.99,2022-08-17 14:01:22.406250
1787,16.91,2022-08-17 14:01:22.421875
1788,21.77,2022-08-17 14:01:22.437500
1789,26.79,2022-08-17 14:01:22.453125
1790,30.92,2022-08-17 14:01:22.468750
1791,33.23,2022-08-17 14:01:22.484375
1792,33.21,2022-08-17 14:01:22.500000
1793,30.98,2022-08-17 14:01:22.515625
1794,27.24,2022-08-17 14:01:22.531250
1795,22.94,2022-08-17 14:01:22.546875
1796,18.88,2022-08-17 14:01:22.562500
1797,15.4,2022-08-17 14:01:22.578125
1798,12.26,2022-08-17 14:01:22.593750
1799,8.96,2022-08-17 14:01:22.609375
1800,5.15,2022-08-17 14:01:22.625000
1801,0.93,2022-08-17 14:01:22.640625
1802,-3.11,2022-08-17 14:01:22.656250
1803,-6.07,2022-08-17 14:01:22.671875
1804,-7.24,2022-08-17 14:01:22.687500
1805,-6.33,2022-08-17 14:01:22.703125
1806,-3.62,2022-08-17 14:01:22.718750
1807,0.22,2022-08-17 14:01:22.734375
1808,4.47,2022-08-17 14:01:22.750000
1809,8.64,2022-08-17 14:01:22.765625
1810,12.47,2022-08-17 14:01:22.781250
1811,15.87,2022-08-17 14:01:22.796875
1812,18.65,2022-08-17 14:01:22.812500
1813,20.51,2022-08-17 14:01:22.828125
1814,21.02,2022-08-17 14:01:22.843750
1815,19.96,2022-08-17 14:01:22.859375
1816,17.43,2022-08-17 14:01:22.875000
1817,13.98,2022-08-17 14:01:22.890625
1818,10.42,2022-08-17 14:01:22.906250
1819,7.56,2022-08-17 14:01:22.921875
1820,5.9,2022-08-17 14:01:22.937500
1821,5.47,2022-08-17 14:01:22.953125
1822,5.88,2022-08-17 14:01:22.968750
1823,6.53,2022-08-17 14:01:22.984375
1824,6.85,2022-08-17 14:01:23.000000
1825,6.41,2022-08-17 14:01:23.015625
1826,5.07,2022-08-17 14:01:23.031250
1827,2.87,2022-08-17 14:01:23.046875
1828,0.04,2022-08-17 14:01:23.062500
1829,-2.96,2022-08-17 14:01:23.078125
1830,-5.54,2022-08-17 14:01:23.093750
1831,-7.01,2022-08-17 14:01:23.109375
1832,-6.76,2022-08-17 14:01:23.125000
1833,-4.45,2022-08-17 14:01:23.140625
1834,-0.22,2022-08-17 14:01:23.156250
1835,5.26,2022-08-17 14:01:23.171875
1836,10.93,2022-08-17 14:01:23.187500
1837,15.57,2022-08-17 14:01:23.203125
1838,18.27,2022-08-17 14:01:23.218750
1839,18.62,2022-08-17 14:01:23.234375
1840,16.82,2022-08-17 14:01:23.250000
1841,13.56,2022-08-17 14:01:23.265625
1842,9.64,2022-08-17 14:01:23.281250
1843,5.61,2022-08-17 14:01:23.296875
1844,1.61,2022-08-17 14:01:23.312500
1845,-2.55,2022-08-17 14:01:23.328125
1846,-7.22,2022-08-17 14:01:23.343750
1847,-12.56,2022-08-17 14:01:23.359375
1848,-18.29,2022-08-17 14:01:23.375000
1849,-23.82,2022-08-17 14:01:23.390625
1850,-28.28,2022-08-17 14:01:23.406250
1851,-31.01,2022-08-17 14:01:23.421875
1852,-31.67,2022-08-17 14:01:23.437500
1853,-30.36,2022-08-17 14:01:23.453125
1854,-27.43,2022-08-17 14:01:23.468750
1855,-23.3,2022-08-17 14:01:23.484375
1856,-18.25,2022-08-17 14:01:23.500000
1857,-12.51,2022-08-17 14:01:23.515625
1858,-6.28,2022-08-17 14:01:23.531250
1859,0.17,2022-08-17 14:01:23.546875
1860,6.45,2022-08-17 14:01:23.562500
1861,12.2,2022-08-17 14:01:23.578125
1862,17.18,2022-08-17 14:01:23.593750
1863,21.3,2022-08-17 14:01:23.609375
1864,24.47,2022-08-17 14:01:23.625000
1865,26.53,2022-08-17 14:01:23.640625
1866,27.18,2022-08-17 14:01:23.656250
1867,26.07,2022-08-17 14:01:23.671875
1868,23.14,2022-08-17 14:01:23.687500
1869,18.63,2022-08-17 14:01:23.703125
1870,13.15,2022-08-17 14:01:23.718750
1871,7.39,2022-08-17 14:01:23.734375
1872,1.89,2022-08-17 14:01:23.750000
1873,-3.14,2022-08-17 14:01:23.765625
1874,-7.71,2022-08-17 14:01:23.781250
1875,-12.0,2022-08-17 14:01:23.796875
1876,-16.16,2022-08-17 14:01:23.812500
1877,-20.25,2022-08-17 14:01:23.828125
1878,-24.22,2022-08-17 14:01:23.843750
1879,-27.9,2022-08-17 14:01:23.859375
1880,-30.94,2022-08-17 14:01:23.875000
1881,-32.86,2022-08-17 14:01:23.890625
1882,-33.18,2022-08-17 14:01:23.906250
1883,-31.55,2022-08-17 14:01:23.921875
1884,-27.99,2022-08-17 14:01:23.937500
1885,-22.92,2022-08-17 14:01:23.953125
1886,-17.05,2022-08-17 14:01:23.968750
1887,-11.21,2022-08-17 14:01:23.984375
1888,-6.08,2022-08-17 14:01:24.000000
1889,-2.17,2022-08-17 14:01:24.015625
1890,0.21,2022-08-17 14:01:24.031250
1891,1.04,2022-08-17 14:01:24.046875
1892,0.51,2022-08-17 14:01:24.062500
1893,-0.91,2022-08-17 14:01:24.078125
1894,-2.6,2022-08-17 14:01:24.093750
1895,-3.9,2022-08-17 14:01:24.109375
1896,-4.46,2022-08-17 14:01:24.125000
1897,-4.27,2022-08-17 14:01:24.140625
1898,-3.67,2022-08-17 14:01:24.156250
1899,-3.01,2022-08-17 14:01:24.171875
1900,-2.35,2022-08-17 14:01:24.187500
1901,-1.43,2022-08-17 14:01:24.203125
1902,0.26,2022-08-17 14:01:24.218750
1903,3.12,2022-08-17 14:01:24.234375
1904,7.17,2022-08-17 14:01:24.250000
1905,11.91,2022-08-17 14:01:24.265625
1906,16.65,2022-08-17 14:01:24.281250
1907,20.64,2022-08-17 14:01:24.296875
1908,23.43,2022-08-17 14:01:24.312500
1909,24.91,2022-08-17 14:01:24.328125
1910,25.23,2022-08-17 14:01:24.343750
1911,24.62,2022-08-17 14:01:24.359375
1912,23.32,2022-08-17 14:01:24.375000
1913,21.59,2022-08-17 14:01:24.390625
1914,19.72,2022-08-17 14:01:24.406250
1915,18.03,2022-08-17 14:01:24.421875
1916,16.8,2022-08-17 14:01:24.437500
1917,16.1,2022-08-17 14:01:24.453125
1918,15.71,2022-08-17 14:01:24.468750
1919,15.26,2022-08-17 14:01:24.484375
1920,14.32,2022-08-17 14:01:24.500000
1921,12.67,2022-08-17 14:01:24.515625
1922,10.31,2022-08-17 14:01:24.531250
1923,7.49,2022-08-17 14:01:24.546875
1924,4.51,2022-08-17 14:01:24.562500
1925,1.63,2022-08-17 14:01:24.578125
1926,-1.0,2022-08-17 14:01:24.593750
1927,-3.25,2022-08-17 14:01:24.609375
1928,-4.99,2022-08-17 14:01:24.625000
1929,-6.07,2022-08-17 14:01:24.640625
1930,-6.44,2022-08-17 14:01:24.656250
1931,-6.37,2022-08-17 14:01:24.671875
1932,-6.5,2022-08-17 14:01:24.687500
1933,-7.73,2022-08-17 14:01:24.703125
1934,-10.96,2022-08-17 14:01:24.718750
1935,-16.71,2022-08-17 14:01:24.734375
1936,-24.82,2022-08-17 14:01:24.750000
1937,-34.45,2022-08-17 14:01:24.765625
1938,-44.31,2022-08-17 14:01:24.781250
1939,-53.05,2022-08-17 14:01:24.796875
1940,-59.65,2022-08-17 14:01:24.812500
1941,-63.5,2022-08-17 14:01:24.828125
1942,-64.4,2022-08-17 14:01:24.843750
1943,-62.18,2022-08-17 14:01:24.859375
1944,-56.68,2022-08-17 14:01:24.875000
1945,-47.8,2022-08-17 14:01:24.890625
1946,-35.84,2022-08-17 14:01:24.906250
1947,-21.79,2022-08-17 14:01:24.921875
1948,-7.35,2022-08-17 14:01:24.937500
1949,5.51,2022-08-17 14:01:24.953125
1950,15.19,2022-08-17 14:01:24.968750
1951,21.0,2022-08-17 14:01:24.984375
1952,23.33,2022-08-17 14:01:25.000000
1953,23.28,2022-08-17 14:01:25.015625
1954,22.0,2022-08-17 14:01:25.031250
1955,20.17,2022-08-17 14:01:25.046875
1956,17.82,2022-08-17 14:01:25.062500
1957,14.58,2022-08-17 14:01:25.078125
1958,10.21,2022-08-17 14:01:25.093750
1959,4.85,2022-08-17 14:01:25.109375
1960,-0.77,2022-08-17 14:01:25.125000
1961,-5.71,2022-08-17 14:01:25.140625
1962,-9.15,2022-08-17 14:01:25.156250
1963,-10.7,2022-08-17 14:01:25.171875
1964,-10.47,2022-08-17 14:01:25.187500
1965,-8.88,2022-08-17 14:01:25.203125
1966,-6.52,2022-08-17 14:01:25.218750
1967,-3.99,2022-08-17 14:01:25.234375
1968,-1.85,2022-08-17 14:01:25.250000
1969,-0.66,2022-08-17 14:01:25.265625
1970,-0.92,2022-08-17 14:01:25.281250
1971,-2.95,2022-08-17 14:01:25.296875
1972,-6.71,2022-08-17 14:01:25.312500
1973,-11.59,2022-08-17 14:01:25.328125
1974,-16.59,2022-08-17 14:01:25.343750
1975,-20.55,2022-08-17 14:01:25.359375
1976,-22.63,2022-08-17 14:01:25.375000
1977,-22.62,2022-08-17 14:01:25.390625
1978,-21.01,2022-08-17 14:01:25.406250
1979,-18.71,2022-08-17 14:01:25.421875
1980,-16.54,2022-08-17 14:01:25.437500
1981,-14.81,2022-08-17 14:01:25.453125
1982,-13.22,2022-08-17 14:01:25.468750
1983,-11.11,2022-08-17 14:01:25.484375
1984,-7.91,2022-08-17 14:01:25.500000
1985,-3.61,2022-08-17 14:01:25.515625
1986,1.24,2022-08-17 14:01:25.531250
1987,5.75,2022-08-17 14:01:25.546875
1988,9.17,2022-08-17 14:01:25.562500
1989,11.24,2022-08-17 14:01:25.578125
1990,12.19,2022-08-17 14:01:25.593750
1991,12.57,2022-08-17 14:01:25.609375
1992,12.84,2022-08-17 14:01:25.625000
1993,13.11,2022-08-17 14:01:25.640625
1994,13.19,2022-08-17 14:01:25.656250
1995,12.71,2022-08-17 14:01:25.671875
1996,11.34,2022-08-17 14:01:25.687500
1997,9.03,2022-08-17 14:01:25.703125
1998,5.95,2022-08-17 14:01:25.718750
1999,2.44,2022-08-17 14:01:25.734375
2000,-1.12,2022-08-17 14:01:25.750000
2001,-4.5,2022-08-17 14:01:25.765625
2002,-7.58,2022-08-17 14:01:25.781250
2003,-10.37,2022-08-17 14:01:25.796875
2004,-12.98,2022-08-17 14:01:25.812500
2005,-15.42,2022-08-17 14:01:25.828125
2006,-17.67,2022-08-17 14:01:25.843750
2007,-19.69,2022-08-17 14:01:25.859375
2008,-21.46,2022-08-17 14:01:25.875000
2009,-23.04,2022-08-17 14:01:25.890625
2010,-24.54,2022-08-17 14:01:25.906250
2011,-25.87,2022-08-17 14:01:25.921875
2012,-26.7,2022-08-17 14:01:25.937500
2013,-26.45,2022-08-17 14:01:25.953125
2014,-24.55,2022-08-17 14:01:25.968750
2015,-20.84,2022-08-17 14:01:25.984375
2016,-15.85,2022-08-17 14:01:26.000000
2017,-10.83,2022-08-17 14:01:26.015625
2018,-7.25,2022-08-17 14:01:26.031250
2019,-6.29,2022-08-17 14:01:26.046875
2020,-8.19,2022-08-17 14:01:26.062500
2021,-12.26,2022-08-17 14:01:26.078125
2022,-17.09,2022-08-17 14:01:26.093750
2023,-21.25,2022-08-17 14:01:26.109375
2024,-23.79,2022-08-17 14:01:26.125000
2025,-24.5,2022-08-17 14:01:26.140625
2026,-23.71,2022-08-17 14:01:26.156250
2027,-21.91,2022-08-17 14:01:26.171875
2028,-19.51,2022-08-17 14:01:26.187500
2029,-16.65,2022-08-17 14:01:26.203125
2030,-13.31,2022-08-17 14:01:26.218750
2031,-9.33,2022-08-17 14:01:26.234375
2032,-4.43,2022-08-17 14:01:26.250000
2033,1.79,2022-08-17 14:01:26.265625
2034,9.83,2022-08-17 14:01:26.281250
2035,20.08,2022-08-17 14:01:26.296875
2036,32.53,2022-08-17 14:01:26.312500
2037,46.55,2022-08-17 14:01:26.328125
2038,60.87,2022-08-17 14:01:26.343750
2039,73.88,2022-08-17 14:01:26.359375
2040,84.06,2022-08-17 14:01:26.375000
2041,90.38,2022-08-17 14:01:26.390625
2042,92.49,2022-08-17 14:01:26.406250
2043,90.73,2022-08-17 14:01:26.421875
2044,85.87,2022-08-17 14:01:26.437500
2045,78.89,2022-08-17 14:01:26.453125
2046,70.72,2022-08-17 14:01:26.468750
2047,62.13,2022-08-17 14:01:26.484375
2048,53.61,2022-08-17 14:01:26.500000
2049,45.46,2022-08-17 14:01:26.515625
2050,37.8,2022-08-17 14:01:26.531250
2051,30.7,2022-08-17 14:01:26.546875
2052,24.29,2022-08-17 14:01:26.562500
2053,18.69,2022-08-17 14:01:26.578125
2054,13.97,2022-08-17 14:01:26.593750
2055,10.08,2022-08-17 14:01:26.609375
2056,6.77,2022-08-17 14:01:26.625000
2057,3.61,2022-08-17 14:01:26.640625
2058,0.17,2022-08-17 14:01:26.656250
2059,-3.89,2022-08-17 14:01:26.671875
2060,-8.66,2022-08-17 14:01:26.687500
2061,-14.04,2022-08-17 14:01:26.703125
2062,-19.71,2022-08-17 14:01:26.718750
2063,-25.31,2022-08-17 14:01:26.734375
2064,-30.46,2022-08-17 14:01:26.750000
2065,-34.82,2022-08-17 14:01:26.765625
2066,-38.08,2022-08-17 14:01:26.781250
2067,-39.91,2022-08-17 14:01:26.796875
2068,-40.1,2022-08-17 14:01:26.812500
2069,-38.51,2022-08-17 14:01:26.828125
2070,-35.17,2022-08-17 14:01:26.843750
2071,-30.26,2022-08-17 14:01:26.859375
2072,-24.03,2022-08-17 14:01:26.875000
2073,-16.79,2022-08-17 14:01:26.890625
2074,-8.89,2022-08-17 14:01:26.906250
2075,-0.85,2022-08-17 14:01:26.921875
2076,6.68,2022-08-17 14:01:26.937500
2077,12.84,2022-08-17 14:01:26.953125
2078,16.85,2022-08-17 14:01:26.968750
2079,18.27,2022-08-17 14:01:26.984375
2080,17.22,2022-08-17 14:01:27.000000
2081,14.32,2022-08-17 14:01:27.015625
2082,10.47,2022-08-17 14:01:27.031250
2083,6.46,2022-08-17 14:01:27.046875
2084,2.74,2022-08-17 14:01:27.062500
2085,-0.58,2022-08-17 14:01:27.078125
2086,-3.59,2022-08-17 14:01:27.093750
2087,-6.26,2022-08-17 14:01:27.109375
2088,-8.33,2022-08-17 14:01:27.125000
2089,-9.35,2022-08-17 14:01:27.140625
2090,-8.94,2022-08-17 14:01:27.156250
2091,-6.99,2022-08-17 14:01:27.171875
2092,-3.79,2022-08-17 14:01:27.187500
2093,0.07,2022-08-17 14:01:27.203125
2094,3.96,2022-08-17 14:01:27.218750
2095,7.35,2022-08-17 14:01:27.234375
2096,9.99,2022-08-17 14:01:27.250000
2097,11.88,2022-08-17 14:01:27.265625
2098,13.18,2022-08-17 14:01:27.281250
2099,13.97,2022-08-17 14:01:27.296875
2100,14.12,2022-08-17 14:01:27.312500
2101,13.35,2022-08-17 14:01:27.328125
2102,11.15,2022-08-17 14:01:27.343750
2103,7.22,2022-08-17 14:01:27.359375
2104,1.42,2022-08-17 14:01:27.375000
2105,-6.0,2022-08-17 14:01:27.390625
2106,-14.74,2022-08-17 14:01:27.406250
2107,-24.58,2022-08-17 14:01:27.421875
2108,-35.59,2022-08-17 14:01:27.437500
2109,-48.01,2022-08-17 14:01:27.453125
2110,-61.78,2022-08-17 14:01:27.468750
2111,-76.13,2022-08-17 14:01:27.484375
2112,-89.76,2022-08-17 14:01:27.500000
2113,-101.77,2022-08-17 14:01:27.515625
2114,-112.53,2022-08-17 14:01:27.531250
2115,-124.12,2022-08-17 14:01:27.546875
2116,-139.11,2022-08-17 14:01:27.562500
2117,-158.46,2022-08-17 14:01:27.578125
2118,-179.7,2022-08-17 14:01:27.593750
2119,-196.48,2022-08-17 14:01:27.609375
2120,-200.58,2022-08-17 14:01:27.625000
2121,-185.25,2022-08-17 14:01:27.640625
2122,-148.36,2022-08-17 14:01:27.656250
2123,-93.05,2022-08-17 14:01:27.671875
2124,-26.42,2022-08-17 14:01:27.687500
2125,43.2,2022-08-17 14:01:27.703125
2126,108.32,2022-08-17 14:01:27.718750
2127,162.94,2022-08-17 14:01:27.734375
2128,202.33,2022-08-17 14:01:27.750000
2129,222.43,2022-08-17 14:01:27.765625
2130,220.63,2022-08-17 14:01:27.781250
2131,197.12,2022-08-17 14:01:27.796875
2132,156.27,2022-08-17 14:01:27.812500
2133,106.45,2022-08-17 14:01:27.828125
2134,57.92,2022-08-17 14:01:27.843750
2135,20.33,2022-08-17 14:01:27.859375
2136,-0.14,2022-08-17 14:01:27.875000
2137,-1.62,2022-08-17 14:01:27.890625
2138,13.49,2022-08-17 14:01:27.906250
2139,39.9,2022-08-17 14:01:27.921875
2140,70.91,2022-08-17 14:01:27.937500
2141,100.32,2022-08-17 14:01:27.953125
2142,123.48,2022-08-17 14:01:27.968750
2143,137.98,2022-08-17 14:01:27.984375
2144,143.59,2022-08-17 14:01:28.000000
2145,141.35,2022-08-17 14:01:28.015625
2146,132.89,2022-08-17 14:01:28.031250
2147,119.81,2022-08-17 14:01:28.046875
2148,103.7,2022-08-17 14:01:28.062500
2149,86.4,2022-08-17 14:01:28.078125
2150,69.74,2022-08-17 14:01:28.093750
2151,54.82,2022-08-17 14:01:28.109375
2152,41.44,2022-08-17 14:01:28.125000
2153,28.18,2022-08-17 14:01:28.140625
2154,13.31,2022-08-17 14:01:28.156250
2155,-3.67,2022-08-17 14:01:28.171875
2156,-20.97,2022-08-17 14:01:28.187500
2157,-34.92,2022-08-17 14:01:28.203125
2158,-41.71,2022-08-17 14:01:28.218750
2159,-39.63,2022-08-17 14:01:28.234375
2160,-30.1,2022-08-17 14:01:28.250000
2161,-17.07,2022-08-17 14:01:28.265625
2162,-5.02,2022-08-17 14:01:28.281250
2163,2.88,2022-08-17 14:01:28.296875
2164,5.72,2022-08-17 14:01:28.312500
2165,4.36,2022-08-17 14:01:28.328125
2166,0.33,2022-08-17 14:01:28.343750
2167,-5.05,2022-08-17 14:01:28.359375
2168,-10.85,2022-08-17 14:01:28.375000
2169,-16.22,2022-08-17 14:01:28.390625
2170,-19.95,2022-08-17 14:01:28.406250
2171,-20.67,2022-08-17 14:01:28.421875
2172,-17.81,2022-08-17 14:01:28.437500
2173,-12.32,2022-08-17 14:01:28.453125
2174,-6.74,2022-08-17 14:01:28.468750
2175,-4.27,2022-08-17 14:01:28.484375
2176,-7.2,2022-08-17 14:01:28.500000
2177,-15.62,2022-08-17 14:01:28.515625
2178,-27.09,2022-08-17 14:01:28.531250
2179,-37.46,2022-08-17 14:01:28.546875
2180,-42.63,2022-08-17 14:01:28.562500
2181,-40.29,2022-08-17 14:01:28.578125
2182,-30.82,2022-08-17 14:01:28.593750
2183,-17.01,2022-08-17 14:01:28.609375
2184,-2.79,2022-08-17 14:01:28.625000
2185,8.49,2022-08-17 14:01:28.640625
2186,15.29,2022-08-17 14:01:28.656250
2187,18.14,2022-08-17 14:01:28.671875
2188,19.08,2022-08-17 14:01:28.687500
2189,20.59,2022-08-17 14:01:28.703125
2190,24.47,2022-08-17 14:01:28.718750
2191,31.26,2022-08-17 14:01:28.734375
2192,40.25,2022-08-17 14:01:28.750000
2193,49.97,2022-08-17 14:01:28.765625
2194,59.05,2022-08-17 14:01:28.781250
2195,66.72,2022-08-17 14:01:28.796875
2196,73.17,2022-08-17 14:01:28.812500
2197,79.12,2022-08-17 14:01:28.828125
2198,85.09,2022-08-17 14:01:28.843750
2199,90.76,2022-08-17 14:01:28.859375
2200,94.52,2022-08-17 14:01:28.875000
2201,93.87,2022-08-17 14:01:28.890625
2202,86.35,2022-08-17 14:01:28.906250
2203,70.41,2022-08-17 14:01:28.921875
2204,45.66,2022-08-17 14:01:28.937500
2205,12.63,2022-08-17 14:01:28.953125
2206,-27.43,2022-08-17 14:01:28.968750
2207,-72.43,2022-08-17 14:01:28.984375
2208,-118.68,2022-08-17 14:01:29.000000
2209,-160.56,2022-08-17 14:01:29.015625
2210,-191.24,2022-08-17 14:01:29.031250
2211,-204.79,2022-08-17 14:01:29.046875
2212,-198.84,2022-08-17 14:01:29.062500
2213,-176.34,2022-08-17 14:01:29.078125
2214,-145.08,2022-08-17 14:01:29.093750
2215,-114.81,2022-08-17 14:01:29.109375
2216,-93.41,2022-08-17 14:01:29.125000
2217,-83.97,2022-08-17 14:01:29.140625
2218,-84.43,2022-08-17 14:01:29.156250
2219,-89.54,2022-08-17 14:01:29.171875
2220,-93.98,2022-08-17 14:01:29.187500
2221,-94.77,2022-08-17 14:01:29.203125
2222,-91.83,2022-08-17 14:01:29.218750
2223,-86.77,2022-08-17 14:01:29.234375
2224,-81.22,2022-08-17 14:01:29.250000
2225,-75.66,2022-08-17 14:01:29.265625
2226,-69.43,2022-08-17 14:01:29.281250
2227,-61.65,2022-08-17 14:01:29.296875
2228,-52.22,2022-08-17 14:01:29.312500
2229,-42.22,2022-08-17 14:01:29.328125
2230,-33.6,2022-08-17 14:01:29.343750
2231,-28.08,2022-08-17 14:01:29.359375
2232,-26.3,2022-08-17 14:01:29.375000
2233,-27.47,2022-08-17 14:01:29.390625
2234,-29.89,2022-08-17 14:01:29.406250
2235,-31.87,2022-08-17 14:01:29.421875
2236,-32.62,2022-08-17 14:01:29.437500
2237,-32.47,2022-08-17 14:01:29.453125
2238,-32.31,2022-08-17 14:01:29.468750
2239,-32.76,2022-08-17 14:01:29.484375
2240,-33.33,2022-08-17 14:01:29.500000
2241,-32.4,2022-08-17 14:01:29.515625
2242,-27.89,2022-08-17 14:01:29.531250
2243,-18.29,2022-08-17 14:01:29.546875
2244,-3.41,2022-08-17 14:01:29.562500
2245,15.48,2022-08-17 14:01:29.578125
2246,36.06,2022-08-17 14:01:29.593750
2247,55.85,2022-08-17 14:01:29.609375
2248,72.79,2022-08-17 14:01:29.625000
2249,85.76,2022-08-17 14:01:29.640625
2250,94.56,2022-08-17 14:01:29.656250
2251,99.59,2022-08-17 14:01:29.671875
2252,101.46,2022-08-17 14:01:29.687500
2253,100.83,2022-08-17 14:01:29.703125
2254,98.3,2022-08-17 14:01:29.718750
2255,94.46,2022-08-17 14:01:29.734375
2256,89.93,2022-08-17 14:01:29.750000
2257,85.07,2022-08-17 14:01:29.765625
2258,80.15,2022-08-17 14:01:29.781250
2259,75.43,2022-08-17 14:01:29.796875
2260,71.33,2022-08-17 14:01:29.812500
2261,68.26,2022-08-17 14:01:29.828125
2262,66.62,2022-08-17 14:01:29.843750
2263,66.46,2022-08-17 14:01:29.859375
2264,67.35,2022-08-17 14:01:29.875000
2265,68.44,2022-08-17 14:01:29.890625
2266,68.56,2022-08-17 14:01:29.906250
2267,67.01,2022-08-17 14:01:29.921875
2268,64.23,2022-08-17 14:01:29.937500
2269,61.8,2022-08-17 14:01:29.953125
2270,61.66,2022-08-17 14:01:29.968750
2271,64.96,2022-08-17 14:01:29.984375
2272,71.03,2022-08-17 14:01:30.000000
2273,77.3,2022-08-17 14:01:30.015625
2274,80.06,2022-08-17 14:01:30.031250
2275,75.42,2022-08-17 14:01:30.046875
2276,61.24,2022-08-17 14:01:30.062500
2277,38.49,2022-08-17 14:01:30.078125
2278,10.94,2022-08-17 14:01:30.093750
2279,-16.58,2022-08-17 14:01:30.109375
2280,-40.09,2022-08-17 14:01:30.125000
2281,-57.32,2022-08-17 14:01:30.140625
2282,-67.6,2022-08-17 14:01:30.156250
2283,-71.24,2022-08-17 14:01:30.171875
2284,-70.28,2022-08-17 14:01:30.187500
2285,-67.4,2022-08-17 14:01:30.203125
2286,-65.12,2022-08-17 14:01:30.218750
2287,-65.67,2022-08-17 14:01:30.234375
2288,-71.55,2022-08-17 14:01:30.250000
2289,-85.1,2022-08-17 14:01:30.265625
2290,-106.61,2022-08-17 14:01:30.281250
2291,-133.07,2022-08-17 14:01:30.296875
2292,-158.23,2022-08-17 14:01:30.312500
2293,-176.22,2022-08-17 14:01:30.328125
2294,-182.59,2022-08-17 14:01:30.343750
2295,-174.8,2022-08-17 14:01:30.359375
2296,-152.54,2022-08-17 14:01:30.375000
2297,-117.95,2022-08-17 14:01:30.390625
2298,-74.98,2022-08-17 14:01:30.406250
2299,-27.3,2022-08-17 14:01:30.421875
2300,22.37,2022-08-17 14:01:30.437500
2301,71.03,2022-08-17 14:01:30.453125
2302,111.22,2022-08-17 14:01:30.468750
2303,132.89,2022-08-17 14:01:30.484375
2304,127.82,2022-08-17 14:01:30.500000
2305,93.61,2022-08-17 14:01:30.515625
2306,34.78,2022-08-17 14:01:30.531250
2307,-39.23,2022-08-17 14:01:30.546875
2308,-116.49,2022-08-17 14:01:30.562500
2309,-186.47,2022-08-17 14:01:30.578125
2310,-229.15,2022-08-17 14:01:30.593750
2311,-231.36,2022-08-17 14:01:30.609375
2312,-197.48,2022-08-17 14:01:30.625000
2313,-146.5,2022-08-17 14:01:30.640625
2314,-96.06,2022-08-17 14:01:30.656250
2315,-53.53,2022-08-17 14:01:30.671875
2316,-20.62,2022-08-17 14:01:30.687500
2317,2.67,2022-08-17 14:01:30.703125
2318,16.97,2022-08-17 14:01:30.718750
2319,23.86,2022-08-17 14:01:30.734375
2320,24.04,2022-08-17 14:01:30.750000
2321,19.11,2022-08-17 14:01:30.765625
2322,12.7,2022-08-17 14:01:30.781250
2323,9.12,2022-08-17 14:01:30.796875
2324,11.28,2022-08-17 14:01:30.812500
2325,17.4,2022-08-17 14:01:30.828125
2326,24.9,2022-08-17 14:01:30.843750
2327,32.89,2022-08-17 14:01:30.859375
2328,42.81,2022-08-17 14:01:30.875000
2329,55.48,2022-08-17 14:01:30.890625
2330,72.01,2022-08-17 14:01:30.906250
2331,94.85,2022-08-17 14:01:30.921875
2332,125.95,2022-08-17 14:01:30.937500
2333,164.66,2022-08-17 14:01:30.953125
2334,203.81,2022-08-17 14:01:30.968750
2335,235.18,2022-08-17 14:01:30.984375
2336,253.01,2022-08-17 14:01:31.000000
2337,255.96,2022-08-17 14:01:31.015625
2338,244.61,2022-08-17 14:01:31.031250
2339,222.64,2022-08-17 14:01:31.046875
2340,195.74,2022-08-17 14:01:31.062500
2341,165.12,2022-08-17 14:01:31.078125
2342,136.09,2022-08-17 14:01:31.093750
2343,107.87,2022-08-17 14:01:31.109375
2344,74.73,2022-08-17 14:01:31.125000
2345,34.32,2022-08-17 14:01:31.140625
2346,-10.72,2022-08-17 14:01:31.156250
2347,-56.51,2022-08-17 14:01:31.171875
2348,-97.61,2022-08-17 14:01:31.187500
2349,-128.94,2022-08-17 14:01:31.203125
2350,-147.99,2022-08-17 14:01:31.218750
2351,-144.91,2022-08-17 14:01:31.234375
2352,-124.1,2022-08-17 14:01:31.250000
2353,-94.96,2022-08-17 14:01:31.265625
2354,-71.14,2022-08-17 14:01:31.281250
2355,-52.07,2022-08-17 14:01:31.296875
2356,-36.9,2022-08-17 14:01:31.312500
2357,-26.04,2022-08-17 14:01:31.328125
2358,-21.43,2022-08-17 14:01:31.343750
2359,-26.6,2022-08-17 14:01:31.359375
2360,-40.38,2022-08-17 14:01:31.375000
2361,-62.56,2022-08-17 14:01:31.390625
2362,-87.83,2022-08-17 14:01:31.406250
2363,-108.2,2022-08-17 14:01:31.421875
2364,-116.04,2022-08-17 14:01:31.437500
2365,-110.1,2022-08-17 14:01:31.453125
2366,-94.34,2022-08-17 14:01:31.468750
2367,-75.27,2022-08-17 14:01:31.484375
2368,-58.83,2022-08-17 14:01:31.500000
2369,-45.32,2022-08-17 14:01:31.515625
2370,-30.85,2022-08-17 14:01:31.531250
2371,-6.24,2022-08-17 14:01:31.546875
2372,35.26,2022-08-17 14:01:31.562500
2373,95.12,2022-08-17 14:01:31.578125
2374,166.95,2022-08-17 14:01:31.593750
2375,240.86,2022-08-17 14:01:31.609375
2376,306.83,2022-08-17 14:01:31.625000
2377,355.1,2022-08-17 14:01:31.640625
2378,379.49,2022-08-17 14:01:31.656250
2379,376.92,2022-08-17 14:01:31.671875
2380,350.62,2022-08-17 14:01:31.687500
2381,304.22,2022-08-17 14:01:31.703125
2382,243.9,2022-08-17 14:01:31.718750
2383,176.83,2022-08-17 14:01:31.734375
2384,111.79,2022-08-17 14:01:31.750000
2385,55.95,2022-08-17 14:01:31.765625
2386,9.46,2022-08-17 14:01:31.781250
2387,-30.71,2022-08-17 14:01:31.796875
2388,-67.48,2022-08-17 14:01:31.812500
2389,-97.8,2022-08-17 14:01:31.828125
2390,-120.91,2022-08-17 14:01:31.843750
2391,-135.06,2022-08-17 14:01:31.859375
2392,-138.96,2022-08-17 14:01:31.875000
2393,-130.77,2022-08-17 14:01:31.890625
2394,-110.55,2022-08-17 14:01:31.906250
2395,-85.38,2022-08-17 14:01:31.921875
2396,-63.9,2022-08-17 14:01:31.937500
2397,-51.97,2022-08-17 14:01:31.953125
2398,-47.49,2022-08-17 14:01:31.968750
2399,-52.2,2022-08-17 14:01:31.984375
2400,-67.12,2022-08-17 14:01:32.000000
2401,-92.1,2022-08-17 14:01:32.015625
2402,-123.3,2022-08-17 14:01:32.031250
2403,-128.55,2022-08-17 14:01:32.046875
2404,-86.9,2022-08-17 14:01:32.062500
2405,-5.21,2022-08-17 14:01:32.078125
2406,66.28,2022-08-17 14:01:32.093750
2407,122.41,2022-08-17 14:01:32.109375
2408,165.38,2022-08-17 14:01:32.125000
2409,205.86,2022-08-17 14:01:32.140625
2410,244.59,2022-08-17 14:01:32.156250
2411,280.33,2022-08-17 14:01:32.171875
2412,310.48,2022-08-17 14:01:32.187500
2413,327.61,2022-08-17 14:01:32.203125
2414,325.46,2022-08-17 14:01:32.218750
2415,303.15,2022-08-17 14:01:32.234375
2416,269.1,2022-08-17 14:01:32.250000
2417,227.51,2022-08-17 14:01:32.265625
2418,181.97,2022-08-17 14:01:32.281250
2419,135.13,2022-08-17 14:01:32.296875
2420,90.41,2022-08-17 14:01:32.312500
2421,50.44,2022-08-17 14:01:32.328125
2422,12.9,2022-08-17 14:01:32.343750
2423,-25.43,2022-08-17 14:01:32.359375
2424,-65.35,2022-08-17 14:01:32.375000
2425,-101.79,2022-08-17 14:01:32.390625
2426,-133.4,2022-08-17 14:01:32.406250
2427,-159.37,2022-08-17 14:01:32.421875
2428,-179.37,2022-08-17 14:01:32.437500
2429,-192.62,2022-08-17 14:01:32.453125
2430,-199.37,2022-08-17 14:01:32.468750
2431,-203.91,2022-08-17 14:01:32.484375
2432,-211.62,2022-08-17 14:01:32.500000
2433,-226.15,2022-08-17 14:01:32.515625
2434,-246.42,2022-08-17 14:01:32.531250
2435,-272.55,2022-08-17 14:01:32.546875
2436,-303.99,2022-08-17 14:01:32.562500
2437,-339.71,2022-08-17 14:01:32.578125
2438,-377.13,2022-08-17 14:01:32.593750
2439,-412.45,2022-08-17 14:01:32.609375
2440,-441.99,2022-08-17 14:01:32.625000
2441,-462.21,2022-08-17 14:01:32.640625
2442,-471.03,2022-08-17 14:01:32.656250
2443,-469.05,2022-08-17 14:01:32.671875
2444,-462.96,2022-08-17 14:01:32.687500
2445,-461.92,2022-08-17 14:01:32.703125
2446,-472.6,2022-08-17 14:01:32.718750
2447,-494.35,2022-08-17 14:01:32.734375
2448,-518.46,2022-08-17 14:01:32.750000
2449,-531.71,2022-08-17 14:01:32.765625
2450,-521.95,2022-08-17 14:01:32.781250
2451,-483.59,2022-08-17 14:01:32.796875
2452,-420.2,2022-08-17 14:01:32.812500
2453,-344.11,2022-08-17 14:01:32.828125
2454,-270.91,2022-08-17 14:01:32.843750
2455,-213.32,2022-08-17 14:01:32.859375
2456,-176.5,2022-08-17 14:01:32.875000
2457,-157.26,2022-08-17 14:01:32.890625
2458,-146.53,2022-08-17 14:01:32.906250
2459,-133.97,2022-08-17 14:01:32.921875
2460,-112.19,2022-08-17 14:01:32.937500
2461,-79.81,2022-08-17 14:01:32.953125
2462,-41.06,2022-08-17 14:01:32.968750
2463,-2.78,2022-08-17 14:01:32.984375
2464,29.43,2022-08-17 14:01:33.000000
2465,54.09,2022-08-17 14:01:33.015625
2466,74.23,2022-08-17 14:01:33.031250
2467,95.39,2022-08-17 14:01:33.046875
2468,121.96,2022-08-17 14:01:33.062500
2469,154.95,2022-08-17 14:01:33.078125
2470,191.73,2022-08-17 14:01:33.093750
2471,228.27,2022-08-17 14:01:33.109375
2472,261.51,2022-08-17 14:01:33.125000
2473,290.03,2022-08-17 14:01:33.140625
2474,313.2,2022-08-17 14:01:33.156250
2475,329.83,2022-08-17 14:01:33.171875
2476,337.93,2022-08-17 14:01:33.187500
2477,336.28,2022-08-17 14:01:33.203125
2478,326.82,2022-08-17 14:01:33.218750
2479,315.39,2022-08-17 14:01:33.234375
2480,309.66,2022-08-17 14:01:33.250000
2481,314.63,2022-08-17 14:01:33.265625
2482,328.42,2022-08-17 14:01:33.281250
2483,341.64,2022-08-17 14:01:33.296875
2484,341.26,2022-08-17 14:01:33.312500
2485,317.14,2022-08-17 14:01:33.328125
2486,267.58,2022-08-17 14:01:33.343750
2487,200.53,2022-08-17 14:01:33.359375
2488,129.65,2022-08-17 14:01:33.375000
2489,67.74,2022-08-17 14:01:33.390625
2490,21.65,2022-08-17 14:01:33.406250
2491,-9.45,2022-08-17 14:01:33.421875
2492,-31.47,2022-08-17 14:01:33.437500
2493,-51.44,2022-08-17 14:01:33.453125
2494,-74.37,2022-08-17 14:01:33.468750
2495,-101.66,2022-08-17 14:01:33.484375
2496,-130.99,2022-08-17 14:01:33.500000
2497,-157.77,2022-08-17 14:01:33.515625
2498,-177.0,2022-08-17 14:01:33.531250
2499,-184.43,2022-08-17 14:01:33.546875
2500,-178.21,2022-08-17 14:01:33.562500
2501,-159.35,2022-08-17 14:01:33.578125
2502,-131.12,2022-08-17 14:01:33.593750
2503,-97.56,2022-08-17 14:01:33.609375
2504,-62.16,2022-08-17 14:01:33.625000
2505,-26.62,2022-08-17 14:01:33.640625
2506,9.02,2022-08-17 14:01:33.656250
2507,45.08,2022-08-17 14:01:33.671875
2508,81.26,2022-08-17 14:01:33.687500
2509,116.09,2022-08-17 14:01:33.703125
2510,147.64,2022-08-17 14:01:33.718750
2511,174.66,2022-08-17 14:01:33.734375
2512,197.25,2022-08-17 14:01:33.750000
2513,216.89,2022-08-17 14:01:33.765625
2514,235.69,2022-08-17 14:01:33.781250
2515,255.26,2022-08-17 14:01:33.796875
2516,275.71,2022-08-17 14:01:33.812500
2517,295.12,2022-08-17 14:01:33.828125
2518,309.39,2022-08-17 14:01:33.843750
2519,313.07,2022-08-17 14:01:33.859375
2520,300.77,2022-08-17 14:01:33.875000
2521,268.8,2022-08-17 14:01:33.890625
2522,216.91,2022-08-17 14:01:33.906250
2523,149.43,2022-08-17 14:01:33.921875
2524,74.96,2022-08-17 14:01:33.937500
2525,4.87,2022-08-17 14:01:33.953125
2526,-49.69,2022-08-17 14:01:33.968750
2527,-81.06,2022-08-17 14:01:33.984375
2528,-87.4,2022-08-17 14:01:34.000000
2529,-73.21,2022-08-17 14:01:34.015625
2530,-47.95,2022-08-17 14:01:34.031250
2531,-22.73,2022-08-17 14:01:34.046875
2532,-7.3,2022-08-17 14:01:34.062500
2533,-8.26,2022-08-17 14:01:34.078125
2534,-28.31,2022-08-17 14:01:34.093750
2535,-66.09,2022-08-17 14:01:34.109375
2536,-116.6,2022-08-17 14:01:34.125000
2537,-171.13,2022-08-17 14:01:34.140625
2538,-218.05,2022-08-17 14:01:34.156250
2539,-245.59,2022-08-17 14:01:34.171875
2540,-245.78,2022-08-17 14:01:34.187500
2541,-218.72,2022-08-17 14:01:34.203125
2542,-174.35,2022-08-17 14:01:34.218750
2543,-129.51,2022-08-17 14:01:34.234375
2544,-101.65,2022-08-17 14:01:34.250000
2545,-101.52,2022-08-17 14:01:34.265625
2546,-128.61,2022-08-17 14:01:34.281250
2547,-171.69,2022-08-17 14:01:34.296875
2548,-214.45,2022-08-17 14:01:34.312500
2549,-242.25,2022-08-17 14:01:34.328125
2550,-246.82,2022-08-17 14:01:34.343750
2551,-227.32,2022-08-17 14:01:34.359375
2552,-188.71,2022-08-17 14:01:34.375000
2553,-139.13,2022-08-17 14:01:34.390625
2554,-88.02,2022-08-17 14:01:34.406250
2555,-44.68,2022-08-17 14:01:34.421875
2556,-17.0,2022-08-17 14:01:34.437500
2557,-10.07,2022-08-17 14:01:34.453125
2558,-24.52,2022-08-17 14:01:34.468750
2559,-55.38,2022-08-17 14:01:34.484375
2560,-92.91,2022-08-17 14:01:34.500000
2561,-125.71,2022-08-17 14:01:34.515625
2562,-144.13,2022-08-17 14:01:34.531250
2563,-143.18,2022-08-17 14:01:34.546875
2564,-123.02,2022-08-17 14:01:34.562500
2565,-87.02,2022-08-17 14:01:34.578125
2566,-40.52,2022-08-17 14:01:34.593750
2567,10.72,2022-08-17 14:01:34.609375
2568,61.11,2022-08-17 14:01:34.625000
2569,105.42,2022-08-17 14:01:34.640625
2570,138.65,2022-08-17 14:01:34.656250
2571,157.04,2022-08-17 14:01:34.671875
2572,159.79,2022-08-17 14:01:34.687500
2573,150.74,2022-08-17 14:01:34.703125
2574,139.57,2022-08-17 14:01:34.718750
2575,136.58,2022-08-17 14:01:34.734375
2576,148.33,2022-08-17 14:01:34.750000
2577,175.85,2022-08-17 14:01:34.765625
2578,215.17,2022-08-17 14:01:34.781250
2579,259.27,2022-08-17 14:01:34.796875
2580,300.73,2022-08-17 14:01:34.812500
2581,333.86,2022-08-17 14:01:34.828125
2582,355.76,2022-08-17 14:01:34.843750
2583,369.14,2022-08-17 14:01:34.859375
2584,375.88,2022-08-17 14:01:34.875000
2585,375.55,2022-08-17 14:01:34.890625
2586,367.85,2022-08-17 14:01:34.906250
2587,355.23,2022-08-17 14:01:34.921875
2588,342.11,2022-08-17 14:01:34.937500
2589,332.31,2022-08-17 14:01:34.953125
2590,327.31,2022-08-17 14:01:34.968750
2591,326.45,2022-08-17 14:01:34.984375
2592,333.3,2022-08-17 14:01:35.000000
2593,347.69,2022-08-17 14:01:35.015625
2594,365.06,2022-08-17 14:01:35.031250
2595,380.02,2022-08-17 14:01:35.046875
2596,390.28,2022-08-17 14:01:35.062500
2597,396.34,2022-08-17 14:01:35.078125
2598,399.59,2022-08-17 14:01:35.093750
2599,401.11,2022-08-17 14:01:35.109375
2600,401.37,2022-08-17 14:01:35.125000
2601,406.87,2022-08-17 14:01:35.140625
2602,418.22,2022-08-17 14:01:35.156250
2603,428.55,2022-08-17 14:01:35.171875
2604,428.87,2022-08-17 14:01:35.187500
2605,414.42,2022-08-17 14:01:35.203125
2606,385.09,2022-08-17 14:01:35.218750
2607,343.34,2022-08-17 14:01:35.234375
2608,292.36,2022-08-17 14:01:35.250000
2609,192.06,2022-08-17 14:01:35.265625
2610,43.36,2022-08-17 14:01:35.281250
2611,-113.26,2022-08-17 14:01:35.296875
2612,-232.56,2022-08-17 14:01:35.312500
2613,-297.95,2022-08-17 14:01:35.328125
2614,-317.68,2022-08-17 14:01:35.343750
2615,-308.19,2022-08-17 14:01:35.359375
2616,-284.08,2022-08-17 14:01:35.375000
2617,-256.44,2022-08-17 14:01:35.390625
2618,-229.41,2022-08-17 14:01:35.406250
2619,-197.47,2022-08-17 14:01:35.421875
2620,-159.68,2022-08-17 14:01:35.437500
2621,-122.55,2022-08-17 14:01:35.453125
2622,-95.28,2022-08-17 14:01:35.468750
2623,-83.65,2022-08-17 14:01:35.484375
2624,-89.57,2022-08-17 14:01:35.500000
2625,-110.87,2022-08-17 14:01:35.515625
2626,-143.52,2022-08-17 14:01:35.531250
2627,-182.3,2022-08-17 14:01:35.546875
2628,-216.67,2022-08-17 14:01:35.562500
2629,-240.63,2022-08-17 14:01:35.578125
2630,-254.85,2022-08-17 14:01:35.593750
2631,-263.22,2022-08-17 14:01:35.609375
2632,-268.32,2022-08-17 14:01:35.625000
2633,-270.75,2022-08-17 14:01:35.640625
2634,-270.15,2022-08-17 14:01:35.656250
2635,-266.47,2022-08-17 14:01:35.671875
2636,-259.87,2022-08-17 14:01:35.687500
2637,-247.85,2022-08-17 14:01:35.703125
2638,-230.77,2022-08-17 14:01:35.718750
2639,-212.54,2022-08-17 14:01:35.734375
2640,-197.94,2022-08-17 14:01:35.750000
2641,-189.44,2022-08-17 14:01:35.765625
2642,-187.01,2022-08-17 14:01:35.781250
2643,-189.55,2022-08-17 14:01:35.796875
2644,-196.56,2022-08-17 14:01:35.812500
2645,-208.5,2022-08-17 14:01:35.828125
2646,-224.38,2022-08-17 14:01:35.843750
2647,-243.18,2022-08-17 14:01:35.859375
2648,-262.67,2022-08-17 14:01:35.875000
2649,-278.33,2022-08-17 14:01:35.890625
2650,-283.84,2022-08-17 14:01:35.906250
2651,-273.81,2022-08-17 14:01:35.921875
2652,-246.19,2022-08-17 14:01:35.937500
2653,-203.09,2022-08-17 14:01:35.953125
2654,-149.39,2022-08-17 14:01:35.968750
2655,-90.28,2022-08-17 14:01:35.984375
2656,-31.39,2022-08-17 14:01:36.000000
2657,21.09,2022-08-17 14:01:36.015625
2658,60.32,2022-08-17 14:01:36.031250
2659,79.86,2022-08-17 14:01:36.046875
2660,75.68,2022-08-17 14:01:36.062500
2661,48.42,2022-08-17 14:01:36.078125
2662,4.42,2022-08-17 14:01:36.093750
2663,-45.89,2022-08-17 14:01:36.109375
2664,-91.43,2022-08-17 14:01:36.125000
2665,-124.57,2022-08-17 14:01:36.140625
2666,-143.38,2022-08-17 14:01:36.156250
2667,-151.1,2022-08-17 14:01:36.171875
2668,-153.75,2022-08-17 14:01:36.187500
2669,-157.64,2022-08-17 14:01:36.203125
2670,-167.86,2022-08-17 14:01:36.218750
2671,-187.84,2022-08-17 14:01:36.234375
2672,-219.09,2022-08-17 14:01:36.250000
2673,-260.54,2022-08-17 14:01:36.265625
2674,-307.92,2022-08-17 14:01:36.281250
2675,-354.09,2022-08-17 14:01:36.296875
2676,-390.6,2022-08-17 14:01:36.312500
2677,-411.3,2022-08-17 14:01:36.328125
2678,-414.64,2022-08-17 14:01:36.343750
2679,-404.3,2022-08-17 14:01:36.359375
2680,-387.32,2022-08-17 14:01:36.375000
2681,-370.6,2022-08-17 14:01:36.390625
2682,-358.17,2022-08-17 14:01:36.406250
2683,-350.22,2022-08-17 14:01:36.421875
2684,-343.86,2022-08-17 14:01:36.437500
2685,-334.76,2022-08-17 14:01:36.453125
2686,-319.77,2022-08-17 14:01:36.468750
2687,-297.64,2022-08-17 14:01:36.484375
2688,-268.63,2022-08-17 14:01:36.500000
2689,-233.61,2022-08-17 14:01:36.515625
2690,-193.27,2022-08-17 14:01:36.531250
2691,-148.51,2022-08-17 14:01:36.546875
2692,-100.81,2022-08-17 14:01:36.562500
2693,-52.26,2022-08-17 14:01:36.578125
2694,-4.5,2022-08-17 14:01:36.593750
2695,40.34,2022-08-17 14:01:36.609375
2696,80.11,2022-08-17 14:01:36.625000
2697,113.38,2022-08-17 14:01:36.640625
2698,139.71,2022-08-17 14:01:36.656250
2699,159.93,2022-08-17 14:01:36.671875
2700,174.98,2022-08-17 14:01:36.687500
2701,185.52,2022-08-17 14:01:36.703125
2702,191.94,2022-08-17 14:01:36.718750
2703,196.54,2022-08-17 14:01:36.734375
2704,200.16,2022-08-17 14:01:36.750000
2705,201.78,2022-08-17 14:01:36.765625
2706,200.08,2022-08-17 14:01:36.781250
2707,194.62,2022-08-17 14:01:36.796875
2708,187.59,2022-08-17 14:01:36.812500
2709,181.49,2022-08-17 14:01:36.828125
2710,178.65,2022-08-17 14:01:36.843750
2711,181.11,2022-08-17 14:01:36.859375
2712,194.42,2022-08-17 14:01:36.875000
2713,220.29,2022-08-17 14:01:36.890625
2714,255.59,2022-08-17 14:01:36.906250
2715,295.78,2022-08-17 14:01:36.921875
2716,337.72,2022-08-17 14:01:36.937500
2717,382.6,2022-08-17 14:01:36.953125
2718,430.68,2022-08-17 14:01:36.968750
2719,479.58,2022-08-17 14:01:36.984375
2720,524.45,2022-08-17 14:01:37.000000
2721,565.67,2022-08-17 14:01:37.015625
2722,599.91,2022-08-17 14:01:37.031250
2723,620.5,2022-08-17 14:01:37.046875
2724,623.36,2022-08-17 14:01:37.062500
2725,610.18,2022-08-17 14:01:37.078125
2726,590.59,2022-08-17 14:01:37.093750
2727,572.14,2022-08-17 14:01:37.109375
2728,557.18,2022-08-17 14:01:37.125000
2729,544.01,2022-08-17 14:01:37.140625
2730,537.52,2022-08-17 14:01:37.156250
2731,537.01,2022-08-17 14:01:37.171875
2732,534.67,2022-08-17 14:01:37.187500
2733,521.8,2022-08-17 14:01:37.203125
2734,492.95,2022-08-17 14:01:37.218750
2735,451.48,2022-08-17 14:01:37.234375
2736,400.64,2022-08-17 14:01:37.250000
2737,343.05,2022-08-17 14:01:37.265625
2738,227.91,2022-08-17 14:01:37.281250
2739,53.04,2022-08-17 14:01:37.296875
2740,-134.98,2022-08-17 14:01:37.312500
2741,-283.72,2022-08-17 14:01:37.328125
2742,-363.0,2022-08-17 14:01:37.343750
2743,-400.28,2022-08-17 14:01:37.359375
2744,-416.11,2022-08-17 14:01:37.375000
2745,-421.97,2022-08-17 14:01:37.390625
2746,-425.06,2022-08-17 14:01:37.406250
2747,-425.27,2022-08-17 14:01:37.421875
2748,-410.26,2022-08-17 14:01:37.437500
2749,-372.94,2022-08-17 14:01:37.453125
2750,-321.14,2022-08-17 14:01:37.468750
2751,-269.77,2022-08-17 14:01:37.484375
2752,-234.8,2022-08-17 14:01:37.500000
2753,-221.72,2022-08-17 14:01:37.515625
2754,-229.82,2022-08-17 14:01:37.531250
2755,-253.15,2022-08-17 14:01:37.546875
2756,-282.42,2022-08-17 14:01:37.562500
2757,-302.56,2022-08-17 14:01:37.578125
2758,-306.97,2022-08-17 14:01:37.593750
2759,-299.42,2022-08-17 14:01:37.609375
2760,-290.4,2022-08-17 14:01:37.625000
2761,-286.62,2022-08-17 14:01:37.640625
2762,-285.23,2022-08-17 14:01:37.656250
2763,-281.44,2022-08-17 14:01:37.671875
2764,-271.26,2022-08-17 14:01:37.687500
2765,-252.33,2022-08-17 14:01:37.703125
2766,-220.3,2022-08-17 14:01:37.718750
2767,-174.73,2022-08-17 14:01:37.734375
2768,-122.23,2022-08-17 14:01:37.750000
2769,-69.72,2022-08-17 14:01:37.765625
2770,-21.58,2022-08-17 14:01:37.781250
2771,22.79,2022-08-17 14:01:37.796875
2772,64.03,2022-08-17 14:01:37.812500
2773,101.79,2022-08-17 14:01:37.828125
2774,135.47,2022-08-17 14:01:37.843750
2775,166.67,2022-08-17 14:01:37.859375
2776,196.29,2022-08-17 14:01:37.875000
2777,223.28,2022-08-17 14:01:37.890625
2778,245.8,2022-08-17 14:01:37.906250
2779,261.74,2022-08-17 14:01:37.921875
2780,269.86,2022-08-17 14:01:37.937500
2781,268.61,2022-08-17 14:01:37.953125
2782,257.12,2022-08-17 14:01:37.968750
2783,236.36,2022-08-17 14:01:37.984375
2784,209.82,2022-08-17 14:01:38.000000
2785,181.16,2022-08-17 14:01:38.015625
2786,152.57,2022-08-17 14:01:38.031250
2787,124.84,2022-08-17 14:01:38.046875
2788,98.0,2022-08-17 14:01:38.062500
2789,72.4,2022-08-17 14:01:38.078125
2790,48.8,2022-08-17 14:01:38.093750
2791,28.35,2022-08-17 14:01:38.109375
2792,12.31,2022-08-17 14:01:38.125000
2793,1.19,2022-08-17 14:01:38.140625
2794,-5.61,2022-08-17 14:01:38.156250
2795,-9.78,2022-08-17 14:01:38.171875
2796,-13.19,2022-08-17 14:01:38.187500
2797,-17.17,2022-08-17 14:01:38.203125
2798,-22.2,2022-08-17 14:01:38.218750
2799,-27.8,2022-08-17 14:01:38.234375
2800,-32.75,2022-08-17 14:01:38.250000
2801,-35.63,2022-08-17 14:01:38.265625
2802,-35.43,2022-08-17 14:01:38.281250
2803,-31.98,2022-08-17 14:01:38.296875
2804,-25.99,2022-08-17 14:01:38.312500
2805,-18.47,2022-08-17 14:01:38.328125
2806,-9.91,2022-08-17 14:01:38.343750
2807,0.03,2022-08-17 14:01:38.359375
2808,12.43,2022-08-17 14:01:38.375000
2809,28.21,2022-08-17 14:01:38.390625
2810,47.09,2022-08-17 14:01:38.406250
2811,67.07,2022-08-17 14:01:38.421875
2812,84.99,2022-08-17 14:01:38.437500
2813,97.76,2022-08-17 14:01:38.453125
2814,103.71,2022-08-17 14:01:38.468750
2815,103.17,2022-08-17 14:01:38.484375
2816,97.73,2022-08-17 14:01:38.500000
2817,89.04,2022-08-17 14:01:38.515625
2818,77.86,2022-08-17 14:01:38.531250
2819,64.13,2022-08-17 14:01:38.546875
2820,47.74,2022-08-17 14:01:38.562500
2821,29.68,2022-08-17 14:01:38.578125
2822,12.37,2022-08-17 14:01:38.593750
2823,-1.09,2022-08-17 14:01:38.609375
2824,-8.18,2022-08-17 14:01:38.625000
2825,-8.18,2022-08-17 14:01:38.640625
2826,-2.55,2022-08-17 14:01:38.656250
2827,5.74,2022-08-17 14:01:38.671875
2828,13.49,2022-08-17 14:01:38.687500
2829,18.73,2022-08-17 14:01:38.703125
2830,21.63,2022-08-17 14:01:38.718750
2831,24.45,2022-08-17 14:01:38.734375
2832,30.66,2022-08-17 14:01:38.750000
2833,43.41,2022-08-17 14:01:38.765625
2834,64.0,2022-08-17 14:01:38.781250
2835,90.97,2022-08-17 14:01:38.796875
2836,120.2,2022-08-17 14:01:38.812500
2837,145.88,2022-08-17 14:01:38.828125
2838,162.15,2022-08-17 14:01:38.843750
2839,164.68,2022-08-17 14:01:38.859375
2840,151.65,2022-08-17 14:01:38.875000
2841,124.16,2022-08-17 14:01:38.890625
2842,85.71,2022-08-17 14:01:38.906250
2843,41.19,2022-08-17 14:01:38.921875
2844,-4.15,2022-08-17 14:01:38.937500
2845,-45.77,2022-08-17 14:01:38.953125
2846,-80.55,2022-08-17 14:01:38.968750
2847,-107.23,2022-08-17 14:01:38.984375
2848,-126.14,2022-08-17 14:01:39.000000
2849,-138.41,2022-08-17 14:01:39.015625
2850,-145.11,2022-08-17 14:01:39.031250
2851,-146.62,2022-08-17 14:01:39.046875
2852,-143.17,2022-08-17 14:01:39.062500
2853,-135.69,2022-08-17 14:01:39.078125
2854,-126.44,2022-08-17 14:01:39.093750
2855,-118.71,2022-08-17 14:01:39.109375
2856,-115.64,2022-08-17 14:01:39.125000
2857,-118.85,2022-08-17 14:01:39.140625
2858,-127.72,2022-08-17 14:01:39.156250
2859,-140.03,2022-08-17 14:01:39.171875
2860,-153.46,2022-08-17 14:01:39.187500
2861,-167.11,2022-08-17 14:01:39.203125
2862,-181.88,2022-08-17 14:01:39.218750
2863,-200.09,2022-08-17 14:01:39.234375
2864,-224.15,2022-08-17 14:01:39.250000
2865,-255.26,2022-08-17 14:01:39.265625
2866,-292.41,2022-08-17 14:01:39.281250
2867,-331.96,2022-08-17 14:01:39.296875
2868,-367.8,2022-08-17 14:01:39.312500
2869,-392.23,2022-08-17 14:01:39.328125
2870,-397.75,2022-08-17 14:01:39.343750
2871,-379.04,2022-08-17 14:01:39.359375
2872,-335.2,2022-08-17 14:01:39.375000
2873,-270.82,2022-08-17 14:01:39.390625
2874,-195.05,2022-08-17 14:01:39.406250
2875,-119.4,2022-08-17 14:01:39.421875
2876,-54.8,2022-08-17 14:01:39.437500
2877,-9.58,2022-08-17 14:01:39.453125
2878,11.8,2022-08-17 14:01:39.468750
2879,8.67,2022-08-17 14:01:39.484375
2880,-16.1,2022-08-17 14:01:39.500000
2881,-56.17,2022-08-17 14:01:39.515625
2882,-102.33,2022-08-17 14:01:39.531250
2883,-143.83,2022-08-17 14:01:39.546875
2884,-170.87,2022-08-17 14:01:39.562500
2885,-177.25,2022-08-17 14:01:39.578125
2886,-162.27,2022-08-17 14:01:39.593750
2887,-130.79,2022-08-17 14:01:39.609375
2888,-91.03,2022-08-17 14:01:39.625000
2889,-51.29,2022-08-17 14:01:39.640625
2890,-17.1,2022-08-17 14:01:39.656250
2891,10.1,2022-08-17 14:01:39.671875
2892,32.81,2022-08-17 14:01:39.687500
2893,55.73,2022-08-17 14:01:39.703125
2894,83.59,2022-08-17 14:01:39.718750
2895,119.41,2022-08-17 14:01:39.734375
2896,163.6,2022-08-17 14:01:39.750000
2897,214.47,2022-08-17 14:01:39.765625
2898,268.97,2022-08-17 14:01:39.781250
2899,323.24,2022-08-17 14:01:39.796875
2900,372.76,2022-08-17 14:01:39.812500
2901,412.66,2022-08-17 14:01:39.828125
2902,438.36,2022-08-17 14:01:39.843750
2903,446.61,2022-08-17 14:01:39.859375
2904,436.67,2022-08-17 14:01:39.875000
2905,410.11,2022-08-17 14:01:39.890625
2906,371.39,2022-08-17 14:01:39.906250
2907,326.82,2022-08-17 14:01:39.921875
2908,282.53,2022-08-17 14:01:39.937500
2909,242.15,2022-08-17 14:01:39.953125
2910,206.23,2022-08-17 14:01:39.968750
2911,173.18,2022-08-17 14:01:39.984375
2912,140.54,2022-08-17 14:01:40.000000
2913,106.33,2022-08-17 14:01:40.015625
2914,67.53,2022-08-17 14:01:40.031250
2915,22.75,2022-08-17 14:01:40.046875
2916,-26.94,2022-08-17 14:01:40.062500
2917,-78.45,2022-08-17 14:01:40.078125
2918,-128.2,2022-08-17 14:01:40.093750
2919,-172.57,2022-08-17 14:01:40.109375
2920,-208.08,2022-08-17 14:01:40.125000
2921,-231.68,2022-08-17 14:01:40.140625
2922,-241.44,2022-08-17 14:01:40.156250
2923,-241.21,2022-08-17 14:01:40.171875
2924,-235.19,2022-08-17 14:01:40.187500
2925,-225.29,2022-08-17 14:01:40.203125
2926,-211.18,2022-08-17 14:01:40.218750
2927,-192.97,2022-08-17 14:01:40.234375
2928,-171.81,2022-08-17 14:01:40.250000
2929,-149.11,2022-08-17 14:01:40.265625
2930,-125.9,2022-08-17 14:01:40.281250
2931,-102.18,2022-08-17 14:01:40.296875
2932,-83.43,2022-08-17 14:01:40.312500
2933,-72.42,2022-08-17 14:01:40.328125
2934,-66.96,2022-08-17 14:01:40.343750
2935,-62.27,2022-08-17 14:01:40.359375
2936,-56.95,2022-08-17 14:01:40.375000
2937,-54.55,2022-08-17 14:01:40.390625
2938,-60.77,2022-08-17 14:01:40.406250
2939,-79.47,2022-08-17 14:01:40.421875
2940,-109.62,2022-08-17 14:01:40.437500
2941,-153.16,2022-08-17 14:01:40.453125
2942,-206.19,2022-08-17 14:01:40.468750
2943,-259.21,2022-08-17 14:01:40.484375
2944,-302.49,2022-08-17 14:01:40.500000
2945,-334.17,2022-08-17 14:01:40.515625
2946,-360.48,2022-08-17 14:01:40.531250
2947,-389.88,2022-08-17 14:01:40.546875
2948,-427.38,2022-08-17 14:01:40.562500
2949,-419.04,2022-08-17 14:01:40.578125
2950,-334.8,2022-08-17 14:01:40.593750
2951,-190.63,2022-08-17 14:01:40.609375
2952,-33.49,2022-08-17 14:01:40.625000
2953,101.14,2022-08-17 14:01:40.640625
2954,201.28,2022-08-17 14:01:40.656250
2955,269.78,2022-08-17 14:01:40.671875
2956,315.66,2022-08-17 14:01:40.687500
2957,347.68,2022-08-17 14:01:40.703125
2958,373.17,2022-08-17 14:01:40.718750
2959,387.38,2022-08-17 14:01:40.734375
2960,388.29,2022-08-17 14:01:40.750000
2961,377.6,2022-08-17 14:01:40.765625
2962,361.66,2022-08-17 14:01:40.781250
2963,346.05,2022-08-17 14:01:40.796875
2964,333.87,2022-08-17 14:01:40.812500
2965,326.51,2022-08-17 14:01:40.828125
2966,321.22,2022-08-17 14:01:40.843750
2967,315.53,2022-08-17 14:01:40.859375
2968,301.5,2022-08-17 14:01:40.875000
2969,276.89,2022-08-17 14:01:40.890625
2970,242.58,2022-08-17 14:01:40.906250
2971,203.19,2022-08-17 14:01:40.921875
2972,162.9,2022-08-17 14:01:40.937500
2973,124.03,2022-08-17 14:01:40.953125
2974,87.89,2022-08-17 14:01:40.968750
2975,50.5,2022-08-17 14:01:40.984375
2976,10.15,2022-08-17 14:01:41.000000
2977,-34.75,2022-08-17 14:01:41.015625
2978,-82.05,2022-08-17 14:01:41.031250
2979,-128.3,2022-08-17 14:01:41.046875
2980,-169.0,2022-08-17 14:01:41.062500
2981,-200.93,2022-08-17 14:01:41.078125
2982,-222.79,2022-08-17 14:01:41.093750
2983,-234.49,2022-08-17 14:01:41.109375
2984,-243.32,2022-08-17 14:01:41.125000
2985,-253.77,2022-08-17 14:01:41.140625
2986,-267.05,2022-08-17 14:01:41.156250
2987,-281.16,2022-08-17 14:01:41.171875
2988,-295.04,2022-08-17 14:01:41.187500
2989,-308.76,2022-08-17 14:01:41.203125
2990,-323.72,2022-08-17 14:01:41.218750
2991,-341.9,2022-08-17 14:01:41.234375
2992,-324.0,2022-08-17 14:01:41.250000
2993,-258.37,2022-08-17 14:01:41.265625
2994,-166.37,2022-08-17 14:01:41.281250
2995,-80.53,2022-08-17 14:01:41.296875
2996,-17.02,2022-08-17 14:01:41.312500
2997,24.44,2022-08-17 14:01:41.328125
2998,50.86,2022-08-17 14:01:41.343750
2999,69.18,2022-08-17 14:01:41.359375
3000,83.9,2022-08-17 14:01:41.375000
3001,97.67,2022-08-17 14:01:41.390625
3002,105.14,2022-08-17 14:01:41.406250
3003,103.59,2022-08-17 14:01:41.421875
3004,95.9,2022-08-17 14:01:41.437500
3005,87.72,2022-08-17 14:01:41.453125
3006,82.55,2022-08-17 14:01:41.468750
3007,81.15,2022-08-17 14:01:41.484375
3008,82.95,2022-08-17 14:01:41.500000
3009,86.92,2022-08-17 14:01:41.515625
3010,92.42,2022-08-17 14:01:41.531250
3011,93.97,2022-08-17 14:01:41.546875
3012,88.94,2022-08-17 14:01:41.562500
3013,79.39,2022-08-17 14:01:41.578125
3014,69.64,2022-08-17 14:01:41.593750
3015,62.49,2022-08-17 14:01:41.609375
3016,58.56,2022-08-17 14:01:41.625000
3017,57.32,2022-08-17 14:01:41.640625
3018,57.96,2022-08-17 14:01:41.656250
3019,59.86,2022-08-17 14:01:41.671875
3020,59.37,2022-08-17 14:01:41.687500
3021,54.75,2022-08-17 14:01:41.703125
3022,47.24,2022-08-17 14:01:41.718750
3023,39.58,2022-08-17 14:01:41.734375
3024,33.66,2022-08-17 14:01:41.750000
3025,29.96,2022-08-17 14:01:41.765625
3026,28.19,2022-08-17 14:01:41.781250
3027,27.73,2022-08-17 14:01:41.796875
3028,27.99,2022-08-17 14:01:41.812500
3029,26.88,2022-08-17 14:01:41.828125
3030,23.37,2022-08-17 14:01:41.843750
3031,18.03,2022-08-17 14:01:41.859375
3032,12.39,2022-08-17 14:01:41.875000
3033,7.73,2022-08-17 14:01:41.890625
3034,4.62,2022-08-17 14:01:41.906250
3035,3.08,2022-08-17 14:01:41.921875
3036,2.68,2022-08-17 14:01:41.937500
3037,2.67,2022-08-17 14:01:41.953125
3038,1.71,2022-08-17 14:01:41.968750
3039,-1.01,2022-08-17 14:01:41.984375
3040,-5.36,2022-08-17 14:01:42.000000
3041,-10.37,2022-08-17 14:01:42.015625
3042,-14.91,2022-08-17 14:01:42.031250
3043,-18.09,2022-08-17 14:01:42.046875
3044,-19.59,2022-08-17 14:01:42.062500
3045,-19.83,2022-08-17 14:01:42.078125
3046,-19.82,2022-08-17 14:01:42.093750
3047,-20.75,2022-08-17 14:01:42.109375
3048,-23.47,2022-08-17 14:01:42.125000
3049,-28.09,2022-08-17 14:01:42.140625
3050,-33.89,2022-08-17 14:01:42.156250
3051,-39.52,2022-08-17 14:01:42.171875
3052,-43.85,2022-08-17 14:01:42.187500
3053,-46.24,2022-08-17 14:01:42.203125
3054,-46.92,2022-08-17 14:01:42.218750
3055,-46.83,2022-08-17 14:01:42.234375
3056,-47.5,2022-08-17 14:01:42.250000
3057,-49.71,2022-08-17 14:01:42.265625
3058,-54.25,2022-08-17 14:01:42.281250
3059,-61.66,2022-08-17 14:01:42.296875
3060,-71.76,2022-08-17 14:01:42.312500
3061,-83.17,2022-08-17 14:01:42.328125
3062,-92.79,2022-08-17 14:01:42.343750
3063,-96.4,2022-08-17 14:01:42.359375
3064,-90.18,2022-08-17 14:01:42.375000
3065,-72.8,2022-08-17 14:01:42.390625
3066,-46.72,2022-08-17 14:01:42.406250
3067,-17.81,2022-08-17 14:01:42.421875
3068,6.97,2022-08-17 14:01:42.437500
3069,22.65,2022-08-17 14:01:42.453125
3070,28.28,2022-08-17 14:01:42.468750
3071,26.88,2022-08-17 14:01:42.484375
3072,23.38,2022-08-17 14:01:42.500000
3073,22.12,2022-08-17 14:01:42.515625
3074,24.78,2022-08-17 14:01:42.531250
3075,30.41,2022-08-17 14:01:42.546875
3076,36.78,2022-08-17 14:01:42.562500
3077,42.19,2022-08-17 14:01:42.578125
3078,46.49,2022-08-17 14:01:42.593750
3079,50.87,2022-08-17 14:01:42.609375
3080,56.65,2022-08-17 14:01:42.625000
3081,64.22,2022-08-17 14:01:42.640625
3082,72.67,2022-08-17 14:01:42.656250
3083,80.11,2022-08-17 14:01:42.671875
3084,84.38,2022-08-17 14:01:42.687500
3085,84.27,2022-08-17 14:01:42.703125
3086,79.69,2022-08-17 14:01:42.718750
3087,71.94,2022-08-17 14:01:42.734375
3088,63.04,2022-08-17 14:01:42.750000
3089,54.97,2022-08-17 14:01:42.765625
3090,49.25,2022-08-17 14:01:42.781250
3091,46.92,2022-08-17 14:01:42.796875
3092,48.71,2022-08-17 14:01:42.812500
3093,54.69,2022-08-17 14:01:42.828125
3094,63.7,2022-08-17 14:01:42.843750
3095,72.59,2022-08-17 14:01:42.859375
3096,76.72,2022-08-17 14:01:42.875000
3097,71.47,2022-08-17 14:01:42.890625
3098,54.53,2022-08-17 14:01:42.906250
3099,27.72,2022-08-17 14:01:42.921875
3100,-3.27,2022-08-17 14:01:42.937500
3101,-31.04,2022-08-17 14:01:42.953125
3102,-49.71,2022-08-17 14:01:42.968750
3103,-57.54,2022-08-17 14:01:42.984375
3104,-57.39,2022-08-17 14:01:43.000000
3105,-54.72,2022-08-17 14:01:43.015625
3106,-55.01,2022-08-17 14:01:43.031250
3107,-61.65,2022-08-17 14:01:43.046875
3108,-75.44,2022-08-17 14:01:43.062500
3109,-95.29,2022-08-17 14:01:43.078125
3110,-118.66,2022-08-17 14:01:43.093750
3111,-142.09,2022-08-17 14:01:43.109375
3112,-161.08,2022-08-17 14:01:43.125000
3113,-170.9,2022-08-17 14:01:43.140625
3114,-167.93,2022-08-17 14:01:43.156250
3115,-151.67,2022-08-17 14:01:43.171875
3116,-125.66,2022-08-17 14:01:43.187500
3117,-96.3,2022-08-17 14:01:43.203125
3118,-70.69,2022-08-17 14:01:43.218750
3119,-53.57,2022-08-17 14:01:43.234375
3120,-46.33,2022-08-17 14:01:43.250000
3121,-47.27,2022-08-17 14:01:43.265625
3122,-53.36,2022-08-17 14:01:43.281250
3123,-61.87,2022-08-17 14:01:43.296875
3124,-71.35,2022-08-17 14:01:43.312500
3125,-81.26,2022-08-17 14:01:43.328125
3126,-91.19,2022-08-17 14:01:43.343750
3127,-100.47,2022-08-17 14:01:43.359375
3128,-107.85,2022-08-17 14:01:43.375000
3129,-112.78,2022-08-17 14:01:43.390625
3130,-115.77,2022-08-17 14:01:43.406250
3131,-118.17,2022-08-17 14:01:43.421875
3132,-121.38,2022-08-17 14:01:43.437500
3133,-126.12,2022-08-17 14:01:43.453125
3134,-131.56,2022-08-17 14:01:43.468750
3135,-135.18,2022-08-17 14:01:43.484375
3136,-136.34,2022-08-17 14:01:43.500000
3137,-133.16,2022-08-17 14:01:43.515625
3138,-124.75,2022-08-17 14:01:43.531250
3139,-111.85,2022-08-17 14:01:43.546875
3140,-96.85,2022-08-17 14:01:43.562500
3141,-82.55,2022-08-17 14:01:43.578125
3142,-71.25,2022-08-17 14:01:43.593750
3143,-64.06,2022-08-17 14:01:43.609375
3144,-60.84,2022-08-17 14:01:43.625000
