,BVP,time
0,-1.27,2022-10-26 10:39:41.031250
1,-3.48,2022-10-26 10:39:41.046875
2,-5.69,2022-10-26 10:39:41.062500
3,-7.6,2022-10-26 10:39:41.078125
4,-9.07,2022-10-26 10:39:41.093750
5,-10.08,2022-10-26 10:39:41.109375
6,-10.7,2022-10-26 10:39:41.125000
7,-11.04,2022-10-26 10:39:41.140625
8,-11.21,2022-10-26 10:39:41.156250
9,-11.32,2022-10-26 10:39:41.171875
10,-11.52,2022-10-26 10:39:41.187500
11,-11.89,2022-10-26 10:39:41.203125
12,-12.51,2022-10-26 10:39:41.218750
13,-13.37,2022-10-26 10:39:41.234375
14,-14.5,2022-10-26 10:39:41.250000
15,-15.93,2022-10-26 10:39:41.265625
16,-17.7,2022-10-26 10:39:41.281250
17,-19.84,2022-10-26 10:39:41.296875
18,-22.28,2022-10-26 10:39:41.312500
19,-24.79,2022-10-26 10:39:41.328125
20,-26.98,2022-10-26 10:39:41.343750
21,-28.38,2022-10-26 10:39:41.359375
22,-28.66,2022-10-26 10:39:41.375000
23,-27.66,2022-10-26 10:39:41.390625
24,-25.56,2022-10-26 10:39:41.406250
25,-22.73,2022-10-26 10:39:41.421875
26,-19.74,2022-10-26 10:39:41.437500
27,-17.1,2022-10-26 10:39:41.453125
28,-15.25,2022-10-26 10:39:41.468750
29,-14.45,2022-10-26 10:39:41.484375
30,-14.61,2022-10-26 10:39:41.500000
31,-15.3,2022-10-26 10:39:41.515625
32,-15.73,2022-10-26 10:39:41.531250
33,-14.95,2022-10-26 10:39:41.546875
34,-12.21,2022-10-26 10:39:41.562500
35,-7.32,2022-10-26 10:39:41.578125
36,-0.82,2022-10-26 10:39:41.593750
37,6.05,2022-10-26 10:39:41.609375
38,11.88,2022-10-26 10:39:41.625000
39,15.59,2022-10-26 10:39:41.640625
40,16.86,2022-10-26 10:39:41.656250
41,16.17,2022-10-26 10:39:41.671875
42,14.5,2022-10-26 10:39:41.687500
43,12.79,2022-10-26 10:39:41.703125
44,11.6,2022-10-26 10:39:41.718750
45,11.07,2022-10-26 10:39:41.734375
46,11.2,2022-10-26 10:39:41.750000
47,12.05,2022-10-26 10:39:41.765625
48,13.87,2022-10-26 10:39:41.781250
49,16.84,2022-10-26 10:39:41.796875
50,20.73,2022-10-26 10:39:41.812500
51,24.74,2022-10-26 10:39:41.828125
52,27.72,2022-10-26 10:39:41.843750
53,28.6,2022-10-26 10:39:41.859375
54,26.82,2022-10-26 10:39:41.875000
55,22.66,2022-10-26 10:39:41.890625
56,16.98,2022-10-26 10:39:41.906250
57,10.9,2022-10-26 10:39:41.921875
58,5.32,2022-10-26 10:39:41.937500
59,0.81,2022-10-26 10:39:41.953125
60,-2.42,2022-10-26 10:39:41.968750
61,-4.44,2022-10-26 10:39:41.984375
62,-5.53,2022-10-26 10:39:42.000000
63,-6.24,2022-10-26 10:39:42.015625
64,-7.45,2022-10-26 10:39:42.031250
65,-10.17,2022-10-26 10:39:42.046875
66,-15.34,2022-10-26 10:39:42.062500
67,-23.42,2022-10-26 10:39:42.078125
68,-34.06,2022-10-26 10:39:42.093750
69,-46.02,2022-10-26 10:39:42.109375
70,-57.35,2022-10-26 10:39:42.125000
71,-65.85,2022-10-26 10:39:42.140625
72,-69.81,2022-10-26 10:39:42.156250
73,-68.53,2022-10-26 10:39:42.171875
74,-62.63,2022-10-26 10:39:42.187500
75,-53.78,2022-10-26 10:39:42.203125
76,-44.04,2022-10-26 10:39:42.218750
77,-35.14,2022-10-26 10:39:42.234375
78,-27.9,2022-10-26 10:39:42.250000
79,-22.17,2022-10-26 10:39:42.265625
80,-17.27,2022-10-26 10:39:42.281250
81,-12.55,2022-10-26 10:39:42.296875
82,-7.89,2022-10-26 10:39:42.312500
83,-3.74,2022-10-26 10:39:42.328125
84,-0.79,2022-10-26 10:39:42.343750
85,0.46,2022-10-26 10:39:42.359375
86,0.06,2022-10-26 10:39:42.375000
87,-1.42,2022-10-26 10:39:42.390625
88,-3.06,2022-10-26 10:39:42.406250
89,-4.12,2022-10-26 10:39:42.421875
90,-4.13,2022-10-26 10:39:42.437500
91,-3.09,2022-10-26 10:39:42.453125
92,-1.36,2022-10-26 10:39:42.468750
93,0.6,2022-10-26 10:39:42.484375
94,2.34,2022-10-26 10:39:42.500000
95,3.53,2022-10-26 10:39:42.515625
96,3.97,2022-10-26 10:39:42.531250
97,3.7,2022-10-26 10:39:42.546875
98,3.27,2022-10-26 10:39:42.562500
99,3.92,2022-10-26 10:39:42.578125
100,7.43,2022-10-26 10:39:42.593750
101,15.61,2022-10-26 10:39:42.609375
102,29.41,2022-10-26 10:39:42.625000
103,48.46,2022-10-26 10:39:42.640625
104,71.17,2022-10-26 10:39:42.656250
105,95.42,2022-10-26 10:39:42.671875
106,119.45,2022-10-26 10:39:42.687500
107,142.42,2022-10-26 10:39:42.703125
108,164.19,2022-10-26 10:39:42.718750
109,184.67,2022-10-26 10:39:42.734375
110,203.07,2022-10-26 10:39:42.750000
111,217.78,2022-10-26 10:39:42.765625
112,226.81,2022-10-26 10:39:42.781250
113,228.68,2022-10-26 10:39:42.796875
114,223.02,2022-10-26 10:39:42.812500
115,210.75,2022-10-26 10:39:42.828125
116,193.73,2022-10-26 10:39:42.843750
117,174.13,2022-10-26 10:39:42.859375
118,153.78,2022-10-26 10:39:42.875000
119,133.8,2022-10-26 10:39:42.890625
120,114.36,2022-10-26 10:39:42.906250
121,94.49,2022-10-26 10:39:42.921875
122,72.46,2022-10-26 10:39:42.937500
123,46.09,2022-10-26 10:39:42.953125
124,13.39,2022-10-26 10:39:42.968750
125,-26.91,2022-10-26 10:39:42.984375
126,-74.63,2022-10-26 10:39:43.000000
127,-127.54,2022-10-26 10:39:43.015625
128,-181.2,2022-10-26 10:39:43.031250
129,-229.41,2022-10-26 10:39:43.046875
130,-265.67,2022-10-26 10:39:43.062500
131,-285.06,2022-10-26 10:39:43.078125
132,-285.97,2022-10-26 10:39:43.093750
133,-270.63,2022-10-26 10:39:43.109375
134,-244.24,2022-10-26 10:39:43.125000
135,-212.95,2022-10-26 10:39:43.140625
136,-181.8,2022-10-26 10:39:43.156250
137,-153.6,2022-10-26 10:39:43.171875
138,-129.12,2022-10-26 10:39:43.187500
139,-108.19,2022-10-26 10:39:43.203125
140,-90.73,2022-10-26 10:39:43.218750
141,-77.01,2022-10-26 10:39:43.234375
142,-67.18,2022-10-26 10:39:43.250000
143,-60.53,2022-10-26 10:39:43.265625
144,-55.28,2022-10-26 10:39:43.281250
145,-49.13,2022-10-26 10:39:43.296875
146,-40.25,2022-10-26 10:39:43.312500
147,-28.08,2022-10-26 10:39:43.328125
148,-13.5,2022-10-26 10:39:43.343750
149,1.67,2022-10-26 10:39:43.359375
150,15.18,2022-10-26 10:39:43.375000
151,25.04,2022-10-26 10:39:43.390625
152,29.88,2022-10-26 10:39:43.406250
153,29.1,2022-10-26 10:39:43.421875
154,22.94,2022-10-26 10:39:43.437500
155,12.47,2022-10-26 10:39:43.453125
156,-0.6,2022-10-26 10:39:43.468750
157,-14.29,2022-10-26 10:39:43.484375
158,-26.93,2022-10-26 10:39:43.500000
159,-37.47,2022-10-26 10:39:43.515625
160,-45.58,2022-10-26 10:39:43.531250
161,-51.42,2022-10-26 10:39:43.546875
162,-55.23,2022-10-26 10:39:43.562500
163,-57.13,2022-10-26 10:39:43.578125
164,-57.14,2022-10-26 10:39:43.593750
165,-55.45,2022-10-26 10:39:43.609375
166,-52.65,2022-10-26 10:39:43.625000
167,-49.69,2022-10-26 10:39:43.640625
168,-47.61,2022-10-26 10:39:43.656250
169,-47.11,2022-10-26 10:39:43.671875
170,-48.36,2022-10-26 10:39:43.687500
171,-50.99,2022-10-26 10:39:43.703125
172,-54.32,2022-10-26 10:39:43.718750
173,-57.53,2022-10-26 10:39:43.734375
174,-59.85,2022-10-26 10:39:43.750000
175,-60.58,2022-10-26 10:39:43.765625
176,-59.14,2022-10-26 10:39:43.781250
177,-55.15,2022-10-26 10:39:43.796875
178,-48.54,2022-10-26 10:39:43.812500
179,-39.62,2022-10-26 10:39:43.828125
180,-29.03,2022-10-26 10:39:43.843750
181,-17.62,2022-10-26 10:39:43.859375
182,-6.2,2022-10-26 10:39:43.875000
183,4.6,2022-10-26 10:39:43.890625
184,14.41,2022-10-26 10:39:43.906250
185,23.07,2022-10-26 10:39:43.921875
186,30.56,2022-10-26 10:39:43.937500
187,36.94,2022-10-26 10:39:43.953125
188,42.34,2022-10-26 10:39:43.968750
189,46.98,2022-10-26 10:39:43.984375
190,51.13,2022-10-26 10:39:44.000000
191,55.07,2022-10-26 10:39:44.015625
192,58.97,2022-10-26 10:39:44.031250
193,62.85,2022-10-26 10:39:44.046875
194,66.55,2022-10-26 10:39:44.062500
195,69.75,2022-10-26 10:39:44.078125
196,72.16,2022-10-26 10:39:44.093750
197,73.67,2022-10-26 10:39:44.109375
198,74.46,2022-10-26 10:39:44.125000
199,75.0,2022-10-26 10:39:44.140625
200,75.82,2022-10-26 10:39:44.156250
201,77.32,2022-10-26 10:39:44.171875
202,79.5,2022-10-26 10:39:44.187500
203,81.85,2022-10-26 10:39:44.203125
204,83.49,2022-10-26 10:39:44.218750
205,83.49,2022-10-26 10:39:44.234375
206,81.25,2022-10-26 10:39:44.250000
207,76.79,2022-10-26 10:39:44.265625
208,70.75,2022-10-26 10:39:44.281250
209,64.1,2022-10-26 10:39:44.296875
210,57.73,2022-10-26 10:39:44.312500
211,52.08,2022-10-26 10:39:44.328125
212,47.08,2022-10-26 10:39:44.343750
213,42.29,2022-10-26 10:39:44.359375
214,37.27,2022-10-26 10:39:44.375000
215,31.82,2022-10-26 10:39:44.390625
216,26.04,2022-10-26 10:39:44.406250
217,20.25,2022-10-26 10:39:44.421875
218,14.66,2022-10-26 10:39:44.437500
219,9.28,2022-10-26 10:39:44.453125
220,3.83,2022-10-26 10:39:44.468750
221,-2.07,2022-10-26 10:39:44.484375
222,-8.76,2022-10-26 10:39:44.500000
223,-16.38,2022-10-26 10:39:44.515625
224,-24.82,2022-10-26 10:39:44.531250
225,-33.65,2022-10-26 10:39:44.546875
226,-42.16,2022-10-26 10:39:44.562500
227,-49.42,2022-10-26 10:39:44.578125
228,-54.44,2022-10-26 10:39:44.593750
229,-56.41,2022-10-26 10:39:44.609375
230,-54.95,2022-10-26 10:39:44.625000
231,-50.27,2022-10-26 10:39:44.640625
232,-43.14,2022-10-26 10:39:44.656250
233,-34.62,2022-10-26 10:39:44.671875
234,-25.81,2022-10-26 10:39:44.687500
235,-17.57,2022-10-26 10:39:44.703125
236,-10.44,2022-10-26 10:39:44.718750
237,-4.64,2022-10-26 10:39:44.734375
238,-0.2,2022-10-26 10:39:44.750000
239,3.02,2022-10-26 10:39:44.765625
240,5.2,2022-10-26 10:39:44.781250
241,6.58,2022-10-26 10:39:44.796875
242,7.39,2022-10-26 10:39:44.812500
243,7.81,2022-10-26 10:39:44.828125
244,7.88,2022-10-26 10:39:44.843750
245,7.62,2022-10-26 10:39:44.859375
246,7.03,2022-10-26 10:39:44.875000
247,6.21,2022-10-26 10:39:44.890625
248,5.33,2022-10-26 10:39:44.906250
249,4.64,2022-10-26 10:39:44.921875
250,4.34,2022-10-26 10:39:44.937500
251,4.51,2022-10-26 10:39:44.953125
252,5.04,2022-10-26 10:39:44.968750
253,5.7,2022-10-26 10:39:44.984375
254,6.12,2022-10-26 10:39:45.000000
255,5.94,2022-10-26 10:39:45.015625
256,4.97,2022-10-26 10:39:45.031250
257,3.29,2022-10-26 10:39:45.046875
258,1.26,2022-10-26 10:39:45.062500
259,-0.68,2022-10-26 10:39:45.078125
260,-2.27,2022-10-26 10:39:45.093750
261,-3.64,2022-10-26 10:39:45.109375
262,-5.2,2022-10-26 10:39:45.125000
263,-7.54,2022-10-26 10:39:45.140625
264,-11.05,2022-10-26 10:39:45.156250
265,-15.71,2022-10-26 10:39:45.171875
266,-20.93,2022-10-26 10:39:45.187500
267,-25.88,2022-10-26 10:39:45.203125
268,-29.86,2022-10-26 10:39:45.218750
269,-32.69,2022-10-26 10:39:45.234375
270,-34.83,2022-10-26 10:39:45.250000
271,-37.06,2022-10-26 10:39:45.265625
272,-40.24,2022-10-26 10:39:45.281250
273,-45.05,2022-10-26 10:39:45.296875
274,-51.59,2022-10-26 10:39:45.312500
275,-59.32,2022-10-26 10:39:45.328125
276,-67.16,2022-10-26 10:39:45.343750
277,-73.87,2022-10-26 10:39:45.359375
278,-78.41,2022-10-26 10:39:45.375000
279,-80.18,2022-10-26 10:39:45.390625
280,-78.85,2022-10-26 10:39:45.406250
281,-74.82,2022-10-26 10:39:45.421875
282,-69.13,2022-10-26 10:39:45.437500
283,-62.78,2022-10-26 10:39:45.453125
284,-56.02,2022-10-26 10:39:45.468750
285,-48.01,2022-10-26 10:39:45.484375
286,-37.3,2022-10-26 10:39:45.500000
287,-22.56,2022-10-26 10:39:45.515625
288,-3.57,2022-10-26 10:39:45.531250
289,18.89,2022-10-26 10:39:45.546875
290,41.81,2022-10-26 10:39:45.562500
291,60.27,2022-10-26 10:39:45.578125
292,68.93,2022-10-26 10:39:45.593750
293,64.2,2022-10-26 10:39:45.609375
294,45.76,2022-10-26 10:39:45.625000
295,17.01,2022-10-26 10:39:45.640625
296,-15.58,2022-10-26 10:39:45.656250
297,-44.17,2022-10-26 10:39:45.671875
298,-60.75,2022-10-26 10:39:45.687500
299,-61.12,2022-10-26 10:39:45.703125
300,-46.38,2022-10-26 10:39:45.718750
301,-21.58,2022-10-26 10:39:45.734375
302,7.19,2022-10-26 10:39:45.750000
303,35.41,2022-10-26 10:39:45.765625
304,61.06,2022-10-26 10:39:45.781250
305,84.29,2022-10-26 10:39:45.796875
306,106.36,2022-10-26 10:39:45.812500
307,129.75,2022-10-26 10:39:45.828125
308,155.02,2022-10-26 10:39:45.843750
309,180.09,2022-10-26 10:39:45.859375
310,201.23,2022-10-26 10:39:45.875000
311,214.92,2022-10-26 10:39:45.890625
312,218.86,2022-10-26 10:39:45.906250
313,211.96,2022-10-26 10:39:45.921875
314,194.28,2022-10-26 10:39:45.937500
315,157.49,2022-10-26 10:39:45.953125
316,101.4,2022-10-26 10:39:45.968750
317,35.48,2022-10-26 10:39:45.984375
318,-26.85,2022-10-26 10:39:46.000000
319,-77.2,2022-10-26 10:39:46.015625
320,-114.16,2022-10-26 10:39:46.031250
321,-139.86,2022-10-26 10:39:46.046875
322,-156.7,2022-10-26 10:39:46.062500
323,-166.59,2022-10-26 10:39:46.078125
324,-173.39,2022-10-26 10:39:46.093750
325,-179.43,2022-10-26 10:39:46.109375
326,-188.48,2022-10-26 10:39:46.125000
327,-205.07,2022-10-26 10:39:46.140625
328,-231.84,2022-10-26 10:39:46.156250
329,-266.85,2022-10-26 10:39:46.171875
330,-303.36,2022-10-26 10:39:46.187500
331,-332.43,2022-10-26 10:39:46.203125
332,-346.93,2022-10-26 10:39:46.218750
333,-338.54,2022-10-26 10:39:46.234375
334,-306.02,2022-10-26 10:39:46.250000
335,-255.33,2022-10-26 10:39:46.265625
336,-197.01,2022-10-26 10:39:46.281250
337,-141.55,2022-10-26 10:39:46.296875
338,-95.14,2022-10-26 10:39:46.312500
339,-58.33,2022-10-26 10:39:46.328125
340,-27.57,2022-10-26 10:39:46.343750
341,1.78,2022-10-26 10:39:46.359375
342,33.07,2022-10-26 10:39:46.375000
343,67.2,2022-10-26 10:39:46.390625
344,102.37,2022-10-26 10:39:46.406250
345,134.87,2022-10-26 10:39:46.421875
346,160.5,2022-10-26 10:39:46.437500
347,175.83,2022-10-26 10:39:46.453125
348,178.68,2022-10-26 10:39:46.468750
349,168.24,2022-10-26 10:39:46.484375
350,145.41,2022-10-26 10:39:46.500000
351,112.94,2022-10-26 10:39:46.515625
352,75.27,2022-10-26 10:39:46.531250
353,37.77,2022-10-26 10:39:46.546875
354,5.24,2022-10-26 10:39:46.562500
355,-19.6,2022-10-26 10:39:46.578125
356,-36.57,2022-10-26 10:39:46.593750
357,-47.7,2022-10-26 10:39:46.609375
358,-55.86,2022-10-26 10:39:46.625000
359,-63.07,2022-10-26 10:39:46.640625
360,-69.55,2022-10-26 10:39:46.656250
361,-74.14,2022-10-26 10:39:46.671875
362,-75.25,2022-10-26 10:39:46.687500
363,-72.19,2022-10-26 10:39:46.703125
364,-65.7,2022-10-26 10:39:46.718750
365,-57.32,2022-10-26 10:39:46.734375
366,-48.69,2022-10-26 10:39:46.750000
367,-41.08,2022-10-26 10:39:46.765625
368,-35.61,2022-10-26 10:39:46.781250
369,-33.47,2022-10-26 10:39:46.796875
370,-35.92,2022-10-26 10:39:46.812500
371,-43.18,2022-10-26 10:39:46.828125
372,-53.52,2022-10-26 10:39:46.843750
373,-63.25,2022-10-26 10:39:46.859375
374,-67.75,2022-10-26 10:39:46.875000
375,-63.6,2022-10-26 10:39:46.890625
376,-50.17,2022-10-26 10:39:46.906250
377,-30.07,2022-10-26 10:39:46.921875
378,-7.74,2022-10-26 10:39:46.937500
379,12.68,2022-10-26 10:39:46.953125
380,29.25,2022-10-26 10:39:46.968750
381,42.51,2022-10-26 10:39:46.984375
382,54.63,2022-10-26 10:39:47.000000
383,67.78,2022-10-26 10:39:47.015625
384,83.03,2022-10-26 10:39:47.031250
385,100.25,2022-10-26 10:39:47.046875
386,118.54,2022-10-26 10:39:47.062500
387,137.01,2022-10-26 10:39:47.078125
388,155.17,2022-10-26 10:39:47.093750
389,172.89,2022-10-26 10:39:47.109375
390,190.18,2022-10-26 10:39:47.125000
391,206.93,2022-10-26 10:39:47.140625
392,222.88,2022-10-26 10:39:47.156250
393,237.57,2022-10-26 10:39:47.171875
394,250.28,2022-10-26 10:39:47.187500
395,260.05,2022-10-26 10:39:47.203125
396,265.73,2022-10-26 10:39:47.218750
397,266.44,2022-10-26 10:39:47.234375
398,262.06,2022-10-26 10:39:47.250000
399,253.55,2022-10-26 10:39:47.265625
400,242.73,2022-10-26 10:39:47.281250
401,231.66,2022-10-26 10:39:47.296875
402,221.76,2022-10-26 10:39:47.312500
403,213.32,2022-10-26 10:39:47.328125
404,205.59,2022-10-26 10:39:47.343750
405,197.55,2022-10-26 10:39:47.359375
406,188.74,2022-10-26 10:39:47.375000
407,179.63,2022-10-26 10:39:47.390625
408,171.23,2022-10-26 10:39:47.406250
409,163.98,2022-10-26 10:39:47.421875
410,156.94,2022-10-26 10:39:47.437500
411,147.54,2022-10-26 10:39:47.453125
412,132.42,2022-10-26 10:39:47.468750
413,108.83,2022-10-26 10:39:47.484375
414,75.8,2022-10-26 10:39:47.500000
415,34.07,2022-10-26 10:39:47.515625
416,-14.91,2022-10-26 10:39:47.531250
417,-70.0,2022-10-26 10:39:47.546875
418,-130.42,2022-10-26 10:39:47.562500
419,-194.42,2022-10-26 10:39:47.578125
420,-257.65,2022-10-26 10:39:47.593750
421,-312.66,2022-10-26 10:39:47.609375
422,-350.43,2022-10-26 10:39:47.625000
423,-363.69,2022-10-26 10:39:47.640625
424,-350.02,2022-10-26 10:39:47.656250
425,-313.08,2022-10-26 10:39:47.671875
426,-260.93,2022-10-26 10:39:47.687500
427,-202.63,2022-10-26 10:39:47.703125
428,-144.76,2022-10-26 10:39:47.718750
429,-89.88,2022-10-26 10:39:47.734375
430,-37.25,2022-10-26 10:39:47.750000
431,15.42,2022-10-26 10:39:47.765625
432,70.17,2022-10-26 10:39:47.781250
433,128.23,2022-10-26 10:39:47.796875
434,190.11,2022-10-26 10:39:47.812500
435,255.7,2022-10-26 10:39:47.828125
436,323.78,2022-10-26 10:39:47.843750
437,391.24,2022-10-26 10:39:47.859375
438,452.73,2022-10-26 10:39:47.875000
439,501.48,2022-10-26 10:39:47.890625
440,531.19,2022-10-26 10:39:47.906250
441,537.93,2022-10-26 10:39:47.921875
442,521.63,2022-10-26 10:39:47.937500
443,485.95,2022-10-26 10:39:47.953125
444,437.04,2022-10-26 10:39:47.968750
445,381.58,2022-10-26 10:39:47.984375
446,324.92,2022-10-26 10:39:48.000000
447,270.16,2022-10-26 10:39:48.015625
448,217.98,2022-10-26 10:39:48.031250
449,167.42,2022-10-26 10:39:48.046875
450,116.92,2022-10-26 10:39:48.062500
451,65.44,2022-10-26 10:39:48.078125
452,12.98,2022-10-26 10:39:48.093750
453,-39.43,2022-10-26 10:39:48.109375
454,-90.22,2022-10-26 10:39:48.125000
455,-138.19,2022-10-26 10:39:48.140625
456,-183.12,2022-10-26 10:39:48.156250
457,-225.92,2022-10-26 10:39:48.171875
458,-268.41,2022-10-26 10:39:48.187500
459,-313.02,2022-10-26 10:39:48.203125
460,-362.1,2022-10-26 10:39:48.218750
461,-417.09,2022-10-26 10:39:48.234375
462,-477.32,2022-10-26 10:39:48.250000
463,-539.06,2022-10-26 10:39:48.265625
464,-595.45,2022-10-26 10:39:48.281250
465,-637.93,2022-10-26 10:39:48.296875
466,-658.81,2022-10-26 10:39:48.312500
467,-654.14,2022-10-26 10:39:48.328125
468,-625.14,2022-10-26 10:39:48.343750
469,-577.56,2022-10-26 10:39:48.359375
470,-519.14,2022-10-26 10:39:48.375000
471,-456.69,2022-10-26 10:39:48.390625
472,-394.16,2022-10-26 10:39:48.406250
473,-332.7,2022-10-26 10:39:48.421875
474,-272.15,2022-10-26 10:39:48.437500
475,-212.7,2022-10-26 10:39:48.453125
476,-155.61,2022-10-26 10:39:48.468750
477,-102.54,2022-10-26 10:39:48.484375
478,-54.03,2022-10-26 10:39:48.500000
479,-8.72,2022-10-26 10:39:48.515625
480,36.38,2022-10-26 10:39:48.531250
481,84.68,2022-10-26 10:39:48.546875
482,138.69,2022-10-26 10:39:48.562500
483,199.31,2022-10-26 10:39:48.578125
484,265.66,2022-10-26 10:39:48.593750
485,335.03,2022-10-26 10:39:48.609375
486,403.06,2022-10-26 10:39:48.625000
487,464.09,2022-10-26 10:39:48.640625
488,511.81,2022-10-26 10:39:48.656250
489,540.63,2022-10-26 10:39:48.671875
490,547.24,2022-10-26 10:39:48.687500
491,531.7,2022-10-26 10:39:48.703125
492,497.38,2022-10-26 10:39:48.718750
493,449.52,2022-10-26 10:39:48.734375
494,393.19,2022-10-26 10:39:48.750000
495,331.82,2022-10-26 10:39:48.765625
496,267.36,2022-10-26 10:39:48.781250
497,201.3,2022-10-26 10:39:48.796875
498,136.14,2022-10-26 10:39:48.812500
499,75.91,2022-10-26 10:39:48.828125
500,25.38,2022-10-26 10:39:48.843750
501,-11.98,2022-10-26 10:39:48.859375
502,-35.77,2022-10-26 10:39:48.875000
503,-49.49,2022-10-26 10:39:48.890625
504,-59.11,2022-10-26 10:39:48.906250
505,-70.18,2022-10-26 10:39:48.921875
506,-85.7,2022-10-26 10:39:48.937500
507,-105.35,2022-10-26 10:39:48.953125
508,-126.07,2022-10-26 10:39:48.968750
509,-143.84,2022-10-26 10:39:48.984375
510,-155.62,2022-10-26 10:39:49.000000
511,-160.53,2022-10-26 10:39:49.015625
512,-160.69,2022-10-26 10:39:49.031250
513,-160.62,2022-10-26 10:39:49.046875
514,-164.93,2022-10-26 10:39:49.062500
515,-177.28,2022-10-26 10:39:49.078125
516,-199.07,2022-10-26 10:39:49.093750
517,-228.79,2022-10-26 10:39:49.109375
518,-261.89,2022-10-26 10:39:49.125000
519,-291.66,2022-10-26 10:39:49.140625
520,-310.83,2022-10-26 10:39:49.156250
521,-313.98,2022-10-26 10:39:49.171875
522,-298.57,2022-10-26 10:39:49.187500
523,-263.99,2022-10-26 10:39:49.203125
524,-212.21,2022-10-26 10:39:49.218750
525,-147.52,2022-10-26 10:39:49.234375
526,-76.31,2022-10-26 10:39:49.250000
527,-5.83,2022-10-26 10:39:49.265625
528,57.15,2022-10-26 10:39:49.281250
529,107.84,2022-10-26 10:39:49.296875
530,143.19,2022-10-26 10:39:49.312500
531,157.28,2022-10-26 10:39:49.328125
532,146.5,2022-10-26 10:39:49.343750
533,113.4,2022-10-26 10:39:49.359375
534,66.92,2022-10-26 10:39:49.375000
535,17.3,2022-10-26 10:39:49.390625
536,-27.9,2022-10-26 10:39:49.406250
537,-67.18,2022-10-26 10:39:49.421875
538,-98.68,2022-10-26 10:39:49.437500
539,-120.19,2022-10-26 10:39:49.453125
540,-130.5,2022-10-26 10:39:49.468750
541,-125.64,2022-10-26 10:39:49.484375
542,-104.8,2022-10-26 10:39:49.500000
543,-70.45,2022-10-26 10:39:49.515625
544,-28.29,2022-10-26 10:39:49.531250
545,14.09,2022-10-26 10:39:49.546875
546,49.2,2022-10-26 10:39:49.562500
547,71.99,2022-10-26 10:39:49.578125
548,80.45,2022-10-26 10:39:49.593750
549,76.05,2022-10-26 10:39:49.609375
550,63.42,2022-10-26 10:39:49.625000
551,47.28,2022-10-26 10:39:49.640625
552,30.14,2022-10-26 10:39:49.656250
553,11.3,2022-10-26 10:39:49.671875
554,-11.64,2022-10-26 10:39:49.687500
555,-39.74,2022-10-26 10:39:49.703125
556,-69.98,2022-10-26 10:39:49.718750
557,-95.63,2022-10-26 10:39:49.734375
558,-108.41,2022-10-26 10:39:49.750000
559,-101.25,2022-10-26 10:39:49.765625
560,-71.94,2022-10-26 10:39:49.781250
561,-24.11,2022-10-26 10:39:49.796875
562,34.14,2022-10-26 10:39:49.812500
563,93.27,2022-10-26 10:39:49.828125
564,145.37,2022-10-26 10:39:49.843750
565,185.95,2022-10-26 10:39:49.859375
566,213.54,2022-10-26 10:39:49.875000
567,228.95,2022-10-26 10:39:49.890625
568,234.5,2022-10-26 10:39:49.906250
569,232.66,2022-10-26 10:39:49.921875
570,225.26,2022-10-26 10:39:49.937500
571,213.12,2022-10-26 10:39:49.953125
572,196.01,2022-10-26 10:39:49.968750
573,173.41,2022-10-26 10:39:49.984375
574,145.37,2022-10-26 10:39:50.000000
575,113.05,2022-10-26 10:39:50.015625
576,78.7,2022-10-26 10:39:50.031250
577,45.2,2022-10-26 10:39:50.046875
578,14.86,2022-10-26 10:39:50.062500
579,-11.16,2022-10-26 10:39:50.078125
580,-32.96,2022-10-26 10:39:50.093750
581,-51.32,2022-10-26 10:39:50.109375
582,-66.89,2022-10-26 10:39:50.125000
583,-79.74,2022-10-26 10:39:50.140625
584,-89.4,2022-10-26 10:39:50.156250
585,-95.38,2022-10-26 10:39:50.171875
586,-97.76,2022-10-26 10:39:50.187500
587,-97.59,2022-10-26 10:39:50.203125
588,-96.62,2022-10-26 10:39:50.218750
589,-96.8,2022-10-26 10:39:50.234375
590,-99.4,2022-10-26 10:39:50.250000
591,-104.42,2022-10-26 10:39:50.265625
592,-110.47,2022-10-26 10:39:50.281250
593,-115.22,2022-10-26 10:39:50.296875
594,-116.34,2022-10-26 10:39:50.312500
595,-112.46,2022-10-26 10:39:50.328125
596,-103.74,2022-10-26 10:39:50.343750
597,-91.71,2022-10-26 10:39:50.359375
598,-78.56,2022-10-26 10:39:50.375000
599,-66.23,2022-10-26 10:39:50.390625
600,-55.62,2022-10-26 10:39:50.406250
601,-46.51,2022-10-26 10:39:50.421875
602,-37.87,2022-10-26 10:39:50.437500
603,-28.41,2022-10-26 10:39:50.453125
604,-17.11,2022-10-26 10:39:50.468750
605,-3.46,2022-10-26 10:39:50.484375
606,12.56,2022-10-26 10:39:50.500000
607,30.47,2022-10-26 10:39:50.515625
608,49.38,2022-10-26 10:39:50.531250
609,68.03,2022-10-26 10:39:50.546875
610,85.01,2022-10-26 10:39:50.562500
611,99.14,2022-10-26 10:39:50.578125
612,109.84,2022-10-26 10:39:50.593750
613,117.4,2022-10-26 10:39:50.609375
614,122.76,2022-10-26 10:39:50.625000
615,126.9,2022-10-26 10:39:50.640625
616,130.09,2022-10-26 10:39:50.656250
617,131.33,2022-10-26 10:39:50.671875
618,128.61,2022-10-26 10:39:50.687500
619,119.8,2022-10-26 10:39:50.703125
620,103.91,2022-10-26 10:39:50.718750
621,81.96,2022-10-26 10:39:50.734375
622,56.96,2022-10-26 10:39:50.750000
623,33.03,2022-10-26 10:39:50.765625
624,13.95,2022-10-26 10:39:50.781250
625,1.91,2022-10-26 10:39:50.796875
626,-2.93,2022-10-26 10:39:50.812500
627,-2.14,2022-10-26 10:39:50.828125
628,1.76,2022-10-26 10:39:50.843750
629,5.92,2022-10-26 10:39:50.859375
630,7.91,2022-10-26 10:39:50.875000
631,6.14,2022-10-26 10:39:50.890625
632,0.59,2022-10-26 10:39:50.906250
633,-6.97,2022-10-26 10:39:50.921875
634,-13.42,2022-10-26 10:39:50.937500
635,-15.58,2022-10-26 10:39:50.953125
636,-12.0,2022-10-26 10:39:50.968750
637,-4.5,2022-10-26 10:39:50.984375
638,1.84,2022-10-26 10:39:51.000000
639,0.34,2022-10-26 10:39:51.015625
640,-14.38,2022-10-26 10:39:51.031250
641,-43.61,2022-10-26 10:39:51.046875
642,-83.41,2022-10-26 10:39:51.062500
643,-125.82,2022-10-26 10:39:51.078125
644,-162.01,2022-10-26 10:39:51.093750
645,-185.76,2022-10-26 10:39:51.109375
646,-195.78,2022-10-26 10:39:51.125000
647,-195.49,2022-10-26 10:39:51.140625
648,-190.7,2022-10-26 10:39:51.156250
649,-186.44,2022-10-26 10:39:51.171875
650,-184.44,2022-10-26 10:39:51.187500
651,-182.73,2022-10-26 10:39:51.203125
652,-177.26,2022-10-26 10:39:51.218750
653,-164.69,2022-10-26 10:39:51.234375
654,-144.72,2022-10-26 10:39:51.250000
655,-120.55,2022-10-26 10:39:51.265625
656,-97.27,2022-10-26 10:39:51.281250
657,-79.35,2022-10-26 10:39:51.296875
658,-68.46,2022-10-26 10:39:51.312500
659,-63.05,2022-10-26 10:39:51.328125
660,-59.69,2022-10-26 10:39:51.343750
661,-55.28,2022-10-26 10:39:51.359375
662,-48.74,2022-10-26 10:39:51.375000
663,-41.33,2022-10-26 10:39:51.390625
664,-35.48,2022-10-26 10:39:51.406250
665,-33.02,2022-10-26 10:39:51.421875
666,-33.93,2022-10-26 10:39:51.437500
667,-36.3,2022-10-26 10:39:51.453125
668,-37.27,2022-10-26 10:39:51.468750
669,-34.6,2022-10-26 10:39:51.484375
670,-27.69,2022-10-26 10:39:51.500000
671,-17.67,2022-10-26 10:39:51.515625
672,-6.62,2022-10-26 10:39:51.531250
673,3.43,2022-10-26 10:39:51.546875
674,11.39,2022-10-26 10:39:51.562500
675,17.28,2022-10-26 10:39:51.578125
676,21.9,2022-10-26 10:39:51.593750
677,26.32,2022-10-26 10:39:51.609375
678,31.33,2022-10-26 10:39:51.625000
679,37.17,2022-10-26 10:39:51.640625
680,43.57,2022-10-26 10:39:51.656250
681,49.84,2022-10-26 10:39:51.671875
682,55.21,2022-10-26 10:39:51.687500
683,59.07,2022-10-26 10:39:51.703125
684,61.14,2022-10-26 10:39:51.718750
685,61.6,2022-10-26 10:39:51.734375
686,61.03,2022-10-26 10:39:51.750000
687,60.31,2022-10-26 10:39:51.765625
688,60.34,2022-10-26 10:39:51.781250
689,61.74,2022-10-26 10:39:51.796875
690,64.59,2022-10-26 10:39:51.812500
691,68.36,2022-10-26 10:39:51.828125
692,72.06,2022-10-26 10:39:51.843750
693,74.62,2022-10-26 10:39:51.859375
694,75.29,2022-10-26 10:39:51.875000
695,73.86,2022-10-26 10:39:51.890625
696,70.72,2022-10-26 10:39:51.906250
697,66.6,2022-10-26 10:39:51.921875
698,62.28,2022-10-26 10:39:51.937500
699,58.23,2022-10-26 10:39:51.953125
700,54.63,2022-10-26 10:39:51.968750
701,51.42,2022-10-26 10:39:51.984375
702,48.5,2022-10-26 10:39:52.000000
703,45.79,2022-10-26 10:39:52.015625
704,43.34,2022-10-26 10:39:52.031250
705,41.15,2022-10-26 10:39:52.046875
706,39.14,2022-10-26 10:39:52.062500
707,37.11,2022-10-26 10:39:52.078125
708,34.72,2022-10-26 10:39:52.093750
709,31.69,2022-10-26 10:39:52.109375
710,27.81,2022-10-26 10:39:52.125000
711,23.14,2022-10-26 10:39:52.140625
712,18.04,2022-10-26 10:39:52.156250
713,13.01,2022-10-26 10:39:52.171875
714,8.53,2022-10-26 10:39:52.187500
715,4.83,2022-10-26 10:39:52.203125
716,1.81,2022-10-26 10:39:52.218750
717,-0.97,2022-10-26 10:39:52.234375
718,-3.99,2022-10-26 10:39:52.250000
719,-7.6,2022-10-26 10:39:52.265625
720,-11.82,2022-10-26 10:39:52.281250
721,-16.32,2022-10-26 10:39:52.296875
722,-20.48,2022-10-26 10:39:52.312500
723,-23.6,2022-10-26 10:39:52.328125
724,-25.15,2022-10-26 10:39:52.343750
725,-24.9,2022-10-26 10:39:52.359375
726,-23.03,2022-10-26 10:39:52.375000
727,-20.03,2022-10-26 10:39:52.390625
728,-16.56,2022-10-26 10:39:52.406250
729,-13.18,2022-10-26 10:39:52.421875
730,-10.26,2022-10-26 10:39:52.437500
731,-7.92,2022-10-26 10:39:52.453125
732,-6.15,2022-10-26 10:39:52.468750
733,-4.87,2022-10-26 10:39:52.484375
734,-4.03,2022-10-26 10:39:52.500000
735,-3.62,2022-10-26 10:39:52.515625
736,-3.56,2022-10-26 10:39:52.531250
737,-3.77,2022-10-26 10:39:52.546875
738,-4.08,2022-10-26 10:39:52.562500
739,-4.31,2022-10-26 10:39:52.578125
740,-4.37,2022-10-26 10:39:52.593750
741,-4.22,2022-10-26 10:39:52.609375
742,-3.92,2022-10-26 10:39:52.625000
743,-3.5,2022-10-26 10:39:52.640625
744,-3.04,2022-10-26 10:39:52.656250
745,-2.56,2022-10-26 10:39:52.671875
746,-2.1,2022-10-26 10:39:52.687500
747,-1.66,2022-10-26 10:39:52.703125
748,-1.2,2022-10-26 10:39:52.718750
749,-0.59,2022-10-26 10:39:52.734375
750,0.26,2022-10-26 10:39:52.750000
751,1.35,2022-10-26 10:39:52.765625
752,2.56,2022-10-26 10:39:52.781250
753,3.64,2022-10-26 10:39:52.796875
754,4.29,2022-10-26 10:39:52.812500
755,4.33,2022-10-26 10:39:52.828125
756,3.73,2022-10-26 10:39:52.843750
757,2.63,2022-10-26 10:39:52.859375
758,1.29,2022-10-26 10:39:52.875000
759,0.02,2022-10-26 10:39:52.890625
760,-0.93,2022-10-26 10:39:52.906250
761,-1.39,2022-10-26 10:39:52.921875
762,-1.3,2022-10-26 10:39:52.937500
763,-0.79,2022-10-26 10:39:52.953125
764,-0.12,2022-10-26 10:39:52.968750
765,0.34,2022-10-26 10:39:52.984375
766,0.26,2022-10-26 10:39:53.000000
767,-0.55,2022-10-26 10:39:53.015625
768,-2.05,2022-10-26 10:39:53.031250
769,-4.06,2022-10-26 10:39:53.046875
770,-6.35,2022-10-26 10:39:53.062500
771,-8.7,2022-10-26 10:39:53.078125
772,-10.9,2022-10-26 10:39:53.093750
773,-12.62,2022-10-26 10:39:53.109375
774,-13.44,2022-10-26 10:39:53.125000
775,-12.9,2022-10-26 10:39:53.140625
776,-10.73,2022-10-26 10:39:53.156250
777,-7.05,2022-10-26 10:39:53.171875
778,-2.35,2022-10-26 10:39:53.187500
779,2.68,2022-10-26 10:39:53.203125
780,7.4,2022-10-26 10:39:53.218750
781,11.47,2022-10-26 10:39:53.234375
782,14.81,2022-10-26 10:39:53.250000
783,17.52,2022-10-26 10:39:53.265625
784,19.66,2022-10-26 10:39:53.281250
785,21.2,2022-10-26 10:39:53.296875
786,22.07,2022-10-26 10:39:53.312500
787,22.28,2022-10-26 10:39:53.328125
788,21.98,2022-10-26 10:39:53.343750
789,21.44,2022-10-26 10:39:53.359375
790,20.95,2022-10-26 10:39:53.375000
791,20.73,2022-10-26 10:39:53.390625
792,20.84,2022-10-26 10:39:53.406250
793,21.23,2022-10-26 10:39:53.421875
794,21.81,2022-10-26 10:39:53.437500
795,22.49,2022-10-26 10:39:53.453125
796,23.29,2022-10-26 10:39:53.468750
797,24.24,2022-10-26 10:39:53.484375
798,25.39,2022-10-26 10:39:53.500000
799,26.77,2022-10-26 10:39:53.515625
800,28.42,2022-10-26 10:39:53.531250
801,30.29,2022-10-26 10:39:53.546875
802,32.2,2022-10-26 10:39:53.562500
803,33.87,2022-10-26 10:39:53.578125
804,35.07,2022-10-26 10:39:53.593750
805,35.64,2022-10-26 10:39:53.609375
806,35.54,2022-10-26 10:39:53.625000
807,34.86,2022-10-26 10:39:53.640625
808,33.86,2022-10-26 10:39:53.656250
809,32.97,2022-10-26 10:39:53.671875
810,32.62,2022-10-26 10:39:53.687500
811,33.04,2022-10-26 10:39:53.703125
812,34.29,2022-10-26 10:39:53.718750
813,36.28,2022-10-26 10:39:53.734375
814,38.8,2022-10-26 10:39:53.750000
815,41.45,2022-10-26 10:39:53.765625
816,43.78,2022-10-26 10:39:53.781250
817,45.47,2022-10-26 10:39:53.796875
818,46.57,2022-10-26 10:39:53.812500
819,47.2,2022-10-26 10:39:53.828125
820,47.3,2022-10-26 10:39:53.843750
821,46.75,2022-10-26 10:39:53.859375
822,45.59,2022-10-26 10:39:53.875000
823,44.08,2022-10-26 10:39:53.890625
824,42.38,2022-10-26 10:39:53.906250
825,40.39,2022-10-26 10:39:53.921875
826,37.64,2022-10-26 10:39:53.937500
827,33.59,2022-10-26 10:39:53.953125
828,27.37,2022-10-26 10:39:53.968750
829,18.15,2022-10-26 10:39:53.984375
830,5.87,2022-10-26 10:39:54.000000
831,-8.02,2022-10-26 10:39:54.015625
832,-21.04,2022-10-26 10:39:54.031250
833,-30.93,2022-10-26 10:39:54.046875
834,-36.32,2022-10-26 10:39:54.062500
835,-36.88,2022-10-26 10:39:54.078125
836,-32.72,2022-10-26 10:39:54.093750
837,-24.61,2022-10-26 10:39:54.109375
838,-13.98,2022-10-26 10:39:54.125000
839,-2.85,2022-10-26 10:39:54.140625
840,6.75,2022-10-26 10:39:54.156250
841,12.53,2022-10-26 10:39:54.171875
842,11.76,2022-10-26 10:39:54.187500
843,2.21,2022-10-26 10:39:54.203125
844,-18.44,2022-10-26 10:39:54.218750
845,-47.39,2022-10-26 10:39:54.234375
846,-77.16,2022-10-26 10:39:54.250000
847,-99.9,2022-10-26 10:39:54.265625
848,-112.17,2022-10-26 10:39:54.281250
849,-114.76,2022-10-26 10:39:54.296875
850,-110.47,2022-10-26 10:39:54.312500
851,-102.45,2022-10-26 10:39:54.328125
852,-93.0,2022-10-26 10:39:54.343750
853,-83.53,2022-10-26 10:39:54.359375
854,-74.83,2022-10-26 10:39:54.375000
855,-68.56,2022-10-26 10:39:54.390625
856,-67.33,2022-10-26 10:39:54.406250
857,-73.58,2022-10-26 10:39:54.421875
858,-87.79,2022-10-26 10:39:54.437500
859,-105.64,2022-10-26 10:39:54.453125
860,-120.34,2022-10-26 10:39:54.468750
861,-124.51,2022-10-26 10:39:54.484375
862,-112.95,2022-10-26 10:39:54.500000
863,-84.81,2022-10-26 10:39:54.515625
864,-44.86,2022-10-26 10:39:54.531250
865,-0.76,2022-10-26 10:39:54.546875
866,35.18,2022-10-26 10:39:54.562500
867,55.38,2022-10-26 10:39:54.578125
868,59.8,2022-10-26 10:39:54.593750
869,54.02,2022-10-26 10:39:54.609375
870,45.51,2022-10-26 10:39:54.625000
871,39.77,2022-10-26 10:39:54.640625
872,38.68,2022-10-26 10:39:54.656250
873,40.55,2022-10-26 10:39:54.671875
874,42.34,2022-10-26 10:39:54.687500
875,41.58,2022-10-26 10:39:54.703125
876,38.53,2022-10-26 10:39:54.718750
877,35.19,2022-10-26 10:39:54.734375
878,33.76,2022-10-26 10:39:54.750000
879,35.45,2022-10-26 10:39:54.765625
880,40.03,2022-10-26 10:39:54.781250
881,46.92,2022-10-26 10:39:54.796875
882,54.36,2022-10-26 10:39:54.812500
883,61.68,2022-10-26 10:39:54.828125
884,69.22,2022-10-26 10:39:54.843750
885,77.95,2022-10-26 10:39:54.859375
886,87.03,2022-10-26 10:39:54.875000
887,92.83,2022-10-26 10:39:54.890625
888,90.05,2022-10-26 10:39:54.906250
889,74.79,2022-10-26 10:39:54.921875
890,47.81,2022-10-26 10:39:54.937500
891,15.21,2022-10-26 10:39:54.953125
892,-13.72,2022-10-26 10:39:54.968750
893,-31.22,2022-10-26 10:39:54.984375
894,-34.39,2022-10-26 10:39:55.000000
895,-26.08,2022-10-26 10:39:55.015625
896,-11.97,2022-10-26 10:39:55.031250
897,3.22,2022-10-26 10:39:55.046875
898,18.3,2022-10-26 10:39:55.062500
899,34.88,2022-10-26 10:39:55.078125
900,54.39,2022-10-26 10:39:55.093750
901,75.5,2022-10-26 10:39:55.109375
902,93.24,2022-10-26 10:39:55.125000
903,101.51,2022-10-26 10:39:55.140625
904,94.26,2022-10-26 10:39:55.156250
905,70.79,2022-10-26 10:39:55.171875
906,36.03,2022-10-26 10:39:55.187500
907,-1.68,2022-10-26 10:39:55.203125
908,-34.03,2022-10-26 10:39:55.218750
909,-55.79,2022-10-26 10:39:55.234375
910,-65.77,2022-10-26 10:39:55.250000
911,-66.17,2022-10-26 10:39:55.265625
912,-60.59,2022-10-26 10:39:55.281250
913,-52.39,2022-10-26 10:39:55.296875
914,-43.28,2022-10-26 10:39:55.312500
915,-34.06,2022-10-26 10:39:55.328125
916,-25.37,2022-10-26 10:39:55.343750
917,-18.6,2022-10-26 10:39:55.359375
918,-16.12,2022-10-26 10:39:55.375000
919,-20.55,2022-10-26 10:39:55.390625
920,-33.5,2022-10-26 10:39:55.406250
921,-54.28,2022-10-26 10:39:55.421875
922,-79.49,2022-10-26 10:39:55.437500
923,-103.62,2022-10-26 10:39:55.453125
924,-121.07,2022-10-26 10:39:55.468750
925,-128.29,2022-10-26 10:39:55.484375
926,-125.05,2022-10-26 10:39:55.500000
927,-114.32,2022-10-26 10:39:55.515625
928,-100.63,2022-10-26 10:39:55.531250
929,-87.79,2022-10-26 10:39:55.546875
930,-77.07,2022-10-26 10:39:55.562500
931,-67.27,2022-10-26 10:39:55.578125
932,-55.91,2022-10-26 10:39:55.593750
933,-41.69,2022-10-26 10:39:55.609375
934,-25.75,2022-10-26 10:39:55.625000
935,-11.2,2022-10-26 10:39:55.640625
936,-0.83,2022-10-26 10:39:55.656250
937,5.35,2022-10-26 10:39:55.671875
938,10.94,2022-10-26 10:39:55.687500
939,21.7,2022-10-26 10:39:55.703125
940,42.18,2022-10-26 10:39:55.718750
941,73.03,2022-10-26 10:39:55.734375
942,110.08,2022-10-26 10:39:55.750000
943,146.43,2022-10-26 10:39:55.765625
944,175.56,2022-10-26 10:39:55.781250
945,193.89,2022-10-26 10:39:55.796875
946,201.23,2022-10-26 10:39:55.812500
947,198.96,2022-10-26 10:39:55.828125
948,187.82,2022-10-26 10:39:55.843750
949,166.6,2022-10-26 10:39:55.859375
950,133.19,2022-10-26 10:39:55.875000
951,87.0,2022-10-26 10:39:55.890625
952,31.51,2022-10-26 10:39:55.906250
953,-25.23,2022-10-26 10:39:55.921875
954,-72.61,2022-10-26 10:39:55.937500
955,-101.37,2022-10-26 10:39:55.953125
956,-107.43,2022-10-26 10:39:55.968750
957,-93.53,2022-10-26 10:39:55.984375
958,-67.92,2022-10-26 10:39:56.000000
959,-40.75,2022-10-26 10:39:56.015625
960,-19.98,2022-10-26 10:39:56.031250
961,-8.82,2022-10-26 10:39:56.046875
962,-5.83,2022-10-26 10:39:56.062500
963,-7.1,2022-10-26 10:39:56.078125
964,-9.09,2022-10-26 10:39:56.093750
965,-10.37,2022-10-26 10:39:56.109375
966,-11.64,2022-10-26 10:39:56.125000
967,-14.32,2022-10-26 10:39:56.140625
968,-18.9,2022-10-26 10:39:56.156250
969,-24.41,2022-10-26 10:39:56.171875
970,-29.04,2022-10-26 10:39:56.187500
971,-31.34,2022-10-26 10:39:56.203125
972,-31.05,2022-10-26 10:39:56.218750
973,-29.07,2022-10-26 10:39:56.234375
974,-26.88,2022-10-26 10:39:56.250000
975,-25.69,2022-10-26 10:39:56.265625
976,-25.96,2022-10-26 10:39:56.281250
977,-27.55,2022-10-26 10:39:56.296875
978,-30.05,2022-10-26 10:39:56.312500
979,-33.15,2022-10-26 10:39:56.328125
980,-36.77,2022-10-26 10:39:56.343750
981,-41.04,2022-10-26 10:39:56.359375
982,-46.06,2022-10-26 10:39:56.375000
983,-51.88,2022-10-26 10:39:56.390625
984,-58.38,2022-10-26 10:39:56.406250
985,-65.23,2022-10-26 10:39:56.421875
986,-71.74,2022-10-26 10:39:56.437500
987,-76.93,2022-10-26 10:39:56.453125
988,-79.69,2022-10-26 10:39:56.468750
989,-79.16,2022-10-26 10:39:56.484375
990,-75.2,2022-10-26 10:39:56.500000
991,-68.63,2022-10-26 10:39:56.515625
992,-60.94,2022-10-26 10:39:56.531250
993,-53.72,2022-10-26 10:39:56.546875
994,-47.9,2022-10-26 10:39:56.562500
995,-43.42,2022-10-26 10:39:56.578125
996,-39.37,2022-10-26 10:39:56.593750
997,-34.55,2022-10-26 10:39:56.609375
998,-28.04,2022-10-26 10:39:56.625000
999,-19.62,2022-10-26 10:39:56.640625
1000,-9.69,2022-10-26 10:39:56.656250
1001,0.84,2022-10-26 10:39:56.671875
1002,11.02,2022-10-26 10:39:56.687500
1003,20.02,2022-10-26 10:39:56.703125
1004,27.28,2022-10-26 10:39:56.718750
1005,32.37,2022-10-26 10:39:56.734375
1006,35.09,2022-10-26 10:39:56.750000
1007,35.56,2022-10-26 10:39:56.765625
1008,34.45,2022-10-26 10:39:56.781250
1009,32.81,2022-10-26 10:39:56.796875
1010,31.58,2022-10-26 10:39:56.812500
1011,31.15,2022-10-26 10:39:56.828125
1012,31.27,2022-10-26 10:39:56.843750
1013,31.22,2022-10-26 10:39:56.859375
1014,30.2,2022-10-26 10:39:56.875000
1015,27.86,2022-10-26 10:39:56.890625
1016,24.59,2022-10-26 10:39:56.906250
1017,21.62,2022-10-26 10:39:56.921875
1018,20.37,2022-10-26 10:39:56.937500
1019,21.44,2022-10-26 10:39:56.953125
1020,24.4,2022-10-26 10:39:56.968750
1021,28.35,2022-10-26 10:39:56.984375
1022,32.59,2022-10-26 10:39:57.000000
1023,36.99,2022-10-26 10:39:57.015625
1024,41.93,2022-10-26 10:39:57.031250
1025,47.96,2022-10-26 10:39:57.046875
1026,55.59,2022-10-26 10:39:57.062500
1027,64.91,2022-10-26 10:39:57.078125
1028,74.92,2022-10-26 10:39:57.093750
1029,84.05,2022-10-26 10:39:57.109375
1030,91.0,2022-10-26 10:39:57.125000
1031,95.41,2022-10-26 10:39:57.140625
1032,97.63,2022-10-26 10:39:57.156250
1033,98.19,2022-10-26 10:39:57.171875
1034,97.41,2022-10-26 10:39:57.187500
1035,95.36,2022-10-26 10:39:57.203125
1036,91.5,2022-10-26 10:39:57.218750
1037,83.93,2022-10-26 10:39:57.234375
1038,70.22,2022-10-26 10:39:57.250000
1039,48.77,2022-10-26 10:39:57.265625
1040,19.79,2022-10-26 10:39:57.281250
1041,-14.87,2022-10-26 10:39:57.296875
1042,-52.7,2022-10-26 10:39:57.312500
1043,-91.38,2022-10-26 10:39:57.328125
1044,-129.11,2022-10-26 10:39:57.343750
1045,-159.0,2022-10-26 10:39:57.359375
1046,-173.89,2022-10-26 10:39:57.375000
1047,-170.6,2022-10-26 10:39:57.390625
1048,-152.51,2022-10-26 10:39:57.406250
1049,-126.64,2022-10-26 10:39:57.421875
1050,-99.26,2022-10-26 10:39:57.437500
1051,-74.42,2022-10-26 10:39:57.453125
1052,-54.3,2022-10-26 10:39:57.468750
1053,-39.51,2022-10-26 10:39:57.484375
1054,-29.67,2022-10-26 10:39:57.500000
1055,-24.24,2022-10-26 10:39:57.515625
1056,-22.44,2022-10-26 10:39:57.531250
1057,-23.29,2022-10-26 10:39:57.546875
1058,-25.59,2022-10-26 10:39:57.562500
1059,-28.65,2022-10-26 10:39:57.578125
1060,-32.81,2022-10-26 10:39:57.593750
1061,-39.88,2022-10-26 10:39:57.609375
1062,-50.01,2022-10-26 10:39:57.625000
1063,-62.98,2022-10-26 10:39:57.640625
1064,-78.64,2022-10-26 10:39:57.656250
1065,-96.78,2022-10-26 10:39:57.671875
1066,-116.47,2022-10-26 10:39:57.687500
1067,-135.68,2022-10-26 10:39:57.703125
1068,-151.6,2022-10-26 10:39:57.718750
1069,-161.7,2022-10-26 10:39:57.734375
1070,-164.51,2022-10-26 10:39:57.750000
1071,-160.17,2022-10-26 10:39:57.765625
1072,-150.64,2022-10-26 10:39:57.781250
1073,-139.22,2022-10-26 10:39:57.796875
1074,-128.79,2022-10-26 10:39:57.812500
1075,-120.23,2022-10-26 10:39:57.828125
1076,-111.73,2022-10-26 10:39:57.843750
1077,-99.13,2022-10-26 10:39:57.859375
1078,-80.47,2022-10-26 10:39:57.875000
1079,-57.13,2022-10-26 10:39:57.890625
1080,-33.97,2022-10-26 10:39:57.906250
1081,-17.7,2022-10-26 10:39:57.921875
1082,-13.44,2022-10-26 10:39:57.937500
1083,-21.42,2022-10-26 10:39:57.953125
1084,-36.34,2022-10-26 10:39:57.968750
1085,-49.48,2022-10-26 10:39:57.984375
1086,-53.01,2022-10-26 10:39:58.000000
1087,-43.94,2022-10-26 10:39:58.015625
1088,-24.71,2022-10-26 10:39:58.031250
1089,-1.34,2022-10-26 10:39:58.046875
1090,20.05,2022-10-26 10:39:58.062500
1091,36.04,2022-10-26 10:39:58.078125
1092,46.63,2022-10-26 10:39:58.093750
1093,53.75,2022-10-26 10:39:58.109375
1094,59.35,2022-10-26 10:39:58.125000
1095,64.18,2022-10-26 10:39:58.140625
1096,68.15,2022-10-26 10:39:58.156250
1097,71.65,2022-10-26 10:39:58.171875
1098,76.27,2022-10-26 10:39:58.187500
1099,84.29,2022-10-26 10:39:58.203125
1100,97.3,2022-10-26 10:39:58.218750
1101,115.26,2022-10-26 10:39:58.234375
1102,136.15,2022-10-26 10:39:58.250000
1103,157.01,2022-10-26 10:39:58.265625
1104,175.27,2022-10-26 10:39:58.281250
1105,189.54,2022-10-26 10:39:58.296875
1106,199.66,2022-10-26 10:39:58.312500
1107,205.82,2022-10-26 10:39:58.328125
1108,207.94,2022-10-26 10:39:58.343750
1109,205.72,2022-10-26 10:39:58.359375
1110,199.06,2022-10-26 10:39:58.375000
1111,188.18,2022-10-26 10:39:58.390625
1112,173.75,2022-10-26 10:39:58.406250
1113,156.44,2022-10-26 10:39:58.421875
1114,136.58,2022-10-26 10:39:58.437500
1115,114.46,2022-10-26 10:39:58.453125
1116,90.73,2022-10-26 10:39:58.468750
1117,66.8,2022-10-26 10:39:58.484375
1118,44.78,2022-10-26 10:39:58.500000
1119,26.8,2022-10-26 10:39:58.515625
1120,14.31,2022-10-26 10:39:58.531250
1121,7.77,2022-10-26 10:39:58.546875
1122,6.66,2022-10-26 10:39:58.562500
1123,9.85,2022-10-26 10:39:58.578125
1124,15.91,2022-10-26 10:39:58.593750
1125,23.04,2022-10-26 10:39:58.609375
1126,29.23,2022-10-26 10:39:58.625000
1127,32.71,2022-10-26 10:39:58.640625
1128,32.49,2022-10-26 10:39:58.656250
1129,28.72,2022-10-26 10:39:58.671875
1130,22.54,2022-10-26 10:39:58.687500
1131,15.17,2022-10-26 10:39:58.703125
1132,7.26,2022-10-26 10:39:58.718750
1133,-1.34,2022-10-26 10:39:58.734375
1134,-10.83,2022-10-26 10:39:58.750000
1135,-20.74,2022-10-26 10:39:58.765625
1136,-29.62,2022-10-26 10:39:58.781250
1137,-35.69,2022-10-26 10:39:58.796875
1138,-37.94,2022-10-26 10:39:58.812500
1139,-36.98,2022-10-26 10:39:58.828125
1140,-34.92,2022-10-26 10:39:58.843750
1141,-34.16,2022-10-26 10:39:58.859375
1142,-35.96,2022-10-26 10:39:58.875000
1143,-39.81,2022-10-26 10:39:58.890625
1144,-43.81,2022-10-26 10:39:58.906250
1145,-45.87,2022-10-26 10:39:58.921875
1146,-45.13,2022-10-26 10:39:58.937500
1147,-42.33,2022-10-26 10:39:58.953125
1148,-39.37,2022-10-26 10:39:58.968750
1149,-38.19,2022-10-26 10:39:58.984375
1150,-39.67,2022-10-26 10:39:59.000000
1151,-43.15,2022-10-26 10:39:59.015625
1152,-46.9,2022-10-26 10:39:59.031250
1153,-48.97,2022-10-26 10:39:59.046875
1154,-48.3,2022-10-26 10:39:59.062500
1155,-45.23,2022-10-26 10:39:59.078125
1156,-41.36,2022-10-26 10:39:59.093750
1157,-38.8,2022-10-26 10:39:59.109375
1158,-39.18,2022-10-26 10:39:59.125000
1159,-43.0,2022-10-26 10:39:59.140625
1160,-49.4,2022-10-26 10:39:59.156250
1161,-56.72,2022-10-26 10:39:59.171875
1162,-63.08,2022-10-26 10:39:59.187500
1163,-67.13,2022-10-26 10:39:59.203125
1164,-68.55,2022-10-26 10:39:59.218750
1165,-68.17,2022-10-26 10:39:59.234375
1166,-67.62,2022-10-26 10:39:59.250000
1167,-68.75,2022-10-26 10:39:59.265625
1168,-73.1,2022-10-26 10:39:59.281250
1169,-81.34,2022-10-26 10:39:59.296875
1170,-93.11,2022-10-26 10:39:59.312500
1171,-107.14,2022-10-26 10:39:59.328125
1172,-121.69,2022-10-26 10:39:59.343750
1173,-135.07,2022-10-26 10:39:59.359375
1174,-145.97,2022-10-26 10:39:59.375000
1175,-153.62,2022-10-26 10:39:59.390625
1176,-158.0,2022-10-26 10:39:59.406250
1177,-159.84,2022-10-26 10:39:59.421875
1178,-160.54,2022-10-26 10:39:59.437500
1179,-161.66,2022-10-26 10:39:59.453125
1180,-164.09,2022-10-26 10:39:59.468750
1181,-167.22,2022-10-26 10:39:59.484375
1182,-168.74,2022-10-26 10:39:59.500000
1183,-165.27,2022-10-26 10:39:59.515625
1184,-153.8,2022-10-26 10:39:59.531250
1185,-132.93,2022-10-26 10:39:59.546875
1186,-103.45,2022-10-26 10:39:59.562500
1187,-67.97,2022-10-26 10:39:59.578125
1188,-29.75,2022-10-26 10:39:59.593750
1189,8.24,2022-10-26 10:39:59.609375
1190,43.97,2022-10-26 10:39:59.625000
1191,76.32,2022-10-26 10:39:59.640625
1192,104.79,2022-10-26 10:39:59.656250
1193,129.11,2022-10-26 10:39:59.671875
1194,149.21,2022-10-26 10:39:59.687500
1195,165.21,2022-10-26 10:39:59.703125
1196,177.45,2022-10-26 10:39:59.718750
1197,186.38,2022-10-26 10:39:59.734375
1198,192.41,2022-10-26 10:39:59.750000
1199,195.87,2022-10-26 10:39:59.765625
1200,197.05,2022-10-26 10:39:59.781250
1201,196.19,2022-10-26 10:39:59.796875
1202,193.48,2022-10-26 10:39:59.812500
1203,189.05,2022-10-26 10:39:59.828125
1204,183.06,2022-10-26 10:39:59.843750
1205,175.82,2022-10-26 10:39:59.859375
1206,167.89,2022-10-26 10:39:59.875000
1207,160.0,2022-10-26 10:39:59.890625
1208,152.79,2022-10-26 10:39:59.906250
1209,146.52,2022-10-26 10:39:59.921875
1210,140.89,2022-10-26 10:39:59.937500
1211,135.23,2022-10-26 10:39:59.953125
1212,128.82,2022-10-26 10:39:59.968750
1213,121.2,2022-10-26 10:39:59.984375
1214,112.46,2022-10-26 10:40:00.000000
1215,103.2,2022-10-26 10:40:00.015625
1216,94.3,2022-10-26 10:40:00.031250
1217,86.54,2022-10-26 10:40:00.046875
1218,80.25,2022-10-26 10:40:00.062500
1219,75.1,2022-10-26 10:40:00.078125
1220,70.2,2022-10-26 10:40:00.093750
1221,64.54,2022-10-26 10:40:00.109375
1222,57.47,2022-10-26 10:40:00.125000
1223,49.01,2022-10-26 10:40:00.140625
1224,39.95,2022-10-26 10:40:00.156250
1225,31.46,2022-10-26 10:40:00.171875
1226,24.67,2022-10-26 10:40:00.187500
1227,20.14,2022-10-26 10:40:00.203125
1228,17.7,2022-10-26 10:40:00.218750
1229,16.52,2022-10-26 10:40:00.234375
1230,15.53,2022-10-26 10:40:00.250000
1231,13.85,2022-10-26 10:40:00.265625
1232,11.11,2022-10-26 10:40:00.281250
1233,7.54,2022-10-26 10:40:00.296875
1234,3.77,2022-10-26 10:40:00.312500
1235,0.48,2022-10-26 10:40:00.328125
1236,-1.87,2022-10-26 10:40:00.343750
1237,-3.21,2022-10-26 10:40:00.359375
1238,-3.79,2022-10-26 10:40:00.375000
1239,-4.01,2022-10-26 10:40:00.390625
1240,-4.25,2022-10-26 10:40:00.406250
1241,-4.67,2022-10-26 10:40:00.421875
1242,-5.29,2022-10-26 10:40:00.437500
1243,-6.0,2022-10-26 10:40:00.453125
1244,-6.72,2022-10-26 10:40:00.468750
1245,-7.47,2022-10-26 10:40:00.484375
1246,-8.31,2022-10-26 10:40:00.500000
1247,-9.26,2022-10-26 10:40:00.515625
1248,-10.26,2022-10-26 10:40:00.531250
1249,-11.13,2022-10-26 10:40:00.546875
1250,-11.65,2022-10-26 10:40:00.562500
1251,-11.73,2022-10-26 10:40:00.578125
1252,-11.41,2022-10-26 10:40:00.593750
1253,-10.91,2022-10-26 10:40:00.609375
1254,-10.48,2022-10-26 10:40:00.625000
1255,-10.25,2022-10-26 10:40:00.640625
1256,-10.17,2022-10-26 10:40:00.656250
1257,-10.05,2022-10-26 10:40:00.671875
1258,-9.63,2022-10-26 10:40:00.687500
1259,-8.79,2022-10-26 10:40:00.703125
1260,-7.61,2022-10-26 10:40:00.718750
1261,-6.3,2022-10-26 10:40:00.734375
1262,-5.13,2022-10-26 10:40:00.750000
1263,-4.24,2022-10-26 10:40:00.765625
1264,-3.7,2022-10-26 10:40:00.781250
1265,-3.47,2022-10-26 10:40:00.796875
1266,-3.48,2022-10-26 10:40:00.812500
1267,-3.66,2022-10-26 10:40:00.828125
1268,-3.92,2022-10-26 10:40:00.843750
1269,-4.2,2022-10-26 10:40:00.859375
1270,-4.37,2022-10-26 10:40:00.875000
1271,-4.4,2022-10-26 10:40:00.890625
1272,-4.33,2022-10-26 10:40:00.906250
1273,-4.35,2022-10-26 10:40:00.921875
1274,-4.67,2022-10-26 10:40:00.937500
1275,-5.43,2022-10-26 10:40:00.953125
1276,-6.56,2022-10-26 10:40:00.968750
1277,-7.78,2022-10-26 10:40:00.984375
1278,-8.73,2022-10-26 10:40:01.000000
1279,-9.06,2022-10-26 10:40:01.015625
1280,-8.62,2022-10-26 10:40:01.031250
1281,-7.47,2022-10-26 10:40:01.046875
1282,-5.79,2022-10-26 10:40:01.062500
1283,-3.84,2022-10-26 10:40:01.078125
1284,-1.86,2022-10-26 10:40:01.093750
1285,-0.07,2022-10-26 10:40:01.109375
1286,1.38,2022-10-26 10:40:01.125000
1287,2.38,2022-10-26 10:40:01.140625
1288,2.87,2022-10-26 10:40:01.156250
1289,2.9,2022-10-26 10:40:01.171875
1290,2.55,2022-10-26 10:40:01.187500
1291,1.92,2022-10-26 10:40:01.203125
1292,1.08,2022-10-26 10:40:01.218750
1293,0.03,2022-10-26 10:40:01.234375
1294,-1.21,2022-10-26 10:40:01.250000
1295,-2.6,2022-10-26 10:40:01.265625
1296,-4.06,2022-10-26 10:40:01.281250
1297,-5.49,2022-10-26 10:40:01.296875
1298,-6.77,2022-10-26 10:40:01.312500
1299,-7.75,2022-10-26 10:40:01.328125
1300,-8.31,2022-10-26 10:40:01.343750
1301,-8.32,2022-10-26 10:40:01.359375
1302,-7.71,2022-10-26 10:40:01.375000
1303,-6.53,2022-10-26 10:40:01.390625
1304,-5.06,2022-10-26 10:40:01.406250
1305,-3.71,2022-10-26 10:40:01.421875
1306,-2.86,2022-10-26 10:40:01.437500
1307,-2.78,2022-10-26 10:40:01.453125
1308,-3.46,2022-10-26 10:40:01.468750
1309,-4.77,2022-10-26 10:40:01.484375
1310,-6.52,2022-10-26 10:40:01.500000
1311,-8.58,2022-10-26 10:40:01.515625
1312,-10.85,2022-10-26 10:40:01.531250
1313,-13.22,2022-10-26 10:40:01.546875
1314,-15.46,2022-10-26 10:40:01.562500
1315,-17.22,2022-10-26 10:40:01.578125
1316,-18.2,2022-10-26 10:40:01.593750
1317,-18.23,2022-10-26 10:40:01.609375
1318,-17.39,2022-10-26 10:40:01.625000
1319,-15.94,2022-10-26 10:40:01.640625
1320,-14.21,2022-10-26 10:40:01.656250
1321,-12.49,2022-10-26 10:40:01.671875
1322,-10.99,2022-10-26 10:40:01.687500
1323,-9.8,2022-10-26 10:40:01.703125
1324,-8.93,2022-10-26 10:40:01.718750
1325,-8.33,2022-10-26 10:40:01.734375
1326,-7.9,2022-10-26 10:40:01.750000
1327,-7.54,2022-10-26 10:40:01.765625
1328,-7.16,2022-10-26 10:40:01.781250
1329,-6.81,2022-10-26 10:40:01.796875
1330,-6.61,2022-10-26 10:40:01.812500
1331,-6.73,2022-10-26 10:40:01.828125
1332,-7.34,2022-10-26 10:40:01.843750
1333,-8.48,2022-10-26 10:40:01.859375
1334,-10.05,2022-10-26 10:40:01.875000
1335,-11.83,2022-10-26 10:40:01.890625
1336,-13.5,2022-10-26 10:40:01.906250
1337,-14.7,2022-10-26 10:40:01.921875
1338,-15.05,2022-10-26 10:40:01.937500
1339,-14.3,2022-10-26 10:40:01.953125
1340,-12.4,2022-10-26 10:40:01.968750
1341,-9.57,2022-10-26 10:40:01.984375
1342,-6.31,2022-10-26 10:40:02.000000
1343,-3.23,2022-10-26 10:40:02.015625
1344,-0.9,2022-10-26 10:40:02.031250
1345,0.34,2022-10-26 10:40:02.046875
1346,0.46,2022-10-26 10:40:02.062500
1347,-0.27,2022-10-26 10:40:02.078125
1348,-1.41,2022-10-26 10:40:02.093750
1349,-2.51,2022-10-26 10:40:02.109375
1350,-3.23,2022-10-26 10:40:02.125000
1351,-3.44,2022-10-26 10:40:02.140625
1352,-3.11,2022-10-26 10:40:02.156250
1353,-2.33,2022-10-26 10:40:02.171875
1354,-1.18,2022-10-26 10:40:02.187500
1355,0.18,2022-10-26 10:40:02.203125
1356,1.62,2022-10-26 10:40:02.218750
1357,2.93,2022-10-26 10:40:02.234375
1358,3.94,2022-10-26 10:40:02.250000
1359,4.55,2022-10-26 10:40:02.265625
1360,4.76,2022-10-26 10:40:02.281250
1361,4.71,2022-10-26 10:40:02.296875
1362,4.6,2022-10-26 10:40:02.312500
1363,4.6,2022-10-26 10:40:02.328125
1364,4.75,2022-10-26 10:40:02.343750
1365,4.99,2022-10-26 10:40:02.359375
1366,5.2,2022-10-26 10:40:02.375000
1367,5.28,2022-10-26 10:40:02.390625
1368,5.16,2022-10-26 10:40:02.406250
1369,4.82,2022-10-26 10:40:02.421875
1370,4.26,2022-10-26 10:40:02.437500
1371,3.49,2022-10-26 10:40:02.453125
1372,2.6,2022-10-26 10:40:02.468750
1373,1.66,2022-10-26 10:40:02.484375
1374,0.79,2022-10-26 10:40:02.500000
1375,0.01,2022-10-26 10:40:02.515625
1376,-0.74,2022-10-26 10:40:02.531250
1377,-1.63,2022-10-26 10:40:02.546875
1378,-2.79,2022-10-26 10:40:02.562500
1379,-4.27,2022-10-26 10:40:02.578125
1380,-5.98,2022-10-26 10:40:02.593750
1381,-7.71,2022-10-26 10:40:02.609375
1382,-9.23,2022-10-26 10:40:02.625000
1383,-10.38,2022-10-26 10:40:02.640625
1384,-11.05,2022-10-26 10:40:02.656250
1385,-11.27,2022-10-26 10:40:02.671875
1386,-11.15,2022-10-26 10:40:02.687500
1387,-10.85,2022-10-26 10:40:02.703125
1388,-10.59,2022-10-26 10:40:02.718750
1389,-10.54,2022-10-26 10:40:02.734375
1390,-10.77,2022-10-26 10:40:02.750000
1391,-11.22,2022-10-26 10:40:02.765625
1392,-11.69,2022-10-26 10:40:02.781250
1393,-11.99,2022-10-26 10:40:02.796875
1394,-12.01,2022-10-26 10:40:02.812500
1395,-11.85,2022-10-26 10:40:02.828125
1396,-11.7,2022-10-26 10:40:02.843750
1397,-11.85,2022-10-26 10:40:02.859375
1398,-12.51,2022-10-26 10:40:02.875000
1399,-13.7,2022-10-26 10:40:02.890625
1400,-15.26,2022-10-26 10:40:02.906250
1401,-16.83,2022-10-26 10:40:02.921875
1402,-17.98,2022-10-26 10:40:02.937500
1403,-18.26,2022-10-26 10:40:02.953125
1404,-17.45,2022-10-26 10:40:02.968750
1405,-15.57,2022-10-26 10:40:02.984375
1406,-12.89,2022-10-26 10:40:03.000000
1407,-9.85,2022-10-26 10:40:03.015625
1408,-6.88,2022-10-26 10:40:03.031250
1409,-4.27,2022-10-26 10:40:03.046875
1410,-2.13,2022-10-26 10:40:03.062500
1411,-0.38,2022-10-26 10:40:03.078125
1412,1.09,2022-10-26 10:40:03.093750
1413,2.39,2022-10-26 10:40:03.109375
1414,3.54,2022-10-26 10:40:03.125000
1415,4.51,2022-10-26 10:40:03.140625
1416,5.26,2022-10-26 10:40:03.156250
1417,5.78,2022-10-26 10:40:03.171875
1418,6.07,2022-10-26 10:40:03.187500
1419,6.15,2022-10-26 10:40:03.203125
1420,6.04,2022-10-26 10:40:03.218750
1421,5.72,2022-10-26 10:40:03.234375
1422,5.2,2022-10-26 10:40:03.250000
1423,4.49,2022-10-26 10:40:03.265625
1424,3.65,2022-10-26 10:40:03.281250
1425,2.75,2022-10-26 10:40:03.296875
1426,1.89,2022-10-26 10:40:03.312500
1427,1.11,2022-10-26 10:40:03.328125
1428,0.45,2022-10-26 10:40:03.343750
1429,-0.14,2022-10-26 10:40:03.359375
1430,-0.73,2022-10-26 10:40:03.375000
1431,-1.37,2022-10-26 10:40:03.390625
1432,-2.1,2022-10-26 10:40:03.406250
1433,-2.87,2022-10-26 10:40:03.421875
1434,-3.66,2022-10-26 10:40:03.437500
1435,-4.38,2022-10-26 10:40:03.453125
1436,-5.02,2022-10-26 10:40:03.468750
1437,-5.58,2022-10-26 10:40:03.484375
1438,-6.13,2022-10-26 10:40:03.500000
1439,-6.71,2022-10-26 10:40:03.515625
1440,-7.4,2022-10-26 10:40:03.531250
1441,-8.21,2022-10-26 10:40:03.546875
1442,-9.2,2022-10-26 10:40:03.562500
1443,-10.39,2022-10-26 10:40:03.578125
1444,-11.74,2022-10-26 10:40:03.593750
1445,-13.08,2022-10-26 10:40:03.609375
1446,-14.1,2022-10-26 10:40:03.625000
1447,-14.4,2022-10-26 10:40:03.640625
1448,-13.62,2022-10-26 10:40:03.656250
1449,-11.64,2022-10-26 10:40:03.671875
1450,-8.59,2022-10-26 10:40:03.687500
1451,-4.87,2022-10-26 10:40:03.703125
1452,-0.95,2022-10-26 10:40:03.718750
1453,2.74,2022-10-26 10:40:03.734375
1454,5.92,2022-10-26 10:40:03.750000
1455,8.43,2022-10-26 10:40:03.765625
1456,10.1,2022-10-26 10:40:03.781250
1457,10.73,2022-10-26 10:40:03.796875
1458,10.07,2022-10-26 10:40:03.812500
1459,7.99,2022-10-26 10:40:03.828125
1460,4.63,2022-10-26 10:40:03.843750
1461,0.44,2022-10-26 10:40:03.859375
1462,-3.86,2022-10-26 10:40:03.875000
1463,-7.5,2022-10-26 10:40:03.890625
1464,-9.85,2022-10-26 10:40:03.906250
1465,-10.58,2022-10-26 10:40:03.921875
1466,-9.71,2022-10-26 10:40:03.937500
1467,-7.54,2022-10-26 10:40:03.953125
1468,-4.51,2022-10-26 10:40:03.968750
1469,-1.11,2022-10-26 10:40:03.984375
1470,2.21,2022-10-26 10:40:04.000000
1471,5.12,2022-10-26 10:40:04.015625
1472,7.36,2022-10-26 10:40:04.031250
1473,8.81,2022-10-26 10:40:04.046875
1474,9.41,2022-10-26 10:40:04.062500
1475,9.19,2022-10-26 10:40:04.078125
1476,8.24,2022-10-26 10:40:04.093750
1477,6.74,2022-10-26 10:40:04.109375
1478,4.95,2022-10-26 10:40:04.125000
1479,3.18,2022-10-26 10:40:04.140625
1480,1.73,2022-10-26 10:40:04.156250
1481,0.73,2022-10-26 10:40:04.171875
1482,0.0,2022-10-26 10:40:04.187500
1483,-0.82,2022-10-26 10:40:04.203125
1484,-2.13,2022-10-26 10:40:04.218750
1485,-4.05,2022-10-26 10:40:04.234375
1486,-6.29,2022-10-26 10:40:04.250000
1487,-8.29,2022-10-26 10:40:04.265625
1488,-9.51,2022-10-26 10:40:04.281250
1489,-9.8,2022-10-26 10:40:04.296875
1490,-9.45,2022-10-26 10:40:04.312500
1491,-9.02,2022-10-26 10:40:04.328125
1492,-8.97,2022-10-26 10:40:04.343750
1493,-9.43,2022-10-26 10:40:04.359375
1494,-10.18,2022-10-26 10:40:04.375000
1495,-10.95,2022-10-26 10:40:04.390625
1496,-11.68,2022-10-26 10:40:04.406250
1497,-12.49,2022-10-26 10:40:04.421875
1498,-13.58,2022-10-26 10:40:04.437500
1499,-14.89,2022-10-26 10:40:04.453125
1500,-15.97,2022-10-26 10:40:04.468750
1501,-16.12,2022-10-26 10:40:04.484375
1502,-14.64,2022-10-26 10:40:04.500000
1503,-11.26,2022-10-26 10:40:04.515625
1504,-6.34,2022-10-26 10:40:04.531250
1505,-0.8,2022-10-26 10:40:04.546875
1506,4.23,2022-10-26 10:40:04.562500
1507,7.87,2022-10-26 10:40:04.578125
1508,9.96,2022-10-26 10:40:04.593750
1509,11.08,2022-10-26 10:40:04.609375
1510,12.41,2022-10-26 10:40:04.625000
1511,15.31,2022-10-26 10:40:04.640625
1512,20.78,2022-10-26 10:40:04.656250
1513,28.99,2022-10-26 10:40:04.671875
1514,39.16,2022-10-26 10:40:04.687500
1515,49.81,2022-10-26 10:40:04.703125
1516,59.21,2022-10-26 10:40:04.718750
1517,65.88,2022-10-26 10:40:04.734375
1518,68.94,2022-10-26 10:40:04.750000
1519,68.22,2022-10-26 10:40:04.765625
1520,64.35,2022-10-26 10:40:04.781250
1521,58.62,2022-10-26 10:40:04.796875
1522,52.52,2022-10-26 10:40:04.812500
1523,47.54,2022-10-26 10:40:04.828125
1524,45.05,2022-10-26 10:40:04.843750
1525,46.16,2022-10-26 10:40:04.859375
1526,51.42,2022-10-26 10:40:04.875000
1527,60.5,2022-10-26 10:40:04.890625
1528,72.16,2022-10-26 10:40:04.906250
1529,84.74,2022-10-26 10:40:04.921875
1530,96.67,2022-10-26 10:40:04.937500
1531,106.5,2022-10-26 10:40:04.953125
1532,113.27,2022-10-26 10:40:04.968750
1533,116.86,2022-10-26 10:40:04.984375
1534,118.07,2022-10-26 10:40:05.000000
1535,118.21,2022-10-26 10:40:05.015625
1536,118.52,2022-10-26 10:40:05.031250
1537,119.63,2022-10-26 10:40:05.046875
1538,121.79,2022-10-26 10:40:05.062500
1539,124.83,2022-10-26 10:40:05.078125
1540,127.35,2022-10-26 10:40:05.093750
1541,127.18,2022-10-26 10:40:05.109375
1542,122.58,2022-10-26 10:40:05.125000
1543,113.23,2022-10-26 10:40:05.140625
1544,100.36,2022-10-26 10:40:05.156250
1545,86.17,2022-10-26 10:40:05.171875
1546,72.61,2022-10-26 10:40:05.187500
1547,61.52,2022-10-26 10:40:05.203125
1548,53.74,2022-10-26 10:40:05.218750
1549,47.72,2022-10-26 10:40:05.234375
1550,40.1,2022-10-26 10:40:05.250000
1551,27.27,2022-10-26 10:40:05.265625
1552,7.0,2022-10-26 10:40:05.281250
1553,-20.98,2022-10-26 10:40:05.296875
1554,-54.76,2022-10-26 10:40:05.312500
1555,-91.71,2022-10-26 10:40:05.328125
1556,-131.51,2022-10-26 10:40:05.343750
1557,-169.43,2022-10-26 10:40:05.359375
1558,-199.14,2022-10-26 10:40:05.375000
1559,-216.8,2022-10-26 10:40:05.390625
1560,-223.68,2022-10-26 10:40:05.406250
1561,-224.76,2022-10-26 10:40:05.421875
1562,-225.71,2022-10-26 10:40:05.437500
1563,-229.69,2022-10-26 10:40:05.453125
1564,-239.35,2022-10-26 10:40:05.468750
1565,-250.49,2022-10-26 10:40:05.484375
1566,-256.34,2022-10-26 10:40:05.500000
1567,-251.25,2022-10-26 10:40:05.515625
1568,-232.59,2022-10-26 10:40:05.531250
1569,-201.08,2022-10-26 10:40:05.546875
1570,-160.23,2022-10-26 10:40:05.562500
1571,-115.06,2022-10-26 10:40:05.578125
1572,-67.52,2022-10-26 10:40:05.593750
1573,-24.92,2022-10-26 10:40:05.609375
1574,7.58,2022-10-26 10:40:05.625000
1575,30.19,2022-10-26 10:40:05.640625
1576,46.9,2022-10-26 10:40:05.656250
1577,61.0,2022-10-26 10:40:05.671875
1578,71.83,2022-10-26 10:40:05.687500
1579,78.34,2022-10-26 10:40:05.703125
1580,75.29,2022-10-26 10:40:05.718750
1581,60.33,2022-10-26 10:40:05.734375
1582,35.29,2022-10-26 10:40:05.750000
1583,7.04,2022-10-26 10:40:05.765625
1584,-16.06,2022-10-26 10:40:05.781250
1585,-28.08,2022-10-26 10:40:05.796875
1586,-28.18,2022-10-26 10:40:05.812500
1587,-18.31,2022-10-26 10:40:05.828125
1588,-2.93,2022-10-26 10:40:05.843750
1589,12.33,2022-10-26 10:40:05.859375
1590,23.32,2022-10-26 10:40:05.875000
1591,27.72,2022-10-26 10:40:05.890625
1592,26.28,2022-10-26 10:40:05.906250
1593,21.29,2022-10-26 10:40:05.921875
1594,15.05,2022-10-26 10:40:05.937500
1595,9.03,2022-10-26 10:40:05.953125
1596,4.21,2022-10-26 10:40:05.968750
1597,1.25,2022-10-26 10:40:05.984375
1598,0.38,2022-10-26 10:40:06.000000
1599,1.92,2022-10-26 10:40:06.015625
1600,5.52,2022-10-26 10:40:06.031250
1601,10.87,2022-10-26 10:40:06.046875
1602,17.18,2022-10-26 10:40:06.062500
1603,23.22,2022-10-26 10:40:06.078125
1604,27.51,2022-10-26 10:40:06.093750
1605,29.18,2022-10-26 10:40:06.109375
1606,28.38,2022-10-26 10:40:06.125000
1607,26.32,2022-10-26 10:40:06.140625
1608,25.34,2022-10-26 10:40:06.156250
1609,27.65,2022-10-26 10:40:06.171875
1610,34.69,2022-10-26 10:40:06.187500
1611,46.2,2022-10-26 10:40:06.203125
1612,59.89,2022-10-26 10:40:06.218750
1613,72.09,2022-10-26 10:40:06.234375
1614,78.99,2022-10-26 10:40:06.250000
1615,77.89,2022-10-26 10:40:06.265625
1616,68.09,2022-10-26 10:40:06.281250
1617,51.29,2022-10-26 10:40:06.296875
1618,30.77,2022-10-26 10:40:06.312500
1619,10.31,2022-10-26 10:40:06.328125
1620,-7.05,2022-10-26 10:40:06.343750
1621,-19.9,2022-10-26 10:40:06.359375
1622,-28.66,2022-10-26 10:40:06.375000
1623,-35.08,2022-10-26 10:40:06.390625
1624,-41.37,2022-10-26 10:40:06.406250
1625,-49.2,2022-10-26 10:40:06.421875
1626,-58.85,2022-10-26 10:40:06.437500
1627,-69.11,2022-10-26 10:40:06.453125
1628,-77.85,2022-10-26 10:40:06.468750
1629,-82.94,2022-10-26 10:40:06.484375
1630,-83.17,2022-10-26 10:40:06.500000
1631,-78.69,2022-10-26 10:40:06.515625
1632,-70.94,2022-10-26 10:40:06.531250
1633,-61.97,2022-10-26 10:40:06.546875
1634,-53.73,2022-10-26 10:40:06.562500
1635,-47.31,2022-10-26 10:40:06.578125
1636,-42.89,2022-10-26 10:40:06.593750
1637,-39.93,2022-10-26 10:40:06.609375
1638,-37.76,2022-10-26 10:40:06.625000
1639,-36.01,2022-10-26 10:40:06.640625
1640,-34.83,2022-10-26 10:40:06.656250
1641,-34.63,2022-10-26 10:40:06.671875
1642,-35.73,2022-10-26 10:40:06.687500
1643,-37.88,2022-10-26 10:40:06.703125
1644,-40.27,2022-10-26 10:40:06.718750
1645,-41.76,2022-10-26 10:40:06.734375
1646,-41.42,2022-10-26 10:40:06.750000
1647,-38.91,2022-10-26 10:40:06.765625
1648,-34.62,2022-10-26 10:40:06.781250
1649,-29.41,2022-10-26 10:40:06.796875
1650,-24.11,2022-10-26 10:40:06.812500
1651,-19.11,2022-10-26 10:40:06.828125
1652,-14.28,2022-10-26 10:40:06.843750
1653,-9.1,2022-10-26 10:40:06.859375
1654,-3.18,2022-10-26 10:40:06.875000
1655,3.51,2022-10-26 10:40:06.890625
1656,10.4,2022-10-26 10:40:06.906250
1657,16.66,2022-10-26 10:40:06.921875
1658,21.56,2022-10-26 10:40:06.937500
1659,24.96,2022-10-26 10:40:06.953125
1660,27.47,2022-10-26 10:40:06.968750
1661,30.2,2022-10-26 10:40:06.984375
1662,34.15,2022-10-26 10:40:07.000000
1663,39.72,2022-10-26 10:40:07.015625
1664,46.47,2022-10-26 10:40:07.031250
1665,53.26,2022-10-26 10:40:07.046875
1666,58.84,2022-10-26 10:40:07.062500
1667,62.36,2022-10-26 10:40:07.078125
1668,63.67,2022-10-26 10:40:07.093750
1669,63.24,2022-10-26 10:40:07.109375
1670,61.69,2022-10-26 10:40:07.125000
1671,59.41,2022-10-26 10:40:07.140625
1672,56.34,2022-10-26 10:40:07.156250
1673,52.1,2022-10-26 10:40:07.171875
1674,46.23,2022-10-26 10:40:07.187500
1675,38.51,2022-10-26 10:40:07.203125
1676,29.21,2022-10-26 10:40:07.218750
1677,19.25,2022-10-26 10:40:07.234375
1678,10.15,2022-10-26 10:40:07.250000
1679,3.66,2022-10-26 10:40:07.265625
1680,1.31,2022-10-26 10:40:07.281250
1681,3.98,2022-10-26 10:40:07.296875
1682,11.55,2022-10-26 10:40:07.312500
1683,22.84,2022-10-26 10:40:07.328125
1684,35.72,2022-10-26 10:40:07.343750
1685,47.65,2022-10-26 10:40:07.359375
1686,56.4,2022-10-26 10:40:07.375000
1687,60.73,2022-10-26 10:40:07.390625
1688,60.59,2022-10-26 10:40:07.406250
1689,56.94,2022-10-26 10:40:07.421875
1690,51.6,2022-10-26 10:40:07.437500
1691,46.79,2022-10-26 10:40:07.453125
1692,44.58,2022-10-26 10:40:07.468750
1693,45.86,2022-10-26 10:40:07.484375
1694,49.66,2022-10-26 10:40:07.500000
1695,53.22,2022-10-26 10:40:07.515625
1696,52.74,2022-10-26 10:40:07.531250
1697,44.57,2022-10-26 10:40:07.546875
1698,26.79,2022-10-26 10:40:07.562500
1699,0.75,2022-10-26 10:40:07.578125
1700,-28.83,2022-10-26 10:40:07.593750
1701,-55.14,2022-10-26 10:40:07.609375
1702,-71.83,2022-10-26 10:40:07.625000
1703,-75.15,2022-10-26 10:40:07.640625
1704,-64.75,2022-10-26 10:40:07.656250
1705,-43.18,2022-10-26 10:40:07.671875
1706,-15.43,2022-10-26 10:40:07.687500
1707,12.39,2022-10-26 10:40:07.703125
1708,34.43,2022-10-26 10:40:07.718750
1709,45.87,2022-10-26 10:40:07.734375
1710,43.85,2022-10-26 10:40:07.750000
1711,27.82,2022-10-26 10:40:07.765625
1712,-0.45,2022-10-26 10:40:07.781250
1713,-37.1,2022-10-26 10:40:07.796875
1714,-75.29,2022-10-26 10:40:07.812500
1715,-106.11,2022-10-26 10:40:07.828125
1716,-122.35,2022-10-26 10:40:07.843750
1717,-123.1,2022-10-26 10:40:07.859375
1718,-113.89,2022-10-26 10:40:07.875000
1719,-101.44,2022-10-26 10:40:07.890625
1720,-89.56,2022-10-26 10:40:07.906250
1721,-79.14,2022-10-26 10:40:07.921875
1722,-69.44,2022-10-26 10:40:07.937500
1723,-59.88,2022-10-26 10:40:07.953125
1724,-51.99,2022-10-26 10:40:07.968750
1725,-49.91,2022-10-26 10:40:07.984375
1726,-55.18,2022-10-26 10:40:08.000000
1727,-68.26,2022-10-26 10:40:08.015625
1728,-88.59,2022-10-26 10:40:08.031250
1729,-114.76,2022-10-26 10:40:08.046875
1730,-144.74,2022-10-26 10:40:08.062500
1731,-175.49,2022-10-26 10:40:08.078125
1732,-196.32,2022-10-26 10:40:08.093750
1733,-200.12,2022-10-26 10:40:08.109375
1734,-183.54,2022-10-26 10:40:08.125000
1735,-148.51,2022-10-26 10:40:08.140625
1736,-101.96,2022-10-26 10:40:08.156250
1737,-53.73,2022-10-26 10:40:08.171875
1738,-12.8,2022-10-26 10:40:08.187500
1739,15.57,2022-10-26 10:40:08.203125
1740,31.25,2022-10-26 10:40:08.218750
1741,38.07,2022-10-26 10:40:08.234375
1742,40.0,2022-10-26 10:40:08.250000
1743,39.81,2022-10-26 10:40:08.265625
1744,38.32,2022-10-26 10:40:08.281250
1745,36.54,2022-10-26 10:40:08.296875
1746,34.51,2022-10-26 10:40:08.312500
1747,33.36,2022-10-26 10:40:08.328125
1748,34.73,2022-10-26 10:40:08.343750
1749,39.74,2022-10-26 10:40:08.359375
1750,48.25,2022-10-26 10:40:08.375000
1751,58.1,2022-10-26 10:40:08.390625
1752,66.8,2022-10-26 10:40:08.406250
1753,72.42,2022-10-26 10:40:08.421875
1754,75.33,2022-10-26 10:40:08.437500
1755,77.35,2022-10-26 10:40:08.453125
1756,81.32,2022-10-26 10:40:08.468750
1757,89.61,2022-10-26 10:40:08.484375
1758,103.02,2022-10-26 10:40:08.500000
1759,120.43,2022-10-26 10:40:08.515625
1760,138.93,2022-10-26 10:40:08.531250
1761,155.92,2022-10-26 10:40:08.546875
1762,165.2,2022-10-26 10:40:08.562500
1763,164.9,2022-10-26 10:40:08.578125
1764,156.03,2022-10-26 10:40:08.593750
1765,141.81,2022-10-26 10:40:08.609375
1766,126.23,2022-10-26 10:40:08.625000
1767,112.78,2022-10-26 10:40:08.640625
1768,103.55,2022-10-26 10:40:08.656250
1769,98.62,2022-10-26 10:40:08.671875
1770,96.51,2022-10-26 10:40:08.687500
1771,94.58,2022-10-26 10:40:08.703125
1772,90.53,2022-10-26 10:40:08.718750
1773,82.15,2022-10-26 10:40:08.734375
1774,68.32,2022-10-26 10:40:08.750000
1775,49.29,2022-10-26 10:40:08.765625
1776,26.55,2022-10-26 10:40:08.781250
1777,2.33,2022-10-26 10:40:08.796875
1778,-21.2,2022-10-26 10:40:08.812500
1779,-42.19,2022-10-26 10:40:08.828125
1780,-59.23,2022-10-26 10:40:08.843750
1781,-70.74,2022-10-26 10:40:08.859375
1782,-75.94,2022-10-26 10:40:08.875000
1783,-75.04,2022-10-26 10:40:08.890625
1784,-69.46,2022-10-26 10:40:08.906250
1785,-61.4,2022-10-26 10:40:08.921875
1786,-53.18,2022-10-26 10:40:08.937500
1787,-46.11,2022-10-26 10:40:08.953125
1788,-40.06,2022-10-26 10:40:08.968750
1789,-33.95,2022-10-26 10:40:08.984375
1790,-26.5,2022-10-26 10:40:09.000000
1791,-18.09,2022-10-26 10:40:09.015625
1792,-11.28,2022-10-26 10:40:09.031250
1793,-10.12,2022-10-26 10:40:09.046875
1794,-18.35,2022-10-26 10:40:09.062500
1795,-37.36,2022-10-26 10:40:09.078125
1796,-65.05,2022-10-26 10:40:09.093750
1797,-96.24,2022-10-26 10:40:09.109375
1798,-124.41,2022-10-26 10:40:09.125000
1799,-143.73,2022-10-26 10:40:09.140625
1800,-151.03,2022-10-26 10:40:09.156250
1801,-146.37,2022-10-26 10:40:09.171875
1802,-132.29,2022-10-26 10:40:09.187500
1803,-112.34,2022-10-26 10:40:09.203125
1804,-89.65,2022-10-26 10:40:09.218750
1805,-66.15,2022-10-26 10:40:09.234375
1806,-42.45,2022-10-26 10:40:09.250000
1807,-18.57,2022-10-26 10:40:09.265625
1808,5.39,2022-10-26 10:40:09.281250
1809,28.47,2022-10-26 10:40:09.296875
1810,48.8,2022-10-26 10:40:09.312500
1811,63.97,2022-10-26 10:40:09.328125
1812,71.8,2022-10-26 10:40:09.343750
1813,71.2,2022-10-26 10:40:09.359375
1814,62.86,2022-10-26 10:40:09.375000
1815,49.31,2022-10-26 10:40:09.390625
1816,34.37,2022-10-26 10:40:09.406250
1817,22.05,2022-10-26 10:40:09.421875
1818,15.24,2022-10-26 10:40:09.437500
1819,14.84,2022-10-26 10:40:09.453125
1820,19.83,2022-10-26 10:40:09.468750
1821,27.93,2022-10-26 10:40:09.484375
1822,36.72,2022-10-26 10:40:09.500000
1823,44.52,2022-10-26 10:40:09.515625
1824,50.7,2022-10-26 10:40:09.531250
1825,55.37,2022-10-26 10:40:09.546875
1826,58.84,2022-10-26 10:40:09.562500
1827,61.22,2022-10-26 10:40:09.578125
1828,62.4,2022-10-26 10:40:09.593750
1829,62.39,2022-10-26 10:40:09.609375
1830,61.54,2022-10-26 10:40:09.625000
1831,60.56,2022-10-26 10:40:09.640625
1832,60.2,2022-10-26 10:40:09.656250
1833,60.77,2022-10-26 10:40:09.671875
1834,61.91,2022-10-26 10:40:09.687500
1835,62.75,2022-10-26 10:40:09.703125
1836,62.3,2022-10-26 10:40:09.718750
1837,59.9,2022-10-26 10:40:09.734375
1838,55.5,2022-10-26 10:40:09.750000
1839,49.61,2022-10-26 10:40:09.765625
1840,43.01,2022-10-26 10:40:09.781250
1841,36.44,2022-10-26 10:40:09.796875
1842,30.3,2022-10-26 10:40:09.812500
1843,24.58,2022-10-26 10:40:09.828125
1844,19.02,2022-10-26 10:40:09.843750
1845,13.32,2022-10-26 10:40:09.859375
1846,7.43,2022-10-26 10:40:09.875000
1847,1.51,2022-10-26 10:40:09.890625
1848,-4.08,2022-10-26 10:40:09.906250
1849,-9.02,2022-10-26 10:40:09.921875
1850,-13.08,2022-10-26 10:40:09.937500
1851,-16.11,2022-10-26 10:40:09.953125
1852,-17.85,2022-10-26 10:40:09.968750
1853,-17.99,2022-10-26 10:40:09.984375
1854,-16.18,2022-10-26 10:40:10.000000
1855,-12.42,2022-10-26 10:40:10.015625
1856,-7.45,2022-10-26 10:40:10.031250
1857,-2.72,2022-10-26 10:40:10.046875
1858,-0.18,2022-10-26 10:40:10.062500
1859,-1.73,2022-10-26 10:40:10.078125
1860,-8.66,2022-10-26 10:40:10.093750
1861,-21.26,2022-10-26 10:40:10.109375
1862,-38.69,2022-10-26 10:40:10.125000
1863,-59.04,2022-10-26 10:40:10.140625
1864,-79.56,2022-10-26 10:40:10.156250
1865,-97.03,2022-10-26 10:40:10.171875
1866,-108.4,2022-10-26 10:40:10.187500
1867,-111.57,2022-10-26 10:40:10.203125
1868,-106.03,2022-10-26 10:40:10.218750
1869,-93.04,2022-10-26 10:40:10.234375
1870,-75.27,2022-10-26 10:40:10.250000
1871,-55.85,2022-10-26 10:40:10.265625
1872,-37.42,2022-10-26 10:40:10.281250
1873,-21.5,2022-10-26 10:40:10.296875
1874,-8.48,2022-10-26 10:40:10.312500
1875,2.06,2022-10-26 10:40:10.328125
1876,10.69,2022-10-26 10:40:10.343750
1877,17.79,2022-10-26 10:40:10.359375
1878,23.46,2022-10-26 10:40:10.375000
1879,27.6,2022-10-26 10:40:10.390625
1880,30.16,2022-10-26 10:40:10.406250
1881,31.19,2022-10-26 10:40:10.421875
1882,30.82,2022-10-26 10:40:10.437500
1883,29.17,2022-10-26 10:40:10.453125
1884,26.1,2022-10-26 10:40:10.468750
1885,21.2,2022-10-26 10:40:10.484375
1886,14.01,2022-10-26 10:40:10.500000
1887,4.43,2022-10-26 10:40:10.515625
1888,-6.81,2022-10-26 10:40:10.531250
1889,-18.14,2022-10-26 10:40:10.546875
1890,-27.44,2022-10-26 10:40:10.562500
1891,-32.96,2022-10-26 10:40:10.578125
1892,-34.1,2022-10-26 10:40:10.593750
1893,-31.59,2022-10-26 10:40:10.609375
1894,-27.05,2022-10-26 10:40:10.625000
1895,-22.01,2022-10-26 10:40:10.640625
1896,-17.2,2022-10-26 10:40:10.656250
1897,-12.36,2022-10-26 10:40:10.671875
1898,-6.77,2022-10-26 10:40:10.687500
1899,0.07,2022-10-26 10:40:10.703125
1900,8.05,2022-10-26 10:40:10.718750
1901,16.45,2022-10-26 10:40:10.734375
1902,24.35,2022-10-26 10:40:10.750000
1903,31.02,2022-10-26 10:40:10.765625
1904,36.19,2022-10-26 10:40:10.781250
1905,40.06,2022-10-26 10:40:10.796875
1906,43.19,2022-10-26 10:40:10.812500
1907,46.37,2022-10-26 10:40:10.828125
1908,50.3,2022-10-26 10:40:10.843750
1909,55.27,2022-10-26 10:40:10.859375
1910,60.75,2022-10-26 10:40:10.875000
1911,65.27,2022-10-26 10:40:10.890625
1912,66.78,2022-10-26 10:40:10.906250
1913,63.48,2022-10-26 10:40:10.921875
1914,54.72,2022-10-26 10:40:10.937500
1915,41.62,2022-10-26 10:40:10.953125
1916,27.03,2022-10-26 10:40:10.968750
1917,14.66,2022-10-26 10:40:10.984375
1918,7.69,2022-10-26 10:40:11.000000
1919,7.47,2022-10-26 10:40:11.015625
1920,12.87,2022-10-26 10:40:11.031250
1921,20.76,2022-10-26 10:40:11.046875
1922,27.29,2022-10-26 10:40:11.062500
1923,29.69,2022-10-26 10:40:11.078125
1924,27.57,2022-10-26 10:40:11.093750
1925,23.0,2022-10-26 10:40:11.109375
1926,19.28,2022-10-26 10:40:11.125000
1927,19.14,2022-10-26 10:40:11.140625
1928,23.16,2022-10-26 10:40:11.156250
1929,29.27,2022-10-26 10:40:11.171875
1930,33.7,2022-10-26 10:40:11.187500
1931,32.37,2022-10-26 10:40:11.203125
1932,22.16,2022-10-26 10:40:11.218750
1933,1.26,2022-10-26 10:40:11.234375
1934,-30.82,2022-10-26 10:40:11.250000
1935,-73.04,2022-10-26 10:40:11.265625
1936,-122.13,2022-10-26 10:40:11.281250
1937,-172.17,2022-10-26 10:40:11.296875
1938,-215.39,2022-10-26 10:40:11.312500
1939,-244.46,2022-10-26 10:40:11.328125
1940,-255.5,2022-10-26 10:40:11.343750
1941,-249.94,2022-10-26 10:40:11.359375
1942,-233.97,2022-10-26 10:40:11.375000
1943,-215.74,2022-10-26 10:40:11.390625
1944,-201.73,2022-10-26 10:40:11.406250
1945,-194.3,2022-10-26 10:40:11.421875
1946,-191.68,2022-10-26 10:40:11.437500
1947,-190.07,2022-10-26 10:40:11.453125
1948,-186.15,2022-10-26 10:40:11.468750
1949,-178.56,2022-10-26 10:40:11.484375
1950,-167.35,2022-10-26 10:40:11.500000
1951,-152.38,2022-10-26 10:40:11.515625
1952,-132.15,2022-10-26 10:40:11.531250
1953,-104.08,2022-10-26 10:40:11.546875
1954,-66.42,2022-10-26 10:40:11.562500
1955,-20.27,2022-10-26 10:40:11.578125
1956,29.67,2022-10-26 10:40:11.593750
1957,76.29,2022-10-26 10:40:11.609375
1958,112.6,2022-10-26 10:40:11.625000
1959,134.49,2022-10-26 10:40:11.640625
1960,142.38,2022-10-26 10:40:11.656250
1961,140.85,2022-10-26 10:40:11.671875
1962,136.47,2022-10-26 10:40:11.687500
1963,134.84,2022-10-26 10:40:11.703125
1964,138.43,2022-10-26 10:40:11.718750
1965,145.97,2022-10-26 10:40:11.734375
1966,153.63,2022-10-26 10:40:11.750000
1967,157.3,2022-10-26 10:40:11.765625
1968,154.53,2022-10-26 10:40:11.781250
1969,145.46,2022-10-26 10:40:11.796875
1970,132.28,2022-10-26 10:40:11.812500
1971,118.04,2022-10-26 10:40:11.828125
1972,105.21,2022-10-26 10:40:11.843750
1973,94.89,2022-10-26 10:40:11.859375
1974,86.78,2022-10-26 10:40:11.875000
1975,79.83,2022-10-26 10:40:11.890625
1976,72.98,2022-10-26 10:40:11.906250
1977,65.76,2022-10-26 10:40:11.921875
1978,58.33,2022-10-26 10:40:11.937500
1979,51.14,2022-10-26 10:40:11.953125
1980,44.53,2022-10-26 10:40:11.968750
1981,38.43,2022-10-26 10:40:11.984375
1982,32.45,2022-10-26 10:40:12.000000
1983,26.16,2022-10-26 10:40:12.015625
1984,19.44,2022-10-26 10:40:12.031250
1985,12.64,2022-10-26 10:40:12.046875
1986,6.54,2022-10-26 10:40:12.062500
1987,1.96,2022-10-26 10:40:12.078125
1988,-0.64,2022-10-26 10:40:12.093750
1989,-1.47,2022-10-26 10:40:12.109375
1990,-1.34,2022-10-26 10:40:12.125000
1991,-1.39,2022-10-26 10:40:12.140625
1992,-2.59,2022-10-26 10:40:12.156250
1993,-5.33,2022-10-26 10:40:12.171875
1994,-9.33,2022-10-26 10:40:12.187500
1995,-13.79,2022-10-26 10:40:12.203125
1996,-17.77,2022-10-26 10:40:12.218750
1997,-20.59,2022-10-26 10:40:12.234375
1998,-22.01,2022-10-26 10:40:12.250000
1999,-22.22,2022-10-26 10:40:12.265625
2000,-21.67,2022-10-26 10:40:12.281250
2001,-20.76,2022-10-26 10:40:12.296875
2002,-19.67,2022-10-26 10:40:12.312500
2003,-18.32,2022-10-26 10:40:12.328125
2004,-16.5,2022-10-26 10:40:12.343750
2005,-14.02,2022-10-26 10:40:12.359375
2006,-10.87,2022-10-26 10:40:12.375000
2007,-7.31,2022-10-26 10:40:12.390625
2008,-3.75,2022-10-26 10:40:12.406250
2009,-0.66,2022-10-26 10:40:12.421875
2010,1.67,2022-10-26 10:40:12.437500
2011,3.21,2022-10-26 10:40:12.453125
2012,4.14,2022-10-26 10:40:12.468750
2013,4.73,2022-10-26 10:40:12.484375
2014,5.18,2022-10-26 10:40:12.500000
2015,5.48,2022-10-26 10:40:12.515625
2016,5.48,2022-10-26 10:40:12.531250
2017,5.06,2022-10-26 10:40:12.546875
2018,4.2,2022-10-26 10:40:12.562500
2019,3.05,2022-10-26 10:40:12.578125
2020,1.89,2022-10-26 10:40:12.593750
2021,0.92,2022-10-26 10:40:12.609375
2022,0.14,2022-10-26 10:40:12.625000
2023,-0.62,2022-10-26 10:40:12.640625
2024,-1.61,2022-10-26 10:40:12.656250
2025,-2.98,2022-10-26 10:40:12.671875
2026,-4.62,2022-10-26 10:40:12.687500
2027,-6.17,2022-10-26 10:40:12.703125
2028,-7.18,2022-10-26 10:40:12.718750
2029,-7.3,2022-10-26 10:40:12.734375
2030,-6.46,2022-10-26 10:40:12.750000
2031,-4.96,2022-10-26 10:40:12.765625
2032,-3.31,2022-10-26 10:40:12.781250
2033,-2.12,2022-10-26 10:40:12.796875
2034,-1.79,2022-10-26 10:40:12.812500
2035,-2.47,2022-10-26 10:40:12.828125
2036,-3.97,2022-10-26 10:40:12.843750
2037,-5.92,2022-10-26 10:40:12.859375
2038,-7.93,2022-10-26 10:40:12.875000
2039,-9.69,2022-10-26 10:40:12.890625
2040,-10.98,2022-10-26 10:40:12.906250
2041,-11.66,2022-10-26 10:40:12.921875
2042,-11.53,2022-10-26 10:40:12.937500
2043,-10.41,2022-10-26 10:40:12.953125
2044,-8.22,2022-10-26 10:40:12.968750
2045,-5.03,2022-10-26 10:40:12.984375
2046,-1.15,2022-10-26 10:40:13.000000
2047,3.06,2022-10-26 10:40:13.015625
2048,7.25,2022-10-26 10:40:13.031250
2049,11.28,2022-10-26 10:40:13.046875
2050,15.15,2022-10-26 10:40:13.062500
2051,18.91,2022-10-26 10:40:13.078125
2052,22.56,2022-10-26 10:40:13.093750
2053,25.94,2022-10-26 10:40:13.109375
2054,28.88,2022-10-26 10:40:13.125000
2055,31.23,2022-10-26 10:40:13.140625
2056,32.94,2022-10-26 10:40:13.156250
2057,34.08,2022-10-26 10:40:13.171875
2058,34.73,2022-10-26 10:40:13.187500
2059,34.93,2022-10-26 10:40:13.203125
2060,34.71,2022-10-26 10:40:13.218750
2061,34.11,2022-10-26 10:40:13.234375
2062,33.21,2022-10-26 10:40:13.250000
2063,32.19,2022-10-26 10:40:13.265625
2064,31.18,2022-10-26 10:40:13.281250
2065,30.24,2022-10-26 10:40:13.296875
2066,29.26,2022-10-26 10:40:13.312500
2067,27.99,2022-10-26 10:40:13.328125
2068,26.2,2022-10-26 10:40:13.343750
2069,23.75,2022-10-26 10:40:13.359375
2070,20.69,2022-10-26 10:40:13.375000
2071,17.29,2022-10-26 10:40:13.390625
2072,13.9,2022-10-26 10:40:13.406250
2073,10.81,2022-10-26 10:40:13.421875
2074,8.19,2022-10-26 10:40:13.437500
2075,6.01,2022-10-26 10:40:13.453125
2076,4.13,2022-10-26 10:40:13.468750
2077,2.37,2022-10-26 10:40:13.484375
2078,0.62,2022-10-26 10:40:13.500000
2079,-1.12,2022-10-26 10:40:13.515625
2080,-2.83,2022-10-26 10:40:13.531250
2081,-4.47,2022-10-26 10:40:13.546875
2082,-6.06,2022-10-26 10:40:13.562500
2083,-7.65,2022-10-26 10:40:13.578125
2084,-9.28,2022-10-26 10:40:13.593750
2085,-10.91,2022-10-26 10:40:13.609375
2086,-12.43,2022-10-26 10:40:13.625000
2087,-13.74,2022-10-26 10:40:13.640625
2088,-14.79,2022-10-26 10:40:13.656250
2089,-15.62,2022-10-26 10:40:13.671875
2090,-16.37,2022-10-26 10:40:13.687500
2091,-17.15,2022-10-26 10:40:13.703125
2092,-18.05,2022-10-26 10:40:13.718750
2093,-19.04,2022-10-26 10:40:13.734375
2094,-20.05,2022-10-26 10:40:13.750000
2095,-20.97,2022-10-26 10:40:13.765625
2096,-21.76,2022-10-26 10:40:13.781250
2097,-22.41,2022-10-26 10:40:13.796875
2098,-22.94,2022-10-26 10:40:13.812500
2099,-23.33,2022-10-26 10:40:13.828125
2100,-23.5,2022-10-26 10:40:13.843750
2101,-23.27,2022-10-26 10:40:13.859375
2102,-22.49,2022-10-26 10:40:13.875000
2103,-21.11,2022-10-26 10:40:13.890625
2104,-19.2,2022-10-26 10:40:13.906250
2105,-16.97,2022-10-26 10:40:13.921875
2106,-14.69,2022-10-26 10:40:13.937500
2107,-12.59,2022-10-26 10:40:13.953125
2108,-10.82,2022-10-26 10:40:13.968750
2109,-9.4,2022-10-26 10:40:13.984375
2110,-8.27,2022-10-26 10:40:14.000000
2111,-7.27,2022-10-26 10:40:14.015625
2112,-6.29,2022-10-26 10:40:14.031250
2113,-5.24,2022-10-26 10:40:14.046875
2114,-4.17,2022-10-26 10:40:14.062500
2115,-3.2,2022-10-26 10:40:14.078125
2116,-2.5,2022-10-26 10:40:14.093750
2117,-2.2,2022-10-26 10:40:14.109375
2118,-2.33,2022-10-26 10:40:14.125000
2119,-2.76,2022-10-26 10:40:14.140625
2120,-3.21,2022-10-26 10:40:14.156250
2121,-3.44,2022-10-26 10:40:14.171875
2122,-3.29,2022-10-26 10:40:14.187500
2123,-2.77,2022-10-26 10:40:14.203125
2124,-2.05,2022-10-26 10:40:14.218750
2125,-1.35,2022-10-26 10:40:14.234375
2126,-0.83,2022-10-26 10:40:14.250000
2127,-0.56,2022-10-26 10:40:14.265625
2128,-0.49,2022-10-26 10:40:14.281250
2129,-0.56,2022-10-26 10:40:14.296875
2130,-0.69,2022-10-26 10:40:14.312500
2131,-0.85,2022-10-26 10:40:14.328125
2132,-1.05,2022-10-26 10:40:14.343750
2133,-1.3,2022-10-26 10:40:14.359375
2134,-1.6,2022-10-26 10:40:14.375000
2135,-1.94,2022-10-26 10:40:14.390625
2136,-2.32,2022-10-26 10:40:14.406250
2137,-2.71,2022-10-26 10:40:14.421875
2138,-3.13,2022-10-26 10:40:14.437500
2139,-3.57,2022-10-26 10:40:14.453125
2140,-4.01,2022-10-26 10:40:14.468750
2141,-4.4,2022-10-26 10:40:14.484375
2142,-4.76,2022-10-26 10:40:14.500000
2143,-5.15,2022-10-26 10:40:14.515625
2144,-5.66,2022-10-26 10:40:14.531250
2145,-6.4,2022-10-26 10:40:14.546875
2146,-7.37,2022-10-26 10:40:14.562500
2147,-8.45,2022-10-26 10:40:14.578125
2148,-9.48,2022-10-26 10:40:14.593750
2149,-10.27,2022-10-26 10:40:14.609375
2150,-10.77,2022-10-26 10:40:14.625000
2151,-11.03,2022-10-26 10:40:14.640625
2152,-11.24,2022-10-26 10:40:14.656250
2153,-11.53,2022-10-26 10:40:14.671875
2154,-11.97,2022-10-26 10:40:14.687500
2155,-12.54,2022-10-26 10:40:14.703125
2156,-13.14,2022-10-26 10:40:14.718750
2157,-13.69,2022-10-26 10:40:14.734375
2158,-14.15,2022-10-26 10:40:14.750000
2159,-14.51,2022-10-26 10:40:14.765625
2160,-14.76,2022-10-26 10:40:14.781250
2161,-14.84,2022-10-26 10:40:14.796875
2162,-14.59,2022-10-26 10:40:14.812500
2163,-13.9,2022-10-26 10:40:14.828125
2164,-12.67,2022-10-26 10:40:14.843750
2165,-10.97,2022-10-26 10:40:14.859375
2166,-8.94,2022-10-26 10:40:14.875000
2167,-6.76,2022-10-26 10:40:14.890625
2168,-4.6,2022-10-26 10:40:14.906250
2169,-2.6,2022-10-26 10:40:14.921875
2170,-0.89,2022-10-26 10:40:14.937500
2171,0.34,2022-10-26 10:40:14.953125
2172,0.88,2022-10-26 10:40:14.968750
2173,0.58,2022-10-26 10:40:14.984375
2174,-0.57,2022-10-26 10:40:15.000000
2175,-2.35,2022-10-26 10:40:15.015625
2176,-4.31,2022-10-26 10:40:15.031250
2177,-5.95,2022-10-26 10:40:15.046875
2178,-6.85,2022-10-26 10:40:15.062500
2179,-6.97,2022-10-26 10:40:15.078125
2180,-6.56,2022-10-26 10:40:15.093750
2181,-6.1,2022-10-26 10:40:15.109375
2182,-6.03,2022-10-26 10:40:15.125000
2183,-6.6,2022-10-26 10:40:15.140625
2184,-7.66,2022-10-26 10:40:15.156250
2185,-8.83,2022-10-26 10:40:15.171875
2186,-9.65,2022-10-26 10:40:15.187500
2187,-9.77,2022-10-26 10:40:15.203125
2188,-9.16,2022-10-26 10:40:15.218750
2189,-8.11,2022-10-26 10:40:15.234375
2190,-7.16,2022-10-26 10:40:15.250000
2191,-6.86,2022-10-26 10:40:15.265625
2192,-7.63,2022-10-26 10:40:15.281250
2193,-9.56,2022-10-26 10:40:15.296875
2194,-12.46,2022-10-26 10:40:15.312500
2195,-15.89,2022-10-26 10:40:15.328125
2196,-19.32,2022-10-26 10:40:15.343750
2197,-22.27,2022-10-26 10:40:15.359375
2198,-24.46,2022-10-26 10:40:15.375000
2199,-25.9,2022-10-26 10:40:15.390625
2200,-26.85,2022-10-26 10:40:15.406250
2201,-27.77,2022-10-26 10:40:15.421875
2202,-29.12,2022-10-26 10:40:15.437500
2203,-31.12,2022-10-26 10:40:15.453125
2204,-33.61,2022-10-26 10:40:15.468750
2205,-35.97,2022-10-26 10:40:15.484375
2206,-37.3,2022-10-26 10:40:15.500000
2207,-36.86,2022-10-26 10:40:15.515625
2208,-34.59,2022-10-26 10:40:15.531250
2209,-31.45,2022-10-26 10:40:15.546875
2210,-29.47,2022-10-26 10:40:15.562500
2211,-31.21,2022-10-26 10:40:15.578125
2212,-38.77,2022-10-26 10:40:15.593750
2213,-52.85,2022-10-26 10:40:15.609375
2214,-72.26,2022-10-26 10:40:15.625000
2215,-94.27,2022-10-26 10:40:15.640625
2216,-115.76,2022-10-26 10:40:15.656250
2217,-134.28,2022-10-26 10:40:15.671875
2218,-148.68,2022-10-26 10:40:15.687500
2219,-158.73,2022-10-26 10:40:15.703125
2220,-164.23,2022-10-26 10:40:15.718750
2221,-164.34,2022-10-26 10:40:15.734375
2222,-157.63,2022-10-26 10:40:15.750000
2223,-143.06,2022-10-26 10:40:15.765625
2224,-121.03,2022-10-26 10:40:15.781250
2225,-93.75,2022-10-26 10:40:15.796875
2226,-64.54,2022-10-26 10:40:15.812500
2227,-36.4,2022-10-26 10:40:15.828125
2228,-10.94,2022-10-26 10:40:15.843750
2229,11.77,2022-10-26 10:40:15.859375
2230,32.37,2022-10-26 10:40:15.875000
2231,50.92,2022-10-26 10:40:15.890625
2232,66.32,2022-10-26 10:40:15.906250
2233,76.88,2022-10-26 10:40:15.921875
2234,81.55,2022-10-26 10:40:15.937500
2235,81.05,2022-10-26 10:40:15.953125
2236,77.87,2022-10-26 10:40:15.968750
2237,75.27,2022-10-26 10:40:15.984375
2238,75.72,2022-10-26 10:40:16.000000
2239,79.79,2022-10-26 10:40:16.015625
2240,86.1,2022-10-26 10:40:16.031250
2241,92.27,2022-10-26 10:40:16.046875
2242,96.23,2022-10-26 10:40:16.062500
2243,97.16,2022-10-26 10:40:16.078125
2244,95.56,2022-10-26 10:40:16.093750
2245,92.64,2022-10-26 10:40:16.109375
2246,89.5,2022-10-26 10:40:16.125000
2247,86.57,2022-10-26 10:40:16.140625
2248,83.62,2022-10-26 10:40:16.156250
2249,80.06,2022-10-26 10:40:16.171875
2250,75.46,2022-10-26 10:40:16.187500
2251,69.81,2022-10-26 10:40:16.203125
2252,63.55,2022-10-26 10:40:16.218750
2253,57.21,2022-10-26 10:40:16.234375
2254,51.24,2022-10-26 10:40:16.250000
2255,45.77,2022-10-26 10:40:16.265625
2256,40.65,2022-10-26 10:40:16.281250
2257,35.5,2022-10-26 10:40:16.296875
2258,29.98,2022-10-26 10:40:16.312500
2259,23.96,2022-10-26 10:40:16.328125
2260,17.6,2022-10-26 10:40:16.343750
2261,11.26,2022-10-26 10:40:16.359375
2262,5.42,2022-10-26 10:40:16.375000
2263,0.51,2022-10-26 10:40:16.390625
2264,-3.21,2022-10-26 10:40:16.406250
2265,-5.6,2022-10-26 10:40:16.421875
2266,-6.7,2022-10-26 10:40:16.437500
2267,-6.6,2022-10-26 10:40:16.453125
2268,-5.43,2022-10-26 10:40:16.468750
2269,-3.37,2022-10-26 10:40:16.484375
2270,-0.65,2022-10-26 10:40:16.500000
2271,2.43,2022-10-26 10:40:16.515625
2272,5.49,2022-10-26 10:40:16.531250
2273,8.1,2022-10-26 10:40:16.546875
2274,9.9,2022-10-26 10:40:16.562500
2275,10.72,2022-10-26 10:40:16.578125
2276,10.62,2022-10-26 10:40:16.593750
2277,9.93,2022-10-26 10:40:16.609375
2278,9.11,2022-10-26 10:40:16.625000
2279,8.54,2022-10-26 10:40:16.640625
2280,8.39,2022-10-26 10:40:16.656250
2281,8.58,2022-10-26 10:40:16.671875
2282,8.81,2022-10-26 10:40:16.687500
2283,8.76,2022-10-26 10:40:16.703125
2284,8.25,2022-10-26 10:40:16.718750
2285,7.35,2022-10-26 10:40:16.734375
2286,6.28,2022-10-26 10:40:16.750000
2287,5.32,2022-10-26 10:40:16.765625
2288,4.67,2022-10-26 10:40:16.781250
2289,4.37,2022-10-26 10:40:16.796875
2290,4.29,2022-10-26 10:40:16.812500
2291,4.24,2022-10-26 10:40:16.828125
2292,4.01,2022-10-26 10:40:16.843750
2293,3.48,2022-10-26 10:40:16.859375
2294,2.65,2022-10-26 10:40:16.875000
2295,1.6,2022-10-26 10:40:16.890625
2296,0.45,2022-10-26 10:40:16.906250
2297,-0.68,2022-10-26 10:40:16.921875
2298,-1.77,2022-10-26 10:40:16.937500
2299,-2.83,2022-10-26 10:40:16.953125
2300,-3.9,2022-10-26 10:40:16.968750
2301,-5.05,2022-10-26 10:40:16.984375
2302,-6.28,2022-10-26 10:40:17.000000
2303,-7.54,2022-10-26 10:40:17.015625
2304,-8.75,2022-10-26 10:40:17.031250
2305,-9.81,2022-10-26 10:40:17.046875
2306,-10.67,2022-10-26 10:40:17.062500
2307,-11.35,2022-10-26 10:40:17.078125
2308,-12.0,2022-10-26 10:40:17.093750
2309,-12.8,2022-10-26 10:40:17.109375
2310,-13.97,2022-10-26 10:40:17.125000
2311,-15.6,2022-10-26 10:40:17.140625
2312,-17.57,2022-10-26 10:40:17.156250
2313,-19.53,2022-10-26 10:40:17.171875
2314,-20.96,2022-10-26 10:40:17.187500
2315,-21.35,2022-10-26 10:40:17.203125
2316,-20.37,2022-10-26 10:40:17.218750
2317,-18.01,2022-10-26 10:40:17.234375
2318,-14.53,2022-10-26 10:40:17.250000
2319,-10.39,2022-10-26 10:40:17.265625
2320,-6.06,2022-10-26 10:40:17.281250
2321,-1.92,2022-10-26 10:40:17.296875
2322,1.73,2022-10-26 10:40:17.312500
2323,4.73,2022-10-26 10:40:17.328125
2324,6.98,2022-10-26 10:40:17.343750
2325,8.44,2022-10-26 10:40:17.359375
2326,9.18,2022-10-26 10:40:17.375000
2327,9.39,2022-10-26 10:40:17.390625
2328,9.31,2022-10-26 10:40:17.406250
2329,9.18,2022-10-26 10:40:17.421875
2330,9.17,2022-10-26 10:40:17.437500
2331,9.31,2022-10-26 10:40:17.453125
2332,9.52,2022-10-26 10:40:17.468750
2333,9.71,2022-10-26 10:40:17.484375
2334,9.83,2022-10-26 10:40:17.500000
2335,9.88,2022-10-26 10:40:17.515625
2336,9.96,2022-10-26 10:40:17.531250
2337,10.18,2022-10-26 10:40:17.546875
2338,10.63,2022-10-26 10:40:17.562500
2339,11.36,2022-10-26 10:40:17.578125
2340,12.34,2022-10-26 10:40:17.593750
2341,13.44,2022-10-26 10:40:17.609375
2342,14.49,2022-10-26 10:40:17.625000
2343,15.27,2022-10-26 10:40:17.640625
2344,15.63,2022-10-26 10:40:17.656250
2345,15.53,2022-10-26 10:40:17.671875
2346,15.03,2022-10-26 10:40:17.687500
2347,14.28,2022-10-26 10:40:17.703125
2348,13.42,2022-10-26 10:40:17.718750
2349,12.52,2022-10-26 10:40:17.734375
2350,11.53,2022-10-26 10:40:17.750000
2351,10.35,2022-10-26 10:40:17.765625
2352,8.85,2022-10-26 10:40:17.781250
2353,7.01,2022-10-26 10:40:17.796875
2354,4.91,2022-10-26 10:40:17.812500
2355,2.69,2022-10-26 10:40:17.828125
2356,0.49,2022-10-26 10:40:17.843750
2357,-1.57,2022-10-26 10:40:17.859375
2358,-3.53,2022-10-26 10:40:17.875000
2359,-5.47,2022-10-26 10:40:17.890625
2360,-7.56,2022-10-26 10:40:17.906250
2361,-9.92,2022-10-26 10:40:17.921875
2362,-12.54,2022-10-26 10:40:17.937500
2363,-15.26,2022-10-26 10:40:17.953125
2364,-17.77,2022-10-26 10:40:17.968750
2365,-19.66,2022-10-26 10:40:17.984375
2366,-20.56,2022-10-26 10:40:18.000000
2367,-20.24,2022-10-26 10:40:18.015625
2368,-18.71,2022-10-26 10:40:18.031250
2369,-16.19,2022-10-26 10:40:18.046875
2370,-13.11,2022-10-26 10:40:18.062500
2371,-9.92,2022-10-26 10:40:18.078125
2372,-7.05,2022-10-26 10:40:18.093750
2373,-4.75,2022-10-26 10:40:18.109375
2374,-3.11,2022-10-26 10:40:18.125000
2375,-1.98,2022-10-26 10:40:18.140625
2376,-1.13,2022-10-26 10:40:18.156250
2377,-0.24,2022-10-26 10:40:18.171875
2378,0.97,2022-10-26 10:40:18.187500
2379,2.68,2022-10-26 10:40:18.203125
2380,4.93,2022-10-26 10:40:18.218750
2381,7.61,2022-10-26 10:40:18.234375
2382,10.49,2022-10-26 10:40:18.250000
2383,13.3,2022-10-26 10:40:18.265625
2384,15.76,2022-10-26 10:40:18.281250
2385,17.68,2022-10-26 10:40:18.296875
2386,19.02,2022-10-26 10:40:18.312500
2387,19.89,2022-10-26 10:40:18.328125
2388,20.48,2022-10-26 10:40:18.343750
2389,21.0,2022-10-26 10:40:18.359375
2390,21.52,2022-10-26 10:40:18.375000
2391,21.98,2022-10-26 10:40:18.390625
2392,22.21,2022-10-26 10:40:18.406250
2393,22.06,2022-10-26 10:40:18.421875
2394,21.48,2022-10-26 10:40:18.437500
2395,20.58,2022-10-26 10:40:18.453125
2396,19.56,2022-10-26 10:40:18.468750
2397,18.64,2022-10-26 10:40:18.484375
2398,17.92,2022-10-26 10:40:18.500000
2399,17.4,2022-10-26 10:40:18.515625
2400,16.99,2022-10-26 10:40:18.531250
2401,16.64,2022-10-26 10:40:18.546875
2402,16.35,2022-10-26 10:40:18.562500
2403,16.14,2022-10-26 10:40:18.578125
2404,16.02,2022-10-26 10:40:18.593750
2405,15.91,2022-10-26 10:40:18.609375
2406,15.64,2022-10-26 10:40:18.625000
2407,15.07,2022-10-26 10:40:18.640625
2408,14.13,2022-10-26 10:40:18.656250
2409,12.88,2022-10-26 10:40:18.671875
2410,11.49,2022-10-26 10:40:18.687500
2411,10.09,2022-10-26 10:40:18.703125
2412,8.76,2022-10-26 10:40:18.718750
2413,7.47,2022-10-26 10:40:18.734375
2414,6.16,2022-10-26 10:40:18.750000
2415,4.77,2022-10-26 10:40:18.765625
2416,3.35,2022-10-26 10:40:18.781250
2417,1.96,2022-10-26 10:40:18.796875
2418,0.7,2022-10-26 10:40:18.812500
2419,-0.4,2022-10-26 10:40:18.828125
2420,-1.35,2022-10-26 10:40:18.843750
2421,-2.23,2022-10-26 10:40:18.859375
2422,-3.15,2022-10-26 10:40:18.875000
2423,-4.22,2022-10-26 10:40:18.890625
2424,-5.6,2022-10-26 10:40:18.906250
2425,-7.32,2022-10-26 10:40:18.921875
2426,-9.34,2022-10-26 10:40:18.937500
2427,-11.42,2022-10-26 10:40:18.953125
2428,-13.15,2022-10-26 10:40:18.968750
2429,-14.02,2022-10-26 10:40:18.984375
2430,-13.69,2022-10-26 10:40:19.000000
2431,-12.05,2022-10-26 10:40:19.015625
2432,-9.36,2022-10-26 10:40:19.031250
2433,-6.14,2022-10-26 10:40:19.046875
2434,-2.92,2022-10-26 10:40:19.062500
2435,-0.12,2022-10-26 10:40:19.078125
2436,2.1,2022-10-26 10:40:19.093750
2437,3.83,2022-10-26 10:40:19.109375
2438,5.23,2022-10-26 10:40:19.125000
2439,6.47,2022-10-26 10:40:19.140625
2440,7.62,2022-10-26 10:40:19.156250
2441,8.65,2022-10-26 10:40:19.171875
2442,9.5,2022-10-26 10:40:19.187500
2443,10.09,2022-10-26 10:40:19.203125
2444,10.39,2022-10-26 10:40:19.218750
2445,10.41,2022-10-26 10:40:19.234375
2446,10.23,2022-10-26 10:40:19.250000
2447,10.01,2022-10-26 10:40:19.265625
2448,9.91,2022-10-26 10:40:19.281250
2449,10.03,2022-10-26 10:40:19.296875
2450,10.37,2022-10-26 10:40:19.312500
2451,10.82,2022-10-26 10:40:19.328125
2452,11.18,2022-10-26 10:40:19.343750
2453,11.28,2022-10-26 10:40:19.359375
2454,11.09,2022-10-26 10:40:19.375000
2455,10.74,2022-10-26 10:40:19.390625
2456,10.4,2022-10-26 10:40:19.406250
2457,10.22,2022-10-26 10:40:19.421875
2458,10.18,2022-10-26 10:40:19.437500
2459,10.13,2022-10-26 10:40:19.453125
2460,9.9,2022-10-26 10:40:19.468750
2461,9.34,2022-10-26 10:40:19.484375
2462,8.46,2022-10-26 10:40:19.500000
2463,7.36,2022-10-26 10:40:19.515625
2464,6.22,2022-10-26 10:40:19.531250
2465,5.16,2022-10-26 10:40:19.546875
2466,4.22,2022-10-26 10:40:19.562500
2467,3.4,2022-10-26 10:40:19.578125
2468,2.67,2022-10-26 10:40:19.593750
2469,1.96,2022-10-26 10:40:19.609375
2470,1.23,2022-10-26 10:40:19.625000
2471,0.4,2022-10-26 10:40:19.640625
2472,-0.55,2022-10-26 10:40:19.656250
2473,-1.6,2022-10-26 10:40:19.671875
2474,-2.69,2022-10-26 10:40:19.687500
2475,-3.68,2022-10-26 10:40:19.703125
2476,-4.49,2022-10-26 10:40:19.718750
2477,-5.1,2022-10-26 10:40:19.734375
2478,-5.63,2022-10-26 10:40:19.750000
2479,-6.29,2022-10-26 10:40:19.765625
2480,-7.24,2022-10-26 10:40:19.781250
2481,-8.55,2022-10-26 10:40:19.796875
2482,-10.08,2022-10-26 10:40:19.812500
2483,-11.51,2022-10-26 10:40:19.828125
2484,-12.44,2022-10-26 10:40:19.843750
2485,-12.49,2022-10-26 10:40:19.859375
2486,-11.51,2022-10-26 10:40:19.875000
2487,-9.57,2022-10-26 10:40:19.890625
2488,-6.96,2022-10-26 10:40:19.906250
2489,-4.15,2022-10-26 10:40:19.921875
2490,-1.57,2022-10-26 10:40:19.937500
2491,0.5,2022-10-26 10:40:19.953125
2492,1.97,2022-10-26 10:40:19.968750
2493,2.96,2022-10-26 10:40:19.984375
2494,3.66,2022-10-26 10:40:20.000000
2495,4.26,2022-10-26 10:40:20.015625
2496,4.86,2022-10-26 10:40:20.031250
2497,5.43,2022-10-26 10:40:20.046875
2498,5.9,2022-10-26 10:40:20.062500
2499,6.18,2022-10-26 10:40:20.078125
2500,6.26,2022-10-26 10:40:20.093750
2501,6.2,2022-10-26 10:40:20.109375
2502,6.08,2022-10-26 10:40:20.125000
2503,6.02,2022-10-26 10:40:20.140625
2504,6.05,2022-10-26 10:40:20.156250
2505,6.16,2022-10-26 10:40:20.171875
2506,6.3,2022-10-26 10:40:20.187500
2507,6.42,2022-10-26 10:40:20.203125
2508,6.51,2022-10-26 10:40:20.218750
2509,6.62,2022-10-26 10:40:20.234375
2510,6.84,2022-10-26 10:40:20.250000
2511,7.2,2022-10-26 10:40:20.265625
2512,7.66,2022-10-26 10:40:20.281250
2513,8.11,2022-10-26 10:40:20.296875
2514,8.35,2022-10-26 10:40:20.312500
2515,8.24,2022-10-26 10:40:20.328125
2516,7.75,2022-10-26 10:40:20.343750
2517,6.98,2022-10-26 10:40:20.359375
2518,6.14,2022-10-26 10:40:20.375000
2519,5.42,2022-10-26 10:40:20.390625
2520,4.89,2022-10-26 10:40:20.406250
2521,4.52,2022-10-26 10:40:20.421875
2522,4.14,2022-10-26 10:40:20.437500
2523,3.63,2022-10-26 10:40:20.453125
2524,2.96,2022-10-26 10:40:20.468750
2525,2.17,2022-10-26 10:40:20.484375
2526,1.36,2022-10-26 10:40:20.500000
2527,0.56,2022-10-26 10:40:20.515625
2528,-0.24,2022-10-26 10:40:20.531250
2529,-1.1,2022-10-26 10:40:20.546875
2530,-1.99,2022-10-26 10:40:20.562500
2531,-2.84,2022-10-26 10:40:20.578125
2532,-3.49,2022-10-26 10:40:20.593750
2533,-3.87,2022-10-26 10:40:20.609375
2534,-4.03,2022-10-26 10:40:20.625000
2535,-4.18,2022-10-26 10:40:20.640625
2536,-4.58,2022-10-26 10:40:20.656250
2537,-5.39,2022-10-26 10:40:20.671875
2538,-6.61,2022-10-26 10:40:20.687500
2539,-8.06,2022-10-26 10:40:20.703125
2540,-9.51,2022-10-26 10:40:20.718750
2541,-10.73,2022-10-26 10:40:20.734375
2542,-11.58,2022-10-26 10:40:20.750000
2543,-11.95,2022-10-26 10:40:20.765625
2544,-11.76,2022-10-26 10:40:20.781250
2545,-10.95,2022-10-26 10:40:20.796875
2546,-9.54,2022-10-26 10:40:20.812500
2547,-7.64,2022-10-26 10:40:20.828125
2548,-5.48,2022-10-26 10:40:20.843750
2549,-3.33,2022-10-26 10:40:20.859375
2550,-1.44,2022-10-26 10:40:20.875000
2551,0.03,2022-10-26 10:40:20.890625
2552,1.0,2022-10-26 10:40:20.906250
2553,1.51,2022-10-26 10:40:20.921875
2554,1.65,2022-10-26 10:40:20.937500
2555,1.58,2022-10-26 10:40:20.953125
2556,1.48,2022-10-26 10:40:20.968750
2557,1.49,2022-10-26 10:40:20.984375
2558,1.65,2022-10-26 10:40:21.000000
2559,1.94,2022-10-26 10:40:21.015625
2560,2.22,2022-10-26 10:40:21.031250
2561,2.37,2022-10-26 10:40:21.046875
2562,2.35,2022-10-26 10:40:21.062500
2563,2.24,2022-10-26 10:40:21.078125
2564,2.18,2022-10-26 10:40:21.093750
2565,2.27,2022-10-26 10:40:21.109375
2566,2.52,2022-10-26 10:40:21.125000
2567,2.82,2022-10-26 10:40:21.140625
2568,3.03,2022-10-26 10:40:21.156250
2569,3.08,2022-10-26 10:40:21.171875
2570,2.98,2022-10-26 10:40:21.187500
2571,2.8,2022-10-26 10:40:21.203125
2572,2.61,2022-10-26 10:40:21.218750
2573,2.43,2022-10-26 10:40:21.234375
2574,2.19,2022-10-26 10:40:21.250000
2575,1.83,2022-10-26 10:40:21.265625
2576,1.3,2022-10-26 10:40:21.281250
2577,0.66,2022-10-26 10:40:21.296875
2578,0.01,2022-10-26 10:40:21.312500
2579,-0.56,2022-10-26 10:40:21.328125
2580,-0.99,2022-10-26 10:40:21.343750
2581,-1.3,2022-10-26 10:40:21.359375
2582,-1.52,2022-10-26 10:40:21.375000
2583,-1.67,2022-10-26 10:40:21.390625
2584,-1.75,2022-10-26 10:40:21.406250
2585,-1.77,2022-10-26 10:40:21.421875
2586,-1.73,2022-10-26 10:40:21.437500
2587,-1.68,2022-10-26 10:40:21.453125
2588,-1.65,2022-10-26 10:40:21.468750
2589,-1.69,2022-10-26 10:40:21.484375
2590,-1.8,2022-10-26 10:40:21.500000
2591,-1.96,2022-10-26 10:40:21.515625
2592,-2.16,2022-10-26 10:40:21.531250
2593,-2.41,2022-10-26 10:40:21.546875
2594,-2.76,2022-10-26 10:40:21.562500
2595,-3.25,2022-10-26 10:40:21.578125
2596,-3.95,2022-10-26 10:40:21.593750
2597,-4.86,2022-10-26 10:40:21.609375
2598,-5.9,2022-10-26 10:40:21.625000
2599,-6.88,2022-10-26 10:40:21.640625
2600,-7.52,2022-10-26 10:40:21.656250
2601,-7.53,2022-10-26 10:40:21.671875
2602,-6.75,2022-10-26 10:40:21.687500
2603,-5.2,2022-10-26 10:40:21.703125
2604,-3.14,2022-10-26 10:40:21.718750
2605,-0.93,2022-10-26 10:40:21.734375
2606,1.08,2022-10-26 10:40:21.750000
2607,2.63,2022-10-26 10:40:21.765625
2608,3.68,2022-10-26 10:40:21.781250
2609,4.29,2022-10-26 10:40:21.796875
2610,4.58,2022-10-26 10:40:21.812500
2611,4.61,2022-10-26 10:40:21.828125
2612,4.38,2022-10-26 10:40:21.843750
2613,3.92,2022-10-26 10:40:21.859375
2614,3.32,2022-10-26 10:40:21.875000
2615,2.76,2022-10-26 10:40:21.890625
2616,2.46,2022-10-26 10:40:21.906250
2617,2.52,2022-10-26 10:40:21.921875
2618,2.88,2022-10-26 10:40:21.937500
2619,3.34,2022-10-26 10:40:21.953125
2620,3.63,2022-10-26 10:40:21.968750
2621,3.6,2022-10-26 10:40:21.984375
2622,3.29,2022-10-26 10:40:22.000000
2623,2.92,2022-10-26 10:40:22.015625
2624,2.73,2022-10-26 10:40:22.031250
2625,2.86,2022-10-26 10:40:22.046875
2626,3.2,2022-10-26 10:40:22.062500
2627,3.45,2022-10-26 10:40:22.078125
2628,3.31,2022-10-26 10:40:22.093750
2629,2.61,2022-10-26 10:40:22.109375
2630,1.44,2022-10-26 10:40:22.125000
2631,0.08,2022-10-26 10:40:22.140625
2632,-1.11,2022-10-26 10:40:22.156250
2633,-1.92,2022-10-26 10:40:22.171875
2634,-2.32,2022-10-26 10:40:22.187500
2635,-2.46,2022-10-26 10:40:22.203125
2636,-2.53,2022-10-26 10:40:22.218750
2637,-2.67,2022-10-26 10:40:22.234375
2638,-2.88,2022-10-26 10:40:22.250000
2639,-3.15,2022-10-26 10:40:22.265625
2640,-3.42,2022-10-26 10:40:22.281250
2641,-3.73,2022-10-26 10:40:22.296875
2642,-4.16,2022-10-26 10:40:22.312500
2643,-4.81,2022-10-26 10:40:22.328125
2644,-5.72,2022-10-26 10:40:22.343750
2645,-6.88,2022-10-26 10:40:22.359375
2646,-8.21,2022-10-26 10:40:22.375000
2647,-9.64,2022-10-26 10:40:22.390625
2648,-11.09,2022-10-26 10:40:22.406250
2649,-12.5,2022-10-26 10:40:22.421875
2650,-13.73,2022-10-26 10:40:22.437500
2651,-14.59,2022-10-26 10:40:22.453125
2652,-14.82,2022-10-26 10:40:22.468750
2653,-14.25,2022-10-26 10:40:22.484375
2654,-12.87,2022-10-26 10:40:22.500000
2655,-10.9,2022-10-26 10:40:22.515625
2656,-8.71,2022-10-26 10:40:22.531250
2657,-6.7,2022-10-26 10:40:22.546875
2658,-5.1,2022-10-26 10:40:22.562500
2659,-3.89,2022-10-26 10:40:22.578125
2660,-2.9,2022-10-26 10:40:22.593750
2661,-1.93,2022-10-26 10:40:22.609375
2662,-0.89,2022-10-26 10:40:22.625000
2663,0.16,2022-10-26 10:40:22.640625
2664,1.02,2022-10-26 10:40:22.656250
2665,1.52,2022-10-26 10:40:22.671875
2666,1.6,2022-10-26 10:40:22.687500
2667,1.34,2022-10-26 10:40:22.703125
2668,0.94,2022-10-26 10:40:22.718750
2669,0.62,2022-10-26 10:40:22.734375
2670,0.53,2022-10-26 10:40:22.750000
2671,0.72,2022-10-26 10:40:22.765625
2672,1.12,2022-10-26 10:40:22.781250
2673,1.61,2022-10-26 10:40:22.796875
2674,2.02,2022-10-26 10:40:22.812500
2675,2.26,2022-10-26 10:40:22.828125
2676,2.33,2022-10-26 10:40:22.843750
2677,2.26,2022-10-26 10:40:22.859375
2678,2.13,2022-10-26 10:40:22.875000
2679,1.96,2022-10-26 10:40:22.890625
2680,1.7,2022-10-26 10:40:22.906250
2681,1.24,2022-10-26 10:40:22.921875
2682,0.54,2022-10-26 10:40:22.937500
2683,-0.34,2022-10-26 10:40:22.953125
2684,-1.22,2022-10-26 10:40:22.968750
2685,-1.87,2022-10-26 10:40:22.984375
2686,-2.13,2022-10-26 10:40:23.000000
2687,-1.99,2022-10-26 10:40:23.015625
2688,-1.62,2022-10-26 10:40:23.031250
2689,-1.26,2022-10-26 10:40:23.046875
2690,-1.12,2022-10-26 10:40:23.062500
2691,-1.3,2022-10-26 10:40:23.078125
2692,-1.79,2022-10-26 10:40:23.093750
2693,-2.47,2022-10-26 10:40:23.109375
2694,-3.19,2022-10-26 10:40:23.125000
2695,-3.83,2022-10-26 10:40:23.140625
2696,-4.32,2022-10-26 10:40:23.156250
2697,-4.68,2022-10-26 10:40:23.171875
2698,-5.04,2022-10-26 10:40:23.187500
2699,-5.54,2022-10-26 10:40:23.203125
2700,-6.31,2022-10-26 10:40:23.218750
2701,-7.31,2022-10-26 10:40:23.234375
2702,-8.36,2022-10-26 10:40:23.250000
2703,-9.15,2022-10-26 10:40:23.265625
2704,-9.34,2022-10-26 10:40:23.281250
2705,-8.73,2022-10-26 10:40:23.296875
2706,-7.33,2022-10-26 10:40:23.312500
2707,-5.36,2022-10-26 10:40:23.328125
2708,-3.15,2022-10-26 10:40:23.343750
2709,-1.05,2022-10-26 10:40:23.359375
2710,0.7,2022-10-26 10:40:23.375000
2711,1.98,2022-10-26 10:40:23.390625
2712,2.79,2022-10-26 10:40:23.406250
2713,3.18,2022-10-26 10:40:23.421875
2714,3.29,2022-10-26 10:40:23.437500
2715,3.21,2022-10-26 10:40:23.453125
2716,3.05,2022-10-26 10:40:23.468750
2717,2.85,2022-10-26 10:40:23.484375
2718,2.57,2022-10-26 10:40:23.500000
2719,2.17,2022-10-26 10:40:23.515625
2720,1.64,2022-10-26 10:40:23.531250
2721,0.99,2022-10-26 10:40:23.546875
2722,0.28,2022-10-26 10:40:23.562500
2723,-0.37,2022-10-26 10:40:23.578125
2724,-0.93,2022-10-26 10:40:23.593750
2725,-1.34,2022-10-26 10:40:23.609375
2726,-1.61,2022-10-26 10:40:23.625000
2727,-1.74,2022-10-26 10:40:23.640625
2728,-1.73,2022-10-26 10:40:23.656250
2729,-1.58,2022-10-26 10:40:23.671875
2730,-1.3,2022-10-26 10:40:23.687500
2731,-0.95,2022-10-26 10:40:23.703125
2732,-0.6,2022-10-26 10:40:23.718750
2733,-0.35,2022-10-26 10:40:23.734375
2734,-0.28,2022-10-26 10:40:23.750000
2735,-0.42,2022-10-26 10:40:23.765625
2736,-0.77,2022-10-26 10:40:23.781250
2737,-1.3,2022-10-26 10:40:23.796875
2738,-1.97,2022-10-26 10:40:23.812500
2739,-2.75,2022-10-26 10:40:23.828125
2740,-3.58,2022-10-26 10:40:23.843750
2741,-4.41,2022-10-26 10:40:23.859375
2742,-5.14,2022-10-26 10:40:23.875000
2743,-5.69,2022-10-26 10:40:23.890625
2744,-6.04,2022-10-26 10:40:23.906250
2745,-6.24,2022-10-26 10:40:23.921875
2746,-6.43,2022-10-26 10:40:23.937500
2747,-6.78,2022-10-26 10:40:23.953125
2748,-7.45,2022-10-26 10:40:23.968750
2749,-8.52,2022-10-26 10:40:23.984375
2750,-9.93,2022-10-26 10:40:24.000000
2751,-11.51,2022-10-26 10:40:24.015625
2752,-12.96,2022-10-26 10:40:24.031250
2753,-13.96,2022-10-26 10:40:24.046875
2754,-14.19,2022-10-26 10:40:24.062500
2755,-13.48,2022-10-26 10:40:24.078125
2756,-11.87,2022-10-26 10:40:24.093750
2757,-9.58,2022-10-26 10:40:24.109375
2758,-6.99,2022-10-26 10:40:24.125000
2759,-4.49,2022-10-26 10:40:24.140625
2760,-2.4,2022-10-26 10:40:24.156250
2761,-0.85,2022-10-26 10:40:24.171875
2762,0.21,2022-10-26 10:40:24.187500
2763,0.94,2022-10-26 10:40:24.203125
2764,1.49,2022-10-26 10:40:24.218750
2765,1.91,2022-10-26 10:40:24.234375
2766,2.22,2022-10-26 10:40:24.250000
2767,2.4,2022-10-26 10:40:24.265625
2768,2.48,2022-10-26 10:40:24.281250
2769,2.53,2022-10-26 10:40:24.296875
2770,2.64,2022-10-26 10:40:24.312500
2771,2.87,2022-10-26 10:40:24.328125
2772,3.16,2022-10-26 10:40:24.343750
2773,3.45,2022-10-26 10:40:24.359375
2774,3.64,2022-10-26 10:40:24.375000
2775,3.73,2022-10-26 10:40:24.390625
2776,3.81,2022-10-26 10:40:24.406250
2777,3.97,2022-10-26 10:40:24.421875
2778,4.29,2022-10-26 10:40:24.437500
2779,4.77,2022-10-26 10:40:24.453125
2780,5.29,2022-10-26 10:40:24.468750
2781,5.68,2022-10-26 10:40:24.484375
2782,5.82,2022-10-26 10:40:24.500000
2783,5.66,2022-10-26 10:40:24.515625
2784,5.26,2022-10-26 10:40:24.531250
2785,4.69,2022-10-26 10:40:24.546875
2786,4.04,2022-10-26 10:40:24.562500
2787,3.35,2022-10-26 10:40:24.578125
2788,2.62,2022-10-26 10:40:24.593750
2789,1.83,2022-10-26 10:40:24.609375
2790,0.98,2022-10-26 10:40:24.625000
2791,0.1,2022-10-26 10:40:24.640625
2792,-0.78,2022-10-26 10:40:24.656250
2793,-1.65,2022-10-26 10:40:24.671875
2794,-2.48,2022-10-26 10:40:24.687500
2795,-3.31,2022-10-26 10:40:24.703125
2796,-4.18,2022-10-26 10:40:24.718750
2797,-5.15,2022-10-26 10:40:24.734375
2798,-6.24,2022-10-26 10:40:24.750000
2799,-7.42,2022-10-26 10:40:24.765625
2800,-8.6,2022-10-26 10:40:24.781250
2801,-9.62,2022-10-26 10:40:24.796875
2802,-10.26,2022-10-26 10:40:24.812500
2803,-10.29,2022-10-26 10:40:24.828125
2804,-9.56,2022-10-26 10:40:24.843750
2805,-8.04,2022-10-26 10:40:24.859375
2806,-5.89,2022-10-26 10:40:24.875000
2807,-3.41,2022-10-26 10:40:24.890625
2808,-0.95,2022-10-26 10:40:24.906250
2809,1.16,2022-10-26 10:40:24.921875
2810,2.76,2022-10-26 10:40:24.937500
2811,3.81,2022-10-26 10:40:24.953125
2812,4.42,2022-10-26 10:40:24.968750
2813,4.76,2022-10-26 10:40:24.984375
2814,4.98,2022-10-26 10:40:25.000000
2815,5.18,2022-10-26 10:40:25.015625
2816,5.36,2022-10-26 10:40:25.031250
2817,5.5,2022-10-26 10:40:25.046875
2818,5.55,2022-10-26 10:40:25.062500
2819,5.5,2022-10-26 10:40:25.078125
2820,5.4,2022-10-26 10:40:25.093750
2821,5.32,2022-10-26 10:40:25.109375
2822,5.3,2022-10-26 10:40:25.125000
2823,5.34,2022-10-26 10:40:25.140625
2824,5.39,2022-10-26 10:40:25.156250
2825,5.38,2022-10-26 10:40:25.171875
2826,5.25,2022-10-26 10:40:25.187500
2827,5.01,2022-10-26 10:40:25.203125
2828,4.7,2022-10-26 10:40:25.218750
2829,4.39,2022-10-26 10:40:25.234375
2830,4.13,2022-10-26 10:40:25.250000
2831,3.89,2022-10-26 10:40:25.265625
2832,3.63,2022-10-26 10:40:25.281250
2833,3.25,2022-10-26 10:40:25.296875
2834,2.66,2022-10-26 10:40:25.312500
2835,1.82,2022-10-26 10:40:25.328125
2836,0.73,2022-10-26 10:40:25.343750
2837,-0.52,2022-10-26 10:40:25.359375
2838,-1.8,2022-10-26 10:40:25.375000
2839,-2.96,2022-10-26 10:40:25.390625
2840,-3.91,2022-10-26 10:40:25.406250
2841,-4.65,2022-10-26 10:40:25.421875
2842,-5.28,2022-10-26 10:40:25.437500
2843,-5.97,2022-10-26 10:40:25.453125
2844,-6.85,2022-10-26 10:40:25.468750
2845,-8.0,2022-10-26 10:40:25.484375
2846,-9.35,2022-10-26 10:40:25.500000
2847,-10.75,2022-10-26 10:40:25.515625
2848,-12.03,2022-10-26 10:40:25.531250
2849,-12.95,2022-10-26 10:40:25.546875
2850,-13.37,2022-10-26 10:40:25.562500
2851,-13.15,2022-10-26 10:40:25.578125
2852,-12.24,2022-10-26 10:40:25.593750
2853,-10.69,2022-10-26 10:40:25.609375
2854,-8.62,2022-10-26 10:40:25.625000
2855,-6.27,2022-10-26 10:40:25.640625
2856,-3.9,2022-10-26 10:40:25.656250
2857,-1.7,2022-10-26 10:40:25.671875
2858,0.22,2022-10-26 10:40:25.687500
2859,1.83,2022-10-26 10:40:25.703125
2860,3.11,2022-10-26 10:40:25.718750
2861,3.97,2022-10-26 10:40:25.734375
2862,4.22,2022-10-26 10:40:25.750000
2863,3.67,2022-10-26 10:40:25.765625
2864,2.24,2022-10-26 10:40:25.781250
2865,0.13,2022-10-26 10:40:25.796875
2866,-2.21,2022-10-26 10:40:25.812500
2867,-4.18,2022-10-26 10:40:25.828125
2868,-5.25,2022-10-26 10:40:25.843750
2869,-5.17,2022-10-26 10:40:25.859375
2870,-4.07,2022-10-26 10:40:25.875000
2871,-2.35,2022-10-26 10:40:25.890625
2872,-0.54,2022-10-26 10:40:25.906250
2873,0.97,2022-10-26 10:40:25.921875
2874,2.09,2022-10-26 10:40:25.937500
2875,2.96,2022-10-26 10:40:25.953125
2876,3.89,2022-10-26 10:40:25.968750
2877,5.09,2022-10-26 10:40:25.984375
2878,6.58,2022-10-26 10:40:26.000000
2879,8.12,2022-10-26 10:40:26.015625
2880,9.33,2022-10-26 10:40:26.031250
2881,9.9,2022-10-26 10:40:26.046875
2882,9.69,2022-10-26 10:40:26.062500
2883,8.87,2022-10-26 10:40:26.078125
2884,7.74,2022-10-26 10:40:26.093750
2885,6.65,2022-10-26 10:40:26.109375
2886,5.85,2022-10-26 10:40:26.125000
2887,5.39,2022-10-26 10:40:26.140625
2888,5.19,2022-10-26 10:40:26.156250
2889,5.1,2022-10-26 10:40:26.171875
2890,4.99,2022-10-26 10:40:26.187500
2891,4.77,2022-10-26 10:40:26.203125
2892,4.4,2022-10-26 10:40:26.218750
2893,3.88,2022-10-26 10:40:26.234375
2894,3.22,2022-10-26 10:40:26.250000
2895,2.43,2022-10-26 10:40:26.265625
2896,1.54,2022-10-26 10:40:26.281250
2897,0.6,2022-10-26 10:40:26.296875
2898,-0.33,2022-10-26 10:40:26.312500
2899,-1.23,2022-10-26 10:40:26.328125
2900,-2.15,2022-10-26 10:40:26.343750
2901,-3.16,2022-10-26 10:40:26.359375
2902,-4.34,2022-10-26 10:40:26.375000
2903,-5.68,2022-10-26 10:40:26.390625
2904,-7.05,2022-10-26 10:40:26.406250
2905,-8.21,2022-10-26 10:40:26.421875
2906,-8.86,2022-10-26 10:40:26.437500
2907,-8.74,2022-10-26 10:40:26.453125
2908,-7.72,2022-10-26 10:40:26.468750
2909,-5.89,2022-10-26 10:40:26.484375
2910,-3.55,2022-10-26 10:40:26.500000
2911,-1.09,2022-10-26 10:40:26.515625
2912,1.13,2022-10-26 10:40:26.531250
2913,2.9,2022-10-26 10:40:26.546875
2914,4.2,2022-10-26 10:40:26.562500
2915,5.14,2022-10-26 10:40:26.578125
2916,5.85,2022-10-26 10:40:26.593750
2917,6.41,2022-10-26 10:40:26.609375
2918,6.79,2022-10-26 10:40:26.625000
2919,6.98,2022-10-26 10:40:26.640625
2920,6.99,2022-10-26 10:40:26.656250
2921,6.95,2022-10-26 10:40:26.671875
2922,7.0,2022-10-26 10:40:26.687500
2923,7.25,2022-10-26 10:40:26.703125
2924,7.71,2022-10-26 10:40:26.718750
2925,8.25,2022-10-26 10:40:26.734375
2926,8.72,2022-10-26 10:40:26.750000
2927,8.99,2022-10-26 10:40:26.765625
2928,9.08,2022-10-26 10:40:26.781250
2929,9.04,2022-10-26 10:40:26.796875
2930,9.0,2022-10-26 10:40:26.812500
2931,9.0,2022-10-26 10:40:26.828125
2932,9.04,2022-10-26 10:40:26.843750
2933,9.1,2022-10-26 10:40:26.859375
2934,9.13,2022-10-26 10:40:26.875000
2935,9.13,2022-10-26 10:40:26.890625
2936,9.07,2022-10-26 10:40:26.906250
2937,8.94,2022-10-26 10:40:26.921875
2938,8.65,2022-10-26 10:40:26.937500
2939,8.12,2022-10-26 10:40:26.953125
2940,7.31,2022-10-26 10:40:26.968750
2941,6.22,2022-10-26 10:40:26.984375
2942,4.97,2022-10-26 10:40:27.000000
2943,3.69,2022-10-26 10:40:27.015625
2944,2.52,2022-10-26 10:40:27.031250
2945,1.53,2022-10-26 10:40:27.046875
2946,0.71,2022-10-26 10:40:27.062500
2947,-0.01,2022-10-26 10:40:27.078125
2948,-0.73,2022-10-26 10:40:27.093750
2949,-1.48,2022-10-26 10:40:27.109375
2950,-2.22,2022-10-26 10:40:27.125000
2951,-2.87,2022-10-26 10:40:27.140625
2952,-3.38,2022-10-26 10:40:27.156250
2953,-3.81,2022-10-26 10:40:27.171875
2954,-4.25,2022-10-26 10:40:27.187500
2955,-4.85,2022-10-26 10:40:27.203125
2956,-5.68,2022-10-26 10:40:27.218750
2957,-6.71,2022-10-26 10:40:27.234375
2958,-7.84,2022-10-26 10:40:27.250000
2959,-8.96,2022-10-26 10:40:27.265625
2960,-9.96,2022-10-26 10:40:27.281250
2961,-10.76,2022-10-26 10:40:27.296875
2962,-11.32,2022-10-26 10:40:27.312500
2963,-11.48,2022-10-26 10:40:27.328125
2964,-11.09,2022-10-26 10:40:27.343750
2965,-10.0,2022-10-26 10:40:27.359375
2966,-8.23,2022-10-26 10:40:27.375000
2967,-5.92,2022-10-26 10:40:27.390625
2968,-3.37,2022-10-26 10:40:27.406250
2969,-0.91,2022-10-26 10:40:27.421875
2970,1.22,2022-10-26 10:40:27.437500
2971,2.91,2022-10-26 10:40:27.453125
2972,4.17,2022-10-26 10:40:27.468750
2973,5.08,2022-10-26 10:40:27.484375
2974,5.75,2022-10-26 10:40:27.500000
2975,6.29,2022-10-26 10:40:27.515625
2976,6.77,2022-10-26 10:40:27.531250
2977,7.25,2022-10-26 10:40:27.546875
2978,7.72,2022-10-26 10:40:27.562500
2979,8.15,2022-10-26 10:40:27.578125
2980,8.48,2022-10-26 10:40:27.593750
2981,8.66,2022-10-26 10:40:27.609375
2982,8.71,2022-10-26 10:40:27.625000
2983,8.72,2022-10-26 10:40:27.640625
2984,8.79,2022-10-26 10:40:27.656250
2985,8.98,2022-10-26 10:40:27.671875
2986,9.26,2022-10-26 10:40:27.687500
2987,9.52,2022-10-26 10:40:27.703125
2988,9.69,2022-10-26 10:40:27.718750
2989,9.7,2022-10-26 10:40:27.734375
2990,9.57,2022-10-26 10:40:27.750000
2991,9.3,2022-10-26 10:40:27.765625
2992,8.92,2022-10-26 10:40:27.781250
2993,8.43,2022-10-26 10:40:27.796875
2994,7.82,2022-10-26 10:40:27.812500
2995,7.13,2022-10-26 10:40:27.828125
2996,6.43,2022-10-26 10:40:27.843750
2997,5.81,2022-10-26 10:40:27.859375
2998,5.28,2022-10-26 10:40:27.875000
2999,4.81,2022-10-26 10:40:27.890625
3000,4.31,2022-10-26 10:40:27.906250
3001,3.7,2022-10-26 10:40:27.921875
3002,2.95,2022-10-26 10:40:27.937500
3003,2.12,2022-10-26 10:40:27.953125
3004,1.33,2022-10-26 10:40:27.968750
3005,0.71,2022-10-26 10:40:27.984375
3006,0.32,2022-10-26 10:40:28.000000
3007,0.12,2022-10-26 10:40:28.015625
3008,-0.02,2022-10-26 10:40:28.031250
3009,-0.25,2022-10-26 10:40:28.046875
3010,-0.71,2022-10-26 10:40:28.062500
3011,-1.41,2022-10-26 10:40:28.078125
3012,-2.28,2022-10-26 10:40:28.093750
3013,-3.15,2022-10-26 10:40:28.109375
3014,-3.88,2022-10-26 10:40:28.125000
3015,-4.4,2022-10-26 10:40:28.140625
3016,-4.73,2022-10-26 10:40:28.156250
3017,-4.98,2022-10-26 10:40:28.171875
3018,-5.31,2022-10-26 10:40:28.187500
3019,-5.86,2022-10-26 10:40:28.203125
3020,-6.75,2022-10-26 10:40:28.218750
3021,-8.0,2022-10-26 10:40:28.234375
3022,-9.53,2022-10-26 10:40:28.250000
3023,-11.09,2022-10-26 10:40:28.265625
3024,-12.3,2022-10-26 10:40:28.281250
3025,-12.8,2022-10-26 10:40:28.296875
3026,-12.34,2022-10-26 10:40:28.312500
3027,-10.9,2022-10-26 10:40:28.328125
3028,-8.72,2022-10-26 10:40:28.343750
3029,-6.19,2022-10-26 10:40:28.359375
3030,-3.69,2022-10-26 10:40:28.375000
3031,-1.5,2022-10-26 10:40:28.390625
3032,0.27,2022-10-26 10:40:28.406250
3033,1.63,2022-10-26 10:40:28.421875
3034,2.62,2022-10-26 10:40:28.437500
3035,3.3,2022-10-26 10:40:28.453125
3036,3.71,2022-10-26 10:40:28.468750
3037,3.93,2022-10-26 10:40:28.484375
3038,4.05,2022-10-26 10:40:28.500000
3039,4.2,2022-10-26 10:40:28.515625
3040,4.45,2022-10-26 10:40:28.531250
3041,4.82,2022-10-26 10:40:28.546875
3042,5.24,2022-10-26 10:40:28.562500
3043,5.61,2022-10-26 10:40:28.578125
3044,5.86,2022-10-26 10:40:28.593750
3045,5.96,2022-10-26 10:40:28.609375
3046,5.93,2022-10-26 10:40:28.625000
3047,5.82,2022-10-26 10:40:28.640625
3048,5.64,2022-10-26 10:40:28.656250
3049,5.43,2022-10-26 10:40:28.671875
3050,5.18,2022-10-26 10:40:28.687500
3051,4.93,2022-10-26 10:40:28.703125
3052,4.75,2022-10-26 10:40:28.718750
3053,4.74,2022-10-26 10:40:28.734375
3054,4.93,2022-10-26 10:40:28.750000
3055,5.27,2022-10-26 10:40:28.765625
3056,5.65,2022-10-26 10:40:28.781250
3057,5.89,2022-10-26 10:40:28.796875
3058,5.85,2022-10-26 10:40:28.812500
3059,5.51,2022-10-26 10:40:28.828125
3060,4.94,2022-10-26 10:40:28.843750
3061,4.26,2022-10-26 10:40:28.859375
3062,3.61,2022-10-26 10:40:28.875000
3063,3.05,2022-10-26 10:40:28.890625
3064,2.58,2022-10-26 10:40:28.906250
3065,2.17,2022-10-26 10:40:28.921875
3066,1.8,2022-10-26 10:40:28.937500
3067,1.45,2022-10-26 10:40:28.953125
3068,1.16,2022-10-26 10:40:28.968750
3069,0.92,2022-10-26 10:40:28.984375
3070,0.73,2022-10-26 10:40:29.000000
3071,0.54,2022-10-26 10:40:29.015625
3072,0.27,2022-10-26 10:40:29.031250
3073,-0.14,2022-10-26 10:40:29.046875
3074,-0.71,2022-10-26 10:40:29.062500
3075,-1.44,2022-10-26 10:40:29.078125
3076,-2.23,2022-10-26 10:40:29.093750
3077,-3.01,2022-10-26 10:40:29.109375
3078,-3.71,2022-10-26 10:40:29.125000
3079,-4.32,2022-10-26 10:40:29.140625
3080,-4.88,2022-10-26 10:40:29.156250
3081,-5.48,2022-10-26 10:40:29.171875
3082,-6.23,2022-10-26 10:40:29.187500
3083,-7.2,2022-10-26 10:40:29.203125
3084,-8.4,2022-10-26 10:40:29.218750
3085,-9.72,2022-10-26 10:40:29.234375
3086,-10.94,2022-10-26 10:40:29.250000
3087,-11.75,2022-10-26 10:40:29.265625
3088,-11.83,2022-10-26 10:40:29.281250
3089,-10.98,2022-10-26 10:40:29.296875
3090,-9.22,2022-10-26 10:40:29.312500
3091,-6.78,2022-10-26 10:40:29.328125
3092,-4.11,2022-10-26 10:40:29.343750
3093,-1.63,2022-10-26 10:40:29.359375
3094,0.35,2022-10-26 10:40:29.375000
3095,1.73,2022-10-26 10:40:29.390625
3096,2.61,2022-10-26 10:40:29.406250
3097,3.19,2022-10-26 10:40:29.421875
3098,3.64,2022-10-26 10:40:29.437500
3099,4.01,2022-10-26 10:40:29.453125
3100,4.27,2022-10-26 10:40:29.468750
3101,4.35,2022-10-26 10:40:29.484375
3102,4.25,2022-10-26 10:40:29.500000
3103,4.04,2022-10-26 10:40:29.515625
3104,3.86,2022-10-26 10:40:29.531250
3105,3.82,2022-10-26 10:40:29.546875
3106,3.95,2022-10-26 10:40:29.562500
3107,4.14,2022-10-26 10:40:29.578125
3108,4.27,2022-10-26 10:40:29.593750
3109,4.21,2022-10-26 10:40:29.609375
3110,4.02,2022-10-26 10:40:29.625000
3111,3.84,2022-10-26 10:40:29.640625
3112,3.88,2022-10-26 10:40:29.656250
3113,4.26,2022-10-26 10:40:29.671875
3114,4.93,2022-10-26 10:40:29.687500
3115,5.69,2022-10-26 10:40:29.703125
3116,6.28,2022-10-26 10:40:29.718750
3117,6.5,2022-10-26 10:40:29.734375
3118,6.3,2022-10-26 10:40:29.750000
3119,5.8,2022-10-26 10:40:29.765625
3120,5.17,2022-10-26 10:40:29.781250
3121,4.55,2022-10-26 10:40:29.796875
3122,4.02,2022-10-26 10:40:29.812500
3123,3.58,2022-10-26 10:40:29.828125
3124,3.23,2022-10-26 10:40:29.843750
3125,2.94,2022-10-26 10:40:29.859375
3126,2.72,2022-10-26 10:40:29.875000
3127,2.56,2022-10-26 10:40:29.890625
3128,2.39,2022-10-26 10:40:29.906250
3129,2.15,2022-10-26 10:40:29.921875
3130,1.75,2022-10-26 10:40:29.937500
3131,1.16,2022-10-26 10:40:29.953125
3132,0.43,2022-10-26 10:40:29.968750
3133,-0.31,2022-10-26 10:40:29.984375
3134,-0.95,2022-10-26 10:40:30.000000
3135,-1.41,2022-10-26 10:40:30.015625
3136,-1.7,2022-10-26 10:40:30.031250
3137,-1.88,2022-10-26 10:40:30.046875
3138,-2.04,2022-10-26 10:40:30.062500
3139,-2.27,2022-10-26 10:40:30.078125
3140,-2.62,2022-10-26 10:40:30.093750
3141,-3.15,2022-10-26 10:40:30.109375
3142,-3.89,2022-10-26 10:40:30.125000
3143,-4.88,2022-10-26 10:40:30.140625
3144,-6.12,2022-10-26 10:40:30.156250
3145,-7.51,2022-10-26 10:40:30.171875
3146,-8.84,2022-10-26 10:40:30.187500
3147,-9.82,2022-10-26 10:40:30.203125
3148,-10.13,2022-10-26 10:40:30.218750
3149,-9.64,2022-10-26 10:40:30.234375
3150,-8.39,2022-10-26 10:40:30.250000
3151,-6.67,2022-10-26 10:40:30.265625
3152,-4.84,2022-10-26 10:40:30.281250
3153,-3.21,2022-10-26 10:40:30.296875
3154,-1.88,2022-10-26 10:40:30.312500
3155,-0.79,2022-10-26 10:40:30.328125
3156,0.23,2022-10-26 10:40:30.343750
3157,1.28,2022-10-26 10:40:30.359375
3158,2.3,2022-10-26 10:40:30.375000
3159,3.15,2022-10-26 10:40:30.390625
3160,3.64,2022-10-26 10:40:30.406250
3161,3.69,2022-10-26 10:40:30.421875
3162,3.4,2022-10-26 10:40:30.437500
3163,2.91,2022-10-26 10:40:30.453125
3164,2.41,2022-10-26 10:40:30.468750
3165,1.97,2022-10-26 10:40:30.484375
3166,1.62,2022-10-26 10:40:30.500000
3167,1.31,2022-10-26 10:40:30.515625
3168,1.09,2022-10-26 10:40:30.531250
3169,1.0,2022-10-26 10:40:30.546875
3170,1.12,2022-10-26 10:40:30.562500
3171,1.51,2022-10-26 10:40:30.578125
3172,2.12,2022-10-26 10:40:30.593750
3173,2.83,2022-10-26 10:40:30.609375
3174,3.49,2022-10-26 10:40:30.625000
3175,3.98,2022-10-26 10:40:30.640625
