,BVP,time
0,-50.51,2022-08-17 14:17:05.171875
1,-53.42,2022-08-17 14:17:05.187500
2,-54.57,2022-08-17 14:17:05.203125
3,-52.67,2022-08-17 14:17:05.218750
4,-46.95,2022-08-17 14:17:05.234375
5,-37.39,2022-08-17 14:17:05.250000
6,-24.78,2022-08-17 14:17:05.265625
7,-10.44,2022-08-17 14:17:05.281250
8,4.15,2022-08-17 14:17:05.296875
9,17.75,2022-08-17 14:17:05.312500
10,29.53,2022-08-17 14:17:05.328125
11,39.1,2022-08-17 14:17:05.343750
12,46.37,2022-08-17 14:17:05.359375
13,51.31,2022-08-17 14:17:05.375000
14,53.89,2022-08-17 14:17:05.390625
15,54.1,2022-08-17 14:17:05.406250
16,52.09,2022-08-17 14:17:05.421875
17,48.26,2022-08-17 14:17:05.437500
18,43.31,2022-08-17 14:17:05.453125
19,38.08,2022-08-17 14:17:05.468750
20,33.38,2022-08-17 14:17:05.484375
21,29.79,2022-08-17 14:17:05.500000
22,27.48,2022-08-17 14:17:05.515625
23,26.26,2022-08-17 14:17:05.531250
24,25.7,2022-08-17 14:17:05.546875
25,25.34,2022-08-17 14:17:05.562500
26,24.85,2022-08-17 14:17:05.578125
27,24.13,2022-08-17 14:17:05.593750
28,23.24,2022-08-17 14:17:05.609375
29,22.27,2022-08-17 14:17:05.625000
30,21.21,2022-08-17 14:17:05.640625
31,19.86,2022-08-17 14:17:05.656250
32,17.98,2022-08-17 14:17:05.671875
33,15.29,2022-08-17 14:17:05.687500
34,11.72,2022-08-17 14:17:05.703125
35,7.38,2022-08-17 14:17:05.718750
36,2.6,2022-08-17 14:17:05.734375
37,-2.23,2022-08-17 14:17:05.750000
38,-6.78,2022-08-17 14:17:05.765625
39,-10.89,2022-08-17 14:17:05.781250
40,-14.57,2022-08-17 14:17:05.796875
41,-18.0,2022-08-17 14:17:05.812500
42,-21.41,2022-08-17 14:17:05.828125
43,-25.07,2022-08-17 14:17:05.843750
44,-29.21,2022-08-17 14:17:05.859375
45,-33.96,2022-08-17 14:17:05.875000
46,-39.23,2022-08-17 14:17:05.890625
47,-44.58,2022-08-17 14:17:05.906250
48,-49.15,2022-08-17 14:17:05.921875
49,-51.79,2022-08-17 14:17:05.937500
50,-51.32,2022-08-17 14:17:05.953125
51,-46.95,2022-08-17 14:17:05.968750
52,-38.66,2022-08-17 14:17:05.984375
53,-27.28,2022-08-17 14:17:06.000000
54,-14.35,2022-08-17 14:17:06.015625
55,-1.56,2022-08-17 14:17:06.031250
56,9.72,2022-08-17 14:17:06.046875
57,18.74,2022-08-17 14:17:06.062500
58,25.3,2022-08-17 14:17:06.078125
59,29.6,2022-08-17 14:17:06.093750
60,31.87,2022-08-17 14:17:06.109375
61,32.22,2022-08-17 14:17:06.125000
62,30.64,2022-08-17 14:17:06.140625
63,27.19,2022-08-17 14:17:06.156250
64,22.3,2022-08-17 14:17:06.171875
65,16.69,2022-08-17 14:17:06.187500
66,11.22,2022-08-17 14:17:06.203125
67,6.6,2022-08-17 14:17:06.218750
68,3.17,2022-08-17 14:17:06.234375
69,0.92,2022-08-17 14:17:06.250000
70,-0.51,2022-08-17 14:17:06.265625
71,-1.64,2022-08-17 14:17:06.281250
72,-3.04,2022-08-17 14:17:06.296875
73,-4.96,2022-08-17 14:17:06.312500
74,-7.37,2022-08-17 14:17:06.328125
75,-10.03,2022-08-17 14:17:06.343750
76,-12.66,2022-08-17 14:17:06.359375
77,-15.02,2022-08-17 14:17:06.375000
78,-17.12,2022-08-17 14:17:06.390625
79,-19.3,2022-08-17 14:17:06.406250
80,-22.12,2022-08-17 14:17:06.421875
81,-25.97,2022-08-17 14:17:06.437500
82,-30.52,2022-08-17 14:17:06.453125
83,-34.61,2022-08-17 14:17:06.468750
84,-36.59,2022-08-17 14:17:06.484375
85,-34.98,2022-08-17 14:17:06.500000
86,-28.87,2022-08-17 14:17:06.515625
87,-18.27,2022-08-17 14:17:06.531250
88,-4.13,2022-08-17 14:17:06.546875
89,12.01,2022-08-17 14:17:06.562500
90,28.33,2022-08-17 14:17:06.578125
91,43.16,2022-08-17 14:17:06.593750
92,54.82,2022-08-17 14:17:06.609375
93,61.51,2022-08-17 14:17:06.625000
94,61.01,2022-08-17 14:17:06.640625
95,51.92,2022-08-17 14:17:06.656250
96,35.33,2022-08-17 14:17:06.671875
97,15.43,2022-08-17 14:17:06.687500
98,-2.09,2022-08-17 14:17:06.703125
99,-13.95,2022-08-17 14:17:06.718750
100,-20.08,2022-08-17 14:17:06.734375
101,-22.34,2022-08-17 14:17:06.750000
102,-22.85,2022-08-17 14:17:06.765625
103,-22.88,2022-08-17 14:17:06.781250
104,-21.63,2022-08-17 14:17:06.796875
105,-17.74,2022-08-17 14:17:06.812500
106,-10.3,2022-08-17 14:17:06.828125
107,0.31,2022-08-17 14:17:06.843750
108,12.41,2022-08-17 14:17:06.859375
109,24.33,2022-08-17 14:17:06.875000
110,34.67,2022-08-17 14:17:06.890625
111,43.37,2022-08-17 14:17:06.906250
112,51.14,2022-08-17 14:17:06.921875
113,58.5,2022-08-17 14:17:06.937500
114,65.6,2022-08-17 14:17:06.953125
115,70.7,2022-08-17 14:17:06.968750
116,71.52,2022-08-17 14:17:06.984375
117,66.82,2022-08-17 14:17:07.000000
118,57.32,2022-08-17 14:17:07.015625
119,44.65,2022-08-17 14:17:07.031250
120,31.54,2022-08-17 14:17:07.046875
121,20.24,2022-08-17 14:17:07.062500
122,11.79,2022-08-17 14:17:07.078125
123,6.07,2022-08-17 14:17:07.093750
124,2.25,2022-08-17 14:17:07.109375
125,-0.57,2022-08-17 14:17:07.125000
126,-2.98,2022-08-17 14:17:07.140625
127,-5.07,2022-08-17 14:17:07.156250
128,-6.63,2022-08-17 14:17:07.171875
129,-7.29,2022-08-17 14:17:07.187500
130,-6.99,2022-08-17 14:17:07.203125
131,-5.98,2022-08-17 14:17:07.218750
132,-4.83,2022-08-17 14:17:07.234375
133,-4.38,2022-08-17 14:17:07.250000
134,-5.26,2022-08-17 14:17:07.265625
135,-7.83,2022-08-17 14:17:07.281250
136,-11.9,2022-08-17 14:17:07.296875
137,-16.93,2022-08-17 14:17:07.312500
138,-22.1,2022-08-17 14:17:07.328125
139,-26.75,2022-08-17 14:17:07.343750
140,-30.54,2022-08-17 14:17:07.359375
141,-33.54,2022-08-17 14:17:07.375000
142,-36.14,2022-08-17 14:17:07.390625
143,-38.78,2022-08-17 14:17:07.406250
144,-41.85,2022-08-17 14:17:07.421875
145,-45.58,2022-08-17 14:17:07.437500
146,-50.02,2022-08-17 14:17:07.453125
147,-54.81,2022-08-17 14:17:07.468750
148,-59.25,2022-08-17 14:17:07.484375
149,-62.24,2022-08-17 14:17:07.500000
150,-62.58,2022-08-17 14:17:07.515625
151,-59.3,2022-08-17 14:17:07.531250
152,-52.07,2022-08-17 14:17:07.546875
153,-41.39,2022-08-17 14:17:07.562500
154,-28.52,2022-08-17 14:17:07.578125
155,-15.06,2022-08-17 14:17:07.593750
156,-2.52,2022-08-17 14:17:07.609375
157,8.08,2022-08-17 14:17:07.625000
158,16.28,2022-08-17 14:17:07.640625
159,21.96,2022-08-17 14:17:07.656250
160,25.2,2022-08-17 14:17:07.671875
161,26.14,2022-08-17 14:17:07.687500
162,25.0,2022-08-17 14:17:07.703125
163,22.2,2022-08-17 14:17:07.718750
164,18.5,2022-08-17 14:17:07.734375
165,14.76,2022-08-17 14:17:07.750000
166,11.81,2022-08-17 14:17:07.765625
167,10.14,2022-08-17 14:17:07.781250
168,9.73,2022-08-17 14:17:07.796875
169,10.14,2022-08-17 14:17:07.812500
170,10.6,2022-08-17 14:17:07.828125
171,10.39,2022-08-17 14:17:07.843750
172,9.1,2022-08-17 14:17:07.859375
173,6.79,2022-08-17 14:17:07.875000
174,3.94,2022-08-17 14:17:07.890625
175,1.31,2022-08-17 14:17:07.906250
176,-0.37,2022-08-17 14:17:07.921875
177,-0.67,2022-08-17 14:17:07.937500
178,0.31,2022-08-17 14:17:07.953125
179,1.89,2022-08-17 14:17:07.968750
180,2.87,2022-08-17 14:17:07.984375
181,1.86,2022-08-17 14:17:08.000000
182,-2.35,2022-08-17 14:17:08.015625
183,-10.39,2022-08-17 14:17:08.031250
184,-21.99,2022-08-17 14:17:08.046875
185,-35.94,2022-08-17 14:17:08.062500
186,-50.38,2022-08-17 14:17:08.078125
187,-63.31,2022-08-17 14:17:08.093750
188,-73.15,2022-08-17 14:17:08.109375
189,-79.14,2022-08-17 14:17:08.125000
190,-81.33,2022-08-17 14:17:08.140625
191,-80.45,2022-08-17 14:17:08.156250
192,-77.57,2022-08-17 14:17:08.171875
193,-73.83,2022-08-17 14:17:08.187500
194,-70.26,2022-08-17 14:17:08.203125
195,-67.65,2022-08-17 14:17:08.218750
196,-66.36,2022-08-17 14:17:08.234375
197,-66.23,2022-08-17 14:17:08.250000
198,-66.47,2022-08-17 14:17:08.265625
199,-65.84,2022-08-17 14:17:08.281250
200,-62.97,2022-08-17 14:17:08.296875
201,-56.82,2022-08-17 14:17:08.312500
202,-47.07,2022-08-17 14:17:08.328125
203,-34.17,2022-08-17 14:17:08.343750
204,-19.18,2022-08-17 14:17:08.359375
205,-3.41,2022-08-17 14:17:08.375000
206,11.98,2022-08-17 14:17:08.390625
207,26.13,2022-08-17 14:17:08.406250
208,38.49,2022-08-17 14:17:08.421875
209,48.8,2022-08-17 14:17:08.437500
210,56.92,2022-08-17 14:17:08.453125
211,62.83,2022-08-17 14:17:08.468750
212,66.59,2022-08-17 14:17:08.484375
213,68.42,2022-08-17 14:17:08.500000
214,68.7,2022-08-17 14:17:08.515625
215,68.01,2022-08-17 14:17:08.531250
216,66.99,2022-08-17 14:17:08.546875
217,66.2,2022-08-17 14:17:08.562500
218,65.91,2022-08-17 14:17:08.578125
219,66.03,2022-08-17 14:17:08.593750
220,66.07,2022-08-17 14:17:08.609375
221,65.4,2022-08-17 14:17:08.625000
222,63.51,2022-08-17 14:17:08.640625
223,60.26,2022-08-17 14:17:08.656250
224,55.92,2022-08-17 14:17:08.671875
225,51.03,2022-08-17 14:17:08.687500
226,46.15,2022-08-17 14:17:08.703125
227,41.58,2022-08-17 14:17:08.718750
228,37.32,2022-08-17 14:17:08.734375
229,33.11,2022-08-17 14:17:08.750000
230,28.62,2022-08-17 14:17:08.765625
231,23.69,2022-08-17 14:17:08.781250
232,18.37,2022-08-17 14:17:08.796875
233,12.84,2022-08-17 14:17:08.812500
234,7.33,2022-08-17 14:17:08.828125
235,1.96,2022-08-17 14:17:08.843750
236,-3.26,2022-08-17 14:17:08.859375
237,-8.37,2022-08-17 14:17:08.875000
238,-13.43,2022-08-17 14:17:08.890625
239,-18.46,2022-08-17 14:17:08.906250
240,-23.45,2022-08-17 14:17:08.921875
241,-28.4,2022-08-17 14:17:08.937500
242,-33.41,2022-08-17 14:17:08.953125
243,-38.6,2022-08-17 14:17:08.968750
244,-44.05,2022-08-17 14:17:08.984375
245,-49.6,2022-08-17 14:17:09.000000
246,-54.73,2022-08-17 14:17:09.015625
247,-58.55,2022-08-17 14:17:09.031250
248,-60.0,2022-08-17 14:17:09.046875
249,-58.15,2022-08-17 14:17:09.062500
250,-52.53,2022-08-17 14:17:09.078125
251,-43.35,2022-08-17 14:17:09.093750
252,-31.55,2022-08-17 14:17:09.109375
253,-18.53,2022-08-17 14:17:09.125000
254,-5.78,2022-08-17 14:17:09.140625
255,5.47,2022-08-17 14:17:09.156250
256,14.55,2022-08-17 14:17:09.171875
257,21.35,2022-08-17 14:17:09.187500
258,26.27,2022-08-17 14:17:09.203125
259,29.95,2022-08-17 14:17:09.218750
260,33.06,2022-08-17 14:17:09.234375
261,36.1,2022-08-17 14:17:09.250000
262,39.29,2022-08-17 14:17:09.265625
263,42.51,2022-08-17 14:17:09.281250
264,45.43,2022-08-17 14:17:09.296875
265,47.73,2022-08-17 14:17:09.312500
266,49.18,2022-08-17 14:17:09.328125
267,49.8,2022-08-17 14:17:09.343750
268,49.8,2022-08-17 14:17:09.359375
269,49.52,2022-08-17 14:17:09.375000
270,49.25,2022-08-17 14:17:09.390625
271,49.12,2022-08-17 14:17:09.406250
272,49.03,2022-08-17 14:17:09.421875
273,48.72,2022-08-17 14:17:09.437500
274,47.77,2022-08-17 14:17:09.453125
275,45.82,2022-08-17 14:17:09.468750
276,42.61,2022-08-17 14:17:09.484375
277,38.11,2022-08-17 14:17:09.500000
278,32.53,2022-08-17 14:17:09.515625
279,26.3,2022-08-17 14:17:09.531250
280,19.96,2022-08-17 14:17:09.546875
281,13.98,2022-08-17 14:17:09.562500
282,8.64,2022-08-17 14:17:09.578125
283,3.96,2022-08-17 14:17:09.593750
284,-0.17,2022-08-17 14:17:09.609375
285,-3.91,2022-08-17 14:17:09.625000
286,-7.33,2022-08-17 14:17:09.640625
287,-10.41,2022-08-17 14:17:09.656250
288,-13.08,2022-08-17 14:17:09.671875
289,-15.39,2022-08-17 14:17:09.687500
290,-17.55,2022-08-17 14:17:09.703125
291,-19.92,2022-08-17 14:17:09.718750
292,-22.88,2022-08-17 14:17:09.734375
293,-26.73,2022-08-17 14:17:09.750000
294,-31.41,2022-08-17 14:17:09.765625
295,-36.48,2022-08-17 14:17:09.781250
296,-41.12,2022-08-17 14:17:09.796875
297,-44.24,2022-08-17 14:17:09.812500
298,-44.88,2022-08-17 14:17:09.828125
299,-42.49,2022-08-17 14:17:09.843750
300,-37.17,2022-08-17 14:17:09.859375
301,-29.68,2022-08-17 14:17:09.875000
302,-21.19,2022-08-17 14:17:09.890625
303,-12.85,2022-08-17 14:17:09.906250
304,-5.5,2022-08-17 14:17:09.921875
305,0.52,2022-08-17 14:17:09.937500
306,5.25,2022-08-17 14:17:09.953125
307,8.81,2022-08-17 14:17:09.968750
308,11.23,2022-08-17 14:17:09.984375
309,12.32,2022-08-17 14:17:10.000000
310,11.85,2022-08-17 14:17:10.015625
311,9.76,2022-08-17 14:17:10.031250
312,6.24,2022-08-17 14:17:10.046875
313,1.8,2022-08-17 14:17:10.062500
314,-2.89,2022-08-17 14:17:10.078125
315,-7.12,2022-08-17 14:17:10.093750
316,-10.23,2022-08-17 14:17:10.109375
317,-11.67,2022-08-17 14:17:10.125000
318,-11.03,2022-08-17 14:17:10.140625
319,-8.08,2022-08-17 14:17:10.156250
320,-2.85,2022-08-17 14:17:10.171875
321,4.35,2022-08-17 14:17:10.187500
322,12.96,2022-08-17 14:17:10.203125
323,22.23,2022-08-17 14:17:10.218750
324,31.4,2022-08-17 14:17:10.234375
325,39.77,2022-08-17 14:17:10.250000
326,46.83,2022-08-17 14:17:10.265625
327,52.28,2022-08-17 14:17:10.281250
328,55.91,2022-08-17 14:17:10.296875
329,57.59,2022-08-17 14:17:10.312500
330,57.2,2022-08-17 14:17:10.328125
331,54.75,2022-08-17 14:17:10.343750
332,50.53,2022-08-17 14:17:10.359375
333,45.15,2022-08-17 14:17:10.375000
334,39.5,2022-08-17 14:17:10.390625
335,34.43,2022-08-17 14:17:10.406250
336,30.45,2022-08-17 14:17:10.421875
337,27.46,2022-08-17 14:17:10.437500
338,24.87,2022-08-17 14:17:10.453125
339,21.97,2022-08-17 14:17:10.468750
340,18.29,2022-08-17 14:17:10.484375
341,13.72,2022-08-17 14:17:10.500000
342,8.43,2022-08-17 14:17:10.515625
343,2.52,2022-08-17 14:17:10.531250
344,-4.09,2022-08-17 14:17:10.546875
345,-11.54,2022-08-17 14:17:10.562500
346,-19.64,2022-08-17 14:17:10.578125
347,-27.56,2022-08-17 14:17:10.593750
348,-33.8,2022-08-17 14:17:10.609375
349,-36.7,2022-08-17 14:17:10.625000
350,-35.06,2022-08-17 14:17:10.640625
351,-28.71,2022-08-17 14:17:10.656250
352,-18.6,2022-08-17 14:17:10.671875
353,-6.5,2022-08-17 14:17:10.687500
354,5.61,2022-08-17 14:17:10.703125
355,16.0,2022-08-17 14:17:10.718750
356,23.56,2022-08-17 14:17:10.734375
357,27.84,2022-08-17 14:17:10.750000
358,28.83,2022-08-17 14:17:10.765625
359,26.93,2022-08-17 14:17:10.781250
360,22.82,2022-08-17 14:17:10.796875
361,17.29,2022-08-17 14:17:10.812500
362,11.26,2022-08-17 14:17:10.828125
363,5.53,2022-08-17 14:17:10.843750
364,0.66,2022-08-17 14:17:10.859375
365,-3.14,2022-08-17 14:17:10.875000
366,-5.98,2022-08-17 14:17:10.890625
367,-8.24,2022-08-17 14:17:10.906250
368,-10.33,2022-08-17 14:17:10.921875
369,-12.47,2022-08-17 14:17:10.937500
370,-14.64,2022-08-17 14:17:10.953125
371,-16.49,2022-08-17 14:17:10.968750
372,-17.6,2022-08-17 14:17:10.984375
373,-17.6,2022-08-17 14:17:11.000000
374,-16.39,2022-08-17 14:17:11.015625
375,-14.11,2022-08-17 14:17:11.031250
376,-11.08,2022-08-17 14:17:11.046875
377,-7.69,2022-08-17 14:17:11.062500
378,-4.25,2022-08-17 14:17:11.078125
379,-0.99,2022-08-17 14:17:11.093750
380,1.82,2022-08-17 14:17:11.109375
381,3.9,2022-08-17 14:17:11.125000
382,4.89,2022-08-17 14:17:11.140625
383,4.48,2022-08-17 14:17:11.156250
384,2.54,2022-08-17 14:17:11.171875
385,-0.75,2022-08-17 14:17:11.187500
386,-4.9,2022-08-17 14:17:11.203125
387,-9.19,2022-08-17 14:17:11.218750
388,-12.92,2022-08-17 14:17:11.234375
389,-15.59,2022-08-17 14:17:11.250000
390,-17.08,2022-08-17 14:17:11.265625
391,-17.66,2022-08-17 14:17:11.281250
392,-17.86,2022-08-17 14:17:11.296875
393,-18.25,2022-08-17 14:17:11.312500
394,-19.2,2022-08-17 14:17:11.328125
395,-20.62,2022-08-17 14:17:11.343750
396,-22.02,2022-08-17 14:17:11.359375
397,-22.65,2022-08-17 14:17:11.375000
398,-21.72,2022-08-17 14:17:11.390625
399,-18.73,2022-08-17 14:17:11.406250
400,-13.68,2022-08-17 14:17:11.421875
401,-7.09,2022-08-17 14:17:11.437500
402,0.12,2022-08-17 14:17:11.453125
403,6.88,2022-08-17 14:17:11.468750
404,12.24,2022-08-17 14:17:11.484375
405,15.56,2022-08-17 14:17:11.500000
406,16.64,2022-08-17 14:17:11.515625
407,15.65,2022-08-17 14:17:11.531250
408,13.04,2022-08-17 14:17:11.546875
409,9.38,2022-08-17 14:17:11.562500
410,5.21,2022-08-17 14:17:11.578125
411,1.02,2022-08-17 14:17:11.593750
412,-2.81,2022-08-17 14:17:11.609375
413,-6.03,2022-08-17 14:17:11.625000
414,-8.47,2022-08-17 14:17:11.640625
415,-10.11,2022-08-17 14:17:11.656250
416,-11.02,2022-08-17 14:17:11.671875
417,-11.37,2022-08-17 14:17:11.687500
418,-11.3,2022-08-17 14:17:11.703125
419,-10.87,2022-08-17 14:17:11.718750
420,-10.06,2022-08-17 14:17:11.734375
421,-8.81,2022-08-17 14:17:11.750000
422,-7.12,2022-08-17 14:17:11.765625
423,-5.14,2022-08-17 14:17:11.781250
424,-3.13,2022-08-17 14:17:11.796875
425,-1.38,2022-08-17 14:17:11.812500
426,-0.1,2022-08-17 14:17:11.828125
427,0.64,2022-08-17 14:17:11.843750
428,0.98,2022-08-17 14:17:11.859375
429,1.08,2022-08-17 14:17:11.875000
430,1.05,2022-08-17 14:17:11.890625
431,0.88,2022-08-17 14:17:11.906250
432,0.48,2022-08-17 14:17:11.921875
433,-0.24,2022-08-17 14:17:11.937500
434,-1.22,2022-08-17 14:17:11.953125
435,-2.33,2022-08-17 14:17:11.968750
436,-3.39,2022-08-17 14:17:11.984375
437,-4.26,2022-08-17 14:17:12.000000
438,-4.95,2022-08-17 14:17:12.015625
439,-5.55,2022-08-17 14:17:12.031250
440,-6.19,2022-08-17 14:17:12.046875
441,-6.98,2022-08-17 14:17:12.062500
442,-8.02,2022-08-17 14:17:12.078125
443,-9.43,2022-08-17 14:17:12.093750
444,-11.34,2022-08-17 14:17:12.109375
445,-13.83,2022-08-17 14:17:12.125000
446,-16.68,2022-08-17 14:17:12.140625
447,-19.37,2022-08-17 14:17:12.156250
448,-21.01,2022-08-17 14:17:12.171875
449,-20.64,2022-08-17 14:17:12.187500
450,-17.64,2022-08-17 14:17:12.203125
451,-11.94,2022-08-17 14:17:12.218750
452,-4.16,2022-08-17 14:17:12.234375
453,4.61,2022-08-17 14:17:12.250000
454,13.21,2022-08-17 14:17:12.265625
455,20.8,2022-08-17 14:17:12.281250
456,26.98,2022-08-17 14:17:12.296875
457,31.78,2022-08-17 14:17:12.312500
458,35.44,2022-08-17 14:17:12.328125
459,38.13,2022-08-17 14:17:12.343750
460,39.89,2022-08-17 14:17:12.359375
461,40.65,2022-08-17 14:17:12.375000
462,40.32,2022-08-17 14:17:12.390625
463,38.94,2022-08-17 14:17:12.406250
464,36.71,2022-08-17 14:17:12.421875
465,33.9,2022-08-17 14:17:12.437500
466,30.8,2022-08-17 14:17:12.453125
467,27.69,2022-08-17 14:17:12.468750
468,24.75,2022-08-17 14:17:12.484375
469,22.16,2022-08-17 14:17:12.500000
470,20.05,2022-08-17 14:17:12.515625
471,18.55,2022-08-17 14:17:12.531250
472,17.7,2022-08-17 14:17:12.546875
473,17.44,2022-08-17 14:17:12.562500
474,17.52,2022-08-17 14:17:12.578125
475,17.57,2022-08-17 14:17:12.593750
476,17.18,2022-08-17 14:17:12.609375
477,16.01,2022-08-17 14:17:12.625000
478,13.95,2022-08-17 14:17:12.640625
479,11.15,2022-08-17 14:17:12.656250
480,7.91,2022-08-17 14:17:12.671875
481,4.64,2022-08-17 14:17:12.687500
482,1.69,2022-08-17 14:17:12.703125
483,-0.75,2022-08-17 14:17:12.718750
484,-2.65,2022-08-17 14:17:12.734375
485,-4.16,2022-08-17 14:17:12.750000
486,-5.52,2022-08-17 14:17:12.765625
487,-7.0,2022-08-17 14:17:12.781250
488,-8.89,2022-08-17 14:17:12.796875
489,-11.37,2022-08-17 14:17:12.812500
490,-14.51,2022-08-17 14:17:12.828125
491,-18.23,2022-08-17 14:17:12.843750
492,-22.36,2022-08-17 14:17:12.859375
493,-26.73,2022-08-17 14:17:12.875000
494,-31.24,2022-08-17 14:17:12.890625
495,-35.97,2022-08-17 14:17:12.906250
496,-41.16,2022-08-17 14:17:12.921875
497,-46.99,2022-08-17 14:17:12.937500
498,-53.51,2022-08-17 14:17:12.953125
499,-60.42,2022-08-17 14:17:12.968750
500,-67.03,2022-08-17 14:17:12.984375
501,-72.37,2022-08-17 14:17:13.000000
502,-75.31,2022-08-17 14:17:13.015625
503,-74.9,2022-08-17 14:17:13.031250
504,-70.5,2022-08-17 14:17:13.046875
505,-61.94,2022-08-17 14:17:13.062500
506,-49.45,2022-08-17 14:17:13.078125
507,-33.53,2022-08-17 14:17:13.093750
508,-14.87,2022-08-17 14:17:13.109375
509,5.73,2022-08-17 14:17:13.125000
510,27.28,2022-08-17 14:17:13.140625
511,48.53,2022-08-17 14:17:13.156250
512,67.96,2022-08-17 14:17:13.171875
513,83.98,2022-08-17 14:17:13.187500
514,95.4,2022-08-17 14:17:13.203125
515,101.68,2022-08-17 14:17:13.218750
516,103.18,2022-08-17 14:17:13.234375
517,100.96,2022-08-17 14:17:13.250000
518,96.48,2022-08-17 14:17:13.265625
519,91.2,2022-08-17 14:17:13.281250
520,86.37,2022-08-17 14:17:13.296875
521,82.94,2022-08-17 14:17:13.312500
522,81.48,2022-08-17 14:17:13.328125
523,82.03,2022-08-17 14:17:13.343750
524,83.93,2022-08-17 14:17:13.359375
525,85.89,2022-08-17 14:17:13.375000
526,86.4,2022-08-17 14:17:13.390625
527,84.36,2022-08-17 14:17:13.406250
528,79.65,2022-08-17 14:17:13.421875
529,73.25,2022-08-17 14:17:13.437500
530,66.9,2022-08-17 14:17:13.453125
531,62.23,2022-08-17 14:17:13.468750
532,60.12,2022-08-17 14:17:13.484375
533,60.28,2022-08-17 14:17:13.500000
534,61.46,2022-08-17 14:17:13.515625
535,61.97,2022-08-17 14:17:13.531250
536,60.37,2022-08-17 14:17:13.546875
537,55.86,2022-08-17 14:17:13.562500
538,48.5,2022-08-17 14:17:13.578125
539,39.06,2022-08-17 14:17:13.593750
540,28.6,2022-08-17 14:17:13.609375
541,18.13,2022-08-17 14:17:13.625000
542,8.29,2022-08-17 14:17:13.640625
543,-0.8,2022-08-17 14:17:13.656250
544,-9.37,2022-08-17 14:17:13.671875
545,-17.85,2022-08-17 14:17:13.687500
546,-26.51,2022-08-17 14:17:13.703125
547,-35.4,2022-08-17 14:17:13.718750
548,-44.38,2022-08-17 14:17:13.734375
549,-53.25,2022-08-17 14:17:13.750000
550,-61.86,2022-08-17 14:17:13.765625
551,-70.13,2022-08-17 14:17:13.781250
552,-77.98,2022-08-17 14:17:13.796875
553,-85.22,2022-08-17 14:17:13.812500
554,-91.48,2022-08-17 14:17:13.828125
555,-96.22,2022-08-17 14:17:13.843750
556,-98.81,2022-08-17 14:17:13.859375
557,-98.72,2022-08-17 14:17:13.875000
558,-95.66,2022-08-17 14:17:13.890625
559,-89.77,2022-08-17 14:17:13.906250
560,-81.77,2022-08-17 14:17:13.921875
561,-72.8,2022-08-17 14:17:13.937500
562,-64.15,2022-08-17 14:17:13.953125
563,-56.86,2022-08-17 14:17:13.968750
564,-51.41,2022-08-17 14:17:13.984375
565,-47.72,2022-08-17 14:17:14.000000
566,-45.32,2022-08-17 14:17:14.015625
567,-43.73,2022-08-17 14:17:14.031250
568,-42.68,2022-08-17 14:17:14.046875
569,-42.13,2022-08-17 14:17:14.062500
570,-42.13,2022-08-17 14:17:14.078125
571,-42.64,2022-08-17 14:17:14.093750
572,-43.38,2022-08-17 14:17:14.109375
573,-43.95,2022-08-17 14:17:14.125000
574,-44.01,2022-08-17 14:17:14.140625
575,-43.41,2022-08-17 14:17:14.156250
576,-42.23,2022-08-17 14:17:14.171875
577,-40.66,2022-08-17 14:17:14.187500
578,-38.8,2022-08-17 14:17:14.203125
579,-36.51,2022-08-17 14:17:14.218750
580,-33.44,2022-08-17 14:17:14.234375
581,-29.18,2022-08-17 14:17:14.250000
582,-23.55,2022-08-17 14:17:14.265625
583,-16.75,2022-08-17 14:17:14.281250
584,-9.4,2022-08-17 14:17:14.296875
585,-2.24,2022-08-17 14:17:14.312500
586,4.15,2022-08-17 14:17:14.328125
587,9.77,2022-08-17 14:17:14.343750
588,15.2,2022-08-17 14:17:14.359375
589,21.32,2022-08-17 14:17:14.375000
590,28.75,2022-08-17 14:17:14.390625
591,37.38,2022-08-17 14:17:14.406250
592,46.31,2022-08-17 14:17:14.421875
593,54.17,2022-08-17 14:17:14.437500
594,59.81,2022-08-17 14:17:14.453125
595,62.8,2022-08-17 14:17:14.468750
596,63.68,2022-08-17 14:17:14.484375
597,63.61,2022-08-17 14:17:14.500000
598,63.81,2022-08-17 14:17:14.515625
599,65.09,2022-08-17 14:17:14.531250
600,67.58,2022-08-17 14:17:14.546875
601,70.88,2022-08-17 14:17:14.562500
602,74.29,2022-08-17 14:17:14.578125
603,77.13,2022-08-17 14:17:14.593750
604,78.82,2022-08-17 14:17:14.609375
605,78.96,2022-08-17 14:17:14.625000
606,77.28,2022-08-17 14:17:14.640625
607,73.64,2022-08-17 14:17:14.656250
608,68.09,2022-08-17 14:17:14.671875
609,60.91,2022-08-17 14:17:14.687500
610,52.6,2022-08-17 14:17:14.703125
611,43.78,2022-08-17 14:17:14.718750
612,34.9,2022-08-17 14:17:14.734375
613,26.1,2022-08-17 14:17:14.750000
614,17.21,2022-08-17 14:17:14.765625
615,8.0,2022-08-17 14:17:14.781250
616,-1.41,2022-08-17 14:17:14.796875
617,-10.3,2022-08-17 14:17:14.812500
618,-17.34,2022-08-17 14:17:14.828125
619,-21.0,2022-08-17 14:17:14.843750
620,-20.19,2022-08-17 14:17:14.859375
621,-14.65,2022-08-17 14:17:14.875000
622,-5.18,2022-08-17 14:17:14.890625
623,6.68,2022-08-17 14:17:14.906250
624,19.22,2022-08-17 14:17:14.921875
625,30.99,2022-08-17 14:17:14.937500
626,41.16,2022-08-17 14:17:14.953125
627,49.5,2022-08-17 14:17:14.968750
628,56.33,2022-08-17 14:17:14.984375
629,62.21,2022-08-17 14:17:15.000000
630,67.78,2022-08-17 14:17:15.015625
631,73.4,2022-08-17 14:17:15.031250
632,79.04,2022-08-17 14:17:15.046875
633,84.24,2022-08-17 14:17:15.062500
634,88.32,2022-08-17 14:17:15.078125
635,90.64,2022-08-17 14:17:15.093750
636,90.77,2022-08-17 14:17:15.109375
637,88.41,2022-08-17 14:17:15.125000
638,83.2,2022-08-17 14:17:15.140625
639,74.65,2022-08-17 14:17:15.156250
640,62.33,2022-08-17 14:17:15.171875
641,46.31,2022-08-17 14:17:15.187500
642,27.53,2022-08-17 14:17:15.203125
643,7.96,2022-08-17 14:17:15.218750
644,-9.92,2022-08-17 14:17:15.234375
645,-23.9,2022-08-17 14:17:15.250000
646,-32.99,2022-08-17 14:17:15.265625
647,-37.95,2022-08-17 14:17:15.281250
648,-40.98,2022-08-17 14:17:15.296875
649,-44.87,2022-08-17 14:17:15.312500
650,-51.82,2022-08-17 14:17:15.328125
651,-62.53,2022-08-17 14:17:15.343750
652,-76.04,2022-08-17 14:17:15.359375
653,-90.17,2022-08-17 14:17:15.375000
654,-102.57,2022-08-17 14:17:15.390625
655,-111.56,2022-08-17 14:17:15.406250
656,-116.7,2022-08-17 14:17:15.421875
657,-118.61,2022-08-17 14:17:15.437500
658,-118.49,2022-08-17 14:17:15.453125
659,-117.67,2022-08-17 14:17:15.468750
660,-117.35,2022-08-17 14:17:15.484375
661,-118.48,2022-08-17 14:17:15.500000
662,-121.41,2022-08-17 14:17:15.515625
663,-125.24,2022-08-17 14:17:15.531250
664,-127.26,2022-08-17 14:17:15.546875
665,-123.08,2022-08-17 14:17:15.562500
666,-108.02,2022-08-17 14:17:15.578125
667,-79.24,2022-08-17 14:17:15.593750
668,-37.68,2022-08-17 14:17:15.609375
669,11.48,2022-08-17 14:17:15.625000
670,60.29,2022-08-17 14:17:15.640625
671,100.93,2022-08-17 14:17:15.656250
672,128.52,2022-08-17 14:17:15.671875
673,142.46,2022-08-17 14:17:15.687500
674,145.59,2022-08-17 14:17:15.703125
675,141.99,2022-08-17 14:17:15.718750
676,134.71,2022-08-17 14:17:15.734375
677,124.79,2022-08-17 14:17:15.750000
678,111.83,2022-08-17 14:17:15.765625
679,95.42,2022-08-17 14:17:15.781250
680,76.4,2022-08-17 14:17:15.796875
681,56.96,2022-08-17 14:17:15.812500
682,39.6,2022-08-17 14:17:15.828125
683,25.83,2022-08-17 14:17:15.843750
684,15.34,2022-08-17 14:17:15.859375
685,6.24,2022-08-17 14:17:15.875000
686,-3.81,2022-08-17 14:17:15.890625
687,-16.19,2022-08-17 14:17:15.906250
688,-30.59,2022-08-17 14:17:15.921875
689,-45.05,2022-08-17 14:17:15.937500
690,-56.99,2022-08-17 14:17:15.953125
691,-64.42,2022-08-17 14:17:15.968750
692,-66.83,2022-08-17 14:17:15.984375
693,-65.3,2022-08-17 14:17:16.000000
694,-61.9,2022-08-17 14:17:16.015625
695,-58.66,2022-08-17 14:17:16.031250
696,-56.74,2022-08-17 14:17:16.046875
697,-56.13,2022-08-17 14:17:16.062500
698,-56.01,2022-08-17 14:17:16.078125
699,-55.4,2022-08-17 14:17:16.093750
700,-53.86,2022-08-17 14:17:16.109375
701,-51.73,2022-08-17 14:17:16.125000
702,-49.94,2022-08-17 14:17:16.140625
703,-49.48,2022-08-17 14:17:16.156250
704,-50.78,2022-08-17 14:17:16.171875
705,-53.46,2022-08-17 14:17:16.187500
706,-56.51,2022-08-17 14:17:16.203125
707,-58.75,2022-08-17 14:17:16.218750
708,-59.44,2022-08-17 14:17:16.234375
709,-58.53,2022-08-17 14:17:16.250000
710,-56.62,2022-08-17 14:17:16.265625
711,-54.64,2022-08-17 14:17:16.281250
712,-53.54,2022-08-17 14:17:16.296875
713,-54.01,2022-08-17 14:17:16.312500
714,-56.53,2022-08-17 14:17:16.328125
715,-61.35,2022-08-17 14:17:16.343750
716,-68.53,2022-08-17 14:17:16.359375
717,-77.74,2022-08-17 14:17:16.375000
718,-88.17,2022-08-17 14:17:16.390625
719,-98.43,2022-08-17 14:17:16.406250
720,-106.6,2022-08-17 14:17:16.421875
721,-110.67,2022-08-17 14:17:16.437500
722,-108.94,2022-08-17 14:17:16.453125
723,-100.52,2022-08-17 14:17:16.468750
724,-85.72,2022-08-17 14:17:16.484375
725,-65.98,2022-08-17 14:17:16.500000
726,-43.52,2022-08-17 14:17:16.515625
727,-20.85,2022-08-17 14:17:16.531250
728,-0.04,2022-08-17 14:17:16.546875
729,17.61,2022-08-17 14:17:16.562500
730,31.71,2022-08-17 14:17:16.578125
731,42.48,2022-08-17 14:17:16.593750
732,50.42,2022-08-17 14:17:16.609375
733,55.93,2022-08-17 14:17:16.625000
734,59.24,2022-08-17 14:17:16.640625
735,60.5,2022-08-17 14:17:16.656250
736,59.94,2022-08-17 14:17:16.671875
737,57.87,2022-08-17 14:17:16.687500
738,54.68,2022-08-17 14:17:16.703125
739,50.74,2022-08-17 14:17:16.718750
740,46.35,2022-08-17 14:17:16.734375
741,41.76,2022-08-17 14:17:16.750000
742,37.23,2022-08-17 14:17:16.765625
743,33.08,2022-08-17 14:17:16.781250
744,29.55,2022-08-17 14:17:16.796875
745,26.75,2022-08-17 14:17:16.812500
746,24.59,2022-08-17 14:17:16.828125
747,22.88,2022-08-17 14:17:16.843750
748,21.34,2022-08-17 14:17:16.859375
749,19.8,2022-08-17 14:17:16.875000
750,18.14,2022-08-17 14:17:16.890625
751,16.3,2022-08-17 14:17:16.906250
752,14.24,2022-08-17 14:17:16.921875
753,11.88,2022-08-17 14:17:16.937500
754,9.17,2022-08-17 14:17:16.953125
755,6.11,2022-08-17 14:17:16.968750
756,2.82,2022-08-17 14:17:16.984375
757,-0.62,2022-08-17 14:17:17.000000
758,-4.15,2022-08-17 14:17:17.015625
759,-7.84,2022-08-17 14:17:17.031250
760,-11.85,2022-08-17 14:17:17.046875
761,-16.26,2022-08-17 14:17:17.062500
762,-20.91,2022-08-17 14:17:17.078125
763,-25.33,2022-08-17 14:17:17.093750
764,-28.89,2022-08-17 14:17:17.109375
765,-31.03,2022-08-17 14:17:17.125000
766,-31.65,2022-08-17 14:17:17.140625
767,-31.17,2022-08-17 14:17:17.156250
768,-30.41,2022-08-17 14:17:17.171875
769,-30.26,2022-08-17 14:17:17.187500
770,-31.22,2022-08-17 14:17:17.203125
771,-33.29,2022-08-17 14:17:17.218750
772,-35.94,2022-08-17 14:17:17.234375
773,-38.43,2022-08-17 14:17:17.250000
774,-39.99,2022-08-17 14:17:17.265625
775,-39.98,2022-08-17 14:17:17.281250
776,-38.0,2022-08-17 14:17:17.296875
777,-33.81,2022-08-17 14:17:17.312500
778,-27.49,2022-08-17 14:17:17.328125
779,-19.43,2022-08-17 14:17:17.343750
780,-10.31,2022-08-17 14:17:17.359375
781,-0.89,2022-08-17 14:17:17.375000
782,8.34,2022-08-17 14:17:17.390625
783,17.41,2022-08-17 14:17:17.406250
784,26.67,2022-08-17 14:17:17.421875
785,36.4,2022-08-17 14:17:17.437500
786,46.22,2022-08-17 14:17:17.453125
787,54.88,2022-08-17 14:17:17.468750
788,60.48,2022-08-17 14:17:17.484375
789,61.24,2022-08-17 14:17:17.500000
790,56.29,2022-08-17 14:17:17.515625
791,46.13,2022-08-17 14:17:17.531250
792,32.51,2022-08-17 14:17:17.546875
793,17.75,2022-08-17 14:17:17.562500
794,4.0,2022-08-17 14:17:17.578125
795,-7.28,2022-08-17 14:17:17.593750
796,-15.55,2022-08-17 14:17:17.609375
797,-20.88,2022-08-17 14:17:17.625000
798,-23.66,2022-08-17 14:17:17.640625
799,-24.36,2022-08-17 14:17:17.656250
800,-23.47,2022-08-17 14:17:17.671875
801,-21.66,2022-08-17 14:17:17.687500
802,-19.67,2022-08-17 14:17:17.703125
803,-18.27,2022-08-17 14:17:17.718750
804,-17.98,2022-08-17 14:17:17.734375
805,-18.87,2022-08-17 14:17:17.750000
806,-20.54,2022-08-17 14:17:17.765625
807,-22.29,2022-08-17 14:17:17.781250
808,-23.42,2022-08-17 14:17:17.796875
809,-23.54,2022-08-17 14:17:17.812500
810,-22.77,2022-08-17 14:17:17.828125
811,-21.6,2022-08-17 14:17:17.843750
812,-20.68,2022-08-17 14:17:17.859375
813,-20.5,2022-08-17 14:17:17.875000
814,-21.29,2022-08-17 14:17:17.890625
815,-22.91,2022-08-17 14:17:17.906250
816,-25.08,2022-08-17 14:17:17.921875
817,-27.52,2022-08-17 14:17:17.937500
818,-30.03,2022-08-17 14:17:17.953125
819,-32.49,2022-08-17 14:17:17.968750
820,-34.83,2022-08-17 14:17:17.984375
821,-36.99,2022-08-17 14:17:18.000000
822,-38.86,2022-08-17 14:17:18.015625
823,-40.38,2022-08-17 14:17:18.031250
824,-41.63,2022-08-17 14:17:18.046875
825,-42.78,2022-08-17 14:17:18.062500
826,-44.13,2022-08-17 14:17:18.078125
827,-45.96,2022-08-17 14:17:18.093750
828,-48.42,2022-08-17 14:17:18.109375
829,-51.4,2022-08-17 14:17:18.125000
830,-54.48,2022-08-17 14:17:18.140625
831,-56.96,2022-08-17 14:17:18.156250
832,-57.93,2022-08-17 14:17:18.171875
833,-56.51,2022-08-17 14:17:18.187500
834,-52.12,2022-08-17 14:17:18.203125
835,-44.68,2022-08-17 14:17:18.218750
836,-34.64,2022-08-17 14:17:18.234375
837,-22.88,2022-08-17 14:17:18.250000
838,-10.46,2022-08-17 14:17:18.265625
839,1.6,2022-08-17 14:17:18.281250
840,12.56,2022-08-17 14:17:18.296875
841,21.98,2022-08-17 14:17:18.312500
842,29.68,2022-08-17 14:17:18.328125
843,35.73,2022-08-17 14:17:18.343750
844,40.26,2022-08-17 14:17:18.359375
845,43.49,2022-08-17 14:17:18.375000
846,45.68,2022-08-17 14:17:18.390625
847,47.08,2022-08-17 14:17:18.406250
848,47.88,2022-08-17 14:17:18.421875
849,48.25,2022-08-17 14:17:18.437500
850,48.29,2022-08-17 14:17:18.453125
851,48.06,2022-08-17 14:17:18.468750
852,47.67,2022-08-17 14:17:18.484375
853,47.21,2022-08-17 14:17:18.500000
854,46.75,2022-08-17 14:17:18.515625
855,46.36,2022-08-17 14:17:18.531250
856,46.1,2022-08-17 14:17:18.546875
857,46.03,2022-08-17 14:17:18.562500
858,46.24,2022-08-17 14:17:18.578125
859,46.73,2022-08-17 14:17:18.593750
860,47.39,2022-08-17 14:17:18.609375
861,47.92,2022-08-17 14:17:18.625000
862,47.88,2022-08-17 14:17:18.640625
863,46.83,2022-08-17 14:17:18.656250
864,44.45,2022-08-17 14:17:18.671875
865,40.64,2022-08-17 14:17:18.687500
866,35.51,2022-08-17 14:17:18.703125
867,29.33,2022-08-17 14:17:18.718750
868,22.36,2022-08-17 14:17:18.734375
869,14.83,2022-08-17 14:17:18.750000
870,6.94,2022-08-17 14:17:18.765625
871,-1.1,2022-08-17 14:17:18.781250
872,-9.0,2022-08-17 14:17:18.796875
873,-16.42,2022-08-17 14:17:18.812500
874,-23.01,2022-08-17 14:17:18.828125
875,-28.46,2022-08-17 14:17:18.843750
876,-32.6,2022-08-17 14:17:18.859375
877,-35.46,2022-08-17 14:17:18.875000
878,-37.33,2022-08-17 14:17:18.890625
879,-38.72,2022-08-17 14:17:18.906250
880,-40.18,2022-08-17 14:17:18.921875
881,-42.13,2022-08-17 14:17:18.937500
882,-44.71,2022-08-17 14:17:18.953125
883,-47.75,2022-08-17 14:17:18.968750
884,-50.94,2022-08-17 14:17:18.984375
885,-54.01,2022-08-17 14:17:19.000000
886,-56.88,2022-08-17 14:17:19.015625
887,-59.52,2022-08-17 14:17:19.031250
888,-61.78,2022-08-17 14:17:19.046875
889,-63.18,2022-08-17 14:17:19.062500
890,-62.92,2022-08-17 14:17:19.078125
891,-60.15,2022-08-17 14:17:19.093750
892,-54.41,2022-08-17 14:17:19.109375
893,-45.88,2022-08-17 14:17:19.125000
894,-35.41,2022-08-17 14:17:19.140625
895,-24.21,2022-08-17 14:17:19.156250
896,-13.41,2022-08-17 14:17:19.171875
897,-3.77,2022-08-17 14:17:19.187500
898,4.4,2022-08-17 14:17:19.203125
899,11.1,2022-08-17 14:17:19.218750
900,16.46,2022-08-17 14:17:19.234375
901,20.59,2022-08-17 14:17:19.250000
902,23.6,2022-08-17 14:17:19.265625
903,25.63,2022-08-17 14:17:19.281250
904,26.9,2022-08-17 14:17:19.296875
905,27.73,2022-08-17 14:17:19.312500
906,28.4,2022-08-17 14:17:19.328125
907,29.09,2022-08-17 14:17:19.343750
908,29.84,2022-08-17 14:17:19.359375
909,30.58,2022-08-17 14:17:19.375000
910,31.24,2022-08-17 14:17:19.390625
911,31.78,2022-08-17 14:17:19.406250
912,32.35,2022-08-17 14:17:19.421875
913,33.3,2022-08-17 14:17:19.437500
914,35.17,2022-08-17 14:17:19.453125
915,38.58,2022-08-17 14:17:19.468750
916,43.94,2022-08-17 14:17:19.484375
917,51.26,2022-08-17 14:17:19.500000
918,59.93,2022-08-17 14:17:19.515625
919,68.79,2022-08-17 14:17:19.531250
920,76.41,2022-08-17 14:17:19.546875
921,81.42,2022-08-17 14:17:19.562500
922,82.9,2022-08-17 14:17:19.578125
923,80.58,2022-08-17 14:17:19.593750
924,74.91,2022-08-17 14:17:19.609375
925,66.82,2022-08-17 14:17:19.625000
926,57.44,2022-08-17 14:17:19.640625
927,47.84,2022-08-17 14:17:19.656250
928,38.79,2022-08-17 14:17:19.671875
929,30.67,2022-08-17 14:17:19.687500
930,23.54,2022-08-17 14:17:19.703125
931,17.28,2022-08-17 14:17:19.718750
932,11.76,2022-08-17 14:17:19.734375
933,6.94,2022-08-17 14:17:19.750000
934,2.92,2022-08-17 14:17:19.765625
935,-0.12,2022-08-17 14:17:19.781250
936,-1.97,2022-08-17 14:17:19.796875
937,-2.51,2022-08-17 14:17:19.812500
938,-1.65,2022-08-17 14:17:19.828125
939,0.62,2022-08-17 14:17:19.843750
940,4.21,2022-08-17 14:17:19.859375
941,8.83,2022-08-17 14:17:19.875000
942,13.92,2022-08-17 14:17:19.890625
943,18.73,2022-08-17 14:17:19.906250
944,22.54,2022-08-17 14:17:19.921875
945,24.96,2022-08-17 14:17:19.937500
946,25.98,2022-08-17 14:17:19.953125
947,26.0,2022-08-17 14:17:19.968750
948,25.42,2022-08-17 14:17:19.984375
949,24.3,2022-08-17 14:17:20.000000
950,22.26,2022-08-17 14:17:20.015625
951,18.68,2022-08-17 14:17:20.031250
952,13.14,2022-08-17 14:17:20.046875
953,5.85,2022-08-17 14:17:20.062500
954,-2.24,2022-08-17 14:17:20.078125
955,-9.81,2022-08-17 14:17:20.093750
956,-15.66,2022-08-17 14:17:20.109375
957,-19.32,2022-08-17 14:17:20.125000
958,-21.07,2022-08-17 14:17:20.140625
959,-21.75,2022-08-17 14:17:20.156250
960,-22.16,2022-08-17 14:17:20.171875
961,-22.63,2022-08-17 14:17:20.187500
962,-22.9,2022-08-17 14:17:20.203125
963,-22.38,2022-08-17 14:17:20.218750
964,-20.62,2022-08-17 14:17:20.234375
965,-17.65,2022-08-17 14:17:20.250000
966,-14.0,2022-08-17 14:17:20.265625
967,-10.45,2022-08-17 14:17:20.281250
968,-7.59,2022-08-17 14:17:20.296875
969,-5.5,2022-08-17 14:17:20.312500
970,-3.7,2022-08-17 14:17:20.328125
971,-1.47,2022-08-17 14:17:20.343750
972,1.74,2022-08-17 14:17:20.359375
973,5.95,2022-08-17 14:17:20.375000
974,10.69,2022-08-17 14:17:20.390625
975,15.2,2022-08-17 14:17:20.406250
976,18.89,2022-08-17 14:17:20.421875
977,21.54,2022-08-17 14:17:20.437500
978,23.36,2022-08-17 14:17:20.453125
979,24.71,2022-08-17 14:17:20.468750
980,25.81,2022-08-17 14:17:20.484375
981,26.54,2022-08-17 14:17:20.500000
982,26.47,2022-08-17 14:17:20.515625
983,25.12,2022-08-17 14:17:20.531250
984,22.31,2022-08-17 14:17:20.546875
985,18.33,2022-08-17 14:17:20.562500
986,13.77,2022-08-17 14:17:20.578125
987,9.29,2022-08-17 14:17:20.593750
988,5.3,2022-08-17 14:17:20.609375
989,1.87,2022-08-17 14:17:20.625000
990,-1.22,2022-08-17 14:17:20.640625
991,-4.25,2022-08-17 14:17:20.656250
992,-7.35,2022-08-17 14:17:20.671875
993,-10.51,2022-08-17 14:17:20.687500
994,-13.66,2022-08-17 14:17:20.703125
995,-16.82,2022-08-17 14:17:20.718750
996,-20.14,2022-08-17 14:17:20.734375
997,-23.83,2022-08-17 14:17:20.750000
998,-27.93,2022-08-17 14:17:20.765625
999,-32.11,2022-08-17 14:17:20.781250
1000,-35.69,2022-08-17 14:17:20.796875
1001,-37.77,2022-08-17 14:17:20.812500
1002,-37.6,2022-08-17 14:17:20.828125
1003,-34.83,2022-08-17 14:17:20.843750
1004,-29.68,2022-08-17 14:17:20.859375
1005,-22.81,2022-08-17 14:17:20.875000
1006,-15.19,2022-08-17 14:17:20.890625
1007,-7.75,2022-08-17 14:17:20.906250
1008,-1.19,2022-08-17 14:17:20.921875
1009,4.11,2022-08-17 14:17:20.937500
1010,8.08,2022-08-17 14:17:20.953125
1011,10.84,2022-08-17 14:17:20.968750
1012,12.57,2022-08-17 14:17:20.984375
1013,13.46,2022-08-17 14:17:21.000000
1014,13.72,2022-08-17 14:17:21.015625
1015,13.51,2022-08-17 14:17:21.031250
1016,13.06,2022-08-17 14:17:21.046875
1017,12.57,2022-08-17 14:17:21.062500
1018,12.22,2022-08-17 14:17:21.078125
1019,12.11,2022-08-17 14:17:21.093750
1020,12.27,2022-08-17 14:17:21.109375
1021,12.65,2022-08-17 14:17:21.125000
1022,13.19,2022-08-17 14:17:21.140625
1023,13.88,2022-08-17 14:17:21.156250
1024,14.73,2022-08-17 14:17:21.171875
1025,15.82,2022-08-17 14:17:21.187500
1026,17.15,2022-08-17 14:17:21.203125
1027,18.65,2022-08-17 14:17:21.218750
1028,20.07,2022-08-17 14:17:21.234375
1029,21.05,2022-08-17 14:17:21.250000
1030,21.16,2022-08-17 14:17:21.265625
1031,20.05,2022-08-17 14:17:21.281250
1032,17.53,2022-08-17 14:17:21.296875
1033,13.72,2022-08-17 14:17:21.312500
1034,9.0,2022-08-17 14:17:21.328125
1035,3.94,2022-08-17 14:17:21.343750
1036,-0.84,2022-08-17 14:17:21.359375
1037,-4.91,2022-08-17 14:17:21.375000
1038,-8.13,2022-08-17 14:17:21.390625
1039,-10.7,2022-08-17 14:17:21.406250
1040,-12.95,2022-08-17 14:17:21.421875
1041,-15.18,2022-08-17 14:17:21.437500
1042,-17.48,2022-08-17 14:17:21.453125
1043,-19.67,2022-08-17 14:17:21.468750
1044,-21.46,2022-08-17 14:17:21.484375
1045,-22.58,2022-08-17 14:17:21.500000
1046,-22.98,2022-08-17 14:17:21.515625
1047,-22.81,2022-08-17 14:17:21.531250
1048,-22.39,2022-08-17 14:17:21.546875
1049,-22.14,2022-08-17 14:17:21.562500
1050,-22.45,2022-08-17 14:17:21.578125
1051,-23.65,2022-08-17 14:17:21.593750
1052,-25.83,2022-08-17 14:17:21.609375
1053,-28.78,2022-08-17 14:17:21.625000
1054,-31.89,2022-08-17 14:17:21.640625
1055,-34.23,2022-08-17 14:17:21.656250
1056,-34.79,2022-08-17 14:17:21.671875
1057,-32.83,2022-08-17 14:17:21.687500
1058,-28.14,2022-08-17 14:17:21.703125
1059,-21.08,2022-08-17 14:17:21.718750
1060,-12.5,2022-08-17 14:17:21.734375
1061,-3.42,2022-08-17 14:17:21.750000
1062,5.22,2022-08-17 14:17:21.765625
1063,12.69,2022-08-17 14:17:21.781250
1064,18.57,2022-08-17 14:17:21.796875
1065,22.66,2022-08-17 14:17:21.812500
1066,24.97,2022-08-17 14:17:21.828125
1067,25.61,2022-08-17 14:17:21.843750
1068,24.79,2022-08-17 14:17:21.859375
1069,22.71,2022-08-17 14:17:21.875000
1070,19.61,2022-08-17 14:17:21.890625
1071,15.71,2022-08-17 14:17:21.906250
1072,11.33,2022-08-17 14:17:21.921875
1073,6.9,2022-08-17 14:17:21.937500
1074,2.92,2022-08-17 14:17:21.953125
1075,-0.1,2022-08-17 14:17:21.968750
1076,-1.82,2022-08-17 14:17:21.984375
1077,-2.19,2022-08-17 14:17:22.000000
1078,-1.39,2022-08-17 14:17:22.015625
1079,0.19,2022-08-17 14:17:22.031250
1080,2.07,2022-08-17 14:17:22.046875
1081,3.82,2022-08-17 14:17:22.062500
1082,5.02,2022-08-17 14:17:22.078125
1083,5.35,2022-08-17 14:17:22.093750
1084,4.58,2022-08-17 14:17:22.109375
1085,2.68,2022-08-17 14:17:22.125000
1086,-0.09,2022-08-17 14:17:22.140625
1087,-3.22,2022-08-17 14:17:22.156250
1088,-6.0,2022-08-17 14:17:22.171875
1089,-7.85,2022-08-17 14:17:22.187500
1090,-8.54,2022-08-17 14:17:22.203125
1091,-8.38,2022-08-17 14:17:22.218750
1092,-8.06,2022-08-17 14:17:22.234375
1093,-8.34,2022-08-17 14:17:22.250000
1094,-9.75,2022-08-17 14:17:22.265625
1095,-12.27,2022-08-17 14:17:22.281250
1096,-15.46,2022-08-17 14:17:22.296875
1097,-18.6,2022-08-17 14:17:22.312500
1098,-21.06,2022-08-17 14:17:22.328125
1099,-22.52,2022-08-17 14:17:22.343750
1100,-23.02,2022-08-17 14:17:22.359375
1101,-22.87,2022-08-17 14:17:22.375000
1102,-22.52,2022-08-17 14:17:22.390625
1103,-22.37,2022-08-17 14:17:22.406250
1104,-22.8,2022-08-17 14:17:22.421875
1105,-24.04,2022-08-17 14:17:22.437500
1106,-26.09,2022-08-17 14:17:22.453125
1107,-28.66,2022-08-17 14:17:22.468750
1108,-31.11,2022-08-17 14:17:22.484375
1109,-32.61,2022-08-17 14:17:22.500000
1110,-32.33,2022-08-17 14:17:22.515625
1111,-29.77,2022-08-17 14:17:22.531250
1112,-24.98,2022-08-17 14:17:22.546875
1113,-18.58,2022-08-17 14:17:22.562500
1114,-11.52,2022-08-17 14:17:22.578125
1115,-4.8,2022-08-17 14:17:22.593750
1116,0.88,2022-08-17 14:17:22.609375
1117,5.23,2022-08-17 14:17:22.625000
1118,8.3,2022-08-17 14:17:22.640625
1119,10.29,2022-08-17 14:17:22.656250
1120,11.4,2022-08-17 14:17:22.671875
1121,11.79,2022-08-17 14:17:22.687500
1122,11.52,2022-08-17 14:17:22.703125
1123,10.69,2022-08-17 14:17:22.718750
1124,9.42,2022-08-17 14:17:22.734375
1125,7.92,2022-08-17 14:17:22.750000
1126,6.39,2022-08-17 14:17:22.765625
1127,5.02,2022-08-17 14:17:22.781250
1128,3.99,2022-08-17 14:17:22.796875
1129,3.42,2022-08-17 14:17:22.812500
1130,3.43,2022-08-17 14:17:22.828125
1131,4.07,2022-08-17 14:17:22.843750
1132,5.3,2022-08-17 14:17:22.859375
1133,7.0,2022-08-17 14:17:22.875000
1134,8.97,2022-08-17 14:17:22.890625
1135,10.93,2022-08-17 14:17:22.906250
1136,12.59,2022-08-17 14:17:22.921875
1137,13.73,2022-08-17 14:17:22.937500
1138,14.27,2022-08-17 14:17:22.953125
1139,14.27,2022-08-17 14:17:22.968750
1140,13.93,2022-08-17 14:17:22.984375
1141,13.52,2022-08-17 14:17:23.000000
1142,13.3,2022-08-17 14:17:23.015625
1143,13.43,2022-08-17 14:17:23.031250
1144,13.93,2022-08-17 14:17:23.046875
1145,14.78,2022-08-17 14:17:23.062500
1146,15.91,2022-08-17 14:17:23.078125
1147,17.31,2022-08-17 14:17:23.093750
1148,19.08,2022-08-17 14:17:23.109375
1149,21.38,2022-08-17 14:17:23.125000
1150,24.46,2022-08-17 14:17:23.140625
1151,28.52,2022-08-17 14:17:23.156250
1152,33.72,2022-08-17 14:17:23.171875
1153,40.04,2022-08-17 14:17:23.187500
1154,47.24,2022-08-17 14:17:23.203125
1155,54.82,2022-08-17 14:17:23.218750
1156,62.05,2022-08-17 14:17:23.234375
1157,68.11,2022-08-17 14:17:23.250000
1158,72.31,2022-08-17 14:17:23.265625
1159,74.35,2022-08-17 14:17:23.281250
1160,74.4,2022-08-17 14:17:23.296875
1161,73.06,2022-08-17 14:17:23.312500
1162,71.13,2022-08-17 14:17:23.328125
1163,69.36,2022-08-17 14:17:23.343750
1164,68.17,2022-08-17 14:17:23.359375
1165,67.63,2022-08-17 14:17:23.375000
1166,67.49,2022-08-17 14:17:23.390625
1167,67.49,2022-08-17 14:17:23.406250
1168,67.41,2022-08-17 14:17:23.421875
1169,67.21,2022-08-17 14:17:23.437500
1170,66.92,2022-08-17 14:17:23.453125
1171,66.51,2022-08-17 14:17:23.468750
1172,65.83,2022-08-17 14:17:23.484375
1173,64.53,2022-08-17 14:17:23.500000
1174,62.22,2022-08-17 14:17:23.515625
1175,58.56,2022-08-17 14:17:23.531250
1176,53.41,2022-08-17 14:17:23.546875
1177,46.82,2022-08-17 14:17:23.562500
1178,39.01,2022-08-17 14:17:23.578125
1179,30.32,2022-08-17 14:17:23.593750
1180,21.08,2022-08-17 14:17:23.609375
1181,11.57,2022-08-17 14:17:23.625000
1182,1.94,2022-08-17 14:17:23.640625
1183,-7.85,2022-08-17 14:17:23.656250
1184,-18.03,2022-08-17 14:17:23.671875
1185,-28.89,2022-08-17 14:17:23.687500
1186,-40.58,2022-08-17 14:17:23.703125
1187,-52.98,2022-08-17 14:17:23.718750
1188,-65.57,2022-08-17 14:17:23.734375
1189,-77.55,2022-08-17 14:17:23.750000
1190,-88.06,2022-08-17 14:17:23.765625
1191,-96.42,2022-08-17 14:17:23.781250
1192,-102.34,2022-08-17 14:17:23.796875
1193,-105.92,2022-08-17 14:17:23.812500
1194,-107.53,2022-08-17 14:17:23.828125
1195,-107.6,2022-08-17 14:17:23.843750
1196,-106.48,2022-08-17 14:17:23.859375
1197,-104.4,2022-08-17 14:17:23.875000
1198,-101.55,2022-08-17 14:17:23.890625
1199,-98.14,2022-08-17 14:17:23.906250
1200,-94.53,2022-08-17 14:17:23.921875
1201,-91.19,2022-08-17 14:17:23.937500
1202,-88.56,2022-08-17 14:17:23.953125
1203,-86.86,2022-08-17 14:17:23.968750
1204,-85.94,2022-08-17 14:17:23.984375
1205,-85.31,2022-08-17 14:17:24.000000
1206,-84.29,2022-08-17 14:17:24.015625
1207,-82.38,2022-08-17 14:17:24.031250
1208,-79.49,2022-08-17 14:17:24.046875
1209,-76.08,2022-08-17 14:17:24.062500
1210,-72.89,2022-08-17 14:17:24.078125
1211,-70.56,2022-08-17 14:17:24.093750
1212,-69.23,2022-08-17 14:17:24.109375
1213,-68.37,2022-08-17 14:17:24.125000
1214,-66.92,2022-08-17 14:17:24.140625
1215,-63.67,2022-08-17 14:17:24.156250
1216,-57.72,2022-08-17 14:17:24.171875
1217,-48.82,2022-08-17 14:17:24.187500
1218,-37.42,2022-08-17 14:17:24.203125
1219,-24.47,2022-08-17 14:17:24.218750
1220,-11.1,2022-08-17 14:17:24.234375
1221,1.66,2022-08-17 14:17:24.250000
1222,13.06,2022-08-17 14:17:24.265625
1223,22.7,2022-08-17 14:17:24.281250
1224,30.44,2022-08-17 14:17:24.296875
1225,36.25,2022-08-17 14:17:24.312500
1226,40.17,2022-08-17 14:17:24.328125
1227,42.3,2022-08-17 14:17:24.343750
1228,42.73,2022-08-17 14:17:24.359375
1229,41.67,2022-08-17 14:17:24.375000
1230,39.36,2022-08-17 14:17:24.390625
1231,36.14,2022-08-17 14:17:24.406250
1232,32.37,2022-08-17 14:17:24.421875
1233,28.49,2022-08-17 14:17:24.437500
1234,24.9,2022-08-17 14:17:24.453125
1235,21.92,2022-08-17 14:17:24.468750
1236,19.68,2022-08-17 14:17:24.484375
1237,18.01,2022-08-17 14:17:24.500000
1238,16.48,2022-08-17 14:17:24.515625
1239,14.57,2022-08-17 14:17:24.531250
1240,11.78,2022-08-17 14:17:24.546875
1241,7.85,2022-08-17 14:17:24.562500
1242,2.76,2022-08-17 14:17:24.578125
1243,-3.2,2022-08-17 14:17:24.593750
1244,-9.61,2022-08-17 14:17:24.609375
1245,-15.92,2022-08-17 14:17:24.625000
1246,-21.57,2022-08-17 14:17:24.640625
1247,-25.97,2022-08-17 14:17:24.656250
1248,-28.62,2022-08-17 14:17:24.671875
1249,-29.15,2022-08-17 14:17:24.687500
1250,-27.38,2022-08-17 14:17:24.703125
1251,-23.41,2022-08-17 14:17:24.718750
1252,-17.47,2022-08-17 14:17:24.734375
1253,-9.86,2022-08-17 14:17:24.750000
1254,-0.85,2022-08-17 14:17:24.765625
1255,9.26,2022-08-17 14:17:24.781250
1256,20.2,2022-08-17 14:17:24.796875
1257,31.53,2022-08-17 14:17:24.812500
1258,42.73,2022-08-17 14:17:24.828125
1259,53.02,2022-08-17 14:17:24.843750
1260,61.51,2022-08-17 14:17:24.859375
1261,67.28,2022-08-17 14:17:24.875000
1262,69.55,2022-08-17 14:17:24.890625
1263,67.92,2022-08-17 14:17:24.906250
1264,62.58,2022-08-17 14:17:24.921875
1265,54.35,2022-08-17 14:17:24.937500
1266,44.56,2022-08-17 14:17:24.953125
1267,34.72,2022-08-17 14:17:24.968750
1268,26.11,2022-08-17 14:17:24.984375
1269,19.47,2022-08-17 14:17:25.000000
1270,14.96,2022-08-17 14:17:25.015625
1271,12.33,2022-08-17 14:17:25.031250
1272,11.25,2022-08-17 14:17:25.046875
1273,11.57,2022-08-17 14:17:25.062500
1274,13.27,2022-08-17 14:17:25.078125
1275,16.25,2022-08-17 14:17:25.093750
1276,20.02,2022-08-17 14:17:25.109375
1277,23.78,2022-08-17 14:17:25.125000
1278,26.67,2022-08-17 14:17:25.140625
1279,28.34,2022-08-17 14:17:25.156250
1280,29.21,2022-08-17 14:17:25.171875
1281,30.32,2022-08-17 14:17:25.187500
1282,32.77,2022-08-17 14:17:25.203125
1283,37.07,2022-08-17 14:17:25.218750
1284,42.77,2022-08-17 14:17:25.234375
1285,48.78,2022-08-17 14:17:25.250000
1286,54.04,2022-08-17 14:17:25.265625
1287,58.03,2022-08-17 14:17:25.281250
1288,60.57,2022-08-17 14:17:25.296875
1289,61.34,2022-08-17 14:17:25.312500
1290,59.69,2022-08-17 14:17:25.328125
1291,55.09,2022-08-17 14:17:25.343750
1292,48.11,2022-08-17 14:17:25.359375
1293,41.21,2022-08-17 14:17:25.375000
1294,38.32,2022-08-17 14:17:25.390625
1295,43.21,2022-08-17 14:17:25.406250
1296,57.45,2022-08-17 14:17:25.421875
1297,79.25,2022-08-17 14:17:25.437500
1298,104.02,2022-08-17 14:17:25.453125
1299,126.42,2022-08-17 14:17:25.468750
1300,142.63,2022-08-17 14:17:25.484375
1301,151.7,2022-08-17 14:17:25.500000
1302,155.22,2022-08-17 14:17:25.515625
1303,155.74,2022-08-17 14:17:25.531250
1304,155.27,2022-08-17 14:17:25.546875
1305,154.52,2022-08-17 14:17:25.562500
1306,153.1,2022-08-17 14:17:25.578125
1307,150.32,2022-08-17 14:17:25.593750
1308,145.58,2022-08-17 14:17:25.609375
1309,138.44,2022-08-17 14:17:25.625000
1310,128.33,2022-08-17 14:17:25.640625
1311,114.59,2022-08-17 14:17:25.656250
1312,96.8,2022-08-17 14:17:25.671875
1313,75.21,2022-08-17 14:17:25.687500
1314,51.02,2022-08-17 14:17:25.703125
1315,26.26,2022-08-17 14:17:25.718750
1316,3.25,2022-08-17 14:17:25.734375
1317,-16.02,2022-08-17 14:17:25.750000
1318,-30.43,2022-08-17 14:17:25.765625
1319,-39.75,2022-08-17 14:17:25.781250
1320,-44.38,2022-08-17 14:17:25.796875
1321,-44.96,2022-08-17 14:17:25.812500
1322,-42.11,2022-08-17 14:17:25.828125
1323,-36.32,2022-08-17 14:17:25.843750
1324,-28.24,2022-08-17 14:17:25.859375
1325,-18.74,2022-08-17 14:17:25.875000
1326,-8.95,2022-08-17 14:17:25.890625
1327,-0.05,2022-08-17 14:17:25.906250
1328,6.91,2022-08-17 14:17:25.921875
1329,10.92,2022-08-17 14:17:25.937500
1330,10.63,2022-08-17 14:17:25.953125
1331,4.09,2022-08-17 14:17:25.968750
1332,-11.01,2022-08-17 14:17:25.984375
1333,-36.07,2022-08-17 14:17:26.000000
1334,-70.07,2022-08-17 14:17:26.015625
1335,-108.76,2022-08-17 14:17:26.031250
1336,-145.42,2022-08-17 14:17:26.046875
1337,-173.14,2022-08-17 14:17:26.062500
1338,-187.75,2022-08-17 14:17:26.078125
1339,-189.55,2022-08-17 14:17:26.093750
1340,-182.84,2022-08-17 14:17:26.109375
1341,-173.53,2022-08-17 14:17:26.125000
1342,-166.23,2022-08-17 14:17:26.140625
1343,-162.48,2022-08-17 14:17:26.156250
1344,-160.99,2022-08-17 14:17:26.171875
1345,-159.53,2022-08-17 14:17:26.187500
1346,-156.8,2022-08-17 14:17:26.203125
1347,-153.27,2022-08-17 14:17:26.218750
1348,-150.37,2022-08-17 14:17:26.234375
1349,-148.94,2022-08-17 14:17:26.250000
1350,-148.06,2022-08-17 14:17:26.265625
1351,-145.14,2022-08-17 14:17:26.281250
1352,-137.26,2022-08-17 14:17:26.296875
1353,-122.89,2022-08-17 14:17:26.312500
1354,-102.89,2022-08-17 14:17:26.328125
1355,-80.28,2022-08-17 14:17:26.343750
1356,-59.05,2022-08-17 14:17:26.359375
1357,-42.5,2022-08-17 14:17:26.375000
1358,-32.13,2022-08-17 14:17:26.390625
1359,-27.44,2022-08-17 14:17:26.406250
1360,-26.87,2022-08-17 14:17:26.421875
1361,-29.08,2022-08-17 14:17:26.437500
1362,-33.81,2022-08-17 14:17:26.453125
1363,-41.92,2022-08-17 14:17:26.468750
1364,-54.49,2022-08-17 14:17:26.484375
1365,-71.4,2022-08-17 14:17:26.500000
1366,-90.31,2022-08-17 14:17:26.515625
1367,-106.67,2022-08-17 14:17:26.531250
1368,-115.0,2022-08-17 14:17:26.546875
1369,-110.93,2022-08-17 14:17:26.562500
1370,-93.0,2022-08-17 14:17:26.578125
1371,-63.44,2022-08-17 14:17:26.593750
1372,-27.4,2022-08-17 14:17:26.609375
1373,8.78,2022-08-17 14:17:26.625000
1374,39.65,2022-08-17 14:17:26.640625
1375,61.99,2022-08-17 14:17:26.656250
1376,75.05,2022-08-17 14:17:26.671875
1377,79.81,2022-08-17 14:17:26.687500
1378,77.95,2022-08-17 14:17:26.703125
1379,71.0,2022-08-17 14:17:26.718750
1380,60.13,2022-08-17 14:17:26.734375
1381,46.45,2022-08-17 14:17:26.750000
1382,31.44,2022-08-17 14:17:26.765625
1383,16.99,2022-08-17 14:17:26.781250
1384,5.06,2022-08-17 14:17:26.796875
1385,-3.08,2022-08-17 14:17:26.812500
1386,-7.28,2022-08-17 14:17:26.828125
1387,-8.5,2022-08-17 14:17:26.843750
1388,-8.32,2022-08-17 14:17:26.859375
1389,-8.21,2022-08-17 14:17:26.875000
1390,-9.0,2022-08-17 14:17:26.890625
1391,-10.71,2022-08-17 14:17:26.906250
1392,-12.69,2022-08-17 14:17:26.921875
1393,-14.21,2022-08-17 14:17:26.937500
1394,-14.88,2022-08-17 14:17:26.953125
1395,-14.94,2022-08-17 14:17:26.968750
1396,-15.21,2022-08-17 14:17:26.984375
1397,-16.72,2022-08-17 14:17:27.000000
1398,-20.33,2022-08-17 14:17:27.015625
1399,-26.35,2022-08-17 14:17:27.031250
1400,-34.35,2022-08-17 14:17:27.046875
1401,-43.32,2022-08-17 14:17:27.062500
1402,-51.99,2022-08-17 14:17:27.078125
1403,-59.27,2022-08-17 14:17:27.093750
1404,-64.52,2022-08-17 14:17:27.109375
1405,-67.72,2022-08-17 14:17:27.125000
1406,-69.31,2022-08-17 14:17:27.140625
1407,-69.89,2022-08-17 14:17:27.156250
1408,-70.01,2022-08-17 14:17:27.171875
1409,-69.88,2022-08-17 14:17:27.187500
1410,-69.17,2022-08-17 14:17:27.203125
1411,-66.93,2022-08-17 14:17:27.218750
1412,-61.9,2022-08-17 14:17:27.234375
1413,-52.87,2022-08-17 14:17:27.250000
1414,-39.32,2022-08-17 14:17:27.265625
1415,-21.76,2022-08-17 14:17:27.281250
1416,-1.76,2022-08-17 14:17:27.296875
1417,18.55,2022-08-17 14:17:27.312500
1418,37.24,2022-08-17 14:17:27.328125
1419,53.09,2022-08-17 14:17:27.343750
1420,65.7,2022-08-17 14:17:27.359375
1421,75.0,2022-08-17 14:17:27.375000
1422,81.01,2022-08-17 14:17:27.390625
1423,83.61,2022-08-17 14:17:27.406250
1424,82.75,2022-08-17 14:17:27.421875
1425,78.7,2022-08-17 14:17:27.437500
1426,72.21,2022-08-17 14:17:27.453125
1427,64.4,2022-08-17 14:17:27.468750
1428,56.25,2022-08-17 14:17:27.484375
1429,48.31,2022-08-17 14:17:27.500000
1430,40.41,2022-08-17 14:17:27.515625
1431,32.26,2022-08-17 14:17:27.531250
1432,23.92,2022-08-17 14:17:27.546875
1433,15.9,2022-08-17 14:17:27.562500
1434,8.75,2022-08-17 14:17:27.578125
1435,2.74,2022-08-17 14:17:27.593750
1436,-2.39,2022-08-17 14:17:27.609375
1437,-7.21,2022-08-17 14:17:27.625000
1438,-12.24,2022-08-17 14:17:27.640625
1439,-17.83,2022-08-17 14:17:27.656250
1440,-23.64,2022-08-17 14:17:27.671875
1441,-28.77,2022-08-17 14:17:27.687500
1442,-32.28,2022-08-17 14:17:27.703125
1443,-33.74,2022-08-17 14:17:27.718750
1444,-33.55,2022-08-17 14:17:27.734375
1445,-32.65,2022-08-17 14:17:27.750000
1446,-32.08,2022-08-17 14:17:27.765625
1447,-32.67,2022-08-17 14:17:27.781250
1448,-35.19,2022-08-17 14:17:27.796875
1449,-39.73,2022-08-17 14:17:27.812500
1450,-45.4,2022-08-17 14:17:27.828125
1451,-50.23,2022-08-17 14:17:27.843750
1452,-51.52,2022-08-17 14:17:27.859375
1453,-46.49,2022-08-17 14:17:27.875000
1454,-32.99,2022-08-17 14:17:27.890625
1455,-10.29,2022-08-17 14:17:27.906250
1456,23.34,2022-08-17 14:17:27.921875
1457,64.99,2022-08-17 14:17:27.937500
1458,107.31,2022-08-17 14:17:27.953125
1459,141.03,2022-08-17 14:17:27.968750
1460,159.33,2022-08-17 14:17:27.984375
1461,160.94,2022-08-17 14:17:28.000000
1462,149.95,2022-08-17 14:17:28.015625
1463,133.2,2022-08-17 14:17:28.031250
1464,117.23,2022-08-17 14:17:28.046875
1465,104.9,2022-08-17 14:17:28.062500
1466,95.71,2022-08-17 14:17:28.078125
1467,87.74,2022-08-17 14:17:28.093750
1468,79.24,2022-08-17 14:17:28.109375
1469,69.69,2022-08-17 14:17:28.125000
1470,59.74,2022-08-17 14:17:28.140625
1471,50.46,2022-08-17 14:17:28.156250
1472,42.99,2022-08-17 14:17:28.171875
1473,37.42,2022-08-17 14:17:28.187500
1474,33.0,2022-08-17 14:17:28.203125
1475,28.45,2022-08-17 14:17:28.218750
1476,23.1,2022-08-17 14:17:28.234375
1477,17.34,2022-08-17 14:17:28.250000
1478,12.34,2022-08-17 14:17:28.265625
1479,9.21,2022-08-17 14:17:28.281250
1480,8.24,2022-08-17 14:17:28.296875
1481,8.7,2022-08-17 14:17:28.312500
1482,9.18,2022-08-17 14:17:28.328125
1483,8.37,2022-08-17 14:17:28.343750
1484,5.68,2022-08-17 14:17:28.359375
1485,1.46,2022-08-17 14:17:28.375000
1486,-3.12,2022-08-17 14:17:28.390625
1487,-6.87,2022-08-17 14:17:28.406250
1488,-9.19,2022-08-17 14:17:28.421875
1489,-10.41,2022-08-17 14:17:28.437500
1490,-11.49,2022-08-17 14:17:28.453125
1491,-13.55,2022-08-17 14:17:28.468750
1492,-17.26,2022-08-17 14:17:28.484375
1493,-22.59,2022-08-17 14:17:28.500000
1494,-28.98,2022-08-17 14:17:28.515625
1495,-35.66,2022-08-17 14:17:28.531250
1496,-42.16,2022-08-17 14:17:28.546875
1497,-48.58,2022-08-17 14:17:28.562500
1498,-55.46,2022-08-17 14:17:28.578125
1499,-63.44,2022-08-17 14:17:28.593750
1500,-72.76,2022-08-17 14:17:28.609375
1501,-83.03,2022-08-17 14:17:28.625000
1502,-93.28,2022-08-17 14:17:28.640625
1503,-102.18,2022-08-17 14:17:28.656250
1504,-108.46,2022-08-17 14:17:28.671875
1505,-111.16,2022-08-17 14:17:28.687500
1506,-109.75,2022-08-17 14:17:28.703125
1507,-104.1,2022-08-17 14:17:28.718750
1508,-94.48,2022-08-17 14:17:28.734375
1509,-81.63,2022-08-17 14:17:28.750000
1510,-66.71,2022-08-17 14:17:28.765625
1511,-51.07,2022-08-17 14:17:28.781250
1512,-35.96,2022-08-17 14:17:28.796875
1513,-22.18,2022-08-17 14:17:28.812500
1514,-9.98,2022-08-17 14:17:28.828125
1515,0.73,2022-08-17 14:17:28.843750
1516,9.98,2022-08-17 14:17:28.859375
1517,17.34,2022-08-17 14:17:28.875000
1518,21.92,2022-08-17 14:17:28.890625
1519,22.93,2022-08-17 14:17:28.906250
1520,20.25,2022-08-17 14:17:28.921875
1521,14.97,2022-08-17 14:17:28.937500
1522,9.24,2022-08-17 14:17:28.953125
1523,5.59,2022-08-17 14:17:28.968750
1524,5.97,2022-08-17 14:17:28.984375
1525,11.0,2022-08-17 14:17:29.000000
1526,19.85,2022-08-17 14:17:29.015625
1527,30.69,2022-08-17 14:17:29.031250
1528,41.58,2022-08-17 14:17:29.046875
1529,51.27,2022-08-17 14:17:29.062500
1530,59.61,2022-08-17 14:17:29.078125
1531,67.29,2022-08-17 14:17:29.093750
1532,75.3,2022-08-17 14:17:29.109375
1533,84.29,2022-08-17 14:17:29.125000
1534,94.2,2022-08-17 14:17:29.140625
1535,104.4,2022-08-17 14:17:29.156250
1536,114.12,2022-08-17 14:17:29.171875
1537,122.89,2022-08-17 14:17:29.187500
1538,130.67,2022-08-17 14:17:29.203125
1539,137.59,2022-08-17 14:17:29.218750
1540,143.57,2022-08-17 14:17:29.234375
1541,148.02,2022-08-17 14:17:29.250000
1542,149.97,2022-08-17 14:17:29.265625
1543,148.51,2022-08-17 14:17:29.281250
1544,143.35,2022-08-17 14:17:29.296875
1545,135.18,2022-08-17 14:17:29.312500
1546,125.53,2022-08-17 14:17:29.328125
1547,116.3,2022-08-17 14:17:29.343750
1548,109.19,2022-08-17 14:17:29.359375
1549,105.24,2022-08-17 14:17:29.375000
1550,104.55,2022-08-17 14:17:29.390625
1551,106.4,2022-08-17 14:17:29.406250
1552,109.38,2022-08-17 14:17:29.421875
1553,111.66,2022-08-17 14:17:29.437500
1554,111.39,2022-08-17 14:17:29.453125
1555,107.1,2022-08-17 14:17:29.468750
1556,98.09,2022-08-17 14:17:29.484375
1557,84.61,2022-08-17 14:17:29.500000
1558,67.61,2022-08-17 14:17:29.515625
1559,48.31,2022-08-17 14:17:29.531250
1560,27.55,2022-08-17 14:17:29.546875
1561,5.54,2022-08-17 14:17:29.562500
1562,-18.03,2022-08-17 14:17:29.578125
1563,-43.35,2022-08-17 14:17:29.593750
1564,-69.97,2022-08-17 14:17:29.609375
1565,-96.58,2022-08-17 14:17:29.625000
1566,-121.34,2022-08-17 14:17:29.640625
1567,-142.61,2022-08-17 14:17:29.656250
1568,-159.56,2022-08-17 14:17:29.671875
1569,-172.41,2022-08-17 14:17:29.687500
1570,-182.02,2022-08-17 14:17:29.703125
1571,-189.25,2022-08-17 14:17:29.718750
1572,-194.45,2022-08-17 14:17:29.734375
1573,-197.31,2022-08-17 14:17:29.750000
1574,-197.15,2022-08-17 14:17:29.765625
1575,-193.41,2022-08-17 14:17:29.781250
1576,-186.1,2022-08-17 14:17:29.796875
1577,-175.92,2022-08-17 14:17:29.812500
1578,-164.11,2022-08-17 14:17:29.828125
1579,-152.13,2022-08-17 14:17:29.843750
1580,-141.11,2022-08-17 14:17:29.859375
1581,-131.45,2022-08-17 14:17:29.875000
1582,-122.63,2022-08-17 14:17:29.890625
1583,-113.38,2022-08-17 14:17:29.906250
1584,-102.26,2022-08-17 14:17:29.921875
1585,-88.32,2022-08-17 14:17:29.937500
1586,-71.73,2022-08-17 14:17:29.953125
1587,-53.82,2022-08-17 14:17:29.968750
1588,-36.71,2022-08-17 14:17:29.984375
1589,-22.52,2022-08-17 14:17:30.000000
1590,-12.65,2022-08-17 14:17:30.015625
1591,-7.4,2022-08-17 14:17:30.031250
1592,-5.99,2022-08-17 14:17:30.046875
1593,-7.05,2022-08-17 14:17:30.062500
1594,-9.05,2022-08-17 14:17:30.078125
1595,-10.64,2022-08-17 14:17:30.093750
1596,-10.85,2022-08-17 14:17:30.109375
1597,-9.05,2022-08-17 14:17:30.125000
1598,-5.01,2022-08-17 14:17:30.140625
1599,1.08,2022-08-17 14:17:30.156250
1600,8.69,2022-08-17 14:17:30.171875
1601,16.97,2022-08-17 14:17:30.187500
1602,24.99,2022-08-17 14:17:30.203125
1603,31.92,2022-08-17 14:17:30.218750
1604,37.2,2022-08-17 14:17:30.234375
1605,40.63,2022-08-17 14:17:30.250000
1606,42.35,2022-08-17 14:17:30.265625
1607,42.77,2022-08-17 14:17:30.281250
1608,42.37,2022-08-17 14:17:30.296875
1609,41.66,2022-08-17 14:17:30.312500
1610,41.02,2022-08-17 14:17:30.328125
1611,40.58,2022-08-17 14:17:30.343750
1612,40.25,2022-08-17 14:17:30.359375
1613,39.7,2022-08-17 14:17:30.375000
1614,38.53,2022-08-17 14:17:30.390625
1615,36.44,2022-08-17 14:17:30.406250
1616,33.35,2022-08-17 14:17:30.421875
1617,29.42,2022-08-17 14:17:30.437500
1618,24.99,2022-08-17 14:17:30.453125
1619,20.44,2022-08-17 14:17:30.468750
1620,16.03,2022-08-17 14:17:30.484375
1621,11.88,2022-08-17 14:17:30.500000
1622,7.94,2022-08-17 14:17:30.515625
1623,4.11,2022-08-17 14:17:30.531250
1624,0.33,2022-08-17 14:17:30.546875
1625,-3.44,2022-08-17 14:17:30.562500
1626,-7.09,2022-08-17 14:17:30.578125
1627,-10.49,2022-08-17 14:17:30.593750
1628,-13.45,2022-08-17 14:17:30.609375
1629,-15.84,2022-08-17 14:17:30.625000
1630,-17.59,2022-08-17 14:17:30.640625
1631,-18.66,2022-08-17 14:17:30.656250
1632,-19.1,2022-08-17 14:17:30.671875
1633,-18.96,2022-08-17 14:17:30.687500
1634,-18.31,2022-08-17 14:17:30.703125
1635,-17.3,2022-08-17 14:17:30.718750
1636,-16.12,2022-08-17 14:17:30.734375
1637,-15.04,2022-08-17 14:17:30.750000
1638,-14.24,2022-08-17 14:17:30.765625
1639,-13.64,2022-08-17 14:17:30.781250
1640,-12.93,2022-08-17 14:17:30.796875
1641,-11.54,2022-08-17 14:17:30.812500
1642,-8.91,2022-08-17 14:17:30.828125
1643,-4.71,2022-08-17 14:17:30.843750
1644,0.95,2022-08-17 14:17:30.859375
1645,7.55,2022-08-17 14:17:30.875000
1646,14.34,2022-08-17 14:17:30.890625
1647,20.51,2022-08-17 14:17:30.906250
1648,25.53,2022-08-17 14:17:30.921875
1649,29.15,2022-08-17 14:17:30.937500
1650,31.44,2022-08-17 14:17:30.953125
1651,32.56,2022-08-17 14:17:30.968750
1652,32.73,2022-08-17 14:17:30.984375
1653,32.07,2022-08-17 14:17:31.000000
1654,30.64,2022-08-17 14:17:31.015625
1655,28.49,2022-08-17 14:17:31.031250
1656,25.73,2022-08-17 14:17:31.046875
1657,22.57,2022-08-17 14:17:31.062500
1658,19.25,2022-08-17 14:17:31.078125
1659,15.95,2022-08-17 14:17:31.093750
1660,12.67,2022-08-17 14:17:31.109375
1661,9.33,2022-08-17 14:17:31.125000
1662,5.86,2022-08-17 14:17:31.140625
1663,2.32,2022-08-17 14:17:31.156250
1664,-1.0,2022-08-17 14:17:31.171875
1665,-3.74,2022-08-17 14:17:31.187500
1666,-5.59,2022-08-17 14:17:31.203125
1667,-6.53,2022-08-17 14:17:31.218750
1668,-6.84,2022-08-17 14:17:31.234375
1669,-7.07,2022-08-17 14:17:31.250000
1670,-7.77,2022-08-17 14:17:31.265625
1671,-9.33,2022-08-17 14:17:31.281250
1672,-11.88,2022-08-17 14:17:31.296875
1673,-15.26,2022-08-17 14:17:31.312500
1674,-19.2,2022-08-17 14:17:31.328125
1675,-23.38,2022-08-17 14:17:31.343750
1676,-27.57,2022-08-17 14:17:31.359375
1677,-31.64,2022-08-17 14:17:31.375000
1678,-35.5,2022-08-17 14:17:31.390625
1679,-39.1,2022-08-17 14:17:31.406250
1680,-42.34,2022-08-17 14:17:31.421875
1681,-45.0,2022-08-17 14:17:31.437500
1682,-46.68,2022-08-17 14:17:31.453125
1683,-46.8,2022-08-17 14:17:31.468750
1684,-44.68,2022-08-17 14:17:31.484375
1685,-39.84,2022-08-17 14:17:31.500000
1686,-32.25,2022-08-17 14:17:31.515625
1687,-22.4,2022-08-17 14:17:31.531250
1688,-11.21,2022-08-17 14:17:31.546875
1689,0.41,2022-08-17 14:17:31.562500
1690,11.82,2022-08-17 14:17:31.578125
1691,22.77,2022-08-17 14:17:31.593750
1692,33.32,2022-08-17 14:17:31.609375
1693,43.6,2022-08-17 14:17:31.625000
1694,53.6,2022-08-17 14:17:31.640625
1695,63.18,2022-08-17 14:17:31.656250
1696,72.06,2022-08-17 14:17:31.671875
1697,79.98,2022-08-17 14:17:31.687500
1698,86.66,2022-08-17 14:17:31.703125
1699,91.85,2022-08-17 14:17:31.718750
1700,95.27,2022-08-17 14:17:31.734375
1701,96.74,2022-08-17 14:17:31.750000
1702,96.26,2022-08-17 14:17:31.765625
1703,94.1,2022-08-17 14:17:31.781250
1704,90.74,2022-08-17 14:17:31.796875
1705,86.61,2022-08-17 14:17:31.812500
1706,81.95,2022-08-17 14:17:31.828125
1707,76.79,2022-08-17 14:17:31.843750
1708,71.06,2022-08-17 14:17:31.859375
1709,64.85,2022-08-17 14:17:31.875000
1710,58.52,2022-08-17 14:17:31.890625
1711,52.73,2022-08-17 14:17:31.906250
1712,48.21,2022-08-17 14:17:31.921875
1713,45.55,2022-08-17 14:17:31.937500
1714,45.02,2022-08-17 14:17:31.953125
1715,46.27,2022-08-17 14:17:31.968750
1716,48.47,2022-08-17 14:17:31.984375
1717,50.38,2022-08-17 14:17:32.000000
1718,50.69,2022-08-17 14:17:32.015625
1719,48.48,2022-08-17 14:17:32.031250
1720,43.44,2022-08-17 14:17:32.046875
1721,36.02,2022-08-17 14:17:32.062500
1722,27.19,2022-08-17 14:17:32.078125
1723,18.02,2022-08-17 14:17:32.093750
1724,9.31,2022-08-17 14:17:32.109375
1725,1.38,2022-08-17 14:17:32.125000
1726,-5.88,2022-08-17 14:17:32.140625
1727,-12.65,2022-08-17 14:17:32.156250
1728,-18.92,2022-08-17 14:17:32.171875
1729,-24.28,2022-08-17 14:17:32.187500
1730,-28.07,2022-08-17 14:17:32.203125
1731,-29.64,2022-08-17 14:17:32.218750
1732,-28.68,2022-08-17 14:17:32.234375
1733,-25.45,2022-08-17 14:17:32.250000
1734,-20.64,2022-08-17 14:17:32.265625
1735,-15.2,2022-08-17 14:17:32.281250
1736,-9.98,2022-08-17 14:17:32.296875
1737,-5.58,2022-08-17 14:17:32.312500
1738,-2.28,2022-08-17 14:17:32.328125
1739,-0.03,2022-08-17 14:17:32.343750
1740,1.52,2022-08-17 14:17:32.359375
1741,2.85,2022-08-17 14:17:32.375000
1742,4.37,2022-08-17 14:17:32.390625
1743,6.23,2022-08-17 14:17:32.406250
1744,8.12,2022-08-17 14:17:32.421875
1745,9.38,2022-08-17 14:17:32.437500
1746,9.29,2022-08-17 14:17:32.453125
1747,7.43,2022-08-17 14:17:32.468750
1748,3.88,2022-08-17 14:17:32.484375
1749,-0.93,2022-08-17 14:17:32.500000
1750,-6.49,2022-08-17 14:17:32.515625
1751,-12.55,2022-08-17 14:17:32.531250
1752,-19.11,2022-08-17 14:17:32.546875
1753,-26.06,2022-08-17 14:17:32.562500
1754,-32.85,2022-08-17 14:17:32.578125
1755,-38.38,2022-08-17 14:17:32.593750
1756,-41.35,2022-08-17 14:17:32.609375
1757,-40.98,2022-08-17 14:17:32.625000
1758,-37.53,2022-08-17 14:17:32.640625
1759,-32.38,2022-08-17 14:17:32.656250
1760,-27.46,2022-08-17 14:17:32.671875
1761,-24.47,2022-08-17 14:17:32.687500
1762,-24.16,2022-08-17 14:17:32.703125
1763,-26.24,2022-08-17 14:17:32.718750
1764,-29.72,2022-08-17 14:17:32.734375
1765,-33.56,2022-08-17 14:17:32.750000
1766,-37.14,2022-08-17 14:17:32.765625
1767,-40.43,2022-08-17 14:17:32.781250
1768,-43.73,2022-08-17 14:17:32.796875
1769,-47.41,2022-08-17 14:17:32.812500
1770,-51.66,2022-08-17 14:17:32.828125
1771,-56.43,2022-08-17 14:17:32.843750
1772,-61.52,2022-08-17 14:17:32.859375
1773,-66.63,2022-08-17 14:17:32.875000
1774,-71.43,2022-08-17 14:17:32.890625
1775,-75.48,2022-08-17 14:17:32.906250
1776,-78.3,2022-08-17 14:17:32.921875
1777,-79.37,2022-08-17 14:17:32.937500
1778,-78.24,2022-08-17 14:17:32.953125
1779,-74.68,2022-08-17 14:17:32.968750
1780,-68.71,2022-08-17 14:17:32.984375
1781,-60.72,2022-08-17 14:17:33.000000
1782,-51.39,2022-08-17 14:17:33.015625
1783,-41.58,2022-08-17 14:17:33.031250
1784,-32.16,2022-08-17 14:17:33.046875
1785,-23.8,2022-08-17 14:17:33.062500
1786,-16.89,2022-08-17 14:17:33.078125
1787,-11.44,2022-08-17 14:17:33.093750
1788,-7.27,2022-08-17 14:17:33.109375
1789,-4.13,2022-08-17 14:17:33.125000
1790,-1.9,2022-08-17 14:17:33.140625
1791,-0.54,2022-08-17 14:17:33.156250
1792,-0.14,2022-08-17 14:17:33.171875
1793,-0.67,2022-08-17 14:17:33.187500
1794,-1.93,2022-08-17 14:17:33.203125
1795,-3.6,2022-08-17 14:17:33.218750
1796,-5.3,2022-08-17 14:17:33.234375
1797,-6.71,2022-08-17 14:17:33.250000
1798,-7.64,2022-08-17 14:17:33.265625
1799,-8.05,2022-08-17 14:17:33.281250
1800,-7.98,2022-08-17 14:17:33.296875
1801,-7.58,2022-08-17 14:17:33.312500
1802,-7.04,2022-08-17 14:17:33.328125
1803,-6.54,2022-08-17 14:17:33.343750
1804,-6.28,2022-08-17 14:17:33.359375
1805,-6.34,2022-08-17 14:17:33.375000
1806,-6.69,2022-08-17 14:17:33.390625
1807,-7.26,2022-08-17 14:17:33.406250
1808,-7.95,2022-08-17 14:17:33.421875
1809,-8.67,2022-08-17 14:17:33.437500
1810,-9.41,2022-08-17 14:17:33.453125
1811,-10.17,2022-08-17 14:17:33.468750
1812,-11.03,2022-08-17 14:17:33.484375
1813,-12.04,2022-08-17 14:17:33.500000
1814,-13.27,2022-08-17 14:17:33.515625
1815,-14.76,2022-08-17 14:17:33.531250
1816,-16.53,2022-08-17 14:17:33.546875
1817,-18.49,2022-08-17 14:17:33.562500
1818,-20.46,2022-08-17 14:17:33.578125
1819,-22.27,2022-08-17 14:17:33.593750
1820,-23.78,2022-08-17 14:17:33.609375
1821,-24.94,2022-08-17 14:17:33.625000
1822,-25.76,2022-08-17 14:17:33.640625
1823,-26.13,2022-08-17 14:17:33.656250
1824,-25.75,2022-08-17 14:17:33.671875
1825,-24.1,2022-08-17 14:17:33.687500
1826,-20.58,2022-08-17 14:17:33.703125
1827,-14.77,2022-08-17 14:17:33.718750
1828,-6.61,2022-08-17 14:17:33.734375
1829,3.47,2022-08-17 14:17:33.750000
1830,14.69,2022-08-17 14:17:33.765625
1831,26.09,2022-08-17 14:17:33.781250
1832,36.84,2022-08-17 14:17:33.796875
1833,46.33,2022-08-17 14:17:33.812500
1834,54.15,2022-08-17 14:17:33.828125
1835,60.02,2022-08-17 14:17:33.843750
1836,63.65,2022-08-17 14:17:33.859375
1837,64.77,2022-08-17 14:17:33.875000
1838,63.28,2022-08-17 14:17:33.890625
1839,59.31,2022-08-17 14:17:33.906250
1840,53.41,2022-08-17 14:17:33.921875
1841,46.37,2022-08-17 14:17:33.937500
1842,39.08,2022-08-17 14:17:33.953125
1843,32.32,2022-08-17 14:17:33.968750
1844,26.59,2022-08-17 14:17:33.984375
1845,22.06,2022-08-17 14:17:34.000000
1846,18.63,2022-08-17 14:17:34.015625
1847,16.09,2022-08-17 14:17:34.031250
1848,14.21,2022-08-17 14:17:34.046875
1849,12.81,2022-08-17 14:17:34.062500
1850,11.8,2022-08-17 14:17:34.078125
1851,11.08,2022-08-17 14:17:34.093750
1852,10.51,2022-08-17 14:17:34.109375
1853,9.88,2022-08-17 14:17:34.125000
1854,8.93,2022-08-17 14:17:34.140625
1855,7.4,2022-08-17 14:17:34.156250
1856,5.15,2022-08-17 14:17:34.171875
1857,2.11,2022-08-17 14:17:34.187500
1858,-1.65,2022-08-17 14:17:34.203125
1859,-5.94,2022-08-17 14:17:34.218750
1860,-10.53,2022-08-17 14:17:34.234375
1861,-15.16,2022-08-17 14:17:34.250000
1862,-19.65,2022-08-17 14:17:34.265625
1863,-23.93,2022-08-17 14:17:34.281250
1864,-28.1,2022-08-17 14:17:34.296875
1865,-32.37,2022-08-17 14:17:34.312500
1866,-37.08,2022-08-17 14:17:34.328125
1867,-42.59,2022-08-17 14:17:34.343750
1868,-49.15,2022-08-17 14:17:34.359375
1869,-56.86,2022-08-17 14:17:34.375000
1870,-65.54,2022-08-17 14:17:34.390625
1871,-74.73,2022-08-17 14:17:34.406250
1872,-83.65,2022-08-17 14:17:34.421875
1873,-91.24,2022-08-17 14:17:34.437500
1874,-96.33,2022-08-17 14:17:34.453125
1875,-97.98,2022-08-17 14:17:34.468750
1876,-95.73,2022-08-17 14:17:34.484375
1877,-89.8,2022-08-17 14:17:34.500000
1878,-81.06,2022-08-17 14:17:34.515625
1879,-70.73,2022-08-17 14:17:34.531250
1880,-59.94,2022-08-17 14:17:34.546875
1881,-49.38,2022-08-17 14:17:34.562500
1882,-39.24,2022-08-17 14:17:34.578125
1883,-29.39,2022-08-17 14:17:34.593750
1884,-19.66,2022-08-17 14:17:34.609375
1885,-10.1,2022-08-17 14:17:34.625000
1886,-1.04,2022-08-17 14:17:34.640625
1887,7.06,2022-08-17 14:17:34.656250
1888,13.86,2022-08-17 14:17:34.671875
1889,19.34,2022-08-17 14:17:34.687500
1890,23.84,2022-08-17 14:17:34.703125
1891,27.91,2022-08-17 14:17:34.718750
1892,32.07,2022-08-17 14:17:34.734375
1893,36.66,2022-08-17 14:17:34.750000
1894,41.69,2022-08-17 14:17:34.765625
1895,46.9,2022-08-17 14:17:34.781250
1896,51.82,2022-08-17 14:17:34.796875
1897,56.03,2022-08-17 14:17:34.812500
1898,59.16,2022-08-17 14:17:34.828125
1899,61.05,2022-08-17 14:17:34.843750
1900,61.69,2022-08-17 14:17:34.859375
1901,61.11,2022-08-17 14:17:34.875000
1902,59.41,2022-08-17 14:17:34.890625
1903,56.67,2022-08-17 14:17:34.906250
1904,52.99,2022-08-17 14:17:34.921875
1905,48.56,2022-08-17 14:17:34.937500
1906,43.63,2022-08-17 14:17:34.953125
1907,38.49,2022-08-17 14:17:34.968750
1908,33.38,2022-08-17 14:17:34.984375
1909,28.48,2022-08-17 14:17:35.000000
1910,23.95,2022-08-17 14:17:35.015625
1911,19.96,2022-08-17 14:17:35.031250
1912,16.68,2022-08-17 14:17:35.046875
1913,14.28,2022-08-17 14:17:35.062500
1914,12.76,2022-08-17 14:17:35.078125
1915,11.92,2022-08-17 14:17:35.093750
1916,11.3,2022-08-17 14:17:35.109375
1917,10.26,2022-08-17 14:17:35.125000
1918,8.16,2022-08-17 14:17:35.140625
1919,4.6,2022-08-17 14:17:35.156250
1920,-0.46,2022-08-17 14:17:35.171875
1921,-6.53,2022-08-17 14:17:35.187500
1922,-12.67,2022-08-17 14:17:35.203125
1923,-17.67,2022-08-17 14:17:35.218750
1924,-20.41,2022-08-17 14:17:35.234375
1925,-20.14,2022-08-17 14:17:35.250000
1926,-16.75,2022-08-17 14:17:35.265625
1927,-10.72,2022-08-17 14:17:35.281250
1928,-2.97,2022-08-17 14:17:35.296875
1929,5.43,2022-08-17 14:17:35.312500
1930,13.57,2022-08-17 14:17:35.328125
1931,20.74,2022-08-17 14:17:35.343750
1932,26.49,2022-08-17 14:17:35.359375
1933,30.52,2022-08-17 14:17:35.375000
1934,32.71,2022-08-17 14:17:35.390625
1935,33.19,2022-08-17 14:17:35.406250
1936,32.37,2022-08-17 14:17:35.421875
1937,30.83,2022-08-17 14:17:35.437500
1938,29.24,2022-08-17 14:17:35.453125
1939,28.16,2022-08-17 14:17:35.468750
1940,28.0,2022-08-17 14:17:35.484375
1941,29.03,2022-08-17 14:17:35.500000
1942,31.47,2022-08-17 14:17:35.515625
1943,35.5,2022-08-17 14:17:35.531250
1944,41.15,2022-08-17 14:17:35.546875
1945,48.18,2022-08-17 14:17:35.562500
1946,55.96,2022-08-17 14:17:35.578125
1947,63.61,2022-08-17 14:17:35.593750
1948,70.23,2022-08-17 14:17:35.609375
1949,75.21,2022-08-17 14:17:35.625000
1950,78.39,2022-08-17 14:17:35.640625
1951,80.0,2022-08-17 14:17:35.656250
1952,80.5,2022-08-17 14:17:35.671875
1953,80.3,2022-08-17 14:17:35.687500
1954,79.58,2022-08-17 14:17:35.703125
1955,78.25,2022-08-17 14:17:35.718750
1956,76.02,2022-08-17 14:17:35.734375
1957,72.58,2022-08-17 14:17:35.750000
1958,67.67,2022-08-17 14:17:35.765625
1959,61.14,2022-08-17 14:17:35.781250
1960,52.94,2022-08-17 14:17:35.796875
1961,43.17,2022-08-17 14:17:35.812500
1962,32.03,2022-08-17 14:17:35.828125
1963,19.87,2022-08-17 14:17:35.843750
1964,7.24,2022-08-17 14:17:35.859375
1965,-5.23,2022-08-17 14:17:35.875000
1966,-16.9,2022-08-17 14:17:35.890625
1967,-27.3,2022-08-17 14:17:35.906250
1968,-36.21,2022-08-17 14:17:35.921875
1969,-43.75,2022-08-17 14:17:35.937500
1970,-50.16,2022-08-17 14:17:35.953125
1971,-55.61,2022-08-17 14:17:35.968750
1972,-59.99,2022-08-17 14:17:35.984375
1973,-62.85,2022-08-17 14:17:36.000000
1974,-63.65,2022-08-17 14:17:36.015625
1975,-61.98,2022-08-17 14:17:36.031250
1976,-57.8,2022-08-17 14:17:36.046875
1977,-51.54,2022-08-17 14:17:36.062500
1978,-43.95,2022-08-17 14:17:36.078125
1979,-35.88,2022-08-17 14:17:36.093750
1980,-28.01,2022-08-17 14:17:36.109375
1981,-20.81,2022-08-17 14:17:36.125000
1982,-14.46,2022-08-17 14:17:36.140625
1983,-9.04,2022-08-17 14:17:36.156250
1984,-4.53,2022-08-17 14:17:36.171875
1985,-0.96,2022-08-17 14:17:36.187500
1986,1.65,2022-08-17 14:17:36.203125
1987,3.31,2022-08-17 14:17:36.218750
1988,4.15,2022-08-17 14:17:36.234375
1989,4.4,2022-08-17 14:17:36.250000
1990,4.35,2022-08-17 14:17:36.265625
1991,4.32,2022-08-17 14:17:36.281250
1992,4.6,2022-08-17 14:17:36.296875
1993,5.34,2022-08-17 14:17:36.312500
1994,6.54,2022-08-17 14:17:36.328125
1995,8.04,2022-08-17 14:17:36.343750
1996,9.56,2022-08-17 14:17:36.359375
1997,10.87,2022-08-17 14:17:36.375000
1998,11.76,2022-08-17 14:17:36.390625
1999,12.17,2022-08-17 14:17:36.406250
2000,12.15,2022-08-17 14:17:36.421875
2001,11.8,2022-08-17 14:17:36.437500
2002,11.22,2022-08-17 14:17:36.453125
2003,10.46,2022-08-17 14:17:36.468750
2004,9.49,2022-08-17 14:17:36.484375
2005,8.23,2022-08-17 14:17:36.500000
2006,6.61,2022-08-17 14:17:36.515625
2007,4.62,2022-08-17 14:17:36.531250
2008,2.29,2022-08-17 14:17:36.546875
2009,-0.29,2022-08-17 14:17:36.562500
2010,-3.06,2022-08-17 14:17:36.578125
2011,-5.99,2022-08-17 14:17:36.593750
2012,-9.09,2022-08-17 14:17:36.609375
2013,-12.37,2022-08-17 14:17:36.625000
2014,-15.82,2022-08-17 14:17:36.640625
2015,-19.35,2022-08-17 14:17:36.656250
2016,-22.83,2022-08-17 14:17:36.671875
2017,-26.17,2022-08-17 14:17:36.687500
2018,-29.39,2022-08-17 14:17:36.703125
2019,-32.56,2022-08-17 14:17:36.718750
2020,-35.77,2022-08-17 14:17:36.734375
2021,-38.93,2022-08-17 14:17:36.750000
2022,-41.62,2022-08-17 14:17:36.765625
2023,-43.14,2022-08-17 14:17:36.781250
2024,-42.77,2022-08-17 14:17:36.796875
2025,-39.97,2022-08-17 14:17:36.812500
2026,-34.75,2022-08-17 14:17:36.828125
2027,-27.64,2022-08-17 14:17:36.843750
2028,-19.51,2022-08-17 14:17:36.859375
2029,-11.33,2022-08-17 14:17:36.875000
2030,-3.8,2022-08-17 14:17:36.890625
2031,2.67,2022-08-17 14:17:36.906250
2032,7.95,2022-08-17 14:17:36.921875
2033,12.03,2022-08-17 14:17:36.937500
2034,14.86,2022-08-17 14:17:36.953125
2035,16.39,2022-08-17 14:17:36.968750
2036,16.63,2022-08-17 14:17:36.984375
2037,15.73,2022-08-17 14:17:37.000000
2038,14.05,2022-08-17 14:17:37.015625
2039,12.02,2022-08-17 14:17:37.031250
2040,10.1,2022-08-17 14:17:37.046875
2041,8.57,2022-08-17 14:17:37.062500
2042,7.56,2022-08-17 14:17:37.078125
2043,7.09,2022-08-17 14:17:37.093750
2044,7.08,2022-08-17 14:17:37.109375
2045,7.42,2022-08-17 14:17:37.125000
2046,8.02,2022-08-17 14:17:37.140625
2047,8.8,2022-08-17 14:17:37.156250
2048,9.72,2022-08-17 14:17:37.171875
2049,10.73,2022-08-17 14:17:37.187500
2050,11.78,2022-08-17 14:17:37.203125
2051,12.74,2022-08-17 14:17:37.218750
2052,13.58,2022-08-17 14:17:37.234375
2053,14.23,2022-08-17 14:17:37.250000
2054,14.63,2022-08-17 14:17:37.265625
2055,14.76,2022-08-17 14:17:37.281250
2056,14.6,2022-08-17 14:17:37.296875
2057,14.14,2022-08-17 14:17:37.312500
2058,13.41,2022-08-17 14:17:37.328125
2059,12.45,2022-08-17 14:17:37.343750
2060,11.27,2022-08-17 14:17:37.359375
2061,10.07,2022-08-17 14:17:37.375000
2062,9.03,2022-08-17 14:17:37.390625
2063,8.28,2022-08-17 14:17:37.406250
2064,7.82,2022-08-17 14:17:37.421875
2065,7.48,2022-08-17 14:17:37.437500
2066,6.94,2022-08-17 14:17:37.453125
2067,5.81,2022-08-17 14:17:37.468750
2068,3.75,2022-08-17 14:17:37.484375
2069,0.59,2022-08-17 14:17:37.500000
2070,-3.16,2022-08-17 14:17:37.515625
2071,-6.74,2022-08-17 14:17:37.531250
2072,-9.3,2022-08-17 14:17:37.546875
2073,-10.09,2022-08-17 14:17:37.562500
2074,-8.69,2022-08-17 14:17:37.578125
2075,-5.03,2022-08-17 14:17:37.593750
2076,0.67,2022-08-17 14:17:37.609375
2077,7.86,2022-08-17 14:17:37.625000
2078,15.85,2022-08-17 14:17:37.640625
2079,24.72,2022-08-17 14:17:37.656250
2080,34.55,2022-08-17 14:17:37.671875
2081,45.27,2022-08-17 14:17:37.687500
2082,56.48,2022-08-17 14:17:37.703125
2083,67.41,2022-08-17 14:17:37.718750
2084,77.16,2022-08-17 14:17:37.734375
2085,85.08,2022-08-17 14:17:37.750000
2086,90.83,2022-08-17 14:17:37.765625
2087,94.47,2022-08-17 14:17:37.781250
2088,97.7,2022-08-17 14:17:37.796875
2089,102.21,2022-08-17 14:17:37.812500
2090,109.04,2022-08-17 14:17:37.828125
2091,118.2,2022-08-17 14:17:37.843750
2092,128.72,2022-08-17 14:17:37.859375
2093,139.13,2022-08-17 14:17:37.875000
2094,148.26,2022-08-17 14:17:37.890625
2095,155.48,2022-08-17 14:17:37.906250
2096,160.75,2022-08-17 14:17:37.921875
2097,166.26,2022-08-17 14:17:37.937500
2098,174.14,2022-08-17 14:17:37.953125
2099,185.71,2022-08-17 14:17:37.968750
2100,201.0,2022-08-17 14:17:37.984375
2101,218.74,2022-08-17 14:17:38.000000
2102,237.12,2022-08-17 14:17:38.015625
2103,254.77,2022-08-17 14:17:38.031250
2104,271.24,2022-08-17 14:17:38.046875
2105,275.39,2022-08-17 14:17:38.062500
2106,259.79,2022-08-17 14:17:38.078125
2107,221.29,2022-08-17 14:17:38.093750
2108,163.0,2022-08-17 14:17:38.109375
2109,93.38,2022-08-17 14:17:38.125000
2110,22.36,2022-08-17 14:17:38.140625
2111,-42.41,2022-08-17 14:17:38.156250
2112,-96.96,2022-08-17 14:17:38.171875
2113,-140.51,2022-08-17 14:17:38.187500
2114,-174.1,2022-08-17 14:17:38.203125
2115,-197.77,2022-08-17 14:17:38.218750
2116,-212.0,2022-08-17 14:17:38.234375
2117,-217.78,2022-08-17 14:17:38.250000
2118,-216.87,2022-08-17 14:17:38.265625
2119,-211.57,2022-08-17 14:17:38.281250
2120,-204.19,2022-08-17 14:17:38.296875
2121,-196.3,2022-08-17 14:17:38.312500
2122,-188.7,2022-08-17 14:17:38.328125
2123,-181.68,2022-08-17 14:17:38.343750
2124,-174.0,2022-08-17 14:17:38.359375
2125,-164.69,2022-08-17 14:17:38.375000
2126,-153.44,2022-08-17 14:17:38.390625
2127,-140.81,2022-08-17 14:17:38.406250
2128,-128.0,2022-08-17 14:17:38.421875
2129,-116.4,2022-08-17 14:17:38.437500
2130,-106.9,2022-08-17 14:17:38.453125
2131,-99.8,2022-08-17 14:17:38.468750
2132,-94.98,2022-08-17 14:17:38.484375
2133,-91.25,2022-08-17 14:17:38.500000
2134,-87.49,2022-08-17 14:17:38.515625
2135,-82.95,2022-08-17 14:17:38.531250
2136,-77.43,2022-08-17 14:17:38.546875
2137,-71.27,2022-08-17 14:17:38.562500
2138,-65.07,2022-08-17 14:17:38.578125
2139,-59.29,2022-08-17 14:17:38.593750
2140,-54.17,2022-08-17 14:17:38.609375
2141,-49.71,2022-08-17 14:17:38.625000
2142,-45.41,2022-08-17 14:17:38.640625
2143,-40.83,2022-08-17 14:17:38.656250
2144,-35.76,2022-08-17 14:17:38.671875
2145,-30.39,2022-08-17 14:17:38.687500
2146,-25.15,2022-08-17 14:17:38.703125
2147,-20.59,2022-08-17 14:17:38.718750
2148,-16.94,2022-08-17 14:17:38.734375
2149,-14.07,2022-08-17 14:17:38.750000
2150,-11.61,2022-08-17 14:17:38.765625
2151,-9.03,2022-08-17 14:17:38.781250
2152,-6.01,2022-08-17 14:17:38.796875
2153,-2.61,2022-08-17 14:17:38.812500
2154,0.73,2022-08-17 14:17:38.828125
2155,3.74,2022-08-17 14:17:38.843750
2156,5.68,2022-08-17 14:17:38.859375
2157,6.23,2022-08-17 14:17:38.875000
2158,5.39,2022-08-17 14:17:38.890625
2159,3.38,2022-08-17 14:17:38.906250
2160,0.46,2022-08-17 14:17:38.921875
2161,-3.11,2022-08-17 14:17:38.937500
2162,-7.12,2022-08-17 14:17:38.953125
2163,-11.38,2022-08-17 14:17:38.968750
2164,-15.6,2022-08-17 14:17:38.984375
2165,-19.53,2022-08-17 14:17:39.000000
2166,-22.82,2022-08-17 14:17:39.015625
2167,-25.18,2022-08-17 14:17:39.031250
2168,-26.44,2022-08-17 14:17:39.046875
2169,-26.52,2022-08-17 14:17:39.062500
2170,-25.45,2022-08-17 14:17:39.078125
2171,-23.34,2022-08-17 14:17:39.093750
2172,-20.43,2022-08-17 14:17:39.109375
2173,-17.05,2022-08-17 14:17:39.125000
2174,-13.64,2022-08-17 14:17:39.140625
2175,-10.6,2022-08-17 14:17:39.156250
2176,-8.27,2022-08-17 14:17:39.171875
2177,-6.83,2022-08-17 14:17:39.187500
2178,-6.28,2022-08-17 14:17:39.203125
2179,-6.44,2022-08-17 14:17:39.218750
2180,-7.05,2022-08-17 14:17:39.234375
2181,-7.94,2022-08-17 14:17:39.250000
2182,-8.99,2022-08-17 14:17:39.265625
2183,-10.14,2022-08-17 14:17:39.281250
2184,-11.26,2022-08-17 14:17:39.296875
2185,-12.17,2022-08-17 14:17:39.312500
2186,-12.68,2022-08-17 14:17:39.328125
2187,-12.61,2022-08-17 14:17:39.343750
2188,-11.88,2022-08-17 14:17:39.359375
2189,-10.65,2022-08-17 14:17:39.375000
2190,-9.2,2022-08-17 14:17:39.390625
2191,-7.92,2022-08-17 14:17:39.406250
2192,-7.05,2022-08-17 14:17:39.421875
2193,-6.64,2022-08-17 14:17:39.437500
2194,-6.54,2022-08-17 14:17:39.453125
2195,-6.51,2022-08-17 14:17:39.468750
2196,-6.37,2022-08-17 14:17:39.484375
2197,-6.07,2022-08-17 14:17:39.500000
2198,-5.75,2022-08-17 14:17:39.515625
2199,-5.61,2022-08-17 14:17:39.531250
2200,-5.81,2022-08-17 14:17:39.546875
2201,-6.36,2022-08-17 14:17:39.562500
2202,-7.1,2022-08-17 14:17:39.578125
2203,-7.81,2022-08-17 14:17:39.593750
2204,-8.3,2022-08-17 14:17:39.609375
2205,-8.7,2022-08-17 14:17:39.625000
2206,-9.1,2022-08-17 14:17:39.640625
2207,-9.62,2022-08-17 14:17:39.656250
2208,-10.32,2022-08-17 14:17:39.671875
2209,-11.24,2022-08-17 14:17:39.687500
2210,-12.39,2022-08-17 14:17:39.703125
2211,-13.82,2022-08-17 14:17:39.718750
2212,-15.54,2022-08-17 14:17:39.734375
2213,-17.46,2022-08-17 14:17:39.750000
2214,-19.35,2022-08-17 14:17:39.765625
2215,-20.82,2022-08-17 14:17:39.781250
2216,-21.51,2022-08-17 14:17:39.796875
2217,-21.18,2022-08-17 14:17:39.812500
2218,-19.86,2022-08-17 14:17:39.828125
2219,-17.7,2022-08-17 14:17:39.843750
2220,-14.91,2022-08-17 14:17:39.859375
2221,-11.58,2022-08-17 14:17:39.875000
2222,-7.66,2022-08-17 14:17:39.890625
2223,-3.08,2022-08-17 14:17:39.906250
2224,2.14,2022-08-17 14:17:39.921875
2225,7.67,2022-08-17 14:17:39.937500
2226,12.97,2022-08-17 14:17:39.953125
2227,17.39,2022-08-17 14:17:39.968750
2228,20.46,2022-08-17 14:17:39.984375
2229,22.01,2022-08-17 14:17:40.000000
2230,22.22,2022-08-17 14:17:40.015625
2231,21.43,2022-08-17 14:17:40.031250
2232,20.09,2022-08-17 14:17:40.046875
2233,18.54,2022-08-17 14:17:40.062500
2234,16.98,2022-08-17 14:17:40.078125
2235,15.52,2022-08-17 14:17:40.093750
2236,14.17,2022-08-17 14:17:40.109375
2237,12.93,2022-08-17 14:17:40.125000
2238,11.83,2022-08-17 14:17:40.140625
2239,10.93,2022-08-17 14:17:40.156250
2240,10.25,2022-08-17 14:17:40.171875
2241,9.79,2022-08-17 14:17:40.187500
2242,9.55,2022-08-17 14:17:40.203125
2243,9.48,2022-08-17 14:17:40.218750
2244,9.57,2022-08-17 14:17:40.234375
2245,9.81,2022-08-17 14:17:40.250000
2246,10.26,2022-08-17 14:17:40.265625
2247,10.9,2022-08-17 14:17:40.281250
2248,11.64,2022-08-17 14:17:40.296875
2249,12.26,2022-08-17 14:17:40.312500
2250,12.48,2022-08-17 14:17:40.328125
2251,12.04,2022-08-17 14:17:40.343750
2252,10.79,2022-08-17 14:17:40.359375
2253,8.84,2022-08-17 14:17:40.375000
2254,6.4,2022-08-17 14:17:40.390625
2255,3.8,2022-08-17 14:17:40.406250
2256,1.31,2022-08-17 14:17:40.421875
2257,-0.89,2022-08-17 14:17:40.437500
2258,-2.7,2022-08-17 14:17:40.453125
2259,-4.15,2022-08-17 14:17:40.468750
2260,-5.31,2022-08-17 14:17:40.484375
2261,-6.35,2022-08-17 14:17:40.500000
2262,-7.38,2022-08-17 14:17:40.515625
2263,-8.49,2022-08-17 14:17:40.531250
2264,-9.66,2022-08-17 14:17:40.546875
2265,-10.76,2022-08-17 14:17:40.562500
2266,-11.68,2022-08-17 14:17:40.578125
2267,-12.42,2022-08-17 14:17:40.593750
2268,-13.1,2022-08-17 14:17:40.609375
2269,-13.96,2022-08-17 14:17:40.625000
2270,-15.19,2022-08-17 14:17:40.640625
2271,-16.78,2022-08-17 14:17:40.656250
2272,-18.47,2022-08-17 14:17:40.671875
2273,-19.81,2022-08-17 14:17:40.687500
2274,-20.28,2022-08-17 14:17:40.703125
2275,-19.45,2022-08-17 14:17:40.718750
2276,-17.09,2022-08-17 14:17:40.734375
2277,-13.27,2022-08-17 14:17:40.750000
2278,-8.28,2022-08-17 14:17:40.765625
2279,-2.6,2022-08-17 14:17:40.781250
2280,3.23,2022-08-17 14:17:40.796875
2281,8.65,2022-08-17 14:17:40.812500
2282,13.21,2022-08-17 14:17:40.828125
2283,16.61,2022-08-17 14:17:40.843750
2284,18.75,2022-08-17 14:17:40.859375
2285,19.71,2022-08-17 14:17:40.875000
2286,19.7,2022-08-17 14:17:40.890625
2287,19.02,2022-08-17 14:17:40.906250
2288,17.91,2022-08-17 14:17:40.921875
2289,16.58,2022-08-17 14:17:40.937500
2290,15.18,2022-08-17 14:17:40.953125
2291,13.72,2022-08-17 14:17:40.968750
2292,12.21,2022-08-17 14:17:40.984375
2293,10.63,2022-08-17 14:17:41.000000
2294,9.02,2022-08-17 14:17:41.015625
2295,7.49,2022-08-17 14:17:41.031250
2296,6.21,2022-08-17 14:17:41.046875
2297,5.35,2022-08-17 14:17:41.062500
2298,5.02,2022-08-17 14:17:41.078125
2299,5.23,2022-08-17 14:17:41.093750
2300,5.8,2022-08-17 14:17:41.109375
2301,6.48,2022-08-17 14:17:41.125000
2302,6.98,2022-08-17 14:17:41.140625
2303,7.03,2022-08-17 14:17:41.156250
2304,6.47,2022-08-17 14:17:41.171875
2305,5.25,2022-08-17 14:17:41.187500
2306,3.51,2022-08-17 14:17:41.203125
2307,1.52,2022-08-17 14:17:41.218750
2308,-0.4,2022-08-17 14:17:41.234375
2309,-1.92,2022-08-17 14:17:41.250000
2310,-2.87,2022-08-17 14:17:41.265625
2311,-3.28,2022-08-17 14:17:41.281250
2312,-3.36,2022-08-17 14:17:41.296875
2313,-3.38,2022-08-17 14:17:41.312500
2314,-3.56,2022-08-17 14:17:41.328125
2315,-3.95,2022-08-17 14:17:41.343750
2316,-4.45,2022-08-17 14:17:41.359375
2317,-4.94,2022-08-17 14:17:41.375000
2318,-5.3,2022-08-17 14:17:41.390625
2319,-5.59,2022-08-17 14:17:41.406250
2320,-5.92,2022-08-17 14:17:41.421875
2321,-6.46,2022-08-17 14:17:41.437500
2322,-7.31,2022-08-17 14:17:41.453125
2323,-8.41,2022-08-17 14:17:41.468750
2324,-9.55,2022-08-17 14:17:41.484375
2325,-10.4,2022-08-17 14:17:41.500000
2326,-10.57,2022-08-17 14:17:41.515625
2327,-9.69,2022-08-17 14:17:41.531250
2328,-7.48,2022-08-17 14:17:41.546875
2329,-3.8,2022-08-17 14:17:41.562500
2330,1.28,2022-08-17 14:17:41.578125
2331,7.48,2022-08-17 14:17:41.593750
2332,14.35,2022-08-17 14:17:41.609375
2333,21.33,2022-08-17 14:17:41.625000
2334,27.96,2022-08-17 14:17:41.640625
2335,33.92,2022-08-17 14:17:41.656250
2336,39.11,2022-08-17 14:17:41.671875
2337,43.59,2022-08-17 14:17:41.687500
2338,47.43,2022-08-17 14:17:41.703125
2339,50.66,2022-08-17 14:17:41.718750
2340,53.23,2022-08-17 14:17:41.734375
2341,55.08,2022-08-17 14:17:41.750000
2342,56.18,2022-08-17 14:17:41.765625
2343,56.59,2022-08-17 14:17:41.781250
2344,56.33,2022-08-17 14:17:41.796875
2345,55.4,2022-08-17 14:17:41.812500
2346,53.72,2022-08-17 14:17:41.828125
2347,51.2,2022-08-17 14:17:41.843750
2348,47.91,2022-08-17 14:17:41.859375
2349,44.09,2022-08-17 14:17:41.875000
2350,40.18,2022-08-17 14:17:41.890625
2351,36.59,2022-08-17 14:17:41.906250
2352,33.47,2022-08-17 14:17:41.921875
2353,30.49,2022-08-17 14:17:41.937500
2354,26.87,2022-08-17 14:17:41.953125
2355,21.57,2022-08-17 14:17:41.968750
2356,13.73,2022-08-17 14:17:41.984375
2357,3.0,2022-08-17 14:17:42.000000
2358,-10.29,2022-08-17 14:17:42.015625
2359,-25.17,2022-08-17 14:17:42.031250
2360,-40.35,2022-08-17 14:17:42.046875
2361,-54.62,2022-08-17 14:17:42.062500
2362,-67.16,2022-08-17 14:17:42.078125
2363,-77.57,2022-08-17 14:17:42.093750
2364,-85.75,2022-08-17 14:17:42.109375
2365,-91.69,2022-08-17 14:17:42.125000
2366,-95.34,2022-08-17 14:17:42.140625
2367,-96.62,2022-08-17 14:17:42.156250
2368,-95.53,2022-08-17 14:17:42.171875
2369,-92.29,2022-08-17 14:17:42.187500
2370,-87.34,2022-08-17 14:17:42.203125
2371,-81.25,2022-08-17 14:17:42.218750
2372,-74.6,2022-08-17 14:17:42.234375
2373,-67.8,2022-08-17 14:17:42.250000
2374,-61.09,2022-08-17 14:17:42.265625
2375,-54.6,2022-08-17 14:17:42.281250
2376,-48.48,2022-08-17 14:17:42.296875
2377,-42.89,2022-08-17 14:17:42.312500
2378,-38.01,2022-08-17 14:17:42.328125
2379,-33.94,2022-08-17 14:17:42.343750
2380,-30.56,2022-08-17 14:17:42.359375
2381,-27.49,2022-08-17 14:17:42.375000
2382,-24.2,2022-08-17 14:17:42.390625
2383,-20.1,2022-08-17 14:17:42.406250
2384,-14.82,2022-08-17 14:17:42.421875
2385,-8.35,2022-08-17 14:17:42.437500
2386,-1.09,2022-08-17 14:17:42.453125
2387,6.3,2022-08-17 14:17:42.468750
2388,13.08,2022-08-17 14:17:42.484375
2389,18.71,2022-08-17 14:17:42.500000
2390,22.91,2022-08-17 14:17:42.515625
2391,25.68,2022-08-17 14:17:42.531250
2392,27.19,2022-08-17 14:17:42.546875
2393,27.65,2022-08-17 14:17:42.562500
2394,27.3,2022-08-17 14:17:42.578125
2395,26.34,2022-08-17 14:17:42.593750
2396,24.97,2022-08-17 14:17:42.609375
2397,23.42,2022-08-17 14:17:42.625000
2398,21.88,2022-08-17 14:17:42.640625
2399,20.49,2022-08-17 14:17:42.656250
2400,19.31,2022-08-17 14:17:42.671875
2401,18.39,2022-08-17 14:17:42.687500
2402,17.72,2022-08-17 14:17:42.703125
2403,17.32,2022-08-17 14:17:42.718750
2404,17.16,2022-08-17 14:17:42.734375
2405,17.24,2022-08-17 14:17:42.750000
2406,17.53,2022-08-17 14:17:42.765625
2407,17.98,2022-08-17 14:17:42.781250
2408,18.52,2022-08-17 14:17:42.796875
2409,19.01,2022-08-17 14:17:42.812500
2410,19.27,2022-08-17 14:17:42.828125
2411,19.15,2022-08-17 14:17:42.843750
2412,18.55,2022-08-17 14:17:42.859375
2413,17.55,2022-08-17 14:17:42.875000
2414,16.35,2022-08-17 14:17:42.890625
2415,15.25,2022-08-17 14:17:42.906250
2416,14.49,2022-08-17 14:17:42.921875
2417,14.19,2022-08-17 14:17:42.937500
2418,14.18,2022-08-17 14:17:42.953125
2419,14.16,2022-08-17 14:17:42.968750
2420,13.79,2022-08-17 14:17:42.984375
2421,12.82,2022-08-17 14:17:43.000000
2422,11.15,2022-08-17 14:17:43.015625
2423,8.87,2022-08-17 14:17:43.031250
2424,6.17,2022-08-17 14:17:43.046875
2425,3.25,2022-08-17 14:17:43.062500
2426,0.33,2022-08-17 14:17:43.078125
2427,-2.47,2022-08-17 14:17:43.093750
2428,-5.07,2022-08-17 14:17:43.109375
2429,-7.46,2022-08-17 14:17:43.125000
2430,-9.72,2022-08-17 14:17:43.140625
2431,-11.95,2022-08-17 14:17:43.156250
2432,-14.21,2022-08-17 14:17:43.171875
2433,-16.44,2022-08-17 14:17:43.187500
2434,-18.45,2022-08-17 14:17:43.203125
2435,-19.91,2022-08-17 14:17:43.218750
2436,-20.43,2022-08-17 14:17:43.234375
2437,-19.71,2022-08-17 14:17:43.250000
2438,-17.59,2022-08-17 14:17:43.265625
2439,-14.14,2022-08-17 14:17:43.281250
2440,-9.68,2022-08-17 14:17:43.296875
2441,-4.63,2022-08-17 14:17:43.312500
2442,0.52,2022-08-17 14:17:43.328125
2443,5.33,2022-08-17 14:17:43.343750
2444,9.47,2022-08-17 14:17:43.359375
2445,12.69,2022-08-17 14:17:43.375000
2446,14.9,2022-08-17 14:17:43.390625
2447,16.09,2022-08-17 14:17:43.406250
2448,16.38,2022-08-17 14:17:43.421875
2449,16.05,2022-08-17 14:17:43.437500
2450,15.45,2022-08-17 14:17:43.453125
2451,14.99,2022-08-17 14:17:43.468750
2452,15.01,2022-08-17 14:17:43.484375
2453,15.68,2022-08-17 14:17:43.500000
2454,16.96,2022-08-17 14:17:43.515625
2455,18.61,2022-08-17 14:17:43.531250
2456,20.33,2022-08-17 14:17:43.546875
2457,21.83,2022-08-17 14:17:43.562500
2458,23.02,2022-08-17 14:17:43.578125
2459,23.89,2022-08-17 14:17:43.593750
2460,24.55,2022-08-17 14:17:43.609375
2461,25.09,2022-08-17 14:17:43.625000
2462,25.55,2022-08-17 14:17:43.640625
2463,25.95,2022-08-17 14:17:43.656250
2464,26.29,2022-08-17 14:17:43.671875
2465,26.6,2022-08-17 14:17:43.687500
2466,26.85,2022-08-17 14:17:43.703125
2467,26.91,2022-08-17 14:17:43.718750
2468,26.5,2022-08-17 14:17:43.734375
2469,25.24,2022-08-17 14:17:43.750000
2470,22.8,2022-08-17 14:17:43.765625
2471,19.07,2022-08-17 14:17:43.781250
2472,14.24,2022-08-17 14:17:43.796875
2473,8.75,2022-08-17 14:17:43.812500
2474,3.18,2022-08-17 14:17:43.828125
2475,-1.92,2022-08-17 14:17:43.843750
2476,-6.12,2022-08-17 14:17:43.859375
2477,-9.2,2022-08-17 14:17:43.875000
2478,-11.08,2022-08-17 14:17:43.890625
2479,-11.76,2022-08-17 14:17:43.906250
2480,-11.36,2022-08-17 14:17:43.921875
2481,-10.09,2022-08-17 14:17:43.937500
2482,-8.3,2022-08-17 14:17:43.953125
2483,-6.44,2022-08-17 14:17:43.968750
2484,-4.91,2022-08-17 14:17:43.984375
2485,-4.02,2022-08-17 14:17:44.000000
2486,-3.86,2022-08-17 14:17:44.015625
2487,-4.26,2022-08-17 14:17:44.031250
2488,-4.84,2022-08-17 14:17:44.046875
2489,-5.12,2022-08-17 14:17:44.062500
2490,-4.67,2022-08-17 14:17:44.078125
2491,-3.24,2022-08-17 14:17:44.093750
2492,-0.85,2022-08-17 14:17:44.109375
2493,2.2,2022-08-17 14:17:44.125000
2494,5.43,2022-08-17 14:17:44.140625
2495,8.22,2022-08-17 14:17:44.156250
2496,10.02,2022-08-17 14:17:44.171875
2497,10.41,2022-08-17 14:17:44.187500
2498,9.18,2022-08-17 14:17:44.203125
2499,6.41,2022-08-17 14:17:44.218750
2500,2.4,2022-08-17 14:17:44.234375
2501,-2.4,2022-08-17 14:17:44.250000
2502,-7.45,2022-08-17 14:17:44.265625
2503,-12.3,2022-08-17 14:17:44.281250
2504,-16.57,2022-08-17 14:17:44.296875
2505,-20.04,2022-08-17 14:17:44.312500
2506,-22.63,2022-08-17 14:17:44.328125
2507,-24.42,2022-08-17 14:17:44.343750
2508,-25.57,2022-08-17 14:17:44.359375
2509,-26.25,2022-08-17 14:17:44.375000
2510,-26.58,2022-08-17 14:17:44.390625
2511,-26.62,2022-08-17 14:17:44.406250
2512,-26.39,2022-08-17 14:17:44.421875
2513,-25.83,2022-08-17 14:17:44.437500
2514,-24.92,2022-08-17 14:17:44.453125
2515,-23.7,2022-08-17 14:17:44.468750
2516,-22.23,2022-08-17 14:17:44.484375
2517,-20.54,2022-08-17 14:17:44.500000
2518,-18.63,2022-08-17 14:17:44.515625
2519,-16.46,2022-08-17 14:17:44.531250
2520,-14.06,2022-08-17 14:17:44.546875
2521,-11.6,2022-08-17 14:17:44.562500
2522,-9.36,2022-08-17 14:17:44.578125
2523,-7.7,2022-08-17 14:17:44.593750
2524,-6.86,2022-08-17 14:17:44.609375
2525,-6.89,2022-08-17 14:17:44.625000
2526,-7.57,2022-08-17 14:17:44.640625
2527,-8.51,2022-08-17 14:17:44.656250
2528,-9.21,2022-08-17 14:17:44.671875
2529,-9.29,2022-08-17 14:17:44.687500
2530,-8.61,2022-08-17 14:17:44.703125
2531,-7.25,2022-08-17 14:17:44.718750
2532,-5.47,2022-08-17 14:17:44.734375
2533,-3.46,2022-08-17 14:17:44.750000
2534,-1.32,2022-08-17 14:17:44.765625
2535,1.01,2022-08-17 14:17:44.781250
2536,3.7,2022-08-17 14:17:44.796875
2537,6.83,2022-08-17 14:17:44.812500
2538,10.35,2022-08-17 14:17:44.828125
2539,14.03,2022-08-17 14:17:44.843750
2540,17.52,2022-08-17 14:17:44.859375
2541,20.51,2022-08-17 14:17:44.875000
2542,22.75,2022-08-17 14:17:44.890625
2543,24.19,2022-08-17 14:17:44.906250
2544,24.92,2022-08-17 14:17:44.921875
2545,25.2,2022-08-17 14:17:44.937500
2546,25.46,2022-08-17 14:17:44.953125
2547,26.3,2022-08-17 14:17:44.968750
2548,28.37,2022-08-17 14:17:44.984375
2549,32.25,2022-08-17 14:17:45.000000
2550,38.27,2022-08-17 14:17:45.015625
2551,46.35,2022-08-17 14:17:45.031250
2552,56.01,2022-08-17 14:17:45.046875
2553,66.53,2022-08-17 14:17:45.062500
2554,77.16,2022-08-17 14:17:45.078125
2555,87.41,2022-08-17 14:17:45.093750
2556,97.14,2022-08-17 14:17:45.109375
2557,106.43,2022-08-17 14:17:45.125000
2558,115.33,2022-08-17 14:17:45.140625
2559,123.56,2022-08-17 14:17:45.156250
2560,130.34,2022-08-17 14:17:45.171875
2561,134.52,2022-08-17 14:17:45.187500
2562,134.86,2022-08-17 14:17:45.203125
2563,130.49,2022-08-17 14:17:45.218750
2564,121.16,2022-08-17 14:17:45.234375
2565,107.34,2022-08-17 14:17:45.250000
2566,90.02,2022-08-17 14:17:45.265625
2567,70.45,2022-08-17 14:17:45.281250
2568,49.97,2022-08-17 14:17:45.296875
2569,29.88,2022-08-17 14:17:45.312500
2570,11.5,2022-08-17 14:17:45.328125
2571,-4.01,2022-08-17 14:17:45.343750
2572,-15.84,2022-08-17 14:17:45.359375
2573,-23.76,2022-08-17 14:17:45.375000
2574,-28.34,2022-08-17 14:17:45.390625
2575,-30.78,2022-08-17 14:17:45.406250
2576,-32.59,2022-08-17 14:17:45.421875
2577,-35.04,2022-08-17 14:17:45.437500
2578,-38.85,2022-08-17 14:17:45.453125
2579,-43.98,2022-08-17 14:17:45.468750
2580,-49.9,2022-08-17 14:17:45.484375
2581,-55.83,2022-08-17 14:17:45.500000
2582,-61.05,2022-08-17 14:17:45.515625
2583,-64.99,2022-08-17 14:17:45.531250
2584,-67.21,2022-08-17 14:17:45.546875
2585,-67.45,2022-08-17 14:17:45.562500
2586,-65.56,2022-08-17 14:17:45.578125
2587,-61.75,2022-08-17 14:17:45.593750
2588,-56.58,2022-08-17 14:17:45.609375
2589,-50.89,2022-08-17 14:17:45.625000
2590,-45.65,2022-08-17 14:17:45.640625
2591,-41.59,2022-08-17 14:17:45.656250
2592,-38.98,2022-08-17 14:17:45.671875
2593,-37.63,2022-08-17 14:17:45.687500
2594,-37.01,2022-08-17 14:17:45.703125
2595,-36.58,2022-08-17 14:17:45.718750
2596,-36.05,2022-08-17 14:17:45.734375
2597,-35.46,2022-08-17 14:17:45.750000
2598,-35.11,2022-08-17 14:17:45.765625
2599,-35.27,2022-08-17 14:17:45.781250
2600,-35.96,2022-08-17 14:17:45.796875
2601,-36.84,2022-08-17 14:17:45.812500
2602,-37.25,2022-08-17 14:17:45.828125
2603,-36.49,2022-08-17 14:17:45.843750
2604,-34.1,2022-08-17 14:17:45.859375
2605,-30.01,2022-08-17 14:17:45.875000
2606,-24.61,2022-08-17 14:17:45.890625
2607,-18.55,2022-08-17 14:17:45.906250
2608,-12.53,2022-08-17 14:17:45.921875
2609,-7.13,2022-08-17 14:17:45.937500
2610,-2.77,2022-08-17 14:17:45.953125
2611,0.3,2022-08-17 14:17:45.968750
2612,1.88,2022-08-17 14:17:45.984375
2613,1.85,2022-08-17 14:17:46.000000
2614,0.24,2022-08-17 14:17:46.015625
2615,-2.72,2022-08-17 14:17:46.031250
2616,-6.58,2022-08-17 14:17:46.046875
2617,-10.73,2022-08-17 14:17:46.062500
2618,-14.6,2022-08-17 14:17:46.078125
2619,-17.77,2022-08-17 14:17:46.093750
2620,-20.08,2022-08-17 14:17:46.109375
2621,-21.52,2022-08-17 14:17:46.125000
2622,-22.21,2022-08-17 14:17:46.140625
2623,-22.27,2022-08-17 14:17:46.156250
2624,-21.84,2022-08-17 14:17:46.171875
2625,-21.09,2022-08-17 14:17:46.187500
2626,-20.19,2022-08-17 14:17:46.203125
2627,-19.35,2022-08-17 14:17:46.218750
2628,-18.72,2022-08-17 14:17:46.234375
2629,-18.39,2022-08-17 14:17:46.250000
2630,-18.35,2022-08-17 14:17:46.265625
2631,-18.56,2022-08-17 14:17:46.281250
2632,-18.99,2022-08-17 14:17:46.296875
2633,-19.65,2022-08-17 14:17:46.312500
2634,-20.56,2022-08-17 14:17:46.328125
2635,-21.73,2022-08-17 14:17:46.343750
2636,-23.06,2022-08-17 14:17:46.359375
2637,-24.41,2022-08-17 14:17:46.375000
2638,-25.65,2022-08-17 14:17:46.390625
2639,-26.69,2022-08-17 14:17:46.406250
2640,-27.57,2022-08-17 14:17:46.421875
2641,-28.39,2022-08-17 14:17:46.437500
2642,-29.26,2022-08-17 14:17:46.453125
2643,-30.24,2022-08-17 14:17:46.468750
2644,-31.34,2022-08-17 14:17:46.484375
2645,-32.51,2022-08-17 14:17:46.500000
2646,-33.75,2022-08-17 14:17:46.515625
2647,-35.08,2022-08-17 14:17:46.531250
2648,-36.54,2022-08-17 14:17:46.546875
2649,-38.19,2022-08-17 14:17:46.562500
2650,-40.08,2022-08-17 14:17:46.578125
2651,-42.2,2022-08-17 14:17:46.593750
2652,-44.5,2022-08-17 14:17:46.609375
2653,-46.83,2022-08-17 14:17:46.625000
2654,-48.9,2022-08-17 14:17:46.640625
2655,-50.25,2022-08-17 14:17:46.656250
2656,-50.27,2022-08-17 14:17:46.671875
2657,-48.39,2022-08-17 14:17:46.687500
2658,-44.19,2022-08-17 14:17:46.703125
2659,-37.61,2022-08-17 14:17:46.718750
2660,-28.94,2022-08-17 14:17:46.734375
2661,-18.83,2022-08-17 14:17:46.750000
2662,-8.12,2022-08-17 14:17:46.765625
2663,2.21,2022-08-17 14:17:46.781250
2664,11.3,2022-08-17 14:17:46.796875
2665,18.48,2022-08-17 14:17:46.812500
2666,23.39,2022-08-17 14:17:46.828125
2667,25.95,2022-08-17 14:17:46.843750
2668,26.38,2022-08-17 14:17:46.859375
2669,25.05,2022-08-17 14:17:46.875000
2670,22.38,2022-08-17 14:17:46.890625
2671,18.72,2022-08-17 14:17:46.906250
2672,14.36,2022-08-17 14:17:46.921875
2673,9.48,2022-08-17 14:17:46.937500
2674,4.27,2022-08-17 14:17:46.953125
2675,-1.02,2022-08-17 14:17:46.968750
2676,-6.09,2022-08-17 14:17:46.984375
2677,-10.63,2022-08-17 14:17:47.000000
2678,-14.37,2022-08-17 14:17:47.015625
2679,-17.14,2022-08-17 14:17:47.031250
2680,-18.94,2022-08-17 14:17:47.046875
2681,-19.84,2022-08-17 14:17:47.062500
2682,-19.96,2022-08-17 14:17:47.078125
2683,-19.37,2022-08-17 14:17:47.093750
2684,-18.06,2022-08-17 14:17:47.109375
2685,-16.03,2022-08-17 14:17:47.125000
2686,-13.33,2022-08-17 14:17:47.140625
2687,-10.17,2022-08-17 14:17:47.156250
2688,-6.86,2022-08-17 14:17:47.171875
2689,-3.76,2022-08-17 14:17:47.187500
2690,-1.05,2022-08-17 14:17:47.203125
2691,1.28,2022-08-17 14:17:47.218750
2692,3.43,2022-08-17 14:17:47.234375
2693,5.64,2022-08-17 14:17:47.250000
2694,8.06,2022-08-17 14:17:47.265625
2695,10.63,2022-08-17 14:17:47.281250
2696,13.04,2022-08-17 14:17:47.296875
2697,14.88,2022-08-17 14:17:47.312500
2698,15.74,2022-08-17 14:17:47.328125
2699,15.37,2022-08-17 14:17:47.343750
2700,13.73,2022-08-17 14:17:47.359375
2701,10.97,2022-08-17 14:17:47.375000
2702,7.38,2022-08-17 14:17:47.390625
2703,3.34,2022-08-17 14:17:47.406250
2704,-0.74,2022-08-17 14:17:47.421875
2705,-4.43,2022-08-17 14:17:47.437500
2706,-7.39,2022-08-17 14:17:47.453125
2707,-9.39,2022-08-17 14:17:47.468750
2708,-10.33,2022-08-17 14:17:47.484375
2709,-10.27,2022-08-17 14:17:47.500000
2710,-9.28,2022-08-17 14:17:47.515625
2711,-7.41,2022-08-17 14:17:47.531250
2712,-4.6,2022-08-17 14:17:47.546875
2713,-0.76,2022-08-17 14:17:47.562500
2714,4.16,2022-08-17 14:17:47.578125
2715,10.01,2022-08-17 14:17:47.593750
2716,16.38,2022-08-17 14:17:47.609375
2717,22.73,2022-08-17 14:17:47.625000
2718,28.52,2022-08-17 14:17:47.640625
2719,33.38,2022-08-17 14:17:47.656250
2720,37.13,2022-08-17 14:17:47.671875
2721,39.79,2022-08-17 14:17:47.687500
2722,41.42,2022-08-17 14:17:47.703125
2723,42.09,2022-08-17 14:17:47.718750
2724,41.88,2022-08-17 14:17:47.734375
2725,40.86,2022-08-17 14:17:47.750000
2726,39.18,2022-08-17 14:17:47.765625
2727,37.07,2022-08-17 14:17:47.781250
2728,34.73,2022-08-17 14:17:47.796875
2729,32.38,2022-08-17 14:17:47.812500
2730,30.13,2022-08-17 14:17:47.828125
2731,28.08,2022-08-17 14:17:47.843750
2732,26.27,2022-08-17 14:17:47.859375
2733,24.71,2022-08-17 14:17:47.875000
2734,23.35,2022-08-17 14:17:47.890625
2735,22.13,2022-08-17 14:17:47.906250
2736,20.9,2022-08-17 14:17:47.921875
2737,19.57,2022-08-17 14:17:47.937500
2738,18.06,2022-08-17 14:17:47.953125
2739,16.33,2022-08-17 14:17:47.968750
2740,14.39,2022-08-17 14:17:47.984375
2741,12.21,2022-08-17 14:17:48.000000
2742,9.73,2022-08-17 14:17:48.015625
2743,6.87,2022-08-17 14:17:48.031250
2744,3.62,2022-08-17 14:17:48.046875
2745,-0.0,2022-08-17 14:17:48.062500
2746,-3.9,2022-08-17 14:17:48.078125
2747,-8.05,2022-08-17 14:17:48.093750
2748,-12.49,2022-08-17 14:17:48.109375
2749,-17.37,2022-08-17 14:17:48.125000
2750,-22.79,2022-08-17 14:17:48.140625
2751,-28.74,2022-08-17 14:17:48.156250
2752,-35.04,2022-08-17 14:17:48.171875
2753,-41.35,2022-08-17 14:17:48.187500
2754,-47.31,2022-08-17 14:17:48.203125
2755,-52.59,2022-08-17 14:17:48.218750
2756,-57.04,2022-08-17 14:17:48.234375
2757,-60.7,2022-08-17 14:17:48.250000
2758,-63.79,2022-08-17 14:17:48.265625
2759,-66.58,2022-08-17 14:17:48.281250
2760,-69.31,2022-08-17 14:17:48.296875
2761,-72.1,2022-08-17 14:17:48.312500
2762,-74.77,2022-08-17 14:17:48.328125
2763,-76.84,2022-08-17 14:17:48.343750
2764,-77.62,2022-08-17 14:17:48.359375
2765,-76.37,2022-08-17 14:17:48.375000
2766,-72.53,2022-08-17 14:17:48.390625
2767,-66.02,2022-08-17 14:17:48.406250
2768,-57.23,2022-08-17 14:17:48.421875
2769,-46.93,2022-08-17 14:17:48.437500
2770,-36.08,2022-08-17 14:17:48.453125
2771,-25.46,2022-08-17 14:17:48.468750
2772,-15.62,2022-08-17 14:17:48.484375
2773,-6.84,2022-08-17 14:17:48.500000
2774,0.77,2022-08-17 14:17:48.515625
2775,7.14,2022-08-17 14:17:48.531250
2776,12.21,2022-08-17 14:17:48.546875
2777,15.93,2022-08-17 14:17:48.562500
2778,18.39,2022-08-17 14:17:48.578125
2779,19.83,2022-08-17 14:17:48.593750
2780,20.6,2022-08-17 14:17:48.609375
2781,21.03,2022-08-17 14:17:48.625000
2782,21.38,2022-08-17 14:17:48.640625
2783,21.76,2022-08-17 14:17:48.656250
2784,22.19,2022-08-17 14:17:48.671875
2785,22.66,2022-08-17 14:17:48.687500
2786,23.16,2022-08-17 14:17:48.703125
2787,23.75,2022-08-17 14:17:48.718750
2788,24.44,2022-08-17 14:17:48.734375
2789,25.24,2022-08-17 14:17:48.750000
2790,26.06,2022-08-17 14:17:48.765625
2791,26.8,2022-08-17 14:17:48.781250
2792,27.32,2022-08-17 14:17:48.796875
2793,27.49,2022-08-17 14:17:48.812500
2794,27.24,2022-08-17 14:17:48.828125
2795,26.52,2022-08-17 14:17:48.843750
2796,25.37,2022-08-17 14:17:48.859375
2797,23.85,2022-08-17 14:17:48.875000
2798,22.08,2022-08-17 14:17:48.890625
2799,20.22,2022-08-17 14:17:48.906250
2800,18.39,2022-08-17 14:17:48.921875
2801,16.65,2022-08-17 14:17:48.937500
2802,14.95,2022-08-17 14:17:48.953125
2803,13.25,2022-08-17 14:17:48.968750
2804,11.47,2022-08-17 14:17:48.984375
2805,9.64,2022-08-17 14:17:49.000000
2806,7.85,2022-08-17 14:17:49.015625
2807,6.23,2022-08-17 14:17:49.031250
2808,4.88,2022-08-17 14:17:49.046875
2809,3.82,2022-08-17 14:17:49.062500
2810,2.91,2022-08-17 14:17:49.078125
2811,1.89,2022-08-17 14:17:49.093750
2812,0.38,2022-08-17 14:17:49.109375
2813,-1.95,2022-08-17 14:17:49.125000
2814,-5.37,2022-08-17 14:17:49.140625
2815,-9.94,2022-08-17 14:17:49.156250
2816,-15.41,2022-08-17 14:17:49.171875
2817,-21.22,2022-08-17 14:17:49.187500
2818,-26.46,2022-08-17 14:17:49.203125
2819,-30.16,2022-08-17 14:17:49.218750
2820,-31.45,2022-08-17 14:17:49.234375
2821,-29.89,2022-08-17 14:17:49.250000
2822,-25.62,2022-08-17 14:17:49.265625
2823,-19.32,2022-08-17 14:17:49.281250
2824,-12.0,2022-08-17 14:17:49.296875
2825,-4.68,2022-08-17 14:17:49.312500
2826,1.86,2022-08-17 14:17:49.328125
2827,7.23,2022-08-17 14:17:49.343750
2828,11.36,2022-08-17 14:17:49.359375
2829,14.4,2022-08-17 14:17:49.375000
2830,16.56,2022-08-17 14:17:49.390625
2831,17.95,2022-08-17 14:17:49.406250
2832,18.64,2022-08-17 14:17:49.421875
2833,18.65,2022-08-17 14:17:49.437500
2834,18.09,2022-08-17 14:17:49.453125
2835,17.12,2022-08-17 14:17:49.468750
2836,15.97,2022-08-17 14:17:49.484375
2837,14.83,2022-08-17 14:17:49.500000
2838,13.8,2022-08-17 14:17:49.515625
2839,12.85,2022-08-17 14:17:49.531250
2840,11.88,2022-08-17 14:17:49.546875
2841,10.84,2022-08-17 14:17:49.562500
2842,9.68,2022-08-17 14:17:49.578125
2843,8.48,2022-08-17 14:17:49.593750
2844,7.34,2022-08-17 14:17:49.609375
2845,6.27,2022-08-17 14:17:49.625000
2846,5.17,2022-08-17 14:17:49.640625
2847,3.86,2022-08-17 14:17:49.656250
2848,2.14,2022-08-17 14:17:49.671875
2849,-0.14,2022-08-17 14:17:49.687500
2850,-3.0,2022-08-17 14:17:49.703125
2851,-6.37,2022-08-17 14:17:49.718750
2852,-10.15,2022-08-17 14:17:49.734375
2853,-14.2,2022-08-17 14:17:49.750000
2854,-18.41,2022-08-17 14:17:49.765625
2855,-22.73,2022-08-17 14:17:49.781250
2856,-27.1,2022-08-17 14:17:49.796875
2857,-31.39,2022-08-17 14:17:49.812500
2858,-35.37,2022-08-17 14:17:49.828125
2859,-38.67,2022-08-17 14:17:49.843750
2860,-40.86,2022-08-17 14:17:49.859375
2861,-41.51,2022-08-17 14:17:49.875000
2862,-40.31,2022-08-17 14:17:49.890625
2863,-37.17,2022-08-17 14:17:49.906250
2864,-32.26,2022-08-17 14:17:49.921875
2865,-26.0,2022-08-17 14:17:49.937500
2866,-18.93,2022-08-17 14:17:49.953125
2867,-11.64,2022-08-17 14:17:49.968750
2868,-4.7,2022-08-17 14:17:49.984375
2869,1.42,2022-08-17 14:17:50.000000
2870,6.28,2022-08-17 14:17:50.015625
2871,9.51,2022-08-17 14:17:50.031250
2872,10.9,2022-08-17 14:17:50.046875
2873,10.48,2022-08-17 14:17:50.062500
2874,8.67,2022-08-17 14:17:50.078125
2875,6.23,2022-08-17 14:17:50.093750
2876,4.12,2022-08-17 14:17:50.109375
2877,3.28,2022-08-17 14:17:50.125000
2878,4.27,2022-08-17 14:17:50.140625
2879,7.15,2022-08-17 14:17:50.156250
2880,11.45,2022-08-17 14:17:50.171875
2881,16.45,2022-08-17 14:17:50.187500
2882,21.38,2022-08-17 14:17:50.203125
2883,25.71,2022-08-17 14:17:50.218750
2884,29.13,2022-08-17 14:17:50.234375
2885,31.56,2022-08-17 14:17:50.250000
2886,33.02,2022-08-17 14:17:50.265625
2887,33.61,2022-08-17 14:17:50.281250
2888,33.47,2022-08-17 14:17:50.296875
2889,32.87,2022-08-17 14:17:50.312500
2890,32.18,2022-08-17 14:17:50.328125
2891,31.79,2022-08-17 14:17:50.343750
2892,32.01,2022-08-17 14:17:50.359375
2893,32.96,2022-08-17 14:17:50.375000
2894,34.53,2022-08-17 14:17:50.390625
2895,36.48,2022-08-17 14:17:50.406250
2896,38.53,2022-08-17 14:17:50.421875
2897,40.46,2022-08-17 14:17:50.437500
2898,42.09,2022-08-17 14:17:50.453125
2899,43.27,2022-08-17 14:17:50.468750
2900,43.77,2022-08-17 14:17:50.484375
2901,43.27,2022-08-17 14:17:50.500000
2902,41.41,2022-08-17 14:17:50.515625
2903,37.92,2022-08-17 14:17:50.531250
2904,32.79,2022-08-17 14:17:50.546875
2905,26.32,2022-08-17 14:17:50.562500
2906,19.05,2022-08-17 14:17:50.578125
2907,11.64,2022-08-17 14:17:50.593750
2908,4.73,2022-08-17 14:17:50.609375
2909,-1.3,2022-08-17 14:17:50.625000
2910,-6.22,2022-08-17 14:17:50.640625
2911,-10.06,2022-08-17 14:17:50.656250
2912,-12.98,2022-08-17 14:17:50.671875
2913,-15.27,2022-08-17 14:17:50.687500
2914,-17.17,2022-08-17 14:17:50.703125
2915,-18.87,2022-08-17 14:17:50.718750
2916,-20.47,2022-08-17 14:17:50.734375
2917,-21.96,2022-08-17 14:17:50.750000
2918,-23.33,2022-08-17 14:17:50.765625
2919,-24.49,2022-08-17 14:17:50.781250
2920,-25.39,2022-08-17 14:17:50.796875
2921,-25.92,2022-08-17 14:17:50.812500
2922,-26.0,2022-08-17 14:17:50.828125
2923,-25.57,2022-08-17 14:17:50.843750
2924,-24.65,2022-08-17 14:17:50.859375
2925,-23.39,2022-08-17 14:17:50.875000
2926,-21.98,2022-08-17 14:17:50.890625
2927,-20.54,2022-08-17 14:17:50.906250
2928,-19.03,2022-08-17 14:17:50.921875
2929,-17.1,2022-08-17 14:17:50.937500
2930,-14.25,2022-08-17 14:17:50.953125
2931,-10.05,2022-08-17 14:17:50.968750
2932,-4.38,2022-08-17 14:17:50.984375
2933,2.5,2022-08-17 14:17:51.000000
2934,10.01,2022-08-17 14:17:51.015625
2935,17.45,2022-08-17 14:17:51.031250
2936,24.28,2022-08-17 14:17:51.046875
2937,30.14,2022-08-17 14:17:51.062500
2938,34.84,2022-08-17 14:17:51.078125
2939,38.27,2022-08-17 14:17:51.093750
2940,40.34,2022-08-17 14:17:51.109375
2941,40.96,2022-08-17 14:17:51.125000
2942,40.11,2022-08-17 14:17:51.140625
2943,37.96,2022-08-17 14:17:51.156250
2944,34.83,2022-08-17 14:17:51.171875
2945,31.16,2022-08-17 14:17:51.187500
2946,27.43,2022-08-17 14:17:51.203125
2947,24.02,2022-08-17 14:17:51.218750
2948,21.16,2022-08-17 14:17:51.234375
2949,18.92,2022-08-17 14:17:51.250000
2950,17.22,2022-08-17 14:17:51.265625
2951,15.89,2022-08-17 14:17:51.281250
2952,14.74,2022-08-17 14:17:51.296875
2953,13.59,2022-08-17 14:17:51.312500
2954,12.33,2022-08-17 14:17:51.328125
2955,10.93,2022-08-17 14:17:51.343750
2956,9.4,2022-08-17 14:17:51.359375
2957,7.79,2022-08-17 14:17:51.375000
2958,6.1,2022-08-17 14:17:51.390625
2959,4.35,2022-08-17 14:17:51.406250
2960,2.56,2022-08-17 14:17:51.421875
2961,0.79,2022-08-17 14:17:51.437500
2962,-0.93,2022-08-17 14:17:51.453125
2963,-2.53,2022-08-17 14:17:51.468750
2964,-3.98,2022-08-17 14:17:51.484375
2965,-5.3,2022-08-17 14:17:51.500000
2966,-6.53,2022-08-17 14:17:51.515625
2967,-7.78,2022-08-17 14:17:51.531250
2968,-9.21,2022-08-17 14:17:51.546875
2969,-10.94,2022-08-17 14:17:51.562500
2970,-13.07,2022-08-17 14:17:51.578125
2971,-15.6,2022-08-17 14:17:51.593750
2972,-18.36,2022-08-17 14:17:51.609375
2973,-21.09,2022-08-17 14:17:51.625000
2974,-23.55,2022-08-17 14:17:51.640625
2975,-25.58,2022-08-17 14:17:51.656250
2976,-27.19,2022-08-17 14:17:51.671875
2977,-28.54,2022-08-17 14:17:51.687500
2978,-29.87,2022-08-17 14:17:51.703125
2979,-31.42,2022-08-17 14:17:51.718750
2980,-33.25,2022-08-17 14:17:51.734375
2981,-35.29,2022-08-17 14:17:51.750000
2982,-37.25,2022-08-17 14:17:51.765625
2983,-38.66,2022-08-17 14:17:51.781250
2984,-38.98,2022-08-17 14:17:51.796875
2985,-37.77,2022-08-17 14:17:51.812500
2986,-34.8,2022-08-17 14:17:51.828125
2987,-30.16,2022-08-17 14:17:51.843750
2988,-24.26,2022-08-17 14:17:51.859375
2989,-17.71,2022-08-17 14:17:51.875000
2990,-11.14,2022-08-17 14:17:51.890625
2991,-5.01,2022-08-17 14:17:51.906250
2992,0.34,2022-08-17 14:17:51.921875
2993,4.79,2022-08-17 14:17:51.937500
2994,8.31,2022-08-17 14:17:51.953125
2995,10.87,2022-08-17 14:17:51.968750
2996,12.5,2022-08-17 14:17:51.984375
2997,13.27,2022-08-17 14:17:52.000000
2998,13.33,2022-08-17 14:17:52.015625
2999,12.88,2022-08-17 14:17:52.031250
3000,12.16,2022-08-17 14:17:52.046875
3001,11.35,2022-08-17 14:17:52.062500
3002,10.62,2022-08-17 14:17:52.078125
3003,10.12,2022-08-17 14:17:52.093750
3004,9.94,2022-08-17 14:17:52.109375
3005,10.12,2022-08-17 14:17:52.125000
3006,10.67,2022-08-17 14:17:52.140625
3007,11.49,2022-08-17 14:17:52.156250
3008,12.44,2022-08-17 14:17:52.171875
3009,13.39,2022-08-17 14:17:52.187500
3010,14.24,2022-08-17 14:17:52.203125
3011,14.95,2022-08-17 14:17:52.218750
3012,15.51,2022-08-17 14:17:52.234375
3013,15.85,2022-08-17 14:17:52.250000
3014,15.86,2022-08-17 14:17:52.265625
3015,15.43,2022-08-17 14:17:52.281250
3016,14.53,2022-08-17 14:17:52.296875
3017,13.27,2022-08-17 14:17:52.312500
3018,11.86,2022-08-17 14:17:52.328125
3019,10.53,2022-08-17 14:17:52.343750
3020,9.41,2022-08-17 14:17:52.359375
3021,8.5,2022-08-17 14:17:52.375000
3022,7.71,2022-08-17 14:17:52.390625
3023,6.88,2022-08-17 14:17:52.406250
3024,5.92,2022-08-17 14:17:52.421875
3025,4.87,2022-08-17 14:17:52.437500
3026,3.78,2022-08-17 14:17:52.453125
3027,2.78,2022-08-17 14:17:52.468750
3028,1.91,2022-08-17 14:17:52.484375
3029,1.19,2022-08-17 14:17:52.500000
3030,0.59,2022-08-17 14:17:52.515625
3031,0.02,2022-08-17 14:17:52.531250
3032,-0.59,2022-08-17 14:17:52.546875
3033,-1.38,2022-08-17 14:17:52.562500
3034,-2.46,2022-08-17 14:17:52.578125
3035,-3.93,2022-08-17 14:17:52.593750
3036,-5.78,2022-08-17 14:17:52.609375
3037,-7.9,2022-08-17 14:17:52.625000
3038,-10.0,2022-08-17 14:17:52.640625
3039,-11.64,2022-08-17 14:17:52.656250
3040,-12.35,2022-08-17 14:17:52.671875
3041,-11.75,2022-08-17 14:17:52.687500
3042,-9.68,2022-08-17 14:17:52.703125
3043,-6.26,2022-08-17 14:17:52.718750
3044,-1.88,2022-08-17 14:17:52.734375
3045,2.93,2022-08-17 14:17:52.750000
3046,7.67,2022-08-17 14:17:52.765625
3047,11.98,2022-08-17 14:17:52.781250
3048,15.64,2022-08-17 14:17:52.796875
3049,18.57,2022-08-17 14:17:52.812500
3050,20.71,2022-08-17 14:17:52.828125
3051,21.99,2022-08-17 14:17:52.843750
3052,22.39,2022-08-17 14:17:52.859375
3053,21.94,2022-08-17 14:17:52.875000
3054,20.9,2022-08-17 14:17:52.890625
3055,19.6,2022-08-17 14:17:52.906250
3056,18.39,2022-08-17 14:17:52.921875
3057,17.5,2022-08-17 14:17:52.937500
3058,17.01,2022-08-17 14:17:52.953125
3059,16.92,2022-08-17 14:17:52.968750
3060,17.16,2022-08-17 14:17:52.984375
3061,17.68,2022-08-17 14:17:53.000000
3062,18.45,2022-08-17 14:17:53.015625
3063,19.44,2022-08-17 14:17:53.031250
3064,20.59,2022-08-17 14:17:53.046875
3065,21.77,2022-08-17 14:17:53.062500
3066,22.84,2022-08-17 14:17:53.078125
3067,23.65,2022-08-17 14:17:53.093750
3068,24.14,2022-08-17 14:17:53.109375
3069,24.24,2022-08-17 14:17:53.125000
3070,23.95,2022-08-17 14:17:53.140625
3071,23.33,2022-08-17 14:17:53.156250
3072,22.47,2022-08-17 14:17:53.171875
3073,21.49,2022-08-17 14:17:53.187500
3074,20.43,2022-08-17 14:17:53.203125
3075,19.28,2022-08-17 14:17:53.218750
3076,17.87,2022-08-17 14:17:53.234375
3077,16.02,2022-08-17 14:17:53.250000
3078,13.55,2022-08-17 14:17:53.265625
3079,10.52,2022-08-17 14:17:53.281250
3080,7.1,2022-08-17 14:17:53.296875
3081,3.61,2022-08-17 14:17:53.312500
3082,0.34,2022-08-17 14:17:53.328125
3083,-2.56,2022-08-17 14:17:53.343750
3084,-5.04,2022-08-17 14:17:53.359375
3085,-7.19,2022-08-17 14:17:53.375000
3086,-9.08,2022-08-17 14:17:53.390625
3087,-10.73,2022-08-17 14:17:53.406250
3088,-12.07,2022-08-17 14:17:53.421875
3089,-12.95,2022-08-17 14:17:53.437500
3090,-13.14,2022-08-17 14:17:53.453125
3091,-12.35,2022-08-17 14:17:53.468750
3092,-10.27,2022-08-17 14:17:53.484375
3093,-6.65,2022-08-17 14:17:53.500000
3094,-1.42,2022-08-17 14:17:53.515625
3095,5.18,2022-08-17 14:17:53.531250
3096,12.58,2022-08-17 14:17:53.546875
3097,19.98,2022-08-17 14:17:53.562500
3098,26.55,2022-08-17 14:17:53.578125
3099,31.62,2022-08-17 14:17:53.593750
3100,34.91,2022-08-17 14:17:53.609375
3101,36.44,2022-08-17 14:17:53.625000
3102,36.47,2022-08-17 14:17:53.640625
3103,35.35,2022-08-17 14:17:53.656250
3104,33.34,2022-08-17 14:17:53.671875
3105,30.56,2022-08-17 14:17:53.687500
3106,27.06,2022-08-17 14:17:53.703125
3107,22.82,2022-08-17 14:17:53.718750
3108,17.87,2022-08-17 14:17:53.734375
3109,12.34,2022-08-17 14:17:53.750000
3110,6.41,2022-08-17 14:17:53.765625
3111,0.33,2022-08-17 14:17:53.781250
3112,-5.61,2022-08-17 14:17:53.796875
3113,-11.14,2022-08-17 14:17:53.812500
3114,-15.96,2022-08-17 14:17:53.828125
3115,-19.74,2022-08-17 14:17:53.843750
3116,-22.14,2022-08-17 14:17:53.859375
3117,-22.91,2022-08-17 14:17:53.875000
3118,-21.93,2022-08-17 14:17:53.890625
3119,-19.4,2022-08-17 14:17:53.906250
3120,-15.78,2022-08-17 14:17:53.921875
3121,-11.76,2022-08-17 14:17:53.937500
3122,-8.03,2022-08-17 14:17:53.953125
3123,-5.07,2022-08-17 14:17:53.968750
3124,-3.04,2022-08-17 14:17:53.984375
3125,-1.72,2022-08-17 14:17:54.000000
3126,-0.73,2022-08-17 14:17:54.015625
3127,0.35,2022-08-17 14:17:54.031250
3128,1.72,2022-08-17 14:17:54.046875
3129,3.36,2022-08-17 14:17:54.062500
3130,5.1,2022-08-17 14:17:54.078125
3131,6.7,2022-08-17 14:17:54.093750
3132,8.04,2022-08-17 14:17:54.109375
3133,9.09,2022-08-17 14:17:54.125000
3134,9.95,2022-08-17 14:17:54.140625
3135,10.72,2022-08-17 14:17:54.156250
3136,11.42,2022-08-17 14:17:54.171875
3137,12.01,2022-08-17 14:17:54.187500
3138,12.36,2022-08-17 14:17:54.203125
3139,12.29,2022-08-17 14:17:54.218750
3140,11.6,2022-08-17 14:17:54.234375
3141,10.11,2022-08-17 14:17:54.250000
3142,7.65,2022-08-17 14:17:54.265625
3143,4.1,2022-08-17 14:17:54.281250
3144,-0.57,2022-08-17 14:17:54.296875
3145,-6.32,2022-08-17 14:17:54.312500
3146,-13.01,2022-08-17 14:17:54.328125
3147,-20.38,2022-08-17 14:17:54.343750
3148,-28.11,2022-08-17 14:17:54.359375
3149,-35.8,2022-08-17 14:17:54.375000
3150,-42.95,2022-08-17 14:17:54.390625
3151,-49.06,2022-08-17 14:17:54.406250
3152,-53.71,2022-08-17 14:17:54.421875
3153,-56.58,2022-08-17 14:17:54.437500
3154,-57.65,2022-08-17 14:17:54.453125
3155,-57.19,2022-08-17 14:17:54.468750
3156,-55.67,2022-08-17 14:17:54.484375
3157,-53.65,2022-08-17 14:17:54.500000
3158,-51.58,2022-08-17 14:17:54.515625
3159,-49.68,2022-08-17 14:17:54.531250
3160,-47.87,2022-08-17 14:17:54.546875
3161,-45.9,2022-08-17 14:17:54.562500
3162,-43.46,2022-08-17 14:17:54.578125
3163,-40.32,2022-08-17 14:17:54.593750
3164,-36.4,2022-08-17 14:17:54.609375
3165,-31.8,2022-08-17 14:17:54.625000
3166,-26.79,2022-08-17 14:17:54.640625
3167,-21.68,2022-08-17 14:17:54.656250
3168,-16.82,2022-08-17 14:17:54.671875
