,BVP,time
0,95.35,2022-10-26 10:33:43.812500
1,123.64,2022-10-26 10:33:43.828125
2,152.68,2022-10-26 10:33:43.843750
3,176.94,2022-10-26 10:33:43.859375
4,193.7,2022-10-26 10:33:43.875000
5,201.95,2022-10-26 10:33:43.890625
6,200.71,2022-10-26 10:33:43.906250
7,189.19,2022-10-26 10:33:43.921875
8,168.01,2022-10-26 10:33:43.937500
9,140.8,2022-10-26 10:33:43.953125
10,113.56,2022-10-26 10:33:43.968750
11,92.18,2022-10-26 10:33:43.984375
12,79.98,2022-10-26 10:33:44.000000
13,76.02,2022-10-26 10:33:44.015625
14,75.61,2022-10-26 10:33:44.031250
15,73.22,2022-10-26 10:33:44.046875
16,65.4,2022-10-26 10:33:44.062500
17,51.31,2022-10-26 10:33:44.078125
18,32.55,2022-10-26 10:33:44.093750
19,11.4,2022-10-26 10:33:44.109375
20,-10.07,2022-10-26 10:33:44.125000
21,-30.63,2022-10-26 10:33:44.140625
22,-50.18,2022-10-26 10:33:44.156250
23,-69.74,2022-10-26 10:33:44.171875
24,-91.19,2022-10-26 10:33:44.187500
25,-116.51,2022-10-26 10:33:44.203125
26,-146.37,2022-10-26 10:33:44.218750
27,-178.86,2022-10-26 10:33:44.234375
28,-209.01,2022-10-26 10:33:44.250000
29,-231.43,2022-10-26 10:33:44.265625
30,-242.62,2022-10-26 10:33:44.281250
31,-242.69,2022-10-26 10:33:44.296875
32,-235.24,2022-10-26 10:33:44.312500
33,-224.79,2022-10-26 10:33:44.328125
34,-214.85,2022-10-26 10:33:44.343750
35,-206.79,2022-10-26 10:33:44.359375
36,-201.28,2022-10-26 10:33:44.375000
37,-199.65,2022-10-26 10:33:44.390625
38,-204.65,2022-10-26 10:33:44.406250
39,-218.93,2022-10-26 10:33:44.421875
40,-242.63,2022-10-26 10:33:44.437500
41,-271.0,2022-10-26 10:33:44.453125
42,-294.84,2022-10-26 10:33:44.468750
43,-303.94,2022-10-26 10:33:44.484375
44,-291.32,2022-10-26 10:33:44.500000
45,-257.17,2022-10-26 10:33:44.515625
46,-209.57,2022-10-26 10:33:44.531250
47,-161.84,2022-10-26 10:33:44.546875
48,-127.23,2022-10-26 10:33:44.562500
49,-114.07,2022-10-26 10:33:44.578125
50,-122.72,2022-10-26 10:33:44.593750
51,-145.84,2022-10-26 10:33:44.609375
52,-171.39,2022-10-26 10:33:44.625000
53,-187.21,2022-10-26 10:33:44.640625
54,-185.62,2022-10-26 10:33:44.656250
55,-165.9,2022-10-26 10:33:44.671875
56,-133.94,2022-10-26 10:33:44.687500
57,-98.93,2022-10-26 10:33:44.703125
58,-69.33,2022-10-26 10:33:44.718750
59,-49.64,2022-10-26 10:33:44.734375
60,-38.76,2022-10-26 10:33:44.750000
61,-32.09,2022-10-26 10:33:44.765625
62,-23.72,2022-10-26 10:33:44.781250
63,-9.39,2022-10-26 10:33:44.796875
64,12.12,2022-10-26 10:33:44.812500
65,39.78,2022-10-26 10:33:44.828125
66,71.72,2022-10-26 10:33:44.843750
67,106.85,2022-10-26 10:33:44.859375
68,145.38,2022-10-26 10:33:44.875000
69,187.63,2022-10-26 10:33:44.890625
70,232.29,2022-10-26 10:33:44.906250
71,276.78,2022-10-26 10:33:44.921875
72,318.19,2022-10-26 10:33:44.937500
73,355.66,2022-10-26 10:33:44.953125
74,391.28,2022-10-26 10:33:44.968750
75,428.24,2022-10-26 10:33:44.984375
76,467.54,2022-10-26 10:33:45.000000
77,505.02,2022-10-26 10:33:45.015625
78,531.98,2022-10-26 10:33:45.031250
79,539.68,2022-10-26 10:33:45.046875
80,524.29,2022-10-26 10:33:45.062500
81,489.83,2022-10-26 10:33:45.078125
82,446.37,2022-10-26 10:33:45.093750
83,405.07,2022-10-26 10:33:45.109375
84,373.01,2022-10-26 10:33:45.125000
85,350.85,2022-10-26 10:33:45.140625
86,334.93,2022-10-26 10:33:45.156250
87,320.72,2022-10-26 10:33:45.171875
88,306.04,2022-10-26 10:33:45.187500
89,291.45,2022-10-26 10:33:45.203125
90,278.18,2022-10-26 10:33:45.218750
91,265.81,2022-10-26 10:33:45.234375
92,251.63,2022-10-26 10:33:45.250000
93,231.84,2022-10-26 10:33:45.265625
94,203.89,2022-10-26 10:33:45.281250
95,168.06,2022-10-26 10:33:45.296875
96,126.79,2022-10-26 10:33:45.312500
97,83.42,2022-10-26 10:33:45.328125
98,40.61,2022-10-26 10:33:45.343750
99,0.4,2022-10-26 10:33:45.359375
100,-35.25,2022-10-26 10:33:45.375000
101,-63.81,2022-10-26 10:33:45.390625
102,-82.74,2022-10-26 10:33:45.406250
103,-90.7,2022-10-26 10:33:45.421875
104,-89.18,2022-10-26 10:33:45.437500
105,-83.28,2022-10-26 10:33:45.453125
106,-80.42,2022-10-26 10:33:45.468750
107,-88.02,2022-10-26 10:33:45.484375
108,-109.98,2022-10-26 10:33:45.500000
109,-144.91,2022-10-26 10:33:45.515625
110,-185.98,2022-10-26 10:33:45.531250
111,-222.85,2022-10-26 10:33:45.546875
112,-245.29,2022-10-26 10:33:45.562500
113,-246.82,2022-10-26 10:33:45.578125
114,-227.48,2022-10-26 10:33:45.593750
115,-194.1,2022-10-26 10:33:45.609375
116,-158.93,2022-10-26 10:33:45.625000
117,-135.85,2022-10-26 10:33:45.640625
118,-135.18,2022-10-26 10:33:45.656250
119,-160.29,2022-10-26 10:33:45.671875
120,-205.46,2022-10-26 10:33:45.687500
121,-257.85,2022-10-26 10:33:45.703125
122,-301.96,2022-10-26 10:33:45.718750
123,-324.89,2022-10-26 10:33:45.734375
124,-320.51,2022-10-26 10:33:45.750000
125,-290.39,2022-10-26 10:33:45.765625
126,-241.79,2022-10-26 10:33:45.781250
127,-183.22,2022-10-26 10:33:45.796875
128,-121.09,2022-10-26 10:33:45.812500
129,-58.51,2022-10-26 10:33:45.828125
130,2.96,2022-10-26 10:33:45.843750
131,60.41,2022-10-26 10:33:45.859375
132,107.39,2022-10-26 10:33:45.875000
133,135.08,2022-10-26 10:33:45.890625
134,136.72,2022-10-26 10:33:45.906250
135,112.16,2022-10-26 10:33:45.921875
136,70.42,2022-10-26 10:33:45.937500
137,26.27,2022-10-26 10:33:45.953125
138,-6.96,2022-10-26 10:33:45.968750
139,-24.02,2022-10-26 10:33:45.984375
140,-29.51,2022-10-26 10:33:46.000000
141,-33.98,2022-10-26 10:33:46.015625
142,-46.01,2022-10-26 10:33:46.031250
143,-66.18,2022-10-26 10:33:46.046875
144,-87.0,2022-10-26 10:33:46.062500
145,-98.5,2022-10-26 10:33:46.078125
146,-96.19,2022-10-26 10:33:46.093750
147,-84.48,2022-10-26 10:33:46.109375
148,-74.62,2022-10-26 10:33:46.125000
149,-77.8,2022-10-26 10:33:46.140625
150,-97.73,2022-10-26 10:33:46.156250
151,-128.64,2022-10-26 10:33:46.171875
152,-158.34,2022-10-26 10:33:46.187500
153,-174.86,2022-10-26 10:33:46.203125
154,-172.63,2022-10-26 10:33:46.218750
155,-154.47,2022-10-26 10:33:46.234375
156,-128.9,2022-10-26 10:33:46.250000
157,-105.45,2022-10-26 10:33:46.265625
158,-90.57,2022-10-26 10:33:46.281250
159,-86.15,2022-10-26 10:33:46.296875
160,-91.14,2022-10-26 10:33:46.312500
161,-102.99,2022-10-26 10:33:46.328125
162,-119.06,2022-10-26 10:33:46.343750
163,-136.43,2022-10-26 10:33:46.359375
164,-151.15,2022-10-26 10:33:46.375000
165,-158.08,2022-10-26 10:33:46.390625
166,-152.08,2022-10-26 10:33:46.406250
167,-130.09,2022-10-26 10:33:46.421875
168,-92.63,2022-10-26 10:33:46.437500
169,-44.53,2022-10-26 10:33:46.453125
170,6.38,2022-10-26 10:33:46.468750
171,52.65,2022-10-26 10:33:46.484375
172,90.06,2022-10-26 10:33:46.500000
173,118.68,2022-10-26 10:33:46.515625
174,141.77,2022-10-26 10:33:46.531250
175,162.92,2022-10-26 10:33:46.546875
176,183.89,2022-10-26 10:33:46.562500
177,204.94,2022-10-26 10:33:46.578125
178,226.39,2022-10-26 10:33:46.593750
179,250.08,2022-10-26 10:33:46.609375
180,278.99,2022-10-26 10:33:46.625000
181,314.52,2022-10-26 10:33:46.640625
182,353.99,2022-10-26 10:33:46.656250
183,389.73,2022-10-26 10:33:46.671875
184,411.32,2022-10-26 10:33:46.687500
185,409.6,2022-10-26 10:33:46.703125
186,380.29,2022-10-26 10:33:46.718750
187,325.17,2022-10-26 10:33:46.734375
188,250.4,2022-10-26 10:33:46.750000
189,164.18,2022-10-26 10:33:46.765625
190,75.09,2022-10-26 10:33:46.781250
191,-7.33,2022-10-26 10:33:46.796875
192,-73.54,2022-10-26 10:33:46.812500
193,-114.91,2022-10-26 10:33:46.828125
194,-127.58,2022-10-26 10:33:46.843750
195,-114.84,2022-10-26 10:33:46.859375
196,-87.33,2022-10-26 10:33:46.875000
197,-58.56,2022-10-26 10:33:46.890625
198,-39.83,2022-10-26 10:33:46.906250
199,-35.84,2022-10-26 10:33:46.921875
200,-44.09,2022-10-26 10:33:46.937500
201,-58.54,2022-10-26 10:33:46.953125
202,-73.09,2022-10-26 10:33:46.968750
203,-84.2,2022-10-26 10:33:46.984375
204,-90.59,2022-10-26 10:33:47.000000
205,-91.84,2022-10-26 10:33:47.015625
206,-87.4,2022-10-26 10:33:47.031250
207,-76.49,2022-10-26 10:33:47.046875
208,-59.26,2022-10-26 10:33:47.062500
209,-37.5,2022-10-26 10:33:47.078125
210,-14.4,2022-10-26 10:33:47.093750
211,6.61,2022-10-26 10:33:47.109375
212,21.88,2022-10-26 10:33:47.125000
213,27.84,2022-10-26 10:33:47.140625
214,20.78,2022-10-26 10:33:47.156250
215,-1.69,2022-10-26 10:33:47.171875
216,-38.6,2022-10-26 10:33:47.187500
217,-83.74,2022-10-26 10:33:47.203125
218,-125.9,2022-10-26 10:33:47.218750
219,-152.29,2022-10-26 10:33:47.234375
220,-153.74,2022-10-26 10:33:47.250000
221,-129.62,2022-10-26 10:33:47.265625
222,-88.97,2022-10-26 10:33:47.281250
223,-46.6,2022-10-26 10:33:47.296875
224,-16.92,2022-10-26 10:33:47.312500
225,-6.72,2022-10-26 10:33:47.328125
226,-12.73,2022-10-26 10:33:47.343750
227,-24.07,2022-10-26 10:33:47.359375
228,-29.4,2022-10-26 10:33:47.375000
229,-22.57,2022-10-26 10:33:47.390625
230,-6.38,2022-10-26 10:33:47.406250
231,10.28,2022-10-26 10:33:47.421875
232,18.47,2022-10-26 10:33:47.437500
233,14.42,2022-10-26 10:33:47.453125
234,2.51,2022-10-26 10:33:47.468750
235,-7.42,2022-10-26 10:33:47.484375
236,-5.91,2022-10-26 10:33:47.500000
237,10.98,2022-10-26 10:33:47.515625
238,39.54,2022-10-26 10:33:47.531250
239,70.97,2022-10-26 10:33:47.546875
240,96.59,2022-10-26 10:33:47.562500
241,111.91,2022-10-26 10:33:47.578125
242,117.39,2022-10-26 10:33:47.593750
243,116.32,2022-10-26 10:33:47.609375
244,110.81,2022-10-26 10:33:47.625000
245,100.31,2022-10-26 10:33:47.640625
246,82.4,2022-10-26 10:33:47.656250
247,56.91,2022-10-26 10:33:47.671875
248,28.44,2022-10-26 10:33:47.687500
249,6.43,2022-10-26 10:33:47.703125
250,1.1,2022-10-26 10:33:47.718750
251,17.24,2022-10-26 10:33:47.734375
252,51.37,2022-10-26 10:33:47.750000
253,91.69,2022-10-26 10:33:47.765625
254,123.36,2022-10-26 10:33:47.781250
255,135.16,2022-10-26 10:33:47.796875
256,123.25,2022-10-26 10:33:47.812500
257,91.57,2022-10-26 10:33:47.828125
258,49.37,2022-10-26 10:33:47.843750
259,6.09,2022-10-26 10:33:47.859375
260,-31.73,2022-10-26 10:33:47.875000
261,-61.21,2022-10-26 10:33:47.890625
262,-82.17,2022-10-26 10:33:47.906250
263,-95.41,2022-10-26 10:33:47.921875
264,-101.8,2022-10-26 10:33:47.937500
265,-102.52,2022-10-26 10:33:47.953125
266,-100.03,2022-10-26 10:33:47.968750
267,-97.63,2022-10-26 10:33:47.984375
268,-99.06,2022-10-26 10:33:48.000000
269,-106.29,2022-10-26 10:33:48.015625
270,-118.6,2022-10-26 10:33:48.031250
271,-132.38,2022-10-26 10:33:48.046875
272,-142.93,2022-10-26 10:33:48.062500
273,-146.15,2022-10-26 10:33:48.078125
274,-140.49,2022-10-26 10:33:48.093750
275,-127.2,2022-10-26 10:33:48.109375
276,-109.27,2022-10-26 10:33:48.125000
277,-89.28,2022-10-26 10:33:48.140625
278,-68.71,2022-10-26 10:33:48.156250
279,-47.77,2022-10-26 10:33:48.171875
280,-26.93,2022-10-26 10:33:48.187500
281,-7.66,2022-10-26 10:33:48.203125
282,8.61,2022-10-26 10:33:48.218750
283,21.83,2022-10-26 10:33:48.234375
284,34.6,2022-10-26 10:33:48.250000
285,51.15,2022-10-26 10:33:48.265625
286,74.83,2022-10-26 10:33:48.281250
287,105.31,2022-10-26 10:33:48.296875
288,137.96,2022-10-26 10:33:48.312500
289,165.79,2022-10-26 10:33:48.328125
290,183.45,2022-10-26 10:33:48.343750
291,190.12,2022-10-26 10:33:48.359375
292,189.61,2022-10-26 10:33:48.375000
293,186.91,2022-10-26 10:33:48.390625
294,184.86,2022-10-26 10:33:48.406250
295,181.8,2022-10-26 10:33:48.421875
296,173.36,2022-10-26 10:33:48.437500
297,156.78,2022-10-26 10:33:48.453125
298,133.71,2022-10-26 10:33:48.468750
299,110.66,2022-10-26 10:33:48.484375
300,94.69,2022-10-26 10:33:48.500000
301,88.78,2022-10-26 10:33:48.515625
302,88.7,2022-10-26 10:33:48.531250
303,85.19,2022-10-26 10:33:48.546875
304,69.51,2022-10-26 10:33:48.562500
305,39.33,2022-10-26 10:33:48.578125
306,0.92,2022-10-26 10:33:48.593750
307,-34.13,2022-10-26 10:33:48.609375
308,-55.3,2022-10-26 10:33:48.625000
309,-57.82,2022-10-26 10:33:48.640625
310,-44.87,2022-10-26 10:33:48.656250
311,-24.58,2022-10-26 10:33:48.671875
312,-5.5,2022-10-26 10:33:48.687500
313,6.84,2022-10-26 10:33:48.703125
314,11.28,2022-10-26 10:33:48.718750
315,9.85,2022-10-26 10:33:48.734375
316,5.74,2022-10-26 10:33:48.750000
317,1.27,2022-10-26 10:33:48.765625
318,-2.32,2022-10-26 10:33:48.781250
319,-4.76,2022-10-26 10:33:48.796875
320,-5.98,2022-10-26 10:33:48.812500
321,-5.14,2022-10-26 10:33:48.828125
322,-1.07,2022-10-26 10:33:48.843750
323,7.51,2022-10-26 10:33:48.859375
324,21.06,2022-10-26 10:33:48.875000
325,38.17,2022-10-26 10:33:48.890625
326,54.63,2022-10-26 10:33:48.906250
327,63.17,2022-10-26 10:33:48.921875
328,55.7,2022-10-26 10:33:48.937500
329,27.3,2022-10-26 10:33:48.953125
330,-20.5,2022-10-26 10:33:48.968750
331,-78.96,2022-10-26 10:33:48.984375
332,-135.21,2022-10-26 10:33:49.000000
333,-177.29,2022-10-26 10:33:49.015625
334,-199.19,2022-10-26 10:33:49.031250
335,-202.25,2022-10-26 10:33:49.046875
336,-192.87,2022-10-26 10:33:49.062500
337,-178.36,2022-10-26 10:33:49.078125
338,-163.25,2022-10-26 10:33:49.093750
339,-148.2,2022-10-26 10:33:49.109375
340,-132.18,2022-10-26 10:33:49.125000
341,-114.63,2022-10-26 10:33:49.140625
342,-96.81,2022-10-26 10:33:49.156250
343,-81.0,2022-10-26 10:33:49.171875
344,-67.33,2022-10-26 10:33:49.187500
345,-52.55,2022-10-26 10:33:49.203125
346,-31.15,2022-10-26 10:33:49.218750
347,0.6,2022-10-26 10:33:49.234375
348,41.06,2022-10-26 10:33:49.250000
349,82.96,2022-10-26 10:33:49.265625
350,116.58,2022-10-26 10:33:49.281250
351,135.02,2022-10-26 10:33:49.296875
352,137.61,2022-10-26 10:33:49.312500
353,129.9,2022-10-26 10:33:49.328125
354,120.49,2022-10-26 10:33:49.343750
355,116.42,2022-10-26 10:33:49.359375
356,119.97,2022-10-26 10:33:49.375000
357,129.0,2022-10-26 10:33:49.390625
358,138.81,2022-10-26 10:33:49.406250
359,144.55,2022-10-26 10:33:49.421875
360,143.71,2022-10-26 10:33:49.437500
361,136.76,2022-10-26 10:33:49.453125
362,126.46,2022-10-26 10:33:49.468750
363,116.01,2022-10-26 10:33:49.484375
364,107.22,2022-10-26 10:33:49.500000
365,99.89,2022-10-26 10:33:49.515625
366,91.64,2022-10-26 10:33:49.531250
367,79.89,2022-10-26 10:33:49.546875
368,63.51,2022-10-26 10:33:49.562500
369,43.92,2022-10-26 10:33:49.578125
370,23.71,2022-10-26 10:33:49.593750
371,4.83,2022-10-26 10:33:49.609375
372,-12.99,2022-10-26 10:33:49.625000
373,-31.61,2022-10-26 10:33:49.640625
374,-52.5,2022-10-26 10:33:49.656250
375,-75.31,2022-10-26 10:33:49.671875
376,-96.88,2022-10-26 10:33:49.687500
377,-113.55,2022-10-26 10:33:49.703125
378,-122.24,2022-10-26 10:33:49.718750
379,-121.7,2022-10-26 10:33:49.734375
380,-112.81,2022-10-26 10:33:49.750000
381,-97.42,2022-10-26 10:33:49.765625
382,-78.22,2022-10-26 10:33:49.781250
383,-58.65,2022-10-26 10:33:49.796875
384,-42.31,2022-10-26 10:33:49.812500
385,-31.36,2022-10-26 10:33:49.828125
386,-24.93,2022-10-26 10:33:49.843750
387,-18.3,2022-10-26 10:33:49.859375
388,-5.35,2022-10-26 10:33:49.875000
389,17.2,2022-10-26 10:33:49.890625
390,46.34,2022-10-26 10:33:49.906250
391,72.25,2022-10-26 10:33:49.921875
392,82.9,2022-10-26 10:33:49.937500
393,69.9,2022-10-26 10:33:49.953125
394,33.45,2022-10-26 10:33:49.968750
395,-17.73,2022-10-26 10:33:49.984375
396,-70.19,2022-10-26 10:33:50.000000
397,-111.81,2022-10-26 10:33:50.015625
398,-135.83,2022-10-26 10:33:50.031250
399,-141.14,2022-10-26 10:33:50.046875
400,-130.45,2022-10-26 10:33:50.062500
401,-107.53,2022-10-26 10:33:50.078125
402,-76.6,2022-10-26 10:33:50.093750
403,-42.37,2022-10-26 10:33:50.109375
404,-11.06,2022-10-26 10:33:50.125000
405,10.97,2022-10-26 10:33:50.140625
406,19.78,2022-10-26 10:33:50.156250
407,16.49,2022-10-26 10:33:50.171875
408,7.82,2022-10-26 10:33:50.187500
409,2.38,2022-10-26 10:33:50.203125
410,6.28,2022-10-26 10:33:50.218750
411,19.52,2022-10-26 10:33:50.234375
412,35.98,2022-10-26 10:33:50.250000
413,47.05,2022-10-26 10:33:50.265625
414,47.08,2022-10-26 10:33:50.281250
415,36.63,2022-10-26 10:33:50.296875
416,22.12,2022-10-26 10:33:50.312500
417,12.04,2022-10-26 10:33:50.328125
418,12.1,2022-10-26 10:33:50.343750
419,23.36,2022-10-26 10:33:50.359375
420,43.09,2022-10-26 10:33:50.375000
421,67.38,2022-10-26 10:33:50.390625
422,93.06,2022-10-26 10:33:50.406250
423,117.83,2022-10-26 10:33:50.421875
424,138.96,2022-10-26 10:33:50.437500
425,151.9,2022-10-26 10:33:50.453125
426,150.62,2022-10-26 10:33:50.468750
427,129.89,2022-10-26 10:33:50.484375
428,88.57,2022-10-26 10:33:50.500000
429,31.4,2022-10-26 10:33:50.515625
430,-31.25,2022-10-26 10:33:50.531250
431,-86.02,2022-10-26 10:33:50.546875
432,-120.94,2022-10-26 10:33:50.562500
433,-129.76,2022-10-26 10:33:50.578125
434,-114.21,2022-10-26 10:33:50.593750
435,-82.27,2022-10-26 10:33:50.609375
436,-44.38,2022-10-26 10:33:50.625000
437,-9.89,2022-10-26 10:33:50.640625
438,15.75,2022-10-26 10:33:50.656250
439,31.04,2022-10-26 10:33:50.671875
440,37.36,2022-10-26 10:33:50.687500
441,37.04,2022-10-26 10:33:50.703125
442,32.18,2022-10-26 10:33:50.718750
443,24.28,2022-10-26 10:33:50.734375
444,14.84,2022-10-26 10:33:50.750000
445,5.14,2022-10-26 10:33:50.765625
446,-3.89,2022-10-26 10:33:50.781250
447,-12.44,2022-10-26 10:33:50.796875
448,-22.09,2022-10-26 10:33:50.812500
449,-34.4,2022-10-26 10:33:50.828125
450,-49.06,2022-10-26 10:33:50.843750
451,-62.91,2022-10-26 10:33:50.859375
452,-71.32,2022-10-26 10:33:50.875000
453,-70.14,2022-10-26 10:33:50.890625
454,-58.49,2022-10-26 10:33:50.906250
455,-38.7,2022-10-26 10:33:50.921875
456,-14.92,2022-10-26 10:33:50.937500
457,8.35,2022-10-26 10:33:50.953125
458,27.17,2022-10-26 10:33:50.968750
459,37.74,2022-10-26 10:33:50.984375
460,36.22,2022-10-26 10:33:51.000000
461,19.38,2022-10-26 10:33:51.015625
462,-13.05,2022-10-26 10:33:51.031250
463,-57.23,2022-10-26 10:33:51.046875
464,-104.49,2022-10-26 10:33:51.062500
465,-143.96,2022-10-26 10:33:51.078125
466,-166.53,2022-10-26 10:33:51.093750
467,-168.92,2022-10-26 10:33:51.109375
468,-154.11,2022-10-26 10:33:51.125000
469,-129.64,2022-10-26 10:33:51.140625
470,-103.74,2022-10-26 10:33:51.156250
471,-81.75,2022-10-26 10:33:51.171875
472,-65.42,2022-10-26 10:33:51.187500
473,-53.92,2022-10-26 10:33:51.203125
474,-46.04,2022-10-26 10:33:51.218750
475,-40.94,2022-10-26 10:33:51.234375
476,-37.89,2022-10-26 10:33:51.250000
477,-35.37,2022-10-26 10:33:51.265625
478,-30.38,2022-10-26 10:33:51.281250
479,-19.03,2022-10-26 10:33:51.296875
480,1.72,2022-10-26 10:33:51.312500
481,31.54,2022-10-26 10:33:51.328125
482,66.65,2022-10-26 10:33:51.343750
483,100.38,2022-10-26 10:33:51.359375
484,126.07,2022-10-26 10:33:51.375000
485,139.24,2022-10-26 10:33:51.390625
486,138.85,2022-10-26 10:33:51.406250
487,127.38,2022-10-26 10:33:51.421875
488,109.14,2022-10-26 10:33:51.437500
489,88.88,2022-10-26 10:33:51.453125
490,70.6,2022-10-26 10:33:51.468750
491,56.85,2022-10-26 10:33:51.484375
492,48.87,2022-10-26 10:33:51.500000
493,46.45,2022-10-26 10:33:51.515625
494,48.38,2022-10-26 10:33:51.531250
495,53.0,2022-10-26 10:33:51.546875
496,59.25,2022-10-26 10:33:51.562500
497,66.49,2022-10-26 10:33:51.578125
498,75.18,2022-10-26 10:33:51.593750
499,85.48,2022-10-26 10:33:51.609375
500,96.32,2022-10-26 10:33:51.625000
501,105.3,2022-10-26 10:33:51.640625
502,109.01,2022-10-26 10:33:51.656250
503,104.74,2022-10-26 10:33:51.671875
504,92.24,2022-10-26 10:33:51.687500
505,74.3,2022-10-26 10:33:51.703125
506,55.21,2022-10-26 10:33:51.718750
507,39.02,2022-10-26 10:33:51.734375
508,27.68,2022-10-26 10:33:51.750000
509,20.84,2022-10-26 10:33:51.765625
510,16.52,2022-10-26 10:33:51.781250
511,13.24,2022-10-26 10:33:51.796875
512,11.29,2022-10-26 10:33:51.812500
513,12.34,2022-10-26 10:33:51.828125
514,18.59,2022-10-26 10:33:51.843750
515,30.23,2022-10-26 10:33:51.859375
516,43.81,2022-10-26 10:33:51.875000
517,52.33,2022-10-26 10:33:51.890625
518,47.59,2022-10-26 10:33:51.906250
519,24.0,2022-10-26 10:33:51.921875
520,-18.62,2022-10-26 10:33:51.937500
521,-74.02,2022-10-26 10:33:51.953125
522,-131.27,2022-10-26 10:33:51.968750
523,-178.76,2022-10-26 10:33:51.984375
524,-207.83,2022-10-26 10:33:52.000000
525,-215.3,2022-10-26 10:33:52.015625
526,-203.83,2022-10-26 10:33:52.031250
527,-179.53,2022-10-26 10:33:52.046875
528,-149.31,2022-10-26 10:33:52.062500
529,-119.28,2022-10-26 10:33:52.078125
530,-94.15,2022-10-26 10:33:52.093750
531,-77.75,2022-10-26 10:33:52.109375
532,-73.27,2022-10-26 10:33:52.125000
533,-82.08,2022-10-26 10:33:52.140625
534,-101.63,2022-10-26 10:33:52.156250
535,-125.83,2022-10-26 10:33:52.171875
536,-146.82,2022-10-26 10:33:52.187500
537,-157.49,2022-10-26 10:33:52.203125
538,-154.41,2022-10-26 10:33:52.218750
539,-138.2,2022-10-26 10:33:52.234375
540,-112.25,2022-10-26 10:33:52.250000
541,-80.56,2022-10-26 10:33:52.265625
542,-46.6,2022-10-26 10:33:52.281250
543,-13.58,2022-10-26 10:33:52.296875
544,14.62,2022-10-26 10:33:52.312500
545,33.41,2022-10-26 10:33:52.328125
546,39.03,2022-10-26 10:33:52.343750
547,31.19,2022-10-26 10:33:52.359375
548,13.99,2022-10-26 10:33:52.375000
549,-5.12,2022-10-26 10:33:52.390625
550,-18.55,2022-10-26 10:33:52.406250
551,-21.92,2022-10-26 10:33:52.421875
552,-14.42,2022-10-26 10:33:52.437500
553,2.09,2022-10-26 10:33:52.453125
554,25.31,2022-10-26 10:33:52.468750
555,52.79,2022-10-26 10:33:52.484375
556,81.33,2022-10-26 10:33:52.500000
557,105.97,2022-10-26 10:33:52.515625
558,120.57,2022-10-26 10:33:52.531250
559,120.84,2022-10-26 10:33:52.546875
560,106.91,2022-10-26 10:33:52.562500
561,84.71,2022-10-26 10:33:52.578125
562,64.27,2022-10-26 10:33:52.593750
563,55.02,2022-10-26 10:33:52.609375
564,61.54,2022-10-26 10:33:52.625000
565,81.42,2022-10-26 10:33:52.640625
566,107.0,2022-10-26 10:33:52.656250
567,129.56,2022-10-26 10:33:52.671875
568,142.99,2022-10-26 10:33:52.687500
569,145.92,2022-10-26 10:33:52.703125
570,141.04,2022-10-26 10:33:52.718750
571,132.56,2022-10-26 10:33:52.734375
572,124.47,2022-10-26 10:33:52.750000
573,119.0,2022-10-26 10:33:52.765625
574,116.43,2022-10-26 10:33:52.781250
575,114.93,2022-10-26 10:33:52.796875
576,111.28,2022-10-26 10:33:52.812500
577,102.18,2022-10-26 10:33:52.828125
578,85.55,2022-10-26 10:33:52.843750
579,61.95,2022-10-26 10:33:52.859375
580,34.44,2022-10-26 10:33:52.875000
581,6.66,2022-10-26 10:33:52.890625
582,-18.92,2022-10-26 10:33:52.906250
583,-42.02,2022-10-26 10:33:52.921875
584,-64.27,2022-10-26 10:33:52.937500
585,-87.17,2022-10-26 10:33:52.953125
586,-110.2,2022-10-26 10:33:52.968750
587,-130.48,2022-10-26 10:33:52.984375
588,-143.57,2022-10-26 10:33:53.000000
589,-146.21,2022-10-26 10:33:53.015625
590,-138.77,2022-10-26 10:33:53.031250
591,-125.26,2022-10-26 10:33:53.046875
592,-111.31,2022-10-26 10:33:53.062500
593,-101.74,2022-10-26 10:33:53.078125
594,-98.15,2022-10-26 10:33:53.093750
595,-98.88,2022-10-26 10:33:53.109375
596,-100.69,2022-10-26 10:33:53.125000
597,-100.27,2022-10-26 10:33:53.140625
598,-96.37,2022-10-26 10:33:53.156250
599,-89.8,2022-10-26 10:33:53.171875
600,-82.69,2022-10-26 10:33:53.187500
601,-76.55,2022-10-26 10:33:53.203125
602,-70.84,2022-10-26 10:33:53.218750
603,-62.96,2022-10-26 10:33:53.234375
604,-49.81,2022-10-26 10:33:53.250000
605,-30.44,2022-10-26 10:33:53.265625
606,-7.7,2022-10-26 10:33:53.281250
607,12.67,2022-10-26 10:33:53.296875
608,25.21,2022-10-26 10:33:53.312500
609,28.4,2022-10-26 10:33:53.328125
610,25.87,2022-10-26 10:33:53.343750
611,24.28,2022-10-26 10:33:53.359375
612,29.6,2022-10-26 10:33:53.375000
613,43.64,2022-10-26 10:33:53.390625
614,63.42,2022-10-26 10:33:53.406250
615,84.18,2022-10-26 10:33:53.421875
616,101.97,2022-10-26 10:33:53.437500
617,115.46,2022-10-26 10:33:53.453125
618,124.28,2022-10-26 10:33:53.468750
619,126.57,2022-10-26 10:33:53.484375
620,118.26,2022-10-26 10:33:53.500000
621,95.78,2022-10-26 10:33:53.515625
622,60.66,2022-10-26 10:33:53.531250
623,21.03,2022-10-26 10:33:53.546875
624,-10.33,2022-10-26 10:33:53.562500
625,-22.19,2022-10-26 10:33:53.578125
626,-11.5,2022-10-26 10:33:53.593750
627,15.2,2022-10-26 10:33:53.609375
628,44.7,2022-10-26 10:33:53.625000
629,64.66,2022-10-26 10:33:53.640625
630,69.03,2022-10-26 10:33:53.656250
631,59.95,2022-10-26 10:33:53.671875
632,45.04,2022-10-26 10:33:53.687500
633,32.63,2022-10-26 10:33:53.703125
634,27.51,2022-10-26 10:33:53.718750
635,29.86,2022-10-26 10:33:53.734375
636,35.9,2022-10-26 10:33:53.750000
637,40.55,2022-10-26 10:33:53.765625
638,40.14,2022-10-26 10:33:53.781250
639,34.05,2022-10-26 10:33:53.796875
640,25.41,2022-10-26 10:33:53.812500
641,19.23,2022-10-26 10:33:53.828125
642,19.34,2022-10-26 10:33:53.843750
643,24.95,2022-10-26 10:33:53.859375
644,29.9,2022-10-26 10:33:53.875000
645,25.13,2022-10-26 10:33:53.890625
646,3.84,2022-10-26 10:33:53.906250
647,-32.99,2022-10-26 10:33:53.921875
648,-76.15,2022-10-26 10:33:53.937500
649,-112.49,2022-10-26 10:33:53.953125
650,-131.46,2022-10-26 10:33:53.968750
651,-130.5,2022-10-26 10:33:53.984375
652,-115.33,2022-10-26 10:33:54.000000
653,-95.75,2022-10-26 10:33:54.015625
654,-79.59,2022-10-26 10:33:54.031250
655,-69.3,2022-10-26 10:33:54.046875
656,-62.39,2022-10-26 10:33:54.062500
657,-55.08,2022-10-26 10:33:54.078125
658,-46.34,2022-10-26 10:33:54.093750
659,-38.5,2022-10-26 10:33:54.109375
660,-35.47,2022-10-26 10:33:54.125000
661,-39.83,2022-10-26 10:33:54.140625
662,-50.53,2022-10-26 10:33:54.156250
663,-63.44,2022-10-26 10:33:54.171875
664,-73.77,2022-10-26 10:33:54.187500
665,-78.22,2022-10-26 10:33:54.203125
666,-76.43,2022-10-26 10:33:54.218750
667,-70.34,2022-10-26 10:33:54.234375
668,-62.89,2022-10-26 10:33:54.250000
669,-56.49,2022-10-26 10:33:54.265625
670,-52.14,2022-10-26 10:33:54.281250
671,-50.21,2022-10-26 10:33:54.296875
672,-50.58,2022-10-26 10:33:54.312500
673,-53.6,2022-10-26 10:33:54.328125
674,-60.02,2022-10-26 10:33:54.343750
675,-71.0,2022-10-26 10:33:54.359375
676,-86.54,2022-10-26 10:33:54.375000
677,-104.68,2022-10-26 10:33:54.390625
678,-120.98,2022-10-26 10:33:54.406250
679,-129.21,2022-10-26 10:33:54.421875
680,-123.54,2022-10-26 10:33:54.437500
681,-101.31,2022-10-26 10:33:54.453125
682,-64.72,2022-10-26 10:33:54.468750
683,-20.79,2022-10-26 10:33:54.484375
684,20.82,2022-10-26 10:33:54.500000
685,52.18,2022-10-26 10:33:54.515625
686,69.36,2022-10-26 10:33:54.531250
687,74.03,2022-10-26 10:33:54.546875
688,71.82,2022-10-26 10:33:54.562500
689,69.69,2022-10-26 10:33:54.578125
690,73.17,2022-10-26 10:33:54.593750
691,84.56,2022-10-26 10:33:54.609375
692,103.46,2022-10-26 10:33:54.625000
693,127.03,2022-10-26 10:33:54.640625
694,152.34,2022-10-26 10:33:54.656250
695,176.81,2022-10-26 10:33:54.671875
696,198.52,2022-10-26 10:33:54.687500
697,216.16,2022-10-26 10:33:54.703125
698,227.89,2022-10-26 10:33:54.718750
699,231.15,2022-10-26 10:33:54.734375
700,223.5,2022-10-26 10:33:54.750000
701,204.28,2022-10-26 10:33:54.765625
702,175.89,2022-10-26 10:33:54.781250
703,143.86,2022-10-26 10:33:54.796875
704,114.39,2022-10-26 10:33:54.812500
705,90.77,2022-10-26 10:33:54.828125
706,71.85,2022-10-26 10:33:54.843750
707,52.39,2022-10-26 10:33:54.859375
708,27.17,2022-10-26 10:33:54.875000
709,-4.52,2022-10-26 10:33:54.890625
710,-36.78,2022-10-26 10:33:54.906250
711,-59.86,2022-10-26 10:33:54.921875
712,-65.39,2022-10-26 10:33:54.937500
713,-51.62,2022-10-26 10:33:54.953125
714,-25.54,2022-10-26 10:33:54.968750
715,0.86,2022-10-26 10:33:54.984375
716,15.99,2022-10-26 10:33:55.000000
717,14.83,2022-10-26 10:33:55.015625
718,-0.51,2022-10-26 10:33:55.031250
719,-22.93,2022-10-26 10:33:55.046875
720,-45.56,2022-10-26 10:33:55.062500
721,-65.22,2022-10-26 10:33:55.078125
722,-83.22,2022-10-26 10:33:55.093750
723,-102.5,2022-10-26 10:33:55.109375
724,-123.58,2022-10-26 10:33:55.125000
725,-143.71,2022-10-26 10:33:55.140625
726,-156.81,2022-10-26 10:33:55.156250
727,-157.26,2022-10-26 10:33:55.171875
728,-143.39,2022-10-26 10:33:55.187500
729,-118.73,2022-10-26 10:33:55.203125
730,-90.46,2022-10-26 10:33:55.218750
731,-66.26,2022-10-26 10:33:55.234375
732,-50.38,2022-10-26 10:33:55.250000
733,-41.89,2022-10-26 10:33:55.265625
734,-36.59,2022-10-26 10:33:55.281250
735,-29.89,2022-10-26 10:33:55.296875
736,-20.12,2022-10-26 10:33:55.312500
737,-9.85,2022-10-26 10:33:55.328125
738,-4.02,2022-10-26 10:33:55.343750
739,-6.63,2022-10-26 10:33:55.359375
740,-18.37,2022-10-26 10:33:55.375000
741,-35.32,2022-10-26 10:33:55.390625
742,-50.88,2022-10-26 10:33:55.406250
743,-58.61,2022-10-26 10:33:55.421875
744,-55.53,2022-10-26 10:33:55.437500
745,-42.34,2022-10-26 10:33:55.453125
746,-22.39,2022-10-26 10:33:55.468750
747,0.54,2022-10-26 10:33:55.484375
748,23.83,2022-10-26 10:33:55.500000
749,45.93,2022-10-26 10:33:55.515625
750,64.96,2022-10-26 10:33:55.531250
751,77.97,2022-10-26 10:33:55.546875
752,81.38,2022-10-26 10:33:55.562500
753,73.68,2022-10-26 10:33:55.578125
754,56.96,2022-10-26 10:33:55.593750
755,37.32,2022-10-26 10:33:55.609375
756,22.77,2022-10-26 10:33:55.625000
757,19.27,2022-10-26 10:33:55.640625
758,28.43,2022-10-26 10:33:55.656250
759,46.95,2022-10-26 10:33:55.671875
760,68.49,2022-10-26 10:33:55.687500
761,86.35,2022-10-26 10:33:55.703125
762,95.69,2022-10-26 10:33:55.718750
763,93.48,2022-10-26 10:33:55.734375
764,78.79,2022-10-26 10:33:55.750000
765,52.57,2022-10-26 10:33:55.765625
766,17.46,2022-10-26 10:33:55.781250
767,-22.16,2022-10-26 10:33:55.796875
768,-60.11,2022-10-26 10:33:55.812500
769,-90.17,2022-10-26 10:33:55.828125
770,-107.18,2022-10-26 10:33:55.843750
771,-107.43,2022-10-26 10:33:55.859375
772,-89.8,2022-10-26 10:33:55.875000
773,-56.05,2022-10-26 10:33:55.890625
774,-11.8,2022-10-26 10:33:55.906250
775,33.96,2022-10-26 10:33:55.921875
776,70.24,2022-10-26 10:33:55.937500
777,87.67,2022-10-26 10:33:55.953125
778,82.07,2022-10-26 10:33:55.968750
779,56.54,2022-10-26 10:33:55.984375
780,21.01,2022-10-26 10:33:56.000000
781,-12.4,2022-10-26 10:33:56.015625
782,-33.99,2022-10-26 10:33:56.031250
783,-40.03,2022-10-26 10:33:56.046875
784,-34.0,2022-10-26 10:33:56.062500
785,-24.11,2022-10-26 10:33:56.078125
786,-19.38,2022-10-26 10:33:56.093750
787,-26.1,2022-10-26 10:33:56.109375
788,-45.45,2022-10-26 10:33:56.125000
789,-73.08,2022-10-26 10:33:56.140625
790,-101.19,2022-10-26 10:33:56.156250
791,-121.7,2022-10-26 10:33:56.171875
792,-129.68,2022-10-26 10:33:56.187500
793,-125.62,2022-10-26 10:33:56.203125
794,-114.88,2022-10-26 10:33:56.218750
795,-103.97,2022-10-26 10:33:56.234375
796,-96.76,2022-10-26 10:33:56.250000
797,-92.17,2022-10-26 10:33:56.265625
798,-85.09,2022-10-26 10:33:56.281250
799,-70.18,2022-10-26 10:33:56.296875
800,-45.27,2022-10-26 10:33:56.312500
801,-13.27,2022-10-26 10:33:56.328125
802,19.32,2022-10-26 10:33:56.343750
803,45.89,2022-10-26 10:33:56.359375
804,62.68,2022-10-26 10:33:56.375000
805,70.51,2022-10-26 10:33:56.390625
806,73.79,2022-10-26 10:33:56.406250
807,77.91,2022-10-26 10:33:56.421875
808,86.1,2022-10-26 10:33:56.437500
809,97.91,2022-10-26 10:33:56.453125
810,109.28,2022-10-26 10:33:56.468750
811,115.35,2022-10-26 10:33:56.484375
812,114.25,2022-10-26 10:33:56.500000
813,108.16,2022-10-26 10:33:56.515625
814,102.9,2022-10-26 10:33:56.531250
815,104.87,2022-10-26 10:33:56.546875
816,117.07,2022-10-26 10:33:56.562500
817,136.29,2022-10-26 10:33:56.578125
818,153.71,2022-10-26 10:33:56.593750
819,158.34,2022-10-26 10:33:56.609375
820,142.18,2022-10-26 10:33:56.625000
821,104.45,2022-10-26 10:33:56.640625
822,52.25,2022-10-26 10:33:56.656250
823,-2.01,2022-10-26 10:33:56.671875
824,-45.66,2022-10-26 10:33:56.687500
825,-70.73,2022-10-26 10:33:56.703125
826,-76.09,2022-10-26 10:33:56.718750
827,-65.74,2022-10-26 10:33:56.734375
828,-45.57,2022-10-26 10:33:56.750000
829,-20.18,2022-10-26 10:33:56.765625
830,8.2,2022-10-26 10:33:56.781250
831,37.71,2022-10-26 10:33:56.796875
832,64.84,2022-10-26 10:33:56.812500
833,83.85,2022-10-26 10:33:56.828125
834,88.72,2022-10-26 10:33:56.843750
835,76.61,2022-10-26 10:33:56.859375
836,50.49,2022-10-26 10:33:56.875000
837,17.92,2022-10-26 10:33:56.890625
838,-12.75,2022-10-26 10:33:56.906250
839,-36.66,2022-10-26 10:33:56.921875
840,-53.72,2022-10-26 10:33:56.937500
841,-66.43,2022-10-26 10:33:56.953125
842,-76.2,2022-10-26 10:33:56.968750
843,-81.3,2022-10-26 10:33:56.984375
844,-77.38,2022-10-26 10:33:57.000000
845,-61.69,2022-10-26 10:33:57.015625
846,-36.49,2022-10-26 10:33:57.031250
847,-9.37,2022-10-26 10:33:57.046875
848,10.21,2022-10-26 10:33:57.062500
849,15.55,2022-10-26 10:33:57.078125
850,5.7,2022-10-26 10:33:57.093750
851,-15.1,2022-10-26 10:33:57.109375
852,-40.44,2022-10-26 10:33:57.125000
853,-65.0,2022-10-26 10:33:57.140625
854,-85.89,2022-10-26 10:33:57.156250
855,-101.04,2022-10-26 10:33:57.171875
856,-108.08,2022-10-26 10:33:57.187500
857,-103.8,2022-10-26 10:33:57.203125
858,-86.58,2022-10-26 10:33:57.218750
859,-59.34,2022-10-26 10:33:57.234375
860,-30.84,2022-10-26 10:33:57.250000
861,-12.73,2022-10-26 10:33:57.265625
862,-13.31,2022-10-26 10:33:57.281250
863,-32.81,2022-10-26 10:33:57.296875
864,-61.79,2022-10-26 10:33:57.312500
865,-85.6,2022-10-26 10:33:57.328125
866,-92.02,2022-10-26 10:33:57.343750
867,-78.25,2022-10-26 10:33:57.359375
868,-51.36,2022-10-26 10:33:57.375000
869,-24.19,2022-10-26 10:33:57.390625
870,-8.12,2022-10-26 10:33:57.406250
871,-7.62,2022-10-26 10:33:57.421875
872,-19.45,2022-10-26 10:33:57.437500
873,-35.29,2022-10-26 10:33:57.453125
874,-46.64,2022-10-26 10:33:57.468750
875,-47.93,2022-10-26 10:33:57.484375
876,-37.81,2022-10-26 10:33:57.500000
877,-18.0,2022-10-26 10:33:57.515625
878,8.0,2022-10-26 10:33:57.531250
879,36.69,2022-10-26 10:33:57.546875
880,65.23,2022-10-26 10:33:57.562500
881,91.69,2022-10-26 10:33:57.578125
882,115.49,2022-10-26 10:33:57.593750
883,136.57,2022-10-26 10:33:57.609375
884,154.34,2022-10-26 10:33:57.625000
885,166.96,2022-10-26 10:33:57.640625
886,171.47,2022-10-26 10:33:57.656250
887,165.23,2022-10-26 10:33:57.671875
888,147.23,2022-10-26 10:33:57.687500
889,119.63,2022-10-26 10:33:57.703125
890,86.96,2022-10-26 10:33:57.718750
891,55.82,2022-10-26 10:33:57.734375
892,32.55,2022-10-26 10:33:57.750000
893,21.81,2022-10-26 10:33:57.765625
894,24.58,2022-10-26 10:33:57.781250
895,37.75,2022-10-26 10:33:57.796875
896,54.57,2022-10-26 10:33:57.812500
897,66.99,2022-10-26 10:33:57.828125
898,69.49,2022-10-26 10:33:57.843750
899,61.75,2022-10-26 10:33:57.859375
900,49.26,2022-10-26 10:33:57.875000
901,40.05,2022-10-26 10:33:57.890625
902,39.82,2022-10-26 10:33:57.906250
903,48.02,2022-10-26 10:33:57.921875
904,57.7,2022-10-26 10:33:57.937500
905,58.76,2022-10-26 10:33:57.953125
906,43.6,2022-10-26 10:33:57.968750
907,11.62,2022-10-26 10:33:57.984375
908,-31.13,2022-10-26 10:33:58.000000
909,-75.31,2022-10-26 10:33:58.015625
910,-113.27,2022-10-26 10:33:58.031250
911,-141.69,2022-10-26 10:33:58.046875
912,-161.09,2022-10-26 10:33:58.062500
913,-173.3,2022-10-26 10:33:58.078125
914,-178.71,2022-10-26 10:33:58.093750
915,-175.49,2022-10-26 10:33:58.109375
916,-161.77,2022-10-26 10:33:58.125000
917,-138.34,2022-10-26 10:33:58.140625
918,-109.37,2022-10-26 10:33:58.156250
919,-81.16,2022-10-26 10:33:58.171875
920,-58.58,2022-10-26 10:33:58.187500
921,-42.65,2022-10-26 10:33:58.203125
922,-30.87,2022-10-26 10:33:58.218750
923,-19.61,2022-10-26 10:33:58.234375
924,-7.84,2022-10-26 10:33:58.250000
925,1.41,2022-10-26 10:33:58.265625
926,2.22,2022-10-26 10:33:58.281250
927,-9.57,2022-10-26 10:33:58.296875
928,-32.9,2022-10-26 10:33:58.312500
929,-60.01,2022-10-26 10:33:58.328125
930,-79.83,2022-10-26 10:33:58.343750
931,-83.45,2022-10-26 10:33:58.359375
932,-68.61,2022-10-26 10:33:58.375000
933,-41.1,2022-10-26 10:33:58.390625
934,-11.19,2022-10-26 10:33:58.406250
935,11.21,2022-10-26 10:33:58.421875
936,21.69,2022-10-26 10:33:58.437500
937,21.47,2022-10-26 10:33:58.453125
938,15.13,2022-10-26 10:33:58.468750
939,6.82,2022-10-26 10:33:58.484375
940,-1.92,2022-10-26 10:33:58.500000
941,-11.88,2022-10-26 10:33:58.515625
942,-23.06,2022-10-26 10:33:58.531250
943,-32.4,2022-10-26 10:33:58.546875
944,-33.97,2022-10-26 10:33:58.562500
945,-22.11,2022-10-26 10:33:58.578125
946,3.27,2022-10-26 10:33:58.593750
947,35.6,2022-10-26 10:33:58.609375
948,63.6,2022-10-26 10:33:58.625000
949,77.11,2022-10-26 10:33:58.640625
950,72.84,2022-10-26 10:33:58.656250
951,55.99,2022-10-26 10:33:58.671875
952,37.41,2022-10-26 10:33:58.687500
953,26.92,2022-10-26 10:33:58.703125
954,28.34,2022-10-26 10:33:58.718750
955,38.04,2022-10-26 10:33:58.734375
956,48.0,2022-10-26 10:33:58.750000
957,51.88,2022-10-26 10:33:58.765625
958,49.22,2022-10-26 10:33:58.781250
959,44.86,2022-10-26 10:33:58.796875
960,44.72,2022-10-26 10:33:58.812500
961,51.47,2022-10-26 10:33:58.828125
962,62.12,2022-10-26 10:33:58.843750
963,70.12,2022-10-26 10:33:58.859375
964,70.04,2022-10-26 10:33:58.875000
965,60.76,2022-10-26 10:33:58.890625
966,46.49,2022-10-26 10:33:58.906250
967,33.1,2022-10-26 10:33:58.921875
968,24.73,2022-10-26 10:33:58.937500
969,21.81,2022-10-26 10:33:58.953125
970,22.46,2022-10-26 10:33:58.968750
971,25.08,2022-10-26 10:33:58.984375
972,30.91,2022-10-26 10:33:59.000000
973,43.89,2022-10-26 10:33:59.015625
974,67.89,2022-10-26 10:33:59.031250
975,103.01,2022-10-26 10:33:59.046875
976,143.6,2022-10-26 10:33:59.062500
977,179.25,2022-10-26 10:33:59.078125
978,198.15,2022-10-26 10:33:59.093750
979,192.18,2022-10-26 10:33:59.109375
980,160.39,2022-10-26 10:33:59.125000
981,109.75,2022-10-26 10:33:59.140625
982,52.53,2022-10-26 10:33:59.156250
983,1.78,2022-10-26 10:33:59.171875
984,-33.61,2022-10-26 10:33:59.187500
985,-51.86,2022-10-26 10:33:59.203125
986,-57.26,2022-10-26 10:33:59.218750
987,-56.62,2022-10-26 10:33:59.234375
988,-55.28,2022-10-26 10:33:59.250000
989,-54.26,2022-10-26 10:33:59.265625
990,-50.33,2022-10-26 10:33:59.281250
991,-39.12,2022-10-26 10:33:59.296875
992,-18.59,2022-10-26 10:33:59.312500
993,8.72,2022-10-26 10:33:59.328125
994,36.18,2022-10-26 10:33:59.343750
995,56.08,2022-10-26 10:33:59.359375
996,62.99,2022-10-26 10:33:59.375000
997,55.78,2022-10-26 10:33:59.390625
998,37.42,2022-10-26 10:33:59.406250
999,12.4,2022-10-26 10:33:59.421875
1000,-15.36,2022-10-26 10:33:59.437500
1001,-43.68,2022-10-26 10:33:59.453125
1002,-71.36,2022-10-26 10:33:59.468750
1003,-96.96,2022-10-26 10:33:59.484375
1004,-117.65,2022-10-26 10:33:59.500000
1005,-130.01,2022-10-26 10:33:59.515625
1006,-131.76,2022-10-26 10:33:59.531250
1007,-123.64,2022-10-26 10:33:59.546875
1008,-109.29,2022-10-26 10:33:59.562500
1009,-93.64,2022-10-26 10:33:59.578125
1010,-80.81,2022-10-26 10:33:59.593750
1011,-72.53,2022-10-26 10:33:59.609375
1012,-68.27,2022-10-26 10:33:59.625000
1013,-66.83,2022-10-26 10:33:59.640625
1014,-68.48,2022-10-26 10:33:59.656250
1015,-74.69,2022-10-26 10:33:59.671875
1016,-87.64,2022-10-26 10:33:59.687500
1017,-108.35,2022-10-26 10:33:59.703125
1018,-135.48,2022-10-26 10:33:59.718750
1019,-165.48,2022-10-26 10:33:59.734375
1020,-193.43,2022-10-26 10:33:59.750000
1021,-213.94,2022-10-26 10:33:59.765625
1022,-222.35,2022-10-26 10:33:59.781250
1023,-215.84,2022-10-26 10:33:59.796875
1024,-194.62,2022-10-26 10:33:59.812500
1025,-163.16,2022-10-26 10:33:59.828125
1026,-129.19,2022-10-26 10:33:59.843750
1027,-101.06,2022-10-26 10:33:59.859375
1028,-84.92,2022-10-26 10:33:59.875000
1029,-81.29,2022-10-26 10:33:59.890625
1030,-85.1,2022-10-26 10:33:59.906250
1031,-88.39,2022-10-26 10:33:59.921875
1032,-84.19,2022-10-26 10:33:59.937500
1033,-69.58,2022-10-26 10:33:59.953125
1034,-46.66,2022-10-26 10:33:59.968750
1035,-19.81,2022-10-26 10:33:59.984375
1036,8.25,2022-10-26 10:34:00.000000
1037,38.2,2022-10-26 10:34:00.015625
1038,73.85,2022-10-26 10:34:00.031250
1039,117.93,2022-10-26 10:34:00.046875
1040,168.27,2022-10-26 10:34:00.062500
1041,216.03,2022-10-26 10:34:00.078125
1042,248.5,2022-10-26 10:34:00.093750
1043,254.83,2022-10-26 10:34:00.109375
1044,231.78,2022-10-26 10:34:00.125000
1045,186.84,2022-10-26 10:34:00.140625
1046,134.75,2022-10-26 10:34:00.156250
1047,92.05,2022-10-26 10:34:00.171875
1048,69.98,2022-10-26 10:34:00.187500
1049,70.58,2022-10-26 10:34:00.203125
1050,87.51,2022-10-26 10:34:00.218750
1051,110.51,2022-10-26 10:34:00.234375
1052,130.61,2022-10-26 10:34:00.250000
1053,143.69,2022-10-26 10:34:00.265625
1054,150.09,2022-10-26 10:34:00.281250
1055,151.87,2022-10-26 10:34:00.296875
1056,149.88,2022-10-26 10:34:00.312500
1057,142.78,2022-10-26 10:34:00.328125
1058,128.64,2022-10-26 10:34:00.343750
1059,108.09,2022-10-26 10:34:00.359375
1060,85.75,2022-10-26 10:34:00.375000
1061,68.77,2022-10-26 10:34:00.390625
1062,62.96,2022-10-26 10:34:00.406250
1063,68.56,2022-10-26 10:34:00.421875
1064,79.01,2022-10-26 10:34:00.437500
1065,83.81,2022-10-26 10:34:00.453125
1066,73.58,2022-10-26 10:34:00.468750
1067,45.61,2022-10-26 10:34:00.484375
1068,5.4,2022-10-26 10:34:00.500000
1069,-36.69,2022-10-26 10:34:00.515625
1070,-69.6,2022-10-26 10:34:00.531250
1071,-86.84,2022-10-26 10:34:00.546875
1072,-87.95,2022-10-26 10:34:00.562500
1073,-77.02,2022-10-26 10:34:00.578125
1074,-59.52,2022-10-26 10:34:00.593750
1075,-40.44,2022-10-26 10:34:00.609375
1076,-23.71,2022-10-26 10:34:00.625000
1077,-12.31,2022-10-26 10:34:00.640625
1078,-8.84,2022-10-26 10:34:00.656250
1079,-14.52,2022-10-26 10:34:00.671875
1080,-28.25,2022-10-26 10:34:00.687500
1081,-46.77,2022-10-26 10:34:00.703125
1082,-65.49,2022-10-26 10:34:00.718750
1083,-80.37,2022-10-26 10:34:00.734375
1084,-89.27,2022-10-26 10:34:00.750000
1085,-91.83,2022-10-26 10:34:00.765625
1086,-88.56,2022-10-26 10:34:00.781250
1087,-79.83,2022-10-26 10:34:00.796875
1088,-65.79,2022-10-26 10:34:00.812500
1089,-47.21,2022-10-26 10:34:00.828125
1090,-26.93,2022-10-26 10:34:00.843750
1091,-9.8,2022-10-26 10:34:00.859375
1092,-0.79,2022-10-26 10:34:00.875000
1093,-2.65,2022-10-26 10:34:00.890625
1094,-13.15,2022-10-26 10:34:00.906250
1095,-24.53,2022-10-26 10:34:00.921875
1096,-26.5,2022-10-26 10:34:00.937500
1097,-11.72,2022-10-26 10:34:00.953125
1098,19.16,2022-10-26 10:34:00.968750
1099,55.89,2022-10-26 10:34:00.984375
1100,82.79,2022-10-26 10:34:01.000000
1101,86.17,2022-10-26 10:34:01.015625
1102,62.18,2022-10-26 10:34:01.031250
1103,19.63,2022-10-26 10:34:01.046875
1104,-24.75,2022-10-26 10:34:01.062500
1105,-54.67,2022-10-26 10:34:01.078125
1106,-62.75,2022-10-26 10:34:01.093750
1107,-52.77,2022-10-26 10:34:01.109375
1108,-35.01,2022-10-26 10:34:01.125000
1109,-18.5,2022-10-26 10:34:01.140625
1110,-5.47,2022-10-26 10:34:01.156250
1111,8.24,2022-10-26 10:34:01.171875
1112,27.7,2022-10-26 10:34:01.187500
1113,52.66,2022-10-26 10:34:01.203125
1114,75.89,2022-10-26 10:34:01.218750
1115,86.9,2022-10-26 10:34:01.234375
1116,79.4,2022-10-26 10:34:01.250000
1117,56.02,2022-10-26 10:34:01.265625
1118,27.82,2022-10-26 10:34:01.281250
1119,7.81,2022-10-26 10:34:01.296875
1120,3.4,2022-10-26 10:34:01.312500
1121,12.08,2022-10-26 10:34:01.328125
1122,23.92,2022-10-26 10:34:01.343750
1123,28.05,2022-10-26 10:34:01.359375
1124,20.0,2022-10-26 10:34:01.375000
1125,4.31,2022-10-26 10:34:01.390625
1126,-9.0,2022-10-26 10:34:01.406250
1127,-10.49,2022-10-26 10:34:01.421875
1128,3.0,2022-10-26 10:34:01.437500
1129,26.86,2022-10-26 10:34:01.453125
1130,52.57,2022-10-26 10:34:01.468750
1131,72.88,2022-10-26 10:34:01.484375
1132,85.14,2022-10-26 10:34:01.500000
1133,91.23,2022-10-26 10:34:01.515625
1134,94.49,2022-10-26 10:34:01.531250
1135,96.08,2022-10-26 10:34:01.546875
1136,94.36,2022-10-26 10:34:01.562500
1137,86.68,2022-10-26 10:34:01.578125
1138,71.54,2022-10-26 10:34:01.593750
1139,50.39,2022-10-26 10:34:01.609375
1140,26.76,2022-10-26 10:34:01.625000
1141,4.0,2022-10-26 10:34:01.640625
1142,-15.9,2022-10-26 10:34:01.656250
1143,-32.28,2022-10-26 10:34:01.671875
1144,-44.93,2022-10-26 10:34:01.687500
1145,-52.59,2022-10-26 10:34:01.703125
1146,-53.73,2022-10-26 10:34:01.718750
1147,-47.3,2022-10-26 10:34:01.734375
1148,-33.59,2022-10-26 10:34:01.750000
1149,-15.14,2022-10-26 10:34:01.765625
1150,3.81,2022-10-26 10:34:01.781250
1151,18.15,2022-10-26 10:34:01.796875
1152,22.77,2022-10-26 10:34:01.812500
1153,13.2,2022-10-26 10:34:01.828125
1154,-12.29,2022-10-26 10:34:01.843750
1155,-51.83,2022-10-26 10:34:01.859375
1156,-98.55,2022-10-26 10:34:01.875000
1157,-141.53,2022-10-26 10:34:01.890625
1158,-168.98,2022-10-26 10:34:01.906250
1159,-173.33,2022-10-26 10:34:01.921875
1160,-154.55,2022-10-26 10:34:01.937500
1161,-121.08,2022-10-26 10:34:01.953125
1162,-86.51,2022-10-26 10:34:01.968750
1163,-63.1,2022-10-26 10:34:01.984375
1164,-57.36,2022-10-26 10:34:02.000000
1165,-67.95,2022-10-26 10:34:02.015625
1166,-87.4,2022-10-26 10:34:02.031250
1167,-107.24,2022-10-26 10:34:02.046875
1168,-121.57,2022-10-26 10:34:02.062500
1169,-128.35,2022-10-26 10:34:02.078125
1170,-127.85,2022-10-26 10:34:02.093750
1171,-120.27,2022-10-26 10:34:02.109375
1172,-104.85,2022-10-26 10:34:02.125000
1173,-80.86,2022-10-26 10:34:02.140625
1174,-49.42,2022-10-26 10:34:02.156250
1175,-13.8,2022-10-26 10:34:02.171875
1176,21.37,2022-10-26 10:34:02.187500
1177,53.11,2022-10-26 10:34:02.203125
1178,80.88,2022-10-26 10:34:02.218750
1179,105.79,2022-10-26 10:34:02.234375
1180,128.27,2022-10-26 10:34:02.250000
1181,147.17,2022-10-26 10:34:02.265625
1182,159.94,2022-10-26 10:34:02.281250
1183,164.99,2022-10-26 10:34:02.296875
1184,163.76,2022-10-26 10:34:02.312500
1185,159.57,2022-10-26 10:34:02.328125
1186,156.16,2022-10-26 10:34:02.343750
1187,154.12,2022-10-26 10:34:02.359375
1188,150.5,2022-10-26 10:34:02.375000
1189,140.13,2022-10-26 10:34:02.390625
1190,119.65,2022-10-26 10:34:02.406250
1191,89.57,2022-10-26 10:34:02.421875
1192,55.1,2022-10-26 10:34:02.437500
1193,23.31,2022-10-26 10:34:02.453125
1194,-0.46,2022-10-26 10:34:02.468750
1195,-13.9,2022-10-26 10:34:02.484375
1196,-18.51,2022-10-26 10:34:02.500000
1197,-17.76,2022-10-26 10:34:02.515625
1198,-14.96,2022-10-26 10:34:02.531250
1199,-11.98,2022-10-26 10:34:02.546875
1200,-9.3,2022-10-26 10:34:02.562500
1201,-6.92,2022-10-26 10:34:02.578125
1202,-5.1,2022-10-26 10:34:02.593750
1203,-4.84,2022-10-26 10:34:02.609375
1204,-6.83,2022-10-26 10:34:02.625000
1205,-10.64,2022-10-26 10:34:02.640625
1206,-14.55,2022-10-26 10:34:02.656250
1207,-16.22,2022-10-26 10:34:02.671875
1208,-14.4,2022-10-26 10:34:02.687500
1209,-10.37,2022-10-26 10:34:02.703125
1210,-7.55,2022-10-26 10:34:02.718750
1211,-9.94,2022-10-26 10:34:02.734375
1212,-19.24,2022-10-26 10:34:02.750000
1213,-32.47,2022-10-26 10:34:02.765625
1214,-42.24,2022-10-26 10:34:02.781250
1215,-40.42,2022-10-26 10:34:02.796875
1216,-22.49,2022-10-26 10:34:02.812500
1217,9.16,2022-10-26 10:34:02.828125
1218,45.66,2022-10-26 10:34:02.843750
1219,75.58,2022-10-26 10:34:02.859375
1220,90.81,2022-10-26 10:34:02.875000
1221,90.01,2022-10-26 10:34:02.890625
1222,79.07,2022-10-26 10:34:02.906250
1223,67.06,2022-10-26 10:34:02.921875
1224,61.73,2022-10-26 10:34:02.937500
1225,65.96,2022-10-26 10:34:02.953125
1226,76.98,2022-10-26 10:34:02.968750
1227,88.77,2022-10-26 10:34:02.984375
1228,94.92,2022-10-26 10:34:03.000000
1229,91.02,2022-10-26 10:34:03.015625
1230,75.1,2022-10-26 10:34:03.031250
1231,47.24,2022-10-26 10:34:03.046875
1232,9.3,2022-10-26 10:34:03.062500
1233,-34.27,2022-10-26 10:34:03.078125
1234,-75.72,2022-10-26 10:34:03.093750
1235,-105.64,2022-10-26 10:34:03.109375
1236,-116.26,2022-10-26 10:34:03.125000
1237,-105.39,2022-10-26 10:34:03.140625
1238,-78.62,2022-10-26 10:34:03.156250
1239,-48.61,2022-10-26 10:34:03.171875
1240,-30.2,2022-10-26 10:34:03.187500
1241,-34.59,2022-10-26 10:34:03.203125
1242,-64.35,2022-10-26 10:34:03.218750
1243,-112.29,2022-10-26 10:34:03.234375
1244,-163.77,2022-10-26 10:34:03.250000
1245,-202.25,2022-10-26 10:34:03.265625
1246,-214.41,2022-10-26 10:34:03.281250
1247,-194.64,2022-10-26 10:34:03.296875
1248,-147.31,2022-10-26 10:34:03.312500
1249,-84.44,2022-10-26 10:34:03.328125
1250,-22.41,2022-10-26 10:34:03.343750
1251,23.83,2022-10-26 10:34:03.359375
1252,45.53,2022-10-26 10:34:03.375000
1253,42.21,2022-10-26 10:34:03.390625
1254,20.67,2022-10-26 10:34:03.406250
1255,-8.38,2022-10-26 10:34:03.421875
1256,-35.06,2022-10-26 10:34:03.437500
1257,-53.55,2022-10-26 10:34:03.453125
1258,-62.4,2022-10-26 10:34:03.468750
1259,-63.95,2022-10-26 10:34:03.484375
1260,-61.46,2022-10-26 10:34:03.500000
1261,-58.03,2022-10-26 10:34:03.515625
1262,-55.71,2022-10-26 10:34:03.531250
1263,-55.68,2022-10-26 10:34:03.546875
1264,-58.8,2022-10-26 10:34:03.562500
1265,-65.78,2022-10-26 10:34:03.578125
1266,-76.54,2022-10-26 10:34:03.593750
1267,-89.66,2022-10-26 10:34:03.609375
1268,-102.84,2022-10-26 10:34:03.625000
1269,-113.09,2022-10-26 10:34:03.640625
1270,-117.9,2022-10-26 10:34:03.656250
1271,-116.13,2022-10-26 10:34:03.671875
1272,-108.29,2022-10-26 10:34:03.687500
1273,-96.15,2022-10-26 10:34:03.703125
1274,-81.04,2022-10-26 10:34:03.718750
1275,-62.88,2022-10-26 10:34:03.734375
1276,-40.2,2022-10-26 10:34:03.750000
1277,-11.9,2022-10-26 10:34:03.765625
1278,20.9,2022-10-26 10:34:03.781250
1279,54.43,2022-10-26 10:34:03.796875
1280,82.88,2022-10-26 10:34:03.812500
1281,100.95,2022-10-26 10:34:03.828125
1282,105.87,2022-10-26 10:34:03.843750
1283,98.28,2022-10-26 10:34:03.859375
1284,81.43,2022-10-26 10:34:03.875000
1285,60.31,2022-10-26 10:34:03.890625
1286,40.21,2022-10-26 10:34:03.906250
1287,26.18,2022-10-26 10:34:03.921875
1288,21.72,2022-10-26 10:34:03.937500
1289,27.69,2022-10-26 10:34:03.953125
1290,41.86,2022-10-26 10:34:03.968750
1291,58.67,2022-10-26 10:34:03.984375
1292,72.05,2022-10-26 10:34:04.000000
1293,77.52,2022-10-26 10:34:04.015625
1294,73.93,2022-10-26 10:34:04.031250
1295,63.4,2022-10-26 10:34:04.046875
1296,49.58,2022-10-26 10:34:04.062500
1297,36.11,2022-10-26 10:34:04.078125
1298,25.94,2022-10-26 10:34:04.093750
1299,22.08,2022-10-26 10:34:04.109375
1300,28.21,2022-10-26 10:34:04.125000
1301,47.04,2022-10-26 10:34:04.140625
1302,77.63,2022-10-26 10:34:04.156250
1303,113.81,2022-10-26 10:34:04.171875
1304,145.31,2022-10-26 10:34:04.187500
1305,162.13,2022-10-26 10:34:04.203125
1306,159.47,2022-10-26 10:34:04.218750
1307,140.13,2022-10-26 10:34:04.234375
1308,112.65,2022-10-26 10:34:04.250000
1309,86.28,2022-10-26 10:34:04.265625
1310,66.14,2022-10-26 10:34:04.281250
1311,50.96,2022-10-26 10:34:04.296875
1312,35.28,2022-10-26 10:34:04.312500
1313,13.4,2022-10-26 10:34:04.328125
1314,-16.69,2022-10-26 10:34:04.343750
1315,-52.63,2022-10-26 10:34:04.359375
1316,-89.47,2022-10-26 10:34:04.375000
1317,-122.55,2022-10-26 10:34:04.390625
1318,-150.21,2022-10-26 10:34:04.406250
1319,-173.17,2022-10-26 10:34:04.421875
1320,-192.9,2022-10-26 10:34:04.437500
1321,-209.45,2022-10-26 10:34:04.453125
1322,-220.59,2022-10-26 10:34:04.468750
1323,-223.06,2022-10-26 10:34:04.484375
1324,-214.51,2022-10-26 10:34:04.500000
1325,-194.59,2022-10-26 10:34:04.515625
1326,-165.53,2022-10-26 10:34:04.531250
1327,-130.89,2022-10-26 10:34:04.546875
1328,-94.28,2022-10-26 10:34:04.562500
1329,-59.28,2022-10-26 10:34:04.578125
1330,-29.08,2022-10-26 10:34:04.593750
1331,-6.76,2022-10-26 10:34:04.609375
1332,6.14,2022-10-26 10:34:04.625000
1333,10.47,2022-10-26 10:34:04.640625
1334,10.63,2022-10-26 10:34:04.656250
1335,13.06,2022-10-26 10:34:04.671875
1336,23.15,2022-10-26 10:34:04.687500
1337,42.48,2022-10-26 10:34:04.703125
1338,67.5,2022-10-26 10:34:04.718750
1339,91.93,2022-10-26 10:34:04.734375
1340,110.76,2022-10-26 10:34:04.750000
1341,123.19,2022-10-26 10:34:04.765625
1342,133.07,2022-10-26 10:34:04.781250
1343,145.65,2022-10-26 10:34:04.796875
1344,162.59,2022-10-26 10:34:04.812500
1345,179.74,2022-10-26 10:34:04.828125
1346,188.54,2022-10-26 10:34:04.843750
1347,180.57,2022-10-26 10:34:04.859375
1348,152.62,2022-10-26 10:34:04.875000
1349,108.91,2022-10-26 10:34:04.890625
1350,58.63,2022-10-26 10:34:04.906250
1351,11.21,2022-10-26 10:34:04.921875
1352,-27.66,2022-10-26 10:34:04.937500
1353,-57.28,2022-10-26 10:34:04.953125
1354,-79.21,2022-10-26 10:34:04.968750
1355,-93.36,2022-10-26 10:34:04.984375
1356,-96.82,2022-10-26 10:34:05.000000
1357,-85.94,2022-10-26 10:34:05.015625
1358,-61.07,2022-10-26 10:34:05.031250
1359,-29.34,2022-10-26 10:34:05.046875
1360,-2.92,2022-10-26 10:34:05.062500
1361,6.65,2022-10-26 10:34:05.078125
1362,-5.5,2022-10-26 10:34:05.093750
1363,-34.33,2022-10-26 10:34:05.109375
1364,-66.79,2022-10-26 10:34:05.125000
1365,-88.77,2022-10-26 10:34:05.140625
1366,-91.35,2022-10-26 10:34:05.156250
1367,-74.56,2022-10-26 10:34:05.171875
1368,-46.26,2022-10-26 10:34:05.187500
1369,-18.04,2022-10-26 10:34:05.203125
1370,-0.07,2022-10-26 10:34:05.218750
1371,1.93,2022-10-26 10:34:05.234375
1372,-11.52,2022-10-26 10:34:05.250000
1373,-34.39,2022-10-26 10:34:05.265625
1374,-57.72,2022-10-26 10:34:05.281250
1375,-72.45,2022-10-26 10:34:05.296875
1376,-73.15,2022-10-26 10:34:05.312500
1377,-60.66,2022-10-26 10:34:05.328125
1378,-41.66,2022-10-26 10:34:05.343750
1379,-25.64,2022-10-26 10:34:05.359375
1380,-20.02,2022-10-26 10:34:05.375000
1381,-25.73,2022-10-26 10:34:05.390625
1382,-36.38,2022-10-26 10:34:05.406250
1383,-41.94,2022-10-26 10:34:05.421875
1384,-33.78,2022-10-26 10:34:05.437500
1385,-9.17,2022-10-26 10:34:05.453125
1386,27.21,2022-10-26 10:34:05.468750
1387,66.34,2022-10-26 10:34:05.484375
1388,98.95,2022-10-26 10:34:05.500000
1389,118.86,2022-10-26 10:34:05.515625
1390,123.15,2022-10-26 10:34:05.531250
1391,110.95,2022-10-26 10:34:05.546875
1392,81.56,2022-10-26 10:34:05.562500
1393,35.65,2022-10-26 10:34:05.578125
1394,-22.61,2022-10-26 10:34:05.593750
1395,-84.41,2022-10-26 10:34:05.609375
1396,-136.67,2022-10-26 10:34:05.625000
1397,-166.48,2022-10-26 10:34:05.640625
1398,-166.84,2022-10-26 10:34:05.656250
1399,-140.06,2022-10-26 10:34:05.671875
1400,-97.35,2022-10-26 10:34:05.687500
1401,-54.27,2022-10-26 10:34:05.703125
1402,-23.98,2022-10-26 10:34:05.718750
1403,-12.83,2022-10-26 10:34:05.734375
1404,-19.42,2022-10-26 10:34:05.750000
1405,-36.53,2022-10-26 10:34:05.765625
1406,-55.23,2022-10-26 10:34:05.781250
1407,-67.69,2022-10-26 10:34:05.796875
1408,-69.01,2022-10-26 10:34:05.812500
1409,-57.83,2022-10-26 10:34:05.828125
1410,-36.23,2022-10-26 10:34:05.843750
1411,-9.33,2022-10-26 10:34:05.859375
1412,16.38,2022-10-26 10:34:05.875000
1413,34.69,2022-10-26 10:34:05.890625
1414,42.52,2022-10-26 10:34:05.906250
1415,40.59,2022-10-26 10:34:05.921875
1416,32.96,2022-10-26 10:34:05.937500
1417,25.15,2022-10-26 10:34:05.953125
1418,20.93,2022-10-26 10:34:05.968750
1419,21.21,2022-10-26 10:34:05.984375
1420,24.18,2022-10-26 10:34:06.000000
1421,27.89,2022-10-26 10:34:06.015625
1422,31.54,2022-10-26 10:34:06.031250
1423,36.48,2022-10-26 10:34:06.046875
1424,44.43,2022-10-26 10:34:06.062500
1425,56.2,2022-10-26 10:34:06.078125
1426,70.84,2022-10-26 10:34:06.093750
1427,86.6,2022-10-26 10:34:06.109375
1428,102.22,2022-10-26 10:34:06.125000
1429,117.25,2022-10-26 10:34:06.140625
1430,131.32,2022-10-26 10:34:06.156250
1431,142.49,2022-10-26 10:34:06.171875
1432,147.88,2022-10-26 10:34:06.187500
1433,145.01,2022-10-26 10:34:06.203125
1434,134.21,2022-10-26 10:34:06.218750
1435,119.65,2022-10-26 10:34:06.234375
1436,107.44,2022-10-26 10:34:06.250000
1437,102.5,2022-10-26 10:34:06.265625
1438,104.81,2022-10-26 10:34:06.281250
1439,110.04,2022-10-26 10:34:06.296875
1440,111.67,2022-10-26 10:34:06.312500
1441,105.6,2022-10-26 10:34:06.328125
1442,92.39,2022-10-26 10:34:06.343750
1443,75.44,2022-10-26 10:34:06.359375
1444,58.22,2022-10-26 10:34:06.375000
1445,41.42,2022-10-26 10:34:06.390625
1446,23.89,2022-10-26 10:34:06.406250
1447,5.22,2022-10-26 10:34:06.421875
1448,-12.4,2022-10-26 10:34:06.437500
1449,-24.16,2022-10-26 10:34:06.453125
1450,-26.5,2022-10-26 10:34:06.468750
1451,-20.89,2022-10-26 10:34:06.484375
1452,-14.95,2022-10-26 10:34:06.500000
1453,-18.77,2022-10-26 10:34:06.515625
1454,-39.32,2022-10-26 10:34:06.531250
1455,-75.34,2022-10-26 10:34:06.546875
1456,-116.66,2022-10-26 10:34:06.562500
1457,-148.99,2022-10-26 10:34:06.578125
1458,-161.52,2022-10-26 10:34:06.593750
1459,-152.25,2022-10-26 10:34:06.609375
1460,-128.41,2022-10-26 10:34:06.625000
1461,-102.32,2022-10-26 10:34:06.640625
1462,-84.27,2022-10-26 10:34:06.656250
1463,-78.26,2022-10-26 10:34:06.671875
1464,-80.95,2022-10-26 10:34:06.687500
1465,-85.23,2022-10-26 10:34:06.703125
1466,-84.84,2022-10-26 10:34:06.718750
1467,-78.32,2022-10-26 10:34:06.734375
1468,-69.9,2022-10-26 10:34:06.750000
1469,-66.78,2022-10-26 10:34:06.765625
1470,-75.18,2022-10-26 10:34:06.781250
1471,-95.62,2022-10-26 10:34:06.796875
1472,-122.79,2022-10-26 10:34:06.812500
1473,-147.43,2022-10-26 10:34:06.828125
1474,-160.22,2022-10-26 10:34:06.843750
1475,-155.69,2022-10-26 10:34:06.859375
1476,-133.73,2022-10-26 10:34:06.875000
1477,-98.84,2022-10-26 10:34:06.890625
1478,-57.76,2022-10-26 10:34:06.906250
1479,-17.3,2022-10-26 10:34:06.921875
1480,17.34,2022-10-26 10:34:06.937500
1481,43.11,2022-10-26 10:34:06.953125
1482,59.79,2022-10-26 10:34:06.968750
1483,69.82,2022-10-26 10:34:06.984375
1484,78.05,2022-10-26 10:34:07.000000
1485,90.04,2022-10-26 10:34:07.015625
1486,108.98,2022-10-26 10:34:07.031250
1487,132.8,2022-10-26 10:34:07.046875
1488,154.12,2022-10-26 10:34:07.062500
1489,162.63,2022-10-26 10:34:07.078125
1490,150.3,2022-10-26 10:34:07.093750
1491,115.47,2022-10-26 10:34:07.109375
1492,64.39,2022-10-26 10:34:07.125000
1493,8.36,2022-10-26 10:34:07.140625
1494,-40.42,2022-10-26 10:34:07.156250
1495,-72.33,2022-10-26 10:34:07.171875
1496,-82.04,2022-10-26 10:34:07.187500
1497,-68.31,2022-10-26 10:34:07.203125
1498,-33.56,2022-10-26 10:34:07.218750
1499,15.92,2022-10-26 10:34:07.234375
1500,70.08,2022-10-26 10:34:07.250000
1501,116.89,2022-10-26 10:34:07.265625
1502,145.15,2022-10-26 10:34:07.281250
1503,149.1,2022-10-26 10:34:07.296875
1504,131.01,2022-10-26 10:34:07.312500
1505,100.19,2022-10-26 10:34:07.328125
1506,69.04,2022-10-26 10:34:07.343750
1507,47.5,2022-10-26 10:34:07.359375
1508,39.65,2022-10-26 10:34:07.375000
1509,43.13,2022-10-26 10:34:07.390625
1510,52.16,2022-10-26 10:34:07.406250
1511,60.68,2022-10-26 10:34:07.421875
1512,65.58,2022-10-26 10:34:07.437500
1513,66.93,2022-10-26 10:34:07.453125
1514,66.74,2022-10-26 10:34:07.468750
1515,66.25,2022-10-26 10:34:07.484375
1516,65.0,2022-10-26 10:34:07.500000
1517,60.74,2022-10-26 10:34:07.515625
1518,50.89,2022-10-26 10:34:07.531250
1519,34.49,2022-10-26 10:34:07.546875
1520,12.95,2022-10-26 10:34:07.562500
1521,-10.35,2022-10-26 10:34:07.578125
1522,-31.56,2022-10-26 10:34:07.593750
1523,-48.29,2022-10-26 10:34:07.609375
1524,-60.0,2022-10-26 10:34:07.625000
1525,-68.24,2022-10-26 10:34:07.640625
1526,-75.05,2022-10-26 10:34:07.656250
1527,-81.62,2022-10-26 10:34:07.671875
1528,-87.79,2022-10-26 10:34:07.687500
1529,-91.83,2022-10-26 10:34:07.703125
1530,-91.54,2022-10-26 10:34:07.718750
1531,-84.96,2022-10-26 10:34:07.734375
1532,-72.12,2022-10-26 10:34:07.750000
1533,-55.11,2022-10-26 10:34:07.765625
1534,-38.04,2022-10-26 10:34:07.781250
1535,-25.98,2022-10-26 10:34:07.796875
1536,-22.61,2022-10-26 10:34:07.812500
1537,-28.6,2022-10-26 10:34:07.828125
1538,-40.87,2022-10-26 10:34:07.843750
1539,-53.94,2022-10-26 10:34:07.859375
1540,-62.91,2022-10-26 10:34:07.875000
1541,-66.15,2022-10-26 10:34:07.890625
1542,-65.35,2022-10-26 10:34:07.906250
1543,-63.71,2022-10-26 10:34:07.921875
1544,-62.61,2022-10-26 10:34:07.937500
1545,-59.52,2022-10-26 10:34:07.953125
1546,-48.61,2022-10-26 10:34:07.968750
1547,-24.35,2022-10-26 10:34:07.984375
1548,15.35,2022-10-26 10:34:08.000000
1549,67.6,2022-10-26 10:34:08.015625
1550,125.36,2022-10-26 10:34:08.031250
1551,181.06,2022-10-26 10:34:08.046875
1552,227.86,2022-10-26 10:34:08.062500
1553,260.57,2022-10-26 10:34:08.078125
1554,274.97,2022-10-26 10:34:08.093750
1555,267.34,2022-10-26 10:34:08.109375
1556,236.57,2022-10-26 10:34:08.125000
1557,185.87,2022-10-26 10:34:08.140625
1558,124.19,2022-10-26 10:34:08.156250
1559,63.17,2022-10-26 10:34:08.171875
1560,14.04,2022-10-26 10:34:08.187500
1561,-16.49,2022-10-26 10:34:08.203125
1562,-27.95,2022-10-26 10:34:08.218750
1563,-24.32,2022-10-26 10:34:08.234375
1564,-11.87,2022-10-26 10:34:08.250000
1565,3.47,2022-10-26 10:34:08.265625
1566,16.86,2022-10-26 10:34:08.281250
1567,25.2,2022-10-26 10:34:08.296875
1568,26.66,2022-10-26 10:34:08.312500
1569,21.42,2022-10-26 10:34:08.328125
1570,11.23,2022-10-26 10:34:08.343750
1571,-0.7,2022-10-26 10:34:08.359375
1572,-11.17,2022-10-26 10:34:08.375000
1573,-18.25,2022-10-26 10:34:08.390625
1574,-22.04,2022-10-26 10:34:08.406250
1575,-24.55,2022-10-26 10:34:08.421875
1576,-27.98,2022-10-26 10:34:08.437500
1577,-33.63,2022-10-26 10:34:08.453125
1578,-40.94,2022-10-26 10:34:08.468750
1579,-48.45,2022-10-26 10:34:08.484375
1580,-54.81,2022-10-26 10:34:08.500000
1581,-59.71,2022-10-26 10:34:08.515625
1582,-64.3,2022-10-26 10:34:08.531250
1583,-69.17,2022-10-26 10:34:08.546875
1584,-74.14,2022-10-26 10:34:08.562500
1585,-78.07,2022-10-26 10:34:08.578125
1586,-80.12,2022-10-26 10:34:08.593750
1587,-81.45,2022-10-26 10:34:08.609375
1588,-85.81,2022-10-26 10:34:08.625000
1589,-97.54,2022-10-26 10:34:08.640625
1590,-118.1,2022-10-26 10:34:08.656250
1591,-144.03,2022-10-26 10:34:08.671875
1592,-166.75,2022-10-26 10:34:08.687500
1593,-176.29,2022-10-26 10:34:08.703125
1594,-166.54,2022-10-26 10:34:08.718750
1595,-139.26,2022-10-26 10:34:08.734375
1596,-103.79,2022-10-26 10:34:08.750000
1597,-72.67,2022-10-26 10:34:08.765625
1598,-55.27,2022-10-26 10:34:08.781250
1599,-53.23,2022-10-26 10:34:08.796875
1600,-60.73,2022-10-26 10:34:08.812500
1601,-67.82,2022-10-26 10:34:08.828125
1602,-65.77,2022-10-26 10:34:08.843750
1603,-50.53,2022-10-26 10:34:08.859375
1604,-22.97,2022-10-26 10:34:08.875000
1605,12.75,2022-10-26 10:34:08.890625
1606,51.85,2022-10-26 10:34:08.906250
1607,90.38,2022-10-26 10:34:08.921875
1608,125.31,2022-10-26 10:34:08.937500
1609,153.88,2022-10-26 10:34:08.953125
1610,173.35,2022-10-26 10:34:08.968750
1611,181.59,2022-10-26 10:34:08.984375
1612,178.02,2022-10-26 10:34:09.000000
1613,164.07,2022-10-26 10:34:09.015625
1614,142.5,2022-10-26 10:34:09.031250
1615,116.72,2022-10-26 10:34:09.046875
1616,89.07,2022-10-26 10:34:09.062500
1617,60.45,2022-10-26 10:34:09.078125
1618,30.5,2022-10-26 10:34:09.093750
1619,-0.79,2022-10-26 10:34:09.109375
1620,-31.58,2022-10-26 10:34:09.125000
1621,-57.95,2022-10-26 10:34:09.140625
1622,-74.85,2022-10-26 10:34:09.156250
1623,-78.57,2022-10-26 10:34:09.171875
1624,-69.35,2022-10-26 10:34:09.187500
1625,-51.93,2022-10-26 10:34:09.203125
1626,-33.9,2022-10-26 10:34:09.218750
1627,-22.04,2022-10-26 10:34:09.234375
1628,-19.34,2022-10-26 10:34:09.250000
1629,-23.67,2022-10-26 10:34:09.265625
1630,-28.71,2022-10-26 10:34:09.281250
1631,-26.83,2022-10-26 10:34:09.296875
1632,-12.43,2022-10-26 10:34:09.312500
1633,16.28,2022-10-26 10:34:09.328125
1634,57.1,2022-10-26 10:34:09.343750
1635,103.75,2022-10-26 10:34:09.359375
1636,147.93,2022-10-26 10:34:09.375000
1637,181.04,2022-10-26 10:34:09.390625
1638,195.8,2022-10-26 10:34:09.406250
1639,188.39,2022-10-26 10:34:09.421875
1640,160.0,2022-10-26 10:34:09.437500
1641,116.4,2022-10-26 10:34:09.453125
1642,66.55,2022-10-26 10:34:09.468750
1643,19.93,2022-10-26 10:34:09.484375
1644,-16.21,2022-10-26 10:34:09.500000
1645,-38.16,2022-10-26 10:34:09.515625
1646,-46.91,2022-10-26 10:34:09.531250
1647,-46.89,2022-10-26 10:34:09.546875
1648,-44.66,2022-10-26 10:34:09.562500
1649,-45.65,2022-10-26 10:34:09.578125
1650,-52.93,2022-10-26 10:34:09.593750
1651,-65.93,2022-10-26 10:34:09.609375
1652,-81.03,2022-10-26 10:34:09.625000
1653,-93.96,2022-10-26 10:34:09.640625
1654,-101.37,2022-10-26 10:34:09.656250
1655,-102.42,2022-10-26 10:34:09.671875
1656,-98.19,2022-10-26 10:34:09.687500
1657,-90.59,2022-10-26 10:34:09.703125
1658,-81.95,2022-10-26 10:34:09.718750
1659,-74.34,2022-10-26 10:34:09.734375
1660,-69.95,2022-10-26 10:34:09.750000
1661,-70.15,2022-10-26 10:34:09.765625
1662,-74.68,2022-10-26 10:34:09.781250
1663,-80.2,2022-10-26 10:34:09.796875
1664,-81.48,2022-10-26 10:34:09.812500
1665,-73.18,2022-10-26 10:34:09.828125
1666,-53.22,2022-10-26 10:34:09.843750
1667,-25.57,2022-10-26 10:34:09.859375
1668,0.55,2022-10-26 10:34:09.875000
1669,14.08,2022-10-26 10:34:09.890625
1670,7.61,2022-10-26 10:34:09.906250
1671,-19.02,2022-10-26 10:34:09.921875
1672,-58.01,2022-10-26 10:34:09.937500
1673,-97.1,2022-10-26 10:34:09.953125
1674,-123.87,2022-10-26 10:34:09.968750
1675,-130.28,2022-10-26 10:34:09.984375
1676,-114.25,2022-10-26 10:34:10.000000
1677,-78.89,2022-10-26 10:34:10.015625
1678,-31.25,2022-10-26 10:34:10.031250
1679,20.22,2022-10-26 10:34:10.046875
1680,66.98,2022-10-26 10:34:10.062500
1681,102.35,2022-10-26 10:34:10.078125
1682,122.22,2022-10-26 10:34:10.093750
1683,126.61,2022-10-26 10:34:10.109375
1684,119.51,2022-10-26 10:34:10.125000
1685,108.25,2022-10-26 10:34:10.140625
1686,101.18,2022-10-26 10:34:10.156250
1687,104.4,2022-10-26 10:34:10.171875
1688,119.45,2022-10-26 10:34:10.187500
1689,142.68,2022-10-26 10:34:10.203125
1690,166.73,2022-10-26 10:34:10.218750
1691,183.36,2022-10-26 10:34:10.234375
1692,186.58,2022-10-26 10:34:10.250000
1693,174.81,2022-10-26 10:34:10.265625
1694,151.3,2022-10-26 10:34:10.281250
1695,122.53,2022-10-26 10:34:10.296875
1696,95.36,2022-10-26 10:34:10.312500
1697,73.7,2022-10-26 10:34:10.328125
1698,56.38,2022-10-26 10:34:10.343750
1699,37.88,2022-10-26 10:34:10.359375
1700,11.41,2022-10-26 10:34:10.375000
1701,-26.36,2022-10-26 10:34:10.390625
1702,-72.94,2022-10-26 10:34:10.406250
1703,-120.65,2022-10-26 10:34:10.421875
1704,-160.16,2022-10-26 10:34:10.437500
1705,-184.67,2022-10-26 10:34:10.453125
1706,-192.53,2022-10-26 10:34:10.468750
1707,-186.95,2022-10-26 10:34:10.484375
1708,-173.35,2022-10-26 10:34:10.500000
1709,-155.56,2022-10-26 10:34:10.515625
1710,-134.51,2022-10-26 10:34:10.531250
1711,-109.05,2022-10-26 10:34:10.546875
1712,-79.03,2022-10-26 10:34:10.562500
1713,-47.88,2022-10-26 10:34:10.578125
1714,-22.92,2022-10-26 10:34:10.593750
1715,-11.5,2022-10-26 10:34:10.609375
1716,-16.61,2022-10-26 10:34:10.625000
1717,-33.76,2022-10-26 10:34:10.640625
1718,-52.68,2022-10-26 10:34:10.656250
1719,-62.5,2022-10-26 10:34:10.671875
1720,-58.01,2022-10-26 10:34:10.687500
1721,-42.32,2022-10-26 10:34:10.703125
1722,-24.77,2022-10-26 10:34:10.718750
1723,-15.13,2022-10-26 10:34:10.734375
1724,-17.25,2022-10-26 10:34:10.750000
1725,-26.62,2022-10-26 10:34:10.765625
1726,-32.73,2022-10-26 10:34:10.781250
1727,-24.8,2022-10-26 10:34:10.796875
1728,2.91,2022-10-26 10:34:10.812500
1729,48.53,2022-10-26 10:34:10.828125
1730,104.06,2022-10-26 10:34:10.843750
1731,159.47,2022-10-26 10:34:10.859375
1732,205.88,2022-10-26 10:34:10.875000
1733,238.47,2022-10-26 10:34:10.890625
1734,256.8,2022-10-26 10:34:10.906250
1735,263.63,2022-10-26 10:34:10.921875
1736,263.13,2022-10-26 10:34:10.937500
1737,258.46,2022-10-26 10:34:10.953125
1738,249.99,2022-10-26 10:34:10.968750
1739,234.84,2022-10-26 10:34:10.984375
1740,208.54,2022-10-26 10:34:11.000000
1741,168.77,2022-10-26 10:34:11.015625
1742,118.42,2022-10-26 10:34:11.031250
1743,66.23,2022-10-26 10:34:11.046875
1744,23.27,2022-10-26 10:34:11.062500
1745,-2.03,2022-10-26 10:34:11.078125
1746,-8.24,2022-10-26 10:34:11.093750
1747,-0.8,2022-10-26 10:34:11.109375
1748,11.35,2022-10-26 10:34:11.125000
1749,20.86,2022-10-26 10:34:11.140625
1750,24.82,2022-10-26 10:34:11.156250
1751,24.67,2022-10-26 10:34:11.171875
1752,23.12,2022-10-26 10:34:11.187500
1753,21.16,2022-10-26 10:34:11.203125
1754,16.55,2022-10-26 10:34:11.218750
1755,5.71,2022-10-26 10:34:11.234375
1756,-13.16,2022-10-26 10:34:11.250000
1757,-37.59,2022-10-26 10:34:11.265625
1758,-61.72,2022-10-26 10:34:11.281250
1759,-79.09,2022-10-26 10:34:11.296875
1760,-86.47,2022-10-26 10:34:11.312500
1761,-86.38,2022-10-26 10:34:11.328125
1762,-85.56,2022-10-26 10:34:11.343750
1763,-91.61,2022-10-26 10:34:11.359375
1764,-109.09,2022-10-26 10:34:11.375000
1765,-137.04,2022-10-26 10:34:11.390625
1766,-169.78,2022-10-26 10:34:11.406250
1767,-198.94,2022-10-26 10:34:11.421875
1768,-217.16,2022-10-26 10:34:11.437500
1769,-221.24,2022-10-26 10:34:11.453125
1770,-212.25,2022-10-26 10:34:11.468750
1771,-194.88,2022-10-26 10:34:11.484375
1772,-174.76,2022-10-26 10:34:11.500000
1773,-156.72,2022-10-26 10:34:11.515625
1774,-144.09,2022-10-26 10:34:11.531250
1775,-138.02,2022-10-26 10:34:11.546875
1776,-137.78,2022-10-26 10:34:11.562500
1777,-141.17,2022-10-26 10:34:11.578125
1778,-145.48,2022-10-26 10:34:11.593750
1779,-147.59,2022-10-26 10:34:11.609375
1780,-145.44,2022-10-26 10:34:11.625000
1781,-138.36,2022-10-26 10:34:11.640625
1782,-127.75,2022-10-26 10:34:11.656250
1783,-115.81,2022-10-26 10:34:11.671875
1784,-104.4,2022-10-26 10:34:11.687500
1785,-93.12,2022-10-26 10:34:11.703125
1786,-78.61,2022-10-26 10:34:11.718750
1787,-55.41,2022-10-26 10:34:11.734375
1788,-18.96,2022-10-26 10:34:11.750000
1789,30.84,2022-10-26 10:34:11.765625
1790,87.92,2022-10-26 10:34:11.781250
1791,141.09,2022-10-26 10:34:11.796875
1792,179.32,2022-10-26 10:34:11.812500
1793,196.8,2022-10-26 10:34:11.828125
1794,196.11,2022-10-26 10:34:11.843750
1795,186.34,2022-10-26 10:34:11.859375
1796,177.86,2022-10-26 10:34:11.875000
1797,176.11,2022-10-26 10:34:11.890625
1798,178.49,2022-10-26 10:34:11.906250
1799,177.44,2022-10-26 10:34:11.921875
1800,165.52,2022-10-26 10:34:11.937500
1801,141.16,2022-10-26 10:34:11.953125
1802,110.19,2022-10-26 10:34:11.968750
1803,82.69,2022-10-26 10:34:11.984375
1804,67.69,2022-10-26 10:34:12.000000
1805,68.51,2022-10-26 10:34:12.015625
1806,81.71,2022-10-26 10:34:12.031250
1807,99.5,2022-10-26 10:34:12.046875
1808,114.38,2022-10-26 10:34:12.062500
1809,122.91,2022-10-26 10:34:12.078125
1810,126.24,2022-10-26 10:34:12.093750
1811,129.25,2022-10-26 10:34:12.109375
1812,136.31,2022-10-26 10:34:12.125000
1813,148.16,2022-10-26 10:34:12.140625
1814,160.07,2022-10-26 10:34:12.156250
1815,163.44,2022-10-26 10:34:12.171875
1816,149.86,2022-10-26 10:34:12.187500
1817,116.26,2022-10-26 10:34:12.203125
1818,67.33,2022-10-26 10:34:12.218750
1819,14.21,2022-10-26 10:34:12.234375
1820,-30.36,2022-10-26 10:34:12.250000
1821,-57.57,2022-10-26 10:34:12.265625
1822,-66.3,2022-10-26 10:34:12.281250
1823,-62.45,2022-10-26 10:34:12.296875
1824,-54.85,2022-10-26 10:34:12.312500
1825,-50.27,2022-10-26 10:34:12.328125
1826,-51.1,2022-10-26 10:34:12.343750
1827,-56.2,2022-10-26 10:34:12.359375
1828,-63.71,2022-10-26 10:34:12.375000
1829,-73.59,2022-10-26 10:34:12.390625
1830,-88.05,2022-10-26 10:34:12.406250
1831,-109.33,2022-10-26 10:34:12.421875
1832,-137.78,2022-10-26 10:34:12.437500
1833,-170.79,2022-10-26 10:34:12.453125
1834,-203.54,2022-10-26 10:34:12.468750
1835,-231.06,2022-10-26 10:34:12.484375
1836,-249.86,2022-10-26 10:34:12.500000
1837,-258.5,2022-10-26 10:34:12.515625
1838,-257.17,2022-10-26 10:34:12.531250
1839,-246.43,2022-10-26 10:34:12.546875
1840,-226.77,2022-10-26 10:34:12.562500
1841,-198.21,2022-10-26 10:34:12.578125
1842,-161.88,2022-10-26 10:34:12.593750
1843,-120.11,2022-10-26 10:34:12.609375
1844,-76.45,2022-10-26 10:34:12.625000
1845,-34.84,2022-10-26 10:34:12.640625
1846,2.1,2022-10-26 10:34:12.656250
1847,33.32,2022-10-26 10:34:12.671875
1848,59.14,2022-10-26 10:34:12.687500
1849,80.24,2022-10-26 10:34:12.703125
1850,96.62,2022-10-26 10:34:12.718750
1851,107.19,2022-10-26 10:34:12.734375
1852,110.15,2022-10-26 10:34:12.750000
1853,104.22,2022-10-26 10:34:12.765625
1854,89.7,2022-10-26 10:34:12.781250
1855,69.51,2022-10-26 10:34:12.796875
1856,48.15,2022-10-26 10:34:12.812500
1857,30.07,2022-10-26 10:34:12.828125
1858,18.21,2022-10-26 10:34:12.843750
1859,13.31,2022-10-26 10:34:12.859375
1860,14.32,2022-10-26 10:34:12.875000
1861,19.88,2022-10-26 10:34:12.890625
1862,30.14,2022-10-26 10:34:12.906250
1863,46.74,2022-10-26 10:34:12.921875
1864,72.21,2022-10-26 10:34:12.937500
1865,106.45,2022-10-26 10:34:12.953125
1866,145.13,2022-10-26 10:34:12.968750
1867,178.76,2022-10-26 10:34:12.984375
1868,195.07,2022-10-26 10:34:13.000000
1869,183.98,2022-10-26 10:34:13.015625
1870,142.7,2022-10-26 10:34:13.031250
1871,78.16,2022-10-26 10:34:13.046875
1872,5.27,2022-10-26 10:34:13.062500
1873,-58.23,2022-10-26 10:34:13.078125
1874,-98.57,2022-10-26 10:34:13.093750
1875,-110.78,2022-10-26 10:34:13.109375
1876,-99.51,2022-10-26 10:34:13.125000
1877,-76.15,2022-10-26 10:34:13.140625
1878,-53.34,2022-10-26 10:34:13.156250
1879,-39.87,2022-10-26 10:34:13.171875
1880,-37.52,2022-10-26 10:34:13.187500
1881,-42.9,2022-10-26 10:34:13.203125
1882,-51.03,2022-10-26 10:34:13.218750
1883,-59.29,2022-10-26 10:34:13.234375
1884,-68.26,2022-10-26 10:34:13.250000
1885,-80.6,2022-10-26 10:34:13.265625
1886,-97.83,2022-10-26 10:34:13.281250
1887,-118.25,2022-10-26 10:34:13.296875
1888,-137.04,2022-10-26 10:34:13.312500
1889,-147.91,2022-10-26 10:34:13.328125
1890,-146.07,2022-10-26 10:34:13.343750
1891,-130.38,2022-10-26 10:34:13.359375
1892,-103.22,2022-10-26 10:34:13.375000
1893,-69.63,2022-10-26 10:34:13.390625
1894,-35.23,2022-10-26 10:34:13.406250
1895,-5.22,2022-10-26 10:34:13.421875
1896,16.17,2022-10-26 10:34:13.437500
1897,26.0,2022-10-26 10:34:13.453125
1898,23.38,2022-10-26 10:34:13.468750
1899,10.54,2022-10-26 10:34:13.484375
1900,-7.37,2022-10-26 10:34:13.500000
1901,-23.8,2022-10-26 10:34:13.515625
1902,-32.63,2022-10-26 10:34:13.531250
1903,-31.3,2022-10-26 10:34:13.546875
1904,-21.1,2022-10-26 10:34:13.562500
1905,-7.38,2022-10-26 10:34:13.578125
1906,2.47,2022-10-26 10:34:13.593750
1907,2.17,2022-10-26 10:34:13.609375
1908,-10.87,2022-10-26 10:34:13.625000
1909,-33.44,2022-10-26 10:34:13.640625
1910,-57.37,2022-10-26 10:34:13.656250
1911,-72.52,2022-10-26 10:34:13.671875
1912,-70.88,2022-10-26 10:34:13.687500
1913,-49.89,2022-10-26 10:34:13.703125
1914,-13.22,2022-10-26 10:34:13.718750
1915,31.13,2022-10-26 10:34:13.734375
1916,75.06,2022-10-26 10:34:13.750000
1917,114.03,2022-10-26 10:34:13.765625
1918,147.88,2022-10-26 10:34:13.781250
1919,178.7,2022-10-26 10:34:13.796875
1920,207.44,2022-10-26 10:34:13.812500
1921,232.18,2022-10-26 10:34:13.828125
1922,249.48,2022-10-26 10:34:13.843750
1923,256.65,2022-10-26 10:34:13.859375
1924,254.6,2022-10-26 10:34:13.875000
1925,247.21,2022-10-26 10:34:13.890625
1926,239.67,2022-10-26 10:34:13.906250
1927,235.42,2022-10-26 10:34:13.921875
1928,233.41,2022-10-26 10:34:13.937500
1929,228.93,2022-10-26 10:34:13.953125
1930,215.56,2022-10-26 10:34:13.968750
1931,189.09,2022-10-26 10:34:13.984375
1932,149.96,2022-10-26 10:34:14.000000
1933,103.84,2022-10-26 10:34:14.015625
1934,58.85,2022-10-26 10:34:14.031250
1935,21.8,2022-10-26 10:34:14.046875
1936,-4.98,2022-10-26 10:34:14.062500
1937,-24.9,2022-10-26 10:34:14.078125
1938,-45.08,2022-10-26 10:34:14.093750
1939,-72.63,2022-10-26 10:34:14.109375
1940,-110.88,2022-10-26 10:34:14.125000
1941,-157.22,2022-10-26 10:34:14.140625
1942,-203.94,2022-10-26 10:34:14.156250
1943,-242.12,2022-10-26 10:34:14.171875
1944,-265.46,2022-10-26 10:34:14.187500
1945,-272.69,2022-10-26 10:34:14.203125
1946,-267.25,2022-10-26 10:34:14.218750
1947,-255.04,2022-10-26 10:34:14.234375
1948,-242.58,2022-10-26 10:34:14.250000
1949,-234.77,2022-10-26 10:34:14.265625
1950,-233.81,2022-10-26 10:34:14.281250
1951,-238.04,2022-10-26 10:34:14.296875
1952,-241.99,2022-10-26 10:34:14.312500
1953,-238.28,2022-10-26 10:34:14.328125
1954,-221.12,2022-10-26 10:34:14.343750
1955,-190.66,2022-10-26 10:34:14.359375
1956,-154.29,2022-10-26 10:34:14.375000
1957,-124.75,2022-10-26 10:34:14.390625
1958,-113.38,2022-10-26 10:34:14.406250
1959,-123.9,2022-10-26 10:34:14.421875
1960,-149.37,2022-10-26 10:34:14.437500
1961,-174.44,2022-10-26 10:34:14.453125
1962,-182.24,2022-10-26 10:34:14.468750
1963,-161.44,2022-10-26 10:34:14.484375
1964,-110.62,2022-10-26 10:34:14.500000
1965,-37.03,2022-10-26 10:34:14.515625
1966,47.21,2022-10-26 10:34:14.531250
1967,130.32,2022-10-26 10:34:14.546875
1968,202.5,2022-10-26 10:34:14.562500
1969,256.05,2022-10-26 10:34:14.578125
1970,284.68,2022-10-26 10:34:14.593750
1971,284.94,2022-10-26 10:34:14.609375
1972,258.71,2022-10-26 10:34:14.625000
1973,215.24,2022-10-26 10:34:14.640625
1974,169.81,2022-10-26 10:34:14.656250
1975,137.86,2022-10-26 10:34:14.671875
1976,128.73,2022-10-26 10:34:14.687500
1977,141.1,2022-10-26 10:34:14.703125
1978,164.3,2022-10-26 10:34:14.718750
1979,184.24,2022-10-26 10:34:14.734375
1980,190.98,2022-10-26 10:34:14.750000
1981,183.2,2022-10-26 10:34:14.765625
1982,167.45,2022-10-26 10:34:14.781250
1983,152.81,2022-10-26 10:34:14.796875
1984,144.66,2022-10-26 10:34:14.812500
1985,141.84,2022-10-26 10:34:14.828125
1986,137.98,2022-10-26 10:34:14.843750
1987,126.34,2022-10-26 10:34:14.859375
1988,104.46,2022-10-26 10:34:14.875000
1989,75.42,2022-10-26 10:34:14.890625
1990,45.89,2022-10-26 10:34:14.906250
1991,21.98,2022-10-26 10:34:14.921875
1992,6.54,2022-10-26 10:34:14.937500
1993,-1.83,2022-10-26 10:34:14.953125
1994,-6.52,2022-10-26 10:34:14.968750
1995,-9.84,2022-10-26 10:34:14.984375
1996,-11.23,2022-10-26 10:34:15.000000
1997,-7.76,2022-10-26 10:34:15.015625
1998,3.12,2022-10-26 10:34:15.031250
1999,20.78,2022-10-26 10:34:15.046875
2000,39.97,2022-10-26 10:34:15.062500
2001,53.44,2022-10-26 10:34:15.078125
2002,55.23,2022-10-26 10:34:15.093750
2003,44.6,2022-10-26 10:34:15.109375
2004,26.86,2022-10-26 10:34:15.125000
2005,10.36,2022-10-26 10:34:15.140625
2006,1.45,2022-10-26 10:34:15.156250
2007,0.13,2022-10-26 10:34:15.171875
2008,-0.48,2022-10-26 10:34:15.187500
2009,-10.1,2022-10-26 10:34:15.203125
2010,-34.7,2022-10-26 10:34:15.218750
2011,-72.51,2022-10-26 10:34:15.234375
2012,-113.58,2022-10-26 10:34:15.250000
2013,-145.36,2022-10-26 10:34:15.265625
2014,-158.96,2022-10-26 10:34:15.281250
2015,-153.62,2022-10-26 10:34:15.296875
2016,-136.28,2022-10-26 10:34:15.312500
2017,-116.62,2022-10-26 10:34:15.328125
2018,-101.57,2022-10-26 10:34:15.343750
2019,-92.01,2022-10-26 10:34:15.359375
2020,-83.44,2022-10-26 10:34:15.375000
2021,-70.24,2022-10-26 10:34:15.390625
2022,-50.14,2022-10-26 10:34:15.406250
2023,-26.45,2022-10-26 10:34:15.421875
2024,-5.89,2022-10-26 10:34:15.437500
2025,4.86,2022-10-26 10:34:15.453125
2026,3.25,2022-10-26 10:34:15.468750
2027,-7.57,2022-10-26 10:34:15.484375
2028,-21.06,2022-10-26 10:34:15.500000
2029,-30.87,2022-10-26 10:34:15.515625
2030,-34.36,2022-10-26 10:34:15.531250
2031,-33.44,2022-10-26 10:34:15.546875
2032,-33.25,2022-10-26 10:34:15.562500
2033,-38.67,2022-10-26 10:34:15.578125
2034,-51.3,2022-10-26 10:34:15.593750
2035,-68.18,2022-10-26 10:34:15.609375
2036,-82.8,2022-10-26 10:34:15.625000
2037,-87.66,2022-10-26 10:34:15.640625
2038,-77.27,2022-10-26 10:34:15.656250
2039,-50.61,2022-10-26 10:34:15.671875
2040,-12.59,2022-10-26 10:34:15.687500
2041,27.79,2022-10-26 10:34:15.703125
2042,60.45,2022-10-26 10:34:15.718750
2043,77.91,2022-10-26 10:34:15.734375
2044,78.9,2022-10-26 10:34:15.750000
2045,68.41,2022-10-26 10:34:15.765625
2046,55.8,2022-10-26 10:34:15.781250
2047,50.38,2022-10-26 10:34:15.796875
2048,56.89,2022-10-26 10:34:15.812500
2049,74.74,2022-10-26 10:34:15.828125
2050,98.68,2022-10-26 10:34:15.843750
2051,121.63,2022-10-26 10:34:15.859375
2052,137.68,2022-10-26 10:34:15.875000
2053,142.85,2022-10-26 10:34:15.890625
2054,135.72,2022-10-26 10:34:15.906250
2055,116.91,2022-10-26 10:34:15.921875
2056,88.86,2022-10-26 10:34:15.937500
2057,55.5,2022-10-26 10:34:15.953125
2058,21.41,2022-10-26 10:34:15.968750
2059,-9.33,2022-10-26 10:34:15.984375
2060,-34.38,2022-10-26 10:34:16.000000
2061,-53.16,2022-10-26 10:34:16.015625
2062,-65.51,2022-10-26 10:34:16.031250
2063,-70.36,2022-10-26 10:34:16.046875
2064,-65.83,2022-10-26 10:34:16.062500
2065,-50.77,2022-10-26 10:34:16.078125
2066,-27.77,2022-10-26 10:34:16.093750
2067,-3.7,2022-10-26 10:34:16.109375
2068,12.41,2022-10-26 10:34:16.125000
2069,14.28,2022-10-26 10:34:16.140625
2070,2.78,2022-10-26 10:34:16.156250
2071,-13.61,2022-10-26 10:34:16.171875
2072,-23.23,2022-10-26 10:34:16.187500
2073,-17.68,2022-10-26 10:34:16.203125
2074,2.72,2022-10-26 10:34:16.218750
2075,28.64,2022-10-26 10:34:16.234375
2076,46.33,2022-10-26 10:34:16.250000
2077,44.42,2022-10-26 10:34:16.265625
2078,19.77,2022-10-26 10:34:16.281250
2079,-20.94,2022-10-26 10:34:16.296875
2080,-65.55,2022-10-26 10:34:16.312500
2081,-101.9,2022-10-26 10:34:16.328125
2082,-123.75,2022-10-26 10:34:16.343750
2083,-132.18,2022-10-26 10:34:16.359375
2084,-132.19,2022-10-26 10:34:16.375000
2085,-128.6,2022-10-26 10:34:16.390625
2086,-122.33,2022-10-26 10:34:16.406250
2087,-109.81,2022-10-26 10:34:16.421875
2088,-86.82,2022-10-26 10:34:16.437500
2089,-52.18,2022-10-26 10:34:16.453125
2090,-10.84,2022-10-26 10:34:16.468750
2091,27.27,2022-10-26 10:34:16.484375
2092,51.06,2022-10-26 10:34:16.500000
2093,53.55,2022-10-26 10:34:16.515625
2094,35.61,2022-10-26 10:34:16.531250
2095,5.4,2022-10-26 10:34:16.546875
2096,-25.9,2022-10-26 10:34:16.562500
2097,-49.12,2022-10-26 10:34:16.578125
2098,-60.56,2022-10-26 10:34:16.593750
2099,-62.62,2022-10-26 10:34:16.609375
2100,-59.74,2022-10-26 10:34:16.625000
2101,-54.35,2022-10-26 10:34:16.640625
2102,-44.95,2022-10-26 10:34:16.656250
2103,-27.34,2022-10-26 10:34:16.671875
2104,1.01,2022-10-26 10:34:16.687500
2105,37.54,2022-10-26 10:34:16.703125
2106,73.91,2022-10-26 10:34:16.718750
2107,99.96,2022-10-26 10:34:16.734375
2108,108.91,2022-10-26 10:34:16.750000
2109,102.05,2022-10-26 10:34:16.765625
2110,88.63,2022-10-26 10:34:16.781250
2111,81.01,2022-10-26 10:34:16.796875
2112,87.9,2022-10-26 10:34:16.812500
2113,109.14,2022-10-26 10:34:16.828125
2114,135.5,2022-10-26 10:34:16.843750
2115,152.45,2022-10-26 10:34:16.859375
2116,147.77,2022-10-26 10:34:16.875000
2117,117.41,2022-10-26 10:34:16.890625
2118,67.43,2022-10-26 10:34:16.906250
2119,12.06,2022-10-26 10:34:16.921875
2120,-32.8,2022-10-26 10:34:16.937500
2121,-55.35,2022-10-26 10:34:16.953125
2122,-52.59,2022-10-26 10:34:16.968750
2123,-30.29,2022-10-26 10:34:16.984375
2124,-0.22,2022-10-26 10:34:17.000000
2125,24.53,2022-10-26 10:34:17.015625
2126,34.65,2022-10-26 10:34:17.031250
2127,27.89,2022-10-26 10:34:17.046875
2128,9.51,2022-10-26 10:34:17.062500
2129,-10.35,2022-10-26 10:34:17.078125
2130,-20.31,2022-10-26 10:34:17.093750
2131,-13.27,2022-10-26 10:34:17.109375
2132,10.75,2022-10-26 10:34:17.125000
2133,43.92,2022-10-26 10:34:17.140625
2134,73.13,2022-10-26 10:34:17.156250
2135,85.16,2022-10-26 10:34:17.171875
2136,71.73,2022-10-26 10:34:17.187500
2137,32.96,2022-10-26 10:34:17.203125
2138,-23.36,2022-10-26 10:34:17.218750
2139,-84.79,2022-10-26 10:34:17.234375
2140,-139.38,2022-10-26 10:34:17.250000
2141,-179.11,2022-10-26 10:34:17.265625
2142,-200.72,2022-10-26 10:34:17.281250
2143,-204.5,2022-10-26 10:34:17.296875
2144,-191.6,2022-10-26 10:34:17.312500
2145,-163.67,2022-10-26 10:34:17.328125
2146,-122.6,2022-10-26 10:34:17.343750
2147,-71.63,2022-10-26 10:34:17.359375
2148,-15.84,2022-10-26 10:34:17.375000
2149,39.07,2022-10-26 10:34:17.390625
2150,87.34,2022-10-26 10:34:17.406250
2151,124.0,2022-10-26 10:34:17.421875
2152,145.1,2022-10-26 10:34:17.437500
2153,148.13,2022-10-26 10:34:17.453125
2154,132.17,2022-10-26 10:34:17.468750
2155,99.34,2022-10-26 10:34:17.484375
2156,54.99,2022-10-26 10:34:17.500000
2157,6.76,2022-10-26 10:34:17.515625
2158,-37.72,2022-10-26 10:34:17.531250
2159,-72.95,2022-10-26 10:34:17.546875
2160,-97.32,2022-10-26 10:34:17.562500
2161,-111.88,2022-10-26 10:34:17.578125
2162,-118.33,2022-10-26 10:34:17.593750
2163,-117.37,2022-10-26 10:34:17.609375
2164,-108.56,2022-10-26 10:34:17.625000
2165,-91.87,2022-10-26 10:34:17.640625
2166,-69.91,2022-10-26 10:34:17.656250
2167,-48.01,2022-10-26 10:34:17.671875
2168,-32.37,2022-10-26 10:34:17.687500
2169,-26.59,2022-10-26 10:34:17.703125
2170,-30.39,2022-10-26 10:34:17.718750
2171,-40.11,2022-10-26 10:34:17.734375
2172,-51.01,2022-10-26 10:34:17.750000
2173,-59.3,2022-10-26 10:34:17.765625
2174,-62.31,2022-10-26 10:34:17.781250
2175,-57.38,2022-10-26 10:34:17.796875
2176,-41.41,2022-10-26 10:34:17.812500
2177,-12.43,2022-10-26 10:34:17.828125
2178,28.35,2022-10-26 10:34:17.843750
2179,75.76,2022-10-26 10:34:17.859375
2180,121.2,2022-10-26 10:34:17.875000
2181,156.21,2022-10-26 10:34:17.890625
2182,175.58,2022-10-26 10:34:17.906250
2183,178.93,2022-10-26 10:34:17.921875
2184,169.4,2022-10-26 10:34:17.937500
2185,152.15,2022-10-26 10:34:17.953125
2186,132.15,2022-10-26 10:34:17.968750
2187,113.87,2022-10-26 10:34:17.984375
2188,101.38,2022-10-26 10:34:18.000000
2189,97.47,2022-10-26 10:34:18.015625
2190,102.55,2022-10-26 10:34:18.031250
2191,113.74,2022-10-26 10:34:18.046875
2192,125.15,2022-10-26 10:34:18.062500
2193,130.73,2022-10-26 10:34:18.078125
2194,126.92,2022-10-26 10:34:18.093750
2195,113.45,2022-10-26 10:34:18.109375
2196,91.48,2022-10-26 10:34:18.125000
2197,61.36,2022-10-26 10:34:18.140625
2198,21.6,2022-10-26 10:34:18.156250
2199,-29.21,2022-10-26 10:34:18.171875
2200,-88.44,2022-10-26 10:34:18.187500
2201,-147.23,2022-10-26 10:34:18.203125
2202,-192.55,2022-10-26 10:34:18.218750
2203,-212.98,2022-10-26 10:34:18.234375
2204,-204.49,2022-10-26 10:34:18.250000
2205,-173.65,2022-10-26 10:34:18.265625
2206,-134.54,2022-10-26 10:34:18.281250
2207,-102.11,2022-10-26 10:34:18.296875
2208,-85.18,2022-10-26 10:34:18.312500
2209,-82.58,2022-10-26 10:34:18.328125
2210,-85.14,2022-10-26 10:34:18.343750
2211,-80.83,2022-10-26 10:34:18.359375
2212,-61.15,2022-10-26 10:34:18.375000
2213,-25.12,2022-10-26 10:34:18.390625
2214,20.16,2022-10-26 10:34:18.406250
2215,63.46,2022-10-26 10:34:18.421875
2216,94.03,2022-10-26 10:34:18.437500
2217,106.21,2022-10-26 10:34:18.453125
2218,100.73,2022-10-26 10:34:18.468750
2219,83.59,2022-10-26 10:34:18.484375
2220,62.32,2022-10-26 10:34:18.500000
2221,42.67,2022-10-26 10:34:18.515625
2222,27.5,2022-10-26 10:34:18.531250
2223,17.16,2022-10-26 10:34:18.546875
2224,11.86,2022-10-26 10:34:18.562500
2225,13.52,2022-10-26 10:34:18.578125
2226,24.94,2022-10-26 10:34:18.593750
2227,47.7,2022-10-26 10:34:18.609375
2228,79.51,2022-10-26 10:34:18.625000
2229,114.11,2022-10-26 10:34:18.640625
2230,143.66,2022-10-26 10:34:18.656250
2231,161.52,2022-10-26 10:34:18.671875
2232,164.88,2022-10-26 10:34:18.687500
2233,155.21,2022-10-26 10:34:18.703125
2234,136.64,2022-10-26 10:34:18.718750
2235,113.62,2022-10-26 10:34:18.734375
2236,89.27,2022-10-26 10:34:18.750000
2237,64.38,2022-10-26 10:34:18.765625
2238,37.86,2022-10-26 10:34:18.781250
2239,8.21,2022-10-26 10:34:18.796875
2240,-25.55,2022-10-26 10:34:18.812500
2241,-62.76,2022-10-26 10:34:18.828125
2242,-100.8,2022-10-26 10:34:18.843750
2243,-135.68,2022-10-26 10:34:18.859375
2244,-163.15,2022-10-26 10:34:18.875000
2245,-179.8,2022-10-26 10:34:18.890625
2246,-183.71,2022-10-26 10:34:18.906250
2247,-174.8,2022-10-26 10:34:18.921875
2248,-153.82,2022-10-26 10:34:18.937500
2249,-122.42,2022-10-26 10:34:18.953125
2250,-84.14,2022-10-26 10:34:18.968750
2251,-45.16,2022-10-26 10:34:18.984375
2252,-14.44,2022-10-26 10:34:19.000000
2253,-0.82,2022-10-26 10:34:19.015625
2254,-8.9,2022-10-26 10:34:19.031250
2255,-35.95,2022-10-26 10:34:19.046875
2256,-71.94,2022-10-26 10:34:19.062500
2257,-102.73,2022-10-26 10:34:19.078125
2258,-115.91,2022-10-26 10:34:19.093750
2259,-105.03,2022-10-26 10:34:19.109375
2260,-71.41,2022-10-26 10:34:19.125000
2261,-22.03,2022-10-26 10:34:19.140625
2262,33.74,2022-10-26 10:34:19.156250
2263,87.17,2022-10-26 10:34:19.171875
2264,131.98,2022-10-26 10:34:19.187500
2265,164.79,2022-10-26 10:34:19.203125
2266,184.67,2022-10-26 10:34:19.218750
2267,193.7,2022-10-26 10:34:19.234375
2268,196.06,2022-10-26 10:34:19.250000
2269,196.42,2022-10-26 10:34:19.265625
2270,197.82,2022-10-26 10:34:19.281250
2271,199.55,2022-10-26 10:34:19.296875
2272,197.72,2022-10-26 10:34:19.312500
2273,188.01,2022-10-26 10:34:19.328125
2274,168.69,2022-10-26 10:34:19.343750
2275,141.97,2022-10-26 10:34:19.359375
2276,112.48,2022-10-26 10:34:19.375000
2277,83.58,2022-10-26 10:34:19.390625
2278,55.2,2022-10-26 10:34:19.406250
2279,23.22,2022-10-26 10:34:19.421875
2280,-16.92,2022-10-26 10:34:19.437500
2281,-65.86,2022-10-26 10:34:19.453125
2282,-118.21,2022-10-26 10:34:19.468750
2283,-163.8,2022-10-26 10:34:19.484375
2284,-192.72,2022-10-26 10:34:19.500000
2285,-200.16,2022-10-26 10:34:19.515625
2286,-188.14,2022-10-26 10:34:19.531250
2287,-164.3,2022-10-26 10:34:19.546875
2288,-138.12,2022-10-26 10:34:19.562500
2289,-117.03,2022-10-26 10:34:19.578125
2290,-104.29,2022-10-26 10:34:19.593750
2291,-99.14,2022-10-26 10:34:19.609375
2292,-98.41,2022-10-26 10:34:19.625000
2293,-98.39,2022-10-26 10:34:19.640625
2294,-96.63,2022-10-26 10:34:19.656250
2295,-92.6,2022-10-26 10:34:19.671875
2296,-87.16,2022-10-26 10:34:19.687500
2297,-82.01,2022-10-26 10:34:19.703125
2298,-79.0,2022-10-26 10:34:19.718750
2299,-79.04,2022-10-26 10:34:19.734375
2300,-81.97,2022-10-26 10:34:19.750000
2301,-86.63,2022-10-26 10:34:19.765625
2302,-91.12,2022-10-26 10:34:19.781250
2303,-93.47,2022-10-26 10:34:19.796875
2304,-93.12,2022-10-26 10:34:19.812500
2305,-91.06,2022-10-26 10:34:19.828125
2306,-89.78,2022-10-26 10:34:19.843750
2307,-92.61,2022-10-26 10:34:19.859375
2308,-102.1,2022-10-26 10:34:19.875000
2309,-119.05,2022-10-26 10:34:19.890625
2310,-141.11,2022-10-26 10:34:19.906250
2311,-162.92,2022-10-26 10:34:19.921875
2312,-177.57,2022-10-26 10:34:19.937500
2313,-178.52,2022-10-26 10:34:19.953125
2314,-161.72,2022-10-26 10:34:19.968750
2315,-127.33,2022-10-26 10:34:19.984375
2316,-79.34,2022-10-26 10:34:20.000000
2317,-24.85,2022-10-26 10:34:20.015625
2318,28.36,2022-10-26 10:34:20.031250
2319,74.44,2022-10-26 10:34:20.046875
2320,110.43,2022-10-26 10:34:20.062500
2321,136.66,2022-10-26 10:34:20.078125
2322,155.09,2022-10-26 10:34:20.093750
2323,167.56,2022-10-26 10:34:20.109375
2324,174.9,2022-10-26 10:34:20.125000
2325,176.99,2022-10-26 10:34:20.140625
2326,174.59,2022-10-26 10:34:20.156250
2327,169.96,2022-10-26 10:34:20.171875
2328,166.45,2022-10-26 10:34:20.187500
2329,165.81,2022-10-26 10:34:20.203125
2330,166.76,2022-10-26 10:34:20.218750
2331,164.75,2022-10-26 10:34:20.234375
2332,154.49,2022-10-26 10:34:20.250000
2333,134.57,2022-10-26 10:34:20.265625
2334,109.14,2022-10-26 10:34:20.281250
2335,87.69,2022-10-26 10:34:20.296875
2336,79.8,2022-10-26 10:34:20.312500
2337,90.12,2022-10-26 10:34:20.328125
2338,115.4,2022-10-26 10:34:20.343750
2339,146.41,2022-10-26 10:34:20.359375
2340,172.49,2022-10-26 10:34:20.375000
2341,186.31,2022-10-26 10:34:20.390625
2342,186.81,2022-10-26 10:34:20.406250
2343,177.89,2022-10-26 10:34:20.421875
2344,164.87,2022-10-26 10:34:20.437500
2345,151.39,2022-10-26 10:34:20.453125
2346,138.28,2022-10-26 10:34:20.468750
2347,124.08,2022-10-26 10:34:20.484375
2348,107.16,2022-10-26 10:34:20.500000
2349,87.04,2022-10-26 10:34:20.515625
2350,63.6,2022-10-26 10:34:20.531250
2351,37.08,2022-10-26 10:34:20.546875
2352,6.44,2022-10-26 10:34:20.562500
2353,-29.93,2022-10-26 10:34:20.578125
2354,-73.87,2022-10-26 10:34:20.593750
2355,-124.89,2022-10-26 10:34:20.609375
2356,-178.59,2022-10-26 10:34:20.625000
2357,-227.45,2022-10-26 10:34:20.640625
2358,-262.24,2022-10-26 10:34:20.656250
2359,-275.87,2022-10-26 10:34:20.671875
2360,-265.98,2022-10-26 10:34:20.687500
2361,-236.82,2022-10-26 10:34:20.703125
2362,-197.24,2022-10-26 10:34:20.718750
2363,-157.38,2022-10-26 10:34:20.734375
2364,-125.25,2022-10-26 10:34:20.750000
2365,-103.94,2022-10-26 10:34:20.765625
2366,-92.69,2022-10-26 10:34:20.781250
2367,-88.06,2022-10-26 10:34:20.796875
2368,-86.97,2022-10-26 10:34:20.812500
2369,-86.93,2022-10-26 10:34:20.828125
2370,-85.81,2022-10-26 10:34:20.843750
2371,-80.47,2022-10-26 10:34:20.859375
2372,-67.08,2022-10-26 10:34:20.875000
2373,-43.69,2022-10-26 10:34:20.890625
2374,-12.04,2022-10-26 10:34:20.906250
2375,21.25,2022-10-26 10:34:20.921875
2376,46.56,2022-10-26 10:34:20.937500
2377,56.23,2022-10-26 10:34:20.953125
2378,48.63,2022-10-26 10:34:20.968750
2379,29.89,2022-10-26 10:34:20.984375
2380,11.12,2022-10-26 10:34:21.000000
2381,2.79,2022-10-26 10:34:21.015625
2382,9.34,2022-10-26 10:34:21.031250
2383,28.1,2022-10-26 10:34:21.046875
2384,51.42,2022-10-26 10:34:21.062500
2385,72.77,2022-10-26 10:34:21.078125
2386,89.24,2022-10-26 10:34:21.093750
2387,101.4,2022-10-26 10:34:21.109375
2388,110.19,2022-10-26 10:34:21.125000
2389,113.87,2022-10-26 10:34:21.140625
2390,108.25,2022-10-26 10:34:21.156250
2391,89.32,2022-10-26 10:34:21.171875
2392,57.88,2022-10-26 10:34:21.187500
2393,20.1,2022-10-26 10:34:21.203125
2394,-14.83,2022-10-26 10:34:21.218750
2395,-39.25,2022-10-26 10:34:21.234375
2396,-50.84,2022-10-26 10:34:21.250000
2397,-52.28,2022-10-26 10:34:21.265625
2398,-48.63,2022-10-26 10:34:21.281250
2399,-42.88,2022-10-26 10:34:21.296875
2400,-34.98,2022-10-26 10:34:21.312500
2401,-22.86,2022-10-26 10:34:21.328125
2402,-5.87,2022-10-26 10:34:21.343750
2403,13.44,2022-10-26 10:34:21.359375
2404,30.49,2022-10-26 10:34:21.375000
2405,41.09,2022-10-26 10:34:21.390625
2406,44.19,2022-10-26 10:34:21.406250
2407,41.58,2022-10-26 10:34:21.421875
2408,35.79,2022-10-26 10:34:21.437500
2409,26.86,2022-10-26 10:34:21.453125
2410,11.41,2022-10-26 10:34:21.468750
2411,-15.14,2022-10-26 10:34:21.484375
2412,-54.77,2022-10-26 10:34:21.500000
2413,-103.19,2022-10-26 10:34:21.515625
2414,-149.81,2022-10-26 10:34:21.531250
2415,-182.31,2022-10-26 10:34:21.546875
2416,-192.64,2022-10-26 10:34:21.562500
2417,-181.0,2022-10-26 10:34:21.578125
2418,-155.66,2022-10-26 10:34:21.593750
2419,-128.53,2022-10-26 10:34:21.609375
2420,-108.84,2022-10-26 10:34:21.625000
2421,-98.82,2022-10-26 10:34:21.640625
2422,-94.45,2022-10-26 10:34:21.656250
2423,-89.32,2022-10-26 10:34:21.671875
2424,-79.77,2022-10-26 10:34:21.687500
2425,-67.57,2022-10-26 10:34:21.703125
2426,-58.05,2022-10-26 10:34:21.718750
2427,-55.91,2022-10-26 10:34:21.734375
2428,-61.47,2022-10-26 10:34:21.750000
2429,-69.37,2022-10-26 10:34:21.765625
2430,-71.56,2022-10-26 10:34:21.781250
2431,-61.56,2022-10-26 10:34:21.796875
2432,-37.38,2022-10-26 10:34:21.812500
2433,-1.66,2022-10-26 10:34:21.828125
2434,39.91,2022-10-26 10:34:21.843750
2435,81.46,2022-10-26 10:34:21.859375
2436,118.69,2022-10-26 10:34:21.875000
2437,149.24,2022-10-26 10:34:21.890625
2438,172.36,2022-10-26 10:34:21.906250
2439,187.97,2022-10-26 10:34:21.921875
2440,195.78,2022-10-26 10:34:21.937500
2441,194.72,2022-10-26 10:34:21.953125
2442,183.19,2022-10-26 10:34:21.968750
2443,160.19,2022-10-26 10:34:21.984375
2444,126.39,2022-10-26 10:34:22.000000
2445,84.86,2022-10-26 10:34:22.015625
2446,41.36,2022-10-26 10:34:22.031250
2447,2.09,2022-10-26 10:34:22.046875
2448,-28.35,2022-10-26 10:34:22.062500
2449,-49.25,2022-10-26 10:34:22.078125
2450,-63.15,2022-10-26 10:34:22.093750
2451,-72.87,2022-10-26 10:34:22.109375
2452,-78.88,2022-10-26 10:34:22.125000
2453,-77.91,2022-10-26 10:34:22.140625
2454,-65.6,2022-10-26 10:34:22.156250
2455,-41.09,2022-10-26 10:34:22.171875
2456,-9.44,2022-10-26 10:34:22.187500
2457,19.59,2022-10-26 10:34:22.203125
2458,36.57,2022-10-26 10:34:22.218750
2459,38.06,2022-10-26 10:34:22.234375
2460,28.81,2022-10-26 10:34:22.250000
2461,19.09,2022-10-26 10:34:22.265625
2462,19.51,2022-10-26 10:34:22.281250
2463,34.96,2022-10-26 10:34:22.296875
2464,63.02,2022-10-26 10:34:22.312500
2465,95.96,2022-10-26 10:34:22.328125
2466,124.41,2022-10-26 10:34:22.343750
2467,141.78,2022-10-26 10:34:22.359375
2468,145.71,2022-10-26 10:34:22.375000
2469,137.51,2022-10-26 10:34:22.390625
2470,119.92,2022-10-26 10:34:22.406250
2471,96.1,2022-10-26 10:34:22.421875
2472,68.92,2022-10-26 10:34:22.437500
2473,41.03,2022-10-26 10:34:22.453125
2474,15.0,2022-10-26 10:34:22.468750
2475,-7.49,2022-10-26 10:34:22.484375
2476,-25.17,2022-10-26 10:34:22.500000
2477,-37.72,2022-10-26 10:34:22.515625
2478,-45.86,2022-10-26 10:34:22.531250
2479,-51.64,2022-10-26 10:34:22.546875
2480,-58.48,2022-10-26 10:34:22.562500
2481,-71.17,2022-10-26 10:34:22.578125
2482,-94.33,2022-10-26 10:34:22.593750
2483,-129.59,2022-10-26 10:34:22.609375
2484,-174.63,2022-10-26 10:34:22.625000
2485,-222.89,2022-10-26 10:34:22.640625
2486,-265.89,2022-10-26 10:34:22.656250
2487,-296.5,2022-10-26 10:34:22.671875
2488,-310.95,2022-10-26 10:34:22.687500
2489,-310.03,2022-10-26 10:34:22.703125
2490,-297.61,2022-10-26 10:34:22.718750
2491,-277.94,2022-10-26 10:34:22.734375
2492,-253.72,2022-10-26 10:34:22.750000
2493,-225.75,2022-10-26 10:34:22.765625
2494,-192.77,2022-10-26 10:34:22.781250
2495,-153.85,2022-10-26 10:34:22.796875
2496,-109.3,2022-10-26 10:34:22.812500
2497,-60.7,2022-10-26 10:34:22.828125
2498,-11.21,2022-10-26 10:34:22.843750
2499,35.76,2022-10-26 10:34:22.859375
2500,76.94,2022-10-26 10:34:22.875000
2501,110.08,2022-10-26 10:34:22.890625
2502,134.76,2022-10-26 10:34:22.906250
2503,152.06,2022-10-26 10:34:22.921875
2504,164.12,2022-10-26 10:34:22.937500
2505,173.4,2022-10-26 10:34:22.953125
2506,182.19,2022-10-26 10:34:22.968750
2507,191.71,2022-10-26 10:34:22.984375
2508,201.87,2022-10-26 10:34:23.000000
2509,211.13,2022-10-26 10:34:23.015625
2510,216.43,2022-10-26 10:34:23.031250
2511,214.19,2022-10-26 10:34:23.046875
2512,202.49,2022-10-26 10:34:23.062500
2513,183.24,2022-10-26 10:34:23.078125
2514,162.41,2022-10-26 10:34:23.093750
2515,148.4,2022-10-26 10:34:23.109375
2516,148.26,2022-10-26 10:34:23.125000
2517,164.16,2022-10-26 10:34:23.140625
2518,191.57,2022-10-26 10:34:23.156250
2519,220.94,2022-10-26 10:34:23.171875
2520,241.75,2022-10-26 10:34:23.187500
2521,245.81,2022-10-26 10:34:23.203125
2522,229.71,2022-10-26 10:34:23.218750
2523,194.47,2022-10-26 10:34:23.234375
2524,143.25,2022-10-26 10:34:23.250000
2525,80.15,2022-10-26 10:34:23.265625
2526,9.59,2022-10-26 10:34:23.281250
2527,-62.59,2022-10-26 10:34:23.296875
2528,-128.28,2022-10-26 10:34:23.312500
2529,-177.32,2022-10-26 10:34:23.328125
2530,-200.2,2022-10-26 10:34:23.343750
2531,-191.72,2022-10-26 10:34:23.359375
2532,-153.63,2022-10-26 10:34:23.375000
2533,-95.32,2022-10-26 10:34:23.390625
2534,-30.29,2022-10-26 10:34:23.406250
2535,28.6,2022-10-26 10:34:23.421875
2536,73.1,2022-10-26 10:34:23.437500
2537,101.75,2022-10-26 10:34:23.453125
2538,117.94,2022-10-26 10:34:23.468750
2539,126.1,2022-10-26 10:34:23.484375
2540,128.47,2022-10-26 10:34:23.500000
2541,123.88,2022-10-26 10:34:23.515625
2542,109.59,2022-10-26 10:34:23.531250
2543,84.83,2022-10-26 10:34:23.546875
2544,52.64,2022-10-26 10:34:23.562500
2545,19.67,2022-10-26 10:34:23.578125
2546,-7.51,2022-10-26 10:34:23.593750
2547,-25.98,2022-10-26 10:34:23.609375
2548,-38.4,2022-10-26 10:34:23.625000
2549,-51.65,2022-10-26 10:34:23.640625
2550,-72.27,2022-10-26 10:34:23.656250
2551,-102.48,2022-10-26 10:34:23.671875
2552,-137.41,2022-10-26 10:34:23.687500
2553,-167.43,2022-10-26 10:34:23.703125
2554,-182.56,2022-10-26 10:34:23.718750
2555,-178.04,2022-10-26 10:34:23.734375
2556,-157.15,2022-10-26 10:34:23.750000
2557,-129.2,2022-10-26 10:34:23.765625
2558,-105.17,2022-10-26 10:34:23.781250
2559,-91.65,2022-10-26 10:34:23.796875
2560,-89.13,2022-10-26 10:34:23.812500
2561,-93.43,2022-10-26 10:34:23.828125
2562,-99.97,2022-10-26 10:34:23.843750
2563,-106.87,2022-10-26 10:34:23.859375
2564,-114.85,2022-10-26 10:34:23.875000
2565,-124.96,2022-10-26 10:34:23.890625
2566,-135.32,2022-10-26 10:34:23.906250
2567,-140.61,2022-10-26 10:34:23.921875
2568,-134.98,2022-10-26 10:34:23.937500
2569,-115.44,2022-10-26 10:34:23.953125
2570,-84.16,2022-10-26 10:34:23.968750
2571,-48.6,2022-10-26 10:34:23.984375
2572,-17.69,2022-10-26 10:34:24.000000
2573,1.08,2022-10-26 10:34:24.015625
2574,4.9,2022-10-26 10:34:24.031250
2575,-3.65,2022-10-26 10:34:24.046875
2576,-17.67,2022-10-26 10:34:24.062500
2577,-27.59,2022-10-26 10:34:24.078125
2578,-25.09,2022-10-26 10:34:24.093750
2579,-5.69,2022-10-26 10:34:24.109375
2580,29.23,2022-10-26 10:34:24.125000
2581,73.4,2022-10-26 10:34:24.140625
2582,119.16,2022-10-26 10:34:24.156250
2583,160.89,2022-10-26 10:34:24.171875
2584,197.07,2022-10-26 10:34:24.187500
2585,228.53,2022-10-26 10:34:24.203125
2586,255.62,2022-10-26 10:34:24.218750
2587,275.57,2022-10-26 10:34:24.234375
2588,283.68,2022-10-26 10:34:24.250000
2589,276.85,2022-10-26 10:34:24.265625
2590,256.15,2022-10-26 10:34:24.281250
2591,227.16,2022-10-26 10:34:24.296875
2592,195.95,2022-10-26 10:34:24.312500
2593,164.9,2022-10-26 10:34:24.328125
2594,130.72,2022-10-26 10:34:24.343750
2595,87.36,2022-10-26 10:34:24.359375
2596,31.15,2022-10-26 10:34:24.375000
2597,-35.78,2022-10-26 10:34:24.390625
2598,-105.36,2022-10-26 10:34:24.406250
2599,-167.53,2022-10-26 10:34:24.421875
2600,-214.77,2022-10-26 10:34:24.437500
2601,-243.86,2022-10-26 10:34:24.453125
2602,-254.86,2022-10-26 10:34:24.468750
2603,-249.23,2022-10-26 10:34:24.484375
2604,-228.77,2022-10-26 10:34:24.500000
2605,-196.69,2022-10-26 10:34:24.515625
2606,-158.83,2022-10-26 10:34:24.531250
2607,-122.98,2022-10-26 10:34:24.546875
2608,-97.24,2022-10-26 10:34:24.562500
2609,-86.87,2022-10-26 10:34:24.578125
2610,-92.79,2022-10-26 10:34:24.593750
2611,-111.39,2022-10-26 10:34:24.609375
2612,-135.9,2022-10-26 10:34:24.625000
2613,-158.34,2022-10-26 10:34:24.640625
2614,-171.51,2022-10-26 10:34:24.656250
2615,-170.6,2022-10-26 10:34:24.671875
2616,-154.5,2022-10-26 10:34:24.687500
2617,-126.02,2022-10-26 10:34:24.703125
2618,-90.58,2022-10-26 10:34:24.718750
2619,-54.22,2022-10-26 10:34:24.734375
2620,-20.79,2022-10-26 10:34:24.750000
2621,9.79,2022-10-26 10:34:24.765625
2622,40.34,2022-10-26 10:34:24.781250
2623,74.28,2022-10-26 10:34:24.796875
2624,112.88,2022-10-26 10:34:24.812500
2625,153.25,2022-10-26 10:34:24.828125
2626,189.83,2022-10-26 10:34:24.843750
2627,216.62,2022-10-26 10:34:24.859375
2628,229.49,2022-10-26 10:34:24.875000
2629,226.55,2022-10-26 10:34:24.890625
2630,208.19,2022-10-26 10:34:24.906250
2631,176.33,2022-10-26 10:34:24.921875
2632,134.45,2022-10-26 10:34:24.937500
2633,87.86,2022-10-26 10:34:24.953125
2634,42.79,2022-10-26 10:34:24.968750
2635,4.52,2022-10-26 10:34:24.984375
2636,-24.15,2022-10-26 10:34:25.000000
2637,-43.48,2022-10-26 10:34:25.015625
2638,-56.33,2022-10-26 10:34:25.031250
2639,-65.32,2022-10-26 10:34:25.046875
2640,-71.35,2022-10-26 10:34:25.062500
2641,-73.71,2022-10-26 10:34:25.078125
2642,-71.35,2022-10-26 10:34:25.093750
2643,-65.24,2022-10-26 10:34:25.109375
2644,-59.1,2022-10-26 10:34:25.125000
2645,-58.31,2022-10-26 10:34:25.140625
2646,-66.86,2022-10-26 10:34:25.156250
2647,-84.84,2022-10-26 10:34:25.171875
2648,-107.49,2022-10-26 10:34:25.187500
2649,-126.32,2022-10-26 10:34:25.203125
2650,-132.78,2022-10-26 10:34:25.218750
2651,-121.69,2022-10-26 10:34:25.234375
2652,-93.66,2022-10-26 10:34:25.250000
2653,-55.0,2022-10-26 10:34:25.265625
2654,-15.51,2022-10-26 10:34:25.281250
2655,15.66,2022-10-26 10:34:25.296875
2656,34.29,2022-10-26 10:34:25.312500
2657,42.6,2022-10-26 10:34:25.328125
2658,48.72,2022-10-26 10:34:25.343750
2659,61.29,2022-10-26 10:34:25.359375
2660,84.45,2022-10-26 10:34:25.375000
2661,115.06,2022-10-26 10:34:25.390625
2662,144.66,2022-10-26 10:34:25.406250
2663,164.57,2022-10-26 10:34:25.421875
2664,171.06,2022-10-26 10:34:25.437500
2665,166.91,2022-10-26 10:34:25.453125
2666,158.25,2022-10-26 10:34:25.468750
2667,149.55,2022-10-26 10:34:25.484375
2668,140.5,2022-10-26 10:34:25.500000
2669,127.45,2022-10-26 10:34:25.515625
2670,107.38,2022-10-26 10:34:25.531250
2671,81.33,2022-10-26 10:34:25.546875
2672,54.69,2022-10-26 10:34:25.562500
2673,34.21,2022-10-26 10:34:25.578125
2674,24.59,2022-10-26 10:34:25.593750
2675,26.1,2022-10-26 10:34:25.609375
2676,35.17,2022-10-26 10:34:25.625000
2677,46.17,2022-10-26 10:34:25.640625
2678,54.06,2022-10-26 10:34:25.656250
2679,55.63,2022-10-26 10:34:25.671875
2680,50.5,2022-10-26 10:34:25.687500
2681,41.79,2022-10-26 10:34:25.703125
2682,35.82,2022-10-26 10:34:25.718750
2683,40.11,2022-10-26 10:34:25.734375
2684,59.13,2022-10-26 10:34:25.750000
2685,90.36,2022-10-26 10:34:25.765625
2686,123.01,2022-10-26 10:34:25.781250
2687,141.04,2022-10-26 10:34:25.796875
2688,129.71,2022-10-26 10:34:25.812500
2689,82.27,2022-10-26 10:34:25.828125
2690,3.77,2022-10-26 10:34:25.843750
2691,-90.88,2022-10-26 10:34:25.859375
2692,-182.78,2022-10-26 10:34:25.875000
2693,-255.11,2022-10-26 10:34:25.890625
2694,-296.98,2022-10-26 10:34:25.906250
2695,-304.74,2022-10-26 10:34:25.921875
2696,-280.77,2022-10-26 10:34:25.937500
2697,-232.13,2022-10-26 10:34:25.953125
2698,-169.32,2022-10-26 10:34:25.968750
2699,-103.81,2022-10-26 10:34:25.984375
2700,-46.24,2022-10-26 10:34:26.000000
2701,-2.77,2022-10-26 10:34:26.015625
2702,26.51,2022-10-26 10:34:26.031250
2703,47.17,2022-10-26 10:34:26.046875
2704,67.1,2022-10-26 10:34:26.062500
2705,91.55,2022-10-26 10:34:26.078125
2706,119.94,2022-10-26 10:34:26.093750
2707,146.0,2022-10-26 10:34:26.109375
2708,160.97,2022-10-26 10:34:26.125000
2709,158.24,2022-10-26 10:34:26.140625
2710,135.98,2022-10-26 10:34:26.156250
2711,97.02,2022-10-26 10:34:26.171875
2712,46.81,2022-10-26 10:34:26.187500
2713,-8.53,2022-10-26 10:34:26.203125
2714,-63.21,2022-10-26 10:34:26.218750
2715,-110.94,2022-10-26 10:34:26.234375
2716,-144.78,2022-10-26 10:34:26.250000
2717,-158.21,2022-10-26 10:34:26.265625
2718,-147.47,2022-10-26 10:34:26.281250
2719,-114.25,2022-10-26 10:34:26.296875
2720,-66.44,2022-10-26 10:34:26.312500
2721,-16.03,2022-10-26 10:34:26.328125
2722,24.3,2022-10-26 10:34:26.343750
2723,46.52,2022-10-26 10:34:26.359375
2724,50.03,2022-10-26 10:34:26.375000
2725,42.05,2022-10-26 10:34:26.390625
2726,34.82,2022-10-26 10:34:26.406250
2727,40.07,2022-10-26 10:34:26.421875
2728,63.31,2022-10-26 10:34:26.437500
2729,100.08,2022-10-26 10:34:26.453125
2730,136.93,2022-10-26 10:34:26.468750
2731,157.45,2022-10-26 10:34:26.484375
2732,149.55,2022-10-26 10:34:26.500000
2733,111.39,2022-10-26 10:34:26.515625
2734,52.02,2022-10-26 10:34:26.531250
2735,-13.99,2022-10-26 10:34:26.546875
2736,-73.33,2022-10-26 10:34:26.562500
2737,-119.71,2022-10-26 10:34:26.578125
2738,-154.43,2022-10-26 10:34:26.593750
2739,-182.3,2022-10-26 10:34:26.609375
2740,-206.93,2022-10-26 10:34:26.625000
2741,-228.01,2022-10-26 10:34:26.640625
2742,-242.47,2022-10-26 10:34:26.656250
2743,-248.24,2022-10-26 10:34:26.671875
2744,-247.31,2022-10-26 10:34:26.687500
2745,-244.44,2022-10-26 10:34:26.703125
2746,-244.12,2022-10-26 10:34:26.718750
2747,-246.83,2022-10-26 10:34:26.734375
2748,-247.59,2022-10-26 10:34:26.750000
2749,-238.89,2022-10-26 10:34:26.765625
2750,-215.5,2022-10-26 10:34:26.781250
2751,-177.77,2022-10-26 10:34:26.796875
2752,-132.3,2022-10-26 10:34:26.812500
2753,-88.37,2022-10-26 10:34:26.828125
2754,-53.81,2022-10-26 10:34:26.843750
2755,-32.03,2022-10-26 10:34:26.859375
2756,-21.73,2022-10-26 10:34:26.875000
2757,-19.13,2022-10-26 10:34:26.890625
2758,-21.18,2022-10-26 10:34:26.906250
2759,-26.44,2022-10-26 10:34:26.921875
2760,-34.59,2022-10-26 10:34:26.937500
2761,-45.53,2022-10-26 10:34:26.953125
2762,-58.64,2022-10-26 10:34:26.968750
2763,-72.7,2022-10-26 10:34:26.984375
2764,-86.07,2022-10-26 10:34:27.000000
2765,-96.53,2022-10-26 10:34:27.015625
2766,-100.69,2022-10-26 10:34:27.031250
2767,-94.57,2022-10-26 10:34:27.046875
2768,-74.87,2022-10-26 10:34:27.062500
2769,-40.86,2022-10-26 10:34:27.078125
2770,3.57,2022-10-26 10:34:27.093750
2771,51.1,2022-10-26 10:34:27.109375
2772,94.46,2022-10-26 10:34:27.125000
2773,129.4,2022-10-26 10:34:27.140625
2774,156.44,2022-10-26 10:34:27.156250
2775,179.43,2022-10-26 10:34:27.171875
2776,201.03,2022-10-26 10:34:27.187500
2777,220.65,2022-10-26 10:34:27.203125
2778,234.28,2022-10-26 10:34:27.218750
2779,237.67,2022-10-26 10:34:27.234375
2780,230.41,2022-10-26 10:34:27.250000
2781,217.27,2022-10-26 10:34:27.265625
2782,205.37,2022-10-26 10:34:27.281250
2783,200.52,2022-10-26 10:34:27.296875
2784,203.42,2022-10-26 10:34:27.312500
2785,209.57,2022-10-26 10:34:27.328125
2786,212.98,2022-10-26 10:34:27.343750
2787,210.22,2022-10-26 10:34:27.359375
2788,202.47,2022-10-26 10:34:27.375000
2789,194.78,2022-10-26 10:34:27.390625
2790,192.39,2022-10-26 10:34:27.406250
2791,196.38,2022-10-26 10:34:27.421875
2792,202.51,2022-10-26 10:34:27.437500
2793,203.16,2022-10-26 10:34:27.453125
2794,190.91,2022-10-26 10:34:27.468750
2795,162.62,2022-10-26 10:34:27.484375
2796,121.29,2022-10-26 10:34:27.500000
2797,74.89,2022-10-26 10:34:27.515625
2798,33.32,2022-10-26 10:34:27.531250
2799,4.54,2022-10-26 10:34:27.546875
2800,-8.86,2022-10-26 10:34:27.562500
2801,-9.31,2022-10-26 10:34:27.578125
2802,-3.05,2022-10-26 10:34:27.593750
2803,2.88,2022-10-26 10:34:27.609375
2804,4.42,2022-10-26 10:34:27.625000
2805,1.04,2022-10-26 10:34:27.640625
2806,-4.48,2022-10-26 10:34:27.656250
2807,-8.22,2022-10-26 10:34:27.671875
2808,-7.37,2022-10-26 10:34:27.687500
2809,-1.52,2022-10-26 10:34:27.703125
2810,6.82,2022-10-26 10:34:27.718750
2811,13.41,2022-10-26 10:34:27.734375
2812,13.34,2022-10-26 10:34:27.750000
2813,3.29,2022-10-26 10:34:27.765625
2814,-17.77,2022-10-26 10:34:27.781250
2815,-47.91,2022-10-26 10:34:27.796875
2816,-82.54,2022-10-26 10:34:27.812500
2817,-116.27,2022-10-26 10:34:27.828125
2818,-144.33,2022-10-26 10:34:27.843750
2819,-163.76,2022-10-26 10:34:27.859375
2820,-173.46,2022-10-26 10:34:27.875000
2821,-173.41,2022-10-26 10:34:27.890625
2822,-163.26,2022-10-26 10:34:27.906250
2823,-141.78,2022-10-26 10:34:27.921875
2824,-108.04,2022-10-26 10:34:27.937500
2825,-62.77,2022-10-26 10:34:27.953125
2826,-10.36,2022-10-26 10:34:27.968750
2827,40.96,2022-10-26 10:34:27.984375
2828,81.46,2022-10-26 10:34:28.000000
2829,102.42,2022-10-26 10:34:28.015625
2830,99.43,2022-10-26 10:34:28.031250
2831,74.52,2022-10-26 10:34:28.046875
2832,35.34,2022-10-26 10:34:28.062500
2833,-6.38,2022-10-26 10:34:28.078125
2834,-38.75,2022-10-26 10:34:28.093750
2835,-54.09,2022-10-26 10:34:28.109375
2836,-51.5,2022-10-26 10:34:28.125000
2837,-37.62,2022-10-26 10:34:28.140625
2838,-22.63,2022-10-26 10:34:28.156250
2839,-15.74,2022-10-26 10:34:28.171875
2840,-21.1,2022-10-26 10:34:28.187500
2841,-36.12,2022-10-26 10:34:28.203125
2842,-54.48,2022-10-26 10:34:28.218750
2843,-69.66,2022-10-26 10:34:28.234375
2844,-78.51,2022-10-26 10:34:28.250000
2845,-81.75,2022-10-26 10:34:28.265625
2846,-81.37,2022-10-26 10:34:28.281250
2847,-78.67,2022-10-26 10:34:28.296875
2848,-73.04,2022-10-26 10:34:28.312500
2849,-63.08,2022-10-26 10:34:28.328125
2850,-49.44,2022-10-26 10:34:28.343750
2851,-36.28,2022-10-26 10:34:28.359375
2852,-29.87,2022-10-26 10:34:28.375000
2853,-35.75,2022-10-26 10:34:28.390625
2854,-55.9,2022-10-26 10:34:28.406250
2855,-86.71,2022-10-26 10:34:28.421875
2856,-120.71,2022-10-26 10:34:28.437500
2857,-148.58,2022-10-26 10:34:28.453125
2858,-162.29,2022-10-26 10:34:28.468750
2859,-157.31,2022-10-26 10:34:28.484375
2860,-133.59,2022-10-26 10:34:28.500000
2861,-95.11,2022-10-26 10:34:28.515625
2862,-48.62,2022-10-26 10:34:28.531250
2863,-1.11,2022-10-26 10:34:28.546875
2864,42.23,2022-10-26 10:34:28.562500
2865,78.95,2022-10-26 10:34:28.578125
2866,108.57,2022-10-26 10:34:28.593750
2867,131.31,2022-10-26 10:34:28.609375
2868,147.08,2022-10-26 10:34:28.625000
2869,155.08,2022-10-26 10:34:28.640625
2870,155.21,2022-10-26 10:34:28.656250
2871,149.34,2022-10-26 10:34:28.671875
2872,140.52,2022-10-26 10:34:28.687500
2873,132.26,2022-10-26 10:34:28.703125
2874,125.88,2022-10-26 10:34:28.718750
2875,119.81,2022-10-26 10:34:28.734375
2876,111.1,2022-10-26 10:34:28.750000
2877,97.93,2022-10-26 10:34:28.765625
2878,82.26,2022-10-26 10:34:28.781250
2879,70.27,2022-10-26 10:34:28.796875
2880,69.13,2022-10-26 10:34:28.812500
2881,83.23,2022-10-26 10:34:28.828125
2882,110.24,2022-10-26 10:34:28.843750
2883,140.65,2022-10-26 10:34:28.859375
2884,162.02,2022-10-26 10:34:28.875000
2885,164.21,2022-10-26 10:34:28.890625
2886,143.92,2022-10-26 10:34:28.906250
2887,105.57,2022-10-26 10:34:28.921875
2888,58.22,2022-10-26 10:34:28.937500
2889,11.03,2022-10-26 10:34:28.953125
2890,-30.75,2022-10-26 10:34:28.968750
2891,-66.44,2022-10-26 10:34:28.984375
2892,-98.37,2022-10-26 10:34:29.000000
2893,-127.73,2022-10-26 10:34:29.015625
2894,-153.07,2022-10-26 10:34:29.031250
2895,-170.73,2022-10-26 10:34:29.046875
2896,-177.26,2022-10-26 10:34:29.062500
2897,-172.28,2022-10-26 10:34:29.078125
2898,-159.17,2022-10-26 10:34:29.093750
2899,-142.89,2022-10-26 10:34:29.109375
2900,-126.71,2022-10-26 10:34:29.125000
2901,-110.53,2022-10-26 10:34:29.140625
2902,-91.21,2022-10-26 10:34:29.156250
2903,-65.94,2022-10-26 10:34:29.171875
2904,-35.49,2022-10-26 10:34:29.187500
2905,-5.08,2022-10-26 10:34:29.203125
2906,17.58,2022-10-26 10:34:29.218750
2907,26.49,2022-10-26 10:34:29.234375
2908,20.48,2022-10-26 10:34:29.250000
2909,4.53,2022-10-26 10:34:29.265625
2910,-13.24,2022-10-26 10:34:29.281250
2911,-25.21,2022-10-26 10:34:29.296875
2912,-27.42,2022-10-26 10:34:29.312500
2913,-20.82,2022-10-26 10:34:29.328125
2914,-9.85,2022-10-26 10:34:29.343750
2915,-0.56,2022-10-26 10:34:29.359375
2916,1.9,2022-10-26 10:34:29.375000
2917,-5.7,2022-10-26 10:34:29.390625
2918,-24.07,2022-10-26 10:34:29.406250
2919,-52.13,2022-10-26 10:34:29.421875
2920,-87.56,2022-10-26 10:34:29.437500
2921,-128.27,2022-10-26 10:34:29.453125
2922,-172.35,2022-10-26 10:34:29.468750
2923,-217.78,2022-10-26 10:34:29.484375
2924,-261.79,2022-10-26 10:34:29.500000
2925,-299.74,2022-10-26 10:34:29.515625
2926,-326.05,2022-10-26 10:34:29.531250
2927,-335.16,2022-10-26 10:34:29.546875
2928,-323.88,2022-10-26 10:34:29.562500
2929,-292.65,2022-10-26 10:34:29.578125
2930,-246.17,2022-10-26 10:34:29.593750
2931,-192.17,2022-10-26 10:34:29.609375
2932,-138.44,2022-10-26 10:34:29.625000
2933,-90.8,2022-10-26 10:34:29.640625
2934,-50.92,2022-10-26 10:34:29.656250
2935,-16.58,2022-10-26 10:34:29.671875
2936,16.69,2022-10-26 10:34:29.687500
2937,53.06,2022-10-26 10:34:29.703125
2938,94.59,2022-10-26 10:34:29.718750
2939,140.77,2022-10-26 10:34:29.734375
2940,189.1,2022-10-26 10:34:29.750000
2941,237.09,2022-10-26 10:34:29.765625
2942,283.15,2022-10-26 10:34:29.781250
2943,326.31,2022-10-26 10:34:29.796875
2944,365.33,2022-10-26 10:34:29.812500
2945,397.95,2022-10-26 10:34:29.828125
2946,420.97,2022-10-26 10:34:29.843750
2947,432.01,2022-10-26 10:34:29.859375
2948,431.07,2022-10-26 10:34:29.875000
2949,421.11,2022-10-26 10:34:29.890625
2950,406.4,2022-10-26 10:34:29.906250
2951,390.07,2022-10-26 10:34:29.921875
2952,372.66,2022-10-26 10:34:29.937500
2953,351.73,2022-10-26 10:34:29.953125
2954,324.0,2022-10-26 10:34:29.968750
2955,286.64,2022-10-26 10:34:29.984375
2956,238.83,2022-10-26 10:34:30.000000
2957,182.13,2022-10-26 10:34:30.015625
2958,120.24,2022-10-26 10:34:30.031250
2959,58.55,2022-10-26 10:34:30.046875
2960,3.27,2022-10-26 10:34:30.062500
2961,-39.84,2022-10-26 10:34:30.078125
2962,-67.47,2022-10-26 10:34:30.093750
2963,-80.71,2022-10-26 10:34:30.109375
2964,-85.6,2022-10-26 10:34:30.125000
2965,-91.02,2022-10-26 10:34:30.140625
2966,-105.44,2022-10-26 10:34:30.156250
2967,-132.74,2022-10-26 10:34:30.171875
2968,-170.0,2022-10-26 10:34:30.187500
2969,-209.13,2022-10-26 10:34:30.203125
2970,-240.83,2022-10-26 10:34:30.218750
2971,-258.78,2022-10-26 10:34:30.234375
2972,-261.99,2022-10-26 10:34:30.250000
2973,-254.01,2022-10-26 10:34:30.265625
2974,-239.9,2022-10-26 10:34:30.281250
2975,-222.56,2022-10-26 10:34:30.296875
2976,-201.77,2022-10-26 10:34:30.312500
2977,-175.32,2022-10-26 10:34:30.328125
2978,-142.27,2022-10-26 10:34:30.343750
2979,-104.86,2022-10-26 10:34:30.359375
2980,-67.77,2022-10-26 10:34:30.375000
2981,-35.49,2022-10-26 10:34:30.390625
2982,-9.11,2022-10-26 10:34:30.406250
2983,15.19,2022-10-26 10:34:30.421875
2984,44.35,2022-10-26 10:34:30.437500
2985,83.6,2022-10-26 10:34:30.453125
2986,132.84,2022-10-26 10:34:30.468750
2987,185.45,2022-10-26 10:34:30.484375
2988,231.23,2022-10-26 10:34:30.500000
2989,260.72,2022-10-26 10:34:30.515625
2990,270.24,2022-10-26 10:34:30.531250
2991,263.26,2022-10-26 10:34:30.546875
2992,248.16,2022-10-26 10:34:30.562500
2993,233.73,2022-10-26 10:34:30.578125
2994,224.28,2022-10-26 10:34:30.593750
2995,218.65,2022-10-26 10:34:30.609375
2996,211.53,2022-10-26 10:34:30.625000
2997,197.02,2022-10-26 10:34:30.640625
2998,171.34,2022-10-26 10:34:30.656250
2999,133.67,2022-10-26 10:34:30.671875
3000,84.75,2022-10-26 10:34:30.687500
3001,25.53,2022-10-26 10:34:30.703125
3002,-43.86,2022-10-26 10:34:30.718750
3003,-122.84,2022-10-26 10:34:30.734375
3004,-207.97,2022-10-26 10:34:30.750000
3005,-291.16,2022-10-26 10:34:30.765625
3006,-360.59,2022-10-26 10:34:30.781250
3007,-404.19,2022-10-26 10:34:30.796875
3008,-414.21,2022-10-26 10:34:30.812500
3009,-391.07,2022-10-26 10:34:30.828125
3010,-343.84,2022-10-26 10:34:30.843750
3011,-286.94,2022-10-26 10:34:30.859375
3012,-233.56,2022-10-26 10:34:30.875000
3013,-191.14,2022-10-26 10:34:30.890625
3014,-159.82,2022-10-26 10:34:30.906250
3015,-134.28,2022-10-26 10:34:30.921875
3016,-108.14,2022-10-26 10:34:30.937500
3017,-77.61,2022-10-26 10:34:30.953125
3018,-43.76,2022-10-26 10:34:30.968750
3019,-11.31,2022-10-26 10:34:30.984375
3020,14.34,2022-10-26 10:34:31.000000
3021,29.56,2022-10-26 10:34:31.015625
3022,33.82,2022-10-26 10:34:31.031250
3023,29.5,2022-10-26 10:34:31.046875
3024,19.85,2022-10-26 10:34:31.062500
3025,7.8,2022-10-26 10:34:31.078125
3026,-5.28,2022-10-26 10:34:31.093750
3027,-18.95,2022-10-26 10:34:31.109375
3028,-32.54,2022-10-26 10:34:31.125000
3029,-44.65,2022-10-26 10:34:31.140625
3030,-52.77,2022-10-26 10:34:31.156250
3031,-54.49,2022-10-26 10:34:31.171875
3032,-49.56,2022-10-26 10:34:31.187500
3033,-40.83,2022-10-26 10:34:31.203125
3034,-34.04,2022-10-26 10:34:31.218750
3035,-35.24,2022-10-26 10:34:31.234375
3036,-47.65,2022-10-26 10:34:31.250000
3037,-68.92,2022-10-26 10:34:31.265625
3038,-92.14,2022-10-26 10:34:31.281250
3039,-109.43,2022-10-26 10:34:31.296875
3040,-116.46,2022-10-26 10:34:31.312500
3041,-114.78,2022-10-26 10:34:31.328125
3042,-110.28,2022-10-26 10:34:31.343750
3043,-108.8,2022-10-26 10:34:31.359375
3044,-111.06,2022-10-26 10:34:31.375000
3045,-111.44,2022-10-26 10:34:31.390625
3046,-101.93,2022-10-26 10:34:31.406250
3047,-76.79,2022-10-26 10:34:31.421875
3048,-37.21,2022-10-26 10:34:31.437500
3049,9.17,2022-10-26 10:34:31.453125
3050,52.95,2022-10-26 10:34:31.468750
3051,88.61,2022-10-26 10:34:31.484375
3052,117.56,2022-10-26 10:34:31.500000
3053,146.73,2022-10-26 10:34:31.515625
3054,183.36,2022-10-26 10:34:31.531250
3055,229.78,2022-10-26 10:34:31.546875
3056,281.25,2022-10-26 10:34:31.562500
3057,328.01,2022-10-26 10:34:31.578125
3058,360.01,2022-10-26 10:34:31.593750
3059,371.46,2022-10-26 10:34:31.609375
3060,362.69,2022-10-26 10:34:31.625000
3061,339.2,2022-10-26 10:34:31.640625
3062,308.89,2022-10-26 10:34:31.656250
3063,278.57,2022-10-26 10:34:31.671875
3064,251.39,2022-10-26 10:34:31.687500
3065,226.46,2022-10-26 10:34:31.703125
3066,199.91,2022-10-26 10:34:31.718750
3067,167.3,2022-10-26 10:34:31.734375
3068,125.88,2022-10-26 10:34:31.750000
3069,76.3,2022-10-26 10:34:31.765625
3070,21.92,2022-10-26 10:34:31.781250
3071,-33.59,2022-10-26 10:34:31.796875
3072,-88.31,2022-10-26 10:34:31.812500
3073,-141.78,2022-10-26 10:34:31.828125
3074,-193.98,2022-10-26 10:34:31.843750
3075,-243.14,2022-10-26 10:34:31.859375
3076,-285.29,2022-10-26 10:34:31.875000
3077,-314.76,2022-10-26 10:34:31.890625
3078,-327.24,2022-10-26 10:34:31.906250
3079,-320.52,2022-10-26 10:34:31.921875
3080,-295.6,2022-10-26 10:34:31.937500
3081,-255.8,2022-10-26 10:34:31.953125
3082,-205.4,2022-10-26 10:34:31.968750
3083,-148.94,2022-10-26 10:34:31.984375
3084,-90.61,2022-10-26 10:34:32.000000
3085,-34.16,2022-10-26 10:34:32.015625
3086,17.83,2022-10-26 10:34:32.031250
3087,63.52,2022-10-26 10:34:32.046875
3088,102.27,2022-10-26 10:34:32.062500
3089,133.85,2022-10-26 10:34:32.078125
3090,158.54,2022-10-26 10:34:32.093750
3091,177.13,2022-10-26 10:34:32.109375
3092,190.65,2022-10-26 10:34:32.125000
3093,200.97,2022-10-26 10:34:32.140625
3094,210.76,2022-10-26 10:34:32.156250
3095,222.79,2022-10-26 10:34:32.171875
3096,238.93,2022-10-26 10:34:32.187500
3097,259.39,2022-10-26 10:34:32.203125
3098,282.39,2022-10-26 10:34:32.218750
3099,303.65,2022-10-26 10:34:32.234375
3100,317.1,2022-10-26 10:34:32.250000
3101,315.77,2022-10-26 10:34:32.265625
3102,293.75,2022-10-26 10:34:32.281250
3103,248.73,2022-10-26 10:34:32.296875
3104,183.94,2022-10-26 10:34:32.312500
3105,108.26,2022-10-26 10:34:32.328125
3106,33.47,2022-10-26 10:34:32.343750
3107,-29.39,2022-10-26 10:34:32.359375
3108,-74.81,2022-10-26 10:34:32.375000
3109,-104.13,2022-10-26 10:34:32.390625
3110,-124.71,2022-10-26 10:34:32.406250
3111,-145.06,2022-10-26 10:34:32.421875
3112,-171.49,2022-10-26 10:34:32.437500
3113,-205.05,2022-10-26 10:34:32.453125
3114,-242.09,2022-10-26 10:34:32.468750
3115,-277.37,2022-10-26 10:34:32.484375
3116,-307.03,2022-10-26 10:34:32.500000
3117,-329.67,2022-10-26 10:34:32.515625
3118,-345.07,2022-10-26 10:34:32.531250
3119,-352.43,2022-10-26 10:34:32.546875
3120,-348.64,2022-10-26 10:34:32.562500
3121,-329.02,2022-10-26 10:34:32.578125
3122,-289.66,2022-10-26 10:34:32.593750
3123,-229.97,2022-10-26 10:34:32.609375
