,BVP,time
0,164.72,2022-10-26 10:45:44.093750
1,155.6,2022-10-26 10:45:44.109375
2,139.54,2022-10-26 10:45:44.125000
3,115.42,2022-10-26 10:45:44.140625
4,82.85,2022-10-26 10:45:44.156250
5,41.42,2022-10-26 10:45:44.171875
6,-9.28,2022-10-26 10:45:44.187500
7,-69.8,2022-10-26 10:45:44.203125
8,-138.21,2022-10-26 10:45:44.218750
9,-209.32,2022-10-26 10:45:44.234375
10,-274.74,2022-10-26 10:45:44.250000
11,-325.62,2022-10-26 10:45:44.265625
12,-357.58,2022-10-26 10:45:44.281250
13,-372.34,2022-10-26 10:45:44.296875
14,-376.46,2022-10-26 10:45:44.312500
15,-376.23,2022-10-26 10:45:44.328125
16,-373.27,2022-10-26 10:45:44.343750
17,-363.96,2022-10-26 10:45:44.359375
18,-342.46,2022-10-26 10:45:44.375000
19,-305.79,2022-10-26 10:45:44.390625
20,-256.87,2022-10-26 10:45:44.406250
21,-203.67,2022-10-26 10:45:44.421875
22,-153.84,2022-10-26 10:45:44.437500
23,-110.6,2022-10-26 10:45:44.453125
24,-70.8,2022-10-26 10:45:44.468750
25,-29.59,2022-10-26 10:45:44.484375
26,14.7,2022-10-26 10:45:44.500000
27,57.85,2022-10-26 10:45:44.515625
28,90.73,2022-10-26 10:45:44.531250
29,105.2,2022-10-26 10:45:44.546875
30,99.5,2022-10-26 10:45:44.562500
31,80.03,2022-10-26 10:45:44.578125
32,59.0,2022-10-26 10:45:44.593750
33,47.61,2022-10-26 10:45:44.609375
34,51.06,2022-10-26 10:45:44.625000
35,66.45,2022-10-26 10:45:44.640625
36,84.7,2022-10-26 10:45:44.656250
37,95.59,2022-10-26 10:45:44.671875
38,92.27,2022-10-26 10:45:44.687500
39,73.01,2022-10-26 10:45:44.703125
40,41.84,2022-10-26 10:45:44.718750
41,5.57,2022-10-26 10:45:44.734375
42,-28.26,2022-10-26 10:45:44.750000
43,-53.36,2022-10-26 10:45:44.765625
44,-65.83,2022-10-26 10:45:44.781250
45,-64.74,2022-10-26 10:45:44.796875
46,-51.99,2022-10-26 10:45:44.812500
47,-31.33,2022-10-26 10:45:44.828125
48,-6.71,2022-10-26 10:45:44.843750
49,18.27,2022-10-26 10:45:44.859375
50,40.36,2022-10-26 10:45:44.875000
51,56.29,2022-10-26 10:45:44.890625
52,62.42,2022-10-26 10:45:44.906250
53,55.72,2022-10-26 10:45:44.921875
54,36.09,2022-10-26 10:45:44.937500
55,7.09,2022-10-26 10:45:44.953125
56,-23.78,2022-10-26 10:45:44.968750
57,-48.49,2022-10-26 10:45:44.984375
58,-62.82,2022-10-26 10:45:45.000000
59,-67.06,2022-10-26 10:45:45.015625
60,-66.3,2022-10-26 10:45:45.031250
61,-66.32,2022-10-26 10:45:45.046875
62,-69.41,2022-10-26 10:45:45.062500
63,-73.51,2022-10-26 10:45:45.078125
64,-73.15,2022-10-26 10:45:45.093750
65,-64.17,2022-10-26 10:45:45.109375
66,-46.96,2022-10-26 10:45:45.125000
67,-26.74,2022-10-26 10:45:45.140625
68,-11.62,2022-10-26 10:45:45.156250
69,-8.39,2022-10-26 10:45:45.171875
70,-19.35,2022-10-26 10:45:45.187500
71,-41.87,2022-10-26 10:45:45.203125
72,-69.66,2022-10-26 10:45:45.218750
73,-95.67,2022-10-26 10:45:45.234375
74,-114.27,2022-10-26 10:45:45.250000
75,-122.78,2022-10-26 10:45:45.265625
76,-121.8,2022-10-26 10:45:45.281250
77,-114.86,2022-10-26 10:45:45.296875
78,-106.71,2022-10-26 10:45:45.312500
79,-101.2,2022-10-26 10:45:45.328125
80,-99.46,2022-10-26 10:45:45.343750
81,-98.58,2022-10-26 10:45:45.359375
82,-93.45,2022-10-26 10:45:45.375000
83,-79.41,2022-10-26 10:45:45.390625
84,-55.27,2022-10-26 10:45:45.406250
85,-24.72,2022-10-26 10:45:45.421875
86,6.45,2022-10-26 10:45:45.437500
87,33.54,2022-10-26 10:45:45.453125
88,56.11,2022-10-26 10:45:45.468750
89,78.16,2022-10-26 10:45:45.484375
90,103.72,2022-10-26 10:45:45.500000
91,134.06,2022-10-26 10:45:45.515625
92,165.69,2022-10-26 10:45:45.531250
93,192.89,2022-10-26 10:45:45.546875
94,212.32,2022-10-26 10:45:45.562500
95,226.68,2022-10-26 10:45:45.578125
96,243.45,2022-10-26 10:45:45.593750
97,269.93,2022-10-26 10:45:45.609375
98,307.54,2022-10-26 10:45:45.625000
99,349.17,2022-10-26 10:45:45.640625
100,381.98,2022-10-26 10:45:45.656250
101,394.43,2022-10-26 10:45:45.671875
102,382.77,2022-10-26 10:45:45.687500
103,352.89,2022-10-26 10:45:45.703125
104,317.51,2022-10-26 10:45:45.718750
105,289.56,2022-10-26 10:45:45.734375
106,276.57,2022-10-26 10:45:45.750000
107,277.5,2022-10-26 10:45:45.765625
108,283.7,2022-10-26 10:45:45.781250
109,283.28,2022-10-26 10:45:45.796875
110,266.19,2022-10-26 10:45:45.812500
111,228.55,2022-10-26 10:45:45.828125
112,173.73,2022-10-26 10:45:45.843750
113,110.62,2022-10-26 10:45:45.859375
114,49.01,2022-10-26 10:45:45.875000
115,-4.4,2022-10-26 10:45:45.890625
116,-47.53,2022-10-26 10:45:45.906250
117,-82.55,2022-10-26 10:45:45.921875
118,-113.22,2022-10-26 10:45:45.937500
119,-142.05,2022-10-26 10:45:45.953125
120,-169.69,2022-10-26 10:45:45.968750
121,-194.53,2022-10-26 10:45:45.984375
122,-214.74,2022-10-26 10:45:46.000000
123,-228.6,2022-10-26 10:45:46.015625
124,-235.26,2022-10-26 10:45:46.031250
125,-233.73,2022-10-26 10:45:46.046875
126,-224.03,2022-10-26 10:45:46.062500
127,-207.06,2022-10-26 10:45:46.078125
128,-184.84,2022-10-26 10:45:46.093750
129,-160.61,2022-10-26 10:45:46.109375
130,-137.07,2022-10-26 10:45:46.125000
131,-115.65,2022-10-26 10:45:46.140625
132,-97.1,2022-10-26 10:45:46.156250
133,-82.71,2022-10-26 10:45:46.171875
134,-75.65,2022-10-26 10:45:46.187500
135,-80.21,2022-10-26 10:45:46.203125
136,-99.07,2022-10-26 10:45:46.218750
137,-131.2,2022-10-26 10:45:46.234375
138,-170.92,2022-10-26 10:45:46.250000
139,-209.47,2022-10-26 10:45:46.265625
140,-237.99,2022-10-26 10:45:46.281250
141,-251.21,2022-10-26 10:45:46.296875
142,-248.61,2022-10-26 10:45:46.312500
143,-233.33,2022-10-26 10:45:46.328125
144,-209.77,2022-10-26 10:45:46.343750
145,-181.36,2022-10-26 10:45:46.359375
146,-149.88,2022-10-26 10:45:46.375000
147,-116.07,2022-10-26 10:45:46.390625
148,-80.67,2022-10-26 10:45:46.406250
149,-44.96,2022-10-26 10:45:46.421875
150,-10.45,2022-10-26 10:45:46.437500
151,22.59,2022-10-26 10:45:46.453125
152,55.13,2022-10-26 10:45:46.468750
153,89.03,2022-10-26 10:45:46.484375
154,124.24,2022-10-26 10:45:46.500000
155,157.45,2022-10-26 10:45:46.515625
156,181.99,2022-10-26 10:45:46.531250
157,190.36,2022-10-26 10:45:46.546875
158,177.23,2022-10-26 10:45:46.562500
159,142.36,2022-10-26 10:45:46.578125
160,91.09,2022-10-26 10:45:46.593750
161,32.27,2022-10-26 10:45:46.609375
162,-25.0,2022-10-26 10:45:46.625000
163,-73.5,2022-10-26 10:45:46.640625
164,-108.88,2022-10-26 10:45:46.656250
165,-128.63,2022-10-26 10:45:46.671875
166,-132.14,2022-10-26 10:45:46.687500
167,-120.91,2022-10-26 10:45:46.703125
168,-99.01,2022-10-26 10:45:46.718750
169,-72.91,2022-10-26 10:45:46.734375
170,-49.37,2022-10-26 10:45:46.750000
171,-33.53,2022-10-26 10:45:46.765625
172,-25.53,2022-10-26 10:45:46.781250
173,-21.15,2022-10-26 10:45:46.796875
174,-13.94,2022-10-26 10:45:46.812500
175,1.71,2022-10-26 10:45:46.828125
176,27.52,2022-10-26 10:45:46.843750
177,60.67,2022-10-26 10:45:46.859375
178,95.54,2022-10-26 10:45:46.875000
179,126.33,2022-10-26 10:45:46.890625
180,149.94,2022-10-26 10:45:46.906250
181,167.17,2022-10-26 10:45:46.921875
182,181.83,2022-10-26 10:45:46.937500
183,198.17,2022-10-26 10:45:46.953125
184,218.46,2022-10-26 10:45:46.968750
185,240.77,2022-10-26 10:45:46.984375
186,259.29,2022-10-26 10:45:47.000000
187,266.03,2022-10-26 10:45:47.015625
188,254.46,2022-10-26 10:45:47.031250
189,222.98,2022-10-26 10:45:47.046875
190,175.72,2022-10-26 10:45:47.062500
191,120.7,2022-10-26 10:45:47.078125
192,66.13,2022-10-26 10:45:47.093750
193,17.81,2022-10-26 10:45:47.109375
194,-22.25,2022-10-26 10:45:47.125000
195,-54.32,2022-10-26 10:45:47.140625
196,-79.57,2022-10-26 10:45:47.156250
197,-99.33,2022-10-26 10:45:47.171875
198,-115.72,2022-10-26 10:45:47.187500
199,-132.98,2022-10-26 10:45:47.203125
200,-155.78,2022-10-26 10:45:47.218750
201,-186.68,2022-10-26 10:45:47.234375
202,-222.63,2022-10-26 10:45:47.250000
203,-255.37,2022-10-26 10:45:47.265625
204,-274.58,2022-10-26 10:45:47.281250
205,-274.32,2022-10-26 10:45:47.296875
206,-258.12,2022-10-26 10:45:47.312500
207,-237.62,2022-10-26 10:45:47.328125
208,-227.31,2022-10-26 10:45:47.343750
209,-237.67,2022-10-26 10:45:47.359375
210,-269.94,2022-10-26 10:45:47.375000
211,-317.1,2022-10-26 10:45:47.390625
212,-367.68,2022-10-26 10:45:47.406250
213,-411.61,2022-10-26 10:45:47.421875
214,-443.16,2022-10-26 10:45:47.437500
215,-460.72,2022-10-26 10:45:47.453125
216,-464.01,2022-10-26 10:45:47.468750
217,-453.07,2022-10-26 10:45:47.484375
218,-427.62,2022-10-26 10:45:47.500000
219,-388.48,2022-10-26 10:45:47.515625
220,-338.32,2022-10-26 10:45:47.531250
221,-281.48,2022-10-26 10:45:47.546875
222,-221.4,2022-10-26 10:45:47.562500
223,-159.11,2022-10-26 10:45:47.578125
224,-93.15,2022-10-26 10:45:47.593750
225,-21.39,2022-10-26 10:45:47.609375
226,55.76,2022-10-26 10:45:47.625000
227,133.58,2022-10-26 10:45:47.640625
228,202.35,2022-10-26 10:45:47.656250
229,249.22,2022-10-26 10:45:47.671875
230,264.06,2022-10-26 10:45:47.687500
231,243.14,2022-10-26 10:45:47.703125
232,193.0,2022-10-26 10:45:47.718750
233,128.56,2022-10-26 10:45:47.734375
234,68.77,2022-10-26 10:45:47.750000
235,30.49,2022-10-26 10:45:47.765625
236,22.52,2022-10-26 10:45:47.781250
237,43.92,2022-10-26 10:45:47.796875
238,85.34,2022-10-26 10:45:47.812500
239,133.71,2022-10-26 10:45:47.828125
240,177.57,2022-10-26 10:45:47.843750
241,209.94,2022-10-26 10:45:47.859375
242,229.16,2022-10-26 10:45:47.875000
243,236.54,2022-10-26 10:45:47.890625
244,234.01,2022-10-26 10:45:47.906250
245,222.8,2022-10-26 10:45:47.921875
246,204.81,2022-10-26 10:45:47.937500
247,183.32,2022-10-26 10:45:47.953125
248,163.5,2022-10-26 10:45:47.968750
249,150.21,2022-10-26 10:45:47.984375
250,145.14,2022-10-26 10:45:48.000000
251,145.17,2022-10-26 10:45:48.015625
252,143.54,2022-10-26 10:45:48.031250
253,132.54,2022-10-26 10:45:48.046875
254,107.02,2022-10-26 10:45:48.062500
255,66.49,2022-10-26 10:45:48.078125
256,14.78,2022-10-26 10:45:48.093750
257,-42.09,2022-10-26 10:45:48.109375
258,-98.74,2022-10-26 10:45:48.125000
259,-150.75,2022-10-26 10:45:48.140625
260,-194.69,2022-10-26 10:45:48.156250
261,-227.46,2022-10-26 10:45:48.171875
262,-246.7,2022-10-26 10:45:48.187500
263,-252.09,2022-10-26 10:45:48.203125
264,-245.44,2022-10-26 10:45:48.218750
265,-230.42,2022-10-26 10:45:48.234375
266,-210.13,2022-10-26 10:45:48.250000
267,-184.87,2022-10-26 10:45:48.265625
268,-151.8,2022-10-26 10:45:48.281250
269,-106.24,2022-10-26 10:45:48.296875
270,-44.89,2022-10-26 10:45:48.312500
271,32.18,2022-10-26 10:45:48.328125
272,120.3,2022-10-26 10:45:48.343750
273,211.55,2022-10-26 10:45:48.359375
274,296.73,2022-10-26 10:45:48.375000
275,368.2,2022-10-26 10:45:48.390625
276,421.45,2022-10-26 10:45:48.406250
277,455.03,2022-10-26 10:45:48.421875
278,469.5,2022-10-26 10:45:48.437500
279,465.91,2022-10-26 10:45:48.453125
280,445.93,2022-10-26 10:45:48.468750
281,413.43,2022-10-26 10:45:48.484375
282,375.35,2022-10-26 10:45:48.500000
283,341.26,2022-10-26 10:45:48.515625
284,320.91,2022-10-26 10:45:48.531250
285,319.61,2022-10-26 10:45:48.546875
286,334.82,2022-10-26 10:45:48.562500
287,357.51,2022-10-26 10:45:48.578125
288,376.95,2022-10-26 10:45:48.593750
289,386.62,2022-10-26 10:45:48.609375
290,388.05,2022-10-26 10:45:48.625000
291,389.98,2022-10-26 10:45:48.640625
292,403.25,2022-10-26 10:45:48.656250
293,435.11,2022-10-26 10:45:48.671875
294,484.75,2022-10-26 10:45:48.687500
295,543.33,2022-10-26 10:45:48.703125
296,597.67,2022-10-26 10:45:48.718750
297,633.97,2022-10-26 10:45:48.734375
298,642.29,2022-10-26 10:45:48.750000
299,618.61,2022-10-26 10:45:48.765625
300,564.81,2022-10-26 10:45:48.781250
301,487.54,2022-10-26 10:45:48.796875
302,396.14,2022-10-26 10:45:48.812500
303,299.9,2022-10-26 10:45:48.828125
304,205.42,2022-10-26 10:45:48.843750
305,114.99,2022-10-26 10:45:48.859375
306,27.1,2022-10-26 10:45:48.875000
307,-61.95,2022-10-26 10:45:48.890625
308,-154.96,2022-10-26 10:45:48.906250
309,-251.8,2022-10-26 10:45:48.921875
310,-349.48,2022-10-26 10:45:48.937500
311,-443.15,2022-10-26 10:45:48.953125
312,-527.88,2022-10-26 10:45:48.968750
313,-599.81,2022-10-26 10:45:48.984375
314,-656.42,2022-10-26 10:45:49.000000
315,-696.37,2022-10-26 10:45:49.015625
316,-719.12,2022-10-26 10:45:49.031250
317,-725.31,2022-10-26 10:45:49.046875
318,-718.44,2022-10-26 10:45:49.062500
319,-706.1,2022-10-26 10:45:49.078125
320,-699.14,2022-10-26 10:45:49.093750
321,-709.11,2022-10-26 10:45:49.109375
322,-744.15,2022-10-26 10:45:49.125000
323,-804.72,2022-10-26 10:45:49.140625
324,-882.31,2022-10-26 10:45:49.156250
325,-961.68,2022-10-26 10:45:49.171875
326,-1024.78,2022-10-26 10:45:49.187500
327,-1056.26,2022-10-26 10:45:49.203125
328,-1046.73,2022-10-26 10:45:49.218750
329,-995.08,2022-10-26 10:45:49.234375
330,-907.3,2022-10-26 10:45:49.250000
331,-794.23,2022-10-26 10:45:49.265625
332,-668.59,2022-10-26 10:45:49.281250
333,-541.51,2022-10-26 10:45:49.296875
334,-419.69,2022-10-26 10:45:49.312500
335,-305.39,2022-10-26 10:45:49.328125
336,-196.64,2022-10-26 10:45:49.343750
337,-90.71,2022-10-26 10:45:49.359375
338,13.55,2022-10-26 10:45:49.375000
339,113.71,2022-10-26 10:45:49.390625
340,204.67,2022-10-26 10:45:49.406250
341,281.75,2022-10-26 10:45:49.421875
342,342.9,2022-10-26 10:45:49.437500
343,389.76,2022-10-26 10:45:49.453125
344,425.9,2022-10-26 10:45:49.468750
345,454.53,2022-10-26 10:45:49.484375
346,477.16,2022-10-26 10:45:49.500000
347,493.32,2022-10-26 10:45:49.515625
348,502.22,2022-10-26 10:45:49.531250
349,503.48,2022-10-26 10:45:49.546875
350,497.18,2022-10-26 10:45:49.562500
351,482.69,2022-10-26 10:45:49.578125
352,457.88,2022-10-26 10:45:49.593750
353,420.55,2022-10-26 10:45:49.609375
354,369.06,2022-10-26 10:45:49.625000
355,304.71,2022-10-26 10:45:49.640625
356,233.1,2022-10-26 10:45:49.656250
357,161.96,2022-10-26 10:45:49.671875
358,99.86,2022-10-26 10:45:49.687500
359,53.64,2022-10-26 10:45:49.703125
360,27.09,2022-10-26 10:45:49.718750
361,20.39,2022-10-26 10:45:49.734375
362,30.01,2022-10-26 10:45:49.750000
363,49.64,2022-10-26 10:45:49.765625
364,70.52,2022-10-26 10:45:49.781250
365,83.47,2022-10-26 10:45:49.796875
366,82.49,2022-10-26 10:45:49.812500
367,65.72,2022-10-26 10:45:49.828125
368,36.28,2022-10-26 10:45:49.843750
369,-0.28,2022-10-26 10:45:49.859375
370,-39.72,2022-10-26 10:45:49.875000
371,-80.66,2022-10-26 10:45:49.890625
372,-124.35,2022-10-26 10:45:49.906250
373,-171.46,2022-10-26 10:45:49.921875
374,-219.73,2022-10-26 10:45:49.937500
375,-263.08,2022-10-26 10:45:49.953125
376,-294.32,2022-10-26 10:45:49.968750
377,-307.96,2022-10-26 10:45:49.984375
378,-302.25,2022-10-26 10:45:50.000000
379,-278.69,2022-10-26 10:45:50.015625
380,-240.03,2022-10-26 10:45:50.031250
381,-188.87,2022-10-26 10:45:50.046875
382,-126.87,2022-10-26 10:45:50.062500
383,-56.46,2022-10-26 10:45:50.078125
384,17.94,2022-10-26 10:45:50.093750
385,90.85,2022-10-26 10:45:50.109375
386,157.63,2022-10-26 10:45:50.125000
387,216.47,2022-10-26 10:45:50.140625
388,268.82,2022-10-26 10:45:50.156250
389,316.86,2022-10-26 10:45:50.171875
390,360.46,2022-10-26 10:45:50.187500
391,396.08,2022-10-26 10:45:50.203125
392,418.29,2022-10-26 10:45:50.218750
393,423.13,2022-10-26 10:45:50.234375
394,410.84,2022-10-26 10:45:50.250000
395,386.19,2022-10-26 10:45:50.265625
396,355.65,2022-10-26 10:45:50.281250
397,323.41,2022-10-26 10:45:50.296875
398,290.65,2022-10-26 10:45:50.312500
399,256.11,2022-10-26 10:45:50.328125
400,218.7,2022-10-26 10:45:50.343750
401,179.87,2022-10-26 10:45:50.359375
402,143.38,2022-10-26 10:45:50.375000
403,112.66,2022-10-26 10:45:50.390625
404,87.97,2022-10-26 10:45:50.406250
405,66.06,2022-10-26 10:45:50.421875
406,42.21,2022-10-26 10:45:50.437500
407,13.78,2022-10-26 10:45:50.453125
408,-17.7,2022-10-26 10:45:50.468750
409,-46.64,2022-10-26 10:45:50.484375
410,-66.41,2022-10-26 10:45:50.500000
411,-72.43,2022-10-26 10:45:50.515625
412,-63.6,2022-10-26 10:45:50.531250
413,-41.59,2022-10-26 10:45:50.546875
414,-8.74,2022-10-26 10:45:50.562500
415,32.16,2022-10-26 10:45:50.578125
416,77.79,2022-10-26 10:45:50.593750
417,123.03,2022-10-26 10:45:50.609375
418,160.13,2022-10-26 10:45:50.625000
419,180.72,2022-10-26 10:45:50.640625
420,178.33,2022-10-26 10:45:50.656250
421,151.49,2022-10-26 10:45:50.671875
422,103.35,2022-10-26 10:45:50.687500
423,39.36,2022-10-26 10:45:50.703125
424,-35.2,2022-10-26 10:45:50.718750
425,-117.72,2022-10-26 10:45:50.734375
426,-206.39,2022-10-26 10:45:50.750000
427,-297.84,2022-10-26 10:45:50.765625
428,-385.2,2022-10-26 10:45:50.781250
429,-459.47,2022-10-26 10:45:50.796875
430,-512.58,2022-10-26 10:45:50.812500
431,-541.23,2022-10-26 10:45:50.828125
432,-547.81,2022-10-26 10:45:50.843750
433,-539.2,2022-10-26 10:45:50.859375
434,-522.09,2022-10-26 10:45:50.875000
435,-500.8,2022-10-26 10:45:50.890625
436,-476.48,2022-10-26 10:45:50.906250
437,-447.86,2022-10-26 10:45:50.921875
438,-413.03,2022-10-26 10:45:50.937500
439,-369.73,2022-10-26 10:45:50.953125
440,-315.65,2022-10-26 10:45:50.968750
441,-248.53,2022-10-26 10:45:50.984375
442,-167.08,2022-10-26 10:45:51.000000
443,-73.97,2022-10-26 10:45:51.015625
444,23.45,2022-10-26 10:45:51.031250
445,114.7,2022-10-26 10:45:51.046875
446,190.35,2022-10-26 10:45:51.062500
447,245.47,2022-10-26 10:45:51.078125
448,281.37,2022-10-26 10:45:51.093750
449,303.21,2022-10-26 10:45:51.109375
450,315.93,2022-10-26 10:45:51.125000
451,321.92,2022-10-26 10:45:51.140625
452,320.53,2022-10-26 10:45:51.156250
453,310.97,2022-10-26 10:45:51.171875
454,294.47,2022-10-26 10:45:51.187500
455,274.95,2022-10-26 10:45:51.203125
456,257.59,2022-10-26 10:45:51.218750
457,245.06,2022-10-26 10:45:51.234375
458,236.43,2022-10-26 10:45:51.250000
459,228.12,2022-10-26 10:45:51.265625
460,217.06,2022-10-26 10:45:51.281250
461,203.19,2022-10-26 10:45:51.296875
462,190.02,2022-10-26 10:45:51.312500
463,182.04,2022-10-26 10:45:51.328125
464,181.92,2022-10-26 10:45:51.343750
465,188.09,2022-10-26 10:45:51.359375
466,196.15,2022-10-26 10:45:51.375000
467,200.67,2022-10-26 10:45:51.390625
468,196.77,2022-10-26 10:45:51.406250
469,182.04,2022-10-26 10:45:51.421875
470,155.23,2022-10-26 10:45:51.437500
471,116.24,2022-10-26 10:45:51.453125
472,66.05,2022-10-26 10:45:51.468750
473,7.4,2022-10-26 10:45:51.484375
474,-54.14,2022-10-26 10:45:51.500000
475,-110.77,2022-10-26 10:45:51.515625
476,-153.74,2022-10-26 10:45:51.531250
477,-176.28,2022-10-26 10:45:51.546875
478,-175.28,2022-10-26 10:45:51.562500
479,-152.44,2022-10-26 10:45:51.578125
480,-112.3,2022-10-26 10:45:51.593750
481,-60.03,2022-10-26 10:45:51.609375
482,-0.2,2022-10-26 10:45:51.625000
483,63.43,2022-10-26 10:45:51.640625
484,127.18,2022-10-26 10:45:51.656250
485,186.49,2022-10-26 10:45:51.671875
486,235.26,2022-10-26 10:45:51.687500
487,267.26,2022-10-26 10:45:51.703125
488,277.93,2022-10-26 10:45:51.718750
489,266.29,2022-10-26 10:45:51.734375
490,234.59,2022-10-26 10:45:51.750000
491,187.11,2022-10-26 10:45:51.765625
492,128.66,2022-10-26 10:45:51.781250
493,62.59,2022-10-26 10:45:51.796875
494,-8.18,2022-10-26 10:45:51.812500
495,-79.05,2022-10-26 10:45:51.828125
496,-143.05,2022-10-26 10:45:51.843750
497,-190.8,2022-10-26 10:45:51.859375
498,-213.97,2022-10-26 10:45:51.875000
499,-209.25,2022-10-26 10:45:51.890625
500,-181.82,2022-10-26 10:45:51.906250
501,-143.73,2022-10-26 10:45:51.921875
502,-109.59,2022-10-26 10:45:51.937500
503,-90.39,2022-10-26 10:45:51.953125
504,-89.26,2022-10-26 10:45:51.968750
505,-101.15,2022-10-26 10:45:51.984375
506,-117.58,2022-10-26 10:45:52.000000
507,-130.98,2022-10-26 10:45:52.015625
508,-138.27,2022-10-26 10:45:52.031250
509,-140.51,2022-10-26 10:45:52.046875
510,-140.3,2022-10-26 10:45:52.062500
511,-138.93,2022-10-26 10:45:52.078125
512,-134.59,2022-10-26 10:45:52.093750
513,-123.52,2022-10-26 10:45:52.109375
514,-101.47,2022-10-26 10:45:52.125000
515,-66.28,2022-10-26 10:45:52.140625
516,-19.21,2022-10-26 10:45:52.156250
517,35.99,2022-10-26 10:45:52.171875
518,93.38,2022-10-26 10:45:52.187500
519,147.03,2022-10-26 10:45:52.203125
520,192.06,2022-10-26 10:45:52.218750
521,226.7,2022-10-26 10:45:52.234375
522,251.72,2022-10-26 10:45:52.250000
523,269.54,2022-10-26 10:45:52.265625
524,281.92,2022-10-26 10:45:52.281250
525,288.04,2022-10-26 10:45:52.296875
526,285.13,2022-10-26 10:45:52.312500
527,270.49,2022-10-26 10:45:52.328125
528,243.72,2022-10-26 10:45:52.343750
529,208.39,2022-10-26 10:45:52.359375
530,169.39,2022-10-26 10:45:52.375000
531,129.42,2022-10-26 10:45:52.390625
532,86.69,2022-10-26 10:45:52.406250
533,35.95,2022-10-26 10:45:52.421875
534,-27.16,2022-10-26 10:45:52.437500
535,-101.7,2022-10-26 10:45:52.453125
536,-178.61,2022-10-26 10:45:52.468750
537,-243.2,2022-10-26 10:45:52.484375
538,-282.13,2022-10-26 10:45:52.500000
539,-289.67,2022-10-26 10:45:52.515625
540,-270.54,2022-10-26 10:45:52.531250
541,-236.86,2022-10-26 10:45:52.546875
542,-201.59,2022-10-26 10:45:52.562500
543,-172.64,2022-10-26 10:45:52.578125
544,-150.08,2022-10-26 10:45:52.593750
545,-130.12,2022-10-26 10:45:52.609375
546,-109.42,2022-10-26 10:45:52.625000
547,-88.74,2022-10-26 10:45:52.640625
548,-73.17,2022-10-26 10:45:52.656250
549,-68.79,2022-10-26 10:45:52.671875
550,-78.64,2022-10-26 10:45:52.687500
551,-100.91,2022-10-26 10:45:52.703125
552,-130.19,2022-10-26 10:45:52.718750
553,-160.1,2022-10-26 10:45:52.734375
554,-186.27,2022-10-26 10:45:52.750000
555,-206.51,2022-10-26 10:45:52.765625
556,-218.88,2022-10-26 10:45:52.781250
557,-221.16,2022-10-26 10:45:52.796875
558,-210.83,2022-10-26 10:45:52.812500
559,-187.78,2022-10-26 10:45:52.828125
560,-156.19,2022-10-26 10:45:52.843750
561,-124.19,2022-10-26 10:45:52.859375
562,-100.49,2022-10-26 10:45:52.875000
563,-89.62,2022-10-26 10:45:52.890625
564,-89.46,2022-10-26 10:45:52.906250
565,-91.83,2022-10-26 10:45:52.921875
566,-86.47,2022-10-26 10:45:52.937500
567,-66.54,2022-10-26 10:45:52.953125
568,-31.24,2022-10-26 10:45:52.968750
569,14.14,2022-10-26 10:45:52.984375
570,62.56,2022-10-26 10:45:53.000000
571,109.87,2022-10-26 10:45:53.015625
572,156.82,2022-10-26 10:45:53.031250
573,206.67,2022-10-26 10:45:53.046875
574,260.99,2022-10-26 10:45:53.062500
575,315.84,2022-10-26 10:45:53.078125
576,361.89,2022-10-26 10:45:53.093750
577,389.35,2022-10-26 10:45:53.109375
578,393.98,2022-10-26 10:45:53.125000
579,380.61,2022-10-26 10:45:53.140625
580,361.62,2022-10-26 10:45:53.156250
581,350.72,2022-10-26 10:45:53.171875
582,355.71,2022-10-26 10:45:53.187500
583,374.67,2022-10-26 10:45:53.203125
584,397.39,2022-10-26 10:45:53.218750
585,410.86,2022-10-26 10:45:53.234375
586,406.65,2022-10-26 10:45:53.250000
587,383.38,2022-10-26 10:45:53.265625
588,346.09,2022-10-26 10:45:53.281250
589,301.64,2022-10-26 10:45:53.296875
590,254.47,2022-10-26 10:45:53.312500
591,204.88,2022-10-26 10:45:53.328125
592,151.53,2022-10-26 10:45:53.343750
593,94.55,2022-10-26 10:45:53.359375
594,37.35,2022-10-26 10:45:53.375000
595,-13.84,2022-10-26 10:45:53.390625
596,-53.78,2022-10-26 10:45:53.406250
597,-81.35,2022-10-26 10:45:53.421875
598,-101.37,2022-10-26 10:45:53.437500
599,-123.02,2022-10-26 10:45:53.453125
600,-154.08,2022-10-26 10:45:53.468750
601,-196.76,2022-10-26 10:45:53.484375
602,-246.77,2022-10-26 10:45:53.500000
603,-295.08,2022-10-26 10:45:53.515625
604,-332.94,2022-10-26 10:45:53.531250
605,-355.73,2022-10-26 10:45:53.546875
606,-363.71,2022-10-26 10:45:53.562500
607,-358.95,2022-10-26 10:45:53.578125
608,-342.73,2022-10-26 10:45:53.593750
609,-314.79,2022-10-26 10:45:53.609375
610,-274.87,2022-10-26 10:45:53.625000
611,-225.22,2022-10-26 10:45:53.640625
612,-171.56,2022-10-26 10:45:53.656250
613,-121.33,2022-10-26 10:45:53.671875
614,-80.57,2022-10-26 10:45:53.687500
615,-51.66,2022-10-26 10:45:53.703125
616,-33.97,2022-10-26 10:45:53.718750
617,-26.3,2022-10-26 10:45:53.734375
618,-28.82,2022-10-26 10:45:53.750000
619,-43.21,2022-10-26 10:45:53.765625
620,-70.85,2022-10-26 10:45:53.781250
621,-109.8,2022-10-26 10:45:53.796875
622,-153.83,2022-10-26 10:45:53.812500
623,-194.23,2022-10-26 10:45:53.828125
624,-222.77,2022-10-26 10:45:53.843750
625,-234.39,2022-10-26 10:45:53.859375
626,-229.26,2022-10-26 10:45:53.875000
627,-212.48,2022-10-26 10:45:53.890625
628,-191.5,2022-10-26 10:45:53.906250
629,-172.63,2022-10-26 10:45:53.921875
630,-157.92,2022-10-26 10:45:53.937500
631,-144.74,2022-10-26 10:45:53.953125
632,-127.78,2022-10-26 10:45:53.968750
633,-103.06,2022-10-26 10:45:53.984375
634,-72.18,2022-10-26 10:45:54.000000
635,-41.72,2022-10-26 10:45:54.015625
636,-20.5,2022-10-26 10:45:54.031250
637,-13.16,2022-10-26 10:45:54.046875
638,-16.65,2022-10-26 10:45:54.062500
639,-20.61,2022-10-26 10:45:54.078125
640,-12.35,2022-10-26 10:45:54.093750
641,15.39,2022-10-26 10:45:54.109375
642,59.82,2022-10-26 10:45:54.125000
643,109.5,2022-10-26 10:45:54.140625
644,150.78,2022-10-26 10:45:54.156250
645,175.26,2022-10-26 10:45:54.171875
646,183.06,2022-10-26 10:45:54.187500
647,181.23,2022-10-26 10:45:54.203125
648,177.02,2022-10-26 10:45:54.218750
649,172.37,2022-10-26 10:45:54.234375
650,162.65,2022-10-26 10:45:54.250000
651,139.56,2022-10-26 10:45:54.265625
652,96.94,2022-10-26 10:45:54.281250
653,34.81,2022-10-26 10:45:54.296875
654,-39.92,2022-10-26 10:45:54.312500
655,-115.9,2022-10-26 10:45:54.328125
656,-182.05,2022-10-26 10:45:54.343750
657,-230.94,2022-10-26 10:45:54.359375
658,-259.74,2022-10-26 10:45:54.375000
659,-269.61,2022-10-26 10:45:54.390625
660,-262.8,2022-10-26 10:45:54.406250
661,-241.87,2022-10-26 10:45:54.421875
662,-209.72,2022-10-26 10:45:54.437500
663,-170.0,2022-10-26 10:45:54.453125
664,-127.57,2022-10-26 10:45:54.468750
665,-87.57,2022-10-26 10:45:54.484375
666,-53.81,2022-10-26 10:45:54.500000
667,-27.15,2022-10-26 10:45:54.515625
668,-5.79,2022-10-26 10:45:54.531250
669,13.79,2022-10-26 10:45:54.546875
670,34.24,2022-10-26 10:45:54.562500
671,54.84,2022-10-26 10:45:54.578125
672,71.22,2022-10-26 10:45:54.593750
673,77.69,2022-10-26 10:45:54.609375
674,70.26,2022-10-26 10:45:54.625000
675,49.49,2022-10-26 10:45:54.640625
676,20.85,2022-10-26 10:45:54.656250
677,-8.09,2022-10-26 10:45:54.671875
678,-30.76,2022-10-26 10:45:54.687500
679,-43.63,2022-10-26 10:45:54.703125
680,-45.31,2022-10-26 10:45:54.718750
681,-34.82,2022-10-26 10:45:54.734375
682,-11.0,2022-10-26 10:45:54.750000
683,26.41,2022-10-26 10:45:54.765625
684,74.45,2022-10-26 10:45:54.781250
685,125.71,2022-10-26 10:45:54.796875
686,169.83,2022-10-26 10:45:54.812500
687,197.93,2022-10-26 10:45:54.828125
688,207.73,2022-10-26 10:45:54.843750
689,204.67,2022-10-26 10:45:54.859375
690,199.82,2022-10-26 10:45:54.875000
691,203.46,2022-10-26 10:45:54.890625
692,219.35,2022-10-26 10:45:54.906250
693,242.83,2022-10-26 10:45:54.921875
694,263.05,2022-10-26 10:45:54.937500
695,269.64,2022-10-26 10:45:54.953125
696,258.47,2022-10-26 10:45:54.968750
697,233.24,2022-10-26 10:45:54.984375
698,204.13,2022-10-26 10:45:55.000000
699,182.63,2022-10-26 10:45:55.015625
700,176.05,2022-10-26 10:45:55.031250
701,184.65,2022-10-26 10:45:55.046875
702,202.38,2022-10-26 10:45:55.062500
703,220.67,2022-10-26 10:45:55.078125
704,232.22,2022-10-26 10:45:55.093750
705,234.04,2022-10-26 10:45:55.109375
706,227.8,2022-10-26 10:45:55.125000
707,216.34,2022-10-26 10:45:55.140625
708,201.22,2022-10-26 10:45:55.156250
709,180.04,2022-10-26 10:45:55.171875
710,147.53,2022-10-26 10:45:55.187500
711,98.27,2022-10-26 10:45:55.203125
712,29.72,2022-10-26 10:45:55.218750
713,-54.81,2022-10-26 10:45:55.234375
714,-146.11,2022-10-26 10:45:55.250000
715,-231.33,2022-10-26 10:45:55.265625
716,-296.79,2022-10-26 10:45:55.281250
717,-331.71,2022-10-26 10:45:55.296875
718,-330.81,2022-10-26 10:45:55.312500
719,-296.01,2022-10-26 10:45:55.328125
720,-235.31,2022-10-26 10:45:55.343750
721,-159.74,2022-10-26 10:45:55.359375
722,-79.33,2022-10-26 10:45:55.375000
723,0.6,2022-10-26 10:45:55.390625
724,79.46,2022-10-26 10:45:55.406250
725,158.79,2022-10-26 10:45:55.421875
726,236.93,2022-10-26 10:45:55.437500
727,306.21,2022-10-26 10:45:55.453125
728,355.1,2022-10-26 10:45:55.468750
729,373.29,2022-10-26 10:45:55.484375
730,358.9,2022-10-26 10:45:55.500000
731,321.37,2022-10-26 10:45:55.515625
732,277.05,2022-10-26 10:45:55.531250
733,240.93,2022-10-26 10:45:55.546875
734,218.13,2022-10-26 10:45:55.562500
735,201.29,2022-10-26 10:45:55.578125
736,174.91,2022-10-26 10:45:55.593750
737,124.33,2022-10-26 10:45:55.609375
738,44.54,2022-10-26 10:45:55.625000
739,-57.26,2022-10-26 10:45:55.640625
740,-164.69,2022-10-26 10:45:55.656250
741,-260.08,2022-10-26 10:45:55.671875
742,-332.14,2022-10-26 10:45:55.687500
743,-379.18,2022-10-26 10:45:55.703125
744,-407.8,2022-10-26 10:45:55.718750
745,-428.4,2022-10-26 10:45:55.734375
746,-449.17,2022-10-26 10:45:55.750000
747,-473.3,2022-10-26 10:45:55.765625
748,-498.39,2022-10-26 10:45:55.781250
749,-518.98,2022-10-26 10:45:55.796875
750,-529.44,2022-10-26 10:45:55.812500
751,-527.73,2022-10-26 10:45:55.828125
752,-515.72,2022-10-26 10:45:55.843750
753,-497.13,2022-10-26 10:45:55.859375
754,-474.31,2022-10-26 10:45:55.875000
755,-445.36,2022-10-26 10:45:55.890625
756,-404.49,2022-10-26 10:45:55.906250
757,-345.44,2022-10-26 10:45:55.921875
758,-266.19,2022-10-26 10:45:55.937500
759,-170.76,2022-10-26 10:45:55.953125
760,-67.97,2022-10-26 10:45:55.968750
761,32.77,2022-10-26 10:45:55.984375
762,124.81,2022-10-26 10:45:56.000000
763,206.38,2022-10-26 10:45:56.015625
764,278.27,2022-10-26 10:45:56.031250
765,340.63,2022-10-26 10:45:56.046875
766,390.71,2022-10-26 10:45:56.062500
767,424.49,2022-10-26 10:45:56.078125
768,440.22,2022-10-26 10:45:56.093750
769,441.55,2022-10-26 10:45:56.109375
770,436.9,2022-10-26 10:45:56.125000
771,435.48,2022-10-26 10:45:56.140625
772,441.01,2022-10-26 10:45:56.156250
773,449.34,2022-10-26 10:45:56.171875
774,450.96,2022-10-26 10:45:56.187500
775,437.06,2022-10-26 10:45:56.203125
776,404.8,2022-10-26 10:45:56.218750
777,358.04,2022-10-26 10:45:56.234375
778,304.43,2022-10-26 10:45:56.250000
779,250.25,2022-10-26 10:45:56.265625
780,196.55,2022-10-26 10:45:56.281250
781,139.94,2022-10-26 10:45:56.296875
782,77.54,2022-10-26 10:45:56.312500
783,10.95,2022-10-26 10:45:56.328125
784,-52.44,2022-10-26 10:45:56.343750
785,-102.61,2022-10-26 10:45:56.359375
786,-132.43,2022-10-26 10:45:56.375000
787,-141.72,2022-10-26 10:45:56.390625
788,-136.56,2022-10-26 10:45:56.406250
789,-125.0,2022-10-26 10:45:56.421875
790,-113.0,2022-10-26 10:45:56.437500
791,-102.4,2022-10-26 10:45:56.453125
792,-93.01,2022-10-26 10:45:56.468750
793,-85.39,2022-10-26 10:45:56.484375
794,-82.84,2022-10-26 10:45:56.500000
795,-89.36,2022-10-26 10:45:56.515625
796,-105.88,2022-10-26 10:45:56.531250
797,-127.85,2022-10-26 10:45:56.546875
798,-146.15,2022-10-26 10:45:56.562500
799,-151.77,2022-10-26 10:45:56.578125
800,-141.06,2022-10-26 10:45:56.593750
801,-118.5,2022-10-26 10:45:56.609375
802,-93.3,2022-10-26 10:45:56.625000
803,-73.55,2022-10-26 10:45:56.640625
804,-60.96,2022-10-26 10:45:56.656250
805,-50.38,2022-10-26 10:45:56.671875
806,-34.4,2022-10-26 10:45:56.687500
807,-7.96,2022-10-26 10:45:56.703125
808,28.1,2022-10-26 10:45:56.718750
809,67.47,2022-10-26 10:45:56.734375
810,102.54,2022-10-26 10:45:56.750000
811,128.32,2022-10-26 10:45:56.765625
812,143.92,2022-10-26 10:45:56.781250
813,150.92,2022-10-26 10:45:56.796875
814,150.98,2022-10-26 10:45:56.812500
815,144.06,2022-10-26 10:45:56.828125
816,128.89,2022-10-26 10:45:56.843750
817,104.3,2022-10-26 10:45:56.859375
818,70.22,2022-10-26 10:45:56.875000
819,27.35,2022-10-26 10:45:56.890625
820,-23.63,2022-10-26 10:45:56.906250
821,-82.44,2022-10-26 10:45:56.921875
822,-146.84,2022-10-26 10:45:56.937500
823,-211.84,2022-10-26 10:45:56.953125
824,-269.71,2022-10-26 10:45:56.968750
825,-311.49,2022-10-26 10:45:56.984375
826,-331.09,2022-10-26 10:45:57.000000
827,-327.82,2022-10-26 10:45:57.015625
828,-306.46,2022-10-26 10:45:57.031250
829,-275.15,2022-10-26 10:45:57.046875
830,-241.41,2022-10-26 10:45:57.062500
831,-209.95,2022-10-26 10:45:57.078125
832,-181.69,2022-10-26 10:45:57.093750
833,-155.71,2022-10-26 10:45:57.109375
834,-130.55,2022-10-26 10:45:57.125000
835,-105.92,2022-10-26 10:45:57.140625
836,-81.64,2022-10-26 10:45:57.156250
837,-56.93,2022-10-26 10:45:57.171875
838,-31.22,2022-10-26 10:45:57.187500
839,-5.32,2022-10-26 10:45:57.203125
840,17.06,2022-10-26 10:45:57.218750
841,29.63,2022-10-26 10:45:57.234375
842,26.87,2022-10-26 10:45:57.250000
843,7.63,2022-10-26 10:45:57.265625
844,-22.24,2022-10-26 10:45:57.281250
845,-52.73,2022-10-26 10:45:57.296875
846,-74.71,2022-10-26 10:45:57.312500
847,-85.58,2022-10-26 10:45:57.328125
848,-90.85,2022-10-26 10:45:57.343750
849,-100.14,2022-10-26 10:45:57.359375
850,-120.24,2022-10-26 10:45:57.375000
851,-150.15,2022-10-26 10:45:57.390625
852,-180.73,2022-10-26 10:45:57.406250
853,-201.06,2022-10-26 10:45:57.421875
854,-204.37,2022-10-26 10:45:57.437500
855,-192.41,2022-10-26 10:45:57.453125
856,-173.77,2022-10-26 10:45:57.468750
857,-157.32,2022-10-26 10:45:57.484375
858,-146.35,2022-10-26 10:45:57.500000
859,-136.45,2022-10-26 10:45:57.515625
860,-118.64,2022-10-26 10:45:57.531250
861,-85.23,2022-10-26 10:45:57.546875
862,-35.41,2022-10-26 10:45:57.562500
863,23.31,2022-10-26 10:45:57.578125
864,77.85,2022-10-26 10:45:57.593750
865,115.77,2022-10-26 10:45:57.609375
866,131.35,2022-10-26 10:45:57.625000
867,128.25,2022-10-26 10:45:57.640625
868,117.2,2022-10-26 10:45:57.656250
869,110.58,2022-10-26 10:45:57.671875
870,115.75,2022-10-26 10:45:57.687500
871,131.34,2022-10-26 10:45:57.703125
872,148.89,2022-10-26 10:45:57.718750
873,157.75,2022-10-26 10:45:57.734375
874,151.8,2022-10-26 10:45:57.750000
875,132.56,2022-10-26 10:45:57.765625
876,108.32,2022-10-26 10:45:57.781250
877,88.57,2022-10-26 10:45:57.796875
878,79.4,2022-10-26 10:45:57.812500
879,81.04,2022-10-26 10:45:57.828125
880,89.68,2022-10-26 10:45:57.843750
881,100.99,2022-10-26 10:45:57.859375
882,113.21,2022-10-26 10:45:57.875000
883,128.4,2022-10-26 10:45:57.890625
884,150.77,2022-10-26 10:45:57.906250
885,185.19,2022-10-26 10:45:57.921875
886,235.86,2022-10-26 10:45:57.937500
887,304.8,2022-10-26 10:45:57.953125
888,391.19,2022-10-26 10:45:57.968750
889,490.0,2022-10-26 10:45:57.984375
890,591.97,2022-10-26 10:45:58.000000
891,684.39,2022-10-26 10:45:58.015625
892,753.77,2022-10-26 10:45:58.031250
893,789.97,2022-10-26 10:45:58.046875
894,788.8,2022-10-26 10:45:58.062500
895,752.93,2022-10-26 10:45:58.078125
896,691.13,2022-10-26 10:45:58.093750
897,614.68,2022-10-26 10:45:58.109375
898,533.27,2022-10-26 10:45:58.125000
899,453.69,2022-10-26 10:45:58.140625
900,378.86,2022-10-26 10:45:58.156250
901,309.27,2022-10-26 10:45:58.171875
902,244.41,2022-10-26 10:45:58.187500
903,184.31,2022-10-26 10:45:58.203125
904,130.75,2022-10-26 10:45:58.218750
905,86.63,2022-10-26 10:45:58.234375
906,54.5,2022-10-26 10:45:58.250000
907,35.26,2022-10-26 10:45:58.265625
908,26.7,2022-10-26 10:45:58.281250
909,22.64,2022-10-26 10:45:58.296875
910,15.15,2022-10-26 10:45:58.312500
911,-2.64,2022-10-26 10:45:58.328125
912,-33.4,2022-10-26 10:45:58.343750
913,-73.94,2022-10-26 10:45:58.359375
914,-117.95,2022-10-26 10:45:58.375000
915,-159.48,2022-10-26 10:45:58.390625
916,-198.06,2022-10-26 10:45:58.406250
917,-239.25,2022-10-26 10:45:58.421875
918,-292.09,2022-10-26 10:45:58.437500
919,-363.76,2022-10-26 10:45:58.453125
920,-454.43,2022-10-26 10:45:58.468750
921,-556.32,2022-10-26 10:45:58.484375
922,-655.69,2022-10-26 10:45:58.500000
923,-738.7,2022-10-26 10:45:58.515625
924,-796.37,2022-10-26 10:45:58.531250
925,-826.28,2022-10-26 10:45:58.546875
926,-831.32,2022-10-26 10:45:58.562500
927,-817.18,2022-10-26 10:45:58.578125
928,-789.28,2022-10-26 10:45:58.593750
929,-751.31,2022-10-26 10:45:58.609375
930,-706.0,2022-10-26 10:45:58.625000
931,-655.29,2022-10-26 10:45:58.640625
932,-601.16,2022-10-26 10:45:58.656250
933,-544.64,2022-10-26 10:45:58.671875
934,-485.35,2022-10-26 10:45:58.687500
935,-421.63,2022-10-26 10:45:58.703125
936,-351.57,2022-10-26 10:45:58.718750
937,-274.42,2022-10-26 10:45:58.734375
938,-192.28,2022-10-26 10:45:58.750000
939,-110.39,2022-10-26 10:45:58.765625
940,-35.41,2022-10-26 10:45:58.781250
941,26.21,2022-10-26 10:45:58.796875
942,70.93,2022-10-26 10:45:58.812500
943,98.8,2022-10-26 10:45:58.828125
944,112.52,2022-10-26 10:45:58.843750
945,116.26,2022-10-26 10:45:58.859375
946,114.87,2022-10-26 10:45:58.875000
947,114.84,2022-10-26 10:45:58.890625
948,123.85,2022-10-26 10:45:58.906250
949,149.7,2022-10-26 10:45:58.921875
950,196.09,2022-10-26 10:45:58.937500
951,259.33,2022-10-26 10:45:58.953125
952,327.82,2022-10-26 10:45:58.968750
953,386.09,2022-10-26 10:45:58.984375
954,421.98,2022-10-26 10:45:59.000000
955,432.47,2022-10-26 10:45:59.015625
956,424.73,2022-10-26 10:45:59.031250
957,410.87,2022-10-26 10:45:59.046875
958,400.43,2022-10-26 10:45:59.062500
959,394.67,2022-10-26 10:45:59.078125
960,387.22,2022-10-26 10:45:59.093750
961,369.26,2022-10-26 10:45:59.109375
962,336.66,2022-10-26 10:45:59.125000
963,293.17,2022-10-26 10:45:59.140625
964,247.95,2022-10-26 10:45:59.156250
965,209.61,2022-10-26 10:45:59.171875
966,181.48,2022-10-26 10:45:59.187500
967,159.87,2022-10-26 10:45:59.203125
968,136.42,2022-10-26 10:45:59.218750
969,103.25,2022-10-26 10:45:59.234375
970,56.61,2022-10-26 10:45:59.250000
971,-1.57,2022-10-26 10:45:59.265625
972,-64.17,2022-10-26 10:45:59.281250
973,-122.17,2022-10-26 10:45:59.296875
974,-168.21,2022-10-26 10:45:59.312500
975,-200.21,2022-10-26 10:45:59.328125
976,-221.96,2022-10-26 10:45:59.343750
977,-241.77,2022-10-26 10:45:59.359375
978,-268.6,2022-10-26 10:45:59.375000
979,-308.02,2022-10-26 10:45:59.390625
980,-359.55,2022-10-26 10:45:59.406250
981,-416.48,2022-10-26 10:45:59.421875
982,-469.13,2022-10-26 10:45:59.437500
983,-508.41,2022-10-26 10:45:59.453125
984,-528.66,2022-10-26 10:45:59.468750
985,-527.52,2022-10-26 10:45:59.484375
986,-504.54,2022-10-26 10:45:59.500000
987,-459.22,2022-10-26 10:45:59.515625
988,-391.73,2022-10-26 10:45:59.531250
989,-305.35,2022-10-26 10:45:59.546875
990,-208.17,2022-10-26 10:45:59.562500
991,-112.92,2022-10-26 10:45:59.578125
992,-33.08,2022-10-26 10:45:59.593750
993,21.86,2022-10-26 10:45:59.609375
994,50.18,2022-10-26 10:45:59.625000
995,57.62,2022-10-26 10:45:59.640625
996,53.29,2022-10-26 10:45:59.656250
997,43.85,2022-10-26 10:45:59.671875
998,30.7,2022-10-26 10:45:59.687500
999,11.71,2022-10-26 10:45:59.703125
1000,-15.28,2022-10-26 10:45:59.718750
1001,-47.38,2022-10-26 10:45:59.734375
1002,-76.7,2022-10-26 10:45:59.750000
1003,-93.66,2022-10-26 10:45:59.765625
1004,-91.55,2022-10-26 10:45:59.781250
1005,-69.63,2022-10-26 10:45:59.796875
1006,-32.0,2022-10-26 10:45:59.812500
1007,15.51,2022-10-26 10:45:59.828125
1008,69.24,2022-10-26 10:45:59.843750
1009,128.85,2022-10-26 10:45:59.859375
1010,195.87,2022-10-26 10:45:59.875000
1011,270.47,2022-10-26 10:45:59.890625
1012,348.63,2022-10-26 10:45:59.906250
1013,422.53,2022-10-26 10:45:59.921875
1014,483.09,2022-10-26 10:45:59.937500
1015,523.72,2022-10-26 10:45:59.953125
1016,543.14,2022-10-26 10:45:59.968750
1017,545.7,2022-10-26 10:45:59.984375
1018,538.39,2022-10-26 10:46:00.000000
1019,526.83,2022-10-26 10:46:00.015625
1020,511.47,2022-10-26 10:46:00.031250
1021,487.27,2022-10-26 10:46:00.046875
1022,446.77,2022-10-26 10:46:00.062500
1023,384.91,2022-10-26 10:46:00.078125
1024,303.28,2022-10-26 10:46:00.093750
1025,210.14,2022-10-26 10:46:00.109375
1026,116.63,2022-10-26 10:46:00.125000
1027,31.98,2022-10-26 10:46:00.140625
1028,-39.6,2022-10-26 10:46:00.156250
1029,-97.94,2022-10-26 10:46:00.171875
1030,-144.02,2022-10-26 10:46:00.187500
1031,-177.5,2022-10-26 10:46:00.203125
1032,-196.82,2022-10-26 10:46:00.218750
1033,-201.46,2022-10-26 10:46:00.234375
1034,-194.39,2022-10-26 10:46:00.250000
1035,-182.83,2022-10-26 10:46:00.265625
1036,-175.33,2022-10-26 10:46:00.281250
1037,-178.01,2022-10-26 10:46:00.296875
1038,-192.24,2022-10-26 10:46:00.312500
1039,-215.01,2022-10-26 10:46:00.328125
1040,-241.85,2022-10-26 10:46:00.343750
1041,-270.09,2022-10-26 10:46:00.359375
1042,-299.73,2022-10-26 10:46:00.375000
1043,-331.64,2022-10-26 10:46:00.390625
1044,-365.44,2022-10-26 10:46:00.406250
1045,-397.2,2022-10-26 10:46:00.421875
1046,-419.01,2022-10-26 10:46:00.437500
1047,-421.8,2022-10-26 10:46:00.453125
1048,-398.58,2022-10-26 10:46:00.468750
1049,-348.89,2022-10-26 10:46:00.484375
1050,-279.8,2022-10-26 10:46:00.500000
1051,-203.34,2022-10-26 10:46:00.515625
1052,-131.49,2022-10-26 10:46:00.531250
1053,-70.53,2022-10-26 10:46:00.546875
1054,-18.26,2022-10-26 10:46:00.562500
1055,33.22,2022-10-26 10:46:00.578125
1056,91.82,2022-10-26 10:46:00.593750
1057,158.54,2022-10-26 10:46:00.609375
1058,225.03,2022-10-26 10:46:00.625000
1059,277.41,2022-10-26 10:46:00.640625
1060,304.13,2022-10-26 10:46:00.656250
1061,303.49,2022-10-26 10:46:00.671875
1062,286.24,2022-10-26 10:46:00.687500
1063,269.56,2022-10-26 10:46:00.703125
1064,267.83,2022-10-26 10:46:00.718750
1065,284.69,2022-10-26 10:46:00.734375
1066,312.77,2022-10-26 10:46:00.750000
1067,338.8,2022-10-26 10:46:00.765625
1068,351.9,2022-10-26 10:46:00.781250
1069,348.63,2022-10-26 10:46:00.796875
1070,332.35,2022-10-26 10:46:00.812500
1071,308.7,2022-10-26 10:46:00.828125
1072,280.98,2022-10-26 10:46:00.843750
1073,248.16,2022-10-26 10:46:00.859375
1074,207.14,2022-10-26 10:46:00.875000
1075,156.46,2022-10-26 10:46:00.890625
1076,99.15,2022-10-26 10:46:00.906250
1077,41.77,2022-10-26 10:46:00.921875
1078,-8.32,2022-10-26 10:46:00.937500
1079,-46.27,2022-10-26 10:46:00.953125
1080,-70.93,2022-10-26 10:46:00.968750
1081,-83.41,2022-10-26 10:46:00.984375
1082,-85.49,2022-10-26 10:46:01.000000
1083,-79.43,2022-10-26 10:46:01.015625
1084,-68.36,2022-10-26 10:46:01.031250
1085,-57.72,2022-10-26 10:46:01.046875
1086,-54.56,2022-10-26 10:46:01.062500
1087,-65.59,2022-10-26 10:46:01.078125
1088,-93.54,2022-10-26 10:46:01.093750
1089,-134.85,2022-10-26 10:46:01.109375
1090,-180.21,2022-10-26 10:46:01.125000
1091,-218.29,2022-10-26 10:46:01.140625
1092,-239.9,2022-10-26 10:46:01.156250
1093,-241.8,2022-10-26 10:46:01.171875
1094,-227.49,2022-10-26 10:46:01.187500
1095,-203.88,2022-10-26 10:46:01.203125
1096,-177.49,2022-10-26 10:46:01.218750
1097,-152.03,2022-10-26 10:46:01.234375
1098,-128.68,2022-10-26 10:46:01.250000
1099,-107.58,2022-10-26 10:46:01.265625
1100,-89.72,2022-10-26 10:46:01.281250
1101,-77.18,2022-10-26 10:46:01.296875
1102,-71.53,2022-10-26 10:46:01.312500
1103,-72.04,2022-10-26 10:46:01.328125
1104,-74.34,2022-10-26 10:46:01.343750
1105,-71.93,2022-10-26 10:46:01.359375
1106,-58.09,2022-10-26 10:46:01.375000
1107,-29.08,2022-10-26 10:46:01.390625
1108,14.35,2022-10-26 10:46:01.406250
1109,67.68,2022-10-26 10:46:01.421875
1110,123.74,2022-10-26 10:46:01.437500
1111,175.67,2022-10-26 10:46:01.453125
1112,217.29,2022-10-26 10:46:01.468750
1113,244.49,2022-10-26 10:46:01.484375
1114,255.37,2022-10-26 10:46:01.500000
1115,249.92,2022-10-26 10:46:01.515625
1116,230.88,2022-10-26 10:46:01.531250
1117,203.17,2022-10-26 10:46:01.546875
1118,172.28,2022-10-26 10:46:01.562500
1119,141.96,2022-10-26 10:46:01.578125
1120,112.19,2022-10-26 10:46:01.593750
1121,78.83,2022-10-26 10:46:01.609375
1122,36.54,2022-10-26 10:46:01.625000
1123,-18.91,2022-10-26 10:46:01.640625
1124,-86.6,2022-10-26 10:46:01.656250
1125,-160.32,2022-10-26 10:46:01.671875
1126,-230.31,2022-10-26 10:46:01.687500
1127,-286.27,2022-10-26 10:46:01.703125
1128,-321.19,2022-10-26 10:46:01.718750
1129,-332.57,2022-10-26 10:46:01.734375
1130,-322.73,2022-10-26 10:46:01.750000
1131,-298.06,2022-10-26 10:46:01.765625
1132,-266.05,2022-10-26 10:46:01.781250
1133,-232.76,2022-10-26 10:46:01.796875
1134,-201.12,2022-10-26 10:46:01.812500
1135,-169.41,2022-10-26 10:46:01.828125
1136,-131.56,2022-10-26 10:46:01.843750
1137,-81.04,2022-10-26 10:46:01.859375
1138,-14.36,2022-10-26 10:46:01.875000
1139,66.04,2022-10-26 10:46:01.890625
1140,152.04,2022-10-26 10:46:01.906250
1141,233.14,2022-10-26 10:46:01.921875
1142,301.19,2022-10-26 10:46:01.937500
1143,353.73,2022-10-26 10:46:01.953125
1144,393.14,2022-10-26 10:46:01.968750
1145,424.22,2022-10-26 10:46:01.984375
1146,450.7,2022-10-26 10:46:02.000000
1147,474.56,2022-10-26 10:46:02.015625
1148,496.09,2022-10-26 10:46:02.031250
1149,516.01,2022-10-26 10:46:02.046875
1150,536.6,2022-10-26 10:46:02.062500
1151,560.4,2022-10-26 10:46:02.078125
1152,587.34,2022-10-26 10:46:02.093750
1153,612.61,2022-10-26 10:46:02.109375
1154,626.96,2022-10-26 10:46:02.125000
1155,619.35,2022-10-26 10:46:02.140625
1156,582.69,2022-10-26 10:46:02.156250
1157,516.46,2022-10-26 10:46:02.171875
1158,427.56,2022-10-26 10:46:02.187500
1159,326.41,2022-10-26 10:46:02.203125
1160,222.43,2022-10-26 10:46:02.218750
1161,120.75,2022-10-26 10:46:02.234375
1162,22.41,2022-10-26 10:46:02.250000
1163,-73.3,2022-10-26 10:46:02.265625
1164,-165.71,2022-10-26 10:46:02.281250
1165,-251.04,2022-10-26 10:46:02.296875
1166,-324.36,2022-10-26 10:46:02.312500
1167,-383.38,2022-10-26 10:46:02.328125
1168,-430.06,2022-10-26 10:46:02.343750
1169,-470.16,2022-10-26 10:46:02.359375
1170,-509.34,2022-10-26 10:46:02.375000
1171,-547.8,2022-10-26 10:46:02.390625
1172,-578.07,2022-10-26 10:46:02.406250
1173,-587.33,2022-10-26 10:46:02.421875
1174,-563.33,2022-10-26 10:46:02.437500
1175,-501.33,2022-10-26 10:46:02.453125
1176,-407.16,2022-10-26 10:46:02.468750
1177,-295.54,2022-10-26 10:46:02.484375
1178,-185.49,2022-10-26 10:46:02.500000
1179,-92.81,2022-10-26 10:46:02.515625
1180,-26.26,2022-10-26 10:46:02.531250
1181,13.06,2022-10-26 10:46:02.546875
1182,29.2,2022-10-26 10:46:02.562500
1183,27.7,2022-10-26 10:46:02.578125
1184,12.35,2022-10-26 10:46:02.593750
1185,-15.12,2022-10-26 10:46:02.609375
1186,-54.19,2022-10-26 10:46:02.625000
1187,-103.88,2022-10-26 10:46:02.640625
1188,-161.79,2022-10-26 10:46:02.656250
1189,-224.14,2022-10-26 10:46:02.671875
1190,-286.23,2022-10-26 10:46:02.687500
1191,-342.99,2022-10-26 10:46:02.703125
1192,-390.14,2022-10-26 10:46:02.718750
1193,-424.46,2022-10-26 10:46:02.734375
1194,-444.45,2022-10-26 10:46:02.750000
1195,-451.36,2022-10-26 10:46:02.765625
1196,-448.36,2022-10-26 10:46:02.781250
1197,-438.92,2022-10-26 10:46:02.796875
1198,-425.52,2022-10-26 10:46:02.812500
1199,-408.69,2022-10-26 10:46:02.828125
1200,-386.84,2022-10-26 10:46:02.843750
1201,-357.34,2022-10-26 10:46:02.859375
1202,-318.33,2022-10-26 10:46:02.875000
1203,-269.52,2022-10-26 10:46:02.890625
1204,-213.08,2022-10-26 10:46:02.906250
1205,-153.41,2022-10-26 10:46:02.921875
1206,-96.66,2022-10-26 10:46:02.937500
1207,-49.68,2022-10-26 10:46:02.953125
1208,-18.48,2022-10-26 10:46:02.968750
1209,-5.95,2022-10-26 10:46:02.984375
1210,-10.65,2022-10-26 10:46:03.000000
1211,-26.02,2022-10-26 10:46:03.015625
1212,-42.35,2022-10-26 10:46:03.031250
1213,-50.09,2022-10-26 10:46:03.046875
1214,-42.71,2022-10-26 10:46:03.062500
1215,-18.34,2022-10-26 10:46:03.078125
1216,20.56,2022-10-26 10:46:03.093750
1217,69.35,2022-10-26 10:46:03.109375
1218,123.76,2022-10-26 10:46:03.125000
1219,181.25,2022-10-26 10:46:03.140625
1220,240.28,2022-10-26 10:46:03.156250
1221,298.89,2022-10-26 10:46:03.171875
1222,353.09,2022-10-26 10:46:03.187500
1223,396.63,2022-10-26 10:46:03.203125
1224,421.62,2022-10-26 10:46:03.218750
1225,421.71,2022-10-26 10:46:03.234375
1226,395.85,2022-10-26 10:46:03.250000
1227,349.12,2022-10-26 10:46:03.265625
1228,290.89,2022-10-26 10:46:03.281250
1229,230.59,2022-10-26 10:46:03.296875
1230,173.23,2022-10-26 10:46:03.312500
1231,117.72,2022-10-26 10:46:03.328125
1232,59.97,2022-10-26 10:46:03.343750
1233,-2.32,2022-10-26 10:46:03.359375
1234,-65.66,2022-10-26 10:46:03.375000
1235,-122.03,2022-10-26 10:46:03.390625
1236,-163.24,2022-10-26 10:46:03.406250
1237,-186.33,2022-10-26 10:46:03.421875
1238,-196.14,2022-10-26 10:46:03.437500
1239,-202.79,2022-10-26 10:46:03.453125
1240,-216.82,2022-10-26 10:46:03.468750
1241,-243.97,2022-10-26 10:46:03.484375
1242,-283.62,2022-10-26 10:46:03.500000
1243,-330.42,2022-10-26 10:46:03.515625
1244,-377.78,2022-10-26 10:46:03.531250
1245,-421.41,2022-10-26 10:46:03.546875
1246,-459.53,2022-10-26 10:46:03.562500
1247,-491.91,2022-10-26 10:46:03.578125
1248,-518.16,2022-10-26 10:46:03.593750
1249,-537.14,2022-10-26 10:46:03.609375
1250,-547.93,2022-10-26 10:46:03.625000
1251,-550.06,2022-10-26 10:46:03.640625
1252,-543.4,2022-10-26 10:46:03.656250
1253,-527.47,2022-10-26 10:46:03.671875
1254,-500.75,2022-10-26 10:46:03.687500
1255,-461.85,2022-10-26 10:46:03.703125
1256,-410.79,2022-10-26 10:46:03.718750
1257,-350.53,2022-10-26 10:46:03.734375
1258,-286.7,2022-10-26 10:46:03.750000
1259,-224.81,2022-10-26 10:46:03.765625
1260,-166.21,2022-10-26 10:46:03.781250
1261,-106.24,2022-10-26 10:46:03.796875
1262,-35.39,2022-10-26 10:46:03.812500
1263,55.43,2022-10-26 10:46:03.828125
1264,169.65,2022-10-26 10:46:03.843750
1265,301.18,2022-10-26 10:46:03.859375
1266,436.72,2022-10-26 10:46:03.875000
1267,560.95,2022-10-26 10:46:03.890625
1268,662.84,2022-10-26 10:46:03.906250
1269,738.78,2022-10-26 10:46:03.921875
1270,791.98,2022-10-26 10:46:03.937500
1271,828.51,2022-10-26 10:46:03.953125
1272,853.69,2022-10-26 10:46:03.968750
1273,870.39,2022-10-26 10:46:03.984375
1274,879.95,2022-10-26 10:46:04.000000
1275,884.02,2022-10-26 10:46:04.015625
1276,885.33,2022-10-26 10:46:04.031250
1277,886.41,2022-10-26 10:46:04.046875
1278,887.94,2022-10-26 10:46:04.062500
1279,886.62,2022-10-26 10:46:04.078125
1280,876.18,2022-10-26 10:46:04.093750
1281,850.25,2022-10-26 10:46:04.109375
1282,804.25,2022-10-26 10:46:04.125000
1283,737.67,2022-10-26 10:46:04.140625
1284,653.55,2022-10-26 10:46:04.156250
1285,556.12,2022-10-26 10:46:04.171875
1286,449.93,2022-10-26 10:46:04.187500
1287,339.14,2022-10-26 10:46:04.203125
1288,228.41,2022-10-26 10:46:04.218750
1289,124.54,2022-10-26 10:46:04.234375
1290,34.98,2022-10-26 10:46:04.250000
1291,-34.71,2022-10-26 10:46:04.265625
1292,-84.23,2022-10-26 10:46:04.281250
1293,-119.75,2022-10-26 10:46:04.296875
1294,-150.15,2022-10-26 10:46:04.312500
1295,-181.83,2022-10-26 10:46:04.328125
1296,-212.6,2022-10-26 10:46:04.343750
1297,-232.14,2022-10-26 10:46:04.359375
1298,-227.54,2022-10-26 10:46:04.375000
1299,-191.2,2022-10-26 10:46:04.390625
1300,-127.37,2022-10-26 10:46:04.406250
1301,-52.43,2022-10-26 10:46:04.421875
1302,12.48,2022-10-26 10:46:04.437500
1303,49.72,2022-10-26 10:46:04.453125
1304,52.6,2022-10-26 10:46:04.468750
1305,25.87,2022-10-26 10:46:04.484375
1306,-18.44,2022-10-26 10:46:04.500000
1307,-68.03,2022-10-26 10:46:04.515625
1308,-114.99,2022-10-26 10:46:04.531250
1309,-156.74,2022-10-26 10:46:04.546875
1310,-193.21,2022-10-26 10:46:04.562500
1311,-224.75,2022-10-26 10:46:04.578125
1312,-251.1,2022-10-26 10:46:04.593750
1313,-271.62,2022-10-26 10:46:04.609375
1314,-287.19,2022-10-26 10:46:04.625000
1315,-300.2,2022-10-26 10:46:04.640625
1316,-313.25,2022-10-26 10:46:04.656250
1317,-327.4,2022-10-26 10:46:04.671875
1318,-341.39,2022-10-26 10:46:04.687500
1319,-351.8,2022-10-26 10:46:04.703125
1320,-355.76,2022-10-26 10:46:04.718750
1321,-353.21,2022-10-26 10:46:04.734375
1322,-347.62,2022-10-26 10:46:04.750000
1323,-344.15,2022-10-26 10:46:04.765625
1324,-346.75,2022-10-26 10:46:04.781250
1325,-355.4,2022-10-26 10:46:04.796875
1326,-364.87,2022-10-26 10:46:04.812500
1327,-367.84,2022-10-26 10:46:04.828125
1328,-358.38,2022-10-26 10:46:04.843750
1329,-334.88,2022-10-26 10:46:04.859375
1330,-300.74,2022-10-26 10:46:04.875000
1331,-261.77,2022-10-26 10:46:04.890625
1332,-222.43,2022-10-26 10:46:04.906250
1333,-182.63,2022-10-26 10:46:04.921875
1334,-138.69,2022-10-26 10:46:04.937500
1335,-87.3,2022-10-26 10:46:04.953125
1336,-29.19,2022-10-26 10:46:04.968750
1337,29.54,2022-10-26 10:46:04.984375
1338,80.57,2022-10-26 10:46:05.000000
1339,118.93,2022-10-26 10:46:05.015625
1340,147.49,2022-10-26 10:46:05.031250
1341,175.46,2022-10-26 10:46:05.046875
1342,213.57,2022-10-26 10:46:05.062500
1343,267.41,2022-10-26 10:46:05.078125
1344,333.43,2022-10-26 10:46:05.093750
1345,401.48,2022-10-26 10:46:05.109375
1346,460.57,2022-10-26 10:46:05.125000
1347,505.89,2022-10-26 10:46:05.140625
1348,539.95,2022-10-26 10:46:05.156250
1349,569.27,2022-10-26 10:46:05.171875
1350,597.75,2022-10-26 10:46:05.187500
1351,622.59,2022-10-26 10:46:05.203125
1352,635.16,2022-10-26 10:46:05.218750
1353,625.67,2022-10-26 10:46:05.234375
1354,589.29,2022-10-26 10:46:05.250000
1355,528.26,2022-10-26 10:46:05.265625
1356,449.91,2022-10-26 10:46:05.281250
1357,362.63,2022-10-26 10:46:05.296875
1358,273.41,2022-10-26 10:46:05.312500
1359,187.53,2022-10-26 10:46:05.328125
1360,110.01,2022-10-26 10:46:05.343750
1361,46.41,2022-10-26 10:46:05.359375
1362,2.01,2022-10-26 10:46:05.375000
1363,-20.88,2022-10-26 10:46:05.390625
1364,-26.15,2022-10-26 10:46:05.406250
1365,-23.15,2022-10-26 10:46:05.421875
1366,-24.61,2022-10-26 10:46:05.437500
1367,-41.62,2022-10-26 10:46:05.453125
1368,-79.62,2022-10-26 10:46:05.468750
1369,-135.82,2022-10-26 10:46:05.484375
1370,-199.83,2022-10-26 10:46:05.500000
1371,-256.74,2022-10-26 10:46:05.515625
1372,-291.43,2022-10-26 10:46:05.531250
1373,-293.43,2022-10-26 10:46:05.546875
1374,-261.08,2022-10-26 10:46:05.562500
1375,-202.47,2022-10-26 10:46:05.578125
1376,-133.04,2022-10-26 10:46:05.593750
1377,-69.44,2022-10-26 10:46:05.609375
1378,-23.63,2022-10-26 10:46:05.625000
1379,1.78,2022-10-26 10:46:05.640625
1380,13.01,2022-10-26 10:46:05.656250
1381,20.02,2022-10-26 10:46:05.671875
1382,31.14,2022-10-26 10:46:05.687500
1383,48.63,2022-10-26 10:46:05.703125
1384,67.85,2022-10-26 10:46:05.718750
1385,79.65,2022-10-26 10:46:05.734375
1386,75.17,2022-10-26 10:46:05.750000
1387,49.46,2022-10-26 10:46:05.765625
1388,2.53,2022-10-26 10:46:05.781250
1389,-60.36,2022-10-26 10:46:05.796875
1390,-130.61,2022-10-26 10:46:05.812500
1391,-198.69,2022-10-26 10:46:05.828125
1392,-256.26,2022-10-26 10:46:05.843750
1393,-298.14,2022-10-26 10:46:05.859375
1394,-322.88,2022-10-26 10:46:05.875000
1395,-332.86,2022-10-26 10:46:05.890625
1396,-332.81,2022-10-26 10:46:05.906250
1397,-327.64,2022-10-26 10:46:05.921875
1398,-321.71,2022-10-26 10:46:05.937500
1399,-318.38,2022-10-26 10:46:05.953125
1400,-319.6,2022-10-26 10:46:05.968750
1401,-326.02,2022-10-26 10:46:05.984375
1402,-336.28,2022-10-26 10:46:06.000000
1403,-346.51,2022-10-26 10:46:06.015625
1404,-351.62,2022-10-26 10:46:06.031250
1405,-346.71,2022-10-26 10:46:06.046875
1406,-329.01,2022-10-26 10:46:06.062500
1407,-299.53,2022-10-26 10:46:06.078125
1408,-263.36,2022-10-26 10:46:06.093750
1409,-227.63,2022-10-26 10:46:06.109375
1410,-198.75,2022-10-26 10:46:06.125000
1411,-180.83,2022-10-26 10:46:06.140625
1412,-172.85,2022-10-26 10:46:06.156250
1413,-169.35,2022-10-26 10:46:06.171875
1414,-161.36,2022-10-26 10:46:06.187500
1415,-139.93,2022-10-26 10:46:06.203125
1416,-99.45,2022-10-26 10:46:06.218750
1417,-40.4,2022-10-26 10:46:06.234375
1418,30.74,2022-10-26 10:46:06.250000
1419,104.52,2022-10-26 10:46:06.265625
1420,171.92,2022-10-26 10:46:06.281250
1421,227.55,2022-10-26 10:46:06.296875
1422,269.24,2022-10-26 10:46:06.312500
1423,295.39,2022-10-26 10:46:06.328125
1424,303.02,2022-10-26 10:46:06.343750
1425,287.52,2022-10-26 10:46:06.359375
1426,246.3,2022-10-26 10:46:06.375000
1427,181.9,2022-10-26 10:46:06.390625
1428,103.44,2022-10-26 10:46:06.406250
1429,23.3,2022-10-26 10:46:06.421875
1430,-47.67,2022-10-26 10:46:06.437500
1431,-105.48,2022-10-26 10:46:06.453125
1432,-152.85,2022-10-26 10:46:06.468750
1433,-196.58,2022-10-26 10:46:06.484375
1434,-242.59,2022-10-26 10:46:06.500000
1435,-292.06,2022-10-26 10:46:06.515625
1436,-340.96,2022-10-26 10:46:06.531250
1437,-382.0,2022-10-26 10:46:06.546875
1438,-408.03,2022-10-26 10:46:06.562500
1439,-415.06,2022-10-26 10:46:06.578125
1440,-403.77,2022-10-26 10:46:06.593750
1441,-379.33,2022-10-26 10:46:06.609375
1442,-348.45,2022-10-26 10:46:06.625000
1443,-316.09,2022-10-26 10:46:06.640625
1444,-282.41,2022-10-26 10:46:06.656250
1445,-242.59,2022-10-26 10:46:06.671875
1446,-188.59,2022-10-26 10:46:06.687500
1447,-114.23,2022-10-26 10:46:06.703125
1448,-19.99,2022-10-26 10:46:06.718750
1449,85.11,2022-10-26 10:46:06.734375
1450,185.64,2022-10-26 10:46:06.750000
1451,265.53,2022-10-26 10:46:06.765625
1452,313.4,2022-10-26 10:46:06.781250
1453,325.8,2022-10-26 10:46:06.796875
1454,307.08,2022-10-26 10:46:06.812500
1455,265.84,2022-10-26 10:46:06.828125
1456,211.86,2022-10-26 10:46:06.843750
1457,153.97,2022-10-26 10:46:06.859375
1458,99.73,2022-10-26 10:46:06.875000
1459,55.68,2022-10-26 10:46:06.890625
1460,26.68,2022-10-26 10:46:06.906250
1461,14.81,2022-10-26 10:46:06.921875
1462,18.44,2022-10-26 10:46:06.937500
1463,32.2,2022-10-26 10:46:06.953125
1464,49.49,2022-10-26 10:46:06.968750
1465,65.33,2022-10-26 10:46:06.984375
1466,79.58,2022-10-26 10:46:07.000000
1467,96.94,2022-10-26 10:46:07.015625
1468,125.3,2022-10-26 10:46:07.031250
1469,171.25,2022-10-26 10:46:07.046875
1470,236.38,2022-10-26 10:46:07.062500
1471,316.1,2022-10-26 10:46:07.078125
1472,401.61,2022-10-26 10:46:07.093750
1473,483.82,2022-10-26 10:46:07.109375
1474,555.98,2022-10-26 10:46:07.125000
1475,615.15,2022-10-26 10:46:07.140625
1476,661.22,2022-10-26 10:46:07.156250
1477,693.92,2022-10-26 10:46:07.171875
1478,711.23,2022-10-26 10:46:07.187500
1479,709.73,2022-10-26 10:46:07.203125
1480,686.94,2022-10-26 10:46:07.218750
1481,645.07,2022-10-26 10:46:07.234375
1482,591.67,2022-10-26 10:46:07.250000
1483,538.81,2022-10-26 10:46:07.265625
1484,498.93,2022-10-26 10:46:07.281250
1485,479.53,2022-10-26 10:46:07.296875
1486,479.2,2022-10-26 10:46:07.312500
1487,488.07,2022-10-26 10:46:07.328125
1488,491.85,2022-10-26 10:46:07.343750
1489,477.71,2022-10-26 10:46:07.359375
1490,439.99,2022-10-26 10:46:07.375000
1491,382.13,2022-10-26 10:46:07.390625
1492,312.23,2022-10-26 10:46:07.406250
1493,238.57,2022-10-26 10:46:07.421875
1494,164.23,2022-10-26 10:46:07.437500
1495,86.45,2022-10-26 10:46:07.453125
1496,0.23,2022-10-26 10:46:07.468750
1497,-97.12,2022-10-26 10:46:07.484375
1498,-202.51,2022-10-26 10:46:07.500000
1499,-308.21,2022-10-26 10:46:07.515625
1500,-404.94,2022-10-26 10:46:07.531250
1501,-485.84,2022-10-26 10:46:07.546875
1502,-548.86,2022-10-26 10:46:07.562500
1503,-595.22,2022-10-26 10:46:07.578125
1504,-627.06,2022-10-26 10:46:07.593750
1505,-645.1,2022-10-26 10:46:07.609375
1506,-648.55,2022-10-26 10:46:07.625000
1507,-637.46,2022-10-26 10:46:07.640625
1508,-614.22,2022-10-26 10:46:07.656250
1509,-584.97,2022-10-26 10:46:07.671875
1510,-557.58,2022-10-26 10:46:07.687500
1511,-538.6,2022-10-26 10:46:07.703125
1512,-531.66,2022-10-26 10:46:07.718750
1513,-535.3,2022-10-26 10:46:07.734375
1514,-543.99,2022-10-26 10:46:07.750000
1515,-549.91,2022-10-26 10:46:07.765625
1516,-546.02,2022-10-26 10:46:07.781250
1517,-528.96,2022-10-26 10:46:07.796875
1518,-500.01,2022-10-26 10:46:07.812500
1519,-465.15,2022-10-26 10:46:07.828125
1520,-432.5,2022-10-26 10:46:07.843750
1521,-409.59,2022-10-26 10:46:07.859375
1522,-399.62,2022-10-26 10:46:07.875000
1523,-400.46,2022-10-26 10:46:07.890625
1524,-406.29,2022-10-26 10:46:07.906250
1525,-410.74,2022-10-26 10:46:07.921875
1526,-409.34,2022-10-26 10:46:07.937500
1527,-400.63,2022-10-26 10:46:07.953125
1528,-385.08,2022-10-26 10:46:07.968750
1529,-363.02,2022-10-26 10:46:07.984375
1530,-333.54,2022-10-26 10:46:08.000000
1531,-295.15,2022-10-26 10:46:08.015625
1532,-247.95,2022-10-26 10:46:08.031250
1533,-194.33,2022-10-26 10:46:08.046875
1534,-138.88,2022-10-26 10:46:08.062500
1535,-86.09,2022-10-26 10:46:08.078125
1536,-38.6,2022-10-26 10:46:08.093750
1537,4.07,2022-10-26 10:46:08.109375
1538,45.53,2022-10-26 10:46:08.125000
1539,90.09,2022-10-26 10:46:08.140625
1540,140.62,2022-10-26 10:46:08.156250
1541,196.43,2022-10-26 10:46:08.171875
1542,252.89,2022-10-26 10:46:08.187500
1543,303.91,2022-10-26 10:46:08.203125
1544,345.25,2022-10-26 10:46:08.218750
1545,377.64,2022-10-26 10:46:08.234375
1546,407.42,2022-10-26 10:46:08.250000
1547,444.11,2022-10-26 10:46:08.265625
1548,495.23,2022-10-26 10:46:08.281250
1549,560.9,2022-10-26 10:46:08.296875
1550,632.29,2022-10-26 10:46:08.312500
1551,694.45,2022-10-26 10:46:08.328125
1552,732.54,2022-10-26 10:46:08.343750
1553,737.1,2022-10-26 10:46:08.359375
1554,707.5,2022-10-26 10:46:08.375000
1555,650.73,2022-10-26 10:46:08.390625
1556,578.15,2022-10-26 10:46:08.406250
1557,500.77,2022-10-26 10:46:08.421875
1558,427.96,2022-10-26 10:46:08.437500
1559,365.85,2022-10-26 10:46:08.453125
1560,316.99,2022-10-26 10:46:08.468750
1561,279.72,2022-10-26 10:46:08.484375
1562,248.72,2022-10-26 10:46:08.500000
1563,217.12,2022-10-26 10:46:08.515625
1564,179.62,2022-10-26 10:46:08.531250
1565,136.04,2022-10-26 10:46:08.546875
1566,91.15,2022-10-26 10:46:08.562500
1567,53.05,2022-10-26 10:46:08.578125
1568,29.02,2022-10-26 10:46:08.593750
1569,21.35,2022-10-26 10:46:08.609375
1570,25.99,2022-10-26 10:46:08.625000
1571,34.45,2022-10-26 10:46:08.640625
1572,37.82,2022-10-26 10:46:08.656250
1573,30.37,2022-10-26 10:46:08.671875
1574,11.19,2022-10-26 10:46:08.687500
1575,-17.3,2022-10-26 10:46:08.703125
1576,-51.69,2022-10-26 10:46:08.718750
1577,-90.0,2022-10-26 10:46:08.734375
1578,-131.28,2022-10-26 10:46:08.750000
1579,-173.68,2022-10-26 10:46:08.765625
1580,-213.05,2022-10-26 10:46:08.781250
1581,-243.64,2022-10-26 10:46:08.796875
1582,-260.13,2022-10-26 10:46:08.812500
1583,-261.22,2022-10-26 10:46:08.828125
1584,-251.41,2022-10-26 10:46:08.843750
1585,-238.97,2022-10-26 10:46:08.859375
1586,-232.5,2022-10-26 10:46:08.875000
1587,-236.51,2022-10-26 10:46:08.890625
1588,-249.1,2022-10-26 10:46:08.906250
1589,-263.94,2022-10-26 10:46:08.921875
1590,-274.12,2022-10-26 10:46:08.937500
1591,-277.7,2022-10-26 10:46:08.953125
1592,-278.36,2022-10-26 10:46:08.968750
1593,-283.4,2022-10-26 10:46:08.984375
1594,-298.22,2022-10-26 10:46:09.000000
1595,-321.79,2022-10-26 10:46:09.015625
1596,-346.4,2022-10-26 10:46:09.031250
1597,-361.03,2022-10-26 10:46:09.046875
1598,-357.77,2022-10-26 10:46:09.062500
1599,-335.01,2022-10-26 10:46:09.078125
1600,-297.63,2022-10-26 10:46:09.093750
1601,-253.58,2022-10-26 10:46:09.109375
1602,-210.38,2022-10-26 10:46:09.125000
1603,-172.67,2022-10-26 10:46:09.140625
1604,-142.43,2022-10-26 10:46:09.156250
1605,-120.42,2022-10-26 10:46:09.171875
1606,-105.86,2022-10-26 10:46:09.187500
1607,-95.01,2022-10-26 10:46:09.203125
1608,-80.2,2022-10-26 10:46:09.218750
1609,-51.43,2022-10-26 10:46:09.234375
1610,-0.22,2022-10-26 10:46:09.250000
1611,75.53,2022-10-26 10:46:09.265625
1612,169.98,2022-10-26 10:46:09.281250
1613,271.65,2022-10-26 10:46:09.296875
1614,368.93,2022-10-26 10:46:09.312500
1615,455.14,2022-10-26 10:46:09.328125
1616,527.89,2022-10-26 10:46:09.343750
1617,585.65,2022-10-26 10:46:09.359375
1618,623.6,2022-10-26 10:46:09.375000
1619,633.38,2022-10-26 10:46:09.390625
1620,607.25,2022-10-26 10:46:09.406250
1621,544.0,2022-10-26 10:46:09.421875
1622,452.51,2022-10-26 10:46:09.437500
1623,348.89,2022-10-26 10:46:09.453125
1624,250.15,2022-10-26 10:46:09.468750
1625,166.12,2022-10-26 10:46:09.484375
1626,96.69,2022-10-26 10:46:09.500000
1627,34.93,2022-10-26 10:46:09.515625
1628,-25.67,2022-10-26 10:46:09.531250
1629,-84.7,2022-10-26 10:46:09.546875
1630,-135.07,2022-10-26 10:46:09.562500
1631,-168.21,2022-10-26 10:46:09.578125
1632,-181.87,2022-10-26 10:46:09.593750
1633,-184.09,2022-10-26 10:46:09.609375
1634,-191.82,2022-10-26 10:46:09.625000
1635,-222.73,2022-10-26 10:46:09.640625
1636,-286.92,2022-10-26 10:46:09.656250
1637,-382.63,2022-10-26 10:46:09.671875
1638,-497.14,2022-10-26 10:46:09.687500
1639,-612.41,2022-10-26 10:46:09.703125
1640,-711.16,2022-10-26 10:46:09.718750
1641,-781.0,2022-10-26 10:46:09.734375
1642,-815.56,2022-10-26 10:46:09.750000
1643,-812.91,2022-10-26 10:46:09.765625
1644,-774.1,2022-10-26 10:46:09.781250
1645,-703.28,2022-10-26 10:46:09.796875
1646,-608.28,2022-10-26 10:46:09.812500
1647,-500.22,2022-10-26 10:46:09.828125
1648,-391.75,2022-10-26 10:46:09.843750
1649,-294.09,2022-10-26 10:46:09.859375
1650,-213.32,2022-10-26 10:46:09.875000
1651,-148.85,2022-10-26 10:46:09.890625
1652,-94.88,2022-10-26 10:46:09.906250
1653,-44.31,2022-10-26 10:46:09.921875
1654,7.34,2022-10-26 10:46:09.937500
1655,59.48,2022-10-26 10:46:09.953125
1656,108.68,2022-10-26 10:46:09.968750
1657,151.77,2022-10-26 10:46:09.984375
1658,189.87,2022-10-26 10:46:10.000000
1659,228.23,2022-10-26 10:46:10.015625
1660,273.99,2022-10-26 10:46:10.031250
1661,331.83,2022-10-26 10:46:10.046875
1662,401.71,2022-10-26 10:46:10.062500
1663,479.54,2022-10-26 10:46:10.078125
1664,558.77,2022-10-26 10:46:10.093750
1665,633.51,2022-10-26 10:46:10.109375
1666,699.23,2022-10-26 10:46:10.125000
1667,752.26,2022-10-26 10:46:10.140625
1668,789.19,2022-10-26 10:46:10.156250
1669,805.91,2022-10-26 10:46:10.171875
1670,799.27,2022-10-26 10:46:10.187500
1671,767.61,2022-10-26 10:46:10.203125
1672,712.17,2022-10-26 10:46:10.218750
1673,636.88,2022-10-26 10:46:10.234375
1674,546.87,2022-10-26 10:46:10.250000
1675,446.87,2022-10-26 10:46:10.265625
1676,340.52,2022-10-26 10:46:10.281250
1677,230.42,2022-10-26 10:46:10.296875
1678,119.34,2022-10-26 10:46:10.312500
1679,11.59,2022-10-26 10:46:10.328125
1680,-86.34,2022-10-26 10:46:10.343750
1681,-166.06,2022-10-26 10:46:10.359375
1682,-219.41,2022-10-26 10:46:10.375000
1683,-240.9,2022-10-26 10:46:10.390625
1684,-230.47,2022-10-26 10:46:10.406250
1685,-194.18,2022-10-26 10:46:10.421875
1686,-142.75,2022-10-26 10:46:10.437500
1687,-88.56,2022-10-26 10:46:10.453125
1688,-41.88,2022-10-26 10:46:10.468750
1689,-9.33,2022-10-26 10:46:10.484375
1690,7.58,2022-10-26 10:46:10.500000
1691,9.83,2022-10-26 10:46:10.515625
1692,0.3,2022-10-26 10:46:10.531250
1693,-18.76,2022-10-26 10:46:10.546875
1694,-45.67,2022-10-26 10:46:10.562500
1695,-79.41,2022-10-26 10:46:10.578125
1696,-119.37,2022-10-26 10:46:10.593750
1697,-164.38,2022-10-26 10:46:10.609375
1698,-213.14,2022-10-26 10:46:10.625000
1699,-264.34,2022-10-26 10:46:10.640625
1700,-316.0,2022-10-26 10:46:10.656250
1701,-365.75,2022-10-26 10:46:10.671875
1702,-410.27,2022-10-26 10:46:10.687500
1703,-445.94,2022-10-26 10:46:10.703125
1704,-469.31,2022-10-26 10:46:10.718750
1705,-478.41,2022-10-26 10:46:10.734375
1706,-472.72,2022-10-26 10:46:10.750000
1707,-452.48,2022-10-26 10:46:10.765625
1708,-417.14,2022-10-26 10:46:10.781250
1709,-365.43,2022-10-26 10:46:10.796875
1710,-296.66,2022-10-26 10:46:10.812500
1711,-212.77,2022-10-26 10:46:10.828125
1712,-119.94,2022-10-26 10:46:10.843750
1713,-26.96,2022-10-26 10:46:10.859375
1714,57.94,2022-10-26 10:46:10.875000
1715,130.92,2022-10-26 10:46:10.890625
1716,192.67,2022-10-26 10:46:10.906250
1717,245.63,2022-10-26 10:46:10.921875
1718,289.15,2022-10-26 10:46:10.937500
1719,317.72,2022-10-26 10:46:10.953125
1720,323.35,2022-10-26 10:46:10.968750
1721,300.2,2022-10-26 10:46:10.984375
1722,250.15,2022-10-26 10:46:11.000000
1723,181.93,2022-10-26 10:46:11.015625
1724,107.79,2022-10-26 10:46:11.031250
1725,36.77,2022-10-26 10:46:11.046875
1726,-27.68,2022-10-26 10:46:11.062500
1727,-86.04,2022-10-26 10:46:11.078125
1728,-139.35,2022-10-26 10:46:11.093750
1729,-185.93,2022-10-26 10:46:11.109375
1730,-222.79,2022-10-26 10:46:11.125000
1731,-249.76,2022-10-26 10:46:11.140625
1732,-271.13,2022-10-26 10:46:11.156250
1733,-293.82,2022-10-26 10:46:11.171875
1734,-321.47,2022-10-26 10:46:11.187500
1735,-349.88,2022-10-26 10:46:11.203125
1736,-366.97,2022-10-26 10:46:11.218750
1737,-359.29,2022-10-26 10:46:11.234375
1738,-319.57,2022-10-26 10:46:11.250000
1739,-252.3,2022-10-26 10:46:11.265625
1740,-171.19,2022-10-26 10:46:11.281250
1741,-92.33,2022-10-26 10:46:11.296875
1742,-26.01,2022-10-26 10:46:11.312500
1743,26.72,2022-10-26 10:46:11.328125
1744,71.2,2022-10-26 10:46:11.343750
1745,113.22,2022-10-26 10:46:11.359375
1746,154.39,2022-10-26 10:46:11.375000
1747,191.61,2022-10-26 10:46:11.390625
1748,220.37,2022-10-26 10:46:11.406250
1749,239.18,2022-10-26 10:46:11.421875
1750,252.2,2022-10-26 10:46:11.437500
1751,267.11,2022-10-26 10:46:11.453125
1752,291.19,2022-10-26 10:46:11.468750
1753,326.37,2022-10-26 10:46:11.484375
1754,367.86,2022-10-26 10:46:11.500000
1755,405.76,2022-10-26 10:46:11.515625
1756,429.51,2022-10-26 10:46:11.531250
1757,431.91,2022-10-26 10:46:11.546875
1758,411.26,2022-10-26 10:46:11.562500
1759,371.52,2022-10-26 10:46:11.578125
1760,319.99,2022-10-26 10:46:11.593750
1761,264.9,2022-10-26 10:46:11.609375
1762,212.79,2022-10-26 10:46:11.625000
1763,166.48,2022-10-26 10:46:11.640625
1764,124.44,2022-10-26 10:46:11.656250
1765,82.26,2022-10-26 10:46:11.671875
1766,35.62,2022-10-26 10:46:11.687500
1767,-16.59,2022-10-26 10:46:11.703125
1768,-70.38,2022-10-26 10:46:11.718750
1769,-119.14,2022-10-26 10:46:11.734375
1770,-157.04,2022-10-26 10:46:11.750000
1771,-182.7,2022-10-26 10:46:11.765625
1772,-200.51,2022-10-26 10:46:11.781250
1773,-217.82,2022-10-26 10:46:11.796875
1774,-240.26,2022-10-26 10:46:11.812500
1775,-268.1,2022-10-26 10:46:11.828125
1776,-295.13,2022-10-26 10:46:11.843750
1777,-312.69,2022-10-26 10:46:11.859375
1778,-314.08,2022-10-26 10:46:11.875000
1779,-297.18,2022-10-26 10:46:11.890625
1780,-264.83,2022-10-26 10:46:11.906250
1781,-221.87,2022-10-26 10:46:11.921875
1782,-173.18,2022-10-26 10:46:11.937500
1783,-122.63,2022-10-26 10:46:11.953125
1784,-72.51,2022-10-26 10:46:11.968750
1785,-23.48,2022-10-26 10:46:11.984375
1786,25.96,2022-10-26 10:46:12.000000
1787,79.25,2022-10-26 10:46:12.015625
1788,140.47,2022-10-26 10:46:12.031250
1789,210.95,2022-10-26 10:46:12.046875
1790,285.64,2022-10-26 10:46:12.062500
1791,353.17,2022-10-26 10:46:12.078125
1792,398.55,2022-10-26 10:46:12.093750
1793,410.05,2022-10-26 10:46:12.109375
1794,384.8,2022-10-26 10:46:12.125000
1795,331.11,2022-10-26 10:46:12.140625
1796,265.19,2022-10-26 10:46:12.156250
1797,204.14,2022-10-26 10:46:12.171875
1798,158.19,2022-10-26 10:46:12.187500
1799,126.81,2022-10-26 10:46:12.203125
1800,100.93,2022-10-26 10:46:12.218750
1801,68.7,2022-10-26 10:46:12.234375
1802,21.85,2022-10-26 10:46:12.250000
1803,-40.15,2022-10-26 10:46:12.265625
1804,-110.79,2022-10-26 10:46:12.281250
1805,-180.35,2022-10-26 10:46:12.296875
1806,-239.8,2022-10-26 10:46:12.312500
1807,-283.63,2022-10-26 10:46:12.328125
1808,-309.92,2022-10-26 10:46:12.343750
1809,-319.55,2022-10-26 10:46:12.359375
1810,-314.69,2022-10-26 10:46:12.375000
1811,-297.77,2022-10-26 10:46:12.390625
1812,-272.07,2022-10-26 10:46:12.406250
1813,-241.24,2022-10-26 10:46:12.421875
1814,-208.92,2022-10-26 10:46:12.437500
1815,-177.55,2022-10-26 10:46:12.453125
1816,-147.27,2022-10-26 10:46:12.468750
1817,-115.67,2022-10-26 10:46:12.484375
1818,-78.65,2022-10-26 10:46:12.500000
1819,-33.52,2022-10-26 10:46:12.515625
1820,18.59,2022-10-26 10:46:12.531250
1821,71.13,2022-10-26 10:46:12.546875
1822,113.19,2022-10-26 10:46:12.562500
1823,133.54,2022-10-26 10:46:12.578125
1824,125.03,2022-10-26 10:46:12.593750
1825,89.11,2022-10-26 10:46:12.609375
1826,35.83,2022-10-26 10:46:12.625000
1827,-20.65,2022-10-26 10:46:12.640625
1828,-68.43,2022-10-26 10:46:12.656250
1829,-102.51,2022-10-26 10:46:12.671875
1830,-125.47,2022-10-26 10:46:12.687500
1831,-142.68,2022-10-26 10:46:12.703125
1832,-156.58,2022-10-26 10:46:12.718750
1833,-163.68,2022-10-26 10:46:12.734375
1834,-156.48,2022-10-26 10:46:12.750000
1835,-129.34,2022-10-26 10:46:12.765625
1836,-83.05,2022-10-26 10:46:12.781250
1837,-25.39,2022-10-26 10:46:12.796875
1838,32.9,2022-10-26 10:46:12.812500
1839,84.34,2022-10-26 10:46:12.828125
1840,128.27,2022-10-26 10:46:12.843750
1841,169.84,2022-10-26 10:46:12.859375
1842,216.24,2022-10-26 10:46:12.875000
1843,270.97,2022-10-26 10:46:12.890625
1844,331.5,2022-10-26 10:46:12.906250
1845,391.56,2022-10-26 10:46:12.921875
1846,444.69,2022-10-26 10:46:12.937500
1847,488.33,2022-10-26 10:46:12.953125
1848,524.04,2022-10-26 10:46:12.968750
1849,554.96,2022-10-26 10:46:12.984375
1850,583.37,2022-10-26 10:46:13.000000
1851,609.07,2022-10-26 10:46:13.015625
1852,630.52,2022-10-26 10:46:13.031250
1853,645.8,2022-10-26 10:46:13.046875
1854,653.75,2022-10-26 10:46:13.062500
1855,653.96,2022-10-26 10:46:13.078125
1856,645.23,2022-10-26 10:46:13.093750
1857,625.49,2022-10-26 10:46:13.109375
1858,592.35,2022-10-26 10:46:13.125000
1859,544.11,2022-10-26 10:46:13.140625
1860,480.63,2022-10-26 10:46:13.156250
1861,402.82,2022-10-26 10:46:13.171875
1862,311.6,2022-10-26 10:46:13.187500
1863,206.6,2022-10-26 10:46:13.203125
1864,86.81,2022-10-26 10:46:13.218750
1865,-46.64,2022-10-26 10:46:13.234375
1866,-188.15,2022-10-26 10:46:13.250000
1867,-327.66,2022-10-26 10:46:13.265625
1868,-453.9,2022-10-26 10:46:13.281250
1869,-559.55,2022-10-26 10:46:13.296875
1870,-644.42,2022-10-26 10:46:13.312500
1871,-714.68,2022-10-26 10:46:13.328125
1872,-779.42,2022-10-26 10:46:13.343750
1873,-845.58,2022-10-26 10:46:13.359375
1874,-914.41,2022-10-26 10:46:13.375000
1875,-981.63,2022-10-26 10:46:13.390625
1876,-1039.32,2022-10-26 10:46:13.406250
1877,-1079.26,2022-10-26 10:46:13.421875
1878,-1094.99,2022-10-26 10:46:13.437500
1879,-1082.11,2022-10-26 10:46:13.453125
1880,-1037.45,2022-10-26 10:46:13.468750
1881,-958.72,2022-10-26 10:46:13.484375
1882,-845.45,2022-10-26 10:46:13.500000
1883,-700.14,2022-10-26 10:46:13.515625
1884,-528.83,2022-10-26 10:46:13.531250
1885,-340.71,2022-10-26 10:46:13.546875
1886,-146.17,2022-10-26 10:46:13.562500
1887,44.69,2022-10-26 10:46:13.578125
1888,223.63,2022-10-26 10:46:13.593750
1889,383.71,2022-10-26 10:46:13.609375
1890,519.59,2022-10-26 10:46:13.625000
1891,626.47,2022-10-26 10:46:13.640625
1892,700.53,2022-10-26 10:46:13.656250
1893,739.96,2022-10-26 10:46:13.671875
1894,746.45,2022-10-26 10:46:13.687500
1895,724.92,2022-10-26 10:46:13.703125
1896,681.75,2022-10-26 10:46:13.718750
1897,622.19,2022-10-26 10:46:13.734375
1898,548.65,2022-10-26 10:46:13.750000
1899,461.87,2022-10-26 10:46:13.765625
1900,364.31,2022-10-26 10:46:13.781250
1901,262.62,2022-10-26 10:46:13.796875
1902,168.2,2022-10-26 10:46:13.812500
1903,93.42,2022-10-26 10:46:13.828125
1904,45.36,2022-10-26 10:46:13.843750
1905,21.54,2022-10-26 10:46:13.859375
1906,11.58,2022-10-26 10:46:13.875000
1907,2.1,2022-10-26 10:46:13.890625
1908,-14.55,2022-10-26 10:46:13.906250
1909,-36.43,2022-10-26 10:46:13.921875
1910,-53.73,2022-10-26 10:46:13.937500
1911,-55.55,2022-10-26 10:46:13.953125
1912,-37.42,2022-10-26 10:46:13.968750
1913,-3.49,2022-10-26 10:46:13.984375
1914,36.14,2022-10-26 10:46:14.000000
1915,71.45,2022-10-26 10:46:14.015625
1916,98.18,2022-10-26 10:46:14.031250
1917,118.7,2022-10-26 10:46:14.046875
1918,139.38,2022-10-26 10:46:14.062500
1919,165.35,2022-10-26 10:46:14.078125
1920,197.81,2022-10-26 10:46:14.093750
1921,233.24,2022-10-26 10:46:14.109375
1922,265.1,2022-10-26 10:46:14.125000
1923,286.79,2022-10-26 10:46:14.140625
1924,292.98,2022-10-26 10:46:14.156250
1925,279.9,2022-10-26 10:46:14.171875
1926,246.97,2022-10-26 10:46:14.187500
1927,197.59,2022-10-26 10:46:14.203125
1928,139.84,2022-10-26 10:46:14.218750
1929,85.0,2022-10-26 10:46:14.234375
1930,43.3,2022-10-26 10:46:14.250000
1931,19.27,2022-10-26 10:46:14.265625
1932,9.12,2022-10-26 10:46:14.281250
1933,1.48,2022-10-26 10:46:14.296875
1934,-16.89,2022-10-26 10:46:14.312500
1935,-55.57,2022-10-26 10:46:14.328125
1936,-116.0,2022-10-26 10:46:14.343750
1937,-191.27,2022-10-26 10:46:14.359375
1938,-269.45,2022-10-26 10:46:14.375000
1939,-338.59,2022-10-26 10:46:14.390625
1940,-390.47,2022-10-26 10:46:14.406250
1941,-421.14,2022-10-26 10:46:14.421875
1942,-429.89,2022-10-26 10:46:14.437500
1943,-417.42,2022-10-26 10:46:14.453125
1944,-385.96,2022-10-26 10:46:14.468750
1945,-339.74,2022-10-26 10:46:14.484375
1946,-286.11,2022-10-26 10:46:14.500000
1947,-234.46,2022-10-26 10:46:14.515625
1948,-193.66,2022-10-26 10:46:14.531250
1949,-168.68,2022-10-26 10:46:14.546875
1950,-158.78,2022-10-26 10:46:14.562500
1951,-158.41,2022-10-26 10:46:14.578125
1952,-160.38,2022-10-26 10:46:14.593750
1953,-159.05,2022-10-26 10:46:14.609375
1954,-152.09,2022-10-26 10:46:14.625000
1955,-139.3,2022-10-26 10:46:14.640625
1956,-120.91,2022-10-26 10:46:14.656250
1957,-96.94,2022-10-26 10:46:14.671875
1958,-67.11,2022-10-26 10:46:14.687500
1959,-32.5,2022-10-26 10:46:14.703125
1960,3.17,2022-10-26 10:46:14.718750
1961,34.86,2022-10-26 10:46:14.734375
1962,58.46,2022-10-26 10:46:14.750000
1963,72.87,2022-10-26 10:46:14.765625
1964,80.13,2022-10-26 10:46:14.781250
1965,84.11,2022-10-26 10:46:14.796875
1966,88.6,2022-10-26 10:46:14.812500
1967,96.27,2022-10-26 10:46:14.828125
1968,108.03,2022-10-26 10:46:14.843750
1969,122.73,2022-10-26 10:46:14.859375
1970,137.07,2022-10-26 10:46:14.875000
1971,145.59,2022-10-26 10:46:14.890625
1972,141.6,2022-10-26 10:46:14.906250
1973,120.81,2022-10-26 10:46:14.921875
1974,85.16,2022-10-26 10:46:14.937500
1975,43.55,2022-10-26 10:46:14.953125
1976,9.05,2022-10-26 10:46:14.968750
1977,-7.05,2022-10-26 10:46:14.984375
1978,-1.74,2022-10-26 10:46:15.000000
1979,18.17,2022-10-26 10:46:15.015625
1980,39.18,2022-10-26 10:46:15.031250
1981,49.18,2022-10-26 10:46:15.046875
1982,44.45,2022-10-26 10:46:15.062500
1983,31.9,2022-10-26 10:46:15.078125
1984,24.79,2022-10-26 10:46:15.093750
1985,34.96,2022-10-26 10:46:15.109375
1986,65.62,2022-10-26 10:46:15.125000
1987,109.09,2022-10-26 10:46:15.140625
1988,151.48,2022-10-26 10:46:15.156250
1989,179.86,2022-10-26 10:46:15.171875
1990,190.05,2022-10-26 10:46:15.187500
1991,188.78,2022-10-26 10:46:15.203125
1992,189.49,2022-10-26 10:46:15.218750
1993,205.06,2022-10-26 10:46:15.234375
1994,240.88,2022-10-26 10:46:15.250000
1995,293.03,2022-10-26 10:46:15.265625
1996,351.27,2022-10-26 10:46:15.281250
1997,404.53,2022-10-26 10:46:15.296875
1998,445.04,2022-10-26 10:46:15.312500
1999,467.97,2022-10-26 10:46:15.328125
2000,469.98,2022-10-26 10:46:15.343750
2001,446.5,2022-10-26 10:46:15.359375
2002,393.13,2022-10-26 10:46:15.375000
2003,309.63,2022-10-26 10:46:15.390625
2004,202.86,2022-10-26 10:46:15.406250
2005,87.63,2022-10-26 10:46:15.421875
2006,-18.09,2022-10-26 10:46:15.437500
2007,-100.26,2022-10-26 10:46:15.453125
2008,-153.5,2022-10-26 10:46:15.468750
2009,-182.3,2022-10-26 10:46:15.484375
2010,-197.47,2022-10-26 10:46:15.500000
2011,-209.61,2022-10-26 10:46:15.515625
2012,-225.47,2022-10-26 10:46:15.531250
2013,-247.5,2022-10-26 10:46:15.546875
2014,-275.94,2022-10-26 10:46:15.562500
2015,-311.2,2022-10-26 10:46:15.578125
2016,-354.54,2022-10-26 10:46:15.593750
2017,-406.81,2022-10-26 10:46:15.609375
2018,-466.07,2022-10-26 10:46:15.625000
2019,-526.97,2022-10-26 10:46:15.640625
2020,-581.4,2022-10-26 10:46:15.656250
2021,-622.78,2022-10-26 10:46:15.671875
2022,-648.01,2022-10-26 10:46:15.687500
2023,-658.02,2022-10-26 10:46:15.703125
2024,-656.58,2022-10-26 10:46:15.718750
2025,-646.91,2022-10-26 10:46:15.734375
2026,-629.59,2022-10-26 10:46:15.750000
2027,-602.47,2022-10-26 10:46:15.765625
2028,-562.96,2022-10-26 10:46:15.781250
2029,-510.68,2022-10-26 10:46:15.796875
2030,-448.08,2022-10-26 10:46:15.812500
2031,-379.87,2022-10-26 10:46:15.828125
2032,-309.88,2022-10-26 10:46:15.843750
2033,-239.33,2022-10-26 10:46:15.859375
2034,-166.79,2022-10-26 10:46:15.875000
2035,-89.91,2022-10-26 10:46:15.890625
2036,-8.04,2022-10-26 10:46:15.906250
2037,77.14,2022-10-26 10:46:15.921875
2038,161.63,2022-10-26 10:46:15.937500
2039,239.37,2022-10-26 10:46:15.953125
2040,303.68,2022-10-26 10:46:15.968750
2041,348.88,2022-10-26 10:46:15.984375
2042,370.73,2022-10-26 10:46:16.000000
2043,368.83,2022-10-26 10:46:16.015625
2044,347.38,2022-10-26 10:46:16.031250
2045,315.05,2022-10-26 10:46:16.046875
2046,282.29,2022-10-26 10:46:16.062500
2047,257.3,2022-10-26 10:46:16.078125
2048,242.77,2022-10-26 10:46:16.093750
2049,234.74,2022-10-26 10:46:16.109375
2050,224.17,2022-10-26 10:46:16.125000
2051,201.79,2022-10-26 10:46:16.140625
2052,163.05,2022-10-26 10:46:16.156250
2053,109.92,2022-10-26 10:46:16.171875
2054,49.84,2022-10-26 10:46:16.187500
2055,-8.24,2022-10-26 10:46:16.203125
2056,-57.48,2022-10-26 10:46:16.218750
2057,-95.0,2022-10-26 10:46:16.234375
2058,-122.19,2022-10-26 10:46:16.250000
2059,-142.59,2022-10-26 10:46:16.265625
2060,-159.78,2022-10-26 10:46:16.281250
2061,-174.87,2022-10-26 10:46:16.296875
2062,-185.66,2022-10-26 10:46:16.312500
2063,-187.87,2022-10-26 10:46:16.328125
2064,-176.64,2022-10-26 10:46:16.343750
2065,-148.31,2022-10-26 10:46:16.359375
2066,-101.1,2022-10-26 10:46:16.375000
2067,-34.5,2022-10-26 10:46:16.390625
2068,50.81,2022-10-26 10:46:16.406250
2069,152.0,2022-10-26 10:46:16.421875
2070,263.38,2022-10-26 10:46:16.437500
2071,375.08,2022-10-26 10:46:16.453125
2072,474.73,2022-10-26 10:46:16.468750
2073,550.05,2022-10-26 10:46:16.484375
2074,593.02,2022-10-26 10:46:16.500000
2075,603.18,2022-10-26 10:46:16.515625
2076,588.13,2022-10-26 10:46:16.531250
2077,561.18,2022-10-26 10:46:16.546875
2078,536.36,2022-10-26 10:46:16.562500
2079,522.43,2022-10-26 10:46:16.578125
2080,520.07,2022-10-26 10:46:16.593750
2081,523.26,2022-10-26 10:46:16.609375
2082,522.31,2022-10-26 10:46:16.625000
2083,508.9,2022-10-26 10:46:16.640625
2084,477.84,2022-10-26 10:46:16.656250
2085,427.01,2022-10-26 10:46:16.671875
2086,356.52,2022-10-26 10:46:16.687500
2087,267.07,2022-10-26 10:46:16.703125
2088,160.18,2022-10-26 10:46:16.718750
2089,39.61,2022-10-26 10:46:16.734375
2090,-88.51,2022-10-26 10:46:16.750000
2091,-216.53,2022-10-26 10:46:16.765625
2092,-337.17,2022-10-26 10:46:16.781250
2093,-446.02,2022-10-26 10:46:16.796875
2094,-540.89,2022-10-26 10:46:16.812500
2095,-621.07,2022-10-26 10:46:16.828125
2096,-684.48,2022-10-26 10:46:16.843750
2097,-726.75,2022-10-26 10:46:16.859375
2098,-742.87,2022-10-26 10:46:16.875000
2099,-730.64,2022-10-26 10:46:16.890625
2100,-692.53,2022-10-26 10:46:16.906250
2101,-634.96,2022-10-26 10:46:16.921875
2102,-565.88,2022-10-26 10:46:16.937500
2103,-492.11,2022-10-26 10:46:16.953125
2104,-417.89,2022-10-26 10:46:16.968750
2105,-346.41,2022-10-26 10:46:16.984375
2106,-280.68,2022-10-26 10:46:17.000000
2107,-224.37,2022-10-26 10:46:17.015625
2108,-179.83,2022-10-26 10:46:17.031250
2109,-146.68,2022-10-26 10:46:17.046875
2110,-121.22,2022-10-26 10:46:17.062500
2111,-97.8,2022-10-26 10:46:17.078125
2112,-71.02,2022-10-26 10:46:17.093750
2113,-37.71,2022-10-26 10:46:17.109375
2114,1.77,2022-10-26 10:46:17.125000
2115,45.3,2022-10-26 10:46:17.140625
2116,89.62,2022-10-26 10:46:17.156250
2117,131.19,2022-10-26 10:46:17.171875
2118,166.45,2022-10-26 10:46:17.187500
2119,192.27,2022-10-26 10:46:17.203125
2120,206.88,2022-10-26 10:46:17.218750
2121,211.6,2022-10-26 10:46:17.234375
2122,211.52,2022-10-26 10:46:17.250000
2123,214.12,2022-10-26 10:46:17.265625
2124,226.01,2022-10-26 10:46:17.281250
2125,248.55,2022-10-26 10:46:17.296875
2126,276.63,2022-10-26 10:46:17.312500
2127,299.18,2022-10-26 10:46:17.328125
2128,303.82,2022-10-26 10:46:17.343750
2129,281.23,2022-10-26 10:46:17.359375
2130,228.79,2022-10-26 10:46:17.375000
2131,150.52,2022-10-26 10:46:17.390625
2132,54.68,2022-10-26 10:46:17.406250
2133,-48.22,2022-10-26 10:46:17.421875
2134,-147.78,2022-10-26 10:46:17.437500
2135,-234.29,2022-10-26 10:46:17.453125
2136,-298.45,2022-10-26 10:46:17.468750
2137,-332.53,2022-10-26 10:46:17.484375
2138,-331.72,2022-10-26 10:46:17.500000
2139,-295.93,2022-10-26 10:46:17.515625
2140,-230.36,2022-10-26 10:46:17.531250
2141,-145.15,2022-10-26 10:46:17.546875
2142,-53.45,2022-10-26 10:46:17.562500
2143,30.64,2022-10-26 10:46:17.578125
2144,95.16,2022-10-26 10:46:17.593750
2145,132.36,2022-10-26 10:46:17.609375
2146,140.42,2022-10-26 10:46:17.625000
2147,124.1,2022-10-26 10:46:17.640625
2148,92.4,2022-10-26 10:46:17.656250
2149,55.11,2022-10-26 10:46:17.671875
2150,18.29,2022-10-26 10:46:17.687500
2151,-17.85,2022-10-26 10:46:17.703125
2152,-56.97,2022-10-26 10:46:17.718750
2153,-101.81,2022-10-26 10:46:17.734375
2154,-150.09,2022-10-26 10:46:17.750000
2155,-192.9,2022-10-26 10:46:17.765625
2156,-219.09,2022-10-26 10:46:17.781250
2157,-222.13,2022-10-26 10:46:17.796875
2158,-203.99,2022-10-26 10:46:17.812500
2159,-175.75,2022-10-26 10:46:17.828125
2160,-150.01,2022-10-26 10:46:17.843750
2161,-133.95,2022-10-26 10:46:17.859375
2162,-124.88,2022-10-26 10:46:17.875000
2163,-112.46,2022-10-26 10:46:17.890625
2164,-87.59,2022-10-26 10:46:17.906250
2165,-49.11,2022-10-26 10:46:17.921875
2166,-6.15,2022-10-26 10:46:17.937500
2167,27.02,2022-10-26 10:46:17.953125
2168,40.25,2022-10-26 10:46:17.968750
2169,34.08,2022-10-26 10:46:17.984375
2170,18.37,2022-10-26 10:46:18.000000
2171,5.54,2022-10-26 10:46:18.015625
2172,2.29,2022-10-26 10:46:18.031250
2173,5.95,2022-10-26 10:46:18.046875
2174,8.52,2022-10-26 10:46:18.062500
2175,4.66,2022-10-26 10:46:18.078125
2176,-2.43,2022-10-26 10:46:18.093750
2177,-1.15,2022-10-26 10:46:18.109375
2178,20.69,2022-10-26 10:46:18.125000
2179,67.7,2022-10-26 10:46:18.140625
2180,133.06,2022-10-26 10:46:18.156250
2181,201.38,2022-10-26 10:46:18.171875
2182,257.1,2022-10-26 10:46:18.187500
2183,291.75,2022-10-26 10:46:18.203125
2184,306.55,2022-10-26 10:46:18.218750
2185,309.68,2022-10-26 10:46:18.234375
2186,308.85,2022-10-26 10:46:18.250000
2187,306.68,2022-10-26 10:46:18.265625
2188,298.87,2022-10-26 10:46:18.281250
2189,277.3,2022-10-26 10:46:18.296875
2190,236.01,2022-10-26 10:46:18.312500
2191,175.24,2022-10-26 10:46:18.328125
2192,103.21,2022-10-26 10:46:18.343750
2193,32.78,2022-10-26 10:46:18.359375
2194,-23.17,2022-10-26 10:46:18.375000
2195,-57.29,2022-10-26 10:46:18.390625
2196,-71.44,2022-10-26 10:46:18.406250
2197,-75.62,2022-10-26 10:46:18.421875
2198,-84.18,2022-10-26 10:46:18.437500
2199,-108.72,2022-10-26 10:46:18.453125
2200,-152.39,2022-10-26 10:46:18.468750
2201,-207.52,2022-10-26 10:46:18.484375
2202,-259.3,2022-10-26 10:46:18.500000
2203,-291.74,2022-10-26 10:46:18.515625
2204,-294.23,2022-10-26 10:46:18.531250
2205,-264.96,2022-10-26 10:46:18.546875
2206,-210.22,2022-10-26 10:46:18.562500
2207,-139.8,2022-10-26 10:46:18.578125
2208,-63.03,2022-10-26 10:46:18.593750
2209,14.8,2022-10-26 10:46:18.609375
2210,91.76,2022-10-26 10:46:18.625000
2211,167.34,2022-10-26 10:46:18.640625
2212,240.69,2022-10-26 10:46:18.656250
2213,309.49,2022-10-26 10:46:18.671875
2214,371.59,2022-10-26 10:46:18.687500
2215,426.44,2022-10-26 10:46:18.703125
2216,475.25,2022-10-26 10:46:18.718750
2217,520.41,2022-10-26 10:46:18.734375
2218,562.81,2022-10-26 10:46:18.750000
2219,600.84,2022-10-26 10:46:18.765625
2220,628.9,2022-10-26 10:46:18.781250
2221,639.09,2022-10-26 10:46:18.796875
2222,624.92,2022-10-26 10:46:18.812500
2223,584.22,2022-10-26 10:46:18.828125
2224,521.7,2022-10-26 10:46:18.843750
2225,446.39,2022-10-26 10:46:18.859375
2226,368.21,2022-10-26 10:46:18.875000
2227,293.16,2022-10-26 10:46:18.890625
2228,221.22,2022-10-26 10:46:18.906250
2229,148.68,2022-10-26 10:46:18.921875
2230,71.65,2022-10-26 10:46:18.937500
2231,-10.18,2022-10-26 10:46:18.953125
2232,-91.82,2022-10-26 10:46:18.968750
2233,-164.16,2022-10-26 10:46:18.984375
2234,-219.57,2022-10-26 10:46:19.000000
2235,-254.82,2022-10-26 10:46:19.015625
2236,-272.89,2022-10-26 10:46:19.031250
2237,-280.46,2022-10-26 10:46:19.046875
2238,-283.69,2022-10-26 10:46:19.062500
2239,-284.97,2022-10-26 10:46:19.078125
2240,-282.7,2022-10-26 10:46:19.093750
2241,-273.0,2022-10-26 10:46:19.109375
2242,-253.63,2022-10-26 10:46:19.125000
2243,-225.96,2022-10-26 10:46:19.140625
2244,-195.36,2022-10-26 10:46:19.156250
2245,-169.3,2022-10-26 10:46:19.171875
2246,-154.93,2022-10-26 10:46:19.187500
2247,-156.34,2022-10-26 10:46:19.203125
2248,-174.29,2022-10-26 10:46:19.218750
2249,-206.62,2022-10-26 10:46:19.234375
2250,-250.8,2022-10-26 10:46:19.250000
2251,-303.28,2022-10-26 10:46:19.265625
2252,-359.43,2022-10-26 10:46:19.281250
2253,-413.42,2022-10-26 10:46:19.296875
2254,-457.77,2022-10-26 10:46:19.312500
2255,-485.49,2022-10-26 10:46:19.328125
2256,-491.47,2022-10-26 10:46:19.343750
2257,-474.3,2022-10-26 10:46:19.359375
2258,-436.57,2022-10-26 10:46:19.375000
2259,-383.81,2022-10-26 10:46:19.390625
2260,-322.78,2022-10-26 10:46:19.406250
2261,-259.43,2022-10-26 10:46:19.421875
2262,-196.76,2022-10-26 10:46:19.437500
2263,-134.54,2022-10-26 10:46:19.453125
2264,-71.13,2022-10-26 10:46:19.468750
2265,-4.29,2022-10-26 10:46:19.484375
2266,65.9,2022-10-26 10:46:19.500000
2267,136.62,2022-10-26 10:46:19.515625
2268,202.25,2022-10-26 10:46:19.531250
2269,255.58,2022-10-26 10:46:19.546875
2270,290.16,2022-10-26 10:46:19.562500
2271,303.46,2022-10-26 10:46:19.578125
2272,297.27,2022-10-26 10:46:19.593750
2273,277.61,2022-10-26 10:46:19.609375
2274,251.41,2022-10-26 10:46:19.625000
2275,222.76,2022-10-26 10:46:19.640625
2276,190.3,2022-10-26 10:46:19.656250
2277,148.17,2022-10-26 10:46:19.671875
2278,88.28,2022-10-26 10:46:19.687500
2279,4.52,2022-10-26 10:46:19.703125
2280,-103.99,2022-10-26 10:46:19.718750
2281,-230.93,2022-10-26 10:46:19.734375
2282,-364.72,2022-10-26 10:46:19.750000
2283,-490.67,2022-10-26 10:46:19.765625
2284,-594.55,2022-10-26 10:46:19.781250
2285,-665.12,2022-10-26 10:46:19.796875
2286,-696.21,2022-10-26 10:46:19.812500
2287,-687.81,2022-10-26 10:46:19.828125
2288,-646.03,2022-10-26 10:46:19.843750
2289,-582.31,2022-10-26 10:46:19.859375
2290,-511.12,2022-10-26 10:46:19.875000
2291,-447.14,2022-10-26 10:46:19.890625
2292,-400.71,2022-10-26 10:46:19.906250
2293,-375.67,2022-10-26 10:46:19.921875
2294,-368.01,2022-10-26 10:46:19.937500
2295,-367.49,2022-10-26 10:46:19.953125
2296,-361.48,2022-10-26 10:46:19.968750
2297,-339.65,2022-10-26 10:46:19.984375
2298,-297.9,2022-10-26 10:46:20.000000
2299,-238.86,2022-10-26 10:46:20.015625
2300,-170.11,2022-10-26 10:46:20.031250
2301,-100.56,2022-10-26 10:46:20.046875
2302,-37.45,2022-10-26 10:46:20.062500
2303,15.53,2022-10-26 10:46:20.078125
2304,57.1,2022-10-26 10:46:20.093750
2305,87.35,2022-10-26 10:46:20.109375
2306,107.24,2022-10-26 10:46:20.125000
2307,119.21,2022-10-26 10:46:20.140625
2308,128.02,2022-10-26 10:46:20.156250
2309,140.53,2022-10-26 10:46:20.171875
2310,164.54,2022-10-26 10:46:20.187500
2311,205.63,2022-10-26 10:46:20.203125
2312,264.59,2022-10-26 10:46:20.218750
2313,336.84,2022-10-26 10:46:20.234375
2314,412.52,2022-10-26 10:46:20.250000
2315,479.9,2022-10-26 10:46:20.265625
2316,529.03,2022-10-26 10:46:20.281250
2317,556.13,2022-10-26 10:46:20.296875
2318,566.09,2022-10-26 10:46:20.312500
2319,571.7,2022-10-26 10:46:20.328125
2320,589.24,2022-10-26 10:46:20.343750
2321,632.32,2022-10-26 10:46:20.359375
2322,705.62,2022-10-26 10:46:20.375000
2323,802.62,2022-10-26 10:46:20.390625
2324,907.97,2022-10-26 10:46:20.406250
2325,1002.9,2022-10-26 10:46:20.421875
2326,1071.58,2022-10-26 10:46:20.437500
2327,1104.68,2022-10-26 10:46:20.453125
2328,1099.89,2022-10-26 10:46:20.468750
2329,1059.83,2022-10-26 10:46:20.484375
2330,989.6,2022-10-26 10:46:20.500000
2331,895.5,2022-10-26 10:46:20.515625
2332,784.88,2022-10-26 10:46:20.531250
2333,665.97,2022-10-26 10:46:20.546875
2334,547.15,2022-10-26 10:46:20.562500
2335,434.69,2022-10-26 10:46:20.578125
2336,331.15,2022-10-26 10:46:20.593750
2337,236.22,2022-10-26 10:46:20.609375
2338,147.99,2022-10-26 10:46:20.625000
2339,65.6,2022-10-26 10:46:20.640625
2340,-9.69,2022-10-26 10:46:20.656250
2341,-75.75,2022-10-26 10:46:20.671875
2342,-132.32,2022-10-26 10:46:20.687500
2343,-183.54,2022-10-26 10:46:20.703125
2344,-237.65,2022-10-26 10:46:20.718750
2345,-303.46,2022-10-26 10:46:20.734375
2346,-385.42,2022-10-26 10:46:20.750000
2347,-480.23,2022-10-26 10:46:20.765625
2348,-577.79,2022-10-26 10:46:20.781250
2349,-666.69,2022-10-26 10:46:20.796875
2350,-740.37,2022-10-26 10:46:20.812500
2351,-800.17,2022-10-26 10:46:20.828125
2352,-853.99,2022-10-26 10:46:20.843750
2353,-909.82,2022-10-26 10:46:20.859375
2354,-970.29,2022-10-26 10:46:20.875000
2355,-1029.59,2022-10-26 10:46:20.890625
2356,-1076.05,2022-10-26 10:46:20.906250
2357,-1096.83,2022-10-26 10:46:20.921875
2358,-1083.28,2022-10-26 10:46:20.937500
2359,-1033.15,2022-10-26 10:46:20.953125
2360,-950.32,2022-10-26 10:46:20.968750
2361,-843.03,2022-10-26 10:46:20.984375
2362,-720.76,2022-10-26 10:46:21.000000
2363,-592.89,2022-10-26 10:46:21.015625
2364,-466.88,2022-10-26 10:46:21.031250
2365,-348.38,2022-10-26 10:46:21.046875
2366,-239.99,2022-10-26 10:46:21.062500
2367,-141.29,2022-10-26 10:46:21.078125
2368,-49.8,2022-10-26 10:46:21.093750
2369,38.96,2022-10-26 10:46:21.109375
2370,129.65,2022-10-26 10:46:21.125000
2371,226.3,2022-10-26 10:46:21.140625
2372,330.2,2022-10-26 10:46:21.156250
2373,439.0,2022-10-26 10:46:21.171875
2374,546.57,2022-10-26 10:46:21.187500
2375,643.83,2022-10-26 10:46:21.203125
2376,721.34,2022-10-26 10:46:21.218750
2377,772.9,2022-10-26 10:46:21.234375
2378,797.58,2022-10-26 10:46:21.250000
2379,798.64,2022-10-26 10:46:21.265625
2380,781.82,2022-10-26 10:46:21.281250
2381,752.66,2022-10-26 10:46:21.296875
2382,714.77,2022-10-26 10:46:21.312500
2383,670.81,2022-10-26 10:46:21.328125
2384,623.59,2022-10-26 10:46:21.343750
2385,577.22,2022-10-26 10:46:21.359375
2386,536.02,2022-10-26 10:46:21.375000
2387,503.56,2022-10-26 10:46:21.390625
2388,480.81,2022-10-26 10:46:21.406250
2389,465.54,2022-10-26 10:46:21.421875
2390,453.04,2022-10-26 10:46:21.437500
2391,436.54,2022-10-26 10:46:21.453125
2392,409.62,2022-10-26 10:46:21.468750
2393,367.23,2022-10-26 10:46:21.484375
2394,307.97,2022-10-26 10:46:21.500000
2395,234.42,2022-10-26 10:46:21.515625
2396,152.47,2022-10-26 10:46:21.531250
2397,69.55,2022-10-26 10:46:21.546875
2398,-8.1,2022-10-26 10:46:21.562500
2399,-77.51,2022-10-26 10:46:21.578125
2400,-139.63,2022-10-26 10:46:21.593750
2401,-198.88,2022-10-26 10:46:21.609375
2402,-260.67,2022-10-26 10:46:21.625000
2403,-329.35,2022-10-26 10:46:21.640625
2404,-407.06,2022-10-26 10:46:21.656250
2405,-492.94,2022-10-26 10:46:21.671875
2406,-582.98,2022-10-26 10:46:21.687500
2407,-669.78,2022-10-26 10:46:21.703125
2408,-743.33,2022-10-26 10:46:21.718750
2409,-793.04,2022-10-26 10:46:21.734375
2410,-810.21,2022-10-26 10:46:21.750000
2411,-791.09,2022-10-26 10:46:21.765625
2412,-738.51,2022-10-26 10:46:21.781250
2413,-661.17,2022-10-26 10:46:21.796875
2414,-570.78,2022-10-26 10:46:21.812500
2415,-477.66,2022-10-26 10:46:21.828125
2416,-388.22,2022-10-26 10:46:21.843750
2417,-303.86,2022-10-26 10:46:21.859375
2418,-223.14,2022-10-26 10:46:21.875000
2419,-144.33,2022-10-26 10:46:21.890625
2420,-67.11,2022-10-26 10:46:21.906250
2421,7.05,2022-10-26 10:46:21.921875
2422,77.52,2022-10-26 10:46:21.937500
2423,144.87,2022-10-26 10:46:21.953125
2424,210.41,2022-10-26 10:46:21.968750
2425,273.5,2022-10-26 10:46:21.984375
2426,330.32,2022-10-26 10:46:22.000000
2427,375.18,2022-10-26 10:46:22.015625
2428,402.31,2022-10-26 10:46:22.031250
2429,409.59,2022-10-26 10:46:22.046875
2430,398.64,2022-10-26 10:46:22.062500
2431,372.28,2022-10-26 10:46:22.078125
2432,332.49,2022-10-26 10:46:22.093750
2433,279.16,2022-10-26 10:46:22.109375
2434,212.46,2022-10-26 10:46:22.125000
2435,136.0,2022-10-26 10:46:22.140625
2436,58.19,2022-10-26 10:46:22.156250
2437,-9.12,2022-10-26 10:46:22.171875
2438,-55.16,2022-10-26 10:46:22.187500
2439,-75.56,2022-10-26 10:46:22.203125
2440,-73.43,2022-10-26 10:46:22.218750
2441,-56.67,2022-10-26 10:46:22.234375
2442,-33.76,2022-10-26 10:46:22.250000
2443,-10.57,2022-10-26 10:46:22.265625
2444,10.74,2022-10-26 10:46:22.281250
2445,29.79,2022-10-26 10:46:22.296875
2446,45.77,2022-10-26 10:46:22.312500
2447,57.09,2022-10-26 10:46:22.328125
2448,62.01,2022-10-26 10:46:22.343750
2449,60.45,2022-10-26 10:46:22.359375
2450,54.66,2022-10-26 10:46:22.375000
2451,47.89,2022-10-26 10:46:22.390625
2452,43.0,2022-10-26 10:46:22.406250
2453,40.67,2022-10-26 10:46:22.421875
2454,39.27,2022-10-26 10:46:22.437500
2455,36.36,2022-10-26 10:46:22.453125
2456,30.58,2022-10-26 10:46:22.468750
2457,22.51,2022-10-26 10:46:22.484375
2458,13.35,2022-10-26 10:46:22.500000
2459,3.38,2022-10-26 10:46:22.515625
2460,-9.09,2022-10-26 10:46:22.531250
2461,-26.76,2022-10-26 10:46:22.546875
2462,-50.41,2022-10-26 10:46:22.562500
2463,-78.13,2022-10-26 10:46:22.578125
2464,-105.61,2022-10-26 10:46:22.593750
2465,-129.2,2022-10-26 10:46:22.609375
2466,-149.08,2022-10-26 10:46:22.625000
2467,-169.4,2022-10-26 10:46:22.640625
2468,-195.2,2022-10-26 10:46:22.656250
2469,-227.25,2022-10-26 10:46:22.671875
2470,-258.67,2022-10-26 10:46:22.687500
2471,-276.81,2022-10-26 10:46:22.703125
2472,-269.7,2022-10-26 10:46:22.718750
2473,-234.15,2022-10-26 10:46:22.734375
2474,-178.98,2022-10-26 10:46:22.750000
2475,-122.63,2022-10-26 10:46:22.765625
2476,-84.1,2022-10-26 10:46:22.781250
2477,-72.68,2022-10-26 10:46:22.796875
2478,-83.21,2022-10-26 10:46:22.812500
2479,-98.66,2022-10-26 10:46:22.828125
2480,-98.22,2022-10-26 10:46:22.843750
2481,-68.86,2022-10-26 10:46:22.859375
2482,-10.58,2022-10-26 10:46:22.875000
2483,64.2,2022-10-26 10:46:22.890625
2484,137.83,2022-10-26 10:46:22.906250
2485,196.98,2022-10-26 10:46:22.921875
2486,237.42,2022-10-26 10:46:22.937500
2487,263.56,2022-10-26 10:46:22.953125
2488,283.14,2022-10-26 10:46:22.968750
2489,301.62,2022-10-26 10:46:22.984375
2490,320.31,2022-10-26 10:46:23.000000
2491,337.45,2022-10-26 10:46:23.015625
2492,351.82,2022-10-26 10:46:23.031250
2493,363.25,2022-10-26 10:46:23.046875
2494,372.58,2022-10-26 10:46:23.062500
2495,377.55,2022-10-26 10:46:23.078125
2496,371.36,2022-10-26 10:46:23.093750
2497,344.25,2022-10-26 10:46:23.109375
2498,288.49,2022-10-26 10:46:23.125000
2499,204.07,2022-10-26 10:46:23.140625
2500,100.93,2022-10-26 10:46:23.156250
2501,-3.36,2022-10-26 10:46:23.171875
2502,-90.34,2022-10-26 10:46:23.187500
2503,-147.2,2022-10-26 10:46:23.203125
2504,-171.1,2022-10-26 10:46:23.218750
2505,-167.93,2022-10-26 10:46:23.234375
2506,-148.77,2022-10-26 10:46:23.250000
2507,-125.41,2022-10-26 10:46:23.265625
2508,-107.79,2022-10-26 10:46:23.281250
2509,-102.55,2022-10-26 10:46:23.296875
2510,-112.29,2022-10-26 10:46:23.312500
2511,-136.13,2022-10-26 10:46:23.328125
2512,-167.98,2022-10-26 10:46:23.343750
2513,-198.73,2022-10-26 10:46:23.359375
2514,-218.35,2022-10-26 10:46:23.375000
2515,-220.16,2022-10-26 10:46:23.390625
2516,-204.75,2022-10-26 10:46:23.406250
2517,-180.16,2022-10-26 10:46:23.421875
2518,-159.12,2022-10-26 10:46:23.437500
2519,-153.69,2022-10-26 10:46:23.453125
2520,-170.25,2022-10-26 10:46:23.468750
2521,-207.81,2022-10-26 10:46:23.484375
2522,-259.21,2022-10-26 10:46:23.500000
2523,-314.82,2022-10-26 10:46:23.515625
2524,-365.42,2022-10-26 10:46:23.531250
2525,-403.93,2022-10-26 10:46:23.546875
2526,-426.19,2022-10-26 10:46:23.562500
2527,-430.94,2022-10-26 10:46:23.578125
2528,-420.04,2022-10-26 10:46:23.593750
2529,-397.81,2022-10-26 10:46:23.609375
2530,-369.47,2022-10-26 10:46:23.625000
2531,-338.68,2022-10-26 10:46:23.640625
2532,-306.26,2022-10-26 10:46:23.656250
2533,-269.86,2022-10-26 10:46:23.671875
2534,-226.57,2022-10-26 10:46:23.687500
2535,-174.34,2022-10-26 10:46:23.703125
2536,-114.73,2022-10-26 10:46:23.718750
2537,-51.29,2022-10-26 10:46:23.734375
2538,11.8,2022-10-26 10:46:23.750000
2539,70.66,2022-10-26 10:46:23.765625
2540,122.03,2022-10-26 10:46:23.781250
2541,161.97,2022-10-26 10:46:23.796875
2542,186.22,2022-10-26 10:46:23.812500
2543,190.93,2022-10-26 10:46:23.828125
2544,176.48,2022-10-26 10:46:23.843750
2545,148.8,2022-10-26 10:46:23.859375
2546,118.79,2022-10-26 10:46:23.875000
2547,97.87,2022-10-26 10:46:23.890625
2548,93.1,2022-10-26 10:46:23.906250
2549,105.09,2022-10-26 10:46:23.921875
2550,128.59,2022-10-26 10:46:23.937500
2551,156.88,2022-10-26 10:46:23.953125
2552,185.13,2022-10-26 10:46:23.968750
2553,212.24,2022-10-26 10:46:23.984375
2554,239.94,2022-10-26 10:46:24.000000
2555,269.83,2022-10-26 10:46:24.015625
2556,301.1,2022-10-26 10:46:24.031250
2557,330.15,2022-10-26 10:46:24.046875
2558,351.58,2022-10-26 10:46:24.062500
2559,361.2,2022-10-26 10:46:24.078125
2560,358.42,2022-10-26 10:46:24.093750
2561,347.51,2022-10-26 10:46:24.109375
2562,336.78,2022-10-26 10:46:24.125000
2563,335.69,2022-10-26 10:46:24.140625
2564,350.35,2022-10-26 10:46:24.156250
2565,380.83,2022-10-26 10:46:24.171875
2566,419.73,2022-10-26 10:46:24.187500
2567,455.07,2022-10-26 10:46:24.203125
2568,475.39,2022-10-26 10:46:24.218750
2569,475.24,2022-10-26 10:46:24.234375
2570,459.01,2022-10-26 10:46:24.250000
2571,438.61,2022-10-26 10:46:24.265625
2572,427.72,2022-10-26 10:46:24.281250
2573,433.79,2022-10-26 10:46:24.296875
2574,453.39,2022-10-26 10:46:24.312500
2575,472.47,2022-10-26 10:46:24.328125
2576,472.58,2022-10-26 10:46:24.343750
2577,438.12,2022-10-26 10:46:24.359375
2578,363.46,2022-10-26 10:46:24.375000
2579,254.46,2022-10-26 10:46:24.390625
2580,125.41,2022-10-26 10:46:24.406250
2581,-5.93,2022-10-26 10:46:24.421875
2582,-124.68,2022-10-26 10:46:24.437500
2583,-222.67,2022-10-26 10:46:24.453125
2584,-298.8,2022-10-26 10:46:24.468750
2585,-357.77,2022-10-26 10:46:24.484375
2586,-405.85,2022-10-26 10:46:24.500000
2587,-448.24,2022-10-26 10:46:24.515625
2588,-486.68,2022-10-26 10:46:24.531250
2589,-519.6,2022-10-26 10:46:24.546875
2590,-543.32,2022-10-26 10:46:24.562500
2591,-554.59,2022-10-26 10:46:24.578125
2592,-552.17,2022-10-26 10:46:24.593750
2593,-536.7,2022-10-26 10:46:24.609375
2594,-509.4,2022-10-26 10:46:24.625000
2595,-470.03,2022-10-26 10:46:24.640625
2596,-416.11,2022-10-26 10:46:24.656250
2597,-344.54,2022-10-26 10:46:24.671875
2598,-254.23,2022-10-26 10:46:24.687500
2599,-149.11,2022-10-26 10:46:24.703125
2600,-38.24,2022-10-26 10:46:24.718750
2601,66.33,2022-10-26 10:46:24.734375
2602,153.98,2022-10-26 10:46:24.750000
2603,218.63,2022-10-26 10:46:24.765625
2604,260.49,2022-10-26 10:46:24.781250
2605,284.44,2022-10-26 10:46:24.796875
2606,297.84,2022-10-26 10:46:24.812500
2607,307.52,2022-10-26 10:46:24.828125
2608,318.33,2022-10-26 10:46:24.843750
2609,331.37,2022-10-26 10:46:24.859375
2610,344.56,2022-10-26 10:46:24.875000
2611,353.53,2022-10-26 10:46:24.890625
2612,353.5,2022-10-26 10:46:24.906250
2613,341.08,2022-10-26 10:46:24.921875
2614,316.18,2022-10-26 10:46:24.937500
2615,281.9,2022-10-26 10:46:24.953125
2616,244.24,2022-10-26 10:46:24.968750
2617,209.57,2022-10-26 10:46:24.984375
2618,183.43,2022-10-26 10:46:25.000000
2619,169.05,2022-10-26 10:46:25.015625
2620,167.46,2022-10-26 10:46:25.031250
2621,177.49,2022-10-26 10:46:25.046875
2622,196.35,2022-10-26 10:46:25.062500
2623,219.56,2022-10-26 10:46:25.078125
2624,240.73,2022-10-26 10:46:25.093750
2625,252.87,2022-10-26 10:46:25.109375
2626,249.72,2022-10-26 10:46:25.125000
2627,228.09,2022-10-26 10:46:25.140625
2628,189.32,2022-10-26 10:46:25.156250
2629,139.69,2022-10-26 10:46:25.171875
2630,88.86,2022-10-26 10:46:25.187500
2631,46.4,2022-10-26 10:46:25.203125
2632,19.29,2022-10-26 10:46:25.218750
2633,9.36,2022-10-26 10:46:25.234375
2634,13.68,2022-10-26 10:46:25.250000
2635,26.33,2022-10-26 10:46:25.265625
2636,41.96,2022-10-26 10:46:25.281250
2637,57.6,2022-10-26 10:46:25.296875
2638,72.46,2022-10-26 10:46:25.312500
2639,85.45,2022-10-26 10:46:25.328125
2640,93.84,2022-10-26 10:46:25.343750
2641,92.66,2022-10-26 10:46:25.359375
2642,76.7,2022-10-26 10:46:25.375000
2643,43.81,2022-10-26 10:46:25.390625
2644,-3.42,2022-10-26 10:46:25.406250
2645,-57.43,2022-10-26 10:46:25.421875
2646,-109.37,2022-10-26 10:46:25.437500
2647,-152.11,2022-10-26 10:46:25.453125
2648,-183.26,2022-10-26 10:46:25.468750
2649,-205.42,2022-10-26 10:46:25.484375
2650,-224.59,2022-10-26 10:46:25.500000
2651,-247.33,2022-10-26 10:46:25.515625
2652,-278.3,2022-10-26 10:46:25.531250
2653,-318.93,2022-10-26 10:46:25.546875
2654,-367.92,2022-10-26 10:46:25.562500
2655,-422.51,2022-10-26 10:46:25.578125
2656,-479.54,2022-10-26 10:46:25.593750
2657,-535.97,2022-10-26 10:46:25.609375
2658,-589.63,2022-10-26 10:46:25.625000
2659,-638.02,2022-10-26 10:46:25.640625
2660,-679.09,2022-10-26 10:46:25.656250
2661,-710.26,2022-10-26 10:46:25.671875
2662,-729.02,2022-10-26 10:46:25.687500
2663,-734.44,2022-10-26 10:46:25.703125
2664,-727.49,2022-10-26 10:46:25.718750
2665,-712.56,2022-10-26 10:46:25.734375
2666,-696.25,2022-10-26 10:46:25.750000
2667,-684.74,2022-10-26 10:46:25.765625
2668,-681.03,2022-10-26 10:46:25.781250
2669,-681.79,2022-10-26 10:46:25.796875
2670,-676.79,2022-10-26 10:46:25.812500
2671,-652.85,2022-10-26 10:46:25.828125
2672,-599.93,2022-10-26 10:46:25.843750
2673,-516.73,2022-10-26 10:46:25.859375
2674,-412.36,2022-10-26 10:46:25.875000
2675,-303.32,2022-10-26 10:46:25.890625
2676,-206.67,2022-10-26 10:46:25.906250
2677,-130.91,2022-10-26 10:46:25.921875
2678,-72.86,2022-10-26 10:46:25.937500
2679,-18.9,2022-10-26 10:46:25.953125
2680,46.89,2022-10-26 10:46:25.968750
2681,134.19,2022-10-26 10:46:25.984375
2682,240.2,2022-10-26 10:46:26.000000
2683,349.97,2022-10-26 10:46:26.015625
2684,442.77,2022-10-26 10:46:26.031250
2685,502.2,2022-10-26 10:46:26.046875
2686,523.22,2022-10-26 10:46:26.062500
2687,512.86,2022-10-26 10:46:26.078125
2688,486.07,2022-10-26 10:46:26.093750
2689,457.28,2022-10-26 10:46:26.109375
2690,433.56,2022-10-26 10:46:26.125000
2691,412.89,2022-10-26 10:46:26.140625
2692,386.87,2022-10-26 10:46:26.156250
2693,347.28,2022-10-26 10:46:26.171875
2694,290.89,2022-10-26 10:46:26.187500
2695,220.27,2022-10-26 10:46:26.203125
2696,142.18,2022-10-26 10:46:26.218750
2697,63.82,2022-10-26 10:46:26.234375
2698,-9.17,2022-10-26 10:46:26.250000
2699,-72.1,2022-10-26 10:46:26.265625
2700,-119.85,2022-10-26 10:46:26.281250
2701,-146.04,2022-10-26 10:46:26.296875
2702,-143.94,2022-10-26 10:46:26.312500
2703,-110.06,2022-10-26 10:46:26.328125
2704,-47.31,2022-10-26 10:46:26.343750
2705,33.23,2022-10-26 10:46:26.359375
2706,114.15,2022-10-26 10:46:26.375000
2707,176.85,2022-10-26 10:46:26.390625
2708,207.13,2022-10-26 10:46:26.406250
2709,200.09,2022-10-26 10:46:26.421875
2710,160.99,2022-10-26 10:46:26.437500
2711,102.87,2022-10-26 10:46:26.453125
2712,41.61,2022-10-26 10:46:26.468750
2713,-9.93,2022-10-26 10:46:26.484375
2714,-45.51,2022-10-26 10:46:26.500000
2715,-67.17,2022-10-26 10:46:26.515625
2716,-84.0,2022-10-26 10:46:26.531250
2717,-107.44,2022-10-26 10:46:26.546875
2718,-145.81,2022-10-26 10:46:26.562500
2719,-201.29,2022-10-26 10:46:26.578125
2720,-268.99,2022-10-26 10:46:26.593750
2721,-340.01,2022-10-26 10:46:26.609375
2722,-404.02,2022-10-26 10:46:26.625000
2723,-451.96,2022-10-26 10:46:26.640625
2724,-477.46,2022-10-26 10:46:26.656250
2725,-476.15,2022-10-26 10:46:26.671875
2726,-446.22,2022-10-26 10:46:26.687500
2727,-389.47,2022-10-26 10:46:26.703125
2728,-312.21,2022-10-26 10:46:26.718750
2729,-225.24,2022-10-26 10:46:26.734375
2730,-140.36,2022-10-26 10:46:26.750000
2731,-66.11,2022-10-26 10:46:26.765625
2732,-4.99,2022-10-26 10:46:26.781250
2733,46.73,2022-10-26 10:46:26.796875
2734,95.16,2022-10-26 10:46:26.812500
2735,144.24,2022-10-26 10:46:26.828125
2736,194.11,2022-10-26 10:46:26.843750
2737,242.46,2022-10-26 10:46:26.859375
2738,287.3,2022-10-26 10:46:26.875000
2739,328.99,2022-10-26 10:46:26.890625
2740,369.41,2022-10-26 10:46:26.906250
2741,409.27,2022-10-26 10:46:26.921875
2742,446.54,2022-10-26 10:46:26.937500
2743,476.57,2022-10-26 10:46:26.953125
2744,493.94,2022-10-26 10:46:26.968750
2745,494.14,2022-10-26 10:46:26.984375
2746,474.04,2022-10-26 10:46:27.000000
2747,431.89,2022-10-26 10:46:27.015625
2748,366.71,2022-10-26 10:46:27.031250
2749,278.48,2022-10-26 10:46:27.046875
2750,169.74,2022-10-26 10:46:27.062500
2751,47.35,2022-10-26 10:46:27.078125
2752,-78.68,2022-10-26 10:46:27.093750
2753,-197.32,2022-10-26 10:46:27.109375
2754,-299.37,2022-10-26 10:46:27.125000
2755,-378.92,2022-10-26 10:46:27.140625
2756,-433.09,2022-10-26 10:46:27.156250
2757,-460.16,2022-10-26 10:46:27.171875
2758,-459.42,2022-10-26 10:46:27.187500
2759,-431.83,2022-10-26 10:46:27.203125
2760,-381.37,2022-10-26 10:46:27.218750
2761,-315.63,2022-10-26 10:46:27.234375
2762,-243.12,2022-10-26 10:46:27.250000
2763,-170.11,2022-10-26 10:46:27.265625
2764,-98.03,2022-10-26 10:46:27.281250
2765,-23.7,2022-10-26 10:46:27.296875
2766,56.85,2022-10-26 10:46:27.312500
2767,144.73,2022-10-26 10:46:27.328125
2768,236.12,2022-10-26 10:46:27.343750
2769,323.18,2022-10-26 10:46:27.359375
2770,397.44,2022-10-26 10:46:27.375000
2771,452.63,2022-10-26 10:46:27.390625
2772,486.49,2022-10-26 10:46:27.406250
2773,499.73,2022-10-26 10:46:27.421875
2774,493.2,2022-10-26 10:46:27.437500
2775,467.15,2022-10-26 10:46:27.453125
2776,421.99,2022-10-26 10:46:27.468750
2777,360.16,2022-10-26 10:46:27.484375
2778,287.62,2022-10-26 10:46:27.500000
2779,213.21,2022-10-26 10:46:27.515625
2780,146.58,2022-10-26 10:46:27.531250
2781,94.64,2022-10-26 10:46:27.546875
2782,58.88,2022-10-26 10:46:27.562500
2783,36.33,2022-10-26 10:46:27.578125
2784,21.2,2022-10-26 10:46:27.593750
2785,7.86,2022-10-26 10:46:27.609375
2786,-6.73,2022-10-26 10:46:27.625000
2787,-21.91,2022-10-26 10:46:27.640625
2788,-33.81,2022-10-26 10:46:27.656250
2789,-37.01,2022-10-26 10:46:27.671875
2790,-26.94,2022-10-26 10:46:27.687500
2791,-1.36,2022-10-26 10:46:27.703125
2792,38.61,2022-10-26 10:46:27.718750
2793,88.65,2022-10-26 10:46:27.734375
2794,142.88,2022-10-26 10:46:27.750000
2795,195.1,2022-10-26 10:46:27.765625
2796,240.71,2022-10-26 10:46:27.781250
2797,277.79,2022-10-26 10:46:27.796875
2798,306.32,2022-10-26 10:46:27.812500
2799,327.07,2022-10-26 10:46:27.828125
2800,339.31,2022-10-26 10:46:27.843750
2801,339.09,2022-10-26 10:46:27.859375
2802,319.74,2022-10-26 10:46:27.875000
2803,273.26,2022-10-26 10:46:27.890625
2804,193.81,2022-10-26 10:46:27.906250
2805,81.44,2022-10-26 10:46:27.921875
2806,-57.24,2022-10-26 10:46:27.937500
2807,-209.78,2022-10-26 10:46:27.953125
2808,-361.74,2022-10-26 10:46:27.968750
2809,-500.82,2022-10-26 10:46:27.984375
2810,-619.42,2022-10-26 10:46:28.000000
2811,-715.1,2022-10-26 10:46:28.015625
2812,-789.19,2022-10-26 10:46:28.031250
2813,-844.09,2022-10-26 10:46:28.046875
2814,-882.42,2022-10-26 10:46:28.062500
2815,-907.31,2022-10-26 10:46:28.078125
2816,-922.5,2022-10-26 10:46:28.093750
2817,-931.57,2022-10-26 10:46:28.109375
2818,-935.37,2022-10-26 10:46:28.125000
2819,-930.8,2022-10-26 10:46:28.140625
2820,-910.59,2022-10-26 10:46:28.156250
2821,-866.81,2022-10-26 10:46:28.171875
2822,-795.16,2022-10-26 10:46:28.187500
2823,-698.08,2022-10-26 10:46:28.203125
2824,-584.56,2022-10-26 10:46:28.218750
2825,-466.47,2022-10-26 10:46:28.234375
2826,-354.37,2022-10-26 10:46:28.250000
2827,-254.37,2022-10-26 10:46:28.265625
2828,-166.82,2022-10-26 10:46:28.281250
2829,-88.27,2022-10-26 10:46:28.296875
2830,-13.22,2022-10-26 10:46:28.312500
2831,63.65,2022-10-26 10:46:28.328125
2832,145.99,2022-10-26 10:46:28.343750
2833,234.19,2022-10-26 10:46:28.359375
2834,325.18,2022-10-26 10:46:28.375000
2835,412.55,2022-10-26 10:46:28.390625
2836,488.4,2022-10-26 10:46:28.406250
2837,546.34,2022-10-26 10:46:28.421875
2838,583.8,2022-10-26 10:46:28.437500
2839,602.23,2022-10-26 10:46:28.453125
2840,604.21,2022-10-26 10:46:28.468750
2841,590.66,2022-10-26 10:46:28.484375
2842,558.84,2022-10-26 10:46:28.500000
2843,505.53,2022-10-26 10:46:28.515625
2844,431.06,2022-10-26 10:46:28.531250
2845,343.12,2022-10-26 10:46:28.546875
2846,256.45,2022-10-26 10:46:28.562500
2847,188.1,2022-10-26 10:46:28.578125
2848,150.0,2022-10-26 10:46:28.593750
2849,143.79,2022-10-26 10:46:28.609375
2850,160.28,2022-10-26 10:46:28.625000
2851,184.05,2022-10-26 10:46:28.640625
2852,200.57,2022-10-26 10:46:28.656250
2853,201.58,2022-10-26 10:46:28.671875
2854,187.86,2022-10-26 10:46:28.687500
2855,165.51,2022-10-26 10:46:28.703125
2856,141.01,2022-10-26 10:46:28.718750
2857,117.92,2022-10-26 10:46:28.734375
2858,96.03,2022-10-26 10:46:28.750000
2859,74.06,2022-10-26 10:46:28.765625
2860,52.59,2022-10-26 10:46:28.781250
2861,34.19,2022-10-26 10:46:28.796875
2862,22.11,2022-10-26 10:46:28.812500
2863,17.61,2022-10-26 10:46:28.828125
2864,18.18,2022-10-26 10:46:28.843750
2865,19.3,2022-10-26 10:46:28.859375
2866,16.87,2022-10-26 10:46:28.875000
2867,10.82,2022-10-26 10:46:28.890625
2868,5.38,2022-10-26 10:46:28.906250
2869,6.75,2022-10-26 10:46:28.921875
2870,19.08,2022-10-26 10:46:28.937500
2871,41.92,2022-10-26 10:46:28.953125
2872,69.46,2022-10-26 10:46:28.968750
2873,94.48,2022-10-26 10:46:28.984375
2874,111.59,2022-10-26 10:46:29.000000
2875,119.15,2022-10-26 10:46:29.015625
2876,118.38,2022-10-26 10:46:29.031250
2877,111.33,2022-10-26 10:46:29.046875
2878,98.95,2022-10-26 10:46:29.062500
2879,82.12,2022-10-26 10:46:29.078125
2880,61.82,2022-10-26 10:46:29.093750
2881,41.39,2022-10-26 10:46:29.109375
2882,24.57,2022-10-26 10:46:29.125000
2883,14.15,2022-10-26 10:46:29.140625
2884,10.15,2022-10-26 10:46:29.156250
2885,8.29,2022-10-26 10:46:29.171875
2886,2.8,2022-10-26 10:46:29.187500
2887,-10.04,2022-10-26 10:46:29.203125
2888,-29.83,2022-10-26 10:46:29.218750
2889,-51.25,2022-10-26 10:46:29.234375
2890,-67.73,2022-10-26 10:46:29.250000
2891,-73.98,2022-10-26 10:46:29.265625
2892,-68.56,2022-10-26 10:46:29.281250
2893,-54.91,2022-10-26 10:46:29.296875
2894,-38.74,2022-10-26 10:46:29.312500
2895,-25.93,2022-10-26 10:46:29.328125
2896,-20.08,2022-10-26 10:46:29.343750
2897,-21.14,2022-10-26 10:46:29.359375
2898,-25.96,2022-10-26 10:46:29.375000
2899,-29.76,2022-10-26 10:46:29.390625
2900,-27.57,2022-10-26 10:46:29.406250
2901,-16.28,2022-10-26 10:46:29.421875
2902,4.9,2022-10-26 10:46:29.437500
2903,35.04,2022-10-26 10:46:29.453125
2904,71.49,2022-10-26 10:46:29.468750
2905,111.18,2022-10-26 10:46:29.484375
2906,151.5,2022-10-26 10:46:29.500000
2907,190.56,2022-10-26 10:46:29.515625
2908,226.87,2022-10-26 10:46:29.531250
2909,259.86,2022-10-26 10:46:29.546875
2910,289.57,2022-10-26 10:46:29.562500
2911,317.1,2022-10-26 10:46:29.578125
2912,342.77,2022-10-26 10:46:29.593750
2913,365.25,2022-10-26 10:46:29.609375
2914,380.42,2022-10-26 10:46:29.625000
2915,381.96,2022-10-26 10:46:29.640625
2916,365.06,2022-10-26 10:46:29.656250
2917,329.89,2022-10-26 10:46:29.671875
2918,282.31,2022-10-26 10:46:29.687500
2919,232.86,2022-10-26 10:46:29.703125
2920,192.76,2022-10-26 10:46:29.718750
2921,169.03,2022-10-26 10:46:29.734375
2922,161.12,2022-10-26 10:46:29.750000
2923,161.7,2022-10-26 10:46:29.765625
2924,160.81,2022-10-26 10:46:29.781250
2925,149.91,2022-10-26 10:46:29.796875
2926,125.5,2022-10-26 10:46:29.812500
2927,89.29,2022-10-26 10:46:29.828125
2928,45.84,2022-10-26 10:46:29.843750
2929,-0.18,2022-10-26 10:46:29.859375
2930,-44.92,2022-10-26 10:46:29.875000
2931,-86.38,2022-10-26 10:46:29.890625
2932,-122.62,2022-10-26 10:46:29.906250
2933,-152.78,2022-10-26 10:46:29.921875
2934,-177.24,2022-10-26 10:46:29.937500
2935,-197.47,2022-10-26 10:46:29.953125
2936,-216.45,2022-10-26 10:46:29.968750
2937,-236.9,2022-10-26 10:46:29.984375
2938,-260.16,2022-10-26 10:46:30.000000
2939,-285.23,2022-10-26 10:46:30.015625
2940,-308.98,2022-10-26 10:46:30.031250
2941,-328.27,2022-10-26 10:46:30.046875
2942,-341.02,2022-10-26 10:46:30.062500
2943,-346.77,2022-10-26 10:46:30.078125
2944,-345.66,2022-10-26 10:46:30.093750
2945,-337.19,2022-10-26 10:46:30.109375
2946,-319.7,2022-10-26 10:46:30.125000
2947,-291.8,2022-10-26 10:46:30.140625
2948,-254.96,2022-10-26 10:46:30.156250
2949,-213.94,2022-10-26 10:46:30.171875
2950,-175.02,2022-10-26 10:46:30.187500
2951,-142.73,2022-10-26 10:46:30.203125
2952,-115.75,2022-10-26 10:46:30.218750
2953,-86.28,2022-10-26 10:46:30.234375
2954,-43.07,2022-10-26 10:46:30.250000
2955,22.74,2022-10-26 10:46:30.265625
2956,113.07,2022-10-26 10:46:30.281250
2957,220.62,2022-10-26 10:46:30.296875
2958,331.29,2022-10-26 10:46:30.312500
2959,429.39,2022-10-26 10:46:30.328125
2960,501.94,2022-10-26 10:46:30.343750
2961,541.65,2022-10-26 10:46:30.359375
2962,546.8,2022-10-26 10:46:30.375000
2963,519.12,2022-10-26 10:46:30.390625
2964,462.48,2022-10-26 10:46:30.406250
2965,382.17,2022-10-26 10:46:30.421875
2966,285.12,2022-10-26 10:46:30.437500
2967,180.37,2022-10-26 10:46:30.453125
2968,78.04,2022-10-26 10:46:30.468750
2969,-12.82,2022-10-26 10:46:30.484375
2970,-86.53,2022-10-26 10:46:30.500000
2971,-142.32,2022-10-26 10:46:30.515625
2972,-182.81,2022-10-26 10:46:30.531250
2973,-212.11,2022-10-26 10:46:30.546875
2974,-233.66,2022-10-26 10:46:30.562500
2975,-248.83,2022-10-26 10:46:30.578125
2976,-257.43,2022-10-26 10:46:30.593750
2977,-257.96,2022-10-26 10:46:30.609375
2978,-248.31,2022-10-26 10:46:30.625000
2979,-225.72,2022-10-26 10:46:30.640625
2980,-187.53,2022-10-26 10:46:30.656250
2981,-133.5,2022-10-26 10:46:30.671875
2982,-67.73,2022-10-26 10:46:30.687500
2983,-0.11,2022-10-26 10:46:30.703125
2984,55.6,2022-10-26 10:46:30.718750
2985,87.13,2022-10-26 10:46:30.734375
2986,89.42,2022-10-26 10:46:30.750000
2987,67.14,2022-10-26 10:46:30.765625
2988,32.67,2022-10-26 10:46:30.781250
2989,0.0,2022-10-26 10:46:30.796875
2990,-21.5,2022-10-26 10:46:30.812500
2991,-30.22,2022-10-26 10:46:30.828125
2992,-30.43,2022-10-26 10:46:30.843750
2993,-27.52,2022-10-26 10:46:30.859375
2994,-24.72,2022-10-26 10:46:30.875000
2995,-21.68,2022-10-26 10:46:30.890625
2996,-17.05,2022-10-26 10:46:30.906250
2997,-11.19,2022-10-26 10:46:30.921875
2998,-6.72,2022-10-26 10:46:30.937500
2999,-7.69,2022-10-26 10:46:30.953125
3000,-16.93,2022-10-26 10:46:30.968750
3001,-33.85,2022-10-26 10:46:30.984375
3002,-54.16,2022-10-26 10:46:31.000000
3003,-71.52,2022-10-26 10:46:31.015625
3004,-80.45,2022-10-26 10:46:31.031250
3005,-78.77,2022-10-26 10:46:31.046875
3006,-69.42,2022-10-26 10:46:31.062500
3007,-59.66,2022-10-26 10:46:31.078125
3008,-58.67,2022-10-26 10:46:31.093750
3009,-73.33,2022-10-26 10:46:31.109375
3010,-104.54,2022-10-26 10:46:31.125000
3011,-145.87,2022-10-26 10:46:31.140625
3012,-185.42,2022-10-26 10:46:31.156250
3013,-211.2,2022-10-26 10:46:31.171875
3014,-215.89,2022-10-26 10:46:31.187500
3015,-200.22,2022-10-26 10:46:31.203125
3016,-171.9,2022-10-26 10:46:31.218750
3017,-141.4,2022-10-26 10:46:31.234375
3018,-117.15,2022-10-26 10:46:31.250000
3019,-101.37,2022-10-26 10:46:31.265625
3020,-89.62,2022-10-26 10:46:31.281250
3021,-73.41,2022-10-26 10:46:31.296875
3022,-43.78,2022-10-26 10:46:31.312500
3023,4.48,2022-10-26 10:46:31.328125
3024,70.19,2022-10-26 10:46:31.343750
3025,146.26,2022-10-26 10:46:31.359375
3026,222.38,2022-10-26 10:46:31.375000
3027,289.48,2022-10-26 10:46:31.390625
3028,342.71,2022-10-26 10:46:31.406250
3029,381.03,2022-10-26 10:46:31.421875
3030,405.66,2022-10-26 10:46:31.437500
3031,417.13,2022-10-26 10:46:31.453125
3032,414.07,2022-10-26 10:46:31.468750
3033,394.05,2022-10-26 10:46:31.484375
3034,355.45,2022-10-26 10:46:31.500000
3035,299.61,2022-10-26 10:46:31.515625
3036,230.16,2022-10-26 10:46:31.531250
3037,152.62,2022-10-26 10:46:31.546875
3038,73.45,2022-10-26 10:46:31.562500
3039,0.02,2022-10-26 10:46:31.578125
3040,-59.19,2022-10-26 10:46:31.593750
3041,-95.63,2022-10-26 10:46:31.609375
3042,-103.79,2022-10-26 10:46:31.625000
3043,-84.23,2022-10-26 10:46:31.640625
3044,-44.82,2022-10-26 10:46:31.656250
3045,1.6,2022-10-26 10:46:31.671875
3046,42.54,2022-10-26 10:46:31.687500
3047,70.38,2022-10-26 10:46:31.703125
3048,83.62,2022-10-26 10:46:31.718750
3049,84.49,2022-10-26 10:46:31.734375
3050,74.96,2022-10-26 10:46:31.750000
3051,54.87,2022-10-26 10:46:31.765625
3052,22.48,2022-10-26 10:46:31.781250
3053,-22.22,2022-10-26 10:46:31.796875
3054,-75.89,2022-10-26 10:46:31.812500
3055,-131.65,2022-10-26 10:46:31.828125
3056,-181.24,2022-10-26 10:46:31.843750
3057,-218.15,2022-10-26 10:46:31.859375
3058,-239.02,2022-10-26 10:46:31.875000
3059,-243.79,2022-10-26 10:46:31.890625
3060,-233.27,2022-10-26 10:46:31.906250
3061,-207.77,2022-10-26 10:46:31.921875
3062,-166.65,2022-10-26 10:46:31.937500
3063,-109.41,2022-10-26 10:46:31.953125
3064,-37.56,2022-10-26 10:46:31.968750
3065,43.55,2022-10-26 10:46:31.984375
3066,125.24,2022-10-26 10:46:32.000000
3067,197.68,2022-10-26 10:46:32.015625
3068,252.53,2022-10-26 10:46:32.031250
3069,285.97,2022-10-26 10:46:32.046875
3070,298.45,2022-10-26 10:46:32.062500
3071,294.0,2022-10-26 10:46:32.078125
3072,278.31,2022-10-26 10:46:32.093750
3073,256.96,2022-10-26 10:46:32.109375
3074,234.01,2022-10-26 10:46:32.125000
3075,210.99,2022-10-26 10:46:32.140625
3076,187.08,2022-10-26 10:46:32.156250
3077,159.58,2022-10-26 10:46:32.171875
3078,124.55,2022-10-26 10:46:32.187500
3079,79.83,2022-10-26 10:46:32.203125
3080,26.62,2022-10-26 10:46:32.218750
3081,-30.1,2022-10-26 10:46:32.234375
3082,-82.56,2022-10-26 10:46:32.250000
3083,-122.48,2022-10-26 10:46:32.265625
3084,-143.77,2022-10-26 10:46:32.281250
3085,-143.03,2022-10-26 10:46:32.296875
3086,-118.92,2022-10-26 10:46:32.312500
3087,-71.2,2022-10-26 10:46:32.328125
3088,-0.83,2022-10-26 10:46:32.343750
3089,88.25,2022-10-26 10:46:32.359375
3090,186.98,2022-10-26 10:46:32.375000
3091,282.26,2022-10-26 10:46:32.390625
3092,359.75,2022-10-26 10:46:32.406250
3093,409.68,2022-10-26 10:46:32.421875
3094,430.69,2022-10-26 10:46:32.437500
3095,429.12,2022-10-26 10:46:32.453125
