,BVP,time
0,264.94,2022-10-28 16:22:59.000000
1,268.36,2022-10-28 16:22:59.015625
2,266.29,2022-10-28 16:22:59.031250
3,259.49,2022-10-28 16:22:59.046875
4,249.14,2022-10-28 16:22:59.062500
5,236.61,2022-10-28 16:22:59.078125
6,223.29,2022-10-28 16:22:59.093750
7,210.27,2022-10-28 16:22:59.109375
8,198.19,2022-10-28 16:22:59.125000
9,187.27,2022-10-28 16:22:59.140625
10,177.47,2022-10-28 16:22:59.156250
11,168.76,2022-10-28 16:22:59.171875
12,161.15,2022-10-28 16:22:59.187500
13,154.7,2022-10-28 16:22:59.203125
14,149.25,2022-10-28 16:22:59.218750
15,144.26,2022-10-28 16:22:59.234375
16,138.82,2022-10-28 16:22:59.250000
17,131.82,2022-10-28 16:22:59.265625
18,122.35,2022-10-28 16:22:59.281250
19,110.05,2022-10-28 16:22:59.296875
20,95.3,2022-10-28 16:22:59.312500
21,79.14,2022-10-28 16:22:59.328125
22,62.94,2022-10-28 16:22:59.343750
23,47.97,2022-10-28 16:22:59.359375
24,34.99,2022-10-28 16:22:59.375000
25,24.11,2022-10-28 16:22:59.390625
26,14.94,2022-10-28 16:22:59.406250
27,6.81,2022-10-28 16:22:59.421875
28,-0.88,2022-10-28 16:22:59.437500
29,-8.53,2022-10-28 16:22:59.453125
30,-16.21,2022-10-28 16:22:59.468750
31,-23.88,2022-10-28 16:22:59.484375
32,-31.5,2022-10-28 16:22:59.500000
33,-39.18,2022-10-28 16:22:59.515625
34,-47.25,2022-10-28 16:22:59.531250
35,-56.1,2022-10-28 16:22:59.546875
36,-66.04,2022-10-28 16:22:59.562500
37,-76.94,2022-10-28 16:22:59.578125
38,-88.02,2022-10-28 16:22:59.593750
39,-97.87,2022-10-28 16:22:59.609375
40,-104.81,2022-10-28 16:22:59.625000
41,-107.44,2022-10-28 16:22:59.640625
42,-105.31,2022-10-28 16:22:59.656250
43,-99.15,2022-10-28 16:22:59.671875
44,-90.63,2022-10-28 16:22:59.687500
45,-81.64,2022-10-28 16:22:59.703125
46,-73.43,2022-10-28 16:22:59.718750
47,-66.12,2022-10-28 16:22:59.734375
48,-58.94,2022-10-28 16:22:59.750000
49,-50.8,2022-10-28 16:22:59.765625
50,-41.22,2022-10-28 16:22:59.781250
51,-30.69,2022-10-28 16:22:59.796875
52,-20.48,2022-10-28 16:22:59.812500
53,-11.95,2022-10-28 16:22:59.828125
54,-5.74,2022-10-28 16:22:59.843750
55,-1.42,2022-10-28 16:22:59.859375
56,2.26,2022-10-28 16:22:59.875000
57,6.63,2022-10-28 16:22:59.890625
58,12.38,2022-10-28 16:22:59.906250
59,19.19,2022-10-28 16:22:59.921875
60,26.13,2022-10-28 16:22:59.937500
61,32.3,2022-10-28 16:22:59.953125
62,37.59,2022-10-28 16:22:59.968750
63,43.02,2022-10-28 16:22:59.984375
64,50.3,2022-10-28 16:23:00.000000
65,60.98,2022-10-28 16:23:00.015625
66,75.54,2022-10-28 16:23:00.031250
67,92.86,2022-10-28 16:23:00.046875
68,110.52,2022-10-28 16:23:00.062500
69,125.6,2022-10-28 16:23:00.078125
70,135.65,2022-10-28 16:23:00.093750
71,139.22,2022-10-28 16:23:00.109375
72,135.81,2022-10-28 16:23:00.125000
73,125.44,2022-10-28 16:23:00.140625
74,108.51,2022-10-28 16:23:00.156250
75,86.07,2022-10-28 16:23:00.171875
76,60.47,2022-10-28 16:23:00.187500
77,35.9,2022-10-28 16:23:00.203125
78,17.74,2022-10-28 16:23:00.218750
79,10.72,2022-10-28 16:23:00.234375
80,16.52,2022-10-28 16:23:00.250000
81,32.01,2022-10-28 16:23:00.265625
82,49.6,2022-10-28 16:23:00.281250
83,59.69,2022-10-28 16:23:00.296875
84,54.44,2022-10-28 16:23:00.312500
85,30.73,2022-10-28 16:23:00.328125
86,-8.92,2022-10-28 16:23:00.343750
87,-58.01,2022-10-28 16:23:00.359375
88,-108.91,2022-10-28 16:23:00.375000
89,-155.27,2022-10-28 16:23:00.390625
90,-192.86,2022-10-28 16:23:00.406250
91,-219.02,2022-10-28 16:23:00.421875
92,-231.69,2022-10-28 16:23:00.437500
93,-229.37,2022-10-28 16:23:00.453125
94,-211.98,2022-10-28 16:23:00.468750
95,-181.9,2022-10-28 16:23:00.484375
96,-144.23,2022-10-28 16:23:00.500000
97,-105.7,2022-10-28 16:23:00.515625
98,-72.52,2022-10-28 16:23:00.531250
99,-48.63,2022-10-28 16:23:00.546875
100,-34.85,2022-10-28 16:23:00.562500
101,-29.61,2022-10-28 16:23:00.578125
102,-30.21,2022-10-28 16:23:00.593750
103,-34.16,2022-10-28 16:23:00.609375
104,-39.81,2022-10-28 16:23:00.625000
105,-46.26,2022-10-28 16:23:00.640625
106,-52.92,2022-10-28 16:23:00.656250
107,-59.16,2022-10-28 16:23:00.671875
108,-64.26,2022-10-28 16:23:00.687500
109,-67.56,2022-10-28 16:23:00.703125
110,-68.67,2022-10-28 16:23:00.718750
111,-67.67,2022-10-28 16:23:00.734375
112,-65.05,2022-10-28 16:23:00.750000
113,-61.66,2022-10-28 16:23:00.765625
114,-58.43,2022-10-28 16:23:00.781250
115,-56.14,2022-10-28 16:23:00.796875
116,-55.21,2022-10-28 16:23:00.812500
117,-55.61,2022-10-28 16:23:00.828125
118,-56.94,2022-10-28 16:23:00.843750
119,-58.58,2022-10-28 16:23:00.859375
120,-59.84,2022-10-28 16:23:00.875000
121,-60.13,2022-10-28 16:23:00.890625
122,-59.09,2022-10-28 16:23:00.906250
123,-56.58,2022-10-28 16:23:00.921875
124,-52.65,2022-10-28 16:23:00.937500
125,-47.49,2022-10-28 16:23:00.953125
126,-41.42,2022-10-28 16:23:00.968750
127,-34.87,2022-10-28 16:23:00.984375
128,-28.31,2022-10-28 16:23:01.000000
129,-22.24,2022-10-28 16:23:01.015625
130,-16.99,2022-10-28 16:23:01.031250
131,-12.65,2022-10-28 16:23:01.046875
132,-8.87,2022-10-28 16:23:01.062500
133,-4.98,2022-10-28 16:23:01.078125
134,-0.16,2022-10-28 16:23:01.093750
135,6.14,2022-10-28 16:23:01.109375
136,13.91,2022-10-28 16:23:01.125000
137,22.4,2022-10-28 16:23:01.140625
138,30.4,2022-10-28 16:23:01.156250
139,36.65,2022-10-28 16:23:01.171875
140,40.45,2022-10-28 16:23:01.187500
141,41.94,2022-10-28 16:23:01.203125
142,42.07,2022-10-28 16:23:01.218750
143,41.97,2022-10-28 16:23:01.234375
144,42.32,2022-10-28 16:23:01.250000
145,42.96,2022-10-28 16:23:01.265625
146,42.92,2022-10-28 16:23:01.281250
147,41.12,2022-10-28 16:23:01.296875
148,36.94,2022-10-28 16:23:01.312500
149,30.61,2022-10-28 16:23:01.328125
150,22.91,2022-10-28 16:23:01.343750
151,14.61,2022-10-28 16:23:01.359375
152,5.89,2022-10-28 16:23:01.375000
153,-3.61,2022-10-28 16:23:01.390625
154,-14.38,2022-10-28 16:23:01.406250
155,-26.35,2022-10-28 16:23:01.421875
156,-38.54,2022-10-28 16:23:01.437500
157,-49.4,2022-10-28 16:23:01.453125
158,-57.47,2022-10-28 16:23:01.468750
159,-62.24,2022-10-28 16:23:01.484375
160,-64.29,2022-10-28 16:23:01.500000
161,-65.02,2022-10-28 16:23:01.515625
162,-65.79,2022-10-28 16:23:01.531250
163,-67.39,2022-10-28 16:23:01.546875
164,-69.79,2022-10-28 16:23:01.562500
165,-72.42,2022-10-28 16:23:01.578125
166,-74.66,2022-10-28 16:23:01.593750
167,-76.17,2022-10-28 16:23:01.609375
168,-77.04,2022-10-28 16:23:01.625000
169,-77.54,2022-10-28 16:23:01.640625
170,-77.92,2022-10-28 16:23:01.656250
171,-78.34,2022-10-28 16:23:01.671875
172,-78.92,2022-10-28 16:23:01.687500
173,-79.89,2022-10-28 16:23:01.703125
174,-81.59,2022-10-28 16:23:01.718750
175,-84.27,2022-10-28 16:23:01.734375
176,-87.78,2022-10-28 16:23:01.750000
177,-91.36,2022-10-28 16:23:01.765625
178,-93.65,2022-10-28 16:23:01.781250
179,-93.1,2022-10-28 16:23:01.796875
180,-88.59,2022-10-28 16:23:01.812500
181,-80.02,2022-10-28 16:23:01.828125
182,-68.46,2022-10-28 16:23:01.843750
183,-55.7,2022-10-28 16:23:01.859375
184,-43.48,2022-10-28 16:23:01.875000
185,-32.63,2022-10-28 16:23:01.890625
186,-22.81,2022-10-28 16:23:01.906250
187,-12.88,2022-10-28 16:23:01.921875
188,-1.68,2022-10-28 16:23:01.937500
189,11.12,2022-10-28 16:23:01.953125
190,24.66,2022-10-28 16:23:01.968750
191,37.04,2022-10-28 16:23:01.984375
192,45.9,2022-10-28 16:23:02.000000
193,49.19,2022-10-28 16:23:02.015625
194,45.92,2022-10-28 16:23:02.031250
195,36.33,2022-10-28 16:23:02.046875
196,21.88,2022-10-28 16:23:02.062500
197,4.76,2022-10-28 16:23:02.078125
198,-12.82,2022-10-28 16:23:02.093750
199,-29.25,2022-10-28 16:23:02.109375
200,-43.79,2022-10-28 16:23:02.125000
201,-56.4,2022-10-28 16:23:02.140625
202,-67.38,2022-10-28 16:23:02.156250
203,-77.03,2022-10-28 16:23:02.171875
204,-85.64,2022-10-28 16:23:02.187500
205,-93.83,2022-10-28 16:23:02.203125
206,-102.76,2022-10-28 16:23:02.218750
207,-113.77,2022-10-28 16:23:02.234375
208,-127.49,2022-10-28 16:23:02.250000
209,-143.09,2022-10-28 16:23:02.265625
210,-158.36,2022-10-28 16:23:02.281250
211,-170.79,2022-10-28 16:23:02.296875
212,-179.1,2022-10-28 16:23:02.312500
213,-184.29,2022-10-28 16:23:02.328125
214,-189.39,2022-10-28 16:23:02.343750
215,-198.1,2022-10-28 16:23:02.359375
216,-213.07,2022-10-28 16:23:02.375000
217,-235.04,2022-10-28 16:23:02.390625
218,-262.96,2022-10-28 16:23:02.406250
219,-294.87,2022-10-28 16:23:02.421875
220,-328.51,2022-10-28 16:23:02.437500
221,-361.25,2022-10-28 16:23:02.453125
222,-389.76,2022-10-28 16:23:02.468750
223,-409.94,2022-10-28 16:23:02.484375
224,-417.92,2022-10-28 16:23:02.500000
225,-411.66,2022-10-28 16:23:02.515625
226,-392.15,2022-10-28 16:23:02.531250
227,-363.26,2022-10-28 16:23:02.546875
228,-330.26,2022-10-28 16:23:02.562500
229,-297.56,2022-10-28 16:23:02.578125
230,-267.23,2022-10-28 16:23:02.593750
231,-238.9,2022-10-28 16:23:02.609375
232,-210.88,2022-10-28 16:23:02.625000
233,-181.66,2022-10-28 16:23:02.640625
234,-150.66,2022-10-28 16:23:02.656250
235,-118.34,2022-10-28 16:23:02.671875
236,-85.4,2022-10-28 16:23:02.687500
237,-52.37,2022-10-28 16:23:02.703125
238,-19.67,2022-10-28 16:23:02.718750
239,11.9,2022-10-28 16:23:02.734375
240,40.76,2022-10-28 16:23:02.750000
241,64.74,2022-10-28 16:23:02.765625
242,81.9,2022-10-28 16:23:02.781250
243,91.57,2022-10-28 16:23:02.796875
244,95.03,2022-10-28 16:23:02.812500
245,95.36,2022-10-28 16:23:02.828125
246,96.48,2022-10-28 16:23:02.843750
247,101.77,2022-10-28 16:23:02.859375
248,112.8,2022-10-28 16:23:02.875000
249,128.76,2022-10-28 16:23:02.890625
250,146.88,2022-10-28 16:23:02.906250
251,163.38,2022-10-28 16:23:02.921875
252,174.82,2022-10-28 16:23:02.937500
253,179.13,2022-10-28 16:23:02.953125
254,175.99,2022-10-28 16:23:02.968750
255,166.58,2022-10-28 16:23:02.984375
256,152.77,2022-10-28 16:23:03.000000
257,136.46,2022-10-28 16:23:03.015625
258,118.98,2022-10-28 16:23:03.031250
259,101.08,2022-10-28 16:23:03.046875
260,83.0,2022-10-28 16:23:03.062500
261,64.61,2022-10-28 16:23:03.078125
262,45.44,2022-10-28 16:23:03.093750
263,24.65,2022-10-28 16:23:03.109375
264,1.21,2022-10-28 16:23:03.125000
265,-25.46,2022-10-28 16:23:03.140625
266,-54.73,2022-10-28 16:23:03.156250
267,-84.29,2022-10-28 16:23:03.171875
268,-110.34,2022-10-28 16:23:03.187500
269,-128.67,2022-10-28 16:23:03.203125
270,-136.07,2022-10-28 16:23:03.218750
271,-131.5,2022-10-28 16:23:03.234375
272,-116.41,2022-10-28 16:23:03.250000
273,-93.93,2022-10-28 16:23:03.265625
274,-67.5,2022-10-28 16:23:03.281250
275,-39.54,2022-10-28 16:23:03.296875
276,-10.98,2022-10-28 16:23:03.312500
277,18.23,2022-10-28 16:23:03.328125
278,47.92,2022-10-28 16:23:03.343750
279,76.73,2022-10-28 16:23:03.359375
280,102.03,2022-10-28 16:23:03.375000
281,120.74,2022-10-28 16:23:03.390625
282,130.84,2022-10-28 16:23:03.406250
283,132.24,2022-10-28 16:23:03.421875
284,126.92,2022-10-28 16:23:03.437500
285,118.04,2022-10-28 16:23:03.453125
286,108.69,2022-10-28 16:23:03.468750
287,100.89,2022-10-28 16:23:03.484375
288,95.49,2022-10-28 16:23:03.500000
289,92.6,2022-10-28 16:23:03.515625
290,92.26,2022-10-28 16:23:03.531250
291,94.71,2022-10-28 16:23:03.546875
292,100.05,2022-10-28 16:23:03.562500
293,107.71,2022-10-28 16:23:03.578125
294,116.1,2022-10-28 16:23:03.593750
295,122.93,2022-10-28 16:23:03.609375
296,126.05,2022-10-28 16:23:03.625000
297,124.22,2022-10-28 16:23:03.640625
298,117.59,2022-10-28 16:23:03.656250
299,107.43,2022-10-28 16:23:03.671875
300,95.51,2022-10-28 16:23:03.687500
301,83.21,2022-10-28 16:23:03.703125
302,71.11,2022-10-28 16:23:03.718750
303,58.79,2022-10-28 16:23:03.734375
304,45.08,2022-10-28 16:23:03.750000
305,28.51,2022-10-28 16:23:03.765625
306,7.95,2022-10-28 16:23:03.781250
307,-16.69,2022-10-28 16:23:03.796875
308,-43.89,2022-10-28 16:23:03.812500
309,-70.48,2022-10-28 16:23:03.828125
310,-92.27,2022-10-28 16:23:03.843750
311,-105.2,2022-10-28 16:23:03.859375
312,-106.66,2022-10-28 16:23:03.875000
313,-96.31,2022-10-28 16:23:03.890625
314,-76.0,2022-10-28 16:23:03.906250
315,-48.79,2022-10-28 16:23:03.921875
316,-17.73,2022-10-28 16:23:03.937500
317,15.02,2022-10-28 16:23:03.953125
318,48.23,2022-10-28 16:23:03.968750
319,81.03,2022-10-28 16:23:03.984375
320,112.13,2022-10-28 16:23:04.000000
321,139.54,2022-10-28 16:23:04.015625
322,160.94,2022-10-28 16:23:04.031250
323,174.52,2022-10-28 16:23:04.046875
324,179.68,2022-10-28 16:23:04.062500
325,177.33,2022-10-28 16:23:04.078125
326,169.46,2022-10-28 16:23:04.093750
327,158.47,2022-10-28 16:23:04.109375
328,146.52,2022-10-28 16:23:04.125000
329,135.09,2022-10-28 16:23:04.140625
330,125.05,2022-10-28 16:23:04.156250
331,116.88,2022-10-28 16:23:04.171875
332,110.93,2022-10-28 16:23:04.187500
333,107.5,2022-10-28 16:23:04.203125
334,106.68,2022-10-28 16:23:04.218750
335,108.12,2022-10-28 16:23:04.234375
336,110.9,2022-10-28 16:23:04.250000
337,113.52,2022-10-28 16:23:04.265625
338,114.3,2022-10-28 16:23:04.281250
339,111.88,2022-10-28 16:23:04.296875
340,105.63,2022-10-28 16:23:04.312500
341,95.89,2022-10-28 16:23:04.328125
342,83.7,2022-10-28 16:23:04.343750
343,70.38,2022-10-28 16:23:04.359375
344,56.96,2022-10-28 16:23:04.375000
345,43.88,2022-10-28 16:23:04.390625
346,30.84,2022-10-28 16:23:04.406250
347,16.93,2022-10-28 16:23:04.421875
348,0.98,2022-10-28 16:23:04.437500
349,-18.02,2022-10-28 16:23:04.453125
350,-40.31,2022-10-28 16:23:04.468750
351,-64.84,2022-10-28 16:23:04.484375
352,-89.03,2022-10-28 16:23:04.500000
353,-109.1,2022-10-28 16:23:04.515625
354,-120.92,2022-10-28 16:23:04.531250
355,-121.19,2022-10-28 16:23:04.546875
356,-108.37,2022-10-28 16:23:04.562500
357,-83.08,2022-10-28 16:23:04.578125
358,-47.83,2022-10-28 16:23:04.593750
359,-6.13,2022-10-28 16:23:04.609375
360,38.14,2022-10-28 16:23:04.625000
361,81.39,2022-10-28 16:23:04.640625
362,120.43,2022-10-28 16:23:04.656250
363,152.59,2022-10-28 16:23:04.671875
364,175.9,2022-10-28 16:23:04.687500
365,189.36,2022-10-28 16:23:04.703125
366,193.27,2022-10-28 16:23:04.718750
367,189.18,2022-10-28 16:23:04.734375
368,179.43,2022-10-28 16:23:04.750000
369,166.58,2022-10-28 16:23:04.765625
370,152.76,2022-10-28 16:23:04.781250
371,139.34,2022-10-28 16:23:04.796875
372,127.06,2022-10-28 16:23:04.812500
373,116.17,2022-10-28 16:23:04.828125
374,106.67,2022-10-28 16:23:04.843750
375,98.53,2022-10-28 16:23:04.859375
376,91.82,2022-10-28 16:23:04.875000
377,86.83,2022-10-28 16:23:04.890625
378,83.99,2022-10-28 16:23:04.906250
379,83.67,2022-10-28 16:23:04.921875
380,85.72,2022-10-28 16:23:04.937500
381,89.17,2022-10-28 16:23:04.953125
382,92.27,2022-10-28 16:23:04.968750
383,92.87,2022-10-28 16:23:04.984375
384,89.3,2022-10-28 16:23:05.000000
385,81.0,2022-10-28 16:23:05.015625
386,68.76,2022-10-28 16:23:05.031250
387,54.26,2022-10-28 16:23:05.046875
388,39.3,2022-10-28 16:23:05.062500
389,25.0,2022-10-28 16:23:05.078125
390,11.37,2022-10-28 16:23:05.093750
391,-2.47,2022-10-28 16:23:05.109375
392,-17.84,2022-10-28 16:23:05.125000
393,-35.87,2022-10-28 16:23:05.140625
394,-56.99,2022-10-28 16:23:05.156250
395,-80.48,2022-10-28 16:23:05.171875
396,-104.28,2022-10-28 16:23:05.187500
397,-124.98,2022-10-28 16:23:05.203125
398,-138.46,2022-10-28 16:23:05.218750
399,-140.87,2022-10-28 16:23:05.234375
400,-129.97,2022-10-28 16:23:05.250000
401,-105.95,2022-10-28 16:23:05.265625
402,-71.49,2022-10-28 16:23:05.281250
403,-30.97,2022-10-28 16:23:05.296875
404,10.9,2022-10-28 16:23:05.312500
405,50.22,2022-10-28 16:23:05.328125
406,84.39,2022-10-28 16:23:05.343750
407,111.99,2022-10-28 16:23:05.359375
408,132.25,2022-10-28 16:23:05.375000
409,144.72,2022-10-28 16:23:05.390625
410,149.26,2022-10-28 16:23:05.406250
411,146.31,2022-10-28 16:23:05.421875
412,137.18,2022-10-28 16:23:05.437500
413,123.96,2022-10-28 16:23:05.453125
414,109.16,2022-10-28 16:23:05.468750
415,95.04,2022-10-28 16:23:05.484375
416,83.19,2022-10-28 16:23:05.500000
417,74.26,2022-10-28 16:23:05.515625
418,68.11,2022-10-28 16:23:05.531250
419,64.18,2022-10-28 16:23:05.546875
420,61.85,2022-10-28 16:23:05.562500
421,60.73,2022-10-28 16:23:05.578125
422,60.77,2022-10-28 16:23:05.593750
423,62.01,2022-10-28 16:23:05.609375
424,64.32,2022-10-28 16:23:05.625000
425,67.18,2022-10-28 16:23:05.640625
426,69.58,2022-10-28 16:23:05.656250
427,70.22,2022-10-28 16:23:05.671875
428,67.93,2022-10-28 16:23:05.687500
429,62.06,2022-10-28 16:23:05.703125
430,52.74,2022-10-28 16:23:05.718750
431,40.88,2022-10-28 16:23:05.734375
432,27.77,2022-10-28 16:23:05.750000
433,14.72,2022-10-28 16:23:05.765625
434,2.63,2022-10-28 16:23:05.781250
435,-8.25,2022-10-28 16:23:05.796875
436,-18.18,2022-10-28 16:23:05.812500
437,-27.83,2022-10-28 16:23:05.828125
438,-38.11,2022-10-28 16:23:05.843750
439,-50.05,2022-10-28 16:23:05.859375
440,-64.51,2022-10-28 16:23:05.875000
441,-81.78,2022-10-28 16:23:05.890625
442,-100.91,2022-10-28 16:23:05.906250
443,-119.39,2022-10-28 16:23:05.921875
444,-133.37,2022-10-28 16:23:05.937500
445,-138.63,2022-10-28 16:23:05.953125
446,-132.03,2022-10-28 16:23:05.968750
447,-112.78,2022-10-28 16:23:05.984375
448,-82.9,2022-10-28 16:23:06.000000
449,-46.55,2022-10-28 16:23:06.015625
450,-8.65,2022-10-28 16:23:06.031250
451,26.6,2022-10-28 16:23:06.046875
452,56.61,2022-10-28 16:23:06.062500
453,80.31,2022-10-28 16:23:06.078125
454,97.61,2022-10-28 16:23:06.093750
455,108.56,2022-10-28 16:23:06.109375
456,113.13,2022-10-28 16:23:06.125000
457,111.38,2022-10-28 16:23:06.140625
458,103.94,2022-10-28 16:23:06.156250
459,92.28,2022-10-28 16:23:06.171875
460,78.62,2022-10-28 16:23:06.187500
461,65.26,2022-10-28 16:23:06.203125
462,54.02,2022-10-28 16:23:06.218750
463,45.68,2022-10-28 16:23:06.234375
464,40.04,2022-10-28 16:23:06.250000
465,36.31,2022-10-28 16:23:06.265625
466,33.69,2022-10-28 16:23:06.281250
467,31.81,2022-10-28 16:23:06.296875
468,30.81,2022-10-28 16:23:06.312500
469,31.02,2022-10-28 16:23:06.328125
470,32.6,2022-10-28 16:23:06.343750
471,35.15,2022-10-28 16:23:06.359375
472,37.71,2022-10-28 16:23:06.375000
473,39.02,2022-10-28 16:23:06.390625
474,37.88,2022-10-28 16:23:06.406250
475,33.59,2022-10-28 16:23:06.421875
476,26.12,2022-10-28 16:23:06.437500
477,16.14,2022-10-28 16:23:06.453125
478,4.83,2022-10-28 16:23:06.468750
479,-6.51,2022-10-28 16:23:06.484375
480,-16.85,2022-10-28 16:23:06.500000
481,-25.75,2022-10-28 16:23:06.515625
482,-33.49,2022-10-28 16:23:06.531250
483,-41.01,2022-10-28 16:23:06.546875
484,-49.58,2022-10-28 16:23:06.562500
485,-60.51,2022-10-28 16:23:06.578125
486,-74.62,2022-10-28 16:23:06.593750
487,-91.85,2022-10-28 16:23:06.609375
488,-110.83,2022-10-28 16:23:06.625000
489,-128.79,2022-10-28 16:23:06.640625
490,-142.04,2022-10-28 16:23:06.656250
491,-146.76,2022-10-28 16:23:06.671875
492,-140.23,2022-10-28 16:23:06.687500
493,-121.8,2022-10-28 16:23:06.703125
494,-93.22,2022-10-28 16:23:06.718750
495,-58.19,2022-10-28 16:23:06.734375
496,-21.25,2022-10-28 16:23:06.750000
497,13.49,2022-10-28 16:23:06.765625
498,43.13,2022-10-28 16:23:06.781250
499,66.18,2022-10-28 16:23:06.796875
500,82.2,2022-10-28 16:23:06.812500
501,91.36,2022-10-28 16:23:06.828125
502,94.09,2022-10-28 16:23:06.843750
503,91.09,2022-10-28 16:23:06.859375
504,83.42,2022-10-28 16:23:06.875000
505,72.57,2022-10-28 16:23:06.890625
506,60.25,2022-10-28 16:23:06.906250
507,48.07,2022-10-28 16:23:06.921875
508,37.21,2022-10-28 16:23:06.937500
509,28.27,2022-10-28 16:23:06.953125
510,21.36,2022-10-28 16:23:06.968750
511,16.36,2022-10-28 16:23:06.984375
512,13.15,2022-10-28 16:23:07.000000
513,11.79,2022-10-28 16:23:07.015625
514,12.41,2022-10-28 16:23:07.031250
515,14.92,2022-10-28 16:23:07.046875
516,18.79,2022-10-28 16:23:07.062500
517,22.93,2022-10-28 16:23:07.078125
518,25.95,2022-10-28 16:23:07.093750
519,26.47,2022-10-28 16:23:07.109375
520,23.66,2022-10-28 16:23:07.125000
521,17.45,2022-10-28 16:23:07.140625
522,8.55,2022-10-28 16:23:07.156250
523,-1.87,2022-10-28 16:23:07.171875
524,-12.54,2022-10-28 16:23:07.187500
525,-22.56,2022-10-28 16:23:07.203125
526,-31.57,2022-10-28 16:23:07.218750
527,-39.87,2022-10-28 16:23:07.234375
528,-48.36,2022-10-28 16:23:07.250000
529,-58.27,2022-10-28 16:23:07.265625
530,-70.76,2022-10-28 16:23:07.281250
531,-86.27,2022-10-28 16:23:07.296875
532,-103.95,2022-10-28 16:23:07.312500
533,-121.34,2022-10-28 16:23:07.328125
534,-134.64,2022-10-28 16:23:07.343750
535,-139.82,2022-10-28 16:23:07.359375
536,-133.86,2022-10-28 16:23:07.375000
537,-115.98,2022-10-28 16:23:07.390625
538,-88.01,2022-10-28 16:23:07.406250
539,-53.83,2022-10-28 16:23:07.421875
540,-18.12,2022-10-28 16:23:07.437500
541,15.01,2022-10-28 16:23:07.453125
542,42.87,2022-10-28 16:23:07.468750
543,64.27,2022-10-28 16:23:07.484375
544,79.11,2022-10-28 16:23:07.500000
545,87.66,2022-10-28 16:23:07.515625
546,90.31,2022-10-28 16:23:07.531250
547,87.46,2022-10-28 16:23:07.546875
548,79.91,2022-10-28 16:23:07.562500
549,68.92,2022-10-28 16:23:07.578125
550,56.17,2022-10-28 16:23:07.593750
551,43.4,2022-10-28 16:23:07.609375
552,32.0,2022-10-28 16:23:07.625000
553,22.79,2022-10-28 16:23:07.640625
554,15.99,2022-10-28 16:23:07.656250
555,11.45,2022-10-28 16:23:07.671875
556,8.86,2022-10-28 16:23:07.687500
557,7.96,2022-10-28 16:23:07.703125
558,8.53,2022-10-28 16:23:07.718750
559,10.34,2022-10-28 16:23:07.734375
560,12.94,2022-10-28 16:23:07.750000
561,15.58,2022-10-28 16:23:07.765625
562,17.21,2022-10-28 16:23:07.781250
563,16.79,2022-10-28 16:23:07.796875
564,13.62,2022-10-28 16:23:07.812500
565,7.59,2022-10-28 16:23:07.828125
566,-0.63,2022-10-28 16:23:07.843750
567,-9.91,2022-10-28 16:23:07.859375
568,-18.97,2022-10-28 16:23:07.875000
569,-26.91,2022-10-28 16:23:07.890625
570,-33.48,2022-10-28 16:23:07.906250
571,-39.25,2022-10-28 16:23:07.921875
572,-45.48,2022-10-28 16:23:07.937500
573,-53.76,2022-10-28 16:23:07.953125
574,-65.62,2022-10-28 16:23:07.968750
575,-81.87,2022-10-28 16:23:07.984375
576,-101.99,2022-10-28 16:23:08.000000
577,-123.67,2022-10-28 16:23:08.015625
578,-142.93,2022-10-28 16:23:08.031250
579,-155.01,2022-10-28 16:23:08.046875
580,-155.8,2022-10-28 16:23:08.062500
581,-143.28,2022-10-28 16:23:08.078125
582,-118.29,2022-10-28 16:23:08.093750
583,-84.32,2022-10-28 16:23:08.109375
584,-46.28,2022-10-28 16:23:08.125000
585,-8.93,2022-10-28 16:23:08.140625
586,24.31,2022-10-28 16:23:08.156250
587,51.67,2022-10-28 16:23:08.171875
588,72.64,2022-10-28 16:23:08.187500
589,87.2,2022-10-28 16:23:08.203125
590,95.38,2022-10-28 16:23:08.218750
591,97.17,2022-10-28 16:23:08.234375
592,92.86,2022-10-28 16:23:08.250000
593,83.51,2022-10-28 16:23:08.265625
594,70.88,2022-10-28 16:23:08.281250
595,57.18,2022-10-28 16:23:08.296875
596,44.48,2022-10-28 16:23:08.312500
597,34.2,2022-10-28 16:23:08.328125
598,26.9,2022-10-28 16:23:08.343750
599,22.35,2022-10-28 16:23:08.359375
600,19.82,2022-10-28 16:23:08.375000
601,18.52,2022-10-28 16:23:08.390625
602,17.91,2022-10-28 16:23:08.406250
603,17.87,2022-10-28 16:23:08.421875
604,18.56,2022-10-28 16:23:08.437500
605,20.14,2022-10-28 16:23:08.453125
606,22.39,2022-10-28 16:23:08.468750
607,24.6,2022-10-28 16:23:08.484375
608,25.61,2022-10-28 16:23:08.500000
609,24.17,2022-10-28 16:23:08.515625
610,19.5,2022-10-28 16:23:08.531250
611,11.55,2022-10-28 16:23:08.546875
612,1.14,2022-10-28 16:23:08.562500
613,-10.35,2022-10-28 16:23:08.578125
614,-21.53,2022-10-28 16:23:08.593750
615,-31.49,2022-10-28 16:23:08.609375
616,-40.11,2022-10-28 16:23:08.625000
617,-47.97,2022-10-28 16:23:08.640625
618,-56.13,2022-10-28 16:23:08.656250
619,-65.75,2022-10-28 16:23:08.671875
620,-77.67,2022-10-28 16:23:08.687500
621,-92.14,2022-10-28 16:23:08.703125
622,-108.42,2022-10-28 16:23:08.718750
623,-124.65,2022-10-28 16:23:08.734375
624,-137.85,2022-10-28 16:23:08.750000
625,-144.48,2022-10-28 16:23:08.765625
626,-141.36,2022-10-28 16:23:08.781250
627,-126.78,2022-10-28 16:23:08.796875
628,-101.23,2022-10-28 16:23:08.812500
629,-67.43,2022-10-28 16:23:08.828125
630,-29.62,2022-10-28 16:23:08.843750
631,7.64,2022-10-28 16:23:08.859375
632,40.58,2022-10-28 16:23:08.875000
633,66.86,2022-10-28 16:23:08.890625
634,85.61,2022-10-28 16:23:08.906250
635,96.99,2022-10-28 16:23:08.921875
636,101.74,2022-10-28 16:23:08.937500
637,100.8,2022-10-28 16:23:08.953125
638,95.23,2022-10-28 16:23:08.968750
639,86.25,2022-10-28 16:23:08.984375
640,75.28,2022-10-28 16:23:09.000000
641,63.8,2022-10-28 16:23:09.015625
642,53.18,2022-10-28 16:23:09.031250
643,44.39,2022-10-28 16:23:09.046875
644,37.87,2022-10-28 16:23:09.062500
645,33.54,2022-10-28 16:23:09.078125
646,30.94,2022-10-28 16:23:09.093750
647,29.49,2022-10-28 16:23:09.109375
648,28.82,2022-10-28 16:23:09.125000
649,28.81,2022-10-28 16:23:09.140625
650,29.57,2022-10-28 16:23:09.156250
651,31.13,2022-10-28 16:23:09.171875
652,33.2,2022-10-28 16:23:09.187500
653,35.04,2022-10-28 16:23:09.203125
654,35.57,2022-10-28 16:23:09.218750
655,33.68,2022-10-28 16:23:09.234375
656,28.58,2022-10-28 16:23:09.250000
657,20.19,2022-10-28 16:23:09.265625
658,9.11,2022-10-28 16:23:09.281250
659,-3.48,2022-10-28 16:23:09.296875
660,-16.22,2022-10-28 16:23:09.312500
661,-28.01,2022-10-28 16:23:09.328125
662,-38.3,2022-10-28 16:23:09.343750
663,-47.23,2022-10-28 16:23:09.359375
664,-55.46,2022-10-28 16:23:09.375000
665,-63.98,2022-10-28 16:23:09.390625
666,-73.8,2022-10-28 16:23:09.406250
667,-85.76,2022-10-28 16:23:09.421875
668,-100.15,2022-10-28 16:23:09.437500
669,-116.37,2022-10-28 16:23:09.453125
670,-132.61,2022-10-28 16:23:09.468750
671,-145.93,2022-10-28 16:23:09.484375
672,-152.74,2022-10-28 16:23:09.500000
673,-149.82,2022-10-28 16:23:09.515625
674,-135.47,2022-10-28 16:23:09.531250
675,-110.26,2022-10-28 16:23:09.546875
676,-77.02,2022-10-28 16:23:09.562500
677,-40.01,2022-10-28 16:23:09.578125
678,-3.69,2022-10-28 16:23:09.593750
679,28.4,2022-10-28 16:23:09.609375
680,54.24,2022-10-28 16:23:09.625000
681,73.17,2022-10-28 16:23:09.640625
682,85.43,2022-10-28 16:23:09.656250
683,91.61,2022-10-28 16:23:09.671875
684,92.38,2022-10-28 16:23:09.687500
685,88.44,2022-10-28 16:23:09.703125
686,80.75,2022-10-28 16:23:09.718750
687,70.57,2022-10-28 16:23:09.734375
688,59.39,2022-10-28 16:23:09.750000
689,48.66,2022-10-28 16:23:09.765625
690,39.53,2022-10-28 16:23:09.781250
691,32.61,2022-10-28 16:23:09.796875
692,27.95,2022-10-28 16:23:09.812500
693,25.27,2022-10-28 16:23:09.828125
694,24.2,2022-10-28 16:23:09.843750
695,24.55,2022-10-28 16:23:09.859375
696,26.32,2022-10-28 16:23:09.875000
697,29.52,2022-10-28 16:23:09.890625
698,33.89,2022-10-28 16:23:09.906250
699,38.66,2022-10-28 16:23:09.921875
700,42.51,2022-10-28 16:23:09.937500
701,43.96,2022-10-28 16:23:09.953125
702,41.8,2022-10-28 16:23:09.968750
703,35.58,2022-10-28 16:23:09.984375
704,25.77,2022-10-28 16:23:10.000000
705,13.63,2022-10-28 16:23:10.015625
706,0.71,2022-10-28 16:23:10.031250
707,-11.59,2022-10-28 16:23:10.046875
708,-22.51,2022-10-28 16:23:10.062500
709,-32.02,2022-10-28 16:23:10.078125
710,-40.76,2022-10-28 16:23:10.093750
711,-49.72,2022-10-28 16:23:10.109375
712,-60.01,2022-10-28 16:23:10.125000
713,-72.49,2022-10-28 16:23:10.140625
714,-87.44,2022-10-28 16:23:10.156250
715,-104.07,2022-10-28 16:23:10.171875
716,-120.33,2022-10-28 16:23:10.187500
717,-133.08,2022-10-28 16:23:10.203125
718,-138.78,2022-10-28 16:23:10.218750
719,-134.62,2022-10-28 16:23:10.234375
720,-119.48,2022-10-28 16:23:10.250000
721,-94.45,2022-10-28 16:23:10.265625
722,-62.53,2022-10-28 16:23:10.281250
723,-27.7,2022-10-28 16:23:10.296875
724,6.19,2022-10-28 16:23:10.312500
725,36.18,2022-10-28 16:23:10.328125
726,60.42,2022-10-28 16:23:10.343750
727,78.04,2022-10-28 16:23:10.359375
728,88.75,2022-10-28 16:23:10.375000
729,92.69,2022-10-28 16:23:10.390625
730,90.46,2022-10-28 16:23:10.406250
731,83.15,2022-10-28 16:23:10.421875
732,72.32,2022-10-28 16:23:10.437500
733,59.7,2022-10-28 16:23:10.453125
734,46.94,2022-10-28 16:23:10.468750
735,35.29,2022-10-28 16:23:10.484375
736,25.53,2022-10-28 16:23:10.500000
737,18.06,2022-10-28 16:23:10.515625
738,12.96,2022-10-28 16:23:10.531250
739,10.17,2022-10-28 16:23:10.546875
740,9.54,2022-10-28 16:23:10.562500
741,10.85,2022-10-28 16:23:10.578125
742,13.75,2022-10-28 16:23:10.593750
743,17.64,2022-10-28 16:23:10.609375
744,21.6,2022-10-28 16:23:10.625000
745,24.46,2022-10-28 16:23:10.640625
746,25.0,2022-10-28 16:23:10.656250
747,22.31,2022-10-28 16:23:10.671875
748,16.15,2022-10-28 16:23:10.687500
749,7.08,2022-10-28 16:23:10.703125
750,-3.75,2022-10-28 16:23:10.718750
751,-14.93,2022-10-28 16:23:10.734375
752,-25.36,2022-10-28 16:23:10.750000
753,-34.6,2022-10-28 16:23:10.765625
754,-42.96,2022-10-28 16:23:10.781250
755,-51.4,2022-10-28 16:23:10.796875
756,-61.19,2022-10-28 16:23:10.812500
757,-73.48,2022-10-28 16:23:10.828125
758,-88.75,2022-10-28 16:23:10.843750
759,-106.31,2022-10-28 16:23:10.859375
760,-123.95,2022-10-28 16:23:10.875000
761,-138.22,2022-10-28 16:23:10.890625
762,-145.15,2022-10-28 16:23:10.906250
763,-141.49,2022-10-28 16:23:10.921875
764,-125.86,2022-10-28 16:23:10.937500
765,-99.35,2022-10-28 16:23:10.953125
766,-65.19,2022-10-28 16:23:10.968750
767,-27.81,2022-10-28 16:23:10.984375
768,8.55,2022-10-28 16:23:11.000000
769,40.66,2022-10-28 16:23:11.015625
770,66.73,2022-10-28 16:23:11.031250
771,85.97,2022-10-28 16:23:11.046875
772,98.25,2022-10-28 16:23:11.062500
773,103.61,2022-10-28 16:23:11.078125
774,102.35,2022-10-28 16:23:11.093750
775,95.25,2022-10-28 16:23:11.109375
776,83.68,2022-10-28 16:23:11.125000
777,69.62,2022-10-28 16:23:11.140625
778,55.2,2022-10-28 16:23:11.156250
779,42.22,2022-10-28 16:23:11.171875
780,31.8,2022-10-28 16:23:11.187500
781,24.25,2022-10-28 16:23:11.203125
782,19.29,2022-10-28 16:23:11.218750
783,16.34,2022-10-28 16:23:11.234375
784,14.95,2022-10-28 16:23:11.250000
785,14.89,2022-10-28 16:23:11.265625
786,16.15,2022-10-28 16:23:11.281250
787,18.65,2022-10-28 16:23:11.296875
788,21.97,2022-10-28 16:23:11.312500
789,25.23,2022-10-28 16:23:11.328125
790,27.13,2022-10-28 16:23:11.343750
791,26.41,2022-10-28 16:23:11.359375
792,22.24,2022-10-28 16:23:11.375000
793,14.59,2022-10-28 16:23:11.390625
794,4.2,2022-10-28 16:23:11.406250
795,-7.58,2022-10-28 16:23:11.421875
796,-19.37,2022-10-28 16:23:11.437500
797,-30.18,2022-10-28 16:23:11.453125
798,-39.74,2022-10-28 16:23:11.468750
799,-48.48,2022-10-28 16:23:11.484375
800,-57.39,2022-10-28 16:23:11.500000
801,-67.75,2022-10-28 16:23:11.515625
802,-80.65,2022-10-28 16:23:11.531250
803,-96.56,2022-10-28 16:23:11.546875
804,-114.71,2022-10-28 16:23:11.562500
805,-132.79,2022-10-28 16:23:11.578125
806,-147.16,2022-10-28 16:23:11.593750
807,-153.63,2022-10-28 16:23:11.609375
808,-148.78,2022-10-28 16:23:11.625000
809,-131.24,2022-10-28 16:23:11.640625
810,-102.26,2022-10-28 16:23:11.656250
811,-65.47,2022-10-28 16:23:11.671875
812,-25.71,2022-10-28 16:23:11.687500
813,12.37,2022-10-28 16:23:11.703125
814,45.36,2022-10-28 16:23:11.718750
815,71.49,2022-10-28 16:23:11.734375
816,90.32,2022-10-28 16:23:11.750000
817,102.11,2022-10-28 16:23:11.765625
818,107.32,2022-10-28 16:23:11.781250
819,106.46,2022-10-28 16:23:11.796875
820,100.22,2022-10-28 16:23:11.812500
821,89.73,2022-10-28 16:23:11.828125
822,76.57,2022-10-28 16:23:11.843750
823,62.63,2022-10-28 16:23:11.859375
824,49.77,2022-10-28 16:23:11.875000
825,39.38,2022-10-28 16:23:11.890625
826,32.13,2022-10-28 16:23:11.906250
827,27.93,2022-10-28 16:23:11.921875
828,26.15,2022-10-28 16:23:11.937500
829,26.04,2022-10-28 16:23:11.953125
830,27.06,2022-10-28 16:23:11.968750
831,29.02,2022-10-28 16:23:11.984375
832,31.9,2022-10-28 16:23:12.000000
833,35.56,2022-10-28 16:23:12.015625
834,39.39,2022-10-28 16:23:12.031250
835,42.3,2022-10-28 16:23:12.046875
836,42.9,2022-10-28 16:23:12.062500
837,40.05,2022-10-28 16:23:12.078125
838,33.23,2022-10-28 16:23:12.093750
839,22.81,2022-10-28 16:23:12.109375
840,9.96,2022-10-28 16:23:12.125000
841,-3.82,2022-10-28 16:23:12.140625
842,-17.17,2022-10-28 16:23:12.156250
843,-29.29,2022-10-28 16:23:12.171875
844,-40.05,2022-10-28 16:23:12.187500
845,-49.98,2022-10-28 16:23:12.203125
846,-60.02,2022-10-28 16:23:12.218750
847,-71.31,2022-10-28 16:23:12.234375
848,-84.91,2022-10-28 16:23:12.250000
849,-101.34,2022-10-28 16:23:12.265625
850,-120.05,2022-10-28 16:23:12.281250
851,-139.01,2022-10-28 16:23:12.296875
852,-154.73,2022-10-28 16:23:12.312500
853,-162.99,2022-10-28 16:23:12.328125
854,-160.09,2022-10-28 16:23:12.343750
855,-144.28,2022-10-28 16:23:12.359375
856,-116.51,2022-10-28 16:23:12.375000
857,-80.27,2022-10-28 16:23:12.390625
858,-40.44,2022-10-28 16:23:12.406250
859,-1.74,2022-10-28 16:23:12.421875
860,32.36,2022-10-28 16:23:12.437500
861,60.07,2022-10-28 16:23:12.453125
862,80.9,2022-10-28 16:23:12.468750
863,94.92,2022-10-28 16:23:12.484375
864,102.28,2022-10-28 16:23:12.500000
865,103.13,2022-10-28 16:23:12.515625
866,97.94,2022-10-28 16:23:12.531250
867,87.84,2022-10-28 16:23:12.546875
868,74.67,2022-10-28 16:23:12.562500
869,60.75,2022-10-28 16:23:12.578125
870,48.3,2022-10-28 16:23:12.593750
871,38.98,2022-10-28 16:23:12.609375
872,33.57,2022-10-28 16:23:12.625000
873,31.99,2022-10-28 16:23:12.640625
874,33.48,2022-10-28 16:23:12.656250
875,36.99,2022-10-28 16:23:12.671875
876,41.49,2022-10-28 16:23:12.687500
877,46.29,2022-10-28 16:23:12.703125
878,50.99,2022-10-28 16:23:12.718750
879,55.41,2022-10-28 16:23:12.734375
880,59.34,2022-10-28 16:23:12.750000
881,62.33,2022-10-28 16:23:12.765625
882,63.57,2022-10-28 16:23:12.781250
883,62.13,2022-10-28 16:23:12.796875
884,57.25,2022-10-28 16:23:12.812500
885,48.73,2022-10-28 16:23:12.828125
886,37.18,2022-10-28 16:23:12.843750
887,23.84,2022-10-28 16:23:12.859375
888,10.23,2022-10-28 16:23:12.875000
889,-2.44,2022-10-28 16:23:12.890625
890,-13.6,2022-10-28 16:23:12.906250
891,-23.49,2022-10-28 16:23:12.921875
892,-32.87,2022-10-28 16:23:12.937500
893,-42.72,2022-10-28 16:23:12.953125
894,-54.03,2022-10-28 16:23:12.968750
895,-67.58,2022-10-28 16:23:12.984375
896,-83.77,2022-10-28 16:23:13.000000
897,-102.26,2022-10-28 16:23:13.015625
898,-121.52,2022-10-28 16:23:13.031250
899,-138.64,2022-10-28 16:23:13.046875
900,-149.72,2022-10-28 16:23:13.062500
901,-150.91,2022-10-28 16:23:13.078125
902,-139.74,2022-10-28 16:23:13.093750
903,-116.14,2022-10-28 16:23:13.109375
904,-82.67,2022-10-28 16:23:13.125000
905,-43.71,2022-10-28 16:23:13.140625
906,-4.04,2022-10-28 16:23:13.156250
907,32.34,2022-10-28 16:23:13.171875
908,62.91,2022-10-28 16:23:13.187500
909,86.51,2022-10-28 16:23:13.203125
910,102.82,2022-10-28 16:23:13.218750
911,111.86,2022-10-28 16:23:13.234375
912,113.81,2022-10-28 16:23:13.250000
913,109.23,2022-10-28 16:23:13.265625
914,99.24,2022-10-28 16:23:13.281250
915,85.69,2022-10-28 16:23:13.296875
916,70.83,2022-10-28 16:23:13.312500
917,56.87,2022-10-28 16:23:13.328125
918,45.52,2022-10-28 16:23:13.343750
919,37.6,2022-10-28 16:23:13.359375
920,33.05,2022-10-28 16:23:13.375000
921,31.13,2022-10-28 16:23:13.390625
922,30.87,2022-10-28 16:23:13.406250
923,31.5,2022-10-28 16:23:13.421875
924,32.72,2022-10-28 16:23:13.437500
925,34.61,2022-10-28 16:23:13.453125
926,37.33,2022-10-28 16:23:13.468750
927,40.69,2022-10-28 16:23:13.484375
928,43.87,2022-10-28 16:23:13.500000
929,45.59,2022-10-28 16:23:13.515625
930,44.46,2022-10-28 16:23:13.531250
931,39.64,2022-10-28 16:23:13.546875
932,31.17,2022-10-28 16:23:13.562500
933,20.07,2022-10-28 16:23:13.578125
934,7.91,2022-10-28 16:23:13.593750
935,-3.79,2022-10-28 16:23:13.609375
936,-14.07,2022-10-28 16:23:13.625000
937,-22.87,2022-10-28 16:23:13.640625
938,-30.91,2022-10-28 16:23:13.656250
939,-39.36,2022-10-28 16:23:13.671875
940,-49.48,2022-10-28 16:23:13.687500
941,-62.19,2022-10-28 16:23:13.703125
942,-77.73,2022-10-28 16:23:13.718750
943,-95.31,2022-10-28 16:23:13.734375
944,-112.89,2022-10-28 16:23:13.750000
945,-127.3,2022-10-28 16:23:13.765625
946,-134.85,2022-10-28 16:23:13.781250
947,-132.34,2022-10-28 16:23:13.796875
948,-118.14,2022-10-28 16:23:13.812500
949,-92.9,2022-10-28 16:23:13.828125
950,-59.49,2022-10-28 16:23:13.843750
951,-22.16,2022-10-28 16:23:13.859375
952,14.66,2022-10-28 16:23:13.875000
953,47.34,2022-10-28 16:23:13.890625
954,73.68,2022-10-28 16:23:13.906250
955,92.7,2022-10-28 16:23:13.921875
956,104.23,2022-10-28 16:23:13.937500
957,108.49,2022-10-28 16:23:13.953125
958,105.95,2022-10-28 16:23:13.968750
959,97.5,2022-10-28 16:23:13.984375
960,84.56,2022-10-28 16:23:14.000000
961,69.07,2022-10-28 16:23:14.015625
962,53.14,2022-10-28 16:23:14.031250
963,38.64,2022-10-28 16:23:14.046875
964,26.81,2022-10-28 16:23:14.062500
965,18.16,2022-10-28 16:23:14.078125
966,12.55,2022-10-28 16:23:14.093750
967,9.54,2022-10-28 16:23:14.109375
968,8.7,2022-10-28 16:23:14.125000
969,9.78,2022-10-28 16:23:14.140625
970,12.61,2022-10-28 16:23:14.156250
971,16.83,2022-10-28 16:23:14.171875
972,21.71,2022-10-28 16:23:14.187500
973,26.01,2022-10-28 16:23:14.203125
974,28.3,2022-10-28 16:23:14.218750
975,27.37,2022-10-28 16:23:14.234375
976,22.71,2022-10-28 16:23:14.250000
977,14.73,2022-10-28 16:23:14.265625
978,4.61,2022-10-28 16:23:14.281250
979,-6.12,2022-10-28 16:23:14.296875
980,-16.16,2022-10-28 16:23:14.312500
981,-24.9,2022-10-28 16:23:14.328125
982,-32.52,2022-10-28 16:23:14.343750
983,-39.99,2022-10-28 16:23:14.359375
984,-48.69,2022-10-28 16:23:14.375000
985,-60.0,2022-10-28 16:23:14.390625
986,-74.65,2022-10-28 16:23:14.406250
987,-92.1,2022-10-28 16:23:14.421875
988,-110.19,2022-10-28 16:23:14.437500
989,-125.28,2022-10-28 16:23:14.453125
990,-133.09,2022-10-28 16:23:14.468750
991,-130.04,2022-10-28 16:23:14.484375
992,-114.56,2022-10-28 16:23:14.500000
993,-87.78,2022-10-28 16:23:14.515625
994,-53.22,2022-10-28 16:23:14.531250
995,-15.63,2022-10-28 16:23:14.546875
996,20.46,2022-10-28 16:23:14.562500
997,51.81,2022-10-28 16:23:14.578125
998,76.73,2022-10-28 16:23:14.593750
999,94.76,2022-10-28 16:23:14.609375
1000,105.94,2022-10-28 16:23:14.625000
1001,110.46,2022-10-28 16:23:14.640625
1002,108.61,2022-10-28 16:23:14.656250
1003,101.07,2022-10-28 16:23:14.671875
1004,89.1,2022-10-28 16:23:14.687500
1005,74.55,2022-10-28 16:23:14.703125
1006,59.5,2022-10-28 16:23:14.718750
1007,45.76,2022-10-28 16:23:14.734375
1008,34.58,2022-10-28 16:23:14.750000
1009,26.39,2022-10-28 16:23:14.765625
1010,21.03,2022-10-28 16:23:14.781250
1011,17.93,2022-10-28 16:23:14.796875
1012,16.48,2022-10-28 16:23:14.812500
1013,16.26,2022-10-28 16:23:14.828125
1014,17.12,2022-10-28 16:23:14.843750
1015,18.98,2022-10-28 16:23:14.859375
1016,21.55,2022-10-28 16:23:14.875000
1017,24.1,2022-10-28 16:23:14.890625
1018,25.48,2022-10-28 16:23:14.906250
1019,24.39,2022-10-28 16:23:14.921875
1020,19.91,2022-10-28 16:23:14.937500
1021,11.89,2022-10-28 16:23:14.953125
1022,1.14,2022-10-28 16:23:14.968750
1023,-10.85,2022-10-28 16:23:14.984375
1024,-22.52,2022-10-28 16:23:15.000000
1025,-32.78,2022-10-28 16:23:15.015625
1026,-41.44,2022-10-28 16:23:15.031250
1027,-49.22,2022-10-28 16:23:15.046875
1028,-57.44,2022-10-28 16:23:15.062500
1029,-67.6,2022-10-28 16:23:15.078125
1030,-80.87,2022-10-28 16:23:15.093750
1031,-97.52,2022-10-28 16:23:15.109375
1032,-116.43,2022-10-28 16:23:15.125000
1033,-134.92,2022-10-28 16:23:15.140625
1034,-149.0,2022-10-28 16:23:15.156250
1035,-154.38,2022-10-28 16:23:15.171875
1036,-147.8,2022-10-28 16:23:15.187500
1037,-128.31,2022-10-28 16:23:15.203125
1038,-97.68,2022-10-28 16:23:15.218750
1039,-59.98,2022-10-28 16:23:15.234375
1040,-20.17,2022-10-28 16:23:15.250000
1041,17.3,2022-10-28 16:23:15.265625
1042,49.43,2022-10-28 16:23:15.281250
1043,74.79,2022-10-28 16:23:15.296875
1044,93.02,2022-10-28 16:23:15.312500
1045,104.17,2022-10-28 16:23:15.328125
1046,108.39,2022-10-28 16:23:15.343750
1047,106.03,2022-10-28 16:23:15.359375
1048,97.97,2022-10-28 16:23:15.375000
1049,85.73,2022-10-28 16:23:15.390625
1050,71.36,2022-10-28 16:23:15.406250
1051,56.95,2022-10-28 16:23:15.421875
1052,44.19,2022-10-28 16:23:15.437500
1053,34.08,2022-10-28 16:23:15.453125
1054,26.82,2022-10-28 16:23:15.468750
1055,22.06,2022-10-28 16:23:15.484375
1056,19.2,2022-10-28 16:23:15.500000
1057,17.7,2022-10-28 16:23:15.515625
1058,17.37,2022-10-28 16:23:15.531250
1059,18.26,2022-10-28 16:23:15.546875
1060,20.53,2022-10-28 16:23:15.562500
1061,24.07,2022-10-28 16:23:15.578125
1062,28.23,2022-10-28 16:23:15.593750
1063,31.78,2022-10-28 16:23:15.609375
1064,33.21,2022-10-28 16:23:15.625000
1065,31.27,2022-10-28 16:23:15.640625
1066,25.44,2022-10-28 16:23:15.656250
1067,16.24,2022-10-28 16:23:15.671875
1068,4.98,2022-10-28 16:23:15.687500
1069,-6.68,2022-10-28 16:23:15.703125
1070,-17.37,2022-10-28 16:23:15.718750
1071,-26.48,2022-10-28 16:23:15.734375
1072,-34.31,2022-10-28 16:23:15.750000
1073,-41.8,2022-10-28 16:23:15.765625
1074,-50.25,2022-10-28 16:23:15.781250
1075,-60.93,2022-10-28 16:23:15.796875
1076,-74.73,2022-10-28 16:23:15.812500
1077,-91.65,2022-10-28 16:23:15.828125
1078,-110.4,2022-10-28 16:23:15.843750
1079,-128.18,2022-10-28 16:23:15.859375
1080,-140.98,2022-10-28 16:23:15.875000
1081,-144.57,2022-10-28 16:23:15.890625
1082,-135.94,2022-10-28 16:23:15.906250
1083,-114.47,2022-10-28 16:23:15.921875
1084,-82.43,2022-10-28 16:23:15.937500
1085,-44.37,2022-10-28 16:23:15.953125
1086,-5.62,2022-10-28 16:23:15.968750
1087,29.28,2022-10-28 16:23:15.984375
1088,57.63,2022-10-28 16:23:16.000000
1089,78.51,2022-10-28 16:23:16.015625
1090,92.22,2022-10-28 16:23:16.031250
1091,99.3,2022-10-28 16:23:16.046875
1092,100.14,2022-10-28 16:23:16.062500
1093,95.14,2022-10-28 16:23:16.078125
1094,85.06,2022-10-28 16:23:16.093750
1095,71.45,2022-10-28 16:23:16.109375
1096,56.55,2022-10-28 16:23:16.125000
1097,42.7,2022-10-28 16:23:16.140625
1098,31.64,2022-10-28 16:23:16.156250
1099,24.1,2022-10-28 16:23:16.171875
1100,19.72,2022-10-28 16:23:16.187500
1101,17.54,2022-10-28 16:23:16.203125
1102,16.59,2022-10-28 16:23:16.218750
1103,16.39,2022-10-28 16:23:16.234375
1104,17.06,2022-10-28 16:23:16.250000
1105,18.99,2022-10-28 16:23:16.265625
1106,22.39,2022-10-28 16:23:16.281250
1107,26.73,2022-10-28 16:23:16.296875
1108,30.8,2022-10-28 16:23:16.312500
1109,32.9,2022-10-28 16:23:16.328125
1110,31.56,2022-10-28 16:23:16.343750
1111,26.12,2022-10-28 16:23:16.359375
1112,16.99,2022-10-28 16:23:16.375000
1113,5.55,2022-10-28 16:23:16.390625
1114,-6.49,2022-10-28 16:23:16.406250
1115,-17.67,2022-10-28 16:23:16.421875
1116,-27.29,2022-10-28 16:23:16.437500
1117,-35.59,2022-10-28 16:23:16.453125
1118,-43.56,2022-10-28 16:23:16.468750
1119,-52.5,2022-10-28 16:23:16.484375
1120,-63.68,2022-10-28 16:23:16.500000
1121,-77.82,2022-10-28 16:23:16.515625
1122,-94.78,2022-10-28 16:23:16.531250
1123,-113.14,2022-10-28 16:23:16.546875
1124,-130.16,2022-10-28 16:23:16.562500
1125,-142.11,2022-10-28 16:23:16.578125
1126,-145.18,2022-10-28 16:23:16.593750
1127,-136.7,2022-10-28 16:23:16.609375
1128,-116.2,2022-10-28 16:23:16.625000
1129,-85.69,2022-10-28 16:23:16.640625
1130,-49.18,2022-10-28 16:23:16.656250
1131,-11.37,2022-10-28 16:23:16.671875
1132,23.56,2022-10-28 16:23:16.687500
1133,52.87,2022-10-28 16:23:16.703125
1134,75.3,2022-10-28 16:23:16.718750
1135,90.62,2022-10-28 16:23:16.734375
1136,99.03,2022-10-28 16:23:16.750000
1137,100.87,2022-10-28 16:23:16.765625
1138,96.68,2022-10-28 16:23:16.781250
1139,87.45,2022-10-28 16:23:16.796875
1140,74.84,2022-10-28 16:23:16.812500
1141,60.89,2022-10-28 16:23:16.828125
1142,47.63,2022-10-28 16:23:16.843750
1143,36.58,2022-10-28 16:23:16.859375
1144,28.52,2022-10-28 16:23:16.875000
1145,23.46,2022-10-28 16:23:16.890625
1146,20.91,2022-10-28 16:23:16.906250
1147,20.31,2022-10-28 16:23:16.921875
1148,21.24,2022-10-28 16:23:16.937500
1149,23.53,2022-10-28 16:23:16.953125
1150,26.99,2022-10-28 16:23:16.968750
1151,31.24,2022-10-28 16:23:16.984375
1152,35.47,2022-10-28 16:23:17.000000
1153,38.47,2022-10-28 16:23:17.015625
1154,38.98,2022-10-28 16:23:17.031250
1155,36.06,2022-10-28 16:23:17.046875
1156,29.5,2022-10-28 16:23:17.062500
1157,19.88,2022-10-28 16:23:17.078125
1158,8.49,2022-10-28 16:23:17.093750
1159,-3.26,2022-10-28 16:23:17.109375
1160,-14.21,2022-10-28 16:23:17.125000
1161,-23.93,2022-10-28 16:23:17.140625
1162,-32.76,2022-10-28 16:23:17.156250
1163,-41.75,2022-10-28 16:23:17.171875
1164,-52.28,2022-10-28 16:23:17.187500
1165,-65.55,2022-10-28 16:23:17.203125
1166,-82.02,2022-10-28 16:23:17.218750
1167,-100.79,2022-10-28 16:23:17.234375
1168,-119.37,2022-10-28 16:23:17.250000
1169,-133.95,2022-10-28 16:23:17.265625
1170,-140.28,2022-10-28 16:23:17.281250
1171,-135.09,2022-10-28 16:23:17.296875
1172,-117.22,2022-10-28 16:23:17.312500
1173,-88.23,2022-10-28 16:23:17.328125
1174,-52.0,2022-10-28 16:23:17.343750
1175,-13.46,2022-10-28 16:23:17.359375
1176,22.83,2022-10-28 16:23:17.375000
1177,53.73,2022-10-28 16:23:17.390625
1178,77.8,2022-10-28 16:23:17.406250
1179,94.88,2022-10-28 16:23:17.421875
1180,105.34,2022-10-28 16:23:17.437500
1181,109.61,2022-10-28 16:23:17.453125
1182,108.09,2022-10-28 16:23:17.468750
1183,101.31,2022-10-28 16:23:17.484375
1184,90.3,2022-10-28 16:23:17.500000
1185,76.59,2022-10-28 16:23:17.515625
1186,62.07,2022-10-28 16:23:17.531250
1187,48.62,2022-10-28 16:23:17.546875
1188,37.71,2022-10-28 16:23:17.562500
1189,30.19,2022-10-28 16:23:17.578125
1190,26.12,2022-10-28 16:23:17.593750
1191,25.0,2022-10-28 16:23:17.609375
1192,25.91,2022-10-28 16:23:17.625000
1193,27.9,2022-10-28 16:23:17.640625
1194,30.23,2022-10-28 16:23:17.656250
1195,32.48,2022-10-28 16:23:17.671875
1196,34.43,2022-10-28 16:23:17.687500
1197,35.84,2022-10-28 16:23:17.703125
1198,36.25,2022-10-28 16:23:17.718750
1199,34.92,2022-10-28 16:23:17.734375
1200,31.03,2022-10-28 16:23:17.750000
1201,24.06,2022-10-28 16:23:17.765625
1202,14.1,2022-10-28 16:23:17.781250
1203,1.94,2022-10-28 16:23:17.796875
1204,-11.13,2022-10-28 16:23:17.812500
1205,-23.77,2022-10-28 16:23:17.828125
1206,-35.09,2022-10-28 16:23:17.843750
1207,-44.93,2022-10-28 16:23:17.859375
1208,-53.84,2022-10-28 16:23:17.875000
1209,-62.81,2022-10-28 16:23:17.890625
1210,-72.96,2022-10-28 16:23:17.906250
1211,-85.21,2022-10-28 16:23:17.921875
1212,-100.01,2022-10-28 16:23:17.937500
1213,-117.0,2022-10-28 16:23:17.953125
1214,-134.69,2022-10-28 16:23:17.968750
1215,-150.28,2022-10-28 16:23:17.984375
1216,-160.05,2022-10-28 16:23:18.000000
1217,-160.24,2022-10-28 16:23:18.015625
1218,-148.25,2022-10-28 16:23:18.031250
1219,-123.78,2022-10-28 16:23:18.046875
1220,-89.12,2022-10-28 16:23:18.062500
1221,-48.59,2022-10-28 16:23:18.078125
1222,-7.33,2022-10-28 16:23:18.093750
1223,30.21,2022-10-28 16:23:18.109375
1224,61.06,2022-10-28 16:23:18.125000
1225,83.99,2022-10-28 16:23:18.140625
1226,99.04,2022-10-28 16:23:18.156250
1227,106.9,2022-10-28 16:23:18.171875
1228,108.5,2022-10-28 16:23:18.187500
1229,104.75,2022-10-28 16:23:18.203125
1230,96.73,2022-10-28 16:23:18.218750
1231,85.73,2022-10-28 16:23:18.234375
1232,73.23,2022-10-28 16:23:18.250000
1233,60.77,2022-10-28 16:23:18.265625
1234,49.8,2022-10-28 16:23:18.281250
1235,41.44,2022-10-28 16:23:18.296875
1236,36.29,2022-10-28 16:23:18.312500
1237,34.42,2022-10-28 16:23:18.328125
1238,35.34,2022-10-28 16:23:18.343750
1239,38.23,2022-10-28 16:23:18.359375
1240,42.1,2022-10-28 16:23:18.375000
1241,46.05,2022-10-28 16:23:18.390625
1242,49.39,2022-10-28 16:23:18.406250
1243,51.7,2022-10-28 16:23:18.421875
1244,52.72,2022-10-28 16:23:18.437500
1245,52.31,2022-10-28 16:23:18.453125
1246,50.37,2022-10-28 16:23:18.468750
1247,46.78,2022-10-28 16:23:18.484375
1248,41.39,2022-10-28 16:23:18.500000
1249,34.04,2022-10-28 16:23:18.515625
1250,24.72,2022-10-28 16:23:18.531250
1251,13.64,2022-10-28 16:23:18.546875
1252,1.33,2022-10-28 16:23:18.562500
1253,-11.41,2022-10-28 16:23:18.578125
1254,-23.71,2022-10-28 16:23:18.593750
1255,-34.95,2022-10-28 16:23:18.609375
1256,-44.95,2022-10-28 16:23:18.625000
1257,-54.02,2022-10-28 16:23:18.640625
1258,-62.87,2022-10-28 16:23:18.656250
1259,-72.37,2022-10-28 16:23:18.671875
1260,-83.41,2022-10-28 16:23:18.687500
1261,-96.61,2022-10-28 16:23:18.703125
1262,-112.02,2022-10-28 16:23:18.718750
1263,-128.66,2022-10-28 16:23:18.734375
1264,-144.22,2022-10-28 16:23:18.750000
1265,-155.28,2022-10-28 16:23:18.765625
1266,-157.99,2022-10-28 16:23:18.781250
1267,-149.4,2022-10-28 16:23:18.796875
1268,-128.53,2022-10-28 16:23:18.812500
1269,-97.01,2022-10-28 16:23:18.828125
1270,-58.69,2022-10-28 16:23:18.843750
1271,-18.41,2022-10-28 16:23:18.859375
1272,19.31,2022-10-28 16:23:18.875000
1273,51.29,2022-10-28 16:23:18.890625
1274,75.95,2022-10-28 16:23:18.906250
1275,92.93,2022-10-28 16:23:18.921875
1276,102.63,2022-10-28 16:23:18.937500
1277,105.72,2022-10-28 16:23:18.953125
1278,103.12,2022-10-28 16:23:18.968750
1279,96.01,2022-10-28 16:23:18.984375
1280,85.89,2022-10-28 16:23:19.000000
1281,74.47,2022-10-28 16:23:19.015625
1282,63.41,2022-10-28 16:23:19.031250
1283,54.02,2022-10-28 16:23:19.046875
1284,47.13,2022-10-28 16:23:19.062500
1285,43.12,2022-10-28 16:23:19.078125
1286,41.9,2022-10-28 16:23:19.093750
1287,43.14,2022-10-28 16:23:19.109375
1288,46.27,2022-10-28 16:23:19.125000
1289,50.62,2022-10-28 16:23:19.140625
1290,55.41,2022-10-28 16:23:19.156250
1291,59.79,2022-10-28 16:23:19.171875
1292,62.99,2022-10-28 16:23:19.187500
1293,64.37,2022-10-28 16:23:19.203125
1294,63.6,2022-10-28 16:23:19.218750
1295,60.65,2022-10-28 16:23:19.234375
1296,55.78,2022-10-28 16:23:19.250000
1297,49.36,2022-10-28 16:23:19.265625
1298,41.64,2022-10-28 16:23:19.281250
1299,32.71,2022-10-28 16:23:19.296875
1300,22.49,2022-10-28 16:23:19.312500
1301,11.02,2022-10-28 16:23:19.328125
1302,-1.46,2022-10-28 16:23:19.343750
1303,-14.4,2022-10-28 16:23:19.359375
1304,-27.05,2022-10-28 16:23:19.375000
1305,-38.73,2022-10-28 16:23:19.390625
1306,-49.08,2022-10-28 16:23:19.406250
1307,-58.18,2022-10-28 16:23:19.421875
1308,-66.51,2022-10-28 16:23:19.437500
1309,-74.85,2022-10-28 16:23:19.453125
1310,-84.16,2022-10-28 16:23:19.468750
1311,-95.26,2022-10-28 16:23:19.484375
1312,-108.5,2022-10-28 16:23:19.500000
1313,-123.23,2022-10-28 16:23:19.515625
1314,-137.4,2022-10-28 16:23:19.531250
1315,-147.72,2022-10-28 16:23:19.546875
1316,-150.35,2022-10-28 16:23:19.562500
1317,-142.16,2022-10-28 16:23:19.578125
1318,-122.03,2022-10-28 16:23:19.593750
1319,-91.41,2022-10-28 16:23:19.609375
1320,-54.04,2022-10-28 16:23:19.625000
1321,-14.72,2022-10-28 16:23:19.640625
1322,22.04,2022-10-28 16:23:19.656250
1323,53.08,2022-10-28 16:23:19.671875
1324,76.89,2022-10-28 16:23:19.687500
1325,93.19,2022-10-28 16:23:19.703125
1326,102.34,2022-10-28 16:23:19.718750
1327,104.87,2022-10-28 16:23:19.734375
1328,101.38,2022-10-28 16:23:19.750000
1329,92.76,2022-10-28 16:23:19.765625
1330,80.34,2022-10-28 16:23:19.781250
1331,65.93,2022-10-28 16:23:19.796875
1332,51.6,2022-10-28 16:23:19.812500
1333,39.29,2022-10-28 16:23:19.828125
1334,30.42,2022-10-28 16:23:19.843750
1335,25.66,2022-10-28 16:23:19.859375
1336,24.83,2022-10-28 16:23:19.875000
1337,27.1,2022-10-28 16:23:19.890625
1338,31.26,2022-10-28 16:23:19.906250
1339,36.15,2022-10-28 16:23:19.921875
1340,40.9,2022-10-28 16:23:19.937500
1341,45.0,2022-10-28 16:23:19.953125
1342,48.24,2022-10-28 16:23:19.968750
1343,50.44,2022-10-28 16:23:19.984375
1344,51.34,2022-10-28 16:23:20.000000
1345,50.54,2022-10-28 16:23:20.015625
1346,47.6,2022-10-28 16:23:20.031250
1347,42.23,2022-10-28 16:23:20.046875
1348,34.44,2022-10-28 16:23:20.062500
1349,24.69,2022-10-28 16:23:20.078125
1350,13.72,2022-10-28 16:23:20.093750
1351,2.45,2022-10-28 16:23:20.109375
1352,-8.36,2022-10-28 16:23:20.125000
1353,-18.27,2022-10-28 16:23:20.140625
1354,-27.24,2022-10-28 16:23:20.156250
1355,-35.62,2022-10-28 16:23:20.171875
1356,-43.98,2022-10-28 16:23:20.187500
1357,-52.94,2022-10-28 16:23:20.203125
1358,-63.18,2022-10-28 16:23:20.218750
1359,-75.23,2022-10-28 16:23:20.234375
1360,-89.23,2022-10-28 16:23:20.250000
1361,-104.51,2022-10-28 16:23:20.265625
1362,-119.22,2022-10-28 16:23:20.281250
1363,-130.37,2022-10-28 16:23:20.296875
1364,-134.42,2022-10-28 16:23:20.312500
1365,-128.36,2022-10-28 16:23:20.328125
1366,-110.82,2022-10-28 16:23:20.343750
1367,-82.85,2022-10-28 16:23:20.359375
1368,-47.72,2022-10-28 16:23:20.375000
1369,-10.05,2022-10-28 16:23:20.390625
1370,25.56,2022-10-28 16:23:20.406250
1371,55.62,2022-10-28 16:23:20.421875
1372,78.34,2022-10-28 16:23:20.437500
1373,93.44,2022-10-28 16:23:20.453125
1374,101.53,2022-10-28 16:23:20.468750
1375,103.56,2022-10-28 16:23:20.484375
1376,100.43,2022-10-28 16:23:20.500000
1377,93.0,2022-10-28 16:23:20.515625
1378,82.25,2022-10-28 16:23:20.531250
1379,69.41,2022-10-28 16:23:20.546875
1380,55.98,2022-10-28 16:23:20.562500
1381,43.5,2022-10-28 16:23:20.578125
1382,33.36,2022-10-28 16:23:20.593750
1383,26.51,2022-10-28 16:23:20.609375
1384,23.33,2022-10-28 16:23:20.625000
1385,23.6,2022-10-28 16:23:20.640625
1386,26.65,2022-10-28 16:23:20.656250
1387,31.45,2022-10-28 16:23:20.671875
1388,36.91,2022-10-28 16:23:20.687500
1389,41.99,2022-10-28 16:23:20.703125
1390,45.92,2022-10-28 16:23:20.718750
1391,48.19,2022-10-28 16:23:20.734375
1392,48.61,2022-10-28 16:23:20.750000
1393,47.14,2022-10-28 16:23:20.765625
1394,43.87,2022-10-28 16:23:20.781250
1395,38.87,2022-10-28 16:23:20.796875
1396,32.17,2022-10-28 16:23:20.812500
1397,23.86,2022-10-28 16:23:20.828125
1398,14.07,2022-10-28 16:23:20.843750
1399,3.11,2022-10-28 16:23:20.859375
1400,-8.57,2022-10-28 16:23:20.875000
1401,-20.44,2022-10-28 16:23:20.890625
1402,-31.97,2022-10-28 16:23:20.906250
1403,-42.79,2022-10-28 16:23:20.921875
1404,-52.72,2022-10-28 16:23:20.937500
1405,-61.85,2022-10-28 16:23:20.953125
1406,-70.55,2022-10-28 16:23:20.968750
1407,-79.52,2022-10-28 16:23:20.984375
1408,-89.82,2022-10-28 16:23:21.000000
1409,-102.55,2022-10-28 16:23:21.015625
1410,-118.25,2022-10-28 16:23:21.031250
1411,-136.15,2022-10-28 16:23:21.046875
1412,-153.75,2022-10-28 16:23:21.062500
1413,-166.93,2022-10-28 16:23:21.078125
1414,-171.11,2022-10-28 16:23:21.093750
1415,-162.76,2022-10-28 16:23:21.109375
1416,-140.88,2022-10-28 16:23:21.125000
1417,-107.53,2022-10-28 16:23:21.140625
1418,-67.24,2022-10-28 16:23:21.156250
1419,-25.51,2022-10-28 16:23:21.171875
1420,12.82,2022-10-28 16:23:21.187500
1421,44.65,2022-10-28 16:23:21.203125
1422,68.76,2022-10-28 16:23:21.218750
1423,85.3,2022-10-28 16:23:21.234375
1424,95.0,2022-10-28 16:23:21.250000
1425,98.54,2022-10-28 16:23:21.265625
1426,96.62,2022-10-28 16:23:21.281250
1427,90.04,2022-10-28 16:23:21.296875
1428,80.0,2022-10-28 16:23:21.312500
1429,68.13,2022-10-28 16:23:21.328125
1430,56.21,2022-10-28 16:23:21.343750
1431,45.88,2022-10-28 16:23:21.359375
1432,38.3,2022-10-28 16:23:21.375000
1433,34.03,2022-10-28 16:23:21.390625
1434,33.02,2022-10-28 16:23:21.406250
1435,34.82,2022-10-28 16:23:21.421875
1436,38.68,2022-10-28 16:23:21.437500
1437,43.75,2022-10-28 16:23:21.453125
1438,49.1,2022-10-28 16:23:21.468750
1439,53.91,2022-10-28 16:23:21.484375
1440,57.45,2022-10-28 16:23:21.500000
1441,59.21,2022-10-28 16:23:21.515625
1442,58.95,2022-10-28 16:23:21.531250
1443,56.6,2022-10-28 16:23:21.546875
1444,52.21,2022-10-28 16:23:21.562500
1445,45.84,2022-10-28 16:23:21.578125
1446,37.49,2022-10-28 16:23:21.593750
1447,27.27,2022-10-28 16:23:21.609375
1448,15.48,2022-10-28 16:23:21.625000
1449,2.7,2022-10-28 16:23:21.640625
1450,-10.29,2022-10-28 16:23:21.656250
1451,-22.75,2022-10-28 16:23:21.671875
1452,-34.25,2022-10-28 16:23:21.687500
1453,-44.74,2022-10-28 16:23:21.703125
1454,-54.57,2022-10-28 16:23:21.718750
1455,-64.31,2022-10-28 16:23:21.734375
1456,-74.57,2022-10-28 16:23:21.750000
1457,-86.01,2022-10-28 16:23:21.765625
1458,-99.15,2022-10-28 16:23:21.781250
1459,-114.21,2022-10-28 16:23:21.796875
1460,-130.52,2022-10-28 16:23:21.812500
1461,-146.15,2022-10-28 16:23:21.828125
1462,-157.82,2022-10-28 16:23:21.843750
1463,-161.65,2022-10-28 16:23:21.859375
1464,-154.33,2022-10-28 16:23:21.875000
1465,-134.5,2022-10-28 16:23:21.890625
1466,-103.42,2022-10-28 16:23:21.906250
1467,-64.77,2022-10-28 16:23:21.921875
1468,-23.47,2022-10-28 16:23:21.937500
1469,15.72,2022-10-28 16:23:21.953125
1470,49.34,2022-10-28 16:23:21.968750
1471,75.55,2022-10-28 16:23:21.984375
1472,93.89,2022-10-28 16:23:22.000000
1473,104.75,2022-10-28 16:23:22.015625
1474,108.93,2022-10-28 16:23:22.031250
1475,107.42,2022-10-28 16:23:22.046875
1476,101.39,2022-10-28 16:23:22.062500
1477,92.13,2022-10-28 16:23:22.078125
1478,81.0,2022-10-28 16:23:22.093750
1479,69.3,2022-10-28 16:23:22.109375
1480,58.31,2022-10-28 16:23:22.125000
1481,49.14,2022-10-28 16:23:22.140625
1482,42.72,2022-10-28 16:23:22.156250
1483,39.62,2022-10-28 16:23:22.171875
1484,39.89,2022-10-28 16:23:22.187500
1485,43.07,2022-10-28 16:23:22.203125
1486,48.18,2022-10-28 16:23:22.218750
1487,54.06,2022-10-28 16:23:22.234375
1488,59.55,2022-10-28 16:23:22.250000
1489,63.77,2022-10-28 16:23:22.265625
1490,66.13,2022-10-28 16:23:22.281250
1491,66.37,2022-10-28 16:23:22.296875
1492,64.43,2022-10-28 16:23:22.312500
1493,60.41,2022-10-28 16:23:22.328125
1494,54.51,2022-10-28 16:23:22.343750
1495,46.94,2022-10-28 16:23:22.359375
1496,37.87,2022-10-28 16:23:22.375000
1497,27.46,2022-10-28 16:23:22.390625
1498,15.83,2022-10-28 16:23:22.406250
1499,3.19,2022-10-28 16:23:22.421875
1500,-10.08,2022-10-28 16:23:22.437500
1501,-23.41,2022-10-28 16:23:22.453125
1502,-36.22,2022-10-28 16:23:22.468750
1503,-48.0,2022-10-28 16:23:22.484375
1504,-58.6,2022-10-28 16:23:22.500000
1505,-68.29,2022-10-28 16:23:22.515625
1506,-77.76,2022-10-28 16:23:22.531250
1507,-88.02,2022-10-28 16:23:22.546875
1508,-100.04,2022-10-28 16:23:22.562500
1509,-114.27,2022-10-28 16:23:22.578125
1510,-130.12,2022-10-28 16:23:22.593750
1511,-145.52,2022-10-28 16:23:22.609375
1512,-157.15,2022-10-28 16:23:22.625000
1513,-161.06,2022-10-28 16:23:22.640625
1514,-153.98,2022-10-28 16:23:22.656250
1515,-134.47,2022-10-28 16:23:22.671875
1516,-103.67,2022-10-28 16:23:22.687500
1517,-65.08,2022-10-28 16:23:22.703125
1518,-23.56,2022-10-28 16:23:22.718750
1519,16.04,2022-10-28 16:23:22.734375
1520,50.06,2022-10-28 16:23:22.750000
1521,76.58,2022-10-28 16:23:22.765625
1522,95.19,2022-10-28 16:23:22.781250
1523,106.4,2022-10-28 16:23:22.796875
1524,111.05,2022-10-28 16:23:22.812500
1525,109.94,2022-10-28 16:23:22.828125
1526,103.85,2022-10-28 16:23:22.843750
1527,93.71,2022-10-28 16:23:22.859375
1528,80.89,2022-10-28 16:23:22.875000
1529,67.11,2022-10-28 16:23:22.890625
1530,54.31,2022-10-28 16:23:22.906250
1531,44.23,2022-10-28 16:23:22.921875
1532,37.97,2022-10-28 16:23:22.937500
1533,35.76,2022-10-28 16:23:22.953125
1534,36.9,2022-10-28 16:23:22.968750
1535,40.16,2022-10-28 16:23:22.984375
1536,44.19,2022-10-28 16:23:23.000000
1537,47.95,2022-10-28 16:23:23.015625
1538,50.95,2022-10-28 16:23:23.031250
1539,53.08,2022-10-28 16:23:23.046875
1540,54.37,2022-10-28 16:23:23.062500
1541,54.67,2022-10-28 16:23:23.078125
1542,53.57,2022-10-28 16:23:23.093750
1543,50.45,2022-10-28 16:23:23.109375
1544,44.78,2022-10-28 16:23:23.125000
1545,36.31,2022-10-28 16:23:23.140625
1546,25.3,2022-10-28 16:23:23.156250
1547,12.52,2022-10-28 16:23:23.171875
1548,-0.96,2022-10-28 16:23:23.187500
1549,-14.01,2022-10-28 16:23:23.203125
1550,-25.84,2022-10-28 16:23:23.218750
1551,-36.2,2022-10-28 16:23:23.234375
1552,-45.45,2022-10-28 16:23:23.250000
1553,-54.42,2022-10-28 16:23:23.265625
1554,-64.1,2022-10-28 16:23:23.281250
1555,-75.44,2022-10-28 16:23:23.296875
1556,-89.05,2022-10-28 16:23:23.312500
1557,-104.93,2022-10-28 16:23:23.328125
1558,-122.08,2022-10-28 16:23:23.343750
1559,-138.31,2022-10-28 16:23:23.359375
1560,-150.36,2022-10-28 16:23:23.375000
1561,-154.49,2022-10-28 16:23:23.390625
1562,-147.67,2022-10-28 16:23:23.406250
1563,-128.66,2022-10-28 16:23:23.421875
1564,-98.7,2022-10-28 16:23:23.437500
1565,-61.3,2022-10-28 16:23:23.453125
1566,-21.21,2022-10-28 16:23:23.468750
1567,16.97,2022-10-28 16:23:23.484375
1568,49.87,2022-10-28 16:23:23.500000
1569,75.75,2022-10-28 16:23:23.515625
1570,94.2,2022-10-28 16:23:23.531250
1571,105.5,2022-10-28 16:23:23.546875
1572,110.16,2022-10-28 16:23:23.562500
1573,108.73,2022-10-28 16:23:23.578125
1574,101.97,2022-10-28 16:23:23.593750
1575,91.06,2022-10-28 16:23:23.609375
1576,77.61,2022-10-28 16:23:23.625000
1577,63.46,2022-10-28 16:23:23.640625
1578,50.36,2022-10-28 16:23:23.656250
1579,39.63,2022-10-28 16:23:23.671875
1580,31.92,2022-10-28 16:23:23.687500
1581,27.23,2022-10-28 16:23:23.703125
1582,25.08,2022-10-28 16:23:23.718750
1583,24.76,2022-10-28 16:23:23.734375
1584,25.7,2022-10-28 16:23:23.750000
1585,27.52,2022-10-28 16:23:23.765625
1586,30.07,2022-10-28 16:23:23.781250
1587,33.16,2022-10-28 16:23:23.796875
1588,36.35,2022-10-28 16:23:23.812500
1589,38.76,2022-10-28 16:23:23.828125
1590,39.23,2022-10-28 16:23:23.843750
1591,36.61,2022-10-28 16:23:23.859375
1592,30.18,2022-10-28 16:23:23.875000
1593,20.02,2022-10-28 16:23:23.890625
1594,7.04,2022-10-28 16:23:23.906250
1595,-7.24,2022-10-28 16:23:23.921875
1596,-21.15,2022-10-28 16:23:23.937500
1597,-33.41,2022-10-28 16:23:23.953125
1598,-43.5,2022-10-28 16:23:23.968750
1599,-51.83,2022-10-28 16:23:23.984375
1600,-59.58,2022-10-28 16:23:24.000000
1601,-68.34,2022-10-28 16:23:24.015625
1602,-79.67,2022-10-28 16:23:24.031250
1603,-94.41,2022-10-28 16:23:24.046875
1604,-112.22,2022-10-28 16:23:24.062500
1605,-131.09,2022-10-28 16:23:24.078125
1606,-147.53,2022-10-28 16:23:24.093750
1607,-157.2,2022-10-28 16:23:24.109375
1608,-156.29,2022-10-28 16:23:24.125000
1609,-142.71,2022-10-28 16:23:24.140625
1610,-116.98,2022-10-28 16:23:24.156250
1611,-82.16,2022-10-28 16:23:24.171875
1612,-42.86,2022-10-28 16:23:24.187500
1613,-3.83,2022-10-28 16:23:24.203125
1614,31.18,2022-10-28 16:23:24.218750
1615,59.94,2022-10-28 16:23:24.234375
1616,81.55,2022-10-28 16:23:24.250000
1617,95.87,2022-10-28 16:23:24.265625
1618,103.04,2022-10-28 16:23:24.281250
1619,103.34,2022-10-28 16:23:24.296875
1620,97.42,2022-10-28 16:23:24.312500
1621,86.5,2022-10-28 16:23:24.328125
1622,72.44,2022-10-28 16:23:24.343750
1623,57.42,2022-10-28 16:23:24.359375
1624,43.51,2022-10-28 16:23:24.375000
1625,32.28,2022-10-28 16:23:24.390625
1626,24.47,2022-10-28 16:23:24.406250
1627,20.06,2022-10-28 16:23:24.421875
1628,18.45,2022-10-28 16:23:24.437500
1629,18.82,2022-10-28 16:23:24.453125
1630,20.46,2022-10-28 16:23:24.468750
1631,22.96,2022-10-28 16:23:24.484375
1632,26.17,2022-10-28 16:23:24.500000
1633,29.96,2022-10-28 16:23:24.515625
1634,33.9,2022-10-28 16:23:24.531250
1635,37.1,2022-10-28 16:23:24.546875
1636,38.33,2022-10-28 16:23:24.562500
1637,36.37,2022-10-28 16:23:24.578125
1638,30.54,2022-10-28 16:23:24.593750
1639,21.05,2022-10-28 16:23:24.609375
1640,9.01,2022-10-28 16:23:24.625000
1641,-3.9,2022-10-28 16:23:24.640625
1642,-16.08,2022-10-28 16:23:24.656250
1643,-26.57,2022-10-28 16:23:24.671875
1644,-35.31,2022-10-28 16:23:24.687500
1645,-43.14,2022-10-28 16:23:24.703125
1646,-51.46,2022-10-28 16:23:24.718750
1647,-61.79,2022-10-28 16:23:24.734375
1648,-75.33,2022-10-28 16:23:24.750000
1649,-92.49,2022-10-28 16:23:24.765625
1650,-112.41,2022-10-28 16:23:24.781250
1651,-132.62,2022-10-28 16:23:24.796875
1652,-149.23,2022-10-28 16:23:24.812500
1653,-157.7,2022-10-28 16:23:24.828125
1654,-154.18,2022-10-28 16:23:24.843750
1655,-136.9,2022-10-28 16:23:24.859375
1656,-106.99,2022-10-28 16:23:24.875000
1657,-68.27,2022-10-28 16:23:24.890625
1658,-26.02,2022-10-28 16:23:24.906250
1659,14.54,2022-10-28 16:23:24.921875
1660,49.6,2022-10-28 16:23:24.937500
1661,77.17,2022-10-28 16:23:24.953125
1662,96.79,2022-10-28 16:23:24.968750
1663,108.81,2022-10-28 16:23:24.984375
1664,113.79,2022-10-28 16:23:25.000000
1665,112.3,2022-10-28 16:23:25.015625
1666,105.16,2022-10-28 16:23:25.031250
1667,93.64,2022-10-28 16:23:25.046875
1668,79.57,2022-10-28 16:23:25.062500
1669,65.13,2022-10-28 16:23:25.078125
1670,52.37,2022-10-28 16:23:25.093750
1671,42.81,2022-10-28 16:23:25.109375
1672,37.08,2022-10-28 16:23:25.125000
1673,34.87,2022-10-28 16:23:25.140625
1674,35.16,2022-10-28 16:23:25.156250
1675,36.7,2022-10-28 16:23:25.171875
1676,38.54,2022-10-28 16:23:25.187500
1677,40.27,2022-10-28 16:23:25.203125
1678,42.05,2022-10-28 16:23:25.218750
1679,44.17,2022-10-28 16:23:25.234375
1680,46.61,2022-10-28 16:23:25.250000
1681,48.74,2022-10-28 16:23:25.265625
1682,49.29,2022-10-28 16:23:25.281250
1683,46.89,2022-10-28 16:23:25.296875
1684,40.61,2022-10-28 16:23:25.312500
1685,30.45,2022-10-28 16:23:25.328125
1686,17.4,2022-10-28 16:23:25.343750
1687,3.11,2022-10-28 16:23:25.359375
1688,-10.69,2022-10-28 16:23:25.375000
1689,-22.9,2022-10-28 16:23:25.390625
1690,-33.27,2022-10-28 16:23:25.406250
1691,-42.39,2022-10-28 16:23:25.421875
1692,-51.42,2022-10-28 16:23:25.437500
1693,-61.67,2022-10-28 16:23:25.453125
1694,-74.33,2022-10-28 16:23:25.468750
1695,-90.14,2022-10-28 16:23:25.484375
1696,-108.94,2022-10-28 16:23:25.500000
1697,-129.23,2022-10-28 16:23:25.515625
1698,-147.98,2022-10-28 16:23:25.531250
1699,-161.02,2022-10-28 16:23:25.546875
1700,-164.06,2022-10-28 16:23:25.562500
1701,-154.13,2022-10-28 16:23:25.578125
1702,-130.81,2022-10-28 16:23:25.593750
1703,-96.56,2022-10-28 16:23:25.609375
1704,-56.01,2022-10-28 16:23:25.625000
1705,-14.49,2022-10-28 16:23:25.640625
1706,23.46,2022-10-28 16:23:25.656250
1707,54.99,2022-10-28 16:23:25.671875
1708,78.96,2022-10-28 16:23:25.687500
1709,95.39,2022-10-28 16:23:25.703125
1710,104.68,2022-10-28 16:23:25.718750
1711,107.23,2022-10-28 16:23:25.734375
1712,103.46,2022-10-28 16:23:25.750000
1713,94.12,2022-10-28 16:23:25.765625
1714,80.53,2022-10-28 16:23:25.781250
1715,64.62,2022-10-28 16:23:25.796875
1716,48.63,2022-10-28 16:23:25.812500
1717,34.65,2022-10-28 16:23:25.828125
1718,24.19,2022-10-28 16:23:25.843750
1719,17.85,2022-10-28 16:23:25.859375
1720,15.29,2022-10-28 16:23:25.875000
1721,15.59,2022-10-28 16:23:25.890625
1722,17.62,2022-10-28 16:23:25.906250
1723,20.54,2022-10-28 16:23:25.921875
1724,24.01,2022-10-28 16:23:25.937500
1725,28.09,2022-10-28 16:23:25.953125
1726,32.84,2022-10-28 16:23:25.968750
1727,38.01,2022-10-28 16:23:25.984375
1728,42.75,2022-10-28 16:23:26.000000
1729,45.8,2022-10-28 16:23:26.015625
1730,45.94,2022-10-28 16:23:26.031250
1731,42.39,2022-10-28 16:23:26.046875
1732,35.2,2022-10-28 16:23:26.062500
1733,25.28,2022-10-28 16:23:26.078125
1734,14.01,2022-10-28 16:23:26.093750
1735,2.71,2022-10-28 16:23:26.109375
1736,-7.78,2022-10-28 16:23:26.125000
1737,-17.4,2022-10-28 16:23:26.140625
1738,-26.72,2022-10-28 16:23:26.156250
1739,-36.67,2022-10-28 16:23:26.171875
1740,-48.24,2022-10-28 16:23:26.187500
1741,-62.23,2022-10-28 16:23:26.203125
1742,-79.02,2022-10-28 16:23:26.218750
1743,-98.21,2022-10-28 16:23:26.234375
1744,-118.19,2022-10-28 16:23:26.250000
1745,-136.01,2022-10-28 16:23:26.265625
1746,-147.59,2022-10-28 16:23:26.281250
1747,-148.81,2022-10-28 16:23:26.296875
1748,-136.89,2022-10-28 16:23:26.312500
1749,-111.61,2022-10-28 16:23:26.328125
1750,-75.68,2022-10-28 16:23:26.343750
1751,-33.97,2022-10-28 16:23:26.359375
1752,7.97,2022-10-28 16:23:26.375000
1753,45.58,2022-10-28 16:23:26.390625
1754,76.15,2022-10-28 16:23:26.406250
1755,98.82,2022-10-28 16:23:26.421875
1756,113.83,2022-10-28 16:23:26.437500
1757,121.71,2022-10-28 16:23:26.453125
1758,122.83,2022-10-28 16:23:26.468750
1759,117.56,2022-10-28 16:23:26.484375
1760,106.69,2022-10-28 16:23:26.500000
1761,91.8,2022-10-28 16:23:26.515625
1762,75.14,2022-10-28 16:23:26.531250
1763,59.26,2022-10-28 16:23:26.546875
1764,46.31,2022-10-28 16:23:26.562500
1765,37.52,2022-10-28 16:23:26.578125
1766,33.04,2022-10-28 16:23:26.593750
1767,32.1,2022-10-28 16:23:26.609375
1768,33.48,2022-10-28 16:23:26.625000
1769,36.06,2022-10-28 16:23:26.640625
1770,39.1,2022-10-28 16:23:26.656250
1771,42.41,2022-10-28 16:23:26.671875
1772,45.97,2022-10-28 16:23:26.687500
1773,49.67,2022-10-28 16:23:26.703125
1774,52.96,2022-10-28 16:23:26.718750
1775,54.82,2022-10-28 16:23:26.734375
1776,54.09,2022-10-28 16:23:26.750000
1777,49.82,2022-10-28 16:23:26.765625
1778,41.78,2022-10-28 16:23:26.781250
1779,30.58,2022-10-28 16:23:26.796875
1780,17.52,2022-10-28 16:23:26.812500
1781,4.21,2022-10-28 16:23:26.828125
1782,-8.0,2022-10-28 16:23:26.843750
1783,-18.36,2022-10-28 16:23:26.859375
1784,-26.98,2022-10-28 16:23:26.875000
1785,-34.73,2022-10-28 16:23:26.890625
1786,-42.97,2022-10-28 16:23:26.906250
1787,-53.16,2022-10-28 16:23:26.921875
1788,-66.46,2022-10-28 16:23:26.937500
1789,-83.25,2022-10-28 16:23:26.953125
1790,-102.62,2022-10-28 16:23:26.968750
1791,-122.07,2022-10-28 16:23:26.984375
1792,-137.74,2022-10-28 16:23:27.000000
1793,-145.2,2022-10-28 16:23:27.015625
1794,-140.8,2022-10-28 16:23:27.031250
1795,-123.01,2022-10-28 16:23:27.046875
1796,-93.15,2022-10-28 16:23:27.062500
1797,-55.06,2022-10-28 16:23:27.078125
1798,-13.99,2022-10-28 16:23:27.093750
1799,24.99,2022-10-28 16:23:27.109375
1800,58.23,2022-10-28 16:23:27.125000
1801,83.88,2022-10-28 16:23:27.140625
1802,101.61,2022-10-28 16:23:27.156250
1803,111.91,2022-10-28 16:23:27.171875
1804,115.45,2022-10-28 16:23:27.187500
1805,112.9,2022-10-28 16:23:27.203125
1806,105.11,2022-10-28 16:23:27.218750
1807,93.3,2022-10-28 16:23:27.234375
1808,79.13,2022-10-28 16:23:27.250000
1809,64.48,2022-10-28 16:23:27.265625
1810,51.07,2022-10-28 16:23:27.281250
1811,40.08,2022-10-28 16:23:27.296875
1812,31.92,2022-10-28 16:23:27.312500
1813,26.34,2022-10-28 16:23:27.328125
1814,22.71,2022-10-28 16:23:27.343750
1815,20.48,2022-10-28 16:23:27.359375
1816,19.43,2022-10-28 16:23:27.375000
1817,19.72,2022-10-28 16:23:27.390625
1818,21.62,2022-10-28 16:23:27.406250
1819,25.0,2022-10-28 16:23:27.421875
1820,29.0,2022-10-28 16:23:27.437500
1821,32.08,2022-10-28 16:23:27.453125
1822,32.45,2022-10-28 16:23:27.468750
1823,28.81,2022-10-28 16:23:27.484375
1824,20.95,2022-10-28 16:23:27.500000
1825,9.89,2022-10-28 16:23:27.515625
1826,-2.6,2022-10-28 16:23:27.531250
1827,-14.69,2022-10-28 16:23:27.546875
1828,-25.3,2022-10-28 16:23:27.562500
1829,-34.47,2022-10-28 16:23:27.578125
1830,-43.11,2022-10-28 16:23:27.593750
1831,-52.61,2022-10-28 16:23:27.609375
1832,-64.31,2022-10-28 16:23:27.625000
1833,-79.1,2022-10-28 16:23:27.640625
1834,-97.13,2022-10-28 16:23:27.656250
1835,-117.46,2022-10-28 16:23:27.671875
1836,-137.77,2022-10-28 16:23:27.687500
1837,-154.4,2022-10-28 16:23:27.703125
1838,-162.99,2022-10-28 16:23:27.718750
1839,-159.71,2022-10-28 16:23:27.734375
1840,-142.7,2022-10-28 16:23:27.750000
1841,-112.98,2022-10-28 16:23:27.765625
1842,-74.39,2022-10-28 16:23:27.781250
1843,-32.34,2022-10-28 16:23:27.796875
1844,7.77,2022-10-28 16:23:27.812500
1845,42.01,2022-10-28 16:23:27.828125
1846,68.45,2022-10-28 16:23:27.843750
1847,86.79,2022-10-28 16:23:27.859375
1848,97.55,2022-10-28 16:23:27.875000
1849,101.41,2022-10-28 16:23:27.890625
1850,99.01,2022-10-28 16:23:27.906250
1851,91.13,2022-10-28 16:23:27.921875
1852,78.98,2022-10-28 16:23:27.937500
1853,64.24,2022-10-28 16:23:27.953125
1854,48.82,2022-10-28 16:23:27.968750
1855,34.55,2022-10-28 16:23:27.984375
1856,22.77,2022-10-28 16:23:28.000000
1857,14.3,2022-10-28 16:23:28.015625
1858,9.39,2022-10-28 16:23:28.031250
1859,7.86,2022-10-28 16:23:28.046875
1860,9.25,2022-10-28 16:23:28.062500
1861,12.9,2022-10-28 16:23:28.078125
1862,17.93,2022-10-28 16:23:28.093750
1863,23.28,2022-10-28 16:23:28.109375
1864,27.83,2022-10-28 16:23:28.125000
1865,30.46,2022-10-28 16:23:28.140625
1866,30.31,2022-10-28 16:23:28.156250
1867,26.99,2022-10-28 16:23:28.171875
1868,20.73,2022-10-28 16:23:28.187500
1869,12.3,2022-10-28 16:23:28.203125
1870,2.77,2022-10-28 16:23:28.218750
1871,-6.87,2022-10-28 16:23:28.234375
1872,-16.09,2022-10-28 16:23:28.250000
1873,-24.99,2022-10-28 16:23:28.265625
1874,-34.41,2022-10-28 16:23:28.281250
1875,-45.63,2022-10-28 16:23:28.296875
1876,-59.88,2022-10-28 16:23:28.312500
1877,-77.63,2022-10-28 16:23:28.328125
1878,-97.88,2022-10-28 16:23:28.343750
1879,-117.71,2022-10-28 16:23:28.359375
1880,-132.74,2022-10-28 16:23:28.375000
1881,-138.25,2022-10-28 16:23:28.390625
1882,-130.84,2022-10-28 16:23:28.406250
1883,-109.8,2022-10-28 16:23:28.421875
1884,-77.55,2022-10-28 16:23:28.437500
1885,-38.9,2022-10-28 16:23:28.453125
1886,0.53,2022-10-28 16:23:28.468750
1887,35.95,2022-10-28 16:23:28.484375
1888,64.41,2022-10-28 16:23:28.500000
1889,84.87,2022-10-28 16:23:28.515625
1890,97.56,2022-10-28 16:23:28.531250
1891,103.19,2022-10-28 16:23:28.546875
1892,102.43,2022-10-28 16:23:28.562500
1893,95.96,2022-10-28 16:23:28.578125
1894,84.73,2022-10-28 16:23:28.593750
1895,70.16,2022-10-28 16:23:28.609375
1896,54.1,2022-10-28 16:23:28.625000
1897,38.51,2022-10-28 16:23:28.640625
1898,25.06,2022-10-28 16:23:28.656250
1899,14.84,2022-10-28 16:23:28.671875
1900,8.32,2022-10-28 16:23:28.687500
1901,5.38,2022-10-28 16:23:28.703125
1902,5.47,2022-10-28 16:23:28.718750
1903,7.83,2022-10-28 16:23:28.734375
1904,11.54,2022-10-28 16:23:28.750000
1905,15.61,2022-10-28 16:23:28.765625
1906,19.06,2022-10-28 16:23:28.781250
1907,20.92,2022-10-28 16:23:28.796875
1908,20.39,2022-10-28 16:23:28.812500
1909,17.06,2022-10-28 16:23:28.828125
1910,10.92,2022-10-28 16:23:28.843750
1911,2.51,2022-10-28 16:23:28.859375
1912,-7.3,2022-10-28 16:23:28.875000
1913,-17.54,2022-10-28 16:23:28.890625
1914,-27.51,2022-10-28 16:23:28.906250
1915,-37.06,2022-10-28 16:23:28.921875
1916,-46.79,2022-10-28 16:23:28.937500
1917,-57.98,2022-10-28 16:23:28.953125
1918,-72.03,2022-10-28 16:23:28.968750
1919,-89.7,2022-10-28 16:23:28.984375
1920,-110.12,2022-10-28 16:23:29.000000
1921,-130.33,2022-10-28 16:23:29.015625
1922,-145.67,2022-10-28 16:23:29.031250
1923,-151.07,2022-10-28 16:23:29.046875
1924,-142.86,2022-10-28 16:23:29.062500
1925,-120.22,2022-10-28 16:23:29.078125
1926,-85.68,2022-10-28 16:23:29.093750
1927,-44.29,2022-10-28 16:23:29.109375
1928,-1.97,2022-10-28 16:23:29.125000
1929,36.23,2022-10-28 16:23:29.140625
1930,67.15,2022-10-28 16:23:29.156250
1931,89.61,2022-10-28 16:23:29.171875
1932,103.8,2022-10-28 16:23:29.187500
1933,110.46,2022-10-28 16:23:29.203125
1934,110.41,2022-10-28 16:23:29.218750
1935,104.52,2022-10-28 16:23:29.234375
1936,93.87,2022-10-28 16:23:29.250000
1937,79.98,2022-10-28 16:23:29.265625
1938,64.67,2022-10-28 16:23:29.281250
1939,49.81,2022-10-28 16:23:29.296875
1940,36.92,2022-10-28 16:23:29.312500
1941,26.93,2022-10-28 16:23:29.328125
1942,20.21,2022-10-28 16:23:29.343750
1943,16.62,2022-10-28 16:23:29.359375
1944,15.8,2022-10-28 16:23:29.375000
1945,17.25,2022-10-28 16:23:29.390625
1946,20.33,2022-10-28 16:23:29.406250
1947,24.23,2022-10-28 16:23:29.421875
1948,27.87,2022-10-28 16:23:29.437500
1949,30.0,2022-10-28 16:23:29.453125
1950,29.46,2022-10-28 16:23:29.468750
1951,25.55,2022-10-28 16:23:29.484375
1952,18.28,2022-10-28 16:23:29.500000
1953,8.44,2022-10-28 16:23:29.515625
1954,-2.7,2022-10-28 16:23:29.531250
1955,-13.86,2022-10-28 16:23:29.546875
1956,-24.22,2022-10-28 16:23:29.562500
1957,-33.68,2022-10-28 16:23:29.578125
1958,-42.95,2022-10-28 16:23:29.593750
1959,-53.33,2022-10-28 16:23:29.609375
1960,-66.33,2022-10-28 16:23:29.625000
1961,-82.95,2022-10-28 16:23:29.640625
1962,-102.88,2022-10-28 16:23:29.656250
1963,-123.87,2022-10-28 16:23:29.671875
1964,-141.78,2022-10-28 16:23:29.687500
1965,-151.53,2022-10-28 16:23:29.703125
1966,-148.69,2022-10-28 16:23:29.718750
1967,-131.22,2022-10-28 16:23:29.734375
1968,-100.4,2022-10-28 16:23:29.750000
1969,-60.53,2022-10-28 16:23:29.765625
1970,-17.51,2022-10-28 16:23:29.781250
1971,23.09,2022-10-28 16:23:29.796875
1972,57.36,2022-10-28 16:23:29.812500
1973,83.59,2022-10-28 16:23:29.828125
1974,101.61,2022-10-28 16:23:29.843750
1975,111.98,2022-10-28 16:23:29.859375
1976,115.27,2022-10-28 16:23:29.875000
1977,112.0,2022-10-28 16:23:29.890625
1978,103.04,2022-10-28 16:23:29.906250
1979,89.89,2022-10-28 16:23:29.921875
1980,74.77,2022-10-28 16:23:29.937500
1981,60.14,2022-10-28 16:23:29.953125
1982,48.04,2022-10-28 16:23:29.968750
1983,39.62,2022-10-28 16:23:29.984375
1984,34.91,2022-10-28 16:23:30.000000
1985,33.12,2022-10-28 16:23:30.015625
1986,33.07,2022-10-28 16:23:30.031250
1987,33.82,2022-10-28 16:23:30.046875
1988,34.93,2022-10-28 16:23:30.062500
1989,36.46,2022-10-28 16:23:30.078125
1990,38.58,2022-10-28 16:23:30.093750
1991,41.13,2022-10-28 16:23:30.109375
1992,43.33,2022-10-28 16:23:30.125000
1993,43.81,2022-10-28 16:23:30.140625
1994,41.15,2022-10-28 16:23:30.156250
1995,34.43,2022-10-28 16:23:30.171875
1996,23.81,2022-10-28 16:23:30.187500
1997,10.52,2022-10-28 16:23:30.203125
1998,-3.58,2022-10-28 16:23:30.218750
1999,-16.7,2022-10-28 16:23:30.234375
2000,-27.82,2022-10-28 16:23:30.250000
2001,-37.11,2022-10-28 16:23:30.265625
2002,-45.72,2022-10-28 16:23:30.281250
2003,-55.39,2022-10-28 16:23:30.296875
2004,-67.81,2022-10-28 16:23:30.312500
2005,-84.04,2022-10-28 16:23:30.328125
2006,-103.88,2022-10-28 16:23:30.343750
2007,-125.48,2022-10-28 16:23:30.359375
2008,-145.28,2022-10-28 16:23:30.375000
2009,-158.59,2022-10-28 16:23:30.390625
2010,-160.81,2022-10-28 16:23:30.406250
2011,-148.96,2022-10-28 16:23:30.421875
2012,-122.93,2022-10-28 16:23:30.437500
2013,-85.73,2022-10-28 16:23:30.453125
2014,-42.68,2022-10-28 16:23:30.468750
2015,0.28,2022-10-28 16:23:30.484375
2016,38.31,2022-10-28 16:23:30.500000
2017,68.65,2022-10-28 16:23:30.515625
2018,90.66,2022-10-28 16:23:30.531250
2019,104.98,2022-10-28 16:23:30.546875
2020,112.66,2022-10-28 16:23:30.562500
2021,114.47,2022-10-28 16:23:30.578125
2022,110.91,2022-10-28 16:23:30.593750
2023,102.61,2022-10-28 16:23:30.609375
2024,90.69,2022-10-28 16:23:30.625000
2025,76.95,2022-10-28 16:23:30.640625
2026,63.52,2022-10-28 16:23:30.656250
2027,52.45,2022-10-28 16:23:30.671875
2028,45.1,2022-10-28 16:23:30.687500
2029,41.78,2022-10-28 16:23:30.703125
2030,41.82,2022-10-28 16:23:30.718750
2031,43.83,2022-10-28 16:23:30.734375
2032,46.4,2022-10-28 16:23:30.750000
2033,48.53,2022-10-28 16:23:30.765625
2034,49.92,2022-10-28 16:23:30.781250
2035,50.76,2022-10-28 16:23:30.796875
2036,51.34,2022-10-28 16:23:30.812500
2037,51.62,2022-10-28 16:23:30.828125
2038,50.98,2022-10-28 16:23:30.843750
2039,48.44,2022-10-28 16:23:30.859375
2040,43.06,2022-10-28 16:23:30.875000
2041,34.39,2022-10-28 16:23:30.890625
2042,22.81,2022-10-28 16:23:30.906250
2043,9.39,2022-10-28 16:23:30.921875
2044,-4.51,2022-10-28 16:23:30.937500
2045,-17.64,2022-10-28 16:23:30.953125
2046,-29.31,2022-10-28 16:23:30.968750
2047,-39.51,2022-10-28 16:23:30.984375
2048,-48.72,2022-10-28 16:23:31.000000
2049,-57.77,2022-10-28 16:23:31.015625
2050,-67.59,2022-10-28 16:23:31.031250
2051,-79.19,2022-10-28 16:23:31.046875
2052,-93.44,2022-10-28 16:23:31.062500
2053,-110.79,2022-10-28 16:23:31.078125
2054,-130.51,2022-10-28 16:23:31.093750
2055,-150.25,2022-10-28 16:23:31.109375
2056,-165.98,2022-10-28 16:23:31.125000
2057,-172.95,2022-10-28 16:23:31.140625
2058,-167.21,2022-10-28 16:23:31.156250
2059,-147.28,2022-10-28 16:23:31.171875
2060,-114.91,2022-10-28 16:23:31.187500
2061,-74.63,2022-10-28 16:23:31.203125
2062,-32.25,2022-10-28 16:23:31.218750
2063,7.02,2022-10-28 16:23:31.234375
2064,39.8,2022-10-28 16:23:31.250000
2065,64.86,2022-10-28 16:23:31.265625
2066,82.44,2022-10-28 16:23:31.281250
2067,93.29,2022-10-28 16:23:31.296875
2068,98.03,2022-10-28 16:23:31.312500
2069,97.04,2022-10-28 16:23:31.328125
2070,90.9,2022-10-28 16:23:31.343750
2071,80.8,2022-10-28 16:23:31.359375
2072,68.62,2022-10-28 16:23:31.375000
2073,56.61,2022-10-28 16:23:31.390625
2074,46.81,2022-10-28 16:23:31.406250
2075,40.5,2022-10-28 16:23:31.421875
2076,37.97,2022-10-28 16:23:31.437500
2077,38.6,2022-10-28 16:23:31.453125
2078,41.24,2022-10-28 16:23:31.468750
2079,44.71,2022-10-28 16:23:31.484375
2080,48.14,2022-10-28 16:23:31.500000
2081,51.14,2022-10-28 16:23:31.515625
2082,53.64,2022-10-28 16:23:31.531250
2083,55.76,2022-10-28 16:23:31.546875
2084,57.49,2022-10-28 16:23:31.562500
2085,58.58,2022-10-28 16:23:31.578125
2086,58.56,2022-10-28 16:23:31.593750
2087,56.8,2022-10-28 16:23:31.609375
2088,52.73,2022-10-28 16:23:31.625000
2089,45.99,2022-10-28 16:23:31.640625
2090,36.59,2022-10-28 16:23:31.656250
2091,24.99,2022-10-28 16:23:31.671875
2092,12.07,2022-10-28 16:23:31.687500
2093,-1.11,2022-10-28 16:23:31.703125
2094,-13.61,2022-10-28 16:23:31.718750
2095,-24.86,2022-10-28 16:23:31.734375
2096,-34.89,2022-10-28 16:23:31.750000
2097,-44.29,2022-10-28 16:23:31.765625
2098,-53.98,2022-10-28 16:23:31.781250
2099,-64.95,2022-10-28 16:23:31.796875
2100,-77.98,2022-10-28 16:23:31.812500
2101,-93.28,2022-10-28 16:23:31.828125
2102,-110.28,2022-10-28 16:23:31.843750
2103,-127.25,2022-10-28 16:23:31.859375
2104,-141.45,2022-10-28 16:23:31.875000
2105,-149.43,2022-10-28 16:23:31.890625
2106,-147.96,2022-10-28 16:23:31.906250
2107,-135.16,2022-10-28 16:23:31.921875
2108,-111.18,2022-10-28 16:23:31.937500
2109,-78.41,2022-10-28 16:23:31.953125
2110,-40.78,2022-10-28 16:23:31.968750
2111,-2.67,2022-10-28 16:23:31.984375
2112,32.19,2022-10-28 16:23:32.000000
2113,61.3,2022-10-28 16:23:32.015625
2114,83.41,2022-10-28 16:23:32.031250
2115,98.07,2022-10-28 16:23:32.046875
2116,105.34,2022-10-28 16:23:32.062500
2117,105.61,2022-10-28 16:23:32.078125
2118,99.69,2022-10-28 16:23:32.093750
2119,89.0,2022-10-28 16:23:32.109375
2120,75.42,2022-10-28 16:23:32.125000
2121,61.06,2022-10-28 16:23:32.140625
2122,47.77,2022-10-28 16:23:32.156250
2123,36.8,2022-10-28 16:23:32.171875
2124,28.66,2022-10-28 16:23:32.187500
2125,23.24,2022-10-28 16:23:32.203125
2126,20.09,2022-10-28 16:23:32.218750
2127,18.75,2022-10-28 16:23:32.234375
2128,19.02,2022-10-28 16:23:32.250000
2129,20.85,2022-10-28 16:23:32.265625
2130,24.15,2022-10-28 16:23:32.281250
2131,28.47,2022-10-28 16:23:32.296875
2132,32.73,2022-10-28 16:23:32.312500
2133,35.53,2022-10-28 16:23:32.328125
2134,35.46,2022-10-28 16:23:32.343750
2135,31.73,2022-10-28 16:23:32.359375
2136,24.44,2022-10-28 16:23:32.375000
2137,14.6,2022-10-28 16:23:32.390625
2138,3.65,2022-10-28 16:23:32.406250
2139,-7.13,2022-10-28 16:23:32.421875
2140,-17.09,2022-10-28 16:23:32.437500
2141,-26.37,2022-10-28 16:23:32.453125
2142,-35.73,2022-10-28 16:23:32.468750
2143,-46.26,2022-10-28 16:23:32.484375
2144,-58.96,2022-10-28 16:23:32.500000
2145,-74.38,2022-10-28 16:23:32.515625
2146,-92.22,2022-10-28 16:23:32.531250
2147,-110.94,2022-10-28 16:23:32.546875
2148,-127.69,2022-10-28 16:23:32.562500
2149,-138.69,2022-10-28 16:23:32.578125
2150,-140.21,2022-10-28 16:23:32.593750
2151,-129.82,2022-10-28 16:23:32.609375
2152,-107.37,2022-10-28 16:23:32.625000
2153,-75.25,2022-10-28 16:23:32.640625
2154,-37.68,2022-10-28 16:23:32.656250
2155,0.6,2022-10-28 16:23:32.671875
2156,35.58,2022-10-28 16:23:32.687500
2157,64.66,2022-10-28 16:23:32.703125
2158,86.65,2022-10-28 16:23:32.718750
2159,101.27,2022-10-28 16:23:32.734375
2160,108.65,2022-10-28 16:23:32.750000
2161,109.15,2022-10-28 16:23:32.765625
2162,103.47,2022-10-28 16:23:32.781250
2163,92.92,2022-10-28 16:23:32.796875
2164,79.36,2022-10-28 16:23:32.812500
2165,64.94,2022-10-28 16:23:32.828125
2166,51.56,2022-10-28 16:23:32.843750
2167,40.48,2022-10-28 16:23:32.859375
2168,32.15,2022-10-28 16:23:32.875000
2169,26.41,2022-10-28 16:23:32.890625
2170,22.78,2022-10-28 16:23:32.906250
2171,20.85,2022-10-28 16:23:32.921875
2172,20.47,2022-10-28 16:23:32.937500
2173,21.55,2022-10-28 16:23:32.953125
2174,23.95,2022-10-28 16:23:32.968750
2175,27.06,2022-10-28 16:23:32.984375
2176,29.82,2022-10-28 16:23:33.000000
2177,30.86,2022-10-28 16:23:33.015625
2178,28.99,2022-10-28 16:23:33.031250
2179,23.67,2022-10-28 16:23:33.046875
2180,15.29,2022-10-28 16:23:33.062500
2181,5.03,2022-10-28 16:23:33.078125
2182,-5.62,2022-10-28 16:23:33.093750
2183,-15.47,2022-10-28 16:23:33.109375
2184,-24.1,2022-10-28 16:23:33.125000
2185,-32.03,2022-10-28 16:23:33.140625
2186,-40.56,2022-10-28 16:23:33.156250
2187,-51.27,2022-10-28 16:23:33.171875
2188,-65.46,2022-10-28 16:23:33.187500
2189,-83.44,2022-10-28 16:23:33.203125
2190,-103.94,2022-10-28 16:23:33.218750
2191,-123.94,2022-10-28 16:23:33.234375
2192,-139.11,2022-10-28 16:23:33.250000
2193,-144.94,2022-10-28 16:23:33.265625
2194,-138.19,2022-10-28 16:23:33.281250
2195,-118.11,2022-10-28 16:23:33.296875
2196,-86.84,2022-10-28 16:23:33.312500
2197,-48.82,2022-10-28 16:23:33.328125
2198,-9.34,2022-10-28 16:23:33.343750
2199,27.01,2022-10-28 16:23:33.359375
2200,57.29,2022-10-28 16:23:33.375000
2201,80.27,2022-10-28 16:23:33.390625
2202,95.96,2022-10-28 16:23:33.406250
2203,104.81,2022-10-28 16:23:33.421875
2204,107.34,2022-10-28 16:23:33.437500
2205,104.15,2022-10-28 16:23:33.453125
2206,96.21,2022-10-28 16:23:33.468750
2207,84.97,2022-10-28 16:23:33.484375
2208,72.18,2022-10-28 16:23:33.500000
2209,59.52,2022-10-28 16:23:33.515625
2210,48.19,2022-10-28 16:23:33.531250
2211,38.79,2022-10-28 16:23:33.546875
2212,31.37,2022-10-28 16:23:33.562500
2213,25.78,2022-10-28 16:23:33.578125
2214,21.96,2022-10-28 16:23:33.593750
2215,19.99,2022-10-28 16:23:33.609375
2216,19.97,2022-10-28 16:23:33.625000
2217,21.73,2022-10-28 16:23:33.640625
2218,24.64,2022-10-28 16:23:33.656250
2219,27.56,2022-10-28 16:23:33.671875
2220,29.15,2022-10-28 16:23:33.687500
2221,28.27,2022-10-28 16:23:33.703125
2222,24.42,2022-10-28 16:23:33.718750
2223,17.86,2022-10-28 16:23:33.734375
2224,9.49,2022-10-28 16:23:33.750000
2225,0.41,2022-10-28 16:23:33.765625
2226,-8.51,2022-10-28 16:23:33.781250
2227,-17.01,2022-10-28 16:23:33.796875
2228,-25.47,2022-10-28 16:23:33.812500
2229,-34.83,2022-10-28 16:23:33.828125
2230,-46.33,2022-10-28 16:23:33.843750
2231,-61.01,2022-10-28 16:23:33.859375
2232,-79.15,2022-10-28 16:23:33.875000
2233,-99.58,2022-10-28 16:23:33.890625
2234,-119.43,2022-10-28 16:23:33.906250
2235,-134.45,2022-10-28 16:23:33.921875
2236,-140.1,2022-10-28 16:23:33.937500
2237,-133.1,2022-10-28 16:23:33.953125
2238,-112.75,2022-10-28 16:23:33.968750
2239,-81.26,2022-10-28 16:23:33.984375
2240,-43.18,2022-10-28 16:23:34.000000
2241,-3.85,2022-10-28 16:23:34.015625
2242,32.13,2022-10-28 16:23:34.031250
2243,61.86,2022-10-28 16:23:34.046875
2244,84.25,2022-10-28 16:23:34.062500
2245,99.4,2022-10-28 16:23:34.078125
2246,107.97,2022-10-28 16:23:34.093750
2247,110.67,2022-10-28 16:23:34.109375
2248,108.26,2022-10-28 16:23:34.125000
2249,101.7,2022-10-28 16:23:34.140625
2250,92.22,2022-10-28 16:23:34.156250
2251,81.16,2022-10-28 16:23:34.171875
2252,69.8,2022-10-28 16:23:34.187500
2253,59.08,2022-10-28 16:23:34.203125
2254,49.59,2022-10-28 16:23:34.218750
2255,41.62,2022-10-28 16:23:34.234375
2256,35.3,2022-10-28 16:23:34.250000
2257,30.73,2022-10-28 16:23:34.265625
2258,28.04,2022-10-28 16:23:34.281250
2259,27.24,2022-10-28 16:23:34.296875
2260,28.1,2022-10-28 16:23:34.312500
2261,29.96,2022-10-28 16:23:34.328125
2262,31.71,2022-10-28 16:23:34.343750
2263,32.02,2022-10-28 16:23:34.359375
2264,29.69,2022-10-28 16:23:34.375000
2265,24.1,2022-10-28 16:23:34.390625
2266,15.44,2022-10-28 16:23:34.406250
2267,4.63,2022-10-28 16:23:34.421875
2268,-7.07,2022-10-28 16:23:34.437500
2269,-18.55,2022-10-28 16:23:34.453125
2270,-29.3,2022-10-28 16:23:34.468750
2271,-39.52,2022-10-28 16:23:34.484375
2272,-50.17,2022-10-28 16:23:34.500000
2273,-62.57,2022-10-28 16:23:34.515625
2274,-78.01,2022-10-28 16:23:34.531250
2275,-96.96,2022-10-28 16:23:34.546875
2276,-118.37,2022-10-28 16:23:34.562500
2277,-139.25,2022-10-28 16:23:34.578125
2278,-155.04,2022-10-28 16:23:34.593750
2279,-160.85,2022-10-28 16:23:34.609375
2280,-153.19,2022-10-28 16:23:34.625000
2281,-131.38,2022-10-28 16:23:34.640625
2282,-98.05,2022-10-28 16:23:34.656250
2283,-58.31,2022-10-28 16:23:34.671875
2284,-17.96,2022-10-28 16:23:34.687500
2285,18.18,2022-10-28 16:23:34.703125
2286,47.38,2022-10-28 16:23:34.718750
2287,68.92,2022-10-28 16:23:34.734375
2288,83.33,2022-10-28 16:23:34.750000
2289,91.43,2022-10-28 16:23:34.765625
2290,93.92,2022-10-28 16:23:34.781250
2291,91.3,2022-10-28 16:23:34.796875
2292,84.2,2022-10-28 16:23:34.812500
2293,73.63,2022-10-28 16:23:34.828125
2294,60.87,2022-10-28 16:23:34.843750
2295,47.23,2022-10-28 16:23:34.859375
2296,33.88,2022-10-28 16:23:34.875000
2297,21.71,2022-10-28 16:23:34.890625
2298,11.45,2022-10-28 16:23:34.906250
2299,3.7,2022-10-28 16:23:34.921875
2300,-1.01,2022-10-28 16:23:34.937500
2301,-2.35,2022-10-28 16:23:34.953125
2302,-0.46,2022-10-28 16:23:34.968750
2303,3.92,2022-10-28 16:23:34.984375
2304,9.45,2022-10-28 16:23:35.000000
2305,14.5,2022-10-28 16:23:35.015625
2306,17.62,2022-10-28 16:23:35.031250
2307,17.96,2022-10-28 16:23:35.046875
2308,15.4,2022-10-28 16:23:35.062500
2309,10.51,2022-10-28 16:23:35.078125
2310,4.14,2022-10-28 16:23:35.093750
2311,-3.04,2022-10-28 16:23:35.109375
2312,-10.74,2022-10-28 16:23:35.125000
2313,-19.2,2022-10-28 16:23:35.140625
2314,-29.05,2022-10-28 16:23:35.156250
2315,-41.14,2022-10-28 16:23:35.171875
2316,-56.13,2022-10-28 16:23:35.187500
2317,-74.02,2022-10-28 16:23:35.203125
2318,-93.6,2022-10-28 16:23:35.218750
2319,-112.09,2022-10-28 16:23:35.234375
2320,-125.51,2022-10-28 16:23:35.250000
2321,-129.65,2022-10-28 16:23:35.265625
2322,-121.46,2022-10-28 16:23:35.281250
2323,-100.38,2022-10-28 16:23:35.296875
2324,-68.68,2022-10-28 16:23:35.312500
2325,-30.8,2022-10-28 16:23:35.328125
2326,8.05,2022-10-28 16:23:35.343750
2327,43.43,2022-10-28 16:23:35.359375
2328,72.58,2022-10-28 16:23:35.375000
2329,94.42,2022-10-28 16:23:35.390625
2330,109.06,2022-10-28 16:23:35.406250
2331,117.07,2022-10-28 16:23:35.421875
2332,119.12,2022-10-28 16:23:35.437500
2333,116.01,2022-10-28 16:23:35.453125
2334,108.78,2022-10-28 16:23:35.468750
2335,98.74,2022-10-28 16:23:35.484375
2336,87.3,2022-10-28 16:23:35.500000
2337,75.64,2022-10-28 16:23:35.515625
2338,64.56,2022-10-28 16:23:35.531250
2339,54.43,2022-10-28 16:23:35.546875
2340,45.46,2022-10-28 16:23:35.562500
2341,37.91,2022-10-28 16:23:35.578125
2342,32.21,2022-10-28 16:23:35.593750
2343,28.86,2022-10-28 16:23:35.609375
2344,28.11,2022-10-28 16:23:35.625000
2345,29.68,2022-10-28 16:23:35.640625
2346,32.58,2022-10-28 16:23:35.656250
2347,35.31,2022-10-28 16:23:35.671875
2348,36.25,2022-10-28 16:23:35.687500
2349,34.28,2022-10-28 16:23:35.703125
2350,29.15,2022-10-28 16:23:35.718750
2351,21.52,2022-10-28 16:23:35.734375
2352,12.64,2022-10-28 16:23:35.750000
2353,3.78,2022-10-28 16:23:35.765625
2354,-4.25,2022-10-28 16:23:35.781250
2355,-11.46,2022-10-28 16:23:35.796875
2356,-18.58,2022-10-28 16:23:35.812500
2357,-26.87,2022-10-28 16:23:35.828125
2358,-37.74,2022-10-28 16:23:35.843750
2359,-52.24,2022-10-28 16:23:35.859375
2360,-70.46,2022-10-28 16:23:35.875000
2361,-90.95,2022-10-28 16:23:35.890625
2362,-110.64,2022-10-28 16:23:35.906250
2363,-125.27,2022-10-28 16:23:35.921875
2364,-130.64,2022-10-28 16:23:35.937500
2365,-123.97,2022-10-28 16:23:35.953125
2366,-105.01,2022-10-28 16:23:35.968750
2367,-76.15,2022-10-28 16:23:35.984375
2368,-41.62,2022-10-28 16:23:36.000000
2369,-6.02,2022-10-28 16:23:36.015625
2370,26.86,2022-10-28 16:23:36.031250
2371,54.68,2022-10-28 16:23:36.046875
2372,76.41,2022-10-28 16:23:36.062500
2373,91.72,2022-10-28 16:23:36.078125
2374,100.5,2022-10-28 16:23:36.093750
2375,102.78,2022-10-28 16:23:36.109375
2376,98.97,2022-10-28 16:23:36.125000
2377,90.14,2022-10-28 16:23:36.140625
2378,77.99,2022-10-28 16:23:36.156250
2379,64.52,2022-10-28 16:23:36.171875
2380,51.47,2022-10-28 16:23:36.187500
2381,39.96,2022-10-28 16:23:36.203125
2382,30.46,2022-10-28 16:23:36.218750
2383,22.91,2022-10-28 16:23:36.234375
2384,17.21,2022-10-28 16:23:36.250000
2385,13.36,2022-10-28 16:23:36.265625
2386,11.51,2022-10-28 16:23:36.281250
2387,11.68,2022-10-28 16:23:36.296875
2388,13.46,2022-10-28 16:23:36.312500
2389,15.94,2022-10-28 16:23:36.328125
2390,17.85,2022-10-28 16:23:36.343750
2391,17.98,2022-10-28 16:23:36.359375
2392,15.6,2022-10-28 16:23:36.375000
2393,10.73,2022-10-28 16:23:36.390625
2394,3.99,2022-10-28 16:23:36.406250
2395,-3.72,2022-10-28 16:23:36.421875
2396,-11.59,2022-10-28 16:23:36.437500
2397,-19.24,2022-10-28 16:23:36.453125
2398,-26.8,2022-10-28 16:23:36.468750
2399,-34.86,2022-10-28 16:23:36.484375
2400,-44.26,2022-10-28 16:23:36.500000
2401,-55.97,2022-10-28 16:23:36.515625
2402,-70.57,2022-10-28 16:23:36.531250
2403,-87.82,2022-10-28 16:23:36.546875
2404,-106.05,2022-10-28 16:23:36.562500
2405,-122.11,2022-10-28 16:23:36.578125
2406,-131.91,2022-10-28 16:23:36.593750
2407,-131.62,2022-10-28 16:23:36.609375
2408,-119.11,2022-10-28 16:23:36.625000
2409,-94.86,2022-10-28 16:23:36.640625
2410,-61.93,2022-10-28 16:23:36.656250
2411,-24.89,2022-10-28 16:23:36.671875
2412,11.66,2022-10-28 16:23:36.687500
2413,44.36,2022-10-28 16:23:36.703125
2414,71.49,2022-10-28 16:23:36.718750
2415,92.65,2022-10-28 16:23:36.734375
2416,107.88,2022-10-28 16:23:36.750000
2417,117.11,2022-10-28 16:23:36.765625
2418,120.12,2022-10-28 16:23:36.781250
2419,116.89,2022-10-28 16:23:36.796875
2420,108.1,2022-10-28 16:23:36.812500
2421,95.28,2022-10-28 16:23:36.828125
2422,80.58,2022-10-28 16:23:36.843750
2423,66.2,2022-10-28 16:23:36.859375
2424,53.84,2022-10-28 16:23:36.875000
2425,44.39,2022-10-28 16:23:36.890625
2426,37.84,2022-10-28 16:23:36.906250
2427,33.58,2022-10-28 16:23:36.921875
2428,30.79,2022-10-28 16:23:36.937500
2429,28.77,2022-10-28 16:23:36.953125
2430,27.23,2022-10-28 16:23:36.968750
2431,26.18,2022-10-28 16:23:36.984375
2432,25.79,2022-10-28 16:23:37.000000
2433,26.03,2022-10-28 16:23:37.015625
2434,26.53,2022-10-28 16:23:37.031250
2435,26.57,2022-10-28 16:23:37.046875
2436,25.22,2022-10-28 16:23:37.062500
2437,21.73,2022-10-28 16:23:37.078125
2438,15.74,2022-10-28 16:23:37.093750
2439,7.4,2022-10-28 16:23:37.109375
2440,-2.68,2022-10-28 16:23:37.125000
2441,-13.69,2022-10-28 16:23:37.140625
2442,-24.83,2022-10-28 16:23:37.156250
2443,-35.59,2022-10-28 16:23:37.171875
2444,-45.75,2022-10-28 16:23:37.187500
2445,-55.48,2022-10-28 16:23:37.203125
2446,-65.21,2022-10-28 16:23:37.218750
2447,-75.56,2022-10-28 16:23:37.234375
2448,-87.21,2022-10-28 16:23:37.250000
2449,-100.51,2022-10-28 16:23:37.265625
2450,-115.06,2022-10-28 16:23:37.281250
2451,-129.25,2022-10-28 16:23:37.296875
2452,-140.25,2022-10-28 16:23:37.312500
2453,-144.6,2022-10-28 16:23:37.328125
2454,-139.28,2022-10-28 16:23:37.343750
2455,-122.82,2022-10-28 16:23:37.359375
2456,-96.09,2022-10-28 16:23:37.375000
2457,-62.13,2022-10-28 16:23:37.390625
2458,-25.17,2022-10-28 16:23:37.406250
2459,10.58,2022-10-28 16:23:37.421875
2460,42.03,2022-10-28 16:23:37.437500
2461,67.52,2022-10-28 16:23:37.453125
2462,86.51,2022-10-28 16:23:37.468750
2463,99.05,2022-10-28 16:23:37.484375
2464,105.28,2022-10-28 16:23:37.500000
2465,105.38,2022-10-28 16:23:37.515625
2466,99.83,2022-10-28 16:23:37.531250
2467,89.68,2022-10-28 16:23:37.546875
2468,76.6,2022-10-28 16:23:37.562500
2469,62.55,2022-10-28 16:23:37.578125
2470,49.36,2022-10-28 16:23:37.593750
2471,38.29,2022-10-28 16:23:37.609375
2472,29.86,2022-10-28 16:23:37.625000
2473,23.91,2022-10-28 16:23:37.640625
2474,19.91,2022-10-28 16:23:37.656250
2475,17.29,2022-10-28 16:23:37.671875
2476,15.7,2022-10-28 16:23:37.687500
2477,15.01,2022-10-28 16:23:37.703125
2478,15.31,2022-10-28 16:23:37.718750
2479,16.64,2022-10-28 16:23:37.734375
2480,18.77,2022-10-28 16:23:37.750000
2481,21.14,2022-10-28 16:23:37.765625
2482,22.81,2022-10-28 16:23:37.781250
2483,22.79,2022-10-28 16:23:37.796875
2484,20.25,2022-10-28 16:23:37.812500
2485,14.88,2022-10-28 16:23:37.828125
2486,7.09,2022-10-28 16:23:37.843750
2487,-2.21,2022-10-28 16:23:37.859375
2488,-11.89,2022-10-28 16:23:37.875000
2489,-21.1,2022-10-28 16:23:37.890625
2490,-29.55,2022-10-28 16:23:37.906250
2491,-37.51,2022-10-28 16:23:37.921875
2492,-45.51,2022-10-28 16:23:37.937500
2493,-54.06,2022-10-28 16:23:37.953125
2494,-63.52,2022-10-28 16:23:37.968750
2495,-74.13,2022-10-28 16:23:37.984375
2496,-86.07,2022-10-28 16:23:38.000000
2497,-99.25,2022-10-28 16:23:38.015625
2498,-112.77,2022-10-28 16:23:38.031250
2499,-124.67,2022-10-28 16:23:38.046875
2500,-131.92,2022-10-28 16:23:38.062500
2501,-131.28,2022-10-28 16:23:38.078125
2502,-120.48,2022-10-28 16:23:38.093750
2503,-99.23,2022-10-28 16:23:38.109375
2504,-69.57,2022-10-28 16:23:38.125000
2505,-35.27,2022-10-28 16:23:38.140625
2506,-0.61,2022-10-28 16:23:38.156250
2507,30.86,2022-10-28 16:23:38.171875
2508,56.98,2022-10-28 16:23:38.187500
2509,76.89,2022-10-28 16:23:38.203125
2510,90.57,2022-10-28 16:23:38.218750
2511,98.31,2022-10-28 16:23:38.234375
2512,100.38,2022-10-28 16:23:38.250000
2513,97.15,2022-10-28 16:23:38.265625
2514,89.34,2022-10-28 16:23:38.281250
2515,78.11,2022-10-28 16:23:38.296875
2516,65.0,2022-10-28 16:23:38.312500
2517,51.61,2022-10-28 16:23:38.328125
2518,39.19,2022-10-28 16:23:38.343750
2519,28.46,2022-10-28 16:23:38.359375
2520,19.56,2022-10-28 16:23:38.375000
2521,12.26,2022-10-28 16:23:38.390625
2522,6.32,2022-10-28 16:23:38.406250
2523,1.74,2022-10-28 16:23:38.421875
2524,-1.19,2022-10-28 16:23:38.437500
2525,-2.11,2022-10-28 16:23:38.453125
2526,-0.88,2022-10-28 16:23:38.468750
2527,2.04,2022-10-28 16:23:38.484375
2528,5.58,2022-10-28 16:23:38.500000
2529,8.35,2022-10-28 16:23:38.515625
2530,9.0,2022-10-28 16:23:38.531250
2531,6.79,2022-10-28 16:23:38.546875
2532,1.72,2022-10-28 16:23:38.562500
2533,-5.47,2022-10-28 16:23:38.578125
2534,-13.68,2022-10-28 16:23:38.593750
2535,-21.85,2022-10-28 16:23:38.609375
2536,-29.3,2022-10-28 16:23:38.625000
2537,-35.9,2022-10-28 16:23:38.640625
2538,-42.01,2022-10-28 16:23:38.656250
2539,-48.37,2022-10-28 16:23:38.671875
2540,-55.88,2022-10-28 16:23:38.687500
2541,-65.42,2022-10-28 16:23:38.703125
2542,-77.46,2022-10-28 16:23:38.718750
2543,-91.61,2022-10-28 16:23:38.734375
2544,-106.25,2022-10-28 16:23:38.750000
2545,-118.55,2022-10-28 16:23:38.765625
2546,-125.06,2022-10-28 16:23:38.781250
2547,-122.8,2022-10-28 16:23:38.796875
2548,-110.28,2022-10-28 16:23:38.812500
2549,-88.19,2022-10-28 16:23:38.828125
2550,-59.16,2022-10-28 16:23:38.843750
2551,-26.93,2022-10-28 16:23:38.859375
2552,4.82,2022-10-28 16:23:38.875000
2553,33.28,2022-10-28 16:23:38.890625
2554,56.75,2022-10-28 16:23:38.906250
2555,74.39,2022-10-28 16:23:38.921875
2556,85.8,2022-10-28 16:23:38.937500
2557,90.88,2022-10-28 16:23:38.953125
2558,89.84,2022-10-28 16:23:38.968750
2559,83.41,2022-10-28 16:23:38.984375
2560,72.88,2022-10-28 16:23:39.000000
2561,59.9,2022-10-28 16:23:39.015625
2562,46.09,2022-10-28 16:23:39.031250
2563,32.7,2022-10-28 16:23:39.046875
2564,20.49,2022-10-28 16:23:39.062500
2565,9.82,2022-10-28 16:23:39.078125
2566,0.83,2022-10-28 16:23:39.093750
2567,-6.34,2022-10-28 16:23:39.109375
2568,-11.47,2022-10-28 16:23:39.125000
2569,-14.37,2022-10-28 16:23:39.140625
2570,-15.04,2022-10-28 16:23:39.156250
2571,-13.85,2022-10-28 16:23:39.171875
2572,-11.56,2022-10-28 16:23:39.187500
2573,-9.16,2022-10-28 16:23:39.203125
2574,-7.68,2022-10-28 16:23:39.218750
2575,-7.88,2022-10-28 16:23:39.234375
2576,-10.0,2022-10-28 16:23:39.250000
2577,-13.79,2022-10-28 16:23:39.265625
2578,-18.65,2022-10-28 16:23:39.281250
2579,-23.93,2022-10-28 16:23:39.296875
2580,-29.22,2022-10-28 16:23:39.312500
2581,-34.56,2022-10-28 16:23:39.328125
2582,-40.42,2022-10-28 16:23:39.343750
2583,-47.57,2022-10-28 16:23:39.359375
2584,-56.86,2022-10-28 16:23:39.375000
2585,-68.76,2022-10-28 16:23:39.390625
2586,-82.97,2022-10-28 16:23:39.406250
2587,-98.01,2022-10-28 16:23:39.421875
2588,-111.25,2022-10-28 16:23:39.437500
2589,-119.37,2022-10-28 16:23:39.453125
2590,-119.32,2022-10-28 16:23:39.468750
2591,-109.33,2022-10-28 16:23:39.484375
2592,-89.6,2022-10-28 16:23:39.500000
2593,-62.28,2022-10-28 16:23:39.515625
2594,-30.76,2022-10-28 16:23:39.531250
2595,1.34,2022-10-28 16:23:39.546875
2596,31.03,2022-10-28 16:23:39.562500
2597,56.36,2022-10-28 16:23:39.578125
2598,76.29,2022-10-28 16:23:39.593750
2599,90.28,2022-10-28 16:23:39.609375
2600,98.1,2022-10-28 16:23:39.625000
2601,99.79,2022-10-28 16:23:39.640625
2602,95.77,2022-10-28 16:23:39.656250
2603,86.96,2022-10-28 16:23:39.671875
2604,74.68,2022-10-28 16:23:39.687500
2605,60.39,2022-10-28 16:23:39.703125
2606,45.41,2022-10-28 16:23:39.718750
2607,30.81,2022-10-28 16:23:39.734375
2608,17.36,2022-10-28 16:23:39.750000
2609,5.64,2022-10-28 16:23:39.765625
2610,-3.9,2022-10-28 16:23:39.781250
2611,-10.99,2022-10-28 16:23:39.796875
2612,-15.52,2022-10-28 16:23:39.812500
2613,-17.67,2022-10-28 16:23:39.828125
2614,-17.97,2022-10-28 16:23:39.843750
2615,-17.23,2022-10-28 16:23:39.859375
2616,-16.44,2022-10-28 16:23:39.875000
2617,-16.55,2022-10-28 16:23:39.890625
2618,-18.18,2022-10-28 16:23:39.906250
2619,-21.48,2022-10-28 16:23:39.921875
2620,-26.13,2022-10-28 16:23:39.937500
2621,-31.55,2022-10-28 16:23:39.953125
2622,-37.12,2022-10-28 16:23:39.968750
2623,-42.57,2022-10-28 16:23:39.984375
2624,-48.05,2022-10-28 16:23:40.000000
2625,-54.14,2022-10-28 16:23:40.015625
2626,-61.8,2022-10-28 16:23:40.031250
2627,-71.97,2022-10-28 16:23:40.046875
2628,-85.25,2022-10-28 16:23:40.062500
2629,-101.27,2022-10-28 16:23:40.078125
2630,-118.27,2022-10-28 16:23:40.093750
2631,-133.13,2022-10-28 16:23:40.109375
2632,-141.98,2022-10-28 16:23:40.125000
2633,-141.31,2022-10-28 16:23:40.140625
2634,-129.22,2022-10-28 16:23:40.156250
2635,-106.08,2022-10-28 16:23:40.171875
2636,-74.46,2022-10-28 16:23:40.187500
2637,-38.31,2022-10-28 16:23:40.203125
2638,-1.73,2022-10-28 16:23:40.218750
2639,31.94,2022-10-28 16:23:40.234375
2640,60.49,2022-10-28 16:23:40.250000
2641,82.7,2022-10-28 16:23:40.265625
2642,98.03,2022-10-28 16:23:40.281250
2643,106.34,2022-10-28 16:23:40.296875
2644,107.93,2022-10-28 16:23:40.312500
2645,103.63,2022-10-28 16:23:40.328125
2646,94.69,2022-10-28 16:23:40.343750
2647,82.6,2022-10-28 16:23:40.359375
2648,68.77,2022-10-28 16:23:40.375000
2649,54.28,2022-10-28 16:23:40.390625
2650,39.89,2022-10-28 16:23:40.406250
2651,26.18,2022-10-28 16:23:40.421875
2652,13.77,2022-10-28 16:23:40.437500
2653,3.33,2022-10-28 16:23:40.453125
2654,-4.45,2022-10-28 16:23:40.468750
2655,-9.17,2022-10-28 16:23:40.484375
2656,-10.91,2022-10-28 16:23:40.500000
2657,-10.31,2022-10-28 16:23:40.515625
2658,-8.53,2022-10-28 16:23:40.531250
2659,-6.9,2022-10-28 16:23:40.546875
2660,-6.59,2022-10-28 16:23:40.562500
2661,-8.24,2022-10-28 16:23:40.578125
2662,-11.89,2022-10-28 16:23:40.593750
2663,-17.07,2022-10-28 16:23:40.609375
2664,-23.11,2022-10-28 16:23:40.625000
2665,-29.49,2022-10-28 16:23:40.640625
2666,-36.03,2022-10-28 16:23:40.656250
2667,-43.02,2022-10-28 16:23:40.671875
2668,-51.17,2022-10-28 16:23:40.687500
2669,-61.42,2022-10-28 16:23:40.703125
2670,-74.63,2022-10-28 16:23:40.718750
2671,-90.98,2022-10-28 16:23:40.734375
2672,-109.46,2022-10-28 16:23:40.750000
2673,-127.45,2022-10-28 16:23:40.765625
2674,-141.08,2022-10-28 16:23:40.781250
2675,-146.11,2022-10-28 16:23:40.796875
2676,-139.33,2022-10-28 16:23:40.812500
2677,-119.8,2022-10-28 16:23:40.828125
2678,-89.25,2022-10-28 16:23:40.843750
2679,-51.61,2022-10-28 16:23:40.859375
2680,-11.73,2022-10-28 16:23:40.875000
2681,25.99,2022-10-28 16:23:40.890625
2682,58.48,2022-10-28 16:23:40.906250
2683,84.12,2022-10-28 16:23:40.921875
2684,102.41,2022-10-28 16:23:40.937500
2685,113.38,2022-10-28 16:23:40.953125
2686,117.28,2022-10-28 16:23:40.968750
2687,114.65,2022-10-28 16:23:40.984375
2688,106.39,2022-10-28 16:23:41.000000
2689,93.84,2022-10-28 16:23:41.015625
2690,78.58,2022-10-28 16:23:41.031250
2691,62.2,2022-10-28 16:23:41.046875
2692,46.03,2022-10-28 16:23:41.062500
2693,31.08,2022-10-28 16:23:41.078125
2694,18.09,2022-10-28 16:23:41.093750
2695,7.65,2022-10-28 16:23:41.109375
2696,0.17,2022-10-28 16:23:41.125000
2697,-4.14,2022-10-28 16:23:41.140625
2698,-5.47,2022-10-28 16:23:41.156250
2699,-4.47,2022-10-28 16:23:41.171875
2700,-2.23,2022-10-28 16:23:41.187500
2701,-0.05,2022-10-28 16:23:41.203125
2702,0.86,2022-10-28 16:23:41.218750
2703,-0.36,2022-10-28 16:23:41.234375
2704,-3.96,2022-10-28 16:23:41.250000
2705,-9.73,2022-10-28 16:23:41.265625
2706,-17.14,2022-10-28 16:23:41.281250
2707,-25.64,2022-10-28 16:23:41.296875
2708,-34.88,2022-10-28 16:23:41.312500
2709,-44.76,2022-10-28 16:23:41.328125
2710,-55.53,2022-10-28 16:23:41.343750
2711,-67.74,2022-10-28 16:23:41.359375
2712,-82.07,2022-10-28 16:23:41.375000
2713,-98.85,2022-10-28 16:23:41.390625
2714,-117.5,2022-10-28 16:23:41.406250
2715,-135.99,2022-10-28 16:23:41.421875
2716,-150.87,2022-10-28 16:23:41.437500
2717,-158.01,2022-10-28 16:23:41.453125
2718,-153.8,2022-10-28 16:23:41.468750
2719,-136.58,2022-10-28 16:23:41.484375
2720,-107.27,2022-10-28 16:23:41.500000
2721,-69.19,2022-10-28 16:23:41.515625
2722,-27.0,2022-10-28 16:23:41.531250
2723,14.68,2022-10-28 16:23:41.546875
2724,52.25,2022-10-28 16:23:41.562500
2725,83.5,2022-10-28 16:23:41.578125
2726,107.37,2022-10-28 16:23:41.593750
2727,123.47,2022-10-28 16:23:41.609375
2728,131.82,2022-10-28 16:23:41.625000
2729,132.81,2022-10-28 16:23:41.640625
2730,127.32,2022-10-28 16:23:41.656250
2731,116.74,2022-10-28 16:23:41.671875
2732,102.85,2022-10-28 16:23:41.687500
2733,87.51,2022-10-28 16:23:41.703125
2734,72.43,2022-10-28 16:23:41.718750
2735,58.91,2022-10-28 16:23:41.734375
2736,47.85,2022-10-28 16:23:41.750000
2737,39.75,2022-10-28 16:23:41.765625
2738,34.73,2022-10-28 16:23:41.781250
2739,32.61,2022-10-28 16:23:41.796875
2740,32.98,2022-10-28 16:23:41.812500
2741,35.13,2022-10-28 16:23:41.828125
2742,38.17,2022-10-28 16:23:41.843750
2743,41.08,2022-10-28 16:23:41.859375
2744,42.79,2022-10-28 16:23:41.875000
2745,42.4,2022-10-28 16:23:41.890625
2746,39.31,2022-10-28 16:23:41.906250
2747,33.34,2022-10-28 16:23:41.921875
2748,24.69,2022-10-28 16:23:41.937500
2749,13.89,2022-10-28 16:23:41.953125
2750,1.59,2022-10-28 16:23:41.968750
2751,-11.64,2022-10-28 16:23:41.984375
2752,-25.6,2022-10-28 16:23:42.000000
2753,-40.57,2022-10-28 16:23:42.015625
2754,-57.24,2022-10-28 16:23:42.031250
2755,-76.16,2022-10-28 16:23:42.046875
2756,-97.09,2022-10-28 16:23:42.062500
2757,-118.25,2022-10-28 16:23:42.078125
2758,-136.26,2022-10-28 16:23:42.093750
2759,-146.85,2022-10-28 16:23:42.109375
2760,-146.28,2022-10-28 16:23:42.125000
2761,-132.77,2022-10-28 16:23:42.140625
2762,-107.19,2022-10-28 16:23:42.156250
2763,-72.8,2022-10-28 16:23:42.171875
2764,-34.03,2022-10-28 16:23:42.187500
2765,4.92,2022-10-28 16:23:42.203125
2766,40.91,2022-10-28 16:23:42.218750
2767,72.02,2022-10-28 16:23:42.234375
2768,97.04,2022-10-28 16:23:42.250000
2769,115.05,2022-10-28 16:23:42.265625
2770,125.31,2022-10-28 16:23:42.281250
2771,127.54,2022-10-28 16:23:42.296875
2772,122.34,2022-10-28 16:23:42.312500
2773,111.27,2022-10-28 16:23:42.328125
2774,96.52,2022-10-28 16:23:42.343750
2775,80.32,2022-10-28 16:23:42.359375
2776,64.49,2022-10-28 16:23:42.375000
2777,50.25,2022-10-28 16:23:42.390625
2778,38.42,2022-10-28 16:23:42.406250
2779,29.56,2022-10-28 16:23:42.421875
2780,24.11,2022-10-28 16:23:42.437500
2781,22.23,2022-10-28 16:23:42.453125
2782,23.67,2022-10-28 16:23:42.468750
2783,27.55,2022-10-28 16:23:42.484375
2784,32.54,2022-10-28 16:23:42.500000
2785,37.05,2022-10-28 16:23:42.515625
2786,39.68,2022-10-28 16:23:42.531250
2787,39.51,2022-10-28 16:23:42.546875
2788,36.33,2022-10-28 16:23:42.562500
2789,30.56,2022-10-28 16:23:42.578125
2790,23.07,2022-10-28 16:23:42.593750
2791,14.76,2022-10-28 16:23:42.609375
2792,6.2,2022-10-28 16:23:42.625000
2793,-2.61,2022-10-28 16:23:42.640625
2794,-12.36,2022-10-28 16:23:42.656250
2795,-24.23,2022-10-28 16:23:42.671875
2796,-39.38,2022-10-28 16:23:42.687500
2797,-58.25,2022-10-28 16:23:42.703125
2798,-79.85,2022-10-28 16:23:42.718750
2799,-101.38,2022-10-28 16:23:42.734375
2800,-118.66,2022-10-28 16:23:42.750000
2801,-127.2,2022-10-28 16:23:42.765625
2802,-123.6,2022-10-28 16:23:42.781250
2803,-106.77,2022-10-28 16:23:42.796875
2804,-78.34,2022-10-28 16:23:42.812500
2805,-42.14,2022-10-28 16:23:42.828125
2806,-2.97,2022-10-28 16:23:42.843750
2807,34.73,2022-10-28 16:23:42.859375
2808,67.78,2022-10-28 16:23:42.875000
2809,94.5,2022-10-28 16:23:42.890625
2810,114.4,2022-10-28 16:23:42.906250
2811,127.58,2022-10-28 16:23:42.921875
2812,134.29,2022-10-28 16:23:42.937500
2813,134.78,2022-10-28 16:23:42.953125
2814,129.37,2022-10-28 16:23:42.968750
2815,118.71,2022-10-28 16:23:42.984375
2816,103.97,2022-10-28 16:23:43.000000
2817,86.75,2022-10-28 16:23:43.015625
2818,68.97,2022-10-28 16:23:43.031250
2819,52.5,2022-10-28 16:23:43.046875
2820,38.82,2022-10-28 16:23:43.062500
2821,28.77,2022-10-28 16:23:43.078125
2822,22.48,2022-10-28 16:23:43.093750
2823,19.48,2022-10-28 16:23:43.109375
2824,18.91,2022-10-28 16:23:43.125000
2825,19.81,2022-10-28 16:23:43.140625
2826,21.25,2022-10-28 16:23:43.156250
2827,22.36,2022-10-28 16:23:43.171875
2828,22.47,2022-10-28 16:23:43.187500
2829,21.03,2022-10-28 16:23:43.203125
2830,17.75,2022-10-28 16:23:43.218750
2831,12.61,2022-10-28 16:23:43.234375
2832,5.86,2022-10-28 16:23:43.250000
2833,-2.14,2022-10-28 16:23:43.265625
2834,-11.17,2022-10-28 16:23:43.281250
2835,-21.37,2022-10-28 16:23:43.296875
2836,-33.35,2022-10-28 16:23:43.312500
2837,-48.0,2022-10-28 16:23:43.328125
2838,-65.93,2022-10-28 16:23:43.343750
2839,-86.64,2022-10-28 16:23:43.359375
2840,-107.94,2022-10-28 16:23:43.375000
2841,-125.97,2022-10-28 16:23:43.390625
2842,-136.11,2022-10-28 16:23:43.406250
2843,-134.45,2022-10-28 16:23:43.421875
2844,-119.27,2022-10-28 16:23:43.437500
2845,-91.86,2022-10-28 16:23:43.453125
2846,-56.05,2022-10-28 16:23:43.468750
2847,-17.08,2022-10-28 16:23:43.484375
2848,20.07,2022-10-28 16:23:43.500000
2849,51.8,2022-10-28 16:23:43.515625
2850,76.29,2022-10-28 16:23:43.531250
2851,93.1,2022-10-28 16:23:43.546875
2852,102.48,2022-10-28 16:23:43.562500
2853,104.86,2022-10-28 16:23:43.578125
2854,100.69,2022-10-28 16:23:43.593750
2855,90.66,2022-10-28 16:23:43.609375
2856,75.99,2022-10-28 16:23:43.625000
2857,58.52,2022-10-28 16:23:43.640625
2858,40.49,2022-10-28 16:23:43.656250
2859,24.11,2022-10-28 16:23:43.671875
2860,11.07,2022-10-28 16:23:43.687500
2861,2.25,2022-10-28 16:23:43.703125
2862,-2.36,2022-10-28 16:23:43.718750
2863,-3.53,2022-10-28 16:23:43.734375
2864,-2.35,2022-10-28 16:23:43.750000
2865,0.02,2022-10-28 16:23:43.765625
2866,2.69,2022-10-28 16:23:43.781250
2867,5.03,2022-10-28 16:23:43.796875
2868,6.68,2022-10-28 16:23:43.812500
2869,7.36,2022-10-28 16:23:43.828125
2870,6.82,2022-10-28 16:23:43.843750
2871,4.76,2022-10-28 16:23:43.859375
2872,0.86,2022-10-28 16:23:43.875000
2873,-5.23,2022-10-28 16:23:43.890625
2874,-13.95,2022-10-28 16:23:43.906250
2875,-25.78,2022-10-28 16:23:43.921875
2876,-41.14,2022-10-28 16:23:43.937500
2877,-59.94,2022-10-28 16:23:43.953125
2878,-81.14,2022-10-28 16:23:43.968750
2879,-102.38,2022-10-28 16:23:43.984375
2880,-120.16,2022-10-28 16:23:44.000000
2881,-130.59,2022-10-28 16:23:44.015625
2882,-130.45,2022-10-28 16:23:44.031250
2883,-118.24,2022-10-28 16:23:44.046875
2884,-94.59,2022-10-28 16:23:44.062500
2885,-62.09,2022-10-28 16:23:44.078125
2886,-24.49,2022-10-28 16:23:44.093750
2887,14.17,2022-10-28 16:23:44.109375
2888,50.33,2022-10-28 16:23:44.125000
2889,81.23,2022-10-28 16:23:44.140625
2890,105.01,2022-10-28 16:23:44.156250
2891,120.66,2022-10-28 16:23:44.171875
2892,127.9,2022-10-28 16:23:44.187500
2893,127.23,2022-10-28 16:23:44.203125
2894,119.77,2022-10-28 16:23:44.218750
2895,107.25,2022-10-28 16:23:44.234375
2896,91.75,2022-10-28 16:23:44.250000
2897,75.52,2022-10-28 16:23:44.265625
2898,60.63,2022-10-28 16:23:44.281250
2899,48.7,2022-10-28 16:23:44.296875
2900,40.58,2022-10-28 16:23:44.312500
2901,36.14,2022-10-28 16:23:44.328125
2902,34.49,2022-10-28 16:23:44.343750
2903,34.31,2022-10-28 16:23:44.359375
2904,34.42,2022-10-28 16:23:44.375000
2905,34.11,2022-10-28 16:23:44.390625
2906,33.17,2022-10-28 16:23:44.406250
2907,31.72,2022-10-28 16:23:44.421875
2908,29.81,2022-10-28 16:23:44.437500
2909,27.14,2022-10-28 16:23:44.453125
2910,23.11,2022-10-28 16:23:44.468750
2911,16.93,2022-10-28 16:23:44.484375
2912,7.93,2022-10-28 16:23:44.500000
2913,-4.37,2022-10-28 16:23:44.515625
2914,-20.09,2022-10-28 16:23:44.531250
2915,-38.77,2022-10-28 16:23:44.546875
2916,-59.09,2022-10-28 16:23:44.562500
2917,-78.64,2022-10-28 16:23:44.578125
2918,-94.07,2022-10-28 16:23:44.593750
2919,-101.76,2022-10-28 16:23:44.609375
2920,-98.91,2022-10-28 16:23:44.625000
2921,-84.55,2022-10-28 16:23:44.640625
2922,-60.14,2022-10-28 16:23:44.656250
2923,-29.17,2022-10-28 16:23:44.671875
2924,3.79,2022-10-28 16:23:44.687500
2925,34.54,2022-10-28 16:23:44.703125
2926,60.14,2022-10-28 16:23:44.718750
2927,79.27,2022-10-28 16:23:44.734375
2928,91.8,2022-10-28 16:23:44.750000
2929,98.19,2022-10-28 16:23:44.765625
2930,98.84,2022-10-28 16:23:44.781250
2931,94.02,2022-10-28 16:23:44.796875
2932,84.17,2022-10-28 16:23:44.812500
2933,70.2,2022-10-28 16:23:44.828125
2934,53.78,2022-10-28 16:23:44.843750
2935,37.13,2022-10-28 16:23:44.859375
2936,22.54,2022-10-28 16:23:44.875000
2937,11.77,2022-10-28 16:23:44.890625
2938,5.59,2022-10-28 16:23:44.906250
2939,3.62,2022-10-28 16:23:44.921875
2940,4.73,2022-10-28 16:23:44.937500
2941,7.4,2022-10-28 16:23:44.953125
2942,10.26,2022-10-28 16:23:44.968750
2943,12.34,2022-10-28 16:23:44.984375
2944,13.07,2022-10-28 16:23:45.000000
2945,12.2,2022-10-28 16:23:45.015625
2946,9.64,2022-10-28 16:23:45.031250
2947,5.43,2022-10-28 16:23:45.046875
2948,-0.32,2022-10-28 16:23:45.062500
2949,-7.36,2022-10-28 16:23:45.078125
2950,-15.41,2022-10-28 16:23:45.093750
2951,-24.28,2022-10-28 16:23:45.109375
2952,-34.02,2022-10-28 16:23:45.125000
2953,-45.09,2022-10-28 16:23:45.140625
2954,-58.26,2022-10-28 16:23:45.156250
2955,-74.13,2022-10-28 16:23:45.171875
2956,-92.43,2022-10-28 16:23:45.187500
2957,-111.36,2022-10-28 16:23:45.203125
2958,-127.52,2022-10-28 16:23:45.218750
2959,-136.64,2022-10-28 16:23:45.234375
2960,-134.92,2022-10-28 16:23:45.250000
2961,-120.51,2022-10-28 16:23:45.265625
2962,-94.26,2022-10-28 16:23:45.281250
2963,-59.52,2022-10-28 16:23:45.296875
2964,-20.96,2022-10-28 16:23:45.312500
2965,16.84,2022-10-28 16:23:45.328125
2966,50.41,2022-10-28 16:23:45.343750
2967,77.71,2022-10-28 16:23:45.359375
2968,97.82,2022-10-28 16:23:45.375000
2969,110.46,2022-10-28 16:23:45.390625
2970,115.74,2022-10-28 16:23:45.406250
2971,114.19,2022-10-28 16:23:45.421875
2972,106.96,2022-10-28 16:23:45.437500
2973,95.86,2022-10-28 16:23:45.453125
2974,83.08,2022-10-28 16:23:45.468750
2975,70.66,2022-10-28 16:23:45.484375
2976,60.03,2022-10-28 16:23:45.500000
2977,51.83,2022-10-28 16:23:45.515625
2978,45.99,2022-10-28 16:23:45.531250
2979,42.06,2022-10-28 16:23:45.546875
2980,39.6,2022-10-28 16:23:45.562500
2981,38.38,2022-10-28 16:23:45.578125
2982,38.4,2022-10-28 16:23:45.593750
2983,39.67,2022-10-28 16:23:45.609375
2984,41.83,2022-10-28 16:23:45.625000
2985,44.06,2022-10-28 16:23:45.640625
2986,45.1,2022-10-28 16:23:45.656250
2987,43.67,2022-10-28 16:23:45.671875
2988,38.98,2022-10-28 16:23:45.687500
2989,30.99,2022-10-28 16:23:45.703125
2990,20.48,2022-10-28 16:23:45.718750
2991,8.7,2022-10-28 16:23:45.734375
2992,-3.11,2022-10-28 16:23:45.750000
2993,-14.18,2022-10-28 16:23:45.765625
2994,-24.42,2022-10-28 16:23:45.781250
2995,-34.47,2022-10-28 16:23:45.796875
2996,-45.41,2022-10-28 16:23:45.812500
2997,-58.52,2022-10-28 16:23:45.828125
2998,-74.7,2022-10-28 16:23:45.843750
2999,-93.9,2022-10-28 16:23:45.859375
3000,-114.57,2022-10-28 16:23:45.875000
3001,-133.54,2022-10-28 16:23:45.890625
3002,-146.55,2022-10-28 16:23:45.906250
3003,-149.48,2022-10-28 16:23:45.921875
3004,-139.72,2022-10-28 16:23:45.937500
3005,-117.25,2022-10-28 16:23:45.953125
3006,-84.75,2022-10-28 16:23:45.968750
3007,-46.77,2022-10-28 16:23:45.984375
3008,-8.28,2022-10-28 16:23:46.000000
3009,26.6,2022-10-28 16:23:46.015625
3010,55.39,2022-10-28 16:23:46.031250
3011,77.12,2022-10-28 16:23:46.046875
3012,91.85,2022-10-28 16:23:46.062500
3013,100.06,2022-10-28 16:23:46.078125
3014,102.37,2022-10-28 16:23:46.093750
3015,99.58,2022-10-28 16:23:46.109375
3016,92.75,2022-10-28 16:23:46.125000
3017,83.3,2022-10-28 16:23:46.140625
3018,72.8,2022-10-28 16:23:46.156250
3019,62.66,2022-10-28 16:23:46.171875
3020,53.95,2022-10-28 16:23:46.187500
3021,47.16,2022-10-28 16:23:46.203125
3022,42.33,2022-10-28 16:23:46.218750
3023,39.13,2022-10-28 16:23:46.234375
3024,37.16,2022-10-28 16:23:46.250000
3025,36.1,2022-10-28 16:23:46.265625
3026,35.82,2022-10-28 16:23:46.281250
3027,36.33,2022-10-28 16:23:46.296875
3028,37.61,2022-10-28 16:23:46.312500
3029,39.32,2022-10-28 16:23:46.328125
3030,40.71,2022-10-28 16:23:46.343750
3031,40.67,2022-10-28 16:23:46.359375
3032,38.06,2022-10-28 16:23:46.375000
3033,32.15,2022-10-28 16:23:46.390625
3034,22.98,2022-10-28 16:23:46.406250
3035,11.47,2022-10-28 16:23:46.421875
3036,-0.88,2022-10-28 16:23:46.437500
3037,-12.55,2022-10-28 16:23:46.453125
3038,-22.59,2022-10-28 16:23:46.468750
3039,-30.95,2022-10-28 16:23:46.484375
3040,-38.43,2022-10-28 16:23:46.500000
3041,-46.37,2022-10-28 16:23:46.515625
3042,-56.15,2022-10-28 16:23:46.531250
3043,-68.8,2022-10-28 16:23:46.546875
3044,-84.6,2022-10-28 16:23:46.562500
3045,-102.77,2022-10-28 16:23:46.578125
3046,-121.28,2022-10-28 16:23:46.593750
3047,-136.88,2022-10-28 16:23:46.609375
3048,-145.76,2022-10-28 16:23:46.625000
3049,-144.48,2022-10-28 16:23:46.640625
3050,-131.19,2022-10-28 16:23:46.656250
3051,-106.4,2022-10-28 16:23:46.671875
3052,-72.99,2022-10-28 16:23:46.687500
3053,-35.39,2022-10-28 16:23:46.703125
3054,1.71,2022-10-28 16:23:46.718750
3055,34.57,2022-10-28 16:23:46.734375
3056,61.0,2022-10-28 16:23:46.750000
3057,80.32,2022-10-28 16:23:46.765625
3058,92.81,2022-10-28 16:23:46.781250
3059,99.18,2022-10-28 16:23:46.796875
3060,100.24,2022-10-28 16:23:46.812500
3061,96.85,2022-10-28 16:23:46.828125
3062,90.01,2022-10-28 16:23:46.843750
3063,80.99,2022-10-28 16:23:46.859375
3064,71.19,2022-10-28 16:23:46.875000
3065,61.94,2022-10-28 16:23:46.890625
3066,54.3,2022-10-28 16:23:46.906250
3067,48.81,2022-10-28 16:23:46.921875
3068,45.48,2022-10-28 16:23:46.937500
3069,43.92,2022-10-28 16:23:46.953125
3070,43.53,2022-10-28 16:23:46.968750
3071,43.75,2022-10-28 16:23:46.984375
3072,44.18,2022-10-28 16:23:47.000000
3073,44.6,2022-10-28 16:23:47.015625
3074,44.86,2022-10-28 16:23:47.031250
3075,44.73,2022-10-28 16:23:47.046875
3076,43.88,2022-10-28 16:23:47.062500
3077,41.89,2022-10-28 16:23:47.078125
3078,38.38,2022-10-28 16:23:47.093750
3079,33.03,2022-10-28 16:23:47.109375
3080,25.71,2022-10-28 16:23:47.125000
3081,16.45,2022-10-28 16:23:47.140625
3082,5.54,2022-10-28 16:23:47.156250
3083,-6.49,2022-10-28 16:23:47.171875
3084,-18.86,2022-10-28 16:23:47.187500
3085,-30.73,2022-10-28 16:23:47.203125
3086,-41.41,2022-10-28 16:23:47.218750
3087,-50.6,2022-10-28 16:23:47.234375
3088,-58.58,2022-10-28 16:23:47.250000
3089,-66.14,2022-10-28 16:23:47.265625
3090,-74.47,2022-10-28 16:23:47.281250
3091,-84.74,2022-10-28 16:23:47.296875
3092,-97.63,2022-10-28 16:23:47.312500
3093,-112.84,2022-10-28 16:23:47.328125
3094,-128.74,2022-10-28 16:23:47.343750
3095,-142.42,2022-10-28 16:23:47.359375
3096,-150.25,2022-10-28 16:23:47.375000
3097,-148.87,2022-10-28 16:23:47.390625
3098,-136.24,2022-10-28 16:23:47.406250
3099,-112.46,2022-10-28 16:23:47.421875
3100,-79.81,2022-10-28 16:23:47.437500
3101,-42.17,2022-10-28 16:23:47.453125
3102,-3.95,2022-10-28 16:23:47.468750
3103,30.94,2022-10-28 16:23:47.484375
3104,59.79,2022-10-28 16:23:47.500000
3105,81.27,2022-10-28 16:23:47.515625
3106,95.25,2022-10-28 16:23:47.531250
3107,102.43,2022-10-28 16:23:47.546875
3108,103.98,2022-10-28 16:23:47.562500
3109,101.25,2022-10-28 16:23:47.578125
3110,95.63,2022-10-28 16:23:47.593750
3111,88.42,2022-10-28 16:23:47.609375
3112,80.75,2022-10-28 16:23:47.625000
3113,73.46,2022-10-28 16:23:47.640625
3114,67.1,2022-10-28 16:23:47.656250
3115,61.92,2022-10-28 16:23:47.671875
3116,57.95,2022-10-28 16:23:47.687500
3117,55.08,2022-10-28 16:23:47.703125
3118,53.18,2022-10-28 16:23:47.718750
3119,52.1,2022-10-28 16:23:47.734375
3120,51.7,2022-10-28 16:23:47.750000
3121,51.78,2022-10-28 16:23:47.765625
3122,51.97,2022-10-28 16:23:47.781250
3123,51.8,2022-10-28 16:23:47.796875
3124,50.66,2022-10-28 16:23:47.812500
3125,48.09,2022-10-28 16:23:47.828125
3126,43.85,2022-10-28 16:23:47.843750
3127,38.04,2022-10-28 16:23:47.859375
3128,30.98,2022-10-28 16:23:47.875000
3129,23.08,2022-10-28 16:23:47.890625
3130,14.6,2022-10-28 16:23:47.906250
3131,5.65,2022-10-28 16:23:47.921875
3132,-3.78,2022-10-28 16:23:47.937500
3133,-13.69,2022-10-28 16:23:47.953125
3134,-23.93,2022-10-28 16:23:47.968750
3135,-34.15,2022-10-28 16:23:47.984375
3136,-43.89,2022-10-28 16:23:48.000000
3137,-52.72,2022-10-28 16:23:48.015625
3138,-60.43,2022-10-28 16:23:48.031250
3139,-67.16,2022-10-28 16:23:48.046875
3140,-73.42,2022-10-28 16:23:48.062500
3141,-80.05,2022-10-28 16:23:48.078125
3142,-88.08,2022-10-28 16:23:48.093750
3143,-98.33,2022-10-28 16:23:48.109375
3144,-110.95,2022-10-28 16:23:48.125000
3145,-124.84,2022-10-28 16:23:48.140625
3146,-137.51,2022-10-28 16:23:48.156250
