,BVP,time
0,-110.39,2021-12-17 16:42:24.890625
1,-93.89,2021-12-17 16:42:24.906250
2,-78.44,2021-12-17 16:42:24.921875
3,-66.28,2021-12-17 16:42:24.937500
4,-57.98,2021-12-17 16:42:24.953125
5,-52.53,2021-12-17 16:42:24.968750
6,-47.84,2021-12-17 16:42:24.984375
7,-41.94,2021-12-17 16:42:25.000000
8,-33.74,2021-12-17 16:42:25.015625
9,-23.44,2021-12-17 16:42:25.031250
10,-12.24,2021-12-17 16:42:25.046875
11,-1.62,2021-12-17 16:42:25.062500
12,7.43,2021-12-17 16:42:25.078125
13,14.92,2021-12-17 16:42:25.093750
14,21.76,2021-12-17 16:42:25.109375
15,29.2,2021-12-17 16:42:25.125000
16,38.03,2021-12-17 16:42:25.140625
17,47.96,2021-12-17 16:42:25.156250
18,57.55,2021-12-17 16:42:25.171875
19,64.75,2021-12-17 16:42:25.187500
20,67.86,2021-12-17 16:42:25.203125
21,66.37,2021-12-17 16:42:25.218750
22,61.19,2021-12-17 16:42:25.234375
23,54.3,2021-12-17 16:42:25.250000
24,48.01,2021-12-17 16:42:25.265625
25,44.22,2021-12-17 16:42:25.281250
26,44.05,2021-12-17 16:42:25.296875
27,47.66,2021-12-17 16:42:25.312500
28,54.06,2021-12-17 16:42:25.328125
29,60.92,2021-12-17 16:42:25.343750
30,64.5,2021-12-17 16:42:25.359375
31,60.3,2021-12-17 16:42:25.375000
32,44.32,2021-12-17 16:42:25.390625
33,14.86,2021-12-17 16:42:25.406250
34,-26.22,2021-12-17 16:42:25.421875
35,-73.65,2021-12-17 16:42:25.437500
36,-120.28,2021-12-17 16:42:25.453125
37,-159.59,2021-12-17 16:42:25.468750
38,-187.63,2021-12-17 16:42:25.484375
39,-203.84,2021-12-17 16:42:25.500000
40,-210.12,2021-12-17 16:42:25.515625
41,-209.09,2021-12-17 16:42:25.531250
42,-202.58,2021-12-17 16:42:25.546875
43,-191.17,2021-12-17 16:42:25.562500
44,-174.88,2021-12-17 16:42:25.578125
45,-154.43,2021-12-17 16:42:25.593750
46,-132.09,2021-12-17 16:42:25.609375
47,-111.45,2021-12-17 16:42:25.625000
48,-96.08,2021-12-17 16:42:25.640625
49,-87.79,2021-12-17 16:42:25.656250
50,-85.41,2021-12-17 16:42:25.671875
51,-84.89,2021-12-17 16:42:25.687500
52,-80.99,2021-12-17 16:42:25.703125
53,-69.57,2021-12-17 16:42:25.718750
54,-49.55,2021-12-17 16:42:25.734375
55,-23.41,2021-12-17 16:42:25.750000
56,3.97,2021-12-17 16:42:25.765625
57,27.63,2021-12-17 16:42:25.781250
58,44.55,2021-12-17 16:42:25.796875
59,54.58,2021-12-17 16:42:25.812500
60,59.73,2021-12-17 16:42:25.828125
61,62.63,2021-12-17 16:42:25.843750
62,64.92,2021-12-17 16:42:25.859375
63,66.75,2021-12-17 16:42:25.875000
64,67.19,2021-12-17 16:42:25.890625
65,65.46,2021-12-17 16:42:25.906250
66,61.79,2021-12-17 16:42:25.921875
67,57.71,2021-12-17 16:42:25.937500
68,55.68,2021-12-17 16:42:25.953125
69,58.28,2021-12-17 16:42:25.968750
70,67.52,2021-12-17 16:42:25.984375
71,84.23,2021-12-17 16:42:26.000000
72,107.87,2021-12-17 16:42:26.015625
73,136.48,2021-12-17 16:42:26.031250
74,167.14,2021-12-17 16:42:26.046875
75,196.45,2021-12-17 16:42:26.062500
76,221.19,2021-12-17 16:42:26.078125
77,238.9,2021-12-17 16:42:26.093750
78,248.0,2021-12-17 16:42:26.109375
79,247.73,2021-12-17 16:42:26.125000
80,238.1,2021-12-17 16:42:26.140625
81,219.88,2021-12-17 16:42:26.156250
82,194.75,2021-12-17 16:42:26.171875
83,165.51,2021-12-17 16:42:26.187500
84,135.68,2021-12-17 16:42:26.203125
85,108.79,2021-12-17 16:42:26.218750
86,87.35,2021-12-17 16:42:26.234375
87,72.15,2021-12-17 16:42:26.250000
88,62.29,2021-12-17 16:42:26.265625
89,55.81,2021-12-17 16:42:26.281250
90,50.78,2021-12-17 16:42:26.296875
91,45.92,2021-12-17 16:42:26.312500
92,40.82,2021-12-17 16:42:26.328125
93,35.68,2021-12-17 16:42:26.343750
94,30.79,2021-12-17 16:42:26.359375
95,26.21,2021-12-17 16:42:26.375000
96,21.78,2021-12-17 16:42:26.390625
97,17.23,2021-12-17 16:42:26.406250
98,12.39,2021-12-17 16:42:26.421875
99,7.36,2021-12-17 16:42:26.437500
100,2.51,2021-12-17 16:42:26.453125
101,-1.76,2021-12-17 16:42:26.468750
102,-5.25,2021-12-17 16:42:26.484375
103,-8.3,2021-12-17 16:42:26.500000
104,-11.77,2021-12-17 16:42:26.515625
105,-16.84,2021-12-17 16:42:26.531250
106,-24.41,2021-12-17 16:42:26.546875
107,-34.7,2021-12-17 16:42:26.562500
108,-46.96,2021-12-17 16:42:26.578125
109,-59.72,2021-12-17 16:42:26.593750
110,-71.38,2021-12-17 16:42:26.609375
111,-80.73,2021-12-17 16:42:26.625000
112,-87.29,2021-12-17 16:42:26.640625
113,-91.24,2021-12-17 16:42:26.656250
114,-93.1,2021-12-17 16:42:26.671875
115,-93.37,2021-12-17 16:42:26.687500
116,-92.38,2021-12-17 16:42:26.703125
117,-90.32,2021-12-17 16:42:26.718750
118,-87.39,2021-12-17 16:42:26.734375
119,-83.96,2021-12-17 16:42:26.750000
120,-80.49,2021-12-17 16:42:26.765625
121,-77.48,2021-12-17 16:42:26.781250
122,-75.18,2021-12-17 16:42:26.796875
123,-73.41,2021-12-17 16:42:26.812500
124,-71.58,2021-12-17 16:42:26.828125
125,-68.8,2021-12-17 16:42:26.843750
126,-64.21,2021-12-17 16:42:26.859375
127,-57.41,2021-12-17 16:42:26.875000
128,-48.6,2021-12-17 16:42:26.890625
129,-38.5,2021-12-17 16:42:26.906250
130,-28.09,2021-12-17 16:42:26.921875
131,-18.3,2021-12-17 16:42:26.937500
132,-9.88,2021-12-17 16:42:26.953125
133,-3.48,2021-12-17 16:42:26.968750
134,0.36,2021-12-17 16:42:26.984375
135,1.4,2021-12-17 16:42:27.000000
136,-0.04,2021-12-17 16:42:27.015625
137,-3.0,2021-12-17 16:42:27.031250
138,-6.16,2021-12-17 16:42:27.046875
139,-8.41,2021-12-17 16:42:27.062500
140,-9.35,2021-12-17 16:42:27.078125
141,-9.31,2021-12-17 16:42:27.093750
142,-8.84,2021-12-17 16:42:27.109375
143,-8.0,2021-12-17 16:42:27.125000
144,-6.07,2021-12-17 16:42:27.140625
145,-1.87,2021-12-17 16:42:27.156250
146,5.24,2021-12-17 16:42:27.171875
147,14.59,2021-12-17 16:42:27.187500
148,24.0,2021-12-17 16:42:27.203125
149,30.58,2021-12-17 16:42:27.218750
150,32.09,2021-12-17 16:42:27.234375
151,28.03,2021-12-17 16:42:27.250000
152,20.08,2021-12-17 16:42:27.265625
153,11.54,2021-12-17 16:42:27.281250
154,6.28,2021-12-17 16:42:27.296875
155,7.54,2021-12-17 16:42:27.312500
156,16.91,2021-12-17 16:42:27.328125
157,33.59,2021-12-17 16:42:27.343750
158,54.34,2021-12-17 16:42:27.359375
159,74.0,2021-12-17 16:42:27.375000
160,86.85,2021-12-17 16:42:27.390625
161,88.26,2021-12-17 16:42:27.406250
162,76.17,2021-12-17 16:42:27.421875
163,51.71,2021-12-17 16:42:27.437500
164,18.66,2021-12-17 16:42:27.453125
165,-17.91,2021-12-17 16:42:27.468750
166,-53.22,2021-12-17 16:42:27.484375
167,-83.77,2021-12-17 16:42:27.500000
168,-107.54,2021-12-17 16:42:27.515625
169,-123.57,2021-12-17 16:42:27.531250
170,-131.5,2021-12-17 16:42:27.546875
171,-131.4,2021-12-17 16:42:27.562500
172,-123.99,2021-12-17 16:42:27.578125
173,-110.84,2021-12-17 16:42:27.593750
174,-94.35,2021-12-17 16:42:27.609375
175,-77.17,2021-12-17 16:42:27.625000
176,-61.54,2021-12-17 16:42:27.640625
177,-48.68,2021-12-17 16:42:27.656250
178,-38.71,2021-12-17 16:42:27.671875
179,-31.0,2021-12-17 16:42:27.687500
180,-24.87,2021-12-17 16:42:27.703125
181,-20.26,2021-12-17 16:42:27.718750
182,-17.99,2021-12-17 16:42:27.734375
183,-19.56,2021-12-17 16:42:27.750000
184,-26.4,2021-12-17 16:42:27.765625
185,-38.88,2021-12-17 16:42:27.781250
186,-55.74,2021-12-17 16:42:27.796875
187,-74.19,2021-12-17 16:42:27.812500
188,-90.71,2021-12-17 16:42:27.828125
189,-102.34,2021-12-17 16:42:27.843750
190,-107.46,2021-12-17 16:42:27.859375
191,-105.88,2021-12-17 16:42:27.875000
192,-98.23,2021-12-17 16:42:27.890625
193,-85.19,2021-12-17 16:42:27.906250
194,-67.12,2021-12-17 16:42:27.921875
195,-44.44,2021-12-17 16:42:27.937500
196,-18.28,2021-12-17 16:42:27.953125
197,9.19,2021-12-17 16:42:27.968750
198,35.12,2021-12-17 16:42:27.984375
199,56.81,2021-12-17 16:42:28.000000
200,72.81,2021-12-17 16:42:28.015625
201,83.39,2021-12-17 16:42:28.031250
202,90.4,2021-12-17 16:42:28.046875
203,96.59,2021-12-17 16:42:28.062500
204,104.69,2021-12-17 16:42:28.078125
205,116.59,2021-12-17 16:42:28.093750
206,132.76,2021-12-17 16:42:28.109375
207,151.88,2021-12-17 16:42:28.125000
208,171.09,2021-12-17 16:42:28.140625
209,186.54,2021-12-17 16:42:28.156250
210,194.48,2021-12-17 16:42:28.171875
211,192.51,2021-12-17 16:42:28.187500
212,180.25,2021-12-17 16:42:28.203125
213,159.39,2021-12-17 16:42:28.218750
214,132.98,2021-12-17 16:42:28.234375
215,104.41,2021-12-17 16:42:28.250000
216,76.55,2021-12-17 16:42:28.265625
217,51.33,2021-12-17 16:42:28.281250
218,29.82,2021-12-17 16:42:28.296875
219,12.44,2021-12-17 16:42:28.312500
220,-0.91,2021-12-17 16:42:28.328125
221,-10.92,2021-12-17 16:42:28.343750
222,-18.7,2021-12-17 16:42:28.359375
223,-25.66,2021-12-17 16:42:28.375000
224,-33.01,2021-12-17 16:42:28.390625
225,-41.33,2021-12-17 16:42:28.406250
226,-50.37,2021-12-17 16:42:28.421875
227,-59.11,2021-12-17 16:42:28.437500
228,-66.32,2021-12-17 16:42:28.453125
229,-71.01,2021-12-17 16:42:28.468750
230,-72.9,2021-12-17 16:42:28.484375
231,-72.34,2021-12-17 16:42:28.500000
232,-70.14,2021-12-17 16:42:28.515625
233,-67.09,2021-12-17 16:42:28.531250
234,-63.66,2021-12-17 16:42:28.546875
235,-59.88,2021-12-17 16:42:28.562500
236,-55.45,2021-12-17 16:42:28.578125
237,-50.11,2021-12-17 16:42:28.593750
238,-43.85,2021-12-17 16:42:28.609375
239,-37.1,2021-12-17 16:42:28.625000
240,-30.56,2021-12-17 16:42:28.640625
241,-24.98,2021-12-17 16:42:28.656250
242,-20.93,2021-12-17 16:42:28.671875
243,-18.66,2021-12-17 16:42:28.687500
244,-18.12,2021-12-17 16:42:28.703125
245,-18.9,2021-12-17 16:42:28.718750
246,-20.34,2021-12-17 16:42:28.734375
247,-21.52,2021-12-17 16:42:28.750000
248,-21.43,2021-12-17 16:42:28.765625
249,-19.03,2021-12-17 16:42:28.781250
250,-13.63,2021-12-17 16:42:28.796875
251,-5.11,2021-12-17 16:42:28.812500
252,5.93,2021-12-17 16:42:28.828125
253,18.3,2021-12-17 16:42:28.843750
254,30.57,2021-12-17 16:42:28.859375
255,41.52,2021-12-17 16:42:28.875000
256,50.49,2021-12-17 16:42:28.890625
257,57.44,2021-12-17 16:42:28.906250
258,62.8,2021-12-17 16:42:28.921875
259,67.1,2021-12-17 16:42:28.937500
260,70.68,2021-12-17 16:42:28.953125
261,73.56,2021-12-17 16:42:28.968750
262,75.51,2021-12-17 16:42:28.984375
263,76.25,2021-12-17 16:42:29.000000
264,75.65,2021-12-17 16:42:29.015625
265,73.9,2021-12-17 16:42:29.031250
266,71.38,2021-12-17 16:42:29.046875
267,68.56,2021-12-17 16:42:29.062500
268,65.79,2021-12-17 16:42:29.078125
269,63.14,2021-12-17 16:42:29.093750
270,60.5,2021-12-17 16:42:29.109375
271,57.67,2021-12-17 16:42:29.125000
272,54.54,2021-12-17 16:42:29.140625
273,51.19,2021-12-17 16:42:29.156250
274,47.86,2021-12-17 16:42:29.171875
275,44.84,2021-12-17 16:42:29.187500
276,42.22,2021-12-17 16:42:29.203125
277,39.85,2021-12-17 16:42:29.218750
278,37.35,2021-12-17 16:42:29.234375
279,34.23,2021-12-17 16:42:29.250000
280,30.14,2021-12-17 16:42:29.265625
281,25.0,2021-12-17 16:42:29.281250
282,19.04,2021-12-17 16:42:29.296875
283,12.62,2021-12-17 16:42:29.312500
284,6.16,2021-12-17 16:42:29.328125
285,-0.03,2021-12-17 16:42:29.343750
286,-5.71,2021-12-17 16:42:29.359375
287,-10.59,2021-12-17 16:42:29.375000
288,-14.37,2021-12-17 16:42:29.390625
289,-16.73,2021-12-17 16:42:29.406250
290,-17.39,2021-12-17 16:42:29.421875
291,-16.28,2021-12-17 16:42:29.437500
292,-13.59,2021-12-17 16:42:29.453125
293,-9.71,2021-12-17 16:42:29.468750
294,-5.15,2021-12-17 16:42:29.484375
295,-0.38,2021-12-17 16:42:29.500000
296,4.09,2021-12-17 16:42:29.515625
297,7.85,2021-12-17 16:42:29.531250
298,10.54,2021-12-17 16:42:29.546875
299,11.88,2021-12-17 16:42:29.562500
300,11.84,2021-12-17 16:42:29.578125
301,10.56,2021-12-17 16:42:29.593750
302,8.47,2021-12-17 16:42:29.609375
303,6.13,2021-12-17 16:42:29.625000
304,4.21,2021-12-17 16:42:29.640625
305,3.38,2021-12-17 16:42:29.656250
306,4.2,2021-12-17 16:42:29.671875
307,6.97,2021-12-17 16:42:29.687500
308,11.55,2021-12-17 16:42:29.703125
309,17.17,2021-12-17 16:42:29.718750
310,22.37,2021-12-17 16:42:29.734375
311,25.14,2021-12-17 16:42:29.750000
312,23.37,2021-12-17 16:42:29.765625
313,15.39,2021-12-17 16:42:29.781250
314,0.41,2021-12-17 16:42:29.796875
315,-21.29,2021-12-17 16:42:29.812500
316,-48.44,2021-12-17 16:42:29.828125
317,-79.1,2021-12-17 16:42:29.843750
318,-111.01,2021-12-17 16:42:29.859375
319,-141.85,2021-12-17 16:42:29.875000
320,-169.4,2021-12-17 16:42:29.890625
321,-191.71,2021-12-17 16:42:29.906250
322,-207.15,2021-12-17 16:42:29.921875
323,-214.73,2021-12-17 16:42:29.937500
324,-214.4,2021-12-17 16:42:29.953125
325,-207.18,2021-12-17 16:42:29.968750
326,-195.13,2021-12-17 16:42:29.984375
327,-180.77,2021-12-17 16:42:30.000000
328,-166.34,2021-12-17 16:42:30.015625
329,-153.1,2021-12-17 16:42:30.031250
330,-141.06,2021-12-17 16:42:30.046875
331,-129.29,2021-12-17 16:42:30.062500
332,-116.72,2021-12-17 16:42:30.078125
333,-102.98,2021-12-17 16:42:30.093750
334,-88.7,2021-12-17 16:42:30.109375
335,-75.4,2021-12-17 16:42:30.125000
336,-64.65,2021-12-17 16:42:30.140625
337,-57.25,2021-12-17 16:42:30.156250
338,-52.83,2021-12-17 16:42:30.171875
339,-50.15,2021-12-17 16:42:30.187500
340,-47.74,2021-12-17 16:42:30.203125
341,-44.71,2021-12-17 16:42:30.218750
342,-40.98,2021-12-17 16:42:30.234375
343,-37.04,2021-12-17 16:42:30.250000
344,-33.5,2021-12-17 16:42:30.265625
345,-30.64,2021-12-17 16:42:30.281250
346,-28.4,2021-12-17 16:42:30.296875
347,-26.57,2021-12-17 16:42:30.312500
348,-25.18,2021-12-17 16:42:30.328125
349,-24.45,2021-12-17 16:42:30.343750
350,-24.69,2021-12-17 16:42:30.359375
351,-26.07,2021-12-17 16:42:30.375000
352,-28.4,2021-12-17 16:42:30.390625
353,-31.32,2021-12-17 16:42:30.406250
354,-34.38,2021-12-17 16:42:30.421875
355,-37.17,2021-12-17 16:42:30.437500
356,-39.24,2021-12-17 16:42:30.453125
357,-39.95,2021-12-17 16:42:30.468750
358,-38.39,2021-12-17 16:42:30.484375
359,-33.58,2021-12-17 16:42:30.500000
360,-24.84,2021-12-17 16:42:30.515625
361,-12.16,2021-12-17 16:42:30.531250
362,3.65,2021-12-17 16:42:30.546875
363,21.23,2021-12-17 16:42:30.562500
364,39.12,2021-12-17 16:42:30.578125
365,56.22,2021-12-17 16:42:30.593750
366,71.98,2021-12-17 16:42:30.609375
367,86.22,2021-12-17 16:42:30.625000
368,98.92,2021-12-17 16:42:30.640625
369,109.89,2021-12-17 16:42:30.656250
370,118.77,2021-12-17 16:42:30.671875
371,125.13,2021-12-17 16:42:30.687500
372,128.72,2021-12-17 16:42:30.703125
373,129.59,2021-12-17 16:42:30.718750
374,128.16,2021-12-17 16:42:30.734375
375,125.13,2021-12-17 16:42:30.750000
376,121.38,2021-12-17 16:42:30.765625
377,117.96,2021-12-17 16:42:30.781250
378,115.91,2021-12-17 16:42:30.796875
379,116.18,2021-12-17 16:42:30.812500
380,119.28,2021-12-17 16:42:30.828125
381,124.97,2021-12-17 16:42:30.843750
382,132.15,2021-12-17 16:42:30.859375
383,139.12,2021-12-17 16:42:30.875000
384,144.25,2021-12-17 16:42:30.890625
385,146.8,2021-12-17 16:42:30.906250
386,147.33,2021-12-17 16:42:30.921875
387,147.53,2021-12-17 16:42:30.937500
388,149.18,2021-12-17 16:42:30.953125
389,153.01,2021-12-17 16:42:30.968750
390,157.8,2021-12-17 16:42:30.984375
391,160.6,2021-12-17 16:42:31.000000
392,157.64,2021-12-17 16:42:31.015625
393,145.86,2021-12-17 16:42:31.031250
394,124.13,2021-12-17 16:42:31.046875
395,93.76,2021-12-17 16:42:31.062500
396,58.47,2021-12-17 16:42:31.078125
397,23.65,2021-12-17 16:42:31.093750
398,-4.69,2021-12-17 16:42:31.109375
399,-21.39,2021-12-17 16:42:31.125000
400,-23.73,2021-12-17 16:42:31.140625
401,-12.9,2021-12-17 16:42:31.156250
402,5.54,2021-12-17 16:42:31.171875
403,22.77,2021-12-17 16:42:31.187500
404,29.58,2021-12-17 16:42:31.203125
405,19.77,2021-12-17 16:42:31.218750
406,-7.44,2021-12-17 16:42:31.234375
407,-47.16,2021-12-17 16:42:31.250000
408,-90.94,2021-12-17 16:42:31.265625
409,-130.24,2021-12-17 16:42:31.281250
410,-159.38,2021-12-17 16:42:31.296875
411,-176.85,2021-12-17 16:42:31.312500
412,-184.54,2021-12-17 16:42:31.328125
413,-185.95,2021-12-17 16:42:31.343750
414,-184.25,2021-12-17 16:42:31.359375
415,-181.31,2021-12-17 16:42:31.375000
416,-177.63,2021-12-17 16:42:31.390625
417,-172.95,2021-12-17 16:42:31.406250
418,-166.97,2021-12-17 16:42:31.421875
419,-159.75,2021-12-17 16:42:31.437500
420,-152.0,2021-12-17 16:42:31.453125
421,-145.06,2021-12-17 16:42:31.468750
422,-140.6,2021-12-17 16:42:31.484375
423,-139.88,2021-12-17 16:42:31.500000
424,-142.95,2021-12-17 16:42:31.515625
425,-148.18,2021-12-17 16:42:31.531250
426,-152.5,2021-12-17 16:42:31.546875
427,-152.47,2021-12-17 16:42:31.562500
428,-145.68,2021-12-17 16:42:31.578125
429,-131.66,2021-12-17 16:42:31.593750
430,-112.09,2021-12-17 16:42:31.609375
431,-90.05,2021-12-17 16:42:31.625000
432,-68.77,2021-12-17 16:42:31.640625
433,-50.53,2021-12-17 16:42:31.656250
434,-36.22,2021-12-17 16:42:31.671875
435,-25.52,2021-12-17 16:42:31.687500
436,-17.45,2021-12-17 16:42:31.703125
437,-10.81,2021-12-17 16:42:31.718750
438,-4.47,2021-12-17 16:42:31.734375
439,2.78,2021-12-17 16:42:31.750000
440,12.06,2021-12-17 16:42:31.765625
441,24.23,2021-12-17 16:42:31.781250
442,39.38,2021-12-17 16:42:31.796875
443,56.51,2021-12-17 16:42:31.812500
444,73.6,2021-12-17 16:42:31.828125
445,88.12,2021-12-17 16:42:31.843750
446,98.02,2021-12-17 16:42:31.859375
447,102.47,2021-12-17 16:42:31.875000
448,102.4,2021-12-17 16:42:31.890625
449,100.18,2021-12-17 16:42:31.906250
450,98.76,2021-12-17 16:42:31.921875
451,100.58,2021-12-17 16:42:31.937500
452,106.69,2021-12-17 16:42:31.953125
453,116.42,2021-12-17 16:42:31.968750
454,127.6,2021-12-17 16:42:31.984375
455,137.36,2021-12-17 16:42:32.000000
456,142.97,2021-12-17 16:42:32.015625
457,142.74,2021-12-17 16:42:32.031250
458,136.4,2021-12-17 16:42:32.046875
459,125.06,2021-12-17 16:42:32.062500
460,110.78,2021-12-17 16:42:32.078125
461,95.88,2021-12-17 16:42:32.093750
462,82.2,2021-12-17 16:42:32.109375
463,70.62,2021-12-17 16:42:32.125000
464,61.05,2021-12-17 16:42:32.140625
465,52.74,2021-12-17 16:42:32.156250
466,44.87,2021-12-17 16:42:32.171875
467,37.06,2021-12-17 16:42:32.187500
468,29.63,2021-12-17 16:42:32.203125
469,23.43,2021-12-17 16:42:32.218750
470,19.41,2021-12-17 16:42:32.234375
471,18.11,2021-12-17 16:42:32.250000
472,19.33,2021-12-17 16:42:32.265625
473,22.29,2021-12-17 16:42:32.281250
474,25.95,2021-12-17 16:42:32.296875
475,29.45,2021-12-17 16:42:32.312500
476,32.44,2021-12-17 16:42:32.328125
477,35.01,2021-12-17 16:42:32.343750
478,37.44,2021-12-17 16:42:32.359375
479,39.83,2021-12-17 16:42:32.375000
480,41.93,2021-12-17 16:42:32.390625
481,43.24,2021-12-17 16:42:32.406250
482,43.25,2021-12-17 16:42:32.421875
483,41.67,2021-12-17 16:42:32.437500
484,38.69,2021-12-17 16:42:32.453125
485,34.78,2021-12-17 16:42:32.468750
486,30.55,2021-12-17 16:42:32.484375
487,26.49,2021-12-17 16:42:32.500000
488,22.84,2021-12-17 16:42:32.515625
489,19.57,2021-12-17 16:42:32.531250
490,16.53,2021-12-17 16:42:32.546875
491,13.52,2021-12-17 16:42:32.562500
492,10.43,2021-12-17 16:42:32.578125
493,7.29,2021-12-17 16:42:32.593750
494,4.25,2021-12-17 16:42:32.609375
495,1.48,2021-12-17 16:42:32.625000
496,-0.89,2021-12-17 16:42:32.640625
497,-2.87,2021-12-17 16:42:32.656250
498,-4.64,2021-12-17 16:42:32.671875
499,-6.49,2021-12-17 16:42:32.687500
500,-8.78,2021-12-17 16:42:32.703125
501,-11.79,2021-12-17 16:42:32.718750
502,-15.62,2021-12-17 16:42:32.734375
503,-20.23,2021-12-17 16:42:32.750000
504,-25.44,2021-12-17 16:42:32.765625
505,-30.99,2021-12-17 16:42:32.781250
506,-36.45,2021-12-17 16:42:32.796875
507,-41.26,2021-12-17 16:42:32.812500
508,-44.66,2021-12-17 16:42:32.828125
509,-45.86,2021-12-17 16:42:32.843750
510,-44.21,2021-12-17 16:42:32.859375
511,-39.52,2021-12-17 16:42:32.875000
512,-32.15,2021-12-17 16:42:32.890625
513,-22.98,2021-12-17 16:42:32.906250
514,-13.09,2021-12-17 16:42:32.921875
515,-3.49,2021-12-17 16:42:32.937500
516,5.18,2021-12-17 16:42:32.953125
517,12.73,2021-12-17 16:42:32.968750
518,19.24,2021-12-17 16:42:32.984375
519,24.86,2021-12-17 16:42:33.000000
520,29.64,2021-12-17 16:42:33.015625
521,33.45,2021-12-17 16:42:33.031250
522,36.09,2021-12-17 16:42:33.046875
523,37.32,2021-12-17 16:42:33.062500
524,37.13,2021-12-17 16:42:33.078125
525,35.74,2021-12-17 16:42:33.093750
526,33.57,2021-12-17 16:42:33.109375
527,31.14,2021-12-17 16:42:33.125000
528,28.86,2021-12-17 16:42:33.140625
529,26.93,2021-12-17 16:42:33.156250
530,25.28,2021-12-17 16:42:33.171875
531,23.62,2021-12-17 16:42:33.187500
532,21.68,2021-12-17 16:42:33.203125
533,19.38,2021-12-17 16:42:33.218750
534,16.82,2021-12-17 16:42:33.234375
535,14.22,2021-12-17 16:42:33.250000
536,11.79,2021-12-17 16:42:33.265625
537,9.58,2021-12-17 16:42:33.281250
538,7.44,2021-12-17 16:42:33.296875
539,5.17,2021-12-17 16:42:33.312500
540,2.54,2021-12-17 16:42:33.328125
541,-0.62,2021-12-17 16:42:33.343750
542,-4.37,2021-12-17 16:42:33.359375
543,-8.85,2021-12-17 16:42:33.375000
544,-14.15,2021-12-17 16:42:33.390625
545,-20.33,2021-12-17 16:42:33.406250
546,-27.22,2021-12-17 16:42:33.421875
547,-34.35,2021-12-17 16:42:33.437500
548,-40.84,2021-12-17 16:42:33.453125
549,-45.57,2021-12-17 16:42:33.468750
550,-47.5,2021-12-17 16:42:33.484375
551,-46.02,2021-12-17 16:42:33.500000
552,-41.17,2021-12-17 16:42:33.515625
553,-33.67,2021-12-17 16:42:33.531250
554,-24.6,2021-12-17 16:42:33.546875
555,-15.12,2021-12-17 16:42:33.562500
556,-6.1,2021-12-17 16:42:33.578125
557,2.06,2021-12-17 16:42:33.593750
558,9.31,2021-12-17 16:42:33.609375
559,15.74,2021-12-17 16:42:33.625000
560,21.34,2021-12-17 16:42:33.640625
561,25.94,2021-12-17 16:42:33.656250
562,29.27,2021-12-17 16:42:33.671875
563,31.12,2021-12-17 16:42:33.687500
564,31.46,2021-12-17 16:42:33.703125
565,30.5,2021-12-17 16:42:33.718750
566,28.62,2021-12-17 16:42:33.734375
567,26.27,2021-12-17 16:42:33.750000
568,23.85,2021-12-17 16:42:33.765625
569,21.71,2021-12-17 16:42:33.781250
570,20.09,2021-12-17 16:42:33.796875
571,19.05,2021-12-17 16:42:33.812500
572,18.53,2021-12-17 16:42:33.828125
573,18.26,2021-12-17 16:42:33.843750
574,17.9,2021-12-17 16:42:33.859375
575,17.06,2021-12-17 16:42:33.875000
576,15.54,2021-12-17 16:42:33.890625
577,13.32,2021-12-17 16:42:33.906250
578,10.61,2021-12-17 16:42:33.921875
579,7.71,2021-12-17 16:42:33.937500
580,4.84,2021-12-17 16:42:33.953125
581,2.04,2021-12-17 16:42:33.968750
582,-0.75,2021-12-17 16:42:33.984375
583,-3.69,2021-12-17 16:42:34.000000
584,-6.91,2021-12-17 16:42:34.015625
585,-10.46,2021-12-17 16:42:34.031250
586,-14.44,2021-12-17 16:42:34.046875
587,-18.87,2021-12-17 16:42:34.062500
588,-23.7,2021-12-17 16:42:34.078125
589,-28.68,2021-12-17 16:42:34.093750
590,-33.21,2021-12-17 16:42:34.109375
591,-36.46,2021-12-17 16:42:34.125000
592,-37.5,2021-12-17 16:42:34.140625
593,-35.72,2021-12-17 16:42:34.156250
594,-31.01,2021-12-17 16:42:34.171875
595,-23.93,2021-12-17 16:42:34.187500
596,-15.44,2021-12-17 16:42:34.203125
597,-6.64,2021-12-17 16:42:34.218750
598,1.56,2021-12-17 16:42:34.234375
599,8.64,2021-12-17 16:42:34.250000
600,14.36,2021-12-17 16:42:34.265625
601,18.69,2021-12-17 16:42:34.281250
602,21.63,2021-12-17 16:42:34.296875
603,23.19,2021-12-17 16:42:34.312500
604,23.45,2021-12-17 16:42:34.328125
605,22.64,2021-12-17 16:42:34.343750
606,21.15,2021-12-17 16:42:34.359375
607,19.41,2021-12-17 16:42:34.375000
608,17.84,2021-12-17 16:42:34.390625
609,16.64,2021-12-17 16:42:34.406250
610,15.83,2021-12-17 16:42:34.421875
611,15.28,2021-12-17 16:42:34.437500
612,14.84,2021-12-17 16:42:34.453125
613,14.38,2021-12-17 16:42:34.468750
614,13.87,2021-12-17 16:42:34.484375
615,13.31,2021-12-17 16:42:34.500000
616,12.68,2021-12-17 16:42:34.515625
617,11.91,2021-12-17 16:42:34.531250
618,10.83,2021-12-17 16:42:34.546875
619,9.26,2021-12-17 16:42:34.562500
620,7.17,2021-12-17 16:42:34.578125
621,4.67,2021-12-17 16:42:34.593750
622,2.0,2021-12-17 16:42:34.609375
623,-0.61,2021-12-17 16:42:34.625000
624,-3.04,2021-12-17 16:42:34.640625
625,-5.37,2021-12-17 16:42:34.656250
626,-7.88,2021-12-17 16:42:34.671875
627,-10.92,2021-12-17 16:42:34.687500
628,-14.82,2021-12-17 16:42:34.703125
629,-19.74,2021-12-17 16:42:34.718750
630,-25.54,2021-12-17 16:42:34.734375
631,-31.72,2021-12-17 16:42:34.750000
632,-37.42,2021-12-17 16:42:34.765625
633,-41.58,2021-12-17 16:42:34.781250
634,-43.22,2021-12-17 16:42:34.796875
635,-41.73,2021-12-17 16:42:34.812500
636,-37.11,2021-12-17 16:42:34.828125
637,-30.0,2021-12-17 16:42:34.843750
638,-21.47,2021-12-17 16:42:34.859375
639,-12.76,2021-12-17 16:42:34.875000
640,-4.82,2021-12-17 16:42:34.890625
641,1.83,2021-12-17 16:42:34.906250
642,7.07,2021-12-17 16:42:34.921875
643,11.04,2021-12-17 16:42:34.937500
644,13.93,2021-12-17 16:42:34.953125
645,15.84,2021-12-17 16:42:34.968750
646,16.7,2021-12-17 16:42:34.984375
647,16.46,2021-12-17 16:42:35.000000
648,15.18,2021-12-17 16:42:35.015625
649,13.12,2021-12-17 16:42:35.031250
650,10.73,2021-12-17 16:42:35.046875
651,8.49,2021-12-17 16:42:35.062500
652,6.73,2021-12-17 16:42:35.078125
653,5.49,2021-12-17 16:42:35.093750
654,4.56,2021-12-17 16:42:35.109375
655,3.65,2021-12-17 16:42:35.125000
656,2.61,2021-12-17 16:42:35.140625
657,1.45,2021-12-17 16:42:35.156250
658,0.36,2021-12-17 16:42:35.171875
659,-0.5,2021-12-17 16:42:35.187500
660,-1.13,2021-12-17 16:42:35.203125
661,-1.68,2021-12-17 16:42:35.218750
662,-2.31,2021-12-17 16:42:35.234375
663,-3.14,2021-12-17 16:42:35.250000
664,-4.13,2021-12-17 16:42:35.265625
665,-5.12,2021-12-17 16:42:35.281250
666,-6.04,2021-12-17 16:42:35.296875
667,-6.94,2021-12-17 16:42:35.312500
668,-8.06,2021-12-17 16:42:35.328125
669,-9.73,2021-12-17 16:42:35.343750
670,-12.23,2021-12-17 16:42:35.359375
671,-15.64,2021-12-17 16:42:35.375000
672,-19.8,2021-12-17 16:42:35.390625
673,-24.2,2021-12-17 16:42:35.406250
674,-28.08,2021-12-17 16:42:35.421875
675,-30.59,2021-12-17 16:42:35.437500
676,-31.0,2021-12-17 16:42:35.453125
677,-28.92,2021-12-17 16:42:35.468750
678,-24.46,2021-12-17 16:42:35.484375
679,-18.16,2021-12-17 16:42:35.500000
680,-10.87,2021-12-17 16:42:35.515625
681,-3.48,2021-12-17 16:42:35.531250
682,3.27,2021-12-17 16:42:35.546875
683,8.94,2021-12-17 16:42:35.562500
684,13.37,2021-12-17 16:42:35.578125
685,16.57,2021-12-17 16:42:35.593750
686,18.65,2021-12-17 16:42:35.609375
687,19.68,2021-12-17 16:42:35.625000
688,19.73,2021-12-17 16:42:35.640625
689,18.84,2021-12-17 16:42:35.656250
690,17.15,2021-12-17 16:42:35.671875
691,14.96,2021-12-17 16:42:35.687500
692,12.61,2021-12-17 16:42:35.703125
693,10.5,2021-12-17 16:42:35.718750
694,8.86,2021-12-17 16:42:35.734375
695,7.72,2021-12-17 16:42:35.750000
696,6.92,2021-12-17 16:42:35.765625
697,6.23,2021-12-17 16:42:35.781250
698,5.48,2021-12-17 16:42:35.796875
699,4.56,2021-12-17 16:42:35.812500
700,3.46,2021-12-17 16:42:35.828125
701,2.2,2021-12-17 16:42:35.843750
702,0.77,2021-12-17 16:42:35.859375
703,-0.81,2021-12-17 16:42:35.875000
704,-2.52,2021-12-17 16:42:35.890625
705,-4.31,2021-12-17 16:42:35.906250
706,-6.16,2021-12-17 16:42:35.921875
707,-8.07,2021-12-17 16:42:35.937500
708,-10.1,2021-12-17 16:42:35.953125
709,-12.35,2021-12-17 16:42:35.968750
710,-14.94,2021-12-17 16:42:35.984375
711,-17.97,2021-12-17 16:42:36.000000
712,-21.52,2021-12-17 16:42:36.015625
713,-25.55,2021-12-17 16:42:36.031250
714,-29.79,2021-12-17 16:42:36.046875
715,-33.66,2021-12-17 16:42:36.062500
716,-36.34,2021-12-17 16:42:36.078125
717,-36.96,2021-12-17 16:42:36.093750
718,-34.97,2021-12-17 16:42:36.109375
719,-30.38,2021-12-17 16:42:36.125000
720,-23.86,2021-12-17 16:42:36.140625
721,-16.5,2021-12-17 16:42:36.156250
722,-9.39,2021-12-17 16:42:36.171875
723,-3.26,2021-12-17 16:42:36.187500
724,1.67,2021-12-17 16:42:36.203125
725,5.61,2021-12-17 16:42:36.218750
726,8.9,2021-12-17 16:42:36.234375
727,11.76,2021-12-17 16:42:36.250000
728,14.15,2021-12-17 16:42:36.265625
729,15.87,2021-12-17 16:42:36.281250
730,16.67,2021-12-17 16:42:36.296875
731,16.48,2021-12-17 16:42:36.312500
732,15.44,2021-12-17 16:42:36.328125
733,13.88,2021-12-17 16:42:36.343750
734,12.23,2021-12-17 16:42:36.359375
735,10.83,2021-12-17 16:42:36.375000
736,9.9,2021-12-17 16:42:36.390625
737,9.48,2021-12-17 16:42:36.406250
738,9.38,2021-12-17 16:42:36.421875
739,9.36,2021-12-17 16:42:36.437500
740,9.14,2021-12-17 16:42:36.453125
741,8.48,2021-12-17 16:42:36.468750
742,7.29,2021-12-17 16:42:36.484375
743,5.63,2021-12-17 16:42:36.500000
744,3.58,2021-12-17 16:42:36.515625
745,1.24,2021-12-17 16:42:36.531250
746,-1.34,2021-12-17 16:42:36.546875
747,-4.12,2021-12-17 16:42:36.562500
748,-6.98,2021-12-17 16:42:36.578125
749,-9.83,2021-12-17 16:42:36.593750
750,-12.63,2021-12-17 16:42:36.609375
751,-15.53,2021-12-17 16:42:36.625000
752,-18.79,2021-12-17 16:42:36.640625
753,-22.75,2021-12-17 16:42:36.656250
754,-27.44,2021-12-17 16:42:36.671875
755,-32.41,2021-12-17 16:42:36.687500
756,-36.78,2021-12-17 16:42:36.703125
757,-39.44,2021-12-17 16:42:36.718750
758,-39.47,2021-12-17 16:42:36.734375
759,-36.5,2021-12-17 16:42:36.750000
760,-30.88,2021-12-17 16:42:36.765625
761,-23.48,2021-12-17 16:42:36.781250
762,-15.37,2021-12-17 16:42:36.796875
763,-7.5,2021-12-17 16:42:36.812500
764,-0.49,2021-12-17 16:42:36.828125
765,5.32,2021-12-17 16:42:36.843750
766,9.82,2021-12-17 16:42:36.859375
767,12.96,2021-12-17 16:42:36.875000
768,14.82,2021-12-17 16:42:36.890625
769,15.57,2021-12-17 16:42:36.906250
770,15.46,2021-12-17 16:42:36.921875
771,14.75,2021-12-17 16:42:36.937500
772,13.64,2021-12-17 16:42:36.953125
773,12.22,2021-12-17 16:42:36.968750
774,10.54,2021-12-17 16:42:36.984375
775,8.68,2021-12-17 16:42:37.000000
776,6.78,2021-12-17 16:42:37.015625
777,5.03,2021-12-17 16:42:37.031250
778,3.66,2021-12-17 16:42:37.046875
779,2.77,2021-12-17 16:42:37.062500
780,2.34,2021-12-17 16:42:37.078125
781,2.2,2021-12-17 16:42:37.093750
782,2.13,2021-12-17 16:42:37.109375
783,1.82,2021-12-17 16:42:37.125000
784,1.02,2021-12-17 16:42:37.140625
785,-0.45,2021-12-17 16:42:37.156250
786,-2.65,2021-12-17 16:42:37.171875
787,-5.54,2021-12-17 16:42:37.187500
788,-8.86,2021-12-17 16:42:37.203125
789,-12.32,2021-12-17 16:42:37.218750
790,-15.62,2021-12-17 16:42:37.234375
791,-18.63,2021-12-17 16:42:37.250000
792,-21.46,2021-12-17 16:42:37.265625
793,-24.41,2021-12-17 16:42:37.281250
794,-27.72,2021-12-17 16:42:37.296875
795,-31.4,2021-12-17 16:42:37.312500
796,-35.06,2021-12-17 16:42:37.328125
797,-37.88,2021-12-17 16:42:37.343750
798,-38.98,2021-12-17 16:42:37.359375
799,-37.67,2021-12-17 16:42:37.375000
800,-33.8,2021-12-17 16:42:37.390625
801,-27.84,2021-12-17 16:42:37.406250
802,-20.67,2021-12-17 16:42:37.421875
803,-13.25,2021-12-17 16:42:37.437500
804,-6.28,2021-12-17 16:42:37.453125
805,-0.12,2021-12-17 16:42:37.468750
806,5.17,2021-12-17 16:42:37.484375
807,9.56,2021-12-17 16:42:37.500000
808,12.89,2021-12-17 16:42:37.515625
809,14.91,2021-12-17 16:42:37.531250
810,15.48,2021-12-17 16:42:37.546875
811,14.71,2021-12-17 16:42:37.562500
812,13.05,2021-12-17 16:42:37.578125
813,11.13,2021-12-17 16:42:37.593750
814,9.52,2021-12-17 16:42:37.609375
815,8.52,2021-12-17 16:42:37.625000
816,8.09,2021-12-17 16:42:37.640625
817,7.93,2021-12-17 16:42:37.656250
818,7.71,2021-12-17 16:42:37.671875
819,7.15,2021-12-17 16:42:37.687500
820,6.17,2021-12-17 16:42:37.703125
821,4.77,2021-12-17 16:42:37.718750
822,3.06,2021-12-17 16:42:37.734375
823,1.18,2021-12-17 16:42:37.750000
824,-0.7,2021-12-17 16:42:37.765625
825,-2.41,2021-12-17 16:42:37.781250
826,-3.87,2021-12-17 16:42:37.796875
827,-5.14,2021-12-17 16:42:37.812500
828,-6.42,2021-12-17 16:42:37.828125
829,-8.06,2021-12-17 16:42:37.843750
830,-10.38,2021-12-17 16:42:37.859375
831,-13.58,2021-12-17 16:42:37.875000
832,-17.7,2021-12-17 16:42:37.890625
833,-22.52,2021-12-17 16:42:37.906250
834,-27.61,2021-12-17 16:42:37.921875
835,-32.33,2021-12-17 16:42:37.937500
836,-35.86,2021-12-17 16:42:37.953125
837,-37.34,2021-12-17 16:42:37.968750
838,-36.18,2021-12-17 16:42:37.984375
839,-32.25,2021-12-17 16:42:38.000000
840,-26.04,2021-12-17 16:42:38.015625
841,-18.51,2021-12-17 16:42:38.031250
842,-10.78,2021-12-17 16:42:38.046875
843,-3.79,2021-12-17 16:42:38.062500
844,2.05,2021-12-17 16:42:38.078125
845,6.74,2021-12-17 16:42:38.093750
846,10.52,2021-12-17 16:42:38.109375
847,13.55,2021-12-17 16:42:38.125000
848,15.71,2021-12-17 16:42:38.140625
849,16.75,2021-12-17 16:42:38.156250
850,16.46,2021-12-17 16:42:38.171875
851,14.91,2021-12-17 16:42:38.187500
852,12.51,2021-12-17 16:42:38.203125
853,9.95,2021-12-17 16:42:38.218750
854,7.83,2021-12-17 16:42:38.234375
855,6.53,2021-12-17 16:42:38.250000
856,6.04,2021-12-17 16:42:38.265625
857,6.06,2021-12-17 16:42:38.281250
858,6.13,2021-12-17 16:42:38.296875
859,5.88,2021-12-17 16:42:38.312500
860,5.15,2021-12-17 16:42:38.328125
861,4.06,2021-12-17 16:42:38.343750
862,2.83,2021-12-17 16:42:38.359375
863,1.67,2021-12-17 16:42:38.375000
864,0.57,2021-12-17 16:42:38.390625
865,-0.64,2021-12-17 16:42:38.406250
866,-2.27,2021-12-17 16:42:38.421875
867,-4.55,2021-12-17 16:42:38.437500
868,-7.59,2021-12-17 16:42:38.453125
869,-11.37,2021-12-17 16:42:38.468750
870,-15.75,2021-12-17 16:42:38.484375
871,-20.59,2021-12-17 16:42:38.500000
872,-25.65,2021-12-17 16:42:38.515625
873,-30.49,2021-12-17 16:42:38.531250
874,-34.44,2021-12-17 16:42:38.546875
875,-36.7,2021-12-17 16:42:38.562500
876,-36.6,2021-12-17 16:42:38.578125
877,-33.84,2021-12-17 16:42:38.593750
878,-28.7,2021-12-17 16:42:38.609375
879,-21.91,2021-12-17 16:42:38.625000
880,-14.47,2021-12-17 16:42:38.640625
881,-7.3,2021-12-17 16:42:38.656250
882,-1.05,2021-12-17 16:42:38.671875
883,4.05,2021-12-17 16:42:38.687500
884,8.0,2021-12-17 16:42:38.703125
885,10.99,2021-12-17 16:42:38.718750
886,13.24,2021-12-17 16:42:38.734375
887,14.86,2021-12-17 16:42:38.750000
888,15.88,2021-12-17 16:42:38.765625
889,16.28,2021-12-17 16:42:38.781250
890,16.08,2021-12-17 16:42:38.796875
891,15.37,2021-12-17 16:42:38.812500
892,14.35,2021-12-17 16:42:38.828125
893,13.22,2021-12-17 16:42:38.843750
894,12.16,2021-12-17 16:42:38.859375
895,11.17,2021-12-17 16:42:38.875000
896,10.15,2021-12-17 16:42:38.890625
897,8.98,2021-12-17 16:42:38.906250
898,7.59,2021-12-17 16:42:38.921875
899,5.95,2021-12-17 16:42:38.937500
900,4.16,2021-12-17 16:42:38.953125
901,2.33,2021-12-17 16:42:38.968750
902,0.54,2021-12-17 16:42:38.984375
903,-1.15,2021-12-17 16:42:39.000000
904,-2.74,2021-12-17 16:42:39.015625
905,-4.3,2021-12-17 16:42:39.031250
906,-5.99,2021-12-17 16:42:39.046875
907,-8.07,2021-12-17 16:42:39.062500
908,-10.87,2021-12-17 16:42:39.078125
909,-14.56,2021-12-17 16:42:39.093750
910,-19.09,2021-12-17 16:42:39.109375
911,-23.97,2021-12-17 16:42:39.125000
912,-28.39,2021-12-17 16:42:39.140625
913,-31.34,2021-12-17 16:42:39.156250
914,-31.96,2021-12-17 16:42:39.171875
915,-29.82,2021-12-17 16:42:39.187500
916,-25.08,2021-12-17 16:42:39.203125
917,-18.49,2021-12-17 16:42:39.218750
918,-11.06,2021-12-17 16:42:39.234375
919,-3.81,2021-12-17 16:42:39.250000
920,2.57,2021-12-17 16:42:39.265625
921,7.79,2021-12-17 16:42:39.281250
922,11.84,2021-12-17 16:42:39.296875
923,14.83,2021-12-17 16:42:39.312500
924,16.78,2021-12-17 16:42:39.328125
925,17.7,2021-12-17 16:42:39.343750
926,17.51,2021-12-17 16:42:39.359375
927,16.33,2021-12-17 16:42:39.375000
928,14.43,2021-12-17 16:42:39.390625
929,12.2,2021-12-17 16:42:39.406250
930,10.09,2021-12-17 16:42:39.421875
931,8.38,2021-12-17 16:42:39.437500
932,7.17,2021-12-17 16:42:39.453125
933,6.35,2021-12-17 16:42:39.468750
934,5.63,2021-12-17 16:42:39.484375
935,4.78,2021-12-17 16:42:39.500000
936,3.65,2021-12-17 16:42:39.515625
937,2.28,2021-12-17 16:42:39.531250
938,0.81,2021-12-17 16:42:39.546875
939,-0.54,2021-12-17 16:42:39.562500
940,-1.72,2021-12-17 16:42:39.578125
941,-2.81,2021-12-17 16:42:39.593750
942,-4.07,2021-12-17 16:42:39.609375
943,-5.82,2021-12-17 16:42:39.625000
944,-8.3,2021-12-17 16:42:39.640625
945,-11.64,2021-12-17 16:42:39.656250
946,-15.75,2021-12-17 16:42:39.671875
947,-20.41,2021-12-17 16:42:39.687500
948,-25.26,2021-12-17 16:42:39.703125
949,-29.83,2021-12-17 16:42:39.718750
950,-33.52,2021-12-17 16:42:39.734375
951,-35.67,2021-12-17 16:42:39.750000
952,-35.7,2021-12-17 16:42:39.765625
953,-33.25,2021-12-17 16:42:39.781250
954,-28.35,2021-12-17 16:42:39.796875
955,-21.39,2021-12-17 16:42:39.812500
956,-13.16,2021-12-17 16:42:39.828125
957,-4.45,2021-12-17 16:42:39.843750
958,4.0,2021-12-17 16:42:39.859375
959,11.64,2021-12-17 16:42:39.875000
960,18.22,2021-12-17 16:42:39.890625
961,23.57,2021-12-17 16:42:39.906250
962,27.54,2021-12-17 16:42:39.921875
963,30.04,2021-12-17 16:42:39.937500
964,30.99,2021-12-17 16:42:39.953125
965,30.47,2021-12-17 16:42:39.968750
966,28.81,2021-12-17 16:42:39.984375
967,26.45,2021-12-17 16:42:40.000000
968,23.93,2021-12-17 16:42:40.015625
969,21.66,2021-12-17 16:42:40.031250
970,19.87,2021-12-17 16:42:40.046875
971,18.55,2021-12-17 16:42:40.062500
972,17.53,2021-12-17 16:42:40.078125
973,16.56,2021-12-17 16:42:40.093750
974,15.48,2021-12-17 16:42:40.109375
975,14.21,2021-12-17 16:42:40.125000
976,12.81,2021-12-17 16:42:40.140625
977,11.4,2021-12-17 16:42:40.156250
978,10.07,2021-12-17 16:42:40.171875
979,8.79,2021-12-17 16:42:40.187500
980,7.36,2021-12-17 16:42:40.203125
981,5.52,2021-12-17 16:42:40.218750
982,3.0,2021-12-17 16:42:40.234375
983,-0.35,2021-12-17 16:42:40.250000
984,-4.53,2021-12-17 16:42:40.265625
985,-9.44,2021-12-17 16:42:40.281250
986,-14.85,2021-12-17 16:42:40.296875
987,-20.45,2021-12-17 16:42:40.312500
988,-25.76,2021-12-17 16:42:40.328125
989,-30.04,2021-12-17 16:42:40.343750
990,-32.41,2021-12-17 16:42:40.359375
991,-32.06,2021-12-17 16:42:40.375000
992,-28.61,2021-12-17 16:42:40.390625
993,-22.35,2021-12-17 16:42:40.406250
994,-14.19,2021-12-17 16:42:40.421875
995,-5.43,2021-12-17 16:42:40.437500
996,2.77,2021-12-17 16:42:40.453125
997,9.77,2021-12-17 16:42:40.468750
998,15.46,2021-12-17 16:42:40.484375
999,20.1,2021-12-17 16:42:40.500000
1000,23.95,2021-12-17 16:42:40.515625
1001,27.04,2021-12-17 16:42:40.531250
1002,29.17,2021-12-17 16:42:40.546875
1003,30.13,2021-12-17 16:42:40.562500
1004,29.84,2021-12-17 16:42:40.578125
1005,28.58,2021-12-17 16:42:40.593750
1006,26.83,2021-12-17 16:42:40.609375
1007,25.09,2021-12-17 16:42:40.625000
1008,23.66,2021-12-17 16:42:40.640625
1009,22.58,2021-12-17 16:42:40.656250
1010,21.68,2021-12-17 16:42:40.671875
1011,20.74,2021-12-17 16:42:40.687500
1012,19.59,2021-12-17 16:42:40.703125
1013,18.18,2021-12-17 16:42:40.718750
1014,16.49,2021-12-17 16:42:40.734375
1015,14.54,2021-12-17 16:42:40.750000
1016,12.38,2021-12-17 16:42:40.765625
1017,10.08,2021-12-17 16:42:40.781250
1018,7.74,2021-12-17 16:42:40.796875
1019,5.4,2021-12-17 16:42:40.812500
1020,3.05,2021-12-17 16:42:40.828125
1021,0.53,2021-12-17 16:42:40.843750
1022,-2.35,2021-12-17 16:42:40.859375
1023,-5.78,2021-12-17 16:42:40.875000
1024,-9.91,2021-12-17 16:42:40.890625
1025,-14.75,2021-12-17 16:42:40.906250
1026,-20.1,2021-12-17 16:42:40.921875
1027,-25.5,2021-12-17 16:42:40.937500
1028,-30.3,2021-12-17 16:42:40.953125
1029,-33.67,2021-12-17 16:42:40.968750
1030,-34.86,2021-12-17 16:42:40.984375
1031,-33.39,2021-12-17 16:42:41.000000
1032,-29.29,2021-12-17 16:42:41.015625
1033,-23.09,2021-12-17 16:42:41.031250
1034,-15.66,2021-12-17 16:42:41.046875
1035,-7.94,2021-12-17 16:42:41.062500
1036,-0.66,2021-12-17 16:42:41.078125
1037,5.79,2021-12-17 16:42:41.093750
1038,11.24,2021-12-17 16:42:41.109375
1039,15.62,2021-12-17 16:42:41.125000
1040,18.87,2021-12-17 16:42:41.140625
1041,20.92,2021-12-17 16:42:41.156250
1042,21.81,2021-12-17 16:42:41.171875
1043,21.75,2021-12-17 16:42:41.187500
1044,21.12,2021-12-17 16:42:41.203125
1045,20.3,2021-12-17 16:42:41.218750
1046,19.52,2021-12-17 16:42:41.234375
1047,18.86,2021-12-17 16:42:41.250000
1048,18.21,2021-12-17 16:42:41.265625
1049,17.47,2021-12-17 16:42:41.281250
1050,16.57,2021-12-17 16:42:41.296875
1051,15.48,2021-12-17 16:42:41.312500
1052,14.25,2021-12-17 16:42:41.328125
1053,12.79,2021-12-17 16:42:41.343750
1054,11.05,2021-12-17 16:42:41.359375
1055,8.99,2021-12-17 16:42:41.375000
1056,6.65,2021-12-17 16:42:41.390625
1057,4.24,2021-12-17 16:42:41.406250
1058,1.97,2021-12-17 16:42:41.421875
1059,-0.01,2021-12-17 16:42:41.437500
1060,-1.81,2021-12-17 16:42:41.453125
1061,-3.69,2021-12-17 16:42:41.468750
1062,-6.03,2021-12-17 16:42:41.484375
1063,-9.11,2021-12-17 16:42:41.500000
1064,-13.12,2021-12-17 16:42:41.515625
1065,-18.04,2021-12-17 16:42:41.531250
1066,-23.67,2021-12-17 16:42:41.546875
1067,-29.59,2021-12-17 16:42:41.562500
1068,-35.12,2021-12-17 16:42:41.578125
1069,-39.34,2021-12-17 16:42:41.593750
1070,-41.35,2021-12-17 16:42:41.609375
1071,-40.46,2021-12-17 16:42:41.625000
1072,-36.48,2021-12-17 16:42:41.640625
1073,-29.82,2021-12-17 16:42:41.656250
1074,-21.39,2021-12-17 16:42:41.671875
1075,-12.3,2021-12-17 16:42:41.687500
1076,-3.5,2021-12-17 16:42:41.703125
1077,4.4,2021-12-17 16:42:41.718750
1078,11.15,2021-12-17 16:42:41.734375
1079,16.73,2021-12-17 16:42:41.750000
1080,21.17,2021-12-17 16:42:41.765625
1081,24.45,2021-12-17 16:42:41.781250
1082,26.54,2021-12-17 16:42:41.796875
1083,27.48,2021-12-17 16:42:41.812500
1084,27.48,2021-12-17 16:42:41.828125
1085,26.83,2021-12-17 16:42:41.843750
1086,25.85,2021-12-17 16:42:41.859375
1087,24.81,2021-12-17 16:42:41.875000
1088,23.85,2021-12-17 16:42:41.890625
1089,22.99,2021-12-17 16:42:41.906250
1090,22.25,2021-12-17 16:42:41.921875
1091,21.67,2021-12-17 16:42:41.937500
1092,21.31,2021-12-17 16:42:41.953125
1093,21.16,2021-12-17 16:42:41.968750
1094,21.09,2021-12-17 16:42:41.984375
1095,20.83,2021-12-17 16:42:42.000000
1096,19.98,2021-12-17 16:42:42.015625
1097,18.29,2021-12-17 16:42:42.031250
1098,15.72,2021-12-17 16:42:42.046875
1099,12.52,2021-12-17 16:42:42.062500
1100,9.06,2021-12-17 16:42:42.078125
1101,5.67,2021-12-17 16:42:42.093750
1102,2.5,2021-12-17 16:42:42.109375
1103,-0.6,2021-12-17 16:42:42.125000
1104,-3.89,2021-12-17 16:42:42.140625
1105,-7.68,2021-12-17 16:42:42.156250
1106,-12.09,2021-12-17 16:42:42.171875
1107,-17.08,2021-12-17 16:42:42.187500
1108,-22.26,2021-12-17 16:42:42.203125
1109,-27.03,2021-12-17 16:42:42.218750
1110,-30.66,2021-12-17 16:42:42.234375
1111,-32.4,2021-12-17 16:42:42.250000
1112,-31.78,2021-12-17 16:42:42.265625
1113,-28.61,2021-12-17 16:42:42.281250
1114,-23.21,2021-12-17 16:42:42.296875
1115,-16.22,2021-12-17 16:42:42.312500
1116,-8.53,2021-12-17 16:42:42.328125
1117,-0.99,2021-12-17 16:42:42.343750
1118,5.81,2021-12-17 16:42:42.359375
1119,11.55,2021-12-17 16:42:42.375000
1120,16.2,2021-12-17 16:42:42.390625
1121,19.89,2021-12-17 16:42:42.406250
1122,22.66,2021-12-17 16:42:42.421875
1123,24.52,2021-12-17 16:42:42.437500
1124,25.39,2021-12-17 16:42:42.453125
1125,25.21,2021-12-17 16:42:42.468750
1126,24.08,2021-12-17 16:42:42.484375
1127,22.32,2021-12-17 16:42:42.500000
1128,20.38,2021-12-17 16:42:42.515625
1129,18.67,2021-12-17 16:42:42.531250
1130,17.47,2021-12-17 16:42:42.546875
1131,16.79,2021-12-17 16:42:42.562500
1132,16.43,2021-12-17 16:42:42.578125
1133,16.17,2021-12-17 16:42:42.593750
1134,15.83,2021-12-17 16:42:42.609375
1135,15.32,2021-12-17 16:42:42.625000
1136,14.61,2021-12-17 16:42:42.640625
1137,13.63,2021-12-17 16:42:42.656250
1138,12.29,2021-12-17 16:42:42.671875
1139,10.48,2021-12-17 16:42:42.687500
1140,8.14,2021-12-17 16:42:42.703125
1141,5.37,2021-12-17 16:42:42.718750
1142,2.37,2021-12-17 16:42:42.734375
1143,-0.65,2021-12-17 16:42:42.750000
1144,-3.56,2021-12-17 16:42:42.765625
1145,-6.4,2021-12-17 16:42:42.781250
1146,-9.41,2021-12-17 16:42:42.796875
1147,-12.84,2021-12-17 16:42:42.812500
1148,-16.88,2021-12-17 16:42:42.828125
1149,-21.4,2021-12-17 16:42:42.843750
1150,-25.94,2021-12-17 16:42:42.859375
1151,-29.68,2021-12-17 16:42:42.875000
1152,-31.74,2021-12-17 16:42:42.890625
1153,-31.45,2021-12-17 16:42:42.906250
1154,-28.61,2021-12-17 16:42:42.921875
1155,-23.64,2021-12-17 16:42:42.937500
1156,-17.32,2021-12-17 16:42:42.953125
1157,-10.59,2021-12-17 16:42:42.968750
1158,-4.14,2021-12-17 16:42:42.984375
1159,1.66,2021-12-17 16:42:43.000000
1160,6.79,2021-12-17 16:42:43.015625
1161,11.31,2021-12-17 16:42:43.031250
1162,15.24,2021-12-17 16:42:43.046875
1163,18.49,2021-12-17 16:42:43.062500
1164,20.88,2021-12-17 16:42:43.078125
1165,22.27,2021-12-17 16:42:43.093750
1166,22.69,2021-12-17 16:42:43.109375
1167,22.26,2021-12-17 16:42:43.125000
1168,21.27,2021-12-17 16:42:43.140625
1169,20.02,2021-12-17 16:42:43.156250
1170,18.77,2021-12-17 16:42:43.171875
1171,17.69,2021-12-17 16:42:43.187500
1172,16.88,2021-12-17 16:42:43.203125
1173,16.37,2021-12-17 16:42:43.218750
1174,16.12,2021-12-17 16:42:43.234375
1175,16.07,2021-12-17 16:42:43.250000
1176,16.07,2021-12-17 16:42:43.265625
1177,15.89,2021-12-17 16:42:43.281250
1178,15.3,2021-12-17 16:42:43.296875
1179,14.12,2021-12-17 16:42:43.312500
1180,12.28,2021-12-17 16:42:43.328125
1181,9.87,2021-12-17 16:42:43.343750
1182,7.16,2021-12-17 16:42:43.359375
1183,4.4,2021-12-17 16:42:43.375000
1184,1.8,2021-12-17 16:42:43.390625
1185,-0.66,2021-12-17 16:42:43.406250
1186,-3.09,2021-12-17 16:42:43.421875
1187,-5.75,2021-12-17 16:42:43.437500
1188,-8.85,2021-12-17 16:42:43.453125
1189,-12.55,2021-12-17 16:42:43.468750
1190,-16.88,2021-12-17 16:42:43.484375
1191,-21.59,2021-12-17 16:42:43.500000
1192,-26.15,2021-12-17 16:42:43.515625
1193,-29.79,2021-12-17 16:42:43.531250
1194,-31.61,2021-12-17 16:42:43.546875
1195,-30.97,2021-12-17 16:42:43.562500
1196,-27.73,2021-12-17 16:42:43.578125
1197,-22.33,2021-12-17 16:42:43.593750
1198,-15.61,2021-12-17 16:42:43.609375
1199,-8.5,2021-12-17 16:42:43.625000
1200,-1.76,2021-12-17 16:42:43.640625
1201,4.25,2021-12-17 16:42:43.656250
1202,9.37,2021-12-17 16:42:43.671875
1203,13.61,2021-12-17 16:42:43.687500
1204,16.93,2021-12-17 16:42:43.703125
1205,19.28,2021-12-17 16:42:43.718750
1206,20.68,2021-12-17 16:42:43.734375
1207,21.27,2021-12-17 16:42:43.750000
1208,21.27,2021-12-17 16:42:43.765625
1209,20.89,2021-12-17 16:42:43.781250
1210,20.26,2021-12-17 16:42:43.796875
1211,19.35,2021-12-17 16:42:43.812500
1212,18.14,2021-12-17 16:42:43.828125
1213,16.62,2021-12-17 16:42:43.843750
1214,14.87,2021-12-17 16:42:43.859375
1215,13.04,2021-12-17 16:42:43.875000
1216,11.3,2021-12-17 16:42:43.890625
1217,9.79,2021-12-17 16:42:43.906250
1218,8.54,2021-12-17 16:42:43.921875
1219,7.48,2021-12-17 16:42:43.937500
1220,6.48,2021-12-17 16:42:43.953125
1221,5.35,2021-12-17 16:42:43.968750
1222,3.89,2021-12-17 16:42:43.984375
1223,1.97,2021-12-17 16:42:44.000000
1224,-0.44,2021-12-17 16:42:44.015625
1225,-3.31,2021-12-17 16:42:44.031250
1226,-6.51,2021-12-17 16:42:44.046875
1227,-9.9,2021-12-17 16:42:44.062500
1228,-13.38,2021-12-17 16:42:44.078125
1229,-16.9,2021-12-17 16:42:44.093750
1230,-20.44,2021-12-17 16:42:44.109375
1231,-23.95,2021-12-17 16:42:44.125000
1232,-27.3,2021-12-17 16:42:44.140625
1233,-30.21,2021-12-17 16:42:44.156250
1234,-32.29,2021-12-17 16:42:44.171875
1235,-33.08,2021-12-17 16:42:44.187500
1236,-32.17,2021-12-17 16:42:44.203125
1237,-29.41,2021-12-17 16:42:44.218750
1238,-24.93,2021-12-17 16:42:44.234375
1239,-19.2,2021-12-17 16:42:44.250000
1240,-12.81,2021-12-17 16:42:44.265625
1241,-6.36,2021-12-17 16:42:44.281250
1242,-0.28,2021-12-17 16:42:44.296875
1243,5.14,2021-12-17 16:42:44.312500
1244,9.77,2021-12-17 16:42:44.328125
1245,13.51,2021-12-17 16:42:44.343750
1246,16.27,2021-12-17 16:42:44.359375
1247,18.02,2021-12-17 16:42:44.375000
1248,18.82,2021-12-17 16:42:44.390625
1249,18.9,2021-12-17 16:42:44.406250
1250,18.58,2021-12-17 16:42:44.421875
1251,18.15,2021-12-17 16:42:44.437500
1252,17.8,2021-12-17 16:42:44.453125
1253,17.54,2021-12-17 16:42:44.468750
1254,17.22,2021-12-17 16:42:44.484375
1255,16.67,2021-12-17 16:42:44.500000
1256,15.81,2021-12-17 16:42:44.515625
1257,14.72,2021-12-17 16:42:44.531250
1258,13.61,2021-12-17 16:42:44.546875
1259,12.71,2021-12-17 16:42:44.562500
1260,12.1,2021-12-17 16:42:44.578125
1261,11.67,2021-12-17 16:42:44.593750
1262,11.12,2021-12-17 16:42:44.609375
1263,10.1,2021-12-17 16:42:44.625000
1264,8.48,2021-12-17 16:42:44.640625
1265,6.37,2021-12-17 16:42:44.656250
1266,4.07,2021-12-17 16:42:44.671875
1267,1.91,2021-12-17 16:42:44.687500
1268,-0.0,2021-12-17 16:42:44.703125
1269,-1.86,2021-12-17 16:42:44.718750
1270,-4.0,2021-12-17 16:42:44.734375
1271,-6.77,2021-12-17 16:42:44.750000
1272,-10.3,2021-12-17 16:42:44.765625
1273,-14.39,2021-12-17 16:42:44.781250
1274,-18.58,2021-12-17 16:42:44.796875
1275,-22.17,2021-12-17 16:42:44.812500
1276,-24.44,2021-12-17 16:42:44.828125
1277,-24.79,2021-12-17 16:42:44.843750
1278,-22.91,2021-12-17 16:42:44.859375
1279,-18.9,2021-12-17 16:42:44.875000
1280,-13.24,2021-12-17 16:42:44.890625
1281,-6.74,2021-12-17 16:42:44.906250
1282,-0.24,2021-12-17 16:42:44.921875
1283,5.55,2021-12-17 16:42:44.937500
1284,10.19,2021-12-17 16:42:44.953125
1285,13.57,2021-12-17 16:42:44.968750
1286,15.81,2021-12-17 16:42:44.984375
1287,17.09,2021-12-17 16:42:45.000000
1288,17.6,2021-12-17 16:42:45.015625
1289,17.47,2021-12-17 16:42:45.031250
1290,16.81,2021-12-17 16:42:45.046875
1291,15.73,2021-12-17 16:42:45.062500
1292,14.36,2021-12-17 16:42:45.078125
1293,12.83,2021-12-17 16:42:45.093750
1294,11.23,2021-12-17 16:42:45.109375
1295,9.57,2021-12-17 16:42:45.125000
1296,7.81,2021-12-17 16:42:45.140625
1297,5.86,2021-12-17 16:42:45.156250
1298,3.62,2021-12-17 16:42:45.171875
1299,1.06,2021-12-17 16:42:45.187500
1300,-1.77,2021-12-17 16:42:45.203125
1301,-4.77,2021-12-17 16:42:45.218750
1302,-7.77,2021-12-17 16:42:45.234375
1303,-10.63,2021-12-17 16:42:45.250000
1304,-13.24,2021-12-17 16:42:45.265625
1305,-15.61,2021-12-17 16:42:45.281250
1306,-17.81,2021-12-17 16:42:45.296875
1307,-19.95,2021-12-17 16:42:45.312500
1308,-22.16,2021-12-17 16:42:45.328125
1309,-24.47,2021-12-17 16:42:45.343750
1310,-26.88,2021-12-17 16:42:45.359375
1311,-29.28,2021-12-17 16:42:45.375000
1312,-31.42,2021-12-17 16:42:45.390625
1313,-33.03,2021-12-17 16:42:45.406250
1314,-33.77,2021-12-17 16:42:45.421875
1315,-33.36,2021-12-17 16:42:45.437500
1316,-31.59,2021-12-17 16:42:45.453125
1317,-28.34,2021-12-17 16:42:45.468750
1318,-23.68,2021-12-17 16:42:45.484375
1319,-17.85,2021-12-17 16:42:45.500000
1320,-11.21,2021-12-17 16:42:45.515625
1321,-4.27,2021-12-17 16:42:45.531250
1322,2.47,2021-12-17 16:42:45.546875
1323,8.52,2021-12-17 16:42:45.562500
1324,13.48,2021-12-17 16:42:45.578125
1325,17.0,2021-12-17 16:42:45.593750
1326,18.87,2021-12-17 16:42:45.609375
1327,19.02,2021-12-17 16:42:45.625000
1328,17.62,2021-12-17 16:42:45.640625
1329,15.14,2021-12-17 16:42:45.656250
1330,12.27,2021-12-17 16:42:45.671875
1331,9.74,2021-12-17 16:42:45.687500
1332,8.15,2021-12-17 16:42:45.703125
1333,7.71,2021-12-17 16:42:45.718750
1334,8.23,2021-12-17 16:42:45.734375
1335,9.21,2021-12-17 16:42:45.750000
1336,9.98,2021-12-17 16:42:45.765625
1337,10.02,2021-12-17 16:42:45.781250
1338,9.07,2021-12-17 16:42:45.796875
1339,7.18,2021-12-17 16:42:45.812500
1340,4.7,2021-12-17 16:42:45.828125
1341,2.07,2021-12-17 16:42:45.843750
1342,-0.31,2021-12-17 16:42:45.859375
1343,-2.21,2021-12-17 16:42:45.875000
1344,-3.59,2021-12-17 16:42:45.890625
1345,-4.59,2021-12-17 16:42:45.906250
1346,-5.5,2021-12-17 16:42:45.921875
1347,-6.7,2021-12-17 16:42:45.937500
1348,-8.56,2021-12-17 16:42:45.953125
1349,-11.33,2021-12-17 16:42:45.968750
1350,-14.91,2021-12-17 16:42:45.984375
1351,-18.83,2021-12-17 16:42:46.000000
1352,-22.25,2021-12-17 16:42:46.015625
1353,-24.23,2021-12-17 16:42:46.031250
1354,-24.07,2021-12-17 16:42:46.046875
1355,-21.57,2021-12-17 16:42:46.062500
1356,-17.19,2021-12-17 16:42:46.078125
1357,-11.74,2021-12-17 16:42:46.093750
1358,-6.19,2021-12-17 16:42:46.109375
1359,-1.18,2021-12-17 16:42:46.125000
1360,2.98,2021-12-17 16:42:46.140625
1361,6.27,2021-12-17 16:42:46.156250
1362,8.77,2021-12-17 16:42:46.171875
1363,10.4,2021-12-17 16:42:46.187500
1364,11.12,2021-12-17 16:42:46.203125
1365,10.91,2021-12-17 16:42:46.218750
1366,9.93,2021-12-17 16:42:46.234375
1367,8.56,2021-12-17 16:42:46.250000
1368,7.21,2021-12-17 16:42:46.265625
1369,6.17,2021-12-17 16:42:46.281250
1370,5.49,2021-12-17 16:42:46.296875
1371,4.97,2021-12-17 16:42:46.312500
1372,4.35,2021-12-17 16:42:46.328125
1373,3.45,2021-12-17 16:42:46.343750
1374,2.28,2021-12-17 16:42:46.359375
1375,1.04,2021-12-17 16:42:46.375000
1376,0.02,2021-12-17 16:42:46.390625
1377,-0.58,2021-12-17 16:42:46.406250
1378,-0.7,2021-12-17 16:42:46.421875
1379,-0.49,2021-12-17 16:42:46.437500
1380,-0.2,2021-12-17 16:42:46.453125
1381,-0.15,2021-12-17 16:42:46.468750
1382,-0.56,2021-12-17 16:42:46.484375
1383,-1.58,2021-12-17 16:42:46.500000
1384,-3.21,2021-12-17 16:42:46.515625
1385,-5.37,2021-12-17 16:42:46.531250
1386,-7.9,2021-12-17 16:42:46.546875
1387,-10.57,2021-12-17 16:42:46.562500
1388,-13.01,2021-12-17 16:42:46.578125
1389,-14.71,2021-12-17 16:42:46.593750
1390,-15.11,2021-12-17 16:42:46.609375
1391,-13.68,2021-12-17 16:42:46.625000
1392,-10.16,2021-12-17 16:42:46.640625
1393,-4.65,2021-12-17 16:42:46.656250
1394,2.51,2021-12-17 16:42:46.671875
1395,10.87,2021-12-17 16:42:46.687500
1396,20.24,2021-12-17 16:42:46.703125
1397,30.65,2021-12-17 16:42:46.718750
1398,42.26,2021-12-17 16:42:46.734375
1399,54.92,2021-12-17 16:42:46.750000
1400,67.86,2021-12-17 16:42:46.765625
1401,79.59,2021-12-17 16:42:46.781250
1402,88.27,2021-12-17 16:42:46.796875
1403,92.32,2021-12-17 16:42:46.812500
1404,91.16,2021-12-17 16:42:46.828125
1405,85.43,2021-12-17 16:42:46.843750
1406,76.72,2021-12-17 16:42:46.859375
1407,66.94,2021-12-17 16:42:46.875000
1408,57.71,2021-12-17 16:42:46.890625
1409,49.95,2021-12-17 16:42:46.906250
1410,43.98,2021-12-17 16:42:46.921875
1411,39.82,2021-12-17 16:42:46.937500
1412,37.34,2021-12-17 16:42:46.953125
1413,36.17,2021-12-17 16:42:46.968750
1414,35.31,2021-12-17 16:42:46.984375
1415,32.96,2021-12-17 16:42:47.000000
1416,26.79,2021-12-17 16:42:47.015625
1417,14.65,2021-12-17 16:42:47.031250
1418,-4.57,2021-12-17 16:42:47.046875
1419,-30.52,2021-12-17 16:42:47.062500
1420,-61.49,2021-12-17 16:42:47.078125
1421,-95.0,2021-12-17 16:42:47.093750
1422,-128.34,2021-12-17 16:42:47.109375
1423,-158.84,2021-12-17 16:42:47.125000
1424,-183.9,2021-12-17 16:42:47.140625
1425,-200.94,2021-12-17 16:42:47.156250
1426,-207.79,2021-12-17 16:42:47.171875
1427,-203.38,2021-12-17 16:42:47.187500
1428,-188.35,2021-12-17 16:42:47.203125
1429,-165.31,2021-12-17 16:42:47.218750
1430,-138.3,2021-12-17 16:42:47.234375
1431,-111.76,2021-12-17 16:42:47.250000
1432,-89.32,2021-12-17 16:42:47.265625
1433,-72.97,2021-12-17 16:42:47.281250
1434,-62.95,2021-12-17 16:42:47.296875
1435,-58.2,2021-12-17 16:42:47.312500
1436,-57.11,2021-12-17 16:42:47.328125
1437,-58.05,2021-12-17 16:42:47.343750
1438,-59.75,2021-12-17 16:42:47.359375
1439,-61.32,2021-12-17 16:42:47.375000
1440,-62.13,2021-12-17 16:42:47.390625
1441,-61.72,2021-12-17 16:42:47.406250
1442,-59.77,2021-12-17 16:42:47.421875
1443,-56.14,2021-12-17 16:42:47.437500
1444,-51.0,2021-12-17 16:42:47.453125
1445,-44.75,2021-12-17 16:42:47.468750
1446,-37.92,2021-12-17 16:42:47.484375
1447,-30.94,2021-12-17 16:42:47.500000
1448,-23.98,2021-12-17 16:42:47.515625
1449,-16.98,2021-12-17 16:42:47.531250
1450,-9.82,2021-12-17 16:42:47.546875
1451,-2.44,2021-12-17 16:42:47.562500
1452,5.0,2021-12-17 16:42:47.578125
1453,12.21,2021-12-17 16:42:47.593750
1454,18.83,2021-12-17 16:42:47.609375
1455,24.55,2021-12-17 16:42:47.625000
1456,29.11,2021-12-17 16:42:47.640625
1457,32.27,2021-12-17 16:42:47.656250
1458,33.87,2021-12-17 16:42:47.671875
1459,33.77,2021-12-17 16:42:47.687500
1460,32.0,2021-12-17 16:42:47.703125
1461,28.76,2021-12-17 16:42:47.718750
1462,24.46,2021-12-17 16:42:47.734375
1463,19.76,2021-12-17 16:42:47.750000
1464,15.41,2021-12-17 16:42:47.765625
1465,12.17,2021-12-17 16:42:47.781250
1466,10.65,2021-12-17 16:42:47.796875
1467,11.17,2021-12-17 16:42:47.812500
1468,13.63,2021-12-17 16:42:47.828125
1469,17.66,2021-12-17 16:42:47.843750
1470,22.81,2021-12-17 16:42:47.859375
1471,28.69,2021-12-17 16:42:47.875000
1472,35.2,2021-12-17 16:42:47.890625
1473,42.43,2021-12-17 16:42:47.906250
1474,50.45,2021-12-17 16:42:47.921875
1475,59.15,2021-12-17 16:42:47.937500
1476,68.09,2021-12-17 16:42:47.953125
1477,76.52,2021-12-17 16:42:47.968750
1478,83.66,2021-12-17 16:42:47.984375
1479,88.92,2021-12-17 16:42:48.000000
1480,92.08,2021-12-17 16:42:48.015625
1481,93.32,2021-12-17 16:42:48.031250
1482,93.13,2021-12-17 16:42:48.046875
1483,92.12,2021-12-17 16:42:48.062500
1484,90.87,2021-12-17 16:42:48.078125
1485,89.79,2021-12-17 16:42:48.093750
1486,89.08,2021-12-17 16:42:48.109375
1487,88.81,2021-12-17 16:42:48.125000
1488,88.84,2021-12-17 16:42:48.140625
1489,88.94,2021-12-17 16:42:48.156250
1490,88.73,2021-12-17 16:42:48.171875
1491,87.69,2021-12-17 16:42:48.187500
1492,85.38,2021-12-17 16:42:48.203125
1493,81.6,2021-12-17 16:42:48.218750
1494,76.53,2021-12-17 16:42:48.234375
1495,70.8,2021-12-17 16:42:48.250000
1496,65.31,2021-12-17 16:42:48.265625
1497,60.79,2021-12-17 16:42:48.281250
1498,57.56,2021-12-17 16:42:48.296875
1499,55.36,2021-12-17 16:42:48.312500
1500,53.53,2021-12-17 16:42:48.328125
1501,51.37,2021-12-17 16:42:48.343750
1502,48.38,2021-12-17 16:42:48.359375
1503,44.27,2021-12-17 16:42:48.375000
1504,38.76,2021-12-17 16:42:48.390625
1505,31.5,2021-12-17 16:42:48.406250
1506,22.04,2021-12-17 16:42:48.421875
1507,10.29,2021-12-17 16:42:48.437500
1508,-3.07,2021-12-17 16:42:48.453125
1509,-16.49,2021-12-17 16:42:48.468750
1510,-27.93,2021-12-17 16:42:48.484375
1511,-35.53,2021-12-17 16:42:48.500000
1512,-38.51,2021-12-17 16:42:48.515625
1513,-37.33,2021-12-17 16:42:48.531250
1514,-33.58,2021-12-17 16:42:48.546875
1515,-29.25,2021-12-17 16:42:48.562500
1516,-26.04,2021-12-17 16:42:48.578125
1517,-24.89,2021-12-17 16:42:48.593750
1518,-25.95,2021-12-17 16:42:48.609375
1519,-28.73,2021-12-17 16:42:48.625000
1520,-32.44,2021-12-17 16:42:48.640625
1521,-36.24,2021-12-17 16:42:48.656250
1522,-39.45,2021-12-17 16:42:48.671875
1523,-41.77,2021-12-17 16:42:48.687500
1524,-43.31,2021-12-17 16:42:48.703125
1525,-44.5,2021-12-17 16:42:48.718750
1526,-45.92,2021-12-17 16:42:48.734375
1527,-47.97,2021-12-17 16:42:48.750000
1528,-50.65,2021-12-17 16:42:48.765625
1529,-53.69,2021-12-17 16:42:48.781250
1530,-56.62,2021-12-17 16:42:48.796875
1531,-59.13,2021-12-17 16:42:48.812500
1532,-61.18,2021-12-17 16:42:48.828125
1533,-63.0,2021-12-17 16:42:48.843750
1534,-64.88,2021-12-17 16:42:48.859375
1535,-67.11,2021-12-17 16:42:48.875000
1536,-69.85,2021-12-17 16:42:48.890625
1537,-73.09,2021-12-17 16:42:48.906250
1538,-76.6,2021-12-17 16:42:48.921875
1539,-79.89,2021-12-17 16:42:48.937500
1540,-82.15,2021-12-17 16:42:48.953125
1541,-82.5,2021-12-17 16:42:48.968750
1542,-80.22,2021-12-17 16:42:48.984375
1543,-75.05,2021-12-17 16:42:49.000000
1544,-67.3,2021-12-17 16:42:49.015625
1545,-57.65,2021-12-17 16:42:49.031250
1546,-46.88,2021-12-17 16:42:49.046875
1547,-35.64,2021-12-17 16:42:49.062500
1548,-24.32,2021-12-17 16:42:49.078125
1549,-13.23,2021-12-17 16:42:49.093750
1550,-2.66,2021-12-17 16:42:49.109375
1551,7.05,2021-12-17 16:42:49.125000
1552,15.53,2021-12-17 16:42:49.140625
1553,22.59,2021-12-17 16:42:49.156250
1554,28.26,2021-12-17 16:42:49.171875
1555,32.78,2021-12-17 16:42:49.187500
1556,36.49,2021-12-17 16:42:49.203125
1557,39.64,2021-12-17 16:42:49.218750
1558,42.23,2021-12-17 16:42:49.234375
1559,43.97,2021-12-17 16:42:49.250000
1560,44.42,2021-12-17 16:42:49.265625
1561,43.04,2021-12-17 16:42:49.281250
1562,39.49,2021-12-17 16:42:49.296875
1563,33.83,2021-12-17 16:42:49.312500
1564,26.64,2021-12-17 16:42:49.328125
1565,18.93,2021-12-17 16:42:49.343750
1566,11.84,2021-12-17 16:42:49.359375
1567,6.23,2021-12-17 16:42:49.375000
1568,2.26,2021-12-17 16:42:49.390625
1569,-0.59,2021-12-17 16:42:49.406250
1570,-3.43,2021-12-17 16:42:49.421875
1571,-7.44,2021-12-17 16:42:49.437500
1572,-13.46,2021-12-17 16:42:49.453125
1573,-21.7,2021-12-17 16:42:49.468750
1574,-31.7,2021-12-17 16:42:49.484375
1575,-42.46,2021-12-17 16:42:49.500000
1576,-52.72,2021-12-17 16:42:49.515625
1577,-61.07,2021-12-17 16:42:49.531250
1578,-66.17,2021-12-17 16:42:49.546875
1579,-66.96,2021-12-17 16:42:49.562500
1580,-62.9,2021-12-17 16:42:49.578125
1581,-54.31,2021-12-17 16:42:49.593750
1582,-42.55,2021-12-17 16:42:49.609375
1583,-29.69,2021-12-17 16:42:49.625000
1584,-17.82,2021-12-17 16:42:49.640625
1585,-8.36,2021-12-17 16:42:49.656250
1586,-1.6,2021-12-17 16:42:49.671875
1587,3.09,2021-12-17 16:42:49.687500
1588,6.7,2021-12-17 16:42:49.703125
1589,9.81,2021-12-17 16:42:49.718750
1590,12.34,2021-12-17 16:42:49.734375
1591,13.72,2021-12-17 16:42:49.750000
1592,13.53,2021-12-17 16:42:49.765625
1593,11.92,2021-12-17 16:42:49.781250
1594,9.65,2021-12-17 16:42:49.796875
1595,7.71,2021-12-17 16:42:49.812500
1596,6.71,2021-12-17 16:42:49.828125
1597,6.61,2021-12-17 16:42:49.843750
1598,6.79,2021-12-17 16:42:49.859375
1599,6.63,2021-12-17 16:42:49.875000
1600,5.84,2021-12-17 16:42:49.890625
1601,4.74,2021-12-17 16:42:49.906250
1602,3.92,2021-12-17 16:42:49.921875
1603,3.84,2021-12-17 16:42:49.937500
1604,4.45,2021-12-17 16:42:49.953125
1605,5.17,2021-12-17 16:42:49.968750
1606,5.1,2021-12-17 16:42:49.984375
1607,3.51,2021-12-17 16:42:50.000000
1608,0.16,2021-12-17 16:42:50.015625
1609,-4.56,2021-12-17 16:42:50.031250
1610,-9.71,2021-12-17 16:42:50.046875
1611,-14.19,2021-12-17 16:42:50.062500
1612,-17.27,2021-12-17 16:42:50.078125
1613,-18.82,2021-12-17 16:42:50.093750
1614,-19.44,2021-12-17 16:42:50.109375
1615,-20.15,2021-12-17 16:42:50.125000
1616,-21.88,2021-12-17 16:42:50.140625
1617,-25.02,2021-12-17 16:42:50.156250
1618,-29.09,2021-12-17 16:42:50.171875
1619,-32.98,2021-12-17 16:42:50.187500
1620,-35.41,2021-12-17 16:42:50.203125
1621,-35.5,2021-12-17 16:42:50.218750
1622,-33.13,2021-12-17 16:42:50.234375
1623,-29.05,2021-12-17 16:42:50.250000
1624,-24.41,2021-12-17 16:42:50.265625
1625,-20.36,2021-12-17 16:42:50.281250
1626,-17.56,2021-12-17 16:42:50.296875
1627,-16.06,2021-12-17 16:42:50.312500
1628,-15.39,2021-12-17 16:42:50.328125
1629,-14.86,2021-12-17 16:42:50.343750
1630,-13.79,2021-12-17 16:42:50.359375
1631,-11.66,2021-12-17 16:42:50.375000
1632,-8.18,2021-12-17 16:42:50.390625
1633,-3.17,2021-12-17 16:42:50.406250
1634,3.47,2021-12-17 16:42:50.421875
1635,11.74,2021-12-17 16:42:50.437500
1636,21.46,2021-12-17 16:42:50.453125
1637,32.2,2021-12-17 16:42:50.468750
1638,43.13,2021-12-17 16:42:50.484375
1639,53.17,2021-12-17 16:42:50.500000
1640,61.25,2021-12-17 16:42:50.515625
1641,66.52,2021-12-17 16:42:50.531250
1642,68.66,2021-12-17 16:42:50.546875
1643,67.85,2021-12-17 16:42:50.562500
1644,64.68,2021-12-17 16:42:50.578125
1645,59.93,2021-12-17 16:42:50.593750
1646,54.33,2021-12-17 16:42:50.609375
1647,48.4,2021-12-17 16:42:50.625000
1648,42.48,2021-12-17 16:42:50.640625
1649,36.69,2021-12-17 16:42:50.656250
1650,31.04,2021-12-17 16:42:50.671875
1651,25.48,2021-12-17 16:42:50.687500
1652,19.89,2021-12-17 16:42:50.703125
1653,14.13,2021-12-17 16:42:50.718750
1654,8.05,2021-12-17 16:42:50.734375
1655,1.52,2021-12-17 16:42:50.750000
1656,-5.43,2021-12-17 16:42:50.765625
1657,-12.69,2021-12-17 16:42:50.781250
1658,-19.87,2021-12-17 16:42:50.796875
1659,-26.44,2021-12-17 16:42:50.812500
1660,-31.76,2021-12-17 16:42:50.828125
1661,-35.23,2021-12-17 16:42:50.843750
1662,-36.39,2021-12-17 16:42:50.859375
1663,-35.1,2021-12-17 16:42:50.875000
1664,-31.44,2021-12-17 16:42:50.890625
1665,-25.65,2021-12-17 16:42:50.906250
1666,-18.02,2021-12-17 16:42:50.921875
1667,-8.82,2021-12-17 16:42:50.937500
1668,1.63,2021-12-17 16:42:50.953125
1669,12.97,2021-12-17 16:42:50.968750
1670,24.75,2021-12-17 16:42:50.984375
1671,36.46,2021-12-17 16:42:51.000000
1672,47.63,2021-12-17 16:42:51.015625
1673,57.85,2021-12-17 16:42:51.031250
1674,66.8,2021-12-17 16:42:51.046875
1675,74.17,2021-12-17 16:42:51.062500
1676,79.59,2021-12-17 16:42:51.078125
1677,82.8,2021-12-17 16:42:51.093750
1678,83.7,2021-12-17 16:42:51.109375
1679,82.54,2021-12-17 16:42:51.125000
1680,79.95,2021-12-17 16:42:51.140625
1681,76.67,2021-12-17 16:42:51.156250
1682,73.35,2021-12-17 16:42:51.171875
1683,70.21,2021-12-17 16:42:51.187500
1684,67.08,2021-12-17 16:42:51.203125
1685,63.49,2021-12-17 16:42:51.218750
1686,58.98,2021-12-17 16:42:51.234375
1687,53.28,2021-12-17 16:42:51.250000
1688,46.4,2021-12-17 16:42:51.265625
1689,38.5,2021-12-17 16:42:51.281250
1690,29.83,2021-12-17 16:42:51.296875
1691,20.64,2021-12-17 16:42:51.312500
1692,11.26,2021-12-17 16:42:51.328125
1693,2.06,2021-12-17 16:42:51.343750
1694,-6.51,2021-12-17 16:42:51.359375
1695,-14.01,2021-12-17 16:42:51.375000
1696,-20.13,2021-12-17 16:42:51.390625
1697,-24.79,2021-12-17 16:42:51.406250
1698,-28.2,2021-12-17 16:42:51.421875
1699,-30.93,2021-12-17 16:42:51.437500
1700,-33.78,2021-12-17 16:42:51.453125
1701,-37.6,2021-12-17 16:42:51.468750
1702,-43.13,2021-12-17 16:42:51.484375
1703,-50.71,2021-12-17 16:42:51.500000
1704,-60.26,2021-12-17 16:42:51.515625
1705,-71.23,2021-12-17 16:42:51.531250
1706,-82.67,2021-12-17 16:42:51.546875
1707,-93.38,2021-12-17 16:42:51.562500
1708,-102.05,2021-12-17 16:42:51.578125
1709,-107.51,2021-12-17 16:42:51.593750
1710,-108.89,2021-12-17 16:42:51.609375
1711,-105.83,2021-12-17 16:42:51.625000
1712,-98.49,2021-12-17 16:42:51.640625
1713,-87.56,2021-12-17 16:42:51.656250
1714,-74.07,2021-12-17 16:42:51.671875
1715,-59.2,2021-12-17 16:42:51.687500
1716,-44.08,2021-12-17 16:42:51.703125
1717,-29.7,2021-12-17 16:42:51.718750
1718,-16.81,2021-12-17 16:42:51.734375
1719,-5.84,2021-12-17 16:42:51.750000
1720,3.25,2021-12-17 16:42:51.765625
1721,10.94,2021-12-17 16:42:51.781250
1722,18.02,2021-12-17 16:42:51.796875
1723,25.28,2021-12-17 16:42:51.812500
1724,33.2,2021-12-17 16:42:51.828125
1725,41.79,2021-12-17 16:42:51.843750
1726,50.59,2021-12-17 16:42:51.859375
1727,58.92,2021-12-17 16:42:51.875000
1728,66.2,2021-12-17 16:42:51.890625
1729,72.06,2021-12-17 16:42:51.906250
1730,76.42,2021-12-17 16:42:51.921875
1731,79.41,2021-12-17 16:42:51.937500
1732,81.27,2021-12-17 16:42:51.953125
1733,82.3,2021-12-17 16:42:51.968750
1734,82.84,2021-12-17 16:42:51.984375
1735,83.17,2021-12-17 16:42:52.000000
1736,83.47,2021-12-17 16:42:52.015625
1737,83.72,2021-12-17 16:42:52.031250
1738,83.65,2021-12-17 16:42:52.046875
1739,82.84,2021-12-17 16:42:52.062500
1740,80.93,2021-12-17 16:42:52.078125
1741,77.71,2021-12-17 16:42:52.093750
1742,73.28,2021-12-17 16:42:52.109375
1743,67.98,2021-12-17 16:42:52.125000
1744,62.23,2021-12-17 16:42:52.140625
1745,56.41,2021-12-17 16:42:52.156250
1746,50.67,2021-12-17 16:42:52.171875
1747,44.93,2021-12-17 16:42:52.187500
1748,38.92,2021-12-17 16:42:52.203125
1749,32.26,2021-12-17 16:42:52.218750
1750,24.67,2021-12-17 16:42:52.234375
1751,16.14,2021-12-17 16:42:52.250000
1752,7.14,2021-12-17 16:42:52.265625
1753,-1.42,2021-12-17 16:42:52.281250
1754,-8.37,2021-12-17 16:42:52.296875
1755,-12.73,2021-12-17 16:42:52.312500
1756,-14.04,2021-12-17 16:42:52.328125
1757,-12.63,2021-12-17 16:42:52.343750
1758,-9.38,2021-12-17 16:42:52.359375
1759,-5.37,2021-12-17 16:42:52.375000
1760,-1.42,2021-12-17 16:42:52.390625
1761,2.2,2021-12-17 16:42:52.406250
1762,5.68,2021-12-17 16:42:52.421875
1763,9.39,2021-12-17 16:42:52.437500
1764,13.52,2021-12-17 16:42:52.453125
1765,17.93,2021-12-17 16:42:52.468750
1766,22.22,2021-12-17 16:42:52.484375
1767,25.86,2021-12-17 16:42:52.500000
1768,28.45,2021-12-17 16:42:52.515625
1769,29.7,2021-12-17 16:42:52.531250
1770,29.53,2021-12-17 16:42:52.546875
1771,27.96,2021-12-17 16:42:52.562500
1772,25.18,2021-12-17 16:42:52.578125
1773,21.52,2021-12-17 16:42:52.593750
1774,17.48,2021-12-17 16:42:52.609375
1775,13.58,2021-12-17 16:42:52.625000
1776,10.25,2021-12-17 16:42:52.640625
1777,7.7,2021-12-17 16:42:52.656250
1778,5.82,2021-12-17 16:42:52.671875
1779,4.24,2021-12-17 16:42:52.687500
1780,2.5,2021-12-17 16:42:52.703125
1781,0.19,2021-12-17 16:42:52.718750
1782,-2.91,2021-12-17 16:42:52.734375
1783,-6.75,2021-12-17 16:42:52.750000
1784,-11.06,2021-12-17 16:42:52.765625
1785,-15.45,2021-12-17 16:42:52.781250
1786,-19.54,2021-12-17 16:42:52.796875
1787,-23.08,2021-12-17 16:42:52.812500
1788,-26.0,2021-12-17 16:42:52.828125
1789,-28.39,2021-12-17 16:42:52.843750
1790,-30.52,2021-12-17 16:42:52.859375
1791,-32.72,2021-12-17 16:42:52.875000
1792,-35.33,2021-12-17 16:42:52.890625
1793,-38.59,2021-12-17 16:42:52.906250
1794,-42.59,2021-12-17 16:42:52.921875
1795,-47.22,2021-12-17 16:42:52.937500
1796,-52.27,2021-12-17 16:42:52.953125
1797,-57.57,2021-12-17 16:42:52.968750
1798,-63.02,2021-12-17 16:42:52.984375
1799,-68.65,2021-12-17 16:42:53.000000
1800,-74.42,2021-12-17 16:42:53.015625
1801,-80.08,2021-12-17 16:42:53.031250
1802,-85.06,2021-12-17 16:42:53.046875
1803,-88.57,2021-12-17 16:42:53.062500
1804,-89.81,2021-12-17 16:42:53.078125
1805,-88.32,2021-12-17 16:42:53.093750
1806,-84.26,2021-12-17 16:42:53.109375
1807,-78.38,2021-12-17 16:42:53.125000
1808,-71.84,2021-12-17 16:42:53.140625
1809,-65.78,2021-12-17 16:42:53.156250
1810,-60.95,2021-12-17 16:42:53.171875
1811,-57.52,2021-12-17 16:42:53.187500
1812,-55.11,2021-12-17 16:42:53.203125
1813,-53.09,2021-12-17 16:42:53.218750
1814,-50.97,2021-12-17 16:42:53.234375
1815,-48.57,2021-12-17 16:42:53.250000
1816,-46.06,2021-12-17 16:42:53.265625
1817,-43.78,2021-12-17 16:42:53.281250
1818,-41.92,2021-12-17 16:42:53.296875
1819,-40.35,2021-12-17 16:42:53.312500
1820,-38.68,2021-12-17 16:42:53.328125
1821,-36.39,2021-12-17 16:42:53.343750
1822,-33.05,2021-12-17 16:42:53.359375
1823,-28.55,2021-12-17 16:42:53.375000
1824,-23.06,2021-12-17 16:42:53.390625
1825,-16.88,2021-12-17 16:42:53.406250
1826,-10.33,2021-12-17 16:42:53.421875
1827,-3.64,2021-12-17 16:42:53.437500
1828,3.11,2021-12-17 16:42:53.453125
1829,9.88,2021-12-17 16:42:53.468750
1830,16.64,2021-12-17 16:42:53.484375
1831,23.31,2021-12-17 16:42:53.500000
1832,29.77,2021-12-17 16:42:53.515625
1833,35.86,2021-12-17 16:42:53.531250
1834,41.42,2021-12-17 16:42:53.546875
1835,46.36,2021-12-17 16:42:53.562500
1836,50.56,2021-12-17 16:42:53.578125
1837,53.98,2021-12-17 16:42:53.593750
1838,56.64,2021-12-17 16:42:53.609375
1839,58.66,2021-12-17 16:42:53.625000
1840,60.23,2021-12-17 16:42:53.640625
1841,61.48,2021-12-17 16:42:53.656250
1842,62.4,2021-12-17 16:42:53.671875
1843,62.82,2021-12-17 16:42:53.687500
1844,62.46,2021-12-17 16:42:53.703125
1845,61.14,2021-12-17 16:42:53.718750
1846,58.91,2021-12-17 16:42:53.734375
1847,56.16,2021-12-17 16:42:53.750000
1848,53.47,2021-12-17 16:42:53.765625
1849,51.38,2021-12-17 16:42:53.781250
1850,50.25,2021-12-17 16:42:53.796875
1851,50.11,2021-12-17 16:42:53.812500
1852,50.77,2021-12-17 16:42:53.828125
1853,51.98,2021-12-17 16:42:53.843750
1854,53.53,2021-12-17 16:42:53.859375
1855,55.37,2021-12-17 16:42:53.875000
1856,57.4,2021-12-17 16:42:53.890625
1857,59.52,2021-12-17 16:42:53.906250
1858,61.58,2021-12-17 16:42:53.921875
1859,63.39,2021-12-17 16:42:53.937500
1860,64.84,2021-12-17 16:42:53.953125
1861,65.85,2021-12-17 16:42:53.968750
1862,66.36,2021-12-17 16:42:53.984375
1863,66.23,2021-12-17 16:42:54.000000
1864,65.21,2021-12-17 16:42:54.015625
1865,62.99,2021-12-17 16:42:54.031250
1866,59.32,2021-12-17 16:42:54.046875
1867,54.21,2021-12-17 16:42:54.062500
1868,47.99,2021-12-17 16:42:54.078125
1869,41.18,2021-12-17 16:42:54.093750
1870,34.38,2021-12-17 16:42:54.109375
1871,27.98,2021-12-17 16:42:54.125000
1872,22.16,2021-12-17 16:42:54.140625
1873,16.86,2021-12-17 16:42:54.156250
1874,12.0,2021-12-17 16:42:54.171875
1875,7.55,2021-12-17 16:42:54.187500
1876,3.66,2021-12-17 16:42:54.203125
1877,0.48,2021-12-17 16:42:54.218750
1878,-1.9,2021-12-17 16:42:54.234375
1879,-3.63,2021-12-17 16:42:54.250000
1880,-5.02,2021-12-17 16:42:54.265625
1881,-6.49,2021-12-17 16:42:54.281250
1882,-8.3,2021-12-17 16:42:54.296875
1883,-10.5,2021-12-17 16:42:54.312500
1884,-12.88,2021-12-17 16:42:54.328125
1885,-15.13,2021-12-17 16:42:54.343750
1886,-16.94,2021-12-17 16:42:54.359375
1887,-18.18,2021-12-17 16:42:54.375000
1888,-18.94,2021-12-17 16:42:54.390625
1889,-19.55,2021-12-17 16:42:54.406250
1890,-20.44,2021-12-17 16:42:54.421875
1891,-22.07,2021-12-17 16:42:54.437500
1892,-24.81,2021-12-17 16:42:54.453125
1893,-28.89,2021-12-17 16:42:54.468750
1894,-34.23,2021-12-17 16:42:54.484375
1895,-40.55,2021-12-17 16:42:54.500000
1896,-47.28,2021-12-17 16:42:54.515625
1897,-53.72,2021-12-17 16:42:54.531250
1898,-59.12,2021-12-17 16:42:54.546875
1899,-62.82,2021-12-17 16:42:54.562500
1900,-64.31,2021-12-17 16:42:54.578125
1901,-63.34,2021-12-17 16:42:54.593750
1902,-59.98,2021-12-17 16:42:54.609375
1903,-54.55,2021-12-17 16:42:54.625000
1904,-47.6,2021-12-17 16:42:54.640625
1905,-39.75,2021-12-17 16:42:54.656250
1906,-31.61,2021-12-17 16:42:54.671875
1907,-23.72,2021-12-17 16:42:54.687500
1908,-16.49,2021-12-17 16:42:54.703125
1909,-10.28,2021-12-17 16:42:54.718750
1910,-5.39,2021-12-17 16:42:54.734375
1911,-2.08,2021-12-17 16:42:54.750000
1912,-0.57,2021-12-17 16:42:54.765625
1913,-0.92,2021-12-17 16:42:54.781250
1914,-3.02,2021-12-17 16:42:54.796875
1915,-6.54,2021-12-17 16:42:54.812500
1916,-11.01,2021-12-17 16:42:54.828125
1917,-15.96,2021-12-17 16:42:54.843750
1918,-20.99,2021-12-17 16:42:54.859375
1919,-25.87,2021-12-17 16:42:54.875000
1920,-30.47,2021-12-17 16:42:54.890625
1921,-34.79,2021-12-17 16:42:54.906250
1922,-38.86,2021-12-17 16:42:54.921875
1923,-42.67,2021-12-17 16:42:54.937500
1924,-46.22,2021-12-17 16:42:54.953125
1925,-49.53,2021-12-17 16:42:54.968750
1926,-52.56,2021-12-17 16:42:54.984375
1927,-55.3,2021-12-17 16:42:55.000000
1928,-57.68,2021-12-17 16:42:55.015625
1929,-59.53,2021-12-17 16:42:55.031250
1930,-60.63,2021-12-17 16:42:55.046875
1931,-60.79,2021-12-17 16:42:55.062500
1932,-59.91,2021-12-17 16:42:55.078125
1933,-58.09,2021-12-17 16:42:55.093750
1934,-55.66,2021-12-17 16:42:55.109375
1935,-52.96,2021-12-17 16:42:55.125000
1936,-50.29,2021-12-17 16:42:55.140625
1937,-47.75,2021-12-17 16:42:55.156250
1938,-45.28,2021-12-17 16:42:55.171875
1939,-42.81,2021-12-17 16:42:55.187500
1940,-40.27,2021-12-17 16:42:55.203125
1941,-37.76,2021-12-17 16:42:55.218750
1942,-35.34,2021-12-17 16:42:55.234375
1943,-32.95,2021-12-17 16:42:55.250000
1944,-30.28,2021-12-17 16:42:55.265625
1945,-26.78,2021-12-17 16:42:55.281250
1946,-21.99,2021-12-17 16:42:55.296875
1947,-15.72,2021-12-17 16:42:55.312500
1948,-8.22,2021-12-17 16:42:55.328125
1949,-0.12,2021-12-17 16:42:55.343750
1950,7.84,2021-12-17 16:42:55.359375
1951,15.13,2021-12-17 16:42:55.375000
1952,21.6,2021-12-17 16:42:55.390625
1953,27.39,2021-12-17 16:42:55.406250
1954,32.73,2021-12-17 16:42:55.421875
1955,37.73,2021-12-17 16:42:55.437500
1956,42.26,2021-12-17 16:42:55.453125
1957,46.0,2021-12-17 16:42:55.468750
1958,48.69,2021-12-17 16:42:55.484375
1959,50.23,2021-12-17 16:42:55.500000
1960,50.76,2021-12-17 16:42:55.515625
1961,50.5,2021-12-17 16:42:55.531250
1962,49.58,2021-12-17 16:42:55.546875
1963,47.94,2021-12-17 16:42:55.562500
1964,45.35,2021-12-17 16:42:55.578125
1965,41.58,2021-12-17 16:42:55.593750
1966,36.61,2021-12-17 16:42:55.609375
1967,30.74,2021-12-17 16:42:55.625000
1968,24.53,2021-12-17 16:42:55.640625
1969,18.71,2021-12-17 16:42:55.656250
1970,13.93,2021-12-17 16:42:55.671875
1971,10.62,2021-12-17 16:42:55.687500
1972,8.94,2021-12-17 16:42:55.703125
1973,8.77,2021-12-17 16:42:55.718750
1974,9.74,2021-12-17 16:42:55.734375
1975,11.24,2021-12-17 16:42:55.750000
1976,12.61,2021-12-17 16:42:55.765625
1977,13.24,2021-12-17 16:42:55.781250
1978,12.78,2021-12-17 16:42:55.796875
1979,11.14,2021-12-17 16:42:55.812500
1980,8.47,2021-12-17 16:42:55.828125
1981,4.98,2021-12-17 16:42:55.843750
1982,0.84,2021-12-17 16:42:55.859375
1983,-3.89,2021-12-17 16:42:55.875000
1984,-9.16,2021-12-17 16:42:55.890625
1985,-14.88,2021-12-17 16:42:55.906250
1986,-20.78,2021-12-17 16:42:55.921875
1987,-26.44,2021-12-17 16:42:55.937500
1988,-31.26,2021-12-17 16:42:55.953125
1989,-34.66,2021-12-17 16:42:55.968750
1990,-36.12,2021-12-17 16:42:55.984375
1991,-35.36,2021-12-17 16:42:56.000000
1992,-32.41,2021-12-17 16:42:56.015625
1993,-27.66,2021-12-17 16:42:56.031250
1994,-21.81,2021-12-17 16:42:56.046875
1995,-15.67,2021-12-17 16:42:56.062500
1996,-9.96,2021-12-17 16:42:56.078125
1997,-5.09,2021-12-17 16:42:56.093750
1998,-1.12,2021-12-17 16:42:56.109375
1999,2.15,2021-12-17 16:42:56.125000
2000,4.95,2021-12-17 16:42:56.140625
2001,7.45,2021-12-17 16:42:56.156250
2002,9.58,2021-12-17 16:42:56.171875
2003,11.22,2021-12-17 16:42:56.187500
2004,12.25,2021-12-17 16:42:56.203125
2005,12.75,2021-12-17 16:42:56.218750
2006,13.01,2021-12-17 16:42:56.234375
2007,13.45,2021-12-17 16:42:56.250000
2008,14.43,2021-12-17 16:42:56.265625
2009,16.12,2021-12-17 16:42:56.281250
2010,18.45,2021-12-17 16:42:56.296875
2011,21.18,2021-12-17 16:42:56.312500
2012,24.09,2021-12-17 16:42:56.328125
2013,27.17,2021-12-17 16:42:56.343750
2014,30.57,2021-12-17 16:42:56.359375
2015,34.6,2021-12-17 16:42:56.375000
2016,39.43,2021-12-17 16:42:56.390625
2017,45.01,2021-12-17 16:42:56.406250
2018,50.97,2021-12-17 16:42:56.421875
2019,56.7,2021-12-17 16:42:56.437500
2020,61.53,2021-12-17 16:42:56.453125
2021,64.94,2021-12-17 16:42:56.468750
2022,66.75,2021-12-17 16:42:56.484375
2023,67.13,2021-12-17 16:42:56.500000
2024,66.59,2021-12-17 16:42:56.515625
2025,65.77,2021-12-17 16:42:56.531250
2026,65.16,2021-12-17 16:42:56.546875
2027,64.99,2021-12-17 16:42:56.562500
2028,65.06,2021-12-17 16:42:56.578125
2029,64.81,2021-12-17 16:42:56.593750
2030,63.39,2021-12-17 16:42:56.609375
2031,59.89,2021-12-17 16:42:56.625000
2032,53.54,2021-12-17 16:42:56.640625
2033,44.0,2021-12-17 16:42:56.656250
2034,31.56,2021-12-17 16:42:56.671875
2035,17.25,2021-12-17 16:42:56.687500
2036,2.58,2021-12-17 16:42:56.703125
2037,-10.8,2021-12-17 16:42:56.718750
2038,-21.7,2021-12-17 16:42:56.734375
2039,-29.77,2021-12-17 16:42:56.750000
2040,-35.62,2021-12-17 16:42:56.765625
2041,-40.46,2021-12-17 16:42:56.781250
2042,-45.48,2021-12-17 16:42:56.796875
2043,-51.37,2021-12-17 16:42:56.812500
2044,-58.09,2021-12-17 16:42:56.828125
2045,-65.02,2021-12-17 16:42:56.843750
2046,-71.33,2021-12-17 16:42:56.859375
2047,-76.42,2021-12-17 16:42:56.875000
2048,-79.93,2021-12-17 16:42:56.890625
2049,-81.69,2021-12-17 16:42:56.906250
2050,-81.55,2021-12-17 16:42:56.921875
2051,-79.39,2021-12-17 16:42:56.937500
2052,-75.18,2021-12-17 16:42:56.953125
2053,-69.23,2021-12-17 16:42:56.968750
2054,-62.2,2021-12-17 16:42:56.984375
2055,-55.02,2021-12-17 16:42:57.000000
2056,-48.51,2021-12-17 16:42:57.015625
2057,-43.23,2021-12-17 16:42:57.031250
2058,-39.31,2021-12-17 16:42:57.046875
2059,-36.65,2021-12-17 16:42:57.062500
2060,-35.1,2021-12-17 16:42:57.078125
2061,-34.57,2021-12-17 16:42:57.093750
2062,-35.08,2021-12-17 16:42:57.109375
2063,-36.62,2021-12-17 16:42:57.125000
2064,-39.05,2021-12-17 16:42:57.140625
2065,-42.14,2021-12-17 16:42:57.156250
2066,-45.54,2021-12-17 16:42:57.171875
2067,-48.82,2021-12-17 16:42:57.187500
2068,-51.53,2021-12-17 16:42:57.203125
2069,-53.26,2021-12-17 16:42:57.218750
2070,-53.78,2021-12-17 16:42:57.234375
2071,-53.28,2021-12-17 16:42:57.250000
2072,-52.42,2021-12-17 16:42:57.265625
2073,-52.15,2021-12-17 16:42:57.281250
2074,-53.35,2021-12-17 16:42:57.296875
2075,-56.35,2021-12-17 16:42:57.312500
2076,-60.72,2021-12-17 16:42:57.328125
2077,-65.43,2021-12-17 16:42:57.343750
2078,-69.26,2021-12-17 16:42:57.359375
2079,-71.3,2021-12-17 16:42:57.375000
2080,-71.21,2021-12-17 16:42:57.390625
2081,-69.16,2021-12-17 16:42:57.406250
2082,-65.55,2021-12-17 16:42:57.421875
2083,-60.85,2021-12-17 16:42:57.437500
2084,-55.47,2021-12-17 16:42:57.453125
2085,-49.81,2021-12-17 16:42:57.468750
2086,-44.33,2021-12-17 16:42:57.484375
2087,-39.51,2021-12-17 16:42:57.500000
2088,-35.71,2021-12-17 16:42:57.515625
2089,-32.89,2021-12-17 16:42:57.531250
2090,-30.72,2021-12-17 16:42:57.546875
2091,-28.61,2021-12-17 16:42:57.562500
2092,-26.04,2021-12-17 16:42:57.578125
2093,-22.62,2021-12-17 16:42:57.593750
2094,-18.16,2021-12-17 16:42:57.609375
2095,-12.57,2021-12-17 16:42:57.625000
2096,-5.7,2021-12-17 16:42:57.640625
2097,2.65,2021-12-17 16:42:57.656250
2098,12.68,2021-12-17 16:42:57.671875
2099,24.37,2021-12-17 16:42:57.687500
2100,37.44,2021-12-17 16:42:57.703125
2101,51.32,2021-12-17 16:42:57.718750
2102,65.31,2021-12-17 16:42:57.734375
2103,78.66,2021-12-17 16:42:57.750000
2104,90.73,2021-12-17 16:42:57.765625
2105,101.07,2021-12-17 16:42:57.781250
2106,109.44,2021-12-17 16:42:57.796875
2107,115.77,2021-12-17 16:42:57.812500
2108,120.2,2021-12-17 16:42:57.828125
2109,122.87,2021-12-17 16:42:57.843750
2110,123.91,2021-12-17 16:42:57.859375
2111,123.39,2021-12-17 16:42:57.875000
2112,121.27,2021-12-17 16:42:57.890625
2113,117.64,2021-12-17 16:42:57.906250
2114,112.76,2021-12-17 16:42:57.921875
2115,107.08,2021-12-17 16:42:57.937500
2116,101.16,2021-12-17 16:42:57.953125
2117,95.38,2021-12-17 16:42:57.968750
2118,89.85,2021-12-17 16:42:57.984375
2119,84.42,2021-12-17 16:42:58.000000
2120,78.87,2021-12-17 16:42:58.015625
2121,73.07,2021-12-17 16:42:58.031250
2122,67.11,2021-12-17 16:42:58.046875
2123,61.19,2021-12-17 16:42:58.062500
2124,55.34,2021-12-17 16:42:58.078125
2125,49.43,2021-12-17 16:42:58.093750
2126,43.14,2021-12-17 16:42:58.109375
2127,36.25,2021-12-17 16:42:58.125000
2128,28.81,2021-12-17 16:42:58.140625
2129,21.2,2021-12-17 16:42:58.156250
2130,13.95,2021-12-17 16:42:58.171875
2131,7.46,2021-12-17 16:42:58.187500
2132,1.8,2021-12-17 16:42:58.203125
2133,-3.32,2021-12-17 16:42:58.218750
2134,-8.27,2021-12-17 16:42:58.234375
2135,-13.23,2021-12-17 16:42:58.250000
2136,-17.92,2021-12-17 16:42:58.265625
2137,-21.71,2021-12-17 16:42:58.281250
2138,-23.89,2021-12-17 16:42:58.296875
2139,-24.1,2021-12-17 16:42:58.312500
2140,-22.51,2021-12-17 16:42:58.328125
2141,-19.8,2021-12-17 16:42:58.343750
2142,-16.8,2021-12-17 16:42:58.359375
2143,-14.13,2021-12-17 16:42:58.375000
2144,-11.97,2021-12-17 16:42:58.390625
2145,-10.19,2021-12-17 16:42:58.406250
2146,-8.61,2021-12-17 16:42:58.421875
2147,-7.3,2021-12-17 16:42:58.437500
2148,-6.62,2021-12-17 16:42:58.453125
2149,-7.02,2021-12-17 16:42:58.468750
2150,-8.75,2021-12-17 16:42:58.484375
2151,-11.6,2021-12-17 16:42:58.500000
2152,-14.97,2021-12-17 16:42:58.515625
2153,-18.19,2021-12-17 16:42:58.531250
2154,-20.81,2021-12-17 16:42:58.546875
2155,-22.75,2021-12-17 16:42:58.562500
2156,-24.34,2021-12-17 16:42:58.578125
2157,-26.0,2021-12-17 16:42:58.593750
2158,-28.03,2021-12-17 16:42:58.609375
2159,-30.51,2021-12-17 16:42:58.625000
2160,-33.3,2021-12-17 16:42:58.640625
2161,-36.2,2021-12-17 16:42:58.656250
2162,-38.96,2021-12-17 16:42:58.671875
2163,-41.32,2021-12-17 16:42:58.687500
2164,-42.89,2021-12-17 16:42:58.703125
2165,-43.13,2021-12-17 16:42:58.718750
2166,-41.53,2021-12-17 16:42:58.734375
2167,-37.84,2021-12-17 16:42:58.750000
2168,-32.35,2021-12-17 16:42:58.765625
2169,-25.82,2021-12-17 16:42:58.781250
2170,-19.31,2021-12-17 16:42:58.796875
2171,-13.71,2021-12-17 16:42:58.812500
2172,-9.33,2021-12-17 16:42:58.828125
2173,-5.93,2021-12-17 16:42:58.843750
2174,-2.84,2021-12-17 16:42:58.859375
2175,0.54,2021-12-17 16:42:58.875000
2176,4.46,2021-12-17 16:42:58.890625
2177,8.7,2021-12-17 16:42:58.906250
2178,12.75,2021-12-17 16:42:58.921875
2179,16.07,2021-12-17 16:42:58.937500
2180,18.33,2021-12-17 16:42:58.953125
2181,19.45,2021-12-17 16:42:58.968750
2182,19.52,2021-12-17 16:42:58.984375
2183,18.76,2021-12-17 16:42:59.000000
2184,17.41,2021-12-17 16:42:59.015625
2185,15.85,2021-12-17 16:42:59.031250
2186,14.53,2021-12-17 16:42:59.046875
2187,13.95,2021-12-17 16:42:59.062500
2188,14.48,2021-12-17 16:42:59.078125
2189,16.19,2021-12-17 16:42:59.093750
2190,18.71,2021-12-17 16:42:59.109375
2191,21.25,2021-12-17 16:42:59.125000
2192,22.87,2021-12-17 16:42:59.140625
2193,22.77,2021-12-17 16:42:59.156250
2194,20.62,2021-12-17 16:42:59.171875
2195,16.66,2021-12-17 16:42:59.187500
2196,11.58,2021-12-17 16:42:59.203125
2197,6.21,2021-12-17 16:42:59.218750
2198,1.22,2021-12-17 16:42:59.234375
2199,-3.02,2021-12-17 16:42:59.250000
2200,-6.52,2021-12-17 16:42:59.265625
2201,-9.51,2021-12-17 16:42:59.281250
2202,-12.26,2021-12-17 16:42:59.296875
2203,-15.12,2021-12-17 16:42:59.312500
2204,-18.47,2021-12-17 16:42:59.328125
2205,-22.62,2021-12-17 16:42:59.343750
2206,-27.79,2021-12-17 16:42:59.359375
2207,-33.84,2021-12-17 16:42:59.375000
2208,-40.14,2021-12-17 16:42:59.390625
2209,-45.63,2021-12-17 16:42:59.406250
2210,-49.12,2021-12-17 16:42:59.421875
2211,-49.71,2021-12-17 16:42:59.437500
2212,-47.11,2021-12-17 16:42:59.453125
2213,-41.75,2021-12-17 16:42:59.468750
2214,-34.64,2021-12-17 16:42:59.484375
2215,-26.94,2021-12-17 16:42:59.500000
2216,-19.66,2021-12-17 16:42:59.515625
2217,-13.41,2021-12-17 16:42:59.531250
2218,-8.38,2021-12-17 16:42:59.546875
2219,-4.53,2021-12-17 16:42:59.562500
2220,-1.69,2021-12-17 16:42:59.578125
2221,0.25,2021-12-17 16:42:59.593750
2222,1.45,2021-12-17 16:42:59.609375
2223,2.12,2021-12-17 16:42:59.625000
2224,2.52,2021-12-17 16:42:59.640625
2225,2.94,2021-12-17 16:42:59.656250
2226,3.57,2021-12-17 16:42:59.671875
2227,4.48,2021-12-17 16:42:59.687500
2228,5.6,2021-12-17 16:42:59.703125
2229,6.83,2021-12-17 16:42:59.718750
2230,8.13,2021-12-17 16:42:59.734375
2231,9.6,2021-12-17 16:42:59.750000
2232,11.31,2021-12-17 16:42:59.765625
2233,13.21,2021-12-17 16:42:59.781250
2234,15.04,2021-12-17 16:42:59.796875
2235,16.39,2021-12-17 16:42:59.812500
2236,16.9,2021-12-17 16:42:59.828125
2237,16.45,2021-12-17 16:42:59.843750
2238,15.3,2021-12-17 16:42:59.859375
2239,13.94,2021-12-17 16:42:59.875000
2240,12.76,2021-12-17 16:42:59.890625
2241,11.82,2021-12-17 16:42:59.906250
2242,10.65,2021-12-17 16:42:59.921875
2243,8.32,2021-12-17 16:42:59.937500
2244,3.77,2021-12-17 16:42:59.953125
2245,-3.84,2021-12-17 16:42:59.968750
2246,-14.8,2021-12-17 16:42:59.984375
2247,-28.72,2021-12-17 16:43:00.000000
2248,-44.61,2021-12-17 16:43:00.015625
2249,-61.16,2021-12-17 16:43:00.031250
2250,-76.95,2021-12-17 16:43:00.046875
2251,-90.71,2021-12-17 16:43:00.062500
2252,-101.37,2021-12-17 16:43:00.078125
2253,-108.05,2021-12-17 16:43:00.093750
2254,-110.1,2021-12-17 16:43:00.109375
2255,-107.17,2021-12-17 16:43:00.125000
2256,-99.37,2021-12-17 16:43:00.140625
2257,-87.27,2021-12-17 16:43:00.156250
2258,-71.86,2021-12-17 16:43:00.171875
2259,-54.22,2021-12-17 16:43:00.187500
2260,-35.24,2021-12-17 16:43:00.203125
2261,-15.47,2021-12-17 16:43:00.218750
2262,4.74,2021-12-17 16:43:00.234375
2263,24.95,2021-12-17 16:43:00.250000
2264,44.29,2021-12-17 16:43:00.265625
2265,61.44,2021-12-17 16:43:00.281250
2266,75.03,2021-12-17 16:43:00.296875
2267,84.15,2021-12-17 16:43:00.312500
2268,88.77,2021-12-17 16:43:00.328125
2269,89.75,2021-12-17 16:43:00.343750
2270,88.49,2021-12-17 16:43:00.359375
2271,86.27,2021-12-17 16:43:00.375000
2272,83.83,2021-12-17 16:43:00.390625
2273,81.27,2021-12-17 16:43:00.406250
2274,78.3,2021-12-17 16:43:00.421875
2275,74.59,2021-12-17 16:43:00.437500
2276,70.19,2021-12-17 16:43:00.453125
2277,65.45,2021-12-17 16:43:00.468750
2278,60.85,2021-12-17 16:43:00.484375
2279,56.62,2021-12-17 16:43:00.500000
2280,52.54,2021-12-17 16:43:00.515625
2281,48.0,2021-12-17 16:43:00.531250
2282,42.24,2021-12-17 16:43:00.546875
2283,34.82,2021-12-17 16:43:00.562500
2284,25.79,2021-12-17 16:43:00.578125
2285,15.78,2021-12-17 16:43:00.593750
2286,5.76,2021-12-17 16:43:00.609375
2287,-3.35,2021-12-17 16:43:00.625000
2288,-11.06,2021-12-17 16:43:00.640625
2289,-17.47,2021-12-17 16:43:00.656250
2290,-23.21,2021-12-17 16:43:00.671875
2291,-29.15,2021-12-17 16:43:00.687500
2292,-36.03,2021-12-17 16:43:00.703125
2293,-44.15,2021-12-17 16:43:00.718750
2294,-53.35,2021-12-17 16:43:00.734375
2295,-62.98,2021-12-17 16:43:00.750000
2296,-72.2,2021-12-17 16:43:00.765625
2297,-80.1,2021-12-17 16:43:00.781250
2298,-85.85,2021-12-17 16:43:00.796875
2299,-88.82,2021-12-17 16:43:00.812500
2300,-88.61,2021-12-17 16:43:00.828125
2301,-85.15,2021-12-17 16:43:00.843750
2302,-78.77,2021-12-17 16:43:00.859375
2303,-70.14,2021-12-17 16:43:00.875000
2304,-60.14,2021-12-17 16:43:00.890625
2305,-49.57,2021-12-17 16:43:00.906250
2306,-38.95,2021-12-17 16:43:00.921875
2307,-28.4,2021-12-17 16:43:00.937500
2308,-17.77,2021-12-17 16:43:00.953125
2309,-6.95,2021-12-17 16:43:00.968750
2310,3.89,2021-12-17 16:43:00.984375
2311,14.2,2021-12-17 16:43:01.000000
2312,23.17,2021-12-17 16:43:01.015625
2313,30.05,2021-12-17 16:43:01.031250
2314,34.37,2021-12-17 16:43:01.046875
2315,36.05,2021-12-17 16:43:01.062500
2316,35.4,2021-12-17 16:43:01.078125
2317,32.92,2021-12-17 16:43:01.093750
2318,29.27,2021-12-17 16:43:01.109375
2319,25.05,2021-12-17 16:43:01.125000
2320,20.89,2021-12-17 16:43:01.140625
2321,17.26,2021-12-17 16:43:01.156250
2322,14.51,2021-12-17 16:43:01.171875
2323,12.77,2021-12-17 16:43:01.187500
2324,11.92,2021-12-17 16:43:01.203125
2325,11.71,2021-12-17 16:43:01.218750
2326,11.78,2021-12-17 16:43:01.234375
2327,11.89,2021-12-17 16:43:01.250000
2328,11.91,2021-12-17 16:43:01.265625
2329,11.88,2021-12-17 16:43:01.281250
2330,11.99,2021-12-17 16:43:01.296875
2331,12.45,2021-12-17 16:43:01.312500
2332,13.48,2021-12-17 16:43:01.328125
2333,15.08,2021-12-17 16:43:01.343750
2334,17.05,2021-12-17 16:43:01.359375
2335,18.94,2021-12-17 16:43:01.375000
2336,20.12,2021-12-17 16:43:01.390625
2337,19.95,2021-12-17 16:43:01.406250
2338,17.91,2021-12-17 16:43:01.421875
2339,13.79,2021-12-17 16:43:01.437500
2340,7.87,2021-12-17 16:43:01.453125
2341,0.92,2021-12-17 16:43:01.468750
2342,-5.87,2021-12-17 16:43:01.484375
2343,-11.18,2021-12-17 16:43:01.500000
2344,-14.01,2021-12-17 16:43:01.515625
2345,-13.92,2021-12-17 16:43:01.531250
2346,-11.26,2021-12-17 16:43:01.546875
2347,-6.99,2021-12-17 16:43:01.562500
2348,-2.26,2021-12-17 16:43:01.578125
2349,2.02,2021-12-17 16:43:01.593750
2350,5.5,2021-12-17 16:43:01.609375
2351,8.29,2021-12-17 16:43:01.625000
2352,10.78,2021-12-17 16:43:01.640625
2353,13.21,2021-12-17 16:43:01.656250
2354,15.47,2021-12-17 16:43:01.671875
2355,17.23,2021-12-17 16:43:01.687500
2356,18.06,2021-12-17 16:43:01.703125
2357,17.8,2021-12-17 16:43:01.718750
2358,16.63,2021-12-17 16:43:01.734375
2359,15.03,2021-12-17 16:43:01.750000
2360,13.52,2021-12-17 16:43:01.765625
2361,12.42,2021-12-17 16:43:01.781250
2362,11.77,2021-12-17 16:43:01.796875
2363,11.3,2021-12-17 16:43:01.812500
2364,10.7,2021-12-17 16:43:01.828125
2365,9.74,2021-12-17 16:43:01.843750
2366,8.33,2021-12-17 16:43:01.859375
2367,6.54,2021-12-17 16:43:01.875000
2368,4.47,2021-12-17 16:43:01.890625
2369,2.11,2021-12-17 16:43:01.906250
2370,-0.68,2021-12-17 16:43:01.921875
2371,-4.11,2021-12-17 16:43:01.937500
2372,-8.36,2021-12-17 16:43:01.953125
2373,-13.44,2021-12-17 16:43:01.968750
2374,-19.15,2021-12-17 16:43:01.984375
2375,-25.19,2021-12-17 16:43:02.000000
2376,-31.24,2021-12-17 16:43:02.015625
2377,-37.05,2021-12-17 16:43:02.031250
2378,-42.57,2021-12-17 16:43:02.046875
2379,-47.92,2021-12-17 16:43:02.062500
2380,-53.31,2021-12-17 16:43:02.078125
2381,-58.95,2021-12-17 16:43:02.093750
2382,-64.94,2021-12-17 16:43:02.109375
2383,-71.09,2021-12-17 16:43:02.125000
2384,-76.96,2021-12-17 16:43:02.140625
2385,-81.8,2021-12-17 16:43:02.156250
2386,-84.68,2021-12-17 16:43:02.171875
2387,-84.67,2021-12-17 16:43:02.187500
2388,-81.1,2021-12-17 16:43:02.203125
2389,-73.7,2021-12-17 16:43:02.218750
2390,-62.74,2021-12-17 16:43:02.234375
2391,-49.01,2021-12-17 16:43:02.250000
2392,-33.6,2021-12-17 16:43:02.265625
2393,-17.74,2021-12-17 16:43:02.281250
2394,-2.49,2021-12-17 16:43:02.296875
2395,11.34,2021-12-17 16:43:02.312500
2396,23.22,2021-12-17 16:43:02.328125
2397,32.85,2021-12-17 16:43:02.343750
2398,40.08,2021-12-17 16:43:02.359375
2399,44.88,2021-12-17 16:43:02.375000
2400,47.49,2021-12-17 16:43:02.390625
2401,48.5,2021-12-17 16:43:02.406250
2402,48.7,2021-12-17 16:43:02.421875
2403,48.89,2021-12-17 16:43:02.437500
2404,49.6,2021-12-17 16:43:02.453125
2405,50.85,2021-12-17 16:43:02.468750
2406,52.18,2021-12-17 16:43:02.484375
2407,53.03,2021-12-17 16:43:02.500000
2408,53.06,2021-12-17 16:43:02.515625
2409,52.46,2021-12-17 16:43:02.531250
2410,51.8,2021-12-17 16:43:02.546875
2411,51.72,2021-12-17 16:43:02.562500
2412,52.57,2021-12-17 16:43:02.578125
2413,54.1,2021-12-17 16:43:02.593750
2414,55.63,2021-12-17 16:43:02.609375
2415,56.38,2021-12-17 16:43:02.625000
2416,55.9,2021-12-17 16:43:02.640625
2417,54.24,2021-12-17 16:43:02.656250
2418,51.86,2021-12-17 16:43:02.671875
2419,49.38,2021-12-17 16:43:02.687500
2420,47.18,2021-12-17 16:43:02.703125
2421,45.18,2021-12-17 16:43:02.718750
2422,42.92,2021-12-17 16:43:02.734375
2423,39.68,2021-12-17 16:43:02.750000
2424,34.88,2021-12-17 16:43:02.765625
2425,28.3,2021-12-17 16:43:02.781250
2426,20.15,2021-12-17 16:43:02.796875
2427,11.04,2021-12-17 16:43:02.812500
2428,1.87,2021-12-17 16:43:02.828125
2429,-6.41,2021-12-17 16:43:02.843750
2430,-12.97,2021-12-17 16:43:02.859375
2431,-17.23,2021-12-17 16:43:02.875000
2432,-18.98,2021-12-17 16:43:02.890625
2433,-18.44,2021-12-17 16:43:02.906250
2434,-16.07,2021-12-17 16:43:02.921875
2435,-12.53,2021-12-17 16:43:02.937500
2436,-8.45,2021-12-17 16:43:02.953125
2437,-4.3,2021-12-17 16:43:02.968750
2438,-0.43,2021-12-17 16:43:02.984375
2439,3.0,2021-12-17 16:43:03.000000
2440,5.87,2021-12-17 16:43:03.015625
2441,8.19,2021-12-17 16:43:03.031250
2442,9.99,2021-12-17 16:43:03.046875
2443,11.43,2021-12-17 16:43:03.062500
2444,12.75,2021-12-17 16:43:03.078125
2445,14.2,2021-12-17 16:43:03.093750
2446,15.93,2021-12-17 16:43:03.109375
2447,17.96,2021-12-17 16:43:03.125000
2448,20.17,2021-12-17 16:43:03.140625
2449,22.29,2021-12-17 16:43:03.156250
2450,24.05,2021-12-17 16:43:03.171875
2451,25.27,2021-12-17 16:43:03.187500
2452,25.95,2021-12-17 16:43:03.203125
2453,26.24,2021-12-17 16:43:03.218750
2454,26.39,2021-12-17 16:43:03.234375
2455,26.59,2021-12-17 16:43:03.250000
2456,26.85,2021-12-17 16:43:03.265625
2457,27.03,2021-12-17 16:43:03.281250
2458,26.78,2021-12-17 16:43:03.296875
2459,25.79,2021-12-17 16:43:03.312500
2460,23.83,2021-12-17 16:43:03.328125
2461,20.94,2021-12-17 16:43:03.343750
2462,17.35,2021-12-17 16:43:03.359375
2463,13.44,2021-12-17 16:43:03.375000
2464,9.55,2021-12-17 16:43:03.390625
2465,5.87,2021-12-17 16:43:03.406250
2466,2.32,2021-12-17 16:43:03.421875
2467,-1.37,2021-12-17 16:43:03.437500
2468,-5.58,2021-12-17 16:43:03.453125
2469,-10.61,2021-12-17 16:43:03.468750
2470,-16.48,2021-12-17 16:43:03.484375
2471,-22.94,2021-12-17 16:43:03.500000
2472,-29.46,2021-12-17 16:43:03.515625
2473,-35.36,2021-12-17 16:43:03.531250
2474,-39.97,2021-12-17 16:43:03.546875
2475,-42.67,2021-12-17 16:43:03.562500
2476,-43.04,2021-12-17 16:43:03.578125
2477,-40.98,2021-12-17 16:43:03.593750
2478,-36.71,2021-12-17 16:43:03.609375
2479,-30.8,2021-12-17 16:43:03.625000
2480,-24.01,2021-12-17 16:43:03.640625
2481,-17.02,2021-12-17 16:43:03.656250
2482,-10.32,2021-12-17 16:43:03.671875
2483,-4.11,2021-12-17 16:43:03.687500
2484,1.61,2021-12-17 16:43:03.703125
2485,6.83,2021-12-17 16:43:03.718750
2486,11.44,2021-12-17 16:43:03.734375
2487,15.19,2021-12-17 16:43:03.750000
2488,17.79,2021-12-17 16:43:03.765625
2489,19.1,2021-12-17 16:43:03.781250
2490,19.18,2021-12-17 16:43:03.796875
2491,18.35,2021-12-17 16:43:03.812500
2492,17.06,2021-12-17 16:43:03.828125
2493,15.75,2021-12-17 16:43:03.843750
2494,14.76,2021-12-17 16:43:03.859375
2495,14.25,2021-12-17 16:43:03.875000
2496,14.17,2021-12-17 16:43:03.890625
2497,14.29,2021-12-17 16:43:03.906250
2498,14.34,2021-12-17 16:43:03.921875
2499,14.07,2021-12-17 16:43:03.937500
2500,13.45,2021-12-17 16:43:03.953125
2501,12.59,2021-12-17 16:43:03.968750
2502,11.73,2021-12-17 16:43:03.984375
2503,10.98,2021-12-17 16:43:04.000000
2504,10.24,2021-12-17 16:43:04.015625
2505,9.23,2021-12-17 16:43:04.031250
2506,7.67,2021-12-17 16:43:04.046875
2507,5.38,2021-12-17 16:43:04.062500
2508,2.49,2021-12-17 16:43:04.078125
2509,-0.7,2021-12-17 16:43:04.093750
2510,-3.84,2021-12-17 16:43:04.109375
2511,-6.72,2021-12-17 16:43:04.125000
2512,-9.39,2021-12-17 16:43:04.140625
2513,-12.06,2021-12-17 16:43:04.156250
2514,-15.02,2021-12-17 16:43:04.171875
2515,-18.39,2021-12-17 16:43:04.187500
2516,-22.19,2021-12-17 16:43:04.203125
2517,-26.33,2021-12-17 16:43:04.218750
2518,-30.68,2021-12-17 16:43:04.234375
2519,-35.11,2021-12-17 16:43:04.250000
2520,-39.4,2021-12-17 16:43:04.265625
2521,-43.09,2021-12-17 16:43:04.281250
2522,-45.53,2021-12-17 16:43:04.296875
2523,-46.07,2021-12-17 16:43:04.312500
2524,-44.22,2021-12-17 16:43:04.328125
2525,-40.03,2021-12-17 16:43:04.343750
2526,-34.0,2021-12-17 16:43:04.359375
2527,-27.02,2021-12-17 16:43:04.375000
2528,-19.99,2021-12-17 16:43:04.390625
2529,-13.52,2021-12-17 16:43:04.406250
2530,-7.76,2021-12-17 16:43:04.421875
2531,-2.55,2021-12-17 16:43:04.437500
2532,2.37,2021-12-17 16:43:04.453125
2533,7.06,2021-12-17 16:43:04.468750
2534,11.34,2021-12-17 16:43:04.484375
2535,14.84,2021-12-17 16:43:04.500000
2536,17.28,2021-12-17 16:43:04.515625
2537,18.65,2021-12-17 16:43:04.531250
2538,19.25,2021-12-17 16:43:04.546875
2539,19.58,2021-12-17 16:43:04.562500
2540,20.04,2021-12-17 16:43:04.578125
2541,20.7,2021-12-17 16:43:04.593750
2542,21.35,2021-12-17 16:43:04.609375
2543,21.5,2021-12-17 16:43:04.625000
2544,20.81,2021-12-17 16:43:04.640625
2545,19.25,2021-12-17 16:43:04.656250
2546,17.16,2021-12-17 16:43:04.671875
2547,15.07,2021-12-17 16:43:04.687500
2548,13.47,2021-12-17 16:43:04.703125
2549,12.6,2021-12-17 16:43:04.718750
2550,12.37,2021-12-17 16:43:04.734375
2551,12.43,2021-12-17 16:43:04.750000
2552,12.28,2021-12-17 16:43:04.765625
2553,11.55,2021-12-17 16:43:04.781250
2554,10.0,2021-12-17 16:43:04.796875
2555,7.56,2021-12-17 16:43:04.812500
2556,4.36,2021-12-17 16:43:04.828125
2557,0.64,2021-12-17 16:43:04.843750
2558,-3.31,2021-12-17 16:43:04.859375
2559,-7.19,2021-12-17 16:43:04.875000
2560,-10.88,2021-12-17 16:43:04.890625
2561,-14.45,2021-12-17 16:43:04.906250
2562,-18.21,2021-12-17 16:43:04.921875
2563,-22.55,2021-12-17 16:43:04.937500
2564,-27.78,2021-12-17 16:43:04.953125
2565,-33.93,2021-12-17 16:43:04.968750
2566,-40.61,2021-12-17 16:43:04.984375
2567,-47.11,2021-12-17 16:43:05.000000
2568,-52.56,2021-12-17 16:43:05.015625
2569,-56.26,2021-12-17 16:43:05.031250
2570,-57.93,2021-12-17 16:43:05.046875
2571,-57.87,2021-12-17 16:43:05.062500
2572,-56.95,2021-12-17 16:43:05.078125
2573,-56.41,2021-12-17 16:43:05.093750
2574,-57.5,2021-12-17 16:43:05.109375
2575,-61.12,2021-12-17 16:43:05.125000
2576,-67.29,2021-12-17 16:43:05.140625
2577,-74.9,2021-12-17 16:43:05.156250
2578,-81.55,2021-12-17 16:43:05.171875
2579,-83.94,2021-12-17 16:43:05.187500
2580,-78.63,2021-12-17 16:43:05.203125
2581,-63.09,2021-12-17 16:43:05.218750
2582,-36.67,2021-12-17 16:43:05.234375
2583,-1.15,2021-12-17 16:43:05.250000
2584,39.35,2021-12-17 16:43:05.265625
2585,79.3,2021-12-17 16:43:05.281250
2586,113.12,2021-12-17 16:43:05.296875
2587,136.64,2021-12-17 16:43:05.312500
2588,148.11,2021-12-17 16:43:05.328125
2589,148.5,2021-12-17 16:43:05.343750
2590,141.01,2021-12-17 16:43:05.359375
2591,130.0,2021-12-17 16:43:05.375000
2592,119.73,2021-12-17 16:43:05.390625
2593,113.2,2021-12-17 16:43:05.406250
2594,111.45,2021-12-17 16:43:05.421875
2595,113.52,2021-12-17 16:43:05.437500
2596,116.76,2021-12-17 16:43:05.453125
2597,117.65,2021-12-17 16:43:05.468750
2598,112.75,2021-12-17 16:43:05.484375
2599,99.62,2021-12-17 16:43:05.500000
2600,77.61,2021-12-17 16:43:05.515625
2601,48.21,2021-12-17 16:43:05.531250
2602,14.82,2021-12-17 16:43:05.546875
2603,-18.1,2021-12-17 16:43:05.562500
2604,-46.27,2021-12-17 16:43:05.578125
2605,-66.74,2021-12-17 16:43:05.593750
2606,-78.66,2021-12-17 16:43:05.609375
2607,-83.13,2021-12-17 16:43:05.625000
2608,-82.49,2021-12-17 16:43:05.640625
2609,-79.31,2021-12-17 16:43:05.656250
2610,-75.56,2021-12-17 16:43:05.671875
2611,-72.27,2021-12-17 16:43:05.687500
2612,-69.8,2021-12-17 16:43:05.703125
2613,-68.17,2021-12-17 16:43:05.718750
2614,-67.42,2021-12-17 16:43:05.734375
2615,-67.55,2021-12-17 16:43:05.750000
2616,-68.44,2021-12-17 16:43:05.765625
2617,-69.68,2021-12-17 16:43:05.781250
2618,-70.61,2021-12-17 16:43:05.796875
2619,-70.58,2021-12-17 16:43:05.812500
2620,-69.17,2021-12-17 16:43:05.828125
2621,-66.4,2021-12-17 16:43:05.843750
2622,-62.66,2021-12-17 16:43:05.859375
2623,-58.46,2021-12-17 16:43:05.875000
2624,-54.27,2021-12-17 16:43:05.890625
2625,-50.29,2021-12-17 16:43:05.906250
2626,-46.45,2021-12-17 16:43:05.921875
2627,-42.54,2021-12-17 16:43:05.937500
2628,-38.37,2021-12-17 16:43:05.953125
2629,-33.89,2021-12-17 16:43:05.968750
2630,-29.28,2021-12-17 16:43:05.984375
2631,-24.76,2021-12-17 16:43:06.000000
2632,-20.52,2021-12-17 16:43:06.015625
2633,-16.53,2021-12-17 16:43:06.031250
2634,-12.52,2021-12-17 16:43:06.046875
2635,-8.13,2021-12-17 16:43:06.062500
2636,-3.05,2021-12-17 16:43:06.078125
2637,2.74,2021-12-17 16:43:06.093750
2638,9.0,2021-12-17 16:43:06.109375
2639,15.29,2021-12-17 16:43:06.125000
2640,21.19,2021-12-17 16:43:06.140625
2641,26.49,2021-12-17 16:43:06.156250
2642,31.22,2021-12-17 16:43:06.171875
2643,35.62,2021-12-17 16:43:06.187500
2644,39.93,2021-12-17 16:43:06.203125
2645,44.22,2021-12-17 16:43:06.218750
2646,48.22,2021-12-17 16:43:06.234375
2647,51.53,2021-12-17 16:43:06.250000
2648,53.67,2021-12-17 16:43:06.265625
2649,54.39,2021-12-17 16:43:06.281250
2650,53.8,2021-12-17 16:43:06.296875
2651,52.3,2021-12-17 16:43:06.312500
2652,50.44,2021-12-17 16:43:06.328125
2653,48.66,2021-12-17 16:43:06.343750
2654,47.15,2021-12-17 16:43:06.359375
2655,45.83,2021-12-17 16:43:06.375000
2656,44.47,2021-12-17 16:43:06.390625
2657,42.82,2021-12-17 16:43:06.406250
2658,40.78,2021-12-17 16:43:06.421875
2659,38.51,2021-12-17 16:43:06.437500
2660,36.27,2021-12-17 16:43:06.453125
2661,34.51,2021-12-17 16:43:06.468750
2662,33.67,2021-12-17 16:43:06.484375
2663,34.06,2021-12-17 16:43:06.500000
2664,35.83,2021-12-17 16:43:06.515625
2665,38.9,2021-12-17 16:43:06.531250
2666,42.96,2021-12-17 16:43:06.546875
2667,47.53,2021-12-17 16:43:06.562500
2668,52.08,2021-12-17 16:43:06.578125
2669,56.06,2021-12-17 16:43:06.593750
2670,59.09,2021-12-17 16:43:06.609375
2671,60.87,2021-12-17 16:43:06.625000
2672,61.33,2021-12-17 16:43:06.640625
2673,60.53,2021-12-17 16:43:06.656250
2674,58.64,2021-12-17 16:43:06.671875
2675,55.85,2021-12-17 16:43:06.687500
2676,52.32,2021-12-17 16:43:06.703125
2677,48.04,2021-12-17 16:43:06.718750
2678,42.97,2021-12-17 16:43:06.734375
2679,37.05,2021-12-17 16:43:06.750000
2680,30.36,2021-12-17 16:43:06.765625
2681,23.16,2021-12-17 16:43:06.781250
2682,15.84,2021-12-17 16:43:06.796875
2683,8.69,2021-12-17 16:43:06.812500
2684,1.89,2021-12-17 16:43:06.828125
2685,-4.59,2021-12-17 16:43:06.843750
2686,-10.9,2021-12-17 16:43:06.859375
2687,-17.18,2021-12-17 16:43:06.875000
2688,-23.57,2021-12-17 16:43:06.890625
2689,-30.12,2021-12-17 16:43:06.906250
2690,-36.85,2021-12-17 16:43:06.921875
2691,-43.66,2021-12-17 16:43:06.937500
2692,-50.35,2021-12-17 16:43:06.953125
2693,-56.48,2021-12-17 16:43:06.968750
2694,-61.51,2021-12-17 16:43:06.984375
2695,-65.01,2021-12-17 16:43:07.000000
2696,-66.73,2021-12-17 16:43:07.015625
2697,-66.84,2021-12-17 16:43:07.031250
2698,-65.75,2021-12-17 16:43:07.046875
2699,-63.94,2021-12-17 16:43:07.062500
2700,-61.72,2021-12-17 16:43:07.078125
2701,-59.12,2021-12-17 16:43:07.093750
2702,-56.0,2021-12-17 16:43:07.109375
2703,-52.27,2021-12-17 16:43:07.125000
2704,-48.14,2021-12-17 16:43:07.140625
2705,-44.11,2021-12-17 16:43:07.156250
2706,-40.83,2021-12-17 16:43:07.171875
2707,-38.8,2021-12-17 16:43:07.187500
2708,-38.22,2021-12-17 16:43:07.203125
2709,-38.8,2021-12-17 16:43:07.218750
2710,-39.95,2021-12-17 16:43:07.234375
2711,-40.95,2021-12-17 16:43:07.250000
2712,-41.26,2021-12-17 16:43:07.265625
2713,-40.77,2021-12-17 16:43:07.281250
2714,-39.71,2021-12-17 16:43:07.296875
2715,-38.57,2021-12-17 16:43:07.312500
2716,-37.73,2021-12-17 16:43:07.328125
2717,-37.33,2021-12-17 16:43:07.343750
2718,-37.23,2021-12-17 16:43:07.359375
2719,-37.12,2021-12-17 16:43:07.375000
2720,-36.82,2021-12-17 16:43:07.390625
2721,-36.41,2021-12-17 16:43:07.406250
2722,-36.19,2021-12-17 16:43:07.421875
2723,-36.45,2021-12-17 16:43:07.437500
2724,-37.29,2021-12-17 16:43:07.453125
2725,-38.44,2021-12-17 16:43:07.468750
2726,-39.48,2021-12-17 16:43:07.484375
2727,-40.05,2021-12-17 16:43:07.500000
2728,-40.09,2021-12-17 16:43:07.515625
2729,-39.88,2021-12-17 16:43:07.531250
2730,-39.76,2021-12-17 16:43:07.546875
2731,-39.87,2021-12-17 16:43:07.562500
2732,-39.94,2021-12-17 16:43:07.578125
2733,-39.42,2021-12-17 16:43:07.593750
2734,-37.61,2021-12-17 16:43:07.609375
2735,-33.98,2021-12-17 16:43:07.625000
2736,-28.22,2021-12-17 16:43:07.640625
2737,-20.22,2021-12-17 16:43:07.656250
2738,-10.0,2021-12-17 16:43:07.671875
2739,2.31,2021-12-17 16:43:07.687500
2740,16.32,2021-12-17 16:43:07.703125
2741,31.28,2021-12-17 16:43:07.718750
2742,46.01,2021-12-17 16:43:07.734375
2743,59.1,2021-12-17 16:43:07.750000
2744,69.24,2021-12-17 16:43:07.765625
2745,75.58,2021-12-17 16:43:07.781250
2746,78.07,2021-12-17 16:43:07.796875
2747,77.31,2021-12-17 16:43:07.812500
2748,74.37,2021-12-17 16:43:07.828125
2749,70.39,2021-12-17 16:43:07.843750
2750,66.23,2021-12-17 16:43:07.859375
2751,62.36,2021-12-17 16:43:07.875000
2752,58.93,2021-12-17 16:43:07.890625
2753,56.02,2021-12-17 16:43:07.906250
2754,53.66,2021-12-17 16:43:07.921875
2755,52.0,2021-12-17 16:43:07.937500
2756,51.14,2021-12-17 16:43:07.953125
2757,51.02,2021-12-17 16:43:07.968750
2758,51.31,2021-12-17 16:43:07.984375
2759,51.51,2021-12-17 16:43:08.000000
2760,51.13,2021-12-17 16:43:08.015625
2761,49.87,2021-12-17 16:43:08.031250
2762,47.74,2021-12-17 16:43:08.046875
2763,45.07,2021-12-17 16:43:08.062500
2764,42.35,2021-12-17 16:43:08.078125
2765,39.94,2021-12-17 16:43:08.093750
2766,38.0,2021-12-17 16:43:08.109375
2767,36.33,2021-12-17 16:43:08.125000
2768,34.57,2021-12-17 16:43:08.140625
2769,32.41,2021-12-17 16:43:08.156250
2770,29.72,2021-12-17 16:43:08.171875
2771,26.63,2021-12-17 16:43:08.187500
2772,23.35,2021-12-17 16:43:08.203125
2773,20.13,2021-12-17 16:43:08.218750
2774,17.05,2021-12-17 16:43:08.234375
2775,14.07,2021-12-17 16:43:08.250000
2776,11.04,2021-12-17 16:43:08.265625
2777,7.82,2021-12-17 16:43:08.281250
2778,4.29,2021-12-17 16:43:08.296875
2779,0.38,2021-12-17 16:43:08.312500
2780,-3.89,2021-12-17 16:43:08.328125
2781,-8.48,2021-12-17 16:43:08.343750
2782,-13.22,2021-12-17 16:43:08.359375
2783,-17.77,2021-12-17 16:43:08.375000
2784,-21.74,2021-12-17 16:43:08.390625
2785,-24.69,2021-12-17 16:43:08.406250
2786,-26.27,2021-12-17 16:43:08.421875
2787,-26.32,2021-12-17 16:43:08.437500
2788,-24.81,2021-12-17 16:43:08.453125
2789,-21.76,2021-12-17 16:43:08.468750
2790,-17.27,2021-12-17 16:43:08.484375
2791,-11.4,2021-12-17 16:43:08.500000
2792,-4.36,2021-12-17 16:43:08.515625
2793,3.52,2021-12-17 16:43:08.531250
2794,11.65,2021-12-17 16:43:08.546875
2795,19.26,2021-12-17 16:43:08.562500
2796,25.62,2021-12-17 16:43:08.578125
2797,30.21,2021-12-17 16:43:08.593750
2798,33.02,2021-12-17 16:43:08.609375
2799,34.53,2021-12-17 16:43:08.625000
2800,35.59,2021-12-17 16:43:08.640625
2801,37.08,2021-12-17 16:43:08.656250
2802,39.57,2021-12-17 16:43:08.671875
2803,43.14,2021-12-17 16:43:08.687500
2804,47.45,2021-12-17 16:43:08.703125
2805,51.91,2021-12-17 16:43:08.718750
2806,55.98,2021-12-17 16:43:08.734375
2807,59.33,2021-12-17 16:43:08.750000
2808,61.99,2021-12-17 16:43:08.765625
2809,64.29,2021-12-17 16:43:08.781250
2810,66.79,2021-12-17 16:43:08.796875
2811,70.13,2021-12-17 16:43:08.812500
2812,74.89,2021-12-17 16:43:08.828125
2813,81.2,2021-12-17 16:43:08.843750
2814,88.5,2021-12-17 16:43:08.859375
2815,95.35,2021-12-17 16:43:08.875000
2816,99.59,2021-12-17 16:43:08.890625
2817,98.82,2021-12-17 16:43:08.906250
2818,91.09,2021-12-17 16:43:08.921875
2819,75.63,2021-12-17 16:43:08.937500
2820,53.07,2021-12-17 16:43:08.953125
2821,25.45,2021-12-17 16:43:08.968750
2822,-4.34,2021-12-17 16:43:08.984375
2823,-33.23,2021-12-17 16:43:09.000000
2824,-58.62,2021-12-17 16:43:09.015625
2825,-78.87,2021-12-17 16:43:09.031250
2826,-93.46,2021-12-17 16:43:09.046875
2827,-102.89,2021-12-17 16:43:09.062500
2828,-108.26,2021-12-17 16:43:09.078125
2829,-110.83,2021-12-17 16:43:09.093750
2830,-111.6,2021-12-17 16:43:09.109375
2831,-110.99,2021-12-17 16:43:09.125000
2832,-108.91,2021-12-17 16:43:09.140625
2833,-104.91,2021-12-17 16:43:09.156250
2834,-98.53,2021-12-17 16:43:09.171875
2835,-89.58,2021-12-17 16:43:09.187500
2836,-78.25,2021-12-17 16:43:09.203125
2837,-65.09,2021-12-17 16:43:09.218750
2838,-50.96,2021-12-17 16:43:09.234375
2839,-36.89,2021-12-17 16:43:09.250000
2840,-24.1,2021-12-17 16:43:09.265625
2841,-13.67,2021-12-17 16:43:09.281250
2842,-6.38,2021-12-17 16:43:09.296875
2843,-2.47,2021-12-17 16:43:09.312500
2844,-1.52,2021-12-17 16:43:09.328125
2845,-2.61,2021-12-17 16:43:09.343750
2846,-4.68,2021-12-17 16:43:09.359375
2847,-6.93,2021-12-17 16:43:09.375000
2848,-8.92,2021-12-17 16:43:09.390625
2849,-10.64,2021-12-17 16:43:09.406250
2850,-12.33,2021-12-17 16:43:09.421875
2851,-14.13,2021-12-17 16:43:09.437500
2852,-16.08,2021-12-17 16:43:09.453125
2853,-18.06,2021-12-17 16:43:09.468750
2854,-19.95,2021-12-17 16:43:09.484375
2855,-21.7,2021-12-17 16:43:09.500000
2856,-23.33,2021-12-17 16:43:09.515625
2857,-24.76,2021-12-17 16:43:09.531250
2858,-25.82,2021-12-17 16:43:09.546875
2859,-26.17,2021-12-17 16:43:09.562500
2860,-25.47,2021-12-17 16:43:09.578125
2861,-23.57,2021-12-17 16:43:09.593750
2862,-20.59,2021-12-17 16:43:09.609375
2863,-16.95,2021-12-17 16:43:09.625000
2864,-13.19,2021-12-17 16:43:09.640625
2865,-9.81,2021-12-17 16:43:09.656250
2866,-7.11,2021-12-17 16:43:09.671875
2867,-5.17,2021-12-17 16:43:09.687500
2868,-3.94,2021-12-17 16:43:09.703125
2869,-3.32,2021-12-17 16:43:09.718750
2870,-3.21,2021-12-17 16:43:09.734375
2871,-3.47,2021-12-17 16:43:09.750000
2872,-3.87,2021-12-17 16:43:09.765625
2873,-4.1,2021-12-17 16:43:09.781250
2874,-3.9,2021-12-17 16:43:09.796875
2875,-3.24,2021-12-17 16:43:09.812500
2876,-2.44,2021-12-17 16:43:09.828125
2877,-2.1,2021-12-17 16:43:09.843750
2878,-2.87,2021-12-17 16:43:09.859375
2879,-5.07,2021-12-17 16:43:09.875000
2880,-8.55,2021-12-17 16:43:09.890625
2881,-12.65,2021-12-17 16:43:09.906250
2882,-16.42,2021-12-17 16:43:09.921875
2883,-19.04,2021-12-17 16:43:09.937500
2884,-20.04,2021-12-17 16:43:09.953125
2885,-19.42,2021-12-17 16:43:09.968750
2886,-17.56,2021-12-17 16:43:09.984375
2887,-14.99,2021-12-17 16:43:10.000000
2888,-12.11,2021-12-17 16:43:10.015625
2889,-9.17,2021-12-17 16:43:10.031250
2890,-6.24,2021-12-17 16:43:10.046875
2891,-3.35,2021-12-17 16:43:10.062500
2892,-0.64,2021-12-17 16:43:10.078125
2893,1.62,2021-12-17 16:43:10.093750
2894,3.11,2021-12-17 16:43:10.109375
2895,3.54,2021-12-17 16:43:10.125000
2896,2.8,2021-12-17 16:43:10.140625
2897,1.02,2021-12-17 16:43:10.156250
2898,-1.45,2021-12-17 16:43:10.171875
2899,-4.15,2021-12-17 16:43:10.187500
2900,-6.59,2021-12-17 16:43:10.203125
2901,-8.41,2021-12-17 16:43:10.218750
2902,-9.44,2021-12-17 16:43:10.234375
2903,-9.7,2021-12-17 16:43:10.250000
2904,-9.39,2021-12-17 16:43:10.265625
2905,-8.75,2021-12-17 16:43:10.281250
2906,-7.91,2021-12-17 16:43:10.296875
2907,-6.84,2021-12-17 16:43:10.312500
2908,-5.43,2021-12-17 16:43:10.328125
2909,-3.62,2021-12-17 16:43:10.343750
2910,-1.66,2021-12-17 16:43:10.359375
2911,-0.06,2021-12-17 16:43:10.375000
2912,0.51,2021-12-17 16:43:10.390625
2913,-0.52,2021-12-17 16:43:10.406250
2914,-3.3,2021-12-17 16:43:10.421875
2915,-7.5,2021-12-17 16:43:10.437500
2916,-12.38,2021-12-17 16:43:10.453125
2917,-17.09,2021-12-17 16:43:10.468750
2918,-21.0,2021-12-17 16:43:10.484375
2919,-23.87,2021-12-17 16:43:10.500000
2920,-25.89,2021-12-17 16:43:10.515625
2921,-27.48,2021-12-17 16:43:10.531250
2922,-29.13,2021-12-17 16:43:10.546875
2923,-31.2,2021-12-17 16:43:10.562500
2924,-33.85,2021-12-17 16:43:10.578125
2925,-37.19,2021-12-17 16:43:10.593750
2926,-41.23,2021-12-17 16:43:10.609375
2927,-45.91,2021-12-17 16:43:10.625000
2928,-50.97,2021-12-17 16:43:10.640625
2929,-55.8,2021-12-17 16:43:10.656250
2930,-59.44,2021-12-17 16:43:10.671875
2931,-60.84,2021-12-17 16:43:10.687500
2932,-59.26,2021-12-17 16:43:10.703125
2933,-54.65,2021-12-17 16:43:10.718750
2934,-47.73,2021-12-17 16:43:10.734375
2935,-39.8,2021-12-17 16:43:10.750000
2936,-32.19,2021-12-17 16:43:10.765625
2937,-25.73,2021-12-17 16:43:10.781250
2938,-20.6,2021-12-17 16:43:10.796875
2939,-16.45,2021-12-17 16:43:10.812500
2940,-12.75,2021-12-17 16:43:10.828125
2941,-9.18,2021-12-17 16:43:10.843750
2942,-5.7,2021-12-17 16:43:10.859375
2943,-2.45,2021-12-17 16:43:10.875000
2944,0.47,2021-12-17 16:43:10.890625
2945,3.05,2021-12-17 16:43:10.906250
2946,5.36,2021-12-17 16:43:10.921875
2947,7.26,2021-12-17 16:43:10.937500
2948,8.37,2021-12-17 16:43:10.953125
2949,8.13,2021-12-17 16:43:10.968750
2950,6.07,2021-12-17 16:43:10.984375
2951,2.19,2021-12-17 16:43:11.000000
2952,-2.87,2021-12-17 16:43:11.015625
2953,-8.01,2021-12-17 16:43:11.031250
2954,-12.03,2021-12-17 16:43:11.046875
2955,-14.05,2021-12-17 16:43:11.062500
2956,-13.88,2021-12-17 16:43:11.078125
2957,-11.96,2021-12-17 16:43:11.093750
2958,-9.07,2021-12-17 16:43:11.109375
2959,-5.99,2021-12-17 16:43:11.125000
2960,-3.2,2021-12-17 16:43:11.140625
2961,-0.8,2021-12-17 16:43:11.156250
2962,1.44,2021-12-17 16:43:11.171875
2963,3.91,2021-12-17 16:43:11.187500
2964,7.1,2021-12-17 16:43:11.203125
2965,11.36,2021-12-17 16:43:11.218750
2966,16.87,2021-12-17 16:43:11.234375
2967,23.39,2021-12-17 16:43:11.250000
2968,30.17,2021-12-17 16:43:11.265625
2969,36.01,2021-12-17 16:43:11.281250
2970,39.53,2021-12-17 16:43:11.296875
2971,39.6,2021-12-17 16:43:11.312500
2972,35.74,2021-12-17 16:43:11.328125
2973,28.42,2021-12-17 16:43:11.343750
2974,18.92,2021-12-17 16:43:11.359375
2975,9.04,2021-12-17 16:43:11.375000
2976,0.57,2021-12-17 16:43:11.390625
2977,-5.18,2021-12-17 16:43:11.406250
2978,-7.61,2021-12-17 16:43:11.421875
2979,-6.87,2021-12-17 16:43:11.437500
2980,-3.56,2021-12-17 16:43:11.453125
2981,1.45,2021-12-17 16:43:11.468750
2982,7.37,2021-12-17 16:43:11.484375
2983,13.55,2021-12-17 16:43:11.500000
2984,19.53,2021-12-17 16:43:11.515625
2985,25.0,2021-12-17 16:43:11.531250
2986,29.79,2021-12-17 16:43:11.546875
2987,33.84,2021-12-17 16:43:11.562500
2988,37.23,2021-12-17 16:43:11.578125
2989,40.17,2021-12-17 16:43:11.593750
2990,42.76,2021-12-17 16:43:11.609375
2991,45.04,2021-12-17 16:43:11.625000
2992,46.88,2021-12-17 16:43:11.640625
2993,48.13,2021-12-17 16:43:11.656250
2994,48.75,2021-12-17 16:43:11.671875
2995,48.91,2021-12-17 16:43:11.687500
2996,48.95,2021-12-17 16:43:11.703125
2997,49.23,2021-12-17 16:43:11.718750
2998,49.94,2021-12-17 16:43:11.734375
2999,51.0,2021-12-17 16:43:11.750000
3000,52.2,2021-12-17 16:43:11.765625
3001,53.29,2021-12-17 16:43:11.781250
3002,54.09,2021-12-17 16:43:11.796875
3003,54.57,2021-12-17 16:43:11.812500
3004,54.68,2021-12-17 16:43:11.828125
3005,54.3,2021-12-17 16:43:11.843750
3006,53.13,2021-12-17 16:43:11.859375
3007,50.82,2021-12-17 16:43:11.875000
3008,47.08,2021-12-17 16:43:11.890625
3009,41.87,2021-12-17 16:43:11.906250
3010,35.41,2021-12-17 16:43:11.921875
3011,28.15,2021-12-17 16:43:11.937500
3012,20.66,2021-12-17 16:43:11.953125
3013,13.42,2021-12-17 16:43:11.968750
3014,6.73,2021-12-17 16:43:11.984375
3015,0.65,2021-12-17 16:43:12.000000
3016,-4.9,2021-12-17 16:43:12.015625
3017,-9.96,2021-12-17 16:43:12.031250
3018,-14.45,2021-12-17 16:43:12.046875
3019,-18.12,2021-12-17 16:43:12.062500
3020,-20.71,2021-12-17 16:43:12.078125
3021,-22.03,2021-12-17 16:43:12.093750
3022,-22.22,2021-12-17 16:43:12.109375
3023,-21.61,2021-12-17 16:43:12.125000
3024,-20.57,2021-12-17 16:43:12.140625
3025,-19.33,2021-12-17 16:43:12.156250
3026,-17.73,2021-12-17 16:43:12.171875
3027,-15.48,2021-12-17 16:43:12.187500
3028,-12.4,2021-12-17 16:43:12.203125
3029,-8.72,2021-12-17 16:43:12.218750
3030,-5.06,2021-12-17 16:43:12.234375
3031,-2.15,2021-12-17 16:43:12.250000
3032,-0.43,2021-12-17 16:43:12.265625
3033,0.11,2021-12-17 16:43:12.281250
3034,-0.07,2021-12-17 16:43:12.296875
3035,-0.35,2021-12-17 16:43:12.312500
3036,-0.36,2021-12-17 16:43:12.328125
3037,-0.14,2021-12-17 16:43:12.343750
3038,-0.02,2021-12-17 16:43:12.359375
3039,-0.3,2021-12-17 16:43:12.375000
3040,-1.02,2021-12-17 16:43:12.390625
3041,-1.81,2021-12-17 16:43:12.406250
3042,-2.11,2021-12-17 16:43:12.421875
3043,-1.4,2021-12-17 16:43:12.437500
3044,0.52,2021-12-17 16:43:12.453125
3045,3.46,2021-12-17 16:43:12.468750
3046,6.96,2021-12-17 16:43:12.484375
3047,10.47,2021-12-17 16:43:12.500000
3048,13.64,2021-12-17 16:43:12.515625
3049,16.33,2021-12-17 16:43:12.531250
3050,18.52,2021-12-17 16:43:12.546875
3051,20.18,2021-12-17 16:43:12.562500
3052,21.12,2021-12-17 16:43:12.578125
3053,21.02,2021-12-17 16:43:12.593750
3054,19.58,2021-12-17 16:43:12.609375
3055,16.68,2021-12-17 16:43:12.625000
3056,12.44,2021-12-17 16:43:12.640625
3057,7.13,2021-12-17 16:43:12.656250
3058,0.96,2021-12-17 16:43:12.671875
3059,-5.9,2021-12-17 16:43:12.687500
3060,-13.32,2021-12-17 16:43:12.703125
3061,-21.0,2021-12-17 16:43:12.718750
3062,-28.24,2021-12-17 16:43:12.734375
3063,-34.03,2021-12-17 16:43:12.750000
3064,-37.31,2021-12-17 16:43:12.765625
3065,-37.42,2021-12-17 16:43:12.781250
3066,-34.46,2021-12-17 16:43:12.796875
3067,-29.41,2021-12-17 16:43:12.812500
3068,-23.78,2021-12-17 16:43:12.828125
3069,-19.15,2021-12-17 16:43:12.843750
3070,-16.71,2021-12-17 16:43:12.859375
3071,-16.9,2021-12-17 16:43:12.875000
3072,-19.47,2021-12-17 16:43:12.890625
3073,-23.66,2021-12-17 16:43:12.906250
3074,-28.59,2021-12-17 16:43:12.921875
3075,-33.48,2021-12-17 16:43:12.937500
3076,-37.76,2021-12-17 16:43:12.953125
3077,-41.03,2021-12-17 16:43:12.968750
3078,-42.99,2021-12-17 16:43:12.984375
3079,-43.54,2021-12-17 16:43:13.000000
3080,-42.82,2021-12-17 16:43:13.015625
3081,-41.3,2021-12-17 16:43:13.031250
3082,-39.67,2021-12-17 16:43:13.046875
3083,-38.62,2021-12-17 16:43:13.062500
3084,-38.49,2021-12-17 16:43:13.078125
3085,-39.08,2021-12-17 16:43:13.093750
3086,-39.69,2021-12-17 16:43:13.109375
3087,-39.4,2021-12-17 16:43:13.125000
3088,-37.54,2021-12-17 16:43:13.140625
3089,-34.05,2021-12-17 16:43:13.156250
3090,-29.51,2021-12-17 16:43:13.171875
3091,-24.83,2021-12-17 16:43:13.187500
3092,-20.77,2021-12-17 16:43:13.203125
3093,-17.56,2021-12-17 16:43:13.218750
3094,-14.78,2021-12-17 16:43:13.234375
3095,-11.58,2021-12-17 16:43:13.250000
3096,-7.19,2021-12-17 16:43:13.265625
3097,-1.3,2021-12-17 16:43:13.281250
3098,5.71,2021-12-17 16:43:13.296875
3099,12.85,2021-12-17 16:43:13.312500
3100,18.8,2021-12-17 16:43:13.328125
3101,22.29,2021-12-17 16:43:13.343750
3102,22.52,2021-12-17 16:43:13.359375
3103,19.2,2021-12-17 16:43:13.375000
3104,12.63,2021-12-17 16:43:13.390625
3105,3.52,2021-12-17 16:43:13.406250
3106,-7.13,2021-12-17 16:43:13.421875
3107,-18.09,2021-12-17 16:43:13.437500
3108,-28.0,2021-12-17 16:43:13.453125
3109,-35.47,2021-12-17 16:43:13.468750
3110,-39.21,2021-12-17 16:43:13.484375
3111,-38.39,2021-12-17 16:43:13.500000
3112,-32.88,2021-12-17 16:43:13.515625
3113,-23.44,2021-12-17 16:43:13.531250
3114,-11.56,2021-12-17 16:43:13.546875
3115,0.8,2021-12-17 16:43:13.562500
3116,11.89,2021-12-17 16:43:13.578125
3117,20.49,2021-12-17 16:43:13.593750
3118,26.18,2021-12-17 16:43:13.609375
3119,29.11,2021-12-17 16:43:13.625000
3120,29.81,2021-12-17 16:43:13.640625
3121,28.8,2021-12-17 16:43:13.656250
3122,26.49,2021-12-17 16:43:13.671875
3123,23.32,2021-12-17 16:43:13.687500
3124,19.72,2021-12-17 16:43:13.703125
3125,16.2,2021-12-17 16:43:13.718750
3126,13.13,2021-12-17 16:43:13.734375
3127,10.74,2021-12-17 16:43:13.750000
3128,9.01,2021-12-17 16:43:13.765625
3129,7.78,2021-12-17 16:43:13.781250
3130,6.89,2021-12-17 16:43:13.796875
3131,6.29,2021-12-17 16:43:13.812500
3132,6.05,2021-12-17 16:43:13.828125
3133,6.3,2021-12-17 16:43:13.843750
3134,7.13,2021-12-17 16:43:13.859375
3135,8.52,2021-12-17 16:43:13.875000
3136,10.33,2021-12-17 16:43:13.890625
3137,12.35,2021-12-17 16:43:13.906250
3138,14.35,2021-12-17 16:43:13.921875
3139,16.07,2021-12-17 16:43:13.937500
3140,17.24,2021-12-17 16:43:13.953125
3141,17.64,2021-12-17 16:43:13.968750
3142,17.11,2021-12-17 16:43:13.984375
3143,15.65,2021-12-17 16:43:14.000000
3144,13.37,2021-12-17 16:43:14.015625
3145,10.46,2021-12-17 16:43:14.031250
3146,7.1,2021-12-17 16:43:14.046875
3147,3.35,2021-12-17 16:43:14.062500
3148,-0.79,2021-12-17 16:43:14.078125
3149,-5.34,2021-12-17 16:43:14.093750
3150,-10.13,2021-12-17 16:43:14.109375
3151,-14.82,2021-12-17 16:43:14.125000
3152,-18.75,2021-12-17 16:43:14.140625
3153,-21.23,2021-12-17 16:43:14.156250
3154,-21.72,2021-12-17 16:43:14.171875
3155,-20.0,2021-12-17 16:43:14.187500
3156,-16.31,2021-12-17 16:43:14.203125
3157,-11.16,2021-12-17 16:43:14.218750
3158,-5.15,2021-12-17 16:43:14.234375
3159,1.31,2021-12-17 16:43:14.250000
3160,8.02,2021-12-17 16:43:14.265625
3161,14.93,2021-12-17 16:43:14.281250
3162,21.94,2021-12-17 16:43:14.296875
3163,28.72,2021-12-17 16:43:14.312500
3164,34.76,2021-12-17 16:43:14.328125
3165,39.54,2021-12-17 16:43:14.343750
3166,42.74,2021-12-17 16:43:14.359375
3167,44.39,2021-12-17 16:43:14.375000
