,BVP,time
0,-6.54,2021-12-17 16:56:36.531250
1,-11.39,2021-12-17 16:56:36.546875
2,-17.64,2021-12-17 16:56:36.562500
3,-24.6,2021-12-17 16:56:36.578125
4,-31.34,2021-12-17 16:56:36.593750
5,-37.13,2021-12-17 16:56:36.609375
6,-41.77,2021-12-17 16:56:36.625000
7,-45.68,2021-12-17 16:56:36.640625
8,-49.71,2021-12-17 16:56:36.656250
9,-54.81,2021-12-17 16:56:36.671875
10,-61.77,2021-12-17 16:56:36.687500
11,-70.85,2021-12-17 16:56:36.703125
12,-81.59,2021-12-17 16:56:36.718750
13,-92.76,2021-12-17 16:56:36.734375
14,-102.37,2021-12-17 16:56:36.750000
15,-108.06,2021-12-17 16:56:36.765625
16,-107.76,2021-12-17 16:56:36.781250
17,-100.48,2021-12-17 16:56:36.796875
18,-86.74,2021-12-17 16:56:36.812500
19,-68.55,2021-12-17 16:56:36.828125
20,-48.86,2021-12-17 16:56:36.843750
21,-30.56,2021-12-17 16:56:36.859375
22,-15.86,2021-12-17 16:56:36.875000
23,-5.77,2021-12-17 16:56:36.890625
24,-0.34,2021-12-17 16:56:36.906250
25,1.0,2021-12-17 16:56:36.921875
26,-1.1,2021-12-17 16:56:36.937500
27,-6.07,2021-12-17 16:56:36.953125
28,-13.48,2021-12-17 16:56:36.968750
29,-22.94,2021-12-17 16:56:36.984375
30,-33.99,2021-12-17 16:56:37.000000
31,-46.11,2021-12-17 16:56:37.015625
32,-58.64,2021-12-17 16:56:37.031250
33,-70.76,2021-12-17 16:56:37.046875
34,-81.48,2021-12-17 16:56:37.062500
35,-89.72,2021-12-17 16:56:37.078125
36,-94.4,2021-12-17 16:56:37.093750
37,-94.68,2021-12-17 16:56:37.109375
38,-90.16,2021-12-17 16:56:37.125000
39,-81.03,2021-12-17 16:56:37.140625
40,-68.1,2021-12-17 16:56:37.156250
41,-52.61,2021-12-17 16:56:37.171875
42,-36.16,2021-12-17 16:56:37.187500
43,-20.42,2021-12-17 16:56:37.203125
44,-6.79,2021-12-17 16:56:37.218750
45,3.81,2021-12-17 16:56:37.234375
46,11.1,2021-12-17 16:56:37.250000
47,15.52,2021-12-17 16:56:37.265625
48,17.92,2021-12-17 16:56:37.281250
49,19.28,2021-12-17 16:56:37.296875
50,20.26,2021-12-17 16:56:37.312500
51,20.83,2021-12-17 16:56:37.328125
52,20.19,2021-12-17 16:56:37.343750
53,17.17,2021-12-17 16:56:37.359375
54,10.76,2021-12-17 16:56:37.375000
55,0.89,2021-12-17 16:56:37.390625
56,-11.18,2021-12-17 16:56:37.406250
57,-22.97,2021-12-17 16:56:37.421875
58,-31.38,2021-12-17 16:56:37.437500
59,-33.59,2021-12-17 16:56:37.453125
60,-27.85,2021-12-17 16:56:37.468750
61,-14.01,2021-12-17 16:56:37.484375
62,6.51,2021-12-17 16:56:37.500000
63,30.97,2021-12-17 16:56:37.515625
64,56.0,2021-12-17 16:56:37.531250
65,78.28,2021-12-17 16:56:37.546875
66,95.19,2021-12-17 16:56:37.562500
67,105.24,2021-12-17 16:56:37.578125
68,108.12,2021-12-17 16:56:37.593750
69,104.43,2021-12-17 16:56:37.609375
70,95.21,2021-12-17 16:56:37.625000
71,81.57,2021-12-17 16:56:37.640625
72,64.55,2021-12-17 16:56:37.656250
73,45.39,2021-12-17 16:56:37.671875
74,25.67,2021-12-17 16:56:37.687500
75,7.23,2021-12-17 16:56:37.703125
76,-8.25,2021-12-17 16:56:37.718750
77,-19.98,2021-12-17 16:56:37.734375
78,-28.32,2021-12-17 16:56:37.750000
79,-34.59,2021-12-17 16:56:37.765625
80,-40.36,2021-12-17 16:56:37.781250
81,-46.59,2021-12-17 16:56:37.796875
82,-53.22,2021-12-17 16:56:37.812500
83,-59.39,2021-12-17 16:56:37.828125
84,-64.19,2021-12-17 16:56:37.843750
85,-67.25,2021-12-17 16:56:37.859375
86,-69.17,2021-12-17 16:56:37.875000
87,-71.17,2021-12-17 16:56:37.890625
88,-74.58,2021-12-17 16:56:37.906250
89,-80.12,2021-12-17 16:56:37.921875
90,-87.63,2021-12-17 16:56:37.937500
91,-96.1,2021-12-17 16:56:37.953125
92,-104.13,2021-12-17 16:56:37.968750
93,-110.39,2021-12-17 16:56:37.984375
94,-114.13,2021-12-17 16:56:38.000000
95,-115.31,2021-12-17 16:56:38.015625
96,-114.66,2021-12-17 16:56:38.031250
97,-113.39,2021-12-17 16:56:38.046875
98,-112.89,2021-12-17 16:56:38.062500
99,-114.25,2021-12-17 16:56:38.078125
100,-117.83,2021-12-17 16:56:38.093750
101,-122.95,2021-12-17 16:56:38.109375
102,-127.91,2021-12-17 16:56:38.125000
103,-130.2,2021-12-17 16:56:38.140625
104,-127.27,2021-12-17 16:56:38.156250
105,-117.15,2021-12-17 16:56:38.171875
106,-99.05,2021-12-17 16:56:38.187500
107,-73.57,2021-12-17 16:56:38.203125
108,-42.41,2021-12-17 16:56:38.218750
109,-7.96,2021-12-17 16:56:38.234375
110,27.26,2021-12-17 16:56:38.250000
111,60.93,2021-12-17 16:56:38.265625
112,91.1,2021-12-17 16:56:38.281250
113,116.22,2021-12-17 16:56:38.296875
114,135.31,2021-12-17 16:56:38.312500
115,148.09,2021-12-17 16:56:38.328125
116,155.17,2021-12-17 16:56:38.343750
117,157.94,2021-12-17 16:56:38.359375
118,158.25,2021-12-17 16:56:38.375000
119,157.82,2021-12-17 16:56:38.390625
120,157.78,2021-12-17 16:56:38.406250
121,158.38,2021-12-17 16:56:38.421875
122,158.99,2021-12-17 16:56:38.437500
123,158.56,2021-12-17 16:56:38.453125
124,155.99,2021-12-17 16:56:38.468750
125,150.55,2021-12-17 16:56:38.484375
126,141.99,2021-12-17 16:56:38.500000
127,130.74,2021-12-17 16:56:38.515625
128,117.67,2021-12-17 16:56:38.531250
129,103.97,2021-12-17 16:56:38.546875
130,90.86,2021-12-17 16:56:38.562500
131,79.21,2021-12-17 16:56:38.578125
132,69.27,2021-12-17 16:56:38.593750
133,60.53,2021-12-17 16:56:38.609375
134,51.96,2021-12-17 16:56:38.625000
135,42.47,2021-12-17 16:56:38.640625
136,31.41,2021-12-17 16:56:38.656250
137,18.91,2021-12-17 16:56:38.671875
138,5.75,2021-12-17 16:56:38.687500
139,-6.98,2021-12-17 16:56:38.703125
140,-18.52,2021-12-17 16:56:38.718750
141,-28.83,2021-12-17 16:56:38.734375
142,-38.58,2021-12-17 16:56:38.750000
143,-48.67,2021-12-17 16:56:38.765625
144,-59.6,2021-12-17 16:56:38.781250
145,-71.1,2021-12-17 16:56:38.796875
146,-82.04,2021-12-17 16:56:38.812500
147,-90.77,2021-12-17 16:56:38.828125
148,-95.66,2021-12-17 16:56:38.843750
149,-95.44,2021-12-17 16:56:38.859375
150,-89.55,2021-12-17 16:56:38.875000
151,-78.25,2021-12-17 16:56:38.890625
152,-62.57,2021-12-17 16:56:38.906250
153,-44.28,2021-12-17 16:56:38.921875
154,-25.68,2021-12-17 16:56:38.937500
155,-9.22,2021-12-17 16:56:38.953125
156,2.89,2021-12-17 16:56:38.968750
157,9.15,2021-12-17 16:56:38.984375
158,9.01,2021-12-17 16:56:39.000000
159,2.9,2021-12-17 16:56:39.015625
160,-7.99,2021-12-17 16:56:39.031250
161,-22.02,2021-12-17 16:56:39.046875
162,-37.46,2021-12-17 16:56:39.062500
163,-52.86,2021-12-17 16:56:39.078125
164,-67.1,2021-12-17 16:56:39.093750
165,-79.52,2021-12-17 16:56:39.109375
166,-89.65,2021-12-17 16:56:39.125000
167,-97.02,2021-12-17 16:56:39.140625
168,-101.1,2021-12-17 16:56:39.156250
169,-101.76,2021-12-17 16:56:39.171875
170,-99.96,2021-12-17 16:56:39.187500
171,-98.21,2021-12-17 16:56:39.203125
172,-100.05,2021-12-17 16:56:39.218750
173,-108.64,2021-12-17 16:56:39.234375
174,-125.04,2021-12-17 16:56:39.250000
175,-147.29,2021-12-17 16:56:39.265625
176,-170.89,2021-12-17 16:56:39.281250
177,-190.72,2021-12-17 16:56:39.296875
178,-203.2,2021-12-17 16:56:39.312500
179,-207.44,2021-12-17 16:56:39.328125
180,-204.97,2021-12-17 16:56:39.343750
181,-198.26,2021-12-17 16:56:39.359375
182,-189.22,2021-12-17 16:56:39.375000
183,-178.67,2021-12-17 16:56:39.390625
184,-166.9,2021-12-17 16:56:39.406250
185,-154.6,2021-12-17 16:56:39.421875
186,-143.5,2021-12-17 16:56:39.437500
187,-136.11,2021-12-17 16:56:39.453125
188,-134.79,2021-12-17 16:56:39.468750
189,-140.8,2021-12-17 16:56:39.484375
190,-153.62,2021-12-17 16:56:39.500000
191,-170.97,2021-12-17 16:56:39.515625
192,-189.32,2021-12-17 16:56:39.531250
193,-204.5,2021-12-17 16:56:39.546875
194,-212.69,2021-12-17 16:56:39.562500
195,-211.52,2021-12-17 16:56:39.578125
196,-200.53,2021-12-17 16:56:39.593750
197,-181.41,2021-12-17 16:56:39.609375
198,-157.18,2021-12-17 16:56:39.625000
199,-130.98,2021-12-17 16:56:39.640625
200,-104.92,2021-12-17 16:56:39.656250
201,-79.67,2021-12-17 16:56:39.671875
202,-54.74,2021-12-17 16:56:39.687500
203,-29.29,2021-12-17 16:56:39.703125
204,-2.96,2021-12-17 16:56:39.718750
205,23.78,2021-12-17 16:56:39.734375
206,49.65,2021-12-17 16:56:39.750000
207,73.06,2021-12-17 16:56:39.765625
208,92.59,2021-12-17 16:56:39.781250
209,107.4,2021-12-17 16:56:39.796875
210,117.44,2021-12-17 16:56:39.812500
211,123.4,2021-12-17 16:56:39.828125
212,126.43,2021-12-17 16:56:39.843750
213,127.75,2021-12-17 16:56:39.859375
214,128.29,2021-12-17 16:56:39.875000
215,128.43,2021-12-17 16:56:39.890625
216,128.25,2021-12-17 16:56:39.906250
217,127.78,2021-12-17 16:56:39.921875
218,127.33,2021-12-17 16:56:39.937500
219,127.44,2021-12-17 16:56:39.953125
220,128.46,2021-12-17 16:56:39.968750
221,130.13,2021-12-17 16:56:39.984375
222,131.26,2021-12-17 16:56:40.000000
223,130.12,2021-12-17 16:56:40.015625
224,125.04,2021-12-17 16:56:40.031250
225,115.18,2021-12-17 16:56:40.046875
226,101.01,2021-12-17 16:56:40.062500
227,84.1,2021-12-17 16:56:40.078125
228,66.6,2021-12-17 16:56:40.093750
229,50.47,2021-12-17 16:56:40.109375
230,36.87,2021-12-17 16:56:40.125000
231,25.92,2021-12-17 16:56:40.140625
232,16.91,2021-12-17 16:56:40.156250
233,8.62,2021-12-17 16:56:40.171875
234,-0.25,2021-12-17 16:56:40.187500
235,-10.71,2021-12-17 16:56:40.203125
236,-23.08,2021-12-17 16:56:40.218750
237,-36.66,2021-12-17 16:56:40.234375
238,-49.71,2021-12-17 16:56:40.250000
239,-59.73,2021-12-17 16:56:40.265625
240,-64.18,2021-12-17 16:56:40.281250
241,-61.31,2021-12-17 16:56:40.296875
242,-50.71,2021-12-17 16:56:40.312500
243,-33.27,2021-12-17 16:56:40.328125
244,-10.56,2021-12-17 16:56:40.343750
245,15.89,2021-12-17 16:56:40.359375
246,45.05,2021-12-17 16:56:40.375000
247,76.28,2021-12-17 16:56:40.390625
248,108.76,2021-12-17 16:56:40.406250
249,141.12,2021-12-17 16:56:40.421875
250,171.33,2021-12-17 16:56:40.437500
251,197.16,2021-12-17 16:56:40.453125
252,216.69,2021-12-17 16:56:40.468750
253,228.65,2021-12-17 16:56:40.484375
254,232.61,2021-12-17 16:56:40.500000
255,229.04,2021-12-17 16:56:40.515625
256,219.48,2021-12-17 16:56:40.531250
257,206.64,2021-12-17 16:56:40.546875
258,193.94,2021-12-17 16:56:40.562500
259,184.69,2021-12-17 16:56:40.578125
260,180.87,2021-12-17 16:56:40.593750
261,182.33,2021-12-17 16:56:40.609375
262,186.94,2021-12-17 16:56:40.625000
263,191.68,2021-12-17 16:56:40.640625
264,194.05,2021-12-17 16:56:40.656250
265,193.14,2021-12-17 16:56:40.671875
266,189.47,2021-12-17 16:56:40.687500
267,184.13,2021-12-17 16:56:40.703125
268,177.68,2021-12-17 16:56:40.718750
269,169.63,2021-12-17 16:56:40.734375
270,158.93,2021-12-17 16:56:40.750000
271,144.79,2021-12-17 16:56:40.765625
272,127.5,2021-12-17 16:56:40.781250
273,108.58,2021-12-17 16:56:40.796875
274,90.24,2021-12-17 16:56:40.812500
275,74.53,2021-12-17 16:56:40.828125
276,62.77,2021-12-17 16:56:40.843750
277,55.17,2021-12-17 16:56:40.859375
278,51.02,2021-12-17 16:56:40.875000
279,49.16,2021-12-17 16:56:40.890625
280,48.41,2021-12-17 16:56:40.906250
281,47.91,2021-12-17 16:56:40.921875
282,47.21,2021-12-17 16:56:40.937500
283,46.3,2021-12-17 16:56:40.953125
284,45.5,2021-12-17 16:56:40.968750
285,45.48,2021-12-17 16:56:40.984375
286,47.09,2021-12-17 16:56:41.000000
287,51.37,2021-12-17 16:56:41.015625
288,59.27,2021-12-17 16:56:41.031250
289,71.39,2021-12-17 16:56:41.046875
290,87.81,2021-12-17 16:56:41.062500
291,107.95,2021-12-17 16:56:41.078125
292,130.66,2021-12-17 16:56:41.093750
293,154.56,2021-12-17 16:56:41.109375
294,178.38,2021-12-17 16:56:41.125000
295,201.09,2021-12-17 16:56:41.140625
296,222.04,2021-12-17 16:56:41.156250
297,240.61,2021-12-17 16:56:41.171875
298,256.14,2021-12-17 16:56:41.187500
299,267.83,2021-12-17 16:56:41.203125
300,275.03,2021-12-17 16:56:41.218750
301,277.53,2021-12-17 16:56:41.234375
302,275.88,2021-12-17 16:56:41.250000
303,271.31,2021-12-17 16:56:41.265625
304,265.34,2021-12-17 16:56:41.281250
305,259.32,2021-12-17 16:56:41.296875
306,253.94,2021-12-17 16:56:41.312500
307,248.98,2021-12-17 16:56:41.328125
308,243.6,2021-12-17 16:56:41.343750
309,236.77,2021-12-17 16:56:41.359375
310,227.82,2021-12-17 16:56:41.375000
311,216.67,2021-12-17 16:56:41.390625
312,203.76,2021-12-17 16:56:41.406250
313,189.71,2021-12-17 16:56:41.421875
314,174.92,2021-12-17 16:56:41.437500
315,159.34,2021-12-17 16:56:41.453125
316,142.55,2021-12-17 16:56:41.468750
317,123.97,2021-12-17 16:56:41.484375
318,103.25,2021-12-17 16:56:41.500000
319,80.48,2021-12-17 16:56:41.515625
320,56.24,2021-12-17 16:56:41.531250
321,31.42,2021-12-17 16:56:41.546875
322,6.89,2021-12-17 16:56:41.562500
323,-16.69,2021-12-17 16:56:41.578125
324,-39.06,2021-12-17 16:56:41.593750
325,-60.23,2021-12-17 16:56:41.609375
326,-80.33,2021-12-17 16:56:41.625000
327,-99.45,2021-12-17 16:56:41.640625
328,-117.53,2021-12-17 16:56:41.656250
329,-134.38,2021-12-17 16:56:41.671875
330,-149.69,2021-12-17 16:56:41.687500
331,-163.03,2021-12-17 16:56:41.703125
332,-173.88,2021-12-17 16:56:41.718750
333,-181.61,2021-12-17 16:56:41.734375
334,-185.58,2021-12-17 16:56:41.750000
335,-185.29,2021-12-17 16:56:41.765625
336,-180.59,2021-12-17 16:56:41.781250
337,-171.9,2021-12-17 16:56:41.796875
338,-160.15,2021-12-17 16:56:41.812500
339,-146.71,2021-12-17 16:56:41.828125
340,-133.11,2021-12-17 16:56:41.843750
341,-120.74,2021-12-17 16:56:41.859375
342,-110.67,2021-12-17 16:56:41.875000
343,-103.56,2021-12-17 16:56:41.890625
344,-99.56,2021-12-17 16:56:41.906250
345,-98.45,2021-12-17 16:56:41.921875
346,-99.62,2021-12-17 16:56:41.937500
347,-102.22,2021-12-17 16:56:41.953125
348,-105.27,2021-12-17 16:56:41.968750
349,-107.85,2021-12-17 16:56:41.984375
350,-109.17,2021-12-17 16:56:42.000000
351,-108.63,2021-12-17 16:56:42.015625
352,-105.79,2021-12-17 16:56:42.031250
353,-100.27,2021-12-17 16:56:42.046875
354,-91.8,2021-12-17 16:56:42.062500
355,-80.2,2021-12-17 16:56:42.078125
356,-65.57,2021-12-17 16:56:42.093750
357,-48.31,2021-12-17 16:56:42.109375
358,-29.25,2021-12-17 16:56:42.125000
359,-9.44,2021-12-17 16:56:42.140625
360,9.98,2021-12-17 16:56:42.156250
361,28.02,2021-12-17 16:56:42.171875
362,43.93,2021-12-17 16:56:42.187500
363,57.28,2021-12-17 16:56:42.203125
364,67.98,2021-12-17 16:56:42.218750
365,76.24,2021-12-17 16:56:42.234375
366,82.55,2021-12-17 16:56:42.250000
367,87.62,2021-12-17 16:56:42.265625
368,92.23,2021-12-17 16:56:42.281250
369,97.04,2021-12-17 16:56:42.296875
370,102.44,2021-12-17 16:56:42.312500
371,108.4,2021-12-17 16:56:42.328125
372,114.56,2021-12-17 16:56:42.343750
373,120.23,2021-12-17 16:56:42.359375
374,124.77,2021-12-17 16:56:42.375000
375,127.84,2021-12-17 16:56:42.390625
376,129.68,2021-12-17 16:56:42.406250
377,131.36,2021-12-17 16:56:42.421875
378,134.59,2021-12-17 16:56:42.437500
379,141.32,2021-12-17 16:56:42.453125
380,152.98,2021-12-17 16:56:42.468750
381,169.75,2021-12-17 16:56:42.484375
382,190.01,2021-12-17 16:56:42.500000
383,210.61,2021-12-17 16:56:42.515625
384,227.52,2021-12-17 16:56:42.531250
385,237.03,2021-12-17 16:56:42.546875
386,236.66,2021-12-17 16:56:42.562500
387,225.77,2021-12-17 16:56:42.578125
388,205.45,2021-12-17 16:56:42.593750
389,177.94,2021-12-17 16:56:42.609375
390,145.88,2021-12-17 16:56:42.625000
391,111.69,2021-12-17 16:56:42.640625
392,77.15,2021-12-17 16:56:42.656250
393,43.4,2021-12-17 16:56:42.671875
394,10.95,2021-12-17 16:56:42.687500
395,-20.18,2021-12-17 16:56:42.703125
396,-50.19,2021-12-17 16:56:42.718750
397,-79.38,2021-12-17 16:56:42.734375
398,-107.91,2021-12-17 16:56:42.750000
399,-135.55,2021-12-17 16:56:42.765625
400,-161.74,2021-12-17 16:56:42.781250
401,-185.61,2021-12-17 16:56:42.796875
402,-206.19,2021-12-17 16:56:42.812500
403,-222.74,2021-12-17 16:56:42.828125
404,-234.91,2021-12-17 16:56:42.843750
405,-242.86,2021-12-17 16:56:42.859375
406,-247.35,2021-12-17 16:56:42.875000
407,-249.6,2021-12-17 16:56:42.890625
408,-250.95,2021-12-17 16:56:42.906250
409,-252.58,2021-12-17 16:56:42.921875
410,-255.09,2021-12-17 16:56:42.937500
411,-258.29,2021-12-17 16:56:42.953125
412,-261.37,2021-12-17 16:56:42.968750
413,-263.3,2021-12-17 16:56:42.984375
414,-263.34,2021-12-17 16:56:43.000000
415,-261.38,2021-12-17 16:56:43.015625
416,-257.97,2021-12-17 16:56:43.031250
417,-254.05,2021-12-17 16:56:43.046875
418,-250.54,2021-12-17 16:56:43.062500
419,-247.97,2021-12-17 16:56:43.078125
420,-246.36,2021-12-17 16:56:43.093750
421,-245.12,2021-12-17 16:56:43.109375
422,-243.24,2021-12-17 16:56:43.125000
423,-239.41,2021-12-17 16:56:43.140625
424,-232.36,2021-12-17 16:56:43.156250
425,-221.25,2021-12-17 16:56:43.171875
426,-205.96,2021-12-17 16:56:43.187500
427,-187.3,2021-12-17 16:56:43.203125
428,-166.75,2021-12-17 16:56:43.218750
429,-146.01,2021-12-17 16:56:43.234375
430,-126.55,2021-12-17 16:56:43.250000
431,-109.23,2021-12-17 16:56:43.265625
432,-94.32,2021-12-17 16:56:43.281250
433,-81.81,2021-12-17 16:56:43.296875
434,-71.63,2021-12-17 16:56:43.312500
435,-63.75,2021-12-17 16:56:43.328125
436,-58.1,2021-12-17 16:56:43.343750
437,-54.34,2021-12-17 16:56:43.359375
438,-51.75,2021-12-17 16:56:43.375000
439,-49.36,2021-12-17 16:56:43.390625
440,-46.19,2021-12-17 16:56:43.406250
441,-41.57,2021-12-17 16:56:43.421875
442,-35.31,2021-12-17 16:56:43.437500
443,-27.64,2021-12-17 16:56:43.453125
444,-19.06,2021-12-17 16:56:43.468750
445,-10.11,2021-12-17 16:56:43.484375
446,-1.23,2021-12-17 16:56:43.500000
447,7.2,2021-12-17 16:56:43.515625
448,14.9,2021-12-17 16:56:43.531250
449,21.62,2021-12-17 16:56:43.546875
450,27.15,2021-12-17 16:56:43.562500
451,31.32,2021-12-17 16:56:43.578125
452,33.97,2021-12-17 16:56:43.593750
453,34.95,2021-12-17 16:56:43.609375
454,34.05,2021-12-17 16:56:43.625000
455,31.21,2021-12-17 16:56:43.640625
456,26.59,2021-12-17 16:56:43.656250
457,20.76,2021-12-17 16:56:43.671875
458,14.7,2021-12-17 16:56:43.687500
459,9.49,2021-12-17 16:56:43.703125
460,6.04,2021-12-17 16:56:43.718750
461,4.65,2021-12-17 16:56:43.734375
462,5.01,2021-12-17 16:56:43.750000
463,6.25,2021-12-17 16:56:43.765625
464,7.3,2021-12-17 16:56:43.781250
465,7.18,2021-12-17 16:56:43.796875
466,5.13,2021-12-17 16:56:43.812500
467,0.7,2021-12-17 16:56:43.828125
468,-6.25,2021-12-17 16:56:43.843750
469,-15.53,2021-12-17 16:56:43.859375
470,-26.47,2021-12-17 16:56:43.875000
471,-37.78,2021-12-17 16:56:43.890625
472,-47.65,2021-12-17 16:56:43.906250
473,-54.05,2021-12-17 16:56:43.921875
474,-55.32,2021-12-17 16:56:43.937500
475,-50.74,2021-12-17 16:56:43.953125
476,-40.68,2021-12-17 16:56:43.968750
477,-26.59,2021-12-17 16:56:43.984375
478,-10.42,2021-12-17 16:56:44.000000
479,5.97,2021-12-17 16:56:44.015625
480,21.25,2021-12-17 16:56:44.031250
481,34.79,2021-12-17 16:56:44.046875
482,46.56,2021-12-17 16:56:44.062500
483,56.78,2021-12-17 16:56:44.078125
484,65.71,2021-12-17 16:56:44.093750
485,73.45,2021-12-17 16:56:44.109375
486,79.95,2021-12-17 16:56:44.125000
487,85.12,2021-12-17 16:56:44.140625
488,88.91,2021-12-17 16:56:44.156250
489,91.39,2021-12-17 16:56:44.171875
490,92.75,2021-12-17 16:56:44.187500
491,93.36,2021-12-17 16:56:44.203125
492,93.71,2021-12-17 16:56:44.218750
493,94.29,2021-12-17 16:56:44.234375
494,95.5,2021-12-17 16:56:44.250000
495,97.47,2021-12-17 16:56:44.265625
496,100.01,2021-12-17 16:56:44.281250
497,102.76,2021-12-17 16:56:44.296875
498,105.3,2021-12-17 16:56:44.312500
499,107.31,2021-12-17 16:56:44.328125
500,108.71,2021-12-17 16:56:44.343750
501,109.69,2021-12-17 16:56:44.359375
502,110.57,2021-12-17 16:56:44.375000
503,111.72,2021-12-17 16:56:44.390625
504,113.4,2021-12-17 16:56:44.406250
505,115.61,2021-12-17 16:56:44.421875
506,118.09,2021-12-17 16:56:44.437500
507,120.27,2021-12-17 16:56:44.453125
508,121.4,2021-12-17 16:56:44.468750
509,120.66,2021-12-17 16:56:44.484375
510,117.36,2021-12-17 16:56:44.500000
511,111.09,2021-12-17 16:56:44.515625
512,101.81,2021-12-17 16:56:44.531250
513,89.79,2021-12-17 16:56:44.546875
514,75.49,2021-12-17 16:56:44.562500
515,59.35,2021-12-17 16:56:44.578125
516,41.61,2021-12-17 16:56:44.593750
517,22.2,2021-12-17 16:56:44.609375
518,0.91,2021-12-17 16:56:44.625000
519,-22.38,2021-12-17 16:56:44.640625
520,-47.18,2021-12-17 16:56:44.656250
521,-72.14,2021-12-17 16:56:44.671875
522,-95.07,2021-12-17 16:56:44.687500
523,-113.49,2021-12-17 16:56:44.703125
524,-125.47,2021-12-17 16:56:44.718750
525,-130.51,2021-12-17 16:56:44.734375
526,-129.79,2021-12-17 16:56:44.750000
527,-125.78,2021-12-17 16:56:44.765625
528,-121.31,2021-12-17 16:56:44.781250
529,-118.49,2021-12-17 16:56:44.796875
530,-118.04,2021-12-17 16:56:44.812500
531,-119.36,2021-12-17 16:56:44.828125
532,-121.21,2021-12-17 16:56:44.843750
533,-122.49,2021-12-17 16:56:44.859375
534,-122.85,2021-12-17 16:56:44.875000
535,-122.69,2021-12-17 16:56:44.890625
536,-122.6,2021-12-17 16:56:44.906250
537,-122.88,2021-12-17 16:56:44.921875
538,-123.18,2021-12-17 16:56:44.937500
539,-122.56,2021-12-17 16:56:44.953125
540,-119.99,2021-12-17 16:56:44.968750
541,-114.87,2021-12-17 16:56:44.984375
542,-107.24,2021-12-17 16:56:45.000000
543,-97.78,2021-12-17 16:56:45.015625
544,-87.35,2021-12-17 16:56:45.031250
545,-76.62,2021-12-17 16:56:45.046875
546,-65.76,2021-12-17 16:56:45.062500
547,-54.5,2021-12-17 16:56:45.078125
548,-42.41,2021-12-17 16:56:45.093750
549,-29.29,2021-12-17 16:56:45.109375
550,-15.38,2021-12-17 16:56:45.125000
551,-1.4,2021-12-17 16:56:45.140625
552,11.8,2021-12-17 16:56:45.156250
553,23.5,2021-12-17 16:56:45.171875
554,33.41,2021-12-17 16:56:45.187500
555,41.68,2021-12-17 16:56:45.203125
556,48.78,2021-12-17 16:56:45.218750
557,55.25,2021-12-17 16:56:45.234375
558,61.39,2021-12-17 16:56:45.250000
559,67.15,2021-12-17 16:56:45.265625
560,72.16,2021-12-17 16:56:45.281250
561,75.85,2021-12-17 16:56:45.296875
562,77.68,2021-12-17 16:56:45.312500
563,77.16,2021-12-17 16:56:45.328125
564,73.94,2021-12-17 16:56:45.343750
565,67.82,2021-12-17 16:56:45.359375
566,58.82,2021-12-17 16:56:45.375000
567,47.32,2021-12-17 16:56:45.390625
568,34.26,2021-12-17 16:56:45.406250
569,21.18,2021-12-17 16:56:45.421875
570,9.96,2021-12-17 16:56:45.437500
571,2.36,2021-12-17 16:56:45.453125
572,-0.5,2021-12-17 16:56:45.468750
573,1.46,2021-12-17 16:56:45.484375
574,7.27,2021-12-17 16:56:45.500000
575,15.24,2021-12-17 16:56:45.515625
576,23.63,2021-12-17 16:56:45.531250
577,31.02,2021-12-17 16:56:45.546875
578,36.69,2021-12-17 16:56:45.562500
579,40.57,2021-12-17 16:56:45.578125
580,42.91,2021-12-17 16:56:45.593750
581,43.99,2021-12-17 16:56:45.609375
582,43.89,2021-12-17 16:56:45.625000
583,42.51,2021-12-17 16:56:45.640625
584,39.59,2021-12-17 16:56:45.656250
585,34.94,2021-12-17 16:56:45.671875
586,28.45,2021-12-17 16:56:45.687500
587,20.24,2021-12-17 16:56:45.703125
588,10.52,2021-12-17 16:56:45.718750
589,-0.4,2021-12-17 16:56:45.734375
590,-12.09,2021-12-17 16:56:45.750000
591,-24.13,2021-12-17 16:56:45.765625
592,-36.0,2021-12-17 16:56:45.781250
593,-47.24,2021-12-17 16:56:45.796875
594,-57.4,2021-12-17 16:56:45.812500
595,-66.2,2021-12-17 16:56:45.828125
596,-73.51,2021-12-17 16:56:45.843750
597,-79.43,2021-12-17 16:56:45.859375
598,-84.14,2021-12-17 16:56:45.875000
599,-87.82,2021-12-17 16:56:45.890625
600,-90.62,2021-12-17 16:56:45.906250
601,-92.71,2021-12-17 16:56:45.921875
602,-94.32,2021-12-17 16:56:45.937500
603,-95.86,2021-12-17 16:56:45.953125
604,-97.79,2021-12-17 16:56:45.968750
605,-100.5,2021-12-17 16:56:45.984375
606,-104.18,2021-12-17 16:56:46.000000
607,-108.77,2021-12-17 16:56:46.015625
608,-114.02,2021-12-17 16:56:46.031250
609,-119.71,2021-12-17 16:56:46.046875
610,-125.75,2021-12-17 16:56:46.062500
611,-132.29,2021-12-17 16:56:46.078125
612,-139.58,2021-12-17 16:56:46.093750
613,-147.88,2021-12-17 16:56:46.109375
614,-157.38,2021-12-17 16:56:46.125000
615,-168.24,2021-12-17 16:56:46.140625
616,-180.49,2021-12-17 16:56:46.156250
617,-193.96,2021-12-17 16:56:46.171875
618,-208.05,2021-12-17 16:56:46.187500
619,-221.6,2021-12-17 16:56:46.203125
620,-232.87,2021-12-17 16:56:46.218750
621,-240.03,2021-12-17 16:56:46.234375
622,-241.65,2021-12-17 16:56:46.250000
623,-237.23,2021-12-17 16:56:46.265625
624,-227.44,2021-12-17 16:56:46.281250
625,-213.83,2021-12-17 16:56:46.296875
626,-198.34,2021-12-17 16:56:46.312500
627,-182.63,2021-12-17 16:56:46.328125
628,-167.7,2021-12-17 16:56:46.343750
629,-153.74,2021-12-17 16:56:46.359375
630,-140.34,2021-12-17 16:56:46.375000
631,-126.95,2021-12-17 16:56:46.390625
632,-113.18,2021-12-17 16:56:46.406250
633,-99.02,2021-12-17 16:56:46.421875
634,-84.8,2021-12-17 16:56:46.437500
635,-70.96,2021-12-17 16:56:46.453125
636,-57.87,2021-12-17 16:56:46.468750
637,-45.69,2021-12-17 16:56:46.484375
638,-34.27,2021-12-17 16:56:46.500000
639,-23.26,2021-12-17 16:56:46.515625
640,-12.2,2021-12-17 16:56:46.531250
641,-0.58,2021-12-17 16:56:46.546875
642,11.99,2021-12-17 16:56:46.562500
643,25.74,2021-12-17 16:56:46.578125
644,40.56,2021-12-17 16:56:46.593750
645,55.96,2021-12-17 16:56:46.609375
646,71.1,2021-12-17 16:56:46.625000
647,84.94,2021-12-17 16:56:46.640625
648,96.52,2021-12-17 16:56:46.656250
649,105.23,2021-12-17 16:56:46.671875
650,110.81,2021-12-17 16:56:46.687500
651,113.4,2021-12-17 16:56:46.703125
652,113.31,2021-12-17 16:56:46.718750
653,110.92,2021-12-17 16:56:46.734375
654,106.59,2021-12-17 16:56:46.750000
655,100.63,2021-12-17 16:56:46.765625
656,93.27,2021-12-17 16:56:46.781250
657,84.73,2021-12-17 16:56:46.796875
658,75.19,2021-12-17 16:56:46.812500
659,64.91,2021-12-17 16:56:46.828125
660,54.33,2021-12-17 16:56:46.843750
661,43.99,2021-12-17 16:56:46.859375
662,34.52,2021-12-17 16:56:46.875000
663,26.32,2021-12-17 16:56:46.890625
664,19.35,2021-12-17 16:56:46.906250
665,13.03,2021-12-17 16:56:46.921875
666,6.26,2021-12-17 16:56:46.937500
667,-2.18,2021-12-17 16:56:46.953125
668,-13.15,2021-12-17 16:56:46.968750
669,-26.65,2021-12-17 16:56:46.984375
670,-41.56,2021-12-17 16:56:47.000000
671,-55.7,2021-12-17 16:56:47.015625
672,-66.18,2021-12-17 16:56:47.031250
673,-70.32,2021-12-17 16:56:47.046875
674,-66.33,2021-12-17 16:56:47.062500
675,-53.98,2021-12-17 16:56:47.078125
676,-34.65,2021-12-17 16:56:47.093750
677,-10.95,2021-12-17 16:56:47.109375
678,14.1,2021-12-17 16:56:47.125000
679,37.86,2021-12-17 16:56:47.140625
680,58.64,2021-12-17 16:56:47.156250
681,75.81,2021-12-17 16:56:47.171875
682,89.62,2021-12-17 16:56:47.187500
683,100.86,2021-12-17 16:56:47.203125
684,110.58,2021-12-17 16:56:47.218750
685,119.94,2021-12-17 16:56:47.234375
686,130.21,2021-12-17 16:56:47.250000
687,142.56,2021-12-17 16:56:47.265625
688,157.67,2021-12-17 16:56:47.281250
689,175.17,2021-12-17 16:56:47.296875
690,193.46,2021-12-17 16:56:47.312500
691,209.97,2021-12-17 16:56:47.328125
692,221.96,2021-12-17 16:56:47.343750
693,227.6,2021-12-17 16:56:47.359375
694,226.59,2021-12-17 16:56:47.375000
695,220.24,2021-12-17 16:56:47.390625
696,210.8,2021-12-17 16:56:47.406250
697,200.45,2021-12-17 16:56:47.421875
698,190.32,2021-12-17 16:56:47.437500
699,180.27,2021-12-17 16:56:47.453125
700,169.17,2021-12-17 16:56:47.468750
701,155.79,2021-12-17 16:56:47.484375
702,139.59,2021-12-17 16:56:47.500000
703,121.04,2021-12-17 16:56:47.515625
704,101.47,2021-12-17 16:56:47.531250
705,82.45,2021-12-17 16:56:47.546875
706,65.24,2021-12-17 16:56:47.562500
707,50.48,2021-12-17 16:56:47.578125
708,38.31,2021-12-17 16:56:47.593750
709,28.55,2021-12-17 16:56:47.609375
710,20.99,2021-12-17 16:56:47.625000
711,15.51,2021-12-17 16:56:47.640625
712,11.86,2021-12-17 16:56:47.656250
713,9.51,2021-12-17 16:56:47.671875
714,7.62,2021-12-17 16:56:47.687500
715,5.28,2021-12-17 16:56:47.703125
716,1.84,2021-12-17 16:56:47.718750
717,-2.79,2021-12-17 16:56:47.734375
718,-8.12,2021-12-17 16:56:47.750000
719,-13.36,2021-12-17 16:56:47.765625
720,-17.73,2021-12-17 16:56:47.781250
721,-20.92,2021-12-17 16:56:47.796875
722,-23.21,2021-12-17 16:56:47.812500
723,-25.37,2021-12-17 16:56:47.828125
724,-28.49,2021-12-17 16:56:47.843750
725,-33.53,2021-12-17 16:56:47.859375
726,-41.0,2021-12-17 16:56:47.875000
727,-50.6,2021-12-17 16:56:47.890625
728,-61.1,2021-12-17 16:56:47.906250
729,-70.47,2021-12-17 16:56:47.921875
730,-76.26,2021-12-17 16:56:47.937500
731,-76.19,2021-12-17 16:56:47.953125
732,-68.89,2021-12-17 16:56:47.968750
733,-54.27,2021-12-17 16:56:47.984375
734,-33.65,2021-12-17 16:56:48.000000
735,-9.42,2021-12-17 16:56:48.015625
736,15.62,2021-12-17 16:56:48.031250
737,39.03,2021-12-17 16:56:48.046875
738,59.19,2021-12-17 16:56:48.062500
739,75.37,2021-12-17 16:56:48.078125
740,87.59,2021-12-17 16:56:48.093750
741,96.22,2021-12-17 16:56:48.109375
742,101.68,2021-12-17 16:56:48.125000
743,104.4,2021-12-17 16:56:48.140625
744,104.88,2021-12-17 16:56:48.156250
745,103.79,2021-12-17 16:56:48.171875
746,101.88,2021-12-17 16:56:48.187500
747,99.76,2021-12-17 16:56:48.203125
748,97.76,2021-12-17 16:56:48.218750
749,95.89,2021-12-17 16:56:48.234375
750,93.99,2021-12-17 16:56:48.250000
751,91.91,2021-12-17 16:56:48.265625
752,89.68,2021-12-17 16:56:48.281250
753,87.37,2021-12-17 16:56:48.296875
754,85.04,2021-12-17 16:56:48.312500
755,82.59,2021-12-17 16:56:48.328125
756,79.79,2021-12-17 16:56:48.343750
757,76.41,2021-12-17 16:56:48.359375
758,72.32,2021-12-17 16:56:48.375000
759,67.51,2021-12-17 16:56:48.390625
760,61.95,2021-12-17 16:56:48.406250
761,55.52,2021-12-17 16:56:48.421875
762,48.05,2021-12-17 16:56:48.437500
763,39.43,2021-12-17 16:56:48.453125
764,29.78,2021-12-17 16:56:48.468750
765,19.48,2021-12-17 16:56:48.484375
766,9.01,2021-12-17 16:56:48.500000
767,-1.24,2021-12-17 16:56:48.515625
768,-11.1,2021-12-17 16:56:48.531250
769,-20.63,2021-12-17 16:56:48.546875
770,-29.87,2021-12-17 16:56:48.562500
771,-38.79,2021-12-17 16:56:48.578125
772,-47.27,2021-12-17 16:56:48.593750
773,-55.33,2021-12-17 16:56:48.609375
774,-63.28,2021-12-17 16:56:48.625000
775,-71.84,2021-12-17 16:56:48.640625
776,-81.98,2021-12-17 16:56:48.656250
777,-94.56,2021-12-17 16:56:48.671875
778,-110.05,2021-12-17 16:56:48.687500
779,-128.26,2021-12-17 16:56:48.703125
780,-148.22,2021-12-17 16:56:48.718750
781,-168.36,2021-12-17 16:56:48.734375
782,-186.65,2021-12-17 16:56:48.750000
783,-200.98,2021-12-17 16:56:48.765625
784,-209.43,2021-12-17 16:56:48.781250
785,-210.63,2021-12-17 16:56:48.796875
786,-204.01,2021-12-17 16:56:48.812500
787,-189.94,2021-12-17 16:56:48.828125
788,-169.76,2021-12-17 16:56:48.843750
789,-145.44,2021-12-17 16:56:48.859375
790,-119.17,2021-12-17 16:56:48.875000
791,-92.92,2021-12-17 16:56:48.890625
792,-68.02,2021-12-17 16:56:48.906250
793,-45.16,2021-12-17 16:56:48.921875
794,-24.45,2021-12-17 16:56:48.937500
795,-5.75,2021-12-17 16:56:48.953125
796,10.97,2021-12-17 16:56:48.968750
797,25.61,2021-12-17 16:56:48.984375
798,37.95,2021-12-17 16:56:49.000000
799,47.88,2021-12-17 16:56:49.015625
800,55.69,2021-12-17 16:56:49.031250
801,61.99,2021-12-17 16:56:49.046875
802,67.45,2021-12-17 16:56:49.062500
803,72.6,2021-12-17 16:56:49.078125
804,77.67,2021-12-17 16:56:49.093750
805,82.7,2021-12-17 16:56:49.109375
806,87.68,2021-12-17 16:56:49.125000
807,92.84,2021-12-17 16:56:49.140625
808,98.55,2021-12-17 16:56:49.156250
809,105.24,2021-12-17 16:56:49.171875
810,113.12,2021-12-17 16:56:49.187500
811,122.08,2021-12-17 16:56:49.203125
812,131.72,2021-12-17 16:56:49.218750
813,141.5,2021-12-17 16:56:49.234375
814,151.04,2021-12-17 16:56:49.250000
815,160.22,2021-12-17 16:56:49.265625
816,169.16,2021-12-17 16:56:49.281250
817,177.96,2021-12-17 16:56:49.296875
818,186.47,2021-12-17 16:56:49.312500
819,194.16,2021-12-17 16:56:49.328125
820,200.23,2021-12-17 16:56:49.343750
821,203.98,2021-12-17 16:56:49.359375
822,205.1,2021-12-17 16:56:49.375000
823,203.8,2021-12-17 16:56:49.390625
824,200.57,2021-12-17 16:56:49.406250
825,195.66,2021-12-17 16:56:49.421875
826,188.54,2021-12-17 16:56:49.437500
827,177.8,2021-12-17 16:56:49.453125
828,161.51,2021-12-17 16:56:49.468750
829,137.94,2021-12-17 16:56:49.484375
830,106.47,2021-12-17 16:56:49.500000
831,68.01,2021-12-17 16:56:49.515625
832,25.1,2021-12-17 16:56:49.531250
833,-18.56,2021-12-17 16:56:49.546875
834,-58.8,2021-12-17 16:56:49.562500
835,-91.89,2021-12-17 16:56:49.578125
836,-115.15,2021-12-17 16:56:49.593750
837,-127.45,2021-12-17 16:56:49.609375
838,-129.36,2021-12-17 16:56:49.625000
839,-122.81,2021-12-17 16:56:49.640625
840,-110.64,2021-12-17 16:56:49.656250
841,-95.75,2021-12-17 16:56:49.671875
842,-80.52,2021-12-17 16:56:49.687500
843,-66.41,2021-12-17 16:56:49.703125
844,-53.94,2021-12-17 16:56:49.718750
845,-43.07,2021-12-17 16:56:49.734375
846,-33.55,2021-12-17 16:56:49.750000
847,-25.3,2021-12-17 16:56:49.765625
848,-18.5,2021-12-17 16:56:49.781250
849,-13.5,2021-12-17 16:56:49.796875
850,-10.55,2021-12-17 16:56:49.812500
851,-9.68,2021-12-17 16:56:49.828125
852,-10.56,2021-12-17 16:56:49.843750
853,-12.58,2021-12-17 16:56:49.859375
854,-15.0,2021-12-17 16:56:49.875000
855,-17.14,2021-12-17 16:56:49.890625
856,-18.59,2021-12-17 16:56:49.906250
857,-19.22,2021-12-17 16:56:49.921875
858,-19.16,2021-12-17 16:56:49.937500
859,-18.63,2021-12-17 16:56:49.953125
860,-17.91,2021-12-17 16:56:49.968750
861,-17.21,2021-12-17 16:56:49.984375
862,-16.74,2021-12-17 16:56:50.000000
863,-16.63,2021-12-17 16:56:50.015625
864,-17.07,2021-12-17 16:56:50.031250
865,-18.2,2021-12-17 16:56:50.046875
866,-20.11,2021-12-17 16:56:50.062500
867,-22.81,2021-12-17 16:56:50.078125
868,-26.09,2021-12-17 16:56:50.093750
869,-29.67,2021-12-17 16:56:50.109375
870,-33.15,2021-12-17 16:56:50.125000
871,-36.23,2021-12-17 16:56:50.140625
872,-38.82,2021-12-17 16:56:50.156250
873,-41.05,2021-12-17 16:56:50.171875
874,-43.31,2021-12-17 16:56:50.187500
875,-46.14,2021-12-17 16:56:50.203125
876,-50.07,2021-12-17 16:56:50.218750
877,-55.6,2021-12-17 16:56:50.234375
878,-63.04,2021-12-17 16:56:50.250000
879,-72.41,2021-12-17 16:56:50.265625
880,-83.24,2021-12-17 16:56:50.281250
881,-94.46,2021-12-17 16:56:50.296875
882,-104.38,2021-12-17 16:56:50.312500
883,-110.88,2021-12-17 16:56:50.328125
884,-112.03,2021-12-17 16:56:50.343750
885,-106.61,2021-12-17 16:56:50.359375
886,-94.63,2021-12-17 16:56:50.375000
887,-77.36,2021-12-17 16:56:50.390625
888,-56.96,2021-12-17 16:56:50.406250
889,-35.84,2021-12-17 16:56:50.421875
890,-15.96,2021-12-17 16:56:50.437500
891,1.56,2021-12-17 16:56:50.453125
892,16.44,2021-12-17 16:56:50.468750
893,28.94,2021-12-17 16:56:50.484375
894,39.45,2021-12-17 16:56:50.500000
895,48.11,2021-12-17 16:56:50.515625
896,54.77,2021-12-17 16:56:50.531250
897,59.17,2021-12-17 16:56:50.546875
898,61.15,2021-12-17 16:56:50.562500
899,60.9,2021-12-17 16:56:50.578125
900,59.04,2021-12-17 16:56:50.593750
901,56.44,2021-12-17 16:56:50.609375
902,53.96,2021-12-17 16:56:50.625000
903,52.14,2021-12-17 16:56:50.640625
904,51.08,2021-12-17 16:56:50.656250
905,50.49,2021-12-17 16:56:50.671875
906,49.89,2021-12-17 16:56:50.687500
907,48.84,2021-12-17 16:56:50.703125
908,47.14,2021-12-17 16:56:50.718750
909,44.8,2021-12-17 16:56:50.734375
910,41.94,2021-12-17 16:56:50.750000
911,38.64,2021-12-17 16:56:50.765625
912,34.79,2021-12-17 16:56:50.781250
913,30.18,2021-12-17 16:56:50.796875
914,24.49,2021-12-17 16:56:50.812500
915,17.57,2021-12-17 16:56:50.828125
916,9.51,2021-12-17 16:56:50.843750
917,0.71,2021-12-17 16:56:50.859375
918,-8.26,2021-12-17 16:56:50.875000
919,-16.82,2021-12-17 16:56:50.890625
920,-24.63,2021-12-17 16:56:50.906250
921,-31.64,2021-12-17 16:56:50.921875
922,-38.14,2021-12-17 16:56:50.937500
923,-44.69,2021-12-17 16:56:50.953125
924,-51.88,2021-12-17 16:56:50.968750
925,-60.24,2021-12-17 16:56:50.984375
926,-70.07,2021-12-17 16:56:51.000000
927,-81.3,2021-12-17 16:56:51.015625
928,-93.45,2021-12-17 16:56:51.031250
929,-105.44,2021-12-17 16:56:51.046875
930,-115.61,2021-12-17 16:56:51.062500
931,-122.02,2021-12-17 16:56:51.078125
932,-122.9,2021-12-17 16:56:51.093750
933,-117.23,2021-12-17 16:56:51.109375
934,-105.19,2021-12-17 16:56:51.125000
935,-88.18,2021-12-17 16:56:51.140625
936,-68.42,2021-12-17 16:56:51.156250
937,-48.3,2021-12-17 16:56:51.171875
938,-29.61,2021-12-17 16:56:51.187500
939,-13.22,2021-12-17 16:56:51.203125
940,0.93,2021-12-17 16:56:51.218750
941,13.33,2021-12-17 16:56:51.234375
942,24.46,2021-12-17 16:56:51.250000
943,34.43,2021-12-17 16:56:51.265625
944,42.91,2021-12-17 16:56:51.281250
945,49.46,2021-12-17 16:56:51.296875
946,53.77,2021-12-17 16:56:51.312500
947,55.9,2021-12-17 16:56:51.328125
948,56.35,2021-12-17 16:56:51.343750
949,55.81,2021-12-17 16:56:51.359375
950,54.89,2021-12-17 16:56:51.375000
951,53.99,2021-12-17 16:56:51.390625
952,53.19,2021-12-17 16:56:51.406250
953,52.32,2021-12-17 16:56:51.421875
954,51.22,2021-12-17 16:56:51.437500
955,49.76,2021-12-17 16:56:51.453125
956,47.99,2021-12-17 16:56:51.468750
957,46.03,2021-12-17 16:56:51.484375
958,43.97,2021-12-17 16:56:51.500000
959,41.82,2021-12-17 16:56:51.515625
960,39.4,2021-12-17 16:56:51.531250
961,36.39,2021-12-17 16:56:51.546875
962,32.5,2021-12-17 16:56:51.562500
963,27.56,2021-12-17 16:56:51.578125
964,21.61,2021-12-17 16:56:51.593750
965,14.93,2021-12-17 16:56:51.609375
966,7.93,2021-12-17 16:56:51.625000
967,1.08,2021-12-17 16:56:51.640625
968,-5.26,2021-12-17 16:56:51.656250
969,-10.91,2021-12-17 16:56:51.671875
970,-15.99,2021-12-17 16:56:51.687500
971,-20.78,2021-12-17 16:56:51.703125
972,-25.73,2021-12-17 16:56:51.718750
973,-31.36,2021-12-17 16:56:51.734375
974,-38.14,2021-12-17 16:56:51.750000
975,-46.43,2021-12-17 16:56:51.765625
976,-56.26,2021-12-17 16:56:51.781250
977,-67.08,2021-12-17 16:56:51.796875
978,-77.67,2021-12-17 16:56:51.812500
979,-86.24,2021-12-17 16:56:51.828125
980,-90.83,2021-12-17 16:56:51.843750
981,-89.9,2021-12-17 16:56:51.859375
982,-82.86,2021-12-17 16:56:51.875000
983,-70.36,2021-12-17 16:56:51.890625
984,-54.08,2021-12-17 16:56:51.906250
985,-36.15,2021-12-17 16:56:51.921875
986,-18.56,2021-12-17 16:56:51.937500
987,-2.64,2021-12-17 16:56:51.953125
988,11.08,2021-12-17 16:56:51.968750
989,22.69,2021-12-17 16:56:51.984375
990,32.52,2021-12-17 16:56:52.000000
991,40.91,2021-12-17 16:56:52.015625
992,47.97,2021-12-17 16:56:52.031250
993,53.65,2021-12-17 16:56:52.046875
994,57.86,2021-12-17 16:56:52.062500
995,60.58,2021-12-17 16:56:52.078125
996,62.01,2021-12-17 16:56:52.093750
997,62.54,2021-12-17 16:56:52.109375
998,62.65,2021-12-17 16:56:52.125000
999,62.78,2021-12-17 16:56:52.140625
1000,63.16,2021-12-17 16:56:52.156250
1001,63.83,2021-12-17 16:56:52.171875
1002,64.69,2021-12-17 16:56:52.187500
1003,65.61,2021-12-17 16:56:52.203125
1004,66.47,2021-12-17 16:56:52.218750
1005,67.15,2021-12-17 16:56:52.234375
1006,67.44,2021-12-17 16:56:52.250000
1007,66.99,2021-12-17 16:56:52.265625
1008,65.36,2021-12-17 16:56:52.281250
1009,62.2,2021-12-17 16:56:52.296875
1010,57.39,2021-12-17 16:56:52.312500
1011,51.19,2021-12-17 16:56:52.328125
1012,44.07,2021-12-17 16:56:52.343750
1013,36.59,2021-12-17 16:56:52.359375
1014,29.1,2021-12-17 16:56:52.375000
1015,21.65,2021-12-17 16:56:52.390625
1016,14.07,2021-12-17 16:56:52.406250
1017,6.17,2021-12-17 16:56:52.421875
1018,-2.1,2021-12-17 16:56:52.437500
1019,-10.54,2021-12-17 16:56:52.453125
1020,-18.84,2021-12-17 16:56:52.468750
1021,-26.71,2021-12-17 16:56:52.484375
1022,-34.0,2021-12-17 16:56:52.500000
1023,-40.8,2021-12-17 16:56:52.515625
1024,-47.43,2021-12-17 16:56:52.531250
1025,-54.26,2021-12-17 16:56:52.546875
1026,-61.63,2021-12-17 16:56:52.562500
1027,-69.65,2021-12-17 16:56:52.578125
1028,-78.01,2021-12-17 16:56:52.593750
1029,-85.93,2021-12-17 16:56:52.609375
1030,-92.17,2021-12-17 16:56:52.625000
1031,-95.32,2021-12-17 16:56:52.640625
1032,-94.22,2021-12-17 16:56:52.656250
1033,-88.44,2021-12-17 16:56:52.671875
1034,-78.44,2021-12-17 16:56:52.687500
1035,-65.45,2021-12-17 16:56:52.703125
1036,-51.1,2021-12-17 16:56:52.718750
1037,-36.89,2021-12-17 16:56:52.734375
1038,-23.79,2021-12-17 16:56:52.750000
1039,-12.24,2021-12-17 16:56:52.765625
1040,-2.19,2021-12-17 16:56:52.781250
1041,6.53,2021-12-17 16:56:52.796875
1042,14.08,2021-12-17 16:56:52.812500
1043,20.42,2021-12-17 16:56:52.828125
1044,25.4,2021-12-17 16:56:52.843750
1045,28.92,2021-12-17 16:56:52.859375
1046,31.0,2021-12-17 16:56:52.875000
1047,31.87,2021-12-17 16:56:52.890625
1048,31.94,2021-12-17 16:56:52.906250
1049,31.71,2021-12-17 16:56:52.921875
1050,31.58,2021-12-17 16:56:52.937500
1051,31.82,2021-12-17 16:56:52.953125
1052,32.42,2021-12-17 16:56:52.968750
1053,33.17,2021-12-17 16:56:52.984375
1054,33.82,2021-12-17 16:56:53.000000
1055,34.15,2021-12-17 16:56:53.015625
1056,34.07,2021-12-17 16:56:53.031250
1057,33.59,2021-12-17 16:56:53.046875
1058,32.78,2021-12-17 16:56:53.062500
1059,31.69,2021-12-17 16:56:53.078125
1060,30.3,2021-12-17 16:56:53.093750
1061,28.47,2021-12-17 16:56:53.109375
1062,26.07,2021-12-17 16:56:53.125000
1063,23.01,2021-12-17 16:56:53.140625
1064,19.28,2021-12-17 16:56:53.156250
1065,15.01,2021-12-17 16:56:53.171875
1066,10.39,2021-12-17 16:56:53.187500
1067,5.67,2021-12-17 16:56:53.203125
1068,1.04,2021-12-17 16:56:53.218750
1069,-3.39,2021-12-17 16:56:53.234375
1070,-7.65,2021-12-17 16:56:53.250000
1071,-11.89,2021-12-17 16:56:53.265625
1072,-16.34,2021-12-17 16:56:53.281250
1073,-21.32,2021-12-17 16:56:53.296875
1074,-27.1,2021-12-17 16:56:53.312500
1075,-33.89,2021-12-17 16:56:53.328125
1076,-41.66,2021-12-17 16:56:53.343750
1077,-50.05,2021-12-17 16:56:53.359375
1078,-58.31,2021-12-17 16:56:53.375000
1079,-65.3,2021-12-17 16:56:53.390625
1080,-69.68,2021-12-17 16:56:53.406250
1081,-70.32,2021-12-17 16:56:53.421875
1082,-66.61,2021-12-17 16:56:53.437500
1083,-58.69,2021-12-17 16:56:53.453125
1084,-47.54,2021-12-17 16:56:53.468750
1085,-34.65,2021-12-17 16:56:53.484375
1086,-21.68,2021-12-17 16:56:53.500000
1087,-9.97,2021-12-17 16:56:53.515625
1088,-0.24,2021-12-17 16:56:53.531250
1089,7.39,2021-12-17 16:56:53.546875
1090,13.26,2021-12-17 16:56:53.562500
1091,17.79,2021-12-17 16:56:53.578125
1092,21.28,2021-12-17 16:56:53.593750
1093,23.78,2021-12-17 16:56:53.609375
1094,25.18,2021-12-17 16:56:53.625000
1095,25.38,2021-12-17 16:56:53.640625
1096,24.52,2021-12-17 16:56:53.656250
1097,23.02,2021-12-17 16:56:53.671875
1098,21.41,2021-12-17 16:56:53.687500
1099,20.19,2021-12-17 16:56:53.703125
1100,19.6,2021-12-17 16:56:53.718750
1101,19.55,2021-12-17 16:56:53.734375
1102,19.71,2021-12-17 16:56:53.750000
1103,19.7,2021-12-17 16:56:53.765625
1104,19.3,2021-12-17 16:56:53.781250
1105,18.51,2021-12-17 16:56:53.796875
1106,17.5,2021-12-17 16:56:53.812500
1107,16.44,2021-12-17 16:56:53.828125
1108,15.32,2021-12-17 16:56:53.843750
1109,13.9,2021-12-17 16:56:53.859375
1110,11.75,2021-12-17 16:56:53.875000
1111,8.45,2021-12-17 16:56:53.890625
1112,3.83,2021-12-17 16:56:53.906250
1113,-1.92,2021-12-17 16:56:53.921875
1114,-8.27,2021-12-17 16:56:53.937500
1115,-14.52,2021-12-17 16:56:53.953125
1116,-20.09,2021-12-17 16:56:53.968750
1117,-24.71,2021-12-17 16:56:53.984375
1118,-28.48,2021-12-17 16:56:54.000000
1119,-31.8,2021-12-17 16:56:54.015625
1120,-35.18,2021-12-17 16:56:54.031250
1121,-39.08,2021-12-17 16:56:54.046875
1122,-43.77,2021-12-17 16:56:54.062500
1123,-49.25,2021-12-17 16:56:54.078125
1124,-55.21,2021-12-17 16:56:54.093750
1125,-61.0,2021-12-17 16:56:54.109375
1126,-65.66,2021-12-17 16:56:54.125000
1127,-68.01,2021-12-17 16:56:54.140625
1128,-67.02,2021-12-17 16:56:54.156250
1129,-62.08,2021-12-17 16:56:54.171875
1130,-53.31,2021-12-17 16:56:54.187500
1131,-41.63,2021-12-17 16:56:54.203125
1132,-28.45,2021-12-17 16:56:54.218750
1133,-15.3,2021-12-17 16:56:54.234375
1134,-3.41,2021-12-17 16:56:54.250000
1135,6.63,2021-12-17 16:56:54.265625
1136,14.8,2021-12-17 16:56:54.281250
1137,21.42,2021-12-17 16:56:54.296875
1138,26.93,2021-12-17 16:56:54.312500
1139,31.58,2021-12-17 16:56:54.328125
1140,35.45,2021-12-17 16:56:54.343750
1141,38.44,2021-12-17 16:56:54.359375
1142,40.49,2021-12-17 16:56:54.375000
1143,41.61,2021-12-17 16:56:54.390625
1144,41.97,2021-12-17 16:56:54.406250
1145,41.84,2021-12-17 16:56:54.421875
1146,41.46,2021-12-17 16:56:54.437500
1147,40.97,2021-12-17 16:56:54.453125
1148,40.41,2021-12-17 16:56:54.468750
1149,39.72,2021-12-17 16:56:54.484375
1150,38.85,2021-12-17 16:56:54.500000
1151,37.78,2021-12-17 16:56:54.515625
1152,36.54,2021-12-17 16:56:54.531250
1153,35.13,2021-12-17 16:56:54.546875
1154,33.58,2021-12-17 16:56:54.562500
1155,31.86,2021-12-17 16:56:54.578125
1156,29.95,2021-12-17 16:56:54.593750
1157,27.78,2021-12-17 16:56:54.609375
1158,25.27,2021-12-17 16:56:54.625000
1159,22.27,2021-12-17 16:56:54.640625
1160,18.64,2021-12-17 16:56:54.656250
1161,14.26,2021-12-17 16:56:54.671875
1162,9.12,2021-12-17 16:56:54.687500
1163,3.34,2021-12-17 16:56:54.703125
1164,-2.82,2021-12-17 16:56:54.718750
1165,-9.02,2021-12-17 16:56:54.734375
1166,-14.94,2021-12-17 16:56:54.750000
1167,-20.39,2021-12-17 16:56:54.765625
1168,-25.36,2021-12-17 16:56:54.781250
1169,-29.98,2021-12-17 16:56:54.796875
1170,-34.5,2021-12-17 16:56:54.812500
1171,-39.25,2021-12-17 16:56:54.828125
1172,-44.55,2021-12-17 16:56:54.843750
1173,-50.56,2021-12-17 16:56:54.859375
1174,-57.06,2021-12-17 16:56:54.875000
1175,-63.3,2021-12-17 16:56:54.890625
1176,-68.12,2021-12-17 16:56:54.906250
1177,-70.11,2021-12-17 16:56:54.921875
1178,-68.15,2021-12-17 16:56:54.937500
1179,-61.77,2021-12-17 16:56:54.953125
1180,-51.37,2021-12-17 16:56:54.968750
1181,-38.1,2021-12-17 16:56:54.984375
1182,-23.47,2021-12-17 16:56:55.000000
1183,-8.98,2021-12-17 16:56:55.015625
1184,4.3,2021-12-17 16:56:55.031250
1185,15.72,2021-12-17 16:56:55.046875
1186,25.04,2021-12-17 16:56:55.062500
1187,32.24,2021-12-17 16:56:55.078125
1188,37.5,2021-12-17 16:56:55.093750
1189,41.07,2021-12-17 16:56:55.109375
1190,43.37,2021-12-17 16:56:55.125000
1191,44.81,2021-12-17 16:56:55.140625
1192,45.76,2021-12-17 16:56:55.156250
1193,46.4,2021-12-17 16:56:55.171875
1194,46.72,2021-12-17 16:56:55.187500
1195,46.61,2021-12-17 16:56:55.203125
1196,45.94,2021-12-17 16:56:55.218750
1197,44.75,2021-12-17 16:56:55.234375
1198,43.16,2021-12-17 16:56:55.250000
1199,41.43,2021-12-17 16:56:55.265625
1200,39.77,2021-12-17 16:56:55.281250
1201,38.31,2021-12-17 16:56:55.296875
1202,37.07,2021-12-17 16:56:55.312500
1203,35.99,2021-12-17 16:56:55.328125
1204,34.97,2021-12-17 16:56:55.343750
1205,33.87,2021-12-17 16:56:55.359375
1206,32.61,2021-12-17 16:56:55.375000
1207,31.05,2021-12-17 16:56:55.390625
1208,29.05,2021-12-17 16:56:55.406250
1209,26.49,2021-12-17 16:56:55.421875
1210,23.19,2021-12-17 16:56:55.437500
1211,19.05,2021-12-17 16:56:55.453125
1212,14.13,2021-12-17 16:56:55.468750
1213,8.58,2021-12-17 16:56:55.484375
1214,2.71,2021-12-17 16:56:55.500000
1215,-3.11,2021-12-17 16:56:55.515625
1216,-8.55,2021-12-17 16:56:55.531250
1217,-13.39,2021-12-17 16:56:55.546875
1218,-17.61,2021-12-17 16:56:55.562500
1219,-21.39,2021-12-17 16:56:55.578125
1220,-25.06,2021-12-17 16:56:55.593750
1221,-28.96,2021-12-17 16:56:55.609375
1222,-33.46,2021-12-17 16:56:55.625000
1223,-38.9,2021-12-17 16:56:55.640625
1224,-45.45,2021-12-17 16:56:55.656250
1225,-53.0,2021-12-17 16:56:55.671875
1226,-60.97,2021-12-17 16:56:55.687500
1227,-68.21,2021-12-17 16:56:55.703125
1228,-73.22,2021-12-17 16:56:55.718750
1229,-74.45,2021-12-17 16:56:55.734375
1230,-70.9,2021-12-17 16:56:55.750000
1231,-62.45,2021-12-17 16:56:55.765625
1232,-49.99,2021-12-17 16:56:55.781250
1233,-35.19,2021-12-17 16:56:55.796875
1234,-19.91,2021-12-17 16:56:55.812500
1235,-5.69,2021-12-17 16:56:55.828125
1236,6.65,2021-12-17 16:56:55.843750
1237,16.97,2021-12-17 16:56:55.859375
1238,25.52,2021-12-17 16:56:55.875000
1239,32.57,2021-12-17 16:56:55.890625
1240,38.11,2021-12-17 16:56:55.906250
1241,41.89,2021-12-17 16:56:55.921875
1242,43.61,2021-12-17 16:56:55.937500
1243,43.21,2021-12-17 16:56:55.953125
1244,40.99,2021-12-17 16:56:55.968750
1245,37.67,2021-12-17 16:56:55.984375
1246,34.1,2021-12-17 16:56:56.000000
1247,30.94,2021-12-17 16:56:56.015625
1248,28.5,2021-12-17 16:56:56.031250
1249,26.67,2021-12-17 16:56:56.046875
1250,25.24,2021-12-17 16:56:56.062500
1251,23.97,2021-12-17 16:56:56.078125
1252,22.8,2021-12-17 16:56:56.093750
1253,21.81,2021-12-17 16:56:56.109375
1254,21.06,2021-12-17 16:56:56.125000
1255,20.51,2021-12-17 16:56:56.140625
1256,19.86,2021-12-17 16:56:56.156250
1257,18.67,2021-12-17 16:56:56.171875
1258,16.45,2021-12-17 16:56:56.187500
1259,12.82,2021-12-17 16:56:56.203125
1260,7.63,2021-12-17 16:56:56.218750
1261,1.05,2021-12-17 16:56:56.234375
1262,-6.5,2021-12-17 16:56:56.250000
1263,-14.34,2021-12-17 16:56:56.265625
1264,-21.81,2021-12-17 16:56:56.281250
1265,-28.34,2021-12-17 16:56:56.296875
1266,-33.69,2021-12-17 16:56:56.312500
1267,-37.94,2021-12-17 16:56:56.328125
1268,-41.44,2021-12-17 16:56:56.343750
1269,-44.67,2021-12-17 16:56:56.359375
1270,-48.06,2021-12-17 16:56:56.375000
1271,-51.97,2021-12-17 16:56:56.390625
1272,-56.66,2021-12-17 16:56:56.406250
1273,-62.19,2021-12-17 16:56:56.421875
1274,-68.35,2021-12-17 16:56:56.437500
1275,-74.51,2021-12-17 16:56:56.453125
1276,-79.6,2021-12-17 16:56:56.468750
1277,-82.3,2021-12-17 16:56:56.484375
1278,-81.36,2021-12-17 16:56:56.500000
1279,-76.07,2021-12-17 16:56:56.515625
1280,-66.54,2021-12-17 16:56:56.531250
1281,-53.69,2021-12-17 16:56:56.546875
1282,-39.05,2021-12-17 16:56:56.562500
1283,-24.32,2021-12-17 16:56:56.578125
1284,-10.91,2021-12-17 16:56:56.593750
1285,0.35,2021-12-17 16:56:56.609375
1286,9.18,2021-12-17 16:56:56.625000
1287,15.76,2021-12-17 16:56:56.640625
1288,20.42,2021-12-17 16:56:56.656250
1289,23.37,2021-12-17 16:56:56.671875
1290,24.69,2021-12-17 16:56:56.687500
1291,24.37,2021-12-17 16:56:56.703125
1292,22.42,2021-12-17 16:56:56.718750
1293,19.06,2021-12-17 16:56:56.734375
1294,14.72,2021-12-17 16:56:56.750000
1295,9.97,2021-12-17 16:56:56.765625
1296,5.3,2021-12-17 16:56:56.781250
1297,0.99,2021-12-17 16:56:56.796875
1298,-2.97,2021-12-17 16:56:56.812500
1299,-6.76,2021-12-17 16:56:56.828125
1300,-10.57,2021-12-17 16:56:56.843750
1301,-14.43,2021-12-17 16:56:56.859375
1302,-18.2,2021-12-17 16:56:56.875000
1303,-21.59,2021-12-17 16:56:56.890625
1304,-24.31,2021-12-17 16:56:56.906250
1305,-26.11,2021-12-17 16:56:56.921875
1306,-26.82,2021-12-17 16:56:56.937500
1307,-26.25,2021-12-17 16:56:56.953125
1308,-24.05,2021-12-17 16:56:56.968750
1309,-19.87,2021-12-17 16:56:56.984375
1310,-13.45,2021-12-17 16:56:57.000000
1311,-4.93,2021-12-17 16:56:57.015625
1312,4.89,2021-12-17 16:56:57.031250
1313,14.53,2021-12-17 16:56:57.046875
1314,22.12,2021-12-17 16:56:57.062500
1315,25.78,2021-12-17 16:56:57.078125
1316,24.14,2021-12-17 16:56:57.093750
1317,16.73,2021-12-17 16:56:57.109375
1318,3.99,2021-12-17 16:56:57.125000
1319,-12.99,2021-12-17 16:56:57.140625
1320,-32.75,2021-12-17 16:56:57.156250
1321,-53.83,2021-12-17 16:56:57.171875
1322,-74.83,2021-12-17 16:56:57.187500
1323,-94.3,2021-12-17 16:56:57.203125
1324,-110.66,2021-12-17 16:56:57.218750
1325,-122.29,2021-12-17 16:56:57.234375
1326,-127.79,2021-12-17 16:56:57.250000
1327,-126.5,2021-12-17 16:56:57.265625
1328,-118.76,2021-12-17 16:56:57.281250
1329,-105.96,2021-12-17 16:56:57.296875
1330,-90.16,2021-12-17 16:56:57.312500
1331,-73.43,2021-12-17 16:56:57.328125
1332,-57.36,2021-12-17 16:56:57.343750
1333,-42.71,2021-12-17 16:56:57.359375
1334,-29.57,2021-12-17 16:56:57.375000
1335,-17.71,2021-12-17 16:56:57.390625
1336,-6.98,2021-12-17 16:56:57.406250
1337,2.54,2021-12-17 16:56:57.421875
1338,10.6,2021-12-17 16:56:57.437500
1339,16.86,2021-12-17 16:56:57.453125
1340,21.27,2021-12-17 16:56:57.468750
1341,24.01,2021-12-17 16:56:57.484375
1342,25.46,2021-12-17 16:56:57.500000
1343,26.12,2021-12-17 16:56:57.515625
1344,26.47,2021-12-17 16:56:57.531250
1345,26.89,2021-12-17 16:56:57.546875
1346,27.69,2021-12-17 16:56:57.562500
1347,29.02,2021-12-17 16:56:57.578125
1348,30.87,2021-12-17 16:56:57.593750
1349,33.1,2021-12-17 16:56:57.609375
1350,35.41,2021-12-17 16:56:57.625000
1351,37.51,2021-12-17 16:56:57.640625
1352,39.18,2021-12-17 16:56:57.656250
1353,40.35,2021-12-17 16:56:57.671875
1354,41.04,2021-12-17 16:56:57.687500
1355,41.23,2021-12-17 16:56:57.703125
1356,40.75,2021-12-17 16:56:57.718750
1357,39.33,2021-12-17 16:56:57.734375
1358,36.64,2021-12-17 16:56:57.750000
1359,32.57,2021-12-17 16:56:57.765625
1360,27.26,2021-12-17 16:56:57.781250
1361,21.22,2021-12-17 16:56:57.796875
1362,15.05,2021-12-17 16:56:57.812500
1363,9.35,2021-12-17 16:56:57.828125
1364,4.41,2021-12-17 16:56:57.843750
1365,0.2,2021-12-17 16:56:57.859375
1366,-3.6,2021-12-17 16:56:57.875000
1367,-7.46,2021-12-17 16:56:57.890625
1368,-11.88,2021-12-17 16:56:57.906250
1369,-17.29,2021-12-17 16:56:57.921875
1370,-23.81,2021-12-17 16:56:57.937500
1371,-31.23,2021-12-17 16:56:57.953125
1372,-38.82,2021-12-17 16:56:57.968750
1373,-45.42,2021-12-17 16:56:57.984375
1374,-49.58,2021-12-17 16:56:58.000000
1375,-49.95,2021-12-17 16:56:58.015625
1376,-45.72,2021-12-17 16:56:58.031250
1377,-36.94,2021-12-17 16:56:58.046875
1378,-24.5,2021-12-17 16:56:58.062500
1379,-9.99,2021-12-17 16:56:58.078125
1380,4.88,2021-12-17 16:56:58.093750
1381,18.68,2021-12-17 16:56:58.109375
1382,30.56,2021-12-17 16:56:58.125000
1383,40.31,2021-12-17 16:56:58.140625
1384,48.18,2021-12-17 16:56:58.156250
1385,54.57,2021-12-17 16:56:58.171875
1386,59.82,2021-12-17 16:56:58.187500
1387,64.1,2021-12-17 16:56:58.203125
1388,67.38,2021-12-17 16:56:58.218750
1389,69.55,2021-12-17 16:56:58.234375
1390,70.47,2021-12-17 16:56:58.250000
1391,70.13,2021-12-17 16:56:58.265625
1392,68.71,2021-12-17 16:56:58.281250
1393,66.54,2021-12-17 16:56:58.296875
1394,64.05,2021-12-17 16:56:58.312500
1395,61.64,2021-12-17 16:56:58.328125
1396,59.54,2021-12-17 16:56:58.343750
1397,57.77,2021-12-17 16:56:58.359375
1398,56.21,2021-12-17 16:56:58.375000
1399,54.64,2021-12-17 16:56:58.390625
1400,52.87,2021-12-17 16:56:58.406250
1401,50.76,2021-12-17 16:56:58.421875
1402,48.13,2021-12-17 16:56:58.437500
1403,44.87,2021-12-17 16:56:58.453125
1404,40.84,2021-12-17 16:56:58.468750
1405,35.99,2021-12-17 16:56:58.484375
1406,30.35,2021-12-17 16:56:58.500000
1407,24.16,2021-12-17 16:56:58.515625
1408,17.73,2021-12-17 16:56:58.531250
1409,11.38,2021-12-17 16:56:58.546875
1410,5.37,2021-12-17 16:56:58.562500
1411,-0.19,2021-12-17 16:56:58.578125
1412,-5.35,2021-12-17 16:56:58.593750
1413,-10.24,2021-12-17 16:56:58.609375
1414,-15.09,2021-12-17 16:56:58.625000
1415,-20.12,2021-12-17 16:56:58.640625
1416,-25.52,2021-12-17 16:56:58.656250
1417,-31.35,2021-12-17 16:56:58.671875
1418,-37.49,2021-12-17 16:56:58.687500
1419,-43.59,2021-12-17 16:56:58.703125
1420,-49.04,2021-12-17 16:56:58.718750
1421,-53.06,2021-12-17 16:56:58.734375
1422,-54.86,2021-12-17 16:56:58.750000
1423,-53.83,2021-12-17 16:56:58.765625
1424,-49.77,2021-12-17 16:56:58.781250
1425,-42.92,2021-12-17 16:56:58.796875
1426,-33.98,2021-12-17 16:56:58.812500
1427,-23.86,2021-12-17 16:56:58.828125
1428,-13.45,2021-12-17 16:56:58.843750
1429,-3.39,2021-12-17 16:56:58.859375
1430,6.02,2021-12-17 16:56:58.875000
1431,14.7,2021-12-17 16:56:58.890625
1432,22.62,2021-12-17 16:56:58.906250
1433,29.69,2021-12-17 16:56:58.921875
1434,35.66,2021-12-17 16:56:58.937500
1435,40.22,2021-12-17 16:56:58.953125
1436,43.22,2021-12-17 16:56:58.968750
1437,44.74,2021-12-17 16:56:58.984375
1438,45.17,2021-12-17 16:56:59.000000
1439,45.17,2021-12-17 16:56:59.015625
1440,45.31,2021-12-17 16:56:59.031250
1441,45.97,2021-12-17 16:56:59.046875
1442,47.18,2021-12-17 16:56:59.062500
1443,48.62,2021-12-17 16:56:59.078125
1444,49.77,2021-12-17 16:56:59.093750
1445,50.09,2021-12-17 16:56:59.109375
1446,49.27,2021-12-17 16:56:59.125000
1447,47.24,2021-12-17 16:56:59.140625
1448,44.24,2021-12-17 16:56:59.156250
1449,40.65,2021-12-17 16:56:59.171875
1450,36.86,2021-12-17 16:56:59.187500
1451,33.14,2021-12-17 16:56:59.203125
1452,29.63,2021-12-17 16:56:59.218750
1453,26.36,2021-12-17 16:56:59.234375
1454,23.33,2021-12-17 16:56:59.250000
1455,20.54,2021-12-17 16:56:59.265625
1456,17.95,2021-12-17 16:56:59.281250
1457,15.54,2021-12-17 16:56:59.296875
1458,13.21,2021-12-17 16:56:59.312500
1459,10.88,2021-12-17 16:56:59.328125
1460,8.46,2021-12-17 16:56:59.343750
1461,5.91,2021-12-17 16:56:59.359375
1462,3.24,2021-12-17 16:56:59.375000
1463,0.58,2021-12-17 16:56:59.390625
1464,-1.97,2021-12-17 16:56:59.406250
1465,-4.25,2021-12-17 16:56:59.421875
1466,-6.12,2021-12-17 16:56:59.437500
1467,-7.52,2021-12-17 16:56:59.453125
1468,-8.58,2021-12-17 16:56:59.468750
1469,-9.6,2021-12-17 16:56:59.484375
1470,-11.05,2021-12-17 16:56:59.500000
1471,-13.39,2021-12-17 16:56:59.515625
1472,-16.95,2021-12-17 16:56:59.531250
1473,-21.8,2021-12-17 16:56:59.546875
1474,-27.7,2021-12-17 16:56:59.562500
1475,-34.1,2021-12-17 16:56:59.578125
1476,-40.18,2021-12-17 16:56:59.593750
1477,-44.93,2021-12-17 16:56:59.609375
1478,-47.29,2021-12-17 16:56:59.625000
1479,-46.34,2021-12-17 16:56:59.640625
1480,-41.56,2021-12-17 16:56:59.656250
1481,-33.01,2021-12-17 16:56:59.671875
1482,-21.35,2021-12-17 16:56:59.687500
1483,-7.74,2021-12-17 16:56:59.703125
1484,6.51,2021-12-17 16:56:59.718750
1485,20.18,2021-12-17 16:56:59.734375
1486,32.39,2021-12-17 16:56:59.750000
1487,42.73,2021-12-17 16:56:59.765625
1488,51.08,2021-12-17 16:56:59.781250
1489,57.53,2021-12-17 16:56:59.796875
1490,62.14,2021-12-17 16:56:59.812500
1491,64.91,2021-12-17 16:56:59.828125
1492,65.84,2021-12-17 16:56:59.843750
1493,64.99,2021-12-17 16:56:59.859375
1494,62.64,2021-12-17 16:56:59.875000
1495,59.34,2021-12-17 16:56:59.890625
1496,55.75,2021-12-17 16:56:59.906250
1497,52.53,2021-12-17 16:56:59.921875
1498,50.08,2021-12-17 16:56:59.937500
1499,48.44,2021-12-17 16:56:59.953125
1500,47.38,2021-12-17 16:56:59.968750
1501,46.45,2021-12-17 16:56:59.984375
1502,45.21,2021-12-17 16:57:00.000000
1503,43.38,2021-12-17 16:57:00.015625
1504,40.85,2021-12-17 16:57:00.031250
1505,37.62,2021-12-17 16:57:00.046875
1506,33.76,2021-12-17 16:57:00.062500
1507,29.25,2021-12-17 16:57:00.078125
1508,24.03,2021-12-17 16:57:00.093750
1509,18.13,2021-12-17 16:57:00.109375
1510,11.78,2021-12-17 16:57:00.125000
1511,5.43,2021-12-17 16:57:00.140625
1512,-0.3,2021-12-17 16:57:00.156250
1513,-4.8,2021-12-17 16:57:00.171875
1514,-7.75,2021-12-17 16:57:00.187500
1515,-9.27,2021-12-17 16:57:00.203125
1516,-9.88,2021-12-17 16:57:00.218750
1517,-10.36,2021-12-17 16:57:00.234375
1518,-11.44,2021-12-17 16:57:00.250000
1519,-13.6,2021-12-17 16:57:00.265625
1520,-17.05,2021-12-17 16:57:00.281250
1521,-21.71,2021-12-17 16:57:00.296875
1522,-27.32,2021-12-17 16:57:00.312500
1523,-33.49,2021-12-17 16:57:00.328125
1524,-39.6,2021-12-17 16:57:00.343750
1525,-44.87,2021-12-17 16:57:00.359375
1526,-48.35,2021-12-17 16:57:00.375000
1527,-49.2,2021-12-17 16:57:00.390625
1528,-46.97,2021-12-17 16:57:00.406250
1529,-41.76,2021-12-17 16:57:00.421875
1530,-34.31,2021-12-17 16:57:00.437500
1531,-25.73,2021-12-17 16:57:00.453125
1532,-17.16,2021-12-17 16:57:00.468750
1533,-9.42,2021-12-17 16:57:00.484375
1534,-2.86,2021-12-17 16:57:00.500000
1535,2.64,2021-12-17 16:57:00.515625
1536,7.36,2021-12-17 16:57:00.531250
1537,11.54,2021-12-17 16:57:00.546875
1538,15.2,2021-12-17 16:57:00.562500
1539,18.2,2021-12-17 16:57:00.578125
1540,20.41,2021-12-17 16:57:00.593750
1541,21.78,2021-12-17 16:57:00.609375
1542,22.48,2021-12-17 16:57:00.625000
1543,22.75,2021-12-17 16:57:00.640625
1544,22.85,2021-12-17 16:57:00.656250
1545,22.91,2021-12-17 16:57:00.671875
1546,23.01,2021-12-17 16:57:00.687500
1547,23.18,2021-12-17 16:57:00.703125
1548,23.55,2021-12-17 16:57:00.718750
1549,24.31,2021-12-17 16:57:00.734375
1550,25.63,2021-12-17 16:57:00.750000
1551,27.58,2021-12-17 16:57:00.765625
1552,30.06,2021-12-17 16:57:00.781250
1553,32.8,2021-12-17 16:57:00.796875
1554,35.49,2021-12-17 16:57:00.812500
1555,37.74,2021-12-17 16:57:00.828125
1556,39.25,2021-12-17 16:57:00.843750
1557,39.7,2021-12-17 16:57:00.859375
1558,38.85,2021-12-17 16:57:00.875000
1559,36.55,2021-12-17 16:57:00.890625
1560,32.84,2021-12-17 16:57:00.906250
1561,27.91,2021-12-17 16:57:00.921875
1562,22.09,2021-12-17 16:57:00.937500
1563,15.69,2021-12-17 16:57:00.953125
1564,8.88,2021-12-17 16:57:00.968750
1565,1.65,2021-12-17 16:57:00.984375
1566,-6.21,2021-12-17 16:57:01.000000
1567,-14.9,2021-12-17 16:57:01.015625
1568,-24.51,2021-12-17 16:57:01.031250
1569,-34.83,2021-12-17 16:57:01.046875
1570,-45.32,2021-12-17 16:57:01.062500
1571,-55.04,2021-12-17 16:57:01.078125
1572,-62.85,2021-12-17 16:57:01.093750
1573,-67.46,2021-12-17 16:57:01.109375
1574,-67.76,2021-12-17 16:57:01.125000
1575,-63.13,2021-12-17 16:57:01.140625
1576,-53.75,2021-12-17 16:57:01.156250
1577,-40.75,2021-12-17 16:57:01.171875
1578,-26.06,2021-12-17 16:57:01.187500
1579,-11.97,2021-12-17 16:57:01.203125
1580,-0.59,2021-12-17 16:57:01.218750
1581,6.7,2021-12-17 16:57:01.234375
1582,9.44,2021-12-17 16:57:01.250000
1583,8.15,2021-12-17 16:57:01.265625
1584,3.99,2021-12-17 16:57:01.281250
1585,-1.56,2021-12-17 16:57:01.296875
1586,-7.05,2021-12-17 16:57:01.312500
1587,-11.22,2021-12-17 16:57:01.328125
1588,-13.11,2021-12-17 16:57:01.343750
1589,-12.24,2021-12-17 16:57:01.359375
1590,-8.58,2021-12-17 16:57:01.375000
1591,-2.66,2021-12-17 16:57:01.390625
1592,4.67,2021-12-17 16:57:01.406250
1593,12.42,2021-12-17 16:57:01.421875
1594,19.76,2021-12-17 16:57:01.437500
1595,26.19,2021-12-17 16:57:01.453125
1596,31.56,2021-12-17 16:57:01.468750
1597,35.98,2021-12-17 16:57:01.484375
1598,39.62,2021-12-17 16:57:01.500000
1599,42.63,2021-12-17 16:57:01.515625
1600,45.1,2021-12-17 16:57:01.531250
1601,47.17,2021-12-17 16:57:01.546875
1602,49.01,2021-12-17 16:57:01.562500
1603,50.94,2021-12-17 16:57:01.578125
1604,53.33,2021-12-17 16:57:01.593750
1605,56.49,2021-12-17 16:57:01.609375
1606,60.67,2021-12-17 16:57:01.625000
1607,65.93,2021-12-17 16:57:01.640625
1608,72.24,2021-12-17 16:57:01.656250
1609,79.36,2021-12-17 16:57:01.671875
1610,87.04,2021-12-17 16:57:01.687500
1611,95.02,2021-12-17 16:57:01.703125
1612,103.16,2021-12-17 16:57:01.718750
1613,111.29,2021-12-17 16:57:01.734375
1614,119.15,2021-12-17 16:57:01.750000
1615,126.34,2021-12-17 16:57:01.765625
1616,132.28,2021-12-17 16:57:01.781250
1617,136.42,2021-12-17 16:57:01.796875
1618,138.33,2021-12-17 16:57:01.812500
1619,137.87,2021-12-17 16:57:01.828125
1620,135.17,2021-12-17 16:57:01.843750
1621,130.58,2021-12-17 16:57:01.859375
1622,124.67,2021-12-17 16:57:01.875000
1623,118.11,2021-12-17 16:57:01.890625
1624,111.49,2021-12-17 16:57:01.906250
1625,105.08,2021-12-17 16:57:01.921875
1626,98.38,2021-12-17 16:57:01.937500
1627,90.14,2021-12-17 16:57:01.953125
1628,78.56,2021-12-17 16:57:01.968750
1629,62.08,2021-12-17 16:57:01.984375
1630,40.09,2021-12-17 16:57:02.000000
1631,13.55,2021-12-17 16:57:02.015625
1632,-15.07,2021-12-17 16:57:02.031250
1633,-42.47,2021-12-17 16:57:02.046875
1634,-65.3,2021-12-17 16:57:02.062500
1635,-81.02,2021-12-17 16:57:02.078125
1636,-88.23,2021-12-17 16:57:02.093750
1637,-86.87,2021-12-17 16:57:02.109375
1638,-78.21,2021-12-17 16:57:02.125000
1639,-64.73,2021-12-17 16:57:02.140625
1640,-49.79,2021-12-17 16:57:02.156250
1641,-36.91,2021-12-17 16:57:02.171875
1642,-28.8,2021-12-17 16:57:02.187500
1643,-26.3,2021-12-17 16:57:02.203125
1644,-28.03,2021-12-17 16:57:02.218750
1645,-30.77,2021-12-17 16:57:02.234375
1646,-30.76,2021-12-17 16:57:02.250000
1647,-25.04,2021-12-17 16:57:02.265625
1648,-12.42,2021-12-17 16:57:02.281250
1649,6.42,2021-12-17 16:57:02.296875
1650,29.71,2021-12-17 16:57:02.312500
1651,55.58,2021-12-17 16:57:02.328125
1652,82.72,2021-12-17 16:57:02.343750
1653,110.54,2021-12-17 16:57:02.359375
1654,138.47,2021-12-17 16:57:02.375000
1655,165.26,2021-12-17 16:57:02.390625
1656,188.53,2021-12-17 16:57:02.406250
1657,205.18,2021-12-17 16:57:02.421875
1658,212.22,2021-12-17 16:57:02.437500
1659,207.95,2021-12-17 16:57:02.453125
1660,192.71,2021-12-17 16:57:02.468750
1661,168.89,2021-12-17 16:57:02.484375
1662,140.15,2021-12-17 16:57:02.500000
1663,110.29,2021-12-17 16:57:02.515625
1664,82.12,2021-12-17 16:57:02.531250
1665,56.84,2021-12-17 16:57:02.546875
1666,34.23,2021-12-17 16:57:02.562500
1667,13.13,2021-12-17 16:57:02.578125
1668,-7.98,2021-12-17 16:57:02.593750
1669,-30.61,2021-12-17 16:57:02.609375
1670,-56.11,2021-12-17 16:57:02.625000
1671,-85.24,2021-12-17 16:57:02.640625
1672,-117.42,2021-12-17 16:57:02.656250
1673,-150.08,2021-12-17 16:57:02.671875
1674,-178.52,2021-12-17 16:57:02.687500
1675,-197.13,2021-12-17 16:57:02.703125
1676,-201.5,2021-12-17 16:57:02.718750
1677,-190.8,2021-12-17 16:57:02.734375
1678,-168.8,2021-12-17 16:57:02.750000
1679,-143.04,2021-12-17 16:57:02.765625
1680,-122.31,2021-12-17 16:57:02.781250
1681,-113.68,2021-12-17 16:57:02.796875
1682,-120.49,2021-12-17 16:57:02.812500
1683,-141.98,2021-12-17 16:57:02.828125
1684,-174.39,2021-12-17 16:57:02.843750
1685,-212.46,2021-12-17 16:57:02.859375
1686,-250.59,2021-12-17 16:57:02.875000
1687,-283.53,2021-12-17 16:57:02.890625
1688,-306.66,2021-12-17 16:57:02.906250
1689,-316.52,2021-12-17 16:57:02.921875
1690,-311.61,2021-12-17 16:57:02.937500
1691,-293.05,2021-12-17 16:57:02.953125
1692,-264.47,2021-12-17 16:57:02.968750
1693,-230.93,2021-12-17 16:57:02.984375
1694,-197.36,2021-12-17 16:57:03.000000
1695,-167.22,2021-12-17 16:57:03.015625
1696,-141.92,2021-12-17 16:57:03.031250
1697,-121.32,2021-12-17 16:57:03.046875
1698,-104.53,2021-12-17 16:57:03.062500
1699,-90.68,2021-12-17 16:57:03.078125
1700,-79.16,2021-12-17 16:57:03.093750
1701,-69.44,2021-12-17 16:57:03.109375
1702,-60.87,2021-12-17 16:57:03.125000
1703,-52.67,2021-12-17 16:57:03.140625
1704,-44.21,2021-12-17 16:57:03.156250
1705,-35.29,2021-12-17 16:57:03.171875
1706,-26.28,2021-12-17 16:57:03.187500
1707,-17.91,2021-12-17 16:57:03.203125
1708,-10.79,2021-12-17 16:57:03.218750
1709,-5.23,2021-12-17 16:57:03.234375
1710,-1.19,2021-12-17 16:57:03.250000
1711,1.47,2021-12-17 16:57:03.265625
1712,2.71,2021-12-17 16:57:03.281250
1713,2.45,2021-12-17 16:57:03.296875
1714,0.9,2021-12-17 16:57:03.312500
1715,-1.17,2021-12-17 16:57:03.328125
1716,-2.34,2021-12-17 16:57:03.343750
1717,-1.03,2021-12-17 16:57:03.359375
1718,3.94,2021-12-17 16:57:03.375000
1719,12.79,2021-12-17 16:57:03.390625
1720,24.7,2021-12-17 16:57:03.406250
1721,38.18,2021-12-17 16:57:03.421875
1722,51.69,2021-12-17 16:57:03.437500
1723,64.15,2021-12-17 16:57:03.453125
1724,75.13,2021-12-17 16:57:03.468750
1725,84.76,2021-12-17 16:57:03.484375
1726,93.42,2021-12-17 16:57:03.500000
1727,101.42,2021-12-17 16:57:03.515625
1728,108.77,2021-12-17 16:57:03.531250
1729,114.96,2021-12-17 16:57:03.546875
1730,118.93,2021-12-17 16:57:03.562500
1731,119.29,2021-12-17 16:57:03.578125
1732,114.7,2021-12-17 16:57:03.593750
1733,104.51,2021-12-17 16:57:03.609375
1734,89.16,2021-12-17 16:57:03.625000
1735,70.31,2021-12-17 16:57:03.640625
1736,50.3,2021-12-17 16:57:03.656250
1737,31.58,2021-12-17 16:57:03.671875
1738,16.04,2021-12-17 16:57:03.687500
1739,4.75,2021-12-17 16:57:03.703125
1740,-1.86,2021-12-17 16:57:03.718750
1741,-3.75,2021-12-17 16:57:03.734375
1742,-1.11,2021-12-17 16:57:03.750000
1743,5.57,2021-12-17 16:57:03.765625
1744,15.3,2021-12-17 16:57:03.781250
1745,26.42,2021-12-17 16:57:03.796875
1746,36.84,2021-12-17 16:57:03.812500
1747,44.41,2021-12-17 16:57:03.828125
1748,47.41,2021-12-17 16:57:03.843750
1749,44.78,2021-12-17 16:57:03.859375
1750,36.15,2021-12-17 16:57:03.875000
1751,21.63,2021-12-17 16:57:03.890625
1752,1.73,2021-12-17 16:57:03.906250
1753,-22.69,2021-12-17 16:57:03.921875
1754,-50.25,2021-12-17 16:57:03.937500
1755,-79.1,2021-12-17 16:57:03.953125
1756,-107.04,2021-12-17 16:57:03.968750
1757,-131.94,2021-12-17 16:57:03.984375
1758,-152.03,2021-12-17 16:57:04.000000
1759,-166.3,2021-12-17 16:57:04.015625
1760,-174.43,2021-12-17 16:57:04.031250
1761,-176.65,2021-12-17 16:57:04.046875
1762,-173.47,2021-12-17 16:57:04.062500
1763,-165.55,2021-12-17 16:57:04.078125
1764,-153.72,2021-12-17 16:57:04.093750
1765,-139.07,2021-12-17 16:57:04.109375
1766,-122.97,2021-12-17 16:57:04.125000
1767,-106.81,2021-12-17 16:57:04.140625
1768,-91.83,2021-12-17 16:57:04.156250
1769,-78.7,2021-12-17 16:57:04.171875
1770,-67.53,2021-12-17 16:57:04.187500
1771,-58.04,2021-12-17 16:57:04.203125
1772,-49.87,2021-12-17 16:57:04.218750
1773,-42.89,2021-12-17 16:57:04.234375
1774,-37.17,2021-12-17 16:57:04.250000
1775,-32.88,2021-12-17 16:57:04.265625
1776,-30.0,2021-12-17 16:57:04.281250
1777,-28.2,2021-12-17 16:57:04.296875
1778,-26.87,2021-12-17 16:57:04.312500
1779,-25.36,2021-12-17 16:57:04.328125
1780,-23.13,2021-12-17 16:57:04.343750
1781,-19.98,2021-12-17 16:57:04.359375
1782,-16.0,2021-12-17 16:57:04.375000
1783,-11.53,2021-12-17 16:57:04.390625
1784,-6.97,2021-12-17 16:57:04.406250
1785,-2.67,2021-12-17 16:57:04.421875
1786,1.16,2021-12-17 16:57:04.437500
1787,4.49,2021-12-17 16:57:04.453125
1788,7.34,2021-12-17 16:57:04.468750
1789,9.72,2021-12-17 16:57:04.484375
1790,11.54,2021-12-17 16:57:04.500000
1791,12.59,2021-12-17 16:57:04.515625
1792,12.6,2021-12-17 16:57:04.531250
1793,11.32,2021-12-17 16:57:04.546875
1794,8.7,2021-12-17 16:57:04.562500
1795,4.9,2021-12-17 16:57:04.578125
1796,0.28,2021-12-17 16:57:04.593750
1797,-4.72,2021-12-17 16:57:04.609375
1798,-9.68,2021-12-17 16:57:04.625000
1799,-14.37,2021-12-17 16:57:04.640625
1800,-18.78,2021-12-17 16:57:04.656250
1801,-23.11,2021-12-17 16:57:04.671875
1802,-27.69,2021-12-17 16:57:04.687500
1803,-32.89,2021-12-17 16:57:04.703125
1804,-38.96,2021-12-17 16:57:04.718750
1805,-45.94,2021-12-17 16:57:04.734375
1806,-53.47,2021-12-17 16:57:04.750000
1807,-60.79,2021-12-17 16:57:04.765625
1808,-66.91,2021-12-17 16:57:04.781250
1809,-70.79,2021-12-17 16:57:04.796875
1810,-71.68,2021-12-17 16:57:04.812500
1811,-69.38,2021-12-17 16:57:04.828125
1812,-64.22,2021-12-17 16:57:04.843750
1813,-57.02,2021-12-17 16:57:04.859375
1814,-48.75,2021-12-17 16:57:04.875000
1815,-40.34,2021-12-17 16:57:04.890625
1816,-32.49,2021-12-17 16:57:04.906250
1817,-25.67,2021-12-17 16:57:04.921875
1818,-20.11,2021-12-17 16:57:04.937500
1819,-15.85,2021-12-17 16:57:04.953125
1820,-12.74,2021-12-17 16:57:04.968750
1821,-10.39,2021-12-17 16:57:04.984375
1822,-8.23,2021-12-17 16:57:05.000000
1823,-5.71,2021-12-17 16:57:05.015625
1824,-2.49,2021-12-17 16:57:05.031250
1825,1.37,2021-12-17 16:57:05.046875
1826,5.42,2021-12-17 16:57:05.062500
1827,9.09,2021-12-17 16:57:05.078125
1828,11.84,2021-12-17 16:57:05.093750
1829,13.48,2021-12-17 16:57:05.109375
1830,14.19,2021-12-17 16:57:05.125000
1831,14.38,2021-12-17 16:57:05.140625
1832,14.46,2021-12-17 16:57:05.156250
1833,14.63,2021-12-17 16:57:05.171875
1834,14.78,2021-12-17 16:57:05.187500
1835,14.57,2021-12-17 16:57:05.203125
1836,13.61,2021-12-17 16:57:05.218750
1837,11.67,2021-12-17 16:57:05.234375
1838,8.73,2021-12-17 16:57:05.250000
1839,5.09,2021-12-17 16:57:05.265625
1840,1.12,2021-12-17 16:57:05.281250
1841,-2.85,2021-12-17 16:57:05.296875
1842,-6.59,2021-12-17 16:57:05.312500
1843,-10.06,2021-12-17 16:57:05.328125
1844,-13.37,2021-12-17 16:57:05.343750
1845,-16.79,2021-12-17 16:57:05.359375
1846,-20.64,2021-12-17 16:57:05.375000
1847,-25.33,2021-12-17 16:57:05.390625
1848,-31.08,2021-12-17 16:57:05.406250
1849,-37.85,2021-12-17 16:57:05.421875
1850,-45.03,2021-12-17 16:57:05.437500
1851,-51.51,2021-12-17 16:57:05.453125
1852,-55.84,2021-12-17 16:57:05.468750
1853,-56.72,2021-12-17 16:57:05.484375
1854,-53.45,2021-12-17 16:57:05.500000
1855,-46.18,2021-12-17 16:57:05.515625
1856,-35.91,2021-12-17 16:57:05.531250
1857,-24.01,2021-12-17 16:57:05.546875
1858,-11.78,2021-12-17 16:57:05.562500
1859,-0.04,2021-12-17 16:57:05.578125
1860,10.9,2021-12-17 16:57:05.593750
1861,21.03,2021-12-17 16:57:05.609375
1862,30.33,2021-12-17 16:57:05.625000
1863,38.51,2021-12-17 16:57:05.640625
1864,45.03,2021-12-17 16:57:05.656250
1865,49.4,2021-12-17 16:57:05.671875
1866,51.57,2021-12-17 16:57:05.687500
1867,52.07,2021-12-17 16:57:05.703125
1868,52.11,2021-12-17 16:57:05.718750
1869,53.06,2021-12-17 16:57:05.734375
1870,55.94,2021-12-17 16:57:05.750000
1871,60.88,2021-12-17 16:57:05.765625
1872,67.12,2021-12-17 16:57:05.781250
1873,73.3,2021-12-17 16:57:05.796875
1874,78.15,2021-12-17 16:57:05.812500
1875,81.13,2021-12-17 16:57:05.828125
1876,82.74,2021-12-17 16:57:05.843750
1877,84.2,2021-12-17 16:57:05.859375
1878,86.98,2021-12-17 16:57:05.875000
1879,92.0,2021-12-17 16:57:05.890625
1880,99.29,2021-12-17 16:57:05.906250
1881,107.91,2021-12-17 16:57:05.921875
1882,116.29,2021-12-17 16:57:05.937500
1883,122.55,2021-12-17 16:57:05.953125
1884,125.09,2021-12-17 16:57:05.968750
1885,122.92,2021-12-17 16:57:05.984375
1886,116.2,2021-12-17 16:57:06.000000
1887,106.27,2021-12-17 16:57:06.015625
1888,95.25,2021-12-17 16:57:06.031250
1889,85.3,2021-12-17 16:57:06.046875
1890,77.75,2021-12-17 16:57:06.062500
1891,72.61,2021-12-17 16:57:06.078125
1892,68.74,2021-12-17 16:57:06.093750
1893,64.85,2021-12-17 16:57:06.109375
1894,60.58,2021-12-17 16:57:06.125000
1895,57.11,2021-12-17 16:57:06.140625
1896,57.01,2021-12-17 16:57:06.156250
1897,63.33,2021-12-17 16:57:06.171875
1898,78.48,2021-12-17 16:57:06.187500
1899,103.2,2021-12-17 16:57:06.203125
1900,135.93,2021-12-17 16:57:06.218750
1901,172.6,2021-12-17 16:57:06.234375
1902,207.24,2021-12-17 16:57:06.250000
1903,233.22,2021-12-17 16:57:06.265625
1904,245.41,2021-12-17 16:57:06.281250
1905,242.14,2021-12-17 16:57:06.296875
1906,226.32,2021-12-17 16:57:06.312500
1907,204.7,2021-12-17 16:57:06.328125
1908,185.25,2021-12-17 16:57:06.343750
1909,173.89,2021-12-17 16:57:06.359375
1910,172.03,2021-12-17 16:57:06.375000
1911,176.39,2021-12-17 16:57:06.390625
1912,181.06,2021-12-17 16:57:06.406250
1913,180.69,2021-12-17 16:57:06.421875
1914,172.93,2021-12-17 16:57:06.437500
1915,158.85,2021-12-17 16:57:06.453125
1916,141.41,2021-12-17 16:57:06.468750
1917,123.17,2021-12-17 16:57:06.484375
1918,104.87,2021-12-17 16:57:06.500000
1919,85.53,2021-12-17 16:57:06.515625
1920,63.83,2021-12-17 16:57:06.531250
1921,39.59,2021-12-17 16:57:06.546875
1922,14.45,2021-12-17 16:57:06.562500
1923,-8.78,2021-12-17 16:57:06.578125
1924,-27.64,2021-12-17 16:57:06.593750
1925,-41.29,2021-12-17 16:57:06.609375
1926,-50.87,2021-12-17 16:57:06.625000
1927,-58.75,2021-12-17 16:57:06.640625
1928,-67.12,2021-12-17 16:57:06.656250
1929,-76.75,2021-12-17 16:57:06.671875
1930,-86.77,2021-12-17 16:57:06.687500
1931,-95.14,2021-12-17 16:57:06.703125
1932,-99.85,2021-12-17 16:57:06.718750
1933,-99.96,2021-12-17 16:57:06.734375
1934,-96.05,2021-12-17 16:57:06.750000
1935,-90.04,2021-12-17 16:57:06.765625
1936,-84.37,2021-12-17 16:57:06.781250
1937,-81.08,2021-12-17 16:57:06.796875
1938,-81.04,2021-12-17 16:57:06.812500
1939,-83.54,2021-12-17 16:57:06.828125
1940,-86.52,2021-12-17 16:57:06.843750
1941,-87.1,2021-12-17 16:57:06.859375
1942,-82.5,2021-12-17 16:57:06.875000
1943,-70.84,2021-12-17 16:57:06.890625
1944,-51.77,2021-12-17 16:57:06.906250
1945,-26.56,2021-12-17 16:57:06.921875
1946,2.12,2021-12-17 16:57:06.937500
1947,30.92,2021-12-17 16:57:06.953125
1948,56.62,2021-12-17 16:57:06.968750
1949,76.81,2021-12-17 16:57:06.984375
1950,90.27,2021-12-17 16:57:07.000000
1951,96.92,2021-12-17 16:57:07.015625
1952,97.45,2021-12-17 16:57:07.031250
1953,92.82,2021-12-17 16:57:07.046875
1954,84.01,2021-12-17 16:57:07.062500
1955,71.89,2021-12-17 16:57:07.078125
1956,57.3,2021-12-17 16:57:07.093750
1957,41.15,2021-12-17 16:57:07.109375
1958,24.5,2021-12-17 16:57:07.125000
1959,8.31,2021-12-17 16:57:07.140625
1960,-6.63,2021-12-17 16:57:07.156250
1961,-19.97,2021-12-17 16:57:07.171875
1962,-31.71,2021-12-17 16:57:07.187500
1963,-42.04,2021-12-17 16:57:07.203125
1964,-51.16,2021-12-17 16:57:07.218750
1965,-59.13,2021-12-17 16:57:07.234375
1966,-66.02,2021-12-17 16:57:07.250000
1967,-72.04,2021-12-17 16:57:07.265625
1968,-77.65,2021-12-17 16:57:07.281250
1969,-83.54,2021-12-17 16:57:07.296875
1970,-90.36,2021-12-17 16:57:07.312500
1971,-98.49,2021-12-17 16:57:07.328125
1972,-107.8,2021-12-17 16:57:07.343750
1973,-117.6,2021-12-17 16:57:07.359375
1974,-126.81,2021-12-17 16:57:07.375000
1975,-134.31,2021-12-17 16:57:07.390625
1976,-139.34,2021-12-17 16:57:07.406250
1977,-141.76,2021-12-17 16:57:07.421875
1978,-142.06,2021-12-17 16:57:07.437500
1979,-141.21,2021-12-17 16:57:07.453125
1980,-140.38,2021-12-17 16:57:07.468750
1981,-140.64,2021-12-17 16:57:07.484375
1982,-142.81,2021-12-17 16:57:07.500000
1983,-147.41,2021-12-17 16:57:07.515625
1984,-154.52,2021-12-17 16:57:07.531250
1985,-163.69,2021-12-17 16:57:07.546875
1986,-173.77,2021-12-17 16:57:07.562500
1987,-182.85,2021-12-17 16:57:07.578125
1988,-188.6,2021-12-17 16:57:07.593750
1989,-188.79,2021-12-17 16:57:07.609375
1990,-181.97,2021-12-17 16:57:07.625000
1991,-168.0,2021-12-17 16:57:07.640625
1992,-148.11,2021-12-17 16:57:07.656250
1993,-124.54,2021-12-17 16:57:07.671875
1994,-99.8,2021-12-17 16:57:07.687500
1995,-76.16,2021-12-17 16:57:07.703125
1996,-55.21,2021-12-17 16:57:07.718750
1997,-37.77,2021-12-17 16:57:07.734375
1998,-24.13,2021-12-17 16:57:07.750000
1999,-14.21,2021-12-17 16:57:07.765625
2000,-7.72,2021-12-17 16:57:07.781250
2001,-4.21,2021-12-17 16:57:07.796875
2002,-3.09,2021-12-17 16:57:07.812500
2003,-3.59,2021-12-17 16:57:07.828125
2004,-4.93,2021-12-17 16:57:07.843750
2005,-6.38,2021-12-17 16:57:07.859375
2006,-7.4,2021-12-17 16:57:07.875000
2007,-7.73,2021-12-17 16:57:07.890625
2008,-7.33,2021-12-17 16:57:07.906250
2009,-6.33,2021-12-17 16:57:07.921875
2010,-4.93,2021-12-17 16:57:07.937500
2011,-3.4,2021-12-17 16:57:07.953125
2012,-2.01,2021-12-17 16:57:07.968750
2013,-1.11,2021-12-17 16:57:07.984375
2014,-1.07,2021-12-17 16:57:08.000000
2015,-2.21,2021-12-17 16:57:08.015625
2016,-4.74,2021-12-17 16:57:08.031250
2017,-8.62,2021-12-17 16:57:08.046875
2018,-13.65,2021-12-17 16:57:08.062500
2019,-19.46,2021-12-17 16:57:08.078125
2020,-25.6,2021-12-17 16:57:08.093750
2021,-31.63,2021-12-17 16:57:08.109375
2022,-37.25,2021-12-17 16:57:08.125000
2023,-42.39,2021-12-17 16:57:08.140625
2024,-47.31,2021-12-17 16:57:08.156250
2025,-52.64,2021-12-17 16:57:08.171875
2026,-59.15,2021-12-17 16:57:08.187500
2027,-67.41,2021-12-17 16:57:08.203125
2028,-77.3,2021-12-17 16:57:08.218750
2029,-87.79,2021-12-17 16:57:08.234375
2030,-96.94,2021-12-17 16:57:08.250000
2031,-102.39,2021-12-17 16:57:08.265625
2032,-102.15,2021-12-17 16:57:08.281250
2033,-95.18,2021-12-17 16:57:08.296875
2034,-81.86,2021-12-17 16:57:08.312500
2035,-63.82,2021-12-17 16:57:08.328125
2036,-43.36,2021-12-17 16:57:08.343750
2037,-22.85,2021-12-17 16:57:08.359375
2038,-4.16,2021-12-17 16:57:08.375000
2039,11.59,2021-12-17 16:57:08.390625
2040,23.95,2021-12-17 16:57:08.406250
2041,32.95,2021-12-17 16:57:08.421875
2042,38.85,2021-12-17 16:57:08.437500
2043,42.05,2021-12-17 16:57:08.453125
2044,43.07,2021-12-17 16:57:08.468750
2045,42.54,2021-12-17 16:57:08.484375
2046,41.13,2021-12-17 16:57:08.500000
2047,39.47,2021-12-17 16:57:08.515625
2048,38.02,2021-12-17 16:57:08.531250
2049,36.99,2021-12-17 16:57:08.546875
2050,36.39,2021-12-17 16:57:08.562500
2051,36.03,2021-12-17 16:57:08.578125
2052,35.71,2021-12-17 16:57:08.593750
2053,35.29,2021-12-17 16:57:08.609375
2054,34.73,2021-12-17 16:57:08.625000
2055,34.03,2021-12-17 16:57:08.640625
2056,33.15,2021-12-17 16:57:08.656250
2057,31.88,2021-12-17 16:57:08.671875
2058,29.85,2021-12-17 16:57:08.687500
2059,26.58,2021-12-17 16:57:08.703125
2060,21.69,2021-12-17 16:57:08.718750
2061,15.09,2021-12-17 16:57:08.734375
2062,7.1,2021-12-17 16:57:08.750000
2063,-1.51,2021-12-17 16:57:08.765625
2064,-9.83,2021-12-17 16:57:08.781250
2065,-17.08,2021-12-17 16:57:08.796875
2066,-22.86,2021-12-17 16:57:08.812500
2067,-27.29,2021-12-17 16:57:08.828125
2068,-30.91,2021-12-17 16:57:08.843750
2069,-34.51,2021-12-17 16:57:08.859375
2070,-38.93,2021-12-17 16:57:08.875000
2071,-44.77,2021-12-17 16:57:08.890625
2072,-52.14,2021-12-17 16:57:08.906250
2073,-60.39,2021-12-17 16:57:08.921875
2074,-68.11,2021-12-17 16:57:08.937500
2075,-73.25,2021-12-17 16:57:08.953125
2076,-73.71,2021-12-17 16:57:08.968750
2077,-68.07,2021-12-17 16:57:08.984375
2078,-56.12,2021-12-17 16:57:09.000000
2079,-39.12,2021-12-17 16:57:09.015625
2080,-19.33,2021-12-17 16:57:09.031250
2081,0.75,2021-12-17 16:57:09.046875
2082,19.2,2021-12-17 16:57:09.062500
2083,35.15,2021-12-17 16:57:09.078125
2084,48.62,2021-12-17 16:57:09.093750
2085,60.05,2021-12-17 16:57:09.109375
2086,69.68,2021-12-17 16:57:09.125000
2087,77.36,2021-12-17 16:57:09.140625
2088,82.61,2021-12-17 16:57:09.156250
2089,85.01,2021-12-17 16:57:09.171875
2090,84.57,2021-12-17 16:57:09.187500
2091,81.83,2021-12-17 16:57:09.203125
2092,77.71,2021-12-17 16:57:09.218750
2093,73.18,2021-12-17 16:57:09.234375
2094,68.87,2021-12-17 16:57:09.250000
2095,65.0,2021-12-17 16:57:09.265625
2096,61.43,2021-12-17 16:57:09.281250
2097,57.93,2021-12-17 16:57:09.296875
2098,54.37,2021-12-17 16:57:09.312500
2099,50.86,2021-12-17 16:57:09.328125
2100,47.62,2021-12-17 16:57:09.343750
2101,44.82,2021-12-17 16:57:09.359375
2102,42.42,2021-12-17 16:57:09.375000
2103,40.03,2021-12-17 16:57:09.390625
2104,37.09,2021-12-17 16:57:09.406250
2105,33.06,2021-12-17 16:57:09.421875
2106,27.62,2021-12-17 16:57:09.437500
2107,20.84,2021-12-17 16:57:09.453125
2108,13.17,2021-12-17 16:57:09.468750
2109,5.21,2021-12-17 16:57:09.484375
2110,-2.43,2021-12-17 16:57:09.500000
2111,-9.42,2021-12-17 16:57:09.515625
2112,-15.77,2021-12-17 16:57:09.531250
2113,-21.87,2021-12-17 16:57:09.546875
2114,-28.35,2021-12-17 16:57:09.562500
2115,-35.86,2021-12-17 16:57:09.578125
2116,-44.88,2021-12-17 16:57:09.593750
2117,-55.46,2021-12-17 16:57:09.609375
2118,-67.1,2021-12-17 16:57:09.625000
2119,-78.68,2021-12-17 16:57:09.640625
2120,-88.56,2021-12-17 16:57:09.656250
2121,-94.91,2021-12-17 16:57:09.671875
2122,-96.18,2021-12-17 16:57:09.687500
2123,-91.58,2021-12-17 16:57:09.703125
2124,-81.47,2021-12-17 16:57:09.718750
2125,-67.31,2021-12-17 16:57:09.734375
2126,-51.28,2021-12-17 16:57:09.750000
2127,-35.61,2021-12-17 16:57:09.765625
2128,-22.0,2021-12-17 16:57:09.781250
2129,-11.14,2021-12-17 16:57:09.796875
2130,-2.72,2021-12-17 16:57:09.812500
2131,4.18,2021-12-17 16:57:09.828125
2132,10.53,2021-12-17 16:57:09.843750
2133,16.82,2021-12-17 16:57:09.859375
2134,22.91,2021-12-17 16:57:09.875000
2135,28.18,2021-12-17 16:57:09.890625
2136,31.98,2021-12-17 16:57:09.906250
2137,33.92,2021-12-17 16:57:09.921875
2138,34.18,2021-12-17 16:57:09.937500
2139,33.25,2021-12-17 16:57:09.953125
2140,31.61,2021-12-17 16:57:09.968750
2141,29.47,2021-12-17 16:57:09.984375
2142,26.59,2021-12-17 16:57:10.000000
2143,22.62,2021-12-17 16:57:10.015625
2144,17.34,2021-12-17 16:57:10.031250
2145,11.03,2021-12-17 16:57:10.046875
2146,4.34,2021-12-17 16:57:10.062500
2147,-1.88,2021-12-17 16:57:10.078125
2148,-7.01,2021-12-17 16:57:10.093750
2149,-10.77,2021-12-17 16:57:10.109375
2150,-13.21,2021-12-17 16:57:10.125000
2151,-14.41,2021-12-17 16:57:10.140625
2152,-14.11,2021-12-17 16:57:10.156250
2153,-11.59,2021-12-17 16:57:10.171875
2154,-5.83,2021-12-17 16:57:10.187500
2155,4.18,2021-12-17 16:57:10.203125
2156,18.95,2021-12-17 16:57:10.218750
2157,38.15,2021-12-17 16:57:10.234375
2158,60.63,2021-12-17 16:57:10.250000
2159,84.55,2021-12-17 16:57:10.265625
2160,107.81,2021-12-17 16:57:10.281250
2161,128.46,2021-12-17 16:57:10.296875
2162,144.96,2021-12-17 16:57:10.312500
2163,156.38,2021-12-17 16:57:10.328125
2164,162.42,2021-12-17 16:57:10.343750
2165,163.45,2021-12-17 16:57:10.359375
2166,160.45,2021-12-17 16:57:10.375000
2167,154.88,2021-12-17 16:57:10.390625
2168,148.5,2021-12-17 16:57:10.406250
2169,142.91,2021-12-17 16:57:10.421875
2170,139.29,2021-12-17 16:57:10.437500
2171,138.08,2021-12-17 16:57:10.453125
2172,139.04,2021-12-17 16:57:10.468750
2173,141.47,2021-12-17 16:57:10.484375
2174,144.47,2021-12-17 16:57:10.500000
2175,147.23,2021-12-17 16:57:10.515625
2176,149.09,2021-12-17 16:57:10.531250
2177,149.55,2021-12-17 16:57:10.546875
2178,148.13,2021-12-17 16:57:10.562500
2179,144.38,2021-12-17 16:57:10.578125
2180,137.92,2021-12-17 16:57:10.593750
2181,128.55,2021-12-17 16:57:10.609375
2182,116.41,2021-12-17 16:57:10.625000
2183,101.96,2021-12-17 16:57:10.640625
2184,85.99,2021-12-17 16:57:10.656250
2185,69.51,2021-12-17 16:57:10.671875
2186,53.61,2021-12-17 16:57:10.687500
2187,39.29,2021-12-17 16:57:10.703125
2188,27.26,2021-12-17 16:57:10.718750
2189,17.87,2021-12-17 16:57:10.734375
2190,10.93,2021-12-17 16:57:10.750000
2191,5.87,2021-12-17 16:57:10.765625
2192,1.9,2021-12-17 16:57:10.781250
2193,-1.65,2021-12-17 16:57:10.796875
2194,-5.15,2021-12-17 16:57:10.812500
2195,-8.59,2021-12-17 16:57:10.828125
2196,-11.76,2021-12-17 16:57:10.843750
2197,-14.59,2021-12-17 16:57:10.859375
2198,-17.28,2021-12-17 16:57:10.875000
2199,-20.3,2021-12-17 16:57:10.890625
2200,-24.18,2021-12-17 16:57:10.906250
2201,-29.21,2021-12-17 16:57:10.921875
2202,-35.23,2021-12-17 16:57:10.937500
2203,-41.7,2021-12-17 16:57:10.953125
2204,-47.98,2021-12-17 16:57:10.968750
2205,-53.67,2021-12-17 16:57:10.984375
2206,-58.75,2021-12-17 16:57:11.000000
2207,-63.55,2021-12-17 16:57:11.015625
2208,-68.47,2021-12-17 16:57:11.031250
2209,-73.83,2021-12-17 16:57:11.046875
2210,-79.75,2021-12-17 16:57:11.062500
2211,-86.17,2021-12-17 16:57:11.078125
2212,-92.88,2021-12-17 16:57:11.093750
2213,-99.47,2021-12-17 16:57:11.109375
2214,-105.19,2021-12-17 16:57:11.125000
2215,-108.86,2021-12-17 16:57:11.140625
2216,-109.12,2021-12-17 16:57:11.156250
2217,-104.84,2021-12-17 16:57:11.171875
2218,-95.64,2021-12-17 16:57:11.187500
2219,-82.2,2021-12-17 16:57:11.203125
2220,-66.03,2021-12-17 16:57:11.218750
2221,-49.0,2021-12-17 16:57:11.234375
2222,-32.62,2021-12-17 16:57:11.250000
2223,-17.68,2021-12-17 16:57:11.265625
2224,-4.29,2021-12-17 16:57:11.281250
2225,7.73,2021-12-17 16:57:11.296875
2226,18.39,2021-12-17 16:57:11.312500
2227,27.33,2021-12-17 16:57:11.328125
2228,34.02,2021-12-17 16:57:11.343750
2229,38.15,2021-12-17 16:57:11.359375
2230,39.87,2021-12-17 16:57:11.375000
2231,39.87,2021-12-17 16:57:11.390625
2232,39.09,2021-12-17 16:57:11.406250
2233,38.39,2021-12-17 16:57:11.421875
2234,38.26,2021-12-17 16:57:11.437500
2235,38.72,2021-12-17 16:57:11.453125
2236,39.49,2021-12-17 16:57:11.468750
2237,40.14,2021-12-17 16:57:11.484375
2238,40.31,2021-12-17 16:57:11.500000
2239,39.78,2021-12-17 16:57:11.515625
2240,38.52,2021-12-17 16:57:11.531250
2241,36.69,2021-12-17 16:57:11.546875
2242,34.47,2021-12-17 16:57:11.562500
2243,32.09,2021-12-17 16:57:11.578125
2244,29.57,2021-12-17 16:57:11.593750
2245,26.64,2021-12-17 16:57:11.609375
2246,22.81,2021-12-17 16:57:11.625000
2247,17.47,2021-12-17 16:57:11.640625
2248,10.2,2021-12-17 16:57:11.656250
2249,1.05,2021-12-17 16:57:11.671875
2250,-9.33,2021-12-17 16:57:11.687500
2251,-20.03,2021-12-17 16:57:11.703125
2252,-30.19,2021-12-17 16:57:11.718750
2253,-39.47,2021-12-17 16:57:11.734375
2254,-48.16,2021-12-17 16:57:11.750000
2255,-57.01,2021-12-17 16:57:11.765625
2256,-66.81,2021-12-17 16:57:11.781250
2257,-77.88,2021-12-17 16:57:11.796875
2258,-89.74,2021-12-17 16:57:11.812500
2259,-101.12,2021-12-17 16:57:11.828125
2260,-110.29,2021-12-17 16:57:11.843750
2261,-115.55,2021-12-17 16:57:11.859375
2262,-115.71,2021-12-17 16:57:11.875000
2263,-110.4,2021-12-17 16:57:11.890625
2264,-100.19,2021-12-17 16:57:11.906250
2265,-86.41,2021-12-17 16:57:11.921875
2266,-70.69,2021-12-17 16:57:11.937500
2267,-54.6,2021-12-17 16:57:11.953125
2268,-39.31,2021-12-17 16:57:11.968750
2269,-25.38,2021-12-17 16:57:11.984375
2270,-12.95,2021-12-17 16:57:12.000000
2271,-1.93,2021-12-17 16:57:12.015625
2272,7.72,2021-12-17 16:57:12.031250
2273,15.86,2021-12-17 16:57:12.046875
2274,22.17,2021-12-17 16:57:12.062500
2275,26.41,2021-12-17 16:57:12.078125
2276,28.61,2021-12-17 16:57:12.093750
2277,29.16,2021-12-17 16:57:12.109375
2278,28.75,2021-12-17 16:57:12.125000
2279,28.16,2021-12-17 16:57:12.140625
2280,27.99,2021-12-17 16:57:12.156250
2281,28.39,2021-12-17 16:57:12.171875
2282,29.15,2021-12-17 16:57:12.187500
2283,29.72,2021-12-17 16:57:12.203125
2284,29.64,2021-12-17 16:57:12.218750
2285,28.68,2021-12-17 16:57:12.234375
2286,27.01,2021-12-17 16:57:12.250000
2287,25.01,2021-12-17 16:57:12.265625
2288,23.1,2021-12-17 16:57:12.281250
2289,21.43,2021-12-17 16:57:12.296875
2290,19.7,2021-12-17 16:57:12.312500
2291,17.29,2021-12-17 16:57:12.328125
2292,13.52,2021-12-17 16:57:12.343750
2293,8.03,2021-12-17 16:57:12.359375
2294,0.98,2021-12-17 16:57:12.375000
2295,-6.9,2021-12-17 16:57:12.390625
2296,-14.55,2021-12-17 16:57:12.406250
2297,-21.06,2021-12-17 16:57:12.421875
2298,-25.96,2021-12-17 16:57:12.437500
2299,-29.42,2021-12-17 16:57:12.453125
2300,-32.12,2021-12-17 16:57:12.468750
2301,-34.95,2021-12-17 16:57:12.484375
2302,-38.73,2021-12-17 16:57:12.500000
2303,-43.93,2021-12-17 16:57:12.515625
2304,-50.6,2021-12-17 16:57:12.531250
2305,-58.44,2021-12-17 16:57:12.546875
2306,-66.72,2021-12-17 16:57:12.562500
2307,-74.32,2021-12-17 16:57:12.578125
2308,-79.77,2021-12-17 16:57:12.593750
2309,-81.46,2021-12-17 16:57:12.609375
2310,-78.18,2021-12-17 16:57:12.625000
2311,-69.61,2021-12-17 16:57:12.640625
2312,-56.7,2021-12-17 16:57:12.656250
2313,-41.49,2021-12-17 16:57:12.671875
2314,-26.45,2021-12-17 16:57:12.687500
2315,-13.64,2021-12-17 16:57:12.703125
2316,-3.98,2021-12-17 16:57:12.718750
2317,2.79,2021-12-17 16:57:12.734375
2318,7.81,2021-12-17 16:57:12.750000
2319,12.21,2021-12-17 16:57:12.765625
2320,16.64,2021-12-17 16:57:12.781250
2321,21.05,2021-12-17 16:57:12.796875
2322,25.03,2021-12-17 16:57:12.812500
2323,28.29,2021-12-17 16:57:12.828125
2324,30.96,2021-12-17 16:57:12.843750
2325,33.53,2021-12-17 16:57:12.859375
2326,36.64,2021-12-17 16:57:12.875000
2327,40.62,2021-12-17 16:57:12.890625
2328,45.38,2021-12-17 16:57:12.906250
2329,50.47,2021-12-17 16:57:12.921875
2330,55.33,2021-12-17 16:57:12.937500
2331,59.55,2021-12-17 16:57:12.953125
2332,62.94,2021-12-17 16:57:12.968750
2333,65.62,2021-12-17 16:57:12.984375
2334,67.79,2021-12-17 16:57:13.000000
2335,69.62,2021-12-17 16:57:13.015625
2336,71.2,2021-12-17 16:57:13.031250
2337,72.49,2021-12-17 16:57:13.046875
2338,73.36,2021-12-17 16:57:13.062500
2339,73.72,2021-12-17 16:57:13.078125
2340,73.51,2021-12-17 16:57:13.093750
2341,72.79,2021-12-17 16:57:13.109375
2342,71.78,2021-12-17 16:57:13.125000
2343,70.73,2021-12-17 16:57:13.140625
2344,69.86,2021-12-17 16:57:13.156250
2345,69.16,2021-12-17 16:57:13.171875
2346,68.35,2021-12-17 16:57:13.187500
2347,66.93,2021-12-17 16:57:13.203125
2348,64.39,2021-12-17 16:57:13.218750
2349,60.38,2021-12-17 16:57:13.234375
2350,54.95,2021-12-17 16:57:13.250000
2351,48.48,2021-12-17 16:57:13.265625
2352,41.59,2021-12-17 16:57:13.281250
2353,34.84,2021-12-17 16:57:13.296875
2354,28.65,2021-12-17 16:57:13.312500
2355,23.36,2021-12-17 16:57:13.328125
2356,19.35,2021-12-17 16:57:13.343750
2357,17.28,2021-12-17 16:57:13.359375
2358,18.09,2021-12-17 16:57:13.375000
2359,22.66,2021-12-17 16:57:13.390625
2360,31.5,2021-12-17 16:57:13.406250
2361,44.12,2021-12-17 16:57:13.421875
2362,58.92,2021-12-17 16:57:13.437500
2363,73.36,2021-12-17 16:57:13.453125
2364,84.79,2021-12-17 16:57:13.468750
2365,91.34,2021-12-17 16:57:13.484375
2366,92.71,2021-12-17 16:57:13.500000
2367,90.3,2021-12-17 16:57:13.515625
2368,86.53,2021-12-17 16:57:13.531250
2369,83.66,2021-12-17 16:57:13.546875
2370,82.68,2021-12-17 16:57:13.562500
2371,82.88,2021-12-17 16:57:13.578125
2372,82.43,2021-12-17 16:57:13.593750
2373,79.33,2021-12-17 16:57:13.609375
2374,72.24,2021-12-17 16:57:13.625000
2375,60.7,2021-12-17 16:57:13.640625
2376,44.55,2021-12-17 16:57:13.656250
2377,23.48,2021-12-17 16:57:13.671875
2378,-2.76,2021-12-17 16:57:13.687500
2379,-33.53,2021-12-17 16:57:13.703125
2380,-66.36,2021-12-17 16:57:13.718750
2381,-96.99,2021-12-17 16:57:13.734375
2382,-120.85,2021-12-17 16:57:13.750000
2383,-135.21,2021-12-17 16:57:13.765625
2384,-140.92,2021-12-17 16:57:13.781250
2385,-142.45,2021-12-17 16:57:13.796875
2386,-146.16,2021-12-17 16:57:13.812500
2387,-157.55,2021-12-17 16:57:13.828125
2388,-179.3,2021-12-17 16:57:13.843750
2389,-210.86,2021-12-17 16:57:13.859375
2390,-249.75,2021-12-17 16:57:13.875000
2391,-293.25,2021-12-17 16:57:13.890625
2392,-339.28,2021-12-17 16:57:13.906250
2393,-385.91,2021-12-17 16:57:13.921875
2394,-430.13,2021-12-17 16:57:13.937500
2395,-467.13,2021-12-17 16:57:13.953125
2396,-490.77,2021-12-17 16:57:13.968750
2397,-495.7,2021-12-17 16:57:13.984375
2398,-479.88,2021-12-17 16:57:14.000000
2399,-446.13,2021-12-17 16:57:14.015625
2400,-401.66,2021-12-17 16:57:14.031250
2401,-355.96,2021-12-17 16:57:14.046875
2402,-317.64,2021-12-17 16:57:14.062500
2403,-291.83,2021-12-17 16:57:14.078125
2404,-279.06,2021-12-17 16:57:14.093750
2405,-275.6,2021-12-17 16:57:14.109375
2406,-275.01,2021-12-17 16:57:14.125000
2407,-270.29,2021-12-17 16:57:14.140625
2408,-256.08,2021-12-17 16:57:14.156250
2409,-230.47,2021-12-17 16:57:14.171875
2410,-195.67,2021-12-17 16:57:14.187500
2411,-157.31,2021-12-17 16:57:14.203125
2412,-122.33,2021-12-17 16:57:14.218750
2413,-96.28,2021-12-17 16:57:14.234375
2414,-81.34,2021-12-17 16:57:14.250000
2415,-76.06,2021-12-17 16:57:14.265625
2416,-76.78,2021-12-17 16:57:14.281250
2417,-79.77,2021-12-17 16:57:14.296875
2418,-82.79,2021-12-17 16:57:14.312500
2419,-85.12,2021-12-17 16:57:14.328125
2420,-86.37,2021-12-17 16:57:14.343750
2421,-85.18,2021-12-17 16:57:14.359375
2422,-79.1,2021-12-17 16:57:14.375000
2423,-65.63,2021-12-17 16:57:14.390625
2424,-44.0,2021-12-17 16:57:14.406250
2425,-16.03,2021-12-17 16:57:14.421875
2426,14.41,2021-12-17 16:57:14.437500
2427,43.1,2021-12-17 16:57:14.453125
2428,67.25,2021-12-17 16:57:14.468750
2429,86.42,2021-12-17 16:57:14.484375
2430,102.1,2021-12-17 16:57:14.500000
2431,116.27,2021-12-17 16:57:14.515625
2432,130.32,2021-12-17 16:57:14.531250
2433,144.23,2021-12-17 16:57:14.546875
2434,156.85,2021-12-17 16:57:14.562500
2435,166.74,2021-12-17 16:57:14.578125
2436,172.97,2021-12-17 16:57:14.593750
2437,175.68,2021-12-17 16:57:14.609375
2438,176.05,2021-12-17 16:57:14.625000
2439,175.67,2021-12-17 16:57:14.640625
2440,175.96,2021-12-17 16:57:14.656250
2441,177.55,2021-12-17 16:57:14.671875
2442,180.1,2021-12-17 16:57:14.687500
2443,182.58,2021-12-17 16:57:14.703125
2444,183.65,2021-12-17 16:57:14.718750
2445,182.07,2021-12-17 16:57:14.734375
2446,177.04,2021-12-17 16:57:14.750000
2447,168.29,2021-12-17 16:57:14.765625
2448,156.13,2021-12-17 16:57:14.781250
2449,141.3,2021-12-17 16:57:14.796875
2450,124.86,2021-12-17 16:57:14.812500
2451,107.79,2021-12-17 16:57:14.828125
2452,90.72,2021-12-17 16:57:14.843750
2453,73.66,2021-12-17 16:57:14.859375
2454,56.16,2021-12-17 16:57:14.875000
2455,37.84,2021-12-17 16:57:14.890625
2456,19.11,2021-12-17 16:57:14.906250
2457,1.56,2021-12-17 16:57:14.921875
2458,-12.14,2021-12-17 16:57:14.937500
2459,-19.06,2021-12-17 16:57:14.953125
2460,-17.15,2021-12-17 16:57:14.968750
2461,-6.13,2021-12-17 16:57:14.984375
2462,12.35,2021-12-17 16:57:15.000000
2463,35.25,2021-12-17 16:57:15.015625
2464,59.25,2021-12-17 16:57:15.031250
2465,81.69,2021-12-17 16:57:15.046875
2466,101.11,2021-12-17 16:57:15.062500
2467,117.24,2021-12-17 16:57:15.078125
2468,130.47,2021-12-17 16:57:15.093750
2469,141.14,2021-12-17 16:57:15.109375
2470,149.24,2021-12-17 16:57:15.125000
2471,154.28,2021-12-17 16:57:15.140625
2472,155.59,2021-12-17 16:57:15.156250
2473,152.65,2021-12-17 16:57:15.171875
2474,145.42,2021-12-17 16:57:15.187500
2475,134.49,2021-12-17 16:57:15.203125
2476,120.95,2021-12-17 16:57:15.218750
2477,106.16,2021-12-17 16:57:15.234375
2478,91.39,2021-12-17 16:57:15.250000
2479,77.63,2021-12-17 16:57:15.265625
2480,65.46,2021-12-17 16:57:15.281250
2481,55.18,2021-12-17 16:57:15.296875
2482,46.95,2021-12-17 16:57:15.312500
2483,40.86,2021-12-17 16:57:15.328125
2484,36.82,2021-12-17 16:57:15.343750
2485,34.41,2021-12-17 16:57:15.359375
2486,32.84,2021-12-17 16:57:15.375000
2487,30.89,2021-12-17 16:57:15.390625
2488,27.32,2021-12-17 16:57:15.406250
2489,21.19,2021-12-17 16:57:15.421875
2490,12.21,2021-12-17 16:57:15.437500
2491,0.95,2021-12-17 16:57:15.453125
2492,-11.37,2021-12-17 16:57:15.468750
2493,-23.18,2021-12-17 16:57:15.484375
2494,-33.08,2021-12-17 16:57:15.500000
2495,-40.25,2021-12-17 16:57:15.515625
2496,-44.66,2021-12-17 16:57:15.531250
2497,-47.02,2021-12-17 16:57:15.546875
2498,-48.53,2021-12-17 16:57:15.562500
2499,-50.56,2021-12-17 16:57:15.578125
2500,-54.22,2021-12-17 16:57:15.593750
2501,-60.17,2021-12-17 16:57:15.609375
2502,-68.33,2021-12-17 16:57:15.625000
2503,-77.8,2021-12-17 16:57:15.640625
2504,-86.83,2021-12-17 16:57:15.656250
2505,-93.24,2021-12-17 16:57:15.671875
2506,-94.79,2021-12-17 16:57:15.687500
2507,-89.94,2021-12-17 16:57:15.703125
2508,-78.39,2021-12-17 16:57:15.718750
2509,-61.23,2021-12-17 16:57:15.734375
2510,-40.76,2021-12-17 16:57:15.750000
2511,-19.74,2021-12-17 16:57:15.765625
2512,-0.71,2021-12-17 16:57:15.781250
2513,14.68,2021-12-17 16:57:15.796875
2514,25.75,2021-12-17 16:57:15.812500
2515,32.64,2021-12-17 16:57:15.828125
2516,35.93,2021-12-17 16:57:15.843750
2517,36.22,2021-12-17 16:57:15.859375
2518,34.06,2021-12-17 16:57:15.875000
2519,29.99,2021-12-17 16:57:15.890625
2520,24.68,2021-12-17 16:57:15.906250
2521,19.08,2021-12-17 16:57:15.921875
2522,14.31,2021-12-17 16:57:15.937500
2523,11.37,2021-12-17 16:57:15.953125
2524,10.87,2021-12-17 16:57:15.968750
2525,12.81,2021-12-17 16:57:15.984375
2526,16.6,2021-12-17 16:57:16.000000
2527,21.34,2021-12-17 16:57:16.015625
2528,26.15,2021-12-17 16:57:16.031250
2529,30.45,2021-12-17 16:57:16.046875
2530,34.03,2021-12-17 16:57:16.062500
2531,36.96,2021-12-17 16:57:16.078125
2532,39.33,2021-12-17 16:57:16.093750
2533,41.05,2021-12-17 16:57:16.109375
2534,41.8,2021-12-17 16:57:16.125000
2535,41.11,2021-12-17 16:57:16.140625
2536,38.58,2021-12-17 16:57:16.156250
2537,34.0,2021-12-17 16:57:16.171875
2538,27.51,2021-12-17 16:57:16.187500
2539,19.55,2021-12-17 16:57:16.203125
2540,10.82,2021-12-17 16:57:16.218750
2541,2.07,2021-12-17 16:57:16.234375
2542,-6.1,2021-12-17 16:57:16.250000
2543,-13.38,2021-12-17 16:57:16.265625
2544,-19.85,2021-12-17 16:57:16.281250
2545,-25.95,2021-12-17 16:57:16.296875
2546,-32.34,2021-12-17 16:57:16.312500
2547,-39.76,2021-12-17 16:57:16.328125
2548,-48.73,2021-12-17 16:57:16.343750
2549,-59.36,2021-12-17 16:57:16.359375
2550,-71.11,2021-12-17 16:57:16.375000
2551,-82.63,2021-12-17 16:57:16.390625
2552,-91.92,2021-12-17 16:57:16.406250
2553,-96.73,2021-12-17 16:57:16.421875
2554,-95.14,2021-12-17 16:57:16.437500
2555,-86.31,2021-12-17 16:57:16.453125
2556,-70.79,2021-12-17 16:57:16.468750
2557,-50.46,2021-12-17 16:57:16.484375
2558,-27.94,2021-12-17 16:57:16.500000
2559,-5.79,2021-12-17 16:57:16.515625
2560,14.15,2021-12-17 16:57:16.531250
2561,31.04,2021-12-17 16:57:16.546875
2562,44.81,2021-12-17 16:57:16.562500
2563,55.73,2021-12-17 16:57:16.578125
2564,63.95,2021-12-17 16:57:16.593750
2565,69.45,2021-12-17 16:57:16.609375
2566,72.14,2021-12-17 16:57:16.625000
2567,72.23,2021-12-17 16:57:16.640625
2568,70.39,2021-12-17 16:57:16.656250
2569,67.78,2021-12-17 16:57:16.671875
2570,65.64,2021-12-17 16:57:16.687500
2571,64.92,2021-12-17 16:57:16.703125
2572,65.91,2021-12-17 16:57:16.718750
2573,68.22,2021-12-17 16:57:16.734375
2574,71.09,2021-12-17 16:57:16.750000
2575,73.66,2021-12-17 16:57:16.765625
2576,75.43,2021-12-17 16:57:16.781250
2577,76.28,2021-12-17 16:57:16.796875
2578,76.33,2021-12-17 16:57:16.812500
2579,75.65,2021-12-17 16:57:16.828125
2580,74.03,2021-12-17 16:57:16.843750
2581,71.02,2021-12-17 16:57:16.859375
2582,66.15,2021-12-17 16:57:16.875000
2583,59.28,2021-12-17 16:57:16.890625
2584,50.87,2021-12-17 16:57:16.906250
2585,41.85,2021-12-17 16:57:16.921875
2586,33.35,2021-12-17 16:57:16.937500
2587,26.17,2021-12-17 16:57:16.953125
2588,20.42,2021-12-17 16:57:16.968750
2589,15.44,2021-12-17 16:57:16.984375
2590,10.08,2021-12-17 16:57:17.000000
2591,3.08,2021-12-17 16:57:17.015625
2592,-6.34,2021-12-17 16:57:17.031250
2593,-18.15,2021-12-17 16:57:17.046875
2594,-31.43,2021-12-17 16:57:17.062500
2595,-44.4,2021-12-17 16:57:17.078125
2596,-54.8,2021-12-17 16:57:17.093750
2597,-60.42,2021-12-17 16:57:17.109375
2598,-59.65,2021-12-17 16:57:17.125000
2599,-51.93,2021-12-17 16:57:17.140625
2600,-37.97,2021-12-17 16:57:17.156250
2601,-19.53,2021-12-17 16:57:17.171875
2602,0.93,2021-12-17 16:57:17.187500
2603,20.96,2021-12-17 16:57:17.203125
2604,38.57,2021-12-17 16:57:17.218750
2605,52.53,2021-12-17 16:57:17.234375
2606,62.41,2021-12-17 16:57:17.250000
2607,68.35,2021-12-17 16:57:17.265625
2608,70.81,2021-12-17 16:57:17.281250
2609,70.44,2021-12-17 16:57:17.296875
2610,67.96,2021-12-17 16:57:17.312500
2611,64.16,2021-12-17 16:57:17.328125
2612,59.86,2021-12-17 16:57:17.343750
2613,55.75,2021-12-17 16:57:17.359375
2614,52.34,2021-12-17 16:57:17.375000
2615,49.78,2021-12-17 16:57:17.390625
2616,47.99,2021-12-17 16:57:17.406250
2617,46.71,2021-12-17 16:57:17.421875
2618,45.67,2021-12-17 16:57:17.437500
2619,44.73,2021-12-17 16:57:17.453125
2620,43.88,2021-12-17 16:57:17.468750
2621,43.14,2021-12-17 16:57:17.484375
2622,42.36,2021-12-17 16:57:17.500000
2623,41.17,2021-12-17 16:57:17.515625
2624,39.03,2021-12-17 16:57:17.531250
2625,35.49,2021-12-17 16:57:17.546875
2626,30.34,2021-12-17 16:57:17.562500
2627,23.72,2021-12-17 16:57:17.578125
2628,16.13,2021-12-17 16:57:17.593750
2629,8.21,2021-12-17 16:57:17.609375
2630,0.64,2021-12-17 16:57:17.625000
2631,-6.16,2021-12-17 16:57:17.640625
2632,-12.03,2021-12-17 16:57:17.656250
2633,-17.24,2021-12-17 16:57:17.671875
2634,-22.35,2021-12-17 16:57:17.687500
2635,-28.18,2021-12-17 16:57:17.703125
2636,-35.49,2021-12-17 16:57:17.718750
2637,-44.67,2021-12-17 16:57:17.734375
2638,-55.31,2021-12-17 16:57:17.750000
2639,-66.09,2021-12-17 16:57:17.765625
2640,-74.86,2021-12-17 16:57:17.781250
2641,-79.28,2021-12-17 16:57:17.796875
2642,-77.46,2021-12-17 16:57:17.812500
2643,-68.73,2021-12-17 16:57:17.828125
2644,-53.84,2021-12-17 16:57:17.843750
2645,-34.76,2021-12-17 16:57:17.859375
2646,-14.07,2021-12-17 16:57:17.875000
2647,5.85,2021-12-17 16:57:17.890625
2648,23.3,2021-12-17 16:57:17.906250
2649,37.43,2021-12-17 16:57:17.921875
2650,48.14,2021-12-17 16:57:17.937500
2651,55.66,2021-12-17 16:57:17.953125
2652,60.31,2021-12-17 16:57:17.968750
2653,62.4,2021-12-17 16:57:17.984375
2654,62.31,2021-12-17 16:57:18.000000
2655,60.54,2021-12-17 16:57:18.015625
2656,57.71,2021-12-17 16:57:18.031250
2657,54.49,2021-12-17 16:57:18.046875
2658,51.37,2021-12-17 16:57:18.062500
2659,48.59,2021-12-17 16:57:18.078125
2660,46.17,2021-12-17 16:57:18.093750
2661,43.95,2021-12-17 16:57:18.109375
2662,41.81,2021-12-17 16:57:18.125000
2663,39.74,2021-12-17 16:57:18.140625
2664,37.78,2021-12-17 16:57:18.156250
2665,35.92,2021-12-17 16:57:18.171875
2666,34.02,2021-12-17 16:57:18.187500
2667,31.75,2021-12-17 16:57:18.203125
2668,28.74,2021-12-17 16:57:18.218750
2669,24.7,2021-12-17 16:57:18.234375
2670,19.62,2021-12-17 16:57:18.250000
2671,13.75,2021-12-17 16:57:18.265625
2672,7.45,2021-12-17 16:57:18.281250
2673,1.08,2021-12-17 16:57:18.296875
2674,-5.21,2021-12-17 16:57:18.312500
2675,-11.52,2021-12-17 16:57:18.328125
2676,-18.19,2021-12-17 16:57:18.343750
2677,-25.68,2021-12-17 16:57:18.359375
2678,-34.45,2021-12-17 16:57:18.375000
2679,-44.7,2021-12-17 16:57:18.390625
2680,-56.17,2021-12-17 16:57:18.406250
2681,-67.9,2021-12-17 16:57:18.421875
2682,-78.27,2021-12-17 16:57:18.437500
2683,-85.24,2021-12-17 16:57:18.453125
2684,-86.92,2021-12-17 16:57:18.468750
2685,-82.17,2021-12-17 16:57:18.484375
2686,-71.05,2021-12-17 16:57:18.500000
2687,-54.85,2021-12-17 16:57:18.515625
2688,-35.71,2021-12-17 16:57:18.531250
2689,-15.95,2021-12-17 16:57:18.546875
2690,2.53,2021-12-17 16:57:18.562500
2691,18.59,2021-12-17 16:57:18.578125
2692,31.86,2021-12-17 16:57:18.593750
2693,42.42,2021-12-17 16:57:18.609375
2694,50.44,2021-12-17 16:57:18.625000
2695,55.96,2021-12-17 16:57:18.640625
2696,58.89,2021-12-17 16:57:18.656250
2697,59.22,2021-12-17 16:57:18.671875
2698,57.2,2021-12-17 16:57:18.687500
2699,53.46,2021-12-17 16:57:18.703125
2700,48.92,2021-12-17 16:57:18.718750
2701,44.54,2021-12-17 16:57:18.734375
2702,41.08,2021-12-17 16:57:18.750000
2703,38.87,2021-12-17 16:57:18.765625
2704,37.85,2021-12-17 16:57:18.781250
2705,37.64,2021-12-17 16:57:18.796875
2706,37.89,2021-12-17 16:57:18.812500
2707,38.38,2021-12-17 16:57:18.828125
2708,38.97,2021-12-17 16:57:18.843750
2709,39.52,2021-12-17 16:57:18.859375
2710,39.77,2021-12-17 16:57:18.875000
2711,39.31,2021-12-17 16:57:18.890625
2712,37.74,2021-12-17 16:57:18.906250
2713,34.88,2021-12-17 16:57:18.921875
2714,30.83,2021-12-17 16:57:18.937500
2715,26.08,2021-12-17 16:57:18.953125
2716,21.2,2021-12-17 16:57:18.968750
2717,16.65,2021-12-17 16:57:18.984375
2718,12.59,2021-12-17 16:57:19.000000
2719,8.75,2021-12-17 16:57:19.015625
2720,4.53,2021-12-17 16:57:19.031250
2721,-0.82,2021-12-17 16:57:19.046875
2722,-7.96,2021-12-17 16:57:19.062500
2723,-17.24,2021-12-17 16:57:19.078125
2724,-28.39,2021-12-17 16:57:19.093750
2725,-40.41,2021-12-17 16:57:19.109375
2726,-51.67,2021-12-17 16:57:19.125000
2727,-60.15,2021-12-17 16:57:19.140625
2728,-64.07,2021-12-17 16:57:19.156250
2729,-62.43,2021-12-17 16:57:19.171875
2730,-55.39,2021-12-17 16:57:19.187500
2731,-44.25,2021-12-17 16:57:19.203125
2732,-31.04,2021-12-17 16:57:19.218750
2733,-17.81,2021-12-17 16:57:19.234375
2734,-6.13,2021-12-17 16:57:19.250000
2735,3.27,2021-12-17 16:57:19.265625
2736,10.4,2021-12-17 16:57:19.281250
2737,15.61,2021-12-17 16:57:19.296875
2738,19.2,2021-12-17 16:57:19.312500
2739,21.28,2021-12-17 16:57:19.328125
2740,21.74,2021-12-17 16:57:19.343750
2741,20.51,2021-12-17 16:57:19.359375
2742,17.75,2021-12-17 16:57:19.375000
2743,13.94,2021-12-17 16:57:19.390625
2744,9.7,2021-12-17 16:57:19.406250
2745,5.66,2021-12-17 16:57:19.421875
2746,2.26,2021-12-17 16:57:19.437500
2747,-0.34,2021-12-17 16:57:19.453125
2748,-2.15,2021-12-17 16:57:19.468750
2749,-3.22,2021-12-17 16:57:19.484375
2750,-3.55,2021-12-17 16:57:19.500000
2751,-3.07,2021-12-17 16:57:19.515625
2752,-1.73,2021-12-17 16:57:19.531250
2753,0.37,2021-12-17 16:57:19.546875
2754,2.84,2021-12-17 16:57:19.562500
2755,5.04,2021-12-17 16:57:19.578125
2756,6.19,2021-12-17 16:57:19.593750
2757,5.63,2021-12-17 16:57:19.609375
2758,3.07,2021-12-17 16:57:19.625000
2759,-1.29,2021-12-17 16:57:19.640625
2760,-6.75,2021-12-17 16:57:19.656250
2761,-12.41,2021-12-17 16:57:19.671875
2762,-17.51,2021-12-17 16:57:19.687500
2763,-21.67,2021-12-17 16:57:19.703125
2764,-24.97,2021-12-17 16:57:19.718750
2765,-27.9,2021-12-17 16:57:19.734375
2766,-31.11,2021-12-17 16:57:19.750000
2767,-35.19,2021-12-17 16:57:19.765625
2768,-40.34,2021-12-17 16:57:19.781250
2769,-46.21,2021-12-17 16:57:19.796875
2770,-51.88,2021-12-17 16:57:19.812500
2771,-55.92,2021-12-17 16:57:19.828125
2772,-56.8,2021-12-17 16:57:19.843750
2773,-53.36,2021-12-17 16:57:19.859375
2774,-45.27,2021-12-17 16:57:19.875000
2775,-33.17,2021-12-17 16:57:19.890625
2776,-18.53,2021-12-17 16:57:19.906250
2777,-3.17,2021-12-17 16:57:19.921875
2778,11.39,2021-12-17 16:57:19.937500
2779,24.23,2021-12-17 16:57:19.953125
2780,35.07,2021-12-17 16:57:19.968750
2781,44.0,2021-12-17 16:57:19.984375
2782,51.12,2021-12-17 16:57:20.000000
2783,56.36,2021-12-17 16:57:20.015625
2784,59.52,2021-12-17 16:57:20.031250
2785,60.44,2021-12-17 16:57:20.046875
2786,59.16,2021-12-17 16:57:20.062500
2787,55.98,2021-12-17 16:57:20.078125
2788,51.31,2021-12-17 16:57:20.093750
2789,45.46,2021-12-17 16:57:20.109375
2790,38.54,2021-12-17 16:57:20.125000
2791,30.53,2021-12-17 16:57:20.140625
2792,21.4,2021-12-17 16:57:20.156250
2793,11.27,2021-12-17 16:57:20.171875
2794,0.35,2021-12-17 16:57:20.187500
2795,-11.08,2021-12-17 16:57:20.203125
2796,-22.84,2021-12-17 16:57:20.218750
2797,-34.86,2021-12-17 16:57:20.234375
2798,-47.12,2021-12-17 16:57:20.250000
2799,-59.48,2021-12-17 16:57:20.265625
2800,-71.64,2021-12-17 16:57:20.281250
2801,-83.02,2021-12-17 16:57:20.296875
2802,-92.9,2021-12-17 16:57:20.312500
2803,-100.51,2021-12-17 16:57:20.328125
2804,-105.2,2021-12-17 16:57:20.343750
2805,-106.6,2021-12-17 16:57:20.359375
2806,-104.84,2021-12-17 16:57:20.375000
2807,-100.65,2021-12-17 16:57:20.390625
2808,-95.38,2021-12-17 16:57:20.406250
2809,-90.78,2021-12-17 16:57:20.421875
2810,-88.46,2021-12-17 16:57:20.437500
2811,-89.3,2021-12-17 16:57:20.453125
2812,-92.99,2021-12-17 16:57:20.468750
2813,-98.02,2021-12-17 16:57:20.484375
2814,-102.12,2021-12-17 16:57:20.500000
2815,-102.96,2021-12-17 16:57:20.515625
2816,-98.87,2021-12-17 16:57:20.531250
2817,-89.25,2021-12-17 16:57:20.546875
2818,-74.62,2021-12-17 16:57:20.562500
2819,-56.31,2021-12-17 16:57:20.578125
2820,-36.06,2021-12-17 16:57:20.593750
2821,-15.63,2021-12-17 16:57:20.609375
2822,3.48,2021-12-17 16:57:20.625000
2823,20.22,2021-12-17 16:57:20.640625
2824,34.09,2021-12-17 16:57:20.656250
2825,45.17,2021-12-17 16:57:20.671875
2826,53.9,2021-12-17 16:57:20.687500
2827,60.83,2021-12-17 16:57:20.703125
2828,66.37,2021-12-17 16:57:20.718750
2829,70.63,2021-12-17 16:57:20.734375
2830,73.45,2021-12-17 16:57:20.750000
2831,74.58,2021-12-17 16:57:20.765625
2832,73.91,2021-12-17 16:57:20.781250
2833,71.54,2021-12-17 16:57:20.796875
2834,67.87,2021-12-17 16:57:20.812500
2835,63.49,2021-12-17 16:57:20.828125
2836,59.04,2021-12-17 16:57:20.843750
2837,55.02,2021-12-17 16:57:20.859375
2838,51.72,2021-12-17 16:57:20.875000
2839,49.06,2021-12-17 16:57:20.890625
2840,46.64,2021-12-17 16:57:20.906250
2841,43.81,2021-12-17 16:57:20.921875
2842,39.89,2021-12-17 16:57:20.937500
2843,34.43,2021-12-17 16:57:20.953125
2844,27.51,2021-12-17 16:57:20.968750
2845,19.69,2021-12-17 16:57:20.984375
2846,11.88,2021-12-17 16:57:21.000000
2847,5.08,2021-12-17 16:57:21.015625
2848,0.1,2021-12-17 16:57:21.031250
2849,-2.63,2021-12-17 16:57:21.046875
2850,-3.05,2021-12-17 16:57:21.062500
2851,-1.54,2021-12-17 16:57:21.078125
2852,1.18,2021-12-17 16:57:21.093750
2853,4.09,2021-12-17 16:57:21.109375
2854,5.97,2021-12-17 16:57:21.125000
2855,5.67,2021-12-17 16:57:21.140625
2856,2.28,2021-12-17 16:57:21.156250
2857,-4.54,2021-12-17 16:57:21.171875
2858,-14.42,2021-12-17 16:57:21.187500
2859,-26.16,2021-12-17 16:57:21.203125
2860,-38.0,2021-12-17 16:57:21.218750
2861,-47.87,2021-12-17 16:57:21.234375
2862,-53.88,2021-12-17 16:57:21.250000
2863,-54.72,2021-12-17 16:57:21.265625
2864,-49.98,2021-12-17 16:57:21.281250
2865,-40.1,2021-12-17 16:57:21.296875
2866,-26.39,2021-12-17 16:57:21.312500
2867,-10.62,2021-12-17 16:57:21.328125
2868,5.31,2021-12-17 16:57:21.343750
2869,19.68,2021-12-17 16:57:21.359375
2870,31.3,2021-12-17 16:57:21.375000
2871,39.5,2021-12-17 16:57:21.390625
2872,44.09,2021-12-17 16:57:21.406250
2873,45.37,2021-12-17 16:57:21.421875
2874,43.92,2021-12-17 16:57:21.437500
2875,40.47,2021-12-17 16:57:21.453125
2876,35.8,2021-12-17 16:57:21.468750
2877,30.58,2021-12-17 16:57:21.484375
2878,25.25,2021-12-17 16:57:21.500000
2879,20.01,2021-12-17 16:57:21.515625
2880,14.75,2021-12-17 16:57:21.531250
2881,9.07,2021-12-17 16:57:21.546875
2882,2.41,2021-12-17 16:57:21.562500
2883,-5.72,2021-12-17 16:57:21.578125
2884,-15.56,2021-12-17 16:57:21.593750
2885,-26.85,2021-12-17 16:57:21.609375
2886,-38.76,2021-12-17 16:57:21.625000
2887,-50.18,2021-12-17 16:57:21.640625
2888,-59.98,2021-12-17 16:57:21.656250
2889,-67.37,2021-12-17 16:57:21.671875
2890,-72.25,2021-12-17 16:57:21.687500
2891,-75.02,2021-12-17 16:57:21.703125
2892,-76.42,2021-12-17 16:57:21.718750
2893,-77.22,2021-12-17 16:57:21.734375
2894,-77.85,2021-12-17 16:57:21.750000
2895,-78.41,2021-12-17 16:57:21.765625
2896,-78.73,2021-12-17 16:57:21.781250
2897,-78.56,2021-12-17 16:57:21.796875
2898,-77.78,2021-12-17 16:57:21.812500
2899,-76.47,2021-12-17 16:57:21.828125
2900,-74.89,2021-12-17 16:57:21.843750
2901,-73.42,2021-12-17 16:57:21.859375
2902,-72.36,2021-12-17 16:57:21.875000
2903,-71.8,2021-12-17 16:57:21.890625
2904,-71.51,2021-12-17 16:57:21.906250
2905,-70.87,2021-12-17 16:57:21.921875
2906,-69.07,2021-12-17 16:57:21.937500
2907,-65.29,2021-12-17 16:57:21.953125
2908,-58.97,2021-12-17 16:57:21.968750
2909,-50.02,2021-12-17 16:57:21.984375
2910,-38.9,2021-12-17 16:57:22.000000
2911,-26.54,2021-12-17 16:57:22.015625
2912,-14.03,2021-12-17 16:57:22.031250
2913,-2.34,2021-12-17 16:57:22.046875
2914,7.93,2021-12-17 16:57:22.062500
2915,16.65,2021-12-17 16:57:22.078125
2916,24.0,2021-12-17 16:57:22.093750
2917,30.18,2021-12-17 16:57:22.109375
2918,35.27,2021-12-17 16:57:22.125000
2919,39.2,2021-12-17 16:57:22.140625
2920,41.78,2021-12-17 16:57:22.156250
2921,43.05,2021-12-17 16:57:22.171875
2922,43.2,2021-12-17 16:57:22.187500
2923,42.64,2021-12-17 16:57:22.203125
2924,41.74,2021-12-17 16:57:22.218750
2925,40.74,2021-12-17 16:57:22.234375
2926,39.71,2021-12-17 16:57:22.250000
2927,38.56,2021-12-17 16:57:22.265625
2928,37.29,2021-12-17 16:57:22.281250
2929,35.93,2021-12-17 16:57:22.296875
2930,34.64,2021-12-17 16:57:22.312500
2931,33.49,2021-12-17 16:57:22.328125
2932,32.47,2021-12-17 16:57:22.343750
2933,31.46,2021-12-17 16:57:22.359375
2934,30.28,2021-12-17 16:57:22.375000
2935,28.75,2021-12-17 16:57:22.390625
2936,26.75,2021-12-17 16:57:22.406250
2937,24.24,2021-12-17 16:57:22.421875
2938,21.25,2021-12-17 16:57:22.437500
2939,17.86,2021-12-17 16:57:22.453125
2940,14.18,2021-12-17 16:57:22.468750
2941,10.22,2021-12-17 16:57:22.484375
2942,5.84,2021-12-17 16:57:22.500000
2943,0.77,2021-12-17 16:57:22.515625
2944,-5.31,2021-12-17 16:57:22.531250
2945,-12.48,2021-12-17 16:57:22.546875
2946,-20.47,2021-12-17 16:57:22.562500
2947,-28.51,2021-12-17 16:57:22.578125
2948,-35.48,2021-12-17 16:57:22.593750
2949,-40.24,2021-12-17 16:57:22.609375
2950,-41.94,2021-12-17 16:57:22.625000
2951,-40.14,2021-12-17 16:57:22.640625
2952,-34.95,2021-12-17 16:57:22.656250
2953,-26.85,2021-12-17 16:57:22.671875
2954,-16.59,2021-12-17 16:57:22.687500
2955,-5.05,2021-12-17 16:57:22.703125
2956,6.81,2021-12-17 16:57:22.718750
2957,17.98,2021-12-17 16:57:22.734375
2958,27.53,2021-12-17 16:57:22.750000
2959,34.79,2021-12-17 16:57:22.765625
2960,39.45,2021-12-17 16:57:22.781250
2961,41.67,2021-12-17 16:57:22.796875
2962,41.93,2021-12-17 16:57:22.812500
2963,40.86,2021-12-17 16:57:22.828125
2964,39.0,2021-12-17 16:57:22.843750
2965,36.71,2021-12-17 16:57:22.859375
2966,34.19,2021-12-17 16:57:22.875000
2967,31.54,2021-12-17 16:57:22.890625
2968,28.92,2021-12-17 16:57:22.906250
2969,26.63,2021-12-17 16:57:22.921875
2970,24.91,2021-12-17 16:57:22.937500
2971,23.92,2021-12-17 16:57:22.953125
2972,23.55,2021-12-17 16:57:22.968750
2973,23.44,2021-12-17 16:57:22.984375
2974,23.07,2021-12-17 16:57:23.000000
2975,21.97,2021-12-17 16:57:23.015625
2976,19.86,2021-12-17 16:57:23.031250
2977,16.73,2021-12-17 16:57:23.046875
2978,12.85,2021-12-17 16:57:23.062500
2979,8.59,2021-12-17 16:57:23.078125
2980,4.29,2021-12-17 16:57:23.093750
2981,0.11,2021-12-17 16:57:23.109375
2982,-4.02,2021-12-17 16:57:23.125000
2983,-8.37,2021-12-17 16:57:23.140625
2984,-13.22,2021-12-17 16:57:23.156250
2985,-18.81,2021-12-17 16:57:23.171875
2986,-25.16,2021-12-17 16:57:23.187500
2987,-31.94,2021-12-17 16:57:23.203125
2988,-38.5,2021-12-17 16:57:23.218750
2989,-43.89,2021-12-17 16:57:23.234375
2990,-47.06,2021-12-17 16:57:23.250000
2991,-47.12,2021-12-17 16:57:23.265625
2992,-43.62,2021-12-17 16:57:23.281250
2993,-36.7,2021-12-17 16:57:23.296875
2994,-27.12,2021-12-17 16:57:23.312500
2995,-16.1,2021-12-17 16:57:23.328125
2996,-4.97,2021-12-17 16:57:23.343750
2997,5.1,2021-12-17 16:57:23.359375
2998,13.33,2021-12-17 16:57:23.375000
2999,19.41,2021-12-17 16:57:23.390625
3000,23.35,2021-12-17 16:57:23.406250
3001,25.4,2021-12-17 16:57:23.421875
3002,25.88,2021-12-17 16:57:23.437500
3003,25.17,2021-12-17 16:57:23.453125
3004,23.68,2021-12-17 16:57:23.468750
3005,21.97,2021-12-17 16:57:23.484375
3006,20.66,2021-12-17 16:57:23.500000
3007,20.45,2021-12-17 16:57:23.515625
3008,21.82,2021-12-17 16:57:23.531250
3009,24.85,2021-12-17 16:57:23.546875
3010,29.21,2021-12-17 16:57:23.562500
3011,34.15,2021-12-17 16:57:23.578125
3012,38.73,2021-12-17 16:57:23.593750
3013,42.25,2021-12-17 16:57:23.609375
3014,44.35,2021-12-17 16:57:23.625000
3015,45.13,2021-12-17 16:57:23.640625
3016,44.91,2021-12-17 16:57:23.656250
3017,43.91,2021-12-17 16:57:23.671875
3018,42.06,2021-12-17 16:57:23.687500
3019,39.06,2021-12-17 16:57:23.703125
3020,34.55,2021-12-17 16:57:23.718750
3021,28.45,2021-12-17 16:57:23.734375
3022,21.09,2021-12-17 16:57:23.750000
3023,13.11,2021-12-17 16:57:23.765625
3024,5.16,2021-12-17 16:57:23.781250
3025,-2.38,2021-12-17 16:57:23.796875
3026,-9.49,2021-12-17 16:57:23.812500
3027,-16.28,2021-12-17 16:57:23.828125
3028,-22.66,2021-12-17 16:57:23.843750
3029,-28.07,2021-12-17 16:57:23.859375
3030,-31.59,2021-12-17 16:57:23.875000
3031,-32.21,2021-12-17 16:57:23.890625
3032,-29.41,2021-12-17 16:57:23.906250
3033,-23.39,2021-12-17 16:57:23.921875
3034,-15.09,2021-12-17 16:57:23.937500
3035,-5.95,2021-12-17 16:57:23.953125
3036,2.7,2021-12-17 16:57:23.968750
3037,9.85,2021-12-17 16:57:23.984375
3038,15.09,2021-12-17 16:57:24.000000
3039,18.46,2021-12-17 16:57:24.015625
3040,20.22,2021-12-17 16:57:24.031250
3041,20.65,2021-12-17 16:57:24.046875
3042,19.92,2021-12-17 16:57:24.062500
3043,18.12,2021-12-17 16:57:24.078125
3044,15.34,2021-12-17 16:57:24.093750
3045,11.74,2021-12-17 16:57:24.109375
3046,7.63,2021-12-17 16:57:24.125000
3047,3.38,2021-12-17 16:57:24.140625
3048,-0.64,2021-12-17 16:57:24.156250
3049,-4.15,2021-12-17 16:57:24.171875
3050,-7.02,2021-12-17 16:57:24.187500
3051,-9.21,2021-12-17 16:57:24.203125
3052,-10.74,2021-12-17 16:57:24.218750
3053,-11.57,2021-12-17 16:57:24.234375
3054,-11.67,2021-12-17 16:57:24.250000
3055,-10.95,2021-12-17 16:57:24.265625
3056,-9.51,2021-12-17 16:57:24.281250
3057,-7.6,2021-12-17 16:57:24.296875
3058,-5.7,2021-12-17 16:57:24.312500
3059,-4.43,2021-12-17 16:57:24.328125
3060,-4.3,2021-12-17 16:57:24.343750
3061,-5.65,2021-12-17 16:57:24.359375
3062,-8.45,2021-12-17 16:57:24.375000
3063,-12.47,2021-12-17 16:57:24.390625
3064,-17.38,2021-12-17 16:57:24.406250
3065,-22.91,2021-12-17 16:57:24.421875
3066,-28.93,2021-12-17 16:57:24.437500
3067,-35.27,2021-12-17 16:57:24.453125
3068,-41.55,2021-12-17 16:57:24.468750
3069,-46.96,2021-12-17 16:57:24.484375
3070,-50.3,2021-12-17 16:57:24.500000
3071,-50.35,2021-12-17 16:57:24.515625
3072,-46.32,2021-12-17 16:57:24.531250
3073,-38.18,2021-12-17 16:57:24.546875
3074,-26.85,2021-12-17 16:57:24.562500
3075,-13.88,2021-12-17 16:57:24.578125
3076,-1.03,2021-12-17 16:57:24.593750
3077,10.26,2021-12-17 16:57:24.609375
3078,19.17,2021-12-17 16:57:24.625000
3079,25.52,2021-12-17 16:57:24.640625
3080,29.53,2021-12-17 16:57:24.656250
3081,31.64,2021-12-17 16:57:24.671875
3082,32.21,2021-12-17 16:57:24.687500
3083,31.58,2021-12-17 16:57:24.703125
3084,30.04,2021-12-17 16:57:24.718750
3085,27.94,2021-12-17 16:57:24.734375
3086,25.62,2021-12-17 16:57:24.750000
3087,23.52,2021-12-17 16:57:24.765625
3088,21.95,2021-12-17 16:57:24.781250
3089,21.12,2021-12-17 16:57:24.796875
3090,21.01,2021-12-17 16:57:24.812500
3091,21.41,2021-12-17 16:57:24.828125
3092,21.9,2021-12-17 16:57:24.843750
3093,22.08,2021-12-17 16:57:24.859375
3094,21.64,2021-12-17 16:57:24.875000
3095,20.51,2021-12-17 16:57:24.890625
3096,18.84,2021-12-17 16:57:24.906250
3097,16.94,2021-12-17 16:57:24.921875
3098,15.07,2021-12-17 16:57:24.937500
3099,13.36,2021-12-17 16:57:24.953125
3100,11.81,2021-12-17 16:57:24.968750
3101,10.37,2021-12-17 16:57:24.984375
3102,9.12,2021-12-17 16:57:25.000000
3103,8.11,2021-12-17 16:57:25.015625
3104,7.38,2021-12-17 16:57:25.031250
3105,6.79,2021-12-17 16:57:25.046875
3106,6.12,2021-12-17 16:57:25.062500
3107,5.24,2021-12-17 16:57:25.078125
3108,4.41,2021-12-17 16:57:25.093750
3109,4.31,2021-12-17 16:57:25.109375
3110,5.9,2021-12-17 16:57:25.125000
3111,10.05,2021-12-17 16:57:25.140625
3112,17.11,2021-12-17 16:57:25.156250
3113,26.67,2021-12-17 16:57:25.171875
3114,37.75,2021-12-17 16:57:25.187500
3115,49.07,2021-12-17 16:57:25.203125
3116,59.43,2021-12-17 16:57:25.218750
3117,67.96,2021-12-17 16:57:25.234375
3118,74.09,2021-12-17 16:57:25.250000
3119,77.47,2021-12-17 16:57:25.265625
3120,77.85,2021-12-17 16:57:25.281250
3121,75.06,2021-12-17 16:57:25.296875
3122,69.11,2021-12-17 16:57:25.312500
3123,60.27,2021-12-17 16:57:25.328125
3124,49.16,2021-12-17 16:57:25.343750
3125,36.82,2021-12-17 16:57:25.359375
3126,24.6,2021-12-17 16:57:25.375000
3127,13.9,2021-12-17 16:57:25.390625
3128,5.9,2021-12-17 16:57:25.406250
3129,1.3,2021-12-17 16:57:25.421875
3130,0.13,2021-12-17 16:57:25.437500
3131,1.73,2021-12-17 16:57:25.453125
3132,5.11,2021-12-17 16:57:25.468750
3133,9.17,2021-12-17 16:57:25.484375
3134,13.12,2021-12-17 16:57:25.500000
3135,16.59,2021-12-17 16:57:25.515625
3136,19.57,2021-12-17 16:57:25.531250
3137,22.08,2021-12-17 16:57:25.546875
3138,24.03,2021-12-17 16:57:25.562500
3139,25.02,2021-12-17 16:57:25.578125
3140,24.39,2021-12-17 16:57:25.593750
3141,21.59,2021-12-17 16:57:25.609375
3142,16.39,2021-12-17 16:57:25.625000
3143,9.09,2021-12-17 16:57:25.640625
3144,0.47,2021-12-17 16:57:25.656250
3145,-8.45,2021-12-17 16:57:25.671875
3146,-16.64,2021-12-17 16:57:25.687500
3147,-23.21,2021-12-17 16:57:25.703125
3148,-27.43,2021-12-17 16:57:25.718750
3149,-28.65,2021-12-17 16:57:25.734375
