,BVP,time
0,56.82,2022-10-28 16:35:38.453125
1,76.28,2022-10-28 16:35:38.468750
2,90.63,2022-10-28 16:35:38.484375
3,99.9,2022-10-28 16:35:38.500000
4,104.31,2022-10-28 16:35:38.515625
5,104.24,2022-10-28 16:35:38.531250
6,100.26,2022-10-28 16:35:38.546875
7,93.21,2022-10-28 16:35:38.562500
8,84.1,2022-10-28 16:35:38.578125
9,74.12,2022-10-28 16:35:38.593750
10,64.45,2022-10-28 16:35:38.609375
11,56.01,2022-10-28 16:35:38.625000
12,49.31,2022-10-28 16:35:38.640625
13,44.27,2022-10-28 16:35:38.656250
14,40.31,2022-10-28 16:35:38.671875
15,36.55,2022-10-28 16:35:38.687500
16,32.08,2022-10-28 16:35:38.703125
17,26.3,2022-10-28 16:35:38.718750
18,19.04,2022-10-28 16:35:38.734375
19,10.54,2022-10-28 16:35:38.750000
20,1.31,2022-10-28 16:35:38.765625
21,-8.12,2022-10-28 16:35:38.781250
22,-17.32,2022-10-28 16:35:38.796875
23,-26.1,2022-10-28 16:35:38.812500
24,-34.44,2022-10-28 16:35:38.828125
25,-42.54,2022-10-28 16:35:38.843750
26,-50.8,2022-10-28 16:35:38.859375
27,-59.78,2022-10-28 16:35:38.875000
28,-70.06,2022-10-28 16:35:38.890625
29,-81.85,2022-10-28 16:35:38.906250
30,-94.64,2022-10-28 16:35:38.921875
31,-106.85,2022-10-28 16:35:38.937500
32,-116.1,2022-10-28 16:35:38.953125
33,-119.62,2022-10-28 16:35:38.968750
34,-115.24,2022-10-28 16:35:38.984375
35,-102.08,2022-10-28 16:35:39.000000
36,-80.96,2022-10-28 16:35:39.015625
37,-54.14,2022-10-28 16:35:39.031250
38,-24.69,2022-10-28 16:35:39.046875
39,4.33,2022-10-28 16:35:39.062500
40,30.53,2022-10-28 16:35:39.078125
41,52.44,2022-10-28 16:35:39.093750
42,69.42,2022-10-28 16:35:39.109375
43,81.42,2022-10-28 16:35:39.125000
44,88.66,2022-10-28 16:35:39.140625
45,91.5,2022-10-28 16:35:39.156250
46,90.38,2022-10-28 16:35:39.171875
47,85.94,2022-10-28 16:35:39.187500
48,78.97,2022-10-28 16:35:39.203125
49,70.42,2022-10-28 16:35:39.218750
50,61.2,2022-10-28 16:35:39.234375
51,52.06,2022-10-28 16:35:39.250000
52,43.45,2022-10-28 16:35:39.265625
53,35.57,2022-10-28 16:35:39.281250
54,28.49,2022-10-28 16:35:39.296875
55,22.22,2022-10-28 16:35:39.312500
56,16.8,2022-10-28 16:35:39.328125
57,12.24,2022-10-28 16:35:39.343750
58,8.37,2022-10-28 16:35:39.359375
59,4.86,2022-10-28 16:35:39.375000
60,1.22,2022-10-28 16:35:39.390625
61,-3.04,2022-10-28 16:35:39.406250
62,-8.29,2022-10-28 16:35:39.421875
63,-14.68,2022-10-28 16:35:39.437500
64,-22.13,2022-10-28 16:35:39.453125
65,-30.52,2022-10-28 16:35:39.468750
66,-39.72,2022-10-28 16:35:39.484375
67,-49.72,2022-10-28 16:35:39.500000
68,-60.74,2022-10-28 16:35:39.515625
69,-73.09,2022-10-28 16:35:39.531250
70,-86.91,2022-10-28 16:35:39.546875
71,-101.81,2022-10-28 16:35:39.562500
72,-116.48,2022-10-28 16:35:39.578125
73,-128.79,2022-10-28 16:35:39.593750
74,-136.16,2022-10-28 16:35:39.609375
75,-136.33,2022-10-28 16:35:39.625000
76,-128.21,2022-10-28 16:35:39.640625
77,-112.27,2022-10-28 16:35:39.656250
78,-90.43,2022-10-28 16:35:39.671875
79,-65.42,2022-10-28 16:35:39.687500
80,-39.9,2022-10-28 16:35:39.703125
81,-15.86,2022-10-28 16:35:39.718750
82,5.56,2022-10-28 16:35:39.734375
83,23.86,2022-10-28 16:35:39.750000
84,38.73,2022-10-28 16:35:39.765625
85,49.77,2022-10-28 16:35:39.781250
86,56.53,2022-10-28 16:35:39.796875
87,58.8,2022-10-28 16:35:39.812500
88,56.91,2022-10-28 16:35:39.828125
89,51.81,2022-10-28 16:35:39.843750
90,44.93,2022-10-28 16:35:39.859375
91,37.74,2022-10-28 16:35:39.875000
92,31.38,2022-10-28 16:35:39.890625
93,26.47,2022-10-28 16:35:39.906250
94,23.08,2022-10-28 16:35:39.921875
95,20.96,2022-10-28 16:35:39.937500
96,19.77,2022-10-28 16:35:39.953125
97,19.22,2022-10-28 16:35:39.968750
98,19.02,2022-10-28 16:35:39.984375
99,18.9,2022-10-28 16:35:40.000000
100,18.52,2022-10-28 16:35:40.015625
101,17.59,2022-10-28 16:35:40.031250
102,15.84,2022-10-28 16:35:40.046875
103,13.08,2022-10-28 16:35:40.062500
104,9.11,2022-10-28 16:35:40.078125
105,3.65,2022-10-28 16:35:40.093750
106,-3.72,2022-10-28 16:35:40.109375
107,-13.46,2022-10-28 16:35:40.125000
108,-25.87,2022-10-28 16:35:40.140625
109,-40.83,2022-10-28 16:35:40.156250
110,-57.54,2022-10-28 16:35:40.171875
111,-74.29,2022-10-28 16:35:40.187500
112,-88.49,2022-10-28 16:35:40.203125
113,-96.96,2022-10-28 16:35:40.218750
114,-96.64,2022-10-28 16:35:40.234375
115,-85.35,2022-10-28 16:35:40.250000
116,-62.63,2022-10-28 16:35:40.265625
117,-29.99,2022-10-28 16:35:40.281250
118,9.28,2022-10-28 16:35:40.296875
119,50.99,2022-10-28 16:35:40.312500
120,91.04,2022-10-28 16:35:40.328125
121,126.36,2022-10-28 16:35:40.343750
122,155.33,2022-10-28 16:35:40.359375
123,177.49,2022-10-28 16:35:40.375000
124,192.99,2022-10-28 16:35:40.390625
125,202.09,2022-10-28 16:35:40.406250
126,204.99,2022-10-28 16:35:40.421875
127,202.05,2022-10-28 16:35:40.437500
128,194.03,2022-10-28 16:35:40.453125
129,182.13,2022-10-28 16:35:40.468750
130,167.83,2022-10-28 16:35:40.484375
131,152.59,2022-10-28 16:35:40.500000
132,137.54,2022-10-28 16:35:40.515625
133,123.45,2022-10-28 16:35:40.531250
134,110.58,2022-10-28 16:35:40.546875
135,98.36,2022-10-28 16:35:40.562500
136,85.29,2022-10-28 16:35:40.578125
137,69.29,2022-10-28 16:35:40.593750
138,48.42,2022-10-28 16:35:40.609375
139,22.06,2022-10-28 16:35:40.625000
140,-8.2,2022-10-28 16:35:40.640625
141,-38.9,2022-10-28 16:35:40.656250
142,-65.74,2022-10-28 16:35:40.671875
143,-84.96,2022-10-28 16:35:40.687500
144,-94.25,2022-10-28 16:35:40.703125
145,-93.09,2022-10-28 16:35:40.718750
146,-82.73,2022-10-28 16:35:40.734375
147,-66.37,2022-10-28 16:35:40.750000
148,-49.17,2022-10-28 16:35:40.765625
149,-37.63,2022-10-28 16:35:40.781250
150,-38.02,2022-10-28 16:35:40.796875
151,-53.74,2022-10-28 16:35:40.812500
152,-83.35,2022-10-28 16:35:40.828125
153,-120.27,2022-10-28 16:35:40.843750
154,-154.97,2022-10-28 16:35:40.859375
155,-178.55,2022-10-28 16:35:40.875000
156,-185.98,2022-10-28 16:35:40.890625
157,-177.23,2022-10-28 16:35:40.906250
158,-155.97,2022-10-28 16:35:40.921875
159,-127.15,2022-10-28 16:35:40.937500
160,-94.94,2022-10-28 16:35:40.953125
161,-62.15,2022-10-28 16:35:40.968750
162,-30.92,2022-10-28 16:35:40.984375
163,-3.56,2022-10-28 16:35:41.000000
164,17.44,2022-10-28 16:35:41.015625
165,30.29,2022-10-28 16:35:41.031250
166,34.79,2022-10-28 16:35:41.046875
167,32.78,2022-10-28 16:35:41.062500
168,27.3,2022-10-28 16:35:41.078125
169,21.6,2022-10-28 16:35:41.093750
170,17.89,2022-10-28 16:35:41.109375
171,16.74,2022-10-28 16:35:41.125000
172,17.43,2022-10-28 16:35:41.140625
173,18.79,2022-10-28 16:35:41.156250
174,19.89,2022-10-28 16:35:41.171875
175,20.51,2022-10-28 16:35:41.187500
176,21.13,2022-10-28 16:35:41.203125
177,22.43,2022-10-28 16:35:41.218750
178,24.8,2022-10-28 16:35:41.234375
179,28.04,2022-10-28 16:35:41.250000
180,31.48,2022-10-28 16:35:41.265625
181,34.28,2022-10-28 16:35:41.281250
182,35.87,2022-10-28 16:35:41.296875
183,36.16,2022-10-28 16:35:41.312500
184,35.43,2022-10-28 16:35:41.328125
185,34.05,2022-10-28 16:35:41.343750
186,32.2,2022-10-28 16:35:41.359375
187,29.63,2022-10-28 16:35:41.375000
188,25.71,2022-10-28 16:35:41.390625
189,19.66,2022-10-28 16:35:41.406250
190,10.97,2022-10-28 16:35:41.421875
191,-0.18,2022-10-28 16:35:41.437500
192,-12.56,2022-10-28 16:35:41.453125
193,-23.79,2022-10-28 16:35:41.468750
194,-30.69,2022-10-28 16:35:41.484375
195,-30.04,2022-10-28 16:35:41.500000
196,-19.57,2022-10-28 16:35:41.515625
197,1.14,2022-10-28 16:35:41.531250
198,30.33,2022-10-28 16:35:41.546875
199,64.43,2022-10-28 16:35:41.562500
200,99.1,2022-10-28 16:35:41.578125
201,130.45,2022-10-28 16:35:41.593750
202,155.96,2022-10-28 16:35:41.609375
203,174.74,2022-10-28 16:35:41.625000
204,187.12,2022-10-28 16:35:41.640625
205,194.05,2022-10-28 16:35:41.656250
206,196.39,2022-10-28 16:35:41.671875
207,194.76,2022-10-28 16:35:41.687500
208,189.72,2022-10-28 16:35:41.703125
209,182.14,2022-10-28 16:35:41.718750
210,173.32,2022-10-28 16:35:41.734375
211,164.81,2022-10-28 16:35:41.750000
212,157.95,2022-10-28 16:35:41.765625
213,153.37,2022-10-28 16:35:41.781250
214,150.65,2022-10-28 16:35:41.796875
215,148.52,2022-10-28 16:35:41.812500
216,145.43,2022-10-28 16:35:41.828125
217,140.23,2022-10-28 16:35:41.843750
218,132.64,2022-10-28 16:35:41.859375
219,123.3,2022-10-28 16:35:41.875000
220,113.45,2022-10-28 16:35:41.890625
221,104.32,2022-10-28 16:35:41.906250
222,96.67,2022-10-28 16:35:41.921875
223,90.57,2022-10-28 16:35:41.937500
224,85.5,2022-10-28 16:35:41.953125
225,80.71,2022-10-28 16:35:41.968750
226,75.56,2022-10-28 16:35:41.984375
227,69.78,2022-10-28 16:35:42.000000
228,63.43,2022-10-28 16:35:42.015625
229,56.81,2022-10-28 16:35:42.031250
230,50.15,2022-10-28 16:35:42.046875
231,43.5,2022-10-28 16:35:42.062500
232,36.63,2022-10-28 16:35:42.078125
233,29.16,2022-10-28 16:35:42.093750
234,20.72,2022-10-28 16:35:42.109375
235,11.22,2022-10-28 16:35:42.125000
236,0.91,2022-10-28 16:35:42.140625
237,-9.55,2022-10-28 16:35:42.156250
238,-19.22,2022-10-28 16:35:42.171875
239,-27.01,2022-10-28 16:35:42.187500
240,-31.98,2022-10-28 16:35:42.203125
241,-33.52,2022-10-28 16:35:42.218750
242,-31.61,2022-10-28 16:35:42.234375
243,-26.86,2022-10-28 16:35:42.250000
244,-20.44,2022-10-28 16:35:42.265625
245,-13.72,2022-10-28 16:35:42.281250
246,-7.94,2022-10-28 16:35:42.296875
247,-3.84,2022-10-28 16:35:42.312500
248,-1.67,2022-10-28 16:35:42.328125
249,-1.26,2022-10-28 16:35:42.343750
250,-2.19,2022-10-28 16:35:42.359375
251,-3.96,2022-10-28 16:35:42.375000
252,-5.95,2022-10-28 16:35:42.390625
253,-7.34,2022-10-28 16:35:42.406250
254,-7.17,2022-10-28 16:35:42.421875
255,-4.54,2022-10-28 16:35:42.437500
256,1.01,2022-10-28 16:35:42.453125
257,9.14,2022-10-28 16:35:42.468750
258,18.52,2022-10-28 16:35:42.484375
259,26.94,2022-10-28 16:35:42.500000
260,31.84,2022-10-28 16:35:42.515625
261,31.04,2022-10-28 16:35:42.531250
262,23.47,2022-10-28 16:35:42.546875
263,9.63,2022-10-28 16:35:42.562500
264,-8.68,2022-10-28 16:35:42.578125
265,-29.06,2022-10-28 16:35:42.593750
266,-49.64,2022-10-28 16:35:42.609375
267,-69.72,2022-10-28 16:35:42.625000
268,-89.84,2022-10-28 16:35:42.640625
269,-111.02,2022-10-28 16:35:42.656250
270,-133.65,2022-10-28 16:35:42.671875
271,-156.81,2022-10-28 16:35:42.687500
272,-178.3,2022-10-28 16:35:42.703125
273,-195.59,2022-10-28 16:35:42.718750
274,-207.08,2022-10-28 16:35:42.734375
275,-212.9,2022-10-28 16:35:42.750000
276,-214.91,2022-10-28 16:35:42.765625
277,-215.85,2022-10-28 16:35:42.781250
278,-218.24,2022-10-28 16:35:42.796875
279,-223.56,2022-10-28 16:35:42.812500
280,-231.98,2022-10-28 16:35:42.828125
281,-242.48,2022-10-28 16:35:42.843750
282,-253.12,2022-10-28 16:35:42.859375
283,-261.32,2022-10-28 16:35:42.875000
284,-264.17,2022-10-28 16:35:42.890625
285,-259.02,2022-10-28 16:35:42.906250
286,-244.13,2022-10-28 16:35:42.921875
287,-219.41,2022-10-28 16:35:42.937500
288,-186.6,2022-10-28 16:35:42.953125
289,-148.97,2022-10-28 16:35:42.968750
290,-110.34,2022-10-28 16:35:42.984375
291,-74.12,2022-10-28 16:35:43.000000
292,-42.57,2022-10-28 16:35:43.015625
293,-16.55,2022-10-28 16:35:43.031250
294,4.13,2022-10-28 16:35:43.046875
295,20.35,2022-10-28 16:35:43.062500
296,33.29,2022-10-28 16:35:43.078125
297,44.21,2022-10-28 16:35:43.093750
298,54.13,2022-10-28 16:35:43.109375
299,63.6,2022-10-28 16:35:43.125000
300,72.35,2022-10-28 16:35:43.140625
301,79.39,2022-10-28 16:35:43.156250
302,83.55,2022-10-28 16:35:43.171875
303,84.21,2022-10-28 16:35:43.187500
304,82.0,2022-10-28 16:35:43.203125
305,78.99,2022-10-28 16:35:43.218750
306,77.97,2022-10-28 16:35:43.234375
307,81.64,2022-10-28 16:35:43.250000
308,91.68,2022-10-28 16:35:43.265625
309,108.39,2022-10-28 16:35:43.281250
310,130.54,2022-10-28 16:35:43.296875
311,155.47,2022-10-28 16:35:43.312500
312,179.05,2022-10-28 16:35:43.328125
313,195.96,2022-10-28 16:35:43.343750
314,200.53,2022-10-28 16:35:43.359375
315,188.37,2022-10-28 16:35:43.375000
316,158.32,2022-10-28 16:35:43.390625
317,113.52,2022-10-28 16:35:43.406250
318,61.06,2022-10-28 16:35:43.421875
319,9.69,2022-10-28 16:35:43.437500
320,-33.33,2022-10-28 16:35:43.453125
321,-64.7,2022-10-28 16:35:43.468750
322,-85.81,2022-10-28 16:35:43.484375
323,-101.29,2022-10-28 16:35:43.500000
324,-116.34,2022-10-28 16:35:43.515625
325,-134.2,2022-10-28 16:35:43.531250
326,-154.97,2022-10-28 16:35:43.546875
327,-176.06,2022-10-28 16:35:43.562500
328,-193.77,2022-10-28 16:35:43.578125
329,-204.9,2022-10-28 16:35:43.593750
330,-207.78,2022-10-28 16:35:43.609375
331,-202.28,2022-10-28 16:35:43.625000
332,-189.24,2022-10-28 16:35:43.640625
333,-169.88,2022-10-28 16:35:43.656250
334,-145.38,2022-10-28 16:35:43.671875
335,-117.2,2022-10-28 16:35:43.687500
336,-87.3,2022-10-28 16:35:43.703125
337,-58.32,2022-10-28 16:35:43.718750
338,-33.29,2022-10-28 16:35:43.734375
339,-14.77,2022-10-28 16:35:43.750000
340,-4.11,2022-10-28 16:35:43.765625
341,-0.96,2022-10-28 16:35:43.781250
342,-3.45,2022-10-28 16:35:43.796875
343,-8.88,2022-10-28 16:35:43.812500
344,-14.72,2022-10-28 16:35:43.828125
345,-19.35,2022-10-28 16:35:43.843750
346,-22.31,2022-10-28 16:35:43.859375
347,-24.08,2022-10-28 16:35:43.875000
348,-25.49,2022-10-28 16:35:43.890625
349,-27.21,2022-10-28 16:35:43.906250
350,-29.27,2022-10-28 16:35:43.921875
351,-31.12,2022-10-28 16:35:43.937500
352,-31.76,2022-10-28 16:35:43.953125
353,-30.32,2022-10-28 16:35:43.968750
354,-26.52,2022-10-28 16:35:43.984375
355,-21.0,2022-10-28 16:35:44.000000
356,-15.18,2022-10-28 16:35:44.015625
357,-10.84,2022-10-28 16:35:44.031250
358,-9.45,2022-10-28 16:35:44.046875
359,-11.62,2022-10-28 16:35:44.062500
360,-16.94,2022-10-28 16:35:44.078125
361,-24.24,2022-10-28 16:35:44.093750
362,-32.12,2022-10-28 16:35:44.109375
363,-39.54,2022-10-28 16:35:44.125000
364,-46.12,2022-10-28 16:35:44.140625
365,-52.27,2022-10-28 16:35:44.156250
366,-59.0,2022-10-28 16:35:44.171875
367,-67.55,2022-10-28 16:35:44.187500
368,-78.98,2022-10-28 16:35:44.203125
369,-93.64,2022-10-28 16:35:44.218750
370,-110.64,2022-10-28 16:35:44.234375
371,-127.72,2022-10-28 16:35:44.250000
372,-141.34,2022-10-28 16:35:44.265625
373,-147.51,2022-10-28 16:35:44.281250
374,-142.86,2022-10-28 16:35:44.296875
375,-125.69,2022-10-28 16:35:44.312500
376,-96.63,2022-10-28 16:35:44.328125
377,-58.37,2022-10-28 16:35:44.343750
378,-15.0,2022-10-28 16:35:44.359375
379,29.21,2022-10-28 16:35:44.375000
380,70.58,2022-10-28 16:35:44.390625
381,106.49,2022-10-28 16:35:44.406250
382,135.42,2022-10-28 16:35:44.421875
383,156.65,2022-10-28 16:35:44.437500
384,170.02,2022-10-28 16:35:44.453125
385,175.88,2022-10-28 16:35:44.468750
386,175.11,2022-10-28 16:35:44.484375
387,169.04,2022-10-28 16:35:44.500000
388,159.33,2022-10-28 16:35:44.515625
389,147.67,2022-10-28 16:35:44.531250
390,135.36,2022-10-28 16:35:44.546875
391,123.27,2022-10-28 16:35:44.562500
392,111.81,2022-10-28 16:35:44.578125
393,101.21,2022-10-28 16:35:44.593750
394,91.77,2022-10-28 16:35:44.609375
395,84.05,2022-10-28 16:35:44.625000
396,78.73,2022-10-28 16:35:44.640625
397,76.44,2022-10-28 16:35:44.656250
398,77.51,2022-10-28 16:35:44.671875
399,81.71,2022-10-28 16:35:44.687500
400,88.29,2022-10-28 16:35:44.703125
401,96.08,2022-10-28 16:35:44.718750
402,103.67,2022-10-28 16:35:44.734375
403,109.75,2022-10-28 16:35:44.750000
404,113.31,2022-10-28 16:35:44.765625
405,113.84,2022-10-28 16:35:44.781250
406,111.36,2022-10-28 16:35:44.796875
407,106.14,2022-10-28 16:35:44.812500
408,98.28,2022-10-28 16:35:44.828125
409,87.35,2022-10-28 16:35:44.843750
410,72.19,2022-10-28 16:35:44.859375
411,51.3,2022-10-28 16:35:44.875000
412,23.59,2022-10-28 16:35:44.890625
413,-10.73,2022-10-28 16:35:44.906250
414,-49.55,2022-10-28 16:35:44.921875
415,-88.94,2022-10-28 16:35:44.937500
416,-123.79,2022-10-28 16:35:44.953125
417,-148.96,2022-10-28 16:35:44.968750
418,-160.38,2022-10-28 16:35:44.984375
419,-155.87,2022-10-28 16:35:45.000000
420,-135.4,2022-10-28 16:35:45.015625
421,-100.99,2022-10-28 16:35:45.031250
422,-56.24,2022-10-28 16:35:45.046875
423,-5.74,2022-10-28 16:35:45.062500
424,45.61,2022-10-28 16:35:45.078125
425,93.29,2022-10-28 16:35:45.093750
426,133.72,2022-10-28 16:35:45.109375
427,164.58,2022-10-28 16:35:45.125000
428,184.89,2022-10-28 16:35:45.140625
429,194.82,2022-10-28 16:35:45.156250
430,195.44,2022-10-28 16:35:45.171875
431,188.37,2022-10-28 16:35:45.187500
432,175.49,2022-10-28 16:35:45.203125
433,158.74,2022-10-28 16:35:45.218750
434,139.94,2022-10-28 16:35:45.234375
435,120.59,2022-10-28 16:35:45.250000
436,101.78,2022-10-28 16:35:45.265625
437,84.1,2022-10-28 16:35:45.281250
438,67.74,2022-10-28 16:35:45.296875
439,52.6,2022-10-28 16:35:45.312500
440,38.48,2022-10-28 16:35:45.328125
441,25.22,2022-10-28 16:35:45.343750
442,12.71,2022-10-28 16:35:45.359375
443,0.85,2022-10-28 16:35:45.375000
444,-10.5,2022-10-28 16:35:45.390625
445,-21.56,2022-10-28 16:35:45.406250
446,-32.55,2022-10-28 16:35:45.421875
447,-43.61,2022-10-28 16:35:45.437500
448,-54.68,2022-10-28 16:35:45.453125
449,-65.42,2022-10-28 16:35:45.468750
450,-75.26,2022-10-28 16:35:45.484375
451,-83.55,2022-10-28 16:35:45.500000
452,-89.87,2022-10-28 16:35:45.515625
453,-94.18,2022-10-28 16:35:45.531250
454,-96.9,2022-10-28 16:35:45.546875
455,-99.0,2022-10-28 16:35:45.562500
456,-101.82,2022-10-28 16:35:45.578125
457,-106.83,2022-10-28 16:35:45.593750
458,-115.21,2022-10-28 16:35:45.609375
459,-127.15,2022-10-28 16:35:45.625000
460,-141.37,2022-10-28 16:35:45.640625
461,-154.84,2022-10-28 16:35:45.656250
462,-163.36,2022-10-28 16:35:45.671875
463,-162.54,2022-10-28 16:35:45.687500
464,-149.18,2022-10-28 16:35:45.703125
465,-122.27,2022-10-28 16:35:45.718750
466,-83.34,2022-10-28 16:35:45.734375
467,-36.04,2022-10-28 16:35:45.750000
468,14.65,2022-10-28 16:35:45.765625
469,63.45,2022-10-28 16:35:45.781250
470,105.63,2022-10-28 16:35:45.796875
471,137.56,2022-10-28 16:35:45.812500
472,157.2,2022-10-28 16:35:45.828125
473,164.26,2022-10-28 16:35:45.843750
474,160.24,2022-10-28 16:35:45.859375
475,147.99,2022-10-28 16:35:45.875000
476,131.05,2022-10-28 16:35:45.890625
477,112.73,2022-10-28 16:35:45.906250
478,95.44,2022-10-28 16:35:45.921875
479,80.38,2022-10-28 16:35:45.937500
480,67.67,2022-10-28 16:35:45.953125
481,56.85,2022-10-28 16:35:45.968750
482,47.29,2022-10-28 16:35:45.984375
483,38.56,2022-10-28 16:35:46.000000
484,30.49,2022-10-28 16:35:46.015625
485,23.14,2022-10-28 16:35:46.031250
486,16.59,2022-10-28 16:35:46.046875
487,10.81,2022-10-28 16:35:46.062500
488,5.55,2022-10-28 16:35:46.078125
489,0.32,2022-10-28 16:35:46.093750
490,-5.54,2022-10-28 16:35:46.109375
491,-12.63,2022-10-28 16:35:46.125000
492,-21.37,2022-10-28 16:35:46.140625
493,-31.81,2022-10-28 16:35:46.156250
494,-43.63,2022-10-28 16:35:46.171875
495,-56.22,2022-10-28 16:35:46.187500
496,-68.77,2022-10-28 16:35:46.203125
497,-80.62,2022-10-28 16:35:46.218750
498,-91.33,2022-10-28 16:35:46.234375
499,-100.85,2022-10-28 16:35:46.250000
500,-109.63,2022-10-28 16:35:46.265625
501,-118.48,2022-10-28 16:35:46.281250
502,-128.41,2022-10-28 16:35:46.296875
503,-140.07,2022-10-28 16:35:46.312500
504,-153.3,2022-10-28 16:35:46.328125
505,-166.62,2022-10-28 16:35:46.343750
506,-177.26,2022-10-28 16:35:46.359375
507,-181.62,2022-10-28 16:35:46.375000
508,-176.3,2022-10-28 16:35:46.390625
509,-159.13,2022-10-28 16:35:46.406250
510,-129.97,2022-10-28 16:35:46.421875
511,-90.8,2022-10-28 16:35:46.437500
512,-45.35,2022-10-28 16:35:46.453125
513,1.87,2022-10-28 16:35:46.468750
514,46.5,2022-10-28 16:35:46.484375
515,84.95,2022-10-28 16:35:46.500000
516,114.79,2022-10-28 16:35:46.515625
517,134.72,2022-10-28 16:35:46.531250
518,144.46,2022-10-28 16:35:46.546875
519,144.6,2022-10-28 16:35:46.562500
520,136.42,2022-10-28 16:35:46.578125
521,121.84,2022-10-28 16:35:46.593750
522,103.15,2022-10-28 16:35:46.609375
523,82.78,2022-10-28 16:35:46.625000
524,62.94,2022-10-28 16:35:46.640625
525,45.28,2022-10-28 16:35:46.656250
526,30.7,2022-10-28 16:35:46.671875
527,19.31,2022-10-28 16:35:46.687500
528,10.73,2022-10-28 16:35:46.703125
529,4.41,2022-10-28 16:35:46.718750
530,-0.1,2022-10-28 16:35:46.734375
531,-3.11,2022-10-28 16:35:46.750000
532,-4.83,2022-10-28 16:35:46.765625
533,-5.58,2022-10-28 16:35:46.781250
534,-5.85,2022-10-28 16:35:46.796875
535,-6.15,2022-10-28 16:35:46.812500
536,-6.89,2022-10-28 16:35:46.828125
537,-8.26,2022-10-28 16:35:46.843750
538,-10.23,2022-10-28 16:35:46.859375
539,-12.8,2022-10-28 16:35:46.875000
540,-16.17,2022-10-28 16:35:46.890625
541,-20.74,2022-10-28 16:35:46.906250
542,-27.04,2022-10-28 16:35:46.921875
543,-35.51,2022-10-28 16:35:46.937500
544,-46.39,2022-10-28 16:35:46.953125
545,-59.56,2022-10-28 16:35:46.968750
546,-74.49,2022-10-28 16:35:46.984375
547,-90.0,2022-10-28 16:35:47.000000
548,-104.1,2022-10-28 16:35:47.015625
549,-113.98,2022-10-28 16:35:47.031250
550,-116.34,2022-10-28 16:35:47.046875
551,-108.18,2022-10-28 16:35:47.062500
552,-87.79,2022-10-28 16:35:47.078125
553,-55.54,2022-10-28 16:35:47.093750
554,-14.03,2022-10-28 16:35:47.109375
555,32.49,2022-10-28 16:35:47.125000
556,79.28,2022-10-28 16:35:47.140625
557,122.21,2022-10-28 16:35:47.156250
558,158.46,2022-10-28 16:35:47.171875
559,186.56,2022-10-28 16:35:47.187500
560,206.04,2022-10-28 16:35:47.203125
561,216.94,2022-10-28 16:35:47.218750
562,219.69,2022-10-28 16:35:47.234375
563,215.16,2022-10-28 16:35:47.250000
564,204.75,2022-10-28 16:35:47.265625
565,190.26,2022-10-28 16:35:47.281250
566,173.39,2022-10-28 16:35:47.296875
567,155.21,2022-10-28 16:35:47.312500
568,135.8,2022-10-28 16:35:47.328125
569,114.51,2022-10-28 16:35:47.343750
570,90.62,2022-10-28 16:35:47.359375
571,64.02,2022-10-28 16:35:47.375000
572,35.57,2022-10-28 16:35:47.390625
573,6.78,2022-10-28 16:35:47.406250
574,-20.79,2022-10-28 16:35:47.421875
575,-46.08,2022-10-28 16:35:47.437500
576,-68.9,2022-10-28 16:35:47.453125
577,-89.61,2022-10-28 16:35:47.468750
578,-108.76,2022-10-28 16:35:47.484375
579,-126.7,2022-10-28 16:35:47.500000
580,-143.37,2022-10-28 16:35:47.515625
581,-158.4,2022-10-28 16:35:47.531250
582,-171.24,2022-10-28 16:35:47.546875
583,-181.31,2022-10-28 16:35:47.562500
584,-188.13,2022-10-28 16:35:47.578125
585,-191.51,2022-10-28 16:35:47.593750
586,-191.87,2022-10-28 16:35:47.609375
587,-190.36,2022-10-28 16:35:47.625000
588,-188.6,2022-10-28 16:35:47.640625
589,-187.75,2022-10-28 16:35:47.656250
590,-187.65,2022-10-28 16:35:47.671875
591,-186.19,2022-10-28 16:35:47.687500
592,-179.62,2022-10-28 16:35:47.703125
593,-163.75,2022-10-28 16:35:47.718750
594,-135.62,2022-10-28 16:35:47.734375
595,-94.79,2022-10-28 16:35:47.750000
596,-43.76,2022-10-28 16:35:47.765625
597,12.54,2022-10-28 16:35:47.781250
598,68.15,2022-10-28 16:35:47.796875
599,117.5,2022-10-28 16:35:47.812500
600,156.49,2022-10-28 16:35:47.828125
601,182.96,2022-10-28 16:35:47.843750
602,196.6,2022-10-28 16:35:47.859375
603,198.57,2022-10-28 16:35:47.875000
604,190.93,2022-10-28 16:35:47.890625
605,176.15,2022-10-28 16:35:47.906250
606,156.63,2022-10-28 16:35:47.921875
607,134.58,2022-10-28 16:35:47.937500
608,112.01,2022-10-28 16:35:47.953125
609,90.84,2022-10-28 16:35:47.968750
610,73.04,2022-10-28 16:35:47.984375
611,60.38,2022-10-28 16:35:48.000000
612,54.13,2022-10-28 16:35:48.015625
613,54.64,2022-10-28 16:35:48.031250
614,61.1,2022-10-28 16:35:48.046875
615,71.68,2022-10-28 16:35:48.062500
616,84.04,2022-10-28 16:35:48.078125
617,95.92,2022-10-28 16:35:48.093750
618,105.67,2022-10-28 16:35:48.109375
619,112.55,2022-10-28 16:35:48.125000
620,116.67,2022-10-28 16:35:48.140625
621,118.72,2022-10-28 16:35:48.156250
622,119.63,2022-10-28 16:35:48.171875
623,120.23,2022-10-28 16:35:48.187500
624,120.98,2022-10-28 16:35:48.203125
625,121.71,2022-10-28 16:35:48.218750
626,121.61,2022-10-28 16:35:48.234375
627,119.24,2022-10-28 16:35:48.250000
628,112.91,2022-10-28 16:35:48.265625
629,101.0,2022-10-28 16:35:48.281250
630,82.53,2022-10-28 16:35:48.296875
631,57.62,2022-10-28 16:35:48.312500
632,27.67,2022-10-28 16:35:48.328125
633,-4.67,2022-10-28 16:35:48.343750
634,-36.0,2022-10-28 16:35:48.359375
635,-62.84,2022-10-28 16:35:48.375000
636,-82.44,2022-10-28 16:35:48.390625
637,-93.33,2022-10-28 16:35:48.406250
638,-95.44,2022-10-28 16:35:48.421875
639,-89.92,2022-10-28 16:35:48.437500
640,-78.71,2022-10-28 16:35:48.453125
641,-64.07,2022-10-28 16:35:48.468750
642,-48.36,2022-10-28 16:35:48.484375
643,-33.78,2022-10-28 16:35:48.500000
644,-22.27,2022-10-28 16:35:48.515625
645,-15.22,2022-10-28 16:35:48.531250
646,-13.2,2022-10-28 16:35:48.546875
647,-15.67,2022-10-28 16:35:48.562500
648,-21.04,2022-10-28 16:35:48.578125
649,-27.08,2022-10-28 16:35:48.593750
650,-31.68,2022-10-28 16:35:48.609375
651,-33.48,2022-10-28 16:35:48.625000
652,-32.31,2022-10-28 16:35:48.640625
653,-29.0,2022-10-28 16:35:48.656250
654,-24.88,2022-10-28 16:35:48.671875
655,-21.05,2022-10-28 16:35:48.687500
656,-17.95,2022-10-28 16:35:48.703125
657,-15.25,2022-10-28 16:35:48.718750
658,-12.17,2022-10-28 16:35:48.734375
659,-7.94,2022-10-28 16:35:48.750000
660,-2.29,2022-10-28 16:35:48.765625
661,4.47,2022-10-28 16:35:48.781250
662,11.56,2022-10-28 16:35:48.796875
663,18.14,2022-10-28 16:35:48.812500
664,23.52,2022-10-28 16:35:48.828125
665,27.36,2022-10-28 16:35:48.843750
666,29.62,2022-10-28 16:35:48.859375
667,30.28,2022-10-28 16:35:48.875000
668,29.3,2022-10-28 16:35:48.890625
669,26.48,2022-10-28 16:35:48.906250
670,21.66,2022-10-28 16:35:48.921875
671,14.88,2022-10-28 16:35:48.937500
672,6.5,2022-10-28 16:35:48.953125
673,-2.9,2022-10-28 16:35:48.968750
674,-12.74,2022-10-28 16:35:48.984375
675,-22.58,2022-10-28 16:35:49.000000
676,-32.17,2022-10-28 16:35:49.015625
677,-41.15,2022-10-28 16:35:49.031250
678,-48.82,2022-10-28 16:35:49.046875
679,-53.96,2022-10-28 16:35:49.062500
680,-54.99,2022-10-28 16:35:49.078125
681,-50.37,2022-10-28 16:35:49.093750
682,-39.11,2022-10-28 16:35:49.109375
683,-21.22,2022-10-28 16:35:49.125000
684,2.12,2022-10-28 16:35:49.140625
685,28.68,2022-10-28 16:35:49.156250
686,55.48,2022-10-28 16:35:49.171875
687,79.34,2022-10-28 16:35:49.187500
688,97.5,2022-10-28 16:35:49.203125
689,108.05,2022-10-28 16:35:49.218750
690,110.27,2022-10-28 16:35:49.234375
691,104.47,2022-10-28 16:35:49.250000
692,91.62,2022-10-28 16:35:49.265625
693,72.99,2022-10-28 16:35:49.281250
694,49.94,2022-10-28 16:35:49.296875
695,24.01,2022-10-28 16:35:49.312500
696,-2.87,2022-10-28 16:35:49.328125
697,-28.54,2022-10-28 16:35:49.343750
698,-50.96,2022-10-28 16:35:49.359375
699,-69.01,2022-10-28 16:35:49.375000
700,-82.94,2022-10-28 16:35:49.390625
701,-94.27,2022-10-28 16:35:49.406250
702,-104.94,2022-10-28 16:35:49.421875
703,-116.25,2022-10-28 16:35:49.437500
704,-128.1,2022-10-28 16:35:49.453125
705,-139.08,2022-10-28 16:35:49.468750
706,-147.32,2022-10-28 16:35:49.484375
707,-151.65,2022-10-28 16:35:49.500000
708,-152.3,2022-10-28 16:35:49.515625
709,-150.59,2022-10-28 16:35:49.531250
710,-147.92,2022-10-28 16:35:49.546875
711,-144.54,2022-10-28 16:35:49.562500
712,-139.13,2022-10-28 16:35:49.578125
713,-129.34,2022-10-28 16:35:49.593750
714,-113.06,2022-10-28 16:35:49.609375
715,-89.55,2022-10-28 16:35:49.625000
716,-59.82,2022-10-28 16:35:49.640625
717,-26.05,2022-10-28 16:35:49.656250
718,9.28,2022-10-28 16:35:49.671875
719,44.09,2022-10-28 16:35:49.687500
720,76.79,2022-10-28 16:35:49.703125
721,106.21,2022-10-28 16:35:49.718750
722,131.81,2022-10-28 16:35:49.734375
723,154.33,2022-10-28 16:35:49.750000
724,176.31,2022-10-28 16:35:49.765625
725,201.93,2022-10-28 16:35:49.781250
726,235.66,2022-10-28 16:35:49.796875
727,280.02,2022-10-28 16:35:49.812500
728,333.7,2022-10-28 16:35:49.828125
729,391.02,2022-10-28 16:35:49.843750
730,443.41,2022-10-28 16:35:49.859375
731,482.22,2022-10-28 16:35:49.875000
732,501.53,2022-10-28 16:35:49.890625
733,499.9,2022-10-28 16:35:49.906250
734,480.04,2022-10-28 16:35:49.921875
735,447.22,2022-10-28 16:35:49.937500
736,407.17,2022-10-28 16:35:49.953125
737,364.39,2022-10-28 16:35:49.968750
738,321.55,2022-10-28 16:35:49.984375
739,279.75,2022-10-28 16:35:50.000000
740,239.13,2022-10-28 16:35:50.015625
741,199.34,2022-10-28 16:35:50.031250
742,159.78,2022-10-28 16:35:50.046875
743,119.89,2022-10-28 16:35:50.062500
744,79.39,2022-10-28 16:35:50.078125
745,38.83,2022-10-28 16:35:50.093750
746,-0.15,2022-10-28 16:35:50.109375
747,-34.82,2022-10-28 16:35:50.125000
748,-61.95,2022-10-28 16:35:50.140625
749,-78.84,2022-10-28 16:35:50.156250
750,-84.17,2022-10-28 16:35:50.171875
751,-78.58,2022-10-28 16:35:50.187500
752,-64.62,2022-10-28 16:35:50.203125
753,-46.25,2022-10-28 16:35:50.218750
754,-27.98,2022-10-28 16:35:50.234375
755,-13.82,2022-10-28 16:35:50.250000
756,-6.41,2022-10-28 16:35:50.265625
757,-6.53,2022-10-28 16:35:50.281250
758,-13.26,2022-10-28 16:35:50.296875
759,-24.71,2022-10-28 16:35:50.312500
760,-39.04,2022-10-28 16:35:50.328125
761,-55.14,2022-10-28 16:35:50.343750
762,-72.78,2022-10-28 16:35:50.359375
763,-92.09,2022-10-28 16:35:50.375000
764,-112.95,2022-10-28 16:35:50.390625
765,-134.67,2022-10-28 16:35:50.406250
766,-156.15,2022-10-28 16:35:50.421875
767,-176.43,2022-10-28 16:35:50.437500
768,-194.85,2022-10-28 16:35:50.453125
769,-210.99,2022-10-28 16:35:50.468750
770,-224.21,2022-10-28 16:35:50.484375
771,-233.5,2022-10-28 16:35:50.500000
772,-237.62,2022-10-28 16:35:50.515625
773,-235.73,2022-10-28 16:35:50.531250
774,-228.04,2022-10-28 16:35:50.546875
775,-215.86,2022-10-28 16:35:50.562500
776,-201.1,2022-10-28 16:35:50.578125
777,-185.53,2022-10-28 16:35:50.593750
778,-170.12,2022-10-28 16:35:50.609375
779,-154.91,2022-10-28 16:35:50.625000
780,-139.5,2022-10-28 16:35:50.640625
781,-123.64,2022-10-28 16:35:50.656250
782,-107.73,2022-10-28 16:35:50.671875
783,-92.86,2022-10-28 16:35:50.687500
784,-80.33,2022-10-28 16:35:50.703125
785,-71.02,2022-10-28 16:35:50.718750
786,-64.99,2022-10-28 16:35:50.734375
787,-61.44,2022-10-28 16:35:50.750000
788,-59.1,2022-10-28 16:35:50.765625
789,-56.89,2022-10-28 16:35:50.781250
790,-54.41,2022-10-28 16:35:50.796875
791,-52.02,2022-10-28 16:35:50.812500
792,-50.63,2022-10-28 16:35:50.828125
793,-51.14,2022-10-28 16:35:50.843750
794,-54.12,2022-10-28 16:35:50.859375
795,-59.59,2022-10-28 16:35:50.875000
796,-67.17,2022-10-28 16:35:50.890625
797,-76.29,2022-10-28 16:35:50.906250
798,-86.35,2022-10-28 16:35:50.921875
799,-96.88,2022-10-28 16:35:50.937500
800,-107.56,2022-10-28 16:35:50.953125
801,-118.3,2022-10-28 16:35:50.968750
802,-129.32,2022-10-28 16:35:50.984375
803,-141.07,2022-10-28 16:35:51.000000
804,-154.05,2022-10-28 16:35:51.015625
805,-168.61,2022-10-28 16:35:51.031250
806,-184.71,2022-10-28 16:35:51.046875
807,-201.97,2022-10-28 16:35:51.062500
808,-219.79,2022-10-28 16:35:51.078125
809,-237.59,2022-10-28 16:35:51.093750
810,-254.97,2022-10-28 16:35:51.109375
811,-271.62,2022-10-28 16:35:51.125000
812,-287.12,2022-10-28 16:35:51.140625
813,-300.72,2022-10-28 16:35:51.156250
814,-311.25,2022-10-28 16:35:51.171875
815,-317.31,2022-10-28 16:35:51.187500
816,-317.68,2022-10-28 16:35:51.203125
817,-311.72,2022-10-28 16:35:51.218750
818,-299.62,2022-10-28 16:35:51.234375
819,-282.43,2022-10-28 16:35:51.250000
820,-261.74,2022-10-28 16:35:51.265625
821,-239.32,2022-10-28 16:35:51.281250
822,-216.73,2022-10-28 16:35:51.296875
823,-195.25,2022-10-28 16:35:51.312500
824,-175.87,2022-10-28 16:35:51.328125
825,-159.53,2022-10-28 16:35:51.343750
826,-147.28,2022-10-28 16:35:51.359375
827,-140.22,2022-10-28 16:35:51.375000
828,-139.31,2022-10-28 16:35:51.390625
829,-145.0,2022-10-28 16:35:51.406250
830,-157.03,2022-10-28 16:35:51.421875
831,-174.17,2022-10-28 16:35:51.437500
832,-194.26,2022-10-28 16:35:51.453125
833,-214.3,2022-10-28 16:35:51.468750
834,-230.77,2022-10-28 16:35:51.484375
835,-240.2,2022-10-28 16:35:51.500000
836,-239.89,2022-10-28 16:35:51.515625
837,-228.65,2022-10-28 16:35:51.531250
838,-207.12,2022-10-28 16:35:51.546875
839,-177.48,2022-10-28 16:35:51.562500
840,-142.76,2022-10-28 16:35:51.578125
841,-105.76,2022-10-28 16:35:51.593750
842,-68.14,2022-10-28 16:35:51.609375
843,-30.19,2022-10-28 16:35:51.625000
844,8.84,2022-10-28 16:35:51.640625
845,49.75,2022-10-28 16:35:51.656250
846,92.2,2022-10-28 16:35:51.671875
847,134.11,2022-10-28 16:35:51.687500
848,171.88,2022-10-28 16:35:51.703125
849,201.57,2022-10-28 16:35:51.718750
850,220.37,2022-10-28 16:35:51.734375
851,227.75,2022-10-28 16:35:51.750000
852,225.62,2022-10-28 16:35:51.765625
853,217.46,2022-10-28 16:35:51.781250
854,206.92,2022-10-28 16:35:51.796875
855,196.43,2022-10-28 16:35:51.812500
856,186.6,2022-10-28 16:35:51.828125
857,176.4,2022-10-28 16:35:51.843750
858,163.99,2022-10-28 16:35:51.859375
859,147.51,2022-10-28 16:35:51.875000
860,125.85,2022-10-28 16:35:51.890625
861,99.1,2022-10-28 16:35:51.906250
862,68.78,2022-10-28 16:35:51.921875
863,37.84,2022-10-28 16:35:51.937500
864,10.29,2022-10-28 16:35:51.953125
865,-9.63,2022-10-28 16:35:51.968750
866,-18.52,2022-10-28 16:35:51.984375
867,-14.78,2022-10-28 16:35:52.000000
868,1.0,2022-10-28 16:35:52.015625
869,26.33,2022-10-28 16:35:52.031250
870,57.51,2022-10-28 16:35:52.046875
871,90.62,2022-10-28 16:35:52.062500
872,122.07,2022-10-28 16:35:52.078125
873,148.91,2022-10-28 16:35:52.093750
874,168.92,2022-10-28 16:35:52.109375
875,180.67,2022-10-28 16:35:52.125000
876,183.65,2022-10-28 16:35:52.140625
877,178.5,2022-10-28 16:35:52.156250
878,166.92,2022-10-28 16:35:52.171875
879,151.42,2022-10-28 16:35:52.187500
880,134.72,2022-10-28 16:35:52.203125
881,119.24,2022-10-28 16:35:52.218750
882,106.61,2022-10-28 16:35:52.234375
883,97.64,2022-10-28 16:35:52.250000
884,92.43,2022-10-28 16:35:52.265625
885,90.68,2022-10-28 16:35:52.281250
886,91.94,2022-10-28 16:35:52.296875
887,95.65,2022-10-28 16:35:52.312500
888,101.1,2022-10-28 16:35:52.328125
889,107.41,2022-10-28 16:35:52.343750
890,113.69,2022-10-28 16:35:52.359375
891,119.22,2022-10-28 16:35:52.375000
892,123.69,2022-10-28 16:35:52.390625
893,127.21,2022-10-28 16:35:52.406250
894,129.92,2022-10-28 16:35:52.421875
895,131.61,2022-10-28 16:35:52.437500
896,131.46,2022-10-28 16:35:52.453125
897,128.25,2022-10-28 16:35:52.468750
898,120.88,2022-10-28 16:35:52.484375
899,109.07,2022-10-28 16:35:52.500000
900,93.61,2022-10-28 16:35:52.515625
901,76.23,2022-10-28 16:35:52.531250
902,58.88,2022-10-28 16:35:52.546875
903,43.01,2022-10-28 16:35:52.562500
904,29.11,2022-10-28 16:35:52.578125
905,16.68,2022-10-28 16:35:52.593750
906,4.64,2022-10-28 16:35:52.609375
907,-8.16,2022-10-28 16:35:52.625000
908,-22.51,2022-10-28 16:35:52.640625
909,-38.59,2022-10-28 16:35:52.656250
910,-55.57,2022-10-28 16:35:52.671875
911,-71.4,2022-10-28 16:35:52.687500
912,-82.77,2022-10-28 16:35:52.703125
913,-85.67,2022-10-28 16:35:52.718750
914,-76.54,2022-10-28 16:35:52.734375
915,-53.61,2022-10-28 16:35:52.750000
916,-17.87,2022-10-28 16:35:52.765625
917,27.04,2022-10-28 16:35:52.781250
918,75.94,2022-10-28 16:35:52.796875
919,123.65,2022-10-28 16:35:52.812500
920,166.35,2022-10-28 16:35:52.828125
921,201.84,2022-10-28 16:35:52.843750
922,229.0,2022-10-28 16:35:52.859375
923,246.94,2022-10-28 16:35:52.875000
924,254.53,2022-10-28 16:35:52.890625
925,250.71,2022-10-28 16:35:52.906250
926,235.33,2022-10-28 16:35:52.921875
927,209.78,2022-10-28 16:35:52.937500
928,177.05,2022-10-28 16:35:52.953125
929,141.08,2022-10-28 16:35:52.968750
930,105.66,2022-10-28 16:35:52.984375
931,73.63,2022-10-28 16:35:53.000000
932,46.63,2022-10-28 16:35:53.015625
933,25.34,2022-10-28 16:35:53.031250
934,9.98,2022-10-28 16:35:53.046875
935,0.62,2022-10-28 16:35:53.062500
936,-2.81,2022-10-28 16:35:53.078125
937,-0.83,2022-10-28 16:35:53.093750
938,5.33,2022-10-28 16:35:53.109375
939,13.7,2022-10-28 16:35:53.125000
940,21.84,2022-10-28 16:35:53.140625
941,27.38,2022-10-28 16:35:53.156250
942,28.52,2022-10-28 16:35:53.171875
943,24.48,2022-10-28 16:35:53.187500
944,15.68,2022-10-28 16:35:53.203125
945,3.54,2022-10-28 16:35:53.218750
946,-9.99,2022-10-28 16:35:53.234375
947,-23.14,2022-10-28 16:35:53.250000
948,-34.87,2022-10-28 16:35:53.265625
949,-45.19,2022-10-28 16:35:53.281250
950,-54.93,2022-10-28 16:35:53.296875
951,-65.17,2022-10-28 16:35:53.312500
952,-76.7,2022-10-28 16:35:53.328125
953,-89.47,2022-10-28 16:35:53.343750
954,-102.57,2022-10-28 16:35:53.359375
955,-114.36,2022-10-28 16:35:53.375000
956,-122.73,2022-10-28 16:35:53.390625
957,-125.28,2022-10-28 16:35:53.406250
958,-119.46,2022-10-28 16:35:53.421875
959,-102.96,2022-10-28 16:35:53.437500
960,-74.25,2022-10-28 16:35:53.453125
961,-33.44,2022-10-28 16:35:53.468750
962,17.28,2022-10-28 16:35:53.484375
963,73.79,2022-10-28 16:35:53.500000
964,130.95,2022-10-28 16:35:53.515625
965,183.95,2022-10-28 16:35:53.531250
966,229.4,2022-10-28 16:35:53.546875
967,265.78,2022-10-28 16:35:53.562500
968,292.95,2022-10-28 16:35:53.578125
969,311.23,2022-10-28 16:35:53.593750
970,320.52,2022-10-28 16:35:53.609375
971,320.19,2022-10-28 16:35:53.625000
972,309.42,2022-10-28 16:35:53.640625
973,288.04,2022-10-28 16:35:53.656250
974,256.96,2022-10-28 16:35:53.671875
975,218.04,2022-10-28 16:35:53.687500
976,173.43,2022-10-28 16:35:53.703125
977,124.93,2022-10-28 16:35:53.718750
978,73.76,2022-10-28 16:35:53.734375
979,20.95,2022-10-28 16:35:53.750000
980,-32.08,2022-10-28 16:35:53.765625
981,-83.06,2022-10-28 16:35:53.781250
982,-129.12,2022-10-28 16:35:53.796875
983,-167.6,2022-10-28 16:35:53.812500
984,-196.89,2022-10-28 16:35:53.828125
985,-216.98,2022-10-28 16:35:53.843750
986,-229.31,2022-10-28 16:35:53.859375
987,-236.01,2022-10-28 16:35:53.875000
988,-239.22,2022-10-28 16:35:53.890625
989,-240.59,2022-10-28 16:35:53.906250
990,-241.35,2022-10-28 16:35:53.921875
991,-242.48,2022-10-28 16:35:53.937500
992,-244.82,2022-10-28 16:35:53.953125
993,-249.01,2022-10-28 16:35:53.968750
994,-255.27,2022-10-28 16:35:53.984375
995,-263.37,2022-10-28 16:35:54.000000
996,-272.9,2022-10-28 16:35:54.015625
997,-283.57,2022-10-28 16:35:54.031250
998,-295.45,2022-10-28 16:35:54.046875
999,-308.48,2022-10-28 16:35:54.062500
1000,-321.8,2022-10-28 16:35:54.078125
1001,-333.23,2022-10-28 16:35:54.093750
1002,-339.27,2022-10-28 16:35:54.109375
1003,-336.12,2022-10-28 16:35:54.125000
1004,-320.9,2022-10-28 16:35:54.140625
1005,-292.72,2022-10-28 16:35:54.156250
1006,-252.8,2022-10-28 16:35:54.171875
1007,-203.84,2022-10-28 16:35:54.187500
1008,-149.21,2022-10-28 16:35:54.203125
1009,-92.48,2022-10-28 16:35:54.218750
1010,-37.51,2022-10-28 16:35:54.234375
1011,11.41,2022-10-28 16:35:54.250000
1012,49.81,2022-10-28 16:35:54.265625
1013,73.96,2022-10-28 16:35:54.281250
1014,82.16,2022-10-28 16:35:54.296875
1015,75.59,2022-10-28 16:35:54.312500
1016,58.08,2022-10-28 16:35:54.328125
1017,34.85,2022-10-28 16:35:54.343750
1018,10.77,2022-10-28 16:35:54.359375
1019,-10.95,2022-10-28 16:35:54.375000
1020,-28.95,2022-10-28 16:35:54.390625
1021,-43.17,2022-10-28 16:35:54.406250
1022,-53.83,2022-10-28 16:35:54.421875
1023,-60.79,2022-10-28 16:35:54.437500
1024,-63.51,2022-10-28 16:35:54.453125
1025,-61.45,2022-10-28 16:35:54.468750
1026,-54.72,2022-10-28 16:35:54.484375
1027,-44.3,2022-10-28 16:35:54.500000
1028,-31.97,2022-10-28 16:35:54.515625
1029,-19.86,2022-10-28 16:35:54.531250
1030,-9.92,2022-10-28 16:35:54.546875
1031,-3.35,2022-10-28 16:35:54.562500
1032,-0.47,2022-10-28 16:35:54.578125
1033,-0.82,2022-10-28 16:35:54.593750
1034,-3.54,2022-10-28 16:35:54.609375
1035,-7.91,2022-10-28 16:35:54.625000
1036,-13.63,2022-10-28 16:35:54.640625
1037,-20.9,2022-10-28 16:35:54.656250
1038,-30.25,2022-10-28 16:35:54.671875
1039,-42.14,2022-10-28 16:35:54.687500
1040,-56.85,2022-10-28 16:35:54.703125
1041,-74.37,2022-10-28 16:35:54.718750
1042,-94.4,2022-10-28 16:35:54.734375
1043,-116.28,2022-10-28 16:35:54.750000
1044,-138.58,2022-10-28 16:35:54.765625
1045,-158.98,2022-10-28 16:35:54.781250
1046,-174.3,2022-10-28 16:35:54.796875
1047,-181.25,2022-10-28 16:35:54.812500
1048,-177.41,2022-10-28 16:35:54.828125
1049,-162.19,2022-10-28 16:35:54.843750
1050,-137.03,2022-10-28 16:35:54.859375
1051,-104.78,2022-10-28 16:35:54.875000
1052,-68.48,2022-10-28 16:35:54.890625
1053,-30.17,2022-10-28 16:35:54.906250
1054,9.39,2022-10-28 16:35:54.921875
1055,50.15,2022-10-28 16:35:54.937500
1056,91.63,2022-10-28 16:35:54.953125
1057,132.04,2022-10-28 16:35:54.968750
1058,168.28,2022-10-28 16:35:54.984375
1059,196.87,2022-10-28 16:35:55.000000
1060,215.34,2022-10-28 16:35:55.015625
1061,223.27,2022-10-28 16:35:55.031250
1062,222.45,2022-10-28 16:35:55.046875
1063,216.17,2022-10-28 16:35:55.062500
1064,208.06,2022-10-28 16:35:55.078125
1065,200.99,2022-10-28 16:35:55.093750
1066,196.54,2022-10-28 16:35:55.109375
1067,195.12,2022-10-28 16:35:55.125000
1068,196.48,2022-10-28 16:35:55.140625
1069,200.29,2022-10-28 16:35:55.156250
1070,206.34,2022-10-28 16:35:55.171875
1071,214.53,2022-10-28 16:35:55.187500
1072,224.53,2022-10-28 16:35:55.203125
1073,235.5,2022-10-28 16:35:55.218750
1074,246.09,2022-10-28 16:35:55.234375
1075,254.67,2022-10-28 16:35:55.250000
1076,259.92,2022-10-28 16:35:55.265625
1077,261.29,2022-10-28 16:35:55.281250
1078,259.29,2022-10-28 16:35:55.296875
1079,255.2,2022-10-28 16:35:55.312500
1080,250.42,2022-10-28 16:35:55.328125
1081,245.66,2022-10-28 16:35:55.343750
1082,240.57,2022-10-28 16:35:55.359375
1083,233.71,2022-10-28 16:35:55.375000
1084,223.2,2022-10-28 16:35:55.390625
1085,207.32,2022-10-28 16:35:55.406250
1086,185.05,2022-10-28 16:35:55.421875
1087,156.15,2022-10-28 16:35:55.437500
1088,121.13,2022-10-28 16:35:55.453125
1089,81.41,2022-10-28 16:35:55.468750
1090,39.57,2022-10-28 16:35:55.484375
1091,-0.35,2022-10-28 16:35:55.500000
1092,-33.22,2022-10-28 16:35:55.515625
1093,-53.84,2022-10-28 16:35:55.531250
1094,-58.47,2022-10-28 16:35:55.546875
1095,-46.2,2022-10-28 16:35:55.562500
1096,-19.3,2022-10-28 16:35:55.578125
1097,17.57,2022-10-28 16:35:55.593750
1098,58.97,2022-10-28 16:35:55.609375
1099,100.19,2022-10-28 16:35:55.625000
1100,138.08,2022-10-28 16:35:55.640625
1101,170.77,2022-10-28 16:35:55.656250
1102,196.99,2022-10-28 16:35:55.671875
1103,215.48,2022-10-28 16:35:55.687500
1104,225.15,2022-10-28 16:35:55.703125
1105,225.63,2022-10-28 16:35:55.718750
1106,217.82,2022-10-28 16:35:55.734375
1107,203.91,2022-10-28 16:35:55.750000
1108,186.7,2022-10-28 16:35:55.765625
1109,168.58,2022-10-28 16:35:55.781250
1110,150.93,2022-10-28 16:35:55.796875
1111,133.99,2022-10-28 16:35:55.812500
1112,117.54,2022-10-28 16:35:55.828125
1113,101.51,2022-10-28 16:35:55.843750
1114,86.4,2022-10-28 16:35:55.859375
1115,73.14,2022-10-28 16:35:55.875000
1116,62.46,2022-10-28 16:35:55.890625
1117,54.38,2022-10-28 16:35:55.906250
1118,48.16,2022-10-28 16:35:55.921875
1119,42.58,2022-10-28 16:35:55.937500
1120,36.54,2022-10-28 16:35:55.953125
1121,29.48,2022-10-28 16:35:55.968750
1122,21.31,2022-10-28 16:35:55.984375
1123,12.1,2022-10-28 16:35:56.000000
1124,1.67,2022-10-28 16:35:56.015625
1125,-10.42,2022-10-28 16:35:56.031250
1126,-24.5,2022-10-28 16:35:56.046875
1127,-40.26,2022-10-28 16:35:56.062500
1128,-56.49,2022-10-28 16:35:56.078125
1129,-71.35,2022-10-28 16:35:56.093750
1130,-83.1,2022-10-28 16:35:56.109375
1131,-90.95,2022-10-28 16:35:56.125000
1132,-95.32,2022-10-28 16:35:56.140625
1133,-97.57,2022-10-28 16:35:56.156250
1134,-99.17,2022-10-28 16:35:56.171875
1135,-100.88,2022-10-28 16:35:56.187500
1136,-102.47,2022-10-28 16:35:56.203125
1137,-102.93,2022-10-28 16:35:56.218750
1138,-101.11,2022-10-28 16:35:56.234375
1139,-96.3,2022-10-28 16:35:56.250000
1140,-88.51,2022-10-28 16:35:56.265625
1141,-78.36,2022-10-28 16:35:56.281250
1142,-66.82,2022-10-28 16:35:56.296875
1143,-55.0,2022-10-28 16:35:56.312500
1144,-44.03,2022-10-28 16:35:56.328125
1145,-34.97,2022-10-28 16:35:56.343750
1146,-28.73,2022-10-28 16:35:56.359375
1147,-25.82,2022-10-28 16:35:56.375000
1148,-26.25,2022-10-28 16:35:56.390625
1149,-29.46,2022-10-28 16:35:56.406250
1150,-34.58,2022-10-28 16:35:56.421875
1151,-40.68,2022-10-28 16:35:56.437500
1152,-47.02,2022-10-28 16:35:56.453125
1153,-53.18,2022-10-28 16:35:56.468750
1154,-58.97,2022-10-28 16:35:56.484375
1155,-64.31,2022-10-28 16:35:56.500000
1156,-69.17,2022-10-28 16:35:56.515625
1157,-73.52,2022-10-28 16:35:56.531250
1158,-77.37,2022-10-28 16:35:56.546875
1159,-80.75,2022-10-28 16:35:56.562500
1160,-83.68,2022-10-28 16:35:56.578125
1161,-86.01,2022-10-28 16:35:56.593750
1162,-87.54,2022-10-28 16:35:56.609375
1163,-88.06,2022-10-28 16:35:56.625000
1164,-87.58,2022-10-28 16:35:56.640625
1165,-86.31,2022-10-28 16:35:56.656250
1166,-84.6,2022-10-28 16:35:56.671875
1167,-82.84,2022-10-28 16:35:56.687500
1168,-81.28,2022-10-28 16:35:56.703125
1169,-80.0,2022-10-28 16:35:56.718750
1170,-78.96,2022-10-28 16:35:56.734375
1171,-78.12,2022-10-28 16:35:56.750000
1172,-77.48,2022-10-28 16:35:56.765625
1173,-77.1,2022-10-28 16:35:56.781250
1174,-77.14,2022-10-28 16:35:56.796875
1175,-77.85,2022-10-28 16:35:56.812500
1176,-79.62,2022-10-28 16:35:56.828125
1177,-82.82,2022-10-28 16:35:56.843750
1178,-87.54,2022-10-28 16:35:56.859375
1179,-93.25,2022-10-28 16:35:56.875000
1180,-98.63,2022-10-28 16:35:56.890625
1181,-101.79,2022-10-28 16:35:56.906250
1182,-100.86,2022-10-28 16:35:56.921875
1183,-94.83,2022-10-28 16:35:56.937500
1184,-84.09,2022-10-28 16:35:56.953125
1185,-70.49,2022-10-28 16:35:56.968750
1186,-56.68,2022-10-28 16:35:56.984375
1187,-45.18,2022-10-28 16:35:57.000000
1188,-37.52,2022-10-28 16:35:57.015625
1189,-33.93,2022-10-28 16:35:57.031250
1190,-33.61,2022-10-28 16:35:57.046875
1191,-35.25,2022-10-28 16:35:57.062500
1192,-37.76,2022-10-28 16:35:57.078125
1193,-40.4,2022-10-28 16:35:57.093750
1194,-42.78,2022-10-28 16:35:57.109375
1195,-44.71,2022-10-28 16:35:57.125000
1196,-46.01,2022-10-28 16:35:57.140625
1197,-46.69,2022-10-28 16:35:57.156250
1198,-47.12,2022-10-28 16:35:57.171875
1199,-48.03,2022-10-28 16:35:57.187500
1200,-50.2,2022-10-28 16:35:57.203125
1201,-54.05,2022-10-28 16:35:57.218750
1202,-59.13,2022-10-28 16:35:57.234375
1203,-64.18,2022-10-28 16:35:57.250000
1204,-67.54,2022-10-28 16:35:57.265625
1205,-67.9,2022-10-28 16:35:57.281250
1206,-64.84,2022-10-28 16:35:57.296875
1207,-59.17,2022-10-28 16:35:57.312500
1208,-52.55,2022-10-28 16:35:57.328125
1209,-47.03,2022-10-28 16:35:57.343750
1210,-44.3,2022-10-28 16:35:57.359375
1211,-45.31,2022-10-28 16:35:57.375000
1212,-50.01,2022-10-28 16:35:57.390625
1213,-57.5,2022-10-28 16:35:57.406250
1214,-66.43,2022-10-28 16:35:57.421875
1215,-75.41,2022-10-28 16:35:57.437500
1216,-83.45,2022-10-28 16:35:57.453125
1217,-90.19,2022-10-28 16:35:57.468750
1218,-95.96,2022-10-28 16:35:57.484375
1219,-101.54,2022-10-28 16:35:57.500000
1220,-107.97,2022-10-28 16:35:57.515625
1221,-116.28,2022-10-28 16:35:57.531250
1222,-127.42,2022-10-28 16:35:57.546875
1223,-141.86,2022-10-28 16:35:57.562500
1224,-158.99,2022-10-28 16:35:57.578125
1225,-176.61,2022-10-28 16:35:57.593750
1226,-190.77,2022-10-28 16:35:57.609375
1227,-196.58,2022-10-28 16:35:57.625000
1228,-189.79,2022-10-28 16:35:57.640625
1229,-168.6,2022-10-28 16:35:57.656250
1230,-134.66,2022-10-28 16:35:57.671875
1231,-92.73,2022-10-28 16:35:57.687500
1232,-48.99,2022-10-28 16:35:57.703125
1233,-8.88,2022-10-28 16:35:57.718750
1234,24.47,2022-10-28 16:35:57.734375
1235,50.52,2022-10-28 16:35:57.750000
1236,70.43,2022-10-28 16:35:57.765625
1237,85.63,2022-10-28 16:35:57.781250
1238,96.95,2022-10-28 16:35:57.796875
1239,104.45,2022-10-28 16:35:57.812500
1240,108.01,2022-10-28 16:35:57.828125
1241,108.01,2022-10-28 16:35:57.843750
1242,105.57,2022-10-28 16:35:57.859375
1243,102.22,2022-10-28 16:35:57.875000
1244,99.26,2022-10-28 16:35:57.890625
1245,97.37,2022-10-28 16:35:57.906250
1246,96.49,2022-10-28 16:35:57.921875
1247,96.05,2022-10-28 16:35:57.937500
1248,95.51,2022-10-28 16:35:57.953125
1249,94.6,2022-10-28 16:35:57.968750
1250,93.41,2022-10-28 16:35:57.984375
1251,92.15,2022-10-28 16:35:58.000000
1252,90.88,2022-10-28 16:35:58.015625
1253,89.3,2022-10-28 16:35:58.031250
1254,86.7,2022-10-28 16:35:58.046875
1255,82.19,2022-10-28 16:35:58.062500
1256,74.95,2022-10-28 16:35:58.078125
1257,64.54,2022-10-28 16:35:58.093750
1258,51.09,2022-10-28 16:35:58.109375
1259,35.29,2022-10-28 16:35:58.125000
1260,18.25,2022-10-28 16:35:58.140625
1261,1.27,2022-10-28 16:35:58.156250
1262,-14.47,2022-10-28 16:35:58.171875
1263,-28.25,2022-10-28 16:35:58.187500
1264,-40.04,2022-10-28 16:35:58.203125
1265,-50.51,2022-10-28 16:35:58.218750
1266,-60.79,2022-10-28 16:35:58.234375
1267,-71.99,2022-10-28 16:35:58.250000
1268,-84.52,2022-10-28 16:35:58.265625
1269,-97.71,2022-10-28 16:35:58.281250
1270,-109.68,2022-10-28 16:35:58.296875
1271,-117.81,2022-10-28 16:35:58.312500
1272,-119.5,2022-10-28 16:35:58.328125
1273,-113.05,2022-10-28 16:35:58.343750
1274,-98.25,2022-10-28 16:35:58.359375
1275,-76.42,2022-10-28 16:35:58.375000
1276,-49.96,2022-10-28 16:35:58.390625
1277,-21.62,2022-10-28 16:35:58.406250
1278,6.14,2022-10-28 16:35:58.421875
1279,31.5,2022-10-28 16:35:58.437500
1280,53.33,2022-10-28 16:35:58.453125
1281,70.97,2022-10-28 16:35:58.468750
1282,84.03,2022-10-28 16:35:58.484375
1283,92.26,2022-10-28 16:35:58.500000
1284,95.62,2022-10-28 16:35:58.515625
1285,94.34,2022-10-28 16:35:58.531250
1286,89.03,2022-10-28 16:35:58.546875
1287,80.63,2022-10-28 16:35:58.562500
1288,70.37,2022-10-28 16:35:58.578125
1289,59.55,2022-10-28 16:35:58.593750
1290,49.35,2022-10-28 16:35:58.609375
1291,40.6,2022-10-28 16:35:58.625000
1292,33.7,2022-10-28 16:35:58.640625
1293,28.66,2022-10-28 16:35:58.656250
1294,25.17,2022-10-28 16:35:58.671875
1295,22.84,2022-10-28 16:35:58.687500
1296,21.27,2022-10-28 16:35:58.703125
1297,20.19,2022-10-28 16:35:58.718750
1298,19.34,2022-10-28 16:35:58.734375
1299,18.46,2022-10-28 16:35:58.750000
1300,17.19,2022-10-28 16:35:58.765625
1301,15.05,2022-10-28 16:35:58.781250
1302,11.56,2022-10-28 16:35:58.796875
1303,6.33,2022-10-28 16:35:58.812500
1304,-0.79,2022-10-28 16:35:58.828125
1305,-9.57,2022-10-28 16:35:58.843750
1306,-19.53,2022-10-28 16:35:58.859375
1307,-30.04,2022-10-28 16:35:58.875000
1308,-40.56,2022-10-28 16:35:58.890625
1309,-50.85,2022-10-28 16:35:58.906250
1310,-61.04,2022-10-28 16:35:58.921875
1311,-71.57,2022-10-28 16:35:58.937500
1312,-83.11,2022-10-28 16:35:58.953125
1313,-96.27,2022-10-28 16:35:58.968750
1314,-111.37,2022-10-28 16:35:58.984375
1315,-128.11,2022-10-28 16:35:59.000000
1316,-145.43,2022-10-28 16:35:59.015625
1317,-161.31,2022-10-28 16:35:59.031250
1318,-173.03,2022-10-28 16:35:59.046875
1319,-177.63,2022-10-28 16:35:59.062500
1320,-172.64,2022-10-28 16:35:59.078125
1321,-156.79,2022-10-28 16:35:59.093750
1322,-130.5,2022-10-28 16:35:59.109375
1323,-95.97,2022-10-28 16:35:59.125000
1324,-56.66,2022-10-28 16:35:59.140625
1325,-16.58,2022-10-28 16:35:59.156250
1326,20.6,2022-10-28 16:35:59.171875
1327,52.14,2022-10-28 16:35:59.187500
1328,76.52,2022-10-28 16:35:59.203125
1329,93.35,2022-10-28 16:35:59.218750
1330,103.0,2022-10-28 16:35:59.234375
1331,106.24,2022-10-28 16:35:59.250000
1332,103.98,2022-10-28 16:35:59.265625
1333,97.18,2022-10-28 16:35:59.281250
1334,86.93,2022-10-28 16:35:59.296875
1335,74.54,2022-10-28 16:35:59.312500
1336,61.42,2022-10-28 16:35:59.328125
1337,48.95,2022-10-28 16:35:59.343750
1338,38.16,2022-10-28 16:35:59.359375
1339,29.58,2022-10-28 16:35:59.375000
1340,23.26,2022-10-28 16:35:59.390625
1341,18.92,2022-10-28 16:35:59.406250
1342,16.3,2022-10-28 16:35:59.421875
1343,15.29,2022-10-28 16:35:59.437500
1344,15.88,2022-10-28 16:35:59.453125
1345,18.01,2022-10-28 16:35:59.468750
1346,21.23,2022-10-28 16:35:59.484375
1347,24.6,2022-10-28 16:35:59.500000
1348,26.87,2022-10-28 16:35:59.515625
1349,26.77,2022-10-28 16:35:59.531250
1350,23.53,2022-10-28 16:35:59.546875
1351,17.13,2022-10-28 16:35:59.562500
1352,8.3,2022-10-28 16:35:59.578125
1353,-1.74,2022-10-28 16:35:59.593750
1354,-11.82,2022-10-28 16:35:59.609375
1355,-21.18,2022-10-28 16:35:59.625000
1356,-29.79,2022-10-28 16:35:59.640625
1357,-38.26,2022-10-28 16:35:59.656250
1358,-47.62,2022-10-28 16:35:59.671875
1359,-58.98,2022-10-28 16:35:59.687500
1360,-73.17,2022-10-28 16:35:59.703125
1361,-90.29,2022-10-28 16:35:59.718750
1362,-109.36,2022-10-28 16:35:59.734375
1363,-128.0,2022-10-28 16:35:59.750000
1364,-142.73,2022-10-28 16:35:59.765625
1365,-149.64,2022-10-28 16:35:59.781250
1366,-145.51,2022-10-28 16:35:59.796875
1367,-128.96,2022-10-28 16:35:59.812500
1368,-101.01,2022-10-28 16:35:59.828125
1369,-64.83,2022-10-28 16:35:59.843750
1370,-24.83,2022-10-28 16:35:59.859375
1371,14.64,2022-10-28 16:35:59.875000
1372,50.21,2022-10-28 16:35:59.890625
1373,79.93,2022-10-28 16:35:59.906250
1374,103.06,2022-10-28 16:35:59.921875
1375,119.49,2022-10-28 16:35:59.937500
1376,129.42,2022-10-28 16:35:59.953125
1377,133.2,2022-10-28 16:35:59.968750
1378,131.44,2022-10-28 16:35:59.984375
1379,125.23,2022-10-28 16:36:00.000000
1380,116.04,2022-10-28 16:36:00.015625
1381,105.58,2022-10-28 16:36:00.031250
1382,95.43,2022-10-28 16:36:00.046875
1383,86.76,2022-10-28 16:36:00.062500
1384,80.18,2022-10-28 16:36:00.078125
1385,75.87,2022-10-28 16:36:00.093750
1386,73.73,2022-10-28 16:36:00.109375
1387,73.61,2022-10-28 16:36:00.125000
1388,75.4,2022-10-28 16:36:00.140625
1389,78.95,2022-10-28 16:36:00.156250
1390,83.89,2022-10-28 16:36:00.171875
1391,89.45,2022-10-28 16:36:00.187500
1392,94.43,2022-10-28 16:36:00.203125
1393,97.44,2022-10-28 16:36:00.218750
1394,97.28,2022-10-28 16:36:00.234375
1395,93.4,2022-10-28 16:36:00.250000
1396,86.07,2022-10-28 16:36:00.265625
1397,76.35,2022-10-28 16:36:00.281250
1398,65.59,2022-10-28 16:36:00.296875
1399,55.0,2022-10-28 16:36:00.312500
1400,45.12,2022-10-28 16:36:00.328125
1401,35.77,2022-10-28 16:36:00.343750
1402,26.11,2022-10-28 16:36:00.359375
1403,15.06,2022-10-28 16:36:00.375000
1404,1.69,2022-10-28 16:36:00.390625
1405,-14.27,2022-10-28 16:36:00.406250
1406,-32.05,2022-10-28 16:36:00.421875
1407,-49.7,2022-10-28 16:36:00.437500
1408,-64.22,2022-10-28 16:36:00.453125
1409,-72.28,2022-10-28 16:36:00.468750
1410,-71.13,2022-10-28 16:36:00.484375
1411,-59.54,2022-10-28 16:36:00.500000
1412,-38.31,2022-10-28 16:36:00.515625
1413,-10.1,2022-10-28 16:36:00.531250
1414,21.32,2022-10-28 16:36:00.546875
1415,52.27,2022-10-28 16:36:00.562500
1416,79.92,2022-10-28 16:36:00.578125
1417,102.66,2022-10-28 16:36:00.593750
1418,119.89,2022-10-28 16:36:00.609375
1419,131.49,2022-10-28 16:36:00.625000
1420,137.46,2022-10-28 16:36:00.640625
1421,137.86,2022-10-28 16:36:00.656250
1422,133.02,2022-10-28 16:36:00.671875
1423,123.77,2022-10-28 16:36:00.687500
1424,111.51,2022-10-28 16:36:00.703125
1425,97.94,2022-10-28 16:36:00.718750
1426,84.68,2022-10-28 16:36:00.734375
1427,72.86,2022-10-28 16:36:00.750000
1428,62.93,2022-10-28 16:36:00.765625
1429,54.75,2022-10-28 16:36:00.781250
1430,47.98,2022-10-28 16:36:00.796875
1431,42.32,2022-10-28 16:36:00.812500
1432,37.77,2022-10-28 16:36:00.828125
1433,34.58,2022-10-28 16:36:00.843750
1434,32.89,2022-10-28 16:36:00.859375
1435,32.54,2022-10-28 16:36:00.875000
1436,32.82,2022-10-28 16:36:00.890625
1437,32.61,2022-10-28 16:36:00.906250
1438,30.71,2022-10-28 16:36:00.921875
1439,26.33,2022-10-28 16:36:00.937500
1440,19.38,2022-10-28 16:36:00.953125
1441,10.53,2022-10-28 16:36:00.968750
1442,0.92,2022-10-28 16:36:00.984375
1443,-8.28,2022-10-28 16:36:01.000000
1444,-16.32,2022-10-28 16:36:01.015625
1445,-23.15,2022-10-28 16:36:01.031250
1446,-29.36,2022-10-28 16:36:01.046875
1447,-36.01,2022-10-28 16:36:01.062500
1448,-44.29,2022-10-28 16:36:01.078125
1449,-55.11,2022-10-28 16:36:01.093750
1450,-68.74,2022-10-28 16:36:01.109375
1451,-84.31,2022-10-28 16:36:01.125000
1452,-99.72,2022-10-28 16:36:01.140625
1453,-111.81,2022-10-28 16:36:01.156250
1454,-117.09,2022-10-28 16:36:01.171875
1455,-112.77,2022-10-28 16:36:01.187500
1456,-97.77,2022-10-28 16:36:01.203125
1457,-73.13,2022-10-28 16:36:01.218750
1458,-41.79,2022-10-28 16:36:01.234375
1459,-7.66,2022-10-28 16:36:01.250000
1460,25.47,2022-10-28 16:36:01.265625
1461,54.75,2022-10-28 16:36:01.281250
1462,78.55,2022-10-28 16:36:01.296875
1463,96.28,2022-10-28 16:36:01.312500
1464,107.91,2022-10-28 16:36:01.328125
1465,113.68,2022-10-28 16:36:01.343750
1466,114.03,2022-10-28 16:36:01.359375
1467,109.69,2022-10-28 16:36:01.375000
1468,101.78,2022-10-28 16:36:01.390625
1469,91.81,2022-10-28 16:36:01.406250
1470,81.32,2022-10-28 16:36:01.421875
1471,71.61,2022-10-28 16:36:01.437500
1472,63.46,2022-10-28 16:36:01.453125
1473,57.08,2022-10-28 16:36:01.468750
1474,52.24,2022-10-28 16:36:01.484375
1475,48.6,2022-10-28 16:36:01.500000
1476,45.9,2022-10-28 16:36:01.515625
1477,44.13,2022-10-28 16:36:01.531250
1478,43.41,2022-10-28 16:36:01.546875
1479,43.81,2022-10-28 16:36:01.562500
1480,45.11,2022-10-28 16:36:01.578125
1481,46.66,2022-10-28 16:36:01.593750
1482,47.46,2022-10-28 16:36:01.609375
1483,46.42,2022-10-28 16:36:01.625000
1484,42.69,2022-10-28 16:36:01.640625
1485,35.99,2022-10-28 16:36:01.656250
1486,26.74,2022-10-28 16:36:01.671875
1487,15.91,2022-10-28 16:36:01.687500
1488,4.69,2022-10-28 16:36:01.703125
1489,-5.91,2022-10-28 16:36:01.718750
1490,-15.48,2022-10-28 16:36:01.734375
1491,-24.23,2022-10-28 16:36:01.750000
1492,-32.95,2022-10-28 16:36:01.765625
1493,-42.68,2022-10-28 16:36:01.781250
1494,-54.29,2022-10-28 16:36:01.796875
1495,-68.13,2022-10-28 16:36:01.812500
1496,-83.66,2022-10-28 16:36:01.828125
1497,-99.25,2022-10-28 16:36:01.843750
1498,-112.29,2022-10-28 16:36:01.859375
1499,-119.75,2022-10-28 16:36:01.875000
1500,-118.92,2022-10-28 16:36:01.890625
1501,-108.35,2022-10-28 16:36:01.906250
1502,-88.4,2022-10-28 16:36:01.921875
1503,-61.27,2022-10-28 16:36:01.937500
1504,-30.37,2022-10-28 16:36:01.953125
1505,0.66,2022-10-28 16:36:01.968750
1506,28.79,2022-10-28 16:36:01.984375
1507,52.21,2022-10-28 16:36:02.000000
1508,70.18,2022-10-28 16:36:02.015625
1509,82.74,2022-10-28 16:36:02.031250
1510,90.25,2022-10-28 16:36:02.046875
1511,93.11,2022-10-28 16:36:02.062500
1512,91.75,2022-10-28 16:36:02.078125
1513,86.78,2022-10-28 16:36:02.093750
1514,79.12,2022-10-28 16:36:02.109375
1515,69.96,2022-10-28 16:36:02.125000
1516,60.61,2022-10-28 16:36:02.140625
1517,52.26,2022-10-28 16:36:02.156250
1518,45.72,2022-10-28 16:36:02.171875
1519,41.25,2022-10-28 16:36:02.187500
1520,38.67,2022-10-28 16:36:02.203125
1521,37.47,2022-10-28 16:36:02.218750
1522,37.18,2022-10-28 16:36:02.234375
1523,37.45,2022-10-28 16:36:02.250000
1524,38.16,2022-10-28 16:36:02.265625
1525,39.26,2022-10-28 16:36:02.281250
1526,40.57,2022-10-28 16:36:02.296875
1527,41.69,2022-10-28 16:36:02.312500
1528,41.92,2022-10-28 16:36:02.328125
1529,40.53,2022-10-28 16:36:02.343750
1530,36.95,2022-10-28 16:36:02.359375
1531,30.98,2022-10-28 16:36:02.375000
1532,22.94,2022-10-28 16:36:02.390625
1533,13.53,2022-10-28 16:36:02.406250
1534,3.68,2022-10-28 16:36:02.421875
1535,-5.8,2022-10-28 16:36:02.437500
1536,-14.41,2022-10-28 16:36:02.453125
1537,-22.1,2022-10-28 16:36:02.468750
1538,-29.24,2022-10-28 16:36:02.484375
1539,-36.51,2022-10-28 16:36:02.500000
1540,-44.68,2022-10-28 16:36:02.515625
1541,-54.44,2022-10-28 16:36:02.531250
1542,-66.07,2022-10-28 16:36:02.546875
1543,-79.15,2022-10-28 16:36:02.562500
1544,-92.37,2022-10-28 16:36:02.578125
1545,-103.54,2022-10-28 16:36:02.593750
1546,-110.02,2022-10-28 16:36:02.609375
1547,-109.46,2022-10-28 16:36:02.625000
1548,-100.6,2022-10-28 16:36:02.640625
1549,-83.76,2022-10-28 16:36:02.656250
1550,-60.86,2022-10-28 16:36:02.671875
1551,-34.88,2022-10-28 16:36:02.687500
1552,-8.91,2022-10-28 16:36:02.703125
1553,14.49,2022-10-28 16:36:02.718750
1554,33.75,2022-10-28 16:36:02.734375
1555,48.22,2022-10-28 16:36:02.750000
1556,57.88,2022-10-28 16:36:02.765625
1557,62.99,2022-10-28 16:36:02.781250
1558,63.92,2022-10-28 16:36:02.796875
1559,61.2,2022-10-28 16:36:02.812500
1560,55.6,2022-10-28 16:36:02.828125
1561,48.11,2022-10-28 16:36:02.843750
1562,39.85,2022-10-28 16:36:02.859375
1563,31.84,2022-10-28 16:36:02.875000
1564,24.8,2022-10-28 16:36:02.890625
1565,19.05,2022-10-28 16:36:02.906250
1566,14.57,2022-10-28 16:36:02.921875
1567,11.18,2022-10-28 16:36:02.937500
1568,8.75,2022-10-28 16:36:02.953125
1569,7.34,2022-10-28 16:36:02.968750
1570,7.14,2022-10-28 16:36:02.984375
1571,8.29,2022-10-28 16:36:03.000000
1572,10.67,2022-10-28 16:36:03.015625
1573,13.72,2022-10-28 16:36:03.031250
1574,16.47,2022-10-28 16:36:03.046875
1575,17.8,2022-10-28 16:36:03.062500
1576,16.85,2022-10-28 16:36:03.078125
1577,13.29,2022-10-28 16:36:03.093750
1578,7.47,2022-10-28 16:36:03.109375
1579,0.27,2022-10-28 16:36:03.125000
1580,-7.24,2022-10-28 16:36:03.140625
1581,-14.18,2022-10-28 16:36:03.156250
1582,-20.16,2022-10-28 16:36:03.171875
1583,-25.35,2022-10-28 16:36:03.187500
1584,-30.39,2022-10-28 16:36:03.203125
1585,-36.2,2022-10-28 16:36:03.218750
1586,-43.67,2022-10-28 16:36:03.234375
1587,-53.33,2022-10-28 16:36:03.250000
1588,-64.95,2022-10-28 16:36:03.265625
1589,-77.34,2022-10-28 16:36:03.281250
1590,-88.32,2022-10-28 16:36:03.296875
1591,-95.14,2022-10-28 16:36:03.312500
1592,-95.28,2022-10-28 16:36:03.328125
1593,-87.31,2022-10-28 16:36:03.343750
1594,-71.43,2022-10-28 16:36:03.359375
1595,-49.5,2022-10-28 16:36:03.375000
1596,-24.44,2022-10-28 16:36:03.390625
1597,0.63,2022-10-28 16:36:03.406250
1598,23.23,2022-10-28 16:36:03.421875
1599,41.84,2022-10-28 16:36:03.437500
1600,55.8,2022-10-28 16:36:03.453125
1601,65.03,2022-10-28 16:36:03.468750
1602,69.66,2022-10-28 16:36:03.484375
1603,69.95,2022-10-28 16:36:03.500000
1604,66.38,2022-10-28 16:36:03.515625
1605,59.76,2022-10-28 16:36:03.531250
1606,51.19,2022-10-28 16:36:03.546875
1607,41.94,2022-10-28 16:36:03.562500
1608,33.12,2022-10-28 16:36:03.578125
1609,25.48,2022-10-28 16:36:03.593750
1610,19.33,2022-10-28 16:36:03.609375
1611,14.55,2022-10-28 16:36:03.625000
1612,10.85,2022-10-28 16:36:03.640625
1613,7.96,2022-10-28 16:36:03.656250
1614,5.77,2022-10-28 16:36:03.671875
1615,4.36,2022-10-28 16:36:03.687500
1616,3.89,2022-10-28 16:36:03.703125
1617,4.37,2022-10-28 16:36:03.718750
1618,5.57,2022-10-28 16:36:03.734375
1619,6.94,2022-10-28 16:36:03.750000
1620,7.71,2022-10-28 16:36:03.765625
1621,7.13,2022-10-28 16:36:03.781250
1622,4.72,2022-10-28 16:36:03.796875
1623,0.39,2022-10-28 16:36:03.812500
1624,-5.5,2022-10-28 16:36:03.828125
1625,-12.35,2022-10-28 16:36:03.843750
1626,-19.51,2022-10-28 16:36:03.859375
1627,-26.46,2022-10-28 16:36:03.875000
1628,-32.98,2022-10-28 16:36:03.890625
1629,-39.14,2022-10-28 16:36:03.906250
1630,-45.27,2022-10-28 16:36:03.921875
1631,-51.93,2022-10-28 16:36:03.937500
1632,-59.69,2022-10-28 16:36:03.953125
1633,-68.86,2022-10-28 16:36:03.968750
1634,-79.17,2022-10-28 16:36:03.984375
1635,-89.45,2022-10-28 16:36:04.000000
1636,-97.64,2022-10-28 16:36:04.015625
1637,-101.29,2022-10-28 16:36:04.031250
1638,-98.32,2022-10-28 16:36:04.046875
1639,-87.78,2022-10-28 16:36:04.062500
1640,-70.31,2022-10-28 16:36:04.078125
1641,-47.96,2022-10-28 16:36:04.093750
1642,-23.52,2022-10-28 16:36:04.109375
1643,0.3,2022-10-28 16:36:04.125000
1644,21.51,2022-10-28 16:36:04.140625
1645,38.97,2022-10-28 16:36:04.156250
1646,52.22,2022-10-28 16:36:04.171875
1647,61.11,2022-10-28 16:36:04.187500
1648,65.63,2022-10-28 16:36:04.203125
1649,65.87,2022-10-28 16:36:04.218750
1650,62.25,2022-10-28 16:36:04.234375
1651,55.56,2022-10-28 16:36:04.250000
1652,46.96,2022-10-28 16:36:04.265625
1653,37.73,2022-10-28 16:36:04.281250
1654,28.97,2022-10-28 16:36:04.296875
1655,21.38,2022-10-28 16:36:04.312500
1656,15.23,2022-10-28 16:36:04.328125
1657,10.48,2022-10-28 16:36:04.343750
1658,6.97,2022-10-28 16:36:04.359375
1659,4.61,2022-10-28 16:36:04.375000
1660,3.38,2022-10-28 16:36:04.390625
1661,3.3,2022-10-28 16:36:04.406250
1662,4.25,2022-10-28 16:36:04.421875
1663,5.88,2022-10-28 16:36:04.437500
1664,7.59,2022-10-28 16:36:04.453125
1665,8.62,2022-10-28 16:36:04.468750
1666,8.3,2022-10-28 16:36:04.484375
1667,6.27,2022-10-28 16:36:04.500000
1668,2.53,2022-10-28 16:36:04.515625
1669,-2.53,2022-10-28 16:36:04.531250
1670,-8.34,2022-10-28 16:36:04.546875
1671,-14.35,2022-10-28 16:36:04.562500
1672,-20.24,2022-10-28 16:36:04.578125
1673,-25.97,2022-10-28 16:36:04.593750
1674,-31.84,2022-10-28 16:36:04.609375
1675,-38.33,2022-10-28 16:36:04.625000
1676,-46.01,2022-10-28 16:36:04.640625
1677,-55.27,2022-10-28 16:36:04.656250
1678,-66.05,2022-10-28 16:36:04.671875
1679,-77.6,2022-10-28 16:36:04.687500
1680,-88.27,2022-10-28 16:36:04.703125
1681,-95.82,2022-10-28 16:36:04.718750
1682,-97.9,2022-10-28 16:36:04.734375
1683,-92.86,2022-10-28 16:36:04.750000
1684,-80.36,2022-10-28 16:36:04.765625
1685,-61.59,2022-10-28 16:36:04.781250
1686,-38.91,2022-10-28 16:36:04.796875
1687,-15.15,2022-10-28 16:36:04.812500
1688,7.22,2022-10-28 16:36:04.828125
1689,26.52,2022-10-28 16:36:04.843750
1690,41.97,2022-10-28 16:36:04.859375
1691,53.39,2022-10-28 16:36:04.875000
1692,60.87,2022-10-28 16:36:04.890625
1693,64.57,2022-10-28 16:36:04.906250
1694,64.71,2022-10-28 16:36:04.921875
1695,61.65,2022-10-28 16:36:04.937500
1696,56.01,2022-10-28 16:36:04.953125
1697,48.58,2022-10-28 16:36:04.968750
1698,40.19,2022-10-28 16:36:04.984375
1699,31.63,2022-10-28 16:36:05.000000
1700,23.46,2022-10-28 16:36:05.015625
1701,16.1,2022-10-28 16:36:05.031250
1702,9.81,2022-10-28 16:36:05.046875
1703,4.84,2022-10-28 16:36:05.062500
1704,1.45,2022-10-28 16:36:05.078125
1705,-0.15,2022-10-28 16:36:05.093750
1706,0.12,2022-10-28 16:36:05.109375
1707,2.01,2022-10-28 16:36:05.125000
1708,4.85,2022-10-28 16:36:05.140625
1709,7.6,2022-10-28 16:36:05.156250
1710,9.09,2022-10-28 16:36:05.171875
1711,8.38,2022-10-28 16:36:05.187500
1712,5.14,2022-10-28 16:36:05.203125
1713,-0.27,2022-10-28 16:36:05.218750
1714,-6.94,2022-10-28 16:36:05.234375
1715,-13.77,2022-10-28 16:36:05.250000
1716,-19.9,2022-10-28 16:36:05.265625
1717,-25.02,2022-10-28 16:36:05.281250
1718,-29.4,2022-10-28 16:36:05.296875
1719,-33.78,2022-10-28 16:36:05.312500
1720,-39.09,2022-10-28 16:36:05.328125
1721,-46.21,2022-10-28 16:36:05.343750
1722,-55.56,2022-10-28 16:36:05.359375
1723,-66.83,2022-10-28 16:36:05.375000
1724,-78.73,2022-10-28 16:36:05.390625
1725,-89.08,2022-10-28 16:36:05.406250
1726,-95.21,2022-10-28 16:36:05.421875
1727,-94.79,2022-10-28 16:36:05.437500
1728,-86.54,2022-10-28 16:36:05.453125
1729,-70.81,2022-10-28 16:36:05.468750
1730,-49.42,2022-10-28 16:36:05.484375
1731,-25.16,2022-10-28 16:36:05.500000
1732,-0.97,2022-10-28 16:36:05.515625
1733,20.73,2022-10-28 16:36:05.531250
1734,38.42,2022-10-28 16:36:05.546875
1735,51.42,2022-10-28 16:36:05.562500
1736,59.62,2022-10-28 16:36:05.578125
1737,63.31,2022-10-28 16:36:05.593750
1738,63.0,2022-10-28 16:36:05.609375
1739,59.44,2022-10-28 16:36:05.625000
1740,53.48,2022-10-28 16:36:05.640625
1741,46.11,2022-10-28 16:36:05.656250
1742,38.15,2022-10-28 16:36:05.671875
1743,30.29,2022-10-28 16:36:05.687500
1744,22.97,2022-10-28 16:36:05.703125
1745,16.45,2022-10-28 16:36:05.718750
1746,10.91,2022-10-28 16:36:05.734375
1747,6.55,2022-10-28 16:36:05.750000
1748,3.52,2022-10-28 16:36:05.765625
1749,1.95,2022-10-28 16:36:05.781250
1750,1.81,2022-10-28 16:36:05.796875
1751,2.81,2022-10-28 16:36:05.812500
1752,4.41,2022-10-28 16:36:05.828125
1753,5.95,2022-10-28 16:36:05.843750
1754,6.75,2022-10-28 16:36:05.859375
1755,6.39,2022-10-28 16:36:05.875000
1756,4.71,2022-10-28 16:36:05.890625
1757,1.84,2022-10-28 16:36:05.906250
1758,-1.95,2022-10-28 16:36:05.921875
1759,-6.4,2022-10-28 16:36:05.937500
1760,-11.39,2022-10-28 16:36:05.953125
1761,-16.94,2022-10-28 16:36:05.968750
1762,-23.33,2022-10-28 16:36:05.984375
1763,-30.98,2022-10-28 16:36:06.000000
1764,-40.29,2022-10-28 16:36:06.015625
1765,-51.42,2022-10-28 16:36:06.031250
1766,-63.87,2022-10-28 16:36:06.046875
1767,-76.26,2022-10-28 16:36:06.062500
1768,-86.39,2022-10-28 16:36:06.078125
1769,-91.74,2022-10-28 16:36:06.093750
1770,-90.23,2022-10-28 16:36:06.109375
1771,-81.02,2022-10-28 16:36:06.125000
1772,-64.88,2022-10-28 16:36:06.140625
1773,-43.99,2022-10-28 16:36:06.156250
1774,-21.28,2022-10-28 16:36:06.171875
1775,0.42,2022-10-28 16:36:06.187500
1776,19.07,2022-10-28 16:36:06.203125
1777,33.63,2022-10-28 16:36:06.218750
1778,43.83,2022-10-28 16:36:06.234375
1779,49.88,2022-10-28 16:36:06.250000
1780,52.08,2022-10-28 16:36:06.265625
1781,50.75,2022-10-28 16:36:06.281250
1782,46.27,2022-10-28 16:36:06.296875
1783,39.23,2022-10-28 16:36:06.312500
1784,30.45,2022-10-28 16:36:06.328125
1785,20.97,2022-10-28 16:36:06.343750
1786,11.81,2022-10-28 16:36:06.359375
1787,3.89,2022-10-28 16:36:06.375000
1788,-2.18,2022-10-28 16:36:06.390625
1789,-6.13,2022-10-28 16:36:06.406250
1790,-8.04,2022-10-28 16:36:06.421875
1791,-8.29,2022-10-28 16:36:06.437500
1792,-7.45,2022-10-28 16:36:06.453125
1793,-6.18,2022-10-28 16:36:06.468750
1794,-5.1,2022-10-28 16:36:06.484375
1795,-4.68,2022-10-28 16:36:06.500000
1796,-5.2,2022-10-28 16:36:06.515625
1797,-6.7,2022-10-28 16:36:06.531250
1798,-9.1,2022-10-28 16:36:06.546875
1799,-12.23,2022-10-28 16:36:06.562500
1800,-15.89,2022-10-28 16:36:06.578125
1801,-20.0,2022-10-28 16:36:06.593750
1802,-24.59,2022-10-28 16:36:06.609375
1803,-29.91,2022-10-28 16:36:06.625000
1804,-36.37,2022-10-28 16:36:06.640625
1805,-44.43,2022-10-28 16:36:06.656250
1806,-54.19,2022-10-28 16:36:06.671875
1807,-65.09,2022-10-28 16:36:06.687500
1808,-75.57,2022-10-28 16:36:06.703125
1809,-83.32,2022-10-28 16:36:06.718750
1810,-85.81,2022-10-28 16:36:06.734375
1811,-81.13,2022-10-28 16:36:06.750000
1812,-68.74,2022-10-28 16:36:06.765625
1813,-49.76,2022-10-28 16:36:06.781250
1814,-26.63,2022-10-28 16:36:06.796875
1815,-2.43,2022-10-28 16:36:06.812500
1816,20.07,2022-10-28 16:36:06.828125
1817,38.9,2022-10-28 16:36:06.843750
1818,53.12,2022-10-28 16:36:06.859375
1819,62.59,2022-10-28 16:36:06.875000
1820,67.61,2022-10-28 16:36:06.890625
1821,68.62,2022-10-28 16:36:06.906250
1822,66.03,2022-10-28 16:36:06.921875
1823,60.31,2022-10-28 16:36:06.937500
1824,52.07,2022-10-28 16:36:06.953125
1825,42.09,2022-10-28 16:36:06.968750
1826,31.39,2022-10-28 16:36:06.984375
1827,21.09,2022-10-28 16:36:07.000000
1828,12.24,2022-10-28 16:36:07.015625
1829,5.63,2022-10-28 16:36:07.031250
1830,1.58,2022-10-28 16:36:07.046875
1831,-0.07,2022-10-28 16:36:07.062500
1832,-0.0,2022-10-28 16:36:07.078125
1833,0.85,2022-10-28 16:36:07.093750
1834,1.51,2022-10-28 16:36:07.109375
1835,1.22,2022-10-28 16:36:07.125000
1836,-0.38,2022-10-28 16:36:07.140625
1837,-3.26,2022-10-28 16:36:07.156250
1838,-7.16,2022-10-28 16:36:07.171875
1839,-11.74,2022-10-28 16:36:07.187500
1840,-16.77,2022-10-28 16:36:07.203125
1841,-22.2,2022-10-28 16:36:07.218750
1842,-28.23,2022-10-28 16:36:07.234375
1843,-35.17,2022-10-28 16:36:07.250000
1844,-43.44,2022-10-28 16:36:07.265625
1845,-53.36,2022-10-28 16:36:07.281250
1846,-64.87,2022-10-28 16:36:07.296875
1847,-77.27,2022-10-28 16:36:07.312500
1848,-88.97,2022-10-28 16:36:07.328125
1849,-97.69,2022-10-28 16:36:07.343750
1850,-100.94,2022-10-28 16:36:07.359375
1851,-96.78,2022-10-28 16:36:07.375000
1852,-84.51,2022-10-28 16:36:07.390625
1853,-65.04,2022-10-28 16:36:07.406250
1854,-40.64,2022-10-28 16:36:07.421875
1855,-14.28,2022-10-28 16:36:07.437500
1856,11.11,2022-10-28 16:36:07.453125
1857,33.31,2022-10-28 16:36:07.468750
1858,51.01,2022-10-28 16:36:07.484375
1859,63.73,2022-10-28 16:36:07.500000
1860,71.61,2022-10-28 16:36:07.515625
1861,75.08,2022-10-28 16:36:07.531250
1862,74.75,2022-10-28 16:36:07.546875
1863,71.32,2022-10-28 16:36:07.562500
1864,65.52,2022-10-28 16:36:07.578125
1865,58.18,2022-10-28 16:36:07.593750
1866,50.17,2022-10-28 16:36:07.609375
1867,42.37,2022-10-28 16:36:07.625000
1868,35.63,2022-10-28 16:36:07.640625
1869,30.54,2022-10-28 16:36:07.656250
1870,27.42,2022-10-28 16:36:07.671875
1871,26.15,2022-10-28 16:36:07.687500
1872,26.29,2022-10-28 16:36:07.703125
1873,27.17,2022-10-28 16:36:07.718750
1874,28.11,2022-10-28 16:36:07.734375
1875,28.59,2022-10-28 16:36:07.750000
1876,28.32,2022-10-28 16:36:07.765625
1877,27.14,2022-10-28 16:36:07.781250
1878,24.98,2022-10-28 16:36:07.796875
1879,21.76,2022-10-28 16:36:07.812500
1880,17.43,2022-10-28 16:36:07.828125
1881,11.94,2022-10-28 16:36:07.843750
1882,5.28,2022-10-28 16:36:07.859375
1883,-2.58,2022-10-28 16:36:07.875000
1884,-11.84,2022-10-28 16:36:07.890625
1885,-22.79,2022-10-28 16:36:07.906250
1886,-35.59,2022-10-28 16:36:07.921875
1887,-49.88,2022-10-28 16:36:07.937500
1888,-64.4,2022-10-28 16:36:07.953125
1889,-76.91,2022-10-28 16:36:07.968750
1890,-84.64,2022-10-28 16:36:07.984375
1891,-85.15,2022-10-28 16:36:08.000000
1892,-77.24,2022-10-28 16:36:08.015625
1893,-61.39,2022-10-28 16:36:08.031250
1894,-39.74,2022-10-28 16:36:08.046875
1895,-15.39,2022-10-28 16:36:08.062500
1896,8.55,2022-10-28 16:36:08.078125
1897,29.63,2022-10-28 16:36:08.093750
1898,46.44,2022-10-28 16:36:08.109375
1899,58.5,2022-10-28 16:36:08.125000
1900,65.91,2022-10-28 16:36:08.140625
1901,69.11,2022-10-28 16:36:08.156250
1902,68.61,2022-10-28 16:36:08.171875
1903,64.96,2022-10-28 16:36:08.187500
1904,58.77,2022-10-28 16:36:08.203125
1905,50.76,2022-10-28 16:36:08.218750
1906,41.71,2022-10-28 16:36:08.234375
1907,32.52,2022-10-28 16:36:08.250000
1908,24.03,2022-10-28 16:36:08.265625
1909,16.97,2022-10-28 16:36:08.281250
1910,11.82,2022-10-28 16:36:08.296875
1911,8.65,2022-10-28 16:36:08.312500
1912,7.2,2022-10-28 16:36:08.328125
1913,6.92,2022-10-28 16:36:08.343750
1914,7.16,2022-10-28 16:36:08.359375
1915,7.42,2022-10-28 16:36:08.375000
1916,7.36,2022-10-28 16:36:08.390625
1917,6.86,2022-10-28 16:36:08.406250
1918,5.93,2022-10-28 16:36:08.421875
1919,4.53,2022-10-28 16:36:08.437500
1920,2.55,2022-10-28 16:36:08.453125
1921,-0.19,2022-10-28 16:36:08.468750
1922,-3.92,2022-10-28 16:36:08.484375
1923,-8.86,2022-10-28 16:36:08.500000
1924,-15.28,2022-10-28 16:36:08.515625
1925,-23.45,2022-10-28 16:36:08.531250
1926,-33.54,2022-10-28 16:36:08.546875
1927,-45.33,2022-10-28 16:36:08.562500
1928,-57.92,2022-10-28 16:36:08.578125
1929,-69.5,2022-10-28 16:36:08.593750
1930,-77.59,2022-10-28 16:36:08.609375
1931,-79.67,2022-10-28 16:36:08.625000
1932,-74.02,2022-10-28 16:36:08.640625
1933,-60.37,2022-10-28 16:36:08.656250
1934,-40.14,2022-10-28 16:36:08.671875
1935,-16.0,2022-10-28 16:36:08.687500
1936,8.85,2022-10-28 16:36:08.703125
1937,31.51,2022-10-28 16:36:08.718750
1938,49.99,2022-10-28 16:36:08.734375
1939,63.32,2022-10-28 16:36:08.750000
1940,71.43,2022-10-28 16:36:08.765625
1941,74.73,2022-10-28 16:36:08.781250
1942,73.88,2022-10-28 16:36:08.796875
1943,69.6,2022-10-28 16:36:08.812500
1944,62.59,2022-10-28 16:36:08.828125
1945,53.68,2022-10-28 16:36:08.843750
1946,43.79,2022-10-28 16:36:08.859375
1947,33.99,2022-10-28 16:36:08.875000
1948,25.35,2022-10-28 16:36:08.890625
1949,18.74,2022-10-28 16:36:08.906250
1950,14.56,2022-10-28 16:36:08.921875
1951,12.73,2022-10-28 16:36:08.937500
1952,12.65,2022-10-28 16:36:08.953125
1953,13.47,2022-10-28 16:36:08.968750
1954,14.36,2022-10-28 16:36:08.984375
1955,14.7,2022-10-28 16:36:09.000000
1956,14.22,2022-10-28 16:36:09.015625
1957,12.9,2022-10-28 16:36:09.031250
1958,10.85,2022-10-28 16:36:09.046875
1959,8.15,2022-10-28 16:36:09.062500
1960,4.77,2022-10-28 16:36:09.078125
1961,0.55,2022-10-28 16:36:09.093750
1962,-4.7,2022-10-28 16:36:09.109375
1963,-11.16,2022-10-28 16:36:09.125000
1964,-18.96,2022-10-28 16:36:09.140625
1965,-28.16,2022-10-28 16:36:09.156250
1966,-38.69,2022-10-28 16:36:09.171875
1967,-50.21,2022-10-28 16:36:09.187500
1968,-61.89,2022-10-28 16:36:09.203125
1969,-72.24,2022-10-28 16:36:09.218750
1970,-79.23,2022-10-28 16:36:09.234375
1971,-80.74,2022-10-28 16:36:09.250000
1972,-75.19,2022-10-28 16:36:09.265625
1973,-62.2,2022-10-28 16:36:09.281250
1974,-42.83,2022-10-28 16:36:09.296875
1975,-19.41,2022-10-28 16:36:09.312500
1976,5.16,2022-10-28 16:36:09.328125
1977,28.1,2022-10-28 16:36:09.343750
1978,47.35,2022-10-28 16:36:09.359375
1979,61.77,2022-10-28 16:36:09.375000
1980,71.06,2022-10-28 16:36:09.390625
1981,75.47,2022-10-28 16:36:09.406250
1982,75.6,2022-10-28 16:36:09.421875
1983,72.2,2022-10-28 16:36:09.437500
1984,66.16,2022-10-28 16:36:09.453125
1985,58.43,2022-10-28 16:36:09.468750
1986,49.94,2022-10-28 16:36:09.484375
1987,41.52,2022-10-28 16:36:09.500000
1988,33.77,2022-10-28 16:36:09.515625
1989,27.12,2022-10-28 16:36:09.531250
1990,21.8,2022-10-28 16:36:09.546875
1991,17.9,2022-10-28 16:36:09.562500
1992,15.46,2022-10-28 16:36:09.578125
1993,14.41,2022-10-28 16:36:09.593750
1994,14.55,2022-10-28 16:36:09.609375
1995,15.48,2022-10-28 16:36:09.625000
1996,16.58,2022-10-28 16:36:09.640625
1997,17.09,2022-10-28 16:36:09.656250
1998,16.31,2022-10-28 16:36:09.671875
1999,13.73,2022-10-28 16:36:09.687500
2000,9.21,2022-10-28 16:36:09.703125
2001,3.04,2022-10-28 16:36:09.718750
2002,-4.24,2022-10-28 16:36:09.734375
2003,-11.95,2022-10-28 16:36:09.750000
2004,-19.59,2022-10-28 16:36:09.765625
2005,-27.02,2022-10-28 16:36:09.781250
2006,-34.48,2022-10-28 16:36:09.796875
2007,-42.64,2022-10-28 16:36:09.812500
2008,-52.16,2022-10-28 16:36:09.828125
2009,-63.36,2022-10-28 16:36:09.843750
2010,-75.66,2022-10-28 16:36:09.859375
2011,-87.45,2022-10-28 16:36:09.875000
2012,-96.18,2022-10-28 16:36:09.890625
2013,-99.08,2022-10-28 16:36:09.906250
2014,-94.01,2022-10-28 16:36:09.921875
2015,-80.32,2022-10-28 16:36:09.937500
2016,-59.17,2022-10-28 16:36:09.953125
2017,-33.24,2022-10-28 16:36:09.968750
2018,-5.94,2022-10-28 16:36:09.984375
2019,19.58,2022-10-28 16:36:10.000000
2020,41.14,2022-10-28 16:36:10.015625
2021,57.74,2022-10-28 16:36:10.031250
2022,69.32,2022-10-28 16:36:10.046875
2023,76.27,2022-10-28 16:36:10.062500
2024,79.1,2022-10-28 16:36:10.078125
2025,78.28,2022-10-28 16:36:10.093750
2026,74.31,2022-10-28 16:36:10.109375
2027,67.91,2022-10-28 16:36:10.125000
2028,60.07,2022-10-28 16:36:10.140625
2029,51.89,2022-10-28 16:36:10.156250
2030,44.46,2022-10-28 16:36:10.171875
2031,38.51,2022-10-28 16:36:10.187500
2032,34.36,2022-10-28 16:36:10.203125
2033,31.86,2022-10-28 16:36:10.218750
2034,30.6,2022-10-28 16:36:10.234375
2035,30.08,2022-10-28 16:36:10.250000
2036,29.88,2022-10-28 16:36:10.265625
2037,29.79,2022-10-28 16:36:10.281250
2038,29.72,2022-10-28 16:36:10.296875
2039,29.63,2022-10-28 16:36:10.312500
2040,29.41,2022-10-28 16:36:10.328125
2041,28.76,2022-10-28 16:36:10.343750
2042,27.27,2022-10-28 16:36:10.359375
2043,24.51,2022-10-28 16:36:10.375000
2044,20.18,2022-10-28 16:36:10.390625
2045,14.21,2022-10-28 16:36:10.406250
2046,6.86,2022-10-28 16:36:10.421875
2047,-1.39,2022-10-28 16:36:10.437500
2048,-9.91,2022-10-28 16:36:10.453125
2049,-18.13,2022-10-28 16:36:10.468750
2050,-25.65,2022-10-28 16:36:10.484375
2051,-32.35,2022-10-28 16:36:10.500000
2052,-38.42,2022-10-28 16:36:10.515625
2053,-44.27,2022-10-28 16:36:10.531250
2054,-50.47,2022-10-28 16:36:10.546875
2055,-57.63,2022-10-28 16:36:10.562500
2056,-66.21,2022-10-28 16:36:10.578125
2057,-76.25,2022-10-28 16:36:10.593750
2058,-87.06,2022-10-28 16:36:10.609375
2059,-97.07,2022-10-28 16:36:10.625000
2060,-103.96,2022-10-28 16:36:10.640625
2061,-105.22,2022-10-28 16:36:10.656250
2062,-98.95,2022-10-28 16:36:10.671875
2063,-84.61,2022-10-28 16:36:10.687500
2064,-63.34,2022-10-28 16:36:10.703125
2065,-37.64,2022-10-28 16:36:10.718750
2066,-10.71,2022-10-28 16:36:10.734375
2067,14.47,2022-10-28 16:36:10.750000
2068,35.78,2022-10-28 16:36:10.765625
2069,52.08,2022-10-28 16:36:10.781250
2070,63.18,2022-10-28 16:36:10.796875
2071,69.44,2022-10-28 16:36:10.812500
2072,71.5,2022-10-28 16:36:10.828125
2073,70.14,2022-10-28 16:36:10.843750
2074,66.26,2022-10-28 16:36:10.859375
2075,60.77,2022-10-28 16:36:10.875000
2076,54.55,2022-10-28 16:36:10.890625
2077,48.33,2022-10-28 16:36:10.906250
2078,42.61,2022-10-28 16:36:10.921875
2079,37.73,2022-10-28 16:36:10.937500
2080,33.91,2022-10-28 16:36:10.953125
2081,31.29,2022-10-28 16:36:10.968750
2082,29.97,2022-10-28 16:36:10.984375
2083,29.97,2022-10-28 16:36:11.000000
2084,31.18,2022-10-28 16:36:11.015625
2085,33.32,2022-10-28 16:36:11.031250
2086,35.92,2022-10-28 16:36:11.046875
2087,38.35,2022-10-28 16:36:11.062500
2088,39.91,2022-10-28 16:36:11.078125
2089,40.03,2022-10-28 16:36:11.093750
2090,38.37,2022-10-28 16:36:11.109375
2091,35.01,2022-10-28 16:36:11.125000
2092,30.3,2022-10-28 16:36:11.140625
2093,24.78,2022-10-28 16:36:11.156250
2094,18.87,2022-10-28 16:36:11.171875
2095,12.79,2022-10-28 16:36:11.187500
2096,6.45,2022-10-28 16:36:11.203125
2097,-0.32,2022-10-28 16:36:11.218750
2098,-7.66,2022-10-28 16:36:11.234375
2099,-15.44,2022-10-28 16:36:11.250000
2100,-23.35,2022-10-28 16:36:11.265625
2101,-30.93,2022-10-28 16:36:11.281250
2102,-37.8,2022-10-28 16:36:11.296875
2103,-43.81,2022-10-28 16:36:11.312500
2104,-49.08,2022-10-28 16:36:11.328125
2105,-54.04,2022-10-28 16:36:11.343750
2106,-59.3,2022-10-28 16:36:11.359375
2107,-65.51,2022-10-28 16:36:11.375000
2108,-73.11,2022-10-28 16:36:11.390625
2109,-81.97,2022-10-28 16:36:11.406250
2110,-91.09,2022-10-28 16:36:11.421875
2111,-98.54,2022-10-28 16:36:11.437500
2112,-101.9,2022-10-28 16:36:11.453125
2113,-98.88,2022-10-28 16:36:11.468750
2114,-88.27,2022-10-28 16:36:11.484375
2115,-70.4,2022-10-28 16:36:11.500000
2116,-47.19,2022-10-28 16:36:11.515625
2117,-21.57,2022-10-28 16:36:11.531250
2118,3.4,2022-10-28 16:36:11.546875
2119,25.27,2022-10-28 16:36:11.562500
2120,42.65,2022-10-28 16:36:11.578125
2121,55.15,2022-10-28 16:36:11.593750
2122,63.03,2022-10-28 16:36:11.609375
2123,66.83,2022-10-28 16:36:11.625000
2124,67.12,2022-10-28 16:36:11.640625
2125,64.46,2022-10-28 16:36:11.656250
2126,59.52,2022-10-28 16:36:11.671875
2127,53.09,2022-10-28 16:36:11.687500
2128,46.09,2022-10-28 16:36:11.703125
2129,39.42,2022-10-28 16:36:11.718750
2130,33.84,2022-10-28 16:36:11.734375
2131,29.82,2022-10-28 16:36:11.750000
2132,27.46,2022-10-28 16:36:11.765625
2133,26.57,2022-10-28 16:36:11.781250
2134,26.81,2022-10-28 16:36:11.796875
2135,27.85,2022-10-28 16:36:11.812500
2136,29.45,2022-10-28 16:36:11.828125
2137,31.5,2022-10-28 16:36:11.843750
2138,33.82,2022-10-28 16:36:11.859375
2139,36.11,2022-10-28 16:36:11.875000
2140,37.85,2022-10-28 16:36:11.890625
2141,38.41,2022-10-28 16:36:11.906250
2142,37.27,2022-10-28 16:36:11.921875
2143,34.22,2022-10-28 16:36:11.937500
2144,29.53,2022-10-28 16:36:11.953125
2145,23.82,2022-10-28 16:36:11.968750
2146,17.83,2022-10-28 16:36:11.984375
2147,12.12,2022-10-28 16:36:12.000000
2148,6.86,2022-10-28 16:36:12.015625
2149,1.81,2022-10-28 16:36:12.031250
2150,-3.5,2022-10-28 16:36:12.046875
2151,-9.49,2022-10-28 16:36:12.062500
2152,-16.3,2022-10-28 16:36:12.078125
2153,-23.69,2022-10-28 16:36:12.093750
2154,-31.11,2022-10-28 16:36:12.109375
2155,-37.91,2022-10-28 16:36:12.125000
2156,-43.61,2022-10-28 16:36:12.140625
2157,-48.08,2022-10-28 16:36:12.156250
2158,-51.6,2022-10-28 16:36:12.171875
2159,-54.85,2022-10-28 16:36:12.187500
2160,-58.73,2022-10-28 16:36:12.203125
2161,-64.08,2022-10-28 16:36:12.218750
2162,-71.33,2022-10-28 16:36:12.234375
2163,-80.21,2022-10-28 16:36:12.250000
2164,-89.51,2022-10-28 16:36:12.265625
2165,-97.18,2022-10-28 16:36:12.281250
2166,-100.81,2022-10-28 16:36:12.296875
2167,-98.24,2022-10-28 16:36:12.312500
2168,-88.34,2022-10-28 16:36:12.328125
2169,-71.46,2022-10-28 16:36:12.343750
2170,-49.35,2022-10-28 16:36:12.359375
2171,-24.74,2022-10-28 16:36:12.375000
2172,-0.54,2022-10-28 16:36:12.390625
2173,20.84,2022-10-28 16:36:12.406250
2174,37.95,2022-10-28 16:36:12.421875
2175,50.26,2022-10-28 16:36:12.437500
2176,57.91,2022-10-28 16:36:12.453125
2177,61.4,2022-10-28 16:36:12.468750
2178,61.32,2022-10-28 16:36:12.484375
2179,58.31,2022-10-28 16:36:12.500000
2180,53.08,2022-10-28 16:36:12.515625
2181,46.47,2022-10-28 16:36:12.531250
2182,39.41,2022-10-28 16:36:12.546875
2183,32.8,2022-10-28 16:36:12.562500
2184,27.36,2022-10-28 16:36:12.578125
2185,23.53,2022-10-28 16:36:12.593750
2186,21.47,2022-10-28 16:36:12.609375
2187,21.04,2022-10-28 16:36:12.625000
2188,22.02,2022-10-28 16:36:12.640625
2189,24.08,2022-10-28 16:36:12.656250
2190,26.92,2022-10-28 16:36:12.671875
2191,30.18,2022-10-28 16:36:12.687500
2192,33.43,2022-10-28 16:36:12.703125
2193,36.13,2022-10-28 16:36:12.718750
2194,37.7,2022-10-28 16:36:12.734375
2195,37.64,2022-10-28 16:36:12.750000
2196,35.73,2022-10-28 16:36:12.765625
2197,32.09,2022-10-28 16:36:12.781250
2198,27.14,2022-10-28 16:36:12.796875
2199,21.49,2022-10-28 16:36:12.812500
2200,15.65,2022-10-28 16:36:12.828125
2201,9.91,2022-10-28 16:36:12.843750
2202,4.27,2022-10-28 16:36:12.859375
2203,-1.46,2022-10-28 16:36:12.875000
2204,-7.52,2022-10-28 16:36:12.890625
2205,-14.02,2022-10-28 16:36:12.906250
2206,-20.89,2022-10-28 16:36:12.921875
2207,-27.89,2022-10-28 16:36:12.937500
2208,-34.66,2022-10-28 16:36:12.953125
2209,-40.84,2022-10-28 16:36:12.968750
2210,-46.26,2022-10-28 16:36:12.984375
2211,-50.94,2022-10-28 16:36:13.000000
2212,-55.22,2022-10-28 16:36:13.015625
2213,-59.73,2022-10-28 16:36:13.031250
2214,-65.24,2022-10-28 16:36:13.046875
2215,-72.36,2022-10-28 16:36:13.062500
2216,-81.17,2022-10-28 16:36:13.078125
2217,-90.81,2022-10-28 16:36:13.093750
2218,-99.44,2022-10-28 16:36:13.109375
2219,-104.58,2022-10-28 16:36:13.125000
2220,-103.78,2022-10-28 16:36:13.140625
2221,-95.51,2022-10-28 16:36:13.156250
2222,-79.79,2022-10-28 16:36:13.171875
2223,-58.2,2022-10-28 16:36:13.187500
2224,-33.46,2022-10-28 16:36:13.203125
2225,-8.56,2022-10-28 16:36:13.218750
2226,13.98,2022-10-28 16:36:13.234375
2227,32.58,2022-10-28 16:36:13.250000
2228,46.62,2022-10-28 16:36:13.265625
2229,56.12,2022-10-28 16:36:13.281250
2230,61.45,2022-10-28 16:36:13.296875
2231,63.1,2022-10-28 16:36:13.312500
2232,61.63,2022-10-28 16:36:13.328125
2233,57.7,2022-10-28 16:36:13.343750
2234,52.09,2022-10-28 16:36:13.359375
2235,45.69,2022-10-28 16:36:13.375000
2236,39.33,2022-10-28 16:36:13.390625
2237,33.79,2022-10-28 16:36:13.406250
2238,29.61,2022-10-28 16:36:13.421875
2239,27.11,2022-10-28 16:36:13.437500
2240,26.31,2022-10-28 16:36:13.453125
2241,26.99,2022-10-28 16:36:13.468750
2242,28.85,2022-10-28 16:36:13.484375
2243,31.5,2022-10-28 16:36:13.500000
2244,34.64,2022-10-28 16:36:13.515625
2245,37.98,2022-10-28 16:36:13.531250
2246,41.2,2022-10-28 16:36:13.546875
2247,43.89,2022-10-28 16:36:13.562500
2248,45.52,2022-10-28 16:36:13.578125
2249,45.6,2022-10-28 16:36:13.593750
2250,43.82,2022-10-28 16:36:13.609375
2251,40.18,2022-10-28 16:36:13.625000
2252,35.03,2022-10-28 16:36:13.640625
2253,28.97,2022-10-28 16:36:13.656250
2254,22.66,2022-10-28 16:36:13.671875
2255,16.6,2022-10-28 16:36:13.687500
2256,10.96,2022-10-28 16:36:13.703125
2257,5.66,2022-10-28 16:36:13.718750
2258,0.38,2022-10-28 16:36:13.734375
2259,-5.27,2022-10-28 16:36:13.750000
2260,-11.51,2022-10-28 16:36:13.765625
2261,-18.38,2022-10-28 16:36:13.781250
2262,-25.61,2022-10-28 16:36:13.796875
2263,-32.8,2022-10-28 16:36:13.812500
2264,-39.44,2022-10-28 16:36:13.828125
2265,-45.18,2022-10-28 16:36:13.843750
2266,-49.92,2022-10-28 16:36:13.859375
2267,-53.88,2022-10-28 16:36:13.875000
2268,-57.62,2022-10-28 16:36:13.890625
2269,-61.87,2022-10-28 16:36:13.906250
2270,-67.34,2022-10-28 16:36:13.921875
2271,-74.56,2022-10-28 16:36:13.937500
2272,-83.56,2022-10-28 16:36:13.953125
2273,-93.67,2022-10-28 16:36:13.968750
2274,-103.36,2022-10-28 16:36:13.984375
2275,-110.45,2022-10-28 16:36:14.000000
2276,-112.56,2022-10-28 16:36:14.015625
2277,-107.79,2022-10-28 16:36:14.031250
2278,-95.4,2022-10-28 16:36:14.046875
2279,-76.16,2022-10-28 16:36:14.062500
2280,-52.21,2022-10-28 16:36:14.078125
2281,-26.45,2022-10-28 16:36:14.093750
2282,-1.73,2022-10-28 16:36:14.109375
2283,19.79,2022-10-28 16:36:14.125000
2284,36.96,2022-10-28 16:36:14.140625
2285,49.48,2022-10-28 16:36:14.156250
2286,57.66,2022-10-28 16:36:14.171875
2287,62.0,2022-10-28 16:36:14.187500
2288,63.0,2022-10-28 16:36:14.203125
2289,61.25,2022-10-28 16:36:14.218750
2290,57.36,2022-10-28 16:36:14.234375
2291,52.15,2022-10-28 16:36:14.250000
2292,46.48,2022-10-28 16:36:14.265625
2293,41.17,2022-10-28 16:36:14.281250
2294,36.86,2022-10-28 16:36:14.296875
2295,33.94,2022-10-28 16:36:14.312500
2296,32.54,2022-10-28 16:36:14.328125
2297,32.62,2022-10-28 16:36:14.343750
2298,34.04,2022-10-28 16:36:14.359375
2299,36.6,2022-10-28 16:36:14.375000
2300,40.0,2022-10-28 16:36:14.390625
2301,43.81,2022-10-28 16:36:14.406250
2302,47.55,2022-10-28 16:36:14.421875
2303,50.68,2022-10-28 16:36:14.437500
2304,52.8,2022-10-28 16:36:14.453125
2305,53.66,2022-10-28 16:36:14.468750
2306,53.2,2022-10-28 16:36:14.484375
2307,51.49,2022-10-28 16:36:14.500000
2308,48.63,2022-10-28 16:36:14.515625
2309,44.69,2022-10-28 16:36:14.531250
2310,39.76,2022-10-28 16:36:14.546875
2311,34.01,2022-10-28 16:36:14.562500
2312,27.65,2022-10-28 16:36:14.578125
2313,21.02,2022-10-28 16:36:14.593750
2314,14.43,2022-10-28 16:36:14.609375
2315,8.13,2022-10-28 16:36:14.625000
2316,2.17,2022-10-28 16:36:14.640625
2317,-3.57,2022-10-28 16:36:14.656250
2318,-9.34,2022-10-28 16:36:14.671875
2319,-15.4,2022-10-28 16:36:14.687500
2320,-21.86,2022-10-28 16:36:14.703125
2321,-28.6,2022-10-28 16:36:14.718750
2322,-35.31,2022-10-28 16:36:14.734375
2323,-41.58,2022-10-28 16:36:14.750000
2324,-47.07,2022-10-28 16:36:14.765625
2325,-51.68,2022-10-28 16:36:14.781250
2326,-55.58,2022-10-28 16:36:14.796875
2327,-59.27,2022-10-28 16:36:14.812500
2328,-63.42,2022-10-28 16:36:14.828125
2329,-68.78,2022-10-28 16:36:14.843750
2330,-75.92,2022-10-28 16:36:14.859375
2331,-84.88,2022-10-28 16:36:14.875000
2332,-94.88,2022-10-28 16:36:14.890625
2333,-104.22,2022-10-28 16:36:14.906250
2334,-110.53,2022-10-28 16:36:14.921875
2335,-111.35,2022-10-28 16:36:14.937500
2336,-104.95,2022-10-28 16:36:14.953125
2337,-90.96,2022-10-28 16:36:14.968750
2338,-70.54,2022-10-28 16:36:14.984375
2339,-46.08,2022-10-28 16:36:15.000000
2340,-20.48,2022-10-28 16:36:15.015625
2341,3.62,2022-10-28 16:36:15.031250
2342,24.37,2022-10-28 16:36:15.046875
2343,40.76,2022-10-28 16:36:15.062500
2344,52.54,2022-10-28 16:36:15.078125
2345,59.82,2022-10-28 16:36:15.093750
2346,62.99,2022-10-28 16:36:15.109375
2347,62.55,2022-10-28 16:36:15.125000
2348,59.2,2022-10-28 16:36:15.140625
2349,53.85,2022-10-28 16:36:15.156250
2350,47.49,2022-10-28 16:36:15.171875
2351,41.13,2022-10-28 16:36:15.187500
2352,35.53,2022-10-28 16:36:15.203125
2353,31.21,2022-10-28 16:36:15.218750
2354,28.35,2022-10-28 16:36:15.234375
2355,26.96,2022-10-28 16:36:15.250000
2356,26.93,2022-10-28 16:36:15.265625
2357,28.18,2022-10-28 16:36:15.281250
2358,30.63,2022-10-28 16:36:15.296875
2359,34.17,2022-10-28 16:36:15.312500
2360,38.53,2022-10-28 16:36:15.328125
2361,43.25,2022-10-28 16:36:15.343750
2362,47.65,2022-10-28 16:36:15.359375
2363,50.95,2022-10-28 16:36:15.375000
2364,52.51,2022-10-28 16:36:15.390625
2365,51.94,2022-10-28 16:36:15.406250
2366,49.22,2022-10-28 16:36:15.421875
2367,44.71,2022-10-28 16:36:15.437500
2368,38.98,2022-10-28 16:36:15.453125
2369,32.68,2022-10-28 16:36:15.468750
2370,26.3,2022-10-28 16:36:15.484375
2371,20.11,2022-10-28 16:36:15.500000
2372,14.06,2022-10-28 16:36:15.515625
2373,7.89,2022-10-28 16:36:15.531250
2374,1.3,2022-10-28 16:36:15.546875
2375,-5.91,2022-10-28 16:36:15.562500
2376,-13.66,2022-10-28 16:36:15.578125
2377,-21.58,2022-10-28 16:36:15.593750
2378,-29.16,2022-10-28 16:36:15.609375
2379,-35.89,2022-10-28 16:36:15.625000
2380,-41.48,2022-10-28 16:36:15.640625
2381,-46.0,2022-10-28 16:36:15.656250
2382,-49.96,2022-10-28 16:36:15.671875
2383,-54.17,2022-10-28 16:36:15.687500
2384,-59.57,2022-10-28 16:36:15.703125
2385,-66.82,2022-10-28 16:36:15.718750
2386,-75.92,2022-10-28 16:36:15.734375
2387,-85.92,2022-10-28 16:36:15.750000
2388,-94.94,2022-10-28 16:36:15.765625
2389,-100.51,2022-10-28 16:36:15.781250
2390,-100.31,2022-10-28 16:36:15.796875
2391,-92.94,2022-10-28 16:36:15.812500
2392,-78.42,2022-10-28 16:36:15.828125
2393,-58.2,2022-10-28 16:36:15.843750
2394,-34.73,2022-10-28 16:36:15.859375
2395,-10.67,2022-10-28 16:36:15.875000
2396,11.72,2022-10-28 16:36:15.890625
2397,30.93,2022-10-28 16:36:15.906250
2398,46.2,2022-10-28 16:36:15.921875
2399,57.3,2022-10-28 16:36:15.937500
2400,64.24,2022-10-28 16:36:15.953125
2401,67.24,2022-10-28 16:36:15.968750
2402,66.68,2022-10-28 16:36:15.984375
2403,63.14,2022-10-28 16:36:16.000000
2404,57.46,2022-10-28 16:36:16.015625
2405,50.58,2022-10-28 16:36:16.031250
2406,43.43,2022-10-28 16:36:16.046875
2407,36.83,2022-10-28 16:36:16.062500
2408,31.37,2022-10-28 16:36:16.078125
2409,27.42,2022-10-28 16:36:16.093750
2410,25.12,2022-10-28 16:36:16.109375
2411,24.43,2022-10-28 16:36:16.125000
2412,25.21,2022-10-28 16:36:16.140625
2413,27.25,2022-10-28 16:36:16.156250
2414,30.28,2022-10-28 16:36:16.171875
2415,33.98,2022-10-28 16:36:16.187500
2416,37.95,2022-10-28 16:36:16.203125
2417,41.64,2022-10-28 16:36:16.218750
2418,44.46,2022-10-28 16:36:16.234375
2419,45.82,2022-10-28 16:36:16.250000
2420,45.26,2022-10-28 16:36:16.265625
2421,42.67,2022-10-28 16:36:16.281250
2422,38.31,2022-10-28 16:36:16.296875
2423,32.8,2022-10-28 16:36:16.312500
2424,26.87,2022-10-28 16:36:16.328125
2425,21.15,2022-10-28 16:36:16.343750
2426,15.92,2022-10-28 16:36:16.359375
2427,11.07,2022-10-28 16:36:16.375000
2428,6.13,2022-10-28 16:36:16.390625
2429,0.56,2022-10-28 16:36:16.406250
2430,-6.0,2022-10-28 16:36:16.421875
2431,-13.58,2022-10-28 16:36:16.437500
2432,-21.81,2022-10-28 16:36:16.453125
2433,-30.07,2022-10-28 16:36:16.468750
2434,-37.75,2022-10-28 16:36:16.484375
2435,-44.43,2022-10-28 16:36:16.500000
2436,-50.04,2022-10-28 16:36:16.515625
2437,-54.89,2022-10-28 16:36:16.531250
2438,-59.58,2022-10-28 16:36:16.546875
2439,-64.91,2022-10-28 16:36:16.562500
2440,-71.59,2022-10-28 16:36:16.578125
2441,-79.99,2022-10-28 16:36:16.593750
2442,-89.72,2022-10-28 16:36:16.609375
2443,-99.45,2022-10-28 16:36:16.625000
2444,-107.06,2022-10-28 16:36:16.640625
2445,-110.06,2022-10-28 16:36:16.656250
2446,-106.39,2022-10-28 16:36:16.671875
2447,-95.13,2022-10-28 16:36:16.687500
2448,-76.9,2022-10-28 16:36:16.703125
2449,-53.74,2022-10-28 16:36:16.718750
2450,-28.46,2022-10-28 16:36:16.734375
2451,-3.89,2022-10-28 16:36:16.750000
2452,17.8,2022-10-28 16:36:16.765625
2453,35.39,2022-10-28 16:36:16.781250
2454,48.43,2022-10-28 16:36:16.796875
2455,57.08,2022-10-28 16:36:16.812500
2456,61.68,2022-10-28 16:36:16.828125
2457,62.76,2022-10-28 16:36:16.843750
2458,60.95,2022-10-28 16:36:16.859375
2459,57.0,2022-10-28 16:36:16.875000
2460,51.76,2022-10-28 16:36:16.890625
2461,46.09,2022-10-28 16:36:16.906250
2462,40.69,2022-10-28 16:36:16.921875
2463,36.06,2022-10-28 16:36:16.937500
2464,32.45,2022-10-28 16:36:16.953125
2465,29.95,2022-10-28 16:36:16.968750
2466,28.57,2022-10-28 16:36:16.984375
2467,28.37,2022-10-28 16:36:17.000000
2468,29.43,2022-10-28 16:36:17.015625
2469,31.79,2022-10-28 16:36:17.031250
2470,35.32,2022-10-28 16:36:17.046875
2471,39.61,2022-10-28 16:36:17.062500
2472,43.94,2022-10-28 16:36:17.078125
2473,47.4,2022-10-28 16:36:17.093750
2474,49.17,2022-10-28 16:36:17.109375
2475,48.72,2022-10-28 16:36:17.125000
2476,46.02,2022-10-28 16:36:17.140625
2477,41.5,2022-10-28 16:36:17.156250
2478,35.9,2022-10-28 16:36:17.171875
2479,29.97,2022-10-28 16:36:17.187500
2480,24.19,2022-10-28 16:36:17.203125
2481,18.66,2022-10-28 16:36:17.218750
2482,13.08,2022-10-28 16:36:17.234375
2483,6.96,2022-10-28 16:36:17.250000
2484,-0.06,2022-10-28 16:36:17.265625
2485,-8.07,2022-10-28 16:36:17.281250
2486,-16.76,2022-10-28 16:36:17.296875
2487,-25.52,2022-10-28 16:36:17.312500
2488,-33.7,2022-10-28 16:36:17.328125
2489,-40.86,2022-10-28 16:36:17.343750
2490,-46.89,2022-10-28 16:36:17.359375
2491,-52.11,2022-10-28 16:36:17.375000
2492,-57.12,2022-10-28 16:36:17.390625
2493,-62.7,2022-10-28 16:36:17.406250
2494,-69.53,2022-10-28 16:36:17.421875
2495,-77.95,2022-10-28 16:36:17.437500
2496,-87.52,2022-10-28 16:36:17.453125
2497,-96.9,2022-10-28 16:36:17.468750
2498,-103.96,2022-10-28 16:36:17.484375
2499,-106.2,2022-10-28 16:36:17.500000
2500,-101.63,2022-10-28 16:36:17.515625
2501,-89.44,2022-10-28 16:36:17.531250
2502,-70.43,2022-10-28 16:36:17.546875
2503,-46.81,2022-10-28 16:36:17.562500
2504,-21.52,2022-10-28 16:36:17.578125
2505,2.63,2022-10-28 16:36:17.593750
2506,23.57,2022-10-28 16:36:17.609375
2507,40.26,2022-10-28 16:36:17.625000
2508,52.44,2022-10-28 16:36:17.640625
2509,60.31,2022-10-28 16:36:17.656250
2510,64.2,2022-10-28 16:36:17.671875
2511,64.54,2022-10-28 16:36:17.687500
2512,61.8,2022-10-28 16:36:17.703125
2513,56.63,2022-10-28 16:36:17.718750
2514,49.8,2022-10-28 16:36:17.734375
2515,42.18,2022-10-28 16:36:17.750000
2516,34.61,2022-10-28 16:36:17.765625
2517,27.81,2022-10-28 16:36:17.781250
2518,22.34,2022-10-28 16:36:17.796875
2519,18.55,2022-10-28 16:36:17.812500
2520,16.58,2022-10-28 16:36:17.828125
2521,16.34,2022-10-28 16:36:17.843750
2522,17.59,2022-10-28 16:36:17.859375
2523,19.96,2022-10-28 16:36:17.875000
2524,23.01,2022-10-28 16:36:17.890625
2525,26.31,2022-10-28 16:36:17.906250
2526,29.42,2022-10-28 16:36:17.921875
2527,31.92,2022-10-28 16:36:17.937500
2528,33.45,2022-10-28 16:36:17.953125
2529,33.74,2022-10-28 16:36:17.968750
2530,32.62,2022-10-28 16:36:17.984375
2531,30.05,2022-10-28 16:36:18.000000
2532,26.1,2022-10-28 16:36:18.015625
2533,20.9,2022-10-28 16:36:18.031250
2534,14.67,2022-10-28 16:36:18.046875
2535,7.72,2022-10-28 16:36:18.062500
2536,0.36,2022-10-28 16:36:18.078125
2537,-7.06,2022-10-28 16:36:18.093750
2538,-14.25,2022-10-28 16:36:18.109375
2539,-21.13,2022-10-28 16:36:18.125000
2540,-27.79,2022-10-28 16:36:18.140625
2541,-34.57,2022-10-28 16:36:18.156250
2542,-41.9,2022-10-28 16:36:18.171875
2543,-50.26,2022-10-28 16:36:18.187500
2544,-59.89,2022-10-28 16:36:18.203125
2545,-70.6,2022-10-28 16:36:18.218750
2546,-81.48,2022-10-28 16:36:18.234375
2547,-90.87,2022-10-28 16:36:18.250000
2548,-96.63,2022-10-28 16:36:18.265625
2549,-96.65,2022-10-28 16:36:18.281250
2550,-89.6,2022-10-28 16:36:18.296875
2551,-75.45,2022-10-28 16:36:18.312500
2552,-55.59,2022-10-28 16:36:18.328125
2553,-32.44,2022-10-28 16:36:18.343750
2554,-8.76,2022-10-28 16:36:18.359375
2555,13.07,2022-10-28 16:36:18.375000
2556,31.53,2022-10-28 16:36:18.390625
2557,45.91,2022-10-28 16:36:18.406250
2558,56.12,2022-10-28 16:36:18.421875
2559,62.26,2022-10-28 16:36:18.437500
2560,64.53,2022-10-28 16:36:18.453125
2561,63.19,2022-10-28 16:36:18.468750
2562,58.65,2022-10-28 16:36:18.484375
2563,51.62,2022-10-28 16:36:18.500000
2564,42.99,2022-10-28 16:36:18.515625
2565,33.87,2022-10-28 16:36:18.531250
2566,25.35,2022-10-28 16:36:18.546875
2567,18.42,2022-10-28 16:36:18.562500
2568,13.83,2022-10-28 16:36:18.578125
2569,11.94,2022-10-28 16:36:18.593750
2570,12.71,2022-10-28 16:36:18.609375
2571,15.64,2022-10-28 16:36:18.625000
2572,19.92,2022-10-28 16:36:18.640625
2573,24.64,2022-10-28 16:36:18.656250
2574,28.96,2022-10-28 16:36:18.671875
2575,32.33,2022-10-28 16:36:18.687500
2576,34.47,2022-10-28 16:36:18.703125
2577,35.34,2022-10-28 16:36:18.718750
2578,34.97,2022-10-28 16:36:18.734375
2579,33.35,2022-10-28 16:36:18.750000
2580,30.4,2022-10-28 16:36:18.765625
2581,26.05,2022-10-28 16:36:18.781250
2582,20.24,2022-10-28 16:36:18.796875
2583,13.15,2022-10-28 16:36:18.812500
2584,5.12,2022-10-28 16:36:18.828125
2585,-3.38,2022-10-28 16:36:18.843750
2586,-11.9,2022-10-28 16:36:18.859375
2587,-20.18,2022-10-28 16:36:18.875000
2588,-28.13,2022-10-28 16:36:18.890625
2589,-35.93,2022-10-28 16:36:18.906250
2590,-43.85,2022-10-28 16:36:18.921875
2591,-52.3,2022-10-28 16:36:18.937500
2592,-61.72,2022-10-28 16:36:18.953125
2593,-72.4,2022-10-28 16:36:18.968750
2594,-84.29,2022-10-28 16:36:18.984375
2595,-96.57,2022-10-28 16:36:19.000000
2596,-107.56,2022-10-28 16:36:19.015625
2597,-114.82,2022-10-28 16:36:19.031250
2598,-115.82,2022-10-28 16:36:19.046875
2599,-108.76,2022-10-28 16:36:19.062500
2600,-93.32,2022-10-28 16:36:19.078125
2601,-70.94,2022-10-28 16:36:19.093750
2602,-44.38,2022-10-28 16:36:19.109375
2603,-16.91,2022-10-28 16:36:19.125000
2604,8.62,2022-10-28 16:36:19.140625
2605,30.32,2022-10-28 16:36:19.156250
2606,47.33,2022-10-28 16:36:19.171875
2607,59.51,2022-10-28 16:36:19.187500
2608,67.07,2022-10-28 16:36:19.203125
2609,70.29,2022-10-28 16:36:19.218750
2610,69.52,2022-10-28 16:36:19.234375
2611,65.32,2022-10-28 16:36:19.250000
2612,58.52,2022-10-28 16:36:19.265625
2613,50.24,2022-10-28 16:36:19.281250
2614,41.67,2022-10-28 16:36:19.296875
2615,33.88,2022-10-28 16:36:19.312500
2616,27.59,2022-10-28 16:36:19.328125
2617,23.07,2022-10-28 16:36:19.343750
2618,20.24,2022-10-28 16:36:19.359375
2619,18.76,2022-10-28 16:36:19.375000
2620,18.29,2022-10-28 16:36:19.390625
2621,18.63,2022-10-28 16:36:19.406250
2622,19.77,2022-10-28 16:36:19.421875
2623,21.7,2022-10-28 16:36:19.437500
2624,24.3,2022-10-28 16:36:19.453125
2625,27.1,2022-10-28 16:36:19.468750
2626,29.33,2022-10-28 16:36:19.484375
2627,30.05,2022-10-28 16:36:19.500000
2628,28.48,2022-10-28 16:36:19.515625
2629,24.31,2022-10-28 16:36:19.531250
2630,17.77,2022-10-28 16:36:19.546875
2631,9.63,2022-10-28 16:36:19.562500
2632,0.86,2022-10-28 16:36:19.578125
2633,-7.67,2022-10-28 16:36:19.593750
2634,-15.45,2022-10-28 16:36:19.609375
2635,-22.47,2022-10-28 16:36:19.625000
2636,-29.07,2022-10-28 16:36:19.640625
2637,-35.88,2022-10-28 16:36:19.656250
2638,-43.58,2022-10-28 16:36:19.671875
2639,-52.8,2022-10-28 16:36:19.687500
2640,-63.9,2022-10-28 16:36:19.703125
2641,-76.72,2022-10-28 16:36:19.718750
2642,-90.27,2022-10-28 16:36:19.734375
2643,-102.61,2022-10-28 16:36:19.750000
2644,-111.14,2022-10-28 16:36:19.765625
2645,-113.14,2022-10-28 16:36:19.781250
2646,-106.7,2022-10-28 16:36:19.796875
2647,-91.44,2022-10-28 16:36:19.812500
2648,-68.79,2022-10-28 16:36:19.828125
2649,-41.57,2022-10-28 16:36:19.843750
2650,-13.21,2022-10-28 16:36:19.859375
2651,13.23,2022-10-28 16:36:19.875000
2652,35.71,2022-10-28 16:36:19.890625
2653,53.28,2022-10-28 16:36:19.906250
2654,65.84,2022-10-28 16:36:19.921875
2655,73.69,2022-10-28 16:36:19.937500
2656,77.19,2022-10-28 16:36:19.953125
2657,76.7,2022-10-28 16:36:19.968750
2658,72.71,2022-10-28 16:36:19.984375
2659,65.96,2022-10-28 16:36:20.000000
2660,57.53,2022-10-28 16:36:20.015625
2661,48.61,2022-10-28 16:36:20.031250
2662,40.39,2022-10-28 16:36:20.046875
2663,33.71,2022-10-28 16:36:20.062500
2664,28.97,2022-10-28 16:36:20.078125
2665,26.11,2022-10-28 16:36:20.093750
2666,24.8,2022-10-28 16:36:20.109375
2667,24.59,2022-10-28 16:36:20.125000
2668,25.18,2022-10-28 16:36:20.140625
2669,26.4,2022-10-28 16:36:20.156250
2670,28.22,2022-10-28 16:36:20.171875
2671,30.5,2022-10-28 16:36:20.187500
2672,32.83,2022-10-28 16:36:20.203125
2673,34.55,2022-10-28 16:36:20.218750
2674,34.79,2022-10-28 16:36:20.234375
2675,32.8,2022-10-28 16:36:20.250000
2676,28.22,2022-10-28 16:36:20.265625
2677,21.26,2022-10-28 16:36:20.281250
2678,12.64,2022-10-28 16:36:20.296875
2679,3.4,2022-10-28 16:36:20.312500
2680,-5.53,2022-10-28 16:36:20.328125
2681,-13.63,2022-10-28 16:36:20.343750
2682,-20.97,2022-10-28 16:36:20.359375
2683,-28.16,2022-10-28 16:36:20.375000
2684,-36.06,2022-10-28 16:36:20.390625
2685,-45.52,2022-10-28 16:36:20.406250
2686,-57.04,2022-10-28 16:36:20.421875
2687,-70.46,2022-10-28 16:36:20.437500
2688,-84.77,2022-10-28 16:36:20.453125
2689,-98.04,2022-10-28 16:36:20.468750
2690,-107.72,2022-10-28 16:36:20.484375
2691,-111.12,2022-10-28 16:36:20.500000
2692,-106.27,2022-10-28 16:36:20.515625
2693,-92.6,2022-10-28 16:36:20.531250
2694,-71.26,2022-10-28 16:36:20.546875
2695,-44.84,2022-10-28 16:36:20.562500
2696,-16.63,2022-10-28 16:36:20.578125
2697,10.28,2022-10-28 16:36:20.593750
2698,33.64,2022-10-28 16:36:20.609375
2699,52.24,2022-10-28 16:36:20.625000
2700,65.73,2022-10-28 16:36:20.640625
2701,74.19,2022-10-28 16:36:20.656250
2702,77.89,2022-10-28 16:36:20.671875
2703,77.2,2022-10-28 16:36:20.687500
2704,72.73,2022-10-28 16:36:20.703125
2705,65.33,2022-10-28 16:36:20.718750
2706,56.2,2022-10-28 16:36:20.734375
2707,46.56,2022-10-28 16:36:20.750000
2708,37.57,2022-10-28 16:36:20.765625
2709,30.04,2022-10-28 16:36:20.781250
2710,24.36,2022-10-28 16:36:20.796875
2711,20.53,2022-10-28 16:36:20.812500
2712,18.31,2022-10-28 16:36:20.828125
2713,17.36,2022-10-28 16:36:20.843750
2714,17.48,2022-10-28 16:36:20.859375
2715,18.6,2022-10-28 16:36:20.875000
2716,20.73,2022-10-28 16:36:20.890625
2717,23.69,2022-10-28 16:36:20.906250
2718,26.92,2022-10-28 16:36:20.921875
2719,29.46,2022-10-28 16:36:20.937500
2720,30.16,2022-10-28 16:36:20.953125
2721,28.12,2022-10-28 16:36:20.968750
2722,23.09,2022-10-28 16:36:20.984375
2723,15.6,2022-10-28 16:36:21.000000
2724,6.81,2022-10-28 16:36:21.015625
2725,-1.98,2022-10-28 16:36:21.031250
2726,-9.82,2022-10-28 16:36:21.046875
2727,-16.49,2022-10-28 16:36:21.062500
2728,-22.47,2022-10-28 16:36:21.078125
2729,-28.75,2022-10-28 16:36:21.093750
2730,-36.39,2022-10-28 16:36:21.109375
2731,-46.17,2022-10-28 16:36:21.125000
2732,-58.27,2022-10-28 16:36:21.140625
2733,-72.12,2022-10-28 16:36:21.156250
2734,-86.19,2022-10-28 16:36:21.171875
2735,-98.15,2022-10-28 16:36:21.187500
2736,-105.23,2022-10-28 16:36:21.203125
2737,-104.89,2022-10-28 16:36:21.218750
2738,-95.63,2022-10-28 16:36:21.234375
2739,-77.63,2022-10-28 16:36:21.250000
2740,-52.85,2022-10-28 16:36:21.265625
2741,-24.5,2022-10-28 16:36:21.281250
2742,3.79,2022-10-28 16:36:21.296875
2743,28.98,2022-10-28 16:36:21.312500
2744,49.16,2022-10-28 16:36:21.328125
2745,63.64,2022-10-28 16:36:21.343750
2746,72.51,2022-10-28 16:36:21.359375
2747,76.28,2022-10-28 16:36:21.375000
2748,75.41,2022-10-28 16:36:21.390625
2749,70.41,2022-10-28 16:36:21.406250
2750,61.94,2022-10-28 16:36:21.421875
2751,50.99,2022-10-28 16:36:21.437500
2752,38.91,2022-10-28 16:36:21.453125
2753,27.15,2022-10-28 16:36:21.468750
2754,16.99,2022-10-28 16:36:21.484375
2755,9.21,2022-10-28 16:36:21.500000
2756,4.0,2022-10-28 16:36:21.515625
2757,1.06,2022-10-28 16:36:21.531250
2758,-0.1,2022-10-28 16:36:21.546875
2759,0.1,2022-10-28 16:36:21.562500
2760,1.48,2022-10-28 16:36:21.578125
2761,4.0,2022-10-28 16:36:21.593750
2762,7.6,2022-10-28 16:36:21.609375
2763,11.87,2022-10-28 16:36:21.625000
2764,15.94,2022-10-28 16:36:21.640625
2765,18.67,2022-10-28 16:36:21.656250
2766,18.96,2022-10-28 16:36:21.671875
2767,16.23,2022-10-28 16:36:21.687500
2768,10.66,2022-10-28 16:36:21.703125
2769,3.2,2022-10-28 16:36:21.718750
2770,-4.84,2022-10-28 16:36:21.734375
2771,-12.31,2022-10-28 16:36:21.750000
2772,-18.71,2022-10-28 16:36:21.765625
2773,-24.35,2022-10-28 16:36:21.781250
2774,-30.24,2022-10-28 16:36:21.796875
2775,-37.66,2022-10-28 16:36:21.812500
2776,-47.65,2022-10-28 16:36:21.828125
2777,-60.57,2022-10-28 16:36:21.843750
2778,-75.66,2022-10-28 16:36:21.859375
2779,-90.98,2022-10-28 16:36:21.875000
2780,-103.64,2022-10-28 16:36:21.890625
2781,-110.37,2022-10-28 16:36:21.906250
2782,-108.45,2022-10-28 16:36:21.921875
2783,-96.67,2022-10-28 16:36:21.937500
2784,-75.77,2022-10-28 16:36:21.953125
2785,-48.34,2022-10-28 16:36:21.968750
2786,-18.06,2022-10-28 16:36:21.984375
2787,11.42,2022-10-28 16:36:22.000000
2788,37.33,2022-10-28 16:36:22.015625
2789,58.18,2022-10-28 16:36:22.031250
2790,73.52,2022-10-28 16:36:22.046875
2791,83.51,2022-10-28 16:36:22.062500
2792,88.45,2022-10-28 16:36:22.078125
2793,88.62,2022-10-28 16:36:22.093750
2794,84.4,2022-10-28 16:36:22.109375
2795,76.52,2022-10-28 16:36:22.125000
2796,66.16,2022-10-28 16:36:22.140625
2797,54.85,2022-10-28 16:36:22.156250
2798,44.15,2022-10-28 16:36:22.171875
2799,35.33,2022-10-28 16:36:22.187500
2800,29.07,2022-10-28 16:36:22.203125
2801,25.45,2022-10-28 16:36:22.218750
2802,24.05,2022-10-28 16:36:22.234375
2803,24.28,2022-10-28 16:36:22.250000
2804,25.61,2022-10-28 16:36:22.265625
2805,27.75,2022-10-28 16:36:22.281250
2806,30.52,2022-10-28 16:36:22.296875
2807,33.69,2022-10-28 16:36:22.312500
2808,36.74,2022-10-28 16:36:22.328125
2809,38.77,2022-10-28 16:36:22.343750
2810,38.73,2022-10-28 16:36:22.359375
2811,35.8,2022-10-28 16:36:22.375000
2812,29.7,2022-10-28 16:36:22.390625
2813,20.93,2022-10-28 16:36:22.406250
2814,10.58,2022-10-28 16:36:22.421875
2815,-0.03,2022-10-28 16:36:22.437500
2816,-9.83,2022-10-28 16:36:22.453125
2817,-18.34,2022-10-28 16:36:22.468750
2818,-25.81,2022-10-28 16:36:22.484375
2819,-33.11,2022-10-28 16:36:22.500000
2820,-41.44,2022-10-28 16:36:22.515625
2821,-51.97,2022-10-28 16:36:22.531250
2822,-65.45,2022-10-28 16:36:22.546875
2823,-81.7,2022-10-28 16:36:22.562500
2824,-99.26,2022-10-28 16:36:22.578125
2825,-115.36,2022-10-28 16:36:22.593750
2826,-126.39,2022-10-28 16:36:22.609375
2827,-128.85,2022-10-28 16:36:22.625000
2828,-120.55,2022-10-28 16:36:22.640625
2829,-101.41,2022-10-28 16:36:22.656250
2830,-73.66,2022-10-28 16:36:22.671875
2831,-41.12,2022-10-28 16:36:22.687500
2832,-8.06,2022-10-28 16:36:22.703125
2833,22.02,2022-10-28 16:36:22.718750
2834,46.94,2022-10-28 16:36:22.734375
2835,65.83,2022-10-28 16:36:22.750000
2836,78.72,2022-10-28 16:36:22.765625
2837,85.97,2022-10-28 16:36:22.781250
2838,87.96,2022-10-28 16:36:22.796875
2839,85.22,2022-10-28 16:36:22.812500
2840,78.58,2022-10-28 16:36:22.828125
2841,69.32,2022-10-28 16:36:22.843750
2842,59.04,2022-10-28 16:36:22.859375
2843,49.37,2022-10-28 16:36:22.875000
2844,41.52,2022-10-28 16:36:22.890625
2845,36.09,2022-10-28 16:36:22.906250
2846,33.02,2022-10-28 16:36:22.921875
2847,31.8,2022-10-28 16:36:22.937500
2848,31.81,2022-10-28 16:36:22.953125
2849,32.57,2022-10-28 16:36:22.968750
2850,33.86,2022-10-28 16:36:22.984375
2851,35.64,2022-10-28 16:36:23.000000
2852,37.77,2022-10-28 16:36:23.015625
2853,39.86,2022-10-28 16:36:23.031250
2854,41.14,2022-10-28 16:36:23.046875
2855,40.63,2022-10-28 16:36:23.062500
2856,37.49,2022-10-28 16:36:23.078125
2857,31.32,2022-10-28 16:36:23.093750
2858,22.47,2022-10-28 16:36:23.109375
2859,11.89,2022-10-28 16:36:23.125000
2860,0.9,2022-10-28 16:36:23.140625
2861,-9.27,2022-10-28 16:36:23.156250
2862,-17.92,2022-10-28 16:36:23.171875
2863,-25.08,2022-10-28 16:36:23.187500
2864,-31.54,2022-10-28 16:36:23.203125
2865,-38.49,2022-10-28 16:36:23.218750
2866,-47.23,2022-10-28 16:36:23.234375
2867,-58.66,2022-10-28 16:36:23.250000
2868,-72.88,2022-10-28 16:36:23.265625
2869,-88.85,2022-10-28 16:36:23.281250
2870,-104.27,2022-10-28 16:36:23.296875
2871,-115.93,2022-10-28 16:36:23.312500
2872,-120.43,2022-10-28 16:36:23.328125
2873,-115.2,2022-10-28 16:36:23.343750
2874,-99.52,2022-10-28 16:36:23.359375
2875,-74.8,2022-10-28 16:36:23.375000
2876,-44.29,2022-10-28 16:36:23.390625
2877,-12.04,2022-10-28 16:36:23.406250
2878,18.16,2022-10-28 16:36:23.421875
2879,43.65,2022-10-28 16:36:23.437500
2880,63.08,2022-10-28 16:36:23.453125
2881,76.13,2022-10-28 16:36:23.468750
2882,83.04,2022-10-28 16:36:23.484375
2883,84.28,2022-10-28 16:36:23.500000
2884,80.51,2022-10-28 16:36:23.515625
2885,72.65,2022-10-28 16:36:23.531250
2886,62.06,2022-10-28 16:36:23.546875
2887,50.38,2022-10-28 16:36:23.562500
2888,39.31,2022-10-28 16:36:23.578125
2889,30.2,2022-10-28 16:36:23.593750
2890,23.81,2022-10-28 16:36:23.609375
2891,20.23,2022-10-28 16:36:23.625000
2892,19.0,2022-10-28 16:36:23.640625
2893,19.43,2022-10-28 16:36:23.656250
2894,20.88,2022-10-28 16:36:23.671875
2895,23.01,2022-10-28 16:36:23.687500
2896,25.76,2022-10-28 16:36:23.703125
2897,29.14,2022-10-28 16:36:23.718750
2898,32.94,2022-10-28 16:36:23.734375
2899,36.54,2022-10-28 16:36:23.750000
2900,38.9,2022-10-28 16:36:23.765625
2901,38.87,2022-10-28 16:36:23.781250
2902,35.66,2022-10-28 16:36:23.796875
2903,29.18,2022-10-28 16:36:23.812500
2904,20.11,2022-10-28 16:36:23.828125
2905,9.68,2022-10-28 16:36:23.843750
2906,-0.81,2022-10-28 16:36:23.859375
2907,-10.43,2022-10-28 16:36:23.875000
2908,-18.85,2022-10-28 16:36:23.890625
2909,-26.4,2022-10-28 16:36:23.906250
2910,-33.84,2022-10-28 16:36:23.921875
2911,-42.13,2022-10-28 16:36:23.937500
2912,-52.18,2022-10-28 16:36:23.953125
2913,-64.57,2022-10-28 16:36:23.968750
2914,-79.09,2022-10-28 16:36:23.984375
2915,-94.43,2022-10-28 16:36:24.000000
2916,-108.1,2022-10-28 16:36:24.015625
2917,-116.74,2022-10-28 16:36:24.031250
2918,-117.12,2022-10-28 16:36:24.046875
2919,-107.27,2022-10-28 16:36:24.062500
2920,-87.23,2022-10-28 16:36:24.078125
2921,-59.24,2022-10-28 16:36:24.093750
2922,-27.01,2022-10-28 16:36:24.109375
2923,5.38,2022-10-28 16:36:24.125000
2924,34.54,2022-10-28 16:36:24.140625
2925,58.32,2022-10-28 16:36:24.156250
2926,75.75,2022-10-28 16:36:24.171875
2927,86.63,2022-10-28 16:36:24.187500
2928,91.25,2022-10-28 16:36:24.203125
2929,90.17,2022-10-28 16:36:24.218750
2930,84.31,2022-10-28 16:36:24.234375
2931,75.01,2022-10-28 16:36:24.250000
2932,63.95,2022-10-28 16:36:24.265625
2933,52.83,2022-10-28 16:36:24.281250
2934,43.01,2022-10-28 16:36:24.296875
2935,35.24,2022-10-28 16:36:24.312500
2936,29.68,2022-10-28 16:36:24.328125
2937,26.02,2022-10-28 16:36:24.343750
2938,23.86,2022-10-28 16:36:24.359375
2939,22.95,2022-10-28 16:36:24.375000
2940,23.23,2022-10-28 16:36:24.390625
2941,24.79,2022-10-28 16:36:24.406250
2942,27.51,2022-10-28 16:36:24.421875
2943,30.87,2022-10-28 16:36:24.437500
2944,33.93,2022-10-28 16:36:24.453125
2945,35.49,2022-10-28 16:36:24.468750
2946,34.55,2022-10-28 16:36:24.484375
2947,30.67,2022-10-28 16:36:24.500000
2948,24.1,2022-10-28 16:36:24.515625
2949,15.7,2022-10-28 16:36:24.531250
2950,6.59,2022-10-28 16:36:24.546875
2951,-2.35,2022-10-28 16:36:24.562500
2952,-10.67,2022-10-28 16:36:24.578125
2953,-18.57,2022-10-28 16:36:24.593750
2954,-26.66,2022-10-28 16:36:24.609375
2955,-35.86,2022-10-28 16:36:24.625000
2956,-46.96,2022-10-28 16:36:24.640625
2957,-60.3,2022-10-28 16:36:24.656250
2958,-75.27,2022-10-28 16:36:24.671875
2959,-90.06,2022-10-28 16:36:24.687500
2960,-101.76,2022-10-28 16:36:24.703125
2961,-107.04,2022-10-28 16:36:24.718750
2962,-103.18,2022-10-28 16:36:24.734375
2963,-89.11,2022-10-28 16:36:24.750000
2964,-66.0,2022-10-28 16:36:24.765625
2965,-36.96,2022-10-28 16:36:24.781250
2966,-6.09,2022-10-28 16:36:24.796875
2967,22.73,2022-10-28 16:36:24.812500
2968,46.74,2022-10-28 16:36:24.828125
2969,64.67,2022-10-28 16:36:24.843750
2970,76.38,2022-10-28 16:36:24.859375
2971,82.35,2022-10-28 16:36:24.875000
2972,83.22,2022-10-28 16:36:24.890625
2973,79.66,2022-10-28 16:36:24.906250
2974,72.44,2022-10-28 16:36:24.921875
2975,62.64,2022-10-28 16:36:24.937500
2976,51.52,2022-10-28 16:36:24.953125
2977,40.42,2022-10-28 16:36:24.968750
2978,30.46,2022-10-28 16:36:24.984375
2979,22.38,2022-10-28 16:36:25.000000
2980,16.48,2022-10-28 16:36:25.015625
2981,12.77,2022-10-28 16:36:25.031250
2982,11.07,2022-10-28 16:36:25.046875
2983,11.22,2022-10-28 16:36:25.062500
2984,13.04,2022-10-28 16:36:25.078125
2985,16.26,2022-10-28 16:36:25.093750
2986,20.3,2022-10-28 16:36:25.109375
2987,24.24,2022-10-28 16:36:25.125000
2988,26.87,2022-10-28 16:36:25.140625
2989,27.05,2022-10-28 16:36:25.156250
2990,24.13,2022-10-28 16:36:25.171875
2991,18.18,2022-10-28 16:36:25.187500
2992,10.02,2022-10-28 16:36:25.203125
2993,0.9,2022-10-28 16:36:25.218750
2994,-8.04,2022-10-28 16:36:25.234375
2995,-16.15,2022-10-28 16:36:25.250000
2996,-23.52,2022-10-28 16:36:25.265625
2997,-30.94,2022-10-28 16:36:25.281250
2998,-39.5,2022-10-28 16:36:25.296875
2999,-50.24,2022-10-28 16:36:25.312500
3000,-63.59,2022-10-28 16:36:25.328125
3001,-78.92,2022-10-28 16:36:25.343750
3002,-94.36,2022-10-28 16:36:25.359375
3003,-106.91,2022-10-28 16:36:25.375000
3004,-113.15,2022-10-28 16:36:25.390625
3005,-110.24,2022-10-28 16:36:25.406250
3006,-96.98,2022-10-28 16:36:25.421875
3007,-74.29,2022-10-28 16:36:25.437500
3008,-45.06,2022-10-28 16:36:25.453125
3009,-13.31,2022-10-28 16:36:25.468750
3010,17.05,2022-10-28 16:36:25.484375
3011,43.09,2022-10-28 16:36:25.500000
3012,63.26,2022-10-28 16:36:25.515625
3013,77.17,2022-10-28 16:36:25.531250
3014,85.15,2022-10-28 16:36:25.546875
3015,87.73,2022-10-28 16:36:25.562500
3016,85.51,2022-10-28 16:36:25.578125
3017,79.22,2022-10-28 16:36:25.593750
3018,69.9,2022-10-28 16:36:25.609375
3019,58.97,2022-10-28 16:36:25.625000
3020,48.0,2022-10-28 16:36:25.640625
3021,38.47,2022-10-28 16:36:25.656250
3022,31.39,2022-10-28 16:36:25.671875
3023,27.11,2022-10-28 16:36:25.687500
3024,25.28,2022-10-28 16:36:25.703125
3025,25.12,2022-10-28 16:36:25.718750
3026,25.82,2022-10-28 16:36:25.734375
3027,26.88,2022-10-28 16:36:25.750000
3028,28.17,2022-10-28 16:36:25.765625
3029,29.81,2022-10-28 16:36:25.781250
3030,31.79,2022-10-28 16:36:25.796875
3031,33.67,2022-10-28 16:36:25.812500
3032,34.54,2022-10-28 16:36:25.828125
3033,33.28,2022-10-28 16:36:25.843750
3034,29.08,2022-10-28 16:36:25.859375
3035,21.82,2022-10-28 16:36:25.875000
3036,12.24,2022-10-28 16:36:25.890625
3037,1.62,2022-10-28 16:36:25.906250
3038,-8.69,2022-10-28 16:36:25.921875
3039,-17.78,2022-10-28 16:36:25.937500
3040,-25.55,2022-10-28 16:36:25.953125
3041,-32.62,2022-10-28 16:36:25.968750
3042,-40.09,2022-10-28 16:36:25.984375
3043,-49.1,2022-10-28 16:36:26.000000
3044,-60.48,2022-10-28 16:36:26.015625
3045,-74.36,2022-10-28 16:36:26.031250
3046,-89.83,2022-10-28 16:36:26.046875
3047,-104.83,2022-10-28 16:36:26.062500
3048,-116.34,2022-10-28 16:36:26.078125
3049,-121.01,2022-10-28 16:36:26.093750
3050,-116.2,2022-10-28 16:36:26.109375
3051,-100.94,2022-10-28 16:36:26.125000
3052,-76.47,2022-10-28 16:36:26.140625
3053,-45.93,2022-10-28 16:36:26.156250
3054,-13.53,2022-10-28 16:36:26.171875
3055,16.74,2022-10-28 16:36:26.187500
3056,42.05,2022-10-28 16:36:26.203125
3057,61.1,2022-10-28 16:36:26.218750
3058,73.9,2022-10-28 16:36:26.234375
3059,81.2,2022-10-28 16:36:26.250000
3060,83.92,2022-10-28 16:36:26.265625
3061,82.87,2022-10-28 16:36:26.281250
3062,78.76,2022-10-28 16:36:26.296875
3063,72.28,2022-10-28 16:36:26.312500
3064,64.25,2022-10-28 16:36:26.328125
3065,55.6,2022-10-28 16:36:26.343750
3066,47.29,2022-10-28 16:36:26.359375
3067,40.2,2022-10-28 16:36:26.375000
3068,35.0,2022-10-28 16:36:26.390625
3069,32.0,2022-10-28 16:36:26.406250
3070,31.17,2022-10-28 16:36:26.421875
3071,32.07,2022-10-28 16:36:26.437500
3072,34.07,2022-10-28 16:36:26.453125
3073,36.46,2022-10-28 16:36:26.468750
3074,38.62,2022-10-28 16:36:26.484375
3075,40.15,2022-10-28 16:36:26.500000
3076,40.79,2022-10-28 16:36:26.515625
3077,40.44,2022-10-28 16:36:26.531250
3078,39.02,2022-10-28 16:36:26.546875
3079,36.44,2022-10-28 16:36:26.562500
3080,32.58,2022-10-28 16:36:26.578125
3081,27.29,2022-10-28 16:36:26.593750
3082,20.53,2022-10-28 16:36:26.609375
3083,12.37,2022-10-28 16:36:26.625000
3084,3.09,2022-10-28 16:36:26.640625
3085,-6.82,2022-10-28 16:36:26.656250
3086,-16.78,2022-10-28 16:36:26.671875
3087,-26.26,2022-10-28 16:36:26.687500
3088,-34.91,2022-10-28 16:36:26.703125
3089,-42.68,2022-10-28 16:36:26.718750
3090,-49.85,2022-10-28 16:36:26.734375
3091,-56.97,2022-10-28 16:36:26.750000
3092,-64.78,2022-10-28 16:36:26.765625
3093,-74.03,2022-10-28 16:36:26.781250
3094,-85.23,2022-10-28 16:36:26.796875
3095,-98.17,2022-10-28 16:36:26.812500
3096,-111.59,2022-10-28 16:36:26.828125
3097,-122.95,2022-10-28 16:36:26.843750
3098,-128.95,2022-10-28 16:36:26.859375
3099,-126.4,2022-10-28 16:36:26.875000
3100,-113.49,2022-10-28 16:36:26.890625
3101,-90.57,2022-10-28 16:36:26.906250
3102,-60.32,2022-10-28 16:36:26.921875
3103,-26.88,2022-10-28 16:36:26.937500
3104,5.41,2022-10-28 16:36:26.953125
3105,33.25,2022-10-28 16:36:26.968750
3106,55.0,2022-10-28 16:36:26.984375
3107,70.47,2022-10-28 16:36:27.000000
3108,80.3,2022-10-28 16:36:27.015625
3109,85.28,2022-10-28 16:36:27.031250
3110,86.08,2022-10-28 16:36:27.046875
3111,83.28,2022-10-28 16:36:27.062500
3112,77.63,2022-10-28 16:36:27.078125
3113,70.14,2022-10-28 16:36:27.093750
3114,62.0,2022-10-28 16:36:27.109375
3115,54.29,2022-10-28 16:36:27.125000
3116,47.73,2022-10-28 16:36:27.140625
3117,42.66,2022-10-28 16:36:27.156250
3118,39.09,2022-10-28 16:36:27.171875
3119,36.94,2022-10-28 16:36:27.187500
3120,36.16,2022-10-28 16:36:27.203125
3121,36.71,2022-10-28 16:36:27.218750
3122,38.43,2022-10-28 16:36:27.234375
3123,41.0,2022-10-28 16:36:27.250000
3124,43.8,2022-10-28 16:36:27.265625
3125,46.07,2022-10-28 16:36:27.281250
3126,47.04,2022-10-28 16:36:27.296875
3127,46.23,2022-10-28 16:36:27.312500
3128,43.49,2022-10-28 16:36:27.328125
3129,39.07,2022-10-28 16:36:27.343750
3130,33.46,2022-10-28 16:36:27.359375
3131,27.12,2022-10-28 16:36:27.375000
3132,20.34,2022-10-28 16:36:27.390625
3133,13.11,2022-10-28 16:36:27.406250
3134,5.23,2022-10-28 16:36:27.421875
3135,-3.58,2022-10-28 16:36:27.437500
3136,-13.27,2022-10-28 16:36:27.453125
3137,-23.49,2022-10-28 16:36:27.468750
3138,-33.52,2022-10-28 16:36:27.484375
3139,-42.57,2022-10-28 16:36:27.500000
3140,-50.07,2022-10-28 16:36:27.515625
3141,-55.93,2022-10-28 16:36:27.531250
3142,-60.58,2022-10-28 16:36:27.546875
3143,-64.96,2022-10-28 16:36:27.562500
3144,-70.21,2022-10-28 16:36:27.578125
3145,-77.31,2022-10-28 16:36:27.593750
3146,-86.61,2022-10-28 16:36:27.609375
3147,-97.36,2022-10-28 16:36:27.625000
