,BVP,time
0,-1.09,2022-10-26 10:33:46.562500
1,-3.0,2022-10-26 10:33:46.578125
2,-5.04,2022-10-26 10:33:46.593750
3,-7.2,2022-10-26 10:33:46.609375
4,-9.44,2022-10-26 10:33:46.625000
5,-11.69,2022-10-26 10:33:46.640625
6,-13.92,2022-10-26 10:33:46.656250
7,-16.13,2022-10-26 10:33:46.671875
8,-18.4,2022-10-26 10:33:46.687500
9,-20.91,2022-10-26 10:33:46.703125
10,-23.84,2022-10-26 10:33:46.718750
11,-27.35,2022-10-26 10:33:46.734375
12,-31.5,2022-10-26 10:33:46.750000
13,-36.22,2022-10-26 10:33:46.765625
14,-41.24,2022-10-26 10:33:46.781250
15,-46.09,2022-10-26 10:33:46.796875
16,-50.06,2022-10-26 10:33:46.812500
17,-52.28,2022-10-26 10:33:46.828125
18,-51.89,2022-10-26 10:33:46.843750
19,-48.31,2022-10-26 10:33:46.859375
20,-41.45,2022-10-26 10:33:46.875000
21,-31.91,2022-10-26 10:33:46.890625
22,-20.88,2022-10-26 10:33:46.906250
23,-9.9,2022-10-26 10:33:46.921875
24,-0.42,2022-10-26 10:33:46.937500
25,6.52,2022-10-26 10:33:46.953125
26,10.54,2022-10-26 10:33:46.968750
27,12.0,2022-10-26 10:33:46.984375
28,11.8,2022-10-26 10:33:47.000000
29,11.09,2022-10-26 10:33:47.015625
30,10.97,2022-10-26 10:33:47.031250
31,12.23,2022-10-26 10:33:47.046875
32,15.18,2022-10-26 10:33:47.062500
33,19.59,2022-10-26 10:33:47.078125
34,24.83,2022-10-26 10:33:47.093750
35,30.14,2022-10-26 10:33:47.109375
36,34.88,2022-10-26 10:33:47.125000
37,38.75,2022-10-26 10:33:47.140625
38,41.78,2022-10-26 10:33:47.156250
39,44.25,2022-10-26 10:33:47.171875
40,46.48,2022-10-26 10:33:47.187500
41,48.63,2022-10-26 10:33:47.203125
42,50.61,2022-10-26 10:33:47.218750
43,52.15,2022-10-26 10:33:47.234375
44,52.92,2022-10-26 10:33:47.250000
45,52.78,2022-10-26 10:33:47.265625
46,51.91,2022-10-26 10:33:47.281250
47,50.68,2022-10-26 10:33:47.296875
48,49.49,2022-10-26 10:33:47.312500
49,48.5,2022-10-26 10:33:47.328125
50,47.58,2022-10-26 10:33:47.343750
51,46.39,2022-10-26 10:33:47.359375
52,44.73,2022-10-26 10:33:47.375000
53,42.71,2022-10-26 10:33:47.390625
54,41.03,2022-10-26 10:33:47.406250
55,40.8,2022-10-26 10:33:47.421875
56,43.31,2022-10-26 10:33:47.437500
57,49.47,2022-10-26 10:33:47.453125
58,59.42,2022-10-26 10:33:47.468750
59,72.26,2022-10-26 10:33:47.484375
60,86.25,2022-10-26 10:33:47.500000
61,99.22,2022-10-26 10:33:47.515625
62,109.21,2022-10-26 10:33:47.531250
63,115.02,2022-10-26 10:33:47.546875
64,116.47,2022-10-26 10:33:47.562500
65,114.32,2022-10-26 10:33:47.578125
66,109.94,2022-10-26 10:33:47.593750
67,104.75,2022-10-26 10:33:47.609375
68,99.8,2022-10-26 10:33:47.625000
69,95.62,2022-10-26 10:33:47.640625
70,92.3,2022-10-26 10:33:47.656250
71,89.75,2022-10-26 10:33:47.671875
72,87.95,2022-10-26 10:33:47.687500
73,86.96,2022-10-26 10:33:47.703125
74,86.79,2022-10-26 10:33:47.718750
75,87.13,2022-10-26 10:33:47.734375
76,87.11,2022-10-26 10:33:47.750000
77,85.3,2022-10-26 10:33:47.765625
78,79.77,2022-10-26 10:33:47.781250
79,68.24,2022-10-26 10:33:47.796875
80,48.39,2022-10-26 10:33:47.812500
81,18.3,2022-10-26 10:33:47.828125
82,-22.75,2022-10-26 10:33:47.843750
83,-73.34,2022-10-26 10:33:47.859375
84,-129.18,2022-10-26 10:33:47.875000
85,-183.59,2022-10-26 10:33:47.890625
86,-228.85,2022-10-26 10:33:47.906250
87,-258.47,2022-10-26 10:33:47.921875
88,-269.22,2022-10-26 10:33:47.937500
89,-262.01,2022-10-26 10:33:47.953125
90,-241.17,2022-10-26 10:33:47.968750
91,-212.51,2022-10-26 10:33:47.984375
92,-181.31,2022-10-26 10:33:48.000000
93,-151.15,2022-10-26 10:33:48.015625
94,-123.98,2022-10-26 10:33:48.031250
95,-100.96,2022-10-26 10:33:48.046875
96,-83.21,2022-10-26 10:33:48.062500
97,-71.92,2022-10-26 10:33:48.078125
98,-67.77,2022-10-26 10:33:48.093750
99,-70.33,2022-10-26 10:33:48.109375
100,-77.81,2022-10-26 10:33:48.125000
101,-87.6,2022-10-26 10:33:48.140625
102,-97.14,2022-10-26 10:33:48.156250
103,-104.74,2022-10-26 10:33:48.171875
104,-109.77,2022-10-26 10:33:48.187500
105,-112.52,2022-10-26 10:33:48.203125
106,-113.66,2022-10-26 10:33:48.218750
107,-113.76,2022-10-26 10:33:48.234375
108,-113.17,2022-10-26 10:33:48.250000
109,-112.12,2022-10-26 10:33:48.265625
110,-110.88,2022-10-26 10:33:48.281250
111,-109.7,2022-10-26 10:33:48.296875
112,-108.69,2022-10-26 10:33:48.312500
113,-107.61,2022-10-26 10:33:48.328125
114,-105.9,2022-10-26 10:33:48.343750
115,-102.92,2022-10-26 10:33:48.359375
116,-98.23,2022-10-26 10:33:48.375000
117,-91.68,2022-10-26 10:33:48.390625
118,-83.43,2022-10-26 10:33:48.406250
119,-73.57,2022-10-26 10:33:48.421875
120,-61.99,2022-10-26 10:33:48.437500
121,-48.4,2022-10-26 10:33:48.453125
122,-32.84,2022-10-26 10:33:48.468750
123,-16.01,2022-10-26 10:33:48.484375
124,0.5,2022-10-26 10:33:48.500000
125,14.76,2022-10-26 10:33:48.515625
126,25.3,2022-10-26 10:33:48.531250
127,31.82,2022-10-26 10:33:48.546875
128,35.38,2022-10-26 10:33:48.562500
129,37.82,2022-10-26 10:33:48.578125
130,40.69,2022-10-26 10:33:48.593750
131,44.36,2022-10-26 10:33:48.609375
132,47.89,2022-10-26 10:33:48.625000
133,49.67,2022-10-26 10:33:48.640625
134,48.42,2022-10-26 10:33:48.656250
135,44.02,2022-10-26 10:33:48.671875
136,37.69,2022-10-26 10:33:48.687500
137,31.29,2022-10-26 10:33:48.703125
138,26.46,2022-10-26 10:33:48.718750
139,23.77,2022-10-26 10:33:48.734375
140,22.69,2022-10-26 10:33:48.750000
141,22.03,2022-10-26 10:33:48.765625
142,20.69,2022-10-26 10:33:48.781250
143,18.24,2022-10-26 10:33:48.796875
144,14.98,2022-10-26 10:33:48.812500
145,11.65,2022-10-26 10:33:48.828125
146,8.86,2022-10-26 10:33:48.843750
147,6.71,2022-10-26 10:33:48.859375
148,4.67,2022-10-26 10:33:48.875000
149,1.9,2022-10-26 10:33:48.890625
150,-2.34,2022-10-26 10:33:48.906250
151,-8.28,2022-10-26 10:33:48.921875
152,-15.59,2022-10-26 10:33:48.937500
153,-23.47,2022-10-26 10:33:48.953125
154,-31.08,2022-10-26 10:33:48.968750
155,-37.66,2022-10-26 10:33:48.984375
156,-42.6,2022-10-26 10:33:49.000000
157,-45.23,2022-10-26 10:33:49.015625
158,-44.79,2022-10-26 10:33:49.031250
159,-40.55,2022-10-26 10:33:49.046875
160,-32.24,2022-10-26 10:33:49.062500
161,-20.4,2022-10-26 10:33:49.078125
162,-6.53,2022-10-26 10:33:49.093750
163,7.27,2022-10-26 10:33:49.109375
164,18.97,2022-10-26 10:33:49.125000
165,27.29,2022-10-26 10:33:49.140625
166,32.05,2022-10-26 10:33:49.156250
167,33.92,2022-10-26 10:33:49.171875
168,34.04,2022-10-26 10:33:49.187500
169,33.38,2022-10-26 10:33:49.203125
170,32.44,2022-10-26 10:33:49.218750
171,31.27,2022-10-26 10:33:49.234375
172,29.76,2022-10-26 10:33:49.250000
173,27.85,2022-10-26 10:33:49.265625
174,25.7,2022-10-26 10:33:49.281250
175,23.58,2022-10-26 10:33:49.296875
176,21.71,2022-10-26 10:33:49.312500
177,20.26,2022-10-26 10:33:49.328125
178,19.26,2022-10-26 10:33:49.343750
179,18.74,2022-10-26 10:33:49.359375
180,18.82,2022-10-26 10:33:49.375000
181,19.67,2022-10-26 10:33:49.390625
182,21.36,2022-10-26 10:33:49.406250
183,23.74,2022-10-26 10:33:49.421875
184,26.34,2022-10-26 10:33:49.437500
185,28.47,2022-10-26 10:33:49.453125
186,29.37,2022-10-26 10:33:49.468750
187,28.5,2022-10-26 10:33:49.484375
188,25.69,2022-10-26 10:33:49.500000
189,21.2,2022-10-26 10:33:49.515625
190,15.55,2022-10-26 10:33:49.531250
191,9.39,2022-10-26 10:33:49.546875
192,3.25,2022-10-26 10:33:49.562500
193,-2.57,2022-10-26 10:33:49.578125
194,-8.03,2022-10-26 10:33:49.593750
195,-13.33,2022-10-26 10:33:49.609375
196,-18.75,2022-10-26 10:33:49.625000
197,-24.43,2022-10-26 10:33:49.640625
198,-30.25,2022-10-26 10:33:49.656250
199,-35.67,2022-10-26 10:33:49.671875
200,-39.83,2022-10-26 10:33:49.687500
201,-41.81,2022-10-26 10:33:49.703125
202,-41.0,2022-10-26 10:33:49.718750
203,-37.28,2022-10-26 10:33:49.734375
204,-31.22,2022-10-26 10:33:49.750000
205,-23.84,2022-10-26 10:33:49.765625
206,-16.33,2022-10-26 10:33:49.781250
207,-9.71,2022-10-26 10:33:49.796875
208,-4.57,2022-10-26 10:33:49.812500
209,-0.96,2022-10-26 10:33:49.828125
210,1.53,2022-10-26 10:33:49.843750
211,3.52,2022-10-26 10:33:49.859375
212,5.62,2022-10-26 10:33:49.875000
213,8.26,2022-10-26 10:33:49.890625
214,11.5,2022-10-26 10:33:49.906250
215,15.01,2022-10-26 10:33:49.921875
216,18.21,2022-10-26 10:33:49.937500
217,20.42,2022-10-26 10:33:49.953125
218,21.14,2022-10-26 10:33:49.968750
219,20.22,2022-10-26 10:33:49.984375
220,17.94,2022-10-26 10:33:50.000000
221,14.92,2022-10-26 10:33:50.015625
222,11.84,2022-10-26 10:33:50.031250
223,9.23,2022-10-26 10:33:50.046875
224,7.23,2022-10-26 10:33:50.062500
225,5.68,2022-10-26 10:33:50.078125
226,4.18,2022-10-26 10:33:50.093750
227,2.45,2022-10-26 10:33:50.109375
228,0.4,2022-10-26 10:33:50.125000
229,-1.82,2022-10-26 10:33:50.140625
230,-3.94,2022-10-26 10:33:50.156250
231,-5.74,2022-10-26 10:33:50.171875
232,-7.24,2022-10-26 10:33:50.187500
233,-8.7,2022-10-26 10:33:50.203125
234,-10.47,2022-10-26 10:33:50.218750
235,-12.97,2022-10-26 10:33:50.234375
236,-16.37,2022-10-26 10:33:50.250000
237,-20.59,2022-10-26 10:33:50.265625
238,-25.13,2022-10-26 10:33:50.281250
239,-29.18,2022-10-26 10:33:50.296875
240,-31.76,2022-10-26 10:33:50.312500
241,-31.99,2022-10-26 10:33:50.328125
242,-29.32,2022-10-26 10:33:50.343750
243,-23.7,2022-10-26 10:33:50.359375
244,-15.64,2022-10-26 10:33:50.375000
245,-6.03,2022-10-26 10:33:50.390625
246,4.09,2022-10-26 10:33:50.406250
247,13.7,2022-10-26 10:33:50.421875
248,22.01,2022-10-26 10:33:50.437500
249,28.52,2022-10-26 10:33:50.453125
250,33.01,2022-10-26 10:33:50.468750
251,35.57,2022-10-26 10:33:50.484375
252,36.55,2022-10-26 10:33:50.500000
253,36.41,2022-10-26 10:33:50.515625
254,35.69,2022-10-26 10:33:50.531250
255,34.72,2022-10-26 10:33:50.546875
256,33.68,2022-10-26 10:33:50.562500
257,32.54,2022-10-26 10:33:50.578125
258,31.16,2022-10-26 10:33:50.593750
259,29.52,2022-10-26 10:33:50.609375
260,27.64,2022-10-26 10:33:50.625000
261,25.63,2022-10-26 10:33:50.640625
262,23.6,2022-10-26 10:33:50.656250
263,21.52,2022-10-26 10:33:50.671875
264,19.32,2022-10-26 10:33:50.687500
265,16.83,2022-10-26 10:33:50.703125
266,13.97,2022-10-26 10:33:50.718750
267,10.73,2022-10-26 10:33:50.734375
268,7.18,2022-10-26 10:33:50.750000
269,3.4,2022-10-26 10:33:50.765625
270,-0.56,2022-10-26 10:33:50.781250
271,-4.7,2022-10-26 10:33:50.796875
272,-9.11,2022-10-26 10:33:50.812500
273,-13.85,2022-10-26 10:33:50.828125
274,-18.99,2022-10-26 10:33:50.843750
275,-24.55,2022-10-26 10:33:50.859375
276,-30.4,2022-10-26 10:33:50.875000
277,-36.2,2022-10-26 10:33:50.890625
278,-41.44,2022-10-26 10:33:50.906250
279,-45.35,2022-10-26 10:33:50.921875
280,-47.09,2022-10-26 10:33:50.937500
281,-45.94,2022-10-26 10:33:50.953125
282,-41.54,2022-10-26 10:33:50.968750
283,-34.06,2022-10-26 10:33:50.984375
284,-24.24,2022-10-26 10:33:51.000000
285,-13.24,2022-10-26 10:33:51.015625
286,-2.37,2022-10-26 10:33:51.031250
287,7.27,2022-10-26 10:33:51.046875
288,14.96,2022-10-26 10:33:51.062500
289,20.48,2022-10-26 10:33:51.078125
290,23.98,2022-10-26 10:33:51.093750
291,25.87,2022-10-26 10:33:51.109375
292,26.55,2022-10-26 10:33:51.125000
293,26.33,2022-10-26 10:33:51.140625
294,25.42,2022-10-26 10:33:51.156250
295,23.99,2022-10-26 10:33:51.171875
296,22.28,2022-10-26 10:33:51.187500
297,20.59,2022-10-26 10:33:51.203125
298,19.26,2022-10-26 10:33:51.218750
299,18.49,2022-10-26 10:33:51.234375
300,18.29,2022-10-26 10:33:51.250000
301,18.41,2022-10-26 10:33:51.265625
302,18.41,2022-10-26 10:33:51.281250
303,17.84,2022-10-26 10:33:51.296875
304,16.47,2022-10-26 10:33:51.312500
305,14.3,2022-10-26 10:33:51.328125
306,11.61,2022-10-26 10:33:51.343750
307,8.75,2022-10-26 10:33:51.359375
308,5.97,2022-10-26 10:33:51.375000
309,3.31,2022-10-26 10:33:51.390625
310,0.52,2022-10-26 10:33:51.406250
311,-2.75,2022-10-26 10:33:51.421875
312,-6.83,2022-10-26 10:33:51.437500
313,-11.92,2022-10-26 10:33:51.453125
314,-17.98,2022-10-26 10:33:51.468750
315,-24.82,2022-10-26 10:33:51.484375
316,-32.01,2022-10-26 10:33:51.500000
317,-38.92,2022-10-26 10:33:51.515625
318,-44.7,2022-10-26 10:33:51.531250
319,-48.33,2022-10-26 10:33:51.546875
320,-48.88,2022-10-26 10:33:51.562500
321,-45.76,2022-10-26 10:33:51.578125
322,-39.02,2022-10-26 10:33:51.593750
323,-29.36,2022-10-26 10:33:51.609375
324,-18.05,2022-10-26 10:33:51.625000
325,-6.48,2022-10-26 10:33:51.640625
326,4.14,2022-10-26 10:33:51.656250
327,13.09,2022-10-26 10:33:51.671875
328,20.16,2022-10-26 10:33:51.687500
329,25.5,2022-10-26 10:33:51.703125
330,29.42,2022-10-26 10:33:51.718750
331,32.16,2022-10-26 10:33:51.734375
332,33.87,2022-10-26 10:33:51.750000
333,34.62,2022-10-26 10:33:51.765625
334,34.55,2022-10-26 10:33:51.781250
335,33.84,2022-10-26 10:33:51.796875
336,32.82,2022-10-26 10:33:51.812500
337,31.85,2022-10-26 10:33:51.828125
338,31.19,2022-10-26 10:33:51.843750
339,30.92,2022-10-26 10:33:51.859375
340,30.93,2022-10-26 10:33:51.875000
341,30.91,2022-10-26 10:33:51.890625
342,30.55,2022-10-26 10:33:51.906250
343,29.58,2022-10-26 10:33:51.921875
344,27.89,2022-10-26 10:33:51.937500
345,25.53,2022-10-26 10:33:51.953125
346,22.65,2022-10-26 10:33:51.968750
347,19.44,2022-10-26 10:33:51.984375
348,16.04,2022-10-26 10:33:52.000000
349,12.5,2022-10-26 10:33:52.015625
350,8.8,2022-10-26 10:33:52.031250
351,4.9,2022-10-26 10:33:52.046875
352,0.64,2022-10-26 10:33:52.062500
353,-4.11,2022-10-26 10:33:52.078125
354,-9.51,2022-10-26 10:33:52.093750
355,-15.48,2022-10-26 10:33:52.109375
356,-21.67,2022-10-26 10:33:52.125000
357,-27.31,2022-10-26 10:33:52.140625
358,-31.24,2022-10-26 10:33:52.156250
359,-32.21,2022-10-26 10:33:52.171875
360,-29.3,2022-10-26 10:33:52.187500
361,-22.35,2022-10-26 10:33:52.203125
362,-12.09,2022-10-26 10:33:52.218750
363,-0.03,2022-10-26 10:33:52.234375
364,12.03,2022-10-26 10:33:52.250000
365,22.58,2022-10-26 10:33:52.265625
366,30.74,2022-10-26 10:33:52.281250
367,36.38,2022-10-26 10:33:52.296875
368,39.82,2022-10-26 10:33:52.312500
369,41.57,2022-10-26 10:33:52.328125
370,42.03,2022-10-26 10:33:52.343750
371,41.4,2022-10-26 10:33:52.359375
372,39.77,2022-10-26 10:33:52.375000
373,37.29,2022-10-26 10:33:52.390625
374,34.21,2022-10-26 10:33:52.406250
375,30.87,2022-10-26 10:33:52.421875
376,27.66,2022-10-26 10:33:52.437500
377,24.83,2022-10-26 10:33:52.453125
378,22.56,2022-10-26 10:33:52.468750
379,20.89,2022-10-26 10:33:52.484375
380,19.81,2022-10-26 10:33:52.500000
381,19.19,2022-10-26 10:33:52.515625
382,18.82,2022-10-26 10:33:52.531250
383,18.43,2022-10-26 10:33:52.546875
384,17.66,2022-10-26 10:33:52.562500
385,16.22,2022-10-26 10:33:52.578125
386,13.94,2022-10-26 10:33:52.593750
387,10.82,2022-10-26 10:33:52.609375
388,7.04,2022-10-26 10:33:52.625000
389,2.79,2022-10-26 10:33:52.640625
390,-1.8,2022-10-26 10:33:52.656250
391,-6.73,2022-10-26 10:33:52.671875
392,-12.16,2022-10-26 10:33:52.687500
393,-18.26,2022-10-26 10:33:52.703125
394,-25.01,2022-10-26 10:33:52.718750
395,-32.03,2022-10-26 10:33:52.734375
396,-38.44,2022-10-26 10:33:52.750000
397,-43.04,2022-10-26 10:33:52.765625
398,-44.59,2022-10-26 10:33:52.781250
399,-42.21,2022-10-26 10:33:52.796875
400,-35.7,2022-10-26 10:33:52.812500
401,-25.66,2022-10-26 10:33:52.828125
402,-13.39,2022-10-26 10:33:52.843750
403,-0.53,2022-10-26 10:33:52.859375
404,11.37,2022-10-26 10:33:52.875000
405,21.18,2022-10-26 10:33:52.890625
406,28.37,2022-10-26 10:33:52.906250
407,32.97,2022-10-26 10:33:52.921875
408,35.33,2022-10-26 10:33:52.937500
409,35.92,2022-10-26 10:33:52.953125
410,35.1,2022-10-26 10:33:52.968750
411,33.07,2022-10-26 10:33:52.984375
412,29.96,2022-10-26 10:33:53.000000
413,25.93,2022-10-26 10:33:53.015625
414,21.26,2022-10-26 10:33:53.031250
415,16.44,2022-10-26 10:33:53.046875
416,11.97,2022-10-26 10:33:53.062500
417,8.24,2022-10-26 10:33:53.078125
418,5.35,2022-10-26 10:33:53.093750
419,3.14,2022-10-26 10:33:53.109375
420,1.35,2022-10-26 10:33:53.125000
421,-0.23,2022-10-26 10:33:53.140625
422,-1.61,2022-10-26 10:33:53.156250
423,-2.59,2022-10-26 10:33:53.171875
424,-2.89,2022-10-26 10:33:53.187500
425,-2.37,2022-10-26 10:33:53.203125
426,-1.14,2022-10-26 10:33:53.218750
427,0.48,2022-10-26 10:33:53.234375
428,1.98,2022-10-26 10:33:53.250000
429,2.85,2022-10-26 10:33:53.265625
430,2.62,2022-10-26 10:33:53.281250
431,0.94,2022-10-26 10:33:53.296875
432,-2.35,2022-10-26 10:33:53.312500
433,-7.2,2022-10-26 10:33:53.328125
434,-13.16,2022-10-26 10:33:53.343750
435,-19.39,2022-10-26 10:33:53.359375
436,-24.65,2022-10-26 10:33:53.375000
437,-27.62,2022-10-26 10:33:53.390625
438,-27.29,2022-10-26 10:33:53.406250
439,-23.39,2022-10-26 10:33:53.421875
440,-16.5,2022-10-26 10:33:53.437500
441,-7.94,2022-10-26 10:33:53.453125
442,0.68,2022-10-26 10:33:53.468750
443,8.01,2022-10-26 10:33:53.484375
444,13.28,2022-10-26 10:33:53.500000
445,16.41,2022-10-26 10:33:53.515625
446,17.78,2022-10-26 10:33:53.531250
447,17.88,2022-10-26 10:33:53.546875
448,17.12,2022-10-26 10:33:53.562500
449,15.75,2022-10-26 10:33:53.578125
450,13.97,2022-10-26 10:33:53.593750
451,12.11,2022-10-26 10:33:53.609375
452,10.63,2022-10-26 10:33:53.625000
453,9.98,2022-10-26 10:33:53.640625
454,10.47,2022-10-26 10:33:53.656250
455,12.0,2022-10-26 10:33:53.671875
456,14.12,2022-10-26 10:33:53.687500
457,16.15,2022-10-26 10:33:53.703125
458,17.42,2022-10-26 10:33:53.718750
459,17.55,2022-10-26 10:33:53.734375
460,16.6,2022-10-26 10:33:53.750000
461,14.91,2022-10-26 10:33:53.765625
462,12.99,2022-10-26 10:33:53.781250
463,11.21,2022-10-26 10:33:53.796875
464,9.63,2022-10-26 10:33:53.812500
465,8.01,2022-10-26 10:33:53.828125
466,6.0,2022-10-26 10:33:53.843750
467,3.29,2022-10-26 10:33:53.859375
468,-0.24,2022-10-26 10:33:53.875000
469,-4.49,2022-10-26 10:33:53.890625
470,-9.28,2022-10-26 10:33:53.906250
471,-14.3,2022-10-26 10:33:53.921875
472,-19.17,2022-10-26 10:33:53.937500
473,-23.27,2022-10-26 10:33:53.953125
474,-25.84,2022-10-26 10:33:53.968750
475,-26.13,2022-10-26 10:33:53.984375
476,-23.68,2022-10-26 10:33:54.000000
477,-18.58,2022-10-26 10:33:54.015625
478,-11.53,2022-10-26 10:33:54.031250
479,-3.61,2022-10-26 10:33:54.046875
480,4.1,2022-10-26 10:33:54.062500
481,10.83,2022-10-26 10:33:54.078125
482,16.24,2022-10-26 10:33:54.093750
483,20.3,2022-10-26 10:33:54.109375
484,23.03,2022-10-26 10:33:54.125000
485,24.46,2022-10-26 10:33:54.140625
486,24.51,2022-10-26 10:33:54.156250
487,23.22,2022-10-26 10:33:54.171875
488,20.85,2022-10-26 10:33:54.187500
489,17.89,2022-10-26 10:33:54.203125
490,14.99,2022-10-26 10:33:54.218750
491,12.72,2022-10-26 10:33:54.234375
492,11.33,2022-10-26 10:33:54.250000
493,10.77,2022-10-26 10:33:54.265625
494,10.68,2022-10-26 10:33:54.281250
495,10.59,2022-10-26 10:33:54.296875
496,10.13,2022-10-26 10:33:54.312500
497,9.09,2022-10-26 10:33:54.328125
498,7.48,2022-10-26 10:33:54.343750
499,5.43,2022-10-26 10:33:54.359375
500,3.18,2022-10-26 10:33:54.375000
501,0.87,2022-10-26 10:33:54.390625
502,-1.46,2022-10-26 10:33:54.406250
503,-3.9,2022-10-26 10:33:54.421875
504,-6.62,2022-10-26 10:33:54.437500
505,-9.81,2022-10-26 10:33:54.453125
506,-13.6,2022-10-26 10:33:54.468750
507,-18.03,2022-10-26 10:33:54.484375
508,-22.92,2022-10-26 10:33:54.500000
509,-27.94,2022-10-26 10:33:54.515625
510,-32.49,2022-10-26 10:33:54.531250
511,-35.8,2022-10-26 10:33:54.546875
512,-37.08,2022-10-26 10:33:54.562500
513,-35.74,2022-10-26 10:33:54.578125
514,-31.63,2022-10-26 10:33:54.593750
515,-25.14,2022-10-26 10:33:54.609375
516,-17.1,2022-10-26 10:33:54.625000
517,-8.58,2022-10-26 10:33:54.640625
518,-0.59,2022-10-26 10:33:54.656250
519,6.17,2022-10-26 10:33:54.671875
520,11.4,2022-10-26 10:33:54.687500
521,15.05,2022-10-26 10:33:54.703125
522,17.27,2022-10-26 10:33:54.718750
523,18.26,2022-10-26 10:33:54.734375
524,18.21,2022-10-26 10:33:54.750000
525,17.4,2022-10-26 10:33:54.765625
526,16.14,2022-10-26 10:33:54.781250
527,14.78,2022-10-26 10:33:54.796875
528,13.61,2022-10-26 10:33:54.812500
529,12.8,2022-10-26 10:33:54.828125
530,12.31,2022-10-26 10:33:54.843750
531,11.94,2022-10-26 10:33:54.859375
532,11.37,2022-10-26 10:33:54.875000
533,10.32,2022-10-26 10:33:54.890625
534,8.66,2022-10-26 10:33:54.906250
535,6.54,2022-10-26 10:33:54.921875
536,4.29,2022-10-26 10:33:54.937500
537,2.39,2022-10-26 10:33:54.953125
538,1.24,2022-10-26 10:33:54.968750
539,0.97,2022-10-26 10:33:54.984375
540,1.34,2022-10-26 10:33:55.000000
541,1.8,2022-10-26 10:33:55.015625
542,1.6,2022-10-26 10:33:55.031250
543,0.07,2022-10-26 10:33:55.046875
544,-3.15,2022-10-26 10:33:55.062500
545,-8.02,2022-10-26 10:33:55.078125
546,-13.99,2022-10-26 10:33:55.093750
547,-20.24,2022-10-26 10:33:55.109375
548,-25.76,2022-10-26 10:33:55.125000
549,-29.69,2022-10-26 10:33:55.140625
550,-31.41,2022-10-26 10:33:55.156250
551,-30.68,2022-10-26 10:33:55.171875
552,-27.64,2022-10-26 10:33:55.187500
553,-22.76,2022-10-26 10:33:55.203125
554,-16.69,2022-10-26 10:33:55.218750
555,-10.16,2022-10-26 10:33:55.234375
556,-3.79,2022-10-26 10:33:55.250000
557,1.9,2022-10-26 10:33:55.265625
558,6.6,2022-10-26 10:33:55.281250
559,10.14,2022-10-26 10:33:55.296875
560,12.47,2022-10-26 10:33:55.312500
561,13.68,2022-10-26 10:33:55.328125
562,13.94,2022-10-26 10:33:55.343750
563,13.54,2022-10-26 10:33:55.359375
564,12.83,2022-10-26 10:33:55.375000
565,12.09,2022-10-26 10:33:55.390625
566,11.49,2022-10-26 10:33:55.406250
567,11.05,2022-10-26 10:33:55.421875
568,10.66,2022-10-26 10:33:55.437500
569,10.17,2022-10-26 10:33:55.453125
570,9.44,2022-10-26 10:33:55.468750
571,8.45,2022-10-26 10:33:55.484375
572,7.21,2022-10-26 10:33:55.500000
573,5.79,2022-10-26 10:33:55.515625
574,4.24,2022-10-26 10:33:55.531250
575,2.59,2022-10-26 10:33:55.546875
576,0.82,2022-10-26 10:33:55.562500
577,-1.11,2022-10-26 10:33:55.578125
578,-3.36,2022-10-26 10:33:55.593750
579,-6.16,2022-10-26 10:33:55.609375
580,-9.79,2022-10-26 10:33:55.625000
581,-14.48,2022-10-26 10:33:55.640625
582,-20.2,2022-10-26 10:33:55.656250
583,-26.58,2022-10-26 10:33:55.671875
584,-32.84,2022-10-26 10:33:55.687500
585,-37.96,2022-10-26 10:33:55.703125
586,-40.93,2022-10-26 10:33:55.718750
587,-40.98,2022-10-26 10:33:55.734375
588,-37.87,2022-10-26 10:33:55.750000
589,-31.96,2022-10-26 10:33:55.765625
590,-24.08,2022-10-26 10:33:55.781250
591,-15.28,2022-10-26 10:33:55.796875
592,-6.61,2022-10-26 10:33:55.812500
593,1.16,2022-10-26 10:33:55.828125
594,7.63,2022-10-26 10:33:55.843750
595,12.64,2022-10-26 10:33:55.859375
596,16.27,2022-10-26 10:33:55.875000
597,18.61,2022-10-26 10:33:55.890625
598,19.75,2022-10-26 10:33:55.906250
599,19.83,2022-10-26 10:33:55.921875
600,19.07,2022-10-26 10:33:55.937500
601,17.78,2022-10-26 10:33:55.953125
602,16.33,2022-10-26 10:33:55.968750
603,15.09,2022-10-26 10:33:55.984375
604,14.26,2022-10-26 10:33:56.000000
605,13.84,2022-10-26 10:33:56.015625
606,13.65,2022-10-26 10:33:56.031250
607,13.35,2022-10-26 10:33:56.046875
608,12.63,2022-10-26 10:33:56.062500
609,11.35,2022-10-26 10:33:56.078125
610,9.51,2022-10-26 10:33:56.093750
611,7.33,2022-10-26 10:33:56.109375
612,5.05,2022-10-26 10:33:56.125000
613,2.86,2022-10-26 10:33:56.140625
614,0.81,2022-10-26 10:33:56.156250
615,-1.22,2022-10-26 10:33:56.171875
616,-3.47,2022-10-26 10:33:56.187500
617,-6.16,2022-10-26 10:33:56.203125
618,-9.5,2022-10-26 10:33:56.218750
619,-13.55,2022-10-26 10:33:56.234375
620,-18.24,2022-10-26 10:33:56.250000
621,-23.32,2022-10-26 10:33:56.265625
622,-28.34,2022-10-26 10:33:56.281250
623,-32.66,2022-10-26 10:33:56.296875
624,-35.48,2022-10-26 10:33:56.312500
625,-36.07,2022-10-26 10:33:56.328125
626,-33.95,2022-10-26 10:33:56.343750
627,-29.16,2022-10-26 10:33:56.359375
628,-22.24,2022-10-26 10:33:56.375000
629,-14.14,2022-10-26 10:33:56.390625
630,-5.96,2022-10-26 10:33:56.406250
631,1.41,2022-10-26 10:33:56.421875
632,7.47,2022-10-26 10:33:56.437500
633,12.08,2022-10-26 10:33:56.453125
634,15.41,2022-10-26 10:33:56.468750
635,17.74,2022-10-26 10:33:56.484375
636,19.31,2022-10-26 10:33:56.500000
637,20.25,2022-10-26 10:33:56.515625
638,20.67,2022-10-26 10:33:56.531250
639,20.68,2022-10-26 10:33:56.546875
640,20.44,2022-10-26 10:33:56.562500
641,20.12,2022-10-26 10:33:56.578125
642,19.87,2022-10-26 10:33:56.593750
643,19.75,2022-10-26 10:33:56.609375
644,19.72,2022-10-26 10:33:56.625000
645,19.63,2022-10-26 10:33:56.640625
646,19.34,2022-10-26 10:33:56.656250
647,18.78,2022-10-26 10:33:56.671875
648,17.99,2022-10-26 10:33:56.687500
649,17.09,2022-10-26 10:33:56.703125
650,16.21,2022-10-26 10:33:56.718750
651,15.36,2022-10-26 10:33:56.734375
652,14.4,2022-10-26 10:33:56.750000
653,13.03,2022-10-26 10:33:56.765625
654,10.93,2022-10-26 10:33:56.781250
655,7.88,2022-10-26 10:33:56.796875
656,3.93,2022-10-26 10:33:56.812500
657,-0.67,2022-10-26 10:33:56.828125
658,-5.47,2022-10-26 10:33:56.843750
659,-10.06,2022-10-26 10:33:56.859375
660,-14.16,2022-10-26 10:33:56.875000
661,-17.72,2022-10-26 10:33:56.890625
662,-20.92,2022-10-26 10:33:56.906250
663,-24.1,2022-10-26 10:33:56.921875
664,-27.64,2022-10-26 10:33:56.937500
665,-31.78,2022-10-26 10:33:56.953125
666,-36.47,2022-10-26 10:33:56.968750
667,-41.23,2022-10-26 10:33:56.984375
668,-45.22,2022-10-26 10:33:57.000000
669,-47.42,2022-10-26 10:33:57.015625
670,-46.92,2022-10-26 10:33:57.031250
671,-43.26,2022-10-26 10:33:57.046875
672,-36.62,2022-10-26 10:33:57.062500
673,-27.76,2022-10-26 10:33:57.078125
674,-17.78,2022-10-26 10:33:57.093750
675,-7.83,2022-10-26 10:33:57.109375
676,1.17,2022-10-26 10:33:57.125000
677,8.67,2022-10-26 10:33:57.140625
678,14.5,2022-10-26 10:33:57.156250
679,18.71,2022-10-26 10:33:57.171875
680,21.5,2022-10-26 10:33:57.187500
681,23.11,2022-10-26 10:33:57.203125
682,23.8,2022-10-26 10:33:57.218750
683,23.82,2022-10-26 10:33:57.234375
684,23.45,2022-10-26 10:33:57.250000
685,22.94,2022-10-26 10:33:57.265625
686,22.53,2022-10-26 10:33:57.281250
687,22.36,2022-10-26 10:33:57.296875
688,22.43,2022-10-26 10:33:57.312500
689,22.65,2022-10-26 10:33:57.328125
690,22.81,2022-10-26 10:33:57.343750
691,22.75,2022-10-26 10:33:57.359375
692,22.38,2022-10-26 10:33:57.375000
693,21.75,2022-10-26 10:33:57.390625
694,20.97,2022-10-26 10:33:57.406250
695,20.11,2022-10-26 10:33:57.421875
696,19.19,2022-10-26 10:33:57.437500
697,18.15,2022-10-26 10:33:57.453125
698,16.91,2022-10-26 10:33:57.468750
699,15.38,2022-10-26 10:33:57.484375
700,13.53,2022-10-26 10:33:57.500000
701,11.32,2022-10-26 10:33:57.515625
702,8.71,2022-10-26 10:33:57.531250
703,5.65,2022-10-26 10:33:57.546875
704,2.19,2022-10-26 10:33:57.562500
705,-1.54,2022-10-26 10:33:57.578125
706,-5.3,2022-10-26 10:33:57.593750
707,-8.81,2022-10-26 10:33:57.609375
708,-11.88,2022-10-26 10:33:57.625000
709,-14.46,2022-10-26 10:33:57.640625
710,-16.65,2022-10-26 10:33:57.656250
711,-18.68,2022-10-26 10:33:57.671875
712,-20.9,2022-10-26 10:33:57.687500
713,-23.63,2022-10-26 10:33:57.703125
714,-27.16,2022-10-26 10:33:57.718750
715,-31.57,2022-10-26 10:33:57.734375
716,-36.61,2022-10-26 10:33:57.750000
717,-41.65,2022-10-26 10:33:57.765625
718,-45.69,2022-10-26 10:33:57.781250
719,-47.65,2022-10-26 10:33:57.796875
720,-46.68,2022-10-26 10:33:57.812500
721,-42.48,2022-10-26 10:33:57.828125
722,-35.41,2022-10-26 10:33:57.843750
723,-26.46,2022-10-26 10:33:57.859375
724,-16.86,2022-10-26 10:33:57.875000
725,-7.76,2022-10-26 10:33:57.890625
726,0.08,2022-10-26 10:33:57.906250
727,6.38,2022-10-26 10:33:57.921875
728,11.22,2022-10-26 10:33:57.937500
729,14.9,2022-10-26 10:33:57.953125
730,17.67,2022-10-26 10:33:57.968750
731,19.65,2022-10-26 10:33:57.984375
732,20.86,2022-10-26 10:33:58.000000
733,21.31,2022-10-26 10:33:58.015625
734,21.1,2022-10-26 10:33:58.031250
735,20.44,2022-10-26 10:33:58.046875
736,19.62,2022-10-26 10:33:58.062500
737,18.98,2022-10-26 10:33:58.078125
738,18.7,2022-10-26 10:33:58.093750
739,18.79,2022-10-26 10:33:58.109375
740,19.09,2022-10-26 10:33:58.125000
741,19.3,2022-10-26 10:33:58.140625
742,19.11,2022-10-26 10:33:58.156250
743,18.33,2022-10-26 10:33:58.171875
744,16.92,2022-10-26 10:33:58.187500
745,15.04,2022-10-26 10:33:58.203125
746,12.96,2022-10-26 10:33:58.218750
747,10.96,2022-10-26 10:33:58.234375
748,9.22,2022-10-26 10:33:58.250000
749,7.76,2022-10-26 10:33:58.265625
750,6.5,2022-10-26 10:33:58.281250
751,5.22,2022-10-26 10:33:58.296875
752,3.68,2022-10-26 10:33:58.312500
753,1.73,2022-10-26 10:33:58.328125
754,-0.72,2022-10-26 10:33:58.343750
755,-3.62,2022-10-26 10:33:58.359375
756,-6.87,2022-10-26 10:33:58.375000
757,-10.29,2022-10-26 10:33:58.390625
758,-13.75,2022-10-26 10:33:58.406250
759,-17.18,2022-10-26 10:33:58.421875
760,-20.56,2022-10-26 10:33:58.437500
761,-23.92,2022-10-26 10:33:58.453125
762,-27.34,2022-10-26 10:33:58.468750
763,-30.85,2022-10-26 10:33:58.484375
764,-34.43,2022-10-26 10:33:58.500000
765,-37.77,2022-10-26 10:33:58.515625
766,-40.34,2022-10-26 10:33:58.531250
767,-41.41,2022-10-26 10:33:58.546875
768,-40.26,2022-10-26 10:33:58.562500
769,-36.49,2022-10-26 10:33:58.578125
770,-30.24,2022-10-26 10:33:58.593750
771,-22.24,2022-10-26 10:33:58.609375
772,-13.57,2022-10-26 10:33:58.625000
773,-5.35,2022-10-26 10:33:58.640625
774,1.62,2022-10-26 10:33:58.656250
775,7.04,2022-10-26 10:33:58.671875
776,11.04,2022-10-26 10:33:58.687500
777,13.93,2022-10-26 10:33:58.703125
778,16.03,2022-10-26 10:33:58.718750
779,17.53,2022-10-26 10:33:58.734375
780,18.51,2022-10-26 10:33:58.750000
781,19.09,2022-10-26 10:33:58.765625
782,19.44,2022-10-26 10:33:58.781250
783,19.8,2022-10-26 10:33:58.796875
784,20.33,2022-10-26 10:33:58.812500
785,21.1,2022-10-26 10:33:58.828125
786,21.98,2022-10-26 10:33:58.843750
787,22.75,2022-10-26 10:33:58.859375
788,23.17,2022-10-26 10:33:58.875000
789,23.12,2022-10-26 10:33:58.890625
790,22.63,2022-10-26 10:33:58.906250
791,21.84,2022-10-26 10:33:58.921875
792,20.91,2022-10-26 10:33:58.937500
793,19.9,2022-10-26 10:33:58.953125
794,18.68,2022-10-26 10:33:58.968750
795,16.99,2022-10-26 10:33:58.984375
796,14.54,2022-10-26 10:33:59.000000
797,11.16,2022-10-26 10:33:59.015625
798,6.94,2022-10-26 10:33:59.031250
799,2.21,2022-10-26 10:33:59.046875
800,-2.54,2022-10-26 10:33:59.062500
801,-6.85,2022-10-26 10:33:59.078125
802,-10.48,2022-10-26 10:33:59.093750
803,-13.47,2022-10-26 10:33:59.109375
804,-16.05,2022-10-26 10:33:59.125000
805,-18.64,2022-10-26 10:33:59.140625
806,-21.59,2022-10-26 10:33:59.156250
807,-25.1,2022-10-26 10:33:59.171875
808,-29.06,2022-10-26 10:33:59.187500
809,-33.04,2022-10-26 10:33:59.203125
810,-36.28,2022-10-26 10:33:59.218750
811,-37.94,2022-10-26 10:33:59.234375
812,-37.26,2022-10-26 10:33:59.250000
813,-33.92,2022-10-26 10:33:59.265625
814,-28.1,2022-10-26 10:33:59.281250
815,-20.5,2022-10-26 10:33:59.296875
816,-12.16,2022-10-26 10:33:59.312500
817,-4.09,2022-10-26 10:33:59.328125
818,2.99,2022-10-26 10:33:59.343750
819,8.72,2022-10-26 10:33:59.359375
820,13.1,2022-10-26 10:33:59.375000
821,16.27,2022-10-26 10:33:59.390625
822,18.38,2022-10-26 10:33:59.406250
823,19.51,2022-10-26 10:33:59.421875
824,19.74,2022-10-26 10:33:59.437500
825,19.28,2022-10-26 10:33:59.453125
826,18.44,2022-10-26 10:33:59.468750
827,17.65,2022-10-26 10:33:59.484375
828,17.34,2022-10-26 10:33:59.500000
829,17.74,2022-10-26 10:33:59.515625
830,18.86,2022-10-26 10:33:59.531250
831,20.47,2022-10-26 10:33:59.546875
832,22.21,2022-10-26 10:33:59.562500
833,23.66,2022-10-26 10:33:59.578125
834,24.55,2022-10-26 10:33:59.593750
835,24.74,2022-10-26 10:33:59.609375
836,24.23,2022-10-26 10:33:59.625000
837,23.16,2022-10-26 10:33:59.640625
838,21.64,2022-10-26 10:33:59.656250
839,19.73,2022-10-26 10:33:59.671875
840,17.38,2022-10-26 10:33:59.687500
841,14.47,2022-10-26 10:33:59.703125
842,10.84,2022-10-26 10:33:59.718750
843,6.43,2022-10-26 10:33:59.734375
844,1.41,2022-10-26 10:33:59.750000
845,-3.86,2022-10-26 10:33:59.765625
846,-8.9,2022-10-26 10:33:59.781250
847,-13.27,2022-10-26 10:33:59.796875
848,-16.85,2022-10-26 10:33:59.812500
849,-19.84,2022-10-26 10:33:59.828125
850,-22.75,2022-10-26 10:33:59.843750
851,-26.18,2022-10-26 10:33:59.859375
852,-30.53,2022-10-26 10:33:59.875000
853,-35.87,2022-10-26 10:33:59.890625
854,-41.79,2022-10-26 10:33:59.906250
855,-47.49,2022-10-26 10:33:59.921875
856,-51.93,2022-10-26 10:33:59.937500
857,-54.12,2022-10-26 10:33:59.953125
858,-53.25,2022-10-26 10:33:59.968750
859,-49.05,2022-10-26 10:33:59.984375
860,-41.78,2022-10-26 10:34:00.000000
861,-32.3,2022-10-26 10:34:00.015625
862,-21.77,2022-10-26 10:34:00.031250
863,-11.44,2022-10-26 10:34:00.046875
864,-2.23,2022-10-26 10:34:00.062500
865,5.31,2022-10-26 10:34:00.078125
866,11.08,2022-10-26 10:34:00.093750
867,15.25,2022-10-26 10:34:00.109375
868,18.05,2022-10-26 10:34:00.125000
869,19.72,2022-10-26 10:34:00.140625
870,20.43,2022-10-26 10:34:00.156250
871,20.4,2022-10-26 10:34:00.171875
872,19.86,2022-10-26 10:34:00.187500
873,19.09,2022-10-26 10:34:00.203125
874,18.35,2022-10-26 10:34:00.218750
875,17.8,2022-10-26 10:34:00.234375
876,17.53,2022-10-26 10:34:00.250000
877,17.56,2022-10-26 10:34:00.265625
878,17.89,2022-10-26 10:34:00.281250
879,18.48,2022-10-26 10:34:00.296875
880,19.23,2022-10-26 10:34:00.312500
881,19.99,2022-10-26 10:34:00.328125
882,20.52,2022-10-26 10:34:00.343750
883,20.59,2022-10-26 10:34:00.359375
884,20.06,2022-10-26 10:34:00.375000
885,18.98,2022-10-26 10:34:00.390625
886,17.54,2022-10-26 10:34:00.406250
887,16.08,2022-10-26 10:34:00.421875
888,14.85,2022-10-26 10:34:00.437500
889,13.97,2022-10-26 10:34:00.453125
890,13.27,2022-10-26 10:34:00.468750
891,12.38,2022-10-26 10:34:00.484375
892,10.81,2022-10-26 10:34:00.500000
893,8.24,2022-10-26 10:34:00.515625
894,4.6,2022-10-26 10:34:00.531250
895,0.11,2022-10-26 10:34:00.546875
896,-4.86,2022-10-26 10:34:00.562500
897,-9.92,2022-10-26 10:34:00.578125
898,-14.89,2022-10-26 10:34:00.593750
899,-19.73,2022-10-26 10:34:00.609375
900,-24.59,2022-10-26 10:34:00.625000
901,-29.61,2022-10-26 10:34:00.640625
902,-34.89,2022-10-26 10:34:00.656250
903,-40.38,2022-10-26 10:34:00.671875
904,-45.86,2022-10-26 10:34:00.687500
905,-50.84,2022-10-26 10:34:00.703125
906,-54.61,2022-10-26 10:34:00.718750
907,-56.32,2022-10-26 10:34:00.734375
908,-55.16,2022-10-26 10:34:00.750000
909,-50.72,2022-10-26 10:34:00.765625
910,-43.14,2022-10-26 10:34:00.781250
911,-33.18,2022-10-26 10:34:00.796875
912,-22.04,2022-10-26 10:34:00.812500
913,-11.04,2022-10-26 10:34:00.828125
914,-1.24,2022-10-26 10:34:00.843750
915,6.77,2022-10-26 10:34:00.859375
916,12.86,2022-10-26 10:34:00.875000
917,17.3,2022-10-26 10:34:00.890625
918,20.49,2022-10-26 10:34:00.906250
919,22.84,2022-10-26 10:34:00.921875
920,24.69,2022-10-26 10:34:00.937500
921,26.25,2022-10-26 10:34:00.953125
922,27.63,2022-10-26 10:34:00.968750
923,28.84,2022-10-26 10:34:00.984375
924,29.84,2022-10-26 10:34:01.000000
925,30.54,2022-10-26 10:34:01.015625
926,30.88,2022-10-26 10:34:01.031250
927,30.86,2022-10-26 10:34:01.046875
928,30.53,2022-10-26 10:34:01.062500
929,30.03,2022-10-26 10:34:01.078125
930,29.47,2022-10-26 10:34:01.093750
931,28.96,2022-10-26 10:34:01.109375
932,28.46,2022-10-26 10:34:01.125000
933,27.87,2022-10-26 10:34:01.140625
934,26.99,2022-10-26 10:34:01.156250
935,25.61,2022-10-26 10:34:01.171875
936,23.61,2022-10-26 10:34:01.187500
937,21.02,2022-10-26 10:34:01.203125
938,17.99,2022-10-26 10:34:01.218750
939,14.8,2022-10-26 10:34:01.234375
940,11.68,2022-10-26 10:34:01.250000
941,8.77,2022-10-26 10:34:01.265625
942,6.03,2022-10-26 10:34:01.281250
943,3.34,2022-10-26 10:34:01.296875
944,0.53,2022-10-26 10:34:01.312500
945,-2.47,2022-10-26 10:34:01.328125
946,-5.61,2022-10-26 10:34:01.343750
947,-8.79,2022-10-26 10:34:01.359375
948,-11.91,2022-10-26 10:34:01.375000
949,-14.91,2022-10-26 10:34:01.390625
950,-17.79,2022-10-26 10:34:01.406250
951,-20.64,2022-10-26 10:34:01.421875
952,-23.63,2022-10-26 10:34:01.437500
953,-26.95,2022-10-26 10:34:01.453125
954,-30.87,2022-10-26 10:34:01.468750
955,-35.54,2022-10-26 10:34:01.484375
956,-40.87,2022-10-26 10:34:01.500000
957,-46.39,2022-10-26 10:34:01.515625
958,-51.22,2022-10-26 10:34:01.531250
959,-54.19,2022-10-26 10:34:01.546875
960,-54.23,2022-10-26 10:34:01.562500
961,-50.73,2022-10-26 10:34:01.578125
962,-43.76,2022-10-26 10:34:01.593750
963,-34.07,2022-10-26 10:34:01.609375
964,-22.9,2022-10-26 10:34:01.625000
965,-11.56,2022-10-26 10:34:01.640625
966,-1.13,2022-10-26 10:34:01.656250
967,7.69,2022-10-26 10:34:01.671875
968,14.63,2022-10-26 10:34:01.687500
969,19.7,2022-10-26 10:34:01.703125
970,23.11,2022-10-26 10:34:01.718750
971,25.11,2022-10-26 10:34:01.734375
972,26.0,2022-10-26 10:34:01.750000
973,26.11,2022-10-26 10:34:01.765625
974,25.71,2022-10-26 10:34:01.781250
975,25.06,2022-10-26 10:34:01.796875
976,24.39,2022-10-26 10:34:01.812500
977,23.89,2022-10-26 10:34:01.828125
978,23.7,2022-10-26 10:34:01.843750
979,23.88,2022-10-26 10:34:01.859375
980,24.4,2022-10-26 10:34:01.875000
981,25.14,2022-10-26 10:34:01.890625
982,25.89,2022-10-26 10:34:01.906250
983,26.48,2022-10-26 10:34:01.921875
984,26.75,2022-10-26 10:34:01.937500
985,26.58,2022-10-26 10:34:01.953125
986,25.91,2022-10-26 10:34:01.968750
987,24.68,2022-10-26 10:34:01.984375
988,22.83,2022-10-26 10:34:02.000000
989,20.4,2022-10-26 10:34:02.015625
990,17.55,2022-10-26 10:34:02.031250
991,14.46,2022-10-26 10:34:02.046875
992,11.25,2022-10-26 10:34:02.062500
993,7.97,2022-10-26 10:34:02.078125
994,4.53,2022-10-26 10:34:02.093750
995,0.8,2022-10-26 10:34:02.109375
996,-3.24,2022-10-26 10:34:02.125000
997,-7.48,2022-10-26 10:34:02.140625
998,-11.69,2022-10-26 10:34:02.156250
999,-15.61,2022-10-26 10:34:02.171875
1000,-19.06,2022-10-26 10:34:02.187500
1001,-22.06,2022-10-26 10:34:02.203125
1002,-24.79,2022-10-26 10:34:02.218750
1003,-27.55,2022-10-26 10:34:02.234375
1004,-30.69,2022-10-26 10:34:02.250000
1005,-34.52,2022-10-26 10:34:02.265625
1006,-39.23,2022-10-26 10:34:02.281250
1007,-44.66,2022-10-26 10:34:02.296875
1008,-50.19,2022-10-26 10:34:02.312500
1009,-54.77,2022-10-26 10:34:02.328125
1010,-57.1,2022-10-26 10:34:02.343750
1011,-56.1,2022-10-26 10:34:02.359375
1012,-51.25,2022-10-26 10:34:02.375000
1013,-42.85,2022-10-26 10:34:02.390625
1014,-32.0,2022-10-26 10:34:02.406250
1015,-20.15,2022-10-26 10:34:02.421875
1016,-8.77,2022-10-26 10:34:02.437500
1017,1.07,2022-10-26 10:34:02.453125
1018,8.83,2022-10-26 10:34:02.468750
1019,14.48,2022-10-26 10:34:02.484375
1020,18.27,2022-10-26 10:34:02.500000
1021,20.56,2022-10-26 10:34:02.515625
1022,21.74,2022-10-26 10:34:02.531250
1023,22.16,2022-10-26 10:34:02.546875
1024,22.12,2022-10-26 10:34:02.562500
1025,21.87,2022-10-26 10:34:02.578125
1026,21.65,2022-10-26 10:34:02.593750
1027,21.62,2022-10-26 10:34:02.609375
1028,21.86,2022-10-26 10:34:02.625000
1029,22.31,2022-10-26 10:34:02.640625
1030,22.79,2022-10-26 10:34:02.656250
1031,23.06,2022-10-26 10:34:02.671875
1032,22.93,2022-10-26 10:34:02.687500
1033,22.37,2022-10-26 10:34:02.703125
1034,21.55,2022-10-26 10:34:02.718750
1035,20.69,2022-10-26 10:34:02.734375
1036,19.94,2022-10-26 10:34:02.750000
1037,19.22,2022-10-26 10:34:02.765625
1038,18.19,2022-10-26 10:34:02.781250
1039,16.44,2022-10-26 10:34:02.796875
1040,13.73,2022-10-26 10:34:02.812500
1041,10.09,2022-10-26 10:34:02.828125
1042,5.93,2022-10-26 10:34:02.843750
1043,1.75,2022-10-26 10:34:02.859375
1044,-2.05,2022-10-26 10:34:02.875000
1045,-5.37,2022-10-26 10:34:02.890625
1046,-8.4,2022-10-26 10:34:02.906250
1047,-11.49,2022-10-26 10:34:02.921875
1048,-14.97,2022-10-26 10:34:02.937500
1049,-19.01,2022-10-26 10:34:02.953125
1050,-23.7,2022-10-26 10:34:02.968750
1051,-28.95,2022-10-26 10:34:02.984375
1052,-34.56,2022-10-26 10:34:03.000000
1053,-40.0,2022-10-26 10:34:03.015625
1054,-44.46,2022-10-26 10:34:03.031250
1055,-46.93,2022-10-26 10:34:03.046875
1056,-46.48,2022-10-26 10:34:03.062500
1057,-42.61,2022-10-26 10:34:03.078125
1058,-35.52,2022-10-26 10:34:03.093750
1059,-26.08,2022-10-26 10:34:03.109375
1060,-15.56,2022-10-26 10:34:03.125000
1061,-5.23,2022-10-26 10:34:03.140625
1062,3.94,2022-10-26 10:34:03.156250
1063,11.42,2022-10-26 10:34:03.171875
1064,17.05,2022-10-26 10:34:03.187500
1065,20.89,2022-10-26 10:34:03.203125
1066,23.03,2022-10-26 10:34:03.218750
1067,23.66,2022-10-26 10:34:03.234375
1068,23.04,2022-10-26 10:34:03.250000
1069,21.6,2022-10-26 10:34:03.265625
1070,19.84,2022-10-26 10:34:03.281250
1071,18.29,2022-10-26 10:34:03.296875
1072,17.35,2022-10-26 10:34:03.312500
1073,17.17,2022-10-26 10:34:03.328125
1074,17.66,2022-10-26 10:34:03.343750
1075,18.52,2022-10-26 10:34:03.359375
1076,19.39,2022-10-26 10:34:03.375000
1077,19.97,2022-10-26 10:34:03.390625
1078,20.12,2022-10-26 10:34:03.406250
1079,19.75,2022-10-26 10:34:03.421875
1080,18.89,2022-10-26 10:34:03.437500
1081,17.48,2022-10-26 10:34:03.453125
1082,15.43,2022-10-26 10:34:03.468750
1083,12.6,2022-10-26 10:34:03.484375
1084,8.91,2022-10-26 10:34:03.500000
1085,4.42,2022-10-26 10:34:03.515625
1086,-0.63,2022-10-26 10:34:03.531250
1087,-5.89,2022-10-26 10:34:03.546875
1088,-11.0,2022-10-26 10:34:03.562500
1089,-15.7,2022-10-26 10:34:03.578125
1090,-19.94,2022-10-26 10:34:03.593750
1091,-23.91,2022-10-26 10:34:03.609375
1092,-28.05,2022-10-26 10:34:03.625000
1093,-32.83,2022-10-26 10:34:03.640625
1094,-38.61,2022-10-26 10:34:03.656250
1095,-45.31,2022-10-26 10:34:03.671875
1096,-52.3,2022-10-26 10:34:03.687500
1097,-58.32,2022-10-26 10:34:03.703125
1098,-61.89,2022-10-26 10:34:03.718750
1099,-61.71,2022-10-26 10:34:03.734375
1100,-57.16,2022-10-26 10:34:03.750000
1101,-48.58,2022-10-26 10:34:03.765625
1102,-37.13,2022-10-26 10:34:03.781250
1103,-24.48,2022-10-26 10:34:03.796875
1104,-12.21,2022-10-26 10:34:03.812500
1105,-1.45,2022-10-26 10:34:03.828125
1106,7.29,2022-10-26 10:34:03.843750
1107,13.98,2022-10-26 10:34:03.859375
1108,18.89,2022-10-26 10:34:03.875000
1109,22.33,2022-10-26 10:34:03.890625
1110,24.57,2022-10-26 10:34:03.906250
1111,25.79,2022-10-26 10:34:03.921875
1112,26.24,2022-10-26 10:34:03.937500
1113,26.2,2022-10-26 10:34:03.953125
1114,26.01,2022-10-26 10:34:03.968750
1115,25.95,2022-10-26 10:34:03.984375
1116,26.15,2022-10-26 10:34:04.000000
1117,26.57,2022-10-26 10:34:04.015625
1118,27.03,2022-10-26 10:34:04.031250
1119,27.29,2022-10-26 10:34:04.046875
1120,27.2,2022-10-26 10:34:04.062500
1121,26.78,2022-10-26 10:34:04.078125
1122,26.18,2022-10-26 10:34:04.093750
1123,25.54,2022-10-26 10:34:04.109375
1124,24.89,2022-10-26 10:34:04.125000
1125,24.0,2022-10-26 10:34:04.140625
1126,22.45,2022-10-26 10:34:04.156250
1127,19.82,2022-10-26 10:34:04.171875
1128,15.92,2022-10-26 10:34:04.187500
1129,10.89,2022-10-26 10:34:04.203125
1130,5.24,2022-10-26 10:34:04.218750
1131,-0.38,2022-10-26 10:34:04.234375
1132,-5.45,2022-10-26 10:34:04.250000
1133,-9.83,2022-10-26 10:34:04.265625
1134,-13.75,2022-10-26 10:34:04.281250
1135,-17.77,2022-10-26 10:34:04.296875
1136,-22.54,2022-10-26 10:34:04.312500
1137,-28.5,2022-10-26 10:34:04.328125
1138,-35.7,2022-10-26 10:34:04.343750
1139,-43.61,2022-10-26 10:34:04.359375
1140,-51.17,2022-10-26 10:34:04.375000
1141,-56.95,2022-10-26 10:34:04.390625
1142,-59.51,2022-10-26 10:34:04.406250
1143,-57.81,2022-10-26 10:34:04.421875
1144,-51.57,2022-10-26 10:34:04.437500
1145,-41.42,2022-10-26 10:34:04.453125
1146,-28.74,2022-10-26 10:34:04.468750
1147,-15.24,2022-10-26 10:34:04.484375
1148,-2.48,2022-10-26 10:34:04.500000
1149,8.5,2022-10-26 10:34:04.515625
1150,17.25,2022-10-26 10:34:04.531250
1151,23.88,2022-10-26 10:34:04.546875
1152,28.74,2022-10-26 10:34:04.562500
1153,32.25,2022-10-26 10:34:04.578125
1154,34.73,2022-10-26 10:34:04.593750
1155,36.42,2022-10-26 10:34:04.609375
1156,37.53,2022-10-26 10:34:04.625000
1157,38.23,2022-10-26 10:34:04.640625
1158,38.71,2022-10-26 10:34:04.656250
1159,39.11,2022-10-26 10:34:04.671875
1160,39.5,2022-10-26 10:34:04.687500
1161,39.85,2022-10-26 10:34:04.703125
1162,40.03,2022-10-26 10:34:04.718750
1163,39.91,2022-10-26 10:34:04.734375
1164,39.39,2022-10-26 10:34:04.750000
1165,38.49,2022-10-26 10:34:04.765625
1166,37.3,2022-10-26 10:34:04.781250
1167,36.0,2022-10-26 10:34:04.796875
1168,34.69,2022-10-26 10:34:04.812500
1169,33.31,2022-10-26 10:34:04.828125
1170,31.66,2022-10-26 10:34:04.843750
1171,29.38,2022-10-26 10:34:04.859375
1172,26.17,2022-10-26 10:34:04.875000
1173,21.9,2022-10-26 10:34:04.890625
1174,16.77,2022-10-26 10:34:04.906250
1175,11.19,2022-10-26 10:34:04.921875
1176,5.7,2022-10-26 10:34:04.937500
1177,0.7,2022-10-26 10:34:04.953125
1178,-3.67,2022-10-26 10:34:04.968750
1179,-7.63,2022-10-26 10:34:04.984375
1180,-11.68,2022-10-26 10:34:05.000000
1181,-16.37,2022-10-26 10:34:05.015625
1182,-22.14,2022-10-26 10:34:05.031250
1183,-29.17,2022-10-26 10:34:05.046875
1184,-37.26,2022-10-26 10:34:05.062500
1185,-45.76,2022-10-26 10:34:05.078125
1186,-53.62,2022-10-26 10:34:05.093750
1187,-59.55,2022-10-26 10:34:05.109375
1188,-62.2,2022-10-26 10:34:05.125000
1189,-60.65,2022-10-26 10:34:05.140625
1190,-54.69,2022-10-26 10:34:05.156250
1191,-45.01,2022-10-26 10:34:05.171875
1192,-32.99,2022-10-26 10:34:05.187500
1193,-20.37,2022-10-26 10:34:05.203125
1194,-8.66,2022-10-26 10:34:05.218750
1195,1.25,2022-10-26 10:34:05.234375
1196,9.15,2022-10-26 10:34:05.250000
1197,15.31,2022-10-26 10:34:05.265625
1198,20.2,2022-10-26 10:34:05.281250
1199,24.17,2022-10-26 10:34:05.296875
1200,27.37,2022-10-26 10:34:05.312500
1201,29.87,2022-10-26 10:34:05.328125
1202,31.72,2022-10-26 10:34:05.343750
1203,33.08,2022-10-26 10:34:05.359375
1204,34.17,2022-10-26 10:34:05.375000
1205,35.19,2022-10-26 10:34:05.390625
1206,36.27,2022-10-26 10:34:05.406250
1207,37.38,2022-10-26 10:34:05.421875
1208,38.44,2022-10-26 10:34:05.437500
1209,39.28,2022-10-26 10:34:05.453125
1210,39.8,2022-10-26 10:34:05.468750
1211,39.95,2022-10-26 10:34:05.484375
1212,39.73,2022-10-26 10:34:05.500000
1213,39.13,2022-10-26 10:34:05.515625
1214,38.11,2022-10-26 10:34:05.531250
1215,36.58,2022-10-26 10:34:05.546875
1216,34.45,2022-10-26 10:34:05.562500
1217,31.67,2022-10-26 10:34:05.578125
1218,28.3,2022-10-26 10:34:05.593750
1219,24.48,2022-10-26 10:34:05.609375
1220,20.4,2022-10-26 10:34:05.625000
1221,16.18,2022-10-26 10:34:05.640625
1222,11.89,2022-10-26 10:34:05.656250
1223,7.52,2022-10-26 10:34:05.671875
1224,3.07,2022-10-26 10:34:05.687500
1225,-1.37,2022-10-26 10:34:05.703125
1226,-5.74,2022-10-26 10:34:05.718750
1227,-9.95,2022-10-26 10:34:05.734375
1228,-14.09,2022-10-26 10:34:05.750000
1229,-18.36,2022-10-26 10:34:05.765625
1230,-23.07,2022-10-26 10:34:05.781250
1231,-28.49,2022-10-26 10:34:05.796875
1232,-34.82,2022-10-26 10:34:05.812500
1233,-42.01,2022-10-26 10:34:05.828125
1234,-49.63,2022-10-26 10:34:05.843750
1235,-56.89,2022-10-26 10:34:05.859375
1236,-62.63,2022-10-26 10:34:05.875000
1237,-65.59,2022-10-26 10:34:05.890625
1238,-64.69,2022-10-26 10:34:05.906250
1239,-59.46,2022-10-26 10:34:05.921875
1240,-50.22,2022-10-26 10:34:05.937500
1241,-38.11,2022-10-26 10:34:05.953125
1242,-24.71,2022-10-26 10:34:05.968750
1243,-11.58,2022-10-26 10:34:05.984375
1244,0.06,2022-10-26 10:34:06.000000
1245,9.61,2022-10-26 10:34:06.015625
1246,16.99,2022-10-26 10:34:06.031250
1247,22.41,2022-10-26 10:34:06.046875
1248,26.19,2022-10-26 10:34:06.062500
1249,28.64,2022-10-26 10:34:06.078125
1250,30.07,2022-10-26 10:34:06.093750
1251,30.84,2022-10-26 10:34:06.109375
1252,31.23,2022-10-26 10:34:06.125000
1253,31.54,2022-10-26 10:34:06.140625
1254,31.9,2022-10-26 10:34:06.156250
1255,32.32,2022-10-26 10:34:06.171875
1256,32.74,2022-10-26 10:34:06.187500
1257,33.12,2022-10-26 10:34:06.203125
1258,33.47,2022-10-26 10:34:06.218750
1259,33.89,2022-10-26 10:34:06.234375
1260,34.36,2022-10-26 10:34:06.250000
1261,34.83,2022-10-26 10:34:06.265625
1262,35.04,2022-10-26 10:34:06.281250
1263,34.71,2022-10-26 10:34:06.296875
1264,33.58,2022-10-26 10:34:06.312500
1265,31.57,2022-10-26 10:34:06.328125
1266,28.81,2022-10-26 10:34:06.343750
1267,25.54,2022-10-26 10:34:06.359375
1268,22.01,2022-10-26 10:34:06.375000
1269,18.37,2022-10-26 10:34:06.390625
1270,14.58,2022-10-26 10:34:06.406250
1271,10.52,2022-10-26 10:34:06.421875
1272,6.1,2022-10-26 10:34:06.437500
1273,1.33,2022-10-26 10:34:06.453125
1274,-3.62,2022-10-26 10:34:06.468750
1275,-8.49,2022-10-26 10:34:06.484375
1276,-13.01,2022-10-26 10:34:06.500000
1277,-17.06,2022-10-26 10:34:06.515625
1278,-20.71,2022-10-26 10:34:06.531250
1279,-24.22,2022-10-26 10:34:06.546875
1280,-27.97,2022-10-26 10:34:06.562500
1281,-32.31,2022-10-26 10:34:06.578125
1282,-37.52,2022-10-26 10:34:06.593750
1283,-43.58,2022-10-26 10:34:06.609375
1284,-50.07,2022-10-26 10:34:06.625000
1285,-56.15,2022-10-26 10:34:06.640625
1286,-60.66,2022-10-26 10:34:06.656250
1287,-62.33,2022-10-26 10:34:06.671875
1288,-60.22,2022-10-26 10:34:06.687500
1289,-53.96,2022-10-26 10:34:06.703125
1290,-43.97,2022-10-26 10:34:06.718750
1291,-31.37,2022-10-26 10:34:06.734375
1292,-17.74,2022-10-26 10:34:06.750000
1293,-4.7,2022-10-26 10:34:06.765625
1294,6.45,2022-10-26 10:34:06.781250
1295,14.94,2022-10-26 10:34:06.796875
1296,20.65,2022-10-26 10:34:06.812500
1297,23.92,2022-10-26 10:34:06.828125
1298,25.36,2022-10-26 10:34:06.843750
1299,25.65,2022-10-26 10:34:06.859375
1300,25.38,2022-10-26 10:34:06.875000
1301,24.94,2022-10-26 10:34:06.890625
1302,24.64,2022-10-26 10:34:06.906250
1303,24.63,2022-10-26 10:34:06.921875
1304,25.02,2022-10-26 10:34:06.937500
1305,25.81,2022-10-26 10:34:06.953125
1306,26.86,2022-10-26 10:34:06.968750
1307,27.91,2022-10-26 10:34:06.984375
1308,28.62,2022-10-26 10:34:07.000000
1309,28.75,2022-10-26 10:34:07.015625
1310,28.23,2022-10-26 10:34:07.031250
1311,27.25,2022-10-26 10:34:07.046875
1312,26.08,2022-10-26 10:34:07.062500
1313,24.93,2022-10-26 10:34:07.078125
1314,23.79,2022-10-26 10:34:07.093750
1315,22.4,2022-10-26 10:34:07.109375
1316,20.39,2022-10-26 10:34:07.125000
1317,17.47,2022-10-26 10:34:07.140625
1318,13.58,2022-10-26 10:34:07.156250
1319,9.0,2022-10-26 10:34:07.171875
1320,4.2,2022-10-26 10:34:07.187500
1321,-0.33,2022-10-26 10:34:07.203125
1322,-4.23,2022-10-26 10:34:07.218750
1323,-7.5,2022-10-26 10:34:07.234375
1324,-10.42,2022-10-26 10:34:07.250000
1325,-13.52,2022-10-26 10:34:07.265625
1326,-17.36,2022-10-26 10:34:07.281250
1327,-22.31,2022-10-26 10:34:07.296875
1328,-28.39,2022-10-26 10:34:07.312500
1329,-35.14,2022-10-26 10:34:07.328125
1330,-41.61,2022-10-26 10:34:07.343750
1331,-46.57,2022-10-26 10:34:07.359375
1332,-48.81,2022-10-26 10:34:07.375000
1333,-47.44,2022-10-26 10:34:07.390625
1334,-42.23,2022-10-26 10:34:07.406250
1335,-33.65,2022-10-26 10:34:07.421875
1336,-22.77,2022-10-26 10:34:07.437500
1337,-10.94,2022-10-26 10:34:07.453125
1338,0.54,2022-10-26 10:34:07.468750
1339,10.7,2022-10-26 10:34:07.484375
1340,19.03,2022-10-26 10:34:07.500000
1341,25.4,2022-10-26 10:34:07.515625
1342,29.93,2022-10-26 10:34:07.531250
1343,32.82,2022-10-26 10:34:07.546875
1344,34.26,2022-10-26 10:34:07.562500
1345,34.5,2022-10-26 10:34:07.578125
1346,33.77,2022-10-26 10:34:07.593750
1347,32.39,2022-10-26 10:34:07.609375
1348,30.7,2022-10-26 10:34:07.625000
1349,28.98,2022-10-26 10:34:07.640625
1350,27.48,2022-10-26 10:34:07.656250
1351,26.31,2022-10-26 10:34:07.671875
1352,25.49,2022-10-26 10:34:07.687500
1353,24.95,2022-10-26 10:34:07.703125
1354,24.55,2022-10-26 10:34:07.718750
1355,24.12,2022-10-26 10:34:07.734375
1356,23.45,2022-10-26 10:34:07.750000
1357,22.38,2022-10-26 10:34:07.765625
1358,20.74,2022-10-26 10:34:07.781250
1359,18.45,2022-10-26 10:34:07.796875
1360,15.49,2022-10-26 10:34:07.812500
1361,11.88,2022-10-26 10:34:07.828125
1362,7.65,2022-10-26 10:34:07.843750
1363,2.93,2022-10-26 10:34:07.859375
1364,-2.07,2022-10-26 10:34:07.875000
1365,-7.01,2022-10-26 10:34:07.890625
1366,-11.5,2022-10-26 10:34:07.906250
1367,-15.28,2022-10-26 10:34:07.921875
1368,-18.36,2022-10-26 10:34:07.937500
1369,-21.11,2022-10-26 10:34:07.953125
1370,-24.24,2022-10-26 10:34:07.968750
1371,-28.45,2022-10-26 10:34:07.984375
1372,-34.19,2022-10-26 10:34:08.000000
1373,-41.22,2022-10-26 10:34:08.015625
1374,-48.62,2022-10-26 10:34:08.031250
1375,-54.92,2022-10-26 10:34:08.046875
1376,-58.55,2022-10-26 10:34:08.062500
1377,-58.34,2022-10-26 10:34:08.078125
1378,-53.95,2022-10-26 10:34:08.093750
1379,-45.87,2022-10-26 10:34:08.109375
1380,-35.25,2022-10-26 10:34:08.125000
1381,-23.5,2022-10-26 10:34:08.140625
1382,-11.93,2022-10-26 10:34:08.156250
1383,-1.43,2022-10-26 10:34:08.171875
1384,7.52,2022-10-26 10:34:08.187500
1385,14.78,2022-10-26 10:34:08.203125
1386,20.39,2022-10-26 10:34:08.218750
1387,24.45,2022-10-26 10:34:08.234375
1388,27.07,2022-10-26 10:34:08.250000
1389,28.43,2022-10-26 10:34:08.265625
1390,28.78,2022-10-26 10:34:08.281250
1391,28.44,2022-10-26 10:34:08.296875
1392,27.75,2022-10-26 10:34:08.312500
1393,27.03,2022-10-26 10:34:08.328125
1394,26.53,2022-10-26 10:34:08.343750
1395,26.37,2022-10-26 10:34:08.359375
1396,26.52,2022-10-26 10:34:08.375000
1397,26.83,2022-10-26 10:34:08.390625
1398,27.07,2022-10-26 10:34:08.406250
1399,27.02,2022-10-26 10:34:08.421875
1400,26.59,2022-10-26 10:34:08.437500
1401,25.78,2022-10-26 10:34:08.453125
1402,24.71,2022-10-26 10:34:08.468750
1403,23.41,2022-10-26 10:34:08.484375
1404,21.81,2022-10-26 10:34:08.500000
1405,19.7,2022-10-26 10:34:08.515625
1406,16.82,2022-10-26 10:34:08.531250
1407,12.98,2022-10-26 10:34:08.546875
1408,8.23,2022-10-26 10:34:08.562500
1409,2.84,2022-10-26 10:34:08.578125
1410,-2.74,2022-10-26 10:34:08.593750
1411,-8.1,2022-10-26 10:34:08.609375
1412,-12.98,2022-10-26 10:34:08.625000
1413,-17.38,2022-10-26 10:34:08.640625
1414,-21.5,2022-10-26 10:34:08.656250
1415,-25.68,2022-10-26 10:34:08.671875
1416,-30.26,2022-10-26 10:34:08.687500
1417,-35.47,2022-10-26 10:34:08.703125
1418,-41.47,2022-10-26 10:34:08.718750
1419,-48.13,2022-10-26 10:34:08.734375
1420,-55.07,2022-10-26 10:34:08.750000
1421,-61.5,2022-10-26 10:34:08.765625
1422,-66.27,2022-10-26 10:34:08.781250
1423,-68.18,2022-10-26 10:34:08.796875
1424,-66.22,2022-10-26 10:34:08.812500
1425,-60.0,2022-10-26 10:34:08.828125
1426,-50.0,2022-10-26 10:34:08.843750
1427,-37.45,2022-10-26 10:34:08.859375
1428,-23.99,2022-10-26 10:34:08.875000
1429,-11.2,2022-10-26 10:34:08.890625
1430,-0.14,2022-10-26 10:34:08.906250
1431,8.77,2022-10-26 10:34:08.921875
1432,15.66,2022-10-26 10:34:08.937500
1433,20.93,2022-10-26 10:34:08.953125
1434,24.96,2022-10-26 10:34:08.968750
1435,27.97,2022-10-26 10:34:08.984375
1436,30.04,2022-10-26 10:34:09.000000
1437,31.28,2022-10-26 10:34:09.015625
1438,31.86,2022-10-26 10:34:09.031250
1439,32.1,2022-10-26 10:34:09.046875
1440,32.32,2022-10-26 10:34:09.062500
1441,32.78,2022-10-26 10:34:09.078125
1442,33.54,2022-10-26 10:34:09.093750
1443,34.48,2022-10-26 10:34:09.109375
1444,35.37,2022-10-26 10:34:09.125000
1445,35.98,2022-10-26 10:34:09.140625
1446,36.17,2022-10-26 10:34:09.156250
1447,35.9,2022-10-26 10:34:09.171875
1448,35.2,2022-10-26 10:34:09.187500
1449,34.09,2022-10-26 10:34:09.203125
1450,32.58,2022-10-26 10:34:09.218750
1451,30.66,2022-10-26 10:34:09.234375
1452,28.33,2022-10-26 10:34:09.250000
1453,25.54,2022-10-26 10:34:09.265625
1454,22.26,2022-10-26 10:34:09.281250
1455,18.45,2022-10-26 10:34:09.296875
1456,14.06,2022-10-26 10:34:09.312500
1457,9.17,2022-10-26 10:34:09.328125
1458,3.93,2022-10-26 10:34:09.343750
1459,-1.41,2022-10-26 10:34:09.359375
1460,-6.55,2022-10-26 10:34:09.375000
1461,-11.27,2022-10-26 10:34:09.390625
1462,-15.48,2022-10-26 10:34:09.406250
1463,-19.24,2022-10-26 10:34:09.421875
1464,-22.78,2022-10-26 10:34:09.437500
1465,-26.47,2022-10-26 10:34:09.453125
1466,-30.72,2022-10-26 10:34:09.468750
1467,-35.95,2022-10-26 10:34:09.484375
1468,-42.4,2022-10-26 10:34:09.500000
1469,-49.86,2022-10-26 10:34:09.515625
1470,-57.59,2022-10-26 10:34:09.531250
1471,-64.27,2022-10-26 10:34:09.546875
1472,-68.33,2022-10-26 10:34:09.562500
1473,-68.38,2022-10-26 10:34:09.578125
1474,-63.78,2022-10-26 10:34:09.593750
1475,-54.88,2022-10-26 10:34:09.609375
1476,-42.94,2022-10-26 10:34:09.625000
1477,-29.7,2022-10-26 10:34:09.640625
1478,-16.86,2022-10-26 10:34:09.656250
1479,-5.63,2022-10-26 10:34:09.671875
1480,3.49,2022-10-26 10:34:09.687500
1481,10.51,2022-10-26 10:34:09.703125
1482,15.77,2022-10-26 10:34:09.718750
1483,19.63,2022-10-26 10:34:09.734375
1484,22.35,2022-10-26 10:34:09.750000
1485,24.08,2022-10-26 10:34:09.765625
1486,25.01,2022-10-26 10:34:09.781250
1487,25.39,2022-10-26 10:34:09.796875
1488,25.51,2022-10-26 10:34:09.812500
1489,25.64,2022-10-26 10:34:09.828125
1490,25.94,2022-10-26 10:34:09.843750
1491,26.38,2022-10-26 10:34:09.859375
1492,26.82,2022-10-26 10:34:09.875000
1493,27.08,2022-10-26 10:34:09.890625
1494,27.07,2022-10-26 10:34:09.906250
1495,26.8,2022-10-26 10:34:09.921875
1496,26.4,2022-10-26 10:34:09.937500
1497,26.01,2022-10-26 10:34:09.953125
1498,25.68,2022-10-26 10:34:09.968750
1499,25.31,2022-10-26 10:34:09.984375
1500,24.62,2022-10-26 10:34:10.000000
1501,23.26,2022-10-26 10:34:10.015625
1502,20.92,2022-10-26 10:34:10.031250
1503,17.47,2022-10-26 10:34:10.046875
1504,13.04,2022-10-26 10:34:10.062500
1505,8.02,2022-10-26 10:34:10.078125
1506,2.89,2022-10-26 10:34:10.093750
1507,-1.88,2022-10-26 10:34:10.109375
1508,-6.01,2022-10-26 10:34:10.125000
1509,-9.52,2022-10-26 10:34:10.140625
1510,-12.65,2022-10-26 10:34:10.156250
1511,-15.8,2022-10-26 10:34:10.171875
1512,-19.41,2022-10-26 10:34:10.187500
1513,-23.86,2022-10-26 10:34:10.203125
1514,-29.29,2022-10-26 10:34:10.218750
1515,-35.53,2022-10-26 10:34:10.234375
1516,-41.96,2022-10-26 10:34:10.250000
1517,-47.51,2022-10-26 10:34:10.265625
1518,-50.89,2022-10-26 10:34:10.281250
1519,-50.91,2022-10-26 10:34:10.296875
1520,-46.97,2022-10-26 10:34:10.312500
1521,-39.29,2022-10-26 10:34:10.328125
1522,-28.92,2022-10-26 10:34:10.343750
1523,-17.36,2022-10-26 10:34:10.359375
1524,-6.09,2022-10-26 10:34:10.375000
1525,3.81,2022-10-26 10:34:10.390625
1526,11.83,2022-10-26 10:34:10.406250
1527,17.92,2022-10-26 10:34:10.421875
1528,22.25,2022-10-26 10:34:10.437500
1529,25.03,2022-10-26 10:34:10.453125
1530,26.44,2022-10-26 10:34:10.468750
1531,26.69,2022-10-26 10:34:10.484375
1532,26.12,2022-10-26 10:34:10.500000
1533,25.21,2022-10-26 10:34:10.515625
1534,24.4,2022-10-26 10:34:10.531250
1535,23.96,2022-10-26 10:34:10.546875
1536,23.87,2022-10-26 10:34:10.562500
1537,23.93,2022-10-26 10:34:10.578125
1538,23.81,2022-10-26 10:34:10.593750
1539,23.32,2022-10-26 10:34:10.609375
1540,22.52,2022-10-26 10:34:10.625000
1541,21.56,2022-10-26 10:34:10.640625
1542,20.7,2022-10-26 10:34:10.656250
1543,20.06,2022-10-26 10:34:10.671875
1544,19.52,2022-10-26 10:34:10.687500
1545,18.8,2022-10-26 10:34:10.703125
1546,17.53,2022-10-26 10:34:10.718750
1547,15.48,2022-10-26 10:34:10.734375
1548,12.58,2022-10-26 10:34:10.750000
1549,9.02,2022-10-26 10:34:10.765625
1550,5.08,2022-10-26 10:34:10.781250
1551,1.05,2022-10-26 10:34:10.796875
1552,-2.92,2022-10-26 10:34:10.812500
1553,-6.8,2022-10-26 10:34:10.828125
1554,-10.71,2022-10-26 10:34:10.843750
1555,-14.89,2022-10-26 10:34:10.859375
1556,-19.59,2022-10-26 10:34:10.875000
1557,-25.06,2022-10-26 10:34:10.890625
1558,-31.43,2022-10-26 10:34:10.906250
1559,-38.61,2022-10-26 10:34:10.921875
1560,-46.07,2022-10-26 10:34:10.937500
1561,-52.84,2022-10-26 10:34:10.953125
1562,-57.65,2022-10-26 10:34:10.968750
1563,-59.21,2022-10-26 10:34:10.984375
1564,-56.69,2022-10-26 10:34:11.000000
1565,-49.97,2022-10-26 10:34:11.015625
1566,-39.79,2022-10-26 10:34:11.031250
1567,-27.55,2022-10-26 10:34:11.046875
1568,-14.88,2022-10-26 10:34:11.062500
1569,-3.18,2022-10-26 10:34:11.078125
1570,6.69,2022-10-26 10:34:11.093750
1571,14.49,2022-10-26 10:34:11.109375
1572,20.48,2022-10-26 10:34:11.125000
1573,25.06,2022-10-26 10:34:11.140625
1574,28.57,2022-10-26 10:34:11.156250
1575,31.14,2022-10-26 10:34:11.171875
1576,32.8,2022-10-26 10:34:11.187500
1577,33.55,2022-10-26 10:34:11.203125
1578,33.5,2022-10-26 10:34:11.218750
1579,32.94,2022-10-26 10:34:11.234375
1580,32.2,2022-10-26 10:34:11.250000
1581,31.6,2022-10-26 10:34:11.265625
1582,31.27,2022-10-26 10:34:11.281250
1583,31.14,2022-10-26 10:34:11.296875
1584,30.95,2022-10-26 10:34:11.312500
1585,30.44,2022-10-26 10:34:11.328125
1586,29.42,2022-10-26 10:34:11.343750
1587,27.88,2022-10-26 10:34:11.359375
1588,25.99,2022-10-26 10:34:11.375000
1589,23.99,2022-10-26 10:34:11.390625
1590,22.08,2022-10-26 10:34:11.406250
1591,20.27,2022-10-26 10:34:11.421875
1592,18.36,2022-10-26 10:34:11.437500
1593,15.99,2022-10-26 10:34:11.453125
1594,12.79,2022-10-26 10:34:11.468750
1595,8.62,2022-10-26 10:34:11.484375
1596,3.65,2022-10-26 10:34:11.500000
1597,-1.68,2022-10-26 10:34:11.515625
1598,-6.84,2022-10-26 10:34:11.531250
1599,-11.49,2022-10-26 10:34:11.546875
1600,-15.57,2022-10-26 10:34:11.562500
1601,-19.3,2022-10-26 10:34:11.578125
1602,-23.03,2022-10-26 10:34:11.593750
1603,-27.12,2022-10-26 10:34:11.609375
1604,-31.8,2022-10-26 10:34:11.625000
1605,-37.23,2022-10-26 10:34:11.640625
1606,-43.46,2022-10-26 10:34:11.656250
1607,-50.36,2022-10-26 10:34:11.671875
1608,-57.44,2022-10-26 10:34:11.687500
1609,-63.75,2022-10-26 10:34:11.703125
1610,-67.96,2022-10-26 10:34:11.718750
1611,-68.73,2022-10-26 10:34:11.734375
1612,-65.16,2022-10-26 10:34:11.750000
1613,-57.28,2022-10-26 10:34:11.765625
1614,-46.04,2022-10-26 10:34:11.781250
1615,-33.06,2022-10-26 10:34:11.796875
1616,-20.08,2022-10-26 10:34:11.812500
1617,-8.41,2022-10-26 10:34:11.828125
1618,1.32,2022-10-26 10:34:11.843750
1619,9.09,2022-10-26 10:34:11.859375
1620,15.23,2022-10-26 10:34:11.875000
1621,20.13,2022-10-26 10:34:11.890625
1622,24.06,2022-10-26 10:34:11.906250
1623,27.15,2022-10-26 10:34:11.921875
1624,29.48,2022-10-26 10:34:11.937500
1625,31.14,2022-10-26 10:34:11.953125
1626,32.23,2022-10-26 10:34:11.968750
1627,32.88,2022-10-26 10:34:11.984375
1628,33.23,2022-10-26 10:34:12.000000
1629,33.38,2022-10-26 10:34:12.015625
1630,33.47,2022-10-26 10:34:12.031250
1631,33.59,2022-10-26 10:34:12.046875
1632,33.74,2022-10-26 10:34:12.062500
1633,33.85,2022-10-26 10:34:12.078125
1634,33.8,2022-10-26 10:34:12.093750
1635,33.44,2022-10-26 10:34:12.109375
1636,32.7,2022-10-26 10:34:12.125000
1637,31.53,2022-10-26 10:34:12.140625
1638,29.96,2022-10-26 10:34:12.156250
1639,27.97,2022-10-26 10:34:12.171875
1640,25.56,2022-10-26 10:34:12.187500
1641,22.67,2022-10-26 10:34:12.203125
1642,19.23,2022-10-26 10:34:12.218750
1643,15.22,2022-10-26 10:34:12.234375
1644,10.65,2022-10-26 10:34:12.250000
1645,5.66,2022-10-26 10:34:12.265625
1646,0.48,2022-10-26 10:34:12.281250
1647,-4.66,2022-10-26 10:34:12.296875
1648,-9.49,2022-10-26 10:34:12.312500
1649,-13.84,2022-10-26 10:34:12.328125
1650,-17.68,2022-10-26 10:34:12.343750
1651,-21.18,2022-10-26 10:34:12.359375
1652,-24.65,2022-10-26 10:34:12.375000
1653,-28.51,2022-10-26 10:34:12.390625
1654,-33.2,2022-10-26 10:34:12.406250
1655,-39.02,2022-10-26 10:34:12.421875
1656,-45.96,2022-10-26 10:34:12.437500
1657,-53.48,2022-10-26 10:34:12.453125
1658,-60.5,2022-10-26 10:34:12.468750
1659,-65.6,2022-10-26 10:34:12.484375
1660,-67.33,2022-10-26 10:34:12.500000
1661,-64.76,2022-10-26 10:34:12.515625
1662,-57.79,2022-10-26 10:34:12.531250
1663,-47.25,2022-10-26 10:34:12.546875
1664,-34.6,2022-10-26 10:34:12.562500
1665,-21.52,2022-10-26 10:34:12.578125
1666,-9.43,2022-10-26 10:34:12.593750
1667,0.77,2022-10-26 10:34:12.609375
1668,8.75,2022-10-26 10:34:12.625000
1669,14.64,2022-10-26 10:34:12.640625
1670,18.8,2022-10-26 10:34:12.656250
1671,21.66,2022-10-26 10:34:12.671875
1672,23.58,2022-10-26 10:34:12.687500
1673,24.85,2022-10-26 10:34:12.703125
1674,25.69,2022-10-26 10:34:12.718750
1675,26.24,2022-10-26 10:34:12.734375
1676,26.63,2022-10-26 10:34:12.750000
1677,26.93,2022-10-26 10:34:12.765625
1678,27.18,2022-10-26 10:34:12.781250
1679,27.35,2022-10-26 10:34:12.796875
1680,27.34,2022-10-26 10:34:12.812500
1681,27.08,2022-10-26 10:34:12.828125
1682,26.54,2022-10-26 10:34:12.843750
1683,25.79,2022-10-26 10:34:12.859375
1684,25.01,2022-10-26 10:34:12.875000
1685,24.31,2022-10-26 10:34:12.890625
1686,23.7,2022-10-26 10:34:12.906250
1687,23.02,2022-10-26 10:34:12.921875
1688,21.97,2022-10-26 10:34:12.937500
1689,20.26,2022-10-26 10:34:12.953125
1690,17.66,2022-10-26 10:34:12.968750
1691,14.12,2022-10-26 10:34:12.984375
1692,9.76,2022-10-26 10:34:13.000000
1693,4.84,2022-10-26 10:34:13.015625
1694,-0.26,2022-10-26 10:34:13.031250
1695,-5.12,2022-10-26 10:34:13.046875
1696,-9.44,2022-10-26 10:34:13.062500
1697,-13.11,2022-10-26 10:34:13.078125
1698,-16.29,2022-10-26 10:34:13.093750
1699,-19.4,2022-10-26 10:34:13.109375
1700,-22.99,2022-10-26 10:34:13.125000
1701,-27.59,2022-10-26 10:34:13.140625
1702,-33.4,2022-10-26 10:34:13.156250
1703,-40.16,2022-10-26 10:34:13.171875
1704,-47.07,2022-10-26 10:34:13.187500
1705,-52.89,2022-10-26 10:34:13.203125
1706,-56.21,2022-10-26 10:34:13.218750
1707,-55.89,2022-10-26 10:34:13.234375
1708,-51.38,2022-10-26 10:34:13.250000
1709,-43.0,2022-10-26 10:34:13.265625
1710,-31.88,2022-10-26 10:34:13.281250
1711,-19.55,2022-10-26 10:34:13.296875
1712,-7.56,2022-10-26 10:34:13.312500
1713,3.0,2022-10-26 10:34:13.328125
1714,11.62,2022-10-26 10:34:13.343750
1715,18.28,2022-10-26 10:34:13.359375
1716,23.24,2022-10-26 10:34:13.375000
1717,26.77,2022-10-26 10:34:13.390625
1718,29.03,2022-10-26 10:34:13.406250
1719,30.19,2022-10-26 10:34:13.421875
1720,30.49,2022-10-26 10:34:13.437500
1721,30.3,2022-10-26 10:34:13.453125
1722,30.01,2022-10-26 10:34:13.468750
1723,29.94,2022-10-26 10:34:13.484375
1724,30.15,2022-10-26 10:34:13.500000
1725,30.51,2022-10-26 10:34:13.515625
1726,30.7,2022-10-26 10:34:13.531250
1727,30.48,2022-10-26 10:34:13.546875
1728,29.73,2022-10-26 10:34:13.562500
1729,28.57,2022-10-26 10:34:13.578125
1730,27.21,2022-10-26 10:34:13.593750
1731,25.84,2022-10-26 10:34:13.609375
1732,24.46,2022-10-26 10:34:13.625000
1733,22.85,2022-10-26 10:34:13.640625
1734,20.68,2022-10-26 10:34:13.656250
1735,17.6,2022-10-26 10:34:13.671875
1736,13.48,2022-10-26 10:34:13.687500
1737,8.44,2022-10-26 10:34:13.703125
1738,2.91,2022-10-26 10:34:13.718750
1739,-2.64,2022-10-26 10:34:13.734375
1740,-7.74,2022-10-26 10:34:13.750000
1741,-12.13,2022-10-26 10:34:13.765625
1742,-15.86,2022-10-26 10:34:13.781250
1743,-19.25,2022-10-26 10:34:13.796875
1744,-22.84,2022-10-26 10:34:13.812500
1745,-27.2,2022-10-26 10:34:13.828125
1746,-32.77,2022-10-26 10:34:13.843750
1747,-39.51,2022-10-26 10:34:13.859375
1748,-46.82,2022-10-26 10:34:13.875000
1749,-53.51,2022-10-26 10:34:13.890625
1750,-58.05,2022-10-26 10:34:13.906250
1751,-59.0,2022-10-26 10:34:13.921875
1752,-55.52,2022-10-26 10:34:13.937500
1753,-47.65,2022-10-26 10:34:13.953125
1754,-36.36,2022-10-26 10:34:13.968750
1755,-23.21,2022-10-26 10:34:13.984375
1756,-9.87,2022-10-26 10:34:14.000000
1757,2.28,2022-10-26 10:34:14.015625
1758,12.45,2022-10-26 10:34:14.031250
1759,20.37,2022-10-26 10:34:14.046875
1760,26.17,2022-10-26 10:34:14.062500
1761,30.16,2022-10-26 10:34:14.078125
1762,32.64,2022-10-26 10:34:14.093750
1763,33.93,2022-10-26 10:34:14.109375
1764,34.26,2022-10-26 10:34:14.125000
1765,33.9,2022-10-26 10:34:14.140625
1766,33.13,2022-10-26 10:34:14.156250
1767,32.26,2022-10-26 10:34:14.171875
1768,31.54,2022-10-26 10:34:14.187500
1769,31.12,2022-10-26 10:34:14.203125
1770,31.02,2022-10-26 10:34:14.218750
1771,31.09,2022-10-26 10:34:14.234375
1772,31.08,2022-10-26 10:34:14.250000
1773,30.73,2022-10-26 10:34:14.265625
1774,29.91,2022-10-26 10:34:14.281250
1775,28.58,2022-10-26 10:34:14.296875
1776,26.86,2022-10-26 10:34:14.312500
1777,24.88,2022-10-26 10:34:14.328125
1778,22.73,2022-10-26 10:34:14.343750
1779,20.36,2022-10-26 10:34:14.359375
1780,17.61,2022-10-26 10:34:14.375000
1781,14.29,2022-10-26 10:34:14.390625
1782,10.3,2022-10-26 10:34:14.406250
1783,5.64,2022-10-26 10:34:14.421875
1784,0.51,2022-10-26 10:34:14.437500
1785,-4.77,2022-10-26 10:34:14.453125
1786,-9.87,2022-10-26 10:34:14.468750
1787,-14.53,2022-10-26 10:34:14.484375
1788,-18.65,2022-10-26 10:34:14.500000
1789,-22.37,2022-10-26 10:34:14.515625
1790,-26.06,2022-10-26 10:34:14.531250
1791,-30.21,2022-10-26 10:34:14.546875
1792,-35.3,2022-10-26 10:34:14.562500
1793,-41.62,2022-10-26 10:34:14.578125
1794,-49.05,2022-10-26 10:34:14.593750
1795,-56.93,2022-10-26 10:34:14.609375
1796,-64.17,2022-10-26 10:34:14.625000
1797,-69.35,2022-10-26 10:34:14.640625
1798,-71.22,2022-10-26 10:34:14.656250
1799,-68.94,2022-10-26 10:34:14.671875
1800,-62.36,2022-10-26 10:34:14.687500
1801,-52.09,2022-10-26 10:34:14.703125
1802,-39.27,2022-10-26 10:34:14.718750
1803,-25.38,2022-10-26 10:34:14.734375
1804,-11.81,2022-10-26 10:34:14.750000
1805,0.35,2022-10-26 10:34:14.765625
1806,10.47,2022-10-26 10:34:14.781250
1807,18.4,2022-10-26 10:34:14.796875
1808,24.36,2022-10-26 10:34:14.812500
1809,28.76,2022-10-26 10:34:14.828125
1810,32.05,2022-10-26 10:34:14.843750
1811,34.6,2022-10-26 10:34:14.859375
1812,36.63,2022-10-26 10:34:14.875000
1813,38.27,2022-10-26 10:34:14.890625
1814,39.57,2022-10-26 10:34:14.906250
1815,40.46,2022-10-26 10:34:14.921875
1816,40.87,2022-10-26 10:34:14.937500
1817,40.72,2022-10-26 10:34:14.953125
1818,39.99,2022-10-26 10:34:14.968750
1819,38.79,2022-10-26 10:34:14.984375
1820,37.35,2022-10-26 10:34:15.000000
1821,35.95,2022-10-26 10:34:15.015625
1822,34.82,2022-10-26 10:34:15.031250
1823,33.95,2022-10-26 10:34:15.046875
1824,33.13,2022-10-26 10:34:15.062500
1825,31.98,2022-10-26 10:34:15.078125
1826,30.17,2022-10-26 10:34:15.093750
1827,27.57,2022-10-26 10:34:15.109375
1828,24.25,2022-10-26 10:34:15.125000
1829,20.5,2022-10-26 10:34:15.140625
1830,16.56,2022-10-26 10:34:15.156250
1831,12.56,2022-10-26 10:34:15.171875
1832,8.44,2022-10-26 10:34:15.187500
1833,4.08,2022-10-26 10:34:15.203125
1834,-0.63,2022-10-26 10:34:15.218750
1835,-5.64,2022-10-26 10:34:15.234375
1836,-10.72,2022-10-26 10:34:15.250000
1837,-15.59,2022-10-26 10:34:15.265625
1838,-20.01,2022-10-26 10:34:15.281250
1839,-23.94,2022-10-26 10:34:15.296875
1840,-27.6,2022-10-26 10:34:15.312500
1841,-31.35,2022-10-26 10:34:15.328125
1842,-35.67,2022-10-26 10:34:15.343750
1843,-41.01,2022-10-26 10:34:15.359375
1844,-47.55,2022-10-26 10:34:15.375000
1845,-55.13,2022-10-26 10:34:15.390625
1846,-63.05,2022-10-26 10:34:15.406250
1847,-70.1,2022-10-26 10:34:15.421875
1848,-74.77,2022-10-26 10:34:15.437500
1849,-75.54,2022-10-26 10:34:15.453125
1850,-71.41,2022-10-26 10:34:15.468750
1851,-62.31,2022-10-26 10:34:15.484375
1852,-49.2,2022-10-26 10:34:15.500000
1853,-33.85,2022-10-26 10:34:15.515625
1854,-18.35,2022-10-26 10:34:15.531250
1855,-4.47,2022-10-26 10:34:15.546875
1856,6.7,2022-10-26 10:34:15.562500
1857,14.89,2022-10-26 10:34:15.578125
1858,20.49,2022-10-26 10:34:15.593750
1859,24.16,2022-10-26 10:34:15.609375
1860,26.54,2022-10-26 10:34:15.625000
1861,28.1,2022-10-26 10:34:15.640625
1862,29.11,2022-10-26 10:34:15.656250
1863,29.75,2022-10-26 10:34:15.671875
1864,30.23,2022-10-26 10:34:15.687500
1865,30.83,2022-10-26 10:34:15.703125
1866,31.8,2022-10-26 10:34:15.718750
1867,33.27,2022-10-26 10:34:15.734375
1868,35.13,2022-10-26 10:34:15.750000
1869,37.04,2022-10-26 10:34:15.765625
1870,38.52,2022-10-26 10:34:15.781250
1871,39.16,2022-10-26 10:34:15.796875
1872,38.78,2022-10-26 10:34:15.812500
1873,37.52,2022-10-26 10:34:15.828125
1874,35.72,2022-10-26 10:34:15.843750
1875,33.78,2022-10-26 10:34:15.859375
1876,31.98,2022-10-26 10:34:15.875000
1877,30.31,2022-10-26 10:34:15.890625
1878,28.55,2022-10-26 10:34:15.906250
1879,26.38,2022-10-26 10:34:15.921875
1880,23.5,2022-10-26 10:34:15.937500
1881,19.79,2022-10-26 10:34:15.953125
1882,15.33,2022-10-26 10:34:15.968750
1883,10.31,2022-10-26 10:34:15.984375
1884,4.93,2022-10-26 10:34:16.000000
1885,-0.6,2022-10-26 10:34:16.015625
1886,-6.12,2022-10-26 10:34:16.031250
1887,-11.49,2022-10-26 10:34:16.046875
1888,-16.53,2022-10-26 10:34:16.062500
1889,-21.12,2022-10-26 10:34:16.078125
1890,-25.23,2022-10-26 10:34:16.093750
1891,-28.99,2022-10-26 10:34:16.109375
1892,-32.74,2022-10-26 10:34:16.125000
1893,-36.93,2022-10-26 10:34:16.140625
1894,-41.91,2022-10-26 10:34:16.156250
1895,-47.69,2022-10-26 10:34:16.171875
1896,-53.76,2022-10-26 10:34:16.187500
1897,-59.02,2022-10-26 10:34:16.203125
1898,-62.1,2022-10-26 10:34:16.218750
1899,-61.72,2022-10-26 10:34:16.234375
1900,-57.17,2022-10-26 10:34:16.250000
1901,-48.6,2022-10-26 10:34:16.265625
1902,-37.01,2022-10-26 10:34:16.281250
1903,-23.92,2022-10-26 10:34:16.296875
1904,-10.96,2022-10-26 10:34:16.312500
1905,0.65,2022-10-26 10:34:16.328125
1906,10.28,2022-10-26 10:34:16.343750
1907,17.79,2022-10-26 10:34:16.359375
1908,23.33,2022-10-26 10:34:16.375000
1909,27.09,2022-10-26 10:34:16.390625
1910,29.23,2022-10-26 10:34:16.406250
1911,29.95,2022-10-26 10:34:16.421875
1912,29.6,2022-10-26 10:34:16.437500
1913,28.71,2022-10-26 10:34:16.453125
1914,27.84,2022-10-26 10:34:16.468750
1915,27.38,2022-10-26 10:34:16.484375
1916,27.4,2022-10-26 10:34:16.500000
1917,27.64,2022-10-26 10:34:16.515625
1918,27.69,2022-10-26 10:34:16.531250
1919,27.27,2022-10-26 10:34:16.546875
1920,26.36,2022-10-26 10:34:16.562500
1921,25.14,2022-10-26 10:34:16.578125
1922,23.86,2022-10-26 10:34:16.593750
1923,22.62,2022-10-26 10:34:16.609375
1924,21.26,2022-10-26 10:34:16.625000
1925,19.44,2022-10-26 10:34:16.640625
1926,16.75,2022-10-26 10:34:16.656250
1927,12.96,2022-10-26 10:34:16.671875
1928,8.13,2022-10-26 10:34:16.687500
1929,2.58,2022-10-26 10:34:16.703125
1930,-3.2,2022-10-26 10:34:16.718750
1931,-8.77,2022-10-26 10:34:16.734375
1932,-13.86,2022-10-26 10:34:16.750000
1933,-18.45,2022-10-26 10:34:16.765625
1934,-22.74,2022-10-26 10:34:16.781250
1935,-27.1,2022-10-26 10:34:16.796875
1936,-31.93,2022-10-26 10:34:16.812500
1937,-37.51,2022-10-26 10:34:16.828125
1938,-43.82,2022-10-26 10:34:16.843750
1939,-50.38,2022-10-26 10:34:16.859375
1940,-56.31,2022-10-26 10:34:16.875000
1941,-60.38,2022-10-26 10:34:16.890625
1942,-61.39,2022-10-26 10:34:16.906250
1943,-58.5,2022-10-26 10:34:16.921875
1944,-51.56,2022-10-26 10:34:16.937500
1945,-41.21,2022-10-26 10:34:16.953125
1946,-28.74,2022-10-26 10:34:16.968750
1947,-15.73,2022-10-26 10:34:16.984375
1948,-3.61,2022-10-26 10:34:17.000000
1949,6.59,2022-10-26 10:34:17.015625
1950,14.41,2022-10-26 10:34:17.031250
1951,19.88,2022-10-26 10:34:17.046875
1952,23.32,2022-10-26 10:34:17.062500
1953,25.25,2022-10-26 10:34:17.078125
1954,26.18,2022-10-26 10:34:17.093750
1955,26.57,2022-10-26 10:34:17.109375
1956,26.77,2022-10-26 10:34:17.125000
1957,27.01,2022-10-26 10:34:17.140625
1958,27.39,2022-10-26 10:34:17.156250
1959,27.9,2022-10-26 10:34:17.171875
1960,28.44,2022-10-26 10:34:17.187500
1961,28.91,2022-10-26 10:34:17.203125
1962,29.2,2022-10-26 10:34:17.218750
1963,29.27,2022-10-26 10:34:17.234375
1964,29.13,2022-10-26 10:34:17.250000
1965,28.77,2022-10-26 10:34:17.265625
1966,28.2,2022-10-26 10:34:17.281250
1967,27.33,2022-10-26 10:34:17.296875
1968,25.99,2022-10-26 10:34:17.312500
1969,23.99,2022-10-26 10:34:17.328125
1970,21.12,2022-10-26 10:34:17.343750
1971,17.27,2022-10-26 10:34:17.359375
1972,12.48,2022-10-26 10:34:17.375000
1973,6.97,2022-10-26 10:34:17.390625
1974,1.09,2022-10-26 10:34:17.406250
1975,-4.78,2022-10-26 10:34:17.421875
1976,-10.34,2022-10-26 10:34:17.437500
1977,-15.48,2022-10-26 10:34:17.453125
1978,-20.35,2022-10-26 10:34:17.468750
1979,-25.35,2022-10-26 10:34:17.484375
1980,-30.92,2022-10-26 10:34:17.500000
1981,-37.37,2022-10-26 10:34:17.515625
1982,-44.58,2022-10-26 10:34:17.531250
1983,-51.87,2022-10-26 10:34:17.546875
1984,-57.97,2022-10-26 10:34:17.562500
1985,-61.37,2022-10-26 10:34:17.578125
1986,-60.72,2022-10-26 10:34:17.593750
1987,-55.38,2022-10-26 10:34:17.609375
1988,-45.68,2022-10-26 10:34:17.625000
1989,-32.85,2022-10-26 10:34:17.640625
1990,-18.69,2022-10-26 10:34:17.656250
1991,-5.0,2022-10-26 10:34:17.671875
1992,6.9,2022-10-26 10:34:17.687500
1993,16.32,2022-10-26 10:34:17.703125
1994,23.2,2022-10-26 10:34:17.718750
1995,27.88,2022-10-26 10:34:17.734375
1996,30.82,2022-10-26 10:34:17.750000
1997,32.48,2022-10-26 10:34:17.765625
1998,33.25,2022-10-26 10:34:17.781250
1999,33.46,2022-10-26 10:34:17.796875
2000,33.36,2022-10-26 10:34:17.812500
2001,33.11,2022-10-26 10:34:17.828125
2002,32.86,2022-10-26 10:34:17.843750
2003,32.6,2022-10-26 10:34:17.859375
2004,32.27,2022-10-26 10:34:17.875000
2005,31.74,2022-10-26 10:34:17.890625
2006,30.87,2022-10-26 10:34:17.906250
2007,29.58,2022-10-26 10:34:17.921875
2008,27.89,2022-10-26 10:34:17.937500
2009,25.98,2022-10-26 10:34:17.953125
2010,24.06,2022-10-26 10:34:17.968750
2011,22.32,2022-10-26 10:34:17.984375
2012,20.74,2022-10-26 10:34:18.000000
2013,19.04,2022-10-26 10:34:18.015625
2014,16.82,2022-10-26 10:34:18.031250
2015,13.68,2022-10-26 10:34:18.046875
2016,9.48,2022-10-26 10:34:18.062500
2017,4.36,2022-10-26 10:34:18.078125
2018,-1.2,2022-10-26 10:34:18.093750
2019,-6.68,2022-10-26 10:34:18.109375
2020,-11.66,2022-10-26 10:34:18.125000
2021,-16.06,2022-10-26 10:34:18.140625
2022,-20.13,2022-10-26 10:34:18.156250
2023,-24.4,2022-10-26 10:34:18.171875
2024,-29.46,2022-10-26 10:34:18.187500
2025,-35.71,2022-10-26 10:34:18.203125
2026,-43.12,2022-10-26 10:34:18.218750
2027,-51.09,2022-10-26 10:34:18.234375
2028,-58.49,2022-10-26 10:34:18.250000
2029,-63.87,2022-10-26 10:34:18.265625
2030,-65.83,2022-10-26 10:34:18.281250
2031,-63.44,2022-10-26 10:34:18.296875
2032,-56.59,2022-10-26 10:34:18.312500
2033,-46.01,2022-10-26 10:34:18.328125
2034,-33.07,2022-10-26 10:34:18.343750
2035,-19.4,2022-10-26 10:34:18.359375
2036,-6.39,2022-10-26 10:34:18.375000
2037,5.0,2022-10-26 10:34:18.390625
2038,14.37,2022-10-26 10:34:18.406250
2039,21.71,2022-10-26 10:34:18.421875
2040,27.25,2022-10-26 10:34:18.437500
2041,31.28,2022-10-26 10:34:18.453125
2042,34.09,2022-10-26 10:34:18.468750
2043,35.95,2022-10-26 10:34:18.484375
2044,37.11,2022-10-26 10:34:18.500000
2045,37.78,2022-10-26 10:34:18.515625
2046,38.09,2022-10-26 10:34:18.531250
2047,38.08,2022-10-26 10:34:18.546875
2048,37.73,2022-10-26 10:34:18.562500
2049,36.98,2022-10-26 10:34:18.578125
2050,35.82,2022-10-26 10:34:18.593750
2051,34.28,2022-10-26 10:34:18.609375
2052,32.45,2022-10-26 10:34:18.625000
2053,30.43,2022-10-26 10:34:18.640625
2054,28.32,2022-10-26 10:34:18.656250
2055,26.2,2022-10-26 10:34:18.671875
2056,24.05,2022-10-26 10:34:18.687500
2057,21.77,2022-10-26 10:34:18.703125
2058,19.16,2022-10-26 10:34:18.718750
2059,15.96,2022-10-26 10:34:18.734375
2060,11.97,2022-10-26 10:34:18.750000
2061,7.13,2022-10-26 10:34:18.765625
2062,1.68,2022-10-26 10:34:18.781250
2063,-4.0,2022-10-26 10:34:18.796875
2064,-9.43,2022-10-26 10:34:18.812500
2065,-14.33,2022-10-26 10:34:18.828125
2066,-18.69,2022-10-26 10:34:18.843750
2067,-22.85,2022-10-26 10:34:18.859375
2068,-27.22,2022-10-26 10:34:18.875000
2069,-32.24,2022-10-26 10:34:18.890625
2070,-38.11,2022-10-26 10:34:18.906250
2071,-44.77,2022-10-26 10:34:18.921875
2072,-51.84,2022-10-26 10:34:18.937500
2073,-58.66,2022-10-26 10:34:18.953125
2074,-64.29,2022-10-26 10:34:18.968750
2075,-67.61,2022-10-26 10:34:18.984375
2076,-67.57,2022-10-26 10:34:19.000000
2077,-63.46,2022-10-26 10:34:19.015625
2078,-55.29,2022-10-26 10:34:19.031250
2079,-43.86,2022-10-26 10:34:19.046875
2080,-30.57,2022-10-26 10:34:19.062500
2081,-17.03,2022-10-26 10:34:19.078125
2082,-4.59,2022-10-26 10:34:19.093750
2083,5.97,2022-10-26 10:34:19.109375
2084,14.48,2022-10-26 10:34:19.125000
2085,21.08,2022-10-26 10:34:19.140625
2086,26.06,2022-10-26 10:34:19.156250
2087,29.64,2022-10-26 10:34:19.171875
2088,31.96,2022-10-26 10:34:19.187500
2089,33.24,2022-10-26 10:34:19.203125
2090,33.76,2022-10-26 10:34:19.218750
2091,33.81,2022-10-26 10:34:19.234375
2092,33.6,2022-10-26 10:34:19.250000
2093,33.16,2022-10-26 10:34:19.265625
2094,32.39,2022-10-26 10:34:19.281250
2095,31.22,2022-10-26 10:34:19.296875
2096,29.69,2022-10-26 10:34:19.312500
2097,27.98,2022-10-26 10:34:19.328125
2098,26.36,2022-10-26 10:34:19.343750
2099,24.95,2022-10-26 10:34:19.359375
2100,23.7,2022-10-26 10:34:19.375000
2101,22.31,2022-10-26 10:34:19.390625
2102,20.42,2022-10-26 10:34:19.406250
2103,17.71,2022-10-26 10:34:19.421875
2104,14.1,2022-10-26 10:34:19.437500
2105,9.79,2022-10-26 10:34:19.453125
2106,5.16,2022-10-26 10:34:19.468750
2107,0.64,2022-10-26 10:34:19.484375
2108,-3.48,2022-10-26 10:34:19.500000
2109,-7.15,2022-10-26 10:34:19.515625
2110,-10.59,2022-10-26 10:34:19.531250
2111,-14.21,2022-10-26 10:34:19.546875
2112,-18.51,2022-10-26 10:34:19.562500
2113,-23.88,2022-10-26 10:34:19.578125
2114,-30.39,2022-10-26 10:34:19.593750
2115,-37.72,2022-10-26 10:34:19.609375
2116,-45.04,2022-10-26 10:34:19.625000
2117,-51.13,2022-10-26 10:34:19.640625
2118,-54.65,2022-10-26 10:34:19.656250
2119,-54.49,2022-10-26 10:34:19.671875
2120,-50.16,2022-10-26 10:34:19.687500
2121,-41.92,2022-10-26 10:34:19.703125
2122,-30.78,2022-10-26 10:34:19.718750
2123,-18.23,2022-10-26 10:34:19.734375
2124,-5.79,2022-10-26 10:34:19.750000
2125,5.32,2022-10-26 10:34:19.765625
2126,14.34,2022-10-26 10:34:19.781250
2127,21.02,2022-10-26 10:34:19.796875
2128,25.5,2022-10-26 10:34:19.812500
2129,28.14,2022-10-26 10:34:19.828125
2130,29.42,2022-10-26 10:34:19.843750
2131,29.8,2022-10-26 10:34:19.859375
2132,29.68,2022-10-26 10:34:19.875000
2133,29.33,2022-10-26 10:34:19.890625
2134,28.92,2022-10-26 10:34:19.906250
2135,28.48,2022-10-26 10:34:19.921875
2136,28.05,2022-10-26 10:34:19.937500
2137,27.63,2022-10-26 10:34:19.953125
2138,27.29,2022-10-26 10:34:19.968750
2139,27.12,2022-10-26 10:34:19.984375
2140,27.15,2022-10-26 10:34:20.000000
2141,27.31,2022-10-26 10:34:20.015625
2142,27.42,2022-10-26 10:34:20.031250
2143,27.16,2022-10-26 10:34:20.046875
2144,26.2,2022-10-26 10:34:20.062500
2145,24.22,2022-10-26 10:34:20.078125
2146,21.03,2022-10-26 10:34:20.093750
2147,16.58,2022-10-26 10:34:20.109375
2148,11.02,2022-10-26 10:34:20.125000
2149,4.67,2022-10-26 10:34:20.140625
2150,-1.99,2022-10-26 10:34:20.156250
2151,-8.45,2022-10-26 10:34:20.171875
2152,-14.34,2022-10-26 10:34:20.187500
2153,-19.57,2022-10-26 10:34:20.203125
2154,-24.43,2022-10-26 10:34:20.218750
2155,-29.52,2022-10-26 10:34:20.234375
2156,-35.43,2022-10-26 10:34:20.250000
2157,-42.41,2022-10-26 10:34:20.265625
2158,-50.05,2022-10-26 10:34:20.281250
2159,-57.22,2022-10-26 10:34:20.296875
2160,-62.34,2022-10-26 10:34:20.312500
2161,-63.9,2022-10-26 10:34:20.328125
2162,-60.92,2022-10-26 10:34:20.343750
2163,-53.4,2022-10-26 10:34:20.359375
2164,-42.23,2022-10-26 10:34:20.375000
2165,-28.95,2022-10-26 10:34:20.390625
2166,-15.21,2022-10-26 10:34:20.406250
2167,-2.41,2022-10-26 10:34:20.421875
2168,8.63,2022-10-26 10:34:20.437500
2169,17.61,2022-10-26 10:34:20.453125
2170,24.61,2022-10-26 10:34:20.468750
2171,29.92,2022-10-26 10:34:20.484375
2172,33.79,2022-10-26 10:34:20.500000
2173,36.44,2022-10-26 10:34:20.515625
2174,38.06,2022-10-26 10:34:20.531250
2175,38.86,2022-10-26 10:34:20.546875
2176,39.1,2022-10-26 10:34:20.562500
2177,39.05,2022-10-26 10:34:20.578125
2178,38.9,2022-10-26 10:34:20.593750
2179,38.7,2022-10-26 10:34:20.609375
2180,38.36,2022-10-26 10:34:20.625000
2181,37.73,2022-10-26 10:34:20.640625
2182,36.68,2022-10-26 10:34:20.656250
2183,35.25,2022-10-26 10:34:20.671875
2184,33.62,2022-10-26 10:34:20.687500
2185,32.01,2022-10-26 10:34:20.703125
2186,30.59,2022-10-26 10:34:20.718750
2187,29.35,2022-10-26 10:34:20.734375
2188,28.07,2022-10-26 10:34:20.750000
2189,26.41,2022-10-26 10:34:20.765625
2190,24.0,2022-10-26 10:34:20.781250
2191,20.63,2022-10-26 10:34:20.796875
2192,16.31,2022-10-26 10:34:20.812500
2193,11.27,2022-10-26 10:34:20.828125
2194,5.84,2022-10-26 10:34:20.843750
2195,0.42,2022-10-26 10:34:20.859375
2196,-4.7,2022-10-26 10:34:20.875000
2197,-9.41,2022-10-26 10:34:20.890625
2198,-13.79,2022-10-26 10:34:20.906250
2199,-18.17,2022-10-26 10:34:20.921875
2200,-22.95,2022-10-26 10:34:20.937500
2201,-28.57,2022-10-26 10:34:20.953125
2202,-35.27,2022-10-26 10:34:20.968750
2203,-42.9,2022-10-26 10:34:20.984375
2204,-50.84,2022-10-26 10:34:21.000000
2205,-57.91,2022-10-26 10:34:21.015625
2206,-62.65,2022-10-26 10:34:21.031250
2207,-63.72,2022-10-26 10:34:21.046875
2208,-60.36,2022-10-26 10:34:21.062500
2209,-52.66,2022-10-26 10:34:21.078125
2210,-41.65,2022-10-26 10:34:21.093750
2211,-28.88,2022-10-26 10:34:21.109375
2212,-15.98,2022-10-26 10:34:21.125000
2213,-4.26,2022-10-26 10:34:21.140625
2214,5.64,2022-10-26 10:34:21.156250
2215,13.58,2022-10-26 10:34:21.171875
2216,19.77,2022-10-26 10:34:21.187500
2217,24.53,2022-10-26 10:34:21.203125
2218,28.14,2022-10-26 10:34:21.218750
2219,30.88,2022-10-26 10:34:21.234375
2220,33.01,2022-10-26 10:34:21.250000
2221,34.77,2022-10-26 10:34:21.265625
2222,36.34,2022-10-26 10:34:21.281250
2223,37.78,2022-10-26 10:34:21.296875
2224,39.02,2022-10-26 10:34:21.312500
2225,39.9,2022-10-26 10:34:21.328125
2226,40.33,2022-10-26 10:34:21.343750
2227,40.32,2022-10-26 10:34:21.359375
2228,39.98,2022-10-26 10:34:21.375000
2229,39.48,2022-10-26 10:34:21.390625
2230,38.96,2022-10-26 10:34:21.406250
2231,38.39,2022-10-26 10:34:21.421875
2232,37.65,2022-10-26 10:34:21.437500
2233,36.5,2022-10-26 10:34:21.453125
2234,34.76,2022-10-26 10:34:21.468750
2235,32.33,2022-10-26 10:34:21.484375
2236,29.24,2022-10-26 10:34:21.500000
2237,25.62,2022-10-26 10:34:21.515625
2238,21.63,2022-10-26 10:34:21.531250
2239,17.39,2022-10-26 10:34:21.546875
2240,12.99,2022-10-26 10:34:21.562500
2241,8.48,2022-10-26 10:34:21.578125
2242,3.95,2022-10-26 10:34:21.593750
2243,-0.56,2022-10-26 10:34:21.609375
2244,-5.0,2022-10-26 10:34:21.625000
2245,-9.38,2022-10-26 10:34:21.640625
2246,-13.67,2022-10-26 10:34:21.656250
2247,-17.83,2022-10-26 10:34:21.671875
2248,-21.81,2022-10-26 10:34:21.687500
2249,-25.61,2022-10-26 10:34:21.703125
2250,-29.4,2022-10-26 10:34:21.718750
2251,-33.59,2022-10-26 10:34:21.734375
2252,-38.64,2022-10-26 10:34:21.750000
2253,-44.8,2022-10-26 10:34:21.765625
2254,-51.75,2022-10-26 10:34:21.781250
2255,-58.45,2022-10-26 10:34:21.796875
2256,-63.36,2022-10-26 10:34:21.812500
2257,-64.85,2022-10-26 10:34:21.828125
2258,-61.87,2022-10-26 10:34:21.843750
2259,-54.34,2022-10-26 10:34:21.859375
2260,-43.18,2022-10-26 10:34:21.875000
2261,-30.03,2022-10-26 10:34:21.890625
2262,-16.64,2022-10-26 10:34:21.906250
2263,-4.39,2022-10-26 10:34:21.921875
2264,6.04,2022-10-26 10:34:21.937500
2265,14.6,2022-10-26 10:34:21.953125
2266,21.64,2022-10-26 10:34:21.968750
2267,27.62,2022-10-26 10:34:21.984375
2268,32.91,2022-10-26 10:34:22.000000
2269,37.69,2022-10-26 10:34:22.015625
2270,41.92,2022-10-26 10:34:22.031250
2271,45.38,2022-10-26 10:34:22.046875
2272,47.65,2022-10-26 10:34:22.062500
2273,48.27,2022-10-26 10:34:22.078125
2274,46.87,2022-10-26 10:34:22.093750
2275,43.38,2022-10-26 10:34:22.109375
2276,38.18,2022-10-26 10:34:22.125000
2277,32.03,2022-10-26 10:34:22.140625
2278,25.86,2022-10-26 10:34:22.156250
2279,20.43,2022-10-26 10:34:22.171875
2280,16.11,2022-10-26 10:34:22.187500
2281,12.85,2022-10-26 10:34:22.203125
2282,10.31,2022-10-26 10:34:22.218750
2283,8.18,2022-10-26 10:34:22.234375
2284,6.29,2022-10-26 10:34:22.250000
2285,4.7,2022-10-26 10:34:22.265625
2286,3.46,2022-10-26 10:34:22.281250
2287,2.54,2022-10-26 10:34:22.296875
2288,1.66,2022-10-26 10:34:22.312500
2289,0.46,2022-10-26 10:34:22.328125
2290,-1.4,2022-10-26 10:34:22.343750
2291,-4.0,2022-10-26 10:34:22.359375
2292,-7.22,2022-10-26 10:34:22.375000
2293,-10.72,2022-10-26 10:34:22.390625
2294,-14.16,2022-10-26 10:34:22.406250
2295,-17.32,2022-10-26 10:34:22.421875
2296,-20.12,2022-10-26 10:34:22.437500
2297,-22.59,2022-10-26 10:34:22.453125
2298,-24.79,2022-10-26 10:34:22.468750
2299,-26.79,2022-10-26 10:34:22.484375
2300,-28.74,2022-10-26 10:34:22.500000
2301,-30.84,2022-10-26 10:34:22.515625
2302,-33.38,2022-10-26 10:34:22.531250
2303,-36.52,2022-10-26 10:34:22.546875
2304,-40.11,2022-10-26 10:34:22.562500
2305,-43.54,2022-10-26 10:34:22.578125
2306,-45.8,2022-10-26 10:34:22.593750
2307,-45.8,2022-10-26 10:34:22.609375
2308,-42.73,2022-10-26 10:34:22.625000
2309,-36.44,2022-10-26 10:34:22.640625
2310,-27.48,2022-10-26 10:34:22.656250
2311,-16.97,2022-10-26 10:34:22.671875
2312,-6.18,2022-10-26 10:34:22.687500
2313,3.74,2022-10-26 10:34:22.703125
2314,12.07,2022-10-26 10:34:22.718750
2315,18.47,2022-10-26 10:34:22.734375
2316,22.95,2022-10-26 10:34:22.750000
2317,25.73,2022-10-26 10:34:22.765625
2318,27.11,2022-10-26 10:34:22.781250
2319,27.42,2022-10-26 10:34:22.796875
2320,26.99,2022-10-26 10:34:22.812500
2321,26.15,2022-10-26 10:34:22.828125
2322,25.18,2022-10-26 10:34:22.843750
2323,24.34,2022-10-26 10:34:22.859375
2324,23.83,2022-10-26 10:34:22.875000
2325,23.72,2022-10-26 10:34:22.890625
2326,23.97,2022-10-26 10:34:22.906250
2327,24.33,2022-10-26 10:34:22.921875
2328,24.53,2022-10-26 10:34:22.937500
2329,24.36,2022-10-26 10:34:22.953125
2330,23.77,2022-10-26 10:34:22.968750
2331,22.88,2022-10-26 10:34:22.984375
2332,21.95,2022-10-26 10:34:23.000000
2333,21.17,2022-10-26 10:34:23.015625
2334,20.46,2022-10-26 10:34:23.031250
2335,19.52,2022-10-26 10:34:23.046875
2336,17.88,2022-10-26 10:34:23.062500
2337,15.14,2022-10-26 10:34:23.078125
2338,11.23,2022-10-26 10:34:23.093750
2339,6.41,2022-10-26 10:34:23.109375
2340,1.18,2022-10-26 10:34:23.125000
2341,-3.91,2022-10-26 10:34:23.140625
2342,-8.54,2022-10-26 10:34:23.156250
2343,-12.66,2022-10-26 10:34:23.171875
2344,-16.46,2022-10-26 10:34:23.187500
2345,-20.26,2022-10-26 10:34:23.203125
2346,-24.39,2022-10-26 10:34:23.218750
2347,-29.07,2022-10-26 10:34:23.234375
2348,-34.39,2022-10-26 10:34:23.250000
2349,-40.2,2022-10-26 10:34:23.265625
2350,-45.98,2022-10-26 10:34:23.281250
2351,-50.86,2022-10-26 10:34:23.296875
2352,-53.71,2022-10-26 10:34:23.312500
2353,-53.47,2022-10-26 10:34:23.328125
2354,-49.49,2022-10-26 10:34:23.343750
2355,-41.87,2022-10-26 10:34:23.359375
2356,-31.46,2022-10-26 10:34:23.375000
2357,-19.66,2022-10-26 10:34:23.390625
2358,-7.93,2022-10-26 10:34:23.406250
2359,2.56,2022-10-26 10:34:23.421875
2360,11.14,2022-10-26 10:34:23.437500
2361,17.65,2022-10-26 10:34:23.453125
2362,22.23,2022-10-26 10:34:23.468750
2363,25.11,2022-10-26 10:34:23.484375
2364,26.55,2022-10-26 10:34:23.500000
2365,26.83,2022-10-26 10:34:23.515625
2366,26.29,2022-10-26 10:34:23.531250
2367,25.3,2022-10-26 10:34:23.546875
2368,24.24,2022-10-26 10:34:23.562500
2369,23.33,2022-10-26 10:34:23.578125
2370,22.64,2022-10-26 10:34:23.593750
2371,22.09,2022-10-26 10:34:23.609375
2372,21.53,2022-10-26 10:34:23.625000
2373,20.86,2022-10-26 10:34:23.640625
2374,20.03,2022-10-26 10:34:23.656250
2375,19.06,2022-10-26 10:34:23.671875
2376,18.01,2022-10-26 10:34:23.687500
2377,16.88,2022-10-26 10:34:23.703125
2378,15.64,2022-10-26 10:34:23.718750
2379,14.16,2022-10-26 10:34:23.734375
2380,12.22,2022-10-26 10:34:23.750000
2381,9.61,2022-10-26 10:34:23.765625
2382,6.21,2022-10-26 10:34:23.781250
2383,2.07,2022-10-26 10:34:23.796875
2384,-2.54,2022-10-26 10:34:23.812500
2385,-7.2,2022-10-26 10:34:23.828125
2386,-11.51,2022-10-26 10:34:23.843750
2387,-15.28,2022-10-26 10:34:23.859375
2388,-18.62,2022-10-26 10:34:23.875000
2389,-21.9,2022-10-26 10:34:23.890625
2390,-25.64,2022-10-26 10:34:23.906250
2391,-30.21,2022-10-26 10:34:23.921875
2392,-35.76,2022-10-26 10:34:23.937500
2393,-42.09,2022-10-26 10:34:23.953125
2394,-48.59,2022-10-26 10:34:23.968750
2395,-54.34,2022-10-26 10:34:23.984375
2396,-58.22,2022-10-26 10:34:24.000000
2397,-59.13,2022-10-26 10:34:24.015625
2398,-56.34,2022-10-26 10:34:24.031250
2399,-49.71,2022-10-26 10:34:24.046875
2400,-39.89,2022-10-26 10:34:24.062500
2401,-28.16,2022-10-26 10:34:24.078125
2402,-16.03,2022-10-26 10:34:24.093750
2403,-4.86,2022-10-26 10:34:24.109375
2404,4.51,2022-10-26 10:34:24.125000
2405,11.84,2022-10-26 10:34:24.140625
2406,17.3,2022-10-26 10:34:24.156250
2407,21.23,2022-10-26 10:34:24.171875
2408,23.93,2022-10-26 10:34:24.187500
2409,25.6,2022-10-26 10:34:24.203125
2410,26.42,2022-10-26 10:34:24.218750
2411,26.6,2022-10-26 10:34:24.234375
2412,26.36,2022-10-26 10:34:24.250000
2413,25.94,2022-10-26 10:34:24.265625
2414,25.52,2022-10-26 10:34:24.281250
2415,25.13,2022-10-26 10:34:24.296875
2416,24.76,2022-10-26 10:34:24.312500
2417,24.34,2022-10-26 10:34:24.328125
2418,23.78,2022-10-26 10:34:24.343750
2419,23.0,2022-10-26 10:34:24.359375
2420,21.97,2022-10-26 10:34:24.375000
2421,20.71,2022-10-26 10:34:24.390625
2422,19.28,2022-10-26 10:34:24.406250
2423,17.75,2022-10-26 10:34:24.421875
2424,16.13,2022-10-26 10:34:24.437500
2425,14.3,2022-10-26 10:34:24.453125
2426,12.04,2022-10-26 10:34:24.468750
2427,9.07,2022-10-26 10:34:24.484375
2428,5.21,2022-10-26 10:34:24.500000
2429,0.51,2022-10-26 10:34:24.515625
2430,-4.77,2022-10-26 10:34:24.531250
2431,-10.18,2022-10-26 10:34:24.546875
2432,-15.29,2022-10-26 10:34:24.562500
2433,-19.83,2022-10-26 10:34:24.578125
2434,-23.78,2022-10-26 10:34:24.593750
2435,-27.36,2022-10-26 10:34:24.609375
2436,-31.0,2022-10-26 10:34:24.625000
2437,-35.16,2022-10-26 10:34:24.640625
2438,-40.17,2022-10-26 10:34:24.656250
2439,-46.07,2022-10-26 10:34:24.671875
2440,-52.44,2022-10-26 10:34:24.687500
2441,-58.41,2022-10-26 10:34:24.703125
2442,-62.73,2022-10-26 10:34:24.718750
2443,-64.16,2022-10-26 10:34:24.734375
2444,-61.83,2022-10-26 10:34:24.750000
2445,-55.58,2022-10-26 10:34:24.765625
2446,-46.05,2022-10-26 10:34:24.781250
2447,-34.51,2022-10-26 10:34:24.796875
2448,-22.43,2022-10-26 10:34:24.812500
2449,-11.08,2022-10-26 10:34:24.828125
2450,-1.25,2022-10-26 10:34:24.843750
2451,6.78,2022-10-26 10:34:24.859375
2452,13.13,2022-10-26 10:34:24.875000
2453,18.05,2022-10-26 10:34:24.890625
2454,21.81,2022-10-26 10:34:24.906250
2455,24.61,2022-10-26 10:34:24.921875
2456,26.63,2022-10-26 10:34:24.937500
2457,28.02,2022-10-26 10:34:24.953125
2458,28.9,2022-10-26 10:34:24.968750
2459,29.4,2022-10-26 10:34:24.984375
2460,29.57,2022-10-26 10:34:25.000000
2461,29.49,2022-10-26 10:34:25.015625
2462,29.24,2022-10-26 10:34:25.031250
2463,28.93,2022-10-26 10:34:25.046875
2464,28.64,2022-10-26 10:34:25.062500
2465,28.38,2022-10-26 10:34:25.078125
2466,28.11,2022-10-26 10:34:25.093750
2467,27.72,2022-10-26 10:34:25.109375
2468,27.09,2022-10-26 10:34:25.125000
2469,26.11,2022-10-26 10:34:25.140625
2470,24.71,2022-10-26 10:34:25.156250
2471,22.84,2022-10-26 10:34:25.171875
2472,20.5,2022-10-26 10:34:25.187500
2473,17.68,2022-10-26 10:34:25.203125
2474,14.38,2022-10-26 10:34:25.218750
2475,10.61,2022-10-26 10:34:25.234375
2476,6.42,2022-10-26 10:34:25.250000
2477,1.91,2022-10-26 10:34:25.265625
2478,-2.84,2022-10-26 10:34:25.281250
2479,-7.67,2022-10-26 10:34:25.296875
2480,-12.43,2022-10-26 10:34:25.312500
2481,-16.98,2022-10-26 10:34:25.328125
2482,-21.26,2022-10-26 10:34:25.343750
2483,-25.34,2022-10-26 10:34:25.359375
2484,-29.43,2022-10-26 10:34:25.375000
2485,-33.88,2022-10-26 10:34:25.390625
2486,-39.04,2022-10-26 10:34:25.406250
2487,-45.08,2022-10-26 10:34:25.421875
2488,-51.82,2022-10-26 10:34:25.437500
2489,-58.61,2022-10-26 10:34:25.453125
2490,-64.3,2022-10-26 10:34:25.468750
2491,-67.53,2022-10-26 10:34:25.484375
2492,-67.08,2022-10-26 10:34:25.500000
2493,-62.32,2022-10-26 10:34:25.515625
2494,-53.55,2022-10-26 10:34:25.531250
2495,-41.88,2022-10-26 10:34:25.546875
2496,-28.96,2022-10-26 10:34:25.562500
2497,-16.4,2022-10-26 10:34:25.578125
2498,-5.39,2022-10-26 10:34:25.593750
2499,3.55,2022-10-26 10:34:25.609375
2500,10.46,2022-10-26 10:34:25.625000
2501,15.67,2022-10-26 10:34:25.640625
2502,19.54,2022-10-26 10:34:25.656250
2503,22.31,2022-10-26 10:34:25.671875
2504,24.12,2022-10-26 10:34:25.687500
2505,25.15,2022-10-26 10:34:25.703125
2506,25.64,2022-10-26 10:34:25.718750
2507,25.88,2022-10-26 10:34:25.734375
2508,26.15,2022-10-26 10:34:25.750000
2509,26.63,2022-10-26 10:34:25.765625
2510,27.33,2022-10-26 10:34:25.781250
2511,28.13,2022-10-26 10:34:25.796875
2512,28.77,2022-10-26 10:34:25.812500
2513,29.04,2022-10-26 10:34:25.828125
2514,28.78,2022-10-26 10:34:25.843750
2515,27.98,2022-10-26 10:34:25.859375
2516,26.75,2022-10-26 10:34:25.875000
2517,25.32,2022-10-26 10:34:25.890625
2518,23.83,2022-10-26 10:34:25.906250
2519,22.34,2022-10-26 10:34:25.921875
2520,20.72,2022-10-26 10:34:25.937500
2521,18.68,2022-10-26 10:34:25.953125
2522,15.94,2022-10-26 10:34:25.968750
2523,12.29,2022-10-26 10:34:25.984375
2524,7.73,2022-10-26 10:34:26.000000
2525,2.47,2022-10-26 10:34:26.015625
2526,-3.15,2022-10-26 10:34:26.031250
2527,-8.71,2022-10-26 10:34:26.046875
2528,-13.92,2022-10-26 10:34:26.062500
2529,-18.63,2022-10-26 10:34:26.078125
2530,-22.94,2022-10-26 10:34:26.093750
2531,-27.14,2022-10-26 10:34:26.109375
2532,-31.6,2022-10-26 10:34:26.125000
2533,-36.75,2022-10-26 10:34:26.140625
2534,-42.83,2022-10-26 10:34:26.156250
2535,-49.87,2022-10-26 10:34:26.171875
2536,-57.48,2022-10-26 10:34:26.187500
2537,-64.86,2022-10-26 10:34:26.203125
2538,-70.8,2022-10-26 10:34:26.218750
2539,-73.99,2022-10-26 10:34:26.234375
2540,-73.28,2022-10-26 10:34:26.250000
2541,-68.17,2022-10-26 10:34:26.265625
2542,-58.94,2022-10-26 10:34:26.281250
2543,-46.64,2022-10-26 10:34:26.296875
2544,-32.79,2022-10-26 10:34:26.312500
2545,-18.92,2022-10-26 10:34:26.328125
2546,-6.21,2022-10-26 10:34:26.343750
2547,4.74,2022-10-26 10:34:26.359375
2548,13.75,2022-10-26 10:34:26.375000
2549,20.9,2022-10-26 10:34:26.390625
2550,26.33,2022-10-26 10:34:26.406250
2551,30.15,2022-10-26 10:34:26.421875
2552,32.5,2022-10-26 10:34:26.437500
2553,33.67,2022-10-26 10:34:26.453125
2554,34.11,2022-10-26 10:34:26.468750
2555,34.29,2022-10-26 10:34:26.484375
2556,34.63,2022-10-26 10:34:26.500000
2557,35.3,2022-10-26 10:34:26.515625
2558,36.26,2022-10-26 10:34:26.531250
2559,37.27,2022-10-26 10:34:26.546875
2560,38.03,2022-10-26 10:34:26.562500
2561,38.38,2022-10-26 10:34:26.578125
2562,38.26,2022-10-26 10:34:26.593750
2563,37.8,2022-10-26 10:34:26.609375
2564,37.21,2022-10-26 10:34:26.625000
2565,36.64,2022-10-26 10:34:26.640625
2566,36.13,2022-10-26 10:34:26.656250
2567,35.55,2022-10-26 10:34:26.671875
2568,34.62,2022-10-26 10:34:26.687500
2569,33.01,2022-10-26 10:34:26.703125
2570,30.46,2022-10-26 10:34:26.718750
2571,26.9,2022-10-26 10:34:26.734375
2572,22.48,2022-10-26 10:34:26.750000
2573,17.56,2022-10-26 10:34:26.765625
2574,12.57,2022-10-26 10:34:26.781250
2575,7.83,2022-10-26 10:34:26.796875
2576,3.41,2022-10-26 10:34:26.812500
2577,-0.8,2022-10-26 10:34:26.828125
2578,-5.12,2022-10-26 10:34:26.843750
2579,-9.92,2022-10-26 10:34:26.859375
2580,-15.48,2022-10-26 10:34:26.875000
2581,-21.9,2022-10-26 10:34:26.890625
2582,-28.99,2022-10-26 10:34:26.906250
2583,-36.18,2022-10-26 10:34:26.921875
2584,-42.57,2022-10-26 10:34:26.937500
2585,-47.04,2022-10-26 10:34:26.953125
2586,-48.54,2022-10-26 10:34:26.968750
2587,-46.4,2022-10-26 10:34:26.984375
2588,-40.5,2022-10-26 10:34:27.000000
2589,-31.49,2022-10-26 10:34:27.015625
2590,-20.55,2022-10-26 10:34:27.031250
2591,-9.09,2022-10-26 10:34:27.046875
2592,1.57,2022-10-26 10:34:27.062500
2593,10.52,2022-10-26 10:34:27.078125
2594,17.38,2022-10-26 10:34:27.093750
2595,22.16,2022-10-26 10:34:27.109375
2596,25.11,2022-10-26 10:34:27.125000
2597,26.56,2022-10-26 10:34:27.140625
2598,26.81,2022-10-26 10:34:27.156250
2599,26.21,2022-10-26 10:34:27.171875
2600,25.1,2022-10-26 10:34:27.187500
2601,23.85,2022-10-26 10:34:27.203125
2602,22.78,2022-10-26 10:34:27.218750
2603,22.09,2022-10-26 10:34:27.234375
2604,21.78,2022-10-26 10:34:27.250000
2605,21.7,2022-10-26 10:34:27.265625
2606,21.66,2022-10-26 10:34:27.281250
2607,21.53,2022-10-26 10:34:27.296875
2608,21.34,2022-10-26 10:34:27.312500
2609,21.23,2022-10-26 10:34:27.328125
2610,21.28,2022-10-26 10:34:27.343750
2611,21.39,2022-10-26 10:34:27.359375
2612,21.23,2022-10-26 10:34:27.375000
2613,20.36,2022-10-26 10:34:27.390625
2614,18.35,2022-10-26 10:34:27.406250
2615,15.04,2022-10-26 10:34:27.421875
2616,10.6,2022-10-26 10:34:27.437500
2617,5.45,2022-10-26 10:34:27.453125
2618,0.12,2022-10-26 10:34:27.468750
2619,-4.96,2022-10-26 10:34:27.484375
2620,-9.61,2022-10-26 10:34:27.500000
2621,-13.88,2022-10-26 10:34:27.515625
2622,-17.96,2022-10-26 10:34:27.531250
2623,-22.18,2022-10-26 10:34:27.546875
2624,-26.86,2022-10-26 10:34:27.562500
2625,-32.26,2022-10-26 10:34:27.578125
2626,-38.42,2022-10-26 10:34:27.593750
2627,-45.06,2022-10-26 10:34:27.609375
2628,-51.37,2022-10-26 10:34:27.625000
2629,-56.22,2022-10-26 10:34:27.640625
2630,-58.3,2022-10-26 10:34:27.656250
2631,-56.58,2022-10-26 10:34:27.671875
2632,-50.7,2022-10-26 10:34:27.687500
2633,-41.13,2022-10-26 10:34:27.703125
2634,-29.07,2022-10-26 10:34:27.718750
2635,-16.1,2022-10-26 10:34:27.734375
2636,-3.73,2022-10-26 10:34:27.750000
2637,6.92,2022-10-26 10:34:27.765625
2638,15.25,2022-10-26 10:34:27.781250
2639,21.12,2022-10-26 10:34:27.796875
2640,24.69,2022-10-26 10:34:27.812500
2641,26.3,2022-10-26 10:34:27.828125
2642,26.39,2022-10-26 10:34:27.843750
2643,25.42,2022-10-26 10:34:27.859375
2644,23.83,2022-10-26 10:34:27.875000
2645,22.01,2022-10-26 10:34:27.890625
2646,20.24,2022-10-26 10:34:27.906250
2647,18.66,2022-10-26 10:34:27.921875
2648,17.35,2022-10-26 10:34:27.937500
2649,16.35,2022-10-26 10:34:27.953125
2650,15.69,2022-10-26 10:34:27.968750
2651,15.35,2022-10-26 10:34:27.984375
2652,15.25,2022-10-26 10:34:28.000000
2653,15.23,2022-10-26 10:34:28.015625
2654,15.03,2022-10-26 10:34:28.031250
2655,14.41,2022-10-26 10:34:28.046875
2656,13.17,2022-10-26 10:34:28.062500
2657,11.2,2022-10-26 10:34:28.078125
2658,8.51,2022-10-26 10:34:28.093750
2659,5.21,2022-10-26 10:34:28.109375
2660,1.5,2022-10-26 10:34:28.125000
2661,-2.46,2022-10-26 10:34:28.140625
2662,-6.5,2022-10-26 10:34:28.156250
2663,-10.54,2022-10-26 10:34:28.171875
2664,-14.54,2022-10-26 10:34:28.187500
2665,-18.57,2022-10-26 10:34:28.203125
2666,-22.82,2022-10-26 10:34:28.218750
2667,-27.51,2022-10-26 10:34:28.234375
2668,-32.76,2022-10-26 10:34:28.250000
2669,-38.46,2022-10-26 10:34:28.265625
2670,-44.01,2022-10-26 10:34:28.281250
2671,-48.38,2022-10-26 10:34:28.296875
2672,-50.35,2022-10-26 10:34:28.312500
2673,-48.85,2022-10-26 10:34:28.328125
2674,-43.46,2022-10-26 10:34:28.343750
2675,-34.55,2022-10-26 10:34:28.359375
2676,-23.24,2022-10-26 10:34:28.375000
2677,-11.09,2022-10-26 10:34:28.390625
2678,0.41,2022-10-26 10:34:28.406250
2679,10.16,2022-10-26 10:34:28.421875
2680,17.62,2022-10-26 10:34:28.437500
2681,22.74,2022-10-26 10:34:28.453125
2682,25.77,2022-10-26 10:34:28.468750
2683,27.05,2022-10-26 10:34:28.484375
2684,26.94,2022-10-26 10:34:28.500000
2685,25.81,2022-10-26 10:34:28.515625
2686,24.0,2022-10-26 10:34:28.531250
2687,21.9,2022-10-26 10:34:28.546875
2688,19.9,2022-10-26 10:34:28.562500
2689,18.32,2022-10-26 10:34:28.578125
2690,17.36,2022-10-26 10:34:28.593750
2691,17.05,2022-10-26 10:34:28.609375
2692,17.22,2022-10-26 10:34:28.625000
2693,17.55,2022-10-26 10:34:28.640625
2694,17.64,2022-10-26 10:34:28.656250
2695,17.2,2022-10-26 10:34:28.671875
2696,16.07,2022-10-26 10:34:28.687500
2697,14.28,2022-10-26 10:34:28.703125
2698,11.97,2022-10-26 10:34:28.718750
2699,9.25,2022-10-26 10:34:28.734375
2700,6.23,2022-10-26 10:34:28.750000
2701,2.9,2022-10-26 10:34:28.765625
2702,-0.72,2022-10-26 10:34:28.781250
2703,-4.63,2022-10-26 10:34:28.796875
2704,-8.78,2022-10-26 10:34:28.812500
2705,-13.12,2022-10-26 10:34:28.828125
2706,-17.69,2022-10-26 10:34:28.843750
2707,-22.65,2022-10-26 10:34:28.859375
2708,-28.25,2022-10-26 10:34:28.875000
2709,-34.59,2022-10-26 10:34:28.890625
2710,-41.43,2022-10-26 10:34:28.906250
2711,-48.07,2022-10-26 10:34:28.921875
2712,-53.35,2022-10-26 10:34:28.937500
2713,-55.99,2022-10-26 10:34:28.953125
2714,-54.97,2022-10-26 10:34:28.968750
2715,-49.89,2022-10-26 10:34:28.984375
2716,-41.15,2022-10-26 10:34:29.000000
2717,-29.82,2022-10-26 10:34:29.015625
2718,-17.39,2022-10-26 10:34:29.031250
2719,-5.3,2022-10-26 10:34:29.046875
2720,5.33,2022-10-26 10:34:29.062500
2721,13.89,2022-10-26 10:34:29.078125
2722,20.25,2022-10-26 10:34:29.093750
2723,24.61,2022-10-26 10:34:29.109375
2724,27.36,2022-10-26 10:34:29.125000
2725,28.91,2022-10-26 10:34:29.140625
2726,29.56,2022-10-26 10:34:29.156250
2727,29.55,2022-10-26 10:34:29.171875
2728,29.05,2022-10-26 10:34:29.187500
2729,28.21,2022-10-26 10:34:29.203125
2730,27.17,2022-10-26 10:34:29.218750
2731,26.09,2022-10-26 10:34:29.234375
2732,25.07,2022-10-26 10:34:29.250000
2733,24.17,2022-10-26 10:34:29.265625
2734,23.4,2022-10-26 10:34:29.281250
2735,22.75,2022-10-26 10:34:29.296875
2736,22.11,2022-10-26 10:34:29.312500
2737,21.35,2022-10-26 10:34:29.328125
2738,20.24,2022-10-26 10:34:29.343750
2739,18.58,2022-10-26 10:34:29.359375
2740,16.21,2022-10-26 10:34:29.375000
2741,13.06,2022-10-26 10:34:29.390625
2742,9.26,2022-10-26 10:34:29.406250
2743,5.01,2022-10-26 10:34:29.421875
2744,0.52,2022-10-26 10:34:29.437500
2745,-4.01,2022-10-26 10:34:29.453125
2746,-8.53,2022-10-26 10:34:29.468750
2747,-13.06,2022-10-26 10:34:29.484375
2748,-17.76,2022-10-26 10:34:29.500000
2749,-22.87,2022-10-26 10:34:29.515625
2750,-28.62,2022-10-26 10:34:29.531250
2751,-35.13,2022-10-26 10:34:29.546875
2752,-42.17,2022-10-26 10:34:29.562500
2753,-49.04,2022-10-26 10:34:29.578125
2754,-54.58,2022-10-26 10:34:29.593750
2755,-57.44,2022-10-26 10:34:29.609375
2756,-56.49,2022-10-26 10:34:29.625000
2757,-51.25,2022-10-26 10:34:29.640625
2758,-42.14,2022-10-26 10:34:29.656250
2759,-30.35,2022-10-26 10:34:29.671875
2760,-17.46,2022-10-26 10:34:29.687500
2761,-5.0,2022-10-26 10:34:29.703125
2762,5.95,2022-10-26 10:34:29.718750
2763,14.89,2022-10-26 10:34:29.734375
2764,21.8,2022-10-26 10:34:29.750000
2765,26.94,2022-10-26 10:34:29.765625
2766,30.61,2022-10-26 10:34:29.781250
2767,33.04,2022-10-26 10:34:29.796875
2768,34.41,2022-10-26 10:34:29.812500
2769,34.9,2022-10-26 10:34:29.828125
2770,34.78,2022-10-26 10:34:29.843750
2771,34.41,2022-10-26 10:34:29.859375
2772,34.09,2022-10-26 10:34:29.875000
2773,33.99,2022-10-26 10:34:29.890625
2774,34.09,2022-10-26 10:34:29.906250
2775,34.13,2022-10-26 10:34:29.921875
2776,33.83,2022-10-26 10:34:29.937500
2777,32.99,2022-10-26 10:34:29.953125
2778,31.64,2022-10-26 10:34:29.968750
2779,29.95,2022-10-26 10:34:29.984375
2780,28.15,2022-10-26 10:34:30.000000
2781,26.34,2022-10-26 10:34:30.015625
2782,24.42,2022-10-26 10:34:30.031250
2783,22.13,2022-10-26 10:34:30.046875
2784,19.15,2022-10-26 10:34:30.062500
2785,15.33,2022-10-26 10:34:30.078125
2786,10.74,2022-10-26 10:34:30.093750
2787,5.65,2022-10-26 10:34:30.109375
2788,0.47,2022-10-26 10:34:30.125000
2789,-4.42,2022-10-26 10:34:30.140625
2790,-8.82,2022-10-26 10:34:30.156250
2791,-12.78,2022-10-26 10:34:30.171875
2792,-16.66,2022-10-26 10:34:30.187500
2793,-20.98,2022-10-26 10:34:30.203125
2794,-26.2,2022-10-26 10:34:30.218750
2795,-32.53,2022-10-26 10:34:30.234375
2796,-39.59,2022-10-26 10:34:30.250000
2797,-46.46,2022-10-26 10:34:30.265625
2798,-51.79,2022-10-26 10:34:30.281250
2799,-54.18,2022-10-26 10:34:30.296875
2800,-52.68,2022-10-26 10:34:30.312500
2801,-47.08,2022-10-26 10:34:30.328125
2802,-38.0,2022-10-26 10:34:30.343750
2803,-26.66,2022-10-26 10:34:30.359375
2804,-14.53,2022-10-26 10:34:30.375000
2805,-2.85,2022-10-26 10:34:30.390625
2806,7.53,2022-10-26 10:34:30.406250
2807,16.22,2022-10-26 10:34:30.421875
2808,23.16,2022-10-26 10:34:30.437500
2809,28.41,2022-10-26 10:34:30.453125
2810,32.11,2022-10-26 10:34:30.468750
2811,34.43,2022-10-26 10:34:30.484375
2812,35.6,2022-10-26 10:34:30.500000
2813,35.94,2022-10-26 10:34:30.515625
2814,35.79,2022-10-26 10:34:30.531250
2815,35.44,2022-10-26 10:34:30.546875
2816,35.04,2022-10-26 10:34:30.562500
2817,34.66,2022-10-26 10:34:30.578125
2818,34.28,2022-10-26 10:34:30.593750
2819,33.88,2022-10-26 10:34:30.609375
2820,33.47,2022-10-26 10:34:30.625000
2821,33.07,2022-10-26 10:34:30.640625
2822,32.71,2022-10-26 10:34:30.656250
2823,32.37,2022-10-26 10:34:30.671875
2824,32.03,2022-10-26 10:34:30.687500
2825,31.61,2022-10-26 10:34:30.703125
2826,30.98,2022-10-26 10:34:30.718750
2827,29.94,2022-10-26 10:34:30.734375
2828,28.25,2022-10-26 10:34:30.750000
2829,25.67,2022-10-26 10:34:30.765625
2830,22.06,2022-10-26 10:34:30.781250
2831,17.49,2022-10-26 10:34:30.796875
2832,12.28,2022-10-26 10:34:30.812500
2833,6.91,2022-10-26 10:34:30.828125
2834,1.86,2022-10-26 10:34:30.843750
2835,-2.47,2022-10-26 10:34:30.859375
2836,-6.08,2022-10-26 10:34:30.875000
2837,-9.2,2022-10-26 10:34:30.890625
2838,-12.27,2022-10-26 10:34:30.906250
2839,-15.76,2022-10-26 10:34:30.921875
2840,-20.05,2022-10-26 10:34:30.937500
2841,-25.34,2022-10-26 10:34:30.953125
2842,-31.6,2022-10-26 10:34:30.968750
2843,-38.62,2022-10-26 10:34:30.984375
2844,-45.8,2022-10-26 10:34:31.000000
2845,-52.27,2022-10-26 10:34:31.015625
2846,-56.88,2022-10-26 10:34:31.031250
2847,-58.46,2022-10-26 10:34:31.046875
2848,-56.22,2022-10-26 10:34:31.062500
2849,-50.02,2022-10-26 10:34:31.078125
2850,-40.49,2022-10-26 10:34:31.093750
2851,-28.88,2022-10-26 10:34:31.109375
2852,-16.65,2022-10-26 10:34:31.125000
2853,-5.1,2022-10-26 10:34:31.140625
2854,4.91,2022-10-26 10:34:31.156250
2855,13.03,2022-10-26 10:34:31.171875
2856,19.23,2022-10-26 10:34:31.187500
2857,23.69,2022-10-26 10:34:31.203125
2858,26.62,2022-10-26 10:34:31.218750
2859,28.27,2022-10-26 10:34:31.234375
2860,28.98,2022-10-26 10:34:31.250000
2861,29.19,2022-10-26 10:34:31.265625
2862,29.4,2022-10-26 10:34:31.281250
2863,30.0,2022-10-26 10:34:31.296875
2864,31.17,2022-10-26 10:34:31.312500
2865,32.78,2022-10-26 10:34:31.328125
2866,34.51,2022-10-26 10:34:31.343750
2867,36.01,2022-10-26 10:34:31.359375
2868,37.05,2022-10-26 10:34:31.375000
2869,37.59,2022-10-26 10:34:31.390625
2870,37.68,2022-10-26 10:34:31.406250
2871,37.4,2022-10-26 10:34:31.421875
2872,36.7,2022-10-26 10:34:31.437500
2873,35.43,2022-10-26 10:34:31.453125
2874,33.44,2022-10-26 10:34:31.468750
2875,30.7,2022-10-26 10:34:31.484375
2876,27.35,2022-10-26 10:34:31.500000
2877,23.72,2022-10-26 10:34:31.515625
2878,20.09,2022-10-26 10:34:31.531250
2879,16.66,2022-10-26 10:34:31.546875
2880,13.45,2022-10-26 10:34:31.562500
2881,10.31,2022-10-26 10:34:31.578125
2882,7.06,2022-10-26 10:34:31.593750
2883,3.54,2022-10-26 10:34:31.609375
2884,-0.23,2022-10-26 10:34:31.625000
2885,-4.13,2022-10-26 10:34:31.640625
2886,-7.92,2022-10-26 10:34:31.656250
2887,-11.4,2022-10-26 10:34:31.671875
2888,-14.44,2022-10-26 10:34:31.687500
2889,-17.12,2022-10-26 10:34:31.703125
2890,-19.62,2022-10-26 10:34:31.718750
2891,-22.26,2022-10-26 10:34:31.734375
2892,-25.37,2022-10-26 10:34:31.750000
2893,-29.23,2022-10-26 10:34:31.765625
2894,-33.9,2022-10-26 10:34:31.781250
2895,-39.19,2022-10-26 10:34:31.796875
2896,-44.52,2022-10-26 10:34:31.812500
2897,-48.99,2022-10-26 10:34:31.828125
2898,-51.56,2022-10-26 10:34:31.843750
2899,-51.28,2022-10-26 10:34:31.859375
2900,-47.66,2022-10-26 10:34:31.875000
2901,-40.79,2022-10-26 10:34:31.890625
2902,-31.51,2022-10-26 10:34:31.906250
2903,-21.02,2022-10-26 10:34:31.921875
2904,-10.64,2022-10-26 10:34:31.937500
2905,-1.32,2022-10-26 10:34:31.953125
2906,6.45,2022-10-26 10:34:31.968750
2907,12.7,2022-10-26 10:34:31.984375
2908,17.73,2022-10-26 10:34:32.000000
2909,21.81,2022-10-26 10:34:32.015625
2910,25.11,2022-10-26 10:34:32.031250
2911,27.59,2022-10-26 10:34:32.046875
2912,29.24,2022-10-26 10:34:32.062500
2913,30.14,2022-10-26 10:34:32.078125
2914,30.51,2022-10-26 10:34:32.093750
2915,30.62,2022-10-26 10:34:32.109375
2916,30.68,2022-10-26 10:34:32.125000
2917,30.71,2022-10-26 10:34:32.140625
2918,30.58,2022-10-26 10:34:32.156250
2919,30.09,2022-10-26 10:34:32.171875
2920,29.13,2022-10-26 10:34:32.187500
2921,27.78,2022-10-26 10:34:32.203125
2922,26.29,2022-10-26 10:34:32.218750
2923,24.88,2022-10-26 10:34:32.234375
2924,23.63,2022-10-26 10:34:32.250000
2925,22.43,2022-10-26 10:34:32.265625
2926,20.98,2022-10-26 10:34:32.281250
2927,19.05,2022-10-26 10:34:32.296875
2928,16.57,2022-10-26 10:34:32.312500
2929,13.7,2022-10-26 10:34:32.328125
2930,10.78,2022-10-26 10:34:32.343750
2931,8.15,2022-10-26 10:34:32.359375
2932,5.96,2022-10-26 10:34:32.375000
2933,4.17,2022-10-26 10:34:32.390625
2934,2.57,2022-10-26 10:34:32.406250
2935,1.0,2022-10-26 10:34:32.421875
2936,-0.61,2022-10-26 10:34:32.437500
2937,-2.27,2022-10-26 10:34:32.453125
2938,-4.0,2022-10-26 10:34:32.468750
2939,-5.97,2022-10-26 10:34:32.484375
2940,-8.47,2022-10-26 10:34:32.500000
2941,-11.81,2022-10-26 10:34:32.515625
2942,-16.1,2022-10-26 10:34:32.531250
2943,-21.25,2022-10-26 10:34:32.546875
2944,-26.99,2022-10-26 10:34:32.562500
2945,-32.99,2022-10-26 10:34:32.578125
2946,-38.93,2022-10-26 10:34:32.593750
2947,-44.41,2022-10-26 10:34:32.609375
2948,-48.9,2022-10-26 10:34:32.625000
2949,-51.6,2022-10-26 10:34:32.640625
2950,-51.66,2022-10-26 10:34:32.656250
2951,-48.45,2022-10-26 10:34:32.671875
2952,-41.91,2022-10-26 10:34:32.687500
2953,-32.65,2022-10-26 10:34:32.703125
2954,-21.9,2022-10-26 10:34:32.718750
2955,-11.04,2022-10-26 10:34:32.734375
2956,-1.25,2022-10-26 10:34:32.750000
2957,6.8,2022-10-26 10:34:32.765625
2958,12.99,2022-10-26 10:34:32.781250
2959,17.5,2022-10-26 10:34:32.796875
2960,20.68,2022-10-26 10:34:32.812500
2961,22.79,2022-10-26 10:34:32.828125
2962,23.97,2022-10-26 10:34:32.843750
2963,24.34,2022-10-26 10:34:32.859375
2964,24.05,2022-10-26 10:34:32.875000
2965,23.39,2022-10-26 10:34:32.890625
2966,22.67,2022-10-26 10:34:32.906250
2967,22.2,2022-10-26 10:34:32.921875
2968,22.19,2022-10-26 10:34:32.937500
2969,22.61,2022-10-26 10:34:32.953125
2970,23.25,2022-10-26 10:34:32.968750
2971,23.78,2022-10-26 10:34:32.984375
2972,23.91,2022-10-26 10:34:33.000000
2973,23.49,2022-10-26 10:34:33.015625
2974,22.54,2022-10-26 10:34:33.031250
2975,21.25,2022-10-26 10:34:33.046875
2976,19.84,2022-10-26 10:34:33.062500
2977,18.46,2022-10-26 10:34:33.078125
2978,17.16,2022-10-26 10:34:33.093750
2979,15.87,2022-10-26 10:34:33.109375
2980,14.38,2022-10-26 10:34:33.125000
2981,12.43,2022-10-26 10:34:33.140625
2982,9.84,2022-10-26 10:34:33.156250
2983,6.49,2022-10-26 10:34:33.171875
2984,2.49,2022-10-26 10:34:33.187500
2985,-1.88,2022-10-26 10:34:33.203125
2986,-6.23,2022-10-26 10:34:33.218750
2987,-10.11,2022-10-26 10:34:33.234375
2988,-13.28,2022-10-26 10:34:33.250000
2989,-15.71,2022-10-26 10:34:33.265625
2990,-17.69,2022-10-26 10:34:33.281250
2991,-19.64,2022-10-26 10:34:33.296875
2992,-22.05,2022-10-26 10:34:33.312500
2993,-25.28,2022-10-26 10:34:33.328125
2994,-29.49,2022-10-26 10:34:33.343750
2995,-34.55,2022-10-26 10:34:33.359375
2996,-40.09,2022-10-26 10:34:33.375000
2997,-45.38,2022-10-26 10:34:33.390625
2998,-49.43,2022-10-26 10:34:33.406250
2999,-51.18,2022-10-26 10:34:33.421875
3000,-49.76,2022-10-26 10:34:33.437500
3001,-44.85,2022-10-26 10:34:33.453125
3002,-36.88,2022-10-26 10:34:33.468750
3003,-26.94,2022-10-26 10:34:33.484375
3004,-16.49,2022-10-26 10:34:33.500000
3005,-6.93,2022-10-26 10:34:33.515625
3006,0.84,2022-10-26 10:34:33.531250
3007,6.56,2022-10-26 10:34:33.546875
3008,10.45,2022-10-26 10:34:33.562500
3009,12.96,2022-10-26 10:34:33.578125
3010,14.51,2022-10-26 10:34:33.593750
3011,15.31,2022-10-26 10:34:33.609375
3012,15.48,2022-10-26 10:34:33.625000
3013,15.12,2022-10-26 10:34:33.640625
3014,14.47,2022-10-26 10:34:33.656250
3015,13.8,2022-10-26 10:34:33.671875
3016,13.38,2022-10-26 10:34:33.687500
3017,13.34,2022-10-26 10:34:33.703125
3018,13.63,2022-10-26 10:34:33.718750
3019,14.07,2022-10-26 10:34:33.734375
3020,14.46,2022-10-26 10:34:33.750000
3021,14.64,2022-10-26 10:34:33.765625
3022,14.55,2022-10-26 10:34:33.781250
3023,14.23,2022-10-26 10:34:33.796875
3024,13.69,2022-10-26 10:34:33.812500
3025,12.97,2022-10-26 10:34:33.828125
3026,11.92,2022-10-26 10:34:33.843750
3027,10.37,2022-10-26 10:34:33.859375
3028,8.12,2022-10-26 10:34:33.875000
3029,5.1,2022-10-26 10:34:33.890625
3030,1.46,2022-10-26 10:34:33.906250
3031,-2.45,2022-10-26 10:34:33.921875
3032,-6.17,2022-10-26 10:34:33.937500
3033,-9.35,2022-10-26 10:34:33.953125
3034,-11.9,2022-10-26 10:34:33.968750
3035,-14.01,2022-10-26 10:34:33.984375
3036,-16.07,2022-10-26 10:34:34.000000
3037,-18.49,2022-10-26 10:34:34.015625
3038,-21.54,2022-10-26 10:34:34.031250
3039,-25.33,2022-10-26 10:34:34.046875
3040,-29.77,2022-10-26 10:34:34.062500
3041,-34.55,2022-10-26 10:34:34.078125
3042,-39.1,2022-10-26 10:34:34.093750
3043,-42.59,2022-10-26 10:34:34.109375
3044,-44.05,2022-10-26 10:34:34.125000
3045,-42.71,2022-10-26 10:34:34.140625
3046,-38.26,2022-10-26 10:34:34.156250
3047,-31.09,2022-10-26 10:34:34.171875
3048,-22.17,2022-10-26 10:34:34.187500
3049,-12.81,2022-10-26 10:34:34.203125
3050,-4.21,2022-10-26 10:34:34.218750
3051,2.86,2022-10-26 10:34:34.234375
3052,8.14,2022-10-26 10:34:34.250000
3053,11.75,2022-10-26 10:34:34.265625
3054,13.99,2022-10-26 10:34:34.281250
3055,15.14,2022-10-26 10:34:34.296875
3056,15.4,2022-10-26 10:34:34.312500
3057,14.94,2022-10-26 10:34:34.328125
3058,13.97,2022-10-26 10:34:34.343750
3059,12.75,2022-10-26 10:34:34.359375
3060,11.54,2022-10-26 10:34:34.375000
3061,10.54,2022-10-26 10:34:34.390625
3062,9.83,2022-10-26 10:34:34.406250
3063,9.37,2022-10-26 10:34:34.421875
3064,9.07,2022-10-26 10:34:34.437500
3065,8.82,2022-10-26 10:34:34.453125
3066,8.58,2022-10-26 10:34:34.468750
3067,8.37,2022-10-26 10:34:34.484375
3068,8.18,2022-10-26 10:34:34.500000
3069,7.95,2022-10-26 10:34:34.515625
3070,7.52,2022-10-26 10:34:34.531250
3071,6.65,2022-10-26 10:34:34.546875
3072,5.08,2022-10-26 10:34:34.562500
3073,2.73,2022-10-26 10:34:34.578125
3074,-0.35,2022-10-26 10:34:34.593750
3075,-3.91,2022-10-26 10:34:34.609375
3076,-7.6,2022-10-26 10:34:34.625000
3077,-11.07,2022-10-26 10:34:34.640625
3078,-14.13,2022-10-26 10:34:34.656250
3079,-16.82,2022-10-26 10:34:34.671875
3080,-19.45,2022-10-26 10:34:34.687500
3081,-22.49,2022-10-26 10:34:34.703125
3082,-26.39,2022-10-26 10:34:34.718750
3083,-31.29,2022-10-26 10:34:34.734375
3084,-36.82,2022-10-26 10:34:34.750000
3085,-42.1,2022-10-26 10:34:34.765625
3086,-45.83,2022-10-26 10:34:34.781250
3087,-46.87,2022-10-26 10:34:34.796875
3088,-44.51,2022-10-26 10:34:34.812500
3089,-38.82,2022-10-26 10:34:34.828125
3090,-30.61,2022-10-26 10:34:34.843750
3091,-21.14,2022-10-26 10:34:34.859375
3092,-11.69,2022-10-26 10:34:34.875000
3093,-3.19,2022-10-26 10:34:34.890625
3094,3.9,2022-10-26 10:34:34.906250
3095,9.47,2022-10-26 10:34:34.921875
3096,13.58,2022-10-26 10:34:34.937500
3097,16.28,2022-10-26 10:34:34.953125
3098,17.62,2022-10-26 10:34:34.968750
3099,17.67,2022-10-26 10:34:34.984375
3100,16.72,2022-10-26 10:34:35.000000
3101,15.21,2022-10-26 10:34:35.015625
3102,13.68,2022-10-26 10:34:35.031250
3103,12.57,2022-10-26 10:34:35.046875
3104,12.07,2022-10-26 10:34:35.062500
3105,12.08,2022-10-26 10:34:35.078125
3106,12.24,2022-10-26 10:34:35.093750
3107,12.2,2022-10-26 10:34:35.109375
3108,11.71,2022-10-26 10:34:35.125000
3109,10.76,2022-10-26 10:34:35.140625
3110,9.57,2022-10-26 10:34:35.156250
3111,8.41,2022-10-26 10:34:35.171875
3112,7.42,2022-10-26 10:34:35.187500
3113,6.5,2022-10-26 10:34:35.203125
3114,5.31,2022-10-26 10:34:35.218750
3115,3.42,2022-10-26 10:34:35.234375
3116,0.53,2022-10-26 10:34:35.250000
3117,-3.41,2022-10-26 10:34:35.265625
3118,-8.09,2022-10-26 10:34:35.281250
3119,-13.06,2022-10-26 10:34:35.296875
3120,-17.87,2022-10-26 10:34:35.312500
3121,-22.24,2022-10-26 10:34:35.328125
3122,-26.16,2022-10-26 10:34:35.343750
3123,-29.88,2022-10-26 10:34:35.359375
3124,-33.81,2022-10-26 10:34:35.375000
3125,-38.38,2022-10-26 10:34:35.390625
3126,-43.83,2022-10-26 10:34:35.406250
3127,-50.03,2022-10-26 10:34:35.421875
3128,-56.33,2022-10-26 10:34:35.437500
3129,-61.6,2022-10-26 10:34:35.453125
3130,-64.48,2022-10-26 10:34:35.468750
3131,-63.88,2022-10-26 10:34:35.484375
3132,-59.35,2022-10-26 10:34:35.500000
3133,-51.37,2022-10-26 10:34:35.515625
3134,-41.13,2022-10-26 10:34:35.531250
3135,-30.14,2022-10-26 10:34:35.546875
3136,-19.72,2022-10-26 10:34:35.562500
3137,-10.66,2022-10-26 10:34:35.578125
3138,-3.21,2022-10-26 10:34:35.593750
3139,2.73,2022-10-26 10:34:35.609375
3140,7.38,2022-10-26 10:34:35.625000
3141,10.95,2022-10-26 10:34:35.640625
3142,13.57,2022-10-26 10:34:35.656250
3143,15.44,2022-10-26 10:34:35.671875
3144,16.77,2022-10-26 10:34:35.687500
3145,17.82,2022-10-26 10:34:35.703125
3146,18.82,2022-10-26 10:34:35.718750
3147,19.82,2022-10-26 10:34:35.734375
3148,20.77,2022-10-26 10:34:35.750000
3149,21.5,2022-10-26 10:34:35.765625
3150,21.82,2022-10-26 10:34:35.781250
3151,21.62,2022-10-26 10:34:35.796875
3152,20.95,2022-10-26 10:34:35.812500
3153,19.96,2022-10-26 10:34:35.828125
3154,18.9,2022-10-26 10:34:35.843750
3155,17.99,2022-10-26 10:34:35.859375
3156,17.28,2022-10-26 10:34:35.875000
3157,16.63,2022-10-26 10:34:35.890625
3158,15.67,2022-10-26 10:34:35.906250
3159,13.93,2022-10-26 10:34:35.921875
3160,11.03,2022-10-26 10:34:35.937500
3161,6.89,2022-10-26 10:34:35.953125
3162,1.76,2022-10-26 10:34:35.968750
3163,-3.79,2022-10-26 10:34:35.984375
3164,-9.12,2022-10-26 10:34:36.000000
3165,-13.7,2022-10-26 10:34:36.015625
3166,-17.32,2022-10-26 10:34:36.031250
3167,-20.18,2022-10-26 10:34:36.046875
3168,-22.75,2022-10-26 10:34:36.062500
3169,-25.72,2022-10-26 10:34:36.078125
3170,-29.69,2022-10-26 10:34:36.093750
3171,-35.08,2022-10-26 10:34:36.109375
3172,-41.83,2022-10-26 10:34:36.125000
3173,-49.37,2022-10-26 10:34:36.140625
