,BVP,time
0,0.97,2022-10-26 16:02:19.234375
1,3.72,2022-10-26 16:02:19.250000
2,9.94,2022-10-26 16:02:19.265625
3,19.02,2022-10-26 16:02:19.281250
4,30.22,2022-10-26 16:02:19.296875
5,42.53,2022-10-26 16:02:19.312500
6,54.67,2022-10-26 16:02:19.328125
7,65.15,2022-10-26 16:02:19.343750
8,72.55,2022-10-26 16:02:19.359375
9,75.87,2022-10-26 16:02:19.375000
10,74.77,2022-10-26 16:02:19.390625
11,69.69,2022-10-26 16:02:19.406250
12,61.63,2022-10-26 16:02:19.421875
13,51.8,2022-10-26 16:02:19.437500
14,41.35,2022-10-26 16:02:19.453125
15,31.14,2022-10-26 16:02:19.468750
16,21.85,2022-10-26 16:02:19.484375
17,14.06,2022-10-26 16:02:19.500000
18,8.25,2022-10-26 16:02:19.515625
19,4.73,2022-10-26 16:02:19.531250
20,3.41,2022-10-26 16:02:19.546875
21,3.68,2022-10-26 16:02:19.562500
22,4.44,2022-10-26 16:02:19.578125
23,4.31,2022-10-26 16:02:19.593750
24,1.86,2022-10-26 16:02:19.609375
25,-4.13,2022-10-26 16:02:19.625000
26,-14.52,2022-10-26 16:02:19.640625
27,-29.68,2022-10-26 16:02:19.656250
28,-49.3,2022-10-26 16:02:19.671875
29,-72.22,2022-10-26 16:02:19.687500
30,-96.44,2022-10-26 16:02:19.703125
31,-119.37,2022-10-26 16:02:19.718750
32,-138.4,2022-10-26 16:02:19.734375
33,-151.66,2022-10-26 16:02:19.750000
34,-158.61,2022-10-26 16:02:19.765625
35,-160.2,2022-10-26 16:02:19.781250
36,-158.52,2022-10-26 16:02:19.796875
37,-155.96,2022-10-26 16:02:19.812500
38,-154.35,2022-10-26 16:02:19.828125
39,-154.45,2022-10-26 16:02:19.843750
40,-155.97,2022-10-26 16:02:19.859375
41,-158.15,2022-10-26 16:02:19.875000
42,-160.27,2022-10-26 16:02:19.890625
43,-162.0,2022-10-26 16:02:19.906250
44,-163.29,2022-10-26 16:02:19.921875
45,-164.09,2022-10-26 16:02:19.937500
46,-164.11,2022-10-26 16:02:19.953125
47,-162.85,2022-10-26 16:02:19.968750
48,-159.88,2022-10-26 16:02:19.984375
49,-155.16,2022-10-26 16:02:20.000000
50,-149.06,2022-10-26 16:02:20.015625
51,-142.11,2022-10-26 16:02:20.031250
52,-134.71,2022-10-26 16:02:20.046875
53,-127.01,2022-10-26 16:02:20.062500
54,-119.07,2022-10-26 16:02:20.078125
55,-111.07,2022-10-26 16:02:20.093750
56,-103.47,2022-10-26 16:02:20.109375
57,-96.78,2022-10-26 16:02:20.125000
58,-91.27,2022-10-26 16:02:20.140625
59,-86.68,2022-10-26 16:02:20.156250
60,-82.16,2022-10-26 16:02:20.171875
61,-76.52,2022-10-26 16:02:20.187500
62,-68.74,2022-10-26 16:02:20.203125
63,-58.34,2022-10-26 16:02:20.218750
64,-45.63,2022-10-26 16:02:20.234375
65,-31.51,2022-10-26 16:02:20.250000
66,-17.01,2022-10-26 16:02:20.265625
67,-2.72,2022-10-26 16:02:20.281250
68,11.49,2022-10-26 16:02:20.296875
69,26.34,2022-10-26 16:02:20.312500
70,42.55,2022-10-26 16:02:20.328125
71,60.18,2022-10-26 16:02:20.343750
72,78.24,2022-10-26 16:02:20.359375
73,94.79,2022-10-26 16:02:20.375000
74,107.53,2022-10-26 16:02:20.390625
75,114.7,2022-10-26 16:02:20.406250
76,115.74,2022-10-26 16:02:20.421875
77,111.48,2022-10-26 16:02:20.437500
78,103.83,2022-10-26 16:02:20.453125
79,95.06,2022-10-26 16:02:20.468750
80,87.06,2022-10-26 16:02:20.484375
81,80.82,2022-10-26 16:02:20.500000
82,76.34,2022-10-26 16:02:20.515625
83,72.86,2022-10-26 16:02:20.531250
84,69.36,2022-10-26 16:02:20.546875
85,65.04,2022-10-26 16:02:20.562500
86,59.64,2022-10-26 16:02:20.578125
87,53.44,2022-10-26 16:02:20.593750
88,46.97,2022-10-26 16:02:20.609375
89,40.61,2022-10-26 16:02:20.625000
90,34.51,2022-10-26 16:02:20.640625
91,28.57,2022-10-26 16:02:20.656250
92,22.75,2022-10-26 16:02:20.671875
93,17.28,2022-10-26 16:02:20.687500
94,12.59,2022-10-26 16:02:20.703125
95,9.08,2022-10-26 16:02:20.718750
96,6.86,2022-10-26 16:02:20.734375
97,5.62,2022-10-26 16:02:20.750000
98,4.72,2022-10-26 16:02:20.765625
99,3.52,2022-10-26 16:02:20.781250
100,1.61,2022-10-26 16:02:20.796875
101,-1.06,2022-10-26 16:02:20.812500
102,-4.2,2022-10-26 16:02:20.828125
103,-7.35,2022-10-26 16:02:20.843750
104,-10.03,2022-10-26 16:02:20.859375
105,-11.82,2022-10-26 16:02:20.875000
106,-12.39,2022-10-26 16:02:20.890625
107,-11.56,2022-10-26 16:02:20.906250
108,-9.35,2022-10-26 16:02:20.921875
109,-6.15,2022-10-26 16:02:20.937500
110,-2.68,2022-10-26 16:02:20.953125
111,0.1,2022-10-26 16:02:20.968750
112,1.31,2022-10-26 16:02:20.984375
113,0.47,2022-10-26 16:02:21.000000
114,-2.3,2022-10-26 16:02:21.015625
115,-6.32,2022-10-26 16:02:21.031250
116,-10.71,2022-10-26 16:02:21.046875
117,-14.72,2022-10-26 16:02:21.062500
118,-18.07,2022-10-26 16:02:21.078125
119,-20.87,2022-10-26 16:02:21.093750
120,-23.43,2022-10-26 16:02:21.109375
121,-25.94,2022-10-26 16:02:21.125000
122,-28.26,2022-10-26 16:02:21.140625
123,-29.93,2022-10-26 16:02:21.156250
124,-30.43,2022-10-26 16:02:21.171875
125,-29.41,2022-10-26 16:02:21.187500
126,-26.87,2022-10-26 16:02:21.203125
127,-23.14,2022-10-26 16:02:21.218750
128,-18.76,2022-10-26 16:02:21.234375
129,-14.27,2022-10-26 16:02:21.250000
130,-10.03,2022-10-26 16:02:21.265625
131,-6.15,2022-10-26 16:02:21.281250
132,-2.49,2022-10-26 16:02:21.296875
133,1.14,2022-10-26 16:02:21.312500
134,4.81,2022-10-26 16:02:21.328125
135,8.31,2022-10-26 16:02:21.343750
136,11.18,2022-10-26 16:02:21.359375
137,12.87,2022-10-26 16:02:21.375000
138,12.92,2022-10-26 16:02:21.390625
139,11.4,2022-10-26 16:02:21.406250
140,9.09,2022-10-26 16:02:21.421875
141,7.12,2022-10-26 16:02:21.437500
142,6.52,2022-10-26 16:02:21.453125
143,7.79,2022-10-26 16:02:21.468750
144,10.76,2022-10-26 16:02:21.484375
145,14.87,2022-10-26 16:02:21.500000
146,19.47,2022-10-26 16:02:21.515625
147,23.98,2022-10-26 16:02:21.531250
148,28.17,2022-10-26 16:02:21.546875
149,32.21,2022-10-26 16:02:21.562500
150,36.46,2022-10-26 16:02:21.578125
151,41.18,2022-10-26 16:02:21.593750
152,46.34,2022-10-26 16:02:21.609375
153,51.57,2022-10-26 16:02:21.625000
154,56.38,2022-10-26 16:02:21.640625
155,60.35,2022-10-26 16:02:21.656250
156,62.92,2022-10-26 16:02:21.671875
157,63.99,2022-10-26 16:02:21.687500
158,64.09,2022-10-26 16:02:21.703125
159,64.04,2022-10-26 16:02:21.718750
160,64.32,2022-10-26 16:02:21.734375
161,64.82,2022-10-26 16:02:21.750000
162,64.7,2022-10-26 16:02:21.765625
163,63.07,2022-10-26 16:02:21.781250
164,59.41,2022-10-26 16:02:21.796875
165,52.96,2022-10-26 16:02:21.812500
166,43.97,2022-10-26 16:02:21.828125
167,34.06,2022-10-26 16:02:21.843750
168,25.42,2022-10-26 16:02:21.859375
169,19.48,2022-10-26 16:02:21.875000
170,16.44,2022-10-26 16:02:21.890625
171,15.09,2022-10-26 16:02:21.906250
172,14.0,2022-10-26 16:02:21.921875
173,12.09,2022-10-26 16:02:21.937500
174,7.04,2022-10-26 16:02:21.953125
175,-1.92,2022-10-26 16:02:21.968750
176,-12.9,2022-10-26 16:02:21.984375
177,-22.47,2022-10-26 16:02:22.000000
178,-28.17,2022-10-26 16:02:22.015625
179,-29.6,2022-10-26 16:02:22.031250
180,-29.19,2022-10-26 16:02:22.046875
181,-29.9,2022-10-26 16:02:22.062500
182,-33.99,2022-10-26 16:02:22.078125
183,-45.19,2022-10-26 16:02:22.093750
184,-64.01,2022-10-26 16:02:22.109375
185,-85.86,2022-10-26 16:02:22.125000
186,-103.1,2022-10-26 16:02:22.140625
187,-109.63,2022-10-26 16:02:22.156250
188,-103.23,2022-10-26 16:02:22.171875
189,-87.54,2022-10-26 16:02:22.187500
190,-68.98,2022-10-26 16:02:22.203125
191,-55.19,2022-10-26 16:02:22.218750
192,-57.33,2022-10-26 16:02:22.234375
193,-82.75,2022-10-26 16:02:22.250000
194,-130.8,2022-10-26 16:02:22.265625
195,-193.44,2022-10-26 16:02:22.281250
196,-259.64,2022-10-26 16:02:22.296875
197,-318.03,2022-10-26 16:02:22.312500
198,-360.88,2022-10-26 16:02:22.328125
199,-383.06,2022-10-26 16:02:22.343750
200,-358.06,2022-10-26 16:02:22.359375
201,-278.94,2022-10-26 16:02:22.375000
202,-167.05,2022-10-26 16:02:22.390625
203,-58.31,2022-10-26 16:02:22.406250
204,22.97,2022-10-26 16:02:22.421875
205,68.15,2022-10-26 16:02:22.437500
206,91.45,2022-10-26 16:02:22.453125
207,103.6,2022-10-26 16:02:22.468750
208,110.47,2022-10-26 16:02:22.484375
209,114.21,2022-10-26 16:02:22.500000
210,112.27,2022-10-26 16:02:22.515625
211,102.86,2022-10-26 16:02:22.531250
212,88.82,2022-10-26 16:02:22.546875
213,76.23,2022-10-26 16:02:22.562500
214,69.82,2022-10-26 16:02:22.578125
215,71.07,2022-10-26 16:02:22.593750
216,76.68,2022-10-26 16:02:22.609375
217,82.79,2022-10-26 16:02:22.625000
218,86.62,2022-10-26 16:02:22.640625
219,84.06,2022-10-26 16:02:22.656250
220,73.84,2022-10-26 16:02:22.671875
221,59.1,2022-10-26 16:02:22.687500
222,45.43,2022-10-26 16:02:22.703125
223,36.84,2022-10-26 16:02:22.718750
224,34.5,2022-10-26 16:02:22.734375
225,35.75,2022-10-26 16:02:22.750000
226,37.59,2022-10-26 16:02:22.765625
227,37.86,2022-10-26 16:02:22.781250
228,33.78,2022-10-26 16:02:22.796875
229,24.5,2022-10-26 16:02:22.812500
230,12.24,2022-10-26 16:02:22.828125
231,1.07,2022-10-26 16:02:22.843750
232,-5.72,2022-10-26 16:02:22.859375
233,-6.59,2022-10-26 16:02:22.875000
234,-2.71,2022-10-26 16:02:22.890625
235,4.05,2022-10-26 16:02:22.906250
236,11.85,2022-10-26 16:02:22.921875
237,18.41,2022-10-26 16:02:22.937500
238,22.39,2022-10-26 16:02:22.953125
239,24.2,2022-10-26 16:02:22.968750
240,25.35,2022-10-26 16:02:22.984375
241,27.11,2022-10-26 16:02:23.000000
242,29.99,2022-10-26 16:02:23.015625
243,33.29,2022-10-26 16:02:23.031250
244,36.19,2022-10-26 16:02:23.046875
245,38.07,2022-10-26 16:02:23.062500
246,38.34,2022-10-26 16:02:23.078125
247,36.94,2022-10-26 16:02:23.093750
248,34.41,2022-10-26 16:02:23.109375
249,31.68,2022-10-26 16:02:23.125000
250,29.49,2022-10-26 16:02:23.140625
251,28.22,2022-10-26 16:02:23.156250
252,27.8,2022-10-26 16:02:23.171875
253,27.99,2022-10-26 16:02:23.187500
254,28.57,2022-10-26 16:02:23.203125
255,29.36,2022-10-26 16:02:23.218750
256,30.21,2022-10-26 16:02:23.234375
257,31.01,2022-10-26 16:02:23.250000
258,31.65,2022-10-26 16:02:23.265625
259,31.98,2022-10-26 16:02:23.281250
260,31.81,2022-10-26 16:02:23.296875
261,30.97,2022-10-26 16:02:23.312500
262,29.41,2022-10-26 16:02:23.328125
263,27.17,2022-10-26 16:02:23.343750
264,24.45,2022-10-26 16:02:23.359375
265,21.49,2022-10-26 16:02:23.375000
266,18.5,2022-10-26 16:02:23.390625
267,15.58,2022-10-26 16:02:23.406250
268,12.68,2022-10-26 16:02:23.421875
269,9.69,2022-10-26 16:02:23.437500
270,6.45,2022-10-26 16:02:23.453125
271,2.91,2022-10-26 16:02:23.468750
272,-0.89,2022-10-26 16:02:23.484375
273,-4.77,2022-10-26 16:02:23.500000
274,-8.53,2022-10-26 16:02:23.515625
275,-12.06,2022-10-26 16:02:23.531250
276,-15.38,2022-10-26 16:02:23.546875
277,-18.68,2022-10-26 16:02:23.562500
278,-22.23,2022-10-26 16:02:23.578125
279,-26.26,2022-10-26 16:02:23.593750
280,-30.81,2022-10-26 16:02:23.609375
281,-35.64,2022-10-26 16:02:23.625000
282,-40.24,2022-10-26 16:02:23.640625
283,-43.91,2022-10-26 16:02:23.656250
284,-45.91,2022-10-26 16:02:23.671875
285,-45.62,2022-10-26 16:02:23.687500
286,-42.7,2022-10-26 16:02:23.703125
287,-37.14,2022-10-26 16:02:23.718750
288,-29.37,2022-10-26 16:02:23.734375
289,-20.08,2022-10-26 16:02:23.750000
290,-10.14,2022-10-26 16:02:23.765625
291,-0.43,2022-10-26 16:02:23.781250
292,8.36,2022-10-26 16:02:23.796875
293,15.8,2022-10-26 16:02:23.812500
294,21.73,2022-10-26 16:02:23.828125
295,26.23,2022-10-26 16:02:23.843750
296,29.46,2022-10-26 16:02:23.859375
297,31.61,2022-10-26 16:02:23.875000
298,32.86,2022-10-26 16:02:23.890625
299,33.33,2022-10-26 16:02:23.906250
300,33.19,2022-10-26 16:02:23.921875
301,32.67,2022-10-26 16:02:23.937500
302,32.02,2022-10-26 16:02:23.953125
303,31.46,2022-10-26 16:02:23.968750
304,31.12,2022-10-26 16:02:23.984375
305,30.99,2022-10-26 16:02:24.000000
306,30.98,2022-10-26 16:02:24.015625
307,30.99,2022-10-26 16:02:24.031250
308,31.02,2022-10-26 16:02:24.046875
309,31.12,2022-10-26 16:02:24.062500
310,31.35,2022-10-26 16:02:24.078125
311,31.65,2022-10-26 16:02:24.093750
312,31.83,2022-10-26 16:02:24.109375
313,31.63,2022-10-26 16:02:24.125000
314,30.87,2022-10-26 16:02:24.140625
315,29.5,2022-10-26 16:02:24.156250
316,27.65,2022-10-26 16:02:24.171875
317,25.56,2022-10-26 16:02:24.187500
318,23.38,2022-10-26 16:02:24.203125
319,21.12,2022-10-26 16:02:24.218750
320,18.65,2022-10-26 16:02:24.234375
321,15.77,2022-10-26 16:02:24.250000
322,12.34,2022-10-26 16:02:24.265625
323,8.41,2022-10-26 16:02:24.281250
324,4.19,2022-10-26 16:02:24.296875
325,-0.05,2022-10-26 16:02:24.312500
326,-4.09,2022-10-26 16:02:24.328125
327,-7.79,2022-10-26 16:02:24.343750
328,-11.2,2022-10-26 16:02:24.359375
329,-14.48,2022-10-26 16:02:24.375000
330,-17.86,2022-10-26 16:02:24.390625
331,-21.57,2022-10-26 16:02:24.406250
332,-25.73,2022-10-26 16:02:24.421875
333,-30.31,2022-10-26 16:02:24.437500
334,-35.05,2022-10-26 16:02:24.453125
335,-39.43,2022-10-26 16:02:24.468750
336,-42.74,2022-10-26 16:02:24.484375
337,-44.22,2022-10-26 16:02:24.500000
338,-43.25,2022-10-26 16:02:24.515625
339,-39.51,2022-10-26 16:02:24.531250
340,-33.15,2022-10-26 16:02:24.546875
341,-24.71,2022-10-26 16:02:24.562500
342,-15.03,2022-10-26 16:02:24.578125
343,-5.06,2022-10-26 16:02:24.593750
344,4.4,2022-10-26 16:02:24.609375
345,12.73,2022-10-26 16:02:24.625000
346,19.62,2022-10-26 16:02:24.640625
347,24.94,2022-10-26 16:02:24.656250
348,28.73,2022-10-26 16:02:24.671875
349,31.1,2022-10-26 16:02:24.687500
350,32.22,2022-10-26 16:02:24.703125
351,32.3,2022-10-26 16:02:24.718750
352,31.63,2022-10-26 16:02:24.734375
353,30.49,2022-10-26 16:02:24.750000
354,29.18,2022-10-26 16:02:24.765625
355,27.89,2022-10-26 16:02:24.781250
356,26.73,2022-10-26 16:02:24.796875
357,25.73,2022-10-26 16:02:24.812500
358,24.93,2022-10-26 16:02:24.828125
359,24.41,2022-10-26 16:02:24.843750
360,24.26,2022-10-26 16:02:24.859375
361,24.59,2022-10-26 16:02:24.875000
362,25.39,2022-10-26 16:02:24.890625
363,26.56,2022-10-26 16:02:24.906250
364,27.82,2022-10-26 16:02:24.921875
365,28.82,2022-10-26 16:02:24.937500
366,29.21,2022-10-26 16:02:24.953125
367,28.75,2022-10-26 16:02:24.968750
368,27.37,2022-10-26 16:02:24.984375
369,25.2,2022-10-26 16:02:25.000000
370,22.48,2022-10-26 16:02:25.015625
371,19.46,2022-10-26 16:02:25.031250
372,16.33,2022-10-26 16:02:25.046875
373,13.18,2022-10-26 16:02:25.062500
374,9.98,2022-10-26 16:02:25.078125
375,6.73,2022-10-26 16:02:25.093750
376,3.43,2022-10-26 16:02:25.109375
377,0.13,2022-10-26 16:02:25.125000
378,-3.09,2022-10-26 16:02:25.140625
379,-6.19,2022-10-26 16:02:25.156250
380,-9.25,2022-10-26 16:02:25.171875
381,-12.38,2022-10-26 16:02:25.187500
382,-15.76,2022-10-26 16:02:25.203125
383,-19.52,2022-10-26 16:02:25.218750
384,-23.7,2022-10-26 16:02:25.234375
385,-28.13,2022-10-26 16:02:25.250000
386,-32.43,2022-10-26 16:02:25.265625
387,-35.98,2022-10-26 16:02:25.281250
388,-38.04,2022-10-26 16:02:25.296875
389,-37.9,2022-10-26 16:02:25.312500
390,-35.14,2022-10-26 16:02:25.328125
391,-29.79,2022-10-26 16:02:25.343750
392,-22.33,2022-10-26 16:02:25.359375
393,-13.58,2022-10-26 16:02:25.375000
394,-4.48,2022-10-26 16:02:25.390625
395,4.17,2022-10-26 16:02:25.406250
396,11.83,2022-10-26 16:02:25.421875
397,18.21,2022-10-26 16:02:25.437500
398,23.2,2022-10-26 16:02:25.453125
399,26.76,2022-10-26 16:02:25.468750
400,28.87,2022-10-26 16:02:25.484375
401,29.58,2022-10-26 16:02:25.500000
402,29.06,2022-10-26 16:02:25.515625
403,27.63,2022-10-26 16:02:25.531250
404,25.65,2022-10-26 16:02:25.546875
405,23.49,2022-10-26 16:02:25.562500
406,21.43,2022-10-26 16:02:25.578125
407,19.66,2022-10-26 16:02:25.593750
408,18.25,2022-10-26 16:02:25.609375
409,17.27,2022-10-26 16:02:25.625000
410,16.74,2022-10-26 16:02:25.640625
411,16.66,2022-10-26 16:02:25.656250
412,16.95,2022-10-26 16:02:25.671875
413,17.43,2022-10-26 16:02:25.687500
414,17.91,2022-10-26 16:02:25.703125
415,18.18,2022-10-26 16:02:25.718750
416,18.17,2022-10-26 16:02:25.734375
417,17.88,2022-10-26 16:02:25.750000
418,17.39,2022-10-26 16:02:25.765625
419,16.76,2022-10-26 16:02:25.781250
420,15.93,2022-10-26 16:02:25.796875
421,14.78,2022-10-26 16:02:25.812500
422,13.12,2022-10-26 16:02:25.828125
423,10.84,2022-10-26 16:02:25.843750
424,7.93,2022-10-26 16:02:25.859375
425,4.54,2022-10-26 16:02:25.875000
426,0.89,2022-10-26 16:02:25.890625
427,-2.72,2022-10-26 16:02:25.906250
428,-6.07,2022-10-26 16:02:25.921875
429,-9.05,2022-10-26 16:02:25.937500
430,-11.7,2022-10-26 16:02:25.953125
431,-14.17,2022-10-26 16:02:25.968750
432,-16.69,2022-10-26 16:02:25.984375
433,-19.55,2022-10-26 16:02:26.000000
434,-22.96,2022-10-26 16:02:26.015625
435,-27.02,2022-10-26 16:02:26.031250
436,-31.61,2022-10-26 16:02:26.046875
437,-36.34,2022-10-26 16:02:26.062500
438,-40.55,2022-10-26 16:02:26.078125
439,-43.42,2022-10-26 16:02:26.093750
440,-44.21,2022-10-26 16:02:26.109375
441,-42.43,2022-10-26 16:02:26.125000
442,-38.05,2022-10-26 16:02:26.140625
443,-31.51,2022-10-26 16:02:26.156250
444,-23.56,2022-10-26 16:02:26.171875
445,-15.12,2022-10-26 16:02:26.187500
446,-7.0,2022-10-26 16:02:26.203125
447,0.21,2022-10-26 16:02:26.218750
448,6.19,2022-10-26 16:02:26.234375
449,10.88,2022-10-26 16:02:26.250000
450,14.32,2022-10-26 16:02:26.265625
451,16.66,2022-10-26 16:02:26.281250
452,18.06,2022-10-26 16:02:26.296875
453,18.67,2022-10-26 16:02:26.312500
454,18.64,2022-10-26 16:02:26.328125
455,18.1,2022-10-26 16:02:26.343750
456,17.2,2022-10-26 16:02:26.359375
457,16.08,2022-10-26 16:02:26.375000
458,14.87,2022-10-26 16:02:26.390625
459,13.71,2022-10-26 16:02:26.406250
460,12.7,2022-10-26 16:02:26.421875
461,11.97,2022-10-26 16:02:26.437500
462,11.63,2022-10-26 16:02:26.453125
463,11.74,2022-10-26 16:02:26.468750
464,12.28,2022-10-26 16:02:26.484375
465,13.13,2022-10-26 16:02:26.500000
466,14.09,2022-10-26 16:02:26.515625
467,14.91,2022-10-26 16:02:26.531250
468,15.43,2022-10-26 16:02:26.546875
469,15.52,2022-10-26 16:02:26.562500
470,15.14,2022-10-26 16:02:26.578125
471,14.3,2022-10-26 16:02:26.593750
472,12.95,2022-10-26 16:02:26.609375
473,11.05,2022-10-26 16:02:26.625000
474,8.57,2022-10-26 16:02:26.640625
475,5.52,2022-10-26 16:02:26.656250
476,1.99,2022-10-26 16:02:26.671875
477,-1.84,2022-10-26 16:02:26.687500
478,-5.72,2022-10-26 16:02:26.703125
479,-9.46,2022-10-26 16:02:26.718750
480,-12.91,2022-10-26 16:02:26.734375
481,-16.06,2022-10-26 16:02:26.750000
482,-19.01,2022-10-26 16:02:26.765625
483,-21.97,2022-10-26 16:02:26.781250
484,-25.21,2022-10-26 16:02:26.796875
485,-28.92,2022-10-26 16:02:26.812500
486,-33.1,2022-10-26 16:02:26.828125
487,-37.44,2022-10-26 16:02:26.843750
488,-41.34,2022-10-26 16:02:26.859375
489,-44.0,2022-10-26 16:02:26.875000
490,-44.68,2022-10-26 16:02:26.890625
491,-42.95,2022-10-26 16:02:26.906250
492,-38.83,2022-10-26 16:02:26.921875
493,-32.81,2022-10-26 16:02:26.937500
494,-25.67,2022-10-26 16:02:26.953125
495,-18.29,2022-10-26 16:02:26.968750
496,-11.44,2022-10-26 16:02:26.984375
497,-5.7,2022-10-26 16:02:27.000000
498,-1.36,2022-10-26 16:02:27.015625
499,1.5,2022-10-26 16:02:27.031250
500,3.01,2022-10-26 16:02:27.046875
501,3.46,2022-10-26 16:02:27.062500
502,3.21,2022-10-26 16:02:27.078125
503,2.52,2022-10-26 16:02:27.093750
504,1.59,2022-10-26 16:02:27.109375
505,0.42,2022-10-26 16:02:27.125000
506,-1.07,2022-10-26 16:02:27.140625
507,-2.92,2022-10-26 16:02:27.156250
508,-5.02,2022-10-26 16:02:27.171875
509,-7.11,2022-10-26 16:02:27.187500
510,-8.78,2022-10-26 16:02:27.203125
511,-9.6,2022-10-26 16:02:27.218750
512,-9.21,2022-10-26 16:02:27.234375
513,-7.43,2022-10-26 16:02:27.250000
514,-4.35,2022-10-26 16:02:27.265625
515,-0.27,2022-10-26 16:02:27.281250
516,4.34,2022-10-26 16:02:27.296875
517,8.93,2022-10-26 16:02:27.312500
518,13.01,2022-10-26 16:02:27.328125
519,16.27,2022-10-26 16:02:27.343750
520,18.65,2022-10-26 16:02:27.359375
521,20.35,2022-10-26 16:02:27.375000
522,21.77,2022-10-26 16:02:27.390625
523,23.49,2022-10-26 16:02:27.406250
524,26.01,2022-10-26 16:02:27.421875
525,29.65,2022-10-26 16:02:27.437500
526,34.21,2022-10-26 16:02:27.453125
527,38.96,2022-10-26 16:02:27.468750
528,42.83,2022-10-26 16:02:27.484375
529,44.75,2022-10-26 16:02:27.500000
530,44.16,2022-10-26 16:02:27.515625
531,41.22,2022-10-26 16:02:27.531250
532,36.77,2022-10-26 16:02:27.546875
533,31.83,2022-10-26 16:02:27.562500
534,27.19,2022-10-26 16:02:27.578125
535,23.06,2022-10-26 16:02:27.593750
536,19.11,2022-10-26 16:02:27.609375
537,14.77,2022-10-26 16:02:27.625000
538,9.56,2022-10-26 16:02:27.640625
539,3.3,2022-10-26 16:02:27.656250
540,-3.8,2022-10-26 16:02:27.671875
541,-11.19,2022-10-26 16:02:27.687500
542,-18.12,2022-10-26 16:02:27.703125
543,-23.75,2022-10-26 16:02:27.718750
544,-27.26,2022-10-26 16:02:27.734375
545,-28.03,2022-10-26 16:02:27.750000
546,-25.84,2022-10-26 16:02:27.765625
547,-20.85,2022-10-26 16:02:27.781250
548,-13.57,2022-10-26 16:02:27.796875
549,-4.6,2022-10-26 16:02:27.812500
550,5.53,2022-10-26 16:02:27.828125
551,16.37,2022-10-26 16:02:27.843750
552,27.37,2022-10-26 16:02:27.859375
553,37.7,2022-10-26 16:02:27.875000
554,46.28,2022-10-26 16:02:27.890625
555,52.18,2022-10-26 16:02:27.906250
556,55.1,2022-10-26 16:02:27.921875
557,55.8,2022-10-26 16:02:27.937500
558,55.99,2022-10-26 16:02:27.953125
559,57.67,2022-10-26 16:02:27.968750
560,62.27,2022-10-26 16:02:27.984375
561,69.92,2022-10-26 16:02:28.000000
562,79.41,2022-10-26 16:02:28.015625
563,88.77,2022-10-26 16:02:28.031250
564,96.23,2022-10-26 16:02:28.046875
565,100.89,2022-10-26 16:02:28.062500
566,102.86,2022-10-26 16:02:28.078125
567,102.88,2022-10-26 16:02:28.093750
568,101.7,2022-10-26 16:02:28.109375
569,99.69,2022-10-26 16:02:28.125000
570,96.74,2022-10-26 16:02:28.140625
571,92.46,2022-10-26 16:02:28.156250
572,86.29,2022-10-26 16:02:28.171875
573,77.5,2022-10-26 16:02:28.187500
574,65.02,2022-10-26 16:02:28.203125
575,47.59,2022-10-26 16:02:28.218750
576,24.25,2022-10-26 16:02:28.234375
577,-4.95,2022-10-26 16:02:28.250000
578,-38.41,2022-10-26 16:02:28.265625
579,-73.05,2022-10-26 16:02:28.281250
580,-105.05,2022-10-26 16:02:28.296875
581,-130.92,2022-10-26 16:02:28.312500
582,-148.54,2022-10-26 16:02:28.328125
583,-157.61,2022-10-26 16:02:28.343750
584,-159.45,2022-10-26 16:02:28.359375
585,-156.24,2022-10-26 16:02:28.375000
586,-150.2,2022-10-26 16:02:28.390625
587,-142.83,2022-10-26 16:02:28.406250
588,-134.71,2022-10-26 16:02:28.421875
589,-125.75,2022-10-26 16:02:28.437500
590,-115.65,2022-10-26 16:02:28.453125
591,-104.42,2022-10-26 16:02:28.468750
592,-92.68,2022-10-26 16:02:28.484375
593,-81.43,2022-10-26 16:02:28.500000
594,-71.62,2022-10-26 16:02:28.515625
595,-63.65,2022-10-26 16:02:28.531250
596,-57.13,2022-10-26 16:02:28.546875
597,-51.11,2022-10-26 16:02:28.562500
598,-44.64,2022-10-26 16:02:28.578125
599,-37.28,2022-10-26 16:02:28.593750
600,-29.3,2022-10-26 16:02:28.609375
601,-21.46,2022-10-26 16:02:28.625000
602,-14.46,2022-10-26 16:02:28.640625
603,-8.54,2022-10-26 16:02:28.656250
604,-3.4,2022-10-26 16:02:28.671875
605,1.46,2022-10-26 16:02:28.687500
606,6.36,2022-10-26 16:02:28.703125
607,11.1,2022-10-26 16:02:28.718750
608,15.07,2022-10-26 16:02:28.734375
609,17.56,2022-10-26 16:02:28.750000
610,18.18,2022-10-26 16:02:28.765625
611,17.13,2022-10-26 16:02:28.781250
612,15.05,2022-10-26 16:02:28.796875
613,12.83,2022-10-26 16:02:28.812500
614,11.16,2022-10-26 16:02:28.828125
615,10.24,2022-10-26 16:02:28.843750
616,9.78,2022-10-26 16:02:28.859375
617,9.19,2022-10-26 16:02:28.875000
618,7.91,2022-10-26 16:02:28.890625
619,5.66,2022-10-26 16:02:28.906250
620,2.56,2022-10-26 16:02:28.921875
621,-0.93,2022-10-26 16:02:28.937500
622,-4.26,2022-10-26 16:02:28.953125
623,-7.05,2022-10-26 16:02:28.968750
624,-9.22,2022-10-26 16:02:28.984375
625,-11.04,2022-10-26 16:02:29.000000
626,-12.93,2022-10-26 16:02:29.015625
627,-15.27,2022-10-26 16:02:29.031250
628,-18.2,2022-10-26 16:02:29.046875
629,-21.53,2022-10-26 16:02:29.062500
630,-24.81,2022-10-26 16:02:29.078125
631,-27.41,2022-10-26 16:02:29.093750
632,-28.73,2022-10-26 16:02:29.109375
633,-28.37,2022-10-26 16:02:29.125000
634,-26.27,2022-10-26 16:02:29.140625
635,-22.66,2022-10-26 16:02:29.156250
636,-18.02,2022-10-26 16:02:29.171875
637,-12.9,2022-10-26 16:02:29.187500
638,-7.74,2022-10-26 16:02:29.203125
639,-2.86,2022-10-26 16:02:29.218750
640,1.57,2022-10-26 16:02:29.234375
641,5.4,2022-10-26 16:02:29.250000
642,8.52,2022-10-26 16:02:29.265625
643,10.84,2022-10-26 16:02:29.281250
644,12.28,2022-10-26 16:02:29.296875
645,12.92,2022-10-26 16:02:29.312500
646,12.89,2022-10-26 16:02:29.328125
647,12.4,2022-10-26 16:02:29.343750
648,11.64,2022-10-26 16:02:29.359375
649,10.75,2022-10-26 16:02:29.375000
650,9.88,2022-10-26 16:02:29.390625
651,9.11,2022-10-26 16:02:29.406250
652,8.51,2022-10-26 16:02:29.421875
653,8.12,2022-10-26 16:02:29.437500
654,7.92,2022-10-26 16:02:29.453125
655,7.84,2022-10-26 16:02:29.468750
656,7.83,2022-10-26 16:02:29.484375
657,7.89,2022-10-26 16:02:29.500000
658,8.01,2022-10-26 16:02:29.515625
659,8.19,2022-10-26 16:02:29.531250
660,8.3,2022-10-26 16:02:29.546875
661,8.18,2022-10-26 16:02:29.562500
662,7.66,2022-10-26 16:02:29.578125
663,6.65,2022-10-26 16:02:29.593750
664,5.26,2022-10-26 16:02:29.609375
665,3.71,2022-10-26 16:02:29.625000
666,2.22,2022-10-26 16:02:29.640625
667,0.92,2022-10-26 16:02:29.656250
668,-0.25,2022-10-26 16:02:29.671875
669,-1.45,2022-10-26 16:02:29.687500
670,-2.84,2022-10-26 16:02:29.703125
671,-4.47,2022-10-26 16:02:29.718750
672,-6.28,2022-10-26 16:02:29.734375
673,-8.17,2022-10-26 16:02:29.750000
674,-10.12,2022-10-26 16:02:29.765625
675,-12.14,2022-10-26 16:02:29.781250
676,-14.24,2022-10-26 16:02:29.796875
677,-16.19,2022-10-26 16:02:29.812500
678,-17.56,2022-10-26 16:02:29.828125
679,-17.74,2022-10-26 16:02:29.843750
680,-16.18,2022-10-26 16:02:29.859375
681,-12.68,2022-10-26 16:02:29.875000
682,-7.47,2022-10-26 16:02:29.890625
683,-1.18,2022-10-26 16:02:29.906250
684,5.45,2022-10-26 16:02:29.921875
685,11.79,2022-10-26 16:02:29.937500
686,17.43,2022-10-26 16:02:29.953125
687,22.19,2022-10-26 16:02:29.968750
688,25.96,2022-10-26 16:02:29.984375
689,28.67,2022-10-26 16:02:30.000000
690,30.32,2022-10-26 16:02:30.015625
691,31.03,2022-10-26 16:02:30.031250
692,31.08,2022-10-26 16:02:30.046875
693,30.87,2022-10-26 16:02:30.062500
694,30.74,2022-10-26 16:02:30.078125
695,30.86,2022-10-26 16:02:30.093750
696,31.11,2022-10-26 16:02:30.109375
697,31.15,2022-10-26 16:02:30.125000
698,30.59,2022-10-26 16:02:30.140625
699,29.14,2022-10-26 16:02:30.156250
700,26.73,2022-10-26 16:02:30.171875
701,23.59,2022-10-26 16:02:30.187500
702,20.14,2022-10-26 16:02:30.203125
703,16.9,2022-10-26 16:02:30.218750
704,14.35,2022-10-26 16:02:30.234375
705,12.78,2022-10-26 16:02:30.250000
706,12.2,2022-10-26 16:02:30.265625
707,12.3,2022-10-26 16:02:30.281250
708,12.56,2022-10-26 16:02:30.296875
709,12.47,2022-10-26 16:02:30.312500
710,11.69,2022-10-26 16:02:30.328125
711,10.25,2022-10-26 16:02:30.343750
712,8.38,2022-10-26 16:02:30.359375
713,6.4,2022-10-26 16:02:30.375000
714,4.45,2022-10-26 16:02:30.390625
715,2.39,2022-10-26 16:02:30.406250
716,-0.13,2022-10-26 16:02:30.421875
717,-3.48,2022-10-26 16:02:30.437500
718,-7.84,2022-10-26 16:02:30.453125
719,-13.11,2022-10-26 16:02:30.468750
720,-18.94,2022-10-26 16:02:30.484375
721,-24.82,2022-10-26 16:02:30.500000
722,-30.27,2022-10-26 16:02:30.515625
723,-34.8,2022-10-26 16:02:30.531250
724,-37.94,2022-10-26 16:02:30.546875
725,-39.22,2022-10-26 16:02:30.562500
726,-38.27,2022-10-26 16:02:30.578125
727,-34.99,2022-10-26 16:02:30.593750
728,-29.69,2022-10-26 16:02:30.609375
729,-23.09,2022-10-26 16:02:30.625000
730,-16.18,2022-10-26 16:02:30.640625
731,-9.92,2022-10-26 16:02:30.656250
732,-5.03,2022-10-26 16:02:30.671875
733,-1.72,2022-10-26 16:02:30.687500
734,0.17,2022-10-26 16:02:30.703125
735,1.05,2022-10-26 16:02:30.718750
736,1.37,2022-10-26 16:02:30.734375
737,1.36,2022-10-26 16:02:30.750000
738,1.1,2022-10-26 16:02:30.765625
739,0.49,2022-10-26 16:02:30.781250
740,-0.51,2022-10-26 16:02:30.796875
741,-1.78,2022-10-26 16:02:30.812500
742,-3.04,2022-10-26 16:02:30.828125
743,-3.92,2022-10-26 16:02:30.843750
744,-4.12,2022-10-26 16:02:30.859375
745,-3.55,2022-10-26 16:02:30.875000
746,-2.38,2022-10-26 16:02:30.890625
747,-0.93,2022-10-26 16:02:30.906250
748,0.45,2022-10-26 16:02:30.921875
749,1.53,2022-10-26 16:02:30.937500
750,2.26,2022-10-26 16:02:30.953125
751,2.74,2022-10-26 16:02:30.968750
752,3.13,2022-10-26 16:02:30.984375
753,3.5,2022-10-26 16:02:31.000000
754,3.79,2022-10-26 16:02:31.015625
755,3.83,2022-10-26 16:02:31.031250
756,3.45,2022-10-26 16:02:31.046875
757,2.58,2022-10-26 16:02:31.062500
758,1.31,2022-10-26 16:02:31.078125
759,-0.18,2022-10-26 16:02:31.093750
760,-1.72,2022-10-26 16:02:31.109375
761,-3.19,2022-10-26 16:02:31.125000
762,-4.63,2022-10-26 16:02:31.140625
763,-6.09,2022-10-26 16:02:31.156250
764,-7.63,2022-10-26 16:02:31.171875
765,-9.25,2022-10-26 16:02:31.187500
766,-10.87,2022-10-26 16:02:31.203125
767,-12.45,2022-10-26 16:02:31.218750
768,-14.08,2022-10-26 16:02:31.234375
769,-15.91,2022-10-26 16:02:31.250000
770,-18.09,2022-10-26 16:02:31.265625
771,-20.59,2022-10-26 16:02:31.281250
772,-23.11,2022-10-26 16:02:31.296875
773,-25.09,2022-10-26 16:02:31.312500
774,-25.88,2022-10-26 16:02:31.328125
775,-25.04,2022-10-26 16:02:31.343750
776,-22.42,2022-10-26 16:02:31.359375
777,-18.31,2022-10-26 16:02:31.375000
778,-13.24,2022-10-26 16:02:31.390625
779,-7.81,2022-10-26 16:02:31.406250
780,-2.51,2022-10-26 16:02:31.421875
781,2.34,2022-10-26 16:02:31.437500
782,6.54,2022-10-26 16:02:31.453125
783,9.97,2022-10-26 16:02:31.468750
784,12.56,2022-10-26 16:02:31.484375
785,14.25,2022-10-26 16:02:31.500000
786,15.11,2022-10-26 16:02:31.515625
787,15.28,2022-10-26 16:02:31.531250
788,15.01,2022-10-26 16:02:31.546875
789,14.55,2022-10-26 16:02:31.562500
790,14.16,2022-10-26 16:02:31.578125
791,14.0,2022-10-26 16:02:31.593750
792,14.1,2022-10-26 16:02:31.609375
793,14.36,2022-10-26 16:02:31.625000
794,14.62,2022-10-26 16:02:31.640625
795,14.71,2022-10-26 16:02:31.656250
796,14.57,2022-10-26 16:02:31.671875
797,14.31,2022-10-26 16:02:31.687500
798,14.13,2022-10-26 16:02:31.703125
799,14.22,2022-10-26 16:02:31.718750
800,14.62,2022-10-26 16:02:31.734375
801,15.16,2022-10-26 16:02:31.750000
802,15.56,2022-10-26 16:02:31.765625
803,15.52,2022-10-26 16:02:31.781250
804,14.91,2022-10-26 16:02:31.796875
805,13.82,2022-10-26 16:02:31.812500
806,12.49,2022-10-26 16:02:31.828125
807,11.12,2022-10-26 16:02:31.843750
808,9.83,2022-10-26 16:02:31.859375
809,8.54,2022-10-26 16:02:31.875000
810,7.1,2022-10-26 16:02:31.890625
811,5.41,2022-10-26 16:02:31.906250
812,3.47,2022-10-26 16:02:31.921875
813,1.42,2022-10-26 16:02:31.937500
814,-0.53,2022-10-26 16:02:31.953125
815,-2.21,2022-10-26 16:02:31.968750
816,-3.56,2022-10-26 16:02:31.984375
817,-4.68,2022-10-26 16:02:32.000000
818,-5.73,2022-10-26 16:02:32.015625
819,-6.93,2022-10-26 16:02:32.031250
820,-8.38,2022-10-26 16:02:32.046875
821,-10.13,2022-10-26 16:02:32.062500
822,-12.17,2022-10-26 16:02:32.078125
823,-14.42,2022-10-26 16:02:32.093750
824,-16.71,2022-10-26 16:02:32.109375
825,-18.79,2022-10-26 16:02:32.125000
826,-20.22,2022-10-26 16:02:32.140625
827,-20.53,2022-10-26 16:02:32.156250
828,-19.34,2022-10-26 16:02:32.171875
829,-16.49,2022-10-26 16:02:32.187500
830,-12.26,2022-10-26 16:02:32.203125
831,-7.2,2022-10-26 16:02:32.218750
832,-2.04,2022-10-26 16:02:32.234375
833,2.58,2022-10-26 16:02:32.250000
834,6.32,2022-10-26 16:02:32.265625
835,9.11,2022-10-26 16:02:32.281250
836,11.11,2022-10-26 16:02:32.296875
837,12.52,2022-10-26 16:02:32.312500
838,13.48,2022-10-26 16:02:32.328125
839,14.04,2022-10-26 16:02:32.343750
840,14.22,2022-10-26 16:02:32.359375
841,14.06,2022-10-26 16:02:32.375000
842,13.69,2022-10-26 16:02:32.390625
843,13.24,2022-10-26 16:02:32.406250
844,12.86,2022-10-26 16:02:32.421875
845,12.62,2022-10-26 16:02:32.437500
846,12.51,2022-10-26 16:02:32.453125
847,12.43,2022-10-26 16:02:32.468750
848,12.34,2022-10-26 16:02:32.484375
849,12.25,2022-10-26 16:02:32.500000
850,12.26,2022-10-26 16:02:32.515625
851,12.5,2022-10-26 16:02:32.531250
852,13.02,2022-10-26 16:02:32.546875
853,13.74,2022-10-26 16:02:32.562500
854,14.48,2022-10-26 16:02:32.578125
855,15.02,2022-10-26 16:02:32.593750
856,15.16,2022-10-26 16:02:32.609375
857,14.8,2022-10-26 16:02:32.625000
858,13.9,2022-10-26 16:02:32.640625
859,12.54,2022-10-26 16:02:32.656250
860,10.87,2022-10-26 16:02:32.671875
861,9.09,2022-10-26 16:02:32.687500
862,7.42,2022-10-26 16:02:32.703125
863,6.04,2022-10-26 16:02:32.718750
864,4.98,2022-10-26 16:02:32.734375
865,4.12,2022-10-26 16:02:32.750000
866,3.23,2022-10-26 16:02:32.765625
867,2.03,2022-10-26 16:02:32.781250
868,0.4,2022-10-26 16:02:32.796875
869,-1.6,2022-10-26 16:02:32.812500
870,-3.73,2022-10-26 16:02:32.828125
871,-5.69,2022-10-26 16:02:32.843750
872,-7.25,2022-10-26 16:02:32.859375
873,-8.37,2022-10-26 16:02:32.875000
874,-9.12,2022-10-26 16:02:32.890625
875,-9.72,2022-10-26 16:02:32.906250
876,-10.41,2022-10-26 16:02:32.921875
877,-11.37,2022-10-26 16:02:32.937500
878,-12.73,2022-10-26 16:02:32.953125
879,-14.5,2022-10-26 16:02:32.968750
880,-16.51,2022-10-26 16:02:32.984375
881,-18.46,2022-10-26 16:02:33.000000
882,-19.88,2022-10-26 16:02:33.015625
883,-20.3,2022-10-26 16:02:33.031250
884,-19.37,2022-10-26 16:02:33.046875
885,-17.02,2022-10-26 16:02:33.062500
886,-13.5,2022-10-26 16:02:33.078125
887,-9.29,2022-10-26 16:02:33.093750
888,-4.94,2022-10-26 16:02:33.109375
889,-0.9,2022-10-26 16:02:33.125000
890,2.61,2022-10-26 16:02:33.140625
891,5.53,2022-10-26 16:02:33.156250
892,7.93,2022-10-26 16:02:33.171875
893,9.84,2022-10-26 16:02:33.187500
894,11.23,2022-10-26 16:02:33.203125
895,12.03,2022-10-26 16:02:33.218750
896,12.21,2022-10-26 16:02:33.234375
897,11.87,2022-10-26 16:02:33.250000
898,11.17,2022-10-26 16:02:33.265625
899,10.34,2022-10-26 16:02:33.281250
900,9.58,2022-10-26 16:02:33.296875
901,8.97,2022-10-26 16:02:33.312500
902,8.52,2022-10-26 16:02:33.328125
903,8.19,2022-10-26 16:02:33.343750
904,7.99,2022-10-26 16:02:33.359375
905,7.93,2022-10-26 16:02:33.375000
906,8.06,2022-10-26 16:02:33.390625
907,8.37,2022-10-26 16:02:33.406250
908,8.75,2022-10-26 16:02:33.421875
909,9.06,2022-10-26 16:02:33.437500
910,9.12,2022-10-26 16:02:33.453125
911,8.85,2022-10-26 16:02:33.468750
912,8.24,2022-10-26 16:02:33.484375
913,7.38,2022-10-26 16:02:33.500000
914,6.35,2022-10-26 16:02:33.515625
915,5.23,2022-10-26 16:02:33.531250
916,4.07,2022-10-26 16:02:33.546875
917,2.86,2022-10-26 16:02:33.562500
918,1.59,2022-10-26 16:02:33.578125
919,0.27,2022-10-26 16:02:33.593750
920,-1.09,2022-10-26 16:02:33.609375
921,-2.47,2022-10-26 16:02:33.625000
922,-3.86,2022-10-26 16:02:33.640625
923,-5.27,2022-10-26 16:02:33.656250
924,-6.7,2022-10-26 16:02:33.671875
925,-8.12,2022-10-26 16:02:33.687500
926,-9.46,2022-10-26 16:02:33.703125
927,-10.62,2022-10-26 16:02:33.718750
928,-11.52,2022-10-26 16:02:33.734375
929,-12.16,2022-10-26 16:02:33.750000
930,-12.65,2022-10-26 16:02:33.765625
931,-13.26,2022-10-26 16:02:33.781250
932,-14.26,2022-10-26 16:02:33.796875
933,-15.84,2022-10-26 16:02:33.812500
934,-17.97,2022-10-26 16:02:33.828125
935,-20.29,2022-10-26 16:02:33.843750
936,-22.27,2022-10-26 16:02:33.859375
937,-23.3,2022-10-26 16:02:33.875000
938,-22.9,2022-10-26 16:02:33.890625
939,-20.9,2022-10-26 16:02:33.906250
940,-17.46,2022-10-26 16:02:33.921875
941,-13.03,2022-10-26 16:02:33.937500
942,-8.17,2022-10-26 16:02:33.953125
943,-3.45,2022-10-26 16:02:33.968750
944,0.7,2022-10-26 16:02:33.984375
945,4.01,2022-10-26 16:02:34.000000
946,6.39,2022-10-26 16:02:34.015625
947,7.9,2022-10-26 16:02:34.031250
948,8.72,2022-10-26 16:02:34.046875
949,9.05,2022-10-26 16:02:34.062500
950,9.05,2022-10-26 16:02:34.078125
951,8.83,2022-10-26 16:02:34.093750
952,8.4,2022-10-26 16:02:34.109375
953,7.79,2022-10-26 16:02:34.125000
954,7.01,2022-10-26 16:02:34.140625
955,6.17,2022-10-26 16:02:34.156250
956,5.41,2022-10-26 16:02:34.171875
957,4.86,2022-10-26 16:02:34.187500
958,4.63,2022-10-26 16:02:34.203125
959,4.72,2022-10-26 16:02:34.218750
960,5.05,2022-10-26 16:02:34.234375
961,5.53,2022-10-26 16:02:34.250000
962,6.04,2022-10-26 16:02:34.265625
963,6.47,2022-10-26 16:02:34.281250
964,6.72,2022-10-26 16:02:34.296875
965,6.72,2022-10-26 16:02:34.312500
966,6.39,2022-10-26 16:02:34.328125
967,5.72,2022-10-26 16:02:34.343750
968,4.75,2022-10-26 16:02:34.359375
969,3.57,2022-10-26 16:02:34.375000
970,2.29,2022-10-26 16:02:34.390625
971,1.01,2022-10-26 16:02:34.406250
972,-0.24,2022-10-26 16:02:34.421875
973,-1.47,2022-10-26 16:02:34.437500
974,-2.72,2022-10-26 16:02:34.453125
975,-4.02,2022-10-26 16:02:34.468750
976,-5.36,2022-10-26 16:02:34.484375
977,-6.7,2022-10-26 16:02:34.500000
978,-7.98,2022-10-26 16:02:34.515625
979,-9.15,2022-10-26 16:02:34.531250
980,-10.2,2022-10-26 16:02:34.546875
981,-11.14,2022-10-26 16:02:34.562500
982,-12.04,2022-10-26 16:02:34.578125
983,-13.01,2022-10-26 16:02:34.593750
984,-14.19,2022-10-26 16:02:34.609375
985,-15.65,2022-10-26 16:02:34.625000
986,-17.29,2022-10-26 16:02:34.640625
987,-18.86,2022-10-26 16:02:34.656250
988,-19.88,2022-10-26 16:02:34.671875
989,-19.85,2022-10-26 16:02:34.687500
990,-18.41,2022-10-26 16:02:34.703125
991,-15.52,2022-10-26 16:02:34.718750
992,-11.52,2022-10-26 16:02:34.734375
993,-7.0,2022-10-26 16:02:34.750000
994,-2.63,2022-10-26 16:02:34.765625
995,1.12,2022-10-26 16:02:34.781250
996,4.02,2022-10-26 16:02:34.796875
997,6.13,2022-10-26 16:02:34.812500
998,7.57,2022-10-26 16:02:34.828125
999,8.5,2022-10-26 16:02:34.843750
1000,8.98,2022-10-26 16:02:34.859375
1001,9.03,2022-10-26 16:02:34.875000
1002,8.67,2022-10-26 16:02:34.890625
1003,8.01,2022-10-26 16:02:34.906250
1004,7.19,2022-10-26 16:02:34.921875
1005,6.37,2022-10-26 16:02:34.937500
1006,5.69,2022-10-26 16:02:34.953125
1007,5.21,2022-10-26 16:02:34.968750
1008,4.91,2022-10-26 16:02:34.984375
1009,4.72,2022-10-26 16:02:35.000000
1010,4.58,2022-10-26 16:02:35.015625
1011,4.41,2022-10-26 16:02:35.031250
1012,4.19,2022-10-26 16:02:35.046875
1013,3.93,2022-10-26 16:02:35.062500
1014,3.7,2022-10-26 16:02:35.078125
1015,3.54,2022-10-26 16:02:35.093750
1016,3.5,2022-10-26 16:02:35.109375
1017,3.52,2022-10-26 16:02:35.125000
1018,3.5,2022-10-26 16:02:35.140625
1019,3.28,2022-10-26 16:02:35.156250
1020,2.76,2022-10-26 16:02:35.171875
1021,1.9,2022-10-26 16:02:35.187500
1022,0.76,2022-10-26 16:02:35.203125
1023,-0.55,2022-10-26 16:02:35.218750
1024,-1.93,2022-10-26 16:02:35.234375
1025,-3.32,2022-10-26 16:02:35.250000
1026,-4.74,2022-10-26 16:02:35.265625
1027,-6.21,2022-10-26 16:02:35.281250
1028,-7.69,2022-10-26 16:02:35.296875
1029,-9.1,2022-10-26 16:02:35.312500
1030,-10.34,2022-10-26 16:02:35.328125
1031,-11.38,2022-10-26 16:02:35.343750
1032,-12.31,2022-10-26 16:02:35.359375
1033,-13.33,2022-10-26 16:02:35.375000
1034,-14.65,2022-10-26 16:02:35.390625
1035,-16.34,2022-10-26 16:02:35.406250
1036,-18.24,2022-10-26 16:02:35.421875
1037,-19.92,2022-10-26 16:02:35.437500
1038,-20.89,2022-10-26 16:02:35.453125
1039,-20.68,2022-10-26 16:02:35.468750
1040,-19.08,2022-10-26 16:02:35.484375
1041,-16.18,2022-10-26 16:02:35.500000
1042,-12.36,2022-10-26 16:02:35.515625
1043,-8.11,2022-10-26 16:02:35.531250
1044,-3.96,2022-10-26 16:02:35.546875
1045,-0.24,2022-10-26 16:02:35.562500
1046,2.85,2022-10-26 16:02:35.578125
1047,5.25,2022-10-26 16:02:35.593750
1048,6.99,2022-10-26 16:02:35.609375
1049,8.12,2022-10-26 16:02:35.625000
1050,8.68,2022-10-26 16:02:35.640625
1051,8.75,2022-10-26 16:02:35.656250
1052,8.42,2022-10-26 16:02:35.671875
1053,7.82,2022-10-26 16:02:35.687500
1054,7.08,2022-10-26 16:02:35.703125
1055,6.29,2022-10-26 16:02:35.718750
1056,5.52,2022-10-26 16:02:35.734375
1057,4.79,2022-10-26 16:02:35.750000
1058,4.15,2022-10-26 16:02:35.765625
1059,3.58,2022-10-26 16:02:35.781250
1060,3.12,2022-10-26 16:02:35.796875
1061,2.79,2022-10-26 16:02:35.812500
1062,2.58,2022-10-26 16:02:35.828125
1063,2.47,2022-10-26 16:02:35.843750
1064,2.42,2022-10-26 16:02:35.859375
1065,2.41,2022-10-26 16:02:35.875000
1066,2.42,2022-10-26 16:02:35.890625
1067,2.42,2022-10-26 16:02:35.906250
1068,2.37,2022-10-26 16:02:35.921875
1069,2.2,2022-10-26 16:02:35.937500
1070,1.81,2022-10-26 16:02:35.953125
1071,1.08,2022-10-26 16:02:35.968750
1072,-0.02,2022-10-26 16:02:35.984375
1073,-1.43,2022-10-26 16:02:36.000000
1074,-2.99,2022-10-26 16:02:36.015625
1075,-4.49,2022-10-26 16:02:36.031250
1076,-5.78,2022-10-26 16:02:36.046875
1077,-6.85,2022-10-26 16:02:36.062500
1078,-7.78,2022-10-26 16:02:36.078125
1079,-8.75,2022-10-26 16:02:36.093750
1080,-9.89,2022-10-26 16:02:36.109375
1081,-11.2,2022-10-26 16:02:36.125000
1082,-12.64,2022-10-26 16:02:36.140625
1083,-14.09,2022-10-26 16:02:36.156250
1084,-15.48,2022-10-26 16:02:36.171875
1085,-16.74,2022-10-26 16:02:36.187500
1086,-17.76,2022-10-26 16:02:36.203125
1087,-18.34,2022-10-26 16:02:36.218750
1088,-18.18,2022-10-26 16:02:36.234375
1089,-16.95,2022-10-26 16:02:36.250000
1090,-14.51,2022-10-26 16:02:36.265625
1091,-10.95,2022-10-26 16:02:36.281250
1092,-6.67,2022-10-26 16:02:36.296875
1093,-2.24,2022-10-26 16:02:36.312500
1094,1.81,2022-10-26 16:02:36.328125
1095,5.11,2022-10-26 16:02:36.343750
1096,7.54,2022-10-26 16:02:36.359375
1097,9.16,2022-10-26 16:02:36.375000
1098,10.12,2022-10-26 16:02:36.390625
1099,10.57,2022-10-26 16:02:36.406250
1100,10.54,2022-10-26 16:02:36.421875
1101,10.04,2022-10-26 16:02:36.437500
1102,9.1,2022-10-26 16:02:36.453125
1103,7.82,2022-10-26 16:02:36.468750
1104,6.34,2022-10-26 16:02:36.484375
1105,4.89,2022-10-26 16:02:36.500000
1106,3.62,2022-10-26 16:02:36.515625
1107,2.65,2022-10-26 16:02:36.531250
1108,1.97,2022-10-26 16:02:36.546875
1109,1.5,2022-10-26 16:02:36.562500
1110,1.12,2022-10-26 16:02:36.578125
1111,0.68,2022-10-26 16:02:36.593750
1112,0.09,2022-10-26 16:02:36.609375
1113,-0.67,2022-10-26 16:02:36.625000
1114,-1.54,2022-10-26 16:02:36.640625
1115,-2.4,2022-10-26 16:02:36.656250
1116,-3.16,2022-10-26 16:02:36.671875
1117,-3.79,2022-10-26 16:02:36.687500
1118,-4.35,2022-10-26 16:02:36.703125
1119,-4.96,2022-10-26 16:02:36.718750
1120,-5.75,2022-10-26 16:02:36.734375
1121,-6.74,2022-10-26 16:02:36.750000
1122,-7.85,2022-10-26 16:02:36.765625
1123,-8.93,2022-10-26 16:02:36.781250
1124,-9.82,2022-10-26 16:02:36.796875
1125,-10.45,2022-10-26 16:02:36.812500
1126,-10.9,2022-10-26 16:02:36.828125
1127,-11.36,2022-10-26 16:02:36.843750
1128,-12.03,2022-10-26 16:02:36.859375
1129,-13.11,2022-10-26 16:02:36.875000
1130,-14.63,2022-10-26 16:02:36.890625
1131,-16.47,2022-10-26 16:02:36.906250
1132,-18.35,2022-10-26 16:02:36.921875
1133,-19.93,2022-10-26 16:02:36.937500
1134,-20.85,2022-10-26 16:02:36.953125
1135,-20.85,2022-10-26 16:02:36.968750
1136,-19.81,2022-10-26 16:02:36.984375
1137,-17.73,2022-10-26 16:02:37.000000
1138,-14.73,2022-10-26 16:02:37.015625
1139,-10.97,2022-10-26 16:02:37.031250
1140,-6.67,2022-10-26 16:02:37.046875
1141,-2.1,2022-10-26 16:02:37.062500
1142,2.46,2022-10-26 16:02:37.078125
1143,6.68,2022-10-26 16:02:37.093750
1144,10.26,2022-10-26 16:02:37.109375
1145,12.94,2022-10-26 16:02:37.125000
1146,14.59,2022-10-26 16:02:37.140625
1147,15.18,2022-10-26 16:02:37.156250
1148,14.82,2022-10-26 16:02:37.171875
1149,13.7,2022-10-26 16:02:37.187500
1150,12.09,2022-10-26 16:02:37.203125
1151,10.37,2022-10-26 16:02:37.218750
1152,8.92,2022-10-26 16:02:37.234375
1153,8.13,2022-10-26 16:02:37.250000
1154,8.2,2022-10-26 16:02:37.265625
1155,9.17,2022-10-26 16:02:37.281250
1156,10.81,2022-10-26 16:02:37.296875
1157,12.86,2022-10-26 16:02:37.312500
1158,15.16,2022-10-26 16:02:37.328125
1159,17.9,2022-10-26 16:02:37.343750
1160,21.61,2022-10-26 16:02:37.359375
1161,27.0,2022-10-26 16:02:37.375000
1162,34.58,2022-10-26 16:02:37.390625
1163,44.39,2022-10-26 16:02:37.406250
1164,55.75,2022-10-26 16:02:37.421875
1165,67.44,2022-10-26 16:02:37.437500
1166,77.99,2022-10-26 16:02:37.453125
1167,86.1,2022-10-26 16:02:37.468750
1168,91.0,2022-10-26 16:02:37.484375
1169,92.59,2022-10-26 16:02:37.500000
1170,91.25,2022-10-26 16:02:37.515625
1171,87.65,2022-10-26 16:02:37.531250
1172,82.41,2022-10-26 16:02:37.546875
1173,75.97,2022-10-26 16:02:37.562500
1174,68.57,2022-10-26 16:02:37.578125
1175,60.3,2022-10-26 16:02:37.593750
1176,51.23,2022-10-26 16:02:37.609375
1177,41.49,2022-10-26 16:02:37.625000
1178,31.31,2022-10-26 16:02:37.640625
1179,20.99,2022-10-26 16:02:37.656250
1180,10.97,2022-10-26 16:02:37.671875
1181,1.79,2022-10-26 16:02:37.687500
1182,-5.91,2022-10-26 16:02:37.703125
1183,-11.52,2022-10-26 16:02:37.718750
1184,-14.52,2022-10-26 16:02:37.734375
1185,-14.71,2022-10-26 16:02:37.750000
1186,-12.27,2022-10-26 16:02:37.765625
1187,-7.76,2022-10-26 16:02:37.781250
1188,-2.09,2022-10-26 16:02:37.796875
1189,3.69,2022-10-26 16:02:37.812500
1190,8.55,2022-10-26 16:02:37.828125
1191,11.62,2022-10-26 16:02:37.843750
1192,12.33,2022-10-26 16:02:37.859375
1193,10.47,2022-10-26 16:02:37.875000
1194,6.19,2022-10-26 16:02:37.890625
1195,-0.1,2022-10-26 16:02:37.906250
1196,-7.78,2022-10-26 16:02:37.921875
1197,-16.18,2022-10-26 16:02:37.937500
1198,-24.67,2022-10-26 16:02:37.953125
1199,-32.78,2022-10-26 16:02:37.968750
1200,-40.21,2022-10-26 16:02:37.984375
1201,-46.84,2022-10-26 16:02:38.000000
1202,-52.67,2022-10-26 16:02:38.015625
1203,-57.67,2022-10-26 16:02:38.031250
1204,-61.69,2022-10-26 16:02:38.046875
1205,-64.47,2022-10-26 16:02:38.062500
1206,-65.72,2022-10-26 16:02:38.078125
1207,-65.28,2022-10-26 16:02:38.093750
1208,-63.28,2022-10-26 16:02:38.109375
1209,-60.1,2022-10-26 16:02:38.125000
1210,-56.32,2022-10-26 16:02:38.140625
1211,-52.45,2022-10-26 16:02:38.156250
1212,-48.82,2022-10-26 16:02:38.171875
1213,-45.51,2022-10-26 16:02:38.187500
1214,-42.45,2022-10-26 16:02:38.203125
1215,-39.56,2022-10-26 16:02:38.218750
1216,-36.85,2022-10-26 16:02:38.234375
1217,-34.41,2022-10-26 16:02:38.250000
1218,-32.44,2022-10-26 16:02:38.265625
1219,-31.07,2022-10-26 16:02:38.281250
1220,-30.44,2022-10-26 16:02:38.296875
1221,-30.56,2022-10-26 16:02:38.312500
1222,-31.4,2022-10-26 16:02:38.328125
1223,-32.8,2022-10-26 16:02:38.343750
1224,-34.43,2022-10-26 16:02:38.359375
1225,-35.81,2022-10-26 16:02:38.375000
1226,-36.33,2022-10-26 16:02:38.390625
1227,-35.47,2022-10-26 16:02:38.406250
1228,-32.95,2022-10-26 16:02:38.421875
1229,-28.84,2022-10-26 16:02:38.437500
1230,-23.5,2022-10-26 16:02:38.453125
1231,-17.52,2022-10-26 16:02:38.468750
1232,-11.5,2022-10-26 16:02:38.484375
1233,-5.91,2022-10-26 16:02:38.500000
1234,-1.04,2022-10-26 16:02:38.515625
1235,2.95,2022-10-26 16:02:38.531250
1236,6.0,2022-10-26 16:02:38.546875
1237,8.07,2022-10-26 16:02:38.562500
1238,9.17,2022-10-26 16:02:38.578125
1239,9.38,2022-10-26 16:02:38.593750
1240,8.91,2022-10-26 16:02:38.609375
1241,8.09,2022-10-26 16:02:38.625000
1242,7.31,2022-10-26 16:02:38.640625
1243,6.93,2022-10-26 16:02:38.656250
1244,7.11,2022-10-26 16:02:38.671875
1245,7.82,2022-10-26 16:02:38.687500
1246,8.8,2022-10-26 16:02:38.703125
1247,9.77,2022-10-26 16:02:38.718750
1248,10.51,2022-10-26 16:02:38.734375
1249,10.95,2022-10-26 16:02:38.750000
1250,11.23,2022-10-26 16:02:38.765625
1251,11.48,2022-10-26 16:02:38.781250
1252,11.79,2022-10-26 16:02:38.796875
1253,12.03,2022-10-26 16:02:38.812500
1254,11.97,2022-10-26 16:02:38.828125
1255,11.39,2022-10-26 16:02:38.843750
1256,10.19,2022-10-26 16:02:38.859375
1257,8.53,2022-10-26 16:02:38.875000
1258,6.69,2022-10-26 16:02:38.890625
1259,4.97,2022-10-26 16:02:38.906250
1260,3.53,2022-10-26 16:02:38.921875
1261,2.32,2022-10-26 16:02:38.937500
1262,1.11,2022-10-26 16:02:38.953125
1263,-0.35,2022-10-26 16:02:38.968750
1264,-2.27,2022-10-26 16:02:38.984375
1265,-4.72,2022-10-26 16:02:39.000000
1266,-7.61,2022-10-26 16:02:39.015625
1267,-10.79,2022-10-26 16:02:39.031250
1268,-14.01,2022-10-26 16:02:39.046875
1269,-16.94,2022-10-26 16:02:39.062500
1270,-19.15,2022-10-26 16:02:39.078125
1271,-20.16,2022-10-26 16:02:39.093750
1272,-19.54,2022-10-26 16:02:39.109375
1273,-17.11,2022-10-26 16:02:39.125000
1274,-13.04,2022-10-26 16:02:39.140625
1275,-7.82,2022-10-26 16:02:39.156250
1276,-2.14,2022-10-26 16:02:39.171875
1277,3.35,2022-10-26 16:02:39.187500
1278,8.21,2022-10-26 16:02:39.203125
1279,12.26,2022-10-26 16:02:39.218750
1280,15.43,2022-10-26 16:02:39.234375
1281,17.71,2022-10-26 16:02:39.250000
1282,19.01,2022-10-26 16:02:39.265625
1283,19.28,2022-10-26 16:02:39.281250
1284,18.58,2022-10-26 16:02:39.296875
1285,17.13,2022-10-26 16:02:39.312500
1286,15.34,2022-10-26 16:02:39.328125
1287,13.62,2022-10-26 16:02:39.343750
1288,12.25,2022-10-26 16:02:39.359375
1289,11.33,2022-10-26 16:02:39.375000
1290,10.74,2022-10-26 16:02:39.390625
1291,10.34,2022-10-26 16:02:39.406250
1292,10.01,2022-10-26 16:02:39.421875
1293,9.79,2022-10-26 16:02:39.437500
1294,9.77,2022-10-26 16:02:39.453125
1295,10.07,2022-10-26 16:02:39.468750
1296,10.69,2022-10-26 16:02:39.484375
1297,11.47,2022-10-26 16:02:39.500000
1298,12.15,2022-10-26 16:02:39.515625
1299,12.4,2022-10-26 16:02:39.531250
1300,12.03,2022-10-26 16:02:39.546875
1301,10.97,2022-10-26 16:02:39.562500
1302,9.37,2022-10-26 16:02:39.578125
1303,7.47,2022-10-26 16:02:39.593750
1304,5.55,2022-10-26 16:02:39.609375
1305,3.78,2022-10-26 16:02:39.625000
1306,2.17,2022-10-26 16:02:39.640625
1307,0.64,2022-10-26 16:02:39.656250
1308,-1.03,2022-10-26 16:02:39.671875
1309,-3.04,2022-10-26 16:02:39.687500
1310,-5.53,2022-10-26 16:02:39.703125
1311,-8.41,2022-10-26 16:02:39.718750
1312,-11.44,2022-10-26 16:02:39.734375
1313,-14.11,2022-10-26 16:02:39.750000
1314,-15.81,2022-10-26 16:02:39.765625
1315,-16.0,2022-10-26 16:02:39.781250
1316,-14.42,2022-10-26 16:02:39.796875
1317,-11.17,2022-10-26 16:02:39.812500
1318,-6.7,2022-10-26 16:02:39.828125
1319,-1.7,2022-10-26 16:02:39.843750
1320,3.22,2022-10-26 16:02:39.859375
1321,7.57,2022-10-26 16:02:39.875000
1322,11.14,2022-10-26 16:02:39.890625
1323,13.92,2022-10-26 16:02:39.906250
1324,15.95,2022-10-26 16:02:39.921875
1325,17.24,2022-10-26 16:02:39.937500
1326,17.77,2022-10-26 16:02:39.953125
1327,17.54,2022-10-26 16:02:39.968750
1328,16.62,2022-10-26 16:02:39.984375
1329,15.21,2022-10-26 16:02:40.000000
1330,13.52,2022-10-26 16:02:40.015625
1331,11.81,2022-10-26 16:02:40.031250
1332,10.18,2022-10-26 16:02:40.046875
1333,8.68,2022-10-26 16:02:40.062500
1334,7.27,2022-10-26 16:02:40.078125
1335,5.95,2022-10-26 16:02:40.093750
1336,4.8,2022-10-26 16:02:40.109375
1337,3.95,2022-10-26 16:02:40.125000
1338,3.5,2022-10-26 16:02:40.140625
1339,3.49,2022-10-26 16:02:40.156250
1340,3.78,2022-10-26 16:02:40.171875
1341,4.14,2022-10-26 16:02:40.187500
1342,4.3,2022-10-26 16:02:40.203125
1343,4.05,2022-10-26 16:02:40.218750
1344,3.28,2022-10-26 16:02:40.234375
1345,2.07,2022-10-26 16:02:40.250000
1346,0.55,2022-10-26 16:02:40.265625
1347,-1.08,2022-10-26 16:02:40.281250
1348,-2.67,2022-10-26 16:02:40.296875
1349,-4.13,2022-10-26 16:02:40.312500
1350,-5.52,2022-10-26 16:02:40.328125
1351,-6.97,2022-10-26 16:02:40.343750
1352,-8.71,2022-10-26 16:02:40.359375
1353,-10.88,2022-10-26 16:02:40.375000
1354,-13.47,2022-10-26 16:02:40.390625
1355,-16.22,2022-10-26 16:02:40.406250
1356,-18.59,2022-10-26 16:02:40.421875
1357,-19.93,2022-10-26 16:02:40.437500
1358,-19.73,2022-10-26 16:02:40.453125
1359,-17.76,2022-10-26 16:02:40.468750
1360,-14.24,2022-10-26 16:02:40.484375
1361,-9.71,2022-10-26 16:02:40.500000
1362,-4.89,2022-10-26 16:02:40.515625
1363,-0.38,2022-10-26 16:02:40.531250
1364,3.47,2022-10-26 16:02:40.546875
1365,6.57,2022-10-26 16:02:40.562500
1366,8.98,2022-10-26 16:02:40.578125
1367,10.78,2022-10-26 16:02:40.593750
1368,11.99,2022-10-26 16:02:40.609375
1369,12.57,2022-10-26 16:02:40.625000
1370,12.51,2022-10-26 16:02:40.640625
1371,11.84,2022-10-26 16:02:40.656250
1372,10.73,2022-10-26 16:02:40.671875
1373,9.37,2022-10-26 16:02:40.687500
1374,7.97,2022-10-26 16:02:40.703125
1375,6.71,2022-10-26 16:02:40.718750
1376,5.73,2022-10-26 16:02:40.734375
1377,5.15,2022-10-26 16:02:40.750000
1378,5.03,2022-10-26 16:02:40.765625
1379,5.38,2022-10-26 16:02:40.781250
1380,6.13,2022-10-26 16:02:40.796875
1381,7.14,2022-10-26 16:02:40.812500
1382,8.2,2022-10-26 16:02:40.828125
1383,9.11,2022-10-26 16:02:40.843750
1384,9.68,2022-10-26 16:02:40.859375
1385,9.79,2022-10-26 16:02:40.875000
1386,9.38,2022-10-26 16:02:40.890625
1387,8.44,2022-10-26 16:02:40.906250
1388,7.06,2022-10-26 16:02:40.921875
1389,5.4,2022-10-26 16:02:40.937500
1390,3.61,2022-10-26 16:02:40.953125
1391,1.84,2022-10-26 16:02:40.968750
1392,0.16,2022-10-26 16:02:40.984375
1393,-1.49,2022-10-26 16:02:41.000000
1394,-3.23,2022-10-26 16:02:41.015625
1395,-5.22,2022-10-26 16:02:41.031250
1396,-7.55,2022-10-26 16:02:41.046875
1397,-10.13,2022-10-26 16:02:41.062500
1398,-12.71,2022-10-26 16:02:41.078125
1399,-14.83,2022-10-26 16:02:41.093750
1400,-16.0,2022-10-26 16:02:41.109375
1401,-15.78,2022-10-26 16:02:41.125000
1402,-14.01,2022-10-26 16:02:41.140625
1403,-10.85,2022-10-26 16:02:41.156250
1404,-6.73,2022-10-26 16:02:41.171875
1405,-2.26,2022-10-26 16:02:41.187500
1406,2.03,2022-10-26 16:02:41.203125
1407,5.77,2022-10-26 16:02:41.218750
1408,8.82,2022-10-26 16:02:41.234375
1409,11.2,2022-10-26 16:02:41.250000
1410,12.91,2022-10-26 16:02:41.265625
1411,13.96,2022-10-26 16:02:41.281250
1412,14.28,2022-10-26 16:02:41.296875
1413,13.85,2022-10-26 16:02:41.312500
1414,12.81,2022-10-26 16:02:41.328125
1415,11.37,2022-10-26 16:02:41.343750
1416,9.81,2022-10-26 16:02:41.359375
1417,8.36,2022-10-26 16:02:41.375000
1418,7.12,2022-10-26 16:02:41.390625
1419,6.08,2022-10-26 16:02:41.406250
1420,5.18,2022-10-26 16:02:41.421875
1421,4.39,2022-10-26 16:02:41.437500
1422,3.77,2022-10-26 16:02:41.453125
1423,3.38,2022-10-26 16:02:41.468750
1424,3.28,2022-10-26 16:02:41.484375
1425,3.42,2022-10-26 16:02:41.500000
1426,3.65,2022-10-26 16:02:41.515625
1427,3.78,2022-10-26 16:02:41.531250
1428,3.64,2022-10-26 16:02:41.546875
1429,3.17,2022-10-26 16:02:41.562500
1430,2.39,2022-10-26 16:02:41.578125
1431,1.41,2022-10-26 16:02:41.593750
1432,0.32,2022-10-26 16:02:41.609375
1433,-0.81,2022-10-26 16:02:41.625000
1434,-1.98,2022-10-26 16:02:41.640625
1435,-3.23,2022-10-26 16:02:41.656250
1436,-4.61,2022-10-26 16:02:41.671875
1437,-6.19,2022-10-26 16:02:41.687500
1438,-8.0,2022-10-26 16:02:41.703125
1439,-10.06,2022-10-26 16:02:41.718750
1440,-12.37,2022-10-26 16:02:41.734375
1441,-14.81,2022-10-26 16:02:41.750000
1442,-17.15,2022-10-26 16:02:41.765625
1443,-18.99,2022-10-26 16:02:41.781250
1444,-19.83,2022-10-26 16:02:41.796875
1445,-19.24,2022-10-26 16:02:41.812500
1446,-17.03,2022-10-26 16:02:41.828125
1447,-13.35,2022-10-26 16:02:41.843750
1448,-8.73,2022-10-26 16:02:41.859375
1449,-3.84,2022-10-26 16:02:41.875000
1450,0.68,2022-10-26 16:02:41.890625
1451,4.45,2022-10-26 16:02:41.906250
1452,7.33,2022-10-26 16:02:41.921875
1453,9.39,2022-10-26 16:02:41.937500
1454,10.76,2022-10-26 16:02:41.953125
1455,11.51,2022-10-26 16:02:41.968750
1456,11.67,2022-10-26 16:02:41.984375
1457,11.32,2022-10-26 16:02:42.000000
1458,10.6,2022-10-26 16:02:42.015625
1459,9.72,2022-10-26 16:02:42.031250
1460,8.9,2022-10-26 16:02:42.046875
1461,8.31,2022-10-26 16:02:42.062500
1462,7.95,2022-10-26 16:02:42.078125
1463,7.76,2022-10-26 16:02:42.093750
1464,7.65,2022-10-26 16:02:42.109375
1465,7.53,2022-10-26 16:02:42.125000
1466,7.43,2022-10-26 16:02:42.140625
1467,7.4,2022-10-26 16:02:42.156250
1468,7.47,2022-10-26 16:02:42.171875
1469,7.61,2022-10-26 16:02:42.187500
1470,7.74,2022-10-26 16:02:42.203125
1471,7.69,2022-10-26 16:02:42.218750
1472,7.32,2022-10-26 16:02:42.234375
1473,6.55,2022-10-26 16:02:42.250000
1474,5.4,2022-10-26 16:02:42.265625
1475,4.0,2022-10-26 16:02:42.281250
1476,2.52,2022-10-26 16:02:42.296875
1477,1.12,2022-10-26 16:02:42.312500
1478,-0.12,2022-10-26 16:02:42.328125
1479,-1.25,2022-10-26 16:02:42.343750
1480,-2.38,2022-10-26 16:02:42.359375
1481,-3.68,2022-10-26 16:02:42.375000
1482,-5.26,2022-10-26 16:02:42.390625
1483,-7.15,2022-10-26 16:02:42.406250
1484,-9.25,2022-10-26 16:02:42.421875
1485,-11.35,2022-10-26 16:02:42.437500
1486,-13.12,2022-10-26 16:02:42.453125
1487,-14.22,2022-10-26 16:02:42.468750
1488,-14.35,2022-10-26 16:02:42.484375
1489,-13.27,2022-10-26 16:02:42.500000
1490,-10.95,2022-10-26 16:02:42.515625
1491,-7.56,2022-10-26 16:02:42.531250
1492,-3.47,2022-10-26 16:02:42.546875
1493,0.82,2022-10-26 16:02:42.562500
1494,4.73,2022-10-26 16:02:42.578125
1495,7.8,2022-10-26 16:02:42.593750
1496,9.77,2022-10-26 16:02:42.609375
1497,10.62,2022-10-26 16:02:42.625000
1498,10.57,2022-10-26 16:02:42.640625
1499,9.92,2022-10-26 16:02:42.656250
1500,9.0,2022-10-26 16:02:42.671875
1501,7.99,2022-10-26 16:02:42.687500
1502,6.98,2022-10-26 16:02:42.703125
1503,5.97,2022-10-26 16:02:42.718750
1504,4.99,2022-10-26 16:02:42.734375
1505,4.13,2022-10-26 16:02:42.750000
1506,3.49,2022-10-26 16:02:42.765625
1507,3.17,2022-10-26 16:02:42.781250
1508,3.15,2022-10-26 16:02:42.796875
1509,3.32,2022-10-26 16:02:42.812500
1510,3.53,2022-10-26 16:02:42.828125
1511,3.65,2022-10-26 16:02:42.843750
1512,3.64,2022-10-26 16:02:42.859375
1513,3.58,2022-10-26 16:02:42.875000
1514,3.56,2022-10-26 16:02:42.890625
1515,3.65,2022-10-26 16:02:42.906250
1516,3.85,2022-10-26 16:02:42.921875
1517,4.06,2022-10-26 16:02:42.937500
1518,4.16,2022-10-26 16:02:42.953125
1519,4.0,2022-10-26 16:02:42.968750
1520,3.49,2022-10-26 16:02:42.984375
1521,2.62,2022-10-26 16:02:43.000000
1522,1.48,2022-10-26 16:02:43.015625
1523,0.19,2022-10-26 16:02:43.031250
1524,-1.08,2022-10-26 16:02:43.046875
1525,-2.24,2022-10-26 16:02:43.062500
1526,-3.28,2022-10-26 16:02:43.078125
1527,-4.26,2022-10-26 16:02:43.093750
1528,-5.29,2022-10-26 16:02:43.109375
1529,-6.48,2022-10-26 16:02:43.125000
1530,-7.84,2022-10-26 16:02:43.140625
1531,-9.32,2022-10-26 16:02:43.156250
1532,-10.75,2022-10-26 16:02:43.171875
1533,-11.86,2022-10-26 16:02:43.187500
1534,-12.34,2022-10-26 16:02:43.203125
1535,-11.91,2022-10-26 16:02:43.218750
1536,-10.44,2022-10-26 16:02:43.234375
1537,-7.98,2022-10-26 16:02:43.250000
1538,-4.87,2022-10-26 16:02:43.265625
1539,-1.55,2022-10-26 16:02:43.281250
1540,1.5,2022-10-26 16:02:43.296875
1541,3.91,2022-10-26 16:02:43.312500
1542,5.56,2022-10-26 16:02:43.328125
1543,6.49,2022-10-26 16:02:43.343750
1544,6.88,2022-10-26 16:02:43.359375
1545,6.88,2022-10-26 16:02:43.375000
1546,6.57,2022-10-26 16:02:43.390625
1547,5.96,2022-10-26 16:02:43.406250
1548,5.09,2022-10-26 16:02:43.421875
1549,4.04,2022-10-26 16:02:43.437500
1550,3.0,2022-10-26 16:02:43.453125
1551,2.15,2022-10-26 16:02:43.468750
1552,1.65,2022-10-26 16:02:43.484375
1553,1.54,2022-10-26 16:02:43.500000
1554,1.75,2022-10-26 16:02:43.515625
1555,2.13,2022-10-26 16:02:43.531250
1556,2.56,2022-10-26 16:02:43.546875
1557,3.0,2022-10-26 16:02:43.562500
1558,3.47,2022-10-26 16:02:43.578125
1559,4.04,2022-10-26 16:02:43.593750
1560,4.7,2022-10-26 16:02:43.609375
1561,5.34,2022-10-26 16:02:43.625000
1562,5.76,2022-10-26 16:02:43.640625
1563,5.81,2022-10-26 16:02:43.656250
1564,5.41,2022-10-26 16:02:43.671875
1565,4.66,2022-10-26 16:02:43.687500
1566,3.77,2022-10-26 16:02:43.703125
1567,2.92,2022-10-26 16:02:43.718750
1568,2.21,2022-10-26 16:02:43.734375
1569,1.58,2022-10-26 16:02:43.750000
1570,0.88,2022-10-26 16:02:43.765625
1571,-0.01,2022-10-26 16:02:43.781250
1572,-1.1,2022-10-26 16:02:43.796875
1573,-2.3,2022-10-26 16:02:43.812500
1574,-3.48,2022-10-26 16:02:43.828125
1575,-4.64,2022-10-26 16:02:43.843750
1576,-5.81,2022-10-26 16:02:43.859375
1577,-7.03,2022-10-26 16:02:43.875000
1578,-8.19,2022-10-26 16:02:43.890625
1579,-9.02,2022-10-26 16:02:43.906250
1580,-9.09,2022-10-26 16:02:43.921875
1581,-8.06,2022-10-26 16:02:43.937500
1582,-5.84,2022-10-26 16:02:43.953125
1583,-2.66,2022-10-26 16:02:43.968750
1584,0.98,2022-10-26 16:02:43.984375
1585,4.48,2022-10-26 16:02:44.000000
1586,7.37,2022-10-26 16:02:44.015625
1587,9.42,2022-10-26 16:02:44.031250
1588,10.66,2022-10-26 16:02:44.046875
1589,11.3,2022-10-26 16:02:44.062500
1590,11.58,2022-10-26 16:02:44.078125
1591,11.64,2022-10-26 16:02:44.093750
1592,11.54,2022-10-26 16:02:44.109375
1593,11.26,2022-10-26 16:02:44.125000
1594,10.75,2022-10-26 16:02:44.140625
1595,10.07,2022-10-26 16:02:44.156250
1596,9.31,2022-10-26 16:02:44.171875
1597,8.61,2022-10-26 16:02:44.187500
1598,8.09,2022-10-26 16:02:44.203125
1599,7.75,2022-10-26 16:02:44.218750
1600,7.53,2022-10-26 16:02:44.234375
1601,7.32,2022-10-26 16:02:44.250000
1602,7.0,2022-10-26 16:02:44.265625
1603,6.55,2022-10-26 16:02:44.281250
1604,6.01,2022-10-26 16:02:44.296875
1605,5.43,2022-10-26 16:02:44.312500
1606,4.83,2022-10-26 16:02:44.328125
1607,4.13,2022-10-26 16:02:44.343750
1608,3.25,2022-10-26 16:02:44.359375
1609,2.05,2022-10-26 16:02:44.375000
1610,0.52,2022-10-26 16:02:44.390625
1611,-1.3,2022-10-26 16:02:44.406250
1612,-3.26,2022-10-26 16:02:44.421875
1613,-5.2,2022-10-26 16:02:44.437500
1614,-6.99,2022-10-26 16:02:44.453125
1615,-8.57,2022-10-26 16:02:44.468750
1616,-9.9,2022-10-26 16:02:44.484375
1617,-10.99,2022-10-26 16:02:44.500000
1618,-11.9,2022-10-26 16:02:44.515625
1619,-12.67,2022-10-26 16:02:44.531250
1620,-13.41,2022-10-26 16:02:44.546875
1621,-14.3,2022-10-26 16:02:44.562500
1622,-15.45,2022-10-26 16:02:44.578125
1623,-16.92,2022-10-26 16:02:44.593750
1624,-18.61,2022-10-26 16:02:44.609375
1625,-20.24,2022-10-26 16:02:44.625000
1626,-21.5,2022-10-26 16:02:44.640625
1627,-22.04,2022-10-26 16:02:44.656250
1628,-21.66,2022-10-26 16:02:44.671875
1629,-20.31,2022-10-26 16:02:44.687500
1630,-18.13,2022-10-26 16:02:44.703125
1631,-15.42,2022-10-26 16:02:44.718750
1632,-12.55,2022-10-26 16:02:44.734375
1633,-9.88,2022-10-26 16:02:44.750000
1634,-7.71,2022-10-26 16:02:44.765625
1635,-6.22,2022-10-26 16:02:44.781250
1636,-5.41,2022-10-26 16:02:44.796875
1637,-5.17,2022-10-26 16:02:44.812500
1638,-5.3,2022-10-26 16:02:44.828125
1639,-5.64,2022-10-26 16:02:44.843750
1640,-6.1,2022-10-26 16:02:44.859375
1641,-6.66,2022-10-26 16:02:44.875000
1642,-7.36,2022-10-26 16:02:44.890625
1643,-8.22,2022-10-26 16:02:44.906250
1644,-9.2,2022-10-26 16:02:44.921875
1645,-10.15,2022-10-26 16:02:44.937500
1646,-10.87,2022-10-26 16:02:44.953125
1647,-11.17,2022-10-26 16:02:44.968750
1648,-10.97,2022-10-26 16:02:44.984375
1649,-10.28,2022-10-26 16:02:45.000000
1650,-9.27,2022-10-26 16:02:45.015625
1651,-8.11,2022-10-26 16:02:45.031250
1652,-6.92,2022-10-26 16:02:45.046875
1653,-5.75,2022-10-26 16:02:45.062500
1654,-4.56,2022-10-26 16:02:45.078125
1655,-3.32,2022-10-26 16:02:45.093750
1656,-2.0,2022-10-26 16:02:45.109375
1657,-0.7,2022-10-26 16:02:45.125000
1658,0.44,2022-10-26 16:02:45.140625
1659,1.26,2022-10-26 16:02:45.156250
1660,1.63,2022-10-26 16:02:45.171875
1661,1.47,2022-10-26 16:02:45.187500
1662,0.82,2022-10-26 16:02:45.203125
1663,-0.18,2022-10-26 16:02:45.218750
1664,-1.29,2022-10-26 16:02:45.234375
1665,-2.17,2022-10-26 16:02:45.250000
1666,-2.53,2022-10-26 16:02:45.265625
1667,-2.2,2022-10-26 16:02:45.281250
1668,-1.24,2022-10-26 16:02:45.296875
1669,0.03,2022-10-26 16:02:45.312500
1670,1.15,2022-10-26 16:02:45.328125
1671,1.59,2022-10-26 16:02:45.343750
1672,0.99,2022-10-26 16:02:45.359375
1673,-0.77,2022-10-26 16:02:45.375000
1674,-3.45,2022-10-26 16:02:45.390625
1675,-6.56,2022-10-26 16:02:45.406250
1676,-9.42,2022-10-26 16:02:45.421875
1677,-11.37,2022-10-26 16:02:45.437500
1678,-11.93,2022-10-26 16:02:45.453125
1679,-10.97,2022-10-26 16:02:45.468750
1680,-8.74,2022-10-26 16:02:45.484375
1681,-5.75,2022-10-26 16:02:45.500000
1682,-2.62,2022-10-26 16:02:45.515625
1683,0.21,2022-10-26 16:02:45.531250
1684,2.52,2022-10-26 16:02:45.546875
1685,4.35,2022-10-26 16:02:45.562500
1686,5.84,2022-10-26 16:02:45.578125
1687,7.08,2022-10-26 16:02:45.593750
1688,8.04,2022-10-26 16:02:45.609375
1689,8.6,2022-10-26 16:02:45.625000
1690,8.67,2022-10-26 16:02:45.640625
1691,8.32,2022-10-26 16:02:45.656250
1692,7.8,2022-10-26 16:02:45.671875
1693,7.42,2022-10-26 16:02:45.687500
1694,7.43,2022-10-26 16:02:45.703125
1695,7.9,2022-10-26 16:02:45.718750
1696,8.64,2022-10-26 16:02:45.734375
1697,9.35,2022-10-26 16:02:45.750000
1698,9.73,2022-10-26 16:02:45.765625
1699,9.71,2022-10-26 16:02:45.781250
1700,9.47,2022-10-26 16:02:45.796875
1701,9.37,2022-10-26 16:02:45.812500
1702,9.79,2022-10-26 16:02:45.828125
1703,10.91,2022-10-26 16:02:45.843750
1704,12.58,2022-10-26 16:02:45.859375
1705,14.32,2022-10-26 16:02:45.875000
1706,15.57,2022-10-26 16:02:45.890625
1707,15.88,2022-10-26 16:02:45.906250
1708,15.26,2022-10-26 16:02:45.921875
1709,14.09,2022-10-26 16:02:45.937500
1710,13.05,2022-10-26 16:02:45.953125
1711,12.75,2022-10-26 16:02:45.968750
1712,13.48,2022-10-26 16:02:45.984375
1713,15.08,2022-10-26 16:02:46.000000
1714,17.1,2022-10-26 16:02:46.015625
1715,19.12,2022-10-26 16:02:46.031250
1716,20.92,2022-10-26 16:02:46.046875
1717,22.62,2022-10-26 16:02:46.062500
1718,24.48,2022-10-26 16:02:46.078125
1719,26.75,2022-10-26 16:02:46.093750
1720,29.52,2022-10-26 16:02:46.109375
1721,32.88,2022-10-26 16:02:46.125000
1722,36.91,2022-10-26 16:02:46.140625
1723,41.74,2022-10-26 16:02:46.156250
1724,47.22,2022-10-26 16:02:46.171875
1725,52.64,2022-10-26 16:02:46.187500
1726,56.6,2022-10-26 16:02:46.203125
1727,57.38,2022-10-26 16:02:46.218750
1728,53.67,2022-10-26 16:02:46.234375
1729,45.2,2022-10-26 16:02:46.250000
1730,33.06,2022-10-26 16:02:46.265625
1731,19.36,2022-10-26 16:02:46.281250
1732,6.46,2022-10-26 16:02:46.296875
1733,-3.84,2022-10-26 16:02:46.312500
1734,-10.76,2022-10-26 16:02:46.328125
1735,-14.4,2022-10-26 16:02:46.343750
1736,-15.42,2022-10-26 16:02:46.359375
1737,-14.57,2022-10-26 16:02:46.375000
1738,-12.47,2022-10-26 16:02:46.390625
1739,-9.77,2022-10-26 16:02:46.406250
1740,-7.24,2022-10-26 16:02:46.421875
1741,-5.87,2022-10-26 16:02:46.437500
1742,-6.7,2022-10-26 16:02:46.453125
1743,-10.41,2022-10-26 16:02:46.468750
1744,-16.96,2022-10-26 16:02:46.484375
1745,-25.5,2022-10-26 16:02:46.500000
1746,-34.57,2022-10-26 16:02:46.515625
1747,-42.52,2022-10-26 16:02:46.531250
1748,-48.2,2022-10-26 16:02:46.546875
1749,-51.26,2022-10-26 16:02:46.562500
1750,-52.2,2022-10-26 16:02:46.578125
1751,-51.99,2022-10-26 16:02:46.593750
1752,-51.57,2022-10-26 16:02:46.609375
1753,-51.36,2022-10-26 16:02:46.625000
1754,-51.25,2022-10-26 16:02:46.640625
1755,-50.74,2022-10-26 16:02:46.656250
1756,-49.44,2022-10-26 16:02:46.671875
1757,-47.32,2022-10-26 16:02:46.687500
1758,-44.75,2022-10-26 16:02:46.703125
1759,-42.3,2022-10-26 16:02:46.718750
1760,-40.36,2022-10-26 16:02:46.734375
1761,-38.96,2022-10-26 16:02:46.750000
1762,-37.76,2022-10-26 16:02:46.765625
1763,-36.28,2022-10-26 16:02:46.781250
1764,-34.22,2022-10-26 16:02:46.796875
1765,-31.61,2022-10-26 16:02:46.812500
1766,-28.91,2022-10-26 16:02:46.828125
1767,-26.66,2022-10-26 16:02:46.843750
1768,-25.31,2022-10-26 16:02:46.859375
1769,-24.95,2022-10-26 16:02:46.875000
1770,-25.21,2022-10-26 16:02:46.890625
1771,-25.51,2022-10-26 16:02:46.906250
1772,-25.17,2022-10-26 16:02:46.921875
1773,-23.71,2022-10-26 16:02:46.937500
1774,-20.93,2022-10-26 16:02:46.953125
1775,-16.92,2022-10-26 16:02:46.968750
1776,-11.97,2022-10-26 16:02:46.984375
1777,-6.49,2022-10-26 16:02:47.000000
1778,-0.87,2022-10-26 16:02:47.015625
1779,4.48,2022-10-26 16:02:47.031250
1780,9.25,2022-10-26 16:02:47.046875
1781,13.21,2022-10-26 16:02:47.062500
1782,16.24,2022-10-26 16:02:47.078125
1783,18.31,2022-10-26 16:02:47.093750
1784,19.5,2022-10-26 16:02:47.109375
1785,20.0,2022-10-26 16:02:47.125000
1786,19.99,2022-10-26 16:02:47.140625
1787,19.67,2022-10-26 16:02:47.156250
1788,19.19,2022-10-26 16:02:47.171875
1789,18.63,2022-10-26 16:02:47.187500
1790,18.04,2022-10-26 16:02:47.203125
1791,17.42,2022-10-26 16:02:47.218750
1792,16.81,2022-10-26 16:02:47.234375
1793,16.26,2022-10-26 16:02:47.250000
1794,15.83,2022-10-26 16:02:47.265625
1795,15.56,2022-10-26 16:02:47.281250
1796,15.41,2022-10-26 16:02:47.296875
1797,15.29,2022-10-26 16:02:47.312500
1798,15.01,2022-10-26 16:02:47.328125
1799,14.48,2022-10-26 16:02:47.343750
1800,13.64,2022-10-26 16:02:47.359375
1801,12.55,2022-10-26 16:02:47.375000
1802,11.29,2022-10-26 16:02:47.390625
1803,9.94,2022-10-26 16:02:47.406250
1804,8.53,2022-10-26 16:02:47.421875
1805,7.08,2022-10-26 16:02:47.437500
1806,5.58,2022-10-26 16:02:47.453125
1807,4.05,2022-10-26 16:02:47.468750
1808,2.5,2022-10-26 16:02:47.484375
1809,0.88,2022-10-26 16:02:47.500000
1810,-0.85,2022-10-26 16:02:47.515625
1811,-2.74,2022-10-26 16:02:47.531250
1812,-4.82,2022-10-26 16:02:47.546875
1813,-7.06,2022-10-26 16:02:47.562500
1814,-9.45,2022-10-26 16:02:47.578125
1815,-11.95,2022-10-26 16:02:47.593750
1816,-14.58,2022-10-26 16:02:47.609375
1817,-17.24,2022-10-26 16:02:47.625000
1818,-19.69,2022-10-26 16:02:47.640625
1819,-21.53,2022-10-26 16:02:47.656250
1820,-22.27,2022-10-26 16:02:47.671875
1821,-21.52,2022-10-26 16:02:47.687500
1822,-19.15,2022-10-26 16:02:47.703125
1823,-15.38,2022-10-26 16:02:47.718750
1824,-10.68,2022-10-26 16:02:47.734375
1825,-5.69,2022-10-26 16:02:47.750000
1826,-1.01,2022-10-26 16:02:47.765625
1827,2.94,2022-10-26 16:02:47.781250
1828,5.94,2022-10-26 16:02:47.796875
1829,7.99,2022-10-26 16:02:47.812500
1830,9.24,2022-10-26 16:02:47.828125
1831,9.9,2022-10-26 16:02:47.843750
1832,10.15,2022-10-26 16:02:47.859375
1833,10.09,2022-10-26 16:02:47.875000
1834,9.73,2022-10-26 16:02:47.890625
1835,9.07,2022-10-26 16:02:47.906250
1836,8.15,2022-10-26 16:02:47.921875
1837,7.11,2022-10-26 16:02:47.937500
1838,6.13,2022-10-26 16:02:47.953125
1839,5.38,2022-10-26 16:02:47.968750
1840,4.94,2022-10-26 16:02:47.984375
1841,4.79,2022-10-26 16:02:48.000000
1842,4.87,2022-10-26 16:02:48.015625
1843,5.12,2022-10-26 16:02:48.031250
1844,5.54,2022-10-26 16:02:48.046875
1845,6.11,2022-10-26 16:02:48.062500
1846,6.78,2022-10-26 16:02:48.078125
1847,7.43,2022-10-26 16:02:48.093750
1848,7.83,2022-10-26 16:02:48.109375
1849,7.79,2022-10-26 16:02:48.125000
1850,7.2,2022-10-26 16:02:48.140625
1851,6.13,2022-10-26 16:02:48.156250
1852,4.74,2022-10-26 16:02:48.171875
1853,3.28,2022-10-26 16:02:48.187500
1854,1.96,2022-10-26 16:02:48.203125
1855,0.84,2022-10-26 16:02:48.218750
1856,-0.17,2022-10-26 16:02:48.234375
1857,-1.24,2022-10-26 16:02:48.250000
1858,-2.58,2022-10-26 16:02:48.265625
1859,-4.38,2022-10-26 16:02:48.281250
1860,-6.75,2022-10-26 16:02:48.296875
1861,-9.64,2022-10-26 16:02:48.312500
1862,-12.82,2022-10-26 16:02:48.328125
1863,-15.87,2022-10-26 16:02:48.343750
1864,-18.26,2022-10-26 16:02:48.359375
1865,-19.43,2022-10-26 16:02:48.375000
1866,-19.01,2022-10-26 16:02:48.390625
1867,-16.9,2022-10-26 16:02:48.406250
1868,-13.32,2022-10-26 16:02:48.421875
1869,-8.75,2022-10-26 16:02:48.437500
1870,-3.78,2022-10-26 16:02:48.453125
1871,1.04,2022-10-26 16:02:48.468750
1872,5.33,2022-10-26 16:02:48.484375
1873,8.85,2022-10-26 16:02:48.500000
1874,11.51,2022-10-26 16:02:48.515625
1875,13.29,2022-10-26 16:02:48.531250
1876,14.24,2022-10-26 16:02:48.546875
1877,14.44,2022-10-26 16:02:48.562500
1878,13.99,2022-10-26 16:02:48.578125
1879,13.02,2022-10-26 16:02:48.593750
1880,11.65,2022-10-26 16:02:48.609375
1881,10.06,2022-10-26 16:02:48.625000
1882,8.39,2022-10-26 16:02:48.640625
1883,6.86,2022-10-26 16:02:48.656250
1884,5.61,2022-10-26 16:02:48.671875
1885,4.78,2022-10-26 16:02:48.687500
1886,4.4,2022-10-26 16:02:48.703125
1887,4.41,2022-10-26 16:02:48.718750
1888,4.7,2022-10-26 16:02:48.734375
1889,5.13,2022-10-26 16:02:48.750000
1890,5.58,2022-10-26 16:02:48.765625
1891,6.01,2022-10-26 16:02:48.781250
1892,6.33,2022-10-26 16:02:48.796875
1893,6.49,2022-10-26 16:02:48.812500
1894,6.38,2022-10-26 16:02:48.828125
1895,5.91,2022-10-26 16:02:48.843750
1896,5.02,2022-10-26 16:02:48.859375
1897,3.74,2022-10-26 16:02:48.875000
1898,2.16,2022-10-26 16:02:48.890625
1899,0.37,2022-10-26 16:02:48.906250
1900,-1.51,2022-10-26 16:02:48.921875
1901,-3.45,2022-10-26 16:02:48.937500
1902,-5.46,2022-10-26 16:02:48.953125
1903,-7.54,2022-10-26 16:02:48.968750
1904,-9.68,2022-10-26 16:02:48.984375
1905,-11.92,2022-10-26 16:02:49.000000
1906,-14.22,2022-10-26 16:02:49.015625
1907,-16.54,2022-10-26 16:02:49.031250
1908,-18.67,2022-10-26 16:02:49.046875
1909,-20.29,2022-10-26 16:02:49.062500
1910,-20.94,2022-10-26 16:02:49.078125
1911,-20.23,2022-10-26 16:02:49.093750
1912,-17.94,2022-10-26 16:02:49.109375
1913,-14.18,2022-10-26 16:02:49.125000
1914,-9.31,2022-10-26 16:02:49.140625
1915,-3.91,2022-10-26 16:02:49.156250
1916,1.47,2022-10-26 16:02:49.171875
1917,6.34,2022-10-26 16:02:49.187500
1918,10.36,2022-10-26 16:02:49.203125
1919,13.32,2022-10-26 16:02:49.218750
1920,15.15,2022-10-26 16:02:49.234375
1921,15.89,2022-10-26 16:02:49.250000
1922,15.75,2022-10-26 16:02:49.265625
1923,14.99,2022-10-26 16:02:49.281250
1924,13.94,2022-10-26 16:02:49.296875
1925,12.83,2022-10-26 16:02:49.312500
1926,11.82,2022-10-26 16:02:49.328125
1927,10.91,2022-10-26 16:02:49.343750
1928,10.06,2022-10-26 16:02:49.359375
1929,9.22,2022-10-26 16:02:49.375000
1930,8.34,2022-10-26 16:02:49.390625
1931,7.44,2022-10-26 16:02:49.406250
1932,6.59,2022-10-26 16:02:49.421875
1933,5.93,2022-10-26 16:02:49.437500
1934,5.56,2022-10-26 16:02:49.453125
1935,5.53,2022-10-26 16:02:49.468750
1936,5.79,2022-10-26 16:02:49.484375
1937,6.14,2022-10-26 16:02:49.500000
1938,6.32,2022-10-26 16:02:49.515625
1939,6.08,2022-10-26 16:02:49.531250
1940,5.29,2022-10-26 16:02:49.546875
1941,3.97,2022-10-26 16:02:49.562500
1942,2.25,2022-10-26 16:02:49.578125
1943,0.32,2022-10-26 16:02:49.593750
1944,-1.69,2022-10-26 16:02:49.609375
1945,-3.69,2022-10-26 16:02:49.625000
1946,-5.7,2022-10-26 16:02:49.640625
1947,-7.75,2022-10-26 16:02:49.656250
1948,-9.89,2022-10-26 16:02:49.671875
1949,-12.14,2022-10-26 16:02:49.687500
1950,-14.5,2022-10-26 16:02:49.703125
1951,-16.89,2022-10-26 16:02:49.718750
1952,-19.11,2022-10-26 16:02:49.734375
1953,-20.83,2022-10-26 16:02:49.750000
1954,-21.63,2022-10-26 16:02:49.765625
1955,-21.12,2022-10-26 16:02:49.781250
1956,-19.05,2022-10-26 16:02:49.796875
1957,-15.47,2022-10-26 16:02:49.812500
1958,-10.74,2022-10-26 16:02:49.828125
1959,-5.41,2022-10-26 16:02:49.843750
1960,-0.08,2022-10-26 16:02:49.859375
1961,4.75,2022-10-26 16:02:49.875000
1962,8.77,2022-10-26 16:02:49.890625
1963,11.85,2022-10-26 16:02:49.906250
1964,13.99,2022-10-26 16:02:49.921875
1965,15.24,2022-10-26 16:02:49.937500
1966,15.69,2022-10-26 16:02:49.953125
1967,15.43,2022-10-26 16:02:49.968750
1968,14.64,2022-10-26 16:02:49.984375
1969,13.52,2022-10-26 16:02:50.000000
1970,12.27,2022-10-26 16:02:50.015625
1971,11.06,2022-10-26 16:02:50.031250
1972,9.96,2022-10-26 16:02:50.046875
1973,8.97,2022-10-26 16:02:50.062500
1974,8.06,2022-10-26 16:02:50.078125
1975,7.23,2022-10-26 16:02:50.093750
1976,6.58,2022-10-26 16:02:50.109375
1977,6.19,2022-10-26 16:02:50.125000
1978,6.16,2022-10-26 16:02:50.140625
1979,6.45,2022-10-26 16:02:50.156250
1980,6.92,2022-10-26 16:02:50.171875
1981,7.33,2022-10-26 16:02:50.187500
1982,7.41,2022-10-26 16:02:50.203125
1983,7.0,2022-10-26 16:02:50.218750
1984,6.06,2022-10-26 16:02:50.234375
1985,4.67,2022-10-26 16:02:50.250000
1986,2.97,2022-10-26 16:02:50.265625
1987,1.12,2022-10-26 16:02:50.281250
1988,-0.84,2022-10-26 16:02:50.296875
1989,-2.87,2022-10-26 16:02:50.312500
1990,-5.02,2022-10-26 16:02:50.328125
1991,-7.35,2022-10-26 16:02:50.343750
1992,-9.9,2022-10-26 16:02:50.359375
1993,-12.69,2022-10-26 16:02:50.375000
1994,-15.68,2022-10-26 16:02:50.390625
1995,-18.72,2022-10-26 16:02:50.406250
1996,-21.43,2022-10-26 16:02:50.421875
1997,-23.3,2022-10-26 16:02:50.437500
1998,-23.73,2022-10-26 16:02:50.453125
1999,-22.28,2022-10-26 16:02:50.468750
2000,-18.86,2022-10-26 16:02:50.484375
2001,-13.78,2022-10-26 16:02:50.500000
2002,-7.74,2022-10-26 16:02:50.515625
2003,-1.57,2022-10-26 16:02:50.531250
2004,4.03,2022-10-26 16:02:50.546875
2005,8.64,2022-10-26 16:02:50.562500
2006,12.18,2022-10-26 16:02:50.578125
2007,14.77,2022-10-26 16:02:50.593750
2008,16.52,2022-10-26 16:02:50.609375
2009,17.52,2022-10-26 16:02:50.625000
2010,17.74,2022-10-26 16:02:50.640625
2011,17.19,2022-10-26 16:02:50.656250
2012,15.99,2022-10-26 16:02:50.671875
2013,14.43,2022-10-26 16:02:50.687500
2014,12.85,2022-10-26 16:02:50.703125
2015,11.5,2022-10-26 16:02:50.718750
2016,10.52,2022-10-26 16:02:50.734375
2017,9.85,2022-10-26 16:02:50.750000
2018,9.34,2022-10-26 16:02:50.765625
2019,8.9,2022-10-26 16:02:50.781250
2020,8.48,2022-10-26 16:02:50.796875
2021,8.17,2022-10-26 16:02:50.812500
2022,8.02,2022-10-26 16:02:50.828125
2023,8.07,2022-10-26 16:02:50.843750
2024,8.18,2022-10-26 16:02:50.859375
2025,8.21,2022-10-26 16:02:50.875000
2026,7.98,2022-10-26 16:02:50.890625
2027,7.4,2022-10-26 16:02:50.906250
2028,6.44,2022-10-26 16:02:50.921875
2029,5.11,2022-10-26 16:02:50.937500
2030,3.47,2022-10-26 16:02:50.953125
2031,1.59,2022-10-26 16:02:50.968750
2032,-0.43,2022-10-26 16:02:50.984375
2033,-2.49,2022-10-26 16:02:51.000000
2034,-4.54,2022-10-26 16:02:51.015625
2035,-6.59,2022-10-26 16:02:51.031250
2036,-8.8,2022-10-26 16:02:51.046875
2037,-11.3,2022-10-26 16:02:51.062500
2038,-14.17,2022-10-26 16:02:51.078125
2039,-17.23,2022-10-26 16:02:51.093750
2040,-20.05,2022-10-26 16:02:51.109375
2041,-22.0,2022-10-26 16:02:51.125000
2042,-22.45,2022-10-26 16:02:51.140625
2043,-20.99,2022-10-26 16:02:51.156250
2044,-17.57,2022-10-26 16:02:51.171875
2045,-12.61,2022-10-26 16:02:51.187500
2046,-6.77,2022-10-26 16:02:51.203125
2047,-0.85,2022-10-26 16:02:51.218750
2048,4.49,2022-10-26 16:02:51.234375
2049,8.82,2022-10-26 16:02:51.250000
2050,12.03,2022-10-26 16:02:51.265625
2051,14.21,2022-10-26 16:02:51.281250
2052,15.52,2022-10-26 16:02:51.296875
2053,16.09,2022-10-26 16:02:51.312500
2054,16.0,2022-10-26 16:02:51.328125
2055,15.31,2022-10-26 16:02:51.343750
2056,14.1,2022-10-26 16:02:51.359375
2057,12.56,2022-10-26 16:02:51.375000
2058,10.92,2022-10-26 16:02:51.390625
2059,9.46,2022-10-26 16:02:51.406250
2060,8.35,2022-10-26 16:02:51.421875
2061,7.66,2022-10-26 16:02:51.437500
2062,7.32,2022-10-26 16:02:51.453125
2063,7.23,2022-10-26 16:02:51.468750
2064,7.3,2022-10-26 16:02:51.484375
2065,7.53,2022-10-26 16:02:51.500000
2066,7.91,2022-10-26 16:02:51.515625
2067,8.42,2022-10-26 16:02:51.531250
2068,8.91,2022-10-26 16:02:51.546875
2069,9.15,2022-10-26 16:02:51.562500
2070,8.9,2022-10-26 16:02:51.578125
2071,8.0,2022-10-26 16:02:51.593750
2072,6.47,2022-10-26 16:02:51.609375
2073,4.48,2022-10-26 16:02:51.625000
2074,2.29,2022-10-26 16:02:51.640625
2075,0.1,2022-10-26 16:02:51.656250
2076,-1.98,2022-10-26 16:02:51.671875
2077,-4.01,2022-10-26 16:02:51.687500
2078,-6.15,2022-10-26 16:02:51.703125
2079,-8.56,2022-10-26 16:02:51.718750
2080,-11.34,2022-10-26 16:02:51.734375
2081,-14.44,2022-10-26 16:02:51.750000
2082,-17.67,2022-10-26 16:02:51.765625
2083,-20.64,2022-10-26 16:02:51.781250
2084,-22.88,2022-10-26 16:02:51.796875
2085,-23.86,2022-10-26 16:02:51.812500
2086,-23.21,2022-10-26 16:02:51.828125
2087,-20.8,2022-10-26 16:02:51.843750
2088,-16.83,2022-10-26 16:02:51.859375
2089,-11.79,2022-10-26 16:02:51.875000
2090,-6.35,2022-10-26 16:02:51.890625
2091,-1.13,2022-10-26 16:02:51.906250
2092,3.4,2022-10-26 16:02:51.921875
2093,7.03,2022-10-26 16:02:51.937500
2094,9.7,2022-10-26 16:02:51.953125
2095,11.48,2022-10-26 16:02:51.968750
2096,12.44,2022-10-26 16:02:51.984375
2097,12.61,2022-10-26 16:02:52.000000
2098,12.08,2022-10-26 16:02:52.015625
2099,10.97,2022-10-26 16:02:52.031250
2100,9.5,2022-10-26 16:02:52.046875
2101,7.96,2022-10-26 16:02:52.062500
2102,6.59,2022-10-26 16:02:52.078125
2103,5.57,2022-10-26 16:02:52.093750
2104,4.99,2022-10-26 16:02:52.109375
2105,4.81,2022-10-26 16:02:52.125000
2106,4.95,2022-10-26 16:02:52.140625
2107,5.33,2022-10-26 16:02:52.156250
2108,5.85,2022-10-26 16:02:52.171875
2109,6.42,2022-10-26 16:02:52.187500
2110,6.96,2022-10-26 16:02:52.203125
2111,7.34,2022-10-26 16:02:52.218750
2112,7.46,2022-10-26 16:02:52.234375
2113,7.16,2022-10-26 16:02:52.250000
2114,6.32,2022-10-26 16:02:52.265625
2115,4.89,2022-10-26 16:02:52.281250
2116,2.92,2022-10-26 16:02:52.296875
2117,0.62,2022-10-26 16:02:52.312500
2118,-1.69,2022-10-26 16:02:52.328125
2119,-3.74,2022-10-26 16:02:52.343750
2120,-5.38,2022-10-26 16:02:52.359375
2121,-6.67,2022-10-26 16:02:52.375000
2122,-7.9,2022-10-26 16:02:52.390625
2123,-9.41,2022-10-26 16:02:52.406250
2124,-11.44,2022-10-26 16:02:52.421875
2125,-14.03,2022-10-26 16:02:52.437500
2126,-16.97,2022-10-26 16:02:52.453125
2127,-19.91,2022-10-26 16:02:52.468750
2128,-22.46,2022-10-26 16:02:52.484375
2129,-24.24,2022-10-26 16:02:52.500000
2130,-24.89,2022-10-26 16:02:52.515625
2131,-24.15,2022-10-26 16:02:52.531250
2132,-21.87,2022-10-26 16:02:52.546875
2133,-18.09,2022-10-26 16:02:52.562500
2134,-13.15,2022-10-26 16:02:52.578125
2135,-7.61,2022-10-26 16:02:52.593750
2136,-2.11,2022-10-26 16:02:52.609375
2137,2.79,2022-10-26 16:02:52.625000
2138,6.8,2022-10-26 16:02:52.640625
2139,9.91,2022-10-26 16:02:52.656250
2140,12.26,2022-10-26 16:02:52.671875
2141,14.05,2022-10-26 16:02:52.687500
2142,15.33,2022-10-26 16:02:52.703125
2143,16.1,2022-10-26 16:02:52.718750
2144,16.3,2022-10-26 16:02:52.734375
2145,15.95,2022-10-26 16:02:52.750000
2146,15.18,2022-10-26 16:02:52.765625
2147,14.22,2022-10-26 16:02:52.781250
2148,13.35,2022-10-26 16:02:52.796875
2149,12.75,2022-10-26 16:02:52.812500
2150,12.52,2022-10-26 16:02:52.828125
2151,12.62,2022-10-26 16:02:52.843750
2152,12.89,2022-10-26 16:02:52.859375
2153,13.19,2022-10-26 16:02:52.875000
2154,13.36,2022-10-26 16:02:52.890625
2155,13.35,2022-10-26 16:02:52.906250
2156,13.15,2022-10-26 16:02:52.921875
2157,12.82,2022-10-26 16:02:52.937500
2158,12.37,2022-10-26 16:02:52.953125
2159,11.83,2022-10-26 16:02:52.968750
2160,11.11,2022-10-26 16:02:52.984375
2161,10.07,2022-10-26 16:02:53.000000
2162,8.55,2022-10-26 16:02:53.015625
2163,6.48,2022-10-26 16:02:53.031250
2164,3.88,2022-10-26 16:02:53.046875
2165,0.95,2022-10-26 16:02:53.062500
2166,-2.05,2022-10-26 16:02:53.078125
2167,-4.84,2022-10-26 16:02:53.093750
2168,-7.26,2022-10-26 16:02:53.109375
2169,-9.19,2022-10-26 16:02:53.125000
2170,-10.67,2022-10-26 16:02:53.140625
2171,-11.75,2022-10-26 16:02:53.156250
2172,-12.53,2022-10-26 16:02:53.171875
2173,-13.13,2022-10-26 16:02:53.187500
2174,-13.65,2022-10-26 16:02:53.203125
2175,-14.21,2022-10-26 16:02:53.218750
2176,-14.85,2022-10-26 16:02:53.234375
2177,-15.51,2022-10-26 16:02:53.250000
2178,-15.99,2022-10-26 16:02:53.265625
2179,-15.97,2022-10-26 16:02:53.281250
2180,-15.14,2022-10-26 16:02:53.296875
2181,-13.29,2022-10-26 16:02:53.312500
2182,-10.43,2022-10-26 16:02:53.328125
2183,-6.77,2022-10-26 16:02:53.343750
2184,-2.66,2022-10-26 16:02:53.359375
2185,1.48,2022-10-26 16:02:53.375000
2186,5.28,2022-10-26 16:02:53.390625
2187,8.5,2022-10-26 16:02:53.406250
2188,10.98,2022-10-26 16:02:53.421875
2189,12.69,2022-10-26 16:02:53.437500
2190,13.59,2022-10-26 16:02:53.453125
2191,13.73,2022-10-26 16:02:53.468750
2192,13.17,2022-10-26 16:02:53.484375
2193,12.05,2022-10-26 16:02:53.500000
2194,10.64,2022-10-26 16:02:53.515625
2195,9.26,2022-10-26 16:02:53.531250
2196,8.28,2022-10-26 16:02:53.546875
2197,7.94,2022-10-26 16:02:53.562500
2198,8.32,2022-10-26 16:02:53.578125
2199,9.26,2022-10-26 16:02:53.593750
2200,10.42,2022-10-26 16:02:53.609375
2201,11.46,2022-10-26 16:02:53.625000
2202,12.1,2022-10-26 16:02:53.640625
2203,12.26,2022-10-26 16:02:53.656250
2204,12.01,2022-10-26 16:02:53.671875
2205,11.54,2022-10-26 16:02:53.687500
2206,10.97,2022-10-26 16:02:53.703125
2207,10.44,2022-10-26 16:02:53.718750
2208,10.0,2022-10-26 16:02:53.734375
2209,9.75,2022-10-26 16:02:53.750000
2210,9.78,2022-10-26 16:02:53.765625
2211,10.17,2022-10-26 16:02:53.781250
2212,10.92,2022-10-26 16:02:53.796875
2213,11.86,2022-10-26 16:02:53.812500
2214,12.76,2022-10-26 16:02:53.828125
2215,13.4,2022-10-26 16:02:53.843750
2216,13.67,2022-10-26 16:02:53.859375
2217,13.61,2022-10-26 16:02:53.875000
2218,13.34,2022-10-26 16:02:53.890625
2219,12.95,2022-10-26 16:02:53.906250
2220,12.45,2022-10-26 16:02:53.921875
2221,11.74,2022-10-26 16:02:53.937500
2222,10.7,2022-10-26 16:02:53.953125
2223,9.34,2022-10-26 16:02:53.968750
2224,7.75,2022-10-26 16:02:53.984375
2225,6.15,2022-10-26 16:02:54.000000
2226,4.73,2022-10-26 16:02:54.015625
2227,3.59,2022-10-26 16:02:54.031250
2228,2.67,2022-10-26 16:02:54.046875
2229,1.79,2022-10-26 16:02:54.062500
2230,0.77,2022-10-26 16:02:54.078125
2231,-0.52,2022-10-26 16:02:54.093750
2232,-2.1,2022-10-26 16:02:54.109375
2233,-3.95,2022-10-26 16:02:54.125000
2234,-6.02,2022-10-26 16:02:54.140625
2235,-8.29,2022-10-26 16:02:54.156250
2236,-10.65,2022-10-26 16:02:54.171875
2237,-12.91,2022-10-26 16:02:54.187500
2238,-14.71,2022-10-26 16:02:54.203125
2239,-15.63,2022-10-26 16:02:54.218750
2240,-15.28,2022-10-26 16:02:54.234375
2241,-13.52,2022-10-26 16:02:54.250000
2242,-10.52,2022-10-26 16:02:54.265625
2243,-6.73,2022-10-26 16:02:54.281250
2244,-2.78,2022-10-26 16:02:54.296875
2245,0.79,2022-10-26 16:02:54.312500
2246,3.62,2022-10-26 16:02:54.328125
2247,5.64,2022-10-26 16:02:54.343750
2248,6.97,2022-10-26 16:02:54.359375
2249,7.76,2022-10-26 16:02:54.375000
2250,8.16,2022-10-26 16:02:54.390625
2251,8.18,2022-10-26 16:02:54.406250
2252,7.84,2022-10-26 16:02:54.421875
2253,7.18,2022-10-26 16:02:54.437500
2254,6.3,2022-10-26 16:02:54.453125
2255,5.37,2022-10-26 16:02:54.468750
2256,4.56,2022-10-26 16:02:54.484375
2257,3.98,2022-10-26 16:02:54.500000
2258,3.65,2022-10-26 16:02:54.515625
2259,3.52,2022-10-26 16:02:54.531250
2260,3.51,2022-10-26 16:02:54.546875
2261,3.54,2022-10-26 16:02:54.562500
2262,3.59,2022-10-26 16:02:54.578125
2263,3.61,2022-10-26 16:02:54.593750
2264,3.59,2022-10-26 16:02:54.609375
2265,3.49,2022-10-26 16:02:54.625000
2266,3.24,2022-10-26 16:02:54.640625
2267,2.8,2022-10-26 16:02:54.656250
2268,2.17,2022-10-26 16:02:54.671875
2269,1.38,2022-10-26 16:02:54.687500
2270,0.49,2022-10-26 16:02:54.703125
2271,-0.46,2022-10-26 16:02:54.718750
2272,-1.49,2022-10-26 16:02:54.734375
2273,-2.68,2022-10-26 16:02:54.750000
2274,-4.11,2022-10-26 16:02:54.765625
2275,-5.81,2022-10-26 16:02:54.781250
2276,-7.69,2022-10-26 16:02:54.796875
2277,-9.61,2022-10-26 16:02:54.812500
2278,-11.4,2022-10-26 16:02:54.828125
2279,-13.01,2022-10-26 16:02:54.843750
2280,-14.49,2022-10-26 16:02:54.859375
2281,-16.01,2022-10-26 16:02:54.875000
2282,-17.74,2022-10-26 16:02:54.890625
2283,-19.79,2022-10-26 16:02:54.906250
2284,-22.14,2022-10-26 16:02:54.921875
2285,-24.62,2022-10-26 16:02:54.937500
2286,-26.92,2022-10-26 16:02:54.953125
2287,-28.66,2022-10-26 16:02:54.968750
2288,-29.47,2022-10-26 16:02:54.984375
2289,-29.05,2022-10-26 16:02:55.000000
2290,-27.32,2022-10-26 16:02:55.015625
2291,-24.42,2022-10-26 16:02:55.031250
2292,-20.7,2022-10-26 16:02:55.046875
2293,-16.61,2022-10-26 16:02:55.062500
2294,-12.64,2022-10-26 16:02:55.078125
2295,-9.12,2022-10-26 16:02:55.093750
2296,-6.26,2022-10-26 16:02:55.109375
2297,-4.08,2022-10-26 16:02:55.125000
2298,-2.52,2022-10-26 16:02:55.140625
2299,-1.49,2022-10-26 16:02:55.156250
2300,-0.85,2022-10-26 16:02:55.171875
2301,-0.48,2022-10-26 16:02:55.187500
2302,-0.25,2022-10-26 16:02:55.203125
2303,-0.02,2022-10-26 16:02:55.218750
2304,0.3,2022-10-26 16:02:55.234375
2305,0.75,2022-10-26 16:02:55.250000
2306,1.34,2022-10-26 16:02:55.265625
2307,2.04,2022-10-26 16:02:55.281250
2308,2.84,2022-10-26 16:02:55.296875
2309,3.72,2022-10-26 16:02:55.312500
2310,4.7,2022-10-26 16:02:55.328125
2311,5.79,2022-10-26 16:02:55.343750
2312,6.97,2022-10-26 16:02:55.359375
2313,8.14,2022-10-26 16:02:55.375000
2314,9.2,2022-10-26 16:02:55.390625
2315,10.02,2022-10-26 16:02:55.406250
2316,10.54,2022-10-26 16:02:55.421875
2317,10.73,2022-10-26 16:02:55.437500
2318,10.59,2022-10-26 16:02:55.453125
2319,10.14,2022-10-26 16:02:55.468750
2320,9.4,2022-10-26 16:02:55.484375
2321,8.41,2022-10-26 16:02:55.500000
2322,7.25,2022-10-26 16:02:55.515625
2323,6.03,2022-10-26 16:02:55.531250
2324,4.84,2022-10-26 16:02:55.546875
2325,3.73,2022-10-26 16:02:55.562500
2326,2.65,2022-10-26 16:02:55.578125
2327,1.49,2022-10-26 16:02:55.593750
2328,0.2,2022-10-26 16:02:55.609375
2329,-1.21,2022-10-26 16:02:55.625000
2330,-2.64,2022-10-26 16:02:55.640625
2331,-3.94,2022-10-26 16:02:55.656250
2332,-5.03,2022-10-26 16:02:55.671875
2333,-5.92,2022-10-26 16:02:55.687500
2334,-6.73,2022-10-26 16:02:55.703125
2335,-7.67,2022-10-26 16:02:55.718750
2336,-8.97,2022-10-26 16:02:55.734375
2337,-10.75,2022-10-26 16:02:55.750000
2338,-12.92,2022-10-26 16:02:55.765625
2339,-15.15,2022-10-26 16:02:55.781250
2340,-16.94,2022-10-26 16:02:55.796875
2341,-17.7,2022-10-26 16:02:55.812500
2342,-17.06,2022-10-26 16:02:55.828125
2343,-14.94,2022-10-26 16:02:55.843750
2344,-11.65,2022-10-26 16:02:55.859375
2345,-7.75,2022-10-26 16:02:55.875000
2346,-3.84,2022-10-26 16:02:55.890625
2347,-0.31,2022-10-26 16:02:55.906250
2348,2.69,2022-10-26 16:02:55.921875
2349,5.18,2022-10-26 16:02:55.937500
2350,7.26,2022-10-26 16:02:55.953125
2351,8.9,2022-10-26 16:02:55.968750
2352,10.02,2022-10-26 16:02:55.984375
2353,10.48,2022-10-26 16:02:56.000000
2354,10.33,2022-10-26 16:02:56.015625
2355,9.75,2022-10-26 16:02:56.031250
2356,9.03,2022-10-26 16:02:56.046875
2357,8.45,2022-10-26 16:02:56.062500
2358,8.18,2022-10-26 16:02:56.078125
2359,8.21,2022-10-26 16:02:56.093750
2360,8.44,2022-10-26 16:02:56.109375
2361,8.77,2022-10-26 16:02:56.125000
2362,9.15,2022-10-26 16:02:56.140625
2363,9.6,2022-10-26 16:02:56.156250
2364,10.16,2022-10-26 16:02:56.171875
2365,10.8,2022-10-26 16:02:56.187500
2366,11.43,2022-10-26 16:02:56.203125
2367,11.92,2022-10-26 16:02:56.218750
2368,12.15,2022-10-26 16:02:56.234375
2369,12.14,2022-10-26 16:02:56.250000
2370,11.97,2022-10-26 16:02:56.265625
2371,11.77,2022-10-26 16:02:56.281250
2372,11.6,2022-10-26 16:02:56.296875
2373,11.39,2022-10-26 16:02:56.312500
2374,11.01,2022-10-26 16:02:56.328125
2375,10.33,2022-10-26 16:02:56.343750
2376,9.37,2022-10-26 16:02:56.359375
2377,8.29,2022-10-26 16:02:56.375000
2378,7.38,2022-10-26 16:02:56.390625
2379,6.9,2022-10-26 16:02:56.406250
2380,6.98,2022-10-26 16:02:56.421875
2381,7.52,2022-10-26 16:02:56.437500
2382,8.26,2022-10-26 16:02:56.453125
2383,8.87,2022-10-26 16:02:56.468750
2384,9.16,2022-10-26 16:02:56.484375
2385,9.11,2022-10-26 16:02:56.500000
2386,8.98,2022-10-26 16:02:56.515625
2387,9.12,2022-10-26 16:02:56.531250
2388,9.91,2022-10-26 16:02:56.546875
2389,11.56,2022-10-26 16:02:56.562500
2390,14.03,2022-10-26 16:02:56.578125
2391,16.98,2022-10-26 16:02:56.593750
2392,19.94,2022-10-26 16:02:56.609375
2393,22.4,2022-10-26 16:02:56.625000
2394,24.01,2022-10-26 16:02:56.640625
2395,24.69,2022-10-26 16:02:56.656250
2396,24.72,2022-10-26 16:02:56.671875
2397,24.7,2022-10-26 16:02:56.687500
2398,25.45,2022-10-26 16:02:56.703125
2399,27.77,2022-10-26 16:02:56.718750
2400,32.16,2022-10-26 16:02:56.734375
2401,38.5,2022-10-26 16:02:56.750000
2402,45.9,2022-10-26 16:02:56.765625
2403,52.81,2022-10-26 16:02:56.781250
2404,57.59,2022-10-26 16:02:56.796875
2405,59.17,2022-10-26 16:02:56.812500
2406,57.58,2022-10-26 16:02:56.828125
2407,54.15,2022-10-26 16:02:56.843750
2408,51.1,2022-10-26 16:02:56.859375
2409,50.65,2022-10-26 16:02:56.875000
2410,54.14,2022-10-26 16:02:56.890625
2411,61.4,2022-10-26 16:02:56.906250
2412,70.73,2022-10-26 16:02:56.921875
2413,79.46,2022-10-26 16:02:56.937500
2414,84.8,2022-10-26 16:02:56.953125
2415,84.7,2022-10-26 16:02:56.968750
2416,78.32,2022-10-26 16:02:56.984375
2417,66.06,2022-10-26 16:02:57.000000
2418,49.24,2022-10-26 16:02:57.015625
2419,29.68,2022-10-26 16:02:57.031250
2420,9.26,2022-10-26 16:02:57.046875
2421,-10.26,2022-10-26 16:02:57.062500
2422,-27.45,2022-10-26 16:02:57.078125
2423,-41.27,2022-10-26 16:02:57.093750
2424,-51.26,2022-10-26 16:02:57.109375
2425,-57.57,2022-10-26 16:02:57.125000
2426,-61.04,2022-10-26 16:02:57.140625
2427,-62.89,2022-10-26 16:02:57.156250
2428,-64.31,2022-10-26 16:02:57.171875
2429,-66.02,2022-10-26 16:02:57.187500
2430,-68.1,2022-10-26 16:02:57.203125
2431,-70.01,2022-10-26 16:02:57.218750
2432,-71.03,2022-10-26 16:02:57.234375
2433,-70.63,2022-10-26 16:02:57.250000
2434,-68.69,2022-10-26 16:02:57.265625
2435,-65.51,2022-10-26 16:02:57.281250
2436,-61.52,2022-10-26 16:02:57.296875
2437,-57.09,2022-10-26 16:02:57.312500
2438,-52.42,2022-10-26 16:02:57.328125
2439,-47.69,2022-10-26 16:02:57.343750
2440,-43.21,2022-10-26 16:02:57.359375
2441,-39.45,2022-10-26 16:02:57.375000
2442,-36.94,2022-10-26 16:02:57.390625
2443,-36.07,2022-10-26 16:02:57.406250
2444,-36.91,2022-10-26 16:02:57.421875
2445,-39.16,2022-10-26 16:02:57.437500
2446,-42.29,2022-10-26 16:02:57.453125
2447,-45.8,2022-10-26 16:02:57.468750
2448,-49.38,2022-10-26 16:02:57.484375
2449,-52.9,2022-10-26 16:02:57.500000
2450,-56.39,2022-10-26 16:02:57.515625
2451,-59.74,2022-10-26 16:02:57.531250
2452,-62.66,2022-10-26 16:02:57.546875
2453,-64.69,2022-10-26 16:02:57.562500
2454,-65.27,2022-10-26 16:02:57.578125
2455,-63.97,2022-10-26 16:02:57.593750
2456,-60.51,2022-10-26 16:02:57.609375
2457,-54.86,2022-10-26 16:02:57.625000
2458,-47.12,2022-10-26 16:02:57.640625
2459,-37.59,2022-10-26 16:02:57.656250
2460,-26.74,2022-10-26 16:02:57.671875
2461,-15.28,2022-10-26 16:02:57.687500
2462,-4.16,2022-10-26 16:02:57.703125
2463,5.6,2022-10-26 16:02:57.718750
2464,13.03,2022-10-26 16:02:57.734375
2465,17.52,2022-10-26 16:02:57.750000
2466,18.86,2022-10-26 16:02:57.765625
2467,17.3,2022-10-26 16:02:57.781250
2468,13.37,2022-10-26 16:02:57.796875
2469,7.68,2022-10-26 16:02:57.812500
2470,0.77,2022-10-26 16:02:57.828125
2471,-6.82,2022-10-26 16:02:57.843750
2472,-14.49,2022-10-26 16:02:57.859375
2473,-21.41,2022-10-26 16:02:57.875000
2474,-26.55,2022-10-26 16:02:57.890625
2475,-28.94,2022-10-26 16:02:57.906250
2476,-28.04,2022-10-26 16:02:57.921875
2477,-24.03,2022-10-26 16:02:57.937500
2478,-17.84,2022-10-26 16:02:57.953125
2479,-10.87,2022-10-26 16:02:57.968750
2480,-4.52,2022-10-26 16:02:57.984375
2481,0.35,2022-10-26 16:02:58.000000
2482,3.52,2022-10-26 16:02:58.015625
2483,5.42,2022-10-26 16:02:58.031250
2484,6.74,2022-10-26 16:02:58.046875
2485,8.09,2022-10-26 16:02:58.062500
2486,9.84,2022-10-26 16:02:58.078125
2487,12.06,2022-10-26 16:02:58.093750
2488,14.66,2022-10-26 16:02:58.109375
2489,17.51,2022-10-26 16:02:58.125000
2490,20.52,2022-10-26 16:02:58.140625
2491,23.68,2022-10-26 16:02:58.156250
2492,27.09,2022-10-26 16:02:58.171875
2493,30.88,2022-10-26 16:02:58.187500
2494,35.12,2022-10-26 16:02:58.203125
2495,39.76,2022-10-26 16:02:58.218750
2496,44.45,2022-10-26 16:02:58.234375
2497,48.52,2022-10-26 16:02:58.250000
2498,51.06,2022-10-26 16:02:58.265625
2499,51.22,2022-10-26 16:02:58.281250
2500,48.38,2022-10-26 16:02:58.296875
2501,42.45,2022-10-26 16:02:58.312500
2502,33.9,2022-10-26 16:02:58.328125
2503,23.62,2022-10-26 16:02:58.343750
2504,12.71,2022-10-26 16:02:58.359375
2505,2.26,2022-10-26 16:02:58.375000
2506,-6.82,2022-10-26 16:02:58.390625
2507,-13.86,2022-10-26 16:02:58.406250
2508,-18.42,2022-10-26 16:02:58.421875
2509,-20.43,2022-10-26 16:02:58.437500
2510,-20.14,2022-10-26 16:02:58.453125
2511,-18.25,2022-10-26 16:02:58.468750
2512,-15.82,2022-10-26 16:02:58.484375
2513,-14.04,2022-10-26 16:02:58.500000
2514,-13.96,2022-10-26 16:02:58.515625
2515,-16.11,2022-10-26 16:02:58.531250
2516,-20.27,2022-10-26 16:02:58.546875
2517,-25.55,2022-10-26 16:02:58.562500
2518,-30.71,2022-10-26 16:02:58.578125
2519,-34.67,2022-10-26 16:02:58.593750
2520,-36.82,2022-10-26 16:02:58.609375
2521,-37.27,2022-10-26 16:02:58.625000
2522,-36.63,2022-10-26 16:02:58.640625
2523,-35.66,2022-10-26 16:02:58.656250
2524,-34.9,2022-10-26 16:02:58.671875
2525,-34.45,2022-10-26 16:02:58.687500
2526,-33.96,2022-10-26 16:02:58.703125
2527,-32.87,2022-10-26 16:02:58.718750
2528,-30.71,2022-10-26 16:02:58.734375
2529,-27.25,2022-10-26 16:02:58.750000
2530,-22.55,2022-10-26 16:02:58.765625
2531,-16.88,2022-10-26 16:02:58.781250
2532,-10.63,2022-10-26 16:02:58.796875
2533,-4.18,2022-10-26 16:02:58.812500
2534,2.12,2022-10-26 16:02:58.828125
2535,8.0,2022-10-26 16:02:58.843750
2536,13.26,2022-10-26 16:02:58.859375
2537,17.79,2022-10-26 16:02:58.875000
2538,21.58,2022-10-26 16:02:58.890625
2539,24.69,2022-10-26 16:02:58.906250
2540,27.19,2022-10-26 16:02:58.921875
2541,29.11,2022-10-26 16:02:58.937500
2542,30.46,2022-10-26 16:02:58.953125
2543,31.24,2022-10-26 16:02:58.968750
2544,31.54,2022-10-26 16:02:58.984375
2545,31.51,2022-10-26 16:02:59.000000
2546,31.39,2022-10-26 16:02:59.015625
2547,31.44,2022-10-26 16:02:59.031250
2548,31.88,2022-10-26 16:02:59.046875
2549,32.82,2022-10-26 16:02:59.062500
2550,34.25,2022-10-26 16:02:59.078125
2551,36.01,2022-10-26 16:02:59.093750
2552,37.82,2022-10-26 16:02:59.109375
2553,39.34,2022-10-26 16:02:59.125000
2554,40.29,2022-10-26 16:02:59.140625
2555,40.6,2022-10-26 16:02:59.156250
2556,40.49,2022-10-26 16:02:59.171875
2557,40.53,2022-10-26 16:02:59.187500
2558,41.52,2022-10-26 16:02:59.203125
2559,44.17,2022-10-26 16:02:59.218750
2560,48.86,2022-10-26 16:02:59.234375
2561,55.32,2022-10-26 16:02:59.250000
2562,62.68,2022-10-26 16:02:59.265625
2563,69.62,2022-10-26 16:02:59.281250
2564,74.76,2022-10-26 16:02:59.296875
2565,77.02,2022-10-26 16:02:59.312500
2566,75.9,2022-10-26 16:02:59.328125
2567,71.62,2022-10-26 16:02:59.343750
2568,64.95,2022-10-26 16:02:59.359375
2569,57.0,2022-10-26 16:02:59.375000
2570,48.83,2022-10-26 16:02:59.390625
2571,41.19,2022-10-26 16:02:59.406250
2572,34.35,2022-10-26 16:02:59.421875
2573,28.15,2022-10-26 16:02:59.437500
2574,22.2,2022-10-26 16:02:59.453125
2575,16.1,2022-10-26 16:02:59.468750
2576,9.68,2022-10-26 16:02:59.484375
2577,3.08,2022-10-26 16:02:59.500000
2578,-3.36,2022-10-26 16:02:59.515625
2579,-9.24,2022-10-26 16:02:59.531250
2580,-14.36,2022-10-26 16:02:59.546875
2581,-18.81,2022-10-26 16:02:59.562500
2582,-22.92,2022-10-26 16:02:59.578125
2583,-27.02,2022-10-26 16:02:59.593750
2584,-31.28,2022-10-26 16:02:59.609375
2585,-35.59,2022-10-26 16:02:59.625000
2586,-39.68,2022-10-26 16:02:59.640625
2587,-43.35,2022-10-26 16:02:59.656250
2588,-46.7,2022-10-26 16:02:59.671875
2589,-50.13,2022-10-26 16:02:59.687500
2590,-54.13,2022-10-26 16:02:59.703125
2591,-59.0,2022-10-26 16:02:59.718750
2592,-64.57,2022-10-26 16:02:59.734375
2593,-70.28,2022-10-26 16:02:59.750000
2594,-75.38,2022-10-26 16:02:59.765625
2595,-79.4,2022-10-26 16:02:59.781250
2596,-82.31,2022-10-26 16:02:59.796875
2597,-84.61,2022-10-26 16:02:59.812500
2598,-87.07,2022-10-26 16:02:59.828125
2599,-90.29,2022-10-26 16:02:59.843750
2600,-94.59,2022-10-26 16:02:59.859375
2601,-99.75,2022-10-26 16:02:59.875000
2602,-105.24,2022-10-26 16:02:59.890625
2603,-110.32,2022-10-26 16:02:59.906250
2604,-114.05,2022-10-26 16:02:59.921875
2605,-115.34,2022-10-26 16:02:59.937500
2606,-112.99,2022-10-26 16:02:59.953125
2607,-105.92,2022-10-26 16:02:59.968750
2608,-93.59,2022-10-26 16:02:59.984375
2609,-76.49,2022-10-26 16:03:00.000000
2610,-56.21,2022-10-26 16:03:00.015625
2611,-35.14,2022-10-26 16:03:00.031250
2612,-15.8,2022-10-26 16:03:00.046875
2613,-0.08,2022-10-26 16:03:00.062500
2614,11.24,2022-10-26 16:03:00.078125
2615,18.43,2022-10-26 16:03:00.093750
2616,22.31,2022-10-26 16:03:00.109375
2617,23.7,2022-10-26 16:03:00.125000
2618,23.16,2022-10-26 16:03:00.140625
2619,20.96,2022-10-26 16:03:00.156250
2620,17.4,2022-10-26 16:03:00.171875
2621,13.0,2022-10-26 16:03:00.187500
2622,8.49,2022-10-26 16:03:00.203125
2623,4.59,2022-10-26 16:03:00.218750
2624,1.8,2022-10-26 16:03:00.234375
2625,0.21,2022-10-26 16:03:00.250000
2626,-0.43,2022-10-26 16:03:00.265625
2627,-0.54,2022-10-26 16:03:00.281250
2628,-0.47,2022-10-26 16:03:00.296875
2629,-0.43,2022-10-26 16:03:00.312500
2630,-0.43,2022-10-26 16:03:00.328125
2631,-0.28,2022-10-26 16:03:00.343750
2632,0.19,2022-10-26 16:03:00.359375
2633,1.14,2022-10-26 16:03:00.375000
2634,2.5,2022-10-26 16:03:00.390625
2635,4.03,2022-10-26 16:03:00.406250
2636,5.31,2022-10-26 16:03:00.421875
2637,5.91,2022-10-26 16:03:00.437500
2638,5.52,2022-10-26 16:03:00.453125
2639,4.05,2022-10-26 16:03:00.468750
2640,1.69,2022-10-26 16:03:00.484375
2641,-1.21,2022-10-26 16:03:00.500000
2642,-4.23,2022-10-26 16:03:00.515625
2643,-6.99,2022-10-26 16:03:00.531250
2644,-9.3,2022-10-26 16:03:00.546875
2645,-11.13,2022-10-26 16:03:00.562500
2646,-12.58,2022-10-26 16:03:00.578125
2647,-13.83,2022-10-26 16:03:00.593750
2648,-15.13,2022-10-26 16:03:00.609375
2649,-16.75,2022-10-26 16:03:00.625000
2650,-18.97,2022-10-26 16:03:00.640625
2651,-21.99,2022-10-26 16:03:00.656250
2652,-25.77,2022-10-26 16:03:00.671875
2653,-29.9,2022-10-26 16:03:00.687500
2654,-33.59,2022-10-26 16:03:00.703125
2655,-35.79,2022-10-26 16:03:00.718750
2656,-35.53,2022-10-26 16:03:00.734375
2657,-32.22,2022-10-26 16:03:00.750000
2658,-25.95,2022-10-26 16:03:00.765625
2659,-17.47,2022-10-26 16:03:00.781250
2660,-7.97,2022-10-26 16:03:00.796875
2661,1.3,2022-10-26 16:03:00.812500
2662,9.38,2022-10-26 16:03:00.828125
2663,15.78,2022-10-26 16:03:00.843750
2664,20.44,2022-10-26 16:03:00.859375
2665,23.58,2022-10-26 16:03:00.875000
2666,25.52,2022-10-26 16:03:00.890625
2667,26.47,2022-10-26 16:03:00.906250
2668,26.6,2022-10-26 16:03:00.921875
2669,25.98,2022-10-26 16:03:00.937500
2670,24.74,2022-10-26 16:03:00.953125
2671,23.06,2022-10-26 16:03:00.968750
2672,21.15,2022-10-26 16:03:00.984375
2673,19.16,2022-10-26 16:03:01.000000
2674,17.15,2022-10-26 16:03:01.015625
2675,15.07,2022-10-26 16:03:01.031250
2676,12.92,2022-10-26 16:03:01.046875
2677,10.75,2022-10-26 16:03:01.062500
2678,8.76,2022-10-26 16:03:01.078125
2679,7.21,2022-10-26 16:03:01.093750
2680,6.27,2022-10-26 16:03:01.109375
2681,5.93,2022-10-26 16:03:01.125000
2682,5.96,2022-10-26 16:03:01.140625
2683,5.95,2022-10-26 16:03:01.156250
2684,5.5,2022-10-26 16:03:01.171875
2685,4.37,2022-10-26 16:03:01.187500
2686,2.56,2022-10-26 16:03:01.203125
2687,0.29,2022-10-26 16:03:01.218750
2688,-2.09,2022-10-26 16:03:01.234375
2689,-4.22,2022-10-26 16:03:01.250000
2690,-5.84,2022-10-26 16:03:01.265625
2691,-6.79,2022-10-26 16:03:01.281250
2692,-6.94,2022-10-26 16:03:01.296875
2693,-6.21,2022-10-26 16:03:01.312500
2694,-4.59,2022-10-26 16:03:01.328125
2695,-2.19,2022-10-26 16:03:01.343750
2696,0.71,2022-10-26 16:03:01.359375
2697,3.74,2022-10-26 16:03:01.375000
2698,6.63,2022-10-26 16:03:01.390625
2699,9.37,2022-10-26 16:03:01.406250
2700,12.34,2022-10-26 16:03:01.421875
2701,16.28,2022-10-26 16:03:01.437500
2702,22.04,2022-10-26 16:03:01.453125
2703,30.36,2022-10-26 16:03:01.468750
2704,41.62,2022-10-26 16:03:01.484375
2705,55.69,2022-10-26 16:03:01.500000
2706,71.82,2022-10-26 16:03:01.515625
2707,88.69,2022-10-26 16:03:01.531250
2708,104.43,2022-10-26 16:03:01.546875
2709,116.89,2022-10-26 16:03:01.562500
2710,124.17,2022-10-26 16:03:01.578125
2711,125.13,2022-10-26 16:03:01.593750
2712,119.86,2022-10-26 16:03:01.609375
2713,109.61,2022-10-26 16:03:01.625000
2714,96.38,2022-10-26 16:03:01.640625
2715,82.23,2022-10-26 16:03:01.656250
2716,68.61,2022-10-26 16:03:01.671875
2717,56.2,2022-10-26 16:03:01.687500
2718,45.01,2022-10-26 16:03:01.703125
2719,34.81,2022-10-26 16:03:01.718750
2720,25.44,2022-10-26 16:03:01.734375
2721,16.99,2022-10-26 16:03:01.750000
2722,9.6,2022-10-26 16:03:01.765625
2723,3.29,2022-10-26 16:03:01.781250
2724,-2.11,2022-10-26 16:03:01.796875
2725,-6.89,2022-10-26 16:03:01.812500
2726,-11.28,2022-10-26 16:03:01.828125
2727,-15.34,2022-10-26 16:03:01.843750
2728,-18.88,2022-10-26 16:03:01.859375
2729,-21.68,2022-10-26 16:03:01.875000
2730,-23.46,2022-10-26 16:03:01.890625
2731,-24.15,2022-10-26 16:03:01.906250
2732,-23.86,2022-10-26 16:03:01.921875
2733,-22.87,2022-10-26 16:03:01.937500
2734,-21.57,2022-10-26 16:03:01.953125
2735,-20.25,2022-10-26 16:03:01.968750
2736,-18.97,2022-10-26 16:03:01.984375
2737,-17.51,2022-10-26 16:03:02.000000
2738,-15.5,2022-10-26 16:03:02.015625
2739,-12.57,2022-10-26 16:03:02.031250
2740,-8.69,2022-10-26 16:03:02.046875
2741,-4.28,2022-10-26 16:03:02.062500
2742,-0.27,2022-10-26 16:03:02.078125
2743,2.2,2022-10-26 16:03:02.093750
2744,2.12,2022-10-26 16:03:02.109375
2745,-0.91,2022-10-26 16:03:02.125000
2746,-6.49,2022-10-26 16:03:02.140625
2747,-13.54,2022-10-26 16:03:02.156250
2748,-20.7,2022-10-26 16:03:02.171875
2749,-26.84,2022-10-26 16:03:02.187500
2750,-31.41,2022-10-26 16:03:02.203125
2751,-34.53,2022-10-26 16:03:02.218750
2752,-36.74,2022-10-26 16:03:02.234375
2753,-38.67,2022-10-26 16:03:02.250000
2754,-40.85,2022-10-26 16:03:02.265625
2755,-43.6,2022-10-26 16:03:02.281250
2756,-47.22,2022-10-26 16:03:02.296875
2757,-51.99,2022-10-26 16:03:02.312500
2758,-58.07,2022-10-26 16:03:02.328125
2759,-65.29,2022-10-26 16:03:02.343750
2760,-72.85,2022-10-26 16:03:02.359375
2761,-79.46,2022-10-26 16:03:02.375000
2762,-83.66,2022-10-26 16:03:02.390625
2763,-84.39,2022-10-26 16:03:02.406250
2764,-81.44,2022-10-26 16:03:02.421875
2765,-75.51,2022-10-26 16:03:02.437500
2766,-67.83,2022-10-26 16:03:02.453125
2767,-59.76,2022-10-26 16:03:02.468750
2768,-52.25,2022-10-26 16:03:02.484375
2769,-45.73,2022-10-26 16:03:02.500000
2770,-40.12,2022-10-26 16:03:02.515625
2771,-35.18,2022-10-26 16:03:02.531250
2772,-30.69,2022-10-26 16:03:02.546875
2773,-26.61,2022-10-26 16:03:02.562500
2774,-23.04,2022-10-26 16:03:02.578125
2775,-20.12,2022-10-26 16:03:02.593750
2776,-17.96,2022-10-26 16:03:02.609375
2777,-16.51,2022-10-26 16:03:02.625000
2778,-15.63,2022-10-26 16:03:02.640625
2779,-15.09,2022-10-26 16:03:02.656250
2780,-14.63,2022-10-26 16:03:02.671875
2781,-14.09,2022-10-26 16:03:02.687500
2782,-13.48,2022-10-26 16:03:02.703125
2783,-12.98,2022-10-26 16:03:02.718750
2784,-12.91,2022-10-26 16:03:02.734375
2785,-13.57,2022-10-26 16:03:02.750000
2786,-15.15,2022-10-26 16:03:02.765625
2787,-17.63,2022-10-26 16:03:02.781250
2788,-20.76,2022-10-26 16:03:02.796875
2789,-24.17,2022-10-26 16:03:02.812500
2790,-27.36,2022-10-26 16:03:02.828125
2791,-29.79,2022-10-26 16:03:02.843750
2792,-30.81,2022-10-26 16:03:02.859375
2793,-29.74,2022-10-26 16:03:02.875000
2794,-26.01,2022-10-26 16:03:02.890625
2795,-19.33,2022-10-26 16:03:02.906250
2796,-9.92,2022-10-26 16:03:02.921875
2797,1.54,2022-10-26 16:03:02.937500
2798,13.96,2022-10-26 16:03:02.953125
2799,26.18,2022-10-26 16:03:02.968750
2800,37.23,2022-10-26 16:03:02.984375
2801,46.45,2022-10-26 16:03:03.000000
2802,53.59,2022-10-26 16:03:03.015625
2803,58.71,2022-10-26 16:03:03.031250
2804,62.04,2022-10-26 16:03:03.046875
2805,63.95,2022-10-26 16:03:03.062500
2806,64.75,2022-10-26 16:03:03.078125
2807,64.69,2022-10-26 16:03:03.093750
2808,63.74,2022-10-26 16:03:03.109375
2809,61.67,2022-10-26 16:03:03.125000
2810,58.06,2022-10-26 16:03:03.140625
2811,52.55,2022-10-26 16:03:03.156250
2812,45.15,2022-10-26 16:03:03.171875
2813,36.29,2022-10-26 16:03:03.187500
2814,26.94,2022-10-26 16:03:03.203125
2815,18.32,2022-10-26 16:03:03.218750
2816,11.56,2022-10-26 16:03:03.234375
2817,7.41,2022-10-26 16:03:03.250000
2818,6.05,2022-10-26 16:03:03.265625
2819,7.03,2022-10-26 16:03:03.281250
2820,9.52,2022-10-26 16:03:03.296875
2821,12.56,2022-10-26 16:03:03.312500
2822,15.28,2022-10-26 16:03:03.328125
2823,17.12,2022-10-26 16:03:03.343750
2824,17.78,2022-10-26 16:03:03.359375
2825,17.23,2022-10-26 16:03:03.375000
2826,15.57,2022-10-26 16:03:03.390625
2827,12.92,2022-10-26 16:03:03.406250
2828,9.46,2022-10-26 16:03:03.421875
2829,5.37,2022-10-26 16:03:03.437500
2830,0.91,2022-10-26 16:03:03.453125
2831,-3.67,2022-10-26 16:03:03.468750
2832,-8.18,2022-10-26 16:03:03.484375
2833,-12.59,2022-10-26 16:03:03.500000
2834,-17.04,2022-10-26 16:03:03.515625
2835,-21.72,2022-10-26 16:03:03.531250
2836,-26.69,2022-10-26 16:03:03.546875
2837,-31.66,2022-10-26 16:03:03.562500
2838,-35.92,2022-10-26 16:03:03.578125
2839,-38.5,2022-10-26 16:03:03.593750
2840,-38.45,2022-10-26 16:03:03.609375
2841,-35.22,2022-10-26 16:03:03.625000
2842,-28.87,2022-10-26 16:03:03.640625
2843,-20.15,2022-10-26 16:03:03.656250
2844,-10.18,2022-10-26 16:03:03.671875
2845,-0.18,2022-10-26 16:03:03.687500
2846,8.93,2022-10-26 16:03:03.703125
2847,16.64,2022-10-26 16:03:03.718750
2848,22.84,2022-10-26 16:03:03.734375
2849,27.6,2022-10-26 16:03:03.750000
2850,31.05,2022-10-26 16:03:03.765625
2851,33.21,2022-10-26 16:03:03.781250
2852,34.06,2022-10-26 16:03:03.796875
2853,33.69,2022-10-26 16:03:03.812500
2854,32.33,2022-10-26 16:03:03.828125
2855,30.38,2022-10-26 16:03:03.843750
2856,28.27,2022-10-26 16:03:03.859375
2857,26.32,2022-10-26 16:03:03.875000
2858,24.66,2022-10-26 16:03:03.890625
2859,23.18,2022-10-26 16:03:03.906250
2860,21.79,2022-10-26 16:03:03.921875
2861,20.46,2022-10-26 16:03:03.937500
2862,19.33,2022-10-26 16:03:03.953125
2863,18.64,2022-10-26 16:03:03.968750
2864,18.5,2022-10-26 16:03:03.984375
2865,18.81,2022-10-26 16:03:04.000000
2866,19.17,2022-10-26 16:03:04.015625
2867,19.13,2022-10-26 16:03:04.031250
2868,18.38,2022-10-26 16:03:04.046875
2869,16.94,2022-10-26 16:03:04.062500
2870,15.13,2022-10-26 16:03:04.078125
2871,13.43,2022-10-26 16:03:04.093750
2872,12.2,2022-10-26 16:03:04.109375
2873,11.48,2022-10-26 16:03:04.125000
2874,11.01,2022-10-26 16:03:04.140625
2875,10.33,2022-10-26 16:03:04.156250
2876,8.95,2022-10-26 16:03:04.171875
2877,6.47,2022-10-26 16:03:04.187500
2878,2.69,2022-10-26 16:03:04.203125
2879,-2.3,2022-10-26 16:03:04.218750
2880,-8.11,2022-10-26 16:03:04.234375
2881,-14.01,2022-10-26 16:03:04.250000
2882,-18.98,2022-10-26 16:03:04.265625
2883,-22.01,2022-10-26 16:03:04.281250
2884,-22.31,2022-10-26 16:03:04.296875
2885,-19.61,2022-10-26 16:03:04.312500
2886,-14.24,2022-10-26 16:03:04.328125
2887,-7.0,2022-10-26 16:03:04.343750
2888,1.12,2022-10-26 16:03:04.359375
2889,9.23,2022-10-26 16:03:04.375000
2890,16.72,2022-10-26 16:03:04.390625
2891,23.27,2022-10-26 16:03:04.406250
2892,28.73,2022-10-26 16:03:04.421875
2893,33.03,2022-10-26 16:03:04.437500
2894,36.06,2022-10-26 16:03:04.453125
2895,37.74,2022-10-26 16:03:04.468750
2896,38.09,2022-10-26 16:03:04.484375
2897,37.31,2022-10-26 16:03:04.500000
2898,35.76,2022-10-26 16:03:04.515625
2899,33.86,2022-10-26 16:03:04.531250
2900,31.94,2022-10-26 16:03:04.546875
2901,30.16,2022-10-26 16:03:04.562500
2902,28.53,2022-10-26 16:03:04.578125
2903,26.93,2022-10-26 16:03:04.593750
2904,25.27,2022-10-26 16:03:04.609375
2905,23.56,2022-10-26 16:03:04.625000
2906,21.89,2022-10-26 16:03:04.640625
2907,20.4,2022-10-26 16:03:04.656250
2908,19.17,2022-10-26 16:03:04.671875
2909,18.15,2022-10-26 16:03:04.687500
2910,17.18,2022-10-26 16:03:04.703125
2911,16.04,2022-10-26 16:03:04.718750
2912,14.49,2022-10-26 16:03:04.734375
2913,12.37,2022-10-26 16:03:04.750000
2914,9.63,2022-10-26 16:03:04.765625
2915,6.41,2022-10-26 16:03:04.781250
2916,2.95,2022-10-26 16:03:04.796875
2917,-0.44,2022-10-26 16:03:04.812500
2918,-3.5,2022-10-26 16:03:04.828125
2919,-6.13,2022-10-26 16:03:04.843750
2920,-8.45,2022-10-26 16:03:04.859375
2921,-10.72,2022-10-26 16:03:04.875000
2922,-13.26,2022-10-26 16:03:04.890625
2923,-16.34,2022-10-26 16:03:04.906250
2924,-20.08,2022-10-26 16:03:04.921875
2925,-24.4,2022-10-26 16:03:04.937500
2926,-28.93,2022-10-26 16:03:04.953125
2927,-33.03,2022-10-26 16:03:04.968750
2928,-35.84,2022-10-26 16:03:04.984375
2929,-36.46,2022-10-26 16:03:05.000000
2930,-34.27,2022-10-26 16:03:05.015625
2931,-29.16,2022-10-26 16:03:05.031250
2932,-21.67,2022-10-26 16:03:05.046875
2933,-12.86,2022-10-26 16:03:05.062500
2934,-3.95,2022-10-26 16:03:05.078125
2935,4.08,2022-10-26 16:03:05.093750
2936,10.71,2022-10-26 16:03:05.109375
2937,15.83,2022-10-26 16:03:05.125000
2938,19.59,2022-10-26 16:03:05.140625
2939,22.14,2022-10-26 16:03:05.156250
2940,23.53,2022-10-26 16:03:05.171875
2941,23.8,2022-10-26 16:03:05.187500
2942,23.08,2022-10-26 16:03:05.203125
2943,21.68,2022-10-26 16:03:05.218750
2944,20.04,2022-10-26 16:03:05.234375
2945,18.58,2022-10-26 16:03:05.250000
2946,17.51,2022-10-26 16:03:05.265625
2947,16.78,2022-10-26 16:03:05.281250
2948,16.21,2022-10-26 16:03:05.296875
2949,15.59,2022-10-26 16:03:05.312500
2950,14.91,2022-10-26 16:03:05.328125
2951,14.27,2022-10-26 16:03:05.343750
2952,13.84,2022-10-26 16:03:05.359375
2953,13.7,2022-10-26 16:03:05.375000
2954,13.79,2022-10-26 16:03:05.390625
2955,13.91,2022-10-26 16:03:05.406250
2956,13.81,2022-10-26 16:03:05.421875
2957,13.27,2022-10-26 16:03:05.437500
2958,12.15,2022-10-26 16:03:05.453125
2959,10.4,2022-10-26 16:03:05.468750
2960,8.08,2022-10-26 16:03:05.484375
2961,5.35,2022-10-26 16:03:05.500000
2962,2.44,2022-10-26 16:03:05.515625
2963,-0.43,2022-10-26 16:03:05.531250
2964,-3.07,2022-10-26 16:03:05.546875
2965,-5.44,2022-10-26 16:03:05.562500
2966,-7.62,2022-10-26 16:03:05.578125
2967,-9.84,2022-10-26 16:03:05.593750
2968,-12.32,2022-10-26 16:03:05.609375
2969,-15.24,2022-10-26 16:03:05.625000
2970,-18.67,2022-10-26 16:03:05.640625
2971,-22.52,2022-10-26 16:03:05.656250
2972,-26.55,2022-10-26 16:03:05.671875
2973,-30.36,2022-10-26 16:03:05.687500
2974,-33.35,2022-10-26 16:03:05.703125
2975,-34.84,2022-10-26 16:03:05.718750
2976,-34.26,2022-10-26 16:03:05.734375
2977,-31.3,2022-10-26 16:03:05.750000
2978,-26.13,2022-10-26 16:03:05.765625
2979,-19.36,2022-10-26 16:03:05.781250
2980,-11.89,2022-10-26 16:03:05.796875
2981,-4.63,2022-10-26 16:03:05.812500
2982,1.76,2022-10-26 16:03:05.828125
2983,6.93,2022-10-26 16:03:05.843750
2984,10.84,2022-10-26 16:03:05.859375
2985,13.66,2022-10-26 16:03:05.875000
2986,15.58,2022-10-26 16:03:05.890625
2987,16.78,2022-10-26 16:03:05.906250
2988,17.39,2022-10-26 16:03:05.921875
2989,17.47,2022-10-26 16:03:05.937500
2990,17.12,2022-10-26 16:03:05.953125
2991,16.38,2022-10-26 16:03:05.968750
2992,15.35,2022-10-26 16:03:05.984375
2993,14.09,2022-10-26 16:03:06.000000
2994,12.74,2022-10-26 16:03:06.015625
2995,11.46,2022-10-26 16:03:06.031250
2996,10.43,2022-10-26 16:03:06.046875
2997,9.82,2022-10-26 16:03:06.062500
2998,9.71,2022-10-26 16:03:06.078125
2999,10.06,2022-10-26 16:03:06.093750
3000,10.75,2022-10-26 16:03:06.109375
3001,11.64,2022-10-26 16:03:06.125000
3002,12.54,2022-10-26 16:03:06.140625
3003,13.3,2022-10-26 16:03:06.156250
3004,13.74,2022-10-26 16:03:06.171875
3005,13.68,2022-10-26 16:03:06.187500
3006,12.95,2022-10-26 16:03:06.203125
3007,11.51,2022-10-26 16:03:06.218750
3008,9.44,2022-10-26 16:03:06.234375
3009,6.97,2022-10-26 16:03:06.250000
3010,4.33,2022-10-26 16:03:06.265625
3011,1.71,2022-10-26 16:03:06.281250
3012,-0.86,2022-10-26 16:03:06.296875
3013,-3.49,2022-10-26 16:03:06.312500
3014,-6.32,2022-10-26 16:03:06.328125
3015,-9.44,2022-10-26 16:03:06.343750
3016,-12.85,2022-10-26 16:03:06.359375
3017,-16.44,2022-10-26 16:03:06.375000
3018,-20.11,2022-10-26 16:03:06.390625
3019,-23.71,2022-10-26 16:03:06.406250
3020,-27.01,2022-10-26 16:03:06.421875
3021,-29.66,2022-10-26 16:03:06.437500
3022,-31.21,2022-10-26 16:03:06.453125
3023,-31.12,2022-10-26 16:03:06.468750
3024,-29.04,2022-10-26 16:03:06.484375
3025,-24.89,2022-10-26 16:03:06.500000
3026,-19.02,2022-10-26 16:03:06.515625
3027,-12.09,2022-10-26 16:03:06.531250
3028,-4.89,2022-10-26 16:03:06.546875
3029,1.85,2022-10-26 16:03:06.562500
3030,7.69,2022-10-26 16:03:06.578125
3031,12.42,2022-10-26 16:03:06.593750
3032,16.06,2022-10-26 16:03:06.609375
3033,18.69,2022-10-26 16:03:06.625000
3034,20.38,2022-10-26 16:03:06.640625
3035,21.18,2022-10-26 16:03:06.656250
3036,21.17,2022-10-26 16:03:06.671875
3037,20.45,2022-10-26 16:03:06.687500
3038,19.26,2022-10-26 16:03:06.703125
3039,17.84,2022-10-26 16:03:06.718750
3040,16.43,2022-10-26 16:03:06.734375
3041,15.18,2022-10-26 16:03:06.750000
3042,14.15,2022-10-26 16:03:06.765625
3043,13.3,2022-10-26 16:03:06.781250
3044,12.55,2022-10-26 16:03:06.796875
3045,11.82,2022-10-26 16:03:06.812500
3046,11.08,2022-10-26 16:03:06.828125
3047,10.35,2022-10-26 16:03:06.843750
3048,9.68,2022-10-26 16:03:06.859375
3049,9.06,2022-10-26 16:03:06.875000
3050,8.4,2022-10-26 16:03:06.890625
3051,7.54,2022-10-26 16:03:06.906250
3052,6.33,2022-10-26 16:03:06.921875
3053,4.69,2022-10-26 16:03:06.937500
3054,2.7,2022-10-26 16:03:06.953125
3055,0.54,2022-10-26 16:03:06.968750
3056,-1.53,2022-10-26 16:03:06.984375
3057,-3.36,2022-10-26 16:03:07.000000
3058,-4.95,2022-10-26 16:03:07.015625
3059,-6.4,2022-10-26 16:03:07.031250
3060,-7.94,2022-10-26 16:03:07.046875
3061,-9.75,2022-10-26 16:03:07.062500
3062,-11.93,2022-10-26 16:03:07.078125
3063,-14.49,2022-10-26 16:03:07.093750
3064,-17.37,2022-10-26 16:03:07.109375
3065,-20.43,2022-10-26 16:03:07.125000
3066,-23.47,2022-10-26 16:03:07.140625
3067,-26.15,2022-10-26 16:03:07.156250
3068,-28.05,2022-10-26 16:03:07.171875
3069,-28.68,2022-10-26 16:03:07.187500
3070,-27.58,2022-10-26 16:03:07.203125
3071,-24.56,2022-10-26 16:03:07.218750
3072,-19.75,2022-10-26 16:03:07.234375
3073,-13.63,2022-10-26 16:03:07.250000
3074,-6.91,2022-10-26 16:03:07.265625
3075,-0.37,2022-10-26 16:03:07.281250
3076,5.4,2022-10-26 16:03:07.296875
3077,10.06,2022-10-26 16:03:07.312500
3078,13.54,2022-10-26 16:03:07.328125
3079,15.97,2022-10-26 16:03:07.343750
3080,17.53,2022-10-26 16:03:07.359375
3081,18.35,2022-10-26 16:03:07.375000
3082,18.5,2022-10-26 16:03:07.390625
3083,18.0,2022-10-26 16:03:07.406250
3084,16.91,2022-10-26 16:03:07.421875
3085,15.32,2022-10-26 16:03:07.437500
3086,13.46,2022-10-26 16:03:07.453125
3087,11.58,2022-10-26 16:03:07.468750
3088,9.96,2022-10-26 16:03:07.484375
3089,8.79,2022-10-26 16:03:07.500000
3090,8.14,2022-10-26 16:03:07.515625
3091,7.95,2022-10-26 16:03:07.531250
3092,8.04,2022-10-26 16:03:07.546875
3093,8.22,2022-10-26 16:03:07.562500
3094,8.37,2022-10-26 16:03:07.578125
3095,8.42,2022-10-26 16:03:07.593750
3096,8.37,2022-10-26 16:03:07.609375
3097,8.24,2022-10-26 16:03:07.625000
3098,8.05,2022-10-26 16:03:07.640625
3099,7.73,2022-10-26 16:03:07.656250
3100,7.22,2022-10-26 16:03:07.671875
3101,6.41,2022-10-26 16:03:07.687500
3102,5.28,2022-10-26 16:03:07.703125
3103,3.78,2022-10-26 16:03:07.718750
3104,1.94,2022-10-26 16:03:07.734375
3105,-0.19,2022-10-26 16:03:07.750000
3106,-2.48,2022-10-26 16:03:07.765625
3107,-4.76,2022-10-26 16:03:07.781250
3108,-6.87,2022-10-26 16:03:07.796875
3109,-8.72,2022-10-26 16:03:07.812500
3110,-10.37,2022-10-26 16:03:07.828125
3111,-12.02,2022-10-26 16:03:07.843750
3112,-13.99,2022-10-26 16:03:07.859375
3113,-16.52,2022-10-26 16:03:07.875000
3114,-19.65,2022-10-26 16:03:07.890625
3115,-23.14,2022-10-26 16:03:07.906250
3116,-26.49,2022-10-26 16:03:07.921875
3117,-29.07,2022-10-26 16:03:07.937500
3118,-30.28,2022-10-26 16:03:07.953125
3119,-29.71,2022-10-26 16:03:07.968750
3120,-27.23,2022-10-26 16:03:07.984375
3121,-22.98,2022-10-26 16:03:08.000000
3122,-17.35,2022-10-26 16:03:08.015625
3123,-10.88,2022-10-26 16:03:08.031250
3124,-4.12,2022-10-26 16:03:08.046875
3125,2.42,2022-10-26 16:03:08.062500
3126,8.39,2022-10-26 16:03:08.078125
3127,13.6,2022-10-26 16:03:08.093750
3128,17.91,2022-10-26 16:03:08.109375
3129,21.27,2022-10-26 16:03:08.125000
3130,23.55,2022-10-26 16:03:08.140625
3131,24.66,2022-10-26 16:03:08.156250
3132,24.52,2022-10-26 16:03:08.171875
3133,23.17,2022-10-26 16:03:08.187500
3134,20.75,2022-10-26 16:03:08.203125
3135,17.54,2022-10-26 16:03:08.218750
3136,13.89,2022-10-26 16:03:08.234375
3137,10.17,2022-10-26 16:03:08.250000
3138,6.73,2022-10-26 16:03:08.265625
3139,3.81,2022-10-26 16:03:08.281250
3140,1.62,2022-10-26 16:03:08.296875
3141,0.24,2022-10-26 16:03:08.312500
3142,-0.32,2022-10-26 16:03:08.328125
3143,-0.18,2022-10-26 16:03:08.343750
3144,0.51,2022-10-26 16:03:08.359375
3145,1.5,2022-10-26 16:03:08.375000
3146,2.59,2022-10-26 16:03:08.390625
3147,3.6,2022-10-26 16:03:08.406250
3148,4.39,2022-10-26 16:03:08.421875
3149,4.92,2022-10-26 16:03:08.437500
3150,5.15,2022-10-26 16:03:08.453125
3151,5.07,2022-10-26 16:03:08.468750
3152,4.64,2022-10-26 16:03:08.484375
3153,3.82,2022-10-26 16:03:08.500000
3154,2.57,2022-10-26 16:03:08.515625
3155,0.94,2022-10-26 16:03:08.531250
3156,-0.95,2022-10-26 16:03:08.546875
3157,-2.9,2022-10-26 16:03:08.562500
3158,-4.71,2022-10-26 16:03:08.578125
3159,-6.19,2022-10-26 16:03:08.593750
3160,-7.3,2022-10-26 16:03:08.609375
3161,-8.13,2022-10-26 16:03:08.625000
3162,-8.98,2022-10-26 16:03:08.640625
3163,-10.22,2022-10-26 16:03:08.656250
3164,-12.17,2022-10-26 16:03:08.671875
3165,-14.86,2022-10-26 16:03:08.687500
3166,-17.95,2022-10-26 16:03:08.703125
3167,-20.75,2022-10-26 16:03:08.718750
3168,-22.38,2022-10-26 16:03:08.734375
3169,-22.17,2022-10-26 16:03:08.750000
3170,-19.86,2022-10-26 16:03:08.765625
3171,-15.76,2022-10-26 16:03:08.781250
3172,-10.56,2022-10-26 16:03:08.796875
3173,-5.14,2022-10-26 16:03:08.812500
3174,-0.21,2022-10-26 16:03:08.828125
3175,3.81,2022-10-26 16:03:08.843750
3176,6.74,2022-10-26 16:03:08.859375
3177,8.62,2022-10-26 16:03:08.875000
3178,9.49,2022-10-26 16:03:08.890625
3179,9.39,2022-10-26 16:03:08.906250
3180,8.33,2022-10-26 16:03:08.921875
3181,6.41,2022-10-26 16:03:08.937500
3182,3.84,2022-10-26 16:03:08.953125
3183,0.96,2022-10-26 16:03:08.968750
3184,-1.81,2022-10-26 16:03:08.984375
3185,-4.12,2022-10-26 16:03:09.000000
3186,-5.7,2022-10-26 16:03:09.015625
3187,-6.47,2022-10-26 16:03:09.031250
3188,-6.47,2022-10-26 16:03:09.046875
3189,-5.8,2022-10-26 16:03:09.062500
3190,-4.59,2022-10-26 16:03:09.078125
3191,-2.97,2022-10-26 16:03:09.093750
