,BVP,time
0,-101.93,2022-08-17 13:47:58.031250
1,-86.65,2022-08-17 13:47:58.046875
2,-76.7,2022-08-17 13:47:58.062500
3,-74.16,2022-08-17 13:47:58.078125
4,-79.5,2022-08-17 13:47:58.093750
5,-90.97,2022-08-17 13:47:58.109375
6,-104.83,2022-08-17 13:47:58.125000
7,-116.24,2022-08-17 13:47:58.140625
8,-120.78,2022-08-17 13:47:58.156250
9,-115.89,2022-08-17 13:47:58.171875
10,-101.93,2022-08-17 13:47:58.187500
11,-82.03,2022-08-17 13:47:58.203125
12,-61.21,2022-08-17 13:47:58.218750
13,-44.42,2022-08-17 13:47:58.234375
14,-34.75,2022-08-17 13:47:58.250000
15,-32.4,2022-08-17 13:47:58.265625
16,-34.87,2022-08-17 13:47:58.281250
17,-38.16,2022-08-17 13:47:58.296875
18,-38.41,2022-08-17 13:47:58.312500
19,-32.93,2022-08-17 13:47:58.328125
20,-20.62,2022-08-17 13:47:58.343750
21,-1.81,2022-08-17 13:47:58.359375
22,21.79,2022-08-17 13:47:58.375000
23,46.98,2022-08-17 13:47:58.390625
24,69.26,2022-08-17 13:47:58.406250
25,83.7,2022-08-17 13:47:58.421875
26,86.72,2022-08-17 13:47:58.437500
27,77.99,2022-08-17 13:47:58.453125
28,61.29,2022-08-17 13:47:58.468750
29,43.43,2022-08-17 13:47:58.484375
30,31.1,2022-08-17 13:47:58.500000
31,27.56,2022-08-17 13:47:58.515625
32,30.91,2022-08-17 13:47:58.531250
33,35.38,2022-08-17 13:47:58.546875
34,34.72,2022-08-17 13:47:58.562500
35,26.1,2022-08-17 13:47:58.578125
36,11.63,2022-08-17 13:47:58.593750
37,-3.05,2022-08-17 13:47:58.609375
38,-12.28,2022-08-17 13:47:58.625000
39,-13.76,2022-08-17 13:47:58.640625
40,-9.61,2022-08-17 13:47:58.656250
41,-4.41,2022-08-17 13:47:58.671875
42,-1.75,2022-08-17 13:47:58.687500
43,-1.62,2022-08-17 13:47:58.703125
44,-0.62,2022-08-17 13:47:58.718750
45,4.89,2022-08-17 13:47:58.734375
46,15.0,2022-08-17 13:47:58.750000
47,24.51,2022-08-17 13:47:58.765625
48,24.78,2022-08-17 13:47:58.781250
49,8.76,2022-08-17 13:47:58.796875
50,-23.99,2022-08-17 13:47:58.812500
51,-65.36,2022-08-17 13:47:58.828125
52,-101.56,2022-08-17 13:47:58.843750
53,-119.33,2022-08-17 13:47:58.859375
54,-112.55,2022-08-17 13:47:58.875000
55,-85.18,2022-08-17 13:47:58.890625
56,-49.17,2022-08-17 13:47:58.906250
57,-18.34,2022-08-17 13:47:58.921875
58,-1.81,2022-08-17 13:47:58.937500
59,-0.2,2022-08-17 13:47:58.953125
60,-6.64,2022-08-17 13:47:58.968750
61,-11.23,2022-08-17 13:47:58.984375
62,-6.42,2022-08-17 13:47:59.000000
63,9.59,2022-08-17 13:47:59.015625
64,32.95,2022-08-17 13:47:59.031250
65,57.0,2022-08-17 13:47:59.046875
66,75.76,2022-08-17 13:47:59.062500
67,86.22,2022-08-17 13:47:59.078125
68,88.27,2022-08-17 13:47:59.093750
69,83.45,2022-08-17 13:47:59.109375
70,73.65,2022-08-17 13:47:59.125000
71,60.77,2022-08-17 13:47:59.140625
72,47.02,2022-08-17 13:47:59.156250
73,35.38,2022-08-17 13:47:59.171875
74,29.15,2022-08-17 13:47:59.187500
75,30.86,2022-08-17 13:47:59.203125
76,41.41,2022-08-17 13:47:59.218750
77,59.6,2022-08-17 13:47:59.234375
78,82.72,2022-08-17 13:47:59.250000
79,107.39,2022-08-17 13:47:59.265625
80,130.08,2022-08-17 13:47:59.281250
81,147.05,2022-08-17 13:47:59.296875
82,154.04,2022-08-17 13:47:59.312500
83,146.32,2022-08-17 13:47:59.328125
84,119.88,2022-08-17 13:47:59.343750
85,73.11,2022-08-17 13:47:59.359375
86,8.35,2022-08-17 13:47:59.375000
87,-67.99,2022-08-17 13:47:59.390625
88,-146.64,2022-08-17 13:47:59.406250
89,-217.47,2022-08-17 13:47:59.421875
90,-271.49,2022-08-17 13:47:59.437500
91,-302.69,2022-08-17 13:47:59.453125
92,-309.04,2022-08-17 13:47:59.468750
93,-293.14,2022-08-17 13:47:59.484375
94,-261.38,2022-08-17 13:47:59.500000
95,-222.54,2022-08-17 13:47:59.515625
96,-185.85,2022-08-17 13:47:59.531250
97,-158.73,2022-08-17 13:47:59.546875
98,-145.03,2022-08-17 13:47:59.562500
99,-144.41,2022-08-17 13:47:59.578125
100,-153.41,2022-08-17 13:47:59.593750
101,-167.3,2022-08-17 13:47:59.609375
102,-181.61,2022-08-17 13:47:59.625000
103,-192.26,2022-08-17 13:47:59.640625
104,-195.68,2022-08-17 13:47:59.656250
105,-189.22,2022-08-17 13:47:59.671875
106,-171.66,2022-08-17 13:47:59.687500
107,-143.68,2022-08-17 13:47:59.703125
108,-107.99,2022-08-17 13:47:59.718750
109,-68.88,2022-08-17 13:47:59.734375
110,-31.06,2022-08-17 13:47:59.750000
111,2.0,2022-08-17 13:47:59.765625
112,29.99,2022-08-17 13:47:59.781250
113,55.67,2022-08-17 13:47:59.796875
114,82.79,2022-08-17 13:47:59.812500
115,113.9,2022-08-17 13:47:59.828125
116,149.14,2022-08-17 13:47:59.843750
117,186.4,2022-08-17 13:47:59.859375
118,222.23,2022-08-17 13:47:59.875000
119,253.02,2022-08-17 13:47:59.890625
120,272.51,2022-08-17 13:47:59.906250
121,274.68,2022-08-17 13:47:59.921875
122,258.45,2022-08-17 13:47:59.937500
123,228.97,2022-08-17 13:47:59.953125
124,194.1,2022-08-17 13:47:59.968750
125,159.61,2022-08-17 13:47:59.984375
126,128.2,2022-08-17 13:48:00.000000
127,100.68,2022-08-17 13:48:00.015625
128,77.16,2022-08-17 13:48:00.031250
129,57.73,2022-08-17 13:48:00.046875
130,42.97,2022-08-17 13:48:00.062500
131,33.31,2022-08-17 13:48:00.078125
132,27.92,2022-08-17 13:48:00.093750
133,24.51,2022-08-17 13:48:00.109375
134,19.79,2022-08-17 13:48:00.125000
135,10.94,2022-08-17 13:48:00.140625
136,-3.1,2022-08-17 13:48:00.156250
137,-21.65,2022-08-17 13:48:00.171875
138,-42.42,2022-08-17 13:48:00.187500
139,-61.73,2022-08-17 13:48:00.203125
140,-75.54,2022-08-17 13:48:00.218750
141,-82.28,2022-08-17 13:48:00.234375
142,-80.81,2022-08-17 13:48:00.250000
143,-72.13,2022-08-17 13:48:00.265625
144,-58.76,2022-08-17 13:48:00.281250
145,-43.47,2022-08-17 13:48:00.296875
146,-28.95,2022-08-17 13:48:00.312500
147,-17.05,2022-08-17 13:48:00.328125
148,-8.22,2022-08-17 13:48:00.343750
149,-1.64,2022-08-17 13:48:00.359375
150,3.97,2022-08-17 13:48:00.375000
151,9.79,2022-08-17 13:48:00.390625
152,16.33,2022-08-17 13:48:00.406250
153,23.74,2022-08-17 13:48:00.421875
154,32.44,2022-08-17 13:48:00.437500
155,42.61,2022-08-17 13:48:00.453125
156,54.12,2022-08-17 13:48:00.468750
157,66.54,2022-08-17 13:48:00.484375
158,79.13,2022-08-17 13:48:00.500000
159,90.86,2022-08-17 13:48:00.515625
160,100.8,2022-08-17 13:48:00.531250
161,108.47,2022-08-17 13:48:00.546875
162,111.85,2022-08-17 13:48:00.562500
163,110.99,2022-08-17 13:48:00.578125
164,106.91,2022-08-17 13:48:00.593750
165,101.18,2022-08-17 13:48:00.609375
166,95.34,2022-08-17 13:48:00.625000
167,90.41,2022-08-17 13:48:00.640625
168,86.52,2022-08-17 13:48:00.656250
169,82.97,2022-08-17 13:48:00.671875
170,78.43,2022-08-17 13:48:00.687500
171,71.4,2022-08-17 13:48:00.703125
172,61.25,2022-08-17 13:48:00.718750
173,48.0,2022-08-17 13:48:00.734375
174,32.53,2022-08-17 13:48:00.750000
175,16.26,2022-08-17 13:48:00.765625
176,0.78,2022-08-17 13:48:00.781250
177,-12.59,2022-08-17 13:48:00.796875
178,-23.05,2022-08-17 13:48:00.812500
179,-30.39,2022-08-17 13:48:00.828125
180,-34.68,2022-08-17 13:48:00.843750
181,-35.61,2022-08-17 13:48:00.859375
182,-32.8,2022-08-17 13:48:00.875000
183,-25.88,2022-08-17 13:48:00.890625
184,-14.93,2022-08-17 13:48:00.906250
185,-0.81,2022-08-17 13:48:00.921875
186,14.93,2022-08-17 13:48:00.937500
187,30.46,2022-08-17 13:48:00.953125
188,44.4,2022-08-17 13:48:00.968750
189,55.96,2022-08-17 13:48:00.984375
190,64.82,2022-08-17 13:48:01.000000
191,70.09,2022-08-17 13:48:01.015625
192,69.81,2022-08-17 13:48:01.031250
193,61.16,2022-08-17 13:48:01.046875
194,41.44,2022-08-17 13:48:01.062500
195,9.49,2022-08-17 13:48:01.078125
196,-33.82,2022-08-17 13:48:01.093750
197,-85.96,2022-08-17 13:48:01.109375
198,-144.13,2022-08-17 13:48:01.125000
199,-206.09,2022-08-17 13:48:01.140625
200,-270.18,2022-08-17 13:48:01.156250
201,-334.02,2022-08-17 13:48:01.171875
202,-393.19,2022-08-17 13:48:01.187500
203,-440.92,2022-08-17 13:48:01.203125
204,-469.82,2022-08-17 13:48:01.218750
205,-474.74,2022-08-17 13:48:01.234375
206,-455.22,2022-08-17 13:48:01.250000
207,-416.22,2022-08-17 13:48:01.265625
208,-366.27,2022-08-17 13:48:01.281250
209,-314.36,2022-08-17 13:48:01.296875
210,-266.92,2022-08-17 13:48:01.312500
211,-226.35,2022-08-17 13:48:01.328125
212,-191.61,2022-08-17 13:48:01.343750
213,-159.98,2022-08-17 13:48:01.359375
214,-129.11,2022-08-17 13:48:01.375000
215,-98.05,2022-08-17 13:48:01.390625
216,-67.23,2022-08-17 13:48:01.406250
217,-37.75,2022-08-17 13:48:01.421875
218,-10.45,2022-08-17 13:48:01.437500
219,14.54,2022-08-17 13:48:01.453125
220,37.92,2022-08-17 13:48:01.468750
221,60.94,2022-08-17 13:48:01.484375
222,85.06,2022-08-17 13:48:01.500000
223,111.58,2022-08-17 13:48:01.515625
224,141.4,2022-08-17 13:48:01.531250
225,174.7,2022-08-17 13:48:01.546875
226,210.54,2022-08-17 13:48:01.562500
227,246.55,2022-08-17 13:48:01.578125
228,278.78,2022-08-17 13:48:01.593750
229,302.19,2022-08-17 13:48:01.609375
230,311.76,2022-08-17 13:48:01.625000
231,304.15,2022-08-17 13:48:01.640625
232,279.24,2022-08-17 13:48:01.656250
233,240.78,2022-08-17 13:48:01.671875
234,195.62,2022-08-17 13:48:01.687500
235,151.64,2022-08-17 13:48:01.703125
236,115.25,2022-08-17 13:48:01.718750
237,89.37,2022-08-17 13:48:01.734375
238,72.84,2022-08-17 13:48:01.750000
239,61.52,2022-08-17 13:48:01.765625
240,50.56,2022-08-17 13:48:01.781250
241,36.59,2022-08-17 13:48:01.796875
242,18.95,2022-08-17 13:48:01.812500
243,-0.31,2022-08-17 13:48:01.828125
244,-17.75,2022-08-17 13:48:01.843750
245,-30.2,2022-08-17 13:48:01.859375
246,-36.01,2022-08-17 13:48:01.875000
247,-35.39,2022-08-17 13:48:01.890625
248,-29.84,2022-08-17 13:48:01.906250
249,-21.3,2022-08-17 13:48:01.921875
250,-11.35,2022-08-17 13:48:01.937500
251,-1.13,2022-08-17 13:48:01.953125
252,8.43,2022-08-17 13:48:01.968750
253,16.25,2022-08-17 13:48:01.984375
254,21.11,2022-08-17 13:48:02.000000
255,22.03,2022-08-17 13:48:02.015625
256,18.96,2022-08-17 13:48:02.031250
257,13.01,2022-08-17 13:48:02.046875
258,6.16,2022-08-17 13:48:02.062500
259,0.55,2022-08-17 13:48:02.078125
260,-2.51,2022-08-17 13:48:02.093750
261,-3.02,2022-08-17 13:48:02.109375
262,-2.21,2022-08-17 13:48:02.125000
263,-1.96,2022-08-17 13:48:02.140625
264,-4.08,2022-08-17 13:48:02.156250
265,-9.42,2022-08-17 13:48:02.171875
266,-17.57,2022-08-17 13:48:02.187500
267,-26.89,2022-08-17 13:48:02.203125
268,-34.91,2022-08-17 13:48:02.218750
269,-39.05,2022-08-17 13:48:02.234375
270,-37.55,2022-08-17 13:48:02.250000
271,-30.05,2022-08-17 13:48:02.265625
272,-17.83,2022-08-17 13:48:02.281250
273,-3.51,2022-08-17 13:48:02.296875
274,9.71,2022-08-17 13:48:02.312500
275,18.95,2022-08-17 13:48:02.328125
276,22.33,2022-08-17 13:48:02.343750
277,19.49,2022-08-17 13:48:02.359375
278,11.73,2022-08-17 13:48:02.375000
279,1.9,2022-08-17 13:48:02.390625
280,-6.19,2022-08-17 13:48:02.406250
281,-8.78,2022-08-17 13:48:02.421875
282,-3.39,2022-08-17 13:48:02.437500
283,10.19,2022-08-17 13:48:02.453125
284,29.71,2022-08-17 13:48:02.468750
285,51.28,2022-08-17 13:48:02.484375
286,70.71,2022-08-17 13:48:02.500000
287,84.93,2022-08-17 13:48:02.515625
288,92.67,2022-08-17 13:48:02.531250
289,94.18,2022-08-17 13:48:02.546875
290,90.49,2022-08-17 13:48:02.562500
291,82.69,2022-08-17 13:48:02.578125
292,71.77,2022-08-17 13:48:02.593750
293,58.83,2022-08-17 13:48:02.609375
294,45.48,2022-08-17 13:48:02.625000
295,33.86,2022-08-17 13:48:02.640625
296,26.0,2022-08-17 13:48:02.656250
297,23.12,2022-08-17 13:48:02.671875
298,24.99,2022-08-17 13:48:02.687500
299,30.09,2022-08-17 13:48:02.703125
300,36.32,2022-08-17 13:48:02.718750
301,41.84,2022-08-17 13:48:02.734375
302,45.72,2022-08-17 13:48:02.750000
303,48.1,2022-08-17 13:48:02.765625
304,49.68,2022-08-17 13:48:02.781250
305,51.23,2022-08-17 13:48:02.796875
306,52.99,2022-08-17 13:48:02.812500
307,54.62,2022-08-17 13:48:02.828125
308,55.39,2022-08-17 13:48:02.843750
309,54.62,2022-08-17 13:48:02.859375
310,52.07,2022-08-17 13:48:02.875000
311,48.0,2022-08-17 13:48:02.890625
312,43.07,2022-08-17 13:48:02.906250
313,38.05,2022-08-17 13:48:02.921875
314,33.53,2022-08-17 13:48:02.937500
315,29.68,2022-08-17 13:48:02.953125
316,26.39,2022-08-17 13:48:02.968750
317,23.31,2022-08-17 13:48:02.984375
318,20.18,2022-08-17 13:48:03.000000
319,16.91,2022-08-17 13:48:03.015625
320,13.67,2022-08-17 13:48:03.031250
321,10.74,2022-08-17 13:48:03.046875
322,8.35,2022-08-17 13:48:03.062500
323,6.53,2022-08-17 13:48:03.078125
324,5.05,2022-08-17 13:48:03.093750
325,3.52,2022-08-17 13:48:03.109375
326,1.58,2022-08-17 13:48:03.125000
327,-0.94,2022-08-17 13:48:03.140625
328,-3.98,2022-08-17 13:48:03.156250
329,-7.19,2022-08-17 13:48:03.171875
330,-10.21,2022-08-17 13:48:03.187500
331,-12.73,2022-08-17 13:48:03.203125
332,-14.69,2022-08-17 13:48:03.218750
333,-16.27,2022-08-17 13:48:03.234375
334,-17.88,2022-08-17 13:48:03.250000
335,-19.95,2022-08-17 13:48:03.265625
336,-22.81,2022-08-17 13:48:03.281250
337,-26.57,2022-08-17 13:48:03.296875
338,-31.01,2022-08-17 13:48:03.312500
339,-35.64,2022-08-17 13:48:03.328125
340,-39.84,2022-08-17 13:48:03.343750
341,-42.96,2022-08-17 13:48:03.359375
342,-44.45,2022-08-17 13:48:03.375000
343,-43.98,2022-08-17 13:48:03.390625
344,-41.37,2022-08-17 13:48:03.406250
345,-36.61,2022-08-17 13:48:03.421875
346,-29.92,2022-08-17 13:48:03.437500
347,-21.67,2022-08-17 13:48:03.453125
348,-12.43,2022-08-17 13:48:03.468750
349,-2.86,2022-08-17 13:48:03.484375
350,6.37,2022-08-17 13:48:03.500000
351,14.66,2022-08-17 13:48:03.515625
352,21.59,2022-08-17 13:48:03.531250
353,26.86,2022-08-17 13:48:03.546875
354,30.31,2022-08-17 13:48:03.562500
355,31.92,2022-08-17 13:48:03.578125
356,31.82,2022-08-17 13:48:03.593750
357,30.27,2022-08-17 13:48:03.609375
358,27.72,2022-08-17 13:48:03.625000
359,24.69,2022-08-17 13:48:03.640625
360,21.59,2022-08-17 13:48:03.656250
361,18.72,2022-08-17 13:48:03.671875
362,16.17,2022-08-17 13:48:03.687500
363,13.9,2022-08-17 13:48:03.703125
364,11.86,2022-08-17 13:48:03.718750
365,10.07,2022-08-17 13:48:03.734375
366,8.63,2022-08-17 13:48:03.750000
367,7.61,2022-08-17 13:48:03.765625
368,6.99,2022-08-17 13:48:03.781250
369,6.57,2022-08-17 13:48:03.796875
370,6.0,2022-08-17 13:48:03.812500
371,4.92,2022-08-17 13:48:03.828125
372,3.09,2022-08-17 13:48:03.843750
373,0.47,2022-08-17 13:48:03.859375
374,-2.68,2022-08-17 13:48:03.875000
375,-6.01,2022-08-17 13:48:03.890625
376,-9.09,2022-08-17 13:48:03.906250
377,-11.58,2022-08-17 13:48:03.921875
378,-13.34,2022-08-17 13:48:03.937500
379,-14.42,2022-08-17 13:48:03.953125
380,-15.06,2022-08-17 13:48:03.968750
381,-15.61,2022-08-17 13:48:03.984375
382,-16.53,2022-08-17 13:48:04.000000
383,-18.23,2022-08-17 13:48:04.015625
384,-20.94,2022-08-17 13:48:04.031250
385,-24.63,2022-08-17 13:48:04.046875
386,-28.87,2022-08-17 13:48:04.062500
387,-32.91,2022-08-17 13:48:04.078125
388,-35.85,2022-08-17 13:48:04.093750
389,-36.85,2022-08-17 13:48:04.109375
390,-35.34,2022-08-17 13:48:04.125000
391,-31.17,2022-08-17 13:48:04.140625
392,-24.61,2022-08-17 13:48:04.156250
393,-16.28,2022-08-17 13:48:04.171875
394,-7.07,2022-08-17 13:48:04.187500
395,2.1,2022-08-17 13:48:04.203125
396,10.39,2022-08-17 13:48:04.218750
397,17.27,2022-08-17 13:48:04.234375
398,22.57,2022-08-17 13:48:04.250000
399,26.52,2022-08-17 13:48:04.265625
400,29.48,2022-08-17 13:48:04.281250
401,31.77,2022-08-17 13:48:04.296875
402,33.43,2022-08-17 13:48:04.312500
403,34.21,2022-08-17 13:48:04.328125
404,33.77,2022-08-17 13:48:04.343750
405,31.97,2022-08-17 13:48:04.359375
406,29.01,2022-08-17 13:48:04.375000
407,25.42,2022-08-17 13:48:04.390625
408,21.82,2022-08-17 13:48:04.406250
409,18.65,2022-08-17 13:48:04.421875
410,16.04,2022-08-17 13:48:04.437500
411,13.88,2022-08-17 13:48:04.453125
412,11.91,2022-08-17 13:48:04.468750
413,9.97,2022-08-17 13:48:04.484375
414,8.01,2022-08-17 13:48:04.500000
415,6.03,2022-08-17 13:48:04.515625
416,4.0,2022-08-17 13:48:04.531250
417,1.81,2022-08-17 13:48:04.546875
418,-0.69,2022-08-17 13:48:04.562500
419,-3.62,2022-08-17 13:48:04.578125
420,-6.96,2022-08-17 13:48:04.593750
421,-10.58,2022-08-17 13:48:04.609375
422,-14.31,2022-08-17 13:48:04.625000
423,-17.97,2022-08-17 13:48:04.640625
424,-21.4,2022-08-17 13:48:04.656250
425,-24.4,2022-08-17 13:48:04.671875
426,-26.67,2022-08-17 13:48:04.687500
427,-27.91,2022-08-17 13:48:04.703125
428,-27.87,2022-08-17 13:48:04.718750
429,-26.6,2022-08-17 13:48:04.734375
430,-24.55,2022-08-17 13:48:04.750000
431,-22.47,2022-08-17 13:48:04.765625
432,-21.21,2022-08-17 13:48:04.781250
433,-21.39,2022-08-17 13:48:04.796875
434,-23.07,2022-08-17 13:48:04.812500
435,-25.64,2022-08-17 13:48:04.828125
436,-28.09,2022-08-17 13:48:04.843750
437,-29.28,2022-08-17 13:48:04.859375
438,-28.38,2022-08-17 13:48:04.875000
439,-25.08,2022-08-17 13:48:04.890625
440,-19.58,2022-08-17 13:48:04.906250
441,-12.43,2022-08-17 13:48:04.921875
442,-4.38,2022-08-17 13:48:04.937500
443,3.87,2022-08-17 13:48:04.953125
444,11.66,2022-08-17 13:48:04.968750
445,18.41,2022-08-17 13:48:04.984375
446,23.72,2022-08-17 13:48:05.000000
447,27.31,2022-08-17 13:48:05.015625
448,29.17,2022-08-17 13:48:05.031250
449,29.51,2022-08-17 13:48:05.046875
450,28.67,2022-08-17 13:48:05.062500
451,27.04,2022-08-17 13:48:05.078125
452,24.96,2022-08-17 13:48:05.093750
453,22.73,2022-08-17 13:48:05.109375
454,20.62,2022-08-17 13:48:05.125000
455,18.83,2022-08-17 13:48:05.140625
456,17.52,2022-08-17 13:48:05.156250
457,16.67,2022-08-17 13:48:05.171875
458,16.17,2022-08-17 13:48:05.187500
459,15.72,2022-08-17 13:48:05.203125
460,15.06,2022-08-17 13:48:05.218750
461,14.01,2022-08-17 13:48:05.234375
462,12.56,2022-08-17 13:48:05.250000
463,10.79,2022-08-17 13:48:05.265625
464,8.79,2022-08-17 13:48:05.281250
465,6.53,2022-08-17 13:48:05.296875
466,3.86,2022-08-17 13:48:05.312500
467,0.65,2022-08-17 13:48:05.328125
468,-3.13,2022-08-17 13:48:05.343750
469,-7.19,2022-08-17 13:48:05.359375
470,-11.0,2022-08-17 13:48:05.375000
471,-13.92,2022-08-17 13:48:05.390625
472,-15.54,2022-08-17 13:48:05.406250
473,-15.8,2022-08-17 13:48:05.421875
474,-15.09,2022-08-17 13:48:05.437500
475,-14.08,2022-08-17 13:48:05.453125
476,-13.46,2022-08-17 13:48:05.468750
477,-13.76,2022-08-17 13:48:05.484375
478,-15.21,2022-08-17 13:48:05.500000
479,-17.76,2022-08-17 13:48:05.515625
480,-21.18,2022-08-17 13:48:05.531250
481,-25.11,2022-08-17 13:48:05.546875
482,-29.13,2022-08-17 13:48:05.562500
483,-32.74,2022-08-17 13:48:05.578125
484,-35.4,2022-08-17 13:48:05.593750
485,-36.54,2022-08-17 13:48:05.609375
486,-35.66,2022-08-17 13:48:05.625000
487,-32.53,2022-08-17 13:48:05.640625
488,-27.3,2022-08-17 13:48:05.656250
489,-20.51,2022-08-17 13:48:05.671875
490,-12.99,2022-08-17 13:48:05.687500
491,-5.61,2022-08-17 13:48:05.703125
492,0.92,2022-08-17 13:48:05.718750
493,6.18,2022-08-17 13:48:05.734375
494,10.09,2022-08-17 13:48:05.750000
495,12.8,2022-08-17 13:48:05.765625
496,14.52,2022-08-17 13:48:05.781250
497,15.38,2022-08-17 13:48:05.796875
498,15.43,2022-08-17 13:48:05.812500
499,14.67,2022-08-17 13:48:05.828125
500,13.23,2022-08-17 13:48:05.843750
501,11.34,2022-08-17 13:48:05.859375
502,9.36,2022-08-17 13:48:05.875000
503,7.63,2022-08-17 13:48:05.890625
504,6.44,2022-08-17 13:48:05.906250
505,5.87,2022-08-17 13:48:05.921875
506,5.94,2022-08-17 13:48:05.937500
507,6.66,2022-08-17 13:48:05.953125
508,8.06,2022-08-17 13:48:05.968750
509,10.16,2022-08-17 13:48:05.984375
510,12.89,2022-08-17 13:48:06.000000
511,15.93,2022-08-17 13:48:06.015625
512,18.8,2022-08-17 13:48:06.031250
513,20.97,2022-08-17 13:48:06.046875
514,22.01,2022-08-17 13:48:06.062500
515,21.77,2022-08-17 13:48:06.078125
516,20.34,2022-08-17 13:48:06.093750
517,18.02,2022-08-17 13:48:06.109375
518,15.15,2022-08-17 13:48:06.125000
519,11.99,2022-08-17 13:48:06.140625
520,8.7,2022-08-17 13:48:06.156250
521,5.36,2022-08-17 13:48:06.171875
522,2.05,2022-08-17 13:48:06.187500
523,-1.12,2022-08-17 13:48:06.203125
524,-4.04,2022-08-17 13:48:06.218750
525,-6.6,2022-08-17 13:48:06.234375
526,-8.79,2022-08-17 13:48:06.250000
527,-10.72,2022-08-17 13:48:06.265625
528,-12.59,2022-08-17 13:48:06.281250
529,-14.61,2022-08-17 13:48:06.296875
530,-16.89,2022-08-17 13:48:06.312500
531,-19.26,2022-08-17 13:48:06.328125
532,-21.3,2022-08-17 13:48:06.343750
533,-22.4,2022-08-17 13:48:06.359375
534,-22.0,2022-08-17 13:48:06.375000
535,-19.73,2022-08-17 13:48:06.390625
536,-15.55,2022-08-17 13:48:06.406250
537,-9.82,2022-08-17 13:48:06.421875
538,-3.11,2022-08-17 13:48:06.437500
539,3.89,2022-08-17 13:48:06.453125
540,10.54,2022-08-17 13:48:06.468750
541,16.35,2022-08-17 13:48:06.484375
542,21.05,2022-08-17 13:48:06.500000
543,24.51,2022-08-17 13:48:06.515625
544,26.75,2022-08-17 13:48:06.531250
545,27.83,2022-08-17 13:48:06.546875
546,27.86,2022-08-17 13:48:06.562500
547,26.96,2022-08-17 13:48:06.578125
548,25.29,2022-08-17 13:48:06.593750
549,23.09,2022-08-17 13:48:06.609375
550,20.6,2022-08-17 13:48:06.625000
551,18.14,2022-08-17 13:48:06.640625
552,15.91,2022-08-17 13:48:06.656250
553,13.97,2022-08-17 13:48:06.671875
554,12.23,2022-08-17 13:48:06.687500
555,10.56,2022-08-17 13:48:06.703125
556,8.86,2022-08-17 13:48:06.718750
557,7.16,2022-08-17 13:48:06.734375
558,5.62,2022-08-17 13:48:06.750000
559,4.37,2022-08-17 13:48:06.765625
560,3.45,2022-08-17 13:48:06.781250
561,2.75,2022-08-17 13:48:06.796875
562,1.98,2022-08-17 13:48:06.812500
563,0.88,2022-08-17 13:48:06.828125
564,-0.7,2022-08-17 13:48:06.843750
565,-2.71,2022-08-17 13:48:06.859375
566,-4.96,2022-08-17 13:48:06.875000
567,-7.19,2022-08-17 13:48:06.890625
568,-9.21,2022-08-17 13:48:06.906250
569,-10.98,2022-08-17 13:48:06.921875
570,-12.53,2022-08-17 13:48:06.937500
571,-13.99,2022-08-17 13:48:06.953125
572,-15.48,2022-08-17 13:48:06.968750
573,-17.06,2022-08-17 13:48:06.984375
574,-18.73,2022-08-17 13:48:07.000000
575,-20.51,2022-08-17 13:48:07.015625
576,-22.46,2022-08-17 13:48:07.031250
577,-24.67,2022-08-17 13:48:07.046875
578,-27.2,2022-08-17 13:48:07.062500
579,-29.93,2022-08-17 13:48:07.078125
580,-32.56,2022-08-17 13:48:07.093750
581,-34.56,2022-08-17 13:48:07.109375
582,-35.38,2022-08-17 13:48:07.125000
583,-34.61,2022-08-17 13:48:07.140625
584,-32.09,2022-08-17 13:48:07.156250
585,-28.02,2022-08-17 13:48:07.171875
586,-22.83,2022-08-17 13:48:07.187500
587,-17.04,2022-08-17 13:48:07.203125
588,-11.16,2022-08-17 13:48:07.218750
589,-5.57,2022-08-17 13:48:07.234375
590,-0.52,2022-08-17 13:48:07.250000
591,3.89,2022-08-17 13:48:07.265625
592,7.64,2022-08-17 13:48:07.281250
593,10.77,2022-08-17 13:48:07.296875
594,13.28,2022-08-17 13:48:07.312500
595,15.1,2022-08-17 13:48:07.328125
596,16.16,2022-08-17 13:48:07.343750
597,16.4,2022-08-17 13:48:07.359375
598,15.93,2022-08-17 13:48:07.375000
599,14.99,2022-08-17 13:48:07.390625
600,13.98,2022-08-17 13:48:07.406250
601,13.22,2022-08-17 13:48:07.421875
602,12.9,2022-08-17 13:48:07.437500
603,12.92,2022-08-17 13:48:07.453125
604,12.99,2022-08-17 13:48:07.468750
605,12.81,2022-08-17 13:48:07.484375
606,12.21,2022-08-17 13:48:07.500000
607,11.24,2022-08-17 13:48:07.515625
608,10.1,2022-08-17 13:48:07.531250
609,8.97,2022-08-17 13:48:07.546875
610,7.93,2022-08-17 13:48:07.562500
611,6.93,2022-08-17 13:48:07.578125
612,5.81,2022-08-17 13:48:07.593750
613,4.42,2022-08-17 13:48:07.609375
614,2.7,2022-08-17 13:48:07.625000
615,0.7,2022-08-17 13:48:07.640625
616,-1.43,2022-08-17 13:48:07.656250
617,-3.58,2022-08-17 13:48:07.671875
618,-5.66,2022-08-17 13:48:07.687500
619,-7.61,2022-08-17 13:48:07.703125
620,-9.42,2022-08-17 13:48:07.718750
621,-11.13,2022-08-17 13:48:07.734375
622,-12.81,2022-08-17 13:48:07.750000
623,-14.6,2022-08-17 13:48:07.765625
624,-16.69,2022-08-17 13:48:07.781250
625,-19.2,2022-08-17 13:48:07.796875
626,-22.12,2022-08-17 13:48:07.812500
627,-25.22,2022-08-17 13:48:07.828125
628,-28.07,2022-08-17 13:48:07.843750
629,-30.1,2022-08-17 13:48:07.859375
630,-30.8,2022-08-17 13:48:07.875000
631,-29.81,2022-08-17 13:48:07.890625
632,-27.07,2022-08-17 13:48:07.906250
633,-22.83,2022-08-17 13:48:07.921875
634,-17.54,2022-08-17 13:48:07.937500
635,-11.74,2022-08-17 13:48:07.953125
636,-5.94,2022-08-17 13:48:07.968750
637,-0.47,2022-08-17 13:48:07.984375
638,4.5,2022-08-17 13:48:08.000000
639,8.9,2022-08-17 13:48:08.015625
640,12.73,2022-08-17 13:48:08.031250
641,15.96,2022-08-17 13:48:08.046875
642,18.52,2022-08-17 13:48:08.062500
643,20.36,2022-08-17 13:48:08.078125
644,21.46,2022-08-17 13:48:08.093750
645,21.89,2022-08-17 13:48:08.109375
646,21.88,2022-08-17 13:48:08.125000
647,21.68,2022-08-17 13:48:08.140625
648,21.51,2022-08-17 13:48:08.156250
649,21.49,2022-08-17 13:48:08.171875
650,21.56,2022-08-17 13:48:08.187500
651,21.55,2022-08-17 13:48:08.203125
652,21.25,2022-08-17 13:48:08.218750
653,20.57,2022-08-17 13:48:08.234375
654,19.56,2022-08-17 13:48:08.250000
655,18.44,2022-08-17 13:48:08.265625
656,17.41,2022-08-17 13:48:08.281250
657,16.55,2022-08-17 13:48:08.296875
658,15.76,2022-08-17 13:48:08.312500
659,14.79,2022-08-17 13:48:08.328125
660,13.4,2022-08-17 13:48:08.343750
661,11.48,2022-08-17 13:48:08.359375
662,9.1,2022-08-17 13:48:08.375000
663,6.49,2022-08-17 13:48:08.390625
664,3.89,2022-08-17 13:48:08.406250
665,1.45,2022-08-17 13:48:08.421875
666,-0.79,2022-08-17 13:48:08.437500
667,-2.88,2022-08-17 13:48:08.453125
668,-4.89,2022-08-17 13:48:08.468750
669,-6.87,2022-08-17 13:48:08.484375
670,-8.84,2022-08-17 13:48:08.500000
671,-10.85,2022-08-17 13:48:08.515625
672,-13.01,2022-08-17 13:48:08.531250
673,-15.49,2022-08-17 13:48:08.546875
674,-18.42,2022-08-17 13:48:08.562500
675,-21.74,2022-08-17 13:48:08.578125
676,-25.08,2022-08-17 13:48:08.593750
677,-27.88,2022-08-17 13:48:08.609375
678,-29.47,2022-08-17 13:48:08.625000
679,-29.35,2022-08-17 13:48:08.640625
680,-27.33,2022-08-17 13:48:08.656250
681,-23.55,2022-08-17 13:48:08.671875
682,-18.37,2022-08-17 13:48:08.687500
683,-12.26,2022-08-17 13:48:08.703125
684,-5.64,2022-08-17 13:48:08.718750
685,1.03,2022-08-17 13:48:08.734375
686,7.31,2022-08-17 13:48:08.750000
687,12.77,2022-08-17 13:48:08.765625
688,17.04,2022-08-17 13:48:08.781250
689,19.94,2022-08-17 13:48:08.796875
690,21.47,2022-08-17 13:48:08.812500
691,21.86,2022-08-17 13:48:08.828125
692,21.44,2022-08-17 13:48:08.843750
693,20.52,2022-08-17 13:48:08.859375
694,19.32,2022-08-17 13:48:08.875000
695,17.95,2022-08-17 13:48:08.890625
696,16.52,2022-08-17 13:48:08.906250
697,15.12,2022-08-17 13:48:08.921875
698,13.87,2022-08-17 13:48:08.937500
699,12.88,2022-08-17 13:48:08.953125
700,12.23,2022-08-17 13:48:08.968750
701,11.98,2022-08-17 13:48:08.984375
702,12.05,2022-08-17 13:48:09.000000
703,12.33,2022-08-17 13:48:09.015625
704,12.57,2022-08-17 13:48:09.031250
705,12.53,2022-08-17 13:48:09.046875
706,12.07,2022-08-17 13:48:09.062500
707,11.1,2022-08-17 13:48:09.078125
708,9.67,2022-08-17 13:48:09.093750
709,7.88,2022-08-17 13:48:09.109375
710,5.87,2022-08-17 13:48:09.125000
711,3.68,2022-08-17 13:48:09.140625
712,1.34,2022-08-17 13:48:09.156250
713,-1.09,2022-08-17 13:48:09.171875
714,-3.51,2022-08-17 13:48:09.187500
715,-5.77,2022-08-17 13:48:09.203125
716,-7.73,2022-08-17 13:48:09.218750
717,-9.35,2022-08-17 13:48:09.234375
718,-10.76,2022-08-17 13:48:09.250000
719,-12.24,2022-08-17 13:48:09.265625
720,-14.13,2022-08-17 13:48:09.281250
721,-16.64,2022-08-17 13:48:09.296875
722,-19.81,2022-08-17 13:48:09.312500
723,-23.36,2022-08-17 13:48:09.328125
724,-26.81,2022-08-17 13:48:09.343750
725,-29.55,2022-08-17 13:48:09.359375
726,-31.05,2022-08-17 13:48:09.375000
727,-30.95,2022-08-17 13:48:09.390625
728,-29.17,2022-08-17 13:48:09.406250
729,-25.87,2022-08-17 13:48:09.421875
730,-21.41,2022-08-17 13:48:09.437500
731,-16.24,2022-08-17 13:48:09.453125
732,-10.78,2022-08-17 13:48:09.468750
733,-5.38,2022-08-17 13:48:09.484375
734,-0.25,2022-08-17 13:48:09.500000
735,4.45,2022-08-17 13:48:09.515625
736,8.6,2022-08-17 13:48:09.531250
737,12.02,2022-08-17 13:48:09.546875
738,14.54,2022-08-17 13:48:09.562500
739,16.05,2022-08-17 13:48:09.578125
740,16.55,2022-08-17 13:48:09.593750
741,16.24,2022-08-17 13:48:09.609375
742,15.42,2022-08-17 13:48:09.625000
743,14.46,2022-08-17 13:48:09.640625
744,13.62,2022-08-17 13:48:09.656250
745,13.02,2022-08-17 13:48:09.671875
746,12.63,2022-08-17 13:48:09.687500
747,12.39,2022-08-17 13:48:09.703125
748,12.22,2022-08-17 13:48:09.718750
749,12.06,2022-08-17 13:48:09.734375
750,11.88,2022-08-17 13:48:09.750000
751,11.63,2022-08-17 13:48:09.765625
752,11.24,2022-08-17 13:48:09.781250
753,10.69,2022-08-17 13:48:09.796875
754,9.95,2022-08-17 13:48:09.812500
755,9.11,2022-08-17 13:48:09.828125
756,8.27,2022-08-17 13:48:09.843750
757,7.52,2022-08-17 13:48:09.859375
758,6.83,2022-08-17 13:48:09.875000
759,6.13,2022-08-17 13:48:09.890625
760,5.3,2022-08-17 13:48:09.906250
761,4.27,2022-08-17 13:48:09.921875
762,3.1,2022-08-17 13:48:09.937500
763,1.91,2022-08-17 13:48:09.953125
764,0.84,2022-08-17 13:48:09.968750
765,-0.03,2022-08-17 13:48:09.984375
766,-0.69,2022-08-17 13:48:10.000000
767,-1.22,2022-08-17 13:48:10.015625
768,-1.77,2022-08-17 13:48:10.031250
769,-2.49,2022-08-17 13:48:10.046875
770,-3.47,2022-08-17 13:48:10.062500
771,-4.73,2022-08-17 13:48:10.078125
772,-6.2,2022-08-17 13:48:10.093750
773,-7.69,2022-08-17 13:48:10.109375
774,-8.91,2022-08-17 13:48:10.125000
775,-9.55,2022-08-17 13:48:10.140625
776,-9.28,2022-08-17 13:48:10.156250
777,-7.88,2022-08-17 13:48:10.171875
778,-5.29,2022-08-17 13:48:10.187500
779,-1.66,2022-08-17 13:48:10.203125
780,2.66,2022-08-17 13:48:10.218750
781,7.21,2022-08-17 13:48:10.234375
782,11.46,2022-08-17 13:48:10.250000
783,15.0,2022-08-17 13:48:10.265625
784,17.62,2022-08-17 13:48:10.281250
785,19.28,2022-08-17 13:48:10.296875
786,20.07,2022-08-17 13:48:10.312500
787,20.12,2022-08-17 13:48:10.328125
788,19.55,2022-08-17 13:48:10.343750
789,18.4,2022-08-17 13:48:10.359375
790,16.74,2022-08-17 13:48:10.375000
791,14.64,2022-08-17 13:48:10.390625
792,12.27,2022-08-17 13:48:10.406250
793,9.78,2022-08-17 13:48:10.421875
794,7.37,2022-08-17 13:48:10.437500
795,5.11,2022-08-17 13:48:10.453125
796,3.04,2022-08-17 13:48:10.468750
797,1.11,2022-08-17 13:48:10.484375
798,-0.74,2022-08-17 13:48:10.500000
799,-2.48,2022-08-17 13:48:10.515625
800,-4.09,2022-08-17 13:48:10.531250
801,-5.52,2022-08-17 13:48:10.546875
802,-6.75,2022-08-17 13:48:10.562500
803,-7.77,2022-08-17 13:48:10.578125
804,-8.64,2022-08-17 13:48:10.593750
805,-9.41,2022-08-17 13:48:10.609375
806,-10.08,2022-08-17 13:48:10.625000
807,-10.64,2022-08-17 13:48:10.640625
808,-11.1,2022-08-17 13:48:10.656250
809,-11.46,2022-08-17 13:48:10.671875
810,-11.77,2022-08-17 13:48:10.687500
811,-12.16,2022-08-17 13:48:10.703125
812,-12.78,2022-08-17 13:48:10.718750
813,-13.76,2022-08-17 13:48:10.734375
814,-15.25,2022-08-17 13:48:10.750000
815,-17.33,2022-08-17 13:48:10.765625
816,-19.95,2022-08-17 13:48:10.781250
817,-22.96,2022-08-17 13:48:10.796875
818,-26.11,2022-08-17 13:48:10.812500
819,-29.06,2022-08-17 13:48:10.828125
820,-31.39,2022-08-17 13:48:10.843750
821,-32.73,2022-08-17 13:48:10.859375
822,-32.79,2022-08-17 13:48:10.875000
823,-31.42,2022-08-17 13:48:10.890625
824,-28.63,2022-08-17 13:48:10.906250
825,-24.64,2022-08-17 13:48:10.921875
826,-19.74,2022-08-17 13:48:10.937500
827,-14.32,2022-08-17 13:48:10.953125
828,-8.71,2022-08-17 13:48:10.968750
829,-3.19,2022-08-17 13:48:10.984375
830,2.02,2022-08-17 13:48:11.000000
831,6.75,2022-08-17 13:48:11.015625
832,10.81,2022-08-17 13:48:11.031250
833,14.02,2022-08-17 13:48:11.046875
834,16.19,2022-08-17 13:48:11.062500
835,17.27,2022-08-17 13:48:11.078125
836,17.37,2022-08-17 13:48:11.093750
837,16.75,2022-08-17 13:48:11.109375
838,15.8,2022-08-17 13:48:11.125000
839,14.87,2022-08-17 13:48:11.140625
840,14.23,2022-08-17 13:48:11.156250
841,13.88,2022-08-17 13:48:11.171875
842,13.72,2022-08-17 13:48:11.187500
843,13.56,2022-08-17 13:48:11.203125
844,13.29,2022-08-17 13:48:11.218750
845,12.93,2022-08-17 13:48:11.234375
846,12.56,2022-08-17 13:48:11.250000
847,12.31,2022-08-17 13:48:11.265625
848,12.15,2022-08-17 13:48:11.281250
849,11.99,2022-08-17 13:48:11.296875
850,11.6,2022-08-17 13:48:11.312500
851,10.8,2022-08-17 13:48:11.328125
852,9.48,2022-08-17 13:48:11.343750
853,7.63,2022-08-17 13:48:11.359375
854,5.31,2022-08-17 13:48:11.375000
855,2.64,2022-08-17 13:48:11.390625
856,-0.23,2022-08-17 13:48:11.406250
857,-3.18,2022-08-17 13:48:11.421875
858,-5.97,2022-08-17 13:48:11.437500
859,-8.45,2022-08-17 13:48:11.453125
860,-10.5,2022-08-17 13:48:11.468750
861,-12.21,2022-08-17 13:48:11.484375
862,-13.83,2022-08-17 13:48:11.500000
863,-15.7,2022-08-17 13:48:11.515625
864,-18.05,2022-08-17 13:48:11.531250
865,-20.83,2022-08-17 13:48:11.546875
866,-23.73,2022-08-17 13:48:11.562500
867,-26.19,2022-08-17 13:48:11.578125
868,-27.57,2022-08-17 13:48:11.593750
869,-27.38,2022-08-17 13:48:11.609375
870,-25.42,2022-08-17 13:48:11.625000
871,-21.8,2022-08-17 13:48:11.640625
872,-16.87,2022-08-17 13:48:11.656250
873,-11.12,2022-08-17 13:48:11.671875
874,-5.03,2022-08-17 13:48:11.687500
875,0.98,2022-08-17 13:48:11.703125
876,6.59,2022-08-17 13:48:11.718750
877,11.56,2022-08-17 13:48:11.734375
878,15.75,2022-08-17 13:48:11.750000
879,19.05,2022-08-17 13:48:11.765625
880,21.38,2022-08-17 13:48:11.781250
881,22.69,2022-08-17 13:48:11.796875
882,22.97,2022-08-17 13:48:11.812500
883,22.31,2022-08-17 13:48:11.828125
884,20.87,2022-08-17 13:48:11.843750
885,18.98,2022-08-17 13:48:11.859375
886,16.96,2022-08-17 13:48:11.875000
887,15.13,2022-08-17 13:48:11.890625
888,13.71,2022-08-17 13:48:11.906250
889,12.71,2022-08-17 13:48:11.921875
890,12.05,2022-08-17 13:48:11.937500
891,11.59,2022-08-17 13:48:11.953125
892,11.17,2022-08-17 13:48:11.968750
893,10.77,2022-08-17 13:48:11.984375
894,10.41,2022-08-17 13:48:12.000000
895,10.1,2022-08-17 13:48:12.015625
896,9.8,2022-08-17 13:48:12.031250
897,9.44,2022-08-17 13:48:12.046875
898,8.88,2022-08-17 13:48:12.062500
899,8.04,2022-08-17 13:48:12.078125
900,6.84,2022-08-17 13:48:12.093750
901,5.27,2022-08-17 13:48:12.109375
902,3.33,2022-08-17 13:48:12.125000
903,1.06,2022-08-17 13:48:12.140625
904,-1.53,2022-08-17 13:48:12.156250
905,-4.3,2022-08-17 13:48:12.171875
906,-7.09,2022-08-17 13:48:12.187500
907,-9.7,2022-08-17 13:48:12.203125
908,-12.0,2022-08-17 13:48:12.218750
909,-14.0,2022-08-17 13:48:12.234375
910,-15.88,2022-08-17 13:48:12.250000
911,-17.86,2022-08-17 13:48:12.265625
912,-20.11,2022-08-17 13:48:12.281250
913,-22.54,2022-08-17 13:48:12.296875
914,-24.86,2022-08-17 13:48:12.312500
915,-26.55,2022-08-17 13:48:12.328125
916,-27.16,2022-08-17 13:48:12.343750
917,-26.34,2022-08-17 13:48:12.359375
918,-24.05,2022-08-17 13:48:12.375000
919,-20.48,2022-08-17 13:48:12.390625
920,-15.98,2022-08-17 13:48:12.406250
921,-10.94,2022-08-17 13:48:12.421875
922,-5.7,2022-08-17 13:48:12.437500
923,-0.51,2022-08-17 13:48:12.453125
924,4.47,2022-08-17 13:48:12.468750
925,9.09,2022-08-17 13:48:12.484375
926,13.21,2022-08-17 13:48:12.500000
927,16.66,2022-08-17 13:48:12.515625
928,19.24,2022-08-17 13:48:12.531250
929,20.82,2022-08-17 13:48:12.546875
930,21.33,2022-08-17 13:48:12.562500
931,20.9,2022-08-17 13:48:12.578125
932,19.78,2022-08-17 13:48:12.593750
933,18.32,2022-08-17 13:48:12.609375
934,16.83,2022-08-17 13:48:12.625000
935,15.57,2022-08-17 13:48:12.640625
936,14.63,2022-08-17 13:48:12.656250
937,14.0,2022-08-17 13:48:12.671875
938,13.58,2022-08-17 13:48:12.687500
939,13.28,2022-08-17 13:48:12.703125
940,13.07,2022-08-17 13:48:12.718750
941,12.87,2022-08-17 13:48:12.734375
942,12.67,2022-08-17 13:48:12.750000
943,12.4,2022-08-17 13:48:12.765625
944,11.95,2022-08-17 13:48:12.781250
945,11.24,2022-08-17 13:48:12.796875
946,10.19,2022-08-17 13:48:12.812500
947,8.78,2022-08-17 13:48:12.828125
948,7.07,2022-08-17 13:48:12.843750
949,5.1,2022-08-17 13:48:12.859375
950,2.92,2022-08-17 13:48:12.875000
951,0.6,2022-08-17 13:48:12.890625
952,-1.82,2022-08-17 13:48:12.906250
953,-4.27,2022-08-17 13:48:12.921875
954,-6.68,2022-08-17 13:48:12.937500
955,-9.0,2022-08-17 13:48:12.953125
956,-11.23,2022-08-17 13:48:12.968750
957,-13.45,2022-08-17 13:48:12.984375
958,-15.79,2022-08-17 13:48:13.000000
959,-18.39,2022-08-17 13:48:13.015625
960,-21.34,2022-08-17 13:48:13.031250
961,-24.55,2022-08-17 13:48:13.046875
962,-27.8,2022-08-17 13:48:13.062500
963,-30.69,2022-08-17 13:48:13.078125
964,-32.7,2022-08-17 13:48:13.093750
965,-33.3,2022-08-17 13:48:13.109375
966,-32.12,2022-08-17 13:48:13.125000
967,-28.99,2022-08-17 13:48:13.140625
968,-24.09,2022-08-17 13:48:13.156250
969,-17.9,2022-08-17 13:48:13.171875
970,-11.05,2022-08-17 13:48:13.187500
971,-4.26,2022-08-17 13:48:13.203125
972,1.95,2022-08-17 13:48:13.218750
973,7.2,2022-08-17 13:48:13.234375
974,11.39,2022-08-17 13:48:13.250000
975,14.57,2022-08-17 13:48:13.265625
976,16.86,2022-08-17 13:48:13.281250
977,18.36,2022-08-17 13:48:13.296875
978,19.17,2022-08-17 13:48:13.312500
979,19.34,2022-08-17 13:48:13.328125
980,18.95,2022-08-17 13:48:13.343750
981,18.2,2022-08-17 13:48:13.359375
982,17.27,2022-08-17 13:48:13.375000
983,16.41,2022-08-17 13:48:13.390625
984,15.82,2022-08-17 13:48:13.406250
985,15.57,2022-08-17 13:48:13.421875
986,15.66,2022-08-17 13:48:13.437500
987,15.99,2022-08-17 13:48:13.453125
988,16.38,2022-08-17 13:48:13.468750
989,16.67,2022-08-17 13:48:13.484375
990,16.73,2022-08-17 13:48:13.500000
991,16.47,2022-08-17 13:48:13.515625
992,15.87,2022-08-17 13:48:13.531250
993,14.96,2022-08-17 13:48:13.546875
994,13.8,2022-08-17 13:48:13.562500
995,12.49,2022-08-17 13:48:13.578125
996,11.06,2022-08-17 13:48:13.593750
997,9.59,2022-08-17 13:48:13.609375
998,8.03,2022-08-17 13:48:13.625000
999,6.35,2022-08-17 13:48:13.640625
1000,4.44,2022-08-17 13:48:13.656250
1001,2.3,2022-08-17 13:48:13.671875
1002,-0.07,2022-08-17 13:48:13.687500
1003,-2.58,2022-08-17 13:48:13.703125
1004,-5.11,2022-08-17 13:48:13.718750
1005,-7.38,2022-08-17 13:48:13.734375
1006,-9.09,2022-08-17 13:48:13.750000
1007,-9.96,2022-08-17 13:48:13.765625
1008,-10.0,2022-08-17 13:48:13.781250
1009,-9.54,2022-08-17 13:48:13.796875
1010,-9.12,2022-08-17 13:48:13.812500
1011,-9.35,2022-08-17 13:48:13.828125
1012,-10.66,2022-08-17 13:48:13.843750
1013,-13.08,2022-08-17 13:48:13.859375
1014,-16.3,2022-08-17 13:48:13.875000
1015,-19.82,2022-08-17 13:48:13.890625
1016,-23.15,2022-08-17 13:48:13.906250
1017,-25.98,2022-08-17 13:48:13.921875
1018,-28.03,2022-08-17 13:48:13.937500
1019,-28.91,2022-08-17 13:48:13.953125
1020,-28.32,2022-08-17 13:48:13.968750
1021,-26.24,2022-08-17 13:48:13.984375
1022,-23.22,2022-08-17 13:48:14.000000
1023,-20.34,2022-08-17 13:48:14.015625
1024,-18.91,2022-08-17 13:48:14.031250
1025,-19.87,2022-08-17 13:48:14.046875
1026,-23.45,2022-08-17 13:48:14.062500
1027,-28.69,2022-08-17 13:48:14.078125
1028,-33.45,2022-08-17 13:48:14.093750
1029,-35.51,2022-08-17 13:48:14.109375
1030,-33.7,2022-08-17 13:48:14.125000
1031,-28.49,2022-08-17 13:48:14.140625
1032,-21.86,2022-08-17 13:48:14.156250
1033,-16.29,2022-08-17 13:48:14.171875
1034,-13.55,2022-08-17 13:48:14.187500
1035,-14.34,2022-08-17 13:48:14.203125
1036,-17.56,2022-08-17 13:48:14.218750
1037,-20.32,2022-08-17 13:48:14.234375
1038,-20.02,2022-08-17 13:48:14.250000
1039,-15.67,2022-08-17 13:48:14.265625
1040,-8.48,2022-08-17 13:48:14.281250
1041,-1.47,2022-08-17 13:48:14.296875
1042,1.98,2022-08-17 13:48:14.312500
1043,-0.64,2022-08-17 13:48:14.328125
1044,-10.92,2022-08-17 13:48:14.343750
1045,-28.28,2022-08-17 13:48:14.359375
1046,-49.28,2022-08-17 13:48:14.375000
1047,-69.81,2022-08-17 13:48:14.390625
1048,-85.94,2022-08-17 13:48:14.406250
1049,-94.91,2022-08-17 13:48:14.421875
1050,-95.51,2022-08-17 13:48:14.437500
1051,-87.62,2022-08-17 13:48:14.453125
1052,-71.95,2022-08-17 13:48:14.468750
1053,-50.55,2022-08-17 13:48:14.484375
1054,-24.24,2022-08-17 13:48:14.500000
1055,9.1,2022-08-17 13:48:14.515625
1056,52.41,2022-08-17 13:48:14.531250
1057,108.51,2022-08-17 13:48:14.546875
1058,178.12,2022-08-17 13:48:14.562500
1059,258.44,2022-08-17 13:48:14.578125
1060,343.67,2022-08-17 13:48:14.593750
1061,426.35,2022-08-17 13:48:14.609375
1062,498.27,2022-08-17 13:48:14.625000
1063,541.05,2022-08-17 13:48:14.640625
1064,541.53,2022-08-17 13:48:14.656250
1065,496.04,2022-08-17 13:48:14.671875
1066,414.82,2022-08-17 13:48:14.687500
1067,317.22,2022-08-17 13:48:14.703125
1068,221.08,2022-08-17 13:48:14.718750
1069,135.94,2022-08-17 13:48:14.734375
1070,70.41,2022-08-17 13:48:14.750000
1071,18.24,2022-08-17 13:48:14.765625
1072,-25.03,2022-08-17 13:48:14.781250
1073,-58.11,2022-08-17 13:48:14.796875
1074,-78.31,2022-08-17 13:48:14.812500
1075,-83.87,2022-08-17 13:48:14.828125
1076,-76.16,2022-08-17 13:48:14.843750
1077,-61.3,2022-08-17 13:48:14.859375
1078,-45.18,2022-08-17 13:48:14.875000
1079,-32.15,2022-08-17 13:48:14.890625
1080,-26.96,2022-08-17 13:48:14.906250
1081,-29.82,2022-08-17 13:48:14.921875
1082,-34.42,2022-08-17 13:48:14.937500
1083,-36.53,2022-08-17 13:48:14.953125
1084,-35.08,2022-08-17 13:48:14.968750
1085,-30.53,2022-08-17 13:48:14.984375
1086,-24.97,2022-08-17 13:48:15.000000
1087,-20.65,2022-08-17 13:48:15.015625
1088,-19.26,2022-08-17 13:48:15.031250
1089,-22.3,2022-08-17 13:48:15.046875
1090,-28.8,2022-08-17 13:48:15.062500
1091,-36.5,2022-08-17 13:48:15.078125
1092,-44.77,2022-08-17 13:48:15.093750
1093,-53.31,2022-08-17 13:48:15.109375
1094,-62.17,2022-08-17 13:48:15.125000
1095,-71.64,2022-08-17 13:48:15.140625
1096,-81.49,2022-08-17 13:48:15.156250
1097,-91.3,2022-08-17 13:48:15.171875
1098,-101.24,2022-08-17 13:48:15.187500
1099,-110.86,2022-08-17 13:48:15.203125
1100,-119.96,2022-08-17 13:48:15.218750
1101,-130.17,2022-08-17 13:48:15.234375
1102,-142.26,2022-08-17 13:48:15.250000
1103,-155.6,2022-08-17 13:48:15.265625
1104,-168.7,2022-08-17 13:48:15.281250
1105,-180.06,2022-08-17 13:48:15.296875
1106,-189.29,2022-08-17 13:48:15.312500
1107,-197.25,2022-08-17 13:48:15.328125
1108,-204.32,2022-08-17 13:48:15.343750
1109,-210.73,2022-08-17 13:48:15.359375
1110,-217.76,2022-08-17 13:48:15.375000
1111,-225.34,2022-08-17 13:48:15.390625
1112,-232.22,2022-08-17 13:48:15.406250
1113,-236.72,2022-08-17 13:48:15.421875
1114,-237.46,2022-08-17 13:48:15.437500
1115,-234.13,2022-08-17 13:48:15.453125
1116,-227.2,2022-08-17 13:48:15.468750
1117,-216.88,2022-08-17 13:48:15.484375
1118,-193.97,2022-08-17 13:48:15.500000
1119,-155.14,2022-08-17 13:48:15.515625
1120,-103.32,2022-08-17 13:48:15.531250
1121,-47.0,2022-08-17 13:48:15.546875
1122,4.44,2022-08-17 13:48:15.562500
1123,45.17,2022-08-17 13:48:15.578125
1124,73.71,2022-08-17 13:48:15.593750
1125,89.39,2022-08-17 13:48:15.609375
1126,96.82,2022-08-17 13:48:15.625000
1127,99.72,2022-08-17 13:48:15.640625
1128,98.75,2022-08-17 13:48:15.656250
1129,93.91,2022-08-17 13:48:15.671875
1130,85.31,2022-08-17 13:48:15.687500
1131,73.49,2022-08-17 13:48:15.703125
1132,60.97,2022-08-17 13:48:15.718750
1133,49.34,2022-08-17 13:48:15.734375
1134,39.77,2022-08-17 13:48:15.750000
1135,33.41,2022-08-17 13:48:15.765625
1136,30.44,2022-08-17 13:48:15.781250
1137,29.33,2022-08-17 13:48:15.796875
1138,28.54,2022-08-17 13:48:15.812500
1139,26.92,2022-08-17 13:48:15.828125
1140,24.21,2022-08-17 13:48:15.843750
1141,20.89,2022-08-17 13:48:15.859375
1142,17.69,2022-08-17 13:48:15.875000
1143,15.55,2022-08-17 13:48:15.890625
1144,15.58,2022-08-17 13:48:15.906250
1145,17.91,2022-08-17 13:48:15.921875
1146,21.23,2022-08-17 13:48:15.937500
1147,24.09,2022-08-17 13:48:15.953125
1148,25.45,2022-08-17 13:48:15.968750
1149,25.2,2022-08-17 13:48:15.984375
1150,23.88,2022-08-17 13:48:16.000000
1151,21.95,2022-08-17 13:48:16.015625
1152,19.62,2022-08-17 13:48:16.031250
1153,16.88,2022-08-17 13:48:16.046875
1154,13.28,2022-08-17 13:48:16.062500
1155,8.24,2022-08-17 13:48:16.078125
1156,1.91,2022-08-17 13:48:16.093750
1157,-4.8,2022-08-17 13:48:16.109375
1158,-10.6,2022-08-17 13:48:16.125000
1159,-14.45,2022-08-17 13:48:16.140625
1160,-16.1,2022-08-17 13:48:16.156250
1161,-15.89,2022-08-17 13:48:16.171875
1162,-14.3,2022-08-17 13:48:16.187500
1163,-11.9,2022-08-17 13:48:16.203125
1164,-9.18,2022-08-17 13:48:16.218750
1165,-6.47,2022-08-17 13:48:16.234375
1166,-3.93,2022-08-17 13:48:16.250000
1167,-1.66,2022-08-17 13:48:16.265625
1168,0.4,2022-08-17 13:48:16.281250
1169,2.35,2022-08-17 13:48:16.296875
1170,4.45,2022-08-17 13:48:16.312500
1171,7.06,2022-08-17 13:48:16.328125
1172,10.38,2022-08-17 13:48:16.343750
1173,14.3,2022-08-17 13:48:16.359375
1174,18.48,2022-08-17 13:48:16.375000
1175,22.31,2022-08-17 13:48:16.390625
1176,25.2,2022-08-17 13:48:16.406250
1177,26.71,2022-08-17 13:48:16.421875
1178,26.7,2022-08-17 13:48:16.437500
1179,25.37,2022-08-17 13:48:16.453125
1180,23.16,2022-08-17 13:48:16.468750
1181,20.61,2022-08-17 13:48:16.484375
1182,18.17,2022-08-17 13:48:16.500000
1183,16.13,2022-08-17 13:48:16.515625
1184,14.64,2022-08-17 13:48:16.531250
1185,13.66,2022-08-17 13:48:16.546875
1186,13.1,2022-08-17 13:48:16.562500
1187,12.8,2022-08-17 13:48:16.578125
1188,12.55,2022-08-17 13:48:16.593750
1189,12.16,2022-08-17 13:48:16.609375
1190,11.44,2022-08-17 13:48:16.625000
1191,10.29,2022-08-17 13:48:16.640625
1192,8.73,2022-08-17 13:48:16.656250
1193,6.86,2022-08-17 13:48:16.671875
1194,4.81,2022-08-17 13:48:16.687500
1195,2.72,2022-08-17 13:48:16.703125
1196,0.66,2022-08-17 13:48:16.718750
1197,-1.39,2022-08-17 13:48:16.734375
1198,-3.46,2022-08-17 13:48:16.750000
1199,-5.59,2022-08-17 13:48:16.765625
1200,-7.77,2022-08-17 13:48:16.781250
1201,-9.97,2022-08-17 13:48:16.796875
1202,-12.12,2022-08-17 13:48:16.812500
1203,-14.2,2022-08-17 13:48:16.828125
1204,-16.23,2022-08-17 13:48:16.843750
1205,-18.28,2022-08-17 13:48:16.859375
1206,-20.44,2022-08-17 13:48:16.875000
1207,-22.8,2022-08-17 13:48:16.890625
1208,-25.38,2022-08-17 13:48:16.906250
1209,-28.13,2022-08-17 13:48:16.921875
1210,-30.88,2022-08-17 13:48:16.937500
1211,-33.32,2022-08-17 13:48:16.953125
1212,-35.02,2022-08-17 13:48:16.968750
1213,-35.51,2022-08-17 13:48:16.984375
1214,-34.41,2022-08-17 13:48:17.000000
1215,-31.56,2022-08-17 13:48:17.015625
1216,-27.07,2022-08-17 13:48:17.031250
1217,-21.35,2022-08-17 13:48:17.046875
1218,-14.95,2022-08-17 13:48:17.062500
1219,-8.45,2022-08-17 13:48:17.078125
1220,-2.26,2022-08-17 13:48:17.093750
1221,3.38,2022-08-17 13:48:17.109375
1222,8.41,2022-08-17 13:48:17.125000
1223,12.73,2022-08-17 13:48:17.140625
1224,16.26,2022-08-17 13:48:17.156250
1225,18.84,2022-08-17 13:48:17.171875
1226,20.4,2022-08-17 13:48:17.187500
1227,21.01,2022-08-17 13:48:17.203125
1228,20.89,2022-08-17 13:48:17.218750
1229,20.36,2022-08-17 13:48:17.234375
1230,19.7,2022-08-17 13:48:17.250000
1231,19.13,2022-08-17 13:48:17.265625
1232,18.74,2022-08-17 13:48:17.281250
1233,18.5,2022-08-17 13:48:17.296875
1234,18.36,2022-08-17 13:48:17.312500
1235,18.24,2022-08-17 13:48:17.328125
1236,18.04,2022-08-17 13:48:17.343750
1237,17.65,2022-08-17 13:48:17.359375
1238,16.97,2022-08-17 13:48:17.375000
1239,15.92,2022-08-17 13:48:17.390625
1240,14.56,2022-08-17 13:48:17.406250
1241,12.97,2022-08-17 13:48:17.421875
1242,11.26,2022-08-17 13:48:17.437500
1243,9.52,2022-08-17 13:48:17.453125
1244,7.78,2022-08-17 13:48:17.468750
1245,6.07,2022-08-17 13:48:17.484375
1246,4.39,2022-08-17 13:48:17.500000
1247,2.74,2022-08-17 13:48:17.515625
1248,1.07,2022-08-17 13:48:17.531250
1249,-0.74,2022-08-17 13:48:17.546875
1250,-2.84,2022-08-17 13:48:17.562500
1251,-5.31,2022-08-17 13:48:17.578125
1252,-8.08,2022-08-17 13:48:17.593750
1253,-10.88,2022-08-17 13:48:17.609375
1254,-13.34,2022-08-17 13:48:17.625000
1255,-15.24,2022-08-17 13:48:17.640625
1256,-16.61,2022-08-17 13:48:17.656250
1257,-17.78,2022-08-17 13:48:17.671875
1258,-19.24,2022-08-17 13:48:17.687500
1259,-21.31,2022-08-17 13:48:17.703125
1260,-23.97,2022-08-17 13:48:17.718750
1261,-26.74,2022-08-17 13:48:17.734375
1262,-28.94,2022-08-17 13:48:17.750000
1263,-29.85,2022-08-17 13:48:17.765625
1264,-29.0,2022-08-17 13:48:17.781250
1265,-26.3,2022-08-17 13:48:17.796875
1266,-21.99,2022-08-17 13:48:17.812500
1267,-16.51,2022-08-17 13:48:17.828125
1268,-10.32,2022-08-17 13:48:17.843750
1269,-3.89,2022-08-17 13:48:17.859375
1270,2.45,2022-08-17 13:48:17.875000
1271,8.41,2022-08-17 13:48:17.890625
1272,13.73,2022-08-17 13:48:17.906250
1273,18.24,2022-08-17 13:48:17.921875
1274,21.79,2022-08-17 13:48:17.937500
1275,24.33,2022-08-17 13:48:17.953125
1276,25.86,2022-08-17 13:48:17.968750
1277,26.5,2022-08-17 13:48:17.984375
1278,26.41,2022-08-17 13:48:18.000000
1279,25.82,2022-08-17 13:48:18.015625
1280,24.97,2022-08-17 13:48:18.031250
1281,24.01,2022-08-17 13:48:18.046875
1282,23.02,2022-08-17 13:48:18.062500
1283,22.0,2022-08-17 13:48:18.078125
1284,20.95,2022-08-17 13:48:18.093750
1285,19.91,2022-08-17 13:48:18.109375
1286,18.95,2022-08-17 13:48:18.125000
1287,18.14,2022-08-17 13:48:18.140625
1288,17.43,2022-08-17 13:48:18.156250
1289,16.7,2022-08-17 13:48:18.171875
1290,15.8,2022-08-17 13:48:18.187500
1291,14.61,2022-08-17 13:48:18.203125
1292,13.1,2022-08-17 13:48:18.218750
1293,11.34,2022-08-17 13:48:18.234375
1294,9.46,2022-08-17 13:48:18.250000
1295,7.49,2022-08-17 13:48:18.265625
1296,5.39,2022-08-17 13:48:18.281250
1297,3.09,2022-08-17 13:48:18.296875
1298,0.53,2022-08-17 13:48:18.312500
1299,-2.23,2022-08-17 13:48:18.328125
1300,-5.06,2022-08-17 13:48:18.343750
1301,-7.8,2022-08-17 13:48:18.359375
1302,-10.38,2022-08-17 13:48:18.375000
1303,-12.79,2022-08-17 13:48:18.390625
1304,-15.12,2022-08-17 13:48:18.406250
1305,-17.53,2022-08-17 13:48:18.421875
1306,-20.14,2022-08-17 13:48:18.437500
1307,-22.98,2022-08-17 13:48:18.453125
1308,-25.99,2022-08-17 13:48:18.468750
1309,-28.97,2022-08-17 13:48:18.484375
1310,-31.53,2022-08-17 13:48:18.500000
1311,-33.2,2022-08-17 13:48:18.515625
1312,-33.47,2022-08-17 13:48:18.531250
1313,-31.97,2022-08-17 13:48:18.546875
1314,-28.56,2022-08-17 13:48:18.562500
1315,-23.44,2022-08-17 13:48:18.578125
1316,-17.09,2022-08-17 13:48:18.593750
1317,-10.16,2022-08-17 13:48:18.609375
1318,-3.23,2022-08-17 13:48:18.625000
1319,3.24,2022-08-17 13:48:18.640625
1320,8.98,2022-08-17 13:48:18.656250
1321,13.91,2022-08-17 13:48:18.671875
1322,18.03,2022-08-17 13:48:18.687500
1323,21.34,2022-08-17 13:48:18.703125
1324,23.85,2022-08-17 13:48:18.718750
1325,25.53,2022-08-17 13:48:18.734375
1326,26.38,2022-08-17 13:48:18.750000
1327,26.48,2022-08-17 13:48:18.765625
1328,25.97,2022-08-17 13:48:18.781250
1329,25.07,2022-08-17 13:48:18.796875
1330,24.0,2022-08-17 13:48:18.812500
1331,22.93,2022-08-17 13:48:18.828125
1332,21.98,2022-08-17 13:48:18.843750
1333,21.23,2022-08-17 13:48:18.859375
1334,20.68,2022-08-17 13:48:18.875000
1335,20.3,2022-08-17 13:48:18.890625
1336,20.04,2022-08-17 13:48:18.906250
1337,19.82,2022-08-17 13:48:18.921875
1338,19.45,2022-08-17 13:48:18.937500
1339,18.76,2022-08-17 13:48:18.953125
1340,17.61,2022-08-17 13:48:18.968750
1341,15.94,2022-08-17 13:48:18.984375
1342,13.85,2022-08-17 13:48:19.000000
1343,11.53,2022-08-17 13:48:19.015625
1344,9.13,2022-08-17 13:48:19.031250
1345,6.78,2022-08-17 13:48:19.046875
1346,4.46,2022-08-17 13:48:19.062500
1347,2.1,2022-08-17 13:48:19.078125
1348,-0.39,2022-08-17 13:48:19.093750
1349,-3.05,2022-08-17 13:48:19.109375
1350,-5.86,2022-08-17 13:48:19.125000
1351,-8.73,2022-08-17 13:48:19.140625
1352,-11.59,2022-08-17 13:48:19.156250
1353,-14.45,2022-08-17 13:48:19.171875
1354,-17.4,2022-08-17 13:48:19.187500
1355,-20.61,2022-08-17 13:48:19.203125
1356,-24.17,2022-08-17 13:48:19.218750
1357,-28.06,2022-08-17 13:48:19.234375
1358,-32.04,2022-08-17 13:48:19.250000
1359,-35.63,2022-08-17 13:48:19.265625
1360,-38.27,2022-08-17 13:48:19.281250
1361,-39.35,2022-08-17 13:48:19.296875
1362,-38.47,2022-08-17 13:48:19.312500
1363,-35.46,2022-08-17 13:48:19.328125
1364,-30.5,2022-08-17 13:48:19.343750
1365,-24.01,2022-08-17 13:48:19.359375
1366,-16.6,2022-08-17 13:48:19.375000
1367,-8.88,2022-08-17 13:48:19.390625
1368,-1.42,2022-08-17 13:48:19.406250
1369,5.4,2022-08-17 13:48:19.421875
1370,11.36,2022-08-17 13:48:19.437500
1371,16.35,2022-08-17 13:48:19.453125
1372,20.38,2022-08-17 13:48:19.468750
1373,23.39,2022-08-17 13:48:19.484375
1374,25.41,2022-08-17 13:48:19.500000
1375,26.45,2022-08-17 13:48:19.515625
1376,26.61,2022-08-17 13:48:19.531250
1377,26.07,2022-08-17 13:48:19.546875
1378,25.07,2022-08-17 13:48:19.562500
1379,23.9,2022-08-17 13:48:19.578125
1380,22.76,2022-08-17 13:48:19.593750
1381,21.78,2022-08-17 13:48:19.609375
1382,20.99,2022-08-17 13:48:19.625000
1383,20.36,2022-08-17 13:48:19.640625
1384,19.86,2022-08-17 13:48:19.656250
1385,19.45,2022-08-17 13:48:19.671875
1386,19.06,2022-08-17 13:48:19.687500
1387,18.62,2022-08-17 13:48:19.703125
1388,18.0,2022-08-17 13:48:19.718750
1389,17.08,2022-08-17 13:48:19.734375
1390,15.75,2022-08-17 13:48:19.750000
1391,14.0,2022-08-17 13:48:19.765625
1392,11.92,2022-08-17 13:48:19.781250
1393,9.65,2022-08-17 13:48:19.796875
1394,7.33,2022-08-17 13:48:19.812500
1395,5.01,2022-08-17 13:48:19.828125
1396,2.67,2022-08-17 13:48:19.843750
1397,0.24,2022-08-17 13:48:19.859375
1398,-2.31,2022-08-17 13:48:19.875000
1399,-4.91,2022-08-17 13:48:19.890625
1400,-7.43,2022-08-17 13:48:19.906250
1401,-9.73,2022-08-17 13:48:19.921875
1402,-11.8,2022-08-17 13:48:19.937500
1403,-13.79,2022-08-17 13:48:19.953125
1404,-15.97,2022-08-17 13:48:19.968750
1405,-18.63,2022-08-17 13:48:19.984375
1406,-21.94,2022-08-17 13:48:20.000000
1407,-25.83,2022-08-17 13:48:20.015625
1408,-29.98,2022-08-17 13:48:20.031250
1409,-33.84,2022-08-17 13:48:20.046875
1410,-36.76,2022-08-17 13:48:20.062500
1411,-38.1,2022-08-17 13:48:20.078125
1412,-37.36,2022-08-17 13:48:20.093750
1413,-34.33,2022-08-17 13:48:20.109375
1414,-29.16,2022-08-17 13:48:20.125000
1415,-22.38,2022-08-17 13:48:20.140625
1416,-14.74,2022-08-17 13:48:20.156250
1417,-7.03,2022-08-17 13:48:20.171875
1418,0.16,2022-08-17 13:48:20.187500
1419,6.51,2022-08-17 13:48:20.203125
1420,11.97,2022-08-17 13:48:20.218750
1421,16.66,2022-08-17 13:48:20.234375
1422,20.65,2022-08-17 13:48:20.250000
1423,23.88,2022-08-17 13:48:20.265625
1424,26.16,2022-08-17 13:48:20.281250
1425,27.28,2022-08-17 13:48:20.296875
1426,27.24,2022-08-17 13:48:20.312500
1427,26.26,2022-08-17 13:48:20.328125
1428,24.82,2022-08-17 13:48:20.343750
1429,23.39,2022-08-17 13:48:20.359375
1430,22.32,2022-08-17 13:48:20.375000
1431,21.66,2022-08-17 13:48:20.390625
1432,21.22,2022-08-17 13:48:20.406250
1433,20.71,2022-08-17 13:48:20.421875
1434,19.89,2022-08-17 13:48:20.437500
1435,18.71,2022-08-17 13:48:20.453125
1436,17.27,2022-08-17 13:48:20.468750
1437,15.7,2022-08-17 13:48:20.484375
1438,14.1,2022-08-17 13:48:20.500000
1439,12.42,2022-08-17 13:48:20.515625
1440,10.58,2022-08-17 13:48:20.531250
1441,8.5,2022-08-17 13:48:20.546875
1442,6.22,2022-08-17 13:48:20.562500
1443,3.82,2022-08-17 13:48:20.578125
1444,1.47,2022-08-17 13:48:20.593750
1445,-0.76,2022-08-17 13:48:20.609375
1446,-2.85,2022-08-17 13:48:20.625000
1447,-4.83,2022-08-17 13:48:20.640625
1448,-6.73,2022-08-17 13:48:20.656250
1449,-8.59,2022-08-17 13:48:20.671875
1450,-10.42,2022-08-17 13:48:20.687500
1451,-12.18,2022-08-17 13:48:20.703125
1452,-13.84,2022-08-17 13:48:20.718750
1453,-15.43,2022-08-17 13:48:20.734375
1454,-17.0,2022-08-17 13:48:20.750000
1455,-18.72,2022-08-17 13:48:20.765625
1456,-20.77,2022-08-17 13:48:20.781250
1457,-23.28,2022-08-17 13:48:20.796875
1458,-26.19,2022-08-17 13:48:20.812500
1459,-29.15,2022-08-17 13:48:20.828125
1460,-31.55,2022-08-17 13:48:20.843750
1461,-32.68,2022-08-17 13:48:20.859375
1462,-31.91,2022-08-17 13:48:20.875000
1463,-28.98,2022-08-17 13:48:20.890625
1464,-24.1,2022-08-17 13:48:20.906250
1465,-17.86,2022-08-17 13:48:20.921875
1466,-11.0,2022-08-17 13:48:20.937500
1467,-4.17,2022-08-17 13:48:20.953125
1468,2.24,2022-08-17 13:48:20.968750
1469,8.11,2022-08-17 13:48:20.984375
1470,13.38,2022-08-17 13:48:21.000000
1471,17.99,2022-08-17 13:48:21.015625
1472,21.77,2022-08-17 13:48:21.031250
1473,24.42,2022-08-17 13:48:21.046875
1474,25.73,2022-08-17 13:48:21.062500
1475,25.68,2022-08-17 13:48:21.078125
1476,24.54,2022-08-17 13:48:21.093750
1477,22.79,2022-08-17 13:48:21.109375
1478,20.94,2022-08-17 13:48:21.125000
1479,19.36,2022-08-17 13:48:21.140625
1480,18.14,2022-08-17 13:48:21.156250
1481,17.14,2022-08-17 13:48:21.171875
1482,16.14,2022-08-17 13:48:21.187500
1483,15.01,2022-08-17 13:48:21.203125
1484,13.82,2022-08-17 13:48:21.218750
1485,12.74,2022-08-17 13:48:21.234375
1486,12.01,2022-08-17 13:48:21.250000
1487,11.75,2022-08-17 13:48:21.265625
1488,11.91,2022-08-17 13:48:21.281250
1489,12.23,2022-08-17 13:48:21.296875
1490,12.42,2022-08-17 13:48:21.312500
1491,12.18,2022-08-17 13:48:21.328125
1492,11.34,2022-08-17 13:48:21.343750
1493,9.79,2022-08-17 13:48:21.359375
1494,7.6,2022-08-17 13:48:21.375000
1495,4.89,2022-08-17 13:48:21.390625
1496,1.88,2022-08-17 13:48:21.406250
1497,-1.18,2022-08-17 13:48:21.421875
1498,-4.1,2022-08-17 13:48:21.437500
1499,-6.79,2022-08-17 13:48:21.453125
1500,-9.26,2022-08-17 13:48:21.468750
1501,-11.6,2022-08-17 13:48:21.484375
1502,-13.94,2022-08-17 13:48:21.500000
1503,-16.34,2022-08-17 13:48:21.515625
1504,-18.86,2022-08-17 13:48:21.531250
1505,-21.47,2022-08-17 13:48:21.546875
1506,-24.17,2022-08-17 13:48:21.562500
1507,-26.87,2022-08-17 13:48:21.578125
1508,-29.38,2022-08-17 13:48:21.593750
1509,-31.33,2022-08-17 13:48:21.609375
1510,-32.23,2022-08-17 13:48:21.625000
1511,-31.59,2022-08-17 13:48:21.640625
1512,-29.08,2022-08-17 13:48:21.656250
1513,-24.68,2022-08-17 13:48:21.671875
1514,-18.75,2022-08-17 13:48:21.687500
1515,-11.9,2022-08-17 13:48:21.703125
1516,-4.75,2022-08-17 13:48:21.718750
1517,2.11,2022-08-17 13:48:21.734375
1518,8.32,2022-08-17 13:48:21.750000
1519,13.59,2022-08-17 13:48:21.765625
1520,17.82,2022-08-17 13:48:21.781250
1521,20.88,2022-08-17 13:48:21.796875
1522,22.73,2022-08-17 13:48:21.812500
1523,23.39,2022-08-17 13:48:21.828125
1524,23.03,2022-08-17 13:48:21.843750
1525,21.9,2022-08-17 13:48:21.859375
1526,20.36,2022-08-17 13:48:21.875000
1527,18.71,2022-08-17 13:48:21.890625
1528,17.16,2022-08-17 13:48:21.906250
1529,15.82,2022-08-17 13:48:21.921875
1530,14.63,2022-08-17 13:48:21.937500
1531,13.52,2022-08-17 13:48:21.953125
1532,12.4,2022-08-17 13:48:21.968750
1533,11.24,2022-08-17 13:48:21.984375
1534,9.98,2022-08-17 13:48:22.000000
1535,8.65,2022-08-17 13:48:22.015625
1536,7.28,2022-08-17 13:48:22.031250
1537,5.89,2022-08-17 13:48:22.046875
1538,4.59,2022-08-17 13:48:22.062500
1539,3.46,2022-08-17 13:48:22.078125
1540,2.6,2022-08-17 13:48:22.093750
1541,2.05,2022-08-17 13:48:22.109375
1542,1.83,2022-08-17 13:48:22.125000
1543,1.83,2022-08-17 13:48:22.140625
1544,1.92,2022-08-17 13:48:22.156250
1545,2.0,2022-08-17 13:48:22.171875
1546,1.99,2022-08-17 13:48:22.187500
1547,1.85,2022-08-17 13:48:22.203125
1548,1.61,2022-08-17 13:48:22.218750
1549,1.27,2022-08-17 13:48:22.234375
1550,0.84,2022-08-17 13:48:22.250000
1551,0.29,2022-08-17 13:48:22.265625
1552,-0.49,2022-08-17 13:48:22.281250
1553,-1.6,2022-08-17 13:48:22.296875
1554,-3.12,2022-08-17 13:48:22.312500
1555,-5.07,2022-08-17 13:48:22.328125
1556,-7.34,2022-08-17 13:48:22.343750
1557,-9.78,2022-08-17 13:48:22.359375
1558,-12.2,2022-08-17 13:48:22.375000
1559,-14.42,2022-08-17 13:48:22.390625
1560,-16.4,2022-08-17 13:48:22.406250
1561,-18.23,2022-08-17 13:48:22.421875
1562,-20.1,2022-08-17 13:48:22.437500
1563,-22.26,2022-08-17 13:48:22.453125
1564,-24.9,2022-08-17 13:48:22.468750
1565,-28.03,2022-08-17 13:48:22.484375
1566,-31.41,2022-08-17 13:48:22.500000
1567,-34.6,2022-08-17 13:48:22.515625
1568,-36.97,2022-08-17 13:48:22.531250
1569,-37.96,2022-08-17 13:48:22.546875
1570,-37.12,2022-08-17 13:48:22.562500
1571,-34.32,2022-08-17 13:48:22.578125
1572,-29.68,2022-08-17 13:48:22.593750
1573,-23.59,2022-08-17 13:48:22.609375
1574,-16.57,2022-08-17 13:48:22.625000
1575,-9.24,2022-08-17 13:48:22.640625
1576,-2.17,2022-08-17 13:48:22.656250
1577,4.16,2022-08-17 13:48:22.671875
1578,9.49,2022-08-17 13:48:22.687500
1579,13.74,2022-08-17 13:48:22.703125
1580,16.97,2022-08-17 13:48:22.718750
1581,19.33,2022-08-17 13:48:22.734375
1582,20.89,2022-08-17 13:48:22.750000
1583,21.72,2022-08-17 13:48:22.765625
1584,21.87,2022-08-17 13:48:22.781250
1585,21.44,2022-08-17 13:48:22.796875
1586,20.63,2022-08-17 13:48:22.812500
1587,19.68,2022-08-17 13:48:22.828125
1588,18.76,2022-08-17 13:48:22.843750
1589,17.97,2022-08-17 13:48:22.859375
1590,17.25,2022-08-17 13:48:22.875000
1591,16.48,2022-08-17 13:48:22.890625
1592,15.58,2022-08-17 13:48:22.906250
1593,14.51,2022-08-17 13:48:22.921875
1594,13.36,2022-08-17 13:48:22.937500
1595,12.25,2022-08-17 13:48:22.953125
1596,11.27,2022-08-17 13:48:22.968750
1597,10.43,2022-08-17 13:48:22.984375
1598,9.64,2022-08-17 13:48:23.000000
1599,8.73,2022-08-17 13:48:23.015625
1600,7.5,2022-08-17 13:48:23.031250
1601,5.79,2022-08-17 13:48:23.046875
1602,3.56,2022-08-17 13:48:23.062500
1603,0.92,2022-08-17 13:48:23.078125
1604,-1.92,2022-08-17 13:48:23.093750
1605,-4.71,2022-08-17 13:48:23.109375
1606,-7.26,2022-08-17 13:48:23.125000
1607,-9.45,2022-08-17 13:48:23.140625
1608,-11.37,2022-08-17 13:48:23.156250
1609,-13.18,2022-08-17 13:48:23.171875
1610,-15.14,2022-08-17 13:48:23.187500
1611,-17.46,2022-08-17 13:48:23.203125
1612,-20.32,2022-08-17 13:48:23.218750
1613,-23.71,2022-08-17 13:48:23.234375
1614,-27.5,2022-08-17 13:48:23.250000
1615,-31.31,2022-08-17 13:48:23.265625
1616,-34.61,2022-08-17 13:48:23.281250
1617,-36.73,2022-08-17 13:48:23.296875
1618,-37.1,2022-08-17 13:48:23.312500
1619,-35.33,2022-08-17 13:48:23.328125
1620,-31.42,2022-08-17 13:48:23.343750
1621,-25.72,2022-08-17 13:48:23.359375
1622,-18.85,2022-08-17 13:48:23.375000
1623,-11.5,2022-08-17 13:48:23.390625
1624,-4.31,2022-08-17 13:48:23.406250
1625,2.31,2022-08-17 13:48:23.421875
1626,8.15,2022-08-17 13:48:23.437500
1627,13.18,2022-08-17 13:48:23.453125
1628,17.42,2022-08-17 13:48:23.468750
1629,20.86,2022-08-17 13:48:23.484375
1630,23.49,2022-08-17 13:48:23.500000
1631,25.26,2022-08-17 13:48:23.515625
1632,26.16,2022-08-17 13:48:23.531250
1633,26.27,2022-08-17 13:48:23.546875
1634,25.75,2022-08-17 13:48:23.562500
1635,24.81,2022-08-17 13:48:23.578125
1636,23.65,2022-08-17 13:48:23.593750
1637,22.37,2022-08-17 13:48:23.609375
1638,21.0,2022-08-17 13:48:23.625000
1639,19.53,2022-08-17 13:48:23.640625
1640,17.93,2022-08-17 13:48:23.656250
1641,16.22,2022-08-17 13:48:23.671875
1642,14.53,2022-08-17 13:48:23.687500
1643,12.97,2022-08-17 13:48:23.703125
1644,11.64,2022-08-17 13:48:23.718750
1645,10.57,2022-08-17 13:48:23.734375
1646,9.7,2022-08-17 13:48:23.750000
1647,8.93,2022-08-17 13:48:23.765625
1648,8.14,2022-08-17 13:48:23.781250
1649,7.22,2022-08-17 13:48:23.796875
1650,6.13,2022-08-17 13:48:23.812500
1651,4.82,2022-08-17 13:48:23.828125
1652,3.27,2022-08-17 13:48:23.843750
1653,1.49,2022-08-17 13:48:23.859375
1654,-0.53,2022-08-17 13:48:23.875000
1655,-2.76,2022-08-17 13:48:23.890625
1656,-5.11,2022-08-17 13:48:23.906250
1657,-7.48,2022-08-17 13:48:23.921875
1658,-9.76,2022-08-17 13:48:23.937500
1659,-11.94,2022-08-17 13:48:23.953125
1660,-14.12,2022-08-17 13:48:23.968750
1661,-16.51,2022-08-17 13:48:23.984375
1662,-19.38,2022-08-17 13:48:24.000000
1663,-22.88,2022-08-17 13:48:24.015625
1664,-26.93,2022-08-17 13:48:24.031250
1665,-31.13,2022-08-17 13:48:24.046875
1666,-34.77,2022-08-17 13:48:24.062500
1667,-37.08,2022-08-17 13:48:24.078125
1668,-37.4,2022-08-17 13:48:24.093750
1669,-35.47,2022-08-17 13:48:24.109375
1670,-31.43,2022-08-17 13:48:24.125000
1671,-25.82,2022-08-17 13:48:24.140625
1672,-19.33,2022-08-17 13:48:24.156250
1673,-12.57,2022-08-17 13:48:24.171875
1674,-5.96,2022-08-17 13:48:24.187500
1675,0.34,2022-08-17 13:48:24.203125
1676,6.25,2022-08-17 13:48:24.218750
1677,11.71,2022-08-17 13:48:24.234375
1678,16.52,2022-08-17 13:48:24.250000
1679,20.43,2022-08-17 13:48:24.265625
1680,23.22,2022-08-17 13:48:24.281250
1681,24.81,2022-08-17 13:48:24.296875
1682,25.36,2022-08-17 13:48:24.312500
1683,25.17,2022-08-17 13:48:24.328125
1684,24.61,2022-08-17 13:48:24.343750
1685,23.96,2022-08-17 13:48:24.359375
1686,23.35,2022-08-17 13:48:24.375000
1687,22.76,2022-08-17 13:48:24.390625
1688,22.09,2022-08-17 13:48:24.406250
1689,21.23,2022-08-17 13:48:24.421875
1690,20.19,2022-08-17 13:48:24.437500
1691,19.08,2022-08-17 13:48:24.453125
1692,18.01,2022-08-17 13:48:24.468750
1693,17.04,2022-08-17 13:48:24.484375
1694,16.08,2022-08-17 13:48:24.500000
1695,14.95,2022-08-17 13:48:24.515625
1696,13.46,2022-08-17 13:48:24.531250
1697,11.57,2022-08-17 13:48:24.546875
1698,9.39,2022-08-17 13:48:24.562500
1699,7.13,2022-08-17 13:48:24.578125
1700,4.98,2022-08-17 13:48:24.593750
1701,3.01,2022-08-17 13:48:24.609375
1702,1.13,2022-08-17 13:48:24.625000
1703,-0.8,2022-08-17 13:48:24.640625
1704,-2.83,2022-08-17 13:48:24.656250
1705,-4.95,2022-08-17 13:48:24.671875
1706,-6.99,2022-08-17 13:48:24.687500
1707,-8.84,2022-08-17 13:48:24.703125
1708,-10.49,2022-08-17 13:48:24.718750
1709,-12.06,2022-08-17 13:48:24.734375
1710,-13.76,2022-08-17 13:48:24.750000
1711,-15.79,2022-08-17 13:48:24.765625
1712,-18.23,2022-08-17 13:48:24.781250
1713,-21.11,2022-08-17 13:48:24.796875
1714,-24.29,2022-08-17 13:48:24.812500
1715,-27.57,2022-08-17 13:48:24.828125
1716,-30.64,2022-08-17 13:48:24.843750
1717,-33.15,2022-08-17 13:48:24.859375
1718,-34.68,2022-08-17 13:48:24.875000
1719,-34.91,2022-08-17 13:48:24.890625
1720,-33.6,2022-08-17 13:48:24.906250
1721,-30.7,2022-08-17 13:48:24.921875
1722,-26.27,2022-08-17 13:48:24.937500
1723,-20.53,2022-08-17 13:48:24.953125
1724,-13.88,2022-08-17 13:48:24.968750
1725,-6.77,2022-08-17 13:48:24.984375
1726,0.22,2022-08-17 13:48:25.000000
1727,6.56,2022-08-17 13:48:25.015625
1728,11.86,2022-08-17 13:48:25.031250
1729,15.98,2022-08-17 13:48:25.046875
1730,18.94,2022-08-17 13:48:25.062500
1731,20.98,2022-08-17 13:48:25.078125
1732,22.26,2022-08-17 13:48:25.093750
1733,22.91,2022-08-17 13:48:25.109375
1734,23.01,2022-08-17 13:48:25.125000
1735,22.6,2022-08-17 13:48:25.140625
1736,21.82,2022-08-17 13:48:25.156250
1737,20.87,2022-08-17 13:48:25.171875
1738,19.95,2022-08-17 13:48:25.187500
1739,19.2,2022-08-17 13:48:25.203125
1740,18.67,2022-08-17 13:48:25.218750
1741,18.23,2022-08-17 13:48:25.234375
1742,17.76,2022-08-17 13:48:25.250000
1743,17.11,2022-08-17 13:48:25.265625
1744,16.21,2022-08-17 13:48:25.281250
1745,15.07,2022-08-17 13:48:25.296875
1746,13.75,2022-08-17 13:48:25.312500
1747,12.34,2022-08-17 13:48:25.328125
1748,10.92,2022-08-17 13:48:25.343750
1749,9.56,2022-08-17 13:48:25.359375
1750,8.26,2022-08-17 13:48:25.375000
1751,6.99,2022-08-17 13:48:25.390625
1752,5.65,2022-08-17 13:48:25.406250
1753,4.13,2022-08-17 13:48:25.421875
1754,2.33,2022-08-17 13:48:25.437500
1755,0.23,2022-08-17 13:48:25.453125
1756,-2.1,2022-08-17 13:48:25.468750
1757,-4.56,2022-08-17 13:48:25.484375
1758,-7.0,2022-08-17 13:48:25.500000
1759,-9.35,2022-08-17 13:48:25.515625
1760,-11.55,2022-08-17 13:48:25.531250
1761,-13.57,2022-08-17 13:48:25.546875
1762,-15.4,2022-08-17 13:48:25.562500
1763,-17.1,2022-08-17 13:48:25.578125
1764,-18.74,2022-08-17 13:48:25.593750
1765,-20.49,2022-08-17 13:48:25.609375
1766,-22.52,2022-08-17 13:48:25.625000
1767,-24.89,2022-08-17 13:48:25.640625
1768,-27.42,2022-08-17 13:48:25.656250
1769,-29.67,2022-08-17 13:48:25.671875
1770,-31.05,2022-08-17 13:48:25.687500
1771,-30.99,2022-08-17 13:48:25.703125
1772,-29.16,2022-08-17 13:48:25.718750
1773,-25.59,2022-08-17 13:48:25.734375
1774,-20.69,2022-08-17 13:48:25.750000
1775,-15.02,2022-08-17 13:48:25.765625
1776,-9.16,2022-08-17 13:48:25.781250
1777,-3.57,2022-08-17 13:48:25.796875
1778,1.49,2022-08-17 13:48:25.812500
1779,5.94,2022-08-17 13:48:25.828125
1780,9.73,2022-08-17 13:48:25.843750
1781,12.82,2022-08-17 13:48:25.859375
1782,15.11,2022-08-17 13:48:25.875000
1783,16.58,2022-08-17 13:48:25.890625
1784,17.22,2022-08-17 13:48:25.906250
1785,17.13,2022-08-17 13:48:25.921875
1786,16.53,2022-08-17 13:48:25.937500
1787,15.7,2022-08-17 13:48:25.953125
1788,14.88,2022-08-17 13:48:25.968750
1789,14.24,2022-08-17 13:48:25.984375
1790,13.87,2022-08-17 13:48:26.000000
1791,13.7,2022-08-17 13:48:26.015625
1792,13.63,2022-08-17 13:48:26.031250
1793,13.51,2022-08-17 13:48:26.046875
1794,13.21,2022-08-17 13:48:26.062500
1795,12.63,2022-08-17 13:48:26.078125
1796,11.77,2022-08-17 13:48:26.093750
1797,10.65,2022-08-17 13:48:26.109375
1798,9.34,2022-08-17 13:48:26.125000
1799,7.9,2022-08-17 13:48:26.140625
1800,6.38,2022-08-17 13:48:26.156250
1801,4.84,2022-08-17 13:48:26.171875
1802,3.35,2022-08-17 13:48:26.187500
1803,1.96,2022-08-17 13:48:26.203125
1804,0.62,2022-08-17 13:48:26.218750
1805,-0.68,2022-08-17 13:48:26.234375
1806,-2.08,2022-08-17 13:48:26.250000
1807,-3.66,2022-08-17 13:48:26.265625
1808,-5.47,2022-08-17 13:48:26.281250
1809,-7.48,2022-08-17 13:48:26.296875
1810,-9.61,2022-08-17 13:48:26.312500
1811,-11.79,2022-08-17 13:48:26.328125
1812,-13.95,2022-08-17 13:48:26.343750
1813,-16.11,2022-08-17 13:48:26.359375
1814,-18.35,2022-08-17 13:48:26.375000
1815,-20.76,2022-08-17 13:48:26.390625
1816,-23.42,2022-08-17 13:48:26.406250
1817,-26.27,2022-08-17 13:48:26.421875
1818,-29.11,2022-08-17 13:48:26.437500
1819,-31.53,2022-08-17 13:48:26.453125
1820,-33.02,2022-08-17 13:48:26.468750
1821,-33.07,2022-08-17 13:48:26.484375
1822,-31.37,2022-08-17 13:48:26.500000
1823,-27.9,2022-08-17 13:48:26.515625
1824,-22.94,2022-08-17 13:48:26.531250
1825,-16.97,2022-08-17 13:48:26.546875
1826,-10.54,2022-08-17 13:48:26.562500
1827,-4.12,2022-08-17 13:48:26.578125
1828,1.95,2022-08-17 13:48:26.593750
1829,7.47,2022-08-17 13:48:26.609375
1830,12.27,2022-08-17 13:48:26.625000
1831,16.2,2022-08-17 13:48:26.640625
1832,19.08,2022-08-17 13:48:26.656250
1833,20.77,2022-08-17 13:48:26.671875
1834,21.28,2022-08-17 13:48:26.687500
1835,20.74,2022-08-17 13:48:26.703125
1836,19.42,2022-08-17 13:48:26.718750
1837,17.64,2022-08-17 13:48:26.734375
1838,15.73,2022-08-17 13:48:26.750000
1839,13.96,2022-08-17 13:48:26.765625
1840,12.51,2022-08-17 13:48:26.781250
1841,11.51,2022-08-17 13:48:26.796875
1842,11.02,2022-08-17 13:48:26.812500
1843,11.05,2022-08-17 13:48:26.828125
1844,11.46,2022-08-17 13:48:26.843750
1845,12.04,2022-08-17 13:48:26.859375
1846,12.48,2022-08-17 13:48:26.875000
1847,12.5,2022-08-17 13:48:26.890625
1848,11.88,2022-08-17 13:48:26.906250
1849,10.65,2022-08-17 13:48:26.921875
1850,8.97,2022-08-17 13:48:26.937500
1851,7.15,2022-08-17 13:48:26.953125
1852,5.47,2022-08-17 13:48:26.968750
1853,4.0,2022-08-17 13:48:26.984375
1854,2.67,2022-08-17 13:48:27.000000
1855,1.25,2022-08-17 13:48:27.015625
1856,-0.47,2022-08-17 13:48:27.031250
1857,-2.57,2022-08-17 13:48:27.046875
1858,-4.94,2022-08-17 13:48:27.062500
1859,-7.39,2022-08-17 13:48:27.078125
1860,-9.74,2022-08-17 13:48:27.093750
1861,-11.93,2022-08-17 13:48:27.109375
1862,-14.03,2022-08-17 13:48:27.125000
1863,-16.24,2022-08-17 13:48:27.140625
1864,-18.71,2022-08-17 13:48:27.156250
1865,-21.52,2022-08-17 13:48:27.171875
1866,-24.68,2022-08-17 13:48:27.187500
1867,-28.09,2022-08-17 13:48:27.203125
1868,-31.59,2022-08-17 13:48:27.218750
1869,-34.91,2022-08-17 13:48:27.234375
1870,-37.64,2022-08-17 13:48:27.250000
1871,-39.28,2022-08-17 13:48:27.265625
1872,-39.28,2022-08-17 13:48:27.281250
1873,-37.27,2022-08-17 13:48:27.296875
1874,-33.18,2022-08-17 13:48:27.312500
1875,-27.36,2022-08-17 13:48:27.328125
1876,-20.44,2022-08-17 13:48:27.343750
1877,-13.17,2022-08-17 13:48:27.359375
1878,-6.22,2022-08-17 13:48:27.375000
1879,-0.03,2022-08-17 13:48:27.390625
1880,5.26,2022-08-17 13:48:27.406250
1881,9.65,2022-08-17 13:48:27.421875
1882,13.22,2022-08-17 13:48:27.437500
1883,15.97,2022-08-17 13:48:27.453125
1884,17.96,2022-08-17 13:48:27.468750
1885,19.18,2022-08-17 13:48:27.484375
1886,19.75,2022-08-17 13:48:27.500000
1887,19.84,2022-08-17 13:48:27.515625
1888,19.68,2022-08-17 13:48:27.531250
1889,19.48,2022-08-17 13:48:27.546875
1890,19.3,2022-08-17 13:48:27.562500
1891,19.14,2022-08-17 13:48:27.578125
1892,18.92,2022-08-17 13:48:27.593750
1893,18.59,2022-08-17 13:48:27.609375
1894,18.14,2022-08-17 13:48:27.625000
1895,17.64,2022-08-17 13:48:27.640625
1896,17.11,2022-08-17 13:48:27.656250
1897,16.55,2022-08-17 13:48:27.671875
1898,15.85,2022-08-17 13:48:27.687500
1899,14.87,2022-08-17 13:48:27.703125
1900,13.52,2022-08-17 13:48:27.718750
1901,11.77,2022-08-17 13:48:27.734375
1902,9.7,2022-08-17 13:48:27.750000
1903,7.46,2022-08-17 13:48:27.765625
1904,5.18,2022-08-17 13:48:27.781250
1905,2.95,2022-08-17 13:48:27.796875
1906,0.82,2022-08-17 13:48:27.812500
1907,-1.22,2022-08-17 13:48:27.828125
1908,-3.22,2022-08-17 13:48:27.843750
1909,-5.25,2022-08-17 13:48:27.859375
1910,-7.29,2022-08-17 13:48:27.875000
1911,-9.29,2022-08-17 13:48:27.890625
1912,-11.14,2022-08-17 13:48:27.906250
1913,-12.76,2022-08-17 13:48:27.921875
1914,-14.12,2022-08-17 13:48:27.937500
1915,-15.34,2022-08-17 13:48:27.953125
1916,-16.63,2022-08-17 13:48:27.968750
1917,-18.24,2022-08-17 13:48:27.984375
1918,-20.38,2022-08-17 13:48:28.000000
1919,-23.17,2022-08-17 13:48:28.015625
1920,-26.57,2022-08-17 13:48:28.031250
1921,-30.34,2022-08-17 13:48:28.046875
1922,-34.03,2022-08-17 13:48:28.062500
1923,-37.01,2022-08-17 13:48:28.078125
1924,-38.57,2022-08-17 13:48:28.093750
1925,-38.12,2022-08-17 13:48:28.109375
1926,-35.36,2022-08-17 13:48:28.125000
1927,-30.44,2022-08-17 13:48:28.140625
1928,-23.93,2022-08-17 13:48:28.156250
1929,-16.62,2022-08-17 13:48:28.171875
1930,-9.28,2022-08-17 13:48:28.187500
1931,-2.44,2022-08-17 13:48:28.203125
1932,3.65,2022-08-17 13:48:28.218750
1933,8.89,2022-08-17 13:48:28.234375
1934,13.3,2022-08-17 13:48:28.250000
1935,16.86,2022-08-17 13:48:28.265625
1936,19.49,2022-08-17 13:48:28.281250
1937,21.22,2022-08-17 13:48:28.296875
1938,22.15,2022-08-17 13:48:28.312500
1939,22.49,2022-08-17 13:48:28.328125
1940,22.49,2022-08-17 13:48:28.343750
1941,22.36,2022-08-17 13:48:28.359375
1942,22.15,2022-08-17 13:48:28.375000
1943,21.89,2022-08-17 13:48:28.390625
1944,21.54,2022-08-17 13:48:28.406250
1945,21.07,2022-08-17 13:48:28.421875
1946,20.46,2022-08-17 13:48:28.437500
1947,19.75,2022-08-17 13:48:28.453125
1948,18.97,2022-08-17 13:48:28.468750
1949,18.16,2022-08-17 13:48:28.484375
1950,17.36,2022-08-17 13:48:28.500000
1951,16.6,2022-08-17 13:48:28.515625
1952,15.83,2022-08-17 13:48:28.531250
1953,15.0,2022-08-17 13:48:28.546875
1954,14.02,2022-08-17 13:48:28.562500
1955,12.87,2022-08-17 13:48:28.578125
1956,11.56,2022-08-17 13:48:28.593750
1957,10.14,2022-08-17 13:48:28.609375
1958,8.72,2022-08-17 13:48:28.625000
1959,7.36,2022-08-17 13:48:28.640625
1960,6.08,2022-08-17 13:48:28.656250
1961,4.84,2022-08-17 13:48:28.671875
1962,3.52,2022-08-17 13:48:28.687500
1963,1.98,2022-08-17 13:48:28.703125
1964,0.17,2022-08-17 13:48:28.718750
1965,-1.93,2022-08-17 13:48:28.734375
1966,-4.23,2022-08-17 13:48:28.750000
1967,-6.58,2022-08-17 13:48:28.765625
1968,-8.89,2022-08-17 13:48:28.781250
1969,-11.16,2022-08-17 13:48:28.796875
1970,-13.53,2022-08-17 13:48:28.812500
1971,-16.2,2022-08-17 13:48:28.828125
1972,-19.33,2022-08-17 13:48:28.843750
1973,-22.97,2022-08-17 13:48:28.859375
1974,-26.99,2022-08-17 13:48:28.875000
1975,-31.15,2022-08-17 13:48:28.890625
1976,-35.01,2022-08-17 13:48:28.906250
1977,-38.03,2022-08-17 13:48:28.921875
1978,-39.58,2022-08-17 13:48:28.937500
1979,-39.11,2022-08-17 13:48:28.953125
1980,-36.28,2022-08-17 13:48:28.968750
1981,-31.19,2022-08-17 13:48:28.984375
1982,-24.35,2022-08-17 13:48:29.000000
1983,-16.64,2022-08-17 13:48:29.015625
1984,-8.98,2022-08-17 13:48:29.031250
1985,-2.06,2022-08-17 13:48:29.046875
1986,3.79,2022-08-17 13:48:29.062500
1987,8.62,2022-08-17 13:48:29.078125
1988,12.7,2022-08-17 13:48:29.093750
1989,16.33,2022-08-17 13:48:29.109375
1990,19.6,2022-08-17 13:48:29.125000
1991,22.51,2022-08-17 13:48:29.140625
1992,24.88,2022-08-17 13:48:29.156250
1993,26.55,2022-08-17 13:48:29.171875
1994,27.43,2022-08-17 13:48:29.187500
1995,27.48,2022-08-17 13:48:29.203125
1996,26.78,2022-08-17 13:48:29.218750
1997,25.48,2022-08-17 13:48:29.234375
1998,23.8,2022-08-17 13:48:29.250000
1999,22.0,2022-08-17 13:48:29.265625
2000,20.3,2022-08-17 13:48:29.281250
2001,18.85,2022-08-17 13:48:29.296875
2002,17.66,2022-08-17 13:48:29.312500
2003,16.66,2022-08-17 13:48:29.328125
2004,15.71,2022-08-17 13:48:29.343750
2005,14.72,2022-08-17 13:48:29.359375
2006,13.7,2022-08-17 13:48:29.375000
2007,12.7,2022-08-17 13:48:29.390625
2008,11.73,2022-08-17 13:48:29.406250
2009,10.81,2022-08-17 13:48:29.421875
2010,9.86,2022-08-17 13:48:29.437500
2011,8.76,2022-08-17 13:48:29.453125
2012,7.42,2022-08-17 13:48:29.468750
2013,5.73,2022-08-17 13:48:29.484375
2014,3.65,2022-08-17 13:48:29.500000
2015,1.18,2022-08-17 13:48:29.515625
2016,-1.61,2022-08-17 13:48:29.531250
2017,-4.65,2022-08-17 13:48:29.546875
2018,-7.8,2022-08-17 13:48:29.562500
2019,-10.94,2022-08-17 13:48:29.578125
2020,-13.97,2022-08-17 13:48:29.593750
2021,-16.79,2022-08-17 13:48:29.609375
2022,-19.31,2022-08-17 13:48:29.625000
2023,-21.5,2022-08-17 13:48:29.640625
2024,-23.4,2022-08-17 13:48:29.656250
2025,-25.18,2022-08-17 13:48:29.671875
2026,-27.08,2022-08-17 13:48:29.687500
2027,-29.32,2022-08-17 13:48:29.703125
2028,-31.95,2022-08-17 13:48:29.718750
2029,-34.75,2022-08-17 13:48:29.734375
2030,-37.21,2022-08-17 13:48:29.750000
2031,-38.59,2022-08-17 13:48:29.765625
2032,-38.23,2022-08-17 13:48:29.781250
2033,-35.7,2022-08-17 13:48:29.796875
2034,-31.02,2022-08-17 13:48:29.812500
2035,-24.58,2022-08-17 13:48:29.828125
2036,-17.06,2022-08-17 13:48:29.843750
2037,-9.19,2022-08-17 13:48:29.859375
2038,-1.61,2022-08-17 13:48:29.875000
2039,5.3,2022-08-17 13:48:29.890625
2040,11.34,2022-08-17 13:48:29.906250
2041,16.45,2022-08-17 13:48:29.921875
2042,20.6,2022-08-17 13:48:29.937500
2043,23.73,2022-08-17 13:48:29.953125
2044,25.78,2022-08-17 13:48:29.968750
2045,26.78,2022-08-17 13:48:29.984375
2046,26.88,2022-08-17 13:48:30.000000
2047,26.35,2022-08-17 13:48:30.015625
2048,25.53,2022-08-17 13:48:30.031250
2049,24.65,2022-08-17 13:48:30.046875
2050,23.79,2022-08-17 13:48:30.062500
2051,22.89,2022-08-17 13:48:30.078125
2052,21.88,2022-08-17 13:48:30.093750
2053,20.74,2022-08-17 13:48:30.109375
2054,19.63,2022-08-17 13:48:30.125000
2055,18.76,2022-08-17 13:48:30.140625
2056,18.3,2022-08-17 13:48:30.156250
2057,18.18,2022-08-17 13:48:30.171875
2058,18.16,2022-08-17 13:48:30.187500
2059,17.86,2022-08-17 13:48:30.203125
2060,17.01,2022-08-17 13:48:30.218750
2061,15.53,2022-08-17 13:48:30.234375
2062,13.6,2022-08-17 13:48:30.250000
2063,11.56,2022-08-17 13:48:30.265625
2064,9.74,2022-08-17 13:48:30.281250
2065,8.24,2022-08-17 13:48:30.296875
2066,6.95,2022-08-17 13:48:30.312500
2067,5.59,2022-08-17 13:48:30.328125
2068,3.74,2022-08-17 13:48:30.343750
2069,1.13,2022-08-17 13:48:30.359375
2070,-2.37,2022-08-17 13:48:30.375000
2071,-6.6,2022-08-17 13:48:30.390625
2072,-11.18,2022-08-17 13:48:30.406250
2073,-15.49,2022-08-17 13:48:30.421875
2074,-18.98,2022-08-17 13:48:30.437500
2075,-21.33,2022-08-17 13:48:30.453125
2076,-22.65,2022-08-17 13:48:30.468750
2077,-23.58,2022-08-17 13:48:30.484375
2078,-24.99,2022-08-17 13:48:30.500000
2079,-27.65,2022-08-17 13:48:30.515625
2080,-31.82,2022-08-17 13:48:30.531250
2081,-37.01,2022-08-17 13:48:30.546875
2082,-42.08,2022-08-17 13:48:30.562500
2083,-45.69,2022-08-17 13:48:30.578125
2084,-46.75,2022-08-17 13:48:30.593750
2085,-44.81,2022-08-17 13:48:30.609375
2086,-40.15,2022-08-17 13:48:30.625000
2087,-33.43,2022-08-17 13:48:30.640625
2088,-25.49,2022-08-17 13:48:30.656250
2089,-17.0,2022-08-17 13:48:30.671875
2090,-8.44,2022-08-17 13:48:30.687500
2091,-0.12,2022-08-17 13:48:30.703125
2092,7.63,2022-08-17 13:48:30.718750
2093,14.44,2022-08-17 13:48:30.734375
2094,19.99,2022-08-17 13:48:30.750000
2095,24.16,2022-08-17 13:48:30.765625
2096,27.07,2022-08-17 13:48:30.781250
2097,29.03,2022-08-17 13:48:30.796875
2098,30.34,2022-08-17 13:48:30.812500
2099,31.16,2022-08-17 13:48:30.828125
2100,31.45,2022-08-17 13:48:30.843750
2101,31.11,2022-08-17 13:48:30.859375
2102,30.11,2022-08-17 13:48:30.875000
2103,28.64,2022-08-17 13:48:30.890625
2104,27.02,2022-08-17 13:48:30.906250
2105,25.63,2022-08-17 13:48:30.921875
2106,24.66,2022-08-17 13:48:30.937500
2107,24.05,2022-08-17 13:48:30.953125
2108,23.57,2022-08-17 13:48:30.968750
2109,22.89,2022-08-17 13:48:30.984375
2110,21.82,2022-08-17 13:48:31.000000
2111,20.3,2022-08-17 13:48:31.015625
2112,18.41,2022-08-17 13:48:31.031250
2113,16.28,2022-08-17 13:48:31.046875
2114,14.0,2022-08-17 13:48:31.062500
2115,11.59,2022-08-17 13:48:31.078125
2116,9.07,2022-08-17 13:48:31.093750
2117,6.47,2022-08-17 13:48:31.109375
2118,3.85,2022-08-17 13:48:31.125000
2119,1.34,2022-08-17 13:48:31.140625
2120,-1.05,2022-08-17 13:48:31.156250
2121,-3.31,2022-08-17 13:48:31.171875
2122,-5.57,2022-08-17 13:48:31.187500
2123,-7.88,2022-08-17 13:48:31.203125
2124,-10.24,2022-08-17 13:48:31.218750
2125,-12.6,2022-08-17 13:48:31.234375
2126,-14.86,2022-08-17 13:48:31.250000
2127,-17.03,2022-08-17 13:48:31.265625
2128,-19.21,2022-08-17 13:48:31.281250
2129,-21.65,2022-08-17 13:48:31.296875
2130,-24.59,2022-08-17 13:48:31.312500
2131,-28.14,2022-08-17 13:48:31.328125
2132,-32.13,2022-08-17 13:48:31.343750
2133,-36.07,2022-08-17 13:48:31.359375
2134,-39.21,2022-08-17 13:48:31.375000
2135,-40.8,2022-08-17 13:48:31.390625
2136,-40.32,2022-08-17 13:48:31.406250
2137,-37.59,2022-08-17 13:48:31.421875
2138,-32.82,2022-08-17 13:48:31.437500
2139,-26.5,2022-08-17 13:48:31.453125
2140,-19.26,2022-08-17 13:48:31.468750
2141,-11.65,2022-08-17 13:48:31.484375
2142,-4.08,2022-08-17 13:48:31.500000
2143,3.1,2022-08-17 13:48:31.515625
2144,9.66,2022-08-17 13:48:31.531250
2145,15.36,2022-08-17 13:48:31.546875
2146,20.01,2022-08-17 13:48:31.562500
2147,23.57,2022-08-17 13:48:31.578125
2148,26.09,2022-08-17 13:48:31.593750
2149,27.78,2022-08-17 13:48:31.609375
2150,28.86,2022-08-17 13:48:31.625000
2151,29.49,2022-08-17 13:48:31.640625
2152,29.72,2022-08-17 13:48:31.656250
2153,29.55,2022-08-17 13:48:31.671875
2154,28.97,2022-08-17 13:48:31.687500
2155,28.04,2022-08-17 13:48:31.703125
2156,26.91,2022-08-17 13:48:31.718750
2157,25.74,2022-08-17 13:48:31.734375
2158,24.63,2022-08-17 13:48:31.750000
2159,23.6,2022-08-17 13:48:31.765625
2160,22.62,2022-08-17 13:48:31.781250
2161,21.6,2022-08-17 13:48:31.796875
2162,20.48,2022-08-17 13:48:31.812500
2163,19.2,2022-08-17 13:48:31.828125
2164,17.78,2022-08-17 13:48:31.843750
2165,16.29,2022-08-17 13:48:31.859375
2166,14.8,2022-08-17 13:48:31.875000
2167,13.43,2022-08-17 13:48:31.890625
2168,12.18,2022-08-17 13:48:31.906250
2169,11.0,2022-08-17 13:48:31.921875
2170,9.74,2022-08-17 13:48:31.937500
2171,8.21,2022-08-17 13:48:31.953125
2172,6.21,2022-08-17 13:48:31.968750
2173,3.68,2022-08-17 13:48:31.984375
2174,0.69,2022-08-17 13:48:32.000000
2175,-2.63,2022-08-17 13:48:32.015625
2176,-6.01,2022-08-17 13:48:32.031250
2177,-9.28,2022-08-17 13:48:32.046875
2178,-12.27,2022-08-17 13:48:32.062500
2179,-15.03,2022-08-17 13:48:32.078125
2180,-17.74,2022-08-17 13:48:32.093750
2181,-20.65,2022-08-17 13:48:32.109375
2182,-24.0,2022-08-17 13:48:32.125000
2183,-27.88,2022-08-17 13:48:32.140625
2184,-32.06,2022-08-17 13:48:32.156250
2185,-36.0,2022-08-17 13:48:32.171875
2186,-38.97,2022-08-17 13:48:32.187500
2187,-40.24,2022-08-17 13:48:32.203125
2188,-39.33,2022-08-17 13:48:32.218750
2189,-36.16,2022-08-17 13:48:32.234375
2190,-31.07,2022-08-17 13:48:32.250000
2191,-24.59,2022-08-17 13:48:32.265625
2192,-17.42,2022-08-17 13:48:32.281250
2193,-10.14,2022-08-17 13:48:32.296875
2194,-3.08,2022-08-17 13:48:32.312500
2195,3.51,2022-08-17 13:48:32.328125
2196,9.46,2022-08-17 13:48:32.343750
2197,14.64,2022-08-17 13:48:32.359375
2198,18.9,2022-08-17 13:48:32.375000
2199,22.07,2022-08-17 13:48:32.390625
2200,24.12,2022-08-17 13:48:32.406250
2201,25.14,2022-08-17 13:48:32.421875
2202,25.35,2022-08-17 13:48:32.437500
2203,25.07,2022-08-17 13:48:32.453125
2204,24.57,2022-08-17 13:48:32.468750
2205,23.99,2022-08-17 13:48:32.484375
2206,23.42,2022-08-17 13:48:32.500000
2207,22.84,2022-08-17 13:48:32.515625
2208,22.3,2022-08-17 13:48:32.531250
2209,21.89,2022-08-17 13:48:32.546875
2210,21.72,2022-08-17 13:48:32.562500
2211,21.84,2022-08-17 13:48:32.578125
2212,22.16,2022-08-17 13:48:32.593750
2213,22.42,2022-08-17 13:48:32.609375
2214,22.34,2022-08-17 13:48:32.625000
2215,21.67,2022-08-17 13:48:32.640625
2216,20.36,2022-08-17 13:48:32.656250
2217,18.52,2022-08-17 13:48:32.671875
2218,16.36,2022-08-17 13:48:32.687500
2219,14.1,2022-08-17 13:48:32.703125
2220,11.86,2022-08-17 13:48:32.718750
2221,9.6,2022-08-17 13:48:32.734375
2222,7.23,2022-08-17 13:48:32.750000
2223,4.66,2022-08-17 13:48:32.765625
2224,1.87,2022-08-17 13:48:32.781250
2225,-1.06,2022-08-17 13:48:32.796875
2226,-4.0,2022-08-17 13:48:32.812500
2227,-6.78,2022-08-17 13:48:32.828125
2228,-9.3,2022-08-17 13:48:32.843750
2229,-11.54,2022-08-17 13:48:32.859375
2230,-13.56,2022-08-17 13:48:32.875000
2231,-15.45,2022-08-17 13:48:32.890625
2232,-17.3,2022-08-17 13:48:32.906250
2233,-19.22,2022-08-17 13:48:32.921875
2234,-21.33,2022-08-17 13:48:32.937500
2235,-23.76,2022-08-17 13:48:32.953125
2236,-26.53,2022-08-17 13:48:32.968750
2237,-29.49,2022-08-17 13:48:32.984375
2238,-32.17,2022-08-17 13:48:33.000000
2239,-33.92,2022-08-17 13:48:33.015625
2240,-34.04,2022-08-17 13:48:33.031250
2241,-32.14,2022-08-17 13:48:33.046875
2242,-28.26,2022-08-17 13:48:33.062500
2243,-22.92,2022-08-17 13:48:33.078125
2244,-16.88,2022-08-17 13:48:33.093750
2245,-10.87,2022-08-17 13:48:33.109375
2246,-5.38,2022-08-17 13:48:33.125000
2247,-0.53,2022-08-17 13:48:33.140625
2248,3.76,2022-08-17 13:48:33.156250
2249,7.63,2022-08-17 13:48:33.171875
2250,11.13,2022-08-17 13:48:33.187500
2251,14.14,2022-08-17 13:48:33.203125
2252,16.54,2022-08-17 13:48:33.218750
2253,18.21,2022-08-17 13:48:33.234375
2254,19.19,2022-08-17 13:48:33.250000
2255,19.62,2022-08-17 13:48:33.265625
2256,19.68,2022-08-17 13:48:33.281250
2257,19.55,2022-08-17 13:48:33.296875
2258,19.35,2022-08-17 13:48:33.312500
2259,19.14,2022-08-17 13:48:33.328125
2260,18.9,2022-08-17 13:48:33.343750
2261,18.62,2022-08-17 13:48:33.359375
2262,18.25,2022-08-17 13:48:33.375000
2263,17.79,2022-08-17 13:48:33.390625
2264,17.2,2022-08-17 13:48:33.406250
2265,16.39,2022-08-17 13:48:33.421875
2266,15.25,2022-08-17 13:48:33.437500
2267,13.67,2022-08-17 13:48:33.453125
2268,11.66,2022-08-17 13:48:33.468750
2269,9.36,2022-08-17 13:48:33.484375
2270,7.03,2022-08-17 13:48:33.500000
2271,4.9,2022-08-17 13:48:33.515625
2272,3.08,2022-08-17 13:48:33.531250
2273,1.48,2022-08-17 13:48:33.546875
2274,-0.09,2022-08-17 13:48:33.562500
2275,-1.85,2022-08-17 13:48:33.578125
2276,-3.9,2022-08-17 13:48:33.593750
2277,-6.13,2022-08-17 13:48:33.609375
2278,-8.38,2022-08-17 13:48:33.625000
2279,-10.49,2022-08-17 13:48:33.640625
2280,-12.47,2022-08-17 13:48:33.656250
2281,-14.45,2022-08-17 13:48:33.671875
2282,-16.65,2022-08-17 13:48:33.687500
2283,-19.27,2022-08-17 13:48:33.703125
2284,-22.45,2022-08-17 13:48:33.718750
2285,-26.15,2022-08-17 13:48:33.734375
2286,-30.16,2022-08-17 13:48:33.750000
2287,-34.04,2022-08-17 13:48:33.765625
2288,-37.18,2022-08-17 13:48:33.781250
2289,-38.9,2022-08-17 13:48:33.796875
2290,-38.6,2022-08-17 13:48:33.812500
2291,-36.05,2022-08-17 13:48:33.828125
2292,-31.39,2022-08-17 13:48:33.843750
2293,-25.16,2022-08-17 13:48:33.859375
2294,-18.08,2022-08-17 13:48:33.875000
2295,-10.85,2022-08-17 13:48:33.890625
2296,-3.97,2022-08-17 13:48:33.906250
2297,2.27,2022-08-17 13:48:33.921875
2298,7.76,2022-08-17 13:48:33.937500
2299,12.48,2022-08-17 13:48:33.953125
2300,16.39,2022-08-17 13:48:33.968750
2301,19.43,2022-08-17 13:48:33.984375
2302,21.49,2022-08-17 13:48:34.000000
2303,22.56,2022-08-17 13:48:34.015625
2304,22.68,2022-08-17 13:48:34.031250
2305,22.04,2022-08-17 13:48:34.046875
2306,20.96,2022-08-17 13:48:34.062500
2307,19.74,2022-08-17 13:48:34.078125
2308,18.67,2022-08-17 13:48:34.093750
2309,17.88,2022-08-17 13:48:34.109375
2310,17.38,2022-08-17 13:48:34.125000
2311,17.02,2022-08-17 13:48:34.140625
2312,16.69,2022-08-17 13:48:34.156250
2313,16.37,2022-08-17 13:48:34.171875
2314,16.0,2022-08-17 13:48:34.187500
2315,15.63,2022-08-17 13:48:34.203125
2316,15.15,2022-08-17 13:48:34.218750
2317,14.42,2022-08-17 13:48:34.234375
2318,13.29,2022-08-17 13:48:34.250000
2319,11.72,2022-08-17 13:48:34.265625
2320,9.77,2022-08-17 13:48:34.281250
2321,7.56,2022-08-17 13:48:34.296875
2322,5.2,2022-08-17 13:48:34.312500
2323,2.74,2022-08-17 13:48:34.328125
2324,0.18,2022-08-17 13:48:34.343750
2325,-2.48,2022-08-17 13:48:34.359375
2326,-5.2,2022-08-17 13:48:34.375000
2327,-7.84,2022-08-17 13:48:34.390625
2328,-10.27,2022-08-17 13:48:34.406250
2329,-12.46,2022-08-17 13:48:34.421875
2330,-14.42,2022-08-17 13:48:34.437500
2331,-16.25,2022-08-17 13:48:34.453125
2332,-18.11,2022-08-17 13:48:34.468750
2333,-20.14,2022-08-17 13:48:34.484375
2334,-22.48,2022-08-17 13:48:34.500000
2335,-25.19,2022-08-17 13:48:34.515625
2336,-28.27,2022-08-17 13:48:34.531250
2337,-31.46,2022-08-17 13:48:34.546875
2338,-34.36,2022-08-17 13:48:34.562500
2339,-36.35,2022-08-17 13:48:34.578125
2340,-36.84,2022-08-17 13:48:34.593750
2341,-35.37,2022-08-17 13:48:34.609375
2342,-31.84,2022-08-17 13:48:34.625000
2343,-26.43,2022-08-17 13:48:34.640625
2344,-19.66,2022-08-17 13:48:34.656250
2345,-12.11,2022-08-17 13:48:34.671875
2346,-4.39,2022-08-17 13:48:34.687500
2347,2.99,2022-08-17 13:48:34.703125
2348,9.62,2022-08-17 13:48:34.718750
2349,15.23,2022-08-17 13:48:34.734375
2350,19.69,2022-08-17 13:48:34.750000
2351,22.92,2022-08-17 13:48:34.765625
2352,24.97,2022-08-17 13:48:34.781250
2353,25.89,2022-08-17 13:48:34.796875
2354,25.81,2022-08-17 13:48:34.812500
2355,24.88,2022-08-17 13:48:34.828125
2356,23.35,2022-08-17 13:48:34.843750
2357,21.51,2022-08-17 13:48:34.859375
2358,19.71,2022-08-17 13:48:34.875000
2359,18.2,2022-08-17 13:48:34.890625
2360,17.12,2022-08-17 13:48:34.906250
2361,16.47,2022-08-17 13:48:34.921875
2362,16.16,2022-08-17 13:48:34.937500
2363,16.07,2022-08-17 13:48:34.953125
2364,16.12,2022-08-17 13:48:34.968750
2365,16.26,2022-08-17 13:48:34.984375
2366,16.38,2022-08-17 13:48:35.000000
2367,16.35,2022-08-17 13:48:35.015625
2368,15.94,2022-08-17 13:48:35.031250
2369,14.96,2022-08-17 13:48:35.046875
2370,13.33,2022-08-17 13:48:35.062500
2371,11.07,2022-08-17 13:48:35.078125
2372,8.37,2022-08-17 13:48:35.093750
2373,5.41,2022-08-17 13:48:35.109375
2374,2.37,2022-08-17 13:48:35.125000
2375,-0.61,2022-08-17 13:48:35.140625
2376,-3.51,2022-08-17 13:48:35.156250
2377,-6.32,2022-08-17 13:48:35.171875
2378,-9.07,2022-08-17 13:48:35.187500
2379,-11.74,2022-08-17 13:48:35.203125
2380,-14.29,2022-08-17 13:48:35.218750
2381,-16.61,2022-08-17 13:48:35.234375
2382,-18.59,2022-08-17 13:48:35.250000
2383,-20.22,2022-08-17 13:48:35.265625
2384,-21.61,2022-08-17 13:48:35.281250
2385,-23.03,2022-08-17 13:48:35.296875
2386,-24.78,2022-08-17 13:48:35.312500
2387,-27.09,2022-08-17 13:48:35.328125
2388,-29.9,2022-08-17 13:48:35.343750
2389,-32.83,2022-08-17 13:48:35.359375
2390,-35.18,2022-08-17 13:48:35.375000
2391,-36.21,2022-08-17 13:48:35.390625
2392,-35.33,2022-08-17 13:48:35.406250
2393,-32.34,2022-08-17 13:48:35.421875
2394,-27.41,2022-08-17 13:48:35.437500
2395,-21.02,2022-08-17 13:48:35.453125
2396,-13.77,2022-08-17 13:48:35.468750
2397,-6.24,2022-08-17 13:48:35.484375
2398,1.1,2022-08-17 13:48:35.500000
2399,7.87,2022-08-17 13:48:35.515625
2400,13.75,2022-08-17 13:48:35.531250
2401,18.48,2022-08-17 13:48:35.546875
2402,21.91,2022-08-17 13:48:35.562500
2403,24.0,2022-08-17 13:48:35.578125
2404,24.91,2022-08-17 13:48:35.593750
2405,24.9,2022-08-17 13:48:35.609375
2406,24.33,2022-08-17 13:48:35.625000
2407,23.54,2022-08-17 13:48:35.640625
2408,22.74,2022-08-17 13:48:35.656250
2409,22.1,2022-08-17 13:48:35.671875
2410,21.6,2022-08-17 13:48:35.687500
2411,21.26,2022-08-17 13:48:35.703125
2412,21.02,2022-08-17 13:48:35.718750
2413,20.86,2022-08-17 13:48:35.734375
2414,20.81,2022-08-17 13:48:35.750000
2415,20.83,2022-08-17 13:48:35.765625
2416,20.84,2022-08-17 13:48:35.781250
2417,20.75,2022-08-17 13:48:35.796875
2418,20.41,2022-08-17 13:48:35.812500
2419,19.71,2022-08-17 13:48:35.828125
2420,18.63,2022-08-17 13:48:35.843750
2421,17.22,2022-08-17 13:48:35.859375
2422,15.59,2022-08-17 13:48:35.875000
2423,13.88,2022-08-17 13:48:35.890625
2424,12.16,2022-08-17 13:48:35.906250
2425,10.5,2022-08-17 13:48:35.921875
2426,8.84,2022-08-17 13:48:35.937500
2427,7.06,2022-08-17 13:48:35.953125
2428,5.03,2022-08-17 13:48:35.968750
2429,2.64,2022-08-17 13:48:35.984375
2430,-0.17,2022-08-17 13:48:36.000000
2431,-3.39,2022-08-17 13:48:36.015625
2432,-6.82,2022-08-17 13:48:36.031250
2433,-10.25,2022-08-17 13:48:36.046875
2434,-13.47,2022-08-17 13:48:36.062500
2435,-16.43,2022-08-17 13:48:36.078125
2436,-19.22,2022-08-17 13:48:36.093750
2437,-22.06,2022-08-17 13:48:36.109375
2438,-25.22,2022-08-17 13:48:36.125000
2439,-28.84,2022-08-17 13:48:36.140625
2440,-32.84,2022-08-17 13:48:36.156250
2441,-36.81,2022-08-17 13:48:36.171875
2442,-40.2,2022-08-17 13:48:36.187500
2443,-42.32,2022-08-17 13:48:36.203125
2444,-42.62,2022-08-17 13:48:36.218750
2445,-40.83,2022-08-17 13:48:36.234375
2446,-36.99,2022-08-17 13:48:36.250000
2447,-31.36,2022-08-17 13:48:36.265625
2448,-24.44,2022-08-17 13:48:36.281250
2449,-16.77,2022-08-17 13:48:36.296875
2450,-8.87,2022-08-17 13:48:36.312500
2451,-1.24,2022-08-17 13:48:36.328125
2452,5.67,2022-08-17 13:48:36.343750
2453,11.51,2022-08-17 13:48:36.359375
2454,16.02,2022-08-17 13:48:36.375000
2455,19.15,2022-08-17 13:48:36.390625
2456,21.0,2022-08-17 13:48:36.406250
2457,21.86,2022-08-17 13:48:36.421875
2458,21.98,2022-08-17 13:48:36.437500
2459,21.63,2022-08-17 13:48:36.453125
2460,20.95,2022-08-17 13:48:36.468750
2461,20.04,2022-08-17 13:48:36.484375
2462,18.99,2022-08-17 13:48:36.500000
2463,17.85,2022-08-17 13:48:36.515625
2464,16.77,2022-08-17 13:48:36.531250
2465,15.88,2022-08-17 13:48:36.546875
2466,15.26,2022-08-17 13:48:36.562500
2467,14.95,2022-08-17 13:48:36.578125
2468,14.84,2022-08-17 13:48:36.593750
2469,14.79,2022-08-17 13:48:36.609375
2470,14.62,2022-08-17 13:48:36.625000
2471,14.15,2022-08-17 13:48:36.640625
2472,13.27,2022-08-17 13:48:36.656250
2473,11.98,2022-08-17 13:48:36.671875
2474,10.31,2022-08-17 13:48:36.687500
2475,8.37,2022-08-17 13:48:36.703125
2476,6.23,2022-08-17 13:48:36.718750
2477,3.97,2022-08-17 13:48:36.734375
2478,1.55,2022-08-17 13:48:36.750000
2479,-1.02,2022-08-17 13:48:36.765625
2480,-3.7,2022-08-17 13:48:36.781250
2481,-6.44,2022-08-17 13:48:36.796875
2482,-9.12,2022-08-17 13:48:36.812500
2483,-11.64,2022-08-17 13:48:36.828125
2484,-13.97,2022-08-17 13:48:36.843750
2485,-16.16,2022-08-17 13:48:36.859375
2486,-18.29,2022-08-17 13:48:36.875000
2487,-20.47,2022-08-17 13:48:36.890625
2488,-22.82,2022-08-17 13:48:36.906250
2489,-25.35,2022-08-17 13:48:36.921875
2490,-28.05,2022-08-17 13:48:36.937500
2491,-30.8,2022-08-17 13:48:36.953125
2492,-33.36,2022-08-17 13:48:36.968750
2493,-35.27,2022-08-17 13:48:36.984375
2494,-35.98,2022-08-17 13:48:37.000000
2495,-34.98,2022-08-17 13:48:37.015625
2496,-31.99,2022-08-17 13:48:37.031250
2497,-27.04,2022-08-17 13:48:37.046875
2498,-20.59,2022-08-17 13:48:37.062500
2499,-13.33,2022-08-17 13:48:37.078125
2500,-5.98,2022-08-17 13:48:37.093750
2501,0.9,2022-08-17 13:48:37.109375
2502,7.02,2022-08-17 13:48:37.125000
2503,12.34,2022-08-17 13:48:37.140625
2504,16.85,2022-08-17 13:48:37.156250
2505,20.6,2022-08-17 13:48:37.171875
2506,23.5,2022-08-17 13:48:37.187500
2507,25.49,2022-08-17 13:48:37.203125
2508,26.5,2022-08-17 13:48:37.218750
2509,26.61,2022-08-17 13:48:37.234375
2510,26.02,2022-08-17 13:48:37.250000
2511,24.99,2022-08-17 13:48:37.265625
2512,23.73,2022-08-17 13:48:37.281250
2513,22.36,2022-08-17 13:48:37.296875
2514,20.89,2022-08-17 13:48:37.312500
2515,19.31,2022-08-17 13:48:37.328125
2516,17.63,2022-08-17 13:48:37.343750
2517,15.94,2022-08-17 13:48:37.359375
2518,14.33,2022-08-17 13:48:37.375000
2519,12.91,2022-08-17 13:48:37.390625
2520,11.61,2022-08-17 13:48:37.406250
2521,10.32,2022-08-17 13:48:37.421875
2522,8.87,2022-08-17 13:48:37.437500
2523,7.19,2022-08-17 13:48:37.453125
2524,5.35,2022-08-17 13:48:37.468750
2525,3.51,2022-08-17 13:48:37.484375
2526,1.9,2022-08-17 13:48:37.500000
2527,0.65,2022-08-17 13:48:37.515625
2528,-0.28,2022-08-17 13:48:37.531250
2529,-1.1,2022-08-17 13:48:37.546875
2530,-2.07,2022-08-17 13:48:37.562500
2531,-3.37,2022-08-17 13:48:37.578125
2532,-5.08,2022-08-17 13:48:37.593750
2533,-7.16,2022-08-17 13:48:37.609375
2534,-9.43,2022-08-17 13:48:37.625000
2535,-11.71,2022-08-17 13:48:37.640625
2536,-13.92,2022-08-17 13:48:37.656250
2537,-16.06,2022-08-17 13:48:37.671875
2538,-18.28,2022-08-17 13:48:37.687500
2539,-20.81,2022-08-17 13:48:37.703125
2540,-23.85,2022-08-17 13:48:37.718750
2541,-27.5,2022-08-17 13:48:37.734375
2542,-31.64,2022-08-17 13:48:37.750000
2543,-35.84,2022-08-17 13:48:37.765625
2544,-39.42,2022-08-17 13:48:37.781250
2545,-41.6,2022-08-17 13:48:37.796875
2546,-41.74,2022-08-17 13:48:37.812500
2547,-39.51,2022-08-17 13:48:37.828125
2548,-35.02,2022-08-17 13:48:37.843750
2549,-28.7,2022-08-17 13:48:37.859375
2550,-21.18,2022-08-17 13:48:37.875000
2551,-13.03,2022-08-17 13:48:37.890625
2552,-4.73,2022-08-17 13:48:37.906250
2553,3.42,2022-08-17 13:48:37.921875
2554,11.12,2022-08-17 13:48:37.937500
2555,18.09,2022-08-17 13:48:37.953125
2556,24.0,2022-08-17 13:48:37.968750
2557,28.56,2022-08-17 13:48:37.984375
2558,31.6,2022-08-17 13:48:38.000000
2559,33.12,2022-08-17 13:48:38.015625
2560,33.35,2022-08-17 13:48:38.031250
2561,32.62,2022-08-17 13:48:38.046875
2562,31.32,2022-08-17 13:48:38.062500
2563,29.73,2022-08-17 13:48:38.078125
2564,28.07,2022-08-17 13:48:38.093750
2565,26.45,2022-08-17 13:48:38.109375
2566,24.9,2022-08-17 13:48:38.125000
2567,23.4,2022-08-17 13:48:38.140625
2568,21.9,2022-08-17 13:48:38.156250
2569,20.34,2022-08-17 13:48:38.171875
2570,18.68,2022-08-17 13:48:38.187500
2571,16.88,2022-08-17 13:48:38.203125
2572,14.96,2022-08-17 13:48:38.218750
2573,12.98,2022-08-17 13:48:38.234375
2574,11.03,2022-08-17 13:48:38.250000
2575,9.22,2022-08-17 13:48:38.265625
2576,7.62,2022-08-17 13:48:38.281250
2577,6.22,2022-08-17 13:48:38.296875
2578,4.99,2022-08-17 13:48:38.312500
2579,3.85,2022-08-17 13:48:38.328125
2580,2.72,2022-08-17 13:48:38.343750
2581,1.5,2022-08-17 13:48:38.359375
2582,0.06,2022-08-17 13:48:38.375000
2583,-1.7,2022-08-17 13:48:38.390625
2584,-3.86,2022-08-17 13:48:38.406250
2585,-6.37,2022-08-17 13:48:38.421875
2586,-9.06,2022-08-17 13:48:38.437500
2587,-11.71,2022-08-17 13:48:38.453125
2588,-14.09,2022-08-17 13:48:38.468750
2589,-16.15,2022-08-17 13:48:38.484375
2590,-18.0,2022-08-17 13:48:38.500000
2591,-19.9,2022-08-17 13:48:38.515625
2592,-22.16,2022-08-17 13:48:38.531250
2593,-24.96,2022-08-17 13:48:38.546875
2594,-28.26,2022-08-17 13:48:38.562500
2595,-31.77,2022-08-17 13:48:38.578125
2596,-34.94,2022-08-17 13:48:38.593750
2597,-37.18,2022-08-17 13:48:38.609375
2598,-37.92,2022-08-17 13:48:38.625000
2599,-36.75,2022-08-17 13:48:38.640625
2600,-33.56,2022-08-17 13:48:38.656250
2601,-28.49,2022-08-17 13:48:38.671875
2602,-21.94,2022-08-17 13:48:38.687500
2603,-14.47,2022-08-17 13:48:38.703125
2604,-6.71,2022-08-17 13:48:38.718750
2605,0.83,2022-08-17 13:48:38.734375
2606,7.68,2022-08-17 13:48:38.750000
2607,13.58,2022-08-17 13:48:38.765625
2608,18.41,2022-08-17 13:48:38.781250
2609,22.16,2022-08-17 13:48:38.796875
2610,24.91,2022-08-17 13:48:38.812500
2611,26.71,2022-08-17 13:48:38.828125
2612,27.65,2022-08-17 13:48:38.843750
2613,27.81,2022-08-17 13:48:38.859375
2614,27.29,2022-08-17 13:48:38.875000
2615,26.27,2022-08-17 13:48:38.890625
2616,24.99,2022-08-17 13:48:38.906250
2617,23.67,2022-08-17 13:48:38.921875
2618,22.5,2022-08-17 13:48:38.937500
2619,21.57,2022-08-17 13:48:38.953125
2620,20.89,2022-08-17 13:48:38.968750
2621,20.42,2022-08-17 13:48:38.984375
2622,20.03,2022-08-17 13:48:39.000000
2623,19.6,2022-08-17 13:48:39.015625
2624,18.97,2022-08-17 13:48:39.031250
2625,18.03,2022-08-17 13:48:39.046875
2626,16.69,2022-08-17 13:48:39.062500
2627,14.94,2022-08-17 13:48:39.078125
2628,12.84,2022-08-17 13:48:39.093750
2629,10.47,2022-08-17 13:48:39.109375
2630,7.94,2022-08-17 13:48:39.125000
2631,5.38,2022-08-17 13:48:39.140625
2632,2.9,2022-08-17 13:48:39.156250
2633,0.57,2022-08-17 13:48:39.171875
2634,-1.57,2022-08-17 13:48:39.187500
2635,-3.55,2022-08-17 13:48:39.203125
2636,-5.48,2022-08-17 13:48:39.218750
2637,-7.51,2022-08-17 13:48:39.234375
2638,-9.74,2022-08-17 13:48:39.250000
2639,-12.2,2022-08-17 13:48:39.265625
2640,-14.81,2022-08-17 13:48:39.281250
2641,-17.41,2022-08-17 13:48:39.296875
2642,-19.9,2022-08-17 13:48:39.312500
2643,-22.27,2022-08-17 13:48:39.328125
2644,-24.64,2022-08-17 13:48:39.343750
2645,-27.16,2022-08-17 13:48:39.359375
2646,-29.9,2022-08-17 13:48:39.375000
2647,-32.71,2022-08-17 13:48:39.390625
2648,-35.22,2022-08-17 13:48:39.406250
2649,-36.86,2022-08-17 13:48:39.421875
2650,-37.05,2022-08-17 13:48:39.437500
2651,-35.33,2022-08-17 13:48:39.453125
2652,-31.52,2022-08-17 13:48:39.468750
2653,-25.82,2022-08-17 13:48:39.484375
2654,-18.69,2022-08-17 13:48:39.500000
2655,-10.79,2022-08-17 13:48:39.515625
2656,-2.8,2022-08-17 13:48:39.531250
2657,4.65,2022-08-17 13:48:39.546875
2658,11.17,2022-08-17 13:48:39.562500
2659,16.5,2022-08-17 13:48:39.578125
2660,20.58,2022-08-17 13:48:39.593750
2661,23.47,2022-08-17 13:48:39.609375
2662,25.28,2022-08-17 13:48:39.625000
2663,26.23,2022-08-17 13:48:39.640625
2664,26.48,2022-08-17 13:48:39.656250
2665,26.19,2022-08-17 13:48:39.671875
2666,25.48,2022-08-17 13:48:39.687500
2667,24.42,2022-08-17 13:48:39.703125
2668,23.09,2022-08-17 13:48:39.718750
2669,21.59,2022-08-17 13:48:39.734375
2670,20.08,2022-08-17 13:48:39.750000
2671,18.67,2022-08-17 13:48:39.765625
2672,17.47,2022-08-17 13:48:39.781250
2673,16.45,2022-08-17 13:48:39.796875
2674,15.5,2022-08-17 13:48:39.812500
2675,14.51,2022-08-17 13:48:39.828125
2676,13.36,2022-08-17 13:48:39.843750
2677,12.06,2022-08-17 13:48:39.859375
2678,10.65,2022-08-17 13:48:39.875000
2679,9.16,2022-08-17 13:48:39.890625
2680,7.54,2022-08-17 13:48:39.906250
2681,5.79,2022-08-17 13:48:39.921875
2682,3.86,2022-08-17 13:48:39.937500
2683,1.8,2022-08-17 13:48:39.953125
2684,-0.29,2022-08-17 13:48:39.968750
2685,-2.31,2022-08-17 13:48:39.984375
2686,-4.2,2022-08-17 13:48:40.000000
2687,-5.99,2022-08-17 13:48:40.015625
2688,-7.74,2022-08-17 13:48:40.031250
2689,-9.49,2022-08-17 13:48:40.046875
2690,-11.22,2022-08-17 13:48:40.062500
2691,-12.91,2022-08-17 13:48:40.078125
2692,-14.56,2022-08-17 13:48:40.093750
2693,-16.2,2022-08-17 13:48:40.109375
2694,-18.03,2022-08-17 13:48:40.125000
2695,-20.24,2022-08-17 13:48:40.140625
2696,-22.98,2022-08-17 13:48:40.156250
2697,-26.28,2022-08-17 13:48:40.171875
2698,-29.96,2022-08-17 13:48:40.187500
2699,-33.6,2022-08-17 13:48:40.203125
2700,-36.6,2022-08-17 13:48:40.218750
2701,-38.27,2022-08-17 13:48:40.234375
2702,-38.07,2022-08-17 13:48:40.250000
2703,-35.71,2022-08-17 13:48:40.265625
2704,-31.29,2022-08-17 13:48:40.281250
2705,-25.27,2022-08-17 13:48:40.296875
2706,-18.31,2022-08-17 13:48:40.312500
2707,-11.04,2022-08-17 13:48:40.328125
2708,-3.97,2022-08-17 13:48:40.343750
2709,2.58,2022-08-17 13:48:40.359375
2710,8.46,2022-08-17 13:48:40.375000
2711,13.53,2022-08-17 13:48:40.390625
2712,17.68,2022-08-17 13:48:40.406250
2713,20.74,2022-08-17 13:48:40.421875
2714,22.61,2022-08-17 13:48:40.437500
2715,23.27,2022-08-17 13:48:40.453125
2716,22.86,2022-08-17 13:48:40.468750
2717,21.61,2022-08-17 13:48:40.484375
2718,19.85,2022-08-17 13:48:40.500000
2719,17.94,2022-08-17 13:48:40.515625
2720,16.15,2022-08-17 13:48:40.531250
2721,14.72,2022-08-17 13:48:40.546875
2722,13.74,2022-08-17 13:48:40.562500
2723,13.17,2022-08-17 13:48:40.578125
2724,12.87,2022-08-17 13:48:40.593750
2725,12.73,2022-08-17 13:48:40.609375
2726,12.6,2022-08-17 13:48:40.625000
2727,12.46,2022-08-17 13:48:40.640625
2728,12.29,2022-08-17 13:48:40.656250
2729,12.01,2022-08-17 13:48:40.671875
2730,11.54,2022-08-17 13:48:40.687500
2731,10.68,2022-08-17 13:48:40.703125
2732,9.27,2022-08-17 13:48:40.718750
2733,7.26,2022-08-17 13:48:40.734375
2734,4.69,2022-08-17 13:48:40.750000
2735,1.78,2022-08-17 13:48:40.765625
2736,-1.27,2022-08-17 13:48:40.781250
2737,-4.3,2022-08-17 13:48:40.796875
2738,-7.24,2022-08-17 13:48:40.812500
2739,-10.14,2022-08-17 13:48:40.828125
2740,-13.07,2022-08-17 13:48:40.843750
2741,-16.04,2022-08-17 13:48:40.859375
2742,-19.01,2022-08-17 13:48:40.875000
2743,-21.91,2022-08-17 13:48:40.890625
2744,-24.77,2022-08-17 13:48:40.906250
2745,-27.72,2022-08-17 13:48:40.921875
2746,-30.93,2022-08-17 13:48:40.937500
2747,-34.45,2022-08-17 13:48:40.953125
2748,-38.08,2022-08-17 13:48:40.968750
2749,-41.34,2022-08-17 13:48:40.984375
2750,-43.48,2022-08-17 13:48:41.000000
2751,-43.79,2022-08-17 13:48:41.015625
2752,-41.77,2022-08-17 13:48:41.031250
2753,-37.4,2022-08-17 13:48:41.046875
2754,-31.03,2022-08-17 13:48:41.062500
2755,-23.37,2022-08-17 13:48:41.078125
2756,-15.23,2022-08-17 13:48:41.093750
2757,-7.33,2022-08-17 13:48:41.109375
2758,-0.25,2022-08-17 13:48:41.125000
2759,5.71,2022-08-17 13:48:41.140625
2760,10.42,2022-08-17 13:48:41.156250
2761,13.95,2022-08-17 13:48:41.171875
2762,16.48,2022-08-17 13:48:41.187500
2763,18.2,2022-08-17 13:48:41.203125
2764,19.2,2022-08-17 13:48:41.218750
2765,19.48,2022-08-17 13:48:41.234375
2766,18.89,2022-08-17 13:48:41.250000
2767,17.32,2022-08-17 13:48:41.265625
2768,14.74,2022-08-17 13:48:41.281250
2769,11.37,2022-08-17 13:48:41.296875
2770,7.66,2022-08-17 13:48:41.312500
2771,4.19,2022-08-17 13:48:41.328125
2772,1.55,2022-08-17 13:48:41.343750
2773,0.15,2022-08-17 13:48:41.359375
2774,0.13,2022-08-17 13:48:41.375000
2775,1.3,2022-08-17 13:48:41.390625
2776,3.22,2022-08-17 13:48:41.406250
2777,5.27,2022-08-17 13:48:41.421875
2778,6.72,2022-08-17 13:48:41.437500
2779,7.03,2022-08-17 13:48:41.453125
2780,6.05,2022-08-17 13:48:41.468750
2781,4.24,2022-08-17 13:48:41.484375
2782,2.68,2022-08-17 13:48:41.500000
2783,2.74,2022-08-17 13:48:41.515625
2784,5.64,2022-08-17 13:48:41.531250
2785,11.88,2022-08-17 13:48:41.546875
2786,20.9,2022-08-17 13:48:41.562500
2787,31.2,2022-08-17 13:48:41.578125
2788,40.73,2022-08-17 13:48:41.593750
2789,47.45,2022-08-17 13:48:41.609375
2790,49.95,2022-08-17 13:48:41.625000
2791,47.63,2022-08-17 13:48:41.640625
2792,40.72,2022-08-17 13:48:41.656250
2793,30.13,2022-08-17 13:48:41.671875
2794,17.13,2022-08-17 13:48:41.687500
2795,3.16,2022-08-17 13:48:41.703125
2796,-10.36,2022-08-17 13:48:41.718750
2797,-22.15,2022-08-17 13:48:41.734375
2798,-31.19,2022-08-17 13:48:41.750000
2799,-36.78,2022-08-17 13:48:41.765625
2800,-38.59,2022-08-17 13:48:41.781250
2801,-36.61,2022-08-17 13:48:41.796875
2802,-31.14,2022-08-17 13:48:41.812500
2803,-22.74,2022-08-17 13:48:41.828125
2804,-12.1,2022-08-17 13:48:41.843750
2805,-0.03,2022-08-17 13:48:41.859375
2806,12.68,2022-08-17 13:48:41.875000
2807,25.18,2022-08-17 13:48:41.890625
2808,36.59,2022-08-17 13:48:41.906250
2809,45.97,2022-08-17 13:48:41.921875
2810,52.4,2022-08-17 13:48:41.937500
2811,55.06,2022-08-17 13:48:41.953125
2812,53.35,2022-08-17 13:48:41.968750
2813,47.18,2022-08-17 13:48:41.984375
2814,37.05,2022-08-17 13:48:42.000000
2815,24.08,2022-08-17 13:48:42.015625
2816,9.72,2022-08-17 13:48:42.031250
2817,-4.55,2022-08-17 13:48:42.046875
2818,-17.62,2022-08-17 13:48:42.062500
2819,-28.84,2022-08-17 13:48:42.078125
2820,-38.05,2022-08-17 13:48:42.093750
2821,-45.49,2022-08-17 13:48:42.109375
2822,-51.44,2022-08-17 13:48:42.125000
2823,-56.26,2022-08-17 13:48:42.140625
2824,-60.25,2022-08-17 13:48:42.156250
2825,-63.74,2022-08-17 13:48:42.171875
2826,-66.94,2022-08-17 13:48:42.187500
2827,-69.88,2022-08-17 13:48:42.203125
2828,-72.32,2022-08-17 13:48:42.218750
2829,-73.76,2022-08-17 13:48:42.234375
2830,-73.58,2022-08-17 13:48:42.250000
2831,-71.36,2022-08-17 13:48:42.265625
2832,-67.15,2022-08-17 13:48:42.281250
2833,-61.48,2022-08-17 13:48:42.296875
2834,-55.22,2022-08-17 13:48:42.312500
2835,-49.2,2022-08-17 13:48:42.328125
2836,-43.91,2022-08-17 13:48:42.343750
2837,-39.4,2022-08-17 13:48:42.359375
2838,-35.4,2022-08-17 13:48:42.375000
2839,-31.46,2022-08-17 13:48:42.390625
2840,-27.18,2022-08-17 13:48:42.406250
2841,-22.3,2022-08-17 13:48:42.421875
2842,-16.67,2022-08-17 13:48:42.437500
2843,-10.33,2022-08-17 13:48:42.453125
2844,-3.48,2022-08-17 13:48:42.468750
2845,3.35,2022-08-17 13:48:42.484375
2846,9.5,2022-08-17 13:48:42.500000
2847,14.27,2022-08-17 13:48:42.515625
2848,17.47,2022-08-17 13:48:42.531250
2849,19.48,2022-08-17 13:48:42.546875
2850,21.34,2022-08-17 13:48:42.562500
2851,24.3,2022-08-17 13:48:42.578125
2852,29.35,2022-08-17 13:48:42.593750
2853,36.74,2022-08-17 13:48:42.609375
2854,45.83,2022-08-17 13:48:42.625000
2855,55.4,2022-08-17 13:48:42.640625
2856,64.08,2022-08-17 13:48:42.656250
2857,70.86,2022-08-17 13:48:42.671875
2858,75.25,2022-08-17 13:48:42.687500
2859,77.31,2022-08-17 13:48:42.703125
2860,77.49,2022-08-17 13:48:42.718750
2861,76.27,2022-08-17 13:48:42.734375
2862,74.07,2022-08-17 13:48:42.750000
2863,71.13,2022-08-17 13:48:42.765625
2864,67.64,2022-08-17 13:48:42.781250
2865,63.77,2022-08-17 13:48:42.796875
2866,59.83,2022-08-17 13:48:42.812500
2867,56.12,2022-08-17 13:48:42.828125
2868,52.88,2022-08-17 13:48:42.843750
2869,50.17,2022-08-17 13:48:42.859375
2870,47.72,2022-08-17 13:48:42.875000
2871,45.18,2022-08-17 13:48:42.890625
2872,42.16,2022-08-17 13:48:42.906250
2873,38.56,2022-08-17 13:48:42.921875
2874,34.52,2022-08-17 13:48:42.937500
2875,30.44,2022-08-17 13:48:42.953125
2876,26.72,2022-08-17 13:48:42.968750
2877,23.51,2022-08-17 13:48:42.984375
2878,20.7,2022-08-17 13:48:43.000000
2879,17.93,2022-08-17 13:48:43.015625
2880,14.77,2022-08-17 13:48:43.031250
2881,10.99,2022-08-17 13:48:43.046875
2882,6.65,2022-08-17 13:48:43.062500
2883,2.01,2022-08-17 13:48:43.078125
2884,-2.5,2022-08-17 13:48:43.093750
2885,-6.54,2022-08-17 13:48:43.109375
2886,-9.96,2022-08-17 13:48:43.125000
2887,-12.77,2022-08-17 13:48:43.140625
2888,-15.11,2022-08-17 13:48:43.156250
2889,-17.2,2022-08-17 13:48:43.171875
2890,-19.29,2022-08-17 13:48:43.187500
2891,-21.57,2022-08-17 13:48:43.203125
2892,-24.22,2022-08-17 13:48:43.218750
2893,-27.33,2022-08-17 13:48:43.234375
2894,-30.85,2022-08-17 13:48:43.250000
2895,-34.55,2022-08-17 13:48:43.265625
2896,-38.0,2022-08-17 13:48:43.281250
2897,-40.61,2022-08-17 13:48:43.296875
2898,-41.77,2022-08-17 13:48:43.312500
2899,-41.03,2022-08-17 13:48:43.328125
2900,-38.19,2022-08-17 13:48:43.343750
2901,-33.39,2022-08-17 13:48:43.359375
2902,-27.04,2022-08-17 13:48:43.375000
2903,-19.78,2022-08-17 13:48:43.390625
2904,-12.26,2022-08-17 13:48:43.406250
2905,-5.04,2022-08-17 13:48:43.421875
2906,1.47,2022-08-17 13:48:43.437500
2907,7.07,2022-08-17 13:48:43.453125
2908,11.71,2022-08-17 13:48:43.468750
2909,15.35,2022-08-17 13:48:43.484375
2910,18.01,2022-08-17 13:48:43.500000
2911,19.7,2022-08-17 13:48:43.515625
2912,20.44,2022-08-17 13:48:43.531250
2913,20.36,2022-08-17 13:48:43.546875
2914,19.68,2022-08-17 13:48:43.562500
2915,18.64,2022-08-17 13:48:43.578125
2916,17.43,2022-08-17 13:48:43.593750
2917,16.19,2022-08-17 13:48:43.609375
2918,14.93,2022-08-17 13:48:43.625000
2919,13.64,2022-08-17 13:48:43.640625
2920,12.36,2022-08-17 13:48:43.656250
2921,11.14,2022-08-17 13:48:43.671875
2922,10.06,2022-08-17 13:48:43.687500
2923,9.18,2022-08-17 13:48:43.703125
2924,8.46,2022-08-17 13:48:43.718750
2925,7.74,2022-08-17 13:48:43.734375
2926,6.89,2022-08-17 13:48:43.750000
2927,5.77,2022-08-17 13:48:43.765625
2928,4.34,2022-08-17 13:48:43.781250
2929,2.62,2022-08-17 13:48:43.796875
2930,0.61,2022-08-17 13:48:43.812500
2931,-1.64,2022-08-17 13:48:43.828125
2932,-4.08,2022-08-17 13:48:43.843750
2933,-6.62,2022-08-17 13:48:43.859375
2934,-9.06,2022-08-17 13:48:43.875000
2935,-11.23,2022-08-17 13:48:43.890625
2936,-13.05,2022-08-17 13:48:43.906250
2937,-14.55,2022-08-17 13:48:43.921875
2938,-15.97,2022-08-17 13:48:43.937500
2939,-17.59,2022-08-17 13:48:43.953125
2940,-19.78,2022-08-17 13:48:43.968750
2941,-22.8,2022-08-17 13:48:43.984375
2942,-26.75,2022-08-17 13:48:44.000000
2943,-31.43,2022-08-17 13:48:44.015625
2944,-36.36,2022-08-17 13:48:44.031250
2945,-40.81,2022-08-17 13:48:44.046875
2946,-43.99,2022-08-17 13:48:44.062500
2947,-45.21,2022-08-17 13:48:44.078125
2948,-44.12,2022-08-17 13:48:44.093750
2949,-40.72,2022-08-17 13:48:44.109375
2950,-35.35,2022-08-17 13:48:44.125000
2951,-28.57,2022-08-17 13:48:44.140625
2952,-20.95,2022-08-17 13:48:44.156250
2953,-13.02,2022-08-17 13:48:44.171875
2954,-5.23,2022-08-17 13:48:44.187500
2955,2.03,2022-08-17 13:48:44.203125
2956,8.48,2022-08-17 13:48:44.218750
2957,13.96,2022-08-17 13:48:44.234375
2958,18.42,2022-08-17 13:48:44.250000
2959,21.9,2022-08-17 13:48:44.265625
2960,24.49,2022-08-17 13:48:44.281250
2961,26.23,2022-08-17 13:48:44.296875
2962,27.11,2022-08-17 13:48:44.312500
2963,27.18,2022-08-17 13:48:44.328125
2964,26.54,2022-08-17 13:48:44.343750
2965,25.4,2022-08-17 13:48:44.359375
2966,23.99,2022-08-17 13:48:44.375000
2967,22.53,2022-08-17 13:48:44.390625
2968,21.22,2022-08-17 13:48:44.406250
2969,20.14,2022-08-17 13:48:44.421875
2970,19.28,2022-08-17 13:48:44.437500
2971,18.57,2022-08-17 13:48:44.453125
2972,17.94,2022-08-17 13:48:44.468750
2973,17.26,2022-08-17 13:48:44.484375
2974,16.4,2022-08-17 13:48:44.500000
2975,15.24,2022-08-17 13:48:44.515625
2976,13.68,2022-08-17 13:48:44.531250
2977,11.68,2022-08-17 13:48:44.546875
2978,9.25,2022-08-17 13:48:44.562500
2979,6.46,2022-08-17 13:48:44.578125
2980,3.42,2022-08-17 13:48:44.593750
2981,0.26,2022-08-17 13:48:44.609375
2982,-2.85,2022-08-17 13:48:44.625000
2983,-5.77,2022-08-17 13:48:44.640625
2984,-8.45,2022-08-17 13:48:44.656250
2985,-10.88,2022-08-17 13:48:44.671875
2986,-13.12,2022-08-17 13:48:44.687500
2987,-15.22,2022-08-17 13:48:44.703125
2988,-17.25,2022-08-17 13:48:44.718750
2989,-19.23,2022-08-17 13:48:44.734375
2990,-21.22,2022-08-17 13:48:44.750000
2991,-23.4,2022-08-17 13:48:44.765625
2992,-25.97,2022-08-17 13:48:44.781250
2993,-29.19,2022-08-17 13:48:44.796875
2994,-33.1,2022-08-17 13:48:44.812500
2995,-37.4,2022-08-17 13:48:44.828125
2996,-41.47,2022-08-17 13:48:44.843750
2997,-44.43,2022-08-17 13:48:44.859375
2998,-45.41,2022-08-17 13:48:44.875000
2999,-43.81,2022-08-17 13:48:44.890625
3000,-39.53,2022-08-17 13:48:44.906250
3001,-32.91,2022-08-17 13:48:44.921875
3002,-24.65,2022-08-17 13:48:44.937500
3003,-15.56,2022-08-17 13:48:44.953125
3004,-6.45,2022-08-17 13:48:44.968750
3005,2.1,2022-08-17 13:48:44.984375
3006,9.69,2022-08-17 13:48:45.000000
3007,16.14,2022-08-17 13:48:45.015625
3008,21.41,2022-08-17 13:48:45.031250
3009,25.56,2022-08-17 13:48:45.046875
3010,28.68,2022-08-17 13:48:45.062500
3011,30.87,2022-08-17 13:48:45.078125
3012,32.21,2022-08-17 13:48:45.093750
3013,32.7,2022-08-17 13:48:45.109375
3014,32.39,2022-08-17 13:48:45.125000
3015,31.36,2022-08-17 13:48:45.140625
3016,29.77,2022-08-17 13:48:45.156250
3017,27.85,2022-08-17 13:48:45.171875
3018,25.83,2022-08-17 13:48:45.187500
3019,23.9,2022-08-17 13:48:45.203125
3020,22.14,2022-08-17 13:48:45.218750
3021,20.6,2022-08-17 13:48:45.234375
3022,19.26,2022-08-17 13:48:45.250000
3023,18.11,2022-08-17 13:48:45.265625
3024,17.12,2022-08-17 13:48:45.281250
3025,16.3,2022-08-17 13:48:45.296875
3026,15.55,2022-08-17 13:48:45.312500
3027,14.77,2022-08-17 13:48:45.328125
3028,13.85,2022-08-17 13:48:45.343750
3029,12.67,2022-08-17 13:48:45.359375
3030,11.17,2022-08-17 13:48:45.375000
3031,9.28,2022-08-17 13:48:45.390625
3032,6.96,2022-08-17 13:48:45.406250
3033,4.24,2022-08-17 13:48:45.421875
3034,1.16,2022-08-17 13:48:45.437500
3035,-2.08,2022-08-17 13:48:45.453125
3036,-5.28,2022-08-17 13:48:45.468750
3037,-8.22,2022-08-17 13:48:45.484375
3038,-10.77,2022-08-17 13:48:45.500000
3039,-12.92,2022-08-17 13:48:45.515625
3040,-14.79,2022-08-17 13:48:45.531250
3041,-16.58,2022-08-17 13:48:45.546875
3042,-18.47,2022-08-17 13:48:45.562500
3043,-20.66,2022-08-17 13:48:45.578125
3044,-23.28,2022-08-17 13:48:45.593750
3045,-26.39,2022-08-17 13:48:45.609375
3046,-29.94,2022-08-17 13:48:45.625000
3047,-33.63,2022-08-17 13:48:45.640625
3048,-36.87,2022-08-17 13:48:45.656250
3049,-38.91,2022-08-17 13:48:45.671875
3050,-38.92,2022-08-17 13:48:45.687500
3051,-36.37,2022-08-17 13:48:45.703125
3052,-31.21,2022-08-17 13:48:45.718750
3053,-23.8,2022-08-17 13:48:45.734375
3054,-14.93,2022-08-17 13:48:45.750000
3055,-5.48,2022-08-17 13:48:45.765625
3056,3.78,2022-08-17 13:48:45.781250
3057,12.33,2022-08-17 13:48:45.796875
3058,19.87,2022-08-17 13:48:45.812500
3059,26.27,2022-08-17 13:48:45.828125
3060,31.45,2022-08-17 13:48:45.843750
3061,35.29,2022-08-17 13:48:45.859375
3062,37.72,2022-08-17 13:48:45.875000
3063,38.64,2022-08-17 13:48:45.890625
3064,38.06,2022-08-17 13:48:45.906250
3065,36.13,2022-08-17 13:48:45.921875
3066,33.13,2022-08-17 13:48:45.937500
3067,29.43,2022-08-17 13:48:45.953125
3068,25.48,2022-08-17 13:48:45.968750
3069,21.67,2022-08-17 13:48:45.984375
3070,18.29,2022-08-17 13:48:46.000000
3071,15.51,2022-08-17 13:48:46.015625
3072,13.37,2022-08-17 13:48:46.031250
3073,11.81,2022-08-17 13:48:46.046875
3074,10.69,2022-08-17 13:48:46.062500
3075,9.77,2022-08-17 13:48:46.078125
3076,8.82,2022-08-17 13:48:46.093750
3077,7.61,2022-08-17 13:48:46.109375
3078,5.92,2022-08-17 13:48:46.125000
3079,3.69,2022-08-17 13:48:46.140625
3080,1.02,2022-08-17 13:48:46.156250
3081,-1.9,2022-08-17 13:48:46.171875
3082,-4.84,2022-08-17 13:48:46.187500
3083,-7.64,2022-08-17 13:48:46.203125
3084,-10.26,2022-08-17 13:48:46.218750
3085,-12.75,2022-08-17 13:48:46.234375
3086,-15.19,2022-08-17 13:48:46.250000
3087,-17.6,2022-08-17 13:48:46.265625
3088,-19.96,2022-08-17 13:48:46.281250
3089,-22.16,2022-08-17 13:48:46.296875
3090,-24.16,2022-08-17 13:48:46.312500
3091,-25.95,2022-08-17 13:48:46.328125
3092,-27.62,2022-08-17 13:48:46.343750
3093,-29.29,2022-08-17 13:48:46.359375
3094,-31.11,2022-08-17 13:48:46.375000
3095,-33.19,2022-08-17 13:48:46.390625
3096,-35.69,2022-08-17 13:48:46.406250
3097,-38.71,2022-08-17 13:48:46.421875
3098,-42.23,2022-08-17 13:48:46.437500
3099,-45.98,2022-08-17 13:48:46.453125
3100,-49.42,2022-08-17 13:48:46.468750
3101,-51.81,2022-08-17 13:48:46.484375
3102,-52.38,2022-08-17 13:48:46.500000
3103,-50.61,2022-08-17 13:48:46.515625
3104,-46.35,2022-08-17 13:48:46.531250
3105,-39.83,2022-08-17 13:48:46.546875
3106,-31.57,2022-08-17 13:48:46.562500
3107,-22.27,2022-08-17 13:48:46.578125
3108,-12.65,2022-08-17 13:48:46.593750
3109,-3.39,2022-08-17 13:48:46.609375
3110,4.97,2022-08-17 13:48:46.625000
3111,12.02,2022-08-17 13:48:46.640625
3112,17.59,2022-08-17 13:48:46.656250
3113,21.71,2022-08-17 13:48:46.671875
3114,24.59,2022-08-17 13:48:46.687500
3115,26.47,2022-08-17 13:48:46.703125
3116,27.54,2022-08-17 13:48:46.718750
3117,27.87,2022-08-17 13:48:46.734375
3118,27.49,2022-08-17 13:48:46.750000
3119,26.51,2022-08-17 13:48:46.765625
3120,25.13,2022-08-17 13:48:46.781250
3121,23.7,2022-08-17 13:48:46.796875
3122,22.53,2022-08-17 13:48:46.812500
3123,21.76,2022-08-17 13:48:46.828125
3124,21.33,2022-08-17 13:48:46.843750
3125,21.04,2022-08-17 13:48:46.859375
3126,20.65,2022-08-17 13:48:46.875000
3127,20.03,2022-08-17 13:48:46.890625
3128,19.18,2022-08-17 13:48:46.906250
3129,18.18,2022-08-17 13:48:46.921875
3130,17.06,2022-08-17 13:48:46.937500
3131,15.76,2022-08-17 13:48:46.953125
3132,14.13,2022-08-17 13:48:46.968750
3133,11.93,2022-08-17 13:48:46.984375
3134,9.09,2022-08-17 13:48:47.000000
3135,5.62,2022-08-17 13:48:47.015625
3136,1.72,2022-08-17 13:48:47.031250
3137,-2.3,2022-08-17 13:48:47.046875
3138,-6.11,2022-08-17 13:48:47.062500
3139,-9.5,2022-08-17 13:48:47.078125
3140,-12.41,2022-08-17 13:48:47.093750
3141,-14.95,2022-08-17 13:48:47.109375
3142,-17.33,2022-08-17 13:48:47.125000
3143,-19.76,2022-08-17 13:48:47.140625
3144,-22.46,2022-08-17 13:48:47.156250
3145,-25.62,2022-08-17 13:48:47.171875
3146,-29.45,2022-08-17 13:48:47.187500
3147,-34.02,2022-08-17 13:48:47.203125
3148,-39.15,2022-08-17 13:48:47.218750
3149,-44.29,2022-08-17 13:48:47.234375
3150,-48.64,2022-08-17 13:48:47.250000
3151,-51.39,2022-08-17 13:48:47.265625
3152,-52.12,2022-08-17 13:48:47.281250
3153,-50.94,2022-08-17 13:48:47.296875
3154,-48.37,2022-08-17 13:48:47.312500
3155,-44.95,2022-08-17 13:48:47.328125
3156,-40.88,2022-08-17 13:48:47.343750
3157,-35.91,2022-08-17 13:48:47.359375
3158,-29.61,2022-08-17 13:48:47.375000
3159,-21.75,2022-08-17 13:48:47.390625
3160,-12.63,2022-08-17 13:48:47.406250
3161,-2.99,2022-08-17 13:48:47.421875
3162,6.27,2022-08-17 13:48:47.437500
3163,14.55,2022-08-17 13:48:47.453125
3164,21.75,2022-08-17 13:48:47.468750
3165,28.08,2022-08-17 13:48:47.484375
3166,33.83,2022-08-17 13:48:47.500000
3167,38.99,2022-08-17 13:48:47.515625
3168,43.22,2022-08-17 13:48:47.531250
3169,46.01,2022-08-17 13:48:47.546875
3170,46.97,2022-08-17 13:48:47.562500
3171,46.04,2022-08-17 13:48:47.578125
3172,43.56,2022-08-17 13:48:47.593750
3173,40.19,2022-08-17 13:48:47.609375
