,BVP,time
0,-34.67,2022-08-17 14:23:34.812500
1,-41.03,2022-08-17 14:23:34.828125
2,-46.22,2022-08-17 14:23:34.843750
3,-49.77,2022-08-17 14:23:34.859375
4,-51.12,2022-08-17 14:23:34.875000
5,-49.82,2022-08-17 14:23:34.890625
6,-45.61,2022-08-17 14:23:34.906250
7,-38.43,2022-08-17 14:23:34.921875
8,-28.44,2022-08-17 14:23:34.937500
9,-16.12,2022-08-17 14:23:34.953125
10,-2.36,2022-08-17 14:23:34.968750
11,11.49,2022-08-17 14:23:34.984375
12,23.83,2022-08-17 14:23:35.000000
13,33.31,2022-08-17 14:23:35.015625
14,39.24,2022-08-17 14:23:35.031250
15,41.79,2022-08-17 14:23:35.046875
16,41.96,2022-08-17 14:23:35.062500
17,41.01,2022-08-17 14:23:35.078125
18,40.05,2022-08-17 14:23:35.093750
19,39.7,2022-08-17 14:23:35.109375
20,40.0,2022-08-17 14:23:35.125000
21,40.57,2022-08-17 14:23:35.140625
22,40.86,2022-08-17 14:23:35.156250
23,40.34,2022-08-17 14:23:35.171875
24,38.67,2022-08-17 14:23:35.187500
25,35.8,2022-08-17 14:23:35.203125
26,32.06,2022-08-17 14:23:35.218750
27,28.03,2022-08-17 14:23:35.234375
28,24.45,2022-08-17 14:23:35.250000
29,21.91,2022-08-17 14:23:35.265625
30,20.63,2022-08-17 14:23:35.281250
31,20.48,2022-08-17 14:23:35.296875
32,21.03,2022-08-17 14:23:35.312500
33,21.77,2022-08-17 14:23:35.328125
34,22.33,2022-08-17 14:23:35.343750
35,22.5,2022-08-17 14:23:35.359375
36,22.27,2022-08-17 14:23:35.375000
37,21.76,2022-08-17 14:23:35.390625
38,21.13,2022-08-17 14:23:35.406250
39,20.54,2022-08-17 14:23:35.421875
40,20.1,2022-08-17 14:23:35.437500
41,19.9,2022-08-17 14:23:35.453125
42,19.96,2022-08-17 14:23:35.468750
43,20.29,2022-08-17 14:23:35.484375
44,20.9,2022-08-17 14:23:35.500000
45,21.75,2022-08-17 14:23:35.515625
46,22.8,2022-08-17 14:23:35.531250
47,23.9,2022-08-17 14:23:35.546875
48,24.85,2022-08-17 14:23:35.562500
49,25.46,2022-08-17 14:23:35.578125
50,25.62,2022-08-17 14:23:35.593750
51,25.33,2022-08-17 14:23:35.609375
52,24.72,2022-08-17 14:23:35.625000
53,23.96,2022-08-17 14:23:35.640625
54,23.24,2022-08-17 14:23:35.656250
55,22.66,2022-08-17 14:23:35.671875
56,22.36,2022-08-17 14:23:35.687500
57,22.45,2022-08-17 14:23:35.703125
58,23.11,2022-08-17 14:23:35.718750
59,24.51,2022-08-17 14:23:35.734375
60,26.64,2022-08-17 14:23:35.750000
61,29.33,2022-08-17 14:23:35.765625
62,32.12,2022-08-17 14:23:35.781250
63,34.45,2022-08-17 14:23:35.796875
64,35.78,2022-08-17 14:23:35.812500
65,35.75,2022-08-17 14:23:35.828125
66,34.23,2022-08-17 14:23:35.843750
67,31.42,2022-08-17 14:23:35.859375
68,27.66,2022-08-17 14:23:35.875000
69,23.45,2022-08-17 14:23:35.890625
70,19.26,2022-08-17 14:23:35.906250
71,15.39,2022-08-17 14:23:35.921875
72,11.95,2022-08-17 14:23:35.937500
73,8.79,2022-08-17 14:23:35.953125
74,5.61,2022-08-17 14:23:35.968750
75,2.05,2022-08-17 14:23:35.984375
76,-2.13,2022-08-17 14:23:36.000000
77,-7.01,2022-08-17 14:23:36.015625
78,-12.48,2022-08-17 14:23:36.031250
79,-18.35,2022-08-17 14:23:36.046875
80,-24.33,2022-08-17 14:23:36.062500
81,-30.06,2022-08-17 14:23:36.078125
82,-34.96,2022-08-17 14:23:36.093750
83,-38.17,2022-08-17 14:23:36.109375
84,-38.72,2022-08-17 14:23:36.125000
85,-35.82,2022-08-17 14:23:36.140625
86,-29.31,2022-08-17 14:23:36.156250
87,-19.93,2022-08-17 14:23:36.171875
88,-9.28,2022-08-17 14:23:36.187500
89,0.64,2022-08-17 14:23:36.203125
90,8.18,2022-08-17 14:23:36.218750
91,12.66,2022-08-17 14:23:36.234375
92,14.58,2022-08-17 14:23:36.250000
93,15.32,2022-08-17 14:23:36.265625
94,16.4,2022-08-17 14:23:36.281250
95,18.75,2022-08-17 14:23:36.296875
96,22.13,2022-08-17 14:23:36.312500
97,25.27,2022-08-17 14:23:36.328125
98,26.14,2022-08-17 14:23:36.343750
99,22.74,2022-08-17 14:23:36.359375
100,13.64,2022-08-17 14:23:36.375000
101,-1.74,2022-08-17 14:23:36.390625
102,-22.95,2022-08-17 14:23:36.406250
103,-48.7,2022-08-17 14:23:36.421875
104,-77.21,2022-08-17 14:23:36.437500
105,-106.55,2022-08-17 14:23:36.453125
106,-135.09,2022-08-17 14:23:36.468750
107,-161.96,2022-08-17 14:23:36.484375
108,-187.4,2022-08-17 14:23:36.500000
109,-212.75,2022-08-17 14:23:36.515625
110,-239.75,2022-08-17 14:23:36.531250
111,-269.43,2022-08-17 14:23:36.546875
112,-300.72,2022-08-17 14:23:36.562500
113,-329.84,2022-08-17 14:23:36.578125
114,-350.67,2022-08-17 14:23:36.593750
115,-356.6,2022-08-17 14:23:36.609375
116,-343.16,2022-08-17 14:23:36.625000
117,-310.32,2022-08-17 14:23:36.640625
118,-263.39,2022-08-17 14:23:36.656250
119,-211.52,2022-08-17 14:23:36.671875
120,-164.62,2022-08-17 14:23:36.687500
121,-129.62,2022-08-17 14:23:36.703125
122,-108.02,2022-08-17 14:23:36.718750
123,-95.93,2022-08-17 14:23:36.734375
124,-86.18,2022-08-17 14:23:36.750000
125,-71.77,2022-08-17 14:23:36.765625
126,-48.43,2022-08-17 14:23:36.781250
127,-15.72,2022-08-17 14:23:36.796875
128,23.67,2022-08-17 14:23:36.812500
129,65.34,2022-08-17 14:23:36.828125
130,104.5,2022-08-17 14:23:36.843750
131,136.74,2022-08-17 14:23:36.859375
132,158.39,2022-08-17 14:23:36.875000
133,166.81,2022-08-17 14:23:36.890625
134,161.03,2022-08-17 14:23:36.906250
135,142.57,2022-08-17 14:23:36.921875
136,115.59,2022-08-17 14:23:36.937500
137,86.11,2022-08-17 14:23:36.953125
138,60.34,2022-08-17 14:23:36.968750
139,42.76,2022-08-17 14:23:36.984375
140,34.89,2022-08-17 14:23:37.000000
141,35.29,2022-08-17 14:23:37.015625
142,40.73,2022-08-17 14:23:37.031250
143,47.78,2022-08-17 14:23:37.046875
144,54.13,2022-08-17 14:23:37.062500
145,59.12,2022-08-17 14:23:37.078125
146,63.53,2022-08-17 14:23:37.093750
147,68.92,2022-08-17 14:23:37.109375
148,76.99,2022-08-17 14:23:37.125000
149,89.0,2022-08-17 14:23:37.140625
150,105.51,2022-08-17 14:23:37.156250
151,126.31,2022-08-17 14:23:37.171875
152,150.27,2022-08-17 14:23:37.187500
153,175.55,2022-08-17 14:23:37.203125
154,199.84,2022-08-17 14:23:37.218750
155,220.93,2022-08-17 14:23:37.234375
156,237.23,2022-08-17 14:23:37.250000
157,248.03,2022-08-17 14:23:37.265625
158,253.43,2022-08-17 14:23:37.281250
159,253.92,2022-08-17 14:23:37.296875
160,249.94,2022-08-17 14:23:37.312500
161,241.75,2022-08-17 14:23:37.328125
162,229.48,2022-08-17 14:23:37.343750
163,213.38,2022-08-17 14:23:37.359375
164,193.95,2022-08-17 14:23:37.375000
165,171.89,2022-08-17 14:23:37.390625
166,147.86,2022-08-17 14:23:37.406250
167,122.24,2022-08-17 14:23:37.421875
168,95.06,2022-08-17 14:23:37.437500
169,65.99,2022-08-17 14:23:37.453125
170,34.38,2022-08-17 14:23:37.468750
171,-0.44,2022-08-17 14:23:37.484375
172,-38.57,2022-08-17 14:23:37.500000
173,-78.94,2022-08-17 14:23:37.515625
174,-118.86,2022-08-17 14:23:37.531250
175,-154.31,2022-08-17 14:23:37.546875
176,-181.17,2022-08-17 14:23:37.562500
177,-196.81,2022-08-17 14:23:37.578125
178,-201.23,2022-08-17 14:23:37.593750
179,-197.3,2022-08-17 14:23:37.609375
180,-189.49,2022-08-17 14:23:37.625000
181,-182.05,2022-08-17 14:23:37.640625
182,-177.48,2022-08-17 14:23:37.656250
183,-176.08,2022-08-17 14:23:37.671875
184,-176.61,2022-08-17 14:23:37.687500
185,-177.55,2022-08-17 14:23:37.703125
186,-177.99,2022-08-17 14:23:37.718750
187,-177.7,2022-08-17 14:23:37.734375
188,-176.59,2022-08-17 14:23:37.750000
189,-174.16,2022-08-17 14:23:37.765625
190,-169.23,2022-08-17 14:23:37.781250
191,-160.43,2022-08-17 14:23:37.796875
192,-146.78,2022-08-17 14:23:37.812500
193,-128.15,2022-08-17 14:23:37.828125
194,-105.37,2022-08-17 14:23:37.843750
195,-79.92,2022-08-17 14:23:37.859375
196,-53.6,2022-08-17 14:23:37.875000
197,-28.13,2022-08-17 14:23:37.890625
198,-4.97,2022-08-17 14:23:37.906250
199,14.73,2022-08-17 14:23:37.921875
200,30.19,2022-08-17 14:23:37.937500
201,41.01,2022-08-17 14:23:37.953125
202,47.31,2022-08-17 14:23:37.968750
203,49.6,2022-08-17 14:23:37.984375
204,48.8,2022-08-17 14:23:38.000000
205,45.96,2022-08-17 14:23:38.015625
206,42.03,2022-08-17 14:23:38.031250
207,37.56,2022-08-17 14:23:38.046875
208,32.55,2022-08-17 14:23:38.062500
209,26.63,2022-08-17 14:23:38.078125
210,19.54,2022-08-17 14:23:38.093750
211,11.62,2022-08-17 14:23:38.109375
212,4.02,2022-08-17 14:23:38.125000
213,-1.51,2022-08-17 14:23:38.140625
214,-3.29,2022-08-17 14:23:38.156250
215,-0.53,2022-08-17 14:23:38.171875
216,6.17,2022-08-17 14:23:38.187500
217,14.8,2022-08-17 14:23:38.203125
218,22.52,2022-08-17 14:23:38.218750
219,26.57,2022-08-17 14:23:38.234375
220,25.07,2022-08-17 14:23:38.250000
221,17.49,2022-08-17 14:23:38.265625
222,4.57,2022-08-17 14:23:38.281250
223,-12.13,2022-08-17 14:23:38.296875
224,-30.77,2022-08-17 14:23:38.312500
225,-49.73,2022-08-17 14:23:38.328125
226,-67.88,2022-08-17 14:23:38.343750
227,-84.45,2022-08-17 14:23:38.359375
228,-98.86,2022-08-17 14:23:38.375000
229,-110.55,2022-08-17 14:23:38.390625
230,-119.02,2022-08-17 14:23:38.406250
231,-123.93,2022-08-17 14:23:38.421875
232,-125.26,2022-08-17 14:23:38.437500
233,-123.02,2022-08-17 14:23:38.453125
234,-117.01,2022-08-17 14:23:38.468750
235,-106.57,2022-08-17 14:23:38.484375
236,-90.75,2022-08-17 14:23:38.500000
237,-68.96,2022-08-17 14:23:38.515625
238,-41.61,2022-08-17 14:23:38.531250
239,-10.56,2022-08-17 14:23:38.546875
240,21.23,2022-08-17 14:23:38.562500
241,50.57,2022-08-17 14:23:38.578125
242,75.11,2022-08-17 14:23:38.593750
243,94.01,2022-08-17 14:23:38.609375
244,107.84,2022-08-17 14:23:38.625000
245,117.84,2022-08-17 14:23:38.640625
246,124.97,2022-08-17 14:23:38.656250
247,129.38,2022-08-17 14:23:38.671875
248,130.49,2022-08-17 14:23:38.687500
249,127.55,2022-08-17 14:23:38.703125
250,120.23,2022-08-17 14:23:38.718750
251,108.95,2022-08-17 14:23:38.734375
252,94.79,2022-08-17 14:23:38.750000
253,79.32,2022-08-17 14:23:38.765625
254,64.22,2022-08-17 14:23:38.781250
255,51.01,2022-08-17 14:23:38.796875
256,40.98,2022-08-17 14:23:38.812500
257,34.95,2022-08-17 14:23:38.828125
258,33.26,2022-08-17 14:23:38.843750
259,35.66,2022-08-17 14:23:38.859375
260,41.3,2022-08-17 14:23:38.875000
261,48.95,2022-08-17 14:23:38.890625
262,57.22,2022-08-17 14:23:38.906250
263,64.78,2022-08-17 14:23:38.921875
264,70.62,2022-08-17 14:23:38.937500
265,74.11,2022-08-17 14:23:38.953125
266,75.05,2022-08-17 14:23:38.968750
267,73.72,2022-08-17 14:23:38.984375
268,70.82,2022-08-17 14:23:39.000000
269,67.3,2022-08-17 14:23:39.015625
270,64.1,2022-08-17 14:23:39.031250
271,61.82,2022-08-17 14:23:39.046875
272,60.48,2022-08-17 14:23:39.062500
273,59.6,2022-08-17 14:23:39.078125
274,58.44,2022-08-17 14:23:39.093750
275,56.29,2022-08-17 14:23:39.109375
276,52.86,2022-08-17 14:23:39.125000
277,48.28,2022-08-17 14:23:39.140625
278,42.98,2022-08-17 14:23:39.156250
279,37.47,2022-08-17 14:23:39.171875
280,31.96,2022-08-17 14:23:39.187500
281,26.37,2022-08-17 14:23:39.203125
282,20.28,2022-08-17 14:23:39.218750
283,13.17,2022-08-17 14:23:39.234375
284,4.6,2022-08-17 14:23:39.250000
285,-5.47,2022-08-17 14:23:39.265625
286,-16.56,2022-08-17 14:23:39.281250
287,-27.68,2022-08-17 14:23:39.296875
288,-37.58,2022-08-17 14:23:39.312500
289,-45.04,2022-08-17 14:23:39.328125
290,-49.16,2022-08-17 14:23:39.343750
291,-49.44,2022-08-17 14:23:39.359375
292,-45.88,2022-08-17 14:23:39.375000
293,-38.8,2022-08-17 14:23:39.390625
294,-28.8,2022-08-17 14:23:39.406250
295,-16.68,2022-08-17 14:23:39.421875
296,-3.38,2022-08-17 14:23:39.437500
297,10.09,2022-08-17 14:23:39.453125
298,22.67,2022-08-17 14:23:39.468750
299,33.41,2022-08-17 14:23:39.484375
300,41.49,2022-08-17 14:23:39.500000
301,46.33,2022-08-17 14:23:39.515625
302,47.68,2022-08-17 14:23:39.531250
303,45.68,2022-08-17 14:23:39.546875
304,40.8,2022-08-17 14:23:39.562500
305,33.93,2022-08-17 14:23:39.578125
306,26.17,2022-08-17 14:23:39.593750
307,18.63,2022-08-17 14:23:39.609375
308,12.34,2022-08-17 14:23:39.625000
309,8.1,2022-08-17 14:23:39.640625
310,6.36,2022-08-17 14:23:39.656250
311,7.36,2022-08-17 14:23:39.671875
312,10.88,2022-08-17 14:23:39.687500
313,16.41,2022-08-17 14:23:39.703125
314,23.23,2022-08-17 14:23:39.718750
315,30.64,2022-08-17 14:23:39.734375
316,38.18,2022-08-17 14:23:39.750000
317,45.71,2022-08-17 14:23:39.765625
318,53.33,2022-08-17 14:23:39.781250
319,61.02,2022-08-17 14:23:39.796875
320,68.46,2022-08-17 14:23:39.812500
321,74.87,2022-08-17 14:23:39.828125
322,79.25,2022-08-17 14:23:39.843750
323,80.72,2022-08-17 14:23:39.859375
324,78.82,2022-08-17 14:23:39.875000
325,73.69,2022-08-17 14:23:39.890625
326,66.03,2022-08-17 14:23:39.906250
327,56.9,2022-08-17 14:23:39.921875
328,47.46,2022-08-17 14:23:39.937500
329,38.79,2022-08-17 14:23:39.953125
330,31.63,2022-08-17 14:23:39.968750
331,26.2,2022-08-17 14:23:39.984375
332,21.97,2022-08-17 14:23:40.000000
333,17.75,2022-08-17 14:23:40.015625
334,12.05,2022-08-17 14:23:40.031250
335,3.7,2022-08-17 14:23:40.046875
336,-7.58,2022-08-17 14:23:40.062500
337,-20.85,2022-08-17 14:23:40.078125
338,-34.29,2022-08-17 14:23:40.093750
339,-45.94,2022-08-17 14:23:40.109375
340,-54.44,2022-08-17 14:23:40.125000
341,-59.47,2022-08-17 14:23:40.140625
342,-61.4,2022-08-17 14:23:40.156250
343,-60.65,2022-08-17 14:23:40.171875
344,-56.97,2022-08-17 14:23:40.187500
345,-49.21,2022-08-17 14:23:40.203125
346,-36.01,2022-08-17 14:23:40.218750
347,-16.9,2022-08-17 14:23:40.234375
348,6.59,2022-08-17 14:23:40.250000
349,30.83,2022-08-17 14:23:40.265625
350,51.16,2022-08-17 14:23:40.281250
351,63.7,2022-08-17 14:23:40.296875
352,67.02,2022-08-17 14:23:40.312500
353,62.7,2022-08-17 14:23:40.328125
354,54.64,2022-08-17 14:23:40.343750
355,47.26,2022-08-17 14:23:40.359375
356,43.72,2022-08-17 14:23:40.375000
357,44.89,2022-08-17 14:23:40.390625
358,49.59,2022-08-17 14:23:40.406250
359,55.76,2022-08-17 14:23:40.421875
360,61.67,2022-08-17 14:23:40.437500
361,66.62,2022-08-17 14:23:40.453125
362,70.74,2022-08-17 14:23:40.468750
363,74.41,2022-08-17 14:23:40.484375
364,77.61,2022-08-17 14:23:40.500000
365,79.72,2022-08-17 14:23:40.515625
366,79.72,2022-08-17 14:23:40.531250
367,76.53,2022-08-17 14:23:40.546875
368,69.16,2022-08-17 14:23:40.562500
369,56.67,2022-08-17 14:23:40.578125
370,38.17,2022-08-17 14:23:40.593750
371,13.08,2022-08-17 14:23:40.609375
372,-18.28,2022-08-17 14:23:40.625000
373,-54.12,2022-08-17 14:23:40.640625
374,-90.86,2022-08-17 14:23:40.656250
375,-123.79,2022-08-17 14:23:40.671875
376,-148.35,2022-08-17 14:23:40.687500
377,-161.68,2022-08-17 14:23:40.703125
378,-163.49,2022-08-17 14:23:40.718750
379,-155.91,2022-08-17 14:23:40.734375
380,-142.31,2022-08-17 14:23:40.750000
381,-125.79,2022-08-17 14:23:40.765625
382,-108.03,2022-08-17 14:23:40.781250
383,-89.21,2022-08-17 14:23:40.796875
384,-68.82,2022-08-17 14:23:40.812500
385,-46.86,2022-08-17 14:23:40.828125
386,-24.53,2022-08-17 14:23:40.843750
387,-4.0,2022-08-17 14:23:40.859375
388,12.51,2022-08-17 14:23:40.875000
389,23.82,2022-08-17 14:23:40.890625
390,30.46,2022-08-17 14:23:40.906250
391,34.36,2022-08-17 14:23:40.921875
392,37.93,2022-08-17 14:23:40.937500
393,42.95,2022-08-17 14:23:40.953125
394,49.83,2022-08-17 14:23:40.968750
395,57.57,2022-08-17 14:23:40.984375
396,64.47,2022-08-17 14:23:41.000000
397,68.78,2022-08-17 14:23:41.015625
398,69.29,2022-08-17 14:23:41.031250
399,65.51,2022-08-17 14:23:41.046875
400,57.48,2022-08-17 14:23:41.062500
401,45.62,2022-08-17 14:23:41.078125
402,30.61,2022-08-17 14:23:41.093750
403,13.49,2022-08-17 14:23:41.109375
404,-4.44,2022-08-17 14:23:41.125000
405,-21.69,2022-08-17 14:23:41.140625
406,-36.91,2022-08-17 14:23:41.156250
407,-49.12,2022-08-17 14:23:41.171875
408,-57.93,2022-08-17 14:23:41.187500
409,-63.51,2022-08-17 14:23:41.203125
410,-66.41,2022-08-17 14:23:41.218750
411,-67.3,2022-08-17 14:23:41.234375
412,-66.81,2022-08-17 14:23:41.250000
413,-65.42,2022-08-17 14:23:41.265625
414,-63.42,2022-08-17 14:23:41.281250
415,-61.01,2022-08-17 14:23:41.296875
416,-58.25,2022-08-17 14:23:41.312500
417,-55.16,2022-08-17 14:23:41.328125
418,-51.77,2022-08-17 14:23:41.343750
419,-48.09,2022-08-17 14:23:41.359375
420,-44.21,2022-08-17 14:23:41.375000
421,-40.27,2022-08-17 14:23:41.390625
422,-36.54,2022-08-17 14:23:41.406250
423,-33.32,2022-08-17 14:23:41.421875
424,-30.94,2022-08-17 14:23:41.437500
425,-29.67,2022-08-17 14:23:41.453125
426,-29.7,2022-08-17 14:23:41.468750
427,-31.11,2022-08-17 14:23:41.484375
428,-33.9,2022-08-17 14:23:41.500000
429,-37.94,2022-08-17 14:23:41.515625
430,-42.99,2022-08-17 14:23:41.531250
431,-48.55,2022-08-17 14:23:41.546875
432,-53.99,2022-08-17 14:23:41.562500
433,-58.54,2022-08-17 14:23:41.578125
434,-61.57,2022-08-17 14:23:41.593750
435,-62.71,2022-08-17 14:23:41.609375
436,-61.98,2022-08-17 14:23:41.625000
437,-59.72,2022-08-17 14:23:41.640625
438,-56.41,2022-08-17 14:23:41.656250
439,-52.47,2022-08-17 14:23:41.671875
440,-48.14,2022-08-17 14:23:41.687500
441,-43.47,2022-08-17 14:23:41.703125
442,-38.47,2022-08-17 14:23:41.718750
443,-33.08,2022-08-17 14:23:41.734375
444,-27.29,2022-08-17 14:23:41.750000
445,-21.05,2022-08-17 14:23:41.765625
446,-14.25,2022-08-17 14:23:41.781250
447,-6.8,2022-08-17 14:23:41.796875
448,1.24,2022-08-17 14:23:41.812500
449,9.57,2022-08-17 14:23:41.828125
450,17.6,2022-08-17 14:23:41.843750
451,24.59,2022-08-17 14:23:41.859375
452,29.94,2022-08-17 14:23:41.875000
453,33.32,2022-08-17 14:23:41.890625
454,34.76,2022-08-17 14:23:41.906250
455,34.55,2022-08-17 14:23:41.921875
456,33.05,2022-08-17 14:23:41.937500
457,30.56,2022-08-17 14:23:41.953125
458,27.2,2022-08-17 14:23:41.968750
459,23.0,2022-08-17 14:23:41.984375
460,17.94,2022-08-17 14:23:42.000000
461,12.11,2022-08-17 14:23:42.015625
462,5.72,2022-08-17 14:23:42.031250
463,-0.92,2022-08-17 14:23:42.046875
464,-7.42,2022-08-17 14:23:42.062500
465,-13.44,2022-08-17 14:23:42.078125
466,-18.72,2022-08-17 14:23:42.093750
467,-23.15,2022-08-17 14:23:42.109375
468,-26.74,2022-08-17 14:23:42.125000
469,-29.66,2022-08-17 14:23:42.140625
470,-32.18,2022-08-17 14:23:42.156250
471,-34.63,2022-08-17 14:23:42.171875
472,-37.35,2022-08-17 14:23:42.187500
473,-40.56,2022-08-17 14:23:42.203125
474,-44.29,2022-08-17 14:23:42.218750
475,-48.38,2022-08-17 14:23:42.234375
476,-52.41,2022-08-17 14:23:42.250000
477,-55.77,2022-08-17 14:23:42.265625
478,-57.66,2022-08-17 14:23:42.281250
479,-57.17,2022-08-17 14:23:42.296875
480,-53.54,2022-08-17 14:23:42.312500
481,-46.43,2022-08-17 14:23:42.328125
482,-36.15,2022-08-17 14:23:42.343750
483,-23.73,2022-08-17 14:23:42.359375
484,-10.54,2022-08-17 14:23:42.375000
485,2.17,2022-08-17 14:23:42.390625
486,13.76,2022-08-17 14:23:42.406250
487,24.4,2022-08-17 14:23:42.421875
488,34.72,2022-08-17 14:23:42.437500
489,45.37,2022-08-17 14:23:42.453125
490,56.47,2022-08-17 14:23:42.468750
491,67.52,2022-08-17 14:23:42.484375
492,77.64,2022-08-17 14:23:42.500000
493,85.96,2022-08-17 14:23:42.515625
494,91.98,2022-08-17 14:23:42.531250
495,95.65,2022-08-17 14:23:42.546875
496,97.15,2022-08-17 14:23:42.562500
497,96.69,2022-08-17 14:23:42.578125
498,94.39,2022-08-17 14:23:42.593750
499,90.3,2022-08-17 14:23:42.609375
500,84.58,2022-08-17 14:23:42.625000
501,77.55,2022-08-17 14:23:42.640625
502,69.72,2022-08-17 14:23:42.656250
503,61.66,2022-08-17 14:23:42.671875
504,53.89,2022-08-17 14:23:42.687500
505,46.74,2022-08-17 14:23:42.703125
506,40.24,2022-08-17 14:23:42.718750
507,34.21,2022-08-17 14:23:42.734375
508,28.24,2022-08-17 14:23:42.750000
509,21.94,2022-08-17 14:23:42.765625
510,15.07,2022-08-17 14:23:42.781250
511,7.69,2022-08-17 14:23:42.796875
512,0.14,2022-08-17 14:23:42.812500
513,-7.1,2022-08-17 14:23:42.828125
514,-13.54,2022-08-17 14:23:42.843750
515,-18.89,2022-08-17 14:23:42.859375
516,-23.11,2022-08-17 14:23:42.875000
517,-26.32,2022-08-17 14:23:42.890625
518,-28.8,2022-08-17 14:23:42.906250
519,-30.78,2022-08-17 14:23:42.921875
520,-32.48,2022-08-17 14:23:42.937500
521,-34.05,2022-08-17 14:23:42.953125
522,-35.66,2022-08-17 14:23:42.968750
523,-37.53,2022-08-17 14:23:42.984375
524,-39.82,2022-08-17 14:23:43.000000
525,-42.55,2022-08-17 14:23:43.015625
526,-45.44,2022-08-17 14:23:43.031250
527,-47.9,2022-08-17 14:23:43.046875
528,-49.16,2022-08-17 14:23:43.062500
529,-48.59,2022-08-17 14:23:43.078125
530,-45.89,2022-08-17 14:23:43.093750
531,-41.26,2022-08-17 14:23:43.109375
532,-35.32,2022-08-17 14:23:43.125000
533,-28.89,2022-08-17 14:23:43.140625
534,-22.64,2022-08-17 14:23:43.156250
535,-16.93,2022-08-17 14:23:43.171875
536,-11.76,2022-08-17 14:23:43.187500
537,-6.99,2022-08-17 14:23:43.203125
538,-2.57,2022-08-17 14:23:43.218750
539,1.38,2022-08-17 14:23:43.234375
540,4.48,2022-08-17 14:23:43.250000
541,6.34,2022-08-17 14:23:43.265625
542,6.75,2022-08-17 14:23:43.281250
543,5.85,2022-08-17 14:23:43.296875
544,4.1,2022-08-17 14:23:43.312500
545,2.13,2022-08-17 14:23:43.328125
546,0.43,2022-08-17 14:23:43.343750
547,-0.76,2022-08-17 14:23:43.359375
548,-1.53,2022-08-17 14:23:43.375000
549,-2.15,2022-08-17 14:23:43.390625
550,-2.84,2022-08-17 14:23:43.406250
551,-3.66,2022-08-17 14:23:43.421875
552,-4.42,2022-08-17 14:23:43.437500
553,-4.86,2022-08-17 14:23:43.453125
554,-4.82,2022-08-17 14:23:43.468750
555,-4.35,2022-08-17 14:23:43.484375
556,-3.73,2022-08-17 14:23:43.500000
557,-3.33,2022-08-17 14:23:43.515625
558,-3.47,2022-08-17 14:23:43.531250
559,-4.27,2022-08-17 14:23:43.546875
560,-5.64,2022-08-17 14:23:43.562500
561,-7.33,2022-08-17 14:23:43.578125
562,-9.09,2022-08-17 14:23:43.593750
563,-10.76,2022-08-17 14:23:43.609375
564,-12.34,2022-08-17 14:23:43.625000
565,-13.9,2022-08-17 14:23:43.640625
566,-15.57,2022-08-17 14:23:43.656250
567,-17.46,2022-08-17 14:23:43.671875
568,-19.6,2022-08-17 14:23:43.687500
569,-21.99,2022-08-17 14:23:43.703125
570,-24.6,2022-08-17 14:23:43.718750
571,-27.3,2022-08-17 14:23:43.734375
572,-29.82,2022-08-17 14:23:43.750000
573,-31.7,2022-08-17 14:23:43.765625
574,-32.38,2022-08-17 14:23:43.781250
575,-31.37,2022-08-17 14:23:43.796875
576,-28.44,2022-08-17 14:23:43.812500
577,-23.73,2022-08-17 14:23:43.828125
578,-17.74,2022-08-17 14:23:43.843750
579,-11.15,2022-08-17 14:23:43.859375
580,-4.65,2022-08-17 14:23:43.875000
581,1.3,2022-08-17 14:23:43.890625
582,6.47,2022-08-17 14:23:43.906250
583,10.8,2022-08-17 14:23:43.921875
584,14.32,2022-08-17 14:23:43.937500
585,17.05,2022-08-17 14:23:43.953125
586,18.98,2022-08-17 14:23:43.968750
587,20.07,2022-08-17 14:23:43.984375
588,20.37,2022-08-17 14:23:44.000000
589,19.95,2022-08-17 14:23:44.015625
590,18.99,2022-08-17 14:23:44.031250
591,17.65,2022-08-17 14:23:44.046875
592,16.14,2022-08-17 14:23:44.062500
593,14.59,2022-08-17 14:23:44.078125
594,13.08,2022-08-17 14:23:44.093750
595,11.63,2022-08-17 14:23:44.109375
596,10.21,2022-08-17 14:23:44.125000
597,8.77,2022-08-17 14:23:44.140625
598,7.32,2022-08-17 14:23:44.156250
599,5.9,2022-08-17 14:23:44.171875
600,4.57,2022-08-17 14:23:44.187500
601,3.36,2022-08-17 14:23:44.203125
602,2.28,2022-08-17 14:23:44.218750
603,1.3,2022-08-17 14:23:44.234375
604,0.34,2022-08-17 14:23:44.250000
605,-0.68,2022-08-17 14:23:44.265625
606,-1.8,2022-08-17 14:23:44.281250
607,-3.06,2022-08-17 14:23:44.296875
608,-4.45,2022-08-17 14:23:44.312500
609,-5.98,2022-08-17 14:23:44.328125
610,-7.63,2022-08-17 14:23:44.343750
611,-9.43,2022-08-17 14:23:44.359375
612,-11.35,2022-08-17 14:23:44.375000
613,-13.38,2022-08-17 14:23:44.390625
614,-15.54,2022-08-17 14:23:44.406250
615,-17.85,2022-08-17 14:23:44.421875
616,-20.4,2022-08-17 14:23:44.437500
617,-23.22,2022-08-17 14:23:44.453125
618,-26.24,2022-08-17 14:23:44.468750
619,-29.22,2022-08-17 14:23:44.484375
620,-31.7,2022-08-17 14:23:44.500000
621,-33.12,2022-08-17 14:23:44.515625
622,-32.93,2022-08-17 14:23:44.531250
623,-30.81,2022-08-17 14:23:44.546875
624,-26.76,2022-08-17 14:23:44.562500
625,-21.15,2022-08-17 14:23:44.578125
626,-14.57,2022-08-17 14:23:44.593750
627,-7.61,2022-08-17 14:23:44.609375
628,-0.77,2022-08-17 14:23:44.625000
629,5.68,2022-08-17 14:23:44.640625
630,11.58,2022-08-17 14:23:44.656250
631,16.79,2022-08-17 14:23:44.671875
632,21.15,2022-08-17 14:23:44.687500
633,24.46,2022-08-17 14:23:44.703125
634,26.61,2022-08-17 14:23:44.718750
635,27.66,2022-08-17 14:23:44.734375
636,27.77,2022-08-17 14:23:44.750000
637,27.2,2022-08-17 14:23:44.765625
638,26.18,2022-08-17 14:23:44.781250
639,24.8,2022-08-17 14:23:44.796875
640,23.08,2022-08-17 14:23:44.812500
641,21.06,2022-08-17 14:23:44.828125
642,18.86,2022-08-17 14:23:44.843750
643,16.67,2022-08-17 14:23:44.859375
644,14.69,2022-08-17 14:23:44.875000
645,13.03,2022-08-17 14:23:44.890625
646,11.68,2022-08-17 14:23:44.906250
647,10.59,2022-08-17 14:23:44.921875
648,9.68,2022-08-17 14:23:44.937500
649,8.88,2022-08-17 14:23:44.953125
650,8.16,2022-08-17 14:23:44.968750
651,7.49,2022-08-17 14:23:44.984375
652,6.81,2022-08-17 14:23:45.000000
653,6.01,2022-08-17 14:23:45.015625
654,5.01,2022-08-17 14:23:45.031250
655,3.73,2022-08-17 14:23:45.046875
656,2.11,2022-08-17 14:23:45.062500
657,0.14,2022-08-17 14:23:45.078125
658,-2.17,2022-08-17 14:23:45.093750
659,-4.73,2022-08-17 14:23:45.109375
660,-7.41,2022-08-17 14:23:45.125000
661,-10.03,2022-08-17 14:23:45.140625
662,-12.45,2022-08-17 14:23:45.156250
663,-14.61,2022-08-17 14:23:45.171875
664,-16.58,2022-08-17 14:23:45.187500
665,-18.5,2022-08-17 14:23:45.203125
666,-20.61,2022-08-17 14:23:45.218750
667,-23.11,2022-08-17 14:23:45.234375
668,-26.1,2022-08-17 14:23:45.250000
669,-29.5,2022-08-17 14:23:45.265625
670,-33.02,2022-08-17 14:23:45.281250
671,-36.09,2022-08-17 14:23:45.296875
672,-38.02,2022-08-17 14:23:45.312500
673,-38.14,2022-08-17 14:23:45.328125
674,-36.04,2022-08-17 14:23:45.343750
675,-31.67,2022-08-17 14:23:45.359375
676,-25.43,2022-08-17 14:23:45.375000
677,-17.98,2022-08-17 14:23:45.390625
678,-10.05,2022-08-17 14:23:45.406250
679,-2.3,2022-08-17 14:23:45.421875
680,4.86,2022-08-17 14:23:45.437500
681,11.17,2022-08-17 14:23:45.453125
682,16.51,2022-08-17 14:23:45.468750
683,20.79,2022-08-17 14:23:45.484375
684,23.97,2022-08-17 14:23:45.500000
685,26.03,2022-08-17 14:23:45.515625
686,27.04,2022-08-17 14:23:45.531250
687,27.14,2022-08-17 14:23:45.546875
688,26.51,2022-08-17 14:23:45.562500
689,25.36,2022-08-17 14:23:45.578125
690,23.85,2022-08-17 14:23:45.593750
691,22.15,2022-08-17 14:23:45.609375
692,20.37,2022-08-17 14:23:45.625000
693,18.59,2022-08-17 14:23:45.640625
694,16.85,2022-08-17 14:23:45.656250
695,15.15,2022-08-17 14:23:45.671875
696,13.48,2022-08-17 14:23:45.687500
697,11.86,2022-08-17 14:23:45.703125
698,10.34,2022-08-17 14:23:45.718750
699,9.03,2022-08-17 14:23:45.734375
700,7.98,2022-08-17 14:23:45.750000
701,7.18,2022-08-17 14:23:45.765625
702,6.49,2022-08-17 14:23:45.781250
703,5.65,2022-08-17 14:23:45.796875
704,4.44,2022-08-17 14:23:45.812500
705,2.67,2022-08-17 14:23:45.828125
706,0.32,2022-08-17 14:23:45.843750
707,-2.45,2022-08-17 14:23:45.859375
708,-5.37,2022-08-17 14:23:45.875000
709,-8.18,2022-08-17 14:23:45.890625
710,-10.68,2022-08-17 14:23:45.906250
711,-12.85,2022-08-17 14:23:45.921875
712,-14.86,2022-08-17 14:23:45.937500
713,-16.95,2022-08-17 14:23:45.953125
714,-19.42,2022-08-17 14:23:45.968750
715,-22.41,2022-08-17 14:23:45.984375
716,-25.92,2022-08-17 14:23:46.000000
717,-29.74,2022-08-17 14:23:46.015625
718,-33.47,2022-08-17 14:23:46.031250
719,-36.56,2022-08-17 14:23:46.046875
720,-38.37,2022-08-17 14:23:46.062500
721,-38.37,2022-08-17 14:23:46.078125
722,-36.16,2022-08-17 14:23:46.093750
723,-31.72,2022-08-17 14:23:46.109375
724,-25.35,2022-08-17 14:23:46.125000
725,-17.63,2022-08-17 14:23:46.140625
726,-9.29,2022-08-17 14:23:46.156250
727,-1.0,2022-08-17 14:23:46.171875
728,6.71,2022-08-17 14:23:46.187500
729,13.55,2022-08-17 14:23:46.203125
730,19.35,2022-08-17 14:23:46.218750
731,24.05,2022-08-17 14:23:46.234375
732,27.57,2022-08-17 14:23:46.250000
733,29.86,2022-08-17 14:23:46.265625
734,30.89,2022-08-17 14:23:46.281250
735,30.73,2022-08-17 14:23:46.296875
736,29.57,2022-08-17 14:23:46.312500
737,27.71,2022-08-17 14:23:46.328125
738,25.47,2022-08-17 14:23:46.343750
739,23.13,2022-08-17 14:23:46.359375
740,20.83,2022-08-17 14:23:46.375000
741,18.54,2022-08-17 14:23:46.390625
742,16.23,2022-08-17 14:23:46.406250
743,13.89,2022-08-17 14:23:46.421875
744,11.61,2022-08-17 14:23:46.437500
745,9.55,2022-08-17 14:23:46.453125
746,7.89,2022-08-17 14:23:46.468750
747,6.65,2022-08-17 14:23:46.484375
748,5.68,2022-08-17 14:23:46.500000
749,4.7,2022-08-17 14:23:46.515625
750,3.39,2022-08-17 14:23:46.531250
751,1.56,2022-08-17 14:23:46.546875
752,-0.8,2022-08-17 14:23:46.562500
753,-3.57,2022-08-17 14:23:46.578125
754,-6.56,2022-08-17 14:23:46.593750
755,-9.64,2022-08-17 14:23:46.609375
756,-12.76,2022-08-17 14:23:46.625000
757,-15.94,2022-08-17 14:23:46.640625
758,-19.22,2022-08-17 14:23:46.656250
759,-22.67,2022-08-17 14:23:46.671875
760,-26.35,2022-08-17 14:23:46.687500
761,-30.33,2022-08-17 14:23:46.703125
762,-34.64,2022-08-17 14:23:46.718750
763,-39.11,2022-08-17 14:23:46.734375
764,-43.34,2022-08-17 14:23:46.750000
765,-46.63,2022-08-17 14:23:46.765625
766,-48.18,2022-08-17 14:23:46.781250
767,-47.27,2022-08-17 14:23:46.796875
768,-43.54,2022-08-17 14:23:46.812500
769,-37.16,2022-08-17 14:23:46.828125
770,-28.73,2022-08-17 14:23:46.843750
771,-19.1,2022-08-17 14:23:46.859375
772,-9.11,2022-08-17 14:23:46.875000
773,0.61,2022-08-17 14:23:46.890625
774,9.66,2022-08-17 14:23:46.906250
775,17.81,2022-08-17 14:23:46.921875
776,24.87,2022-08-17 14:23:46.937500
777,30.66,2022-08-17 14:23:46.953125
778,35.02,2022-08-17 14:23:46.968750
779,37.87,2022-08-17 14:23:46.984375
780,39.3,2022-08-17 14:23:47.000000
781,39.53,2022-08-17 14:23:47.015625
782,38.83,2022-08-17 14:23:47.031250
783,37.45,2022-08-17 14:23:47.046875
784,35.56,2022-08-17 14:23:47.062500
785,33.26,2022-08-17 14:23:47.078125
786,30.66,2022-08-17 14:23:47.093750
787,27.93,2022-08-17 14:23:47.109375
788,25.3,2022-08-17 14:23:47.125000
789,23.02,2022-08-17 14:23:47.140625
790,21.2,2022-08-17 14:23:47.156250
791,19.8,2022-08-17 14:23:47.171875
792,18.64,2022-08-17 14:23:47.187500
793,17.51,2022-08-17 14:23:47.203125
794,16.25,2022-08-17 14:23:47.218750
795,14.84,2022-08-17 14:23:47.234375
796,13.3,2022-08-17 14:23:47.250000
797,11.59,2022-08-17 14:23:47.265625
798,9.62,2022-08-17 14:23:47.281250
799,7.23,2022-08-17 14:23:47.296875
800,4.31,2022-08-17 14:23:47.312500
801,0.9,2022-08-17 14:23:47.328125
802,-2.82,2022-08-17 14:23:47.343750
803,-6.63,2022-08-17 14:23:47.359375
804,-10.29,2022-08-17 14:23:47.375000
805,-13.74,2022-08-17 14:23:47.390625
806,-17.03,2022-08-17 14:23:47.406250
807,-20.34,2022-08-17 14:23:47.421875
808,-23.83,2022-08-17 14:23:47.437500
809,-27.67,2022-08-17 14:23:47.453125
810,-32.0,2022-08-17 14:23:47.468750
811,-36.88,2022-08-17 14:23:47.484375
812,-42.26,2022-08-17 14:23:47.500000
813,-47.86,2022-08-17 14:23:47.515625
814,-53.1,2022-08-17 14:23:47.531250
815,-57.13,2022-08-17 14:23:47.546875
816,-59.02,2022-08-17 14:23:47.562500
817,-57.98,2022-08-17 14:23:47.578125
818,-53.61,2022-08-17 14:23:47.593750
819,-46.06,2022-08-17 14:23:47.609375
820,-36.0,2022-08-17 14:23:47.625000
821,-24.41,2022-08-17 14:23:47.640625
822,-12.35,2022-08-17 14:23:47.656250
823,-0.69,2022-08-17 14:23:47.671875
824,9.96,2022-08-17 14:23:47.687500
825,19.33,2022-08-17 14:23:47.703125
826,27.35,2022-08-17 14:23:47.718750
827,34.02,2022-08-17 14:23:47.734375
828,39.31,2022-08-17 14:23:47.750000
829,43.21,2022-08-17 14:23:47.765625
830,45.7,2022-08-17 14:23:47.781250
831,46.87,2022-08-17 14:23:47.796875
832,46.89,2022-08-17 14:23:47.812500
833,46.04,2022-08-17 14:23:47.828125
834,44.58,2022-08-17 14:23:47.843750
835,42.71,2022-08-17 14:23:47.859375
836,40.55,2022-08-17 14:23:47.875000
837,38.14,2022-08-17 14:23:47.890625
838,35.61,2022-08-17 14:23:47.906250
839,33.14,2022-08-17 14:23:47.921875
840,30.95,2022-08-17 14:23:47.937500
841,29.25,2022-08-17 14:23:47.953125
842,28.07,2022-08-17 14:23:47.968750
843,27.24,2022-08-17 14:23:47.984375
844,26.45,2022-08-17 14:23:48.000000
845,25.39,2022-08-17 14:23:48.015625
846,23.83,2022-08-17 14:23:48.031250
847,21.78,2022-08-17 14:23:48.046875
848,19.38,2022-08-17 14:23:48.062500
849,16.87,2022-08-17 14:23:48.078125
850,14.43,2022-08-17 14:23:48.093750
851,12.14,2022-08-17 14:23:48.109375
852,9.91,2022-08-17 14:23:48.125000
853,7.58,2022-08-17 14:23:48.140625
854,4.95,2022-08-17 14:23:48.156250
855,1.87,2022-08-17 14:23:48.171875
856,-1.72,2022-08-17 14:23:48.187500
857,-5.71,2022-08-17 14:23:48.203125
858,-9.9,2022-08-17 14:23:48.218750
859,-14.04,2022-08-17 14:23:48.234375
860,-17.93,2022-08-17 14:23:48.250000
861,-21.51,2022-08-17 14:23:48.265625
862,-24.81,2022-08-17 14:23:48.281250
863,-28.02,2022-08-17 14:23:48.296875
864,-31.34,2022-08-17 14:23:48.312500
865,-35.0,2022-08-17 14:23:48.328125
866,-39.12,2022-08-17 14:23:48.343750
867,-43.7,2022-08-17 14:23:48.359375
868,-48.44,2022-08-17 14:23:48.375000
869,-52.74,2022-08-17 14:23:48.390625
870,-55.71,2022-08-17 14:23:48.406250
871,-56.41,2022-08-17 14:23:48.421875
872,-54.14,2022-08-17 14:23:48.437500
873,-48.69,2022-08-17 14:23:48.453125
874,-40.43,2022-08-17 14:23:48.468750
875,-30.16,2022-08-17 14:23:48.484375
876,-18.85,2022-08-17 14:23:48.500000
877,-7.36,2022-08-17 14:23:48.515625
878,3.7,2022-08-17 14:23:48.531250
879,13.9,2022-08-17 14:23:48.546875
880,22.95,2022-08-17 14:23:48.562500
881,30.59,2022-08-17 14:23:48.578125
882,36.62,2022-08-17 14:23:48.593750
883,40.95,2022-08-17 14:23:48.609375
884,43.69,2022-08-17 14:23:48.625000
885,45.1,2022-08-17 14:23:48.640625
886,45.46,2022-08-17 14:23:48.656250
887,45.01,2022-08-17 14:23:48.671875
888,43.88,2022-08-17 14:23:48.687500
889,42.17,2022-08-17 14:23:48.703125
890,40.01,2022-08-17 14:23:48.718750
891,37.61,2022-08-17 14:23:48.734375
892,35.21,2022-08-17 14:23:48.750000
893,33.06,2022-08-17 14:23:48.765625
894,31.3,2022-08-17 14:23:48.781250
895,29.95,2022-08-17 14:23:48.796875
896,28.91,2022-08-17 14:23:48.812500
897,28.05,2022-08-17 14:23:48.828125
898,27.28,2022-08-17 14:23:48.843750
899,26.54,2022-08-17 14:23:48.859375
900,25.77,2022-08-17 14:23:48.875000
901,24.9,2022-08-17 14:23:48.890625
902,23.83,2022-08-17 14:23:48.906250
903,22.44,2022-08-17 14:23:48.921875
904,20.66,2022-08-17 14:23:48.937500
905,18.54,2022-08-17 14:23:48.953125
906,16.21,2022-08-17 14:23:48.968750
907,13.87,2022-08-17 14:23:48.984375
908,11.64,2022-08-17 14:23:49.000000
909,9.54,2022-08-17 14:23:49.015625
910,7.46,2022-08-17 14:23:49.031250
911,5.21,2022-08-17 14:23:49.046875
912,2.59,2022-08-17 14:23:49.062500
913,-0.49,2022-08-17 14:23:49.078125
914,-4.02,2022-08-17 14:23:49.093750
915,-7.84,2022-08-17 14:23:49.109375
916,-11.75,2022-08-17 14:23:49.125000
917,-15.54,2022-08-17 14:23:49.140625
918,-19.05,2022-08-17 14:23:49.156250
919,-22.24,2022-08-17 14:23:49.171875
920,-25.15,2022-08-17 14:23:49.187500
921,-27.92,2022-08-17 14:23:49.203125
922,-30.73,2022-08-17 14:23:49.218750
923,-33.76,2022-08-17 14:23:49.234375
924,-37.17,2022-08-17 14:23:49.250000
925,-41.04,2022-08-17 14:23:49.265625
926,-45.24,2022-08-17 14:23:49.281250
927,-49.39,2022-08-17 14:23:49.296875
928,-52.83,2022-08-17 14:23:49.312500
929,-54.7,2022-08-17 14:23:49.328125
930,-54.17,2022-08-17 14:23:49.343750
931,-50.73,2022-08-17 14:23:49.359375
932,-44.36,2022-08-17 14:23:49.375000
933,-35.55,2022-08-17 14:23:49.390625
934,-25.17,2022-08-17 14:23:49.406250
935,-14.13,2022-08-17 14:23:49.421875
936,-3.21,2022-08-17 14:23:49.437500
937,7.03,2022-08-17 14:23:49.453125
938,16.25,2022-08-17 14:23:49.468750
939,24.19,2022-08-17 14:23:49.484375
940,30.61,2022-08-17 14:23:49.500000
941,35.29,2022-08-17 14:23:49.515625
942,38.16,2022-08-17 14:23:49.531250
943,39.34,2022-08-17 14:23:49.546875
944,39.19,2022-08-17 14:23:49.562500
945,38.16,2022-08-17 14:23:49.578125
946,36.71,2022-08-17 14:23:49.593750
947,35.14,2022-08-17 14:23:49.609375
948,33.58,2022-08-17 14:23:49.625000
949,32.05,2022-08-17 14:23:49.640625
950,30.47,2022-08-17 14:23:49.656250
951,28.82,2022-08-17 14:23:49.671875
952,27.14,2022-08-17 14:23:49.687500
953,25.51,2022-08-17 14:23:49.703125
954,24.04,2022-08-17 14:23:49.718750
955,22.81,2022-08-17 14:23:49.734375
956,21.87,2022-08-17 14:23:49.750000
957,21.22,2022-08-17 14:23:49.765625
958,20.81,2022-08-17 14:23:49.781250
959,20.54,2022-08-17 14:23:49.796875
960,20.18,2022-08-17 14:23:49.812500
961,19.5,2022-08-17 14:23:49.828125
962,18.31,2022-08-17 14:23:49.843750
963,16.6,2022-08-17 14:23:49.859375
964,14.52,2022-08-17 14:23:49.875000
965,12.29,2022-08-17 14:23:49.890625
966,10.14,2022-08-17 14:23:49.906250
967,8.13,2022-08-17 14:23:49.921875
968,6.21,2022-08-17 14:23:49.937500
969,4.21,2022-08-17 14:23:49.953125
970,2.01,2022-08-17 14:23:49.968750
971,-0.46,2022-08-17 14:23:49.984375
972,-3.16,2022-08-17 14:23:50.000000
973,-6.0,2022-08-17 14:23:50.015625
974,-8.93,2022-08-17 14:23:50.031250
975,-11.92,2022-08-17 14:23:50.046875
976,-14.98,2022-08-17 14:23:50.062500
977,-18.06,2022-08-17 14:23:50.078125
978,-21.1,2022-08-17 14:23:50.093750
979,-24.03,2022-08-17 14:23:50.109375
980,-26.81,2022-08-17 14:23:50.125000
981,-29.56,2022-08-17 14:23:50.140625
982,-32.49,2022-08-17 14:23:50.156250
983,-35.78,2022-08-17 14:23:50.171875
984,-39.41,2022-08-17 14:23:50.187500
985,-42.97,2022-08-17 14:23:50.203125
986,-45.71,2022-08-17 14:23:50.218750
987,-46.65,2022-08-17 14:23:50.234375
988,-44.99,2022-08-17 14:23:50.250000
989,-40.37,2022-08-17 14:23:50.265625
990,-33.08,2022-08-17 14:23:50.281250
991,-23.92,2022-08-17 14:23:50.296875
992,-13.94,2022-08-17 14:23:50.312500
993,-4.14,2022-08-17 14:23:50.328125
994,4.77,2022-08-17 14:23:50.343750
995,12.41,2022-08-17 14:23:50.359375
996,18.65,2022-08-17 14:23:50.375000
997,23.47,2022-08-17 14:23:50.390625
998,26.95,2022-08-17 14:23:50.406250
999,29.17,2022-08-17 14:23:50.421875
1000,30.27,2022-08-17 14:23:50.437500
1001,30.44,2022-08-17 14:23:50.453125
1002,29.89,2022-08-17 14:23:50.468750
1003,28.79,2022-08-17 14:23:50.484375
1004,27.29,2022-08-17 14:23:50.500000
1005,25.48,2022-08-17 14:23:50.515625
1006,23.44,2022-08-17 14:23:50.531250
1007,21.26,2022-08-17 14:23:50.546875
1008,19.06,2022-08-17 14:23:50.562500
1009,17.0,2022-08-17 14:23:50.578125
1010,15.26,2022-08-17 14:23:50.593750
1011,14.03,2022-08-17 14:23:50.609375
1012,13.39,2022-08-17 14:23:50.625000
1013,13.24,2022-08-17 14:23:50.640625
1014,13.3,2022-08-17 14:23:50.656250
1015,13.17,2022-08-17 14:23:50.671875
1016,12.51,2022-08-17 14:23:50.687500
1017,11.21,2022-08-17 14:23:50.703125
1018,9.39,2022-08-17 14:23:50.718750
1019,7.39,2022-08-17 14:23:50.734375
1020,5.53,2022-08-17 14:23:50.750000
1021,3.95,2022-08-17 14:23:50.765625
1022,2.53,2022-08-17 14:23:50.781250
1023,0.96,2022-08-17 14:23:50.796875
1024,-1.08,2022-08-17 14:23:50.812500
1025,-3.72,2022-08-17 14:23:50.828125
1026,-6.88,2022-08-17 14:23:50.843750
1027,-10.28,2022-08-17 14:23:50.859375
1028,-13.62,2022-08-17 14:23:50.875000
1029,-16.7,2022-08-17 14:23:50.890625
1030,-19.44,2022-08-17 14:23:50.906250
1031,-21.93,2022-08-17 14:23:50.921875
1032,-24.3,2022-08-17 14:23:50.937500
1033,-26.77,2022-08-17 14:23:50.953125
1034,-29.56,2022-08-17 14:23:50.968750
1035,-32.85,2022-08-17 14:23:50.984375
1036,-36.66,2022-08-17 14:23:51.000000
1037,-40.75,2022-08-17 14:23:51.015625
1038,-44.53,2022-08-17 14:23:51.031250
1039,-47.17,2022-08-17 14:23:51.046875
1040,-47.77,2022-08-17 14:23:51.062500
1041,-45.68,2022-08-17 14:23:51.078125
1042,-40.74,2022-08-17 14:23:51.093750
1043,-33.31,2022-08-17 14:23:51.109375
1044,-24.22,2022-08-17 14:23:51.125000
1045,-14.42,2022-08-17 14:23:51.140625
1046,-4.84,2022-08-17 14:23:51.156250
1047,3.92,2022-08-17 14:23:51.171875
1048,11.54,2022-08-17 14:23:51.187500
1049,17.92,2022-08-17 14:23:51.203125
1050,23.05,2022-08-17 14:23:51.218750
1051,26.94,2022-08-17 14:23:51.234375
1052,29.56,2022-08-17 14:23:51.250000
1053,30.96,2022-08-17 14:23:51.265625
1054,31.24,2022-08-17 14:23:51.281250
1055,30.59,2022-08-17 14:23:51.296875
1056,29.3,2022-08-17 14:23:51.312500
1057,27.65,2022-08-17 14:23:51.328125
1058,25.89,2022-08-17 14:23:51.343750
1059,24.18,2022-08-17 14:23:51.359375
1060,22.6,2022-08-17 14:23:51.375000
1061,21.09,2022-08-17 14:23:51.390625
1062,19.61,2022-08-17 14:23:51.406250
1063,18.12,2022-08-17 14:23:51.421875
1064,16.68,2022-08-17 14:23:51.437500
1065,15.43,2022-08-17 14:23:51.453125
1066,14.51,2022-08-17 14:23:51.468750
1067,13.9,2022-08-17 14:23:51.484375
1068,13.48,2022-08-17 14:23:51.500000
1069,12.93,2022-08-17 14:23:51.515625
1070,12.0,2022-08-17 14:23:51.531250
1071,10.55,2022-08-17 14:23:51.546875
1072,8.69,2022-08-17 14:23:51.562500
1073,6.69,2022-08-17 14:23:51.578125
1074,4.8,2022-08-17 14:23:51.593750
1075,3.13,2022-08-17 14:23:51.609375
1076,1.55,2022-08-17 14:23:51.625000
1077,-0.18,2022-08-17 14:23:51.640625
1078,-2.37,2022-08-17 14:23:51.656250
1079,-5.16,2022-08-17 14:23:51.671875
1080,-8.5,2022-08-17 14:23:51.687500
1081,-12.22,2022-08-17 14:23:51.703125
1082,-16.06,2022-08-17 14:23:51.718750
1083,-19.81,2022-08-17 14:23:51.734375
1084,-23.35,2022-08-17 14:23:51.750000
1085,-26.62,2022-08-17 14:23:51.765625
1086,-29.61,2022-08-17 14:23:51.781250
1087,-32.4,2022-08-17 14:23:51.796875
1088,-35.11,2022-08-17 14:23:51.812500
1089,-37.96,2022-08-17 14:23:51.828125
1090,-41.27,2022-08-17 14:23:51.843750
1091,-45.26,2022-08-17 14:23:51.859375
1092,-49.89,2022-08-17 14:23:51.875000
1093,-54.69,2022-08-17 14:23:51.890625
1094,-58.74,2022-08-17 14:23:51.906250
1095,-60.86,2022-08-17 14:23:51.921875
1096,-60.07,2022-08-17 14:23:51.937500
1097,-55.86,2022-08-17 14:23:51.953125
1098,-48.43,2022-08-17 14:23:51.968750
1099,-38.59,2022-08-17 14:23:51.984375
1100,-27.45,2022-08-17 14:23:52.000000
1101,-16.01,2022-08-17 14:23:52.015625
1102,-5.03,2022-08-17 14:23:52.031250
1103,5.11,2022-08-17 14:23:52.046875
1104,14.18,2022-08-17 14:23:52.062500
1105,22.04,2022-08-17 14:23:52.078125
1106,28.5,2022-08-17 14:23:52.093750
1107,33.36,2022-08-17 14:23:52.109375
1108,36.53,2022-08-17 14:23:52.125000
1109,38.05,2022-08-17 14:23:52.140625
1110,38.18,2022-08-17 14:23:52.156250
1111,37.29,2022-08-17 14:23:52.171875
1112,35.8,2022-08-17 14:23:52.187500
1113,34.06,2022-08-17 14:23:52.203125
1114,32.31,2022-08-17 14:23:52.218750
1115,30.64,2022-08-17 14:23:52.234375
1116,29.08,2022-08-17 14:23:52.250000
1117,27.64,2022-08-17 14:23:52.265625
1118,26.37,2022-08-17 14:23:52.281250
1119,25.39,2022-08-17 14:23:52.296875
1120,24.76,2022-08-17 14:23:52.312500
1121,24.51,2022-08-17 14:23:52.328125
1122,24.5,2022-08-17 14:23:52.343750
1123,24.54,2022-08-17 14:23:52.359375
1124,24.4,2022-08-17 14:23:52.375000
1125,23.92,2022-08-17 14:23:52.390625
1126,23.03,2022-08-17 14:23:52.406250
1127,21.72,2022-08-17 14:23:52.421875
1128,20.02,2022-08-17 14:23:52.437500
1129,17.99,2022-08-17 14:23:52.453125
1130,15.72,2022-08-17 14:23:52.468750
1131,13.28,2022-08-17 14:23:52.484375
1132,10.8,2022-08-17 14:23:52.500000
1133,8.33,2022-08-17 14:23:52.515625
1134,5.91,2022-08-17 14:23:52.531250
1135,3.46,2022-08-17 14:23:52.546875
1136,0.85,2022-08-17 14:23:52.562500
1137,-2.08,2022-08-17 14:23:52.578125
1138,-5.44,2022-08-17 14:23:52.593750
1139,-9.25,2022-08-17 14:23:52.609375
1140,-13.41,2022-08-17 14:23:52.625000
1141,-17.73,2022-08-17 14:23:52.640625
1142,-21.98,2022-08-17 14:23:52.656250
1143,-25.93,2022-08-17 14:23:52.671875
1144,-29.46,2022-08-17 14:23:52.687500
1145,-32.59,2022-08-17 14:23:52.703125
1146,-35.46,2022-08-17 14:23:52.718750
1147,-38.37,2022-08-17 14:23:52.734375
1148,-41.64,2022-08-17 14:23:52.750000
1149,-45.55,2022-08-17 14:23:52.765625
1150,-50.18,2022-08-17 14:23:52.781250
1151,-55.23,2022-08-17 14:23:52.796875
1152,-60.0,2022-08-17 14:23:52.812500
1153,-63.45,2022-08-17 14:23:52.828125
1154,-64.47,2022-08-17 14:23:52.843750
1155,-62.25,2022-08-17 14:23:52.859375
1156,-56.58,2022-08-17 14:23:52.875000
1157,-47.9,2022-08-17 14:23:52.890625
1158,-37.21,2022-08-17 14:23:52.906250
1159,-25.63,2022-08-17 14:23:52.921875
1160,-14.11,2022-08-17 14:23:52.937500
1161,-3.21,2022-08-17 14:23:52.953125
1162,6.8,2022-08-17 14:23:52.968750
1163,15.81,2022-08-17 14:23:52.984375
1164,23.65,2022-08-17 14:23:53.000000
1165,30.11,2022-08-17 14:23:53.015625
1166,34.99,2022-08-17 14:23:53.031250
1167,38.23,2022-08-17 14:23:53.046875
1168,39.97,2022-08-17 14:23:53.062500
1169,40.48,2022-08-17 14:23:53.078125
1170,40.09,2022-08-17 14:23:53.093750
1171,39.07,2022-08-17 14:23:53.109375
1172,37.59,2022-08-17 14:23:53.125000
1173,35.83,2022-08-17 14:23:53.140625
1174,33.94,2022-08-17 14:23:53.156250
1175,32.11,2022-08-17 14:23:53.171875
1176,30.52,2022-08-17 14:23:53.187500
1177,29.34,2022-08-17 14:23:53.203125
1178,28.68,2022-08-17 14:23:53.218750
1179,28.57,2022-08-17 14:23:53.234375
1180,28.89,2022-08-17 14:23:53.250000
1181,29.44,2022-08-17 14:23:53.265625
1182,29.92,2022-08-17 14:23:53.281250
1183,30.04,2022-08-17 14:23:53.296875
1184,29.63,2022-08-17 14:23:53.312500
1185,28.68,2022-08-17 14:23:53.328125
1186,27.32,2022-08-17 14:23:53.343750
1187,25.77,2022-08-17 14:23:53.359375
1188,24.19,2022-08-17 14:23:53.375000
1189,22.61,2022-08-17 14:23:53.390625
1190,20.9,2022-08-17 14:23:53.406250
1191,18.87,2022-08-17 14:23:53.421875
1192,16.43,2022-08-17 14:23:53.437500
1193,13.59,2022-08-17 14:23:53.453125
1194,10.51,2022-08-17 14:23:53.468750
1195,7.41,2022-08-17 14:23:53.484375
1196,4.46,2022-08-17 14:23:53.500000
1197,1.68,2022-08-17 14:23:53.515625
1198,-0.98,2022-08-17 14:23:53.531250
1199,-3.69,2022-08-17 14:23:53.546875
1200,-6.6,2022-08-17 14:23:53.562500
1201,-9.85,2022-08-17 14:23:53.578125
1202,-13.47,2022-08-17 14:23:53.593750
1203,-17.43,2022-08-17 14:23:53.609375
1204,-21.57,2022-08-17 14:23:53.625000
1205,-25.68,2022-08-17 14:23:53.640625
1206,-29.54,2022-08-17 14:23:53.656250
1207,-33.01,2022-08-17 14:23:53.671875
1208,-36.08,2022-08-17 14:23:53.687500
1209,-39.0,2022-08-17 14:23:53.703125
1210,-42.14,2022-08-17 14:23:53.718750
1211,-45.94,2022-08-17 14:23:53.734375
1212,-50.68,2022-08-17 14:23:53.750000
1213,-56.19,2022-08-17 14:23:53.765625
1214,-61.8,2022-08-17 14:23:53.781250
1215,-66.35,2022-08-17 14:23:53.796875
1216,-68.45,2022-08-17 14:23:53.812500
1217,-66.99,2022-08-17 14:23:53.828125
1218,-61.46,2022-08-17 14:23:53.843750
1219,-52.22,2022-08-17 14:23:53.859375
1220,-40.35,2022-08-17 14:23:53.875000
1221,-27.3,2022-08-17 14:23:53.890625
1222,-14.39,2022-08-17 14:23:53.906250
1223,-2.54,2022-08-17 14:23:53.921875
1224,7.82,2022-08-17 14:23:53.937500
1225,16.65,2022-08-17 14:23:53.953125
1226,24.01,2022-08-17 14:23:53.968750
1227,29.92,2022-08-17 14:23:53.984375
1228,34.31,2022-08-17 14:23:54.000000
1229,37.14,2022-08-17 14:23:54.015625
1230,38.49,2022-08-17 14:23:54.031250
1231,38.63,2022-08-17 14:23:54.046875
1232,37.96,2022-08-17 14:23:54.062500
1233,36.82,2022-08-17 14:23:54.078125
1234,35.47,2022-08-17 14:23:54.093750
1235,34.0,2022-08-17 14:23:54.109375
1236,32.47,2022-08-17 14:23:54.125000
1237,30.97,2022-08-17 14:23:54.140625
1238,29.7,2022-08-17 14:23:54.156250
1239,28.87,2022-08-17 14:23:54.171875
1240,28.63,2022-08-17 14:23:54.187500
1241,28.93,2022-08-17 14:23:54.203125
1242,29.52,2022-08-17 14:23:54.218750
1243,30.04,2022-08-17 14:23:54.234375
1244,30.19,2022-08-17 14:23:54.250000
1245,29.82,2022-08-17 14:23:54.265625
1246,29.03,2022-08-17 14:23:54.281250
1247,27.99,2022-08-17 14:23:54.296875
1248,26.86,2022-08-17 14:23:54.312500
1249,25.62,2022-08-17 14:23:54.328125
1250,24.12,2022-08-17 14:23:54.343750
1251,22.16,2022-08-17 14:23:54.359375
1252,19.65,2022-08-17 14:23:54.375000
1253,16.68,2022-08-17 14:23:54.390625
1254,13.51,2022-08-17 14:23:54.406250
1255,10.4,2022-08-17 14:23:54.421875
1256,7.52,2022-08-17 14:23:54.437500
1257,4.85,2022-08-17 14:23:54.453125
1258,2.16,2022-08-17 14:23:54.468750
1259,-0.78,2022-08-17 14:23:54.484375
1260,-4.09,2022-08-17 14:23:54.500000
1261,-7.69,2022-08-17 14:23:54.515625
1262,-11.38,2022-08-17 14:23:54.531250
1263,-14.93,2022-08-17 14:23:54.546875
1264,-18.2,2022-08-17 14:23:54.562500
1265,-21.23,2022-08-17 14:23:54.578125
1266,-24.08,2022-08-17 14:23:54.593750
1267,-26.87,2022-08-17 14:23:54.609375
1268,-29.66,2022-08-17 14:23:54.625000
1269,-32.53,2022-08-17 14:23:54.640625
1270,-35.62,2022-08-17 14:23:54.656250
1271,-39.13,2022-08-17 14:23:54.671875
1272,-43.16,2022-08-17 14:23:54.687500
1273,-47.55,2022-08-17 14:23:54.703125
1274,-51.67,2022-08-17 14:23:54.718750
1275,-54.48,2022-08-17 14:23:54.734375
1276,-54.84,2022-08-17 14:23:54.750000
1277,-51.89,2022-08-17 14:23:54.765625
1278,-45.4,2022-08-17 14:23:54.781250
1279,-35.92,2022-08-17 14:23:54.796875
1280,-24.54,2022-08-17 14:23:54.812500
1281,-12.58,2022-08-17 14:23:54.828125
1282,-1.17,2022-08-17 14:23:54.843750
1283,8.94,2022-08-17 14:23:54.859375
1284,17.41,2022-08-17 14:23:54.875000
1285,24.22,2022-08-17 14:23:54.890625
1286,29.43,2022-08-17 14:23:54.906250
1287,33.12,2022-08-17 14:23:54.921875
1288,35.39,2022-08-17 14:23:54.937500
1289,36.37,2022-08-17 14:23:54.953125
1290,36.26,2022-08-17 14:23:54.968750
1291,35.36,2022-08-17 14:23:54.984375
1292,33.96,2022-08-17 14:23:55.000000
1293,32.33,2022-08-17 14:23:55.015625
1294,30.66,2022-08-17 14:23:55.031250
1295,29.0,2022-08-17 14:23:55.046875
1296,27.4,2022-08-17 14:23:55.062500
1297,25.87,2022-08-17 14:23:55.078125
1298,24.52,2022-08-17 14:23:55.093750
1299,23.48,2022-08-17 14:23:55.109375
1300,22.92,2022-08-17 14:23:55.125000
1301,22.9,2022-08-17 14:23:55.140625
1302,23.33,2022-08-17 14:23:55.156250
1303,23.95,2022-08-17 14:23:55.171875
1304,24.34,2022-08-17 14:23:55.187500
1305,24.13,2022-08-17 14:23:55.203125
1306,23.07,2022-08-17 14:23:55.218750
1307,21.15,2022-08-17 14:23:55.234375
1308,18.59,2022-08-17 14:23:55.250000
1309,15.74,2022-08-17 14:23:55.265625
1310,12.93,2022-08-17 14:23:55.281250
1311,10.34,2022-08-17 14:23:55.296875
1312,7.97,2022-08-17 14:23:55.312500
1313,5.63,2022-08-17 14:23:55.328125
1314,3.09,2022-08-17 14:23:55.343750
1315,0.16,2022-08-17 14:23:55.359375
1316,-3.2,2022-08-17 14:23:55.375000
1317,-6.91,2022-08-17 14:23:55.390625
1318,-10.81,2022-08-17 14:23:55.406250
1319,-14.75,2022-08-17 14:23:55.421875
1320,-18.6,2022-08-17 14:23:55.437500
1321,-22.33,2022-08-17 14:23:55.453125
1322,-25.92,2022-08-17 14:23:55.468750
1323,-29.4,2022-08-17 14:23:55.484375
1324,-32.86,2022-08-17 14:23:55.500000
1325,-36.41,2022-08-17 14:23:55.515625
1326,-40.26,2022-08-17 14:23:55.531250
1327,-44.55,2022-08-17 14:23:55.546875
1328,-49.26,2022-08-17 14:23:55.562500
1329,-54.0,2022-08-17 14:23:55.578125
1330,-57.98,2022-08-17 14:23:55.593750
1331,-60.12,2022-08-17 14:23:55.609375
1332,-59.35,2022-08-17 14:23:55.625000
1333,-55.06,2022-08-17 14:23:55.640625
1334,-47.29,2022-08-17 14:23:55.656250
1335,-36.81,2022-08-17 14:23:55.671875
1336,-24.86,2022-08-17 14:23:55.687500
1337,-12.73,2022-08-17 14:23:55.703125
1338,-1.42,2022-08-17 14:23:55.718750
1339,8.56,2022-08-17 14:23:55.734375
1340,17.1,2022-08-17 14:23:55.750000
1341,24.27,2022-08-17 14:23:55.765625
1342,30.16,2022-08-17 14:23:55.781250
1343,34.73,2022-08-17 14:23:55.796875
1344,37.94,2022-08-17 14:23:55.812500
1345,39.77,2022-08-17 14:23:55.828125
1346,40.37,2022-08-17 14:23:55.843750
1347,40.0,2022-08-17 14:23:55.859375
1348,38.97,2022-08-17 14:23:55.875000
1349,37.57,2022-08-17 14:23:55.890625
1350,35.97,2022-08-17 14:23:55.906250
1351,34.31,2022-08-17 14:23:55.921875
1352,32.71,2022-08-17 14:23:55.937500
1353,31.28,2022-08-17 14:23:55.953125
1354,30.22,2022-08-17 14:23:55.968750
1355,29.64,2022-08-17 14:23:55.984375
1356,29.57,2022-08-17 14:23:56.000000
1357,29.89,2022-08-17 14:23:56.015625
1358,30.37,2022-08-17 14:23:56.031250
1359,30.71,2022-08-17 14:23:56.046875
1360,30.69,2022-08-17 14:23:56.062500
1361,30.13,2022-08-17 14:23:56.078125
1362,29.01,2022-08-17 14:23:56.093750
1363,27.4,2022-08-17 14:23:56.109375
1364,25.45,2022-08-17 14:23:56.125000
1365,23.33,2022-08-17 14:23:56.140625
1366,21.16,2022-08-17 14:23:56.156250
1367,18.97,2022-08-17 14:23:56.171875
1368,16.68,2022-08-17 14:23:56.187500
1369,14.17,2022-08-17 14:23:56.203125
1370,11.36,2022-08-17 14:23:56.218750
1371,8.23,2022-08-17 14:23:56.234375
1372,4.91,2022-08-17 14:23:56.250000
1373,1.53,2022-08-17 14:23:56.265625
1374,-1.81,2022-08-17 14:23:56.281250
1375,-5.13,2022-08-17 14:23:56.296875
1376,-8.55,2022-08-17 14:23:56.312500
1377,-12.2,2022-08-17 14:23:56.328125
1378,-16.07,2022-08-17 14:23:56.343750
1379,-20.01,2022-08-17 14:23:56.359375
1380,-23.8,2022-08-17 14:23:56.375000
1381,-27.2,2022-08-17 14:23:56.390625
1382,-30.15,2022-08-17 14:23:56.406250
1383,-32.78,2022-08-17 14:23:56.421875
1384,-35.35,2022-08-17 14:23:56.437500
1385,-38.19,2022-08-17 14:23:56.453125
1386,-41.58,2022-08-17 14:23:56.468750
1387,-45.67,2022-08-17 14:23:56.484375
1388,-50.42,2022-08-17 14:23:56.500000
1389,-55.5,2022-08-17 14:23:56.515625
1390,-60.25,2022-08-17 14:23:56.531250
1391,-63.74,2022-08-17 14:23:56.546875
1392,-64.92,2022-08-17 14:23:56.562500
1393,-62.97,2022-08-17 14:23:56.578125
1394,-57.55,2022-08-17 14:23:56.593750
1395,-48.97,2022-08-17 14:23:56.609375
1396,-38.12,2022-08-17 14:23:56.625000
1397,-26.2,2022-08-17 14:23:56.640625
1398,-14.37,2022-08-17 14:23:56.656250
1399,-3.46,2022-08-17 14:23:56.671875
1400,6.12,2022-08-17 14:23:56.687500
1401,14.34,2022-08-17 14:23:56.703125
1402,21.34,2022-08-17 14:23:56.718750
1403,27.24,2022-08-17 14:23:56.734375
1404,32.1,2022-08-17 14:23:56.750000
1405,35.88,2022-08-17 14:23:56.765625
1406,38.56,2022-08-17 14:23:56.781250
1407,40.13,2022-08-17 14:23:56.796875
1408,40.68,2022-08-17 14:23:56.812500
1409,40.35,2022-08-17 14:23:56.828125
1410,39.34,2022-08-17 14:23:56.843750
1411,37.88,2022-08-17 14:23:56.859375
1412,36.22,2022-08-17 14:23:56.875000
1413,34.59,2022-08-17 14:23:56.890625
1414,33.18,2022-08-17 14:23:56.906250
1415,32.14,2022-08-17 14:23:56.921875
1416,31.56,2022-08-17 14:23:56.937500
1417,31.46,2022-08-17 14:23:56.953125
1418,31.76,2022-08-17 14:23:56.968750
1419,32.35,2022-08-17 14:23:56.984375
1420,33.05,2022-08-17 14:23:57.000000
1421,33.61,2022-08-17 14:23:57.015625
1422,33.81,2022-08-17 14:23:57.031250
1423,33.48,2022-08-17 14:23:57.046875
1424,32.51,2022-08-17 14:23:57.062500
1425,30.94,2022-08-17 14:23:57.078125
1426,28.9,2022-08-17 14:23:57.093750
1427,26.59,2022-08-17 14:23:57.109375
1428,24.19,2022-08-17 14:23:57.125000
1429,21.82,2022-08-17 14:23:57.140625
1430,19.54,2022-08-17 14:23:57.156250
1431,17.31,2022-08-17 14:23:57.171875
1432,15.06,2022-08-17 14:23:57.187500
1433,12.71,2022-08-17 14:23:57.203125
1434,10.26,2022-08-17 14:23:57.218750
1435,7.72,2022-08-17 14:23:57.234375
1436,5.14,2022-08-17 14:23:57.250000
1437,2.56,2022-08-17 14:23:57.265625
1438,0.0,2022-08-17 14:23:57.281250
1439,-2.53,2022-08-17 14:23:57.296875
1440,-5.08,2022-08-17 14:23:57.312500
1441,-7.68,2022-08-17 14:23:57.328125
1442,-10.42,2022-08-17 14:23:57.343750
1443,-13.32,2022-08-17 14:23:57.359375
1444,-16.41,2022-08-17 14:23:57.375000
1445,-19.62,2022-08-17 14:23:57.390625
1446,-22.81,2022-08-17 14:23:57.406250
1447,-25.82,2022-08-17 14:23:57.421875
1448,-28.51,2022-08-17 14:23:57.437500
1449,-30.88,2022-08-17 14:23:57.453125
1450,-33.08,2022-08-17 14:23:57.468750
1451,-35.38,2022-08-17 14:23:57.484375
1452,-38.14,2022-08-17 14:23:57.500000
1453,-41.59,2022-08-17 14:23:57.515625
1454,-45.78,2022-08-17 14:23:57.531250
1455,-50.43,2022-08-17 14:23:57.546875
1456,-54.94,2022-08-17 14:23:57.562500
1457,-58.45,2022-08-17 14:23:57.578125
1458,-60.04,2022-08-17 14:23:57.593750
1459,-58.95,2022-08-17 14:23:57.609375
1460,-54.78,2022-08-17 14:23:57.625000
1461,-47.69,2022-08-17 14:23:57.640625
1462,-38.3,2022-08-17 14:23:57.656250
1463,-27.55,2022-08-17 14:23:57.671875
1464,-16.39,2022-08-17 14:23:57.687500
1465,-5.65,2022-08-17 14:23:57.703125
1466,4.15,2022-08-17 14:23:57.718750
1467,12.72,2022-08-17 14:23:57.734375
1468,19.9,2022-08-17 14:23:57.750000
1469,25.59,2022-08-17 14:23:57.765625
1470,29.79,2022-08-17 14:23:57.781250
1471,32.51,2022-08-17 14:23:57.796875
1472,33.97,2022-08-17 14:23:57.812500
1473,34.41,2022-08-17 14:23:57.828125
1474,34.16,2022-08-17 14:23:57.843750
1475,33.45,2022-08-17 14:23:57.859375
1476,32.44,2022-08-17 14:23:57.875000
1477,31.23,2022-08-17 14:23:57.890625
1478,29.9,2022-08-17 14:23:57.906250
1479,28.56,2022-08-17 14:23:57.921875
1480,27.42,2022-08-17 14:23:57.937500
1481,26.64,2022-08-17 14:23:57.953125
1482,26.36,2022-08-17 14:23:57.968750
1483,26.59,2022-08-17 14:23:57.984375
1484,27.25,2022-08-17 14:23:58.000000
1485,28.11,2022-08-17 14:23:58.015625
1486,28.92,2022-08-17 14:23:58.031250
1487,29.43,2022-08-17 14:23:58.046875
1488,29.42,2022-08-17 14:23:58.062500
1489,28.8,2022-08-17 14:23:58.078125
1490,27.6,2022-08-17 14:23:58.093750
1491,25.98,2022-08-17 14:23:58.109375
1492,24.18,2022-08-17 14:23:58.125000
1493,22.41,2022-08-17 14:23:58.140625
1494,20.74,2022-08-17 14:23:58.156250
1495,19.12,2022-08-17 14:23:58.171875
1496,17.4,2022-08-17 14:23:58.187500
1497,15.43,2022-08-17 14:23:58.203125
1498,13.15,2022-08-17 14:23:58.218750
1499,10.64,2022-08-17 14:23:58.234375
1500,8.07,2022-08-17 14:23:58.250000
1501,5.6,2022-08-17 14:23:58.265625
1502,3.33,2022-08-17 14:23:58.281250
1503,1.22,2022-08-17 14:23:58.296875
1504,-0.83,2022-08-17 14:23:58.312500
1505,-2.92,2022-08-17 14:23:58.328125
1506,-5.06,2022-08-17 14:23:58.343750
1507,-7.2,2022-08-17 14:23:58.359375
1508,-9.23,2022-08-17 14:23:58.375000
1509,-11.11,2022-08-17 14:23:58.390625
1510,-12.93,2022-08-17 14:23:58.406250
1511,-14.85,2022-08-17 14:23:58.421875
1512,-17.07,2022-08-17 14:23:58.437500
1513,-19.67,2022-08-17 14:23:58.453125
1514,-22.57,2022-08-17 14:23:58.468750
1515,-25.54,2022-08-17 14:23:58.484375
1516,-28.33,2022-08-17 14:23:58.500000
1517,-30.77,2022-08-17 14:23:58.515625
1518,-32.88,2022-08-17 14:23:58.531250
1519,-34.87,2022-08-17 14:23:58.546875
1520,-37.05,2022-08-17 14:23:58.562500
1521,-39.74,2022-08-17 14:23:58.578125
1522,-43.1,2022-08-17 14:23:58.593750
1523,-47.0,2022-08-17 14:23:58.609375
1524,-50.92,2022-08-17 14:23:58.625000
1525,-54.01,2022-08-17 14:23:58.640625
1526,-55.24,2022-08-17 14:23:58.656250
1527,-53.74,2022-08-17 14:23:58.671875
1528,-49.08,2022-08-17 14:23:58.687500
1529,-41.44,2022-08-17 14:23:58.703125
1530,-31.64,2022-08-17 14:23:58.718750
1531,-20.84,2022-08-17 14:23:58.734375
1532,-10.24,2022-08-17 14:23:58.750000
1533,-0.75,2022-08-17 14:23:58.765625
1534,7.14,2022-08-17 14:23:58.781250
1535,13.32,2022-08-17 14:23:58.796875
1536,17.88,2022-08-17 14:23:58.812500
1537,21.03,2022-08-17 14:23:58.828125
1538,22.97,2022-08-17 14:23:58.843750
1539,23.93,2022-08-17 14:23:58.859375
1540,24.13,2022-08-17 14:23:58.875000
1541,23.85,2022-08-17 14:23:58.890625
1542,23.32,2022-08-17 14:23:58.906250
1543,22.71,2022-08-17 14:23:58.921875
1544,22.08,2022-08-17 14:23:58.937500
1545,21.42,2022-08-17 14:23:58.953125
1546,20.66,2022-08-17 14:23:58.968750
1547,19.84,2022-08-17 14:23:58.984375
1548,19.06,2022-08-17 14:23:59.000000
1549,18.5,2022-08-17 14:23:59.015625
1550,18.32,2022-08-17 14:23:59.031250
1551,18.54,2022-08-17 14:23:59.046875
1552,19.05,2022-08-17 14:23:59.062500
1553,19.63,2022-08-17 14:23:59.078125
1554,20.05,2022-08-17 14:23:59.093750
1555,20.12,2022-08-17 14:23:59.109375
1556,19.79,2022-08-17 14:23:59.125000
1557,19.1,2022-08-17 14:23:59.140625
1558,18.18,2022-08-17 14:23:59.156250
1559,17.11,2022-08-17 14:23:59.171875
1560,15.93,2022-08-17 14:23:59.187500
1561,14.62,2022-08-17 14:23:59.203125
1562,13.16,2022-08-17 14:23:59.218750
1563,11.51,2022-08-17 14:23:59.234375
1564,9.64,2022-08-17 14:23:59.250000
1565,7.55,2022-08-17 14:23:59.265625
1566,5.27,2022-08-17 14:23:59.281250
1567,2.87,2022-08-17 14:23:59.296875
1568,0.41,2022-08-17 14:23:59.312500
1569,-2.01,2022-08-17 14:23:59.328125
1570,-4.38,2022-08-17 14:23:59.343750
1571,-6.71,2022-08-17 14:23:59.359375
1572,-9.12,2022-08-17 14:23:59.375000
1573,-11.69,2022-08-17 14:23:59.390625
1574,-14.41,2022-08-17 14:23:59.406250
1575,-17.21,2022-08-17 14:23:59.421875
1576,-19.94,2022-08-17 14:23:59.437500
1577,-22.44,2022-08-17 14:23:59.453125
1578,-24.68,2022-08-17 14:23:59.468750
1579,-26.72,2022-08-17 14:23:59.484375
1580,-28.7,2022-08-17 14:23:59.500000
1581,-30.81,2022-08-17 14:23:59.515625
1582,-33.22,2022-08-17 14:23:59.531250
1583,-36.03,2022-08-17 14:23:59.546875
1584,-39.24,2022-08-17 14:23:59.562500
1585,-42.61,2022-08-17 14:23:59.578125
1586,-45.57,2022-08-17 14:23:59.593750
1587,-47.27,2022-08-17 14:23:59.609375
1588,-46.81,2022-08-17 14:23:59.625000
1589,-43.56,2022-08-17 14:23:59.640625
1590,-37.45,2022-08-17 14:23:59.656250
1591,-29.08,2022-08-17 14:23:59.671875
1592,-19.51,2022-08-17 14:23:59.687500
1593,-9.9,2022-08-17 14:23:59.703125
1594,-1.19,2022-08-17 14:23:59.718750
1595,6.15,2022-08-17 14:23:59.734375
1596,12.02,2022-08-17 14:23:59.750000
1597,16.57,2022-08-17 14:23:59.765625
1598,20.0,2022-08-17 14:23:59.781250
1599,22.47,2022-08-17 14:23:59.796875
1600,24.06,2022-08-17 14:23:59.812500
1601,24.84,2022-08-17 14:23:59.828125
1602,24.9,2022-08-17 14:23:59.843750
1603,24.32,2022-08-17 14:23:59.859375
1604,23.23,2022-08-17 14:23:59.875000
1605,21.8,2022-08-17 14:23:59.890625
1606,20.22,2022-08-17 14:23:59.906250
1607,18.72,2022-08-17 14:23:59.921875
1608,17.48,2022-08-17 14:23:59.937500
1609,16.64,2022-08-17 14:23:59.953125
1610,16.23,2022-08-17 14:23:59.968750
1611,16.23,2022-08-17 14:23:59.984375
1612,16.52,2022-08-17 14:24:00.000000
1613,16.97,2022-08-17 14:24:00.015625
1614,17.45,2022-08-17 14:24:00.031250
1615,17.79,2022-08-17 14:24:00.046875
1616,17.84,2022-08-17 14:24:00.062500
1617,17.5,2022-08-17 14:24:00.078125
1618,16.78,2022-08-17 14:24:00.093750
1619,15.75,2022-08-17 14:24:00.109375
1620,14.51,2022-08-17 14:24:00.125000
1621,13.22,2022-08-17 14:24:00.140625
1622,11.91,2022-08-17 14:24:00.156250
1623,10.57,2022-08-17 14:24:00.171875
1624,9.08,2022-08-17 14:24:00.187500
1625,7.3,2022-08-17 14:24:00.203125
1626,5.16,2022-08-17 14:24:00.218750
1627,2.64,2022-08-17 14:24:00.234375
1628,-0.16,2022-08-17 14:24:00.250000
1629,-3.1,2022-08-17 14:24:00.265625
1630,-6.03,2022-08-17 14:24:00.281250
1631,-8.86,2022-08-17 14:24:00.296875
1632,-11.56,2022-08-17 14:24:00.312500
1633,-14.21,2022-08-17 14:24:00.328125
1634,-16.84,2022-08-17 14:24:00.343750
1635,-19.55,2022-08-17 14:24:00.359375
1636,-22.33,2022-08-17 14:24:00.375000
1637,-25.17,2022-08-17 14:24:00.390625
1638,-28.01,2022-08-17 14:24:00.406250
1639,-30.78,2022-08-17 14:24:00.421875
1640,-33.47,2022-08-17 14:24:00.437500
1641,-36.1,2022-08-17 14:24:00.453125
1642,-38.81,2022-08-17 14:24:00.468750
1643,-41.81,2022-08-17 14:24:00.484375
1644,-45.28,2022-08-17 14:24:00.500000
1645,-49.24,2022-08-17 14:24:00.515625
1646,-53.36,2022-08-17 14:24:00.531250
1647,-56.93,2022-08-17 14:24:00.546875
1648,-58.97,2022-08-17 14:24:00.562500
1649,-58.52,2022-08-17 14:24:00.578125
1650,-55.0,2022-08-17 14:24:00.593750
1651,-48.44,2022-08-17 14:24:00.609375
1652,-39.49,2022-08-17 14:24:00.625000
1653,-29.23,2022-08-17 14:24:00.640625
1654,-18.76,2022-08-17 14:24:00.656250
1655,-8.94,2022-08-17 14:24:00.671875
1656,-0.22,2022-08-17 14:24:00.687500
1657,7.25,2022-08-17 14:24:00.703125
1658,13.53,2022-08-17 14:24:00.718750
1659,18.68,2022-08-17 14:24:00.734375
1660,22.73,2022-08-17 14:24:00.750000
1661,25.72,2022-08-17 14:24:00.765625
1662,27.72,2022-08-17 14:24:00.781250
1663,28.88,2022-08-17 14:24:00.796875
1664,29.36,2022-08-17 14:24:00.812500
1665,29.29,2022-08-17 14:24:00.828125
1666,28.83,2022-08-17 14:24:00.843750
1667,28.07,2022-08-17 14:24:00.859375
1668,27.13,2022-08-17 14:24:00.875000
1669,26.13,2022-08-17 14:24:00.890625
1670,25.24,2022-08-17 14:24:00.906250
1671,24.58,2022-08-17 14:24:00.921875
1672,24.24,2022-08-17 14:24:00.937500
1673,24.27,2022-08-17 14:24:00.953125
1674,24.68,2022-08-17 14:24:00.968750
1675,25.39,2022-08-17 14:24:00.984375
1676,26.28,2022-08-17 14:24:01.000000
1677,27.11,2022-08-17 14:24:01.015625
1678,27.64,2022-08-17 14:24:01.031250
1679,27.62,2022-08-17 14:24:01.046875
1680,26.93,2022-08-17 14:24:01.062500
1681,25.65,2022-08-17 14:24:01.078125
1682,24.02,2022-08-17 14:24:01.093750
1683,22.31,2022-08-17 14:24:01.109375
1684,20.71,2022-08-17 14:24:01.125000
1685,19.19,2022-08-17 14:24:01.140625
1686,17.56,2022-08-17 14:24:01.156250
1687,15.59,2022-08-17 14:24:01.171875
1688,13.15,2022-08-17 14:24:01.187500
1689,10.31,2022-08-17 14:24:01.203125
1690,7.33,2022-08-17 14:24:01.218750
1691,4.47,2022-08-17 14:24:01.234375
1692,1.88,2022-08-17 14:24:01.250000
1693,-0.44,2022-08-17 14:24:01.265625
1694,-2.65,2022-08-17 14:24:01.281250
1695,-4.94,2022-08-17 14:24:01.296875
1696,-7.45,2022-08-17 14:24:01.312500
1697,-10.23,2022-08-17 14:24:01.328125
1698,-13.29,2022-08-17 14:24:01.343750
1699,-16.58,2022-08-17 14:24:01.359375
1700,-20.03,2022-08-17 14:24:01.375000
1701,-23.54,2022-08-17 14:24:01.390625
1702,-26.92,2022-08-17 14:24:01.406250
1703,-30.01,2022-08-17 14:24:01.421875
1704,-32.74,2022-08-17 14:24:01.437500
1705,-35.24,2022-08-17 14:24:01.453125
1706,-37.8,2022-08-17 14:24:01.468750
1707,-40.79,2022-08-17 14:24:01.484375
1708,-44.54,2022-08-17 14:24:01.500000
1709,-49.11,2022-08-17 14:24:01.515625
1710,-54.19,2022-08-17 14:24:01.531250
1711,-59.07,2022-08-17 14:24:01.546875
1712,-62.73,2022-08-17 14:24:01.562500
1713,-64.09,2022-08-17 14:24:01.578125
1714,-62.29,2022-08-17 14:24:01.593750
1715,-57.05,2022-08-17 14:24:01.609375
1716,-48.72,2022-08-17 14:24:01.625000
1717,-38.26,2022-08-17 14:24:01.640625
1718,-26.88,2022-08-17 14:24:01.656250
1719,-15.71,2022-08-17 14:24:01.671875
1720,-5.52,2022-08-17 14:24:01.687500
1721,3.39,2022-08-17 14:24:01.703125
1722,11.06,2022-08-17 14:24:01.718750
1723,17.65,2022-08-17 14:24:01.734375
1724,23.29,2022-08-17 14:24:01.750000
1725,27.96,2022-08-17 14:24:01.765625
1726,31.61,2022-08-17 14:24:01.781250
1727,34.21,2022-08-17 14:24:01.796875
1728,35.78,2022-08-17 14:24:01.812500
1729,36.43,2022-08-17 14:24:01.828125
1730,36.33,2022-08-17 14:24:01.843750
1731,35.67,2022-08-17 14:24:01.859375
1732,34.65,2022-08-17 14:24:01.875000
1733,33.46,2022-08-17 14:24:01.890625
1734,32.29,2022-08-17 14:24:01.906250
1735,31.29,2022-08-17 14:24:01.921875
1736,30.61,2022-08-17 14:24:01.937500
1737,30.34,2022-08-17 14:24:01.953125
1738,30.51,2022-08-17 14:24:01.968750
1739,31.1,2022-08-17 14:24:01.984375
1740,31.95,2022-08-17 14:24:02.000000
1741,32.83,2022-08-17 14:24:02.015625
1742,33.48,2022-08-17 14:24:02.031250
1743,33.64,2022-08-17 14:24:02.046875
1744,33.18,2022-08-17 14:24:02.062500
1745,32.11,2022-08-17 14:24:02.078125
1746,30.57,2022-08-17 14:24:02.093750
1747,28.76,2022-08-17 14:24:02.109375
1748,26.86,2022-08-17 14:24:02.125000
1749,24.91,2022-08-17 14:24:02.140625
1750,22.87,2022-08-17 14:24:02.156250
1751,20.67,2022-08-17 14:24:02.171875
1752,18.24,2022-08-17 14:24:02.187500
1753,15.62,2022-08-17 14:24:02.203125
1754,12.87,2022-08-17 14:24:02.218750
1755,10.13,2022-08-17 14:24:02.234375
1756,7.49,2022-08-17 14:24:02.250000
1757,5.03,2022-08-17 14:24:02.265625
1758,2.75,2022-08-17 14:24:02.281250
1759,0.62,2022-08-17 14:24:02.296875
1760,-1.47,2022-08-17 14:24:02.312500
1761,-3.65,2022-08-17 14:24:02.328125
1762,-6.07,2022-08-17 14:24:02.343750
1763,-8.85,2022-08-17 14:24:02.359375
1764,-12.03,2022-08-17 14:24:02.375000
1765,-15.51,2022-08-17 14:24:02.390625
1766,-19.13,2022-08-17 14:24:02.406250
1767,-22.65,2022-08-17 14:24:02.421875
1768,-25.88,2022-08-17 14:24:02.437500
1769,-28.76,2022-08-17 14:24:02.453125
1770,-31.35,2022-08-17 14:24:02.468750
1771,-33.86,2022-08-17 14:24:02.484375
1772,-36.57,2022-08-17 14:24:02.500000
1773,-39.75,2022-08-17 14:24:02.515625
1774,-43.56,2022-08-17 14:24:02.531250
1775,-47.98,2022-08-17 14:24:02.546875
1776,-52.71,2022-08-17 14:24:02.562500
1777,-57.1,2022-08-17 14:24:02.578125
1778,-60.28,2022-08-17 14:24:02.593750
1779,-61.27,2022-08-17 14:24:02.609375
1780,-59.35,2022-08-17 14:24:02.625000
1781,-54.24,2022-08-17 14:24:02.640625
1782,-46.28,2022-08-17 14:24:02.656250
1783,-36.33,2022-08-17 14:24:02.671875
1784,-25.5,2022-08-17 14:24:02.687500
1785,-14.81,2022-08-17 14:24:02.703125
1786,-4.95,2022-08-17 14:24:02.718750
1787,3.76,2022-08-17 14:24:02.734375
1788,11.3,2022-08-17 14:24:02.750000
1789,17.72,2022-08-17 14:24:02.765625
1790,23.03,2022-08-17 14:24:02.781250
1791,27.16,2022-08-17 14:24:02.796875
1792,30.02,2022-08-17 14:24:02.812500
1793,31.64,2022-08-17 14:24:02.828125
1794,32.2,2022-08-17 14:24:02.843750
1795,31.99,2022-08-17 14:24:02.859375
1796,31.36,2022-08-17 14:24:02.875000
1797,30.56,2022-08-17 14:24:02.890625
1798,29.76,2022-08-17 14:24:02.906250
1799,29.02,2022-08-17 14:24:02.921875
1800,28.38,2022-08-17 14:24:02.937500
1801,27.87,2022-08-17 14:24:02.953125
1802,27.58,2022-08-17 14:24:02.968750
1803,27.63,2022-08-17 14:24:02.984375
1804,28.1,2022-08-17 14:24:03.000000
1805,29.01,2022-08-17 14:24:03.015625
1806,30.21,2022-08-17 14:24:03.031250
1807,31.41,2022-08-17 14:24:03.046875
1808,32.22,2022-08-17 14:24:03.062500
1809,32.3,2022-08-17 14:24:03.078125
1810,31.43,2022-08-17 14:24:03.093750
1811,29.71,2022-08-17 14:24:03.109375
1812,27.44,2022-08-17 14:24:03.125000
1813,25.04,2022-08-17 14:24:03.140625
1814,22.86,2022-08-17 14:24:03.156250
1815,20.96,2022-08-17 14:24:03.171875
1816,19.17,2022-08-17 14:24:03.187500
1817,17.19,2022-08-17 14:24:03.203125
1818,14.81,2022-08-17 14:24:03.218750
1819,12.04,2022-08-17 14:24:03.234375
1820,9.11,2022-08-17 14:24:03.250000
1821,6.33,2022-08-17 14:24:03.265625
1822,3.93,2022-08-17 14:24:03.281250
1823,1.85,2022-08-17 14:24:03.296875
1824,-0.13,2022-08-17 14:24:03.312500
1825,-2.29,2022-08-17 14:24:03.328125
1826,-4.8,2022-08-17 14:24:03.343750
1827,-7.66,2022-08-17 14:24:03.359375
1828,-10.69,2022-08-17 14:24:03.375000
1829,-13.67,2022-08-17 14:24:03.390625
1830,-16.45,2022-08-17 14:24:03.406250
1831,-18.99,2022-08-17 14:24:03.421875
1832,-21.36,2022-08-17 14:24:03.437500
1833,-23.69,2022-08-17 14:24:03.453125
1834,-26.05,2022-08-17 14:24:03.468750
1835,-28.45,2022-08-17 14:24:03.484375
1836,-30.94,2022-08-17 14:24:03.500000
1837,-33.6,2022-08-17 14:24:03.515625
1838,-36.56,2022-08-17 14:24:03.531250
1839,-39.9,2022-08-17 14:24:03.546875
1840,-43.46,2022-08-17 14:24:03.562500
1841,-46.72,2022-08-17 14:24:03.578125
1842,-48.81,2022-08-17 14:24:03.593750
1843,-48.8,2022-08-17 14:24:03.609375
1844,-46.0,2022-08-17 14:24:03.625000
1845,-40.33,2022-08-17 14:24:03.640625
1846,-32.39,2022-08-17 14:24:03.656250
1847,-23.18,2022-08-17 14:24:03.671875
1848,-13.81,2022-08-17 14:24:03.687500
1849,-5.06,2022-08-17 14:24:03.703125
1850,2.7,2022-08-17 14:24:03.718750
1851,9.42,2022-08-17 14:24:03.734375
1852,15.15,2022-08-17 14:24:03.750000
1853,19.83,2022-08-17 14:24:03.765625
1854,23.29,2022-08-17 14:24:03.781250
1855,25.38,2022-08-17 14:24:03.796875
1856,26.1,2022-08-17 14:24:03.812500
1857,25.74,2022-08-17 14:24:03.828125
1858,24.76,2022-08-17 14:24:03.843750
1859,23.6,2022-08-17 14:24:03.859375
1860,22.62,2022-08-17 14:24:03.875000
1861,21.94,2022-08-17 14:24:03.890625
1862,21.51,2022-08-17 14:24:03.906250
1863,21.25,2022-08-17 14:24:03.921875
1864,21.08,2022-08-17 14:24:03.937500
1865,21.02,2022-08-17 14:24:03.953125
1866,21.09,2022-08-17 14:24:03.968750
1867,21.3,2022-08-17 14:24:03.984375
1868,21.61,2022-08-17 14:24:04.000000
1869,21.93,2022-08-17 14:24:04.015625
1870,22.17,2022-08-17 14:24:04.031250
1871,22.25,2022-08-17 14:24:04.046875
1872,22.09,2022-08-17 14:24:04.062500
1873,21.63,2022-08-17 14:24:04.078125
1874,20.79,2022-08-17 14:24:04.093750
1875,19.52,2022-08-17 14:24:04.109375
1876,17.84,2022-08-17 14:24:04.125000
1877,15.84,2022-08-17 14:24:04.140625
1878,13.64,2022-08-17 14:24:04.156250
1879,11.37,2022-08-17 14:24:04.171875
1880,9.07,2022-08-17 14:24:04.187500
1881,6.73,2022-08-17 14:24:04.203125
1882,4.29,2022-08-17 14:24:04.218750
1883,1.69,2022-08-17 14:24:04.234375
1884,-1.11,2022-08-17 14:24:04.250000
1885,-4.06,2022-08-17 14:24:04.265625
1886,-7.17,2022-08-17 14:24:04.281250
1887,-10.39,2022-08-17 14:24:04.296875
1888,-13.66,2022-08-17 14:24:04.312500
1889,-16.87,2022-08-17 14:24:04.328125
1890,-19.87,2022-08-17 14:24:04.343750
1891,-22.57,2022-08-17 14:24:04.359375
1892,-24.96,2022-08-17 14:24:04.375000
1893,-27.19,2022-08-17 14:24:04.390625
1894,-29.49,2022-08-17 14:24:04.406250
1895,-32.17,2022-08-17 14:24:04.421875
1896,-35.42,2022-08-17 14:24:04.437500
1897,-39.3,2022-08-17 14:24:04.453125
1898,-43.52,2022-08-17 14:24:04.468750
1899,-47.52,2022-08-17 14:24:04.484375
1900,-50.49,2022-08-17 14:24:04.500000
1901,-51.52,2022-08-17 14:24:04.515625
1902,-49.9,2022-08-17 14:24:04.531250
1903,-45.35,2022-08-17 14:24:04.546875
1904,-38.16,2022-08-17 14:24:04.562500
1905,-29.11,2022-08-17 14:24:04.578125
1906,-19.25,2022-08-17 14:24:04.593750
1907,-9.59,2022-08-17 14:24:04.609375
1908,-0.86,2022-08-17 14:24:04.625000
1909,6.59,2022-08-17 14:24:04.640625
1910,12.76,2022-08-17 14:24:04.656250
1911,17.79,2022-08-17 14:24:04.671875
1912,21.79,2022-08-17 14:24:04.687500
1913,24.83,2022-08-17 14:24:04.703125
1914,26.91,2022-08-17 14:24:04.718750
1915,28.06,2022-08-17 14:24:04.734375
1916,28.37,2022-08-17 14:24:04.750000
1917,28.04,2022-08-17 14:24:04.765625
1918,27.34,2022-08-17 14:24:04.781250
1919,26.56,2022-08-17 14:24:04.796875
1920,25.89,2022-08-17 14:24:04.812500
1921,25.44,2022-08-17 14:24:04.828125
1922,25.22,2022-08-17 14:24:04.843750
1923,25.22,2022-08-17 14:24:04.859375
1924,25.39,2022-08-17 14:24:04.875000
1925,25.69,2022-08-17 14:24:04.890625
1926,26.06,2022-08-17 14:24:04.906250
1927,26.39,2022-08-17 14:24:04.921875
1928,26.54,2022-08-17 14:24:04.937500
1929,26.33,2022-08-17 14:24:04.953125
1930,25.66,2022-08-17 14:24:04.968750
1931,24.51,2022-08-17 14:24:04.984375
1932,22.97,2022-08-17 14:24:05.000000
1933,21.24,2022-08-17 14:24:05.015625
1934,19.54,2022-08-17 14:24:05.031250
1935,17.98,2022-08-17 14:24:05.046875
1936,16.55,2022-08-17 14:24:05.062500
1937,15.11,2022-08-17 14:24:05.078125
1938,13.48,2022-08-17 14:24:05.093750
1939,11.52,2022-08-17 14:24:05.109375
1940,9.25,2022-08-17 14:24:05.125000
1941,6.77,2022-08-17 14:24:05.140625
1942,4.23,2022-08-17 14:24:05.156250
1943,1.73,2022-08-17 14:24:05.171875
1944,-0.77,2022-08-17 14:24:05.187500
1945,-3.42,2022-08-17 14:24:05.203125
1946,-6.37,2022-08-17 14:24:05.218750
1947,-9.7,2022-08-17 14:24:05.234375
1948,-13.29,2022-08-17 14:24:05.250000
1949,-16.91,2022-08-17 14:24:05.265625
1950,-20.3,2022-08-17 14:24:05.281250
1951,-23.29,2022-08-17 14:24:05.296875
1952,-25.89,2022-08-17 14:24:05.312500
1953,-28.27,2022-08-17 14:24:05.328125
1954,-30.69,2022-08-17 14:24:05.343750
1955,-33.39,2022-08-17 14:24:05.359375
1956,-36.61,2022-08-17 14:24:05.375000
1957,-40.45,2022-08-17 14:24:05.390625
1958,-44.81,2022-08-17 14:24:05.406250
1959,-49.29,2022-08-17 14:24:05.421875
1960,-53.2,2022-08-17 14:24:05.437500
1961,-55.6,2022-08-17 14:24:05.453125
1962,-55.57,2022-08-17 14:24:05.468750
1963,-52.54,2022-08-17 14:24:05.484375
1964,-46.5,2022-08-17 14:24:05.500000
1965,-38.09,2022-08-17 14:24:05.515625
1966,-28.35,2022-08-17 14:24:05.531250
1967,-18.38,2022-08-17 14:24:05.546875
1968,-9.0,2022-08-17 14:24:05.562500
1969,-0.64,2022-08-17 14:24:05.578125
1970,6.66,2022-08-17 14:24:05.593750
1971,13.03,2022-08-17 14:24:05.609375
1972,18.58,2022-08-17 14:24:05.625000
1973,23.28,2022-08-17 14:24:05.640625
1974,27.04,2022-08-17 14:24:05.656250
1975,29.79,2022-08-17 14:24:05.671875
1976,31.52,2022-08-17 14:24:05.687500
1977,32.36,2022-08-17 14:24:05.703125
1978,32.52,2022-08-17 14:24:05.718750
1979,32.2,2022-08-17 14:24:05.734375
1980,31.61,2022-08-17 14:24:05.750000
1981,30.9,2022-08-17 14:24:05.765625
1982,30.19,2022-08-17 14:24:05.781250
1983,29.57,2022-08-17 14:24:05.796875
1984,29.15,2022-08-17 14:24:05.812500
1985,29.01,2022-08-17 14:24:05.828125
1986,29.2,2022-08-17 14:24:05.843750
1987,29.71,2022-08-17 14:24:05.859375
1988,30.44,2022-08-17 14:24:05.875000
1989,31.2,2022-08-17 14:24:05.890625
1990,31.75,2022-08-17 14:24:05.906250
1991,31.88,2022-08-17 14:24:05.921875
1992,31.44,2022-08-17 14:24:05.937500
1993,30.38,2022-08-17 14:24:05.953125
1994,28.8,2022-08-17 14:24:05.968750
1995,26.9,2022-08-17 14:24:05.984375
1996,24.89,2022-08-17 14:24:06.000000
1997,22.96,2022-08-17 14:24:06.015625
1998,21.18,2022-08-17 14:24:06.031250
1999,19.5,2022-08-17 14:24:06.046875
2000,17.76,2022-08-17 14:24:06.062500
2001,15.82,2022-08-17 14:24:06.078125
2002,13.6,2022-08-17 14:24:06.093750
2003,11.08,2022-08-17 14:24:06.109375
2004,8.36,2022-08-17 14:24:06.125000
2005,5.5,2022-08-17 14:24:06.140625
2006,2.63,2022-08-17 14:24:06.156250
2007,-0.19,2022-08-17 14:24:06.171875
2008,-2.85,2022-08-17 14:24:06.187500
2009,-5.3,2022-08-17 14:24:06.203125
2010,-7.51,2022-08-17 14:24:06.218750
2011,-9.63,2022-08-17 14:24:06.234375
2012,-11.85,2022-08-17 14:24:06.250000
2013,-14.38,2022-08-17 14:24:06.265625
2014,-17.29,2022-08-17 14:24:06.281250
2015,-20.46,2022-08-17 14:24:06.296875
2016,-23.6,2022-08-17 14:24:06.312500
2017,-26.42,2022-08-17 14:24:06.328125
2018,-28.79,2022-08-17 14:24:06.343750
2019,-30.81,2022-08-17 14:24:06.359375
2020,-32.8,2022-08-17 14:24:06.375000
2021,-35.12,2022-08-17 14:24:06.390625
2022,-38.03,2022-08-17 14:24:06.406250
2023,-41.66,2022-08-17 14:24:06.421875
2024,-45.93,2022-08-17 14:24:06.437500
2025,-50.53,2022-08-17 14:24:06.453125
2026,-54.87,2022-08-17 14:24:06.468750
2027,-58.1,2022-08-17 14:24:06.484375
2028,-59.24,2022-08-17 14:24:06.500000
2029,-57.52,2022-08-17 14:24:06.515625
2030,-52.63,2022-08-17 14:24:06.531250
2031,-44.92,2022-08-17 14:24:06.546875
2032,-35.32,2022-08-17 14:24:06.562500
2033,-25.01,2022-08-17 14:24:06.578125
2034,-15.03,2022-08-17 14:24:06.593750
2035,-6.04,2022-08-17 14:24:06.609375
2036,1.76,2022-08-17 14:24:06.625000
2037,8.42,2022-08-17 14:24:06.640625
2038,14.11,2022-08-17 14:24:06.656250
2039,18.94,2022-08-17 14:24:06.671875
2040,22.96,2022-08-17 14:24:06.687500
2041,26.17,2022-08-17 14:24:06.703125
2042,28.6,2022-08-17 14:24:06.718750
2043,30.22,2022-08-17 14:24:06.734375
2044,31.07,2022-08-17 14:24:06.750000
2045,31.17,2022-08-17 14:24:06.765625
2046,30.62,2022-08-17 14:24:06.781250
2047,29.62,2022-08-17 14:24:06.796875
2048,28.45,2022-08-17 14:24:06.812500
2049,27.4,2022-08-17 14:24:06.828125
2050,26.71,2022-08-17 14:24:06.843750
2051,26.49,2022-08-17 14:24:06.859375
2052,26.74,2022-08-17 14:24:06.875000
2053,27.34,2022-08-17 14:24:06.890625
2054,28.15,2022-08-17 14:24:06.906250
2055,28.97,2022-08-17 14:24:06.921875
2056,29.62,2022-08-17 14:24:06.937500
2057,29.9,2022-08-17 14:24:06.953125
2058,29.66,2022-08-17 14:24:06.968750
2059,28.83,2022-08-17 14:24:06.984375
2060,27.47,2022-08-17 14:24:07.000000
2061,25.73,2022-08-17 14:24:07.015625
2062,23.87,2022-08-17 14:24:07.031250
2063,22.08,2022-08-17 14:24:07.046875
2064,20.48,2022-08-17 14:24:07.062500
2065,19.04,2022-08-17 14:24:07.078125
2066,17.62,2022-08-17 14:24:07.093750
2067,16.06,2022-08-17 14:24:07.109375
2068,14.25,2022-08-17 14:24:07.125000
2069,12.14,2022-08-17 14:24:07.140625
2070,9.76,2022-08-17 14:24:07.156250
2071,7.2,2022-08-17 14:24:07.171875
2072,4.53,2022-08-17 14:24:07.187500
2073,1.8,2022-08-17 14:24:07.203125
2074,-0.9,2022-08-17 14:24:07.218750
2075,-3.46,2022-08-17 14:24:07.234375
2076,-5.79,2022-08-17 14:24:07.250000
2077,-7.84,2022-08-17 14:24:07.265625
2078,-9.65,2022-08-17 14:24:07.281250
2079,-11.4,2022-08-17 14:24:07.296875
2080,-13.31,2022-08-17 14:24:07.312500
2081,-15.58,2022-08-17 14:24:07.328125
2082,-18.27,2022-08-17 14:24:07.343750
2083,-21.28,2022-08-17 14:24:07.359375
2084,-24.34,2022-08-17 14:24:07.375000
2085,-27.15,2022-08-17 14:24:07.390625
2086,-29.55,2022-08-17 14:24:07.406250
2087,-31.58,2022-08-17 14:24:07.421875
2088,-33.49,2022-08-17 14:24:07.437500
2089,-35.69,2022-08-17 14:24:07.453125
2090,-38.52,2022-08-17 14:24:07.468750
2091,-42.19,2022-08-17 14:24:07.484375
2092,-46.54,2022-08-17 14:24:07.500000
2093,-51.09,2022-08-17 14:24:07.515625
2094,-54.98,2022-08-17 14:24:07.531250
2095,-57.22,2022-08-17 14:24:07.546875
2096,-56.93,2022-08-17 14:24:07.562500
2097,-53.66,2022-08-17 14:24:07.578125
2098,-47.56,2022-08-17 14:24:07.593750
2099,-39.36,2022-08-17 14:24:07.609375
2100,-30.09,2022-08-17 14:24:07.625000
2101,-20.76,2022-08-17 14:24:07.640625
2102,-12.09,2022-08-17 14:24:07.656250
2103,-4.38,2022-08-17 14:24:07.671875
2104,2.38,2022-08-17 14:24:07.687500
2105,8.34,2022-08-17 14:24:07.703125
2106,13.61,2022-08-17 14:24:07.718750
2107,18.16,2022-08-17 14:24:07.734375
2108,21.92,2022-08-17 14:24:07.750000
2109,24.81,2022-08-17 14:24:07.765625
2110,26.81,2022-08-17 14:24:07.781250
2111,27.94,2022-08-17 14:24:07.796875
2112,28.28,2022-08-17 14:24:07.812500
2113,27.92,2022-08-17 14:24:07.828125
2114,27.03,2022-08-17 14:24:07.843750
2115,25.82,2022-08-17 14:24:07.859375
2116,24.55,2022-08-17 14:24:07.875000
2117,23.48,2022-08-17 14:24:07.890625
2118,22.83,2022-08-17 14:24:07.906250
2119,22.7,2022-08-17 14:24:07.921875
2120,23.06,2022-08-17 14:24:07.937500
2121,23.79,2022-08-17 14:24:07.953125
2122,24.73,2022-08-17 14:24:07.968750
2123,25.65,2022-08-17 14:24:07.984375
2124,26.41,2022-08-17 14:24:08.000000
2125,26.85,2022-08-17 14:24:08.015625
2126,26.86,2022-08-17 14:24:08.031250
2127,26.39,2022-08-17 14:24:08.046875
2128,25.41,2022-08-17 14:24:08.062500
2129,24.0,2022-08-17 14:24:08.078125
2130,22.27,2022-08-17 14:24:08.093750
2131,20.4,2022-08-17 14:24:08.109375
2132,18.51,2022-08-17 14:24:08.125000
2133,16.68,2022-08-17 14:24:08.140625
2134,14.89,2022-08-17 14:24:08.156250
2135,13.06,2022-08-17 14:24:08.171875
2136,11.1,2022-08-17 14:24:08.187500
2137,8.99,2022-08-17 14:24:08.203125
2138,6.8,2022-08-17 14:24:08.218750
2139,4.57,2022-08-17 14:24:08.234375
2140,2.37,2022-08-17 14:24:08.250000
2141,0.2,2022-08-17 14:24:08.265625
2142,-1.94,2022-08-17 14:24:08.281250
2143,-4.07,2022-08-17 14:24:08.296875
2144,-6.16,2022-08-17 14:24:08.312500
2145,-8.19,2022-08-17 14:24:08.328125
2146,-10.16,2022-08-17 14:24:08.343750
2147,-12.11,2022-08-17 14:24:08.359375
2148,-14.17,2022-08-17 14:24:08.375000
2149,-16.42,2022-08-17 14:24:08.390625
2150,-18.91,2022-08-17 14:24:08.406250
2151,-21.58,2022-08-17 14:24:08.421875
2152,-24.3,2022-08-17 14:24:08.437500
2153,-26.88,2022-08-17 14:24:08.453125
2154,-29.2,2022-08-17 14:24:08.468750
2155,-31.25,2022-08-17 14:24:08.484375
2156,-33.2,2022-08-17 14:24:08.500000
2157,-35.34,2022-08-17 14:24:08.515625
2158,-38.01,2022-08-17 14:24:08.531250
2159,-41.38,2022-08-17 14:24:08.546875
2160,-45.33,2022-08-17 14:24:08.562500
2161,-49.32,2022-08-17 14:24:08.578125
2162,-52.5,2022-08-17 14:24:08.593750
2163,-53.88,2022-08-17 14:24:08.609375
2164,-52.67,2022-08-17 14:24:08.625000
2165,-48.55,2022-08-17 14:24:08.640625
2166,-41.8,2022-08-17 14:24:08.656250
2167,-33.18,2022-08-17 14:24:08.671875
2168,-23.75,2022-08-17 14:24:08.687500
2169,-14.44,2022-08-17 14:24:08.703125
2170,-5.91,2022-08-17 14:24:08.718750
2171,1.59,2022-08-17 14:24:08.734375
2172,8.06,2022-08-17 14:24:08.750000
2173,13.6,2022-08-17 14:24:08.765625
2174,18.22,2022-08-17 14:24:08.781250
2175,21.85,2022-08-17 14:24:08.796875
2176,24.41,2022-08-17 14:24:08.812500
2177,25.87,2022-08-17 14:24:08.828125
2178,26.4,2022-08-17 14:24:08.843750
2179,26.26,2022-08-17 14:24:08.859375
2180,25.73,2022-08-17 14:24:08.875000
2181,25.05,2022-08-17 14:24:08.890625
2182,24.35,2022-08-17 14:24:08.906250
2183,23.68,2022-08-17 14:24:08.921875
2184,23.07,2022-08-17 14:24:08.937500
2185,22.55,2022-08-17 14:24:08.953125
2186,22.2,2022-08-17 14:24:08.968750
2187,22.15,2022-08-17 14:24:08.984375
2188,22.46,2022-08-17 14:24:09.000000
2189,23.14,2022-08-17 14:24:09.015625
2190,24.08,2022-08-17 14:24:09.031250
2191,25.04,2022-08-17 14:24:09.046875
2192,25.75,2022-08-17 14:24:09.062500
2193,25.94,2022-08-17 14:24:09.078125
2194,25.46,2022-08-17 14:24:09.093750
2195,24.31,2022-08-17 14:24:09.109375
2196,22.67,2022-08-17 14:24:09.125000
2197,20.8,2022-08-17 14:24:09.140625
2198,18.92,2022-08-17 14:24:09.156250
2199,17.14,2022-08-17 14:24:09.171875
2200,15.4,2022-08-17 14:24:09.187500
2201,13.56,2022-08-17 14:24:09.203125
2202,11.48,2022-08-17 14:24:09.218750
2203,9.16,2022-08-17 14:24:09.234375
2204,6.69,2022-08-17 14:24:09.250000
2205,4.24,2022-08-17 14:24:09.265625
2206,1.92,2022-08-17 14:24:09.281250
2207,-0.24,2022-08-17 14:24:09.296875
2208,-2.36,2022-08-17 14:24:09.312500
2209,-4.61,2022-08-17 14:24:09.328125
2210,-7.08,2022-08-17 14:24:09.343750
2211,-9.78,2022-08-17 14:24:09.359375
2212,-12.6,2022-08-17 14:24:09.375000
2213,-15.4,2022-08-17 14:24:09.390625
2214,-18.06,2022-08-17 14:24:09.406250
2215,-20.55,2022-08-17 14:24:09.421875
2216,-22.87,2022-08-17 14:24:09.437500
2217,-25.05,2022-08-17 14:24:09.453125
2218,-27.2,2022-08-17 14:24:09.468750
2219,-29.45,2022-08-17 14:24:09.484375
2220,-31.99,2022-08-17 14:24:09.500000
2221,-35.01,2022-08-17 14:24:09.515625
2222,-38.62,2022-08-17 14:24:09.531250
2223,-42.67,2022-08-17 14:24:09.546875
2224,-46.69,2022-08-17 14:24:09.562500
2225,-49.88,2022-08-17 14:24:09.578125
2226,-51.27,2022-08-17 14:24:09.593750
2227,-50.02,2022-08-17 14:24:09.609375
2228,-45.73,2022-08-17 14:24:09.625000
2229,-38.63,2022-08-17 14:24:09.640625
2230,-29.57,2022-08-17 14:24:09.656250
2231,-19.73,2022-08-17 14:24:09.671875
2232,-10.26,2022-08-17 14:24:09.687500
2233,-1.91,2022-08-17 14:24:09.703125
2234,5.07,2022-08-17 14:24:09.718750
2235,10.87,2022-08-17 14:24:09.734375
2236,15.8,2022-08-17 14:24:09.750000
2237,20.02,2022-08-17 14:24:09.765625
2238,23.46,2022-08-17 14:24:09.781250
2239,25.9,2022-08-17 14:24:09.796875
2240,27.22,2022-08-17 14:24:09.812500
2241,27.5,2022-08-17 14:24:09.828125
2242,27.08,2022-08-17 14:24:09.843750
2243,26.4,2022-08-17 14:24:09.859375
2244,25.75,2022-08-17 14:24:09.875000
2245,25.28,2022-08-17 14:24:09.890625
2246,24.9,2022-08-17 14:24:09.906250
2247,24.55,2022-08-17 14:24:09.921875
2248,24.21,2022-08-17 14:24:09.937500
2249,24.01,2022-08-17 14:24:09.953125
2250,24.13,2022-08-17 14:24:09.968750
2251,24.65,2022-08-17 14:24:09.984375
2252,25.49,2022-08-17 14:24:10.000000
2253,26.36,2022-08-17 14:24:10.015625
2254,26.87,2022-08-17 14:24:10.031250
2255,26.71,2022-08-17 14:24:10.046875
2256,25.76,2022-08-17 14:24:10.062500
2257,24.11,2022-08-17 14:24:10.078125
2258,22.09,2022-08-17 14:24:10.093750
2259,20.05,2022-08-17 14:24:10.109375
2260,18.26,2022-08-17 14:24:10.125000
2261,16.79,2022-08-17 14:24:10.140625
2262,15.49,2022-08-17 14:24:10.156250
2263,14.08,2022-08-17 14:24:10.171875
2264,12.27,2022-08-17 14:24:10.187500
2265,9.91,2022-08-17 14:24:10.203125
2266,7.07,2022-08-17 14:24:10.218750
2267,3.96,2022-08-17 14:24:10.234375
2268,0.87,2022-08-17 14:24:10.250000
2269,-1.96,2022-08-17 14:24:10.265625
2270,-4.43,2022-08-17 14:24:10.281250
2271,-6.59,2022-08-17 14:24:10.296875
2272,-8.65,2022-08-17 14:24:10.312500
2273,-10.86,2022-08-17 14:24:10.328125
2274,-13.43,2022-08-17 14:24:10.343750
2275,-16.45,2022-08-17 14:24:10.359375
2276,-19.85,2022-08-17 14:24:10.375000
2277,-23.39,2022-08-17 14:24:10.390625
2278,-26.78,2022-08-17 14:24:10.406250
2279,-29.77,2022-08-17 14:24:10.421875
2280,-32.34,2022-08-17 14:24:10.437500
2281,-34.62,2022-08-17 14:24:10.453125
2282,-36.95,2022-08-17 14:24:10.468750
2283,-39.71,2022-08-17 14:24:10.484375
2284,-43.2,2022-08-17 14:24:10.500000
2285,-47.43,2022-08-17 14:24:10.515625
2286,-52.08,2022-08-17 14:24:10.531250
2287,-56.51,2022-08-17 14:24:10.546875
2288,-59.8,2022-08-17 14:24:10.562500
2289,-61.01,2022-08-17 14:24:10.578125
2290,-59.39,2022-08-17 14:24:10.593750
2291,-54.68,2022-08-17 14:24:10.609375
2292,-47.2,2022-08-17 14:24:10.625000
2293,-37.76,2022-08-17 14:24:10.640625
2294,-27.39,2022-08-17 14:24:10.656250
2295,-17.11,2022-08-17 14:24:10.671875
2296,-7.62,2022-08-17 14:24:10.687500
2297,0.72,2022-08-17 14:24:10.703125
2298,7.8,2022-08-17 14:24:10.718750
2299,13.69,2022-08-17 14:24:10.734375
2300,18.5,2022-08-17 14:24:10.750000
2301,22.37,2022-08-17 14:24:10.765625
2302,25.47,2022-08-17 14:24:10.781250
2303,27.95,2022-08-17 14:24:10.796875
2304,29.85,2022-08-17 14:24:10.812500
2305,31.14,2022-08-17 14:24:10.828125
2306,31.69,2022-08-17 14:24:10.843750
2307,31.45,2022-08-17 14:24:10.859375
2308,30.54,2022-08-17 14:24:10.875000
2309,29.25,2022-08-17 14:24:10.890625
2310,27.96,2022-08-17 14:24:10.906250
2311,27.01,2022-08-17 14:24:10.921875
2312,26.58,2022-08-17 14:24:10.937500
2313,26.71,2022-08-17 14:24:10.953125
2314,27.29,2022-08-17 14:24:10.968750
2315,28.15,2022-08-17 14:24:10.984375
2316,29.09,2022-08-17 14:24:11.000000
2317,29.85,2022-08-17 14:24:11.015625
2318,30.17,2022-08-17 14:24:11.031250
2319,29.82,2022-08-17 14:24:11.046875
2320,28.75,2022-08-17 14:24:11.062500
2321,27.08,2022-08-17 14:24:11.078125
2322,25.08,2022-08-17 14:24:11.093750
2323,23.09,2022-08-17 14:24:11.109375
2324,21.28,2022-08-17 14:24:11.125000
2325,19.66,2022-08-17 14:24:11.140625
2326,18.03,2022-08-17 14:24:11.156250
2327,16.14,2022-08-17 14:24:11.171875
2328,13.8,2022-08-17 14:24:11.187500
2329,10.98,2022-08-17 14:24:11.203125
2330,7.78,2022-08-17 14:24:11.218750
2331,4.41,2022-08-17 14:24:11.234375
2332,1.08,2022-08-17 14:24:11.250000
2333,-2.08,2022-08-17 14:24:11.265625
2334,-5.07,2022-08-17 14:24:11.281250
2335,-8.02,2022-08-17 14:24:11.296875
2336,-11.12,2022-08-17 14:24:11.312500
2337,-14.49,2022-08-17 14:24:11.328125
2338,-18.12,2022-08-17 14:24:11.343750
2339,-21.89,2022-08-17 14:24:11.359375
2340,-25.53,2022-08-17 14:24:11.375000
2341,-28.83,2022-08-17 14:24:11.390625
2342,-31.69,2022-08-17 14:24:11.406250
2343,-34.16,2022-08-17 14:24:11.421875
2344,-36.48,2022-08-17 14:24:11.437500
2345,-38.96,2022-08-17 14:24:11.453125
2346,-41.94,2022-08-17 14:24:11.468750
2347,-45.68,2022-08-17 14:24:11.484375
2348,-50.26,2022-08-17 14:24:11.500000
2349,-55.41,2022-08-17 14:24:11.515625
2350,-60.47,2022-08-17 14:24:11.531250
2351,-64.4,2022-08-17 14:24:11.546875
2352,-66.06,2022-08-17 14:24:11.562500
2353,-64.52,2022-08-17 14:24:11.578125
2354,-59.43,2022-08-17 14:24:11.593750
2355,-51.2,2022-08-17 14:24:11.609375
2356,-40.84,2022-08-17 14:24:11.625000
2357,-29.6,2022-08-17 14:24:11.640625
2358,-18.62,2022-08-17 14:24:11.656250
2359,-8.63,2022-08-17 14:24:11.671875
2360,0.13,2022-08-17 14:24:11.687500
2361,7.7,2022-08-17 14:24:11.703125
2362,14.24,2022-08-17 14:24:11.718750
2363,19.82,2022-08-17 14:24:11.734375
2364,24.4,2022-08-17 14:24:11.750000
2365,27.87,2022-08-17 14:24:11.765625
2366,30.16,2022-08-17 14:24:11.781250
2367,31.31,2022-08-17 14:24:11.796875
2368,31.51,2022-08-17 14:24:11.812500
2369,31.04,2022-08-17 14:24:11.828125
2370,30.21,2022-08-17 14:24:11.843750
2371,29.33,2022-08-17 14:24:11.859375
2372,28.65,2022-08-17 14:24:11.875000
2373,28.29,2022-08-17 14:24:11.890625
2374,28.34,2022-08-17 14:24:11.906250
2375,28.77,2022-08-17 14:24:11.921875
2376,29.52,2022-08-17 14:24:11.937500
2377,30.45,2022-08-17 14:24:11.953125
2378,31.38,2022-08-17 14:24:11.968750
2379,32.1,2022-08-17 14:24:11.984375
2380,32.41,2022-08-17 14:24:12.000000
2381,32.23,2022-08-17 14:24:12.015625
2382,31.57,2022-08-17 14:24:12.031250
2383,30.54,2022-08-17 14:24:12.046875
2384,29.3,2022-08-17 14:24:12.062500
2385,27.93,2022-08-17 14:24:12.078125
2386,26.41,2022-08-17 14:24:12.093750
2387,24.61,2022-08-17 14:24:12.109375
2388,22.38,2022-08-17 14:24:12.125000
2389,19.64,2022-08-17 14:24:12.140625
2390,16.46,2022-08-17 14:24:12.156250
2391,13.0,2022-08-17 14:24:12.171875
2392,9.54,2022-08-17 14:24:12.187500
2393,6.28,2022-08-17 14:24:12.203125
2394,3.3,2022-08-17 14:24:12.218750
2395,0.55,2022-08-17 14:24:12.234375
2396,-2.15,2022-08-17 14:24:12.250000
2397,-5.01,2022-08-17 14:24:12.265625
2398,-8.11,2022-08-17 14:24:12.281250
2399,-11.42,2022-08-17 14:24:12.296875
2400,-14.78,2022-08-17 14:24:12.312500
2401,-17.98,2022-08-17 14:24:12.328125
2402,-20.89,2022-08-17 14:24:12.343750
2403,-23.48,2022-08-17 14:24:12.359375
2404,-25.88,2022-08-17 14:24:12.375000
2405,-28.3,2022-08-17 14:24:12.390625
2406,-31.03,2022-08-17 14:24:12.406250
2407,-34.28,2022-08-17 14:24:12.421875
2408,-38.14,2022-08-17 14:24:12.437500
2409,-42.48,2022-08-17 14:24:12.453125
2410,-46.81,2022-08-17 14:24:12.468750
2411,-50.33,2022-08-17 14:24:12.484375
2412,-52.06,2022-08-17 14:24:12.500000
2413,-51.12,2022-08-17 14:24:12.515625
2414,-47.01,2022-08-17 14:24:12.531250
2415,-39.89,2022-08-17 14:24:12.546875
2416,-30.48,2022-08-17 14:24:12.562500
2417,-19.94,2022-08-17 14:24:12.578125
2418,-9.43,2022-08-17 14:24:12.593750
2419,0.18,2022-08-17 14:24:12.609375
2420,8.44,2022-08-17 14:24:12.625000
2421,15.29,2022-08-17 14:24:12.640625
2422,20.86,2022-08-17 14:24:12.656250
2423,25.23,2022-08-17 14:24:12.671875
2424,28.44,2022-08-17 14:24:12.687500
2425,30.48,2022-08-17 14:24:12.703125
2426,31.38,2022-08-17 14:24:12.718750
2427,31.32,2022-08-17 14:24:12.734375
2428,30.57,2022-08-17 14:24:12.750000
2429,29.45,2022-08-17 14:24:12.765625
2430,28.23,2022-08-17 14:24:12.781250
2431,27.06,2022-08-17 14:24:12.796875
2432,26.01,2022-08-17 14:24:12.812500
2433,25.12,2022-08-17 14:24:12.828125
2434,24.49,2022-08-17 14:24:12.843750
2435,24.22,2022-08-17 14:24:12.859375
2436,24.43,2022-08-17 14:24:12.875000
2437,25.12,2022-08-17 14:24:12.890625
2438,26.14,2022-08-17 14:24:12.906250
2439,27.18,2022-08-17 14:24:12.921875
2440,27.87,2022-08-17 14:24:12.937500
2441,27.81,2022-08-17 14:24:12.953125
2442,26.76,2022-08-17 14:24:12.968750
2443,24.73,2022-08-17 14:24:12.984375
2444,21.94,2022-08-17 14:24:13.000000
2445,18.81,2022-08-17 14:24:13.015625
2446,15.78,2022-08-17 14:24:13.031250
2447,13.09,2022-08-17 14:24:13.046875
2448,10.72,2022-08-17 14:24:13.062500
2449,8.36,2022-08-17 14:24:13.078125
2450,5.6,2022-08-17 14:24:13.093750
2451,2.12,2022-08-17 14:24:13.109375
2452,-2.09,2022-08-17 14:24:13.125000
2453,-6.77,2022-08-17 14:24:13.140625
2454,-11.43,2022-08-17 14:24:13.156250
2455,-15.65,2022-08-17 14:24:13.171875
2456,-19.23,2022-08-17 14:24:13.187500
2457,-22.25,2022-08-17 14:24:13.203125
2458,-25.0,2022-08-17 14:24:13.218750
2459,-27.81,2022-08-17 14:24:13.234375
2460,-31.0,2022-08-17 14:24:13.250000
2461,-34.79,2022-08-17 14:24:13.265625
2462,-39.23,2022-08-17 14:24:13.281250
2463,-44.17,2022-08-17 14:24:13.296875
2464,-49.15,2022-08-17 14:24:13.312500
2465,-53.39,2022-08-17 14:24:13.328125
2466,-55.94,2022-08-17 14:24:13.343750
2467,-55.89,2022-08-17 14:24:13.359375
2468,-52.71,2022-08-17 14:24:13.375000
2469,-46.43,2022-08-17 14:24:13.390625
2470,-37.69,2022-08-17 14:24:13.406250
2471,-27.46,2022-08-17 14:24:13.421875
2472,-16.79,2022-08-17 14:24:13.437500
2473,-6.49,2022-08-17 14:24:13.453125
2474,2.91,2022-08-17 14:24:13.468750
2475,11.19,2022-08-17 14:24:13.484375
2476,18.25,2022-08-17 14:24:13.500000
2477,24.09,2022-08-17 14:24:13.515625
2478,28.72,2022-08-17 14:24:13.531250
2479,32.14,2022-08-17 14:24:13.546875
2480,34.4,2022-08-17 14:24:13.562500
2481,35.6,2022-08-17 14:24:13.578125
2482,35.91,2022-08-17 14:24:13.593750
2483,35.55,2022-08-17 14:24:13.609375
2484,34.79,2022-08-17 14:24:13.625000
2485,33.84,2022-08-17 14:24:13.640625
2486,32.82,2022-08-17 14:24:13.656250
2487,31.79,2022-08-17 14:24:13.671875
2488,30.76,2022-08-17 14:24:13.687500
2489,29.77,2022-08-17 14:24:13.703125
2490,28.96,2022-08-17 14:24:13.718750
2491,28.48,2022-08-17 14:24:13.734375
2492,28.42,2022-08-17 14:24:13.750000
2493,28.74,2022-08-17 14:24:13.765625
2494,29.24,2022-08-17 14:24:13.781250
2495,29.55,2022-08-17 14:24:13.796875
2496,29.37,2022-08-17 14:24:13.812500
2497,28.44,2022-08-17 14:24:13.828125
2498,26.7,2022-08-17 14:24:13.843750
2499,24.21,2022-08-17 14:24:13.859375
2500,21.16,2022-08-17 14:24:13.875000
2501,17.81,2022-08-17 14:24:13.890625
2502,14.43,2022-08-17 14:24:13.906250
2503,11.15,2022-08-17 14:24:13.921875
2504,7.99,2022-08-17 14:24:13.937500
2505,4.79,2022-08-17 14:24:13.953125
2506,1.34,2022-08-17 14:24:13.968750
2507,-2.52,2022-08-17 14:24:13.984375
2508,-6.75,2022-08-17 14:24:14.000000
2509,-11.14,2022-08-17 14:24:14.015625
2510,-15.38,2022-08-17 14:24:14.031250
2511,-19.23,2022-08-17 14:24:14.046875
2512,-22.64,2022-08-17 14:24:14.062500
2513,-25.74,2022-08-17 14:24:14.078125
2514,-28.77,2022-08-17 14:24:14.093750
2515,-32.01,2022-08-17 14:24:14.109375
2516,-35.73,2022-08-17 14:24:14.125000
2517,-40.1,2022-08-17 14:24:14.140625
2518,-45.17,2022-08-17 14:24:14.156250
2519,-50.72,2022-08-17 14:24:14.171875
2520,-56.19,2022-08-17 14:24:14.187500
2521,-60.64,2022-08-17 14:24:14.203125
2522,-62.97,2022-08-17 14:24:14.218750
2523,-62.26,2022-08-17 14:24:14.234375
2524,-58.1,2022-08-17 14:24:14.250000
2525,-50.76,2022-08-17 14:24:14.265625
2526,-41.06,2022-08-17 14:24:14.281250
2527,-30.1,2022-08-17 14:24:14.296875
2528,-18.87,2022-08-17 14:24:14.312500
2529,-8.08,2022-08-17 14:24:14.328125
2530,1.83,2022-08-17 14:24:14.343750
2531,10.68,2022-08-17 14:24:14.359375
2532,18.34,2022-08-17 14:24:14.375000
2533,24.75,2022-08-17 14:24:14.390625
2534,29.94,2022-08-17 14:24:14.406250
2535,33.98,2022-08-17 14:24:14.421875
2536,37.01,2022-08-17 14:24:14.437500
2537,39.07,2022-08-17 14:24:14.453125
2538,40.18,2022-08-17 14:24:14.468750
2539,40.32,2022-08-17 14:24:14.484375
2540,39.6,2022-08-17 14:24:14.500000
2541,38.29,2022-08-17 14:24:14.515625
2542,36.78,2022-08-17 14:24:14.531250
2543,35.45,2022-08-17 14:24:14.546875
2544,34.51,2022-08-17 14:24:14.562500
2545,33.97,2022-08-17 14:24:14.578125
2546,33.71,2022-08-17 14:24:14.593750
2547,33.57,2022-08-17 14:24:14.609375
2548,33.45,2022-08-17 14:24:14.625000
2549,33.34,2022-08-17 14:24:14.640625
2550,33.16,2022-08-17 14:24:14.656250
2551,32.75,2022-08-17 14:24:14.671875
2552,31.92,2022-08-17 14:24:14.687500
2553,30.52,2022-08-17 14:24:14.703125
2554,28.58,2022-08-17 14:24:14.718750
2555,26.31,2022-08-17 14:24:14.734375
2556,23.98,2022-08-17 14:24:14.750000
2557,21.76,2022-08-17 14:24:14.765625
2558,19.64,2022-08-17 14:24:14.781250
2559,17.4,2022-08-17 14:24:14.796875
2560,14.8,2022-08-17 14:24:14.812500
2561,11.71,2022-08-17 14:24:14.828125
2562,8.23,2022-08-17 14:24:14.843750
2563,4.61,2022-08-17 14:24:14.859375
2564,1.11,2022-08-17 14:24:14.875000
2565,-2.12,2022-08-17 14:24:14.890625
2566,-5.13,2022-08-17 14:24:14.906250
2567,-8.07,2022-08-17 14:24:14.921875
2568,-11.09,2022-08-17 14:24:14.937500
2569,-14.28,2022-08-17 14:24:14.953125
2570,-17.61,2022-08-17 14:24:14.968750
2571,-21.01,2022-08-17 14:24:14.984375
2572,-24.34,2022-08-17 14:24:15.000000
2573,-27.55,2022-08-17 14:24:15.015625
2574,-30.66,2022-08-17 14:24:15.031250
2575,-33.81,2022-08-17 14:24:15.046875
2576,-37.24,2022-08-17 14:24:15.062500
2577,-41.22,2022-08-17 14:24:15.078125
2578,-45.86,2022-08-17 14:24:15.093750
2579,-51.03,2022-08-17 14:24:15.109375
2580,-56.17,2022-08-17 14:24:15.125000
2581,-60.39,2022-08-17 14:24:15.140625
2582,-62.61,2022-08-17 14:24:15.156250
2583,-61.91,2022-08-17 14:24:15.171875
2584,-57.86,2022-08-17 14:24:15.187500
2585,-50.63,2022-08-17 14:24:15.203125
2586,-41.0,2022-08-17 14:24:15.218750
2587,-30.09,2022-08-17 14:24:15.234375
2588,-19.05,2022-08-17 14:24:15.250000
2589,-8.78,2022-08-17 14:24:15.265625
2590,0.23,2022-08-17 14:24:15.281250
2591,7.85,2022-08-17 14:24:15.296875
2592,14.21,2022-08-17 14:24:15.312500
2593,19.51,2022-08-17 14:24:15.328125
2594,23.9,2022-08-17 14:24:15.343750
2595,27.4,2022-08-17 14:24:15.359375
2596,29.98,2022-08-17 14:24:15.375000
2597,31.61,2022-08-17 14:24:15.390625
2598,32.29,2022-08-17 14:24:15.406250
2599,32.13,2022-08-17 14:24:15.421875
2600,31.36,2022-08-17 14:24:15.437500
2601,30.27,2022-08-17 14:24:15.453125
2602,29.19,2022-08-17 14:24:15.468750
2603,28.36,2022-08-17 14:24:15.484375
2604,27.92,2022-08-17 14:24:15.500000
2605,27.87,2022-08-17 14:24:15.515625
2606,28.11,2022-08-17 14:24:15.531250
2607,28.51,2022-08-17 14:24:15.546875
2608,28.94,2022-08-17 14:24:15.562500
2609,29.3,2022-08-17 14:24:15.578125
2610,29.56,2022-08-17 14:24:15.593750
2611,29.65,2022-08-17 14:24:15.609375
2612,29.51,2022-08-17 14:24:15.625000
2613,29.04,2022-08-17 14:24:15.640625
2614,28.1,2022-08-17 14:24:15.656250
2615,26.62,2022-08-17 14:24:15.671875
2616,24.56,2022-08-17 14:24:15.687500
2617,21.99,2022-08-17 14:24:15.703125
2618,19.04,2022-08-17 14:24:15.718750
2619,15.93,2022-08-17 14:24:15.734375
2620,12.84,2022-08-17 14:24:15.750000
2621,9.91,2022-08-17 14:24:15.765625
2622,7.12,2022-08-17 14:24:15.781250
2623,4.34,2022-08-17 14:24:15.796875
2624,1.39,2022-08-17 14:24:15.812500
2625,-1.86,2022-08-17 14:24:15.828125
2626,-5.35,2022-08-17 14:24:15.843750
2627,-8.94,2022-08-17 14:24:15.859375
2628,-12.41,2022-08-17 14:24:15.875000
2629,-15.63,2022-08-17 14:24:15.890625
2630,-18.57,2022-08-17 14:24:15.906250
2631,-21.35,2022-08-17 14:24:15.921875
2632,-24.09,2022-08-17 14:24:15.937500
2633,-26.91,2022-08-17 14:24:15.953125
2634,-29.88,2022-08-17 14:24:15.968750
2635,-33.08,2022-08-17 14:24:15.984375
2636,-36.64,2022-08-17 14:24:16.000000
2637,-40.62,2022-08-17 14:24:16.015625
2638,-44.87,2022-08-17 14:24:16.031250
2639,-48.89,2022-08-17 14:24:16.046875
2640,-51.8,2022-08-17 14:24:16.062500
2641,-52.6,2022-08-17 14:24:16.078125
2642,-50.5,2022-08-17 14:24:16.093750
2643,-45.27,2022-08-17 14:24:16.109375
2644,-37.39,2022-08-17 14:24:16.125000
2645,-27.89,2022-08-17 14:24:16.140625
2646,-17.94,2022-08-17 14:24:16.156250
2647,-8.48,2022-08-17 14:24:16.171875
2648,0.03,2022-08-17 14:24:16.187500
2649,7.53,2022-08-17 14:24:16.203125
2650,14.13,2022-08-17 14:24:16.218750
2651,19.92,2022-08-17 14:24:16.234375
2652,24.75,2022-08-17 14:24:16.250000
2653,28.36,2022-08-17 14:24:16.265625
2654,30.55,2022-08-17 14:24:16.281250
2655,31.32,2022-08-17 14:24:16.296875
2656,30.95,2022-08-17 14:24:16.312500
2657,29.88,2022-08-17 14:24:16.328125
2658,28.56,2022-08-17 14:24:16.343750
2659,27.3,2022-08-17 14:24:16.359375
2660,26.19,2022-08-17 14:24:16.375000
2661,25.21,2022-08-17 14:24:16.390625
2662,24.33,2022-08-17 14:24:16.406250
2663,23.62,2022-08-17 14:24:16.421875
2664,23.23,2022-08-17 14:24:16.437500
2665,23.31,2022-08-17 14:24:16.453125
2666,23.81,2022-08-17 14:24:16.468750
2667,24.53,2022-08-17 14:24:16.484375
2668,25.05,2022-08-17 14:24:16.500000
2669,25.0,2022-08-17 14:24:16.515625
2670,24.16,2022-08-17 14:24:16.531250
2671,22.52,2022-08-17 14:24:16.546875
2672,20.27,2022-08-17 14:24:16.562500
2673,17.63,2022-08-17 14:24:16.578125
2674,14.79,2022-08-17 14:24:16.593750
2675,11.86,2022-08-17 14:24:16.609375
2676,8.92,2022-08-17 14:24:16.625000
2677,6.0,2022-08-17 14:24:16.640625
2678,3.09,2022-08-17 14:24:16.656250
2679,0.15,2022-08-17 14:24:16.671875
2680,-2.96,2022-08-17 14:24:16.687500
2681,-6.33,2022-08-17 14:24:16.703125
2682,-9.99,2022-08-17 14:24:16.718750
2683,-13.8,2022-08-17 14:24:16.734375
2684,-17.55,2022-08-17 14:24:16.750000
2685,-20.99,2022-08-17 14:24:16.765625
2686,-24.02,2022-08-17 14:24:16.781250
2687,-26.77,2022-08-17 14:24:16.796875
2688,-29.47,2022-08-17 14:24:16.812500
2689,-32.49,2022-08-17 14:24:16.828125
2690,-36.09,2022-08-17 14:24:16.843750
2691,-40.4,2022-08-17 14:24:16.859375
2692,-45.25,2022-08-17 14:24:16.875000
2693,-50.15,2022-08-17 14:24:16.890625
2694,-54.36,2022-08-17 14:24:16.906250
2695,-56.98,2022-08-17 14:24:16.921875
2696,-57.19,2022-08-17 14:24:16.937500
2697,-54.53,2022-08-17 14:24:16.953125
2698,-49.01,2022-08-17 14:24:16.968750
2699,-41.13,2022-08-17 14:24:16.984375
2700,-31.72,2022-08-17 14:24:17.000000
2701,-21.67,2022-08-17 14:24:17.015625
2702,-11.69,2022-08-17 14:24:17.031250
2703,-2.26,2022-08-17 14:24:17.046875
2704,6.36,2022-08-17 14:24:17.062500
2705,13.99,2022-08-17 14:24:17.078125
2706,20.5,2022-08-17 14:24:17.093750
2707,25.74,2022-08-17 14:24:17.109375
2708,29.63,2022-08-17 14:24:17.125000
2709,32.21,2022-08-17 14:24:17.140625
2710,33.65,2022-08-17 14:24:17.156250
2711,34.18,2022-08-17 14:24:17.171875
2712,34.0,2022-08-17 14:24:17.187500
2713,33.33,2022-08-17 14:24:17.203125
2714,32.34,2022-08-17 14:24:17.218750
2715,31.19,2022-08-17 14:24:17.234375
2716,30.08,2022-08-17 14:24:17.250000
2717,29.21,2022-08-17 14:24:17.265625
2718,28.73,2022-08-17 14:24:17.281250
2719,28.69,2022-08-17 14:24:17.296875
2720,29.01,2022-08-17 14:24:17.312500
2721,29.48,2022-08-17 14:24:17.328125
2722,29.84,2022-08-17 14:24:17.343750
2723,29.88,2022-08-17 14:24:17.359375
2724,29.44,2022-08-17 14:24:17.375000
2725,28.51,2022-08-17 14:24:17.390625
2726,27.19,2022-08-17 14:24:17.406250
2727,25.63,2022-08-17 14:24:17.421875
2728,23.9,2022-08-17 14:24:17.437500
2729,22.02,2022-08-17 14:24:17.453125
2730,19.9,2022-08-17 14:24:17.468750
2731,17.48,2022-08-17 14:24:17.484375
2732,14.69,2022-08-17 14:24:17.500000
2733,11.64,2022-08-17 14:24:17.515625
2734,8.45,2022-08-17 14:24:17.531250
2735,5.29,2022-08-17 14:24:17.546875
2736,2.24,2022-08-17 14:24:17.562500
2737,-0.74,2022-08-17 14:24:17.578125
2738,-3.75,2022-08-17 14:24:17.593750
2739,-6.92,2022-08-17 14:24:17.609375
2740,-10.29,2022-08-17 14:24:17.625000
2741,-13.87,2022-08-17 14:24:17.640625
2742,-17.6,2022-08-17 14:24:17.656250
2743,-21.41,2022-08-17 14:24:17.671875
2744,-25.25,2022-08-17 14:24:17.687500
2745,-29.03,2022-08-17 14:24:17.703125
2746,-32.61,2022-08-17 14:24:17.718750
2747,-35.87,2022-08-17 14:24:17.734375
2748,-38.8,2022-08-17 14:24:17.750000
2749,-41.55,2022-08-17 14:24:17.765625
2750,-44.49,2022-08-17 14:24:17.781250
2751,-48.05,2022-08-17 14:24:17.796875
2752,-52.48,2022-08-17 14:24:17.812500
2753,-57.59,2022-08-17 14:24:17.828125
2754,-62.68,2022-08-17 14:24:17.843750
2755,-66.57,2022-08-17 14:24:17.859375
2756,-68.03,2022-08-17 14:24:17.875000
2757,-66.16,2022-08-17 14:24:17.890625
2758,-60.75,2022-08-17 14:24:17.906250
2759,-52.32,2022-08-17 14:24:17.921875
2760,-41.92,2022-08-17 14:24:17.937500
2761,-30.7,2022-08-17 14:24:17.953125
2762,-19.61,2022-08-17 14:24:17.968750
2763,-9.19,2022-08-17 14:24:17.984375
2764,0.36,2022-08-17 14:24:18.000000
2765,9.03,2022-08-17 14:24:18.015625
2766,16.77,2022-08-17 14:24:18.031250
2767,23.47,2022-08-17 14:24:18.046875
2768,28.97,2022-08-17 14:24:18.062500
2769,33.16,2022-08-17 14:24:18.078125
2770,36.05,2022-08-17 14:24:18.093750
2771,37.77,2022-08-17 14:24:18.109375
2772,38.55,2022-08-17 14:24:18.125000
2773,38.6,2022-08-17 14:24:18.140625
2774,38.17,2022-08-17 14:24:18.156250
2775,37.42,2022-08-17 14:24:18.171875
2776,36.52,2022-08-17 14:24:18.187500
2777,35.6,2022-08-17 14:24:18.203125
2778,34.8,2022-08-17 14:24:18.218750
2779,34.24,2022-08-17 14:24:18.234375
2780,34.03,2022-08-17 14:24:18.250000
2781,34.28,2022-08-17 14:24:18.265625
2782,34.97,2022-08-17 14:24:18.281250
2783,35.95,2022-08-17 14:24:18.296875
2784,36.89,2022-08-17 14:24:18.312500
2785,37.41,2022-08-17 14:24:18.328125
2786,37.19,2022-08-17 14:24:18.343750
2787,36.11,2022-08-17 14:24:18.359375
2788,34.27,2022-08-17 14:24:18.375000
2789,31.98,2022-08-17 14:24:18.390625
2790,29.57,2022-08-17 14:24:18.406250
2791,27.25,2022-08-17 14:24:18.421875
2792,25.05,2022-08-17 14:24:18.437500
2793,22.82,2022-08-17 14:24:18.453125
2794,20.33,2022-08-17 14:24:18.468750
2795,17.43,2022-08-17 14:24:18.484375
2796,14.1,2022-08-17 14:24:18.500000
2797,10.48,2022-08-17 14:24:18.515625
2798,6.76,2022-08-17 14:24:18.531250
2799,3.14,2022-08-17 14:24:18.546875
2800,-0.25,2022-08-17 14:24:18.562500
2801,-3.38,2022-08-17 14:24:18.578125
2802,-6.31,2022-08-17 14:24:18.593750
2803,-9.17,2022-08-17 14:24:18.609375
2804,-12.1,2022-08-17 14:24:18.625000
2805,-15.21,2022-08-17 14:24:18.640625
2806,-18.56,2022-08-17 14:24:18.656250
2807,-22.1,2022-08-17 14:24:18.671875
2808,-25.74,2022-08-17 14:24:18.687500
2809,-29.37,2022-08-17 14:24:18.703125
2810,-32.86,2022-08-17 14:24:18.718750
2811,-36.16,2022-08-17 14:24:18.734375
2812,-39.28,2022-08-17 14:24:18.750000
2813,-42.26,2022-08-17 14:24:18.765625
2814,-45.28,2022-08-17 14:24:18.781250
2815,-48.57,2022-08-17 14:24:18.796875
2816,-52.4,2022-08-17 14:24:18.812500
2817,-56.94,2022-08-17 14:24:18.828125
2818,-61.99,2022-08-17 14:24:18.843750
2819,-66.89,2022-08-17 14:24:18.859375
2820,-70.58,2022-08-17 14:24:18.875000
2821,-71.84,2022-08-17 14:24:18.890625
2822,-69.76,2022-08-17 14:24:18.906250
2823,-64.09,2022-08-17 14:24:18.921875
2824,-55.37,2022-08-17 14:24:18.937500
2825,-44.66,2022-08-17 14:24:18.953125
2826,-33.14,2022-08-17 14:24:18.968750
2827,-21.75,2022-08-17 14:24:18.984375
2828,-10.95,2022-08-17 14:24:19.000000
2829,-0.9,2022-08-17 14:24:19.015625
2830,8.36,2022-08-17 14:24:19.031250
2831,16.65,2022-08-17 14:24:19.046875
2832,23.69,2022-08-17 14:24:19.062500
2833,29.19,2022-08-17 14:24:19.078125
2834,33.06,2022-08-17 14:24:19.093750
2835,35.45,2022-08-17 14:24:19.109375
2836,36.7,2022-08-17 14:24:19.125000
2837,37.18,2022-08-17 14:24:19.140625
2838,37.2,2022-08-17 14:24:19.156250
2839,36.89,2022-08-17 14:24:19.171875
2840,36.33,2022-08-17 14:24:19.187500
2841,35.59,2022-08-17 14:24:19.203125
2842,34.81,2022-08-17 14:24:19.218750
2843,34.17,2022-08-17 14:24:19.234375
2844,33.85,2022-08-17 14:24:19.250000
2845,33.96,2022-08-17 14:24:19.265625
2846,34.48,2022-08-17 14:24:19.281250
2847,35.28,2022-08-17 14:24:19.296875
2848,36.15,2022-08-17 14:24:19.312500
2849,36.87,2022-08-17 14:24:19.328125
2850,37.19,2022-08-17 14:24:19.343750
2851,36.94,2022-08-17 14:24:19.359375
2852,35.99,2022-08-17 14:24:19.375000
2853,34.35,2022-08-17 14:24:19.390625
2854,32.13,2022-08-17 14:24:19.406250
2855,29.55,2022-08-17 14:24:19.421875
2856,26.87,2022-08-17 14:24:19.437500
2857,24.31,2022-08-17 14:24:19.453125
2858,21.94,2022-08-17 14:24:19.468750
2859,19.66,2022-08-17 14:24:19.484375
2860,17.28,2022-08-17 14:24:19.500000
2861,14.59,2022-08-17 14:24:19.515625
2862,11.49,2022-08-17 14:24:19.531250
2863,8.11,2022-08-17 14:24:19.546875
2864,4.67,2022-08-17 14:24:19.562500
2865,1.47,2022-08-17 14:24:19.578125
2866,-1.29,2022-08-17 14:24:19.593750
2867,-3.61,2022-08-17 14:24:19.609375
2868,-5.74,2022-08-17 14:24:19.625000
2869,-8.02,2022-08-17 14:24:19.640625
2870,-10.76,2022-08-17 14:24:19.656250
2871,-14.12,2022-08-17 14:24:19.671875
2872,-17.94,2022-08-17 14:24:19.687500
2873,-21.9,2022-08-17 14:24:19.703125
2874,-25.57,2022-08-17 14:24:19.718750
2875,-28.72,2022-08-17 14:24:19.734375
2876,-31.33,2022-08-17 14:24:19.750000
2877,-33.61,2022-08-17 14:24:19.765625
2878,-35.89,2022-08-17 14:24:19.781250
2879,-38.51,2022-08-17 14:24:19.796875
2880,-41.7,2022-08-17 14:24:19.812500
2881,-45.56,2022-08-17 14:24:19.828125
2882,-50.02,2022-08-17 14:24:19.843750
2883,-54.75,2022-08-17 14:24:19.859375
2884,-59.06,2022-08-17 14:24:19.875000
2885,-62.0,2022-08-17 14:24:19.890625
2886,-62.53,2022-08-17 14:24:19.906250
2887,-59.88,2022-08-17 14:24:19.921875
2888,-53.87,2022-08-17 14:24:19.937500
2889,-45.0,2022-08-17 14:24:19.953125
2890,-34.31,2022-08-17 14:24:19.968750
2891,-22.99,2022-08-17 14:24:19.984375
2892,-12.06,2022-08-17 14:24:20.000000
2893,-2.11,2022-08-17 14:24:20.015625
2894,6.6,2022-08-17 14:24:20.031250
2895,14.04,2022-08-17 14:24:20.046875
2896,20.18,2022-08-17 14:24:20.062500
2897,25.01,2022-08-17 14:24:20.078125
2898,28.49,2022-08-17 14:24:20.093750
2899,30.73,2022-08-17 14:24:20.109375
2900,31.91,2022-08-17 14:24:20.125000
2901,32.29,2022-08-17 14:24:20.140625
2902,32.14,2022-08-17 14:24:20.156250
2903,31.65,2022-08-17 14:24:20.171875
2904,30.99,2022-08-17 14:24:20.187500
2905,30.3,2022-08-17 14:24:20.203125
2906,29.69,2022-08-17 14:24:20.218750
2907,29.25,2022-08-17 14:24:20.234375
2908,29.07,2022-08-17 14:24:20.250000
2909,29.17,2022-08-17 14:24:20.265625
2910,29.51,2022-08-17 14:24:20.281250
2911,30.01,2022-08-17 14:24:20.296875
2912,30.52,2022-08-17 14:24:20.312500
2913,30.87,2022-08-17 14:24:20.328125
2914,30.88,2022-08-17 14:24:20.343750
2915,30.37,2022-08-17 14:24:20.359375
2916,29.24,2022-08-17 14:24:20.375000
2917,27.47,2022-08-17 14:24:20.390625
2918,25.16,2022-08-17 14:24:20.406250
2919,22.49,2022-08-17 14:24:20.421875
2920,19.69,2022-08-17 14:24:20.437500
2921,16.91,2022-08-17 14:24:20.453125
2922,14.24,2022-08-17 14:24:20.468750
2923,11.69,2022-08-17 14:24:20.484375
2924,9.17,2022-08-17 14:24:20.500000
2925,6.56,2022-08-17 14:24:20.515625
2926,3.71,2022-08-17 14:24:20.531250
2927,0.48,2022-08-17 14:24:20.546875
2928,-3.21,2022-08-17 14:24:20.562500
2929,-7.33,2022-08-17 14:24:20.578125
2930,-11.74,2022-08-17 14:24:20.593750
2931,-16.21,2022-08-17 14:24:20.609375
2932,-20.45,2022-08-17 14:24:20.625000
2933,-24.25,2022-08-17 14:24:20.640625
2934,-27.52,2022-08-17 14:24:20.656250
2935,-30.38,2022-08-17 14:24:20.671875
2936,-33.08,2022-08-17 14:24:20.687500
2937,-35.93,2022-08-17 14:24:20.703125
2938,-39.26,2022-08-17 14:24:20.718750
2939,-43.22,2022-08-17 14:24:20.734375
2940,-47.71,2022-08-17 14:24:20.750000
2941,-52.34,2022-08-17 14:24:20.765625
2942,-56.35,2022-08-17 14:24:20.781250
2943,-58.79,2022-08-17 14:24:20.796875
2944,-58.73,2022-08-17 14:24:20.812500
2945,-55.59,2022-08-17 14:24:20.828125
2946,-49.29,2022-08-17 14:24:20.843750
2947,-40.35,2022-08-17 14:24:20.859375
2948,-29.71,2022-08-17 14:24:20.875000
2949,-18.46,2022-08-17 14:24:20.890625
2950,-7.58,2022-08-17 14:24:20.906250
2951,2.3,2022-08-17 14:24:20.921875
2952,10.9,2022-08-17 14:24:20.937500
2953,18.19,2022-08-17 14:24:20.953125
2954,24.26,2022-08-17 14:24:20.968750
2955,29.18,2022-08-17 14:24:20.984375
2956,32.94,2022-08-17 14:24:21.000000
2957,35.51,2022-08-17 14:24:21.015625
2958,36.87,2022-08-17 14:24:21.031250
2959,37.12,2022-08-17 14:24:21.046875
2960,36.49,2022-08-17 14:24:21.062500
2961,35.28,2022-08-17 14:24:21.078125
2962,33.82,2022-08-17 14:24:21.093750
2963,32.39,2022-08-17 14:24:21.109375
2964,31.2,2022-08-17 14:24:21.125000
2965,30.35,2022-08-17 14:24:21.140625
2966,29.88,2022-08-17 14:24:21.156250
2967,29.77,2022-08-17 14:24:21.171875
2968,29.94,2022-08-17 14:24:21.187500
2969,30.22,2022-08-17 14:24:21.203125
2970,30.43,2022-08-17 14:24:21.218750
2971,30.41,2022-08-17 14:24:21.234375
2972,30.02,2022-08-17 14:24:21.250000
2973,29.22,2022-08-17 14:24:21.265625
2974,27.94,2022-08-17 14:24:21.281250
2975,26.18,2022-08-17 14:24:21.296875
2976,23.91,2022-08-17 14:24:21.312500
2977,21.18,2022-08-17 14:24:21.328125
2978,18.09,2022-08-17 14:24:21.343750
2979,14.77,2022-08-17 14:24:21.359375
2980,11.39,2022-08-17 14:24:21.375000
2981,8.03,2022-08-17 14:24:21.390625
2982,4.72,2022-08-17 14:24:21.406250
2983,1.43,2022-08-17 14:24:21.421875
2984,-1.87,2022-08-17 14:24:21.437500
2985,-5.2,2022-08-17 14:24:21.453125
2986,-8.6,2022-08-17 14:24:21.468750
2987,-12.12,2022-08-17 14:24:21.484375
2988,-15.86,2022-08-17 14:24:21.500000
2989,-19.87,2022-08-17 14:24:21.515625
2990,-24.08,2022-08-17 14:24:21.531250
2991,-28.3,2022-08-17 14:24:21.546875
2992,-32.27,2022-08-17 14:24:21.562500
2993,-35.86,2022-08-17 14:24:21.578125
2994,-39.11,2022-08-17 14:24:21.593750
2995,-42.32,2022-08-17 14:24:21.609375
2996,-45.86,2022-08-17 14:24:21.625000
2997,-50.08,2022-08-17 14:24:21.640625
2998,-55.04,2022-08-17 14:24:21.656250
2999,-60.45,2022-08-17 14:24:21.671875
3000,-65.57,2022-08-17 14:24:21.687500
3001,-69.38,2022-08-17 14:24:21.703125
3002,-70.82,2022-08-17 14:24:21.718750
3003,-69.1,2022-08-17 14:24:21.734375
3004,-63.91,2022-08-17 14:24:21.750000
3005,-55.58,2022-08-17 14:24:21.765625
3006,-44.91,2022-08-17 14:24:21.781250
3007,-32.96,2022-08-17 14:24:21.796875
3008,-20.76,2022-08-17 14:24:21.812500
3009,-9.11,2022-08-17 14:24:21.828125
3010,1.51,2022-08-17 14:24:21.843750
3011,10.85,2022-08-17 14:24:21.859375
3012,18.84,2022-08-17 14:24:21.875000
3013,25.49,2022-08-17 14:24:21.890625
3014,30.83,2022-08-17 14:24:21.906250
3015,34.92,2022-08-17 14:24:21.921875
3016,37.79,2022-08-17 14:24:21.937500
3017,39.49,2022-08-17 14:24:21.953125
3018,40.1,2022-08-17 14:24:21.968750
3019,39.77,2022-08-17 14:24:21.984375
3020,38.76,2022-08-17 14:24:22.000000
3021,37.41,2022-08-17 14:24:22.015625
3022,36.03,2022-08-17 14:24:22.031250
3023,34.85,2022-08-17 14:24:22.046875
3024,33.96,2022-08-17 14:24:22.062500
3025,33.4,2022-08-17 14:24:22.078125
3026,33.14,2022-08-17 14:24:22.093750
3027,33.19,2022-08-17 14:24:22.109375
3028,33.49,2022-08-17 14:24:22.125000
3029,33.91,2022-08-17 14:24:22.140625
3030,34.2,2022-08-17 14:24:22.156250
3031,34.07,2022-08-17 14:24:22.171875
3032,33.29,2022-08-17 14:24:22.187500
3033,31.8,2022-08-17 14:24:22.203125
3034,29.76,2022-08-17 14:24:22.218750
3035,27.39,2022-08-17 14:24:22.234375
3036,24.93,2022-08-17 14:24:22.250000
3037,22.46,2022-08-17 14:24:22.265625
3038,19.9,2022-08-17 14:24:22.281250
3039,17.07,2022-08-17 14:24:22.296875
3040,13.87,2022-08-17 14:24:22.312500
3041,10.29,2022-08-17 14:24:22.328125
3042,6.49,2022-08-17 14:24:22.343750
3043,2.71,2022-08-17 14:24:22.359375
3044,-0.87,2022-08-17 14:24:22.375000
3045,-4.14,2022-08-17 14:24:22.390625
3046,-7.21,2022-08-17 14:24:22.406250
3047,-10.24,2022-08-17 14:24:22.421875
3048,-13.45,2022-08-17 14:24:22.437500
3049,-16.94,2022-08-17 14:24:22.453125
3050,-20.72,2022-08-17 14:24:22.468750
3051,-24.65,2022-08-17 14:24:22.484375
3052,-28.56,2022-08-17 14:24:22.500000
3053,-32.32,2022-08-17 14:24:22.515625
3054,-35.89,2022-08-17 14:24:22.531250
3055,-39.39,2022-08-17 14:24:22.546875
3056,-43.08,2022-08-17 14:24:22.562500
3057,-47.25,2022-08-17 14:24:22.578125
3058,-52.09,2022-08-17 14:24:22.593750
3059,-57.51,2022-08-17 14:24:22.609375
3060,-63.04,2022-08-17 14:24:22.625000
3061,-67.85,2022-08-17 14:24:22.640625
3062,-70.92,2022-08-17 14:24:22.656250
3063,-71.29,2022-08-17 14:24:22.671875
3064,-68.36,2022-08-17 14:24:22.687500
3065,-62.05,2022-08-17 14:24:22.703125
3066,-52.86,2022-08-17 14:24:22.718750
3067,-41.68,2022-08-17 14:24:22.734375
3068,-29.55,2022-08-17 14:24:22.750000
3069,-17.45,2022-08-17 14:24:22.765625
3070,-6.06,2022-08-17 14:24:22.781250
3071,4.21,2022-08-17 14:24:22.796875
3072,13.16,2022-08-17 14:24:22.812500
3073,20.73,2022-08-17 14:24:22.828125
3074,26.88,2022-08-17 14:24:22.843750
3075,31.63,2022-08-17 14:24:22.859375
3076,35.0,2022-08-17 14:24:22.875000
3077,37.11,2022-08-17 14:24:22.890625
3078,38.1,2022-08-17 14:24:22.906250
3079,38.18,2022-08-17 14:24:22.921875
3080,37.56,2022-08-17 14:24:22.937500
3081,36.43,2022-08-17 14:24:22.953125
3082,35.01,2022-08-17 14:24:22.968750
3083,33.56,2022-08-17 14:24:22.984375
3084,32.33,2022-08-17 14:24:23.000000
3085,31.57,2022-08-17 14:24:23.015625
3086,31.37,2022-08-17 14:24:23.031250
3087,31.71,2022-08-17 14:24:23.046875
3088,32.38,2022-08-17 14:24:23.062500
3089,33.12,2022-08-17 14:24:23.078125
3090,33.67,2022-08-17 14:24:23.093750
3091,33.79,2022-08-17 14:24:23.109375
3092,33.36,2022-08-17 14:24:23.125000
3093,32.35,2022-08-17 14:24:23.140625
3094,30.82,2022-08-17 14:24:23.156250
3095,28.88,2022-08-17 14:24:23.171875
3096,26.66,2022-08-17 14:24:23.187500
3097,24.27,2022-08-17 14:24:23.203125
3098,21.7,2022-08-17 14:24:23.218750
3099,18.92,2022-08-17 14:24:23.234375
3100,15.84,2022-08-17 14:24:23.250000
3101,12.44,2022-08-17 14:24:23.265625
3102,8.82,2022-08-17 14:24:23.281250
3103,5.15,2022-08-17 14:24:23.296875
3104,1.64,2022-08-17 14:24:23.312500
3105,-1.6,2022-08-17 14:24:23.328125
3106,-4.55,2022-08-17 14:24:23.343750
3107,-7.3,2022-08-17 14:24:23.359375
3108,-10.0,2022-08-17 14:24:23.375000
3109,-12.79,2022-08-17 14:24:23.390625
3110,-15.78,2022-08-17 14:24:23.406250
3111,-18.99,2022-08-17 14:24:23.421875
3112,-22.38,2022-08-17 14:24:23.437500
3113,-25.83,2022-08-17 14:24:23.453125
3114,-29.19,2022-08-17 14:24:23.468750
3115,-32.33,2022-08-17 14:24:23.484375
3116,-35.23,2022-08-17 14:24:23.500000
3117,-38.01,2022-08-17 14:24:23.515625
3118,-40.98,2022-08-17 14:24:23.531250
3119,-44.46,2022-08-17 14:24:23.546875
3120,-48.66,2022-08-17 14:24:23.562500
3121,-53.4,2022-08-17 14:24:23.578125
3122,-58.02,2022-08-17 14:24:23.593750
3123,-61.47,2022-08-17 14:24:23.609375
3124,-62.57,2022-08-17 14:24:23.625000
3125,-60.39,2022-08-17 14:24:23.640625
3126,-54.61,2022-08-17 14:24:23.656250
3127,-45.65,2022-08-17 14:24:23.671875
3128,-34.51,2022-08-17 14:24:23.687500
3129,-22.44,2022-08-17 14:24:23.703125
3130,-10.56,2022-08-17 14:24:23.718750
3131,0.37,2022-08-17 14:24:23.734375
3132,10.0,2022-08-17 14:24:23.750000
3133,18.23,2022-08-17 14:24:23.765625
3134,25.02,2022-08-17 14:24:23.781250
3135,30.3,2022-08-17 14:24:23.796875
3136,33.97,2022-08-17 14:24:23.812500
3137,36.01,2022-08-17 14:24:23.828125
3138,36.57,2022-08-17 14:24:23.843750
3139,35.98,2022-08-17 14:24:23.859375
3140,34.66,2022-08-17 14:24:23.875000
3141,33.1,2022-08-17 14:24:23.890625
3142,31.66,2022-08-17 14:24:23.906250
3143,30.57,2022-08-17 14:24:23.921875
3144,29.89,2022-08-17 14:24:23.937500
3145,29.51,2022-08-17 14:24:23.953125
3146,29.31,2022-08-17 14:24:23.968750
3147,29.16,2022-08-17 14:24:23.984375
3148,29.08,2022-08-17 14:24:24.000000
3149,29.14,2022-08-17 14:24:24.015625
3150,29.4,2022-08-17 14:24:24.031250
3151,29.81,2022-08-17 14:24:24.046875
3152,30.12,2022-08-17 14:24:24.062500
3153,29.97,2022-08-17 14:24:24.078125
3154,29.02,2022-08-17 14:24:24.093750
3155,27.09,2022-08-17 14:24:24.109375
3156,24.29,2022-08-17 14:24:24.125000
3157,20.91,2022-08-17 14:24:24.140625
3158,17.38,2022-08-17 14:24:24.156250
3159,14.04,2022-08-17 14:24:24.171875
3160,11.07,2022-08-17 14:24:24.187500
3161,8.37,2022-08-17 14:24:24.203125
3162,5.67,2022-08-17 14:24:24.218750
3163,2.64,2022-08-17 14:24:24.234375
3164,-0.94,2022-08-17 14:24:24.250000
3165,-5.11,2022-08-17 14:24:24.265625
3166,-9.63,2022-08-17 14:24:24.281250
3167,-14.16,2022-08-17 14:24:24.296875
3168,-18.39,2022-08-17 14:24:24.312500
3169,-22.14,2022-08-17 14:24:24.328125
