,BVP,time
0,49.83,2021-12-17 16:49:36.781250
1,48.89,2021-12-17 16:49:36.796875
2,45.89,2021-12-17 16:49:36.812500
3,41.18,2021-12-17 16:49:36.828125
4,35.05,2021-12-17 16:49:36.843750
5,27.71,2021-12-17 16:49:36.859375
6,19.39,2021-12-17 16:49:36.875000
7,10.4,2021-12-17 16:49:36.890625
8,1.08,2021-12-17 16:49:36.906250
9,-8.38,2021-12-17 16:49:36.921875
10,-17.99,2021-12-17 16:49:36.937500
11,-27.99,2021-12-17 16:49:36.953125
12,-38.54,2021-12-17 16:49:36.968750
13,-49.4,2021-12-17 16:49:36.984375
14,-59.73,2021-12-17 16:49:37.000000
15,-68.13,2021-12-17 16:49:37.015625
16,-73.18,2021-12-17 16:49:37.031250
17,-73.88,2021-12-17 16:49:37.046875
18,-70.04,2021-12-17 16:49:37.062500
19,-62.23,2021-12-17 16:49:37.078125
20,-51.34,2021-12-17 16:49:37.093750
21,-38.21,2021-12-17 16:49:37.109375
22,-23.38,2021-12-17 16:49:37.125000
23,-7.21,2021-12-17 16:49:37.140625
24,9.77,2021-12-17 16:49:37.156250
25,26.73,2021-12-17 16:49:37.171875
26,42.49,2021-12-17 16:49:37.187500
27,55.95,2021-12-17 16:49:37.203125
28,66.42,2021-12-17 16:49:37.218750
29,73.83,2021-12-17 16:49:37.234375
30,78.7,2021-12-17 16:49:37.250000
31,81.78,2021-12-17 16:49:37.265625
32,83.77,2021-12-17 16:49:37.281250
33,85.13,2021-12-17 16:49:37.296875
34,86.06,2021-12-17 16:49:37.312500
35,86.73,2021-12-17 16:49:37.328125
36,87.34,2021-12-17 16:49:37.343750
37,88.18,2021-12-17 16:49:37.359375
38,89.51,2021-12-17 16:49:37.375000
39,91.34,2021-12-17 16:49:37.390625
40,93.31,2021-12-17 16:49:37.406250
41,94.57,2021-12-17 16:49:37.421875
42,94.02,2021-12-17 16:49:37.437500
43,90.53,2021-12-17 16:49:37.453125
44,83.25,2021-12-17 16:49:37.468750
45,71.88,2021-12-17 16:49:37.484375
46,56.65,2021-12-17 16:49:37.500000
47,38.21,2021-12-17 16:49:37.515625
48,17.5,2021-12-17 16:49:37.531250
49,-4.36,2021-12-17 16:49:37.546875
50,-25.97,2021-12-17 16:49:37.562500
51,-45.79,2021-12-17 16:49:37.578125
52,-62.38,2021-12-17 16:49:37.593750
53,-74.75,2021-12-17 16:49:37.609375
54,-82.7,2021-12-17 16:49:37.625000
55,-86.87,2021-12-17 16:49:37.640625
56,-88.46,2021-12-17 16:49:37.656250
57,-88.67,2021-12-17 16:49:37.671875
58,-88.23,2021-12-17 16:49:37.687500
59,-87.23,2021-12-17 16:49:37.703125
60,-85.26,2021-12-17 16:49:37.718750
61,-81.75,2021-12-17 16:49:37.734375
62,-76.42,2021-12-17 16:49:37.750000
63,-69.38,2021-12-17 16:49:37.765625
64,-61.07,2021-12-17 16:49:37.781250
65,-52.01,2021-12-17 16:49:37.796875
66,-42.62,2021-12-17 16:49:37.812500
67,-33.11,2021-12-17 16:49:37.828125
68,-23.47,2021-12-17 16:49:37.843750
69,-13.69,2021-12-17 16:49:37.859375
70,-3.81,2021-12-17 16:49:37.875000
71,5.92,2021-12-17 16:49:37.890625
72,15.12,2021-12-17 16:49:37.906250
73,23.31,2021-12-17 16:49:37.921875
74,30.12,2021-12-17 16:49:37.937500
75,35.48,2021-12-17 16:49:37.953125
76,39.65,2021-12-17 16:49:37.968750
77,43.17,2021-12-17 16:49:37.984375
78,46.65,2021-12-17 16:49:38.000000
79,50.64,2021-12-17 16:49:38.015625
80,55.41,2021-12-17 16:49:38.031250
81,60.9,2021-12-17 16:49:38.046875
82,66.81,2021-12-17 16:49:38.062500
83,72.69,2021-12-17 16:49:38.078125
84,78.08,2021-12-17 16:49:38.093750
85,82.57,2021-12-17 16:49:38.109375
86,85.82,2021-12-17 16:49:38.125000
87,87.61,2021-12-17 16:49:38.140625
88,87.91,2021-12-17 16:49:38.156250
89,86.92,2021-12-17 16:49:38.171875
90,85.2,2021-12-17 16:49:38.187500
91,83.6,2021-12-17 16:49:38.203125
92,83.04,2021-12-17 16:49:38.218750
93,84.27,2021-12-17 16:49:38.234375
94,87.43,2021-12-17 16:49:38.250000
95,91.99,2021-12-17 16:49:38.265625
96,96.67,2021-12-17 16:49:38.281250
97,99.83,2021-12-17 16:49:38.296875
98,99.89,2021-12-17 16:49:38.312500
99,95.76,2021-12-17 16:49:38.328125
100,87.18,2021-12-17 16:49:38.343750
101,74.79,2021-12-17 16:49:38.359375
102,59.91,2021-12-17 16:49:38.375000
103,44.21,2021-12-17 16:49:38.390625
104,29.18,2021-12-17 16:49:38.406250
105,15.76,2021-12-17 16:49:38.421875
106,4.05,2021-12-17 16:49:38.437500
107,-6.39,2021-12-17 16:49:38.453125
108,-16.21,2021-12-17 16:49:38.468750
109,-25.66,2021-12-17 16:49:38.484375
110,-34.35,2021-12-17 16:49:38.500000
111,-41.38,2021-12-17 16:49:38.515625
112,-45.86,2021-12-17 16:49:38.531250
113,-47.7,2021-12-17 16:49:38.546875
114,-48.05,2021-12-17 16:49:38.562500
115,-49.26,2021-12-17 16:49:38.578125
116,-54.22,2021-12-17 16:49:38.593750
117,-65.61,2021-12-17 16:49:38.609375
118,-85.04,2021-12-17 16:49:38.625000
119,-112.83,2021-12-17 16:49:38.640625
120,-147.93,2021-12-17 16:49:38.656250
121,-188.27,2021-12-17 16:49:38.671875
122,-230.84,2021-12-17 16:49:38.687500
123,-272.12,2021-12-17 16:49:38.703125
124,-308.39,2021-12-17 16:49:38.718750
125,-336.46,2021-12-17 16:49:38.734375
126,-354.6,2021-12-17 16:49:38.750000
127,-363.04,2021-12-17 16:49:38.765625
128,-363.94,2021-12-17 16:49:38.781250
129,-360.3,2021-12-17 16:49:38.796875
130,-354.59,2021-12-17 16:49:38.812500
131,-347.58,2021-12-17 16:49:38.828125
132,-338.16,2021-12-17 16:49:38.843750
133,-324.33,2021-12-17 16:49:38.859375
134,-304.61,2021-12-17 16:49:38.875000
135,-279.19,2021-12-17 16:49:38.890625
136,-250.02,2021-12-17 16:49:38.906250
137,-219.94,2021-12-17 16:49:38.921875
138,-191.31,2021-12-17 16:49:38.937500
139,-165.03,2021-12-17 16:49:38.953125
140,-140.55,2021-12-17 16:49:38.968750
141,-116.39,2021-12-17 16:49:38.984375
142,-91.08,2021-12-17 16:49:39.000000
143,-63.71,2021-12-17 16:49:39.015625
144,-34.21,2021-12-17 16:49:39.031250
145,-3.22,2021-12-17 16:49:39.046875
146,28.11,2021-12-17 16:49:39.062500
147,58.29,2021-12-17 16:49:39.078125
148,85.76,2021-12-17 16:49:39.093750
149,109.18,2021-12-17 16:49:39.109375
150,127.78,2021-12-17 16:49:39.125000
151,141.41,2021-12-17 16:49:39.140625
152,150.2,2021-12-17 16:49:39.156250
153,154.29,2021-12-17 16:49:39.171875
154,153.57,2021-12-17 16:49:39.187500
155,147.92,2021-12-17 16:49:39.203125
156,137.58,2021-12-17 16:49:39.218750
157,123.59,2021-12-17 16:49:39.234375
158,107.79,2021-12-17 16:49:39.250000
159,92.3,2021-12-17 16:49:39.265625
160,78.75,2021-12-17 16:49:39.281250
161,67.7,2021-12-17 16:49:39.296875
162,58.54,2021-12-17 16:49:39.312500
163,50.03,2021-12-17 16:49:39.328125
164,40.92,2021-12-17 16:49:39.343750
165,30.65,2021-12-17 16:49:39.359375
166,19.56,2021-12-17 16:49:39.375000
167,8.66,2021-12-17 16:49:39.390625
168,-0.75,2021-12-17 16:49:39.406250
169,-7.49,2021-12-17 16:49:39.421875
170,-10.71,2021-12-17 16:49:39.437500
171,-10.03,2021-12-17 16:49:39.453125
172,-5.56,2021-12-17 16:49:39.468750
173,1.99,2021-12-17 16:49:39.484375
174,11.39,2021-12-17 16:49:39.500000
175,21.11,2021-12-17 16:49:39.515625
176,29.65,2021-12-17 16:49:39.531250
177,36.02,2021-12-17 16:49:39.546875
178,39.93,2021-12-17 16:49:39.562500
179,41.86,2021-12-17 16:49:39.578125
180,42.58,2021-12-17 16:49:39.593750
181,42.78,2021-12-17 16:49:39.609375
182,42.72,2021-12-17 16:49:39.625000
183,42.3,2021-12-17 16:49:39.640625
184,41.24,2021-12-17 16:49:39.656250
185,39.45,2021-12-17 16:49:39.671875
186,37.07,2021-12-17 16:49:39.687500
187,34.5,2021-12-17 16:49:39.703125
188,32.15,2021-12-17 16:49:39.718750
189,30.38,2021-12-17 16:49:39.734375
190,29.49,2021-12-17 16:49:39.750000
191,29.58,2021-12-17 16:49:39.765625
192,30.5,2021-12-17 16:49:39.781250
193,31.77,2021-12-17 16:49:39.796875
194,32.62,2021-12-17 16:49:39.812500
195,32.22,2021-12-17 16:49:39.828125
196,30.01,2021-12-17 16:49:39.843750
197,25.88,2021-12-17 16:49:39.859375
198,20.26,2021-12-17 16:49:39.875000
199,13.78,2021-12-17 16:49:39.890625
200,7.05,2021-12-17 16:49:39.906250
201,0.44,2021-12-17 16:49:39.921875
202,-5.85,2021-12-17 16:49:39.937500
203,-11.61,2021-12-17 16:49:39.953125
204,-16.58,2021-12-17 16:49:39.968750
205,-20.5,2021-12-17 16:49:39.984375
206,-23.37,2021-12-17 16:49:40.000000
207,-25.57,2021-12-17 16:49:40.015625
208,-27.76,2021-12-17 16:49:40.031250
209,-30.5,2021-12-17 16:49:40.046875
210,-33.83,2021-12-17 16:49:40.062500
211,-37.21,2021-12-17 16:49:40.078125
212,-39.73,2021-12-17 16:49:40.093750
213,-40.59,2021-12-17 16:49:40.109375
214,-39.43,2021-12-17 16:49:40.125000
215,-36.43,2021-12-17 16:49:40.140625
216,-32.02,2021-12-17 16:49:40.156250
217,-26.62,2021-12-17 16:49:40.171875
218,-20.44,2021-12-17 16:49:40.187500
219,-13.58,2021-12-17 16:49:40.203125
220,-6.26,2021-12-17 16:49:40.218750
221,0.96,2021-12-17 16:49:40.234375
222,7.31,2021-12-17 16:49:40.250000
223,12.11,2021-12-17 16:49:40.265625
224,15.01,2021-12-17 16:49:40.281250
225,16.22,2021-12-17 16:49:40.296875
226,16.21,2021-12-17 16:49:40.312500
227,15.57,2021-12-17 16:49:40.328125
228,14.71,2021-12-17 16:49:40.343750
229,13.82,2021-12-17 16:49:40.359375
230,12.99,2021-12-17 16:49:40.375000
231,12.3,2021-12-17 16:49:40.390625
232,11.97,2021-12-17 16:49:40.406250
233,12.23,2021-12-17 16:49:40.421875
234,13.3,2021-12-17 16:49:40.437500
235,15.33,2021-12-17 16:49:40.453125
236,18.24,2021-12-17 16:49:40.468750
237,21.81,2021-12-17 16:49:40.484375
238,25.66,2021-12-17 16:49:40.500000
239,29.41,2021-12-17 16:49:40.515625
240,32.67,2021-12-17 16:49:40.531250
241,35.13,2021-12-17 16:49:40.546875
242,36.5,2021-12-17 16:49:40.562500
243,36.45,2021-12-17 16:49:40.578125
244,34.53,2021-12-17 16:49:40.593750
245,30.24,2021-12-17 16:49:40.609375
246,23.2,2021-12-17 16:49:40.625000
247,13.34,2021-12-17 16:49:40.640625
248,1.11,2021-12-17 16:49:40.656250
249,-12.44,2021-12-17 16:49:40.671875
250,-25.91,2021-12-17 16:49:40.687500
251,-37.79,2021-12-17 16:49:40.703125
252,-46.68,2021-12-17 16:49:40.718750
253,-51.59,2021-12-17 16:49:40.734375
254,-51.98,2021-12-17 16:49:40.750000
255,-47.99,2021-12-17 16:49:40.765625
256,-40.5,2021-12-17 16:49:40.781250
257,-31.27,2021-12-17 16:49:40.796875
258,-22.65,2021-12-17 16:49:40.812500
259,-17.07,2021-12-17 16:49:40.828125
260,-16.23,2021-12-17 16:49:40.843750
261,-20.37,2021-12-17 16:49:40.859375
262,-28.09,2021-12-17 16:49:40.875000
263,-36.71,2021-12-17 16:49:40.890625
264,-43.14,2021-12-17 16:49:40.906250
265,-44.94,2021-12-17 16:49:40.921875
266,-41.05,2021-12-17 16:49:40.937500
267,-31.99,2021-12-17 16:49:40.953125
268,-19.47,2021-12-17 16:49:40.968750
269,-5.71,2021-12-17 16:49:40.984375
270,7.35,2021-12-17 16:49:41.000000
271,18.53,2021-12-17 16:49:41.015625
272,27.56,2021-12-17 16:49:41.031250
273,34.74,2021-12-17 16:49:41.046875
274,40.57,2021-12-17 16:49:41.062500
275,45.37,2021-12-17 16:49:41.078125
276,49.15,2021-12-17 16:49:41.093750
277,51.79,2021-12-17 16:49:41.109375
278,53.24,2021-12-17 16:49:41.125000
279,53.76,2021-12-17 16:49:41.140625
280,53.85,2021-12-17 16:49:41.156250
281,54.05,2021-12-17 16:49:41.171875
282,54.59,2021-12-17 16:49:41.187500
283,55.33,2021-12-17 16:49:41.203125
284,55.73,2021-12-17 16:49:41.218750
285,55.27,2021-12-17 16:49:41.234375
286,53.73,2021-12-17 16:49:41.250000
287,51.4,2021-12-17 16:49:41.265625
288,49.04,2021-12-17 16:49:41.281250
289,47.52,2021-12-17 16:49:41.296875
290,47.46,2021-12-17 16:49:41.312500
291,48.85,2021-12-17 16:49:41.328125
292,51.03,2021-12-17 16:49:41.343750
293,52.9,2021-12-17 16:49:41.359375
294,53.39,2021-12-17 16:49:41.375000
295,51.88,2021-12-17 16:49:41.390625
296,48.42,2021-12-17 16:49:41.406250
297,43.7,2021-12-17 16:49:41.421875
298,38.57,2021-12-17 16:49:41.437500
299,33.71,2021-12-17 16:49:41.453125
300,29.32,2021-12-17 16:49:41.468750
301,25.11,2021-12-17 16:49:41.484375
302,20.59,2021-12-17 16:49:41.500000
303,15.36,2021-12-17 16:49:41.515625
304,9.35,2021-12-17 16:49:41.531250
305,2.78,2021-12-17 16:49:41.546875
306,-3.96,2021-12-17 16:49:41.562500
307,-10.6,2021-12-17 16:49:41.578125
308,-17.04,2021-12-17 16:49:41.593750
309,-23.41,2021-12-17 16:49:41.609375
310,-29.85,2021-12-17 16:49:41.625000
311,-36.36,2021-12-17 16:49:41.640625
312,-42.71,2021-12-17 16:49:41.656250
313,-48.48,2021-12-17 16:49:41.671875
314,-53.34,2021-12-17 16:49:41.687500
315,-57.26,2021-12-17 16:49:41.703125
316,-60.51,2021-12-17 16:49:41.718750
317,-63.46,2021-12-17 16:49:41.734375
318,-66.43,2021-12-17 16:49:41.750000
319,-69.38,2021-12-17 16:49:41.765625
320,-72.0,2021-12-17 16:49:41.781250
321,-73.75,2021-12-17 16:49:41.796875
322,-74.11,2021-12-17 16:49:41.812500
323,-72.88,2021-12-17 16:49:41.828125
324,-70.21,2021-12-17 16:49:41.843750
325,-66.55,2021-12-17 16:49:41.859375
326,-62.38,2021-12-17 16:49:41.875000
327,-58.17,2021-12-17 16:49:41.890625
328,-54.35,2021-12-17 16:49:41.906250
329,-51.25,2021-12-17 16:49:41.921875
330,-49.1,2021-12-17 16:49:41.937500
331,-47.76,2021-12-17 16:49:41.953125
332,-46.94,2021-12-17 16:49:41.968750
333,-46.26,2021-12-17 16:49:41.984375
334,-45.38,2021-12-17 16:49:42.000000
335,-44.04,2021-12-17 16:49:42.015625
336,-42.19,2021-12-17 16:49:42.031250
337,-39.84,2021-12-17 16:49:42.046875
338,-36.92,2021-12-17 16:49:42.062500
339,-33.21,2021-12-17 16:49:42.078125
340,-28.05,2021-12-17 16:49:42.093750
341,-21.09,2021-12-17 16:49:42.109375
342,-12.57,2021-12-17 16:49:42.125000
343,-3.19,2021-12-17 16:49:42.140625
344,6.34,2021-12-17 16:49:42.156250
345,15.47,2021-12-17 16:49:42.171875
346,23.75,2021-12-17 16:49:42.187500
347,30.8,2021-12-17 16:49:42.203125
348,36.27,2021-12-17 16:49:42.218750
349,40.52,2021-12-17 16:49:42.234375
350,43.75,2021-12-17 16:49:42.250000
351,45.98,2021-12-17 16:49:42.265625
352,47.37,2021-12-17 16:49:42.281250
353,48.47,2021-12-17 16:49:42.296875
354,49.99,2021-12-17 16:49:42.312500
355,52.41,2021-12-17 16:49:42.328125
356,55.89,2021-12-17 16:49:42.343750
357,60.52,2021-12-17 16:49:42.359375
358,67.45,2021-12-17 16:49:42.375000
359,77.01,2021-12-17 16:49:42.390625
360,88.26,2021-12-17 16:49:42.406250
361,99.59,2021-12-17 16:49:42.421875
362,109.71,2021-12-17 16:49:42.437500
363,118.03,2021-12-17 16:49:42.453125
364,124.46,2021-12-17 16:49:42.468750
365,129.22,2021-12-17 16:49:42.484375
366,132.64,2021-12-17 16:49:42.500000
367,136.35,2021-12-17 16:49:42.515625
368,140.84,2021-12-17 16:49:42.531250
369,145.0,2021-12-17 16:49:42.546875
370,146.77,2021-12-17 16:49:42.562500
371,144.07,2021-12-17 16:49:42.578125
372,135.27,2021-12-17 16:49:42.593750
373,119.15,2021-12-17 16:49:42.609375
374,95.65,2021-12-17 16:49:42.625000
375,58.54,2021-12-17 16:49:42.640625
376,11.36,2021-12-17 16:49:42.656250
377,-34.63,2021-12-17 16:49:42.671875
378,-68.02,2021-12-17 16:49:42.687500
379,-84.47,2021-12-17 16:49:42.703125
380,-86.6,2021-12-17 16:49:42.718750
381,-80.07,2021-12-17 16:49:42.734375
382,-70.43,2021-12-17 16:49:42.750000
383,-62.19,2021-12-17 16:49:42.765625
384,-58.78,2021-12-17 16:49:42.781250
385,-61.35,2021-12-17 16:49:42.796875
386,-70.67,2021-12-17 16:49:42.812500
387,-86.83,2021-12-17 16:49:42.828125
388,-108.29,2021-12-17 16:49:42.843750
389,-131.18,2021-12-17 16:49:42.859375
390,-149.06,2021-12-17 16:49:42.875000
391,-156.09,2021-12-17 16:49:42.890625
392,-149.59,2021-12-17 16:49:42.906250
393,-131.07,2021-12-17 16:49:42.921875
394,-104.45,2021-12-17 16:49:42.937500
395,-75.94,2021-12-17 16:49:42.953125
396,-51.91,2021-12-17 16:49:42.968750
397,-36.54,2021-12-17 16:49:42.984375
398,-30.32,2021-12-17 16:49:43.000000
399,-30.52,2021-12-17 16:49:43.015625
400,-33.2,2021-12-17 16:49:43.031250
401,-34.9,2021-12-17 16:49:43.046875
402,-33.74,2021-12-17 16:49:43.062500
403,-28.84,2021-12-17 16:49:43.078125
404,-20.88,2021-12-17 16:49:43.093750
405,-11.39,2021-12-17 16:49:43.109375
406,-1.86,2021-12-17 16:49:43.125000
407,7.0,2021-12-17 16:49:43.140625
408,15.07,2021-12-17 16:49:43.156250
409,22.05,2021-12-17 16:49:43.171875
410,27.15,2021-12-17 16:49:43.187500
411,29.27,2021-12-17 16:49:43.203125
412,27.94,2021-12-17 16:49:43.218750
413,23.52,2021-12-17 16:49:43.234375
414,17.4,2021-12-17 16:49:43.250000
415,11.81,2021-12-17 16:49:43.265625
416,9.18,2021-12-17 16:49:43.281250
417,11.03,2021-12-17 16:49:43.296875
418,17.24,2021-12-17 16:49:43.312500
419,26.02,2021-12-17 16:49:43.328125
420,34.86,2021-12-17 16:49:43.343750
421,41.62,2021-12-17 16:49:43.359375
422,45.26,2021-12-17 16:49:43.375000
423,45.94,2021-12-17 16:49:43.390625
424,44.71,2021-12-17 16:49:43.406250
425,42.74,2021-12-17 16:49:43.421875
426,40.82,2021-12-17 16:49:43.437500
427,39.11,2021-12-17 16:49:43.453125
428,37.39,2021-12-17 16:49:43.468750
429,35.69,2021-12-17 16:49:43.484375
430,34.47,2021-12-17 16:49:43.500000
431,34.46,2021-12-17 16:49:43.515625
432,36.22,2021-12-17 16:49:43.531250
433,39.59,2021-12-17 16:49:43.546875
434,43.62,2021-12-17 16:49:43.562500
435,46.92,2021-12-17 16:49:43.578125
436,48.27,2021-12-17 16:49:43.593750
437,47.21,2021-12-17 16:49:43.609375
438,44.26,2021-12-17 16:49:43.625000
439,40.64,2021-12-17 16:49:43.640625
440,37.67,2021-12-17 16:49:43.656250
441,36.12,2021-12-17 16:49:43.671875
442,35.87,2021-12-17 16:49:43.687500
443,35.92,2021-12-17 16:49:43.703125
444,34.93,2021-12-17 16:49:43.718750
445,31.78,2021-12-17 16:49:43.734375
446,25.91,2021-12-17 16:49:43.750000
447,17.44,2021-12-17 16:49:43.765625
448,7.05,2021-12-17 16:49:43.781250
449,-4.26,2021-12-17 16:49:43.796875
450,-15.34,2021-12-17 16:49:43.812500
451,-25.13,2021-12-17 16:49:43.828125
452,-32.98,2021-12-17 16:49:43.843750
453,-38.86,2021-12-17 16:49:43.859375
454,-43.6,2021-12-17 16:49:43.875000
455,-48.67,2021-12-17 16:49:43.890625
456,-55.71,2021-12-17 16:49:43.906250
457,-65.66,2021-12-17 16:49:43.921875
458,-78.44,2021-12-17 16:49:43.937500
459,-92.83,2021-12-17 16:49:43.953125
460,-107.03,2021-12-17 16:49:43.968750
461,-119.45,2021-12-17 16:49:43.984375
462,-129.14,2021-12-17 16:49:44.000000
463,-135.77,2021-12-17 16:49:44.015625
464,-139.22,2021-12-17 16:49:44.031250
465,-139.34,2021-12-17 16:49:44.046875
466,-135.94,2021-12-17 16:49:44.062500
467,-129.26,2021-12-17 16:49:44.078125
468,-120.31,2021-12-17 16:49:44.093750
469,-110.53,2021-12-17 16:49:44.109375
470,-101.5,2021-12-17 16:49:44.125000
471,-94.26,2021-12-17 16:49:44.140625
472,-88.9,2021-12-17 16:49:44.156250
473,-84.53,2021-12-17 16:49:44.171875
474,-79.85,2021-12-17 16:49:44.187500
475,-74.11,2021-12-17 16:49:44.203125
476,-67.83,2021-12-17 16:49:44.218750
477,-62.51,2021-12-17 16:49:44.234375
478,-59.01,2021-12-17 16:49:44.250000
479,-56.62,2021-12-17 16:49:44.265625
480,-52.83,2021-12-17 16:49:44.281250
481,-44.52,2021-12-17 16:49:44.296875
482,-29.89,2021-12-17 16:49:44.312500
483,-10.37,2021-12-17 16:49:44.328125
484,9.51,2021-12-17 16:49:44.343750
485,24.03,2021-12-17 16:49:44.359375
486,29.54,2021-12-17 16:49:44.375000
487,28.02,2021-12-17 16:49:44.390625
488,26.24,2021-12-17 16:49:44.406250
489,32.77,2021-12-17 16:49:44.421875
490,53.78,2021-12-17 16:49:44.437500
491,90.08,2021-12-17 16:49:44.453125
492,136.45,2021-12-17 16:49:44.468750
493,184.34,2021-12-17 16:49:44.484375
494,224.87,2021-12-17 16:49:44.500000
495,251.85,2021-12-17 16:49:44.515625
496,264.71,2021-12-17 16:49:44.531250
497,265.97,2021-12-17 16:49:44.546875
498,258.61,2021-12-17 16:49:44.562500
499,244.67,2021-12-17 16:49:44.578125
500,225.42,2021-12-17 16:49:44.593750
501,201.82,2021-12-17 16:49:44.609375
502,176.67,2021-12-17 16:49:44.625000
503,153.35,2021-12-17 16:49:44.640625
504,135.24,2021-12-17 16:49:44.656250
505,127.6,2021-12-17 16:49:44.671875
506,133.64,2021-12-17 16:49:44.687500
507,152.56,2021-12-17 16:49:44.703125
508,179.64,2021-12-17 16:49:44.718750
509,208.61,2021-12-17 16:49:44.734375
510,232.75,2021-12-17 16:49:44.750000
511,248.31,2021-12-17 16:49:44.765625
512,252.77,2021-12-17 16:49:44.781250
513,244.87,2021-12-17 16:49:44.796875
514,228.44,2021-12-17 16:49:44.812500
515,208.75,2021-12-17 16:49:44.828125
516,190.19,2021-12-17 16:49:44.843750
517,175.53,2021-12-17 16:49:44.859375
518,166.8,2021-12-17 16:49:44.875000
519,164.34,2021-12-17 16:49:44.890625
520,169.37,2021-12-17 16:49:44.906250
521,181.07,2021-12-17 16:49:44.921875
522,176.07,2021-12-17 16:49:44.937500
523,141.12,2021-12-17 16:49:44.953125
524,80.41,2021-12-17 16:49:44.968750
525,12.48,2021-12-17 16:49:44.984375
526,-45.08,2021-12-17 16:49:45.000000
527,-77.47,2021-12-17 16:49:45.015625
528,-94.19,2021-12-17 16:49:45.031250
529,-104.59,2021-12-17 16:49:45.046875
530,-114.53,2021-12-17 16:49:45.062500
531,-125.69,2021-12-17 16:49:45.078125
532,-135.53,2021-12-17 16:49:45.093750
533,-138.94,2021-12-17 16:49:45.109375
534,-133.61,2021-12-17 16:49:45.125000
535,-122.17,2021-12-17 16:49:45.140625
536,-110.6,2021-12-17 16:49:45.156250
537,-106.54,2021-12-17 16:49:45.171875
538,-113.55,2021-12-17 16:49:45.187500
539,-132.0,2021-12-17 16:49:45.203125
540,-158.84,2021-12-17 16:49:45.218750
541,-186.15,2021-12-17 16:49:45.234375
542,-206.49,2021-12-17 16:49:45.250000
543,-217.28,2021-12-17 16:49:45.265625
544,-221.42,2021-12-17 16:49:45.281250
545,-224.2,2021-12-17 16:49:45.296875
546,-230.5,2021-12-17 16:49:45.312500
547,-240.16,2021-12-17 16:49:45.328125
548,-249.83,2021-12-17 16:49:45.343750
549,-254.7,2021-12-17 16:49:45.359375
550,-248.88,2021-12-17 16:49:45.375000
551,-228.19,2021-12-17 16:49:45.390625
552,-191.5,2021-12-17 16:49:45.406250
553,-140.23,2021-12-17 16:49:45.421875
554,-77.19,2021-12-17 16:49:45.437500
555,-7.12,2021-12-17 16:49:45.453125
556,63.9,2021-12-17 16:49:45.468750
557,126.91,2021-12-17 16:49:45.484375
558,171.38,2021-12-17 16:49:45.500000
559,189.31,2021-12-17 16:49:45.515625
560,177.8,2021-12-17 16:49:45.531250
561,140.14,2021-12-17 16:49:45.546875
562,84.79,2021-12-17 16:49:45.562500
563,22.77,2021-12-17 16:49:45.578125
564,-36.1,2021-12-17 16:49:45.593750
565,-84.94,2021-12-17 16:49:45.609375
566,-121.15,2021-12-17 16:49:45.625000
567,-145.44,2021-12-17 16:49:45.640625
568,-159.78,2021-12-17 16:49:45.656250
569,-166.02,2021-12-17 16:49:45.671875
570,-165.56,2021-12-17 16:49:45.687500
571,-159.71,2021-12-17 16:49:45.703125
572,-150.05,2021-12-17 16:49:45.718750
573,-138.6,2021-12-17 16:49:45.734375
574,-127.33,2021-12-17 16:49:45.750000
575,-117.83,2021-12-17 16:49:45.765625
576,-110.8,2021-12-17 16:49:45.781250
577,-105.94,2021-12-17 16:49:45.796875
578,-102.15,2021-12-17 16:49:45.812500
579,-98.04,2021-12-17 16:49:45.828125
580,-92.45,2021-12-17 16:49:45.843750
581,-84.66,2021-12-17 16:49:45.859375
582,-74.42,2021-12-17 16:49:45.875000
583,-61.99,2021-12-17 16:49:45.890625
584,-48.14,2021-12-17 16:49:45.906250
585,-33.99,2021-12-17 16:49:45.921875
586,-20.67,2021-12-17 16:49:45.937500
587,-8.73,2021-12-17 16:49:45.953125
588,2.18,2021-12-17 16:49:45.968750
589,13.35,2021-12-17 16:49:45.984375
590,26.36,2021-12-17 16:49:46.000000
591,42.19,2021-12-17 16:49:46.015625
592,60.49,2021-12-17 16:49:46.031250
593,79.67,2021-12-17 16:49:46.046875
594,97.78,2021-12-17 16:49:46.062500
595,113.5,2021-12-17 16:49:46.078125
596,126.58,2021-12-17 16:49:46.093750
597,137.14,2021-12-17 16:49:46.109375
598,144.33,2021-12-17 16:49:46.125000
599,145.68,2021-12-17 16:49:46.140625
600,137.93,2021-12-17 16:49:46.156250
601,119.07,2021-12-17 16:49:46.171875
602,90.56,2021-12-17 16:49:46.187500
603,58.03,2021-12-17 16:49:46.203125
604,29.64,2021-12-17 16:49:46.218750
605,12.88,2021-12-17 16:49:46.234375
606,11.48,2021-12-17 16:49:46.250000
607,24.09,2021-12-17 16:49:46.265625
608,45.33,2021-12-17 16:49:46.281250
609,68.49,2021-12-17 16:49:46.296875
610,88.06,2021-12-17 16:49:46.312500
611,101.3,2021-12-17 16:49:46.328125
612,107.74,2021-12-17 16:49:46.343750
613,107.71,2021-12-17 16:49:46.359375
614,101.14,2021-12-17 16:49:46.375000
615,87.5,2021-12-17 16:49:46.390625
616,66.76,2021-12-17 16:49:46.406250
617,40.42,2021-12-17 16:49:46.421875
618,12.0,2021-12-17 16:49:46.437500
619,-13.91,2021-12-17 16:49:46.453125
620,-33.33,2021-12-17 16:49:46.468750
621,-44.53,2021-12-17 16:49:46.484375
622,-48.73,2021-12-17 16:49:46.500000
623,-49.37,2021-12-17 16:49:46.515625
624,-50.33,2021-12-17 16:49:46.531250
625,-54.05,2021-12-17 16:49:46.546875
626,-60.49,2021-12-17 16:49:46.562500
627,-67.34,2021-12-17 16:49:46.578125
628,-71.4,2021-12-17 16:49:46.593750
629,-70.04,2021-12-17 16:49:46.609375
630,-62.12,2021-12-17 16:49:46.625000
631,-47.86,2021-12-17 16:49:46.640625
632,-28.32,2021-12-17 16:49:46.656250
633,-4.78,2021-12-17 16:49:46.671875
634,21.41,2021-12-17 16:49:46.687500
635,48.54,2021-12-17 16:49:46.703125
636,74.45,2021-12-17 16:49:46.718750
637,96.66,2021-12-17 16:49:46.734375
638,113.0,2021-12-17 16:49:46.750000
639,122.4,2021-12-17 16:49:46.765625
640,125.3,2021-12-17 16:49:46.781250
641,123.46,2021-12-17 16:49:46.796875
642,119.2,2021-12-17 16:49:46.812500
643,114.4,2021-12-17 16:49:46.828125
644,109.97,2021-12-17 16:49:46.843750
645,105.74,2021-12-17 16:49:46.859375
646,100.8,2021-12-17 16:49:46.875000
647,93.95,2021-12-17 16:49:46.890625
648,84.18,2021-12-17 16:49:46.906250
649,70.97,2021-12-17 16:49:46.921875
650,54.5,2021-12-17 16:49:46.937500
651,35.88,2021-12-17 16:49:46.953125
652,17.11,2021-12-17 16:49:46.968750
653,0.72,2021-12-17 16:49:46.984375
654,-11.09,2021-12-17 16:49:47.000000
655,-17.29,2021-12-17 16:49:47.015625
656,-18.66,2021-12-17 16:49:47.031250
657,-17.88,2021-12-17 16:49:47.046875
658,-18.68,2021-12-17 16:49:47.062500
659,-24.59,2021-12-17 16:49:47.078125
660,-37.82,2021-12-17 16:49:47.093750
661,-58.52,2021-12-17 16:49:47.109375
662,-84.73,2021-12-17 16:49:47.125000
663,-112.89,2021-12-17 16:49:47.140625
664,-138.68,2021-12-17 16:49:47.156250
665,-157.66,2021-12-17 16:49:47.171875
666,-165.7,2021-12-17 16:49:47.187500
667,-159.62,2021-12-17 16:49:47.203125
668,-138.18,2021-12-17 16:49:47.218750
669,-103.02,2021-12-17 16:49:47.234375
670,-58.99,2021-12-17 16:49:47.250000
671,-13.44,2021-12-17 16:49:47.265625
672,25.41,2021-12-17 16:49:47.281250
673,50.81,2021-12-17 16:49:47.296875
674,59.35,2021-12-17 16:49:47.312500
675,51.89,2021-12-17 16:49:47.328125
676,33.12,2021-12-17 16:49:47.343750
677,10.21,2021-12-17 16:49:47.359375
678,-9.13,2021-12-17 16:49:47.375000
679,-18.68,2021-12-17 16:49:47.390625
680,-15.15,2021-12-17 16:49:47.406250
681,0.82,2021-12-17 16:49:47.421875
682,24.9,2021-12-17 16:49:47.437500
683,50.32,2021-12-17 16:49:47.453125
684,70.2,2021-12-17 16:49:47.468750
685,79.85,2021-12-17 16:49:47.484375
686,78.1,2021-12-17 16:49:47.500000
687,67.17,2021-12-17 16:49:47.515625
688,50.98,2021-12-17 16:49:47.531250
689,33.21,2021-12-17 16:49:47.546875
690,16.08,2021-12-17 16:49:47.562500
691,0.54,2021-12-17 16:49:47.578125
692,-12.9,2021-12-17 16:49:47.593750
693,-23.49,2021-12-17 16:49:47.609375
694,-30.23,2021-12-17 16:49:47.625000
695,-32.55,2021-12-17 16:49:47.640625
696,-30.94,2021-12-17 16:49:47.656250
697,-27.13,2021-12-17 16:49:47.671875
698,-23.35,2021-12-17 16:49:47.687500
699,-21.21,2021-12-17 16:49:47.703125
700,-20.89,2021-12-17 16:49:47.718750
701,-21.18,2021-12-17 16:49:47.734375
702,-20.25,2021-12-17 16:49:47.750000
703,-16.66,2021-12-17 16:49:47.765625
704,-10.15,2021-12-17 16:49:47.781250
705,-1.73,2021-12-17 16:49:47.796875
706,6.83,2021-12-17 16:49:47.812500
707,13.69,2021-12-17 16:49:47.828125
708,17.69,2021-12-17 16:49:47.843750
709,18.76,2021-12-17 16:49:47.859375
710,17.87,2021-12-17 16:49:47.875000
711,16.58,2021-12-17 16:49:47.890625
712,16.48,2021-12-17 16:49:47.906250
713,18.6,2021-12-17 16:49:47.921875
714,23.04,2021-12-17 16:49:47.937500
715,28.82,2021-12-17 16:49:47.953125
716,34.18,2021-12-17 16:49:47.968750
717,37.03,2021-12-17 16:49:47.984375
718,35.79,2021-12-17 16:49:48.000000
719,29.9,2021-12-17 16:49:48.015625
720,20.05,2021-12-17 16:49:48.031250
721,8.08,2021-12-17 16:49:48.046875
722,-3.48,2021-12-17 16:49:48.062500
723,-12.15,2021-12-17 16:49:48.078125
724,-16.29,2021-12-17 16:49:48.093750
725,-15.87,2021-12-17 16:49:48.109375
726,-12.67,2021-12-17 16:49:48.125000
727,-9.73,2021-12-17 16:49:48.140625
728,-10.18,2021-12-17 16:49:48.156250
729,-15.84,2021-12-17 16:49:48.171875
730,-26.34,2021-12-17 16:49:48.187500
731,-39.2,2021-12-17 16:49:48.203125
732,-51.05,2021-12-17 16:49:48.218750
733,-59.06,2021-12-17 16:49:48.234375
734,-62.13,2021-12-17 16:49:48.250000
735,-60.9,2021-12-17 16:49:48.265625
736,-56.9,2021-12-17 16:49:48.281250
737,-51.57,2021-12-17 16:49:48.296875
738,-45.43,2021-12-17 16:49:48.312500
739,-38.26,2021-12-17 16:49:48.328125
740,-29.61,2021-12-17 16:49:48.343750
741,-19.51,2021-12-17 16:49:48.359375
742,-8.62,2021-12-17 16:49:48.375000
743,2.01,2021-12-17 16:49:48.390625
744,11.41,2021-12-17 16:49:48.406250
745,18.99,2021-12-17 16:49:48.421875
746,24.62,2021-12-17 16:49:48.437500
747,28.59,2021-12-17 16:49:48.453125
748,31.31,2021-12-17 16:49:48.468750
749,32.96,2021-12-17 16:49:48.484375
750,33.24,2021-12-17 16:49:48.500000
751,31.2,2021-12-17 16:49:48.515625
752,25.42,2021-12-17 16:49:48.531250
753,14.7,2021-12-17 16:49:48.546875
754,-1.11,2021-12-17 16:49:48.562500
755,-20.44,2021-12-17 16:49:48.578125
756,-39.99,2021-12-17 16:49:48.593750
757,-55.39,2021-12-17 16:49:48.609375
758,-62.59,2021-12-17 16:49:48.625000
759,-59.38,2021-12-17 16:49:48.640625
760,-46.45,2021-12-17 16:49:48.656250
761,-27.66,2021-12-17 16:49:48.671875
762,-8.88,2021-12-17 16:49:48.687500
763,3.83,2021-12-17 16:49:48.703125
764,6.35,2021-12-17 16:49:48.718750
765,-2.21,2021-12-17 16:49:48.734375
766,-19.59,2021-12-17 16:49:48.750000
767,-41.69,2021-12-17 16:49:48.765625
768,-63.92,2021-12-17 16:49:48.781250
769,-82.22,2021-12-17 16:49:48.796875
770,-93.41,2021-12-17 16:49:48.812500
771,-95.55,2021-12-17 16:49:48.828125
772,-88.31,2021-12-17 16:49:48.843750
773,-73.65,2021-12-17 16:49:48.859375
774,-55.92,2021-12-17 16:49:48.875000
775,-40.89,2021-12-17 16:49:48.890625
776,-33.75,2021-12-17 16:49:48.906250
777,-36.83,2021-12-17 16:49:48.921875
778,-48.46,2021-12-17 16:49:48.937500
779,-63.59,2021-12-17 16:49:48.953125
780,-76.07,2021-12-17 16:49:48.968750
781,-81.25,2021-12-17 16:49:48.984375
782,-77.6,2021-12-17 16:49:49.000000
783,-66.39,2021-12-17 16:49:49.015625
784,-50.37,2021-12-17 16:49:49.031250
785,-31.97,2021-12-17 16:49:49.046875
786,-12.36,2021-12-17 16:49:49.062500
787,8.28,2021-12-17 16:49:49.078125
788,29.86,2021-12-17 16:49:49.093750
789,51.63,2021-12-17 16:49:49.109375
790,72.04,2021-12-17 16:49:49.125000
791,89.22,2021-12-17 16:49:49.140625
792,101.72,2021-12-17 16:49:49.156250
793,109.29,2021-12-17 16:49:49.171875
794,112.95,2021-12-17 16:49:49.187500
795,114.29,2021-12-17 16:49:49.203125
796,114.4,2021-12-17 16:49:49.218750
797,113.07,2021-12-17 16:49:49.234375
798,108.78,2021-12-17 16:49:49.250000
799,99.6,2021-12-17 16:49:49.265625
800,84.44,2021-12-17 16:49:49.281250
801,64.02,2021-12-17 16:49:49.296875
802,40.91,2021-12-17 16:49:49.312500
803,19.07,2021-12-17 16:49:49.328125
804,2.59,2021-12-17 16:49:49.343750
805,-5.24,2021-12-17 16:49:49.359375
806,-2.67,2021-12-17 16:49:49.375000
807,10.08,2021-12-17 16:49:49.390625
808,30.86,2021-12-17 16:49:49.406250
809,56.11,2021-12-17 16:49:49.421875
810,81.26,2021-12-17 16:49:49.437500
811,101.54,2021-12-17 16:49:49.453125
812,112.8,2021-12-17 16:49:49.468750
813,112.63,2021-12-17 16:49:49.484375
814,101.02,2021-12-17 16:49:49.500000
815,80.6,2021-12-17 16:49:49.515625
816,55.73,2021-12-17 16:49:49.531250
817,31.14,2021-12-17 16:49:49.546875
818,10.49,2021-12-17 16:49:49.562500
819,-4.54,2021-12-17 16:49:49.578125
820,-14.16,2021-12-17 16:49:49.593750
821,-19.69,2021-12-17 16:49:49.609375
822,-22.54,2021-12-17 16:49:49.625000
823,-23.62,2021-12-17 16:49:49.640625
824,-23.38,2021-12-17 16:49:49.656250
825,-22.29,2021-12-17 16:49:49.671875
826,-21.11,2021-12-17 16:49:49.687500
827,-20.82,2021-12-17 16:49:49.703125
828,-21.97,2021-12-17 16:49:49.718750
829,-24.23,2021-12-17 16:49:49.734375
830,-26.31,2021-12-17 16:49:49.750000
831,-26.49,2021-12-17 16:49:49.765625
832,-23.37,2021-12-17 16:49:49.781250
833,-16.56,2021-12-17 16:49:49.796875
834,-6.95,2021-12-17 16:49:49.812500
835,3.64,2021-12-17 16:49:49.828125
836,12.86,2021-12-17 16:49:49.843750
837,18.49,2021-12-17 16:49:49.859375
838,19.16,2021-12-17 16:49:49.875000
839,14.45,2021-12-17 16:49:49.890625
840,4.74,2021-12-17 16:49:49.906250
841,-9.13,2021-12-17 16:49:49.921875
842,-26.32,2021-12-17 16:49:49.937500
843,-45.83,2021-12-17 16:49:49.953125
844,-66.37,2021-12-17 16:49:49.968750
845,-86.01,2021-12-17 16:49:49.984375
846,-102.34,2021-12-17 16:49:50.000000
847,-113.05,2021-12-17 16:49:50.015625
848,-116.72,2021-12-17 16:49:50.031250
849,-113.29,2021-12-17 16:49:50.046875
850,-104.04,2021-12-17 16:49:50.062500
851,-90.9,2021-12-17 16:49:50.078125
852,-75.82,2021-12-17 16:49:50.093750
853,-60.45,2021-12-17 16:49:50.109375
854,-46.21,2021-12-17 16:49:50.125000
855,-34.32,2021-12-17 16:49:50.140625
856,-25.57,2021-12-17 16:49:50.156250
857,-20.12,2021-12-17 16:49:50.171875
858,-17.37,2021-12-17 16:49:50.187500
859,-16.36,2021-12-17 16:49:50.203125
860,-16.25,2021-12-17 16:49:50.218750
861,-16.71,2021-12-17 16:49:50.234375
862,-17.84,2021-12-17 16:49:50.250000
863,-19.63,2021-12-17 16:49:50.265625
864,-21.41,2021-12-17 16:49:50.281250
865,-21.73,2021-12-17 16:49:50.296875
866,-18.67,2021-12-17 16:49:50.312500
867,-10.64,2021-12-17 16:49:50.328125
868,2.66,2021-12-17 16:49:50.343750
869,19.67,2021-12-17 16:49:50.359375
870,37.09,2021-12-17 16:49:50.375000
871,50.77,2021-12-17 16:49:50.390625
872,57.02,2021-12-17 16:49:50.406250
873,53.96,2021-12-17 16:49:50.421875
874,42.21,2021-12-17 16:49:50.437500
875,24.92,2021-12-17 16:49:50.453125
876,6.56,2021-12-17 16:49:50.468750
877,-8.65,2021-12-17 16:49:50.484375
878,-18.26,2021-12-17 16:49:50.500000
879,-22.15,2021-12-17 16:49:50.515625
880,-22.18,2021-12-17 16:49:50.531250
881,-20.97,2021-12-17 16:49:50.546875
882,-20.74,2021-12-17 16:49:50.562500
883,-22.56,2021-12-17 16:49:50.578125
884,-26.25,2021-12-17 16:49:50.593750
885,-30.64,2021-12-17 16:49:50.609375
886,-34.06,2021-12-17 16:49:50.625000
887,-34.85,2021-12-17 16:49:50.640625
888,-31.84,2021-12-17 16:49:50.656250
889,-24.88,2021-12-17 16:49:50.671875
890,-14.9,2021-12-17 16:49:50.687500
891,-3.6,2021-12-17 16:49:50.703125
892,7.15,2021-12-17 16:49:50.718750
893,15.97,2021-12-17 16:49:50.734375
894,22.21,2021-12-17 16:49:50.750000
895,25.85,2021-12-17 16:49:50.765625
896,27.19,2021-12-17 16:49:50.781250
897,26.51,2021-12-17 16:49:50.796875
898,23.99,2021-12-17 16:49:50.812500
899,19.95,2021-12-17 16:49:50.828125
900,15.02,2021-12-17 16:49:50.843750
901,10.12,2021-12-17 16:49:50.859375
902,6.1,2021-12-17 16:49:50.875000
903,3.48,2021-12-17 16:49:50.890625
904,2.23,2021-12-17 16:49:50.906250
905,1.87,2021-12-17 16:49:50.921875
906,1.63,2021-12-17 16:49:50.937500
907,1.01,2021-12-17 16:49:50.953125
908,-0.02,2021-12-17 16:49:50.968750
909,-1.01,2021-12-17 16:49:50.984375
910,-1.29,2021-12-17 16:49:51.000000
911,-0.4,2021-12-17 16:49:51.015625
912,1.7,2021-12-17 16:49:51.031250
913,4.48,2021-12-17 16:49:51.046875
914,7.17,2021-12-17 16:49:51.062500
915,9.08,2021-12-17 16:49:51.078125
916,10.0,2021-12-17 16:49:51.093750
917,10.23,2021-12-17 16:49:51.109375
918,10.38,2021-12-17 16:49:51.125000
919,10.9,2021-12-17 16:49:51.140625
920,11.73,2021-12-17 16:49:51.156250
921,12.3,2021-12-17 16:49:51.171875
922,11.84,2021-12-17 16:49:51.187500
923,10.04,2021-12-17 16:49:51.203125
924,7.28,2021-12-17 16:49:51.218750
925,4.61,2021-12-17 16:49:51.234375
926,3.26,2021-12-17 16:49:51.250000
927,3.84,2021-12-17 16:49:51.265625
928,5.85,2021-12-17 16:49:51.281250
929,7.68,2021-12-17 16:49:51.296875
930,7.32,2021-12-17 16:49:51.312500
931,3.28,2021-12-17 16:49:51.328125
932,-4.58,2021-12-17 16:49:51.343750
933,-14.93,2021-12-17 16:49:51.359375
934,-25.5,2021-12-17 16:49:51.375000
935,-34.11,2021-12-17 16:49:51.390625
936,-39.61,2021-12-17 16:49:51.406250
937,-42.25,2021-12-17 16:49:51.421875
938,-43.52,2021-12-17 16:49:51.437500
939,-45.35,2021-12-17 16:49:51.453125
940,-49.26,2021-12-17 16:49:51.468750
941,-55.54,2021-12-17 16:49:51.484375
942,-63.11,2021-12-17 16:49:51.500000
943,-69.71,2021-12-17 16:49:51.515625
944,-72.52,2021-12-17 16:49:51.531250
945,-68.92,2021-12-17 16:49:51.546875
946,-57.29,2021-12-17 16:49:51.562500
947,-37.92,2021-12-17 16:49:51.578125
948,-13.67,2021-12-17 16:49:51.593750
949,10.1,2021-12-17 16:49:51.609375
950,26.69,2021-12-17 16:49:51.625000
951,30.32,2021-12-17 16:49:51.640625
952,18.56,2021-12-17 16:49:51.656250
953,-6.1,2021-12-17 16:49:51.671875
954,-36.52,2021-12-17 16:49:51.687500
955,-63.22,2021-12-17 16:49:51.703125
956,-77.85,2021-12-17 16:49:51.718750
957,-76.23,2021-12-17 16:49:51.734375
958,-59.51,2021-12-17 16:49:51.750000
959,-33.07,2021-12-17 16:49:51.765625
960,-3.87,2021-12-17 16:49:51.781250
961,22.48,2021-12-17 16:49:51.796875
962,43.28,2021-12-17 16:49:51.812500
963,58.58,2021-12-17 16:49:51.828125
964,69.78,2021-12-17 16:49:51.843750
965,77.79,2021-12-17 16:49:51.859375
966,82.05,2021-12-17 16:49:51.875000
967,80.69,2021-12-17 16:49:51.890625
968,71.66,2021-12-17 16:49:51.906250
969,54.17,2021-12-17 16:49:51.921875
970,29.67,2021-12-17 16:49:51.937500
971,1.83,2021-12-17 16:49:51.953125
972,-24.59,2021-12-17 16:49:51.968750
973,-45.34,2021-12-17 16:49:51.984375
974,-57.99,2021-12-17 16:49:52.000000
975,-62.22,2021-12-17 16:49:52.015625
976,-59.29,2021-12-17 16:49:52.031250
977,-50.93,2021-12-17 16:49:52.046875
978,-38.48,2021-12-17 16:49:52.062500
979,-22.71,2021-12-17 16:49:52.078125
980,-4.27,2021-12-17 16:49:52.093750
981,15.62,2021-12-17 16:49:52.109375
982,34.91,2021-12-17 16:49:52.125000
983,51.03,2021-12-17 16:49:52.140625
984,61.69,2021-12-17 16:49:52.156250
985,65.71,2021-12-17 16:49:52.171875
986,63.35,2021-12-17 16:49:52.187500
987,56.08,2021-12-17 16:49:52.203125
988,45.96,2021-12-17 16:49:52.218750
989,34.8,2021-12-17 16:49:52.234375
990,23.74,2021-12-17 16:49:52.250000
991,13.21,2021-12-17 16:49:52.265625
992,3.27,2021-12-17 16:49:52.281250
993,-5.87,2021-12-17 16:49:52.296875
994,-13.61,2021-12-17 16:49:52.312500
995,-18.96,2021-12-17 16:49:52.328125
996,-20.83,2021-12-17 16:49:52.343750
997,-18.52,2021-12-17 16:49:52.359375
998,-12.02,2021-12-17 16:49:52.375000
999,-2.24,2021-12-17 16:49:52.390625
1000,9.13,2021-12-17 16:49:52.406250
1001,20.04,2021-12-17 16:49:52.421875
1002,28.6,2021-12-17 16:49:52.437500
1003,33.55,2021-12-17 16:49:52.453125
1004,34.54,2021-12-17 16:49:52.468750
1005,32.07,2021-12-17 16:49:52.484375
1006,27.25,2021-12-17 16:49:52.500000
1007,21.46,2021-12-17 16:49:52.515625
1008,15.96,2021-12-17 16:49:52.531250
1009,11.72,2021-12-17 16:49:52.546875
1010,9.31,2021-12-17 16:49:52.562500
1011,8.87,2021-12-17 16:49:52.578125
1012,10.1,2021-12-17 16:49:52.593750
1013,12.4,2021-12-17 16:49:52.609375
1014,14.92,2021-12-17 16:49:52.625000
1015,16.87,2021-12-17 16:49:52.640625
1016,17.73,2021-12-17 16:49:52.656250
1017,17.41,2021-12-17 16:49:52.671875
1018,16.3,2021-12-17 16:49:52.687500
1019,15.03,2021-12-17 16:49:52.703125
1020,14.24,2021-12-17 16:49:52.718750
1021,14.14,2021-12-17 16:49:52.734375
1022,14.47,2021-12-17 16:49:52.750000
1023,14.5,2021-12-17 16:49:52.765625
1024,13.27,2021-12-17 16:49:52.781250
1025,9.99,2021-12-17 16:49:52.796875
1026,4.33,2021-12-17 16:49:52.812500
1027,-3.47,2021-12-17 16:49:52.828125
1028,-12.63,2021-12-17 16:49:52.843750
1029,-22.07,2021-12-17 16:49:52.859375
1030,-30.61,2021-12-17 16:49:52.875000
1031,-37.19,2021-12-17 16:49:52.890625
1032,-40.99,2021-12-17 16:49:52.906250
1033,-41.61,2021-12-17 16:49:52.921875
1034,-39.12,2021-12-17 16:49:52.937500
1035,-34.07,2021-12-17 16:49:52.953125
1036,-27.39,2021-12-17 16:49:52.968750
1037,-20.11,2021-12-17 16:49:52.984375
1038,-13.03,2021-12-17 16:49:53.000000
1039,-6.56,2021-12-17 16:49:53.015625
1040,-0.66,2021-12-17 16:49:53.031250
1041,4.89,2021-12-17 16:49:53.046875
1042,10.24,2021-12-17 16:49:53.062500
1043,15.29,2021-12-17 16:49:53.078125
1044,19.67,2021-12-17 16:49:53.093750
1045,22.93,2021-12-17 16:49:53.109375
1046,24.72,2021-12-17 16:49:53.125000
1047,25.02,2021-12-17 16:49:53.140625
1048,24.07,2021-12-17 16:49:53.156250
1049,22.39,2021-12-17 16:49:53.171875
1050,20.51,2021-12-17 16:49:53.187500
1051,18.76,2021-12-17 16:49:53.203125
1052,17.08,2021-12-17 16:49:53.218750
1053,14.94,2021-12-17 16:49:53.234375
1054,11.62,2021-12-17 16:49:53.250000
1055,6.58,2021-12-17 16:49:53.265625
1056,-0.16,2021-12-17 16:49:53.281250
1057,-7.95,2021-12-17 16:49:53.296875
1058,-15.68,2021-12-17 16:49:53.312500
1059,-22.39,2021-12-17 16:49:53.328125
1060,-27.57,2021-12-17 16:49:53.343750
1061,-31.36,2021-12-17 16:49:53.359375
1062,-34.24,2021-12-17 16:49:53.375000
1063,-36.61,2021-12-17 16:49:53.390625
1064,-38.56,2021-12-17 16:49:53.406250
1065,-39.81,2021-12-17 16:49:53.421875
1066,-40.01,2021-12-17 16:49:53.437500
1067,-39.02,2021-12-17 16:49:53.453125
1068,-37.02,2021-12-17 16:49:53.468750
1069,-34.42,2021-12-17 16:49:53.484375
1070,-31.71,2021-12-17 16:49:53.500000
1071,-29.24,2021-12-17 16:49:53.515625
1072,-27.2,2021-12-17 16:49:53.531250
1073,-25.6,2021-12-17 16:49:53.546875
1074,-24.34,2021-12-17 16:49:53.562500
1075,-23.23,2021-12-17 16:49:53.578125
1076,-22.04,2021-12-17 16:49:53.593750
1077,-20.59,2021-12-17 16:49:53.609375
1078,-18.79,2021-12-17 16:49:53.625000
1079,-16.7,2021-12-17 16:49:53.640625
1080,-14.43,2021-12-17 16:49:53.656250
1081,-12.12,2021-12-17 16:49:53.671875
1082,-9.81,2021-12-17 16:49:53.687500
1083,-7.51,2021-12-17 16:49:53.703125
1084,-5.17,2021-12-17 16:49:53.718750
1085,-2.79,2021-12-17 16:49:53.734375
1086,-0.45,2021-12-17 16:49:53.750000
1087,1.75,2021-12-17 16:49:53.765625
1088,3.69,2021-12-17 16:49:53.781250
1089,5.39,2021-12-17 16:49:53.796875
1090,7.0,2021-12-17 16:49:53.812500
1091,8.82,2021-12-17 16:49:53.828125
1092,11.23,2021-12-17 16:49:53.843750
1093,14.5,2021-12-17 16:49:53.859375
1094,18.75,2021-12-17 16:49:53.875000
1095,23.77,2021-12-17 16:49:53.890625
1096,29.09,2021-12-17 16:49:53.906250
1097,34.08,2021-12-17 16:49:53.921875
1098,38.17,2021-12-17 16:49:53.937500
1099,40.98,2021-12-17 16:49:53.953125
1100,42.38,2021-12-17 16:49:53.968750
1101,42.4,2021-12-17 16:49:53.984375
1102,41.15,2021-12-17 16:49:54.000000
1103,38.75,2021-12-17 16:49:54.015625
1104,35.27,2021-12-17 16:49:54.031250
1105,30.79,2021-12-17 16:49:54.046875
1106,25.38,2021-12-17 16:49:54.062500
1107,19.14,2021-12-17 16:49:54.078125
1108,12.16,2021-12-17 16:49:54.093750
1109,4.52,2021-12-17 16:49:54.109375
1110,-3.64,2021-12-17 16:49:54.125000
1111,-12.05,2021-12-17 16:49:54.140625
1112,-20.31,2021-12-17 16:49:54.156250
1113,-27.98,2021-12-17 16:49:54.171875
1114,-34.66,2021-12-17 16:49:54.187500
1115,-40.18,2021-12-17 16:49:54.203125
1116,-44.56,2021-12-17 16:49:54.218750
1117,-48.02,2021-12-17 16:49:54.234375
1118,-50.71,2021-12-17 16:49:54.250000
1119,-52.52,2021-12-17 16:49:54.265625
1120,-53.11,2021-12-17 16:49:54.281250
1121,-51.96,2021-12-17 16:49:54.296875
1122,-48.61,2021-12-17 16:49:54.312500
1123,-42.9,2021-12-17 16:49:54.328125
1124,-35.11,2021-12-17 16:49:54.343750
1125,-25.85,2021-12-17 16:49:54.359375
1126,-15.98,2021-12-17 16:49:54.375000
1127,-6.39,2021-12-17 16:49:54.390625
1128,2.17,2021-12-17 16:49:54.406250
1129,9.08,2021-12-17 16:49:54.421875
1130,13.91,2021-12-17 16:49:54.437500
1131,16.41,2021-12-17 16:49:54.453125
1132,16.7,2021-12-17 16:49:54.468750
1133,15.39,2021-12-17 16:49:54.484375
1134,13.53,2021-12-17 16:49:54.500000
1135,12.41,2021-12-17 16:49:54.515625
1136,13.13,2021-12-17 16:49:54.531250
1137,16.19,2021-12-17 16:49:54.546875
1138,21.27,2021-12-17 16:49:54.562500
1139,27.3,2021-12-17 16:49:54.578125
1140,32.88,2021-12-17 16:49:54.593750
1141,36.73,2021-12-17 16:49:54.609375
1142,38.1,2021-12-17 16:49:54.625000
1143,36.92,2021-12-17 16:49:54.640625
1144,33.68,2021-12-17 16:49:54.656250
1145,29.18,2021-12-17 16:49:54.671875
1146,24.26,2021-12-17 16:49:54.687500
1147,19.51,2021-12-17 16:49:54.703125
1148,15.19,2021-12-17 16:49:54.718750
1149,11.24,2021-12-17 16:49:54.734375
1150,7.34,2021-12-17 16:49:54.750000
1151,3.18,2021-12-17 16:49:54.765625
1152,-1.38,2021-12-17 16:49:54.781250
1153,-6.13,2021-12-17 16:49:54.796875
1154,-10.62,2021-12-17 16:49:54.812500
1155,-14.26,2021-12-17 16:49:54.828125
1156,-16.61,2021-12-17 16:49:54.843750
1157,-17.51,2021-12-17 16:49:54.859375
1158,-17.15,2021-12-17 16:49:54.875000
1159,-15.96,2021-12-17 16:49:54.890625
1160,-14.49,2021-12-17 16:49:54.906250
1161,-13.27,2021-12-17 16:49:54.921875
1162,-12.71,2021-12-17 16:49:54.937500
1163,-13.01,2021-12-17 16:49:54.953125
1164,-14.07,2021-12-17 16:49:54.968750
1165,-15.49,2021-12-17 16:49:54.984375
1166,-16.69,2021-12-17 16:49:55.000000
1167,-17.01,2021-12-17 16:49:55.015625
1168,-15.93,2021-12-17 16:49:55.031250
1169,-13.13,2021-12-17 16:49:55.046875
1170,-8.47,2021-12-17 16:49:55.062500
1171,-1.94,2021-12-17 16:49:55.078125
1172,6.38,2021-12-17 16:49:55.093750
1173,16.22,2021-12-17 16:49:55.109375
1174,27.05,2021-12-17 16:49:55.125000
1175,38.05,2021-12-17 16:49:55.140625
1176,48.11,2021-12-17 16:49:55.156250
1177,56.17,2021-12-17 16:49:55.171875
1178,61.48,2021-12-17 16:49:55.187500
1179,63.83,2021-12-17 16:49:55.203125
1180,63.57,2021-12-17 16:49:55.218750
1181,61.41,2021-12-17 16:49:55.234375
1182,58.1,2021-12-17 16:49:55.250000
1183,54.17,2021-12-17 16:49:55.265625
1184,49.78,2021-12-17 16:49:55.281250
1185,44.91,2021-12-17 16:49:55.296875
1186,39.48,2021-12-17 16:49:55.312500
1187,33.6,2021-12-17 16:49:55.328125
1188,27.64,2021-12-17 16:49:55.343750
1189,22.13,2021-12-17 16:49:55.359375
1190,17.54,2021-12-17 16:49:55.375000
1191,14.15,2021-12-17 16:49:55.390625
1192,11.95,2021-12-17 16:49:55.406250
1193,10.76,2021-12-17 16:49:55.421875
1194,10.29,2021-12-17 16:49:55.437500
1195,10.23,2021-12-17 16:49:55.453125
1196,10.29,2021-12-17 16:49:55.468750
1197,10.13,2021-12-17 16:49:55.484375
1198,9.45,2021-12-17 16:49:55.500000
1199,8.06,2021-12-17 16:49:55.515625
1200,5.94,2021-12-17 16:49:55.531250
1201,3.34,2021-12-17 16:49:55.546875
1202,0.64,2021-12-17 16:49:55.562500
1203,-1.72,2021-12-17 16:49:55.578125
1204,-3.45,2021-12-17 16:49:55.593750
1205,-4.42,2021-12-17 16:49:55.609375
1206,-4.66,2021-12-17 16:49:55.625000
1207,-4.24,2021-12-17 16:49:55.640625
1208,-3.29,2021-12-17 16:49:55.656250
1209,-1.93,2021-12-17 16:49:55.671875
1210,-0.35,2021-12-17 16:49:55.687500
1211,1.22,2021-12-17 16:49:55.703125
1212,2.58,2021-12-17 16:49:55.718750
1213,3.59,2021-12-17 16:49:55.734375
1214,4.31,2021-12-17 16:49:55.750000
1215,4.99,2021-12-17 16:49:55.765625
1216,5.96,2021-12-17 16:49:55.781250
1217,7.42,2021-12-17 16:49:55.796875
1218,9.28,2021-12-17 16:49:55.812500
1219,11.08,2021-12-17 16:49:55.828125
1220,12.05,2021-12-17 16:49:55.843750
1221,11.36,2021-12-17 16:49:55.859375
1222,8.38,2021-12-17 16:49:55.875000
1223,2.86,2021-12-17 16:49:55.890625
1224,-4.9,2021-12-17 16:49:55.906250
1225,-14.11,2021-12-17 16:49:55.921875
1226,-23.54,2021-12-17 16:49:55.937500
1227,-31.79,2021-12-17 16:49:55.953125
1228,-37.63,2021-12-17 16:49:55.968750
1229,-40.31,2021-12-17 16:49:55.984375
1230,-39.84,2021-12-17 16:49:56.000000
1231,-36.89,2021-12-17 16:49:56.015625
1232,-32.62,2021-12-17 16:49:56.031250
1233,-28.24,2021-12-17 16:49:56.046875
1234,-24.65,2021-12-17 16:49:56.062500
1235,-22.17,2021-12-17 16:49:56.078125
1236,-20.67,2021-12-17 16:49:56.093750
1237,-19.71,2021-12-17 16:49:56.109375
1238,-18.83,2021-12-17 16:49:56.125000
1239,-17.65,2021-12-17 16:49:56.140625
1240,-15.91,2021-12-17 16:49:56.156250
1241,-13.47,2021-12-17 16:49:56.171875
1242,-10.24,2021-12-17 16:49:56.187500
1243,-6.29,2021-12-17 16:49:56.203125
1244,-1.93,2021-12-17 16:49:56.218750
1245,2.26,2021-12-17 16:49:56.234375
1246,5.51,2021-12-17 16:49:56.250000
1247,7.05,2021-12-17 16:49:56.265625
1248,6.37,2021-12-17 16:49:56.281250
1249,3.47,2021-12-17 16:49:56.296875
1250,-1.05,2021-12-17 16:49:56.312500
1251,-6.24,2021-12-17 16:49:56.328125
1252,-11.03,2021-12-17 16:49:56.343750
1253,-14.63,2021-12-17 16:49:56.359375
1254,-16.75,2021-12-17 16:49:56.375000
1255,-17.58,2021-12-17 16:49:56.390625
1256,-17.59,2021-12-17 16:49:56.406250
1257,-17.3,2021-12-17 16:49:56.421875
1258,-17.04,2021-12-17 16:49:56.437500
1259,-16.88,2021-12-17 16:49:56.453125
1260,-16.64,2021-12-17 16:49:56.468750
1261,-16.07,2021-12-17 16:49:56.484375
1262,-14.85,2021-12-17 16:49:56.500000
1263,-12.75,2021-12-17 16:49:56.515625
1264,-9.57,2021-12-17 16:49:56.531250
1265,-5.27,2021-12-17 16:49:56.546875
1266,0.01,2021-12-17 16:49:56.562500
1267,5.91,2021-12-17 16:49:56.578125
1268,11.86,2021-12-17 16:49:56.593750
1269,17.24,2021-12-17 16:49:56.609375
1270,21.52,2021-12-17 16:49:56.625000
1271,24.43,2021-12-17 16:49:56.640625
1272,26.07,2021-12-17 16:49:56.656250
1273,26.74,2021-12-17 16:49:56.671875
1274,26.89,2021-12-17 16:49:56.687500
1275,26.83,2021-12-17 16:49:56.703125
1276,26.7,2021-12-17 16:49:56.718750
1277,26.41,2021-12-17 16:49:56.734375
1278,25.74,2021-12-17 16:49:56.750000
1279,24.51,2021-12-17 16:49:56.765625
1280,22.66,2021-12-17 16:49:56.781250
1281,20.24,2021-12-17 16:49:56.796875
1282,17.41,2021-12-17 16:49:56.812500
1283,14.29,2021-12-17 16:49:56.828125
1284,10.88,2021-12-17 16:49:56.843750
1285,7.12,2021-12-17 16:49:56.859375
1286,2.92,2021-12-17 16:49:56.875000
1287,-1.68,2021-12-17 16:49:56.890625
1288,-6.43,2021-12-17 16:49:56.906250
1289,-10.91,2021-12-17 16:49:56.921875
1290,-14.56,2021-12-17 16:49:56.937500
1291,-16.91,2021-12-17 16:49:56.953125
1292,-17.6,2021-12-17 16:49:56.968750
1293,-16.6,2021-12-17 16:49:56.984375
1294,-14.07,2021-12-17 16:49:57.000000
1295,-10.48,2021-12-17 16:49:57.015625
1296,-6.41,2021-12-17 16:49:57.031250
1297,-2.5,2021-12-17 16:49:57.046875
1298,0.7,2021-12-17 16:49:57.062500
1299,2.83,2021-12-17 16:49:57.078125
1300,3.85,2021-12-17 16:49:57.093750
1301,3.98,2021-12-17 16:49:57.109375
1302,3.65,2021-12-17 16:49:57.125000
1303,3.32,2021-12-17 16:49:57.140625
1304,3.33,2021-12-17 16:49:57.156250
1305,3.87,2021-12-17 16:49:57.171875
1306,4.95,2021-12-17 16:49:57.187500
1307,6.48,2021-12-17 16:49:57.203125
1308,8.28,2021-12-17 16:49:57.218750
1309,10.14,2021-12-17 16:49:57.234375
1310,11.9,2021-12-17 16:49:57.250000
1311,13.41,2021-12-17 16:49:57.265625
1312,14.65,2021-12-17 16:49:57.281250
1313,15.64,2021-12-17 16:49:57.296875
1314,16.47,2021-12-17 16:49:57.312500
1315,17.17,2021-12-17 16:49:57.328125
1316,17.73,2021-12-17 16:49:57.343750
1317,18.09,2021-12-17 16:49:57.359375
1318,18.22,2021-12-17 16:49:57.375000
1319,18.19,2021-12-17 16:49:57.390625
1320,18.14,2021-12-17 16:49:57.406250
1321,18.19,2021-12-17 16:49:57.421875
1322,18.48,2021-12-17 16:49:57.437500
1323,19.07,2021-12-17 16:49:57.453125
1324,19.96,2021-12-17 16:49:57.468750
1325,21.1,2021-12-17 16:49:57.484375
1326,22.34,2021-12-17 16:49:57.500000
1327,23.44,2021-12-17 16:49:57.515625
1328,24.11,2021-12-17 16:49:57.531250
1329,23.99,2021-12-17 16:49:57.546875
1330,22.88,2021-12-17 16:49:57.562500
1331,20.71,2021-12-17 16:49:57.578125
1332,17.66,2021-12-17 16:49:57.593750
1333,14.0,2021-12-17 16:49:57.609375
1334,10.08,2021-12-17 16:49:57.625000
1335,6.21,2021-12-17 16:49:57.640625
1336,2.58,2021-12-17 16:49:57.656250
1337,-0.7,2021-12-17 16:49:57.671875
1338,-3.62,2021-12-17 16:49:57.687500
1339,-6.28,2021-12-17 16:49:57.703125
1340,-8.85,2021-12-17 16:49:57.718750
1341,-11.51,2021-12-17 16:49:57.734375
1342,-14.35,2021-12-17 16:49:57.750000
1343,-17.27,2021-12-17 16:49:57.765625
1344,-19.94,2021-12-17 16:49:57.781250
1345,-21.9,2021-12-17 16:49:57.796875
1346,-22.69,2021-12-17 16:49:57.812500
1347,-22.1,2021-12-17 16:49:57.828125
1348,-20.21,2021-12-17 16:49:57.843750
1349,-17.4,2021-12-17 16:49:57.859375
1350,-14.15,2021-12-17 16:49:57.875000
1351,-10.89,2021-12-17 16:49:57.890625
1352,-7.93,2021-12-17 16:49:57.906250
1353,-5.42,2021-12-17 16:49:57.921875
1354,-3.47,2021-12-17 16:49:57.937500
1355,-2.16,2021-12-17 16:49:57.953125
1356,-1.54,2021-12-17 16:49:57.968750
1357,-1.55,2021-12-17 16:49:57.984375
1358,-2.0,2021-12-17 16:49:58.000000
1359,-2.56,2021-12-17 16:49:58.015625
1360,-2.9,2021-12-17 16:49:58.031250
1361,-2.79,2021-12-17 16:49:58.046875
1362,-2.26,2021-12-17 16:49:58.062500
1363,-1.51,2021-12-17 16:49:58.078125
1364,-0.87,2021-12-17 16:49:58.093750
1365,-0.64,2021-12-17 16:49:58.109375
1366,-0.94,2021-12-17 16:49:58.125000
1367,-1.72,2021-12-17 16:49:58.140625
1368,-2.76,2021-12-17 16:49:58.156250
1369,-3.83,2021-12-17 16:49:58.171875
1370,-4.74,2021-12-17 16:49:58.187500
1371,-5.44,2021-12-17 16:49:58.203125
1372,-5.94,2021-12-17 16:49:58.218750
1373,-6.31,2021-12-17 16:49:58.234375
1374,-6.57,2021-12-17 16:49:58.250000
1375,-6.71,2021-12-17 16:49:58.265625
1376,-6.67,2021-12-17 16:49:58.281250
1377,-6.46,2021-12-17 16:49:58.296875
1378,-6.18,2021-12-17 16:49:58.312500
1379,-6.03,2021-12-17 16:49:58.328125
1380,-6.22,2021-12-17 16:49:58.343750
1381,-6.95,2021-12-17 16:49:58.359375
1382,-8.31,2021-12-17 16:49:58.375000
1383,-10.35,2021-12-17 16:49:58.390625
1384,-13.06,2021-12-17 16:49:58.406250
1385,-16.44,2021-12-17 16:49:58.421875
1386,-20.4,2021-12-17 16:49:58.437500
1387,-24.69,2021-12-17 16:49:58.453125
1388,-28.81,2021-12-17 16:49:58.468750
1389,-31.96,2021-12-17 16:49:58.484375
1390,-33.21,2021-12-17 16:49:58.500000
1391,-31.76,2021-12-17 16:49:58.515625
1392,-27.29,2021-12-17 16:49:58.531250
1393,-20.15,2021-12-17 16:49:58.546875
1394,-11.37,2021-12-17 16:49:58.562500
1395,-2.33,2021-12-17 16:49:58.578125
1396,5.61,2021-12-17 16:49:58.593750
1397,11.63,2021-12-17 16:49:58.609375
1398,15.47,2021-12-17 16:49:58.625000
1399,17.4,2021-12-17 16:49:58.640625
1400,17.85,2021-12-17 16:49:58.656250
1401,17.11,2021-12-17 16:49:58.671875
1402,15.31,2021-12-17 16:49:58.687500
1403,12.54,2021-12-17 16:49:58.703125
1404,9.16,2021-12-17 16:49:58.718750
1405,5.94,2021-12-17 16:49:58.734375
1406,3.9,2021-12-17 16:49:58.750000
1407,3.9,2021-12-17 16:49:58.765625
1408,6.09,2021-12-17 16:49:58.781250
1409,9.78,2021-12-17 16:49:58.796875
1410,13.71,2021-12-17 16:49:58.812500
1411,16.76,2021-12-17 16:49:58.828125
1412,18.66,2021-12-17 16:49:58.843750
1413,20.21,2021-12-17 16:49:58.859375
1414,22.97,2021-12-17 16:49:58.875000
1415,28.32,2021-12-17 16:49:58.890625
1416,36.6,2021-12-17 16:49:58.906250
1417,46.73,2021-12-17 16:49:58.921875
1418,56.53,2021-12-17 16:49:58.937500
1419,63.7,2021-12-17 16:49:58.953125
1420,66.85,2021-12-17 16:49:58.968750
1421,66.01,2021-12-17 16:49:58.984375
1422,62.34,2021-12-17 16:49:59.000000
1423,57.18,2021-12-17 16:49:59.015625
1424,51.19,2021-12-17 16:49:59.031250
1425,44.07,2021-12-17 16:49:59.046875
1426,35.03,2021-12-17 16:49:59.062500
1427,23.95,2021-12-17 16:49:59.078125
1428,11.99,2021-12-17 16:49:59.093750
1429,1.42,2021-12-17 16:49:59.109375
1430,-6.02,2021-12-17 16:49:59.125000
1431,-10.71,2021-12-17 16:49:59.140625
1432,-15.72,2021-12-17 16:49:59.156250
1433,-25.29,2021-12-17 16:49:59.171875
1434,-41.88,2021-12-17 16:49:59.187500
1435,-63.87,2021-12-17 16:49:59.203125
1436,-85.38,2021-12-17 16:49:59.218750
1437,-99.01,2021-12-17 16:49:59.234375
1438,-99.64,2021-12-17 16:49:59.250000
1439,-87.17,2021-12-17 16:49:59.265625
1440,-66.43,2021-12-17 16:49:59.281250
1441,-44.23,2021-12-17 16:49:59.296875
1442,-25.67,2021-12-17 16:49:59.312500
1443,-12.04,2021-12-17 16:49:59.328125
1444,-1.33,2021-12-17 16:49:59.343750
1445,9.1,2021-12-17 16:49:59.359375
1446,19.94,2021-12-17 16:49:59.375000
1447,29.12,2021-12-17 16:49:59.390625
1448,33.33,2021-12-17 16:49:59.406250
1449,30.46,2021-12-17 16:49:59.421875
1450,21.27,2021-12-17 16:49:59.437500
1451,9.29,2021-12-17 16:49:59.453125
1452,-1.14,2021-12-17 16:49:59.468750
1453,-7.0,2021-12-17 16:49:59.484375
1454,-7.84,2021-12-17 16:49:59.500000
1455,-5.54,2021-12-17 16:49:59.515625
1456,-2.97,2021-12-17 16:49:59.531250
1457,-2.31,2021-12-17 16:49:59.546875
1458,-4.17,2021-12-17 16:49:59.562500
1459,-7.49,2021-12-17 16:49:59.578125
1460,-10.53,2021-12-17 16:49:59.593750
1461,-11.87,2021-12-17 16:49:59.609375
1462,-11.17,2021-12-17 16:49:59.625000
1463,-9.08,2021-12-17 16:49:59.640625
1464,-6.69,2021-12-17 16:49:59.656250
1465,-4.82,2021-12-17 16:49:59.671875
1466,-3.61,2021-12-17 16:49:59.687500
1467,-2.62,2021-12-17 16:49:59.703125
1468,-1.35,2021-12-17 16:49:59.718750
1469,0.39,2021-12-17 16:49:59.734375
1470,2.22,2021-12-17 16:49:59.750000
1471,3.44,2021-12-17 16:49:59.765625
1472,3.32,2021-12-17 16:49:59.781250
1473,1.51,2021-12-17 16:49:59.796875
1474,-1.79,2021-12-17 16:49:59.812500
1475,-5.92,2021-12-17 16:49:59.828125
1476,-10.05,2021-12-17 16:49:59.843750
1477,-13.44,2021-12-17 16:49:59.859375
1478,-15.62,2021-12-17 16:49:59.875000
1479,-16.35,2021-12-17 16:49:59.890625
1480,-15.45,2021-12-17 16:49:59.906250
1481,-12.8,2021-12-17 16:49:59.921875
1482,-8.47,2021-12-17 16:49:59.937500
1483,-2.85,2021-12-17 16:49:59.953125
1484,3.19,2021-12-17 16:49:59.968750
1485,8.46,2021-12-17 16:49:59.984375
1486,11.91,2021-12-17 16:50:00.000000
1487,13.05,2021-12-17 16:50:00.015625
1488,12.26,2021-12-17 16:50:00.031250
1489,10.41,2021-12-17 16:50:00.046875
1490,8.37,2021-12-17 16:50:00.062500
1491,6.41,2021-12-17 16:50:00.078125
1492,4.14,2021-12-17 16:50:00.093750
1493,0.99,2021-12-17 16:50:00.109375
1494,-3.29,2021-12-17 16:50:00.125000
1495,-8.2,2021-12-17 16:50:00.140625
1496,-12.69,2021-12-17 16:50:00.156250
1497,-15.72,2021-12-17 16:50:00.171875
1498,-16.84,2021-12-17 16:50:00.187500
1499,-16.3,2021-12-17 16:50:00.203125
1500,-14.73,2021-12-17 16:50:00.218750
1501,-12.52,2021-12-17 16:50:00.234375
1502,-9.5,2021-12-17 16:50:00.250000
1503,-5.02,2021-12-17 16:50:00.265625
1504,1.36,2021-12-17 16:50:00.281250
1505,9.35,2021-12-17 16:50:00.296875
1506,17.6,2021-12-17 16:50:00.312500
1507,24.15,2021-12-17 16:50:00.328125
1508,27.17,2021-12-17 16:50:00.343750
1509,25.8,2021-12-17 16:50:00.359375
1510,20.49,2021-12-17 16:50:00.375000
1511,12.77,2021-12-17 16:50:00.390625
1512,4.53,2021-12-17 16:50:00.406250
1513,-2.79,2021-12-17 16:50:00.421875
1514,-8.76,2021-12-17 16:50:00.437500
1515,-13.88,2021-12-17 16:50:00.453125
1516,-19.03,2021-12-17 16:50:00.468750
1517,-24.75,2021-12-17 16:50:00.484375
1518,-30.79,2021-12-17 16:50:00.500000
1519,-36.15,2021-12-17 16:50:00.515625
1520,-39.57,2021-12-17 16:50:00.531250
1521,-40.12,2021-12-17 16:50:00.546875
1522,-37.69,2021-12-17 16:50:00.562500
1523,-32.9,2021-12-17 16:50:00.578125
1524,-26.87,2021-12-17 16:50:00.593750
1525,-20.74,2021-12-17 16:50:00.609375
1526,-15.24,2021-12-17 16:50:00.625000
1527,-10.59,2021-12-17 16:50:00.640625
1528,-6.55,2021-12-17 16:50:00.656250
1529,-2.72,2021-12-17 16:50:00.671875
1530,1.21,2021-12-17 16:50:00.687500
1531,5.21,2021-12-17 16:50:00.703125
1532,8.93,2021-12-17 16:50:00.718750
1533,11.85,2021-12-17 16:50:00.734375
1534,13.52,2021-12-17 16:50:00.750000
1535,13.83,2021-12-17 16:50:00.765625
1536,13.04,2021-12-17 16:50:00.781250
1537,11.69,2021-12-17 16:50:00.796875
1538,10.37,2021-12-17 16:50:00.812500
1539,9.45,2021-12-17 16:50:00.828125
1540,8.97,2021-12-17 16:50:00.843750
1541,8.73,2021-12-17 16:50:00.859375
1542,8.4,2021-12-17 16:50:00.875000
1543,7.78,2021-12-17 16:50:00.890625
1544,6.79,2021-12-17 16:50:00.906250
1545,5.54,2021-12-17 16:50:00.921875
1546,4.16,2021-12-17 16:50:00.937500
1547,2.71,2021-12-17 16:50:00.953125
1548,1.18,2021-12-17 16:50:00.968750
1549,-0.49,2021-12-17 16:50:00.984375
1550,-2.33,2021-12-17 16:50:01.000000
1551,-4.2,2021-12-17 16:50:01.015625
1552,-5.88,2021-12-17 16:50:01.031250
1553,-7.14,2021-12-17 16:50:01.046875
1554,-7.87,2021-12-17 16:50:01.062500
1555,-8.18,2021-12-17 16:50:01.078125
1556,-8.39,2021-12-17 16:50:01.093750
1557,-8.83,2021-12-17 16:50:01.109375
1558,-9.8,2021-12-17 16:50:01.125000
1559,-11.41,2021-12-17 16:50:01.140625
1560,-13.65,2021-12-17 16:50:01.156250
1561,-16.34,2021-12-17 16:50:01.171875
1562,-19.23,2021-12-17 16:50:01.187500
1563,-21.88,2021-12-17 16:50:01.203125
1564,-23.71,2021-12-17 16:50:01.218750
1565,-24.08,2021-12-17 16:50:01.234375
1566,-22.47,2021-12-17 16:50:01.250000
1567,-18.76,2021-12-17 16:50:01.265625
1568,-13.23,2021-12-17 16:50:01.281250
1569,-6.55,2021-12-17 16:50:01.296875
1570,0.54,2021-12-17 16:50:01.312500
1571,7.46,2021-12-17 16:50:01.328125
1572,13.94,2021-12-17 16:50:01.343750
1573,19.96,2021-12-17 16:50:01.359375
1574,25.48,2021-12-17 16:50:01.375000
1575,30.4,2021-12-17 16:50:01.390625
1576,34.41,2021-12-17 16:50:01.406250
1577,37.21,2021-12-17 16:50:01.421875
1578,38.62,2021-12-17 16:50:01.437500
1579,38.73,2021-12-17 16:50:01.453125
1580,37.84,2021-12-17 16:50:01.468750
1581,36.31,2021-12-17 16:50:01.484375
1582,34.41,2021-12-17 16:50:01.500000
1583,32.26,2021-12-17 16:50:01.515625
1584,29.86,2021-12-17 16:50:01.531250
1585,27.2,2021-12-17 16:50:01.546875
1586,24.36,2021-12-17 16:50:01.562500
1587,21.53,2021-12-17 16:50:01.578125
1588,18.92,2021-12-17 16:50:01.593750
1589,16.72,2021-12-17 16:50:01.609375
1590,14.99,2021-12-17 16:50:01.625000
1591,13.63,2021-12-17 16:50:01.640625
1592,12.43,2021-12-17 16:50:01.656250
1593,11.15,2021-12-17 16:50:01.671875
1594,9.62,2021-12-17 16:50:01.687500
1595,7.77,2021-12-17 16:50:01.703125
1596,5.66,2021-12-17 16:50:01.718750
1597,3.39,2021-12-17 16:50:01.734375
1598,1.04,2021-12-17 16:50:01.750000
1599,-1.33,2021-12-17 16:50:01.765625
1600,-3.75,2021-12-17 16:50:01.781250
1601,-6.23,2021-12-17 16:50:01.796875
1602,-8.78,2021-12-17 16:50:01.812500
1603,-11.4,2021-12-17 16:50:01.828125
1604,-14.14,2021-12-17 16:50:01.843750
1605,-17.04,2021-12-17 16:50:01.859375
1606,-20.08,2021-12-17 16:50:01.875000
1607,-23.09,2021-12-17 16:50:01.890625
1608,-25.65,2021-12-17 16:50:01.906250
1609,-27.15,2021-12-17 16:50:01.921875
1610,-27.01,2021-12-17 16:50:01.937500
1611,-24.86,2021-12-17 16:50:01.953125
1612,-20.78,2021-12-17 16:50:01.968750
1613,-15.22,2021-12-17 16:50:01.984375
1614,-8.87,2021-12-17 16:50:02.000000
1615,-2.43,2021-12-17 16:50:02.015625
1616,3.6,2021-12-17 16:50:02.031250
1617,8.91,2021-12-17 16:50:02.046875
1618,13.39,2021-12-17 16:50:02.062500
1619,17.0,2021-12-17 16:50:02.078125
1620,19.77,2021-12-17 16:50:02.093750
1621,21.76,2021-12-17 16:50:02.109375
1622,23.08,2021-12-17 16:50:02.125000
1623,23.96,2021-12-17 16:50:02.140625
1624,24.67,2021-12-17 16:50:02.156250
1625,25.44,2021-12-17 16:50:02.171875
1626,26.42,2021-12-17 16:50:02.187500
1627,27.61,2021-12-17 16:50:02.203125
1628,28.81,2021-12-17 16:50:02.218750
1629,29.72,2021-12-17 16:50:02.234375
1630,29.93,2021-12-17 16:50:02.250000
1631,29.14,2021-12-17 16:50:02.265625
1632,27.21,2021-12-17 16:50:02.281250
1633,24.32,2021-12-17 16:50:02.296875
1634,20.91,2021-12-17 16:50:02.312500
1635,17.53,2021-12-17 16:50:02.328125
1636,14.69,2021-12-17 16:50:02.343750
1637,12.61,2021-12-17 16:50:02.359375
1638,11.23,2021-12-17 16:50:02.375000
1639,10.24,2021-12-17 16:50:02.390625
1640,9.32,2021-12-17 16:50:02.406250
1641,8.19,2021-12-17 16:50:02.421875
1642,6.8,2021-12-17 16:50:02.437500
1643,5.22,2021-12-17 16:50:02.453125
1644,3.59,2021-12-17 16:50:02.468750
1645,2.0,2021-12-17 16:50:02.484375
1646,0.44,2021-12-17 16:50:02.500000
1647,-1.17,2021-12-17 16:50:02.515625
1648,-3.01,2021-12-17 16:50:02.531250
1649,-5.19,2021-12-17 16:50:02.546875
1650,-7.76,2021-12-17 16:50:02.562500
1651,-10.65,2021-12-17 16:50:02.578125
1652,-13.63,2021-12-17 16:50:02.593750
1653,-16.31,2021-12-17 16:50:02.609375
1654,-18.26,2021-12-17 16:50:02.625000
1655,-19.11,2021-12-17 16:50:02.640625
1656,-18.63,2021-12-17 16:50:02.656250
1657,-16.86,2021-12-17 16:50:02.671875
1658,-14.04,2021-12-17 16:50:02.687500
1659,-10.58,2021-12-17 16:50:02.703125
1660,-6.95,2021-12-17 16:50:02.718750
1661,-3.56,2021-12-17 16:50:02.734375
1662,-0.7,2021-12-17 16:50:02.750000
1663,1.58,2021-12-17 16:50:02.765625
1664,3.44,2021-12-17 16:50:02.781250
1665,5.19,2021-12-17 16:50:02.796875
1666,7.19,2021-12-17 16:50:02.812500
1667,9.57,2021-12-17 16:50:02.828125
1668,12.16,2021-12-17 16:50:02.843750
1669,14.49,2021-12-17 16:50:02.859375
1670,15.91,2021-12-17 16:50:02.875000
1671,15.93,2021-12-17 16:50:02.890625
1672,14.45,2021-12-17 16:50:02.906250
1673,11.82,2021-12-17 16:50:02.921875
1674,8.69,2021-12-17 16:50:02.937500
1675,5.8,2021-12-17 16:50:02.953125
1676,3.66,2021-12-17 16:50:02.968750
1677,2.43,2021-12-17 16:50:02.984375
1678,2.0,2021-12-17 16:50:03.000000
1679,2.11,2021-12-17 16:50:03.015625
1680,2.5,2021-12-17 16:50:03.031250
1681,2.99,2021-12-17 16:50:03.046875
1682,3.45,2021-12-17 16:50:03.062500
1683,3.8,2021-12-17 16:50:03.078125
1684,3.93,2021-12-17 16:50:03.093750
1685,3.74,2021-12-17 16:50:03.109375
1686,3.22,2021-12-17 16:50:03.125000
1687,2.4,2021-12-17 16:50:03.140625
1688,1.38,2021-12-17 16:50:03.156250
1689,0.19,2021-12-17 16:50:03.171875
1690,-1.16,2021-12-17 16:50:03.187500
1691,-2.76,2021-12-17 16:50:03.203125
1692,-4.67,2021-12-17 16:50:03.218750
1693,-6.93,2021-12-17 16:50:03.234375
1694,-9.45,2021-12-17 16:50:03.250000
1695,-12.04,2021-12-17 16:50:03.265625
1696,-14.38,2021-12-17 16:50:03.281250
1697,-16.19,2021-12-17 16:50:03.296875
1698,-17.22,2021-12-17 16:50:03.312500
1699,-17.29,2021-12-17 16:50:03.328125
1700,-16.41,2021-12-17 16:50:03.343750
1701,-14.68,2021-12-17 16:50:03.359375
1702,-12.29,2021-12-17 16:50:03.375000
1703,-9.42,2021-12-17 16:50:03.390625
1704,-6.33,2021-12-17 16:50:03.406250
1705,-3.25,2021-12-17 16:50:03.421875
1706,-0.46,2021-12-17 16:50:03.437500
1707,1.8,2021-12-17 16:50:03.453125
1708,3.4,2021-12-17 16:50:03.468750
1709,4.34,2021-12-17 16:50:03.484375
1710,4.74,2021-12-17 16:50:03.500000
1711,4.76,2021-12-17 16:50:03.515625
1712,4.54,2021-12-17 16:50:03.531250
1713,4.14,2021-12-17 16:50:03.546875
1714,3.58,2021-12-17 16:50:03.562500
1715,2.91,2021-12-17 16:50:03.578125
1716,2.24,2021-12-17 16:50:03.593750
1717,1.75,2021-12-17 16:50:03.609375
1718,1.66,2021-12-17 16:50:03.625000
1719,2.04,2021-12-17 16:50:03.640625
1720,2.77,2021-12-17 16:50:03.656250
1721,3.55,2021-12-17 16:50:03.671875
1722,4.02,2021-12-17 16:50:03.687500
1723,3.91,2021-12-17 16:50:03.703125
1724,3.2,2021-12-17 16:50:03.718750
1725,2.07,2021-12-17 16:50:03.734375
1726,0.81,2021-12-17 16:50:03.750000
1727,-0.29,2021-12-17 16:50:03.765625
1728,-1.1,2021-12-17 16:50:03.781250
1729,-1.65,2021-12-17 16:50:03.796875
1730,-2.05,2021-12-17 16:50:03.812500
1731,-2.42,2021-12-17 16:50:03.828125
1732,-2.76,2021-12-17 16:50:03.843750
1733,-3.02,2021-12-17 16:50:03.859375
1734,-3.12,2021-12-17 16:50:03.875000
1735,-3.11,2021-12-17 16:50:03.890625
1736,-3.11,2021-12-17 16:50:03.906250
1737,-3.37,2021-12-17 16:50:03.921875
1738,-4.16,2021-12-17 16:50:03.937500
1739,-5.68,2021-12-17 16:50:03.953125
1740,-7.99,2021-12-17 16:50:03.968750
1741,-10.94,2021-12-17 16:50:03.984375
1742,-14.16,2021-12-17 16:50:04.000000
1743,-17.12,2021-12-17 16:50:04.015625
1744,-19.22,2021-12-17 16:50:04.031250
1745,-20.01,2021-12-17 16:50:04.046875
1746,-19.37,2021-12-17 16:50:04.062500
1747,-17.53,2021-12-17 16:50:04.078125
1748,-15.05,2021-12-17 16:50:04.093750
1749,-12.57,2021-12-17 16:50:04.109375
1750,-10.53,2021-12-17 16:50:04.125000
1751,-9.12,2021-12-17 16:50:04.140625
1752,-8.23,2021-12-17 16:50:04.156250
1753,-7.54,2021-12-17 16:50:04.171875
1754,-6.61,2021-12-17 16:50:04.187500
1755,-4.96,2021-12-17 16:50:04.203125
1756,-2.12,2021-12-17 16:50:04.218750
1757,2.16,2021-12-17 16:50:04.234375
1758,7.73,2021-12-17 16:50:04.250000
1759,13.99,2021-12-17 16:50:04.265625
1760,20.05,2021-12-17 16:50:04.281250
1761,24.94,2021-12-17 16:50:04.296875
1762,28.1,2021-12-17 16:50:04.312500
1763,29.51,2021-12-17 16:50:04.328125
1764,29.65,2021-12-17 16:50:04.343750
1765,29.17,2021-12-17 16:50:04.359375
1766,28.56,2021-12-17 16:50:04.375000
1767,27.92,2021-12-17 16:50:04.390625
1768,27.11,2021-12-17 16:50:04.406250
1769,25.89,2021-12-17 16:50:04.421875
1770,24.26,2021-12-17 16:50:04.437500
1771,22.41,2021-12-17 16:50:04.453125
1772,20.61,2021-12-17 16:50:04.468750
1773,19.0,2021-12-17 16:50:04.484375
1774,17.48,2021-12-17 16:50:04.500000
1775,15.78,2021-12-17 16:50:04.515625
1776,13.65,2021-12-17 16:50:04.531250
1777,10.95,2021-12-17 16:50:04.546875
1778,7.78,2021-12-17 16:50:04.562500
1779,4.43,2021-12-17 16:50:04.578125
1780,1.2,2021-12-17 16:50:04.593750
1781,-1.7,2021-12-17 16:50:04.609375
1782,-4.26,2021-12-17 16:50:04.625000
1783,-6.69,2021-12-17 16:50:04.640625
1784,-9.3,2021-12-17 16:50:04.656250
1785,-12.34,2021-12-17 16:50:04.671875
1786,-15.92,2021-12-17 16:50:04.687500
1787,-19.93,2021-12-17 16:50:04.703125
1788,-23.99,2021-12-17 16:50:04.718750
1789,-27.58,2021-12-17 16:50:04.734375
1790,-30.11,2021-12-17 16:50:04.750000
1791,-31.16,2021-12-17 16:50:04.765625
1792,-30.54,2021-12-17 16:50:04.781250
1793,-28.4,2021-12-17 16:50:04.796875
1794,-25.14,2021-12-17 16:50:04.812500
1795,-21.31,2021-12-17 16:50:04.828125
1796,-17.41,2021-12-17 16:50:04.843750
1797,-13.75,2021-12-17 16:50:04.859375
1798,-10.46,2021-12-17 16:50:04.875000
1799,-7.48,2021-12-17 16:50:04.890625
1800,-4.71,2021-12-17 16:50:04.906250
1801,-2.09,2021-12-17 16:50:04.921875
1802,0.4,2021-12-17 16:50:04.937500
1803,2.7,2021-12-17 16:50:04.953125
1804,4.8,2021-12-17 16:50:04.968750
1805,6.67,2021-12-17 16:50:04.984375
1806,8.33,2021-12-17 16:50:05.000000
1807,9.74,2021-12-17 16:50:05.015625
1808,10.89,2021-12-17 16:50:05.031250
1809,11.73,2021-12-17 16:50:05.046875
1810,12.35,2021-12-17 16:50:05.062500
1811,12.9,2021-12-17 16:50:05.078125
1812,13.54,2021-12-17 16:50:05.093750
1813,14.36,2021-12-17 16:50:05.109375
1814,15.33,2021-12-17 16:50:05.125000
1815,16.31,2021-12-17 16:50:05.140625
1816,17.09,2021-12-17 16:50:05.156250
1817,17.57,2021-12-17 16:50:05.171875
1818,17.68,2021-12-17 16:50:05.187500
1819,17.47,2021-12-17 16:50:05.203125
1820,16.99,2021-12-17 16:50:05.218750
1821,16.29,2021-12-17 16:50:05.234375
1822,15.34,2021-12-17 16:50:05.250000
1823,14.15,2021-12-17 16:50:05.265625
1824,12.76,2021-12-17 16:50:05.281250
1825,11.25,2021-12-17 16:50:05.296875
1826,9.74,2021-12-17 16:50:05.312500
1827,8.35,2021-12-17 16:50:05.328125
1828,7.09,2021-12-17 16:50:05.343750
1829,5.97,2021-12-17 16:50:05.359375
1830,4.93,2021-12-17 16:50:05.375000
1831,3.97,2021-12-17 16:50:05.390625
1832,3.11,2021-12-17 16:50:05.406250
1833,2.39,2021-12-17 16:50:05.421875
1834,1.8,2021-12-17 16:50:05.437500
1835,1.22,2021-12-17 16:50:05.453125
1836,0.4,2021-12-17 16:50:05.468750
1837,-0.93,2021-12-17 16:50:05.484375
1838,-2.91,2021-12-17 16:50:05.500000
1839,-5.38,2021-12-17 16:50:05.515625
1840,-7.84,2021-12-17 16:50:05.531250
1841,-9.63,2021-12-17 16:50:05.546875
1842,-10.19,2021-12-17 16:50:05.562500
1843,-9.31,2021-12-17 16:50:05.578125
1844,-7.21,2021-12-17 16:50:05.593750
1845,-4.46,2021-12-17 16:50:05.609375
1846,-1.58,2021-12-17 16:50:05.625000
1847,1.09,2021-12-17 16:50:05.640625
1848,3.52,2021-12-17 16:50:05.656250
1849,5.79,2021-12-17 16:50:05.671875
1850,7.92,2021-12-17 16:50:05.687500
1851,9.75,2021-12-17 16:50:05.703125
1852,11.0,2021-12-17 16:50:05.718750
1853,11.47,2021-12-17 16:50:05.734375
1854,11.06,2021-12-17 16:50:05.750000
1855,9.91,2021-12-17 16:50:05.765625
1856,8.22,2021-12-17 16:50:05.781250
1857,6.12,2021-12-17 16:50:05.796875
1858,3.64,2021-12-17 16:50:05.812500
1859,0.71,2021-12-17 16:50:05.828125
1860,-2.68,2021-12-17 16:50:05.843750
1861,-6.4,2021-12-17 16:50:05.859375
1862,-10.19,2021-12-17 16:50:05.875000
1863,-13.66,2021-12-17 16:50:05.890625
1864,-16.44,2021-12-17 16:50:05.906250
1865,-18.33,2021-12-17 16:50:05.921875
1866,-19.31,2021-12-17 16:50:05.937500
1867,-19.56,2021-12-17 16:50:05.953125
1868,-19.44,2021-12-17 16:50:05.968750
1869,-19.31,2021-12-17 16:50:05.984375
1870,-19.38,2021-12-17 16:50:06.000000
1871,-19.68,2021-12-17 16:50:06.015625
1872,-20.02,2021-12-17 16:50:06.031250
1873,-20.21,2021-12-17 16:50:06.046875
1874,-20.1,2021-12-17 16:50:06.062500
1875,-19.76,2021-12-17 16:50:06.078125
1876,-19.37,2021-12-17 16:50:06.093750
1877,-19.17,2021-12-17 16:50:06.109375
1878,-19.3,2021-12-17 16:50:06.125000
1879,-19.76,2021-12-17 16:50:06.140625
1880,-20.44,2021-12-17 16:50:06.156250
1881,-21.23,2021-12-17 16:50:06.171875
1882,-22.09,2021-12-17 16:50:06.187500
1883,-23.12,2021-12-17 16:50:06.203125
1884,-24.39,2021-12-17 16:50:06.218750
1885,-25.94,2021-12-17 16:50:06.234375
1886,-27.6,2021-12-17 16:50:06.250000
1887,-29.0,2021-12-17 16:50:06.265625
1888,-29.67,2021-12-17 16:50:06.281250
1889,-29.18,2021-12-17 16:50:06.296875
1890,-27.3,2021-12-17 16:50:06.312500
1891,-24.12,2021-12-17 16:50:06.328125
1892,-20.01,2021-12-17 16:50:06.343750
1893,-15.46,2021-12-17 16:50:06.359375
1894,-10.96,2021-12-17 16:50:06.375000
1895,-6.79,2021-12-17 16:50:06.390625
1896,-3.07,2021-12-17 16:50:06.406250
1897,0.19,2021-12-17 16:50:06.421875
1898,2.98,2021-12-17 16:50:06.437500
1899,5.23,2021-12-17 16:50:06.453125
1900,6.82,2021-12-17 16:50:06.468750
1901,7.67,2021-12-17 16:50:06.484375
1902,7.78,2021-12-17 16:50:06.500000
1903,7.34,2021-12-17 16:50:06.515625
1904,6.64,2021-12-17 16:50:06.531250
1905,5.94,2021-12-17 16:50:06.546875
1906,5.36,2021-12-17 16:50:06.562500
1907,4.83,2021-12-17 16:50:06.578125
1908,4.12,2021-12-17 16:50:06.593750
1909,3.04,2021-12-17 16:50:06.609375
1910,1.56,2021-12-17 16:50:06.625000
1911,-0.07,2021-12-17 16:50:06.640625
1912,-1.36,2021-12-17 16:50:06.656250
1913,-1.85,2021-12-17 16:50:06.671875
1914,-1.3,2021-12-17 16:50:06.687500
1915,0.12,2021-12-17 16:50:06.703125
1916,1.87,2021-12-17 16:50:06.718750
1917,3.33,2021-12-17 16:50:06.734375
1918,4.0,2021-12-17 16:50:06.750000
1919,3.78,2021-12-17 16:50:06.765625
1920,2.94,2021-12-17 16:50:06.781250
1921,1.94,2021-12-17 16:50:06.796875
1922,1.18,2021-12-17 16:50:06.812500
1923,0.8,2021-12-17 16:50:06.828125
1924,0.55,2021-12-17 16:50:06.843750
1925,-0.05,2021-12-17 16:50:06.859375
1926,-1.59,2021-12-17 16:50:06.875000
1927,-4.47,2021-12-17 16:50:06.890625
1928,-8.84,2021-12-17 16:50:06.906250
1929,-14.51,2021-12-17 16:50:06.921875
1930,-20.93,2021-12-17 16:50:06.937500
1931,-27.28,2021-12-17 16:50:06.953125
1932,-32.56,2021-12-17 16:50:06.968750
1933,-35.81,2021-12-17 16:50:06.984375
1934,-36.31,2021-12-17 16:50:07.000000
1935,-33.8,2021-12-17 16:50:07.015625
1936,-28.62,2021-12-17 16:50:07.031250
1937,-21.59,2021-12-17 16:50:07.046875
1938,-13.8,2021-12-17 16:50:07.062500
1939,-6.25,2021-12-17 16:50:07.078125
1940,0.41,2021-12-17 16:50:07.093750
1941,5.94,2021-12-17 16:50:07.109375
1942,10.4,2021-12-17 16:50:07.125000
1943,13.94,2021-12-17 16:50:07.140625
1944,16.66,2021-12-17 16:50:07.156250
1945,18.49,2021-12-17 16:50:07.171875
1946,19.38,2021-12-17 16:50:07.187500
1947,19.39,2021-12-17 16:50:07.203125
1948,18.73,2021-12-17 16:50:07.218750
1949,17.76,2021-12-17 16:50:07.234375
1950,16.81,2021-12-17 16:50:07.250000
1951,16.07,2021-12-17 16:50:07.265625
1952,15.56,2021-12-17 16:50:07.281250
1953,15.2,2021-12-17 16:50:07.296875
1954,14.92,2021-12-17 16:50:07.312500
1955,14.68,2021-12-17 16:50:07.328125
1956,14.54,2021-12-17 16:50:07.343750
1957,14.58,2021-12-17 16:50:07.359375
1958,14.78,2021-12-17 16:50:07.375000
1959,15.02,2021-12-17 16:50:07.390625
1960,15.11,2021-12-17 16:50:07.406250
1961,14.79,2021-12-17 16:50:07.421875
1962,13.96,2021-12-17 16:50:07.437500
1963,12.59,2021-12-17 16:50:07.453125
1964,10.8,2021-12-17 16:50:07.468750
1965,8.79,2021-12-17 16:50:07.484375
1966,6.78,2021-12-17 16:50:07.500000
1967,4.94,2021-12-17 16:50:07.515625
1968,3.43,2021-12-17 16:50:07.531250
1969,2.33,2021-12-17 16:50:07.546875
1970,1.6,2021-12-17 16:50:07.562500
1971,1.08,2021-12-17 16:50:07.578125
1972,0.54,2021-12-17 16:50:07.593750
1973,-0.3,2021-12-17 16:50:07.609375
1974,-1.56,2021-12-17 16:50:07.625000
1975,-3.16,2021-12-17 16:50:07.640625
1976,-4.8,2021-12-17 16:50:07.656250
1977,-6.03,2021-12-17 16:50:07.671875
1978,-6.43,2021-12-17 16:50:07.687500
1979,-5.75,2021-12-17 16:50:07.703125
1980,-3.97,2021-12-17 16:50:07.718750
1981,-1.28,2021-12-17 16:50:07.734375
1982,1.97,2021-12-17 16:50:07.750000
1983,5.46,2021-12-17 16:50:07.765625
1984,8.88,2021-12-17 16:50:07.781250
1985,12.0,2021-12-17 16:50:07.796875
1986,14.65,2021-12-17 16:50:07.812500
1987,16.73,2021-12-17 16:50:07.828125
1988,18.22,2021-12-17 16:50:07.843750
1989,19.13,2021-12-17 16:50:07.859375
1990,19.54,2021-12-17 16:50:07.875000
1991,19.53,2021-12-17 16:50:07.890625
1992,19.17,2021-12-17 16:50:07.906250
1993,18.56,2021-12-17 16:50:07.921875
1994,17.88,2021-12-17 16:50:07.937500
1995,17.33,2021-12-17 16:50:07.953125
1996,17.14,2021-12-17 16:50:07.968750
1997,17.45,2021-12-17 16:50:07.984375
1998,18.23,2021-12-17 16:50:08.000000
1999,19.32,2021-12-17 16:50:08.015625
2000,20.44,2021-12-17 16:50:08.031250
2001,21.37,2021-12-17 16:50:08.046875
2002,21.98,2021-12-17 16:50:08.062500
2003,22.21,2021-12-17 16:50:08.078125
2004,22.03,2021-12-17 16:50:08.093750
2005,21.38,2021-12-17 16:50:08.109375
2006,20.18,2021-12-17 16:50:08.125000
2007,18.43,2021-12-17 16:50:08.140625
2008,16.24,2021-12-17 16:50:08.156250
2009,13.85,2021-12-17 16:50:08.171875
2010,11.55,2021-12-17 16:50:08.187500
2011,9.56,2021-12-17 16:50:08.203125
2012,7.93,2021-12-17 16:50:08.218750
2013,6.51,2021-12-17 16:50:08.234375
2014,5.07,2021-12-17 16:50:08.250000
2015,3.37,2021-12-17 16:50:08.265625
2016,1.22,2021-12-17 16:50:08.281250
2017,-1.46,2021-12-17 16:50:08.296875
2018,-4.64,2021-12-17 16:50:08.312500
2019,-8.17,2021-12-17 16:50:08.328125
2020,-11.77,2021-12-17 16:50:08.343750
2021,-15.09,2021-12-17 16:50:08.359375
2022,-17.71,2021-12-17 16:50:08.375000
2023,-19.28,2021-12-17 16:50:08.390625
2024,-19.6,2021-12-17 16:50:08.406250
2025,-18.7,2021-12-17 16:50:08.421875
2026,-16.77,2021-12-17 16:50:08.437500
2027,-14.13,2021-12-17 16:50:08.453125
2028,-11.12,2021-12-17 16:50:08.468750
2029,-8.03,2021-12-17 16:50:08.484375
2030,-5.07,2021-12-17 16:50:08.500000
2031,-2.37,2021-12-17 16:50:08.515625
2032,0.01,2021-12-17 16:50:08.531250
2033,2.08,2021-12-17 16:50:08.546875
2034,3.9,2021-12-17 16:50:08.562500
2035,5.5,2021-12-17 16:50:08.578125
2036,6.91,2021-12-17 16:50:08.593750
2037,8.15,2021-12-17 16:50:08.609375
2038,9.2,2021-12-17 16:50:08.625000
2039,10.04,2021-12-17 16:50:08.640625
2040,10.64,2021-12-17 16:50:08.656250
2041,11.04,2021-12-17 16:50:08.671875
2042,11.25,2021-12-17 16:50:08.687500
2043,11.33,2021-12-17 16:50:08.703125
2044,11.32,2021-12-17 16:50:08.718750
2045,11.25,2021-12-17 16:50:08.734375
2046,11.09,2021-12-17 16:50:08.750000
2047,10.82,2021-12-17 16:50:08.765625
2048,10.38,2021-12-17 16:50:08.781250
2049,9.76,2021-12-17 16:50:08.796875
2050,9.01,2021-12-17 16:50:08.812500
2051,8.14,2021-12-17 16:50:08.828125
2052,7.19,2021-12-17 16:50:08.843750
2053,6.1,2021-12-17 16:50:08.859375
2054,4.82,2021-12-17 16:50:08.875000
2055,3.29,2021-12-17 16:50:08.890625
2056,1.51,2021-12-17 16:50:08.906250
2057,-0.48,2021-12-17 16:50:08.921875
2058,-2.58,2021-12-17 16:50:08.937500
2059,-4.69,2021-12-17 16:50:08.953125
2060,-6.73,2021-12-17 16:50:08.968750
2061,-8.67,2021-12-17 16:50:08.984375
2062,-10.58,2021-12-17 16:50:09.000000
2063,-12.58,2021-12-17 16:50:09.015625
2064,-14.81,2021-12-17 16:50:09.031250
2065,-17.4,2021-12-17 16:50:09.046875
2066,-20.41,2021-12-17 16:50:09.062500
2067,-23.76,2021-12-17 16:50:09.078125
2068,-27.28,2021-12-17 16:50:09.093750
2069,-30.67,2021-12-17 16:50:09.109375
2070,-33.6,2021-12-17 16:50:09.125000
2071,-35.76,2021-12-17 16:50:09.140625
2072,-36.88,2021-12-17 16:50:09.156250
2073,-36.78,2021-12-17 16:50:09.171875
2074,-35.35,2021-12-17 16:50:09.187500
2075,-32.65,2021-12-17 16:50:09.203125
2076,-28.88,2021-12-17 16:50:09.218750
2077,-24.39,2021-12-17 16:50:09.234375
2078,-19.62,2021-12-17 16:50:09.250000
2079,-14.99,2021-12-17 16:50:09.265625
2080,-10.79,2021-12-17 16:50:09.281250
2081,-7.12,2021-12-17 16:50:09.296875
2082,-3.93,2021-12-17 16:50:09.312500
2083,-1.1,2021-12-17 16:50:09.328125
2084,1.46,2021-12-17 16:50:09.343750
2085,3.82,2021-12-17 16:50:09.359375
2086,5.94,2021-12-17 16:50:09.375000
2087,7.77,2021-12-17 16:50:09.390625
2088,9.27,2021-12-17 16:50:09.406250
2089,10.48,2021-12-17 16:50:09.421875
2090,11.46,2021-12-17 16:50:09.437500
2091,12.31,2021-12-17 16:50:09.453125
2092,13.08,2021-12-17 16:50:09.468750
2093,13.77,2021-12-17 16:50:09.484375
2094,14.35,2021-12-17 16:50:09.500000
2095,14.72,2021-12-17 16:50:09.515625
2096,14.8,2021-12-17 16:50:09.531250
2097,14.56,2021-12-17 16:50:09.546875
2098,14.03,2021-12-17 16:50:09.562500
2099,13.25,2021-12-17 16:50:09.578125
2100,12.29,2021-12-17 16:50:09.593750
2101,11.18,2021-12-17 16:50:09.609375
2102,9.91,2021-12-17 16:50:09.625000
2103,8.49,2021-12-17 16:50:09.640625
2104,6.99,2021-12-17 16:50:09.656250
2105,5.52,2021-12-17 16:50:09.671875
2106,4.17,2021-12-17 16:50:09.687500
2107,2.89,2021-12-17 16:50:09.703125
2108,1.45,2021-12-17 16:50:09.718750
2109,-0.47,2021-12-17 16:50:09.734375
2110,-3.16,2021-12-17 16:50:09.750000
2111,-6.64,2021-12-17 16:50:09.765625
2112,-10.65,2021-12-17 16:50:09.781250
2113,-14.73,2021-12-17 16:50:09.796875
2114,-18.38,2021-12-17 16:50:09.812500
2115,-21.34,2021-12-17 16:50:09.828125
2116,-23.69,2021-12-17 16:50:09.843750
2117,-25.71,2021-12-17 16:50:09.859375
2118,-27.72,2021-12-17 16:50:09.875000
2119,-29.91,2021-12-17 16:50:09.890625
2120,-32.2,2021-12-17 16:50:09.906250
2121,-34.34,2021-12-17 16:50:09.921875
2122,-35.99,2021-12-17 16:50:09.937500
2123,-36.88,2021-12-17 16:50:09.953125
2124,-36.79,2021-12-17 16:50:09.968750
2125,-35.6,2021-12-17 16:50:09.984375
2126,-33.24,2021-12-17 16:50:10.000000
2127,-29.71,2021-12-17 16:50:10.015625
2128,-25.23,2021-12-17 16:50:10.031250
2129,-20.18,2021-12-17 16:50:10.046875
2130,-15.14,2021-12-17 16:50:10.062500
2131,-10.62,2021-12-17 16:50:10.078125
2132,-6.94,2021-12-17 16:50:10.093750
2133,-4.09,2021-12-17 16:50:10.109375
2134,-1.74,2021-12-17 16:50:10.125000
2135,0.51,2021-12-17 16:50:10.140625
2136,3.02,2021-12-17 16:50:10.156250
2137,5.93,2021-12-17 16:50:10.171875
2138,9.16,2021-12-17 16:50:10.187500
2139,12.52,2021-12-17 16:50:10.203125
2140,15.81,2021-12-17 16:50:10.218750
2141,18.87,2021-12-17 16:50:10.234375
2142,21.58,2021-12-17 16:50:10.250000
2143,23.86,2021-12-17 16:50:10.265625
2144,25.62,2021-12-17 16:50:10.281250
2145,26.86,2021-12-17 16:50:10.296875
2146,27.63,2021-12-17 16:50:10.312500
2147,28.02,2021-12-17 16:50:10.328125
2148,28.15,2021-12-17 16:50:10.343750
2149,28.1,2021-12-17 16:50:10.359375
2150,27.94,2021-12-17 16:50:10.375000
2151,27.69,2021-12-17 16:50:10.390625
2152,27.38,2021-12-17 16:50:10.406250
2153,26.99,2021-12-17 16:50:10.421875
2154,26.43,2021-12-17 16:50:10.437500
2155,25.49,2021-12-17 16:50:10.453125
2156,23.93,2021-12-17 16:50:10.468750
2157,21.61,2021-12-17 16:50:10.484375
2158,18.54,2021-12-17 16:50:10.500000
2159,14.96,2021-12-17 16:50:10.515625
2160,11.22,2021-12-17 16:50:10.531250
2161,7.61,2021-12-17 16:50:10.546875
2162,4.17,2021-12-17 16:50:10.562500
2163,0.68,2021-12-17 16:50:10.578125
2164,-3.29,2021-12-17 16:50:10.593750
2165,-8.14,2021-12-17 16:50:10.609375
2166,-13.97,2021-12-17 16:50:10.625000
2167,-20.56,2021-12-17 16:50:10.640625
2168,-27.26,2021-12-17 16:50:10.656250
2169,-33.28,2021-12-17 16:50:10.671875
2170,-37.84,2021-12-17 16:50:10.687500
2171,-40.41,2021-12-17 16:50:10.703125
2172,-40.77,2021-12-17 16:50:10.718750
2173,-38.98,2021-12-17 16:50:10.734375
2174,-35.29,2021-12-17 16:50:10.750000
2175,-30.07,2021-12-17 16:50:10.765625
2176,-23.75,2021-12-17 16:50:10.781250
2177,-16.86,2021-12-17 16:50:10.796875
2178,-9.93,2021-12-17 16:50:10.812500
2179,-3.5,2021-12-17 16:50:10.828125
2180,2.07,2021-12-17 16:50:10.843750
2181,6.52,2021-12-17 16:50:10.859375
2182,9.82,2021-12-17 16:50:10.875000
2183,12.03,2021-12-17 16:50:10.890625
2184,13.27,2021-12-17 16:50:10.906250
2185,13.73,2021-12-17 16:50:10.921875
2186,13.64,2021-12-17 16:50:10.937500
2187,13.33,2021-12-17 16:50:10.953125
2188,13.11,2021-12-17 16:50:10.968750
2189,13.23,2021-12-17 16:50:10.984375
2190,13.69,2021-12-17 16:50:11.000000
2191,14.35,2021-12-17 16:50:11.015625
2192,14.95,2021-12-17 16:50:11.031250
2193,15.28,2021-12-17 16:50:11.046875
2194,15.3,2021-12-17 16:50:11.062500
2195,15.12,2021-12-17 16:50:11.078125
2196,14.87,2021-12-17 16:50:11.093750
2197,14.55,2021-12-17 16:50:11.109375
2198,14.06,2021-12-17 16:50:11.125000
2199,13.18,2021-12-17 16:50:11.140625
2200,11.82,2021-12-17 16:50:11.156250
2201,10.0,2021-12-17 16:50:11.171875
2202,7.9,2021-12-17 16:50:11.187500
2203,5.71,2021-12-17 16:50:11.203125
2204,3.56,2021-12-17 16:50:11.218750
2205,1.49,2021-12-17 16:50:11.234375
2206,-0.57,2021-12-17 16:50:11.250000
2207,-2.66,2021-12-17 16:50:11.265625
2208,-4.77,2021-12-17 16:50:11.281250
2209,-6.87,2021-12-17 16:50:11.296875
2210,-8.92,2021-12-17 16:50:11.312500
2211,-10.89,2021-12-17 16:50:11.328125
2212,-12.83,2021-12-17 16:50:11.343750
2213,-14.87,2021-12-17 16:50:11.359375
2214,-17.17,2021-12-17 16:50:11.375000
2215,-19.84,2021-12-17 16:50:11.390625
2216,-22.89,2021-12-17 16:50:11.406250
2217,-26.07,2021-12-17 16:50:11.421875
2218,-29.01,2021-12-17 16:50:11.437500
2219,-31.24,2021-12-17 16:50:11.453125
2220,-32.36,2021-12-17 16:50:11.468750
2221,-32.2,2021-12-17 16:50:11.484375
2222,-30.85,2021-12-17 16:50:11.500000
2223,-28.56,2021-12-17 16:50:11.515625
2224,-25.61,2021-12-17 16:50:11.531250
2225,-22.28,2021-12-17 16:50:11.546875
2226,-18.75,2021-12-17 16:50:11.562500
2227,-15.21,2021-12-17 16:50:11.578125
2228,-11.87,2021-12-17 16:50:11.593750
2229,-8.85,2021-12-17 16:50:11.609375
2230,-6.22,2021-12-17 16:50:11.625000
2231,-3.91,2021-12-17 16:50:11.640625
2232,-1.83,2021-12-17 16:50:11.656250
2233,0.06,2021-12-17 16:50:11.671875
2234,1.67,2021-12-17 16:50:11.687500
2235,2.88,2021-12-17 16:50:11.703125
2236,3.62,2021-12-17 16:50:11.718750
2237,3.95,2021-12-17 16:50:11.734375
2238,4.08,2021-12-17 16:50:11.750000
2239,4.28,2021-12-17 16:50:11.765625
2240,4.72,2021-12-17 16:50:11.781250
2241,5.46,2021-12-17 16:50:11.796875
2242,6.38,2021-12-17 16:50:11.812500
2243,7.3,2021-12-17 16:50:11.828125
2244,8.03,2021-12-17 16:50:11.843750
2245,8.4,2021-12-17 16:50:11.859375
2246,8.3,2021-12-17 16:50:11.875000
2247,7.71,2021-12-17 16:50:11.890625
2248,6.67,2021-12-17 16:50:11.906250
2249,5.31,2021-12-17 16:50:11.921875
2250,3.72,2021-12-17 16:50:11.937500
2251,2.02,2021-12-17 16:50:11.953125
2252,0.27,2021-12-17 16:50:11.968750
2253,-1.44,2021-12-17 16:50:11.984375
2254,-2.99,2021-12-17 16:50:12.000000
2255,-4.23,2021-12-17 16:50:12.015625
2256,-5.01,2021-12-17 16:50:12.031250
2257,-5.31,2021-12-17 16:50:12.046875
2258,-5.22,2021-12-17 16:50:12.062500
2259,-4.95,2021-12-17 16:50:12.078125
2260,-4.73,2021-12-17 16:50:12.093750
2261,-4.74,2021-12-17 16:50:12.109375
2262,-5.05,2021-12-17 16:50:12.125000
2263,-5.75,2021-12-17 16:50:12.140625
2264,-7.02,2021-12-17 16:50:12.156250
2265,-9.16,2021-12-17 16:50:12.171875
2266,-12.51,2021-12-17 16:50:12.187500
2267,-17.23,2021-12-17 16:50:12.203125
2268,-23.15,2021-12-17 16:50:12.218750
2269,-29.58,2021-12-17 16:50:12.234375
2270,-35.49,2021-12-17 16:50:12.250000
2271,-39.68,2021-12-17 16:50:12.265625
2272,-41.27,2021-12-17 16:50:12.281250
2273,-39.89,2021-12-17 16:50:12.296875
2274,-35.86,2021-12-17 16:50:12.312500
2275,-30.01,2021-12-17 16:50:12.328125
2276,-23.34,2021-12-17 16:50:12.343750
2277,-16.67,2021-12-17 16:50:12.359375
2278,-10.53,2021-12-17 16:50:12.375000
2279,-5.08,2021-12-17 16:50:12.390625
2280,-0.32,2021-12-17 16:50:12.406250
2281,3.8,2021-12-17 16:50:12.421875
2282,7.28,2021-12-17 16:50:12.437500
2283,10.08,2021-12-17 16:50:12.453125
2284,12.18,2021-12-17 16:50:12.468750
2285,13.66,2021-12-17 16:50:12.484375
2286,14.65,2021-12-17 16:50:12.500000
2287,15.33,2021-12-17 16:50:12.515625
2288,15.86,2021-12-17 16:50:12.531250
2289,16.32,2021-12-17 16:50:12.546875
2290,16.72,2021-12-17 16:50:12.562500
2291,17.02,2021-12-17 16:50:12.578125
2292,17.19,2021-12-17 16:50:12.593750
2293,17.22,2021-12-17 16:50:12.609375
2294,17.16,2021-12-17 16:50:12.625000
2295,17.15,2021-12-17 16:50:12.640625
2296,17.29,2021-12-17 16:50:12.656250
2297,17.7,2021-12-17 16:50:12.671875
2298,18.35,2021-12-17 16:50:12.687500
2299,19.14,2021-12-17 16:50:12.703125
2300,19.83,2021-12-17 16:50:12.718750
2301,20.19,2021-12-17 16:50:12.734375
2302,19.99,2021-12-17 16:50:12.750000
2303,19.11,2021-12-17 16:50:12.765625
2304,17.56,2021-12-17 16:50:12.781250
2305,15.46,2021-12-17 16:50:12.796875
2306,13.03,2021-12-17 16:50:12.812500
2307,10.5,2021-12-17 16:50:12.828125
2308,8.04,2021-12-17 16:50:12.843750
2309,5.7,2021-12-17 16:50:12.859375
2310,3.41,2021-12-17 16:50:12.875000
2311,1.03,2021-12-17 16:50:12.890625
2312,-1.54,2021-12-17 16:50:12.906250
2313,-4.33,2021-12-17 16:50:12.921875
2314,-7.26,2021-12-17 16:50:12.937500
2315,-10.23,2021-12-17 16:50:12.953125
2316,-13.23,2021-12-17 16:50:12.968750
2317,-16.28,2021-12-17 16:50:12.984375
2318,-19.4,2021-12-17 16:50:13.000000
2319,-22.54,2021-12-17 16:50:13.015625
2320,-25.48,2021-12-17 16:50:13.031250
2321,-27.8,2021-12-17 16:50:13.046875
2322,-29.03,2021-12-17 16:50:13.062500
2323,-28.83,2021-12-17 16:50:13.078125
2324,-27.06,2021-12-17 16:50:13.093750
2325,-23.91,2021-12-17 16:50:13.109375
2326,-19.78,2021-12-17 16:50:13.125000
2327,-15.08,2021-12-17 16:50:13.140625
2328,-10.16,2021-12-17 16:50:13.156250
2329,-5.22,2021-12-17 16:50:13.171875
2330,-0.35,2021-12-17 16:50:13.187500
2331,4.32,2021-12-17 16:50:13.203125
2332,8.58,2021-12-17 16:50:13.218750
2333,12.1,2021-12-17 16:50:13.234375
2334,14.54,2021-12-17 16:50:13.250000
2335,15.69,2021-12-17 16:50:13.265625
2336,15.63,2021-12-17 16:50:13.281250
2337,14.69,2021-12-17 16:50:13.296875
2338,13.44,2021-12-17 16:50:13.312500
2339,12.41,2021-12-17 16:50:13.328125
2340,11.91,2021-12-17 16:50:13.343750
2341,12.08,2021-12-17 16:50:13.359375
2342,12.8,2021-12-17 16:50:13.375000
2343,13.88,2021-12-17 16:50:13.390625
2344,15.16,2021-12-17 16:50:13.406250
2345,16.49,2021-12-17 16:50:13.421875
2346,17.76,2021-12-17 16:50:13.437500
2347,18.89,2021-12-17 16:50:13.453125
2348,19.8,2021-12-17 16:50:13.468750
2349,20.41,2021-12-17 16:50:13.484375
2350,20.66,2021-12-17 16:50:13.500000
2351,20.57,2021-12-17 16:50:13.515625
2352,20.13,2021-12-17 16:50:13.531250
2353,19.38,2021-12-17 16:50:13.546875
2354,18.41,2021-12-17 16:50:13.562500
2355,17.28,2021-12-17 16:50:13.578125
2356,16.11,2021-12-17 16:50:13.593750
2357,14.97,2021-12-17 16:50:13.609375
2358,13.9,2021-12-17 16:50:13.625000
2359,12.87,2021-12-17 16:50:13.640625
2360,11.8,2021-12-17 16:50:13.656250
2361,10.67,2021-12-17 16:50:13.671875
2362,9.48,2021-12-17 16:50:13.687500
2363,8.29,2021-12-17 16:50:13.703125
2364,7.14,2021-12-17 16:50:13.718750
2365,5.97,2021-12-17 16:50:13.734375
2366,4.62,2021-12-17 16:50:13.750000
2367,2.85,2021-12-17 16:50:13.765625
2368,0.49,2021-12-17 16:50:13.781250
2369,-2.55,2021-12-17 16:50:13.796875
2370,-6.14,2021-12-17 16:50:13.812500
2371,-9.98,2021-12-17 16:50:13.828125
2372,-13.66,2021-12-17 16:50:13.843750
2373,-16.77,2021-12-17 16:50:13.859375
2374,-18.93,2021-12-17 16:50:13.875000
2375,-19.91,2021-12-17 16:50:13.890625
2376,-19.54,2021-12-17 16:50:13.906250
2377,-17.84,2021-12-17 16:50:13.921875
2378,-14.96,2021-12-17 16:50:13.937500
2379,-11.22,2021-12-17 16:50:13.953125
2380,-7.06,2021-12-17 16:50:13.968750
2381,-2.98,2021-12-17 16:50:13.984375
2382,0.6,2021-12-17 16:50:14.000000
2383,3.48,2021-12-17 16:50:14.015625
2384,5.69,2021-12-17 16:50:14.031250
2385,7.48,2021-12-17 16:50:14.046875
2386,9.17,2021-12-17 16:50:14.062500
2387,10.99,2021-12-17 16:50:14.078125
2388,13.0,2021-12-17 16:50:14.093750
2389,15.08,2021-12-17 16:50:14.109375
2390,17.06,2021-12-17 16:50:14.125000
2391,18.8,2021-12-17 16:50:14.140625
2392,20.25,2021-12-17 16:50:14.156250
2393,21.51,2021-12-17 16:50:14.171875
2394,22.66,2021-12-17 16:50:14.187500
2395,23.74,2021-12-17 16:50:14.203125
2396,24.75,2021-12-17 16:50:14.218750
2397,25.62,2021-12-17 16:50:14.234375
2398,26.31,2021-12-17 16:50:14.250000
2399,26.8,2021-12-17 16:50:14.265625
2400,27.12,2021-12-17 16:50:14.281250
2401,27.29,2021-12-17 16:50:14.296875
2402,27.33,2021-12-17 16:50:14.312500
2403,27.24,2021-12-17 16:50:14.328125
2404,27.04,2021-12-17 16:50:14.343750
2405,26.78,2021-12-17 16:50:14.359375
2406,26.53,2021-12-17 16:50:14.375000
2407,26.34,2021-12-17 16:50:14.390625
2408,26.21,2021-12-17 16:50:14.406250
2409,25.99,2021-12-17 16:50:14.421875
2410,25.52,2021-12-17 16:50:14.437500
2411,24.57,2021-12-17 16:50:14.453125
2412,23.04,2021-12-17 16:50:14.468750
2413,20.92,2021-12-17 16:50:14.484375
2414,18.33,2021-12-17 16:50:14.500000
2415,15.41,2021-12-17 16:50:14.515625
2416,12.34,2021-12-17 16:50:14.531250
2417,9.22,2021-12-17 16:50:14.546875
2418,6.11,2021-12-17 16:50:14.562500
2419,2.99,2021-12-17 16:50:14.578125
2420,-0.21,2021-12-17 16:50:14.593750
2421,-3.66,2021-12-17 16:50:14.609375
2422,-7.49,2021-12-17 16:50:14.625000
2423,-11.78,2021-12-17 16:50:14.640625
2424,-16.41,2021-12-17 16:50:14.656250
2425,-21.02,2021-12-17 16:50:14.671875
2426,-25.07,2021-12-17 16:50:14.687500
2427,-28.06,2021-12-17 16:50:14.703125
2428,-29.59,2021-12-17 16:50:14.718750
2429,-29.63,2021-12-17 16:50:14.734375
2430,-28.46,2021-12-17 16:50:14.750000
2431,-26.52,2021-12-17 16:50:14.765625
2432,-24.28,2021-12-17 16:50:14.781250
2433,-22.02,2021-12-17 16:50:14.796875
2434,-19.85,2021-12-17 16:50:14.812500
2435,-17.71,2021-12-17 16:50:14.828125
2436,-15.54,2021-12-17 16:50:14.843750
2437,-13.34,2021-12-17 16:50:14.859375
2438,-11.17,2021-12-17 16:50:14.875000
2439,-9.16,2021-12-17 16:50:14.890625
2440,-7.37,2021-12-17 16:50:14.906250
2441,-5.83,2021-12-17 16:50:14.921875
2442,-4.48,2021-12-17 16:50:14.937500
2443,-3.18,2021-12-17 16:50:14.953125
2444,-1.84,2021-12-17 16:50:14.968750
2445,-0.38,2021-12-17 16:50:14.984375
2446,1.25,2021-12-17 16:50:15.000000
2447,3.02,2021-12-17 16:50:15.015625
2448,4.89,2021-12-17 16:50:15.031250
2449,6.78,2021-12-17 16:50:15.046875
2450,8.59,2021-12-17 16:50:15.062500
2451,10.18,2021-12-17 16:50:15.078125
2452,11.38,2021-12-17 16:50:15.093750
2453,12.02,2021-12-17 16:50:15.109375
2454,11.94,2021-12-17 16:50:15.125000
2455,11.13,2021-12-17 16:50:15.140625
2456,9.69,2021-12-17 16:50:15.156250
2457,7.86,2021-12-17 16:50:15.171875
2458,5.97,2021-12-17 16:50:15.187500
2459,4.28,2021-12-17 16:50:15.203125
2460,3.01,2021-12-17 16:50:15.218750
2461,2.1,2021-12-17 16:50:15.234375
2462,1.38,2021-12-17 16:50:15.250000
2463,0.52,2021-12-17 16:50:15.265625
2464,-0.76,2021-12-17 16:50:15.281250
2465,-2.61,2021-12-17 16:50:15.296875
2466,-4.98,2021-12-17 16:50:15.312500
2467,-7.73,2021-12-17 16:50:15.328125
2468,-10.61,2021-12-17 16:50:15.343750
2469,-13.46,2021-12-17 16:50:15.359375
2470,-16.19,2021-12-17 16:50:15.375000
2471,-18.79,2021-12-17 16:50:15.390625
2472,-21.22,2021-12-17 16:50:15.406250
2473,-23.3,2021-12-17 16:50:15.421875
2474,-24.86,2021-12-17 16:50:15.437500
2475,-25.67,2021-12-17 16:50:15.453125
2476,-25.7,2021-12-17 16:50:15.468750
2477,-25.12,2021-12-17 16:50:15.484375
2478,-24.2,2021-12-17 16:50:15.500000
2479,-23.16,2021-12-17 16:50:15.515625
2480,-22.03,2021-12-17 16:50:15.531250
2481,-20.69,2021-12-17 16:50:15.546875
2482,-18.9,2021-12-17 16:50:15.562500
2483,-16.55,2021-12-17 16:50:15.578125
2484,-13.67,2021-12-17 16:50:15.593750
2485,-10.44,2021-12-17 16:50:15.609375
2486,-6.99,2021-12-17 16:50:15.625000
2487,-3.34,2021-12-17 16:50:15.640625
2488,0.57,2021-12-17 16:50:15.656250
2489,4.76,2021-12-17 16:50:15.671875
2490,9.03,2021-12-17 16:50:15.687500
2491,12.95,2021-12-17 16:50:15.703125
2492,16.04,2021-12-17 16:50:15.718750
2493,17.97,2021-12-17 16:50:15.734375
2494,18.78,2021-12-17 16:50:15.750000
2495,18.8,2021-12-17 16:50:15.765625
2496,18.5,2021-12-17 16:50:15.781250
2497,18.18,2021-12-17 16:50:15.796875
2498,17.92,2021-12-17 16:50:15.812500
2499,17.51,2021-12-17 16:50:15.828125
2500,16.72,2021-12-17 16:50:15.843750
2501,15.33,2021-12-17 16:50:15.859375
2502,13.25,2021-12-17 16:50:15.875000
2503,10.47,2021-12-17 16:50:15.890625
2504,6.98,2021-12-17 16:50:15.906250
2505,2.79,2021-12-17 16:50:15.921875
2506,-2.1,2021-12-17 16:50:15.937500
2507,-7.53,2021-12-17 16:50:15.953125
2508,-13.17,2021-12-17 16:50:15.968750
2509,-18.51,2021-12-17 16:50:15.984375
2510,-22.91,2021-12-17 16:50:16.000000
2511,-25.78,2021-12-17 16:50:16.015625
2512,-26.81,2021-12-17 16:50:16.031250
2513,-26.07,2021-12-17 16:50:16.046875
2514,-24.03,2021-12-17 16:50:16.062500
2515,-21.49,2021-12-17 16:50:16.078125
2516,-19.25,2021-12-17 16:50:16.093750
2517,-17.94,2021-12-17 16:50:16.109375
2518,-17.73,2021-12-17 16:50:16.125000
2519,-18.41,2021-12-17 16:50:16.140625
2520,-19.48,2021-12-17 16:50:16.156250
2521,-20.38,2021-12-17 16:50:16.171875
2522,-20.73,2021-12-17 16:50:16.187500
2523,-20.34,2021-12-17 16:50:16.203125
2524,-19.28,2021-12-17 16:50:16.218750
2525,-17.79,2021-12-17 16:50:16.234375
2526,-16.21,2021-12-17 16:50:16.250000
2527,-14.91,2021-12-17 16:50:16.265625
2528,-14.23,2021-12-17 16:50:16.281250
2529,-14.38,2021-12-17 16:50:16.296875
2530,-15.28,2021-12-17 16:50:16.312500
2531,-16.63,2021-12-17 16:50:16.328125
2532,-17.81,2021-12-17 16:50:16.343750
2533,-18.08,2021-12-17 16:50:16.359375
2534,-16.74,2021-12-17 16:50:16.375000
2535,-13.36,2021-12-17 16:50:16.390625
2536,-8.02,2021-12-17 16:50:16.406250
2537,-1.3,2021-12-17 16:50:16.421875
2538,5.77,2021-12-17 16:50:16.437500
2539,12.04,2021-12-17 16:50:16.453125
2540,16.55,2021-12-17 16:50:16.468750
2541,18.82,2021-12-17 16:50:16.484375
2542,18.87,2021-12-17 16:50:16.500000
2543,17.17,2021-12-17 16:50:16.515625
2544,14.36,2021-12-17 16:50:16.531250
2545,11.06,2021-12-17 16:50:16.546875
2546,7.69,2021-12-17 16:50:16.562500
2547,4.45,2021-12-17 16:50:16.578125
2548,1.43,2021-12-17 16:50:16.593750
2549,-1.3,2021-12-17 16:50:16.609375
2550,-3.67,2021-12-17 16:50:16.625000
2551,-5.59,2021-12-17 16:50:16.640625
2552,-6.93,2021-12-17 16:50:16.656250
2553,-7.62,2021-12-17 16:50:16.671875
2554,-7.6,2021-12-17 16:50:16.687500
2555,-6.85,2021-12-17 16:50:16.703125
2556,-5.48,2021-12-17 16:50:16.718750
2557,-3.69,2021-12-17 16:50:16.734375
2558,-1.85,2021-12-17 16:50:16.750000
2559,-0.41,2021-12-17 16:50:16.765625
2560,0.18,2021-12-17 16:50:16.781250
2561,-0.49,2021-12-17 16:50:16.796875
2562,-2.69,2021-12-17 16:50:16.812500
2563,-6.51,2021-12-17 16:50:16.828125
2564,-11.86,2021-12-17 16:50:16.843750
2565,-18.41,2021-12-17 16:50:16.859375
2566,-25.61,2021-12-17 16:50:16.875000
2567,-32.68,2021-12-17 16:50:16.890625
2568,-38.67,2021-12-17 16:50:16.906250
2569,-42.7,2021-12-17 16:50:16.921875
2570,-44.03,2021-12-17 16:50:16.937500
2571,-42.3,2021-12-17 16:50:16.953125
2572,-37.57,2021-12-17 16:50:16.968750
2573,-30.29,2021-12-17 16:50:16.984375
2574,-21.17,2021-12-17 16:50:17.000000
2575,-11.05,2021-12-17 16:50:17.015625
2576,-0.84,2021-12-17 16:50:17.031250
2577,8.63,2021-12-17 16:50:17.046875
2578,16.64,2021-12-17 16:50:17.062500
2579,22.7,2021-12-17 16:50:17.078125
2580,26.66,2021-12-17 16:50:17.093750
2581,28.68,2021-12-17 16:50:17.109375
2582,29.21,2021-12-17 16:50:17.125000
2583,28.82,2021-12-17 16:50:17.140625
2584,28.06,2021-12-17 16:50:17.156250
2585,27.3,2021-12-17 16:50:17.171875
2586,26.67,2021-12-17 16:50:17.187500
2587,26.14,2021-12-17 16:50:17.203125
2588,25.55,2021-12-17 16:50:17.218750
2589,24.78,2021-12-17 16:50:17.234375
2590,23.9,2021-12-17 16:50:17.250000
2591,23.13,2021-12-17 16:50:17.265625
2592,22.84,2021-12-17 16:50:17.281250
2593,23.28,2021-12-17 16:50:17.296875
2594,24.47,2021-12-17 16:50:17.312500
2595,26.04,2021-12-17 16:50:17.328125
2596,27.43,2021-12-17 16:50:17.343750
2597,28.1,2021-12-17 16:50:17.359375
2598,27.72,2021-12-17 16:50:17.375000
2599,26.33,2021-12-17 16:50:17.390625
2600,24.24,2021-12-17 16:50:17.406250
2601,21.8,2021-12-17 16:50:17.421875
2602,19.26,2021-12-17 16:50:17.437500
2603,16.67,2021-12-17 16:50:17.453125
2604,13.99,2021-12-17 16:50:17.468750
2605,11.22,2021-12-17 16:50:17.484375
2606,8.4,2021-12-17 16:50:17.500000
2607,5.66,2021-12-17 16:50:17.515625
2608,2.99,2021-12-17 16:50:17.531250
2609,0.22,2021-12-17 16:50:17.546875
2610,-2.89,2021-12-17 16:50:17.562500
2611,-6.58,2021-12-17 16:50:17.578125
2612,-10.83,2021-12-17 16:50:17.593750
2613,-15.25,2021-12-17 16:50:17.609375
2614,-19.15,2021-12-17 16:50:17.625000
2615,-21.76,2021-12-17 16:50:17.640625
2616,-22.47,2021-12-17 16:50:17.656250
2617,-21.09,2021-12-17 16:50:17.671875
2618,-17.85,2021-12-17 16:50:17.687500
2619,-13.3,2021-12-17 16:50:17.703125
2620,-8.08,2021-12-17 16:50:17.718750
2621,-2.73,2021-12-17 16:50:17.734375
2622,2.51,2021-12-17 16:50:17.750000
2623,7.53,2021-12-17 16:50:17.765625
2624,12.26,2021-12-17 16:50:17.781250
2625,16.55,2021-12-17 16:50:17.796875
2626,20.09,2021-12-17 16:50:17.812500
2627,22.48,2021-12-17 16:50:17.828125
2628,23.36,2021-12-17 16:50:17.843750
2629,22.49,2021-12-17 16:50:17.859375
2630,19.91,2021-12-17 16:50:17.875000
2631,15.92,2021-12-17 16:50:17.890625
2632,11.02,2021-12-17 16:50:17.906250
2633,5.87,2021-12-17 16:50:17.921875
2634,1.1,2021-12-17 16:50:17.937500
2635,-2.73,2021-12-17 16:50:17.953125
2636,-5.26,2021-12-17 16:50:17.968750
2637,-6.3,2021-12-17 16:50:17.984375
2638,-5.93,2021-12-17 16:50:18.000000
2639,-4.38,2021-12-17 16:50:18.015625
2640,-2.04,2021-12-17 16:50:18.031250
2641,0.57,2021-12-17 16:50:18.046875
2642,2.95,2021-12-17 16:50:18.062500
2643,4.67,2021-12-17 16:50:18.078125
2644,5.43,2021-12-17 16:50:18.093750
2645,5.11,2021-12-17 16:50:18.109375
2646,3.78,2021-12-17 16:50:18.125000
2647,1.63,2021-12-17 16:50:18.140625
2648,-1.13,2021-12-17 16:50:18.156250
2649,-4.27,2021-12-17 16:50:18.171875
2650,-7.63,2021-12-17 16:50:18.187500
2651,-11.08,2021-12-17 16:50:18.203125
2652,-14.49,2021-12-17 16:50:18.218750
2653,-17.63,2021-12-17 16:50:18.234375
2654,-20.22,2021-12-17 16:50:18.250000
2655,-21.92,2021-12-17 16:50:18.265625
2656,-22.43,2021-12-17 16:50:18.281250
2657,-21.66,2021-12-17 16:50:18.296875
2658,-19.81,2021-12-17 16:50:18.312500
2659,-17.35,2021-12-17 16:50:18.328125
2660,-14.88,2021-12-17 16:50:18.343750
2661,-12.88,2021-12-17 16:50:18.359375
2662,-11.48,2021-12-17 16:50:18.375000
2663,-10.36,2021-12-17 16:50:18.390625
2664,-8.94,2021-12-17 16:50:18.406250
2665,-6.63,2021-12-17 16:50:18.421875
2666,-3.08,2021-12-17 16:50:18.437500
2667,1.63,2021-12-17 16:50:18.453125
2668,7.09,2021-12-17 16:50:18.468750
2669,12.69,2021-12-17 16:50:18.484375
2670,17.89,2021-12-17 16:50:18.500000
2671,22.3,2021-12-17 16:50:18.515625
2672,25.79,2021-12-17 16:50:18.531250
2673,28.37,2021-12-17 16:50:18.546875
2674,30.19,2021-12-17 16:50:18.562500
2675,31.43,2021-12-17 16:50:18.578125
2676,32.26,2021-12-17 16:50:18.593750
2677,32.82,2021-12-17 16:50:18.609375
2678,33.17,2021-12-17 16:50:18.625000
2679,33.31,2021-12-17 16:50:18.640625
2680,33.29,2021-12-17 16:50:18.656250
2681,33.11,2021-12-17 16:50:18.671875
2682,32.85,2021-12-17 16:50:18.687500
2683,32.53,2021-12-17 16:50:18.703125
2684,32.06,2021-12-17 16:50:18.718750
2685,31.3,2021-12-17 16:50:18.734375
2686,29.99,2021-12-17 16:50:18.750000
2687,27.93,2021-12-17 16:50:18.765625
2688,25.07,2021-12-17 16:50:18.781250
2689,21.56,2021-12-17 16:50:18.796875
2690,17.77,2021-12-17 16:50:18.812500
2691,14.18,2021-12-17 16:50:18.828125
2692,11.24,2021-12-17 16:50:18.843750
2693,9.19,2021-12-17 16:50:18.859375
2694,8.07,2021-12-17 16:50:18.875000
2695,7.66,2021-12-17 16:50:18.890625
2696,7.66,2021-12-17 16:50:18.906250
2697,7.78,2021-12-17 16:50:18.921875
2698,7.86,2021-12-17 16:50:18.937500
2699,7.88,2021-12-17 16:50:18.953125
2700,7.93,2021-12-17 16:50:18.968750
2701,8.03,2021-12-17 16:50:18.984375
2702,8.13,2021-12-17 16:50:19.000000
2703,8.05,2021-12-17 16:50:19.015625
2704,7.66,2021-12-17 16:50:19.031250
2705,6.88,2021-12-17 16:50:19.046875
2706,5.76,2021-12-17 16:50:19.062500
2707,4.44,2021-12-17 16:50:19.078125
2708,3.01,2021-12-17 16:50:19.093750
2709,1.49,2021-12-17 16:50:19.109375
2710,-0.17,2021-12-17 16:50:19.125000
2711,-1.93,2021-12-17 16:50:19.140625
2712,-3.62,2021-12-17 16:50:19.156250
2713,-4.91,2021-12-17 16:50:19.171875
2714,-5.41,2021-12-17 16:50:19.187500
2715,-4.84,2021-12-17 16:50:19.203125
2716,-3.19,2021-12-17 16:50:19.218750
2717,-0.66,2021-12-17 16:50:19.234375
2718,2.51,2021-12-17 16:50:19.250000
2719,6.07,2021-12-17 16:50:19.265625
2720,9.92,2021-12-17 16:50:19.281250
2721,13.99,2021-12-17 16:50:19.296875
2722,18.16,2021-12-17 16:50:19.312500
2723,22.19,2021-12-17 16:50:19.328125
2724,25.71,2021-12-17 16:50:19.343750
2725,28.42,2021-12-17 16:50:19.359375
2726,30.15,2021-12-17 16:50:19.375000
2727,30.93,2021-12-17 16:50:19.390625
2728,30.97,2021-12-17 16:50:19.406250
2729,30.5,2021-12-17 16:50:19.421875
2730,29.74,2021-12-17 16:50:19.437500
2731,28.77,2021-12-17 16:50:19.453125
2732,27.62,2021-12-17 16:50:19.468750
2733,26.27,2021-12-17 16:50:19.484375
2734,24.73,2021-12-17 16:50:19.500000
2735,23.03,2021-12-17 16:50:19.515625
2736,21.25,2021-12-17 16:50:19.531250
2737,19.48,2021-12-17 16:50:19.546875
2738,17.75,2021-12-17 16:50:19.562500
2739,16.06,2021-12-17 16:50:19.578125
2740,14.32,2021-12-17 16:50:19.593750
2741,12.42,2021-12-17 16:50:19.609375
2742,10.29,2021-12-17 16:50:19.625000
2743,7.95,2021-12-17 16:50:19.640625
2744,5.51,2021-12-17 16:50:19.656250
2745,3.14,2021-12-17 16:50:19.671875
2746,0.96,2021-12-17 16:50:19.687500
2747,-0.98,2021-12-17 16:50:19.703125
2748,-2.72,2021-12-17 16:50:19.718750
2749,-4.35,2021-12-17 16:50:19.734375
2750,-5.91,2021-12-17 16:50:19.750000
2751,-7.34,2021-12-17 16:50:19.765625
2752,-8.55,2021-12-17 16:50:19.781250
2753,-9.47,2021-12-17 16:50:19.796875
2754,-10.13,2021-12-17 16:50:19.812500
2755,-10.7,2021-12-17 16:50:19.828125
2756,-11.4,2021-12-17 16:50:19.843750
2757,-12.47,2021-12-17 16:50:19.859375
2758,-14.02,2021-12-17 16:50:19.875000
2759,-16.05,2021-12-17 16:50:19.890625
2760,-18.36,2021-12-17 16:50:19.906250
2761,-20.66,2021-12-17 16:50:19.921875
2762,-22.5,2021-12-17 16:50:19.937500
2763,-23.46,2021-12-17 16:50:19.953125
2764,-23.19,2021-12-17 16:50:19.968750
2765,-21.56,2021-12-17 16:50:19.984375
2766,-18.71,2021-12-17 16:50:20.000000
2767,-15.03,2021-12-17 16:50:20.015625
2768,-11.06,2021-12-17 16:50:20.031250
2769,-7.31,2021-12-17 16:50:20.046875
2770,-4.19,2021-12-17 16:50:20.062500
2771,-1.9,2021-12-17 16:50:20.078125
2772,-0.48,2021-12-17 16:50:20.093750
2773,0.12,2021-12-17 16:50:20.109375
2774,-0.02,2021-12-17 16:50:20.125000
2775,-0.74,2021-12-17 16:50:20.140625
2776,-1.9,2021-12-17 16:50:20.156250
2777,-3.31,2021-12-17 16:50:20.171875
2778,-4.82,2021-12-17 16:50:20.187500
2779,-6.32,2021-12-17 16:50:20.203125
2780,-7.79,2021-12-17 16:50:20.218750
2781,-9.18,2021-12-17 16:50:20.234375
2782,-10.38,2021-12-17 16:50:20.250000
2783,-11.27,2021-12-17 16:50:20.265625
2784,-11.66,2021-12-17 16:50:20.281250
2785,-11.47,2021-12-17 16:50:20.296875
2786,-10.71,2021-12-17 16:50:20.312500
2787,-9.55,2021-12-17 16:50:20.328125
2788,-8.26,2021-12-17 16:50:20.343750
2789,-7.14,2021-12-17 16:50:20.359375
2790,-6.46,2021-12-17 16:50:20.375000
2791,-6.48,2021-12-17 16:50:20.390625
2792,-7.31,2021-12-17 16:50:20.406250
2793,-8.97,2021-12-17 16:50:20.421875
2794,-11.28,2021-12-17 16:50:20.437500
2795,-13.9,2021-12-17 16:50:20.453125
2796,-16.43,2021-12-17 16:50:20.468750
2797,-18.49,2021-12-17 16:50:20.484375
2798,-19.98,2021-12-17 16:50:20.500000
2799,-21.09,2021-12-17 16:50:20.515625
2800,-22.21,2021-12-17 16:50:20.531250
2801,-23.74,2021-12-17 16:50:20.546875
2802,-25.91,2021-12-17 16:50:20.562500
2803,-28.67,2021-12-17 16:50:20.578125
2804,-31.67,2021-12-17 16:50:20.593750
2805,-34.49,2021-12-17 16:50:20.609375
2806,-36.8,2021-12-17 16:50:20.625000
2807,-38.4,2021-12-17 16:50:20.640625
2808,-39.26,2021-12-17 16:50:20.656250
2809,-39.38,2021-12-17 16:50:20.671875
2810,-38.67,2021-12-17 16:50:20.687500
2811,-36.97,2021-12-17 16:50:20.703125
2812,-34.09,2021-12-17 16:50:20.718750
2813,-30.02,2021-12-17 16:50:20.734375
2814,-24.92,2021-12-17 16:50:20.750000
2815,-19.23,2021-12-17 16:50:20.765625
2816,-13.53,2021-12-17 16:50:20.781250
2817,-8.35,2021-12-17 16:50:20.796875
2818,-4.18,2021-12-17 16:50:20.812500
2819,-1.21,2021-12-17 16:50:20.828125
2820,0.53,2021-12-17 16:50:20.843750
2821,1.29,2021-12-17 16:50:20.859375
2822,1.53,2021-12-17 16:50:20.875000
2823,1.81,2021-12-17 16:50:20.890625
2824,2.61,2021-12-17 16:50:20.906250
2825,4.2,2021-12-17 16:50:20.921875
2826,6.44,2021-12-17 16:50:20.937500
2827,8.84,2021-12-17 16:50:20.953125
2828,10.64,2021-12-17 16:50:20.968750
2829,11.12,2021-12-17 16:50:20.984375
2830,9.9,2021-12-17 16:50:21.000000
2831,7.11,2021-12-17 16:50:21.015625
2832,3.32,2021-12-17 16:50:21.031250
2833,-0.69,2021-12-17 16:50:21.046875
2834,-4.27,2021-12-17 16:50:21.062500
2835,-7.1,2021-12-17 16:50:21.078125
2836,-9.25,2021-12-17 16:50:21.093750
2837,-10.98,2021-12-17 16:50:21.109375
2838,-12.5,2021-12-17 16:50:21.125000
2839,-13.82,2021-12-17 16:50:21.140625
2840,-14.81,2021-12-17 16:50:21.156250
2841,-15.31,2021-12-17 16:50:21.171875
2842,-15.33,2021-12-17 16:50:21.187500
2843,-15.11,2021-12-17 16:50:21.203125
2844,-15.08,2021-12-17 16:50:21.218750
2845,-15.6,2021-12-17 16:50:21.234375
2846,-16.9,2021-12-17 16:50:21.250000
2847,-18.89,2021-12-17 16:50:21.265625
2848,-21.28,2021-12-17 16:50:21.281250
2849,-23.61,2021-12-17 16:50:21.296875
2850,-25.41,2021-12-17 16:50:21.312500
2851,-26.21,2021-12-17 16:50:21.328125
2852,-25.66,2021-12-17 16:50:21.343750
2853,-23.57,2021-12-17 16:50:21.359375
2854,-19.99,2021-12-17 16:50:21.375000
2855,-15.25,2021-12-17 16:50:21.390625
2856,-9.92,2021-12-17 16:50:21.406250
2857,-4.64,2021-12-17 16:50:21.421875
2858,0.03,2021-12-17 16:50:21.437500
2859,3.81,2021-12-17 16:50:21.453125
2860,6.76,2021-12-17 16:50:21.468750
2861,9.17,2021-12-17 16:50:21.484375
2862,11.35,2021-12-17 16:50:21.500000
2863,13.46,2021-12-17 16:50:21.515625
2864,15.41,2021-12-17 16:50:21.531250
2865,16.92,2021-12-17 16:50:21.546875
2866,17.66,2021-12-17 16:50:21.562500
2867,17.5,2021-12-17 16:50:21.578125
2868,16.56,2021-12-17 16:50:21.593750
2869,15.15,2021-12-17 16:50:21.609375
2870,13.64,2021-12-17 16:50:21.625000
2871,12.33,2021-12-17 16:50:21.640625
2872,11.31,2021-12-17 16:50:21.656250
2873,10.55,2021-12-17 16:50:21.671875
2874,9.96,2021-12-17 16:50:21.687500
2875,9.51,2021-12-17 16:50:21.703125
2876,9.22,2021-12-17 16:50:21.718750
2877,9.16,2021-12-17 16:50:21.734375
2878,9.39,2021-12-17 16:50:21.750000
2879,9.84,2021-12-17 16:50:21.765625
2880,10.4,2021-12-17 16:50:21.781250
2881,10.85,2021-12-17 16:50:21.796875
2882,11.03,2021-12-17 16:50:21.812500
2883,10.8,2021-12-17 16:50:21.828125
2884,10.11,2021-12-17 16:50:21.843750
2885,8.99,2021-12-17 16:50:21.859375
2886,7.53,2021-12-17 16:50:21.875000
2887,5.84,2021-12-17 16:50:21.890625
2888,4.01,2021-12-17 16:50:21.906250
2889,2.14,2021-12-17 16:50:21.921875
2890,0.32,2021-12-17 16:50:21.937500
2891,-1.32,2021-12-17 16:50:21.953125
2892,-2.64,2021-12-17 16:50:21.968750
2893,-3.55,2021-12-17 16:50:21.984375
2894,-4.12,2021-12-17 16:50:22.000000
2895,-4.54,2021-12-17 16:50:22.015625
2896,-5.08,2021-12-17 16:50:22.031250
2897,-5.88,2021-12-17 16:50:22.046875
2898,-6.87,2021-12-17 16:50:22.062500
2899,-7.68,2021-12-17 16:50:22.078125
2900,-7.79,2021-12-17 16:50:22.093750
2901,-6.81,2021-12-17 16:50:22.109375
2902,-4.65,2021-12-17 16:50:22.125000
2903,-1.7,2021-12-17 16:50:22.140625
2904,1.32,2021-12-17 16:50:22.156250
2905,3.74,2021-12-17 16:50:22.171875
2906,5.13,2021-12-17 16:50:22.187500
2907,5.56,2021-12-17 16:50:22.203125
2908,5.44,2021-12-17 16:50:22.218750
2909,5.32,2021-12-17 16:50:22.234375
2910,5.63,2021-12-17 16:50:22.250000
2911,6.46,2021-12-17 16:50:22.265625
2912,7.62,2021-12-17 16:50:22.281250
2913,8.8,2021-12-17 16:50:22.296875
2914,9.71,2021-12-17 16:50:22.312500
2915,10.21,2021-12-17 16:50:22.328125
2916,10.27,2021-12-17 16:50:22.343750
2917,9.88,2021-12-17 16:50:22.359375
2918,9.01,2021-12-17 16:50:22.375000
2919,7.5,2021-12-17 16:50:22.390625
2920,5.24,2021-12-17 16:50:22.406250
2921,2.23,2021-12-17 16:50:22.421875
2922,-1.29,2021-12-17 16:50:22.437500
2923,-4.88,2021-12-17 16:50:22.453125
2924,-7.99,2021-12-17 16:50:22.468750
2925,-10.21,2021-12-17 16:50:22.484375
2926,-11.44,2021-12-17 16:50:22.500000
2927,-11.9,2021-12-17 16:50:22.515625
2928,-12.08,2021-12-17 16:50:22.531250
2929,-12.53,2021-12-17 16:50:22.546875
2930,-13.68,2021-12-17 16:50:22.562500
2931,-15.71,2021-12-17 16:50:22.578125
2932,-18.53,2021-12-17 16:50:22.593750
2933,-21.89,2021-12-17 16:50:22.609375
2934,-25.43,2021-12-17 16:50:22.625000
2935,-28.85,2021-12-17 16:50:22.640625
2936,-31.89,2021-12-17 16:50:22.656250
2937,-34.48,2021-12-17 16:50:22.671875
2938,-36.65,2021-12-17 16:50:22.687500
2939,-38.57,2021-12-17 16:50:22.703125
2940,-40.45,2021-12-17 16:50:22.718750
2941,-42.44,2021-12-17 16:50:22.734375
2942,-44.46,2021-12-17 16:50:22.750000
2943,-46.19,2021-12-17 16:50:22.765625
2944,-47.08,2021-12-17 16:50:22.781250
2945,-46.55,2021-12-17 16:50:22.796875
2946,-44.22,2021-12-17 16:50:22.812500
2947,-40.06,2021-12-17 16:50:22.828125
2948,-34.42,2021-12-17 16:50:22.843750
2949,-27.92,2021-12-17 16:50:22.859375
2950,-21.16,2021-12-17 16:50:22.875000
2951,-14.58,2021-12-17 16:50:22.890625
2952,-8.4,2021-12-17 16:50:22.906250
2953,-2.72,2021-12-17 16:50:22.921875
2954,2.38,2021-12-17 16:50:22.937500
2955,6.64,2021-12-17 16:50:22.953125
2956,9.77,2021-12-17 16:50:22.968750
2957,11.56,2021-12-17 16:50:22.984375
2958,12.01,2021-12-17 16:50:23.000000
2959,11.48,2021-12-17 16:50:23.015625
2960,10.44,2021-12-17 16:50:23.031250
2961,9.33,2021-12-17 16:50:23.046875
2962,8.32,2021-12-17 16:50:23.062500
2963,7.3,2021-12-17 16:50:23.078125
2964,6.02,2021-12-17 16:50:23.093750
2965,4.24,2021-12-17 16:50:23.109375
2966,1.92,2021-12-17 16:50:23.125000
2967,-0.68,2021-12-17 16:50:23.140625
2968,-3.14,2021-12-17 16:50:23.156250
2969,-5.03,2021-12-17 16:50:23.171875
2970,-6.13,2021-12-17 16:50:23.187500
2971,-6.5,2021-12-17 16:50:23.203125
2972,-6.42,2021-12-17 16:50:23.218750
2973,-6.3,2021-12-17 16:50:23.234375
2974,-6.44,2021-12-17 16:50:23.250000
2975,-6.96,2021-12-17 16:50:23.265625
2976,-7.89,2021-12-17 16:50:23.281250
2977,-9.23,2021-12-17 16:50:23.296875
2978,-11.07,2021-12-17 16:50:23.312500
2979,-13.61,2021-12-17 16:50:23.328125
2980,-17.06,2021-12-17 16:50:23.343750
2981,-21.44,2021-12-17 16:50:23.359375
2982,-26.49,2021-12-17 16:50:23.375000
2983,-31.6,2021-12-17 16:50:23.390625
2984,-35.98,2021-12-17 16:50:23.406250
2985,-38.88,2021-12-17 16:50:23.421875
2986,-39.81,2021-12-17 16:50:23.437500
2987,-38.59,2021-12-17 16:50:23.453125
2988,-35.37,2021-12-17 16:50:23.468750
2989,-30.49,2021-12-17 16:50:23.484375
2990,-24.43,2021-12-17 16:50:23.500000
2991,-17.62,2021-12-17 16:50:23.515625
2992,-10.44,2021-12-17 16:50:23.531250
2993,-3.2,2021-12-17 16:50:23.546875
2994,3.84,2021-12-17 16:50:23.562500
2995,10.37,2021-12-17 16:50:23.578125
2996,16.12,2021-12-17 16:50:23.593750
2997,20.81,2021-12-17 16:50:23.609375
2998,24.24,2021-12-17 16:50:23.625000
2999,26.37,2021-12-17 16:50:23.640625
3000,27.33,2021-12-17 16:50:23.656250
3001,27.36,2021-12-17 16:50:23.671875
3002,26.79,2021-12-17 16:50:23.687500
3003,25.91,2021-12-17 16:50:23.703125
3004,24.94,2021-12-17 16:50:23.718750
3005,23.93,2021-12-17 16:50:23.734375
3006,22.84,2021-12-17 16:50:23.750000
3007,21.6,2021-12-17 16:50:23.765625
3008,20.16,2021-12-17 16:50:23.781250
3009,18.6,2021-12-17 16:50:23.796875
3010,17.18,2021-12-17 16:50:23.812500
3011,16.22,2021-12-17 16:50:23.828125
3012,16.06,2021-12-17 16:50:23.843750
3013,16.91,2021-12-17 16:50:23.859375
3014,18.73,2021-12-17 16:50:23.875000
3015,21.17,2021-12-17 16:50:23.890625
3016,23.64,2021-12-17 16:50:23.906250
3017,25.49,2021-12-17 16:50:23.921875
3018,26.15,2021-12-17 16:50:23.937500
3019,25.4,2021-12-17 16:50:23.953125
3020,23.37,2021-12-17 16:50:23.968750
3021,20.57,2021-12-17 16:50:23.984375
3022,17.7,2021-12-17 16:50:24.000000
3023,15.45,2021-12-17 16:50:24.015625
3024,14.21,2021-12-17 16:50:24.031250
3025,13.96,2021-12-17 16:50:24.046875
3026,14.32,2021-12-17 16:50:24.062500
3027,14.63,2021-12-17 16:50:24.078125
3028,14.3,2021-12-17 16:50:24.093750
3029,13.05,2021-12-17 16:50:24.109375
3030,10.97,2021-12-17 16:50:24.125000
3031,8.51,2021-12-17 16:50:24.140625
3032,6.29,2021-12-17 16:50:24.156250
3033,4.87,2021-12-17 16:50:24.171875
3034,4.59,2021-12-17 16:50:24.187500
3035,5.52,2021-12-17 16:50:24.203125
3036,7.43,2021-12-17 16:50:24.218750
3037,9.93,2021-12-17 16:50:24.234375
3038,12.47,2021-12-17 16:50:24.250000
3039,14.63,2021-12-17 16:50:24.265625
3040,16.06,2021-12-17 16:50:24.281250
3041,16.61,2021-12-17 16:50:24.296875
3042,16.35,2021-12-17 16:50:24.312500
3043,15.43,2021-12-17 16:50:24.328125
3044,14.03,2021-12-17 16:50:24.343750
3045,12.32,2021-12-17 16:50:24.359375
3046,10.47,2021-12-17 16:50:24.375000
3047,8.64,2021-12-17 16:50:24.390625
3048,7.03,2021-12-17 16:50:24.406250
3049,5.84,2021-12-17 16:50:24.421875
3050,5.11,2021-12-17 16:50:24.437500
3051,4.71,2021-12-17 16:50:24.453125
3052,4.29,2021-12-17 16:50:24.468750
3053,3.47,2021-12-17 16:50:24.484375
3054,1.97,2021-12-17 16:50:24.500000
3055,-0.21,2021-12-17 16:50:24.515625
3056,-2.83,2021-12-17 16:50:24.531250
3057,-5.49,2021-12-17 16:50:24.546875
3058,-7.85,2021-12-17 16:50:24.562500
3059,-9.72,2021-12-17 16:50:24.578125
3060,-11.19,2021-12-17 16:50:24.593750
3061,-12.52,2021-12-17 16:50:24.609375
3062,-13.99,2021-12-17 16:50:24.625000
3063,-15.76,2021-12-17 16:50:24.640625
3064,-17.82,2021-12-17 16:50:24.656250
3065,-20.05,2021-12-17 16:50:24.671875
3066,-22.29,2021-12-17 16:50:24.687500
3067,-24.49,2021-12-17 16:50:24.703125
3068,-26.73,2021-12-17 16:50:24.718750
3069,-29.1,2021-12-17 16:50:24.734375
3070,-31.57,2021-12-17 16:50:24.750000
3071,-33.88,2021-12-17 16:50:24.765625
3072,-35.56,2021-12-17 16:50:24.781250
3073,-36.07,2021-12-17 16:50:24.796875
3074,-35.02,2021-12-17 16:50:24.812500
3075,-32.37,2021-12-17 16:50:24.828125
3076,-28.43,2021-12-17 16:50:24.843750
3077,-23.69,2021-12-17 16:50:24.859375
3078,-18.67,2021-12-17 16:50:24.875000
3079,-13.71,2021-12-17 16:50:24.890625
3080,-8.95,2021-12-17 16:50:24.906250
3081,-4.41,2021-12-17 16:50:24.921875
3082,-0.15,2021-12-17 16:50:24.937500
3083,3.65,2021-12-17 16:50:24.953125
3084,6.79,2021-12-17 16:50:24.968750
3085,9.08,2021-12-17 16:50:24.984375
3086,10.55,2021-12-17 16:50:25.000000
3087,11.44,2021-12-17 16:50:25.015625
3088,12.09,2021-12-17 16:50:25.031250
3089,12.8,2021-12-17 16:50:25.046875
3090,13.66,2021-12-17 16:50:25.062500
3091,14.56,2021-12-17 16:50:25.078125
3092,15.24,2021-12-17 16:50:25.093750
3093,15.45,2021-12-17 16:50:25.109375
3094,15.1,2021-12-17 16:50:25.125000
3095,14.26,2021-12-17 16:50:25.140625
3096,13.12,2021-12-17 16:50:25.156250
3097,11.86,2021-12-17 16:50:25.171875
3098,10.62,2021-12-17 16:50:25.187500
3099,9.43,2021-12-17 16:50:25.203125
3100,8.3,2021-12-17 16:50:25.218750
3101,7.21,2021-12-17 16:50:25.234375
3102,6.13,2021-12-17 16:50:25.250000
3103,4.98,2021-12-17 16:50:25.265625
3104,3.62,2021-12-17 16:50:25.281250
3105,1.85,2021-12-17 16:50:25.296875
3106,-0.48,2021-12-17 16:50:25.312500
3107,-3.36,2021-12-17 16:50:25.328125
3108,-6.67,2021-12-17 16:50:25.343750
3109,-10.09,2021-12-17 16:50:25.359375
3110,-13.32,2021-12-17 16:50:25.375000
3111,-16.05,2021-12-17 16:50:25.390625
3112,-18.08,2021-12-17 16:50:25.406250
3113,-19.27,2021-12-17 16:50:25.421875
3114,-19.5,2021-12-17 16:50:25.437500
3115,-18.75,2021-12-17 16:50:25.453125
3116,-17.04,2021-12-17 16:50:25.468750
3117,-14.51,2021-12-17 16:50:25.484375
3118,-11.41,2021-12-17 16:50:25.500000
3119,-8.0,2021-12-17 16:50:25.515625
3120,-4.54,2021-12-17 16:50:25.531250
3121,-1.24,2021-12-17 16:50:25.546875
3122,1.74,2021-12-17 16:50:25.562500
3123,4.27,2021-12-17 16:50:25.578125
3124,6.24,2021-12-17 16:50:25.593750
3125,7.57,2021-12-17 16:50:25.609375
3126,8.23,2021-12-17 16:50:25.625000
3127,8.3,2021-12-17 16:50:25.640625
3128,7.91,2021-12-17 16:50:25.656250
3129,7.26,2021-12-17 16:50:25.671875
3130,6.53,2021-12-17 16:50:25.687500
3131,5.88,2021-12-17 16:50:25.703125
3132,5.38,2021-12-17 16:50:25.718750
3133,5.07,2021-12-17 16:50:25.734375
3134,4.95,2021-12-17 16:50:25.750000
3135,5.02,2021-12-17 16:50:25.765625
3136,5.29,2021-12-17 16:50:25.781250
3137,5.71,2021-12-17 16:50:25.796875
3138,6.24,2021-12-17 16:50:25.812500
3139,6.75,2021-12-17 16:50:25.828125
3140,7.05,2021-12-17 16:50:25.843750
3141,6.97,2021-12-17 16:50:25.859375
3142,6.42,2021-12-17 16:50:25.875000
3143,5.46,2021-12-17 16:50:25.890625
3144,4.3,2021-12-17 16:50:25.906250
3145,3.15,2021-12-17 16:50:25.921875
3146,2.16,2021-12-17 16:50:25.937500
3147,1.28,2021-12-17 16:50:25.953125
3148,0.27,2021-12-17 16:50:25.968750
3149,-1.17,2021-12-17 16:50:25.984375
3150,-3.26,2021-12-17 16:50:26.000000
3151,-5.97,2021-12-17 16:50:26.015625
3152,-9.02,2021-12-17 16:50:26.031250
3153,-11.88,2021-12-17 16:50:26.046875
3154,-13.97,2021-12-17 16:50:26.062500
3155,-14.78,2021-12-17 16:50:26.078125
3156,-13.98,2021-12-17 16:50:26.093750
3157,-11.5,2021-12-17 16:50:26.109375
3158,-7.49,2021-12-17 16:50:26.125000
3159,-2.29,2021-12-17 16:50:26.140625
3160,3.65,2021-12-17 16:50:26.156250
3161,9.84,2021-12-17 16:50:26.171875
3162,15.86,2021-12-17 16:50:26.187500
3163,21.36,2021-12-17 16:50:26.203125
3164,26.13,2021-12-17 16:50:26.218750
3165,30.04,2021-12-17 16:50:26.234375
3166,33.07,2021-12-17 16:50:26.250000
3167,35.24,2021-12-17 16:50:26.265625
3168,36.61,2021-12-17 16:50:26.281250
3169,37.32,2021-12-17 16:50:26.296875
3170,37.54,2021-12-17 16:50:26.312500
3171,37.45,2021-12-17 16:50:26.328125
3172,37.17,2021-12-17 16:50:26.343750
3173,36.75,2021-12-17 16:50:26.359375
3174,36.11,2021-12-17 16:50:26.375000
3175,35.14,2021-12-17 16:50:26.390625
