,BVP,time
0,39.1,2022-08-17 14:23:43.843750
1,26.32,2022-08-17 14:23:43.859375
2,11.22,2022-08-17 14:23:43.875000
3,-4.41,2022-08-17 14:23:43.890625
4,-17.58,2022-08-17 14:23:43.906250
5,-24.93,2022-08-17 14:23:43.921875
6,-24.1,2022-08-17 14:23:43.937500
7,-15.29,2022-08-17 14:23:43.953125
8,-1.75,2022-08-17 14:23:43.968750
9,11.3,2022-08-17 14:23:43.984375
10,18.88,2022-08-17 14:23:44.000000
11,18.48,2022-08-17 14:23:44.015625
12,10.98,2022-08-17 14:23:44.031250
13,-0.27,2022-08-17 14:23:44.046875
14,-11.42,2022-08-17 14:23:44.062500
15,-19.86,2022-08-17 14:23:44.078125
16,-24.68,2022-08-17 14:23:44.093750
17,-25.97,2022-08-17 14:23:44.109375
18,-23.96,2022-08-17 14:23:44.125000
19,-18.83,2022-08-17 14:23:44.140625
20,-11.71,2022-08-17 14:23:44.156250
21,-5.62,2022-08-17 14:23:44.171875
22,-5.33,2022-08-17 14:23:44.187500
23,-15.36,2022-08-17 14:23:44.203125
24,-37.2,2022-08-17 14:23:44.218750
25,-67.35,2022-08-17 14:23:44.234375
26,-97.89,2022-08-17 14:23:44.250000
27,-119.46,2022-08-17 14:23:44.265625
28,-125.38,2022-08-17 14:23:44.281250
29,-114.41,2022-08-17 14:23:44.296875
30,-90.99,2022-08-17 14:23:44.312500
31,-62.91,2022-08-17 14:23:44.328125
32,-37.74,2022-08-17 14:23:44.343750
33,-20.21,2022-08-17 14:23:44.359375
34,-11.46,2022-08-17 14:23:44.375000
35,-10.11,2022-08-17 14:23:44.390625
36,-13.97,2022-08-17 14:23:44.406250
37,-21.3,2022-08-17 14:23:44.421875
38,-30.94,2022-08-17 14:23:44.437500
39,-41.66,2022-08-17 14:23:44.453125
40,-51.6,2022-08-17 14:23:44.468750
41,-58.1,2022-08-17 14:23:44.484375
42,-58.6,2022-08-17 14:23:44.500000
43,-51.65,2022-08-17 14:23:44.515625
44,-37.73,2022-08-17 14:23:44.531250
45,-19.33,2022-08-17 14:23:44.546875
46,-0.17,2022-08-17 14:23:44.562500
47,16.06,2022-08-17 14:23:44.578125
48,27.09,2022-08-17 14:23:44.593750
49,32.67,2022-08-17 14:23:44.609375
50,34.32,2022-08-17 14:23:44.625000
51,34.23,2022-08-17 14:23:44.640625
52,33.99,2022-08-17 14:23:44.656250
53,33.89,2022-08-17 14:23:44.671875
54,32.91,2022-08-17 14:23:44.687500
55,29.76,2022-08-17 14:23:44.703125
56,24.05,2022-08-17 14:23:44.718750
57,17.06,2022-08-17 14:23:44.734375
58,11.37,2022-08-17 14:23:44.750000
59,9.73,2022-08-17 14:23:44.765625
60,13.65,2022-08-17 14:23:44.781250
61,22.58,2022-08-17 14:23:44.796875
62,33.96,2022-08-17 14:23:44.812500
63,44.23,2022-08-17 14:23:44.828125
64,50.2,2022-08-17 14:23:44.843750
65,50.14,2022-08-17 14:23:44.859375
66,44.28,2022-08-17 14:23:44.875000
67,34.41,2022-08-17 14:23:44.890625
68,22.93,2022-08-17 14:23:44.906250
69,12.21,2022-08-17 14:23:44.921875
70,4.01,2022-08-17 14:23:44.937500
71,-1.02,2022-08-17 14:23:44.953125
72,-3.4,2022-08-17 14:23:44.968750
73,-4.29,2022-08-17 14:23:44.984375
74,-4.88,2022-08-17 14:23:45.000000
75,-5.97,2022-08-17 14:23:45.015625
76,-7.94,2022-08-17 14:23:45.031250
77,-11.31,2022-08-17 14:23:45.046875
78,-16.44,2022-08-17 14:23:45.062500
79,-23.36,2022-08-17 14:23:45.078125
80,-31.59,2022-08-17 14:23:45.093750
81,-39.94,2022-08-17 14:23:45.109375
82,-46.56,2022-08-17 14:23:45.125000
83,-49.48,2022-08-17 14:23:45.140625
84,-47.29,2022-08-17 14:23:45.156250
85,-39.82,2022-08-17 14:23:45.171875
86,-28.88,2022-08-17 14:23:45.187500
87,-16.58,2022-08-17 14:23:45.203125
88,-4.37,2022-08-17 14:23:45.218750
89,7.37,2022-08-17 14:23:45.234375
90,19.0,2022-08-17 14:23:45.250000
91,31.03,2022-08-17 14:23:45.265625
92,43.72,2022-08-17 14:23:45.281250
93,56.76,2022-08-17 14:23:45.296875
94,69.12,2022-08-17 14:23:45.312500
95,77.49,2022-08-17 14:23:45.328125
96,79.86,2022-08-17 14:23:45.343750
97,76.6,2022-08-17 14:23:45.359375
98,69.85,2022-08-17 14:23:45.375000
99,61.92,2022-08-17 14:23:45.390625
100,54.36,2022-08-17 14:23:45.406250
101,47.83,2022-08-17 14:23:45.421875
102,42.26,2022-08-17 14:23:45.437500
103,37.18,2022-08-17 14:23:45.453125
104,28.0,2022-08-17 14:23:45.468750
105,12.24,2022-08-17 14:23:45.484375
106,-9.35,2022-08-17 14:23:45.500000
107,-34.76,2022-08-17 14:23:45.515625
108,-63.38,2022-08-17 14:23:45.531250
109,-96.11,2022-08-17 14:23:45.546875
110,-133.64,2022-08-17 14:23:45.562500
111,-175.13,2022-08-17 14:23:45.578125
112,-217.81,2022-08-17 14:23:45.593750
113,-263.98,2022-08-17 14:23:45.609375
114,-312.81,2022-08-17 14:23:45.625000
115,-359.74,2022-08-17 14:23:45.640625
116,-399.84,2022-08-17 14:23:45.656250
117,-431.6,2022-08-17 14:23:45.671875
118,-456.56,2022-08-17 14:23:45.687500
119,-476.43,2022-08-17 14:23:45.703125
120,-490.82,2022-08-17 14:23:45.718750
121,-497.17,2022-08-17 14:23:45.734375
122,-499.93,2022-08-17 14:23:45.750000
123,-500.43,2022-08-17 14:23:45.765625
124,-495.71,2022-08-17 14:23:45.781250
125,-482.18,2022-08-17 14:23:45.796875
126,-460.07,2022-08-17 14:23:45.812500
127,-432.99,2022-08-17 14:23:45.828125
128,-405.18,2022-08-17 14:23:45.843750
129,-379.7,2022-08-17 14:23:45.859375
130,-308.79,2022-08-17 14:23:45.875000
131,-181.2,2022-08-17 14:23:45.890625
132,-25.22,2022-08-17 14:23:45.906250
133,117.4,2022-08-17 14:23:45.921875
134,224.89,2022-08-17 14:23:45.937500
135,297.72,2022-08-17 14:23:45.953125
136,345.05,2022-08-17 14:23:45.968750
137,374.75,2022-08-17 14:23:45.984375
138,391.75,2022-08-17 14:23:46.000000
139,399.35,2022-08-17 14:23:46.015625
140,393.08,2022-08-17 14:23:46.031250
141,373.26,2022-08-17 14:23:46.046875
142,346.82,2022-08-17 14:23:46.062500
143,322.14,2022-08-17 14:23:46.078125
144,303.39,2022-08-17 14:23:46.093750
145,290.77,2022-08-17 14:23:46.109375
146,281.46,2022-08-17 14:23:46.125000
147,272.85,2022-08-17 14:23:46.140625
148,264.04,2022-08-17 14:23:46.156250
149,249.54,2022-08-17 14:23:46.171875
150,227.7,2022-08-17 14:23:46.187500
151,201.49,2022-08-17 14:23:46.203125
152,174.79,2022-08-17 14:23:46.218750
153,148.9,2022-08-17 14:23:46.234375
154,123.56,2022-08-17 14:23:46.250000
155,97.27,2022-08-17 14:23:46.265625
156,69.96,2022-08-17 14:23:46.281250
157,44.68,2022-08-17 14:23:46.296875
158,23.21,2022-08-17 14:23:46.312500
159,9.51,2022-08-17 14:23:46.328125
160,11.4,2022-08-17 14:23:46.343750
161,33.46,2022-08-17 14:23:46.359375
162,74.86,2022-08-17 14:23:46.375000
163,130.81,2022-08-17 14:23:46.390625
164,191.86,2022-08-17 14:23:46.406250
165,246.64,2022-08-17 14:23:46.421875
166,285.0,2022-08-17 14:23:46.437500
167,298.13,2022-08-17 14:23:46.453125
168,282.37,2022-08-17 14:23:46.468750
169,239.99,2022-08-17 14:23:46.484375
170,177.98,2022-08-17 14:23:46.500000
171,99.31,2022-08-17 14:23:46.515625
172,19.79,2022-08-17 14:23:46.531250
173,-41.72,2022-08-17 14:23:46.546875
174,-75.75,2022-08-17 14:23:46.562500
175,-85.68,2022-08-17 14:23:46.578125
176,-81.63,2022-08-17 14:23:46.593750
177,-72.19,2022-08-17 14:23:46.609375
178,-61.65,2022-08-17 14:23:46.625000
179,-51.49,2022-08-17 14:23:46.640625
180,-41.97,2022-08-17 14:23:46.656250
181,-32.48,2022-08-17 14:23:46.671875
182,-24.43,2022-08-17 14:23:46.687500
183,-19.91,2022-08-17 14:23:46.703125
184,-19.61,2022-08-17 14:23:46.718750
185,-22.05,2022-08-17 14:23:46.734375
186,-24.64,2022-08-17 14:23:46.750000
187,-25.31,2022-08-17 14:23:46.765625
188,-23.51,2022-08-17 14:23:46.781250
189,-19.74,2022-08-17 14:23:46.796875
190,-14.32,2022-08-17 14:23:46.812500
191,-8.88,2022-08-17 14:23:46.828125
192,-5.48,2022-08-17 14:23:46.843750
193,-4.95,2022-08-17 14:23:46.859375
194,-6.4,2022-08-17 14:23:46.875000
195,-8.08,2022-08-17 14:23:46.890625
196,-8.5,2022-08-17 14:23:46.906250
197,-7.16,2022-08-17 14:23:46.921875
198,-4.33,2022-08-17 14:23:46.937500
199,-0.25,2022-08-17 14:23:46.953125
200,3.97,2022-08-17 14:23:46.968750
201,6.98,2022-08-17 14:23:46.984375
202,8.16,2022-08-17 14:23:47.000000
203,7.96,2022-08-17 14:23:47.015625
204,7.46,2022-08-17 14:23:47.031250
205,7.64,2022-08-17 14:23:47.046875
206,8.87,2022-08-17 14:23:47.062500
207,11.13,2022-08-17 14:23:47.078125
208,14.36,2022-08-17 14:23:47.093750
209,18.18,2022-08-17 14:23:47.109375
210,22.11,2022-08-17 14:23:47.125000
211,26.04,2022-08-17 14:23:47.140625
212,30.3,2022-08-17 14:23:47.156250
213,35.36,2022-08-17 14:23:47.171875
214,41.38,2022-08-17 14:23:47.187500
215,48.0,2022-08-17 14:23:47.203125
216,54.53,2022-08-17 14:23:47.218750
217,60.07,2022-08-17 14:23:47.234375
218,63.66,2022-08-17 14:23:47.250000
219,64.44,2022-08-17 14:23:47.265625
220,61.94,2022-08-17 14:23:47.281250
221,56.15,2022-08-17 14:23:47.296875
222,47.41,2022-08-17 14:23:47.312500
223,36.18,2022-08-17 14:23:47.328125
224,23.03,2022-08-17 14:23:47.343750
225,8.86,2022-08-17 14:23:47.359375
226,-5.59,2022-08-17 14:23:47.375000
227,-19.45,2022-08-17 14:23:47.390625
228,-31.74,2022-08-17 14:23:47.406250
229,-41.59,2022-08-17 14:23:47.421875
230,-48.46,2022-08-17 14:23:47.437500
231,-52.29,2022-08-17 14:23:47.453125
232,-53.63,2022-08-17 14:23:47.468750
233,-53.44,2022-08-17 14:23:47.484375
234,-52.66,2022-08-17 14:23:47.500000
235,-52.24,2022-08-17 14:23:47.515625
236,-52.49,2022-08-17 14:23:47.531250
237,-53.14,2022-08-17 14:23:47.546875
238,-53.51,2022-08-17 14:23:47.562500
239,-52.96,2022-08-17 14:23:47.578125
240,-51.2,2022-08-17 14:23:47.593750
241,-48.65,2022-08-17 14:23:47.609375
242,-46.21,2022-08-17 14:23:47.625000
243,-44.85,2022-08-17 14:23:47.640625
244,-45.32,2022-08-17 14:23:47.656250
245,-47.56,2022-08-17 14:23:47.671875
246,-50.71,2022-08-17 14:23:47.687500
247,-53.48,2022-08-17 14:23:47.703125
248,-54.9,2022-08-17 14:23:47.718750
249,-54.48,2022-08-17 14:23:47.734375
250,-52.68,2022-08-17 14:23:47.750000
251,-50.75,2022-08-17 14:23:47.765625
252,-49.5,2022-08-17 14:23:47.781250
253,-49.81,2022-08-17 14:23:47.796875
254,-52.22,2022-08-17 14:23:47.812500
255,-57.02,2022-08-17 14:23:47.828125
256,-63.99,2022-08-17 14:23:47.843750
257,-71.82,2022-08-17 14:23:47.859375
258,-77.66,2022-08-17 14:23:47.875000
259,-77.62,2022-08-17 14:23:47.890625
260,-68.18,2022-08-17 14:23:47.906250
261,-48.07,2022-08-17 14:23:47.921875
262,-19.68,2022-08-17 14:23:47.937500
263,11.52,2022-08-17 14:23:47.953125
264,38.91,2022-08-17 14:23:47.968750
265,57.51,2022-08-17 14:23:47.984375
266,65.82,2022-08-17 14:23:48.000000
267,65.92,2022-08-17 14:23:48.015625
268,61.69,2022-08-17 14:23:48.031250
269,56.67,2022-08-17 14:23:48.046875
270,52.49,2022-08-17 14:23:48.062500
271,48.9,2022-08-17 14:23:48.078125
272,44.97,2022-08-17 14:23:48.093750
273,40.36,2022-08-17 14:23:48.109375
274,35.76,2022-08-17 14:23:48.125000
275,32.41,2022-08-17 14:23:48.140625
276,31.1,2022-08-17 14:23:48.156250
277,31.55,2022-08-17 14:23:48.171875
278,32.58,2022-08-17 14:23:48.187500
279,32.84,2022-08-17 14:23:48.203125
280,31.26,2022-08-17 14:23:48.218750
281,27.89,2022-08-17 14:23:48.234375
282,23.6,2022-08-17 14:23:48.250000
283,19.65,2022-08-17 14:23:48.265625
284,17.08,2022-08-17 14:23:48.281250
285,16.2,2022-08-17 14:23:48.296875
286,16.61,2022-08-17 14:23:48.312500
287,17.36,2022-08-17 14:23:48.328125
288,17.52,2022-08-17 14:23:48.343750
289,16.53,2022-08-17 14:23:48.359375
290,14.5,2022-08-17 14:23:48.375000
291,11.98,2022-08-17 14:23:48.390625
292,9.74,2022-08-17 14:23:48.406250
293,8.32,2022-08-17 14:23:48.421875
294,7.85,2022-08-17 14:23:48.437500
295,8.03,2022-08-17 14:23:48.453125
296,8.37,2022-08-17 14:23:48.468750
297,8.45,2022-08-17 14:23:48.484375
298,8.08,2022-08-17 14:23:48.500000
299,7.4,2022-08-17 14:23:48.515625
300,6.7,2022-08-17 14:23:48.531250
301,6.22,2022-08-17 14:23:48.546875
302,6.01,2022-08-17 14:23:48.562500
303,5.93,2022-08-17 14:23:48.578125
304,5.78,2022-08-17 14:23:48.593750
305,5.48,2022-08-17 14:23:48.609375
306,5.17,2022-08-17 14:23:48.625000
307,5.12,2022-08-17 14:23:48.640625
308,5.67,2022-08-17 14:23:48.656250
309,6.88,2022-08-17 14:23:48.671875
310,8.5,2022-08-17 14:23:48.687500
311,9.97,2022-08-17 14:23:48.703125
312,10.71,2022-08-17 14:23:48.718750
313,10.42,2022-08-17 14:23:48.734375
314,9.39,2022-08-17 14:23:48.750000
315,8.4,2022-08-17 14:23:48.765625
316,8.47,2022-08-17 14:23:48.781250
317,10.32,2022-08-17 14:23:48.796875
318,13.96,2022-08-17 14:23:48.812500
319,18.48,2022-08-17 14:23:48.828125
320,22.4,2022-08-17 14:23:48.843750
321,24.37,2022-08-17 14:23:48.859375
322,23.79,2022-08-17 14:23:48.875000
323,21.37,2022-08-17 14:23:48.890625
324,18.83,2022-08-17 14:23:48.906250
325,18.24,2022-08-17 14:23:48.921875
326,20.95,2022-08-17 14:23:48.937500
327,26.92,2022-08-17 14:23:48.953125
328,34.48,2022-08-17 14:23:48.968750
329,41.08,2022-08-17 14:23:48.984375
330,44.62,2022-08-17 14:23:49.000000
331,44.25,2022-08-17 14:23:49.015625
332,41.03,2022-08-17 14:23:49.031250
333,37.35,2022-08-17 14:23:49.046875
334,35.78,2022-08-17 14:23:49.062500
335,37.87,2022-08-17 14:23:49.078125
336,43.89,2022-08-17 14:23:49.093750
337,52.88,2022-08-17 14:23:49.109375
338,63.24,2022-08-17 14:23:49.125000
339,72.81,2022-08-17 14:23:49.140625
340,78.81,2022-08-17 14:23:49.156250
341,77.75,2022-08-17 14:23:49.171875
342,66.19,2022-08-17 14:23:49.187500
343,42.57,2022-08-17 14:23:49.203125
344,9.21,2022-08-17 14:23:49.218750
345,-27.04,2022-08-17 14:23:49.234375
346,-56.72,2022-08-17 14:23:49.250000
347,-71.78,2022-08-17 14:23:49.265625
348,-69.64,2022-08-17 14:23:49.281250
349,-54.86,2022-08-17 14:23:49.296875
350,-37.06,2022-08-17 14:23:49.312500
351,-26.25,2022-08-17 14:23:49.328125
352,-28.04,2022-08-17 14:23:49.343750
353,-41.5,2022-08-17 14:23:49.359375
354,-60.45,2022-08-17 14:23:49.375000
355,-77.7,2022-08-17 14:23:49.390625
356,-88.82,2022-08-17 14:23:49.406250
357,-93.92,2022-08-17 14:23:49.421875
358,-96.57,2022-08-17 14:23:49.437500
359,-100.82,2022-08-17 14:23:49.453125
360,-108.34,2022-08-17 14:23:49.468750
361,-116.72,2022-08-17 14:23:49.484375
362,-120.7,2022-08-17 14:23:49.500000
363,-115.57,2022-08-17 14:23:49.515625
364,-100.64,2022-08-17 14:23:49.531250
365,-80.81,2022-08-17 14:23:49.546875
366,-64.32,2022-08-17 14:23:49.562500
367,-58.21,2022-08-17 14:23:49.578125
368,-63.36,2022-08-17 14:23:49.593750
369,-73.3,2022-08-17 14:23:49.609375
370,-77.77,2022-08-17 14:23:49.625000
371,-69.61,2022-08-17 14:23:49.640625
372,-50.02,2022-08-17 14:23:49.656250
373,-28.49,2022-08-17 14:23:49.671875
374,-17.32,2022-08-17 14:23:49.687500
375,-24.04,2022-08-17 14:23:49.703125
376,-47.18,2022-08-17 14:23:49.718750
377,-76.81,2022-08-17 14:23:49.734375
378,-101.0,2022-08-17 14:23:49.750000
379,-112.19,2022-08-17 14:23:49.765625
380,-109.48,2022-08-17 14:23:49.781250
381,-96.63,2022-08-17 14:23:49.796875
382,-77.29,2022-08-17 14:23:49.812500
383,-52.11,2022-08-17 14:23:49.828125
384,-19.5,2022-08-17 14:23:49.843750
385,21.04,2022-08-17 14:23:49.859375
386,66.17,2022-08-17 14:23:49.875000
387,108.3,2022-08-17 14:23:49.890625
388,139.24,2022-08-17 14:23:49.906250
389,154.31,2022-08-17 14:23:49.921875
390,154.52,2022-08-17 14:23:49.937500
391,145.63,2022-08-17 14:23:49.953125
392,134.07,2022-08-17 14:23:49.968750
393,123.44,2022-08-17 14:23:49.984375
394,112.56,2022-08-17 14:23:50.000000
395,97.14,2022-08-17 14:23:50.015625
396,72.62,2022-08-17 14:23:50.031250
397,37.48,2022-08-17 14:23:50.046875
398,-4.89,2022-08-17 14:23:50.062500
399,-46.97,2022-08-17 14:23:50.078125
400,-79.9,2022-08-17 14:23:50.093750
401,-97.06,2022-08-17 14:23:50.109375
402,-96.83,2022-08-17 14:23:50.125000
403,-82.84,2022-08-17 14:23:50.140625
404,-61.87,2022-08-17 14:23:50.156250
405,-40.54,2022-08-17 14:23:50.171875
406,-22.35,2022-08-17 14:23:50.187500
407,-7.13,2022-08-17 14:23:50.203125
408,7.33,2022-08-17 14:23:50.218750
409,22.63,2022-08-17 14:23:50.234375
410,37.85,2022-08-17 14:23:50.250000
411,49.28,2022-08-17 14:23:50.265625
412,52.77,2022-08-17 14:23:50.281250
413,46.53,2022-08-17 14:23:50.296875
414,32.67,2022-08-17 14:23:50.312500
415,16.66,2022-08-17 14:23:50.328125
416,4.63,2022-08-17 14:23:50.343750
417,0.23,2022-08-17 14:23:50.359375
418,3.16,2022-08-17 14:23:50.375000
419,10.36,2022-08-17 14:23:50.390625
420,18.68,2022-08-17 14:23:50.406250
421,26.83,2022-08-17 14:23:50.421875
422,34.97,2022-08-17 14:23:50.437500
423,43.23,2022-08-17 14:23:50.453125
424,51.09,2022-08-17 14:23:50.468750
425,57.21,2022-08-17 14:23:50.484375
426,60.15,2022-08-17 14:23:50.500000
427,59.38,2022-08-17 14:23:50.515625
428,54.82,2022-08-17 14:23:50.531250
429,45.62,2022-08-17 14:23:50.546875
430,29.36,2022-08-17 14:23:50.562500
431,2.68,2022-08-17 14:23:50.578125
432,-36.28,2022-08-17 14:23:50.593750
433,-84.82,2022-08-17 14:23:50.609375
434,-135.07,2022-08-17 14:23:50.625000
435,-176.18,2022-08-17 14:23:50.640625
436,-198.67,2022-08-17 14:23:50.656250
437,-198.64,2022-08-17 14:23:50.671875
438,-179.2,2022-08-17 14:23:50.687500
439,-148.55,2022-08-17 14:23:50.703125
440,-115.31,2022-08-17 14:23:50.718750
441,-86.13,2022-08-17 14:23:50.734375
442,-63.13,2022-08-17 14:23:50.750000
443,-44.96,2022-08-17 14:23:50.765625
444,-29.19,2022-08-17 14:23:50.781250
445,-14.27,2022-08-17 14:23:50.796875
446,-0.43,2022-08-17 14:23:50.812500
447,11.34,2022-08-17 14:23:50.828125
448,21.41,2022-08-17 14:23:50.843750
449,32.94,2022-08-17 14:23:50.859375
450,51.07,2022-08-17 14:23:50.875000
451,80.62,2022-08-17 14:23:50.890625
452,122.45,2022-08-17 14:23:50.906250
453,171.28,2022-08-17 14:23:50.921875
454,216.38,2022-08-17 14:23:50.937500
455,244.5,2022-08-17 14:23:50.953125
456,244.87,2022-08-17 14:23:50.968750
457,212.97,2022-08-17 14:23:50.984375
458,151.88,2022-08-17 14:23:51.000000
459,71.23,2022-08-17 14:23:51.015625
460,-15.16,2022-08-17 14:23:51.031250
461,-92.71,2022-08-17 14:23:51.046875
462,-149.15,2022-08-17 14:23:51.062500
463,-177.31,2022-08-17 14:23:51.078125
464,-176.92,2022-08-17 14:23:51.093750
465,-154.33,2022-08-17 14:23:51.109375
466,-120.25,2022-08-17 14:23:51.125000
467,-85.66,2022-08-17 14:23:51.140625
468,-58.02,2022-08-17 14:23:51.156250
469,-38.98,2022-08-17 14:23:51.171875
470,-25.14,2022-08-17 14:23:51.187500
471,-11.35,2022-08-17 14:23:51.203125
472,5.81,2022-08-17 14:23:51.218750
473,26.49,2022-08-17 14:23:51.234375
474,49.01,2022-08-17 14:23:51.250000
475,71.75,2022-08-17 14:23:51.265625
476,94.13,2022-08-17 14:23:51.281250
477,115.53,2022-08-17 14:23:51.296875
478,133.58,2022-08-17 14:23:51.312500
479,144.03,2022-08-17 14:23:51.328125
480,143.28,2022-08-17 14:23:51.343750
481,131.98,2022-08-17 14:23:51.359375
482,116.65,2022-08-17 14:23:51.375000
483,107.7,2022-08-17 14:23:51.390625
484,114.05,2022-08-17 14:23:51.406250
485,137.67,2022-08-17 14:23:51.421875
486,171.72,2022-08-17 14:23:51.437500
487,203.39,2022-08-17 14:23:51.453125
488,220.23,2022-08-17 14:23:51.468750
489,216.37,2022-08-17 14:23:51.484375
490,194.55,2022-08-17 14:23:51.500000
491,163.48,2022-08-17 14:23:51.515625
492,132.71,2022-08-17 14:23:51.531250
493,107.86,2022-08-17 14:23:51.546875
494,88.98,2022-08-17 14:23:51.562500
495,72.55,2022-08-17 14:23:51.578125
496,54.92,2022-08-17 14:23:51.593750
497,34.73,2022-08-17 14:23:51.609375
498,13.31,2022-08-17 14:23:51.625000
499,-6.72,2022-08-17 14:23:51.640625
500,-24.21,2022-08-17 14:23:51.656250
501,-41.1,2022-08-17 14:23:51.671875
502,-61.8,2022-08-17 14:23:51.687500
503,-90.46,2022-08-17 14:23:51.703125
504,-128.0,2022-08-17 14:23:51.718750
505,-170.93,2022-08-17 14:23:51.734375
506,-212.49,2022-08-17 14:23:51.750000
507,-245.72,2022-08-17 14:23:51.765625
508,-266.28,2022-08-17 14:23:51.781250
509,-273.71,2022-08-17 14:23:51.796875
510,-270.26,2022-08-17 14:23:51.812500
511,-258.7,2022-08-17 14:23:51.828125
512,-240.28,2022-08-17 14:23:51.843750
513,-214.05,2022-08-17 14:23:51.859375
514,-178.18,2022-08-17 14:23:51.875000
515,-131.94,2022-08-17 14:23:51.890625
516,-77.26,2022-08-17 14:23:51.906250
517,-18.78,2022-08-17 14:23:51.921875
518,37.39,2022-08-17 14:23:51.937500
519,85.49,2022-08-17 14:23:51.953125
520,121.47,2022-08-17 14:23:51.968750
521,144.14,2022-08-17 14:23:51.984375
522,155.05,2022-08-17 14:23:52.000000
523,157.66,2022-08-17 14:23:52.015625
524,155.99,2022-08-17 14:23:52.031250
525,153.31,2022-08-17 14:23:52.046875
526,150.92,2022-08-17 14:23:52.062500
527,148.19,2022-08-17 14:23:52.078125
528,143.59,2022-08-17 14:23:52.093750
529,135.95,2022-08-17 14:23:52.109375
530,125.41,2022-08-17 14:23:52.125000
531,113.85,2022-08-17 14:23:52.140625
532,104.01,2022-08-17 14:23:52.156250
533,98.26,2022-08-17 14:23:52.171875
534,97.13,2022-08-17 14:23:52.187500
535,98.81,2022-08-17 14:23:52.203125
536,100.01,2022-08-17 14:23:52.218750
537,97.83,2022-08-17 14:23:52.234375
538,91.74,2022-08-17 14:23:52.250000
539,84.06,2022-08-17 14:23:52.265625
540,78.64,2022-08-17 14:23:52.281250
541,77.82,2022-08-17 14:23:52.296875
542,80.42,2022-08-17 14:23:52.312500
543,81.59,2022-08-17 14:23:52.328125
544,75.11,2022-08-17 14:23:52.343750
545,56.92,2022-08-17 14:23:52.359375
546,27.39,2022-08-17 14:23:52.375000
547,-9.43,2022-08-17 14:23:52.390625
548,-49.02,2022-08-17 14:23:52.406250
549,-89.44,2022-08-17 14:23:52.421875
550,-132.21,2022-08-17 14:23:52.437500
551,-179.72,2022-08-17 14:23:52.453125
552,-231.32,2022-08-17 14:23:52.468750
553,-280.56,2022-08-17 14:23:52.484375
554,-316.18,2022-08-17 14:23:52.500000
555,-326.77,2022-08-17 14:23:52.515625
556,-306.88,2022-08-17 14:23:52.531250
557,-260.89,2022-08-17 14:23:52.546875
558,-202.11,2022-08-17 14:23:52.562500
559,-147.73,2022-08-17 14:23:52.578125
560,-112.15,2022-08-17 14:23:52.593750
561,-101.96,2022-08-17 14:23:52.609375
562,-114.8,2022-08-17 14:23:52.625000
563,-141.86,2022-08-17 14:23:52.640625
564,-172.13,2022-08-17 14:23:52.656250
565,-196.06,2022-08-17 14:23:52.671875
566,-207.73,2022-08-17 14:23:52.687500
567,-204.83,2022-08-17 14:23:52.703125
568,-187.72,2022-08-17 14:23:52.718750
569,-158.2,2022-08-17 14:23:52.734375
570,-118.99,2022-08-17 14:23:52.750000
571,-74.01,2022-08-17 14:23:52.765625
572,-28.32,2022-08-17 14:23:52.781250
573,12.48,2022-08-17 14:23:52.796875
574,43.95,2022-08-17 14:23:52.812500
575,64.62,2022-08-17 14:23:52.828125
576,76.8,2022-08-17 14:23:52.843750
577,85.24,2022-08-17 14:23:52.859375
578,94.39,2022-08-17 14:23:52.875000
579,105.62,2022-08-17 14:23:52.890625
580,116.01,2022-08-17 14:23:52.906250
581,120.14,2022-08-17 14:23:52.921875
582,113.4,2022-08-17 14:23:52.937500
583,95.24,2022-08-17 14:23:52.953125
584,69.97,2022-08-17 14:23:52.968750
585,44.81,2022-08-17 14:23:52.984375
586,26.54,2022-08-17 14:23:53.000000
587,18.86,2022-08-17 14:23:53.015625
588,21.75,2022-08-17 14:23:53.031250
589,32.56,2022-08-17 14:23:53.046875
590,47.99,2022-08-17 14:23:53.062500
591,65.35,2022-08-17 14:23:53.078125
592,82.97,2022-08-17 14:23:53.093750
593,99.82,2022-08-17 14:23:53.109375
594,115.1,2022-08-17 14:23:53.125000
595,127.73,2022-08-17 14:23:53.140625
596,135.75,2022-08-17 14:23:53.156250
597,136.16,2022-08-17 14:23:53.171875
598,125.27,2022-08-17 14:23:53.187500
599,100.08,2022-08-17 14:23:53.203125
600,60.2,2022-08-17 14:23:53.218750
601,9.3,2022-08-17 14:23:53.234375
602,-44.84,2022-08-17 14:23:53.250000
603,-92.21,2022-08-17 14:23:53.265625
604,-123.55,2022-08-17 14:23:53.281250
605,-133.2,2022-08-17 14:23:53.296875
606,-120.53,2022-08-17 14:23:53.312500
607,-89.56,2022-08-17 14:23:53.328125
608,-47.25,2022-08-17 14:23:53.343750
609,-1.29,2022-08-17 14:23:53.359375
610,41.84,2022-08-17 14:23:53.375000
611,78.11,2022-08-17 14:23:53.390625
612,106.28,2022-08-17 14:23:53.406250
613,127.4,2022-08-17 14:23:53.421875
614,143.55,2022-08-17 14:23:53.437500
615,156.15,2022-08-17 14:23:53.453125
616,164.66,2022-08-17 14:23:53.468750
617,166.36,2022-08-17 14:23:53.484375
618,157.53,2022-08-17 14:23:53.500000
619,135.48,2022-08-17 14:23:53.515625
620,100.36,2022-08-17 14:23:53.531250
621,55.63,2022-08-17 14:23:53.546875
622,7.52,2022-08-17 14:23:53.562500
623,-36.8,2022-08-17 14:23:53.578125
624,-71.12,2022-08-17 14:23:53.593750
625,-91.76,2022-08-17 14:23:53.609375
626,-98.21,2022-08-17 14:23:53.625000
627,-93.29,2022-08-17 14:23:53.640625
628,-82.59,2022-08-17 14:23:53.656250
629,-73.06,2022-08-17 14:23:53.671875
630,-71.36,2022-08-17 14:23:53.687500
631,-81.25,2022-08-17 14:23:53.703125
632,-101.87,2022-08-17 14:23:53.718750
633,-127.17,2022-08-17 14:23:53.734375
634,-147.97,2022-08-17 14:23:53.750000
635,-155.21,2022-08-17 14:23:53.765625
636,-143.1,2022-08-17 14:23:53.781250
637,-111.1,2022-08-17 14:23:53.796875
638,-64.17,2022-08-17 14:23:53.812500
639,-11.98,2022-08-17 14:23:53.828125
640,33.54,2022-08-17 14:23:53.843750
641,61.25,2022-08-17 14:23:53.859375
642,64.58,2022-08-17 14:23:53.875000
643,44.22,2022-08-17 14:23:53.890625
644,9.0,2022-08-17 14:23:53.906250
645,-26.24,2022-08-17 14:23:53.921875
646,-45.74,2022-08-17 14:23:53.937500
647,-39.0,2022-08-17 14:23:53.953125
648,-5.39,2022-08-17 14:23:53.968750
649,45.56,2022-08-17 14:23:53.984375
650,98.11,2022-08-17 14:23:54.000000
651,137.32,2022-08-17 14:23:54.015625
652,154.44,2022-08-17 14:23:54.031250
653,148.42,2022-08-17 14:23:54.046875
654,124.19,2022-08-17 14:23:54.062500
655,89.29,2022-08-17 14:23:54.078125
656,50.92,2022-08-17 14:23:54.093750
657,15.21,2022-08-17 14:23:54.109375
658,-12.22,2022-08-17 14:23:54.125000
659,-26.56,2022-08-17 14:23:54.140625
660,-24.44,2022-08-17 14:23:54.156250
661,-5.58,2022-08-17 14:23:54.171875
662,26.08,2022-08-17 14:23:54.187500
663,63.66,2022-08-17 14:23:54.203125
664,100.09,2022-08-17 14:23:54.218750
665,130.49,2022-08-17 14:23:54.234375
666,153.29,2022-08-17 14:23:54.250000
667,169.34,2022-08-17 14:23:54.265625
668,179.48,2022-08-17 14:23:54.281250
669,183.96,2022-08-17 14:23:54.296875
670,182.72,2022-08-17 14:23:54.312500
671,176.64,2022-08-17 14:23:54.328125
672,166.46,2022-08-17 14:23:54.343750
673,155.43,2022-08-17 14:23:54.359375
674,147.37,2022-08-17 14:23:54.375000
675,144.14,2022-08-17 14:23:54.390625
676,147.04,2022-08-17 14:23:54.406250
677,152.33,2022-08-17 14:23:54.421875
678,155.24,2022-08-17 14:23:54.437500
679,152.79,2022-08-17 14:23:54.453125
680,142.76,2022-08-17 14:23:54.468750
681,124.94,2022-08-17 14:23:54.484375
682,99.71,2022-08-17 14:23:54.500000
683,66.62,2022-08-17 14:23:54.515625
684,24.73,2022-08-17 14:23:54.531250
685,-26.23,2022-08-17 14:23:54.546875
686,-85.03,2022-08-17 14:23:54.562500
687,-147.74,2022-08-17 14:23:54.578125
688,-208.68,2022-08-17 14:23:54.593750
689,-262.0,2022-08-17 14:23:54.609375
690,-303.19,2022-08-17 14:23:54.625000
691,-330.13,2022-08-17 14:23:54.640625
692,-343.63,2022-08-17 14:23:54.656250
693,-346.92,2022-08-17 14:23:54.671875
694,-344.77,2022-08-17 14:23:54.687500
695,-342.94,2022-08-17 14:23:54.703125
696,-346.46,2022-08-17 14:23:54.718750
697,-358.48,2022-08-17 14:23:54.734375
698,-379.02,2022-08-17 14:23:54.750000
699,-404.08,2022-08-17 14:23:54.765625
700,-426.11,2022-08-17 14:23:54.781250
701,-436.3,2022-08-17 14:23:54.796875
702,-427.72,2022-08-17 14:23:54.812500
703,-397.91,2022-08-17 14:23:54.828125
704,-349.87,2022-08-17 14:23:54.843750
705,-290.38,2022-08-17 14:23:54.859375
706,-227.56,2022-08-17 14:23:54.875000
707,-168.34,2022-08-17 14:23:54.890625
708,-117.18,2022-08-17 14:23:54.906250
709,-76.13,2022-08-17 14:23:54.921875
710,-45.73,2022-08-17 14:23:54.937500
711,-25.79,2022-08-17 14:23:54.953125
712,-15.38,2022-08-17 14:23:54.968750
713,-12.44,2022-08-17 14:23:54.984375
714,-13.5,2022-08-17 14:23:55.000000
715,-14.32,2022-08-17 14:23:55.015625
716,-11.16,2022-08-17 14:23:55.031250
717,-1.98,2022-08-17 14:23:55.046875
718,13.33,2022-08-17 14:23:55.062500
719,33.62,2022-08-17 14:23:55.078125
720,57.49,2022-08-17 14:23:55.093750
721,84.08,2022-08-17 14:23:55.109375
722,112.83,2022-08-17 14:23:55.125000
723,142.62,2022-08-17 14:23:55.140625
724,170.63,2022-08-17 14:23:55.156250
725,192.24,2022-08-17 14:23:55.171875
726,201.9,2022-08-17 14:23:55.187500
727,195.12,2022-08-17 14:23:55.203125
728,170.63,2022-08-17 14:23:55.218750
729,131.72,2022-08-17 14:23:55.234375
730,85.97,2022-08-17 14:23:55.250000
731,43.18,2022-08-17 14:23:55.265625
732,12.54,2022-08-17 14:23:55.281250
733,0.21,2022-08-17 14:23:55.296875
734,8.01,2022-08-17 14:23:55.312500
735,33.28,2022-08-17 14:23:55.328125
736,69.73,2022-08-17 14:23:55.343750
737,108.91,2022-08-17 14:23:55.359375
738,142.09,2022-08-17 14:23:55.375000
739,162.35,2022-08-17 14:23:55.390625
740,166.42,2022-08-17 14:23:55.406250
741,155.66,2022-08-17 14:23:55.421875
742,135.56,2022-08-17 14:23:55.437500
743,113.82,2022-08-17 14:23:55.453125
744,97.41,2022-08-17 14:23:55.468750
745,90.08,2022-08-17 14:23:55.484375
746,91.22,2022-08-17 14:23:55.500000
747,96.49,2022-08-17 14:23:55.515625
748,99.81,2022-08-17 14:23:55.531250
749,95.75,2022-08-17 14:23:55.546875
750,81.16,2022-08-17 14:23:55.562500
751,55.76,2022-08-17 14:23:55.578125
752,21.99,2022-08-17 14:23:55.593750
753,-15.76,2022-08-17 14:23:55.609375
754,-52.04,2022-08-17 14:23:55.625000
755,-81.52,2022-08-17 14:23:55.640625
756,-100.27,2022-08-17 14:23:55.656250
757,-106.87,2022-08-17 14:23:55.671875
758,-102.64,2022-08-17 14:23:55.687500
759,-90.8,2022-08-17 14:23:55.703125
760,-75.08,2022-08-17 14:23:55.718750
761,-58.16,2022-08-17 14:23:55.734375
762,-40.97,2022-08-17 14:23:55.750000
763,-22.87,2022-08-17 14:23:55.765625
764,-2.75,2022-08-17 14:23:55.781250
765,19.82,2022-08-17 14:23:55.796875
766,43.92,2022-08-17 14:23:55.812500
767,67.56,2022-08-17 14:23:55.828125
768,88.51,2022-08-17 14:23:55.843750
769,105.32,2022-08-17 14:23:55.859375
770,117.96,2022-08-17 14:23:55.875000
771,127.57,2022-08-17 14:23:55.890625
772,135.76,2022-08-17 14:23:55.906250
773,143.99,2022-08-17 14:23:55.921875
774,153.31,2022-08-17 14:23:55.937500
775,164.85,2022-08-17 14:23:55.953125
776,180.33,2022-08-17 14:23:55.968750
777,201.86,2022-08-17 14:23:55.984375
778,230.65,2022-08-17 14:23:56.000000
779,265.34,2022-08-17 14:23:56.015625
780,300.86,2022-08-17 14:23:56.031250
781,329.38,2022-08-17 14:23:56.046875
782,342.96,2022-08-17 14:23:56.062500
783,336.84,2022-08-17 14:23:56.078125
784,311.49,2022-08-17 14:23:56.093750
785,272.13,2022-08-17 14:23:56.109375
786,226.22,2022-08-17 14:23:56.125000
787,180.27,2022-08-17 14:23:56.140625
788,137.85,2022-08-17 14:23:56.156250
789,99.58,2022-08-17 14:23:56.171875
790,64.62,2022-08-17 14:23:56.187500
791,32.19,2022-08-17 14:23:56.203125
792,2.21,2022-08-17 14:23:56.218750
793,-25.19,2022-08-17 14:23:56.234375
794,-50.54,2022-08-17 14:23:56.250000
795,-75.3,2022-08-17 14:23:56.265625
796,-101.14,2022-08-17 14:23:56.281250
797,-128.69,2022-08-17 14:23:56.296875
798,-156.63,2022-08-17 14:23:56.312500
799,-181.59,2022-08-17 14:23:56.328125
800,-199.25,2022-08-17 14:23:56.343750
801,-205.88,2022-08-17 14:23:56.359375
802,-199.61,2022-08-17 14:23:56.375000
803,-181.38,2022-08-17 14:23:56.390625
804,-154.94,2022-08-17 14:23:56.406250
805,-125.99,2022-08-17 14:23:56.421875
806,-100.93,2022-08-17 14:23:56.437500
807,-85.34,2022-08-17 14:23:56.453125
808,-82.72,2022-08-17 14:23:56.468750
809,-93.79,2022-08-17 14:23:56.484375
810,-116.56,2022-08-17 14:23:56.500000
811,-147.02,2022-08-17 14:23:56.515625
812,-180.27,2022-08-17 14:23:56.531250
813,-211.58,2022-08-17 14:23:56.546875
814,-237.09,2022-08-17 14:23:56.562500
815,-254.11,2022-08-17 14:23:56.578125
816,-261.08,2022-08-17 14:23:56.593750
817,-257.47,2022-08-17 14:23:56.609375
818,-243.69,2022-08-17 14:23:56.625000
819,-221.01,2022-08-17 14:23:56.640625
820,-191.29,2022-08-17 14:23:56.656250
821,-156.71,2022-08-17 14:23:56.671875
822,-119.43,2022-08-17 14:23:56.687500
823,-81.47,2022-08-17 14:23:56.703125
824,-44.78,2022-08-17 14:23:56.718750
825,-11.34,2022-08-17 14:23:56.734375
826,17.11,2022-08-17 14:23:56.750000
827,39.59,2022-08-17 14:23:56.765625
828,56.41,2022-08-17 14:23:56.781250
829,69.38,2022-08-17 14:23:56.796875
830,81.28,2022-08-17 14:23:56.812500
831,94.98,2022-08-17 14:23:56.828125
832,112.34,2022-08-17 14:23:56.843750
833,133.81,2022-08-17 14:23:56.859375
834,158.59,2022-08-17 14:23:56.875000
835,184.98,2022-08-17 14:23:56.890625
836,210.57,2022-08-17 14:23:56.906250
837,232.21,2022-08-17 14:23:56.921875
838,245.99,2022-08-17 14:23:56.937500
839,247.79,2022-08-17 14:23:56.953125
840,234.4,2022-08-17 14:23:56.968750
841,205.23,2022-08-17 14:23:56.984375
842,163.3,2022-08-17 14:23:57.000000
843,114.83,2022-08-17 14:23:57.015625
844,67.5,2022-08-17 14:23:57.031250
845,27.77,2022-08-17 14:23:57.046875
846,-0.86,2022-08-17 14:23:57.062500
847,-18.15,2022-08-17 14:23:57.078125
848,-25.85,2022-08-17 14:23:57.093750
849,-25.83,2022-08-17 14:23:57.109375
850,-18.96,2022-08-17 14:23:57.125000
851,-5.17,2022-08-17 14:23:57.140625
852,15.05,2022-08-17 14:23:57.156250
853,39.39,2022-08-17 14:23:57.171875
854,62.95,2022-08-17 14:23:57.187500
855,79.49,2022-08-17 14:23:57.203125
856,83.39,2022-08-17 14:23:57.218750
857,71.69,2022-08-17 14:23:57.234375
858,44.97,2022-08-17 14:23:57.250000
859,6.56,2022-08-17 14:23:57.265625
860,-39.3,2022-08-17 14:23:57.281250
861,-89.55,2022-08-17 14:23:57.296875
862,-142.8,2022-08-17 14:23:57.312500
863,-198.2,2022-08-17 14:23:57.328125
864,-253.26,2022-08-17 14:23:57.343750
865,-302.43,2022-08-17 14:23:57.359375
866,-337.45,2022-08-17 14:23:57.375000
867,-350.16,2022-08-17 14:23:57.390625
868,-336.3,2022-08-17 14:23:57.406250
869,-298.09,2022-08-17 14:23:57.421875
870,-244.24,2022-08-17 14:23:57.437500
871,-186.9,2022-08-17 14:23:57.453125
872,-137.24,2022-08-17 14:23:57.468750
873,-101.9,2022-08-17 14:23:57.484375
874,-81.78,2022-08-17 14:23:57.500000
875,-73.36,2022-08-17 14:23:57.515625
876,-71.24,2022-08-17 14:23:57.531250
877,-70.59,2022-08-17 14:23:57.546875
878,-68.12,2022-08-17 14:23:57.562500
879,-62.03,2022-08-17 14:23:57.578125
880,-51.38,2022-08-17 14:23:57.593750
881,-35.64,2022-08-17 14:23:57.609375
882,-14.86,2022-08-17 14:23:57.625000
883,10.3,2022-08-17 14:23:57.640625
884,38.54,2022-08-17 14:23:57.656250
885,68.47,2022-08-17 14:23:57.671875
886,98.79,2022-08-17 14:23:57.687500
887,128.54,2022-08-17 14:23:57.703125
888,156.79,2022-08-17 14:23:57.718750
889,182.24,2022-08-17 14:23:57.734375
890,203.06,2022-08-17 14:23:57.750000
891,216.92,2022-08-17 14:23:57.765625
892,221.48,2022-08-17 14:23:57.781250
893,215.25,2022-08-17 14:23:57.796875
894,198.34,2022-08-17 14:23:57.812500
895,172.98,2022-08-17 14:23:57.828125
896,143.46,2022-08-17 14:23:57.843750
897,115.09,2022-08-17 14:23:57.859375
898,92.81,2022-08-17 14:23:57.875000
899,79.85,2022-08-17 14:23:57.890625
900,76.68,2022-08-17 14:23:57.906250
901,81.12,2022-08-17 14:23:57.921875
902,89.63,2022-08-17 14:23:57.937500
903,98.68,2022-08-17 14:23:57.953125
904,106.33,2022-08-17 14:23:57.968750
905,112.92,2022-08-17 14:23:57.984375
906,120.55,2022-08-17 14:23:58.000000
907,131.93,2022-08-17 14:23:58.015625
908,148.37,2022-08-17 14:23:58.031250
909,168.58,2022-08-17 14:23:58.046875
910,188.07,2022-08-17 14:23:58.062500
911,199.97,2022-08-17 14:23:58.078125
912,196.85,2022-08-17 14:23:58.093750
913,173.65,2022-08-17 14:23:58.109375
914,130.37,2022-08-17 14:23:58.125000
915,73.11,2022-08-17 14:23:58.140625
916,13.48,2022-08-17 14:23:58.156250
917,-34.86,2022-08-17 14:23:58.171875
918,-61.02,2022-08-17 14:23:58.187500
919,-60.81,2022-08-17 14:23:58.203125
920,-38.56,2022-08-17 14:23:58.218750
921,-5.74,2022-08-17 14:23:58.234375
922,23.21,2022-08-17 14:23:58.250000
923,35.91,2022-08-17 14:23:58.265625
924,26.12,2022-08-17 14:23:58.281250
925,-4.24,2022-08-17 14:23:58.296875
926,-46.68,2022-08-17 14:23:58.312500
927,-89.7,2022-08-17 14:23:58.328125
928,-122.98,2022-08-17 14:23:58.343750
929,-140.29,2022-08-17 14:23:58.359375
930,-140.46,2022-08-17 14:23:58.375000
931,-125.97,2022-08-17 14:23:58.390625
932,-101.55,2022-08-17 14:23:58.406250
933,-72.98,2022-08-17 14:23:58.421875
934,-45.99,2022-08-17 14:23:58.437500
935,-25.75,2022-08-17 14:23:58.453125
936,-16.26,2022-08-17 14:23:58.468750
937,-19.09,2022-08-17 14:23:58.484375
938,-32.45,2022-08-17 14:23:58.500000
939,-51.05,2022-08-17 14:23:58.515625
940,-68.06,2022-08-17 14:23:58.531250
941,-78.18,2022-08-17 14:23:58.546875
942,-80.42,2022-08-17 14:23:58.562500
943,-77.93,2022-08-17 14:23:58.578125
944,-75.78,2022-08-17 14:23:58.593750
945,-77.66,2022-08-17 14:23:58.609375
946,-83.75,2022-08-17 14:23:58.625000
947,-91.2,2022-08-17 14:23:58.640625
948,-97.61,2022-08-17 14:23:58.656250
949,-101.84,2022-08-17 14:23:58.671875
950,-106.54,2022-08-17 14:23:58.687500
951,-117.27,2022-08-17 14:23:58.703125
952,-139.08,2022-08-17 14:23:58.718750
953,-173.1,2022-08-17 14:23:58.734375
954,-215.35,2022-08-17 14:23:58.750000
955,-258.55,2022-08-17 14:23:58.765625
956,-295.88,2022-08-17 14:23:58.781250
957,-323.32,2022-08-17 14:23:58.796875
958,-338.95,2022-08-17 14:23:58.812500
959,-342.25,2022-08-17 14:23:58.828125
960,-333.26,2022-08-17 14:23:58.843750
961,-311.81,2022-08-17 14:23:58.859375
962,-278.05,2022-08-17 14:23:58.875000
963,-232.72,2022-08-17 14:23:58.890625
964,-177.1,2022-08-17 14:23:58.906250
965,-113.7,2022-08-17 14:23:58.921875
966,-45.29,2022-08-17 14:23:58.937500
967,26.25,2022-08-17 14:23:58.953125
968,100.05,2022-08-17 14:23:58.968750
969,175.85,2022-08-17 14:23:58.984375
970,252.84,2022-08-17 14:23:59.000000
971,328.01,2022-08-17 14:23:59.015625
972,395.15,2022-08-17 14:23:59.031250
973,445.83,2022-08-17 14:23:59.046875
974,471.71,2022-08-17 14:23:59.062500
975,467.99,2022-08-17 14:23:59.078125
976,435.85,2022-08-17 14:23:59.093750
977,382.21,2022-08-17 14:23:59.109375
978,317.31,2022-08-17 14:23:59.125000
979,251.03,2022-08-17 14:23:59.140625
980,189.43,2022-08-17 14:23:59.156250
981,133.49,2022-08-17 14:23:59.171875
982,80.14,2022-08-17 14:23:59.187500
983,24.67,2022-08-17 14:23:59.203125
984,-35.96,2022-08-17 14:23:59.218750
985,-100.9,2022-08-17 14:23:59.234375
986,-165.06,2022-08-17 14:23:59.250000
987,-220.23,2022-08-17 14:23:59.265625
988,-258.13,2022-08-17 14:23:59.281250
989,-273.42,2022-08-17 14:23:59.296875
990,-265.75,2022-08-17 14:23:59.312500
991,-239.67,2022-08-17 14:23:59.328125
992,-202.94,2022-08-17 14:23:59.343750
993,-163.22,2022-08-17 14:23:59.359375
994,-125.56,2022-08-17 14:23:59.375000
995,-91.77,2022-08-17 14:23:59.390625
996,-61.03,2022-08-17 14:23:59.406250
997,-32.27,2022-08-17 14:23:59.421875
998,-5.65,2022-08-17 14:23:59.437500
999,17.23,2022-08-17 14:23:59.453125
1000,34.4,2022-08-17 14:23:59.468750
1001,44.7,2022-08-17 14:23:59.484375
1002,48.62,2022-08-17 14:23:59.500000
1003,48.06,2022-08-17 14:23:59.515625
1004,45.4,2022-08-17 14:23:59.531250
1005,43.32,2022-08-17 14:23:59.546875
1006,43.76,2022-08-17 14:23:59.562500
1007,47.81,2022-08-17 14:23:59.578125
1008,56.31,2022-08-17 14:23:59.593750
1009,70.33,2022-08-17 14:23:59.609375
1010,91.66,2022-08-17 14:23:59.625000
1011,122.78,2022-08-17 14:23:59.640625
1012,166.5,2022-08-17 14:23:59.656250
1013,220.42,2022-08-17 14:23:59.671875
1014,280.2,2022-08-17 14:23:59.687500
1015,338.78,2022-08-17 14:23:59.703125
1016,388.16,2022-08-17 14:23:59.718750
1017,422.13,2022-08-17 14:23:59.734375
1018,438.18,2022-08-17 14:23:59.750000
1019,436.95,2022-08-17 14:23:59.765625
1020,420.0,2022-08-17 14:23:59.781250
1021,387.43,2022-08-17 14:23:59.796875
1022,337.35,2022-08-17 14:23:59.812500
1023,268.54,2022-08-17 14:23:59.828125
1024,182.78,2022-08-17 14:23:59.843750
1025,86.63,2022-08-17 14:23:59.859375
1026,-9.28,2022-08-17 14:23:59.875000
1027,-93.6,2022-08-17 14:23:59.890625
1028,-158.19,2022-08-17 14:23:59.906250
1029,-200.59,2022-08-17 14:23:59.921875
1030,-223.76,2022-08-17 14:23:59.937500
1031,-233.79,2022-08-17 14:23:59.953125
1032,-236.04,2022-08-17 14:23:59.968750
1033,-233.77,2022-08-17 14:23:59.984375
1034,-228.07,2022-08-17 14:24:00.000000
1035,-218.98,2022-08-17 14:24:00.015625
1036,-207.1,2022-08-17 14:24:00.031250
1037,-194.46,2022-08-17 14:24:00.046875
1038,-184.19,2022-08-17 14:24:00.062500
1039,-179.09,2022-08-17 14:24:00.078125
1040,-179.66,2022-08-17 14:24:00.093750
1041,-182.53,2022-08-17 14:24:00.109375
1042,-180.97,2022-08-17 14:24:00.125000
1043,-167.38,2022-08-17 14:24:00.140625
1044,-136.9,2022-08-17 14:24:00.156250
1045,-90.24,2022-08-17 14:24:00.171875
1046,-34.11,2022-08-17 14:24:00.187500
1047,21.49,2022-08-17 14:24:00.203125
1048,67.43,2022-08-17 14:24:00.218750
1049,98.86,2022-08-17 14:24:00.234375
1050,115.57,2022-08-17 14:24:00.250000
1051,119.63,2022-08-17 14:24:00.265625
1052,112.66,2022-08-17 14:24:00.281250
1053,94.69,2022-08-17 14:24:00.296875
1054,65.64,2022-08-17 14:24:00.312500
1055,27.89,2022-08-17 14:24:00.328125
1056,-12.31,2022-08-17 14:24:00.343750
1057,-46.23,2022-08-17 14:24:00.359375
1058,-66.32,2022-08-17 14:24:00.375000
1059,-69.88,2022-08-17 14:24:00.390625
1060,-60.41,2022-08-17 14:24:00.406250
1061,-45.72,2022-08-17 14:24:00.421875
1062,-33.79,2022-08-17 14:24:00.437500
1063,-29.41,2022-08-17 14:24:00.453125
1064,-32.47,2022-08-17 14:24:00.468750
1065,-39.27,2022-08-17 14:24:00.484375
1066,-45.32,2022-08-17 14:24:00.500000
1067,-47.78,2022-08-17 14:24:00.515625
1068,-46.5,2022-08-17 14:24:00.531250
1069,-43.19,2022-08-17 14:24:00.546875
1070,-39.98,2022-08-17 14:24:00.562500
1071,-38.05,2022-08-17 14:24:00.578125
1072,-37.1,2022-08-17 14:24:00.593750
1073,-35.9,2022-08-17 14:24:00.609375
1074,-33.42,2022-08-17 14:24:00.625000
1075,-29.59,2022-08-17 14:24:00.640625
1076,-25.39,2022-08-17 14:24:00.656250
1077,-22.27,2022-08-17 14:24:00.671875
1078,-21.08,2022-08-17 14:24:00.687500
1079,-21.63,2022-08-17 14:24:00.703125
1080,-22.93,2022-08-17 14:24:00.718750
1081,-23.53,2022-08-17 14:24:00.734375
1082,-22.43,2022-08-17 14:24:00.750000
1083,-19.58,2022-08-17 14:24:00.765625
1084,-15.79,2022-08-17 14:24:00.781250
1085,-12.29,2022-08-17 14:24:00.796875
1086,-10.1,2022-08-17 14:24:00.812500
1087,-9.57,2022-08-17 14:24:00.828125
1088,-10.27,2022-08-17 14:24:00.843750
1089,-11.28,2022-08-17 14:24:00.859375
1090,-11.63,2022-08-17 14:24:00.875000
1091,-10.79,2022-08-17 14:24:00.890625
1092,-8.83,2022-08-17 14:24:00.906250
1093,-6.37,2022-08-17 14:24:00.921875
1094,-4.22,2022-08-17 14:24:00.937500
1095,-3.0,2022-08-17 14:24:00.953125
1096,-2.81,2022-08-17 14:24:00.968750
1097,-3.33,2022-08-17 14:24:00.984375
1098,-3.94,2022-08-17 14:24:01.000000
1099,-4.07,2022-08-17 14:24:01.015625
1100,-3.48,2022-08-17 14:24:01.031250
1101,-2.27,2022-08-17 14:24:01.046875
1102,-0.85,2022-08-17 14:24:01.062500
1103,0.33,2022-08-17 14:24:01.078125
1104,0.99,2022-08-17 14:24:01.093750
1105,1.09,2022-08-17 14:24:01.109375
1106,0.79,2022-08-17 14:24:01.125000
1107,0.36,2022-08-17 14:24:01.140625
1108,0.09,2022-08-17 14:24:01.156250
1109,0.19,2022-08-17 14:24:01.171875
1110,0.81,2022-08-17 14:24:01.187500
1111,1.92,2022-08-17 14:24:01.203125
1112,3.32,2022-08-17 14:24:01.218750
1113,4.69,2022-08-17 14:24:01.234375
1114,5.71,2022-08-17 14:24:01.250000
1115,6.14,2022-08-17 14:24:01.265625
1116,5.98,2022-08-17 14:24:01.281250
1117,5.5,2022-08-17 14:24:01.296875
1118,5.03,2022-08-17 14:24:01.312500
1119,4.91,2022-08-17 14:24:01.328125
1120,5.24,2022-08-17 14:24:01.343750
1121,5.93,2022-08-17 14:24:01.359375
1122,6.8,2022-08-17 14:24:01.375000
1123,7.71,2022-08-17 14:24:01.390625
1124,8.61,2022-08-17 14:24:01.406250
1125,9.58,2022-08-17 14:24:01.421875
1126,10.73,2022-08-17 14:24:01.437500
1127,11.95,2022-08-17 14:24:01.453125
1128,13.23,2022-08-17 14:24:01.468750
1129,14.52,2022-08-17 14:24:01.484375
1130,15.8,2022-08-17 14:24:01.500000
1131,17.2,2022-08-17 14:24:01.515625
1132,18.92,2022-08-17 14:24:01.531250
1133,21.31,2022-08-17 14:24:01.546875
1134,24.71,2022-08-17 14:24:01.562500
1135,29.41,2022-08-17 14:24:01.578125
1136,35.47,2022-08-17 14:24:01.593750
1137,42.79,2022-08-17 14:24:01.609375
1138,51.06,2022-08-17 14:24:01.625000
1139,59.69,2022-08-17 14:24:01.640625
1140,67.99,2022-08-17 14:24:01.656250
1141,75.07,2022-08-17 14:24:01.671875
1142,79.98,2022-08-17 14:24:01.687500
1143,81.88,2022-08-17 14:24:01.703125
1144,80.15,2022-08-17 14:24:01.718750
1145,74.49,2022-08-17 14:24:01.734375
1146,65.04,2022-08-17 14:24:01.750000
1147,52.32,2022-08-17 14:24:01.765625
1148,37.16,2022-08-17 14:24:01.781250
1149,20.8,2022-08-17 14:24:01.796875
1150,4.4,2022-08-17 14:24:01.812500
1151,-11.0,2022-08-17 14:24:01.828125
1152,-24.5,2022-08-17 14:24:01.843750
1153,-35.5,2022-08-17 14:24:01.859375
1154,-43.67,2022-08-17 14:24:01.875000
1155,-49.02,2022-08-17 14:24:01.890625
1156,-51.76,2022-08-17 14:24:01.906250
1157,-52.63,2022-08-17 14:24:01.921875
1158,-51.81,2022-08-17 14:24:01.937500
1159,-49.95,2022-08-17 14:24:01.953125
1160,-47.64,2022-08-17 14:24:01.968750
1161,-45.32,2022-08-17 14:24:01.984375
1162,-43.26,2022-08-17 14:24:02.000000
1163,-41.5,2022-08-17 14:24:02.015625
1164,-39.91,2022-08-17 14:24:02.031250
1165,-38.29,2022-08-17 14:24:02.046875
1166,-36.47,2022-08-17 14:24:02.062500
1167,-34.34,2022-08-17 14:24:02.078125
1168,-32.17,2022-08-17 14:24:02.093750
1169,-30.34,2022-08-17 14:24:02.109375
1170,-29.18,2022-08-17 14:24:02.125000
1171,-28.84,2022-08-17 14:24:02.140625
1172,-29.12,2022-08-17 14:24:02.156250
1173,-29.57,2022-08-17 14:24:02.171875
1174,-29.63,2022-08-17 14:24:02.187500
1175,-28.93,2022-08-17 14:24:02.203125
1176,-27.46,2022-08-17 14:24:02.218750
1177,-25.81,2022-08-17 14:24:02.234375
1178,-24.81,2022-08-17 14:24:02.250000
1179,-25.16,2022-08-17 14:24:02.265625
1180,-27.12,2022-08-17 14:24:02.281250
1181,-30.25,2022-08-17 14:24:02.296875
1182,-33.57,2022-08-17 14:24:02.312500
1183,-35.99,2022-08-17 14:24:02.328125
1184,-36.82,2022-08-17 14:24:02.343750
1185,-36.16,2022-08-17 14:24:02.359375
1186,-34.96,2022-08-17 14:24:02.375000
1187,-34.68,2022-08-17 14:24:02.390625
1188,-36.59,2022-08-17 14:24:02.406250
1189,-41.15,2022-08-17 14:24:02.421875
1190,-47.64,2022-08-17 14:24:02.437500
1191,-54.51,2022-08-17 14:24:02.453125
1192,-60.19,2022-08-17 14:24:02.468750
1193,-63.87,2022-08-17 14:24:02.484375
1194,-65.82,2022-08-17 14:24:02.500000
1195,-67.33,2022-08-17 14:24:02.515625
1196,-69.97,2022-08-17 14:24:02.531250
1197,-74.54,2022-08-17 14:24:02.546875
1198,-81.1,2022-08-17 14:24:02.562500
1199,-89.15,2022-08-17 14:24:02.578125
1200,-98.0,2022-08-17 14:24:02.593750
1201,-107.43,2022-08-17 14:24:02.609375
1202,-115.54,2022-08-17 14:24:02.625000
1203,-119.09,2022-08-17 14:24:02.640625
1204,-113.57,2022-08-17 14:24:02.656250
1205,-95.01,2022-08-17 14:24:02.671875
1206,-63.2,2022-08-17 14:24:02.687500
1207,-23.33,2022-08-17 14:24:02.703125
1208,15.4,2022-08-17 14:24:02.718750
1209,44.14,2022-08-17 14:24:02.734375
1210,58.58,2022-08-17 14:24:02.750000
1211,60.9,2022-08-17 14:24:02.765625
1212,57.83,2022-08-17 14:24:02.781250
1213,56.13,2022-08-17 14:24:02.796875
1214,59.05,2022-08-17 14:24:02.812500
1215,65.28,2022-08-17 14:24:02.828125
1216,71.27,2022-08-17 14:24:02.843750
1217,74.6,2022-08-17 14:24:02.859375
1218,76.05,2022-08-17 14:24:02.875000
1219,78.52,2022-08-17 14:24:02.890625
1220,84.52,2022-08-17 14:24:02.906250
1221,93.65,2022-08-17 14:24:02.921875
1222,102.6,2022-08-17 14:24:02.937500
1223,107.35,2022-08-17 14:24:02.953125
1224,105.78,2022-08-17 14:24:02.968750
1225,98.56,2022-08-17 14:24:02.984375
1226,88.63,2022-08-17 14:24:03.000000
1227,79.43,2022-08-17 14:24:03.015625
1228,73.06,2022-08-17 14:24:03.031250
1229,70.17,2022-08-17 14:24:03.046875
1230,70.0,2022-08-17 14:24:03.062500
1231,70.98,2022-08-17 14:24:03.078125
1232,71.76,2022-08-17 14:24:03.093750
1233,71.27,2022-08-17 14:24:03.109375
1234,69.46,2022-08-17 14:24:03.125000
1235,66.77,2022-08-17 14:24:03.140625
1236,64.31,2022-08-17 14:24:03.156250
1237,63.54,2022-08-17 14:24:03.171875
1238,66.04,2022-08-17 14:24:03.187500
1239,72.34,2022-08-17 14:24:03.203125
1240,81.53,2022-08-17 14:24:03.218750
1241,91.55,2022-08-17 14:24:03.234375
1242,99.39,2022-08-17 14:24:03.250000
1243,101.8,2022-08-17 14:24:03.265625
1244,96.51,2022-08-17 14:24:03.281250
1245,83.05,2022-08-17 14:24:03.296875
1246,63.1,2022-08-17 14:24:03.312500
1247,40.37,2022-08-17 14:24:03.328125
1248,18.7,2022-08-17 14:24:03.343750
1249,1.62,2022-08-17 14:24:03.359375
1250,-8.27,2022-08-17 14:24:03.375000
1251,-9.97,2022-08-17 14:24:03.390625
1252,-4.42,2022-08-17 14:24:03.406250
1253,5.99,2022-08-17 14:24:03.421875
1254,18.1,2022-08-17 14:24:03.437500
1255,28.96,2022-08-17 14:24:03.453125
1256,36.74,2022-08-17 14:24:03.468750
1257,39.89,2022-08-17 14:24:03.484375
1258,37.57,2022-08-17 14:24:03.500000
1259,29.61,2022-08-17 14:24:03.515625
1260,15.79,2022-08-17 14:24:03.531250
1261,-4.57,2022-08-17 14:24:03.546875
1262,-32.41,2022-08-17 14:24:03.562500
1263,-68.67,2022-08-17 14:24:03.578125
1264,-114.71,2022-08-17 14:24:03.593750
1265,-164.39,2022-08-17 14:24:03.609375
1266,-211.98,2022-08-17 14:24:03.625000
1267,-252.33,2022-08-17 14:24:03.640625
1268,-281.01,2022-08-17 14:24:03.656250
1269,-293.98,2022-08-17 14:24:03.671875
1270,-287.75,2022-08-17 14:24:03.687500
1271,-260.56,2022-08-17 14:24:03.703125
1272,-214.64,2022-08-17 14:24:03.718750
1273,-156.9,2022-08-17 14:24:03.734375
1274,-97.13,2022-08-17 14:24:03.750000
1275,-45.9,2022-08-17 14:24:03.765625
1276,-9.98,2022-08-17 14:24:03.781250
1277,9.57,2022-08-17 14:24:03.796875
1278,16.24,2022-08-17 14:24:03.812500
1279,15.31,2022-08-17 14:24:03.828125
1280,11.15,2022-08-17 14:24:03.843750
1281,5.9,2022-08-17 14:24:03.859375
1282,-0.01,2022-08-17 14:24:03.875000
1283,-6.21,2022-08-17 14:24:03.890625
1284,-12.44,2022-08-17 14:24:03.906250
1285,-17.73,2022-08-17 14:24:03.921875
1286,-21.26,2022-08-17 14:24:03.937500
1287,-23.13,2022-08-17 14:24:03.953125
1288,-24.63,2022-08-17 14:24:03.968750
1289,-27.64,2022-08-17 14:24:03.984375
1290,-33.79,2022-08-17 14:24:04.000000
1291,-43.68,2022-08-17 14:24:04.015625
1292,-56.37,2022-08-17 14:24:04.031250
1293,-70.35,2022-08-17 14:24:04.046875
1294,-83.79,2022-08-17 14:24:04.062500
1295,-95.16,2022-08-17 14:24:04.078125
1296,-103.56,2022-08-17 14:24:04.093750
1297,-108.78,2022-08-17 14:24:04.109375
1298,-111.88,2022-08-17 14:24:04.125000
1299,-112.62,2022-08-17 14:24:04.140625
1300,-110.55,2022-08-17 14:24:04.156250
1301,-104.91,2022-08-17 14:24:04.171875
1302,-95.16,2022-08-17 14:24:04.187500
1303,-81.24,2022-08-17 14:24:04.203125
1304,-63.95,2022-08-17 14:24:04.218750
1305,-44.63,2022-08-17 14:24:04.234375
1306,-25.31,2022-08-17 14:24:04.250000
1307,-8.16,2022-08-17 14:24:04.265625
1308,5.1,2022-08-17 14:24:04.281250
1309,13.39,2022-08-17 14:24:04.296875
1310,16.46,2022-08-17 14:24:04.312500
1311,14.67,2022-08-17 14:24:04.328125
1312,8.71,2022-08-17 14:24:04.343750
1313,-0.8,2022-08-17 14:24:04.359375
1314,-12.97,2022-08-17 14:24:04.375000
1315,-27.23,2022-08-17 14:24:04.390625
1316,-43.23,2022-08-17 14:24:04.406250
1317,-60.61,2022-08-17 14:24:04.421875
1318,-79.06,2022-08-17 14:24:04.437500
1319,-98.19,2022-08-17 14:24:04.453125
1320,-117.49,2022-08-17 14:24:04.468750
1321,-136.46,2022-08-17 14:24:04.484375
1322,-154.77,2022-08-17 14:24:04.500000
1323,-171.71,2022-08-17 14:24:04.515625
1324,-186.86,2022-08-17 14:24:04.531250
1325,-199.94,2022-08-17 14:24:04.546875
1326,-210.64,2022-08-17 14:24:04.562500
1327,-218.68,2022-08-17 14:24:04.578125
1328,-223.55,2022-08-17 14:24:04.593750
1329,-224.49,2022-08-17 14:24:04.609375
1330,-220.21,2022-08-17 14:24:04.625000
1331,-212.92,2022-08-17 14:24:04.640625
1332,-203.4,2022-08-17 14:24:04.656250
1333,-192.21,2022-08-17 14:24:04.671875
1334,-179.86,2022-08-17 14:24:04.687500
1335,-166.77,2022-08-17 14:24:04.703125
1336,-153.3,2022-08-17 14:24:04.718750
1337,-139.7,2022-08-17 14:24:04.734375
1338,-126.07,2022-08-17 14:24:04.750000
1339,-112.44,2022-08-17 14:24:04.765625
1340,-98.85,2022-08-17 14:24:04.781250
1341,-84.86,2022-08-17 14:24:04.796875
1342,-70.32,2022-08-17 14:24:04.812500
1343,-55.33,2022-08-17 14:24:04.828125
1344,-40.06,2022-08-17 14:24:04.843750
1345,-24.78,2022-08-17 14:24:04.859375
1346,-9.55,2022-08-17 14:24:04.875000
1347,5.74,2022-08-17 14:24:04.890625
1348,21.38,2022-08-17 14:24:04.906250
1349,37.58,2022-08-17 14:24:04.921875
1350,54.7,2022-08-17 14:24:04.937500
1351,72.51,2022-08-17 14:24:04.953125
1352,90.25,2022-08-17 14:24:04.968750
1353,106.89,2022-08-17 14:24:04.984375
1354,121.46,2022-08-17 14:24:05.000000
1355,133.57,2022-08-17 14:24:05.015625
1356,143.49,2022-08-17 14:24:05.031250
1357,152.22,2022-08-17 14:24:05.046875
1358,160.89,2022-08-17 14:24:05.062500
1359,170.57,2022-08-17 14:24:05.078125
1360,181.42,2022-08-17 14:24:05.093750
1361,192.71,2022-08-17 14:24:05.109375
1362,203.17,2022-08-17 14:24:05.125000
1363,211.67,2022-08-17 14:24:05.140625
1364,217.98,2022-08-17 14:24:05.156250
1365,223.04,2022-08-17 14:24:05.171875
1366,228.85,2022-08-17 14:24:05.187500
1367,237.51,2022-08-17 14:24:05.203125
1368,250.45,2022-08-17 14:24:05.218750
1369,267.68,2022-08-17 14:24:05.234375
1370,287.58,2022-08-17 14:24:05.250000
1371,307.69,2022-08-17 14:24:05.265625
1372,325.83,2022-08-17 14:24:05.281250
1373,341.15,2022-08-17 14:24:05.296875
1374,354.5,2022-08-17 14:24:05.312500
1375,368.03,2022-08-17 14:24:05.328125
1376,383.97,2022-08-17 14:24:05.343750
1377,403.95,2022-08-17 14:24:05.359375
1378,428.64,2022-08-17 14:24:05.375000
1379,457.66,2022-08-17 14:24:05.390625
1380,489.48,2022-08-17 14:24:05.406250
1381,520.96,2022-08-17 14:24:05.421875
1382,547.21,2022-08-17 14:24:05.437500
1383,562.19,2022-08-17 14:24:05.453125
1384,560.74,2022-08-17 14:24:05.468750
1385,540.8,2022-08-17 14:24:05.484375
1386,504.95,2022-08-17 14:24:05.500000
1387,459.95,2022-08-17 14:24:05.515625
1388,413.22,2022-08-17 14:24:05.531250
1389,369.39,2022-08-17 14:24:05.546875
1390,328.29,2022-08-17 14:24:05.562500
1391,285.97,2022-08-17 14:24:05.578125
1392,238.04,2022-08-17 14:24:05.593750
1393,182.95,2022-08-17 14:24:05.609375
1394,123.49,2022-08-17 14:24:05.625000
1395,65.47,2022-08-17 14:24:05.640625
1396,15.16,2022-08-17 14:24:05.656250
1397,-24.81,2022-08-17 14:24:05.671875
1398,-56.64,2022-08-17 14:24:05.687500
1399,-86.06,2022-08-17 14:24:05.703125
1400,-119.48,2022-08-17 14:24:05.718750
1401,-161.24,2022-08-17 14:24:05.734375
1402,-212.06,2022-08-17 14:24:05.750000
1403,-268.97,2022-08-17 14:24:05.765625
1404,-325.67,2022-08-17 14:24:05.781250
1405,-372.54,2022-08-17 14:24:05.796875
1406,-401.6,2022-08-17 14:24:05.812500
1407,-409.03,2022-08-17 14:24:05.828125
1408,-396.31,2022-08-17 14:24:05.843750
1409,-368.75,2022-08-17 14:24:05.859375
1410,-332.76,2022-08-17 14:24:05.875000
1411,-293.03,2022-08-17 14:24:05.890625
1412,-252.12,2022-08-17 14:24:05.906250
1413,-209.72,2022-08-17 14:24:05.921875
1414,-162.07,2022-08-17 14:24:05.937500
1415,-107.8,2022-08-17 14:24:05.953125
1416,-49.38,2022-08-17 14:24:05.968750
1417,8.17,2022-08-17 14:24:05.984375
1418,60.24,2022-08-17 14:24:06.000000
1419,105.5,2022-08-17 14:24:06.015625
1420,146.25,2022-08-17 14:24:06.031250
1421,186.23,2022-08-17 14:24:06.046875
1422,230.51,2022-08-17 14:24:06.062500
1423,286.8,2022-08-17 14:24:06.078125
1424,358.29,2022-08-17 14:24:06.093750
1425,441.58,2022-08-17 14:24:06.109375
1426,527.24,2022-08-17 14:24:06.125000
1427,602.91,2022-08-17 14:24:06.140625
1428,657.85,2022-08-17 14:24:06.156250
1429,686.42,2022-08-17 14:24:06.171875
1430,688.47,2022-08-17 14:24:06.187500
1431,643.68,2022-08-17 14:24:06.203125
1432,546.5,2022-08-17 14:24:06.218750
1433,405.44,2022-08-17 14:24:06.234375
1434,241.67,2022-08-17 14:24:06.250000
1435,79.13,2022-08-17 14:24:06.265625
1436,-65.36,2022-08-17 14:24:06.281250
1437,-184.56,2022-08-17 14:24:06.296875
1438,-270.52,2022-08-17 14:24:06.312500
1439,-330.65,2022-08-17 14:24:06.328125
1440,-371.49,2022-08-17 14:24:06.343750
1441,-394.48,2022-08-17 14:24:06.359375
1442,-402.84,2022-08-17 14:24:06.375000
1443,-402.13,2022-08-17 14:24:06.390625
1444,-399.42,2022-08-17 14:24:06.406250
1445,-400.27,2022-08-17 14:24:06.421875
1446,-406.67,2022-08-17 14:24:06.437500
1447,-417.32,2022-08-17 14:24:06.453125
1448,-430.54,2022-08-17 14:24:06.468750
1449,-443.17,2022-08-17 14:24:06.484375
1450,-446.46,2022-08-17 14:24:06.500000
1451,-434.63,2022-08-17 14:24:06.515625
1452,-406.46,2022-08-17 14:24:06.531250
1453,-365.54,2022-08-17 14:24:06.546875
1454,-318.1,2022-08-17 14:24:06.562500
1455,-269.88,2022-08-17 14:24:06.578125
1456,-224.31,2022-08-17 14:24:06.593750
1457,-183.54,2022-08-17 14:24:06.609375
1458,-147.44,2022-08-17 14:24:06.625000
1459,-113.65,2022-08-17 14:24:06.640625
1460,-81.03,2022-08-17 14:24:06.656250
1461,-49.86,2022-08-17 14:24:06.671875
1462,-21.47,2022-08-17 14:24:06.687500
1463,2.9,2022-08-17 14:24:06.703125
1464,22.92,2022-08-17 14:24:06.718750
1465,39.07,2022-08-17 14:24:06.734375
1466,51.53,2022-08-17 14:24:06.750000
1467,61.21,2022-08-17 14:24:06.765625
1468,68.81,2022-08-17 14:24:06.781250
1469,73.81,2022-08-17 14:24:06.796875
1470,74.94,2022-08-17 14:24:06.812500
1471,70.67,2022-08-17 14:24:06.828125
1472,60.02,2022-08-17 14:24:06.843750
1473,43.06,2022-08-17 14:24:06.859375
1474,20.79,2022-08-17 14:24:06.875000
1475,-3.95,2022-08-17 14:24:06.890625
1476,-28.19,2022-08-17 14:24:06.906250
1477,-49.46,2022-08-17 14:24:06.921875
1478,-66.44,2022-08-17 14:24:06.937500
1479,-78.77,2022-08-17 14:24:06.953125
1480,-86.78,2022-08-17 14:24:06.968750
1481,-91.11,2022-08-17 14:24:06.984375
1482,-92.34,2022-08-17 14:24:07.000000
1483,-91.01,2022-08-17 14:24:07.015625
1484,-87.59,2022-08-17 14:24:07.031250
1485,-82.71,2022-08-17 14:24:07.046875
1486,-77.01,2022-08-17 14:24:07.062500
1487,-71.11,2022-08-17 14:24:07.078125
1488,-65.53,2022-08-17 14:24:07.093750
1489,-60.62,2022-08-17 14:24:07.109375
1490,-56.53,2022-08-17 14:24:07.125000
1491,-53.12,2022-08-17 14:24:07.140625
1492,-50.14,2022-08-17 14:24:07.156250
1493,-47.21,2022-08-17 14:24:07.171875
1494,-44.11,2022-08-17 14:24:07.187500
1495,-40.78,2022-08-17 14:24:07.203125
1496,-37.42,2022-08-17 14:24:07.218750
1497,-34.31,2022-08-17 14:24:07.234375
1498,-31.81,2022-08-17 14:24:07.250000
1499,-30.3,2022-08-17 14:24:07.265625
1500,-29.86,2022-08-17 14:24:07.281250
1501,-30.38,2022-08-17 14:24:07.296875
1502,-31.34,2022-08-17 14:24:07.312500
1503,-32.03,2022-08-17 14:24:07.328125
1504,-31.79,2022-08-17 14:24:07.343750
1505,-30.12,2022-08-17 14:24:07.359375
1506,-26.88,2022-08-17 14:24:07.375000
1507,-22.27,2022-08-17 14:24:07.390625
1508,-18.36,2022-08-17 14:24:07.406250
1509,-14.7,2022-08-17 14:24:07.421875
1510,-10.91,2022-08-17 14:24:07.437500
1511,-6.57,2022-08-17 14:24:07.453125
1512,-1.46,2022-08-17 14:24:07.468750
1513,4.26,2022-08-17 14:24:07.484375
1514,9.77,2022-08-17 14:24:07.500000
1515,13.66,2022-08-17 14:24:07.515625
1516,14.17,2022-08-17 14:24:07.531250
1517,11.49,2022-08-17 14:24:07.546875
1518,4.45,2022-08-17 14:24:07.562500
1519,-6.77,2022-08-17 14:24:07.578125
1520,-20.61,2022-08-17 14:24:07.593750
1521,-34.85,2022-08-17 14:24:07.609375
1522,-47.48,2022-08-17 14:24:07.625000
1523,-57.35,2022-08-17 14:24:07.640625
1524,-64.48,2022-08-17 14:24:07.656250
1525,-69.86,2022-08-17 14:24:07.671875
1526,-74.81,2022-08-17 14:24:07.687500
1527,-80.59,2022-08-17 14:24:07.703125
1528,-88.3,2022-08-17 14:24:07.718750
1529,-98.59,2022-08-17 14:24:07.734375
1530,-111.15,2022-08-17 14:24:07.750000
1531,-123.98,2022-08-17 14:24:07.765625
1532,-133.34,2022-08-17 14:24:07.781250
1533,-134.54,2022-08-17 14:24:07.796875
1534,-123.88,2022-08-17 14:24:07.812500
1535,-100.74,2022-08-17 14:24:07.828125
1536,-68.62,2022-08-17 14:24:07.843750
1537,-34.29,2022-08-17 14:24:07.859375
1538,-5.22,2022-08-17 14:24:07.875000
1539,13.21,2022-08-17 14:24:07.890625
1540,19.65,2022-08-17 14:24:07.906250
1541,16.43,2022-08-17 14:24:07.921875
1542,7.71,2022-08-17 14:24:07.937500
1543,-2.81,2022-08-17 14:24:07.953125
1544,-13.23,2022-08-17 14:24:07.968750
1545,-23.23,2022-08-17 14:24:07.984375
1546,-32.66,2022-08-17 14:24:08.000000
1547,-40.61,2022-08-17 14:24:08.015625
1548,-45.43,2022-08-17 14:24:08.031250
1549,-44.87,2022-08-17 14:24:08.046875
1550,-38.08,2022-08-17 14:24:08.062500
1551,-25.65,2022-08-17 14:24:08.078125
1552,-9.91,2022-08-17 14:24:08.093750
1553,5.95,2022-08-17 14:24:08.109375
1554,18.98,2022-08-17 14:24:08.125000
1555,27.71,2022-08-17 14:24:08.140625
1556,32.14,2022-08-17 14:24:08.156250
1557,33.52,2022-08-17 14:24:08.171875
1558,33.4,2022-08-17 14:24:08.187500
1559,32.82,2022-08-17 14:24:08.203125
1560,31.84,2022-08-17 14:24:08.218750
1561,29.74,2022-08-17 14:24:08.234375
1562,25.72,2022-08-17 14:24:08.250000
1563,19.73,2022-08-17 14:24:08.265625
1564,13.09,2022-08-17 14:24:08.281250
1565,8.12,2022-08-17 14:24:08.296875
1566,7.6,2022-08-17 14:24:08.312500
1567,13.45,2022-08-17 14:24:08.328125
1568,25.81,2022-08-17 14:24:08.343750
1569,42.68,2022-08-17 14:24:08.359375
1570,60.47,2022-08-17 14:24:08.375000
1571,75.27,2022-08-17 14:24:08.390625
1572,84.48,2022-08-17 14:24:08.406250
1573,87.77,2022-08-17 14:24:08.421875
1574,87.18,2022-08-17 14:24:08.437500
1575,86.11,2022-08-17 14:24:08.453125
1576,87.83,2022-08-17 14:24:08.468750
1577,94.42,2022-08-17 14:24:08.484375
1578,106.63,2022-08-17 14:24:08.500000
1579,124.21,2022-08-17 14:24:08.515625
1580,146.39,2022-08-17 14:24:08.531250
1581,170.4,2022-08-17 14:24:08.546875
1582,193.51,2022-08-17 14:24:08.562500
1583,211.52,2022-08-17 14:24:08.578125
1584,219.36,2022-08-17 14:24:08.593750
1585,212.97,2022-08-17 14:24:08.609375
1586,191.48,2022-08-17 14:24:08.625000
1587,158.32,2022-08-17 14:24:08.640625
1588,119.59,2022-08-17 14:24:08.656250
1589,81.01,2022-08-17 14:24:08.671875
1590,46.07,2022-08-17 14:24:08.687500
1591,13.27,2022-08-17 14:24:08.703125
1592,-19.97,2022-08-17 14:24:08.718750
1593,-54.2,2022-08-17 14:24:08.734375
1594,-86.42,2022-08-17 14:24:08.750000
1595,-111.07,2022-08-17 14:24:08.765625
1596,-123.54,2022-08-17 14:24:08.781250
1597,-123.48,2022-08-17 14:24:08.796875
1598,-116.34,2022-08-17 14:24:08.812500
1599,-111.22,2022-08-17 14:24:08.828125
1600,-115.81,2022-08-17 14:24:08.843750
1601,-132.02,2022-08-17 14:24:08.859375
1602,-155.18,2022-08-17 14:24:08.875000
1603,-176.57,2022-08-17 14:24:08.890625
1604,-187.69,2022-08-17 14:24:08.906250
1605,-184.86,2022-08-17 14:24:08.921875
1606,-169.49,2022-08-17 14:24:08.937500
1607,-146.34,2022-08-17 14:24:08.953125
1608,-120.56,2022-08-17 14:24:08.968750
1609,-94.53,2022-08-17 14:24:08.984375
1610,-66.82,2022-08-17 14:24:09.000000
1611,-33.97,2022-08-17 14:24:09.015625
1612,7.01,2022-08-17 14:24:09.031250
1613,56.05,2022-08-17 14:24:09.046875
1614,110.21,2022-08-17 14:24:09.062500
1615,163.99,2022-08-17 14:24:09.078125
1616,210.33,2022-08-17 14:24:09.093750
1617,241.99,2022-08-17 14:24:09.109375
1618,253.25,2022-08-17 14:24:09.125000
1619,242.19,2022-08-17 14:24:09.140625
1620,211.55,2022-08-17 14:24:09.156250
1621,168.56,2022-08-17 14:24:09.171875
1622,123.09,2022-08-17 14:24:09.187500
1623,84.19,2022-08-17 14:24:09.203125
1624,56.61,2022-08-17 14:24:09.218750
1625,39.13,2022-08-17 14:24:09.234375
1626,26.31,2022-08-17 14:24:09.250000
1627,10.26,2022-08-17 14:24:09.265625
1628,-14.14,2022-08-17 14:24:09.281250
1629,-47.67,2022-08-17 14:24:09.296875
1630,-86.89,2022-08-17 14:24:09.312500
1631,-125.27,2022-08-17 14:24:09.328125
1632,-155.61,2022-08-17 14:24:09.343750
1633,-172.01,2022-08-17 14:24:09.359375
1634,-171.71,2022-08-17 14:24:09.375000
1635,-156.54,2022-08-17 14:24:09.390625
1636,-133.28,2022-08-17 14:24:09.406250
1637,-112.09,2022-08-17 14:24:09.421875
1638,-103.54,2022-08-17 14:24:09.437500
1639,-113.58,2022-08-17 14:24:09.453125
1640,-140.04,2022-08-17 14:24:09.468750
1641,-172.76,2022-08-17 14:24:09.484375
1642,-197.83,2022-08-17 14:24:09.500000
1643,-203.97,2022-08-17 14:24:09.515625
1644,-187.74,2022-08-17 14:24:09.531250
1645,-154.47,2022-08-17 14:24:09.546875
1646,-114.33,2022-08-17 14:24:09.562500
1647,-77.18,2022-08-17 14:24:09.578125
1648,-48.05,2022-08-17 14:24:09.593750
1649,-25.9,2022-08-17 14:24:09.609375
1650,-6.32,2022-08-17 14:24:09.625000
1651,14.67,2022-08-17 14:24:09.640625
1652,38.04,2022-08-17 14:24:09.656250
1653,61.78,2022-08-17 14:24:09.671875
1654,81.4,2022-08-17 14:24:09.687500
1655,95.61,2022-08-17 14:24:09.703125
1656,105.76,2022-08-17 14:24:09.718750
1657,114.58,2022-08-17 14:24:09.734375
1658,124.64,2022-08-17 14:24:09.750000
1659,136.2,2022-08-17 14:24:09.765625
1660,147.13,2022-08-17 14:24:09.781250
1661,154.05,2022-08-17 14:24:09.796875
1662,154.19,2022-08-17 14:24:09.812500
1663,147.05,2022-08-17 14:24:09.828125
1664,134.6,2022-08-17 14:24:09.843750
1665,120.14,2022-08-17 14:24:09.859375
1666,106.76,2022-08-17 14:24:09.875000
1667,96.73,2022-08-17 14:24:09.890625
1668,90.46,2022-08-17 14:24:09.906250
1669,87.02,2022-08-17 14:24:09.921875
1670,84.96,2022-08-17 14:24:09.937500
1671,83.08,2022-08-17 14:24:09.953125
1672,80.8,2022-08-17 14:24:09.968750
1673,77.83,2022-08-17 14:24:09.984375
1674,75.3,2022-08-17 14:24:10.000000
1675,70.96,2022-08-17 14:24:10.015625
1676,63.04,2022-08-17 14:24:10.031250
1677,50.47,2022-08-17 14:24:10.046875
1678,33.6,2022-08-17 14:24:10.062500
1679,14.05,2022-08-17 14:24:10.078125
1680,-5.82,2022-08-17 14:24:10.093750
1681,-23.85,2022-08-17 14:24:10.109375
1682,-38.66,2022-08-17 14:24:10.125000
1683,-49.67,2022-08-17 14:24:10.140625
1684,-56.9,2022-08-17 14:24:10.156250
1685,-59.88,2022-08-17 14:24:10.171875
1686,-59.2,2022-08-17 14:24:10.187500
1687,-56.43,2022-08-17 14:24:10.203125
1688,-54.06,2022-08-17 14:24:10.218750
1689,-54.32,2022-08-17 14:24:10.234375
1690,-57.48,2022-08-17 14:24:10.250000
1691,-61.43,2022-08-17 14:24:10.265625
1692,-62.72,2022-08-17 14:24:10.281250
1693,-59.25,2022-08-17 14:24:10.296875
1694,-51.6,2022-08-17 14:24:10.312500
1695,-43.71,2022-08-17 14:24:10.328125
1696,-40.65,2022-08-17 14:24:10.343750
1697,-46.16,2022-08-17 14:24:10.359375
1698,-60.11,2022-08-17 14:24:10.375000
1699,-77.94,2022-08-17 14:24:10.390625
1700,-93.24,2022-08-17 14:24:10.406250
1701,-101.46,2022-08-17 14:24:10.421875
1702,-104.06,2022-08-17 14:24:10.437500
1703,-104.25,2022-08-17 14:24:10.453125
1704,-110.25,2022-08-17 14:24:10.468750
1705,-129.15,2022-08-17 14:24:10.484375
1706,-162.9,2022-08-17 14:24:10.500000
1707,-206.42,2022-08-17 14:24:10.515625
1708,-247.74,2022-08-17 14:24:10.531250
1709,-272.34,2022-08-17 14:24:10.546875
1710,-269.51,2022-08-17 14:24:10.562500
1711,-237.23,2022-08-17 14:24:10.578125
1712,-182.92,2022-08-17 14:24:10.593750
1713,-119.92,2022-08-17 14:24:10.609375
1714,-61.33,2022-08-17 14:24:10.625000
1715,-13.59,2022-08-17 14:24:10.640625
1716,22.58,2022-08-17 14:24:10.656250
1717,53.59,2022-08-17 14:24:10.671875
1718,87.69,2022-08-17 14:24:10.687500
1719,129.09,2022-08-17 14:24:10.703125
1720,174.93,2022-08-17 14:24:10.718750
1721,217.45,2022-08-17 14:24:10.734375
1722,249.48,2022-08-17 14:24:10.750000
1723,267.86,2022-08-17 14:24:10.765625
1724,273.83,2022-08-17 14:24:10.781250
1725,270.41,2022-08-17 14:24:10.796875
1726,259.35,2022-08-17 14:24:10.812500
1727,239.28,2022-08-17 14:24:10.828125
1728,208.14,2022-08-17 14:24:10.843750
1729,166.67,2022-08-17 14:24:10.859375
1730,121.03,2022-08-17 14:24:10.875000
1731,82.57,2022-08-17 14:24:10.890625
1732,62.15,2022-08-17 14:24:10.906250
1733,64.76,2022-08-17 14:24:10.921875
1734,87.94,2022-08-17 14:24:10.937500
1735,124.68,2022-08-17 14:24:10.953125
1736,167.11,2022-08-17 14:24:10.968750
1737,211.15,2022-08-17 14:24:10.984375
1738,257.49,2022-08-17 14:24:11.000000
1739,297.27,2022-08-17 14:24:11.015625
1740,321.72,2022-08-17 14:24:11.031250
1741,321.42,2022-08-17 14:24:11.046875
1742,289.58,2022-08-17 14:24:11.062500
1743,226.01,2022-08-17 14:24:11.078125
1744,138.33,2022-08-17 14:24:11.093750
1745,39.26,2022-08-17 14:24:11.109375
1746,-57.2,2022-08-17 14:24:11.125000
1747,-139.6,2022-08-17 14:24:11.140625
1748,-201.39,2022-08-17 14:24:11.156250
1749,-239.55,2022-08-17 14:24:11.171875
1750,-254.13,2022-08-17 14:24:11.187500
1751,-248.46,2022-08-17 14:24:11.203125
1752,-225.13,2022-08-17 14:24:11.218750
1753,-186.69,2022-08-17 14:24:11.234375
1754,-138.31,2022-08-17 14:24:11.250000
1755,-87.57,2022-08-17 14:24:11.265625
1756,-42.5,2022-08-17 14:24:11.281250
1757,-8.41,2022-08-17 14:24:11.296875
1758,15.43,2022-08-17 14:24:11.312500
1759,33.44,2022-08-17 14:24:11.328125
1760,50.76,2022-08-17 14:24:11.343750
1761,66.24,2022-08-17 14:24:11.359375
1762,77.09,2022-08-17 14:24:11.375000
1763,77.32,2022-08-17 14:24:11.390625
1764,60.56,2022-08-17 14:24:11.406250
1765,23.38,2022-08-17 14:24:11.421875
1766,-31.8,2022-08-17 14:24:11.437500
1767,-95.86,2022-08-17 14:24:11.453125
1768,-156.48,2022-08-17 14:24:11.468750
1769,-201.87,2022-08-17 14:24:11.484375
1770,-223.29,2022-08-17 14:24:11.500000
1771,-217.2,2022-08-17 14:24:11.515625
1772,-187.26,2022-08-17 14:24:11.531250
1773,-141.53,2022-08-17 14:24:11.546875
1774,-93.49,2022-08-17 14:24:11.562500
1775,-56.67,2022-08-17 14:24:11.578125
1776,-35.96,2022-08-17 14:24:11.593750
1777,-27.99,2022-08-17 14:24:11.609375
1778,-26.09,2022-08-17 14:24:11.625000
1779,-24.74,2022-08-17 14:24:11.640625
1780,-18.67,2022-08-17 14:24:11.656250
1781,-4.72,2022-08-17 14:24:11.671875
1782,19.0,2022-08-17 14:24:11.687500
1783,53.58,2022-08-17 14:24:11.703125
1784,99.86,2022-08-17 14:24:11.718750
1785,153.1,2022-08-17 14:24:11.734375
1786,203.33,2022-08-17 14:24:11.750000
1787,236.93,2022-08-17 14:24:11.765625
1788,242.92,2022-08-17 14:24:11.781250
1789,218.78,2022-08-17 14:24:11.796875
1790,171.32,2022-08-17 14:24:11.812500
1791,113.4,2022-08-17 14:24:11.828125
1792,58.06,2022-08-17 14:24:11.843750
1793,13.92,2022-08-17 14:24:11.859375
1794,-17.03,2022-08-17 14:24:11.875000
1795,-37.91,2022-08-17 14:24:11.890625
1796,-53.47,2022-08-17 14:24:11.906250
1797,-66.29,2022-08-17 14:24:11.921875
1798,-75.62,2022-08-17 14:24:11.937500
1799,-79.45,2022-08-17 14:24:11.953125
1800,-76.71,2022-08-17 14:24:11.968750
1801,-68.75,2022-08-17 14:24:11.984375
1802,-58.55,2022-08-17 14:24:12.000000
1803,-49.44,2022-08-17 14:24:12.015625
1804,-43.59,2022-08-17 14:24:12.031250
1805,-41.65,2022-08-17 14:24:12.046875
1806,-42.81,2022-08-17 14:24:12.062500
1807,-45.36,2022-08-17 14:24:12.078125
1808,-47.69,2022-08-17 14:24:12.093750
1809,-48.88,2022-08-17 14:24:12.109375
1810,-48.97,2022-08-17 14:24:12.125000
1811,-48.6,2022-08-17 14:24:12.140625
1812,-48.83,2022-08-17 14:24:12.156250
1813,-50.32,2022-08-17 14:24:12.171875
1814,-52.84,2022-08-17 14:24:12.187500
1815,-54.8,2022-08-17 14:24:12.203125
1816,-54.08,2022-08-17 14:24:12.218750
1817,-49.16,2022-08-17 14:24:12.234375
1818,-40.09,2022-08-17 14:24:12.250000
1819,-28.77,2022-08-17 14:24:12.265625
1820,-17.75,2022-08-17 14:24:12.281250
1821,-9.21,2022-08-17 14:24:12.296875
1822,-3.77,2022-08-17 14:24:12.312500
1823,-0.33,2022-08-17 14:24:12.328125
1824,3.33,2022-08-17 14:24:12.343750
1825,9.18,2022-08-17 14:24:12.359375
1826,17.89,2022-08-17 14:24:12.375000
1827,28.13,2022-08-17 14:24:12.390625
1828,37.02,2022-08-17 14:24:12.406250
1829,41.84,2022-08-17 14:24:12.421875
1830,40.52,2022-08-17 14:24:12.437500
1831,32.35,2022-08-17 14:24:12.453125
1832,18.14,2022-08-17 14:24:12.468750
1833,-0.28,2022-08-17 14:24:12.484375
1834,-20.4,2022-08-17 14:24:12.500000
1835,-39.42,2022-08-17 14:24:12.515625
1836,-54.48,2022-08-17 14:24:12.531250
1837,-63.3,2022-08-17 14:24:12.546875
1838,-64.52,2022-08-17 14:24:12.562500
1839,-58.68,2022-08-17 14:24:12.578125
1840,-48.32,2022-08-17 14:24:12.593750
1841,-37.2,2022-08-17 14:24:12.609375
1842,-28.87,2022-08-17 14:24:12.625000
1843,-25.12,2022-08-17 14:24:12.640625
1844,-25.23,2022-08-17 14:24:12.656250
1845,-25.73,2022-08-17 14:24:12.671875
1846,-23.99,2022-08-17 14:24:12.687500
1847,-18.29,2022-08-17 14:24:12.703125
1848,-8.98,2022-08-17 14:24:12.718750
1849,2.03,2022-08-17 14:24:12.734375
1850,12.57,2022-08-17 14:24:12.750000
1851,21.42,2022-08-17 14:24:12.765625
1852,28.75,2022-08-17 14:24:12.781250
1853,35.42,2022-08-17 14:24:12.796875
1854,42.34,2022-08-17 14:24:12.812500
1855,49.54,2022-08-17 14:24:12.828125
1856,56.48,2022-08-17 14:24:12.843750
1857,62.26,2022-08-17 14:24:12.859375
1858,66.51,2022-08-17 14:24:12.875000
1859,69.58,2022-08-17 14:24:12.890625
1860,72.05,2022-08-17 14:24:12.906250
1861,74.53,2022-08-17 14:24:12.921875
1862,76.97,2022-08-17 14:24:12.937500
1863,78.58,2022-08-17 14:24:12.953125
1864,77.99,2022-08-17 14:24:12.968750
1865,73.92,2022-08-17 14:24:12.984375
1866,65.6,2022-08-17 14:24:13.000000
1867,53.21,2022-08-17 14:24:13.015625
1868,37.77,2022-08-17 14:24:13.031250
1869,20.88,2022-08-17 14:24:13.046875
1870,4.77,2022-08-17 14:24:13.062500
1871,-9.34,2022-08-17 14:24:13.078125
1872,-20.81,2022-08-17 14:24:13.093750
1873,-29.65,2022-08-17 14:24:13.109375
1874,-36.21,2022-08-17 14:24:13.125000
1875,-41.0,2022-08-17 14:24:13.140625
1876,-44.36,2022-08-17 14:24:13.156250
1877,-46.46,2022-08-17 14:24:13.171875
1878,-47.29,2022-08-17 14:24:13.187500
1879,-46.82,2022-08-17 14:24:13.203125
1880,-45.28,2022-08-17 14:24:13.218750
1881,-43.04,2022-08-17 14:24:13.234375
1882,-40.54,2022-08-17 14:24:13.250000
1883,-38.21,2022-08-17 14:24:13.265625
1884,-36.35,2022-08-17 14:24:13.281250
1885,-35.03,2022-08-17 14:24:13.296875
1886,-34.13,2022-08-17 14:24:13.312500
1887,-33.43,2022-08-17 14:24:13.328125
1888,-32.72,2022-08-17 14:24:13.343750
1889,-31.94,2022-08-17 14:24:13.359375
1890,-31.09,2022-08-17 14:24:13.375000
1891,-30.26,2022-08-17 14:24:13.390625
1892,-29.55,2022-08-17 14:24:13.406250
1893,-29.03,2022-08-17 14:24:13.421875
1894,-28.71,2022-08-17 14:24:13.437500
1895,-28.58,2022-08-17 14:24:13.453125
1896,-28.63,2022-08-17 14:24:13.468750
1897,-28.89,2022-08-17 14:24:13.484375
1898,-29.39,2022-08-17 14:24:13.500000
1899,-30.61,2022-08-17 14:24:13.515625
1900,-32.36,2022-08-17 14:24:13.531250
1901,-34.63,2022-08-17 14:24:13.546875
1902,-37.37,2022-08-17 14:24:13.562500
1903,-40.36,2022-08-17 14:24:13.578125
1904,-43.26,2022-08-17 14:24:13.593750
1905,-45.61,2022-08-17 14:24:13.609375
1906,-47.35,2022-08-17 14:24:13.625000
1907,-47.69,2022-08-17 14:24:13.640625
1908,-46.24,2022-08-17 14:24:13.656250
1909,-42.74,2022-08-17 14:24:13.671875
1910,-37.23,2022-08-17 14:24:13.687500
1911,-29.9,2022-08-17 14:24:13.703125
1912,-21.14,2022-08-17 14:24:13.718750
1913,-11.49,2022-08-17 14:24:13.734375
1914,-1.61,2022-08-17 14:24:13.750000
1915,7.83,2022-08-17 14:24:13.765625
1916,16.28,2022-08-17 14:24:13.781250
1917,23.24,2022-08-17 14:24:13.796875
1918,28.48,2022-08-17 14:24:13.812500
1919,32.02,2022-08-17 14:24:13.828125
1920,34.09,2022-08-17 14:24:13.843750
1921,35.11,2022-08-17 14:24:13.859375
1922,35.52,2022-08-17 14:24:13.875000
1923,35.65,2022-08-17 14:24:13.890625
1924,35.69,2022-08-17 14:24:13.906250
1925,35.67,2022-08-17 14:24:13.921875
1926,35.39,2022-08-17 14:24:13.937500
1927,34.61,2022-08-17 14:24:13.953125
1928,33.24,2022-08-17 14:24:13.968750
1929,31.38,2022-08-17 14:24:13.984375
1930,29.24,2022-08-17 14:24:14.000000
1931,27.16,2022-08-17 14:24:14.015625
1932,25.44,2022-08-17 14:24:14.031250
1933,24.22,2022-08-17 14:24:14.046875
1934,23.51,2022-08-17 14:24:14.062500
1935,22.97,2022-08-17 14:24:14.078125
1936,22.27,2022-08-17 14:24:14.093750
1937,21.26,2022-08-17 14:24:14.109375
1938,19.88,2022-08-17 14:24:14.125000
1939,18.16,2022-08-17 14:24:14.140625
1940,15.97,2022-08-17 14:24:14.156250
1941,12.94,2022-08-17 14:24:14.171875
1942,8.3,2022-08-17 14:24:14.187500
1943,1.18,2022-08-17 14:24:14.203125
1944,-9.52,2022-08-17 14:24:14.218750
1945,-24.24,2022-08-17 14:24:14.234375
1946,-42.4,2022-08-17 14:24:14.250000
1947,-62.51,2022-08-17 14:24:14.265625
1948,-82.41,2022-08-17 14:24:14.281250
1949,-99.94,2022-08-17 14:24:14.296875
1950,-113.63,2022-08-17 14:24:14.312500
1951,-122.98,2022-08-17 14:24:14.328125
1952,-128.59,2022-08-17 14:24:14.343750
1953,-132.32,2022-08-17 14:24:14.359375
1954,-135.95,2022-08-17 14:24:14.375000
1955,-140.58,2022-08-17 14:24:14.390625
1956,-146.42,2022-08-17 14:24:14.406250
1957,-153.09,2022-08-17 14:24:14.421875
1958,-159.88,2022-08-17 14:24:14.437500
1959,-166.55,2022-08-17 14:24:14.453125
1960,-173.38,2022-08-17 14:24:14.468750
1961,-181.08,2022-08-17 14:24:14.484375
1962,-191.44,2022-08-17 14:24:14.500000
1963,-206.21,2022-08-17 14:24:14.515625
1964,-226.96,2022-08-17 14:24:14.531250
1965,-254.54,2022-08-17 14:24:14.546875
1966,-288.31,2022-08-17 14:24:14.562500
1967,-325.45,2022-08-17 14:24:14.578125
1968,-361.07,2022-08-17 14:24:14.593750
1969,-389.44,2022-08-17 14:24:14.609375
1970,-400.65,2022-08-17 14:24:14.625000
1971,-389.89,2022-08-17 14:24:14.640625
1972,-357.65,2022-08-17 14:24:14.656250
1973,-309.62,2022-08-17 14:24:14.671875
1974,-254.52,2022-08-17 14:24:14.687500
1975,-200.77,2022-08-17 14:24:14.703125
1976,-153.93,2022-08-17 14:24:14.718750
1977,-115.74,2022-08-17 14:24:14.734375
1978,-85.03,2022-08-17 14:24:14.750000
1979,-59.65,2022-08-17 14:24:14.765625
1980,-38.75,2022-08-17 14:24:14.781250
1981,-22.28,2022-08-17 14:24:14.796875
1982,-10.34,2022-08-17 14:24:14.812500
1983,-2.34,2022-08-17 14:24:14.828125
1984,3.3,2022-08-17 14:24:14.843750
1985,8.49,2022-08-17 14:24:14.859375
1986,14.58,2022-08-17 14:24:14.875000
1987,21.83,2022-08-17 14:24:14.890625
1988,29.54,2022-08-17 14:24:14.906250
1989,35.85,2022-08-17 14:24:14.921875
1990,39.4,2022-08-17 14:24:14.937500
1991,39.82,2022-08-17 14:24:14.953125
1992,37.83,2022-08-17 14:24:14.968750
1993,34.87,2022-08-17 14:24:14.984375
1994,32.41,2022-08-17 14:24:15.000000
1995,31.3,2022-08-17 14:24:15.015625
1996,31.59,2022-08-17 14:24:15.031250
1997,32.56,2022-08-17 14:24:15.046875
1998,32.87,2022-08-17 14:24:15.062500
1999,31.54,2022-08-17 14:24:15.078125
2000,28.28,2022-08-17 14:24:15.093750
2001,23.57,2022-08-17 14:24:15.109375
2002,18.38,2022-08-17 14:24:15.125000
2003,13.75,2022-08-17 14:24:15.140625
2004,10.35,2022-08-17 14:24:15.156250
2005,8.38,2022-08-17 14:24:15.171875
2006,7.56,2022-08-17 14:24:15.187500
2007,7.24,2022-08-17 14:24:15.203125
2008,6.86,2022-08-17 14:24:15.218750
2009,6.24,2022-08-17 14:24:15.234375
2010,5.48,2022-08-17 14:24:15.250000
2011,4.92,2022-08-17 14:24:15.265625
2012,4.88,2022-08-17 14:24:15.281250
2013,5.53,2022-08-17 14:24:15.296875
2014,6.77,2022-08-17 14:24:15.312500
2015,8.31,2022-08-17 14:24:15.328125
2016,9.73,2022-08-17 14:24:15.343750
2017,10.67,2022-08-17 14:24:15.359375
2018,10.99,2022-08-17 14:24:15.375000
2019,10.67,2022-08-17 14:24:15.390625
2020,9.87,2022-08-17 14:24:15.406250
2021,8.77,2022-08-17 14:24:15.421875
2022,7.58,2022-08-17 14:24:15.437500
2023,6.45,2022-08-17 14:24:15.453125
2024,5.46,2022-08-17 14:24:15.468750
2025,4.69,2022-08-17 14:24:15.484375
2026,4.19,2022-08-17 14:24:15.500000
2027,4.0,2022-08-17 14:24:15.515625
2028,4.18,2022-08-17 14:24:15.531250
2029,4.72,2022-08-17 14:24:15.546875
2030,5.62,2022-08-17 14:24:15.562500
2031,6.82,2022-08-17 14:24:15.578125
2032,8.24,2022-08-17 14:24:15.593750
2033,9.75,2022-08-17 14:24:15.609375
2034,11.23,2022-08-17 14:24:15.625000
2035,12.53,2022-08-17 14:24:15.640625
2036,13.54,2022-08-17 14:24:15.656250
2037,14.13,2022-08-17 14:24:15.671875
2038,14.21,2022-08-17 14:24:15.687500
2039,13.78,2022-08-17 14:24:15.703125
2040,12.83,2022-08-17 14:24:15.718750
2041,11.45,2022-08-17 14:24:15.734375
2042,9.76,2022-08-17 14:24:15.750000
2043,7.92,2022-08-17 14:24:15.765625
2044,6.11,2022-08-17 14:24:15.781250
2045,4.49,2022-08-17 14:24:15.796875
2046,3.21,2022-08-17 14:24:15.812500
2047,2.37,2022-08-17 14:24:15.828125
2048,2.02,2022-08-17 14:24:15.843750
2049,2.18,2022-08-17 14:24:15.859375
2050,2.79,2022-08-17 14:24:15.875000
2051,3.75,2022-08-17 14:24:15.890625
2052,4.96,2022-08-17 14:24:15.906250
2053,6.3,2022-08-17 14:24:15.921875
2054,7.65,2022-08-17 14:24:15.937500
2055,8.91,2022-08-17 14:24:15.953125
2056,10.0,2022-08-17 14:24:15.968750
2057,10.88,2022-08-17 14:24:15.984375
2058,11.51,2022-08-17 14:24:16.000000
2059,11.89,2022-08-17 14:24:16.015625
2060,12.05,2022-08-17 14:24:16.031250
2061,11.98,2022-08-17 14:24:16.046875
2062,11.75,2022-08-17 14:24:16.062500
2063,11.39,2022-08-17 14:24:16.078125
2064,10.92,2022-08-17 14:24:16.093750
2065,10.39,2022-08-17 14:24:16.109375
2066,9.82,2022-08-17 14:24:16.125000
2067,9.28,2022-08-17 14:24:16.140625
2068,8.82,2022-08-17 14:24:16.156250
2069,8.5,2022-08-17 14:24:16.171875
2070,8.41,2022-08-17 14:24:16.187500
2071,8.62,2022-08-17 14:24:16.203125
2072,9.21,2022-08-17 14:24:16.218750
2073,10.21,2022-08-17 14:24:16.234375
2074,11.67,2022-08-17 14:24:16.250000
2075,13.56,2022-08-17 14:24:16.265625
2076,15.81,2022-08-17 14:24:16.281250
2077,18.28,2022-08-17 14:24:16.296875
2078,20.77,2022-08-17 14:24:16.312500
2079,23.03,2022-08-17 14:24:16.328125
2080,24.81,2022-08-17 14:24:16.343750
2081,25.86,2022-08-17 14:24:16.359375
2082,25.99,2022-08-17 14:24:16.375000
2083,25.09,2022-08-17 14:24:16.390625
2084,23.17,2022-08-17 14:24:16.406250
2085,20.33,2022-08-17 14:24:16.421875
2086,16.79,2022-08-17 14:24:16.437500
2087,12.84,2022-08-17 14:24:16.453125
2088,8.78,2022-08-17 14:24:16.468750
2089,4.91,2022-08-17 14:24:16.484375
2090,1.5,2022-08-17 14:24:16.500000
2091,-1.24,2022-08-17 14:24:16.515625
2092,-3.17,2022-08-17 14:24:16.531250
2093,-4.22,2022-08-17 14:24:16.546875
2094,-4.37,2022-08-17 14:24:16.562500
2095,-3.66,2022-08-17 14:24:16.578125
2096,-2.23,2022-08-17 14:24:16.593750
2097,-0.23,2022-08-17 14:24:16.609375
2098,2.13,2022-08-17 14:24:16.625000
2099,4.64,2022-08-17 14:24:16.640625
2100,7.12,2022-08-17 14:24:16.656250
2101,9.45,2022-08-17 14:24:16.671875
2102,11.6,2022-08-17 14:24:16.687500
2103,13.64,2022-08-17 14:24:16.703125
2104,15.68,2022-08-17 14:24:16.718750
2105,17.8,2022-08-17 14:24:16.734375
2106,20.05,2022-08-17 14:24:16.750000
2107,22.43,2022-08-17 14:24:16.765625
2108,24.84,2022-08-17 14:24:16.781250
2109,27.23,2022-08-17 14:24:16.796875
2110,29.58,2022-08-17 14:24:16.812500
2111,31.97,2022-08-17 14:24:16.828125
2112,34.57,2022-08-17 14:24:16.843750
2113,37.51,2022-08-17 14:24:16.859375
2114,40.85,2022-08-17 14:24:16.875000
2115,44.49,2022-08-17 14:24:16.890625
2116,48.16,2022-08-17 14:24:16.906250
2117,51.47,2022-08-17 14:24:16.921875
2118,54.16,2022-08-17 14:24:16.937500
2119,56.14,2022-08-17 14:24:16.953125
2120,57.62,2022-08-17 14:24:16.968750
2121,59.06,2022-08-17 14:24:16.984375
2122,61.01,2022-08-17 14:24:17.000000
2123,63.89,2022-08-17 14:24:17.015625
2124,67.82,2022-08-17 14:24:17.031250
2125,72.63,2022-08-17 14:24:17.046875
2126,77.91,2022-08-17 14:24:17.062500
2127,83.34,2022-08-17 14:24:17.078125
2128,88.83,2022-08-17 14:24:17.093750
2129,94.73,2022-08-17 14:24:17.109375
2130,101.71,2022-08-17 14:24:17.125000
2131,110.52,2022-08-17 14:24:17.140625
2132,121.65,2022-08-17 14:24:17.156250
2133,135.09,2022-08-17 14:24:17.171875
2134,150.32,2022-08-17 14:24:17.187500
2135,166.52,2022-08-17 14:24:17.203125
2136,182.87,2022-08-17 14:24:17.218750
2137,198.89,2022-08-17 14:24:17.234375
2138,214.59,2022-08-17 14:24:17.250000
2139,230.44,2022-08-17 14:24:17.265625
2140,247.3,2022-08-17 14:24:17.281250
2141,266.31,2022-08-17 14:24:17.296875
2142,288.58,2022-08-17 14:24:17.312500
2143,314.75,2022-08-17 14:24:17.328125
2144,344.26,2022-08-17 14:24:17.343750
2145,374.97,2022-08-17 14:24:17.359375
2146,403.11,2022-08-17 14:24:17.375000
2147,424.22,2022-08-17 14:24:17.390625
2148,434.48,2022-08-17 14:24:17.406250
2149,432.15,2022-08-17 14:24:17.421875
2150,418.1,2022-08-17 14:24:17.437500
2151,395.44,2022-08-17 14:24:17.453125
2152,368.2,2022-08-17 14:24:17.468750
2153,339.86,2022-08-17 14:24:17.484375
2154,312.48,2022-08-17 14:24:17.500000
2155,286.7,2022-08-17 14:24:17.515625
2156,262.36,2022-08-17 14:24:17.531250
2157,239.22,2022-08-17 14:24:17.546875
2158,217.28,2022-08-17 14:24:17.562500
2159,196.8,2022-08-17 14:24:17.578125
2160,177.94,2022-08-17 14:24:17.593750
2161,160.73,2022-08-17 14:24:17.609375
2162,145.01,2022-08-17 14:24:17.625000
2163,130.67,2022-08-17 14:24:17.640625
2164,117.62,2022-08-17 14:24:17.656250
2165,105.75,2022-08-17 14:24:17.671875
2166,94.8,2022-08-17 14:24:17.687500
2167,84.37,2022-08-17 14:24:17.703125
2168,74.03,2022-08-17 14:24:17.718750
2169,63.54,2022-08-17 14:24:17.734375
2170,52.92,2022-08-17 14:24:17.750000
2171,42.51,2022-08-17 14:24:17.765625
2172,32.67,2022-08-17 14:24:17.781250
2173,23.68,2022-08-17 14:24:17.796875
2174,15.69,2022-08-17 14:24:17.812500
2175,8.83,2022-08-17 14:24:17.828125
2176,3.15,2022-08-17 14:24:17.843750
2177,-1.2,2022-08-17 14:24:17.859375
2178,-4.15,2022-08-17 14:24:17.875000
2179,-5.92,2022-08-17 14:24:17.890625
2180,-6.93,2022-08-17 14:24:17.906250
2181,-7.88,2022-08-17 14:24:17.921875
2182,-9.4,2022-08-17 14:24:17.937500
2183,-11.9,2022-08-17 14:24:17.953125
2184,-15.28,2022-08-17 14:24:17.968750
2185,-19.09,2022-08-17 14:24:17.984375
2186,-22.61,2022-08-17 14:24:18.000000
2187,-25.22,2022-08-17 14:24:18.015625
2188,-26.64,2022-08-17 14:24:18.031250
2189,-26.98,2022-08-17 14:24:18.046875
2190,-26.65,2022-08-17 14:24:18.062500
2191,-26.12,2022-08-17 14:24:18.078125
2192,-25.71,2022-08-17 14:24:18.093750
2193,-25.41,2022-08-17 14:24:18.109375
2194,-25.01,2022-08-17 14:24:18.125000
2195,-24.34,2022-08-17 14:24:18.140625
2196,-23.42,2022-08-17 14:24:18.156250
2197,-22.52,2022-08-17 14:24:18.171875
2198,-22.01,2022-08-17 14:24:18.187500
2199,-22.15,2022-08-17 14:24:18.203125
2200,-22.85,2022-08-17 14:24:18.218750
2201,-23.71,2022-08-17 14:24:18.234375
2202,-24.17,2022-08-17 14:24:18.250000
2203,-23.76,2022-08-17 14:24:18.265625
2204,-22.42,2022-08-17 14:24:18.281250
2205,-20.61,2022-08-17 14:24:18.296875
2206,-19.12,2022-08-17 14:24:18.312500
2207,-18.7,2022-08-17 14:24:18.328125
2208,-19.75,2022-08-17 14:24:18.343750
2209,-22.05,2022-08-17 14:24:18.359375
2210,-24.87,2022-08-17 14:24:18.375000
2211,-27.29,2022-08-17 14:24:18.390625
2212,-28.54,2022-08-17 14:24:18.406250
2213,-28.4,2022-08-17 14:24:18.421875
2214,-27.15,2022-08-17 14:24:18.437500
2215,-25.42,2022-08-17 14:24:18.453125
2216,-23.75,2022-08-17 14:24:18.468750
2217,-22.5,2022-08-17 14:24:18.484375
2218,-21.64,2022-08-17 14:24:18.500000
2219,-20.94,2022-08-17 14:24:18.515625
2220,-20.17,2022-08-17 14:24:18.531250
2221,-19.12,2022-08-17 14:24:18.546875
2222,-17.72,2022-08-17 14:24:18.562500
2223,-15.98,2022-08-17 14:24:18.578125
2224,-14.03,2022-08-17 14:24:18.593750
2225,-12.1,2022-08-17 14:24:18.609375
2226,-10.55,2022-08-17 14:24:18.625000
2227,-9.74,2022-08-17 14:24:18.640625
2228,-9.97,2022-08-17 14:24:18.656250
2229,-11.36,2022-08-17 14:24:18.671875
2230,-13.68,2022-08-17 14:24:18.687500
2231,-16.37,2022-08-17 14:24:18.703125
2232,-18.74,2022-08-17 14:24:18.718750
2233,-20.15,2022-08-17 14:24:18.734375
2234,-20.35,2022-08-17 14:24:18.750000
2235,-19.5,2022-08-17 14:24:18.765625
2236,-18.14,2022-08-17 14:24:18.781250
2237,-16.93,2022-08-17 14:24:18.796875
2238,-16.33,2022-08-17 14:24:18.812500
2239,-16.34,2022-08-17 14:24:18.828125
2240,-16.54,2022-08-17 14:24:18.843750
2241,-16.23,2022-08-17 14:24:18.859375
2242,-14.9,2022-08-17 14:24:18.875000
2243,-12.44,2022-08-17 14:24:18.890625
2244,-9.26,2022-08-17 14:24:18.906250
2245,-6.15,2022-08-17 14:24:18.921875
2246,-3.99,2022-08-17 14:24:18.937500
2247,-3.49,2022-08-17 14:24:18.953125
2248,-4.94,2022-08-17 14:24:18.968750
2249,-8.21,2022-08-17 14:24:18.984375
2250,-12.73,2022-08-17 14:24:19.000000
2251,-17.71,2022-08-17 14:24:19.015625
2252,-22.27,2022-08-17 14:24:19.031250
2253,-25.83,2022-08-17 14:24:19.046875
2254,-28.15,2022-08-17 14:24:19.062500
2255,-29.34,2022-08-17 14:24:19.078125
2256,-29.74,2022-08-17 14:24:19.093750
2257,-29.7,2022-08-17 14:24:19.109375
2258,-29.46,2022-08-17 14:24:19.125000
2259,-29.08,2022-08-17 14:24:19.140625
2260,-28.55,2022-08-17 14:24:19.156250
2261,-27.92,2022-08-17 14:24:19.171875
2262,-27.37,2022-08-17 14:24:19.187500
2263,-27.06,2022-08-17 14:24:19.203125
2264,-26.98,2022-08-17 14:24:19.218750
2265,-26.86,2022-08-17 14:24:19.234375
2266,-26.4,2022-08-17 14:24:19.250000
2267,-25.4,2022-08-17 14:24:19.265625
2268,-24.04,2022-08-17 14:24:19.281250
2269,-22.96,2022-08-17 14:24:19.296875
2270,-22.84,2022-08-17 14:24:19.312500
2271,-23.98,2022-08-17 14:24:19.328125
2272,-26.01,2022-08-17 14:24:19.343750
2273,-27.88,2022-08-17 14:24:19.359375
2274,-28.41,2022-08-17 14:24:19.375000
2275,-26.79,2022-08-17 14:24:19.390625
2276,-23.17,2022-08-17 14:24:19.406250
2277,-18.45,2022-08-17 14:24:19.421875
2278,-13.98,2022-08-17 14:24:19.437500
2279,-10.78,2022-08-17 14:24:19.453125
2280,-9.19,2022-08-17 14:24:19.468750
2281,-8.82,2022-08-17 14:24:19.484375
2282,-8.86,2022-08-17 14:24:19.500000
2283,-8.56,2022-08-17 14:24:19.515625
2284,-7.55,2022-08-17 14:24:19.531250
2285,-5.9,2022-08-17 14:24:19.546875
2286,-3.92,2022-08-17 14:24:19.562500
2287,-1.77,2022-08-17 14:24:19.578125
2288,0.65,2022-08-17 14:24:19.593750
2289,3.67,2022-08-17 14:24:19.609375
2290,7.57,2022-08-17 14:24:19.625000
2291,12.22,2022-08-17 14:24:19.640625
2292,16.88,2022-08-17 14:24:19.656250
2293,20.39,2022-08-17 14:24:19.671875
2294,21.75,2022-08-17 14:24:19.687500
2295,20.63,2022-08-17 14:24:19.703125
2296,17.69,2022-08-17 14:24:19.718750
2297,14.34,2022-08-17 14:24:19.734375
2298,11.78,2022-08-17 14:24:19.750000
2299,10.38,2022-08-17 14:24:19.765625
2300,9.4,2022-08-17 14:24:19.781250
2301,7.36,2022-08-17 14:24:19.796875
2302,3.02,2022-08-17 14:24:19.812500
2303,-3.68,2022-08-17 14:24:19.828125
2304,-11.64,2022-08-17 14:24:19.843750
2305,-19.04,2022-08-17 14:24:19.859375
2306,-24.4,2022-08-17 14:24:19.875000
2307,-27.22,2022-08-17 14:24:19.890625
2308,-28.04,2022-08-17 14:24:19.906250
2309,-27.79,2022-08-17 14:24:19.921875
2310,-27.15,2022-08-17 14:24:19.937500
2311,-26.28,2022-08-17 14:24:19.953125
2312,-24.92,2022-08-17 14:24:19.968750
2313,-22.96,2022-08-17 14:24:19.984375
2314,-20.58,2022-08-17 14:24:20.000000
2315,-18.28,2022-08-17 14:24:20.015625
2316,-16.59,2022-08-17 14:24:20.031250
2317,-15.76,2022-08-17 14:24:20.046875
2318,-15.76,2022-08-17 14:24:20.062500
2319,-16.31,2022-08-17 14:24:20.078125
2320,-17.13,2022-08-17 14:24:20.093750
2321,-18.02,2022-08-17 14:24:20.109375
2322,-18.94,2022-08-17 14:24:20.125000
2323,-19.77,2022-08-17 14:24:20.140625
2324,-20.44,2022-08-17 14:24:20.156250
2325,-20.8,2022-08-17 14:24:20.171875
2326,-20.86,2022-08-17 14:24:20.187500
2327,-20.69,2022-08-17 14:24:20.203125
2328,-20.52,2022-08-17 14:24:20.218750
2329,-20.5,2022-08-17 14:24:20.234375
2330,-20.67,2022-08-17 14:24:20.250000
2331,-20.83,2022-08-17 14:24:20.265625
2332,-20.6,2022-08-17 14:24:20.281250
2333,-19.59,2022-08-17 14:24:20.296875
2334,-17.6,2022-08-17 14:24:20.312500
2335,-14.76,2022-08-17 14:24:20.328125
2336,-11.67,2022-08-17 14:24:20.343750
2337,-9.06,2022-08-17 14:24:20.359375
2338,-7.54,2022-08-17 14:24:20.375000
2339,-7.27,2022-08-17 14:24:20.390625
2340,-7.91,2022-08-17 14:24:20.406250
2341,-8.83,2022-08-17 14:24:20.421875
2342,-9.5,2022-08-17 14:24:20.437500
2343,-9.78,2022-08-17 14:24:20.453125
2344,-9.87,2022-08-17 14:24:20.468750
2345,-10.1,2022-08-17 14:24:20.484375
2346,-10.61,2022-08-17 14:24:20.500000
2347,-11.18,2022-08-17 14:24:20.515625
2348,-11.35,2022-08-17 14:24:20.531250
2349,-10.78,2022-08-17 14:24:20.546875
2350,-9.53,2022-08-17 14:24:20.562500
2351,-8.11,2022-08-17 14:24:20.578125
2352,-7.18,2022-08-17 14:24:20.593750
2353,-7.14,2022-08-17 14:24:20.609375
2354,-7.9,2022-08-17 14:24:20.625000
2355,-8.82,2022-08-17 14:24:20.640625
2356,-9.18,2022-08-17 14:24:20.656250
2357,-8.49,2022-08-17 14:24:20.671875
2358,-6.81,2022-08-17 14:24:20.687500
2359,-4.66,2022-08-17 14:24:20.703125
2360,-2.75,2022-08-17 14:24:20.718750
2361,-1.7,2022-08-17 14:24:20.734375
2362,-1.85,2022-08-17 14:24:20.750000
2363,-3.24,2022-08-17 14:24:20.765625
2364,-5.66,2022-08-17 14:24:20.781250
2365,-8.71,2022-08-17 14:24:20.796875
2366,-11.75,2022-08-17 14:24:20.812500
2367,-13.91,2022-08-17 14:24:20.828125
2368,-14.34,2022-08-17 14:24:20.843750
2369,-12.34,2022-08-17 14:24:20.859375
2370,-7.83,2022-08-17 14:24:20.875000
2371,-1.5,2022-08-17 14:24:20.890625
2372,5.31,2022-08-17 14:24:20.906250
2373,10.97,2022-08-17 14:24:20.921875
2374,14.07,2022-08-17 14:24:20.937500
2375,13.83,2022-08-17 14:24:20.953125
2376,10.39,2022-08-17 14:24:20.968750
2377,4.63,2022-08-17 14:24:20.984375
2378,-2.08,2022-08-17 14:24:21.000000
2379,-8.31,2022-08-17 14:24:21.015625
2380,-12.96,2022-08-17 14:24:21.031250
2381,-15.49,2022-08-17 14:24:21.046875
2382,-16.01,2022-08-17 14:24:21.062500
2383,-15.16,2022-08-17 14:24:21.078125
2384,-14.0,2022-08-17 14:24:21.093750
2385,-13.48,2022-08-17 14:24:21.109375
2386,-14.32,2022-08-17 14:24:21.125000
2387,-16.61,2022-08-17 14:24:21.140625
2388,-19.76,2022-08-17 14:24:21.156250
2389,-22.8,2022-08-17 14:24:21.171875
2390,-24.69,2022-08-17 14:24:21.187500
2391,-24.87,2022-08-17 14:24:21.203125
2392,-23.46,2022-08-17 14:24:21.218750
2393,-21.2,2022-08-17 14:24:21.234375
2394,-19.06,2022-08-17 14:24:21.250000
2395,-17.84,2022-08-17 14:24:21.265625
2396,-17.68,2022-08-17 14:24:21.281250
2397,-18.14,2022-08-17 14:24:21.296875
2398,-18.34,2022-08-17 14:24:21.312500
2399,-17.45,2022-08-17 14:24:21.328125
2400,-15.03,2022-08-17 14:24:21.343750
2401,-11.13,2022-08-17 14:24:21.359375
2402,-6.29,2022-08-17 14:24:21.375000
2403,-1.2,2022-08-17 14:24:21.390625
2404,3.55,2022-08-17 14:24:21.406250
2405,7.57,2022-08-17 14:24:21.421875
2406,10.54,2022-08-17 14:24:21.437500
2407,12.25,2022-08-17 14:24:21.453125
2408,12.66,2022-08-17 14:24:21.468750
2409,12.13,2022-08-17 14:24:21.484375
2410,11.63,2022-08-17 14:24:21.500000
2411,12.53,2022-08-17 14:24:21.515625
2412,15.99,2022-08-17 14:24:21.531250
2413,21.99,2022-08-17 14:24:21.546875
2414,28.72,2022-08-17 14:24:21.562500
2415,32.89,2022-08-17 14:24:21.578125
2416,30.92,2022-08-17 14:24:21.593750
2417,20.78,2022-08-17 14:24:21.609375
2418,3.16,2022-08-17 14:24:21.625000
2419,-18.55,2022-08-17 14:24:21.640625
2420,-39.52,2022-08-17 14:24:21.656250
2421,-55.47,2022-08-17 14:24:21.671875
2422,-64.19,2022-08-17 14:24:21.687500
2423,-65.96,2022-08-17 14:24:21.703125
2424,-62.8,2022-08-17 14:24:21.718750
2425,-57.06,2022-08-17 14:24:21.734375
2426,-50.35,2022-08-17 14:24:21.750000
2427,-43.16,2022-08-17 14:24:21.765625
2428,-35.29,2022-08-17 14:24:21.781250
2429,-26.56,2022-08-17 14:24:21.796875
2430,-17.34,2022-08-17 14:24:21.812500
2431,-8.61,2022-08-17 14:24:21.828125
2432,-1.53,2022-08-17 14:24:21.843750
2433,3.16,2022-08-17 14:24:21.859375
2434,5.37,2022-08-17 14:24:21.875000
2435,5.73,2022-08-17 14:24:21.890625
2436,5.33,2022-08-17 14:24:21.906250
2437,5.19,2022-08-17 14:24:21.921875
2438,5.82,2022-08-17 14:24:21.937500
2439,7.12,2022-08-17 14:24:21.953125
2440,8.51,2022-08-17 14:24:21.968750
2441,9.36,2022-08-17 14:24:21.984375
2442,9.33,2022-08-17 14:24:22.000000
2443,8.53,2022-08-17 14:24:22.015625
2444,7.38,2022-08-17 14:24:22.031250
2445,6.4,2022-08-17 14:24:22.046875
2446,5.82,2022-08-17 14:24:22.062500
2447,5.47,2022-08-17 14:24:22.078125
2448,4.89,2022-08-17 14:24:22.093750
2449,3.51,2022-08-17 14:24:22.109375
2450,0.96,2022-08-17 14:24:22.125000
2451,-2.75,2022-08-17 14:24:22.140625
2452,-7.2,2022-08-17 14:24:22.156250
2453,-11.72,2022-08-17 14:24:22.171875
2454,-15.59,2022-08-17 14:24:22.187500
2455,-18.32,2022-08-17 14:24:22.203125
2456,-19.85,2022-08-17 14:24:22.218750
2457,-20.43,2022-08-17 14:24:22.234375
2458,-20.61,2022-08-17 14:24:22.250000
2459,-20.91,2022-08-17 14:24:22.265625
2460,-21.74,2022-08-17 14:24:22.281250
2461,-23.24,2022-08-17 14:24:22.296875
2462,-25.23,2022-08-17 14:24:22.312500
2463,-27.17,2022-08-17 14:24:22.328125
2464,-28.34,2022-08-17 14:24:22.343750
2465,-28.05,2022-08-17 14:24:22.359375
2466,-25.96,2022-08-17 14:24:22.375000
2467,-22.35,2022-08-17 14:24:22.390625
2468,-18.06,2022-08-17 14:24:22.406250
2469,-14.15,2022-08-17 14:24:22.421875
2470,-11.48,2022-08-17 14:24:22.437500
2471,-10.31,2022-08-17 14:24:22.453125
2472,-10.21,2022-08-17 14:24:22.468750
2473,-10.41,2022-08-17 14:24:22.484375
2474,-10.1,2022-08-17 14:24:22.500000
2475,-8.72,2022-08-17 14:24:22.515625
2476,-6.03,2022-08-17 14:24:22.531250
2477,-1.98,2022-08-17 14:24:22.546875
2478,3.32,2022-08-17 14:24:22.562500
2479,9.55,2022-08-17 14:24:22.578125
2480,15.98,2022-08-17 14:24:22.593750
2481,21.57,2022-08-17 14:24:22.609375
2482,25.13,2022-08-17 14:24:22.625000
2483,25.79,2022-08-17 14:24:22.640625
2484,23.42,2022-08-17 14:24:22.656250
2485,18.63,2022-08-17 14:24:22.671875
2486,12.59,2022-08-17 14:24:22.687500
2487,6.52,2022-08-17 14:24:22.703125
2488,1.29,2022-08-17 14:24:22.718750
2489,-2.74,2022-08-17 14:24:22.734375
2490,-5.65,2022-08-17 14:24:22.750000
2491,-7.7,2022-08-17 14:24:22.765625
2492,-9.02,2022-08-17 14:24:22.781250
2493,-9.77,2022-08-17 14:24:22.796875
2494,-10.05,2022-08-17 14:24:22.812500
2495,-10.09,2022-08-17 14:24:22.828125
2496,-10.19,2022-08-17 14:24:22.843750
2497,-10.61,2022-08-17 14:24:22.859375
2498,-11.27,2022-08-17 14:24:22.875000
2499,-11.92,2022-08-17 14:24:22.890625
2500,-12.22,2022-08-17 14:24:22.906250
2501,-11.94,2022-08-17 14:24:22.921875
2502,-11.17,2022-08-17 14:24:22.937500
2503,-10.31,2022-08-17 14:24:22.953125
2504,-9.76,2022-08-17 14:24:22.968750
2505,-9.68,2022-08-17 14:24:22.984375
2506,-9.97,2022-08-17 14:24:23.000000
2507,-10.3,2022-08-17 14:24:23.015625
2508,-10.35,2022-08-17 14:24:23.031250
2509,-9.82,2022-08-17 14:24:23.046875
2510,-8.4,2022-08-17 14:24:23.062500
2511,-5.66,2022-08-17 14:24:23.078125
2512,-1.03,2022-08-17 14:24:23.093750
2513,5.89,2022-08-17 14:24:23.109375
2514,14.74,2022-08-17 14:24:23.125000
2515,24.07,2022-08-17 14:24:23.140625
2516,31.69,2022-08-17 14:24:23.156250
2517,35.4,2022-08-17 14:24:23.171875
2518,33.97,2022-08-17 14:24:23.187500
2519,27.62,2022-08-17 14:24:23.203125
2520,17.73,2022-08-17 14:24:23.218750
2521,6.29,2022-08-17 14:24:23.234375
2522,-4.97,2022-08-17 14:24:23.250000
2523,-14.86,2022-08-17 14:24:23.265625
2524,-22.67,2022-08-17 14:24:23.281250
2525,-27.9,2022-08-17 14:24:23.296875
2526,-30.16,2022-08-17 14:24:23.312500
2527,-29.3,2022-08-17 14:24:23.328125
2528,-25.8,2022-08-17 14:24:23.343750
2529,-20.89,2022-08-17 14:24:23.359375
2530,-16.22,2022-08-17 14:24:23.375000
2531,-13.22,2022-08-17 14:24:23.390625
2532,-12.55,2022-08-17 14:24:23.406250
2533,-13.9,2022-08-17 14:24:23.421875
2534,-16.31,2022-08-17 14:24:23.437500
2535,-18.75,2022-08-17 14:24:23.453125
2536,-20.59,2022-08-17 14:24:23.468750
2537,-21.6,2022-08-17 14:24:23.484375
2538,-21.8,2022-08-17 14:24:23.500000
2539,-21.26,2022-08-17 14:24:23.515625
2540,-20.03,2022-08-17 14:24:23.531250
2541,-18.12,2022-08-17 14:24:23.546875
2542,-15.62,2022-08-17 14:24:23.562500
2543,-12.67,2022-08-17 14:24:23.578125
2544,-9.42,2022-08-17 14:24:23.593750
2545,-6.16,2022-08-17 14:24:23.609375
2546,-3.08,2022-08-17 14:24:23.625000
2547,-0.6,2022-08-17 14:24:23.640625
2548,0.98,2022-08-17 14:24:23.656250
2549,1.51,2022-08-17 14:24:23.671875
2550,1.13,2022-08-17 14:24:23.687500
2551,0.28,2022-08-17 14:24:23.703125
2552,-0.54,2022-08-17 14:24:23.718750
2553,-1.12,2022-08-17 14:24:23.734375
2554,-1.68,2022-08-17 14:24:23.750000
2555,-2.71,2022-08-17 14:24:23.765625
2556,-4.71,2022-08-17 14:24:23.781250
2557,-7.6,2022-08-17 14:24:23.796875
2558,-10.76,2022-08-17 14:24:23.812500
2559,-13.05,2022-08-17 14:24:23.828125
2560,-13.43,2022-08-17 14:24:23.843750
2561,-11.51,2022-08-17 14:24:23.859375
2562,-7.67,2022-08-17 14:24:23.875000
2563,-3.02,2022-08-17 14:24:23.890625
2564,1.13,2022-08-17 14:24:23.906250
2565,3.71,2022-08-17 14:24:23.921875
2566,4.36,2022-08-17 14:24:23.937500
2567,3.39,2022-08-17 14:24:23.953125
2568,1.51,2022-08-17 14:24:23.968750
2569,-0.47,2022-08-17 14:24:23.984375
2570,-2.03,2022-08-17 14:24:24.000000
2571,-3.04,2022-08-17 14:24:24.015625
2572,-3.61,2022-08-17 14:24:24.031250
2573,-3.83,2022-08-17 14:24:24.046875
2574,-3.58,2022-08-17 14:24:24.062500
2575,-2.6,2022-08-17 14:24:24.078125
2576,-0.72,2022-08-17 14:24:24.093750
2577,1.83,2022-08-17 14:24:24.109375
2578,4.43,2022-08-17 14:24:24.125000
2579,6.17,2022-08-17 14:24:24.140625
2580,6.42,2022-08-17 14:24:24.156250
2581,5.05,2022-08-17 14:24:24.171875
2582,2.49,2022-08-17 14:24:24.187500
2583,-0.55,2022-08-17 14:24:24.203125
2584,-3.34,2022-08-17 14:24:24.218750
2585,-5.54,2022-08-17 14:24:24.234375
2586,-7.12,2022-08-17 14:24:24.250000
2587,-8.33,2022-08-17 14:24:24.265625
2588,-9.48,2022-08-17 14:24:24.281250
2589,-10.67,2022-08-17 14:24:24.296875
2590,-11.83,2022-08-17 14:24:24.312500
2591,-12.64,2022-08-17 14:24:24.328125
2592,-12.71,2022-08-17 14:24:24.343750
2593,-11.83,2022-08-17 14:24:24.359375
2594,-10.13,2022-08-17 14:24:24.375000
2595,-8.06,2022-08-17 14:24:24.390625
2596,-6.16,2022-08-17 14:24:24.406250
2597,-4.96,2022-08-17 14:24:24.421875
2598,-4.57,2022-08-17 14:24:24.437500
2599,-4.78,2022-08-17 14:24:24.453125
2600,-5.13,2022-08-17 14:24:24.468750
2601,-5.29,2022-08-17 14:24:24.484375
2602,-5.22,2022-08-17 14:24:24.500000
2603,-5.19,2022-08-17 14:24:24.515625
2604,-5.52,2022-08-17 14:24:24.531250
2605,-6.29,2022-08-17 14:24:24.546875
2606,-7.25,2022-08-17 14:24:24.562500
2607,-8.01,2022-08-17 14:24:24.578125
2608,-8.31,2022-08-17 14:24:24.593750
2609,-8.19,2022-08-17 14:24:24.609375
2610,-8.02,2022-08-17 14:24:24.625000
2611,-8.22,2022-08-17 14:24:24.640625
2612,-8.89,2022-08-17 14:24:24.656250
2613,-9.76,2022-08-17 14:24:24.671875
2614,-10.23,2022-08-17 14:24:24.687500
2615,-9.84,2022-08-17 14:24:24.703125
2616,-8.48,2022-08-17 14:24:24.718750
2617,-6.53,2022-08-17 14:24:24.734375
2618,-4.64,2022-08-17 14:24:24.750000
2619,-3.38,2022-08-17 14:24:24.765625
2620,-3.1,2022-08-17 14:24:24.781250
2621,-3.61,2022-08-17 14:24:24.796875
2622,-4.5,2022-08-17 14:24:24.812500
2623,-5.2,2022-08-17 14:24:24.828125
2624,-5.19,2022-08-17 14:24:24.843750
2625,-4.18,2022-08-17 14:24:24.859375
2626,-2.14,2022-08-17 14:24:24.875000
2627,0.63,2022-08-17 14:24:24.890625
2628,3.58,2022-08-17 14:24:24.906250
2629,6.02,2022-08-17 14:24:24.921875
2630,7.39,2022-08-17 14:24:24.937500
2631,7.38,2022-08-17 14:24:24.953125
2632,6.09,2022-08-17 14:24:24.968750
2633,3.89,2022-08-17 14:24:24.984375
2634,1.19,2022-08-17 14:24:25.000000
2635,-1.67,2022-08-17 14:24:25.015625
2636,-4.57,2022-08-17 14:24:25.031250
2637,-7.42,2022-08-17 14:24:25.046875
2638,-10.1,2022-08-17 14:24:25.062500
2639,-12.28,2022-08-17 14:24:25.078125
2640,-13.61,2022-08-17 14:24:25.093750
2641,-13.77,2022-08-17 14:24:25.109375
2642,-12.84,2022-08-17 14:24:25.125000
2643,-11.2,2022-08-17 14:24:25.140625
2644,-9.36,2022-08-17 14:24:25.156250
2645,-7.78,2022-08-17 14:24:25.171875
2646,-6.54,2022-08-17 14:24:25.187500
2647,-5.45,2022-08-17 14:24:25.203125
2648,-4.31,2022-08-17 14:24:25.218750
2649,-3.21,2022-08-17 14:24:25.234375
2650,-2.55,2022-08-17 14:24:25.250000
2651,-2.82,2022-08-17 14:24:25.265625
2652,-4.31,2022-08-17 14:24:25.281250
2653,-6.74,2022-08-17 14:24:25.296875
2654,-9.41,2022-08-17 14:24:25.312500
2655,-11.47,2022-08-17 14:24:25.328125
2656,-12.3,2022-08-17 14:24:25.343750
2657,-11.82,2022-08-17 14:24:25.359375
2658,-10.31,2022-08-17 14:24:25.375000
2659,-8.25,2022-08-17 14:24:25.390625
2660,-6.01,2022-08-17 14:24:25.406250
2661,-3.82,2022-08-17 14:24:25.421875
2662,-1.73,2022-08-17 14:24:25.437500
2663,0.16,2022-08-17 14:24:25.453125
2664,1.75,2022-08-17 14:24:25.468750
2665,2.98,2022-08-17 14:24:25.484375
2666,3.92,2022-08-17 14:24:25.500000
2667,4.81,2022-08-17 14:24:25.515625
2668,5.92,2022-08-17 14:24:25.531250
2669,7.38,2022-08-17 14:24:25.546875
2670,8.96,2022-08-17 14:24:25.562500
2671,10.12,2022-08-17 14:24:25.578125
2672,10.31,2022-08-17 14:24:25.593750
2673,9.27,2022-08-17 14:24:25.609375
2674,7.33,2022-08-17 14:24:25.625000
2675,5.31,2022-08-17 14:24:25.640625
2676,4.26,2022-08-17 14:24:25.656250
2677,4.93,2022-08-17 14:24:25.671875
2678,7.43,2022-08-17 14:24:25.687500
2679,11.13,2022-08-17 14:24:25.703125
2680,14.93,2022-08-17 14:24:25.718750
2681,17.71,2022-08-17 14:24:25.734375
2682,18.8,2022-08-17 14:24:25.750000
2683,18.14,2022-08-17 14:24:25.765625
2684,16.11,2022-08-17 14:24:25.781250
2685,13.26,2022-08-17 14:24:25.796875
2686,10.0,2022-08-17 14:24:25.812500
2687,6.55,2022-08-17 14:24:25.828125
2688,2.96,2022-08-17 14:24:25.843750
2689,-0.67,2022-08-17 14:24:25.859375
2690,-4.22,2022-08-17 14:24:25.875000
2691,-7.43,2022-08-17 14:24:25.890625
2692,-9.95,2022-08-17 14:24:25.906250
2693,-11.57,2022-08-17 14:24:25.921875
2694,-12.1,2022-08-17 14:24:25.937500
2695,-11.6,2022-08-17 14:24:25.953125
2696,-10.31,2022-08-17 14:24:25.968750
2697,-8.58,2022-08-17 14:24:25.984375
2698,-6.78,2022-08-17 14:24:26.000000
2699,-5.2,2022-08-17 14:24:26.015625
2700,-4.07,2022-08-17 14:24:26.031250
2701,-3.51,2022-08-17 14:24:26.046875
2702,-3.65,2022-08-17 14:24:26.062500
2703,-4.51,2022-08-17 14:24:26.078125
2704,-6.06,2022-08-17 14:24:26.093750
2705,-8.11,2022-08-17 14:24:26.109375
2706,-10.29,2022-08-17 14:24:26.125000
2707,-12.17,2022-08-17 14:24:26.140625
2708,-13.43,2022-08-17 14:24:26.156250
2709,-13.92,2022-08-17 14:24:26.171875
2710,-13.79,2022-08-17 14:24:26.187500
2711,-13.26,2022-08-17 14:24:26.203125
2712,-12.57,2022-08-17 14:24:26.218750
2713,-11.88,2022-08-17 14:24:26.234375
2714,-11.18,2022-08-17 14:24:26.250000
2715,-10.32,2022-08-17 14:24:26.265625
2716,-9.24,2022-08-17 14:24:26.281250
2717,-7.98,2022-08-17 14:24:26.296875
2718,-6.64,2022-08-17 14:24:26.312500
2719,-5.36,2022-08-17 14:24:26.328125
2720,-4.25,2022-08-17 14:24:26.343750
2721,-3.23,2022-08-17 14:24:26.359375
2722,-2.18,2022-08-17 14:24:26.375000
2723,-0.97,2022-08-17 14:24:26.390625
2724,0.38,2022-08-17 14:24:26.406250
2725,1.63,2022-08-17 14:24:26.421875
2726,2.46,2022-08-17 14:24:26.437500
2727,2.61,2022-08-17 14:24:26.453125
2728,2.19,2022-08-17 14:24:26.468750
2729,1.62,2022-08-17 14:24:26.484375
2730,1.5,2022-08-17 14:24:26.500000
2731,2.22,2022-08-17 14:24:26.515625
2732,3.65,2022-08-17 14:24:26.531250
2733,5.15,2022-08-17 14:24:26.546875
2734,5.86,2022-08-17 14:24:26.562500
2735,5.22,2022-08-17 14:24:26.578125
2736,3.17,2022-08-17 14:24:26.593750
2737,0.2,2022-08-17 14:24:26.609375
2738,-3.05,2022-08-17 14:24:26.625000
2739,-5.97,2022-08-17 14:24:26.640625
2740,-8.33,2022-08-17 14:24:26.656250
2741,-10.14,2022-08-17 14:24:26.671875
2742,-11.48,2022-08-17 14:24:26.687500
2743,-12.37,2022-08-17 14:24:26.703125
2744,-12.76,2022-08-17 14:24:26.718750
2745,-12.55,2022-08-17 14:24:26.734375
2746,-11.72,2022-08-17 14:24:26.750000
2747,-10.42,2022-08-17 14:24:26.765625
2748,-8.86,2022-08-17 14:24:26.781250
2749,-7.38,2022-08-17 14:24:26.796875
2750,-6.17,2022-08-17 14:24:26.812500
2751,-5.37,2022-08-17 14:24:26.828125
2752,-4.98,2022-08-17 14:24:26.843750
2753,-4.88,2022-08-17 14:24:26.859375
2754,-4.99,2022-08-17 14:24:26.875000
2755,-5.28,2022-08-17 14:24:26.890625
2756,-5.96,2022-08-17 14:24:26.906250
2757,-7.22,2022-08-17 14:24:26.921875
2758,-9.24,2022-08-17 14:24:26.937500
2759,-11.86,2022-08-17 14:24:26.953125
2760,-14.57,2022-08-17 14:24:26.968750
2761,-16.8,2022-08-17 14:24:26.984375
2762,-18.14,2022-08-17 14:24:27.000000
2763,-18.58,2022-08-17 14:24:27.015625
2764,-18.39,2022-08-17 14:24:27.031250
2765,-17.86,2022-08-17 14:24:27.046875
2766,-16.92,2022-08-17 14:24:27.062500
2767,-15.23,2022-08-17 14:24:27.078125
2768,-12.38,2022-08-17 14:24:27.093750
2769,-8.19,2022-08-17 14:24:27.109375
2770,-3.05,2022-08-17 14:24:27.125000
2771,2.25,2022-08-17 14:24:27.140625
2772,6.84,2022-08-17 14:24:27.156250
2773,10.03,2022-08-17 14:24:27.171875
2774,11.66,2022-08-17 14:24:27.187500
2775,11.97,2022-08-17 14:24:27.203125
2776,11.43,2022-08-17 14:24:27.218750
2777,10.49,2022-08-17 14:24:27.234375
2778,9.54,2022-08-17 14:24:27.250000
2779,8.84,2022-08-17 14:24:27.265625
2780,8.65,2022-08-17 14:24:27.281250
2781,9.1,2022-08-17 14:24:27.296875
2782,10.1,2022-08-17 14:24:27.312500
2783,11.18,2022-08-17 14:24:27.328125
2784,11.68,2022-08-17 14:24:27.343750
2785,11.03,2022-08-17 14:24:27.359375
2786,9.0,2022-08-17 14:24:27.375000
2787,5.97,2022-08-17 14:24:27.390625
2788,2.67,2022-08-17 14:24:27.406250
2789,-0.08,2022-08-17 14:24:27.421875
2790,-1.76,2022-08-17 14:24:27.437500
2791,-2.43,2022-08-17 14:24:27.453125
2792,-2.61,2022-08-17 14:24:27.468750
2793,-2.94,2022-08-17 14:24:27.484375
2794,-3.66,2022-08-17 14:24:27.500000
2795,-4.56,2022-08-17 14:24:27.515625
2796,-4.98,2022-08-17 14:24:27.531250
2797,-4.41,2022-08-17 14:24:27.546875
2798,-2.75,2022-08-17 14:24:27.562500
2799,-0.39,2022-08-17 14:24:27.578125
2800,1.93,2022-08-17 14:24:27.593750
2801,3.67,2022-08-17 14:24:27.609375
2802,4.7,2022-08-17 14:24:27.625000
2803,5.34,2022-08-17 14:24:27.640625
2804,5.96,2022-08-17 14:24:27.656250
2805,6.69,2022-08-17 14:24:27.671875
2806,7.32,2022-08-17 14:24:27.687500
2807,7.48,2022-08-17 14:24:27.703125
2808,7.01,2022-08-17 14:24:27.718750
2809,6.09,2022-08-17 14:24:27.734375
2810,5.24,2022-08-17 14:24:27.750000
2811,4.98,2022-08-17 14:24:27.765625
2812,5.43,2022-08-17 14:24:27.781250
2813,6.26,2022-08-17 14:24:27.796875
2814,6.8,2022-08-17 14:24:27.812500
2815,6.46,2022-08-17 14:24:27.828125
2816,5.06,2022-08-17 14:24:27.843750
2817,2.92,2022-08-17 14:24:27.859375
2818,0.65,2022-08-17 14:24:27.875000
2819,-1.17,2022-08-17 14:24:27.890625
2820,-2.28,2022-08-17 14:24:27.906250
2821,-2.74,2022-08-17 14:24:27.921875
2822,-2.88,2022-08-17 14:24:27.937500
2823,-2.97,2022-08-17 14:24:27.953125
2824,-3.15,2022-08-17 14:24:27.968750
2825,-3.44,2022-08-17 14:24:27.984375
2826,-3.84,2022-08-17 14:24:28.000000
2827,-4.4,2022-08-17 14:24:28.015625
2828,-5.03,2022-08-17 14:24:28.031250
2829,-5.54,2022-08-17 14:24:28.046875
2830,-5.62,2022-08-17 14:24:28.062500
2831,-4.97,2022-08-17 14:24:28.078125
2832,-3.5,2022-08-17 14:24:28.093750
2833,-1.44,2022-08-17 14:24:28.109375
2834,0.74,2022-08-17 14:24:28.125000
2835,2.65,2022-08-17 14:24:28.140625
2836,4.11,2022-08-17 14:24:28.156250
2837,5.13,2022-08-17 14:24:28.171875
2838,5.68,2022-08-17 14:24:28.187500
2839,5.66,2022-08-17 14:24:28.203125
2840,4.92,2022-08-17 14:24:28.218750
2841,3.33,2022-08-17 14:24:28.234375
2842,0.97,2022-08-17 14:24:28.250000
2843,-1.9,2022-08-17 14:24:28.265625
2844,-4.97,2022-08-17 14:24:28.281250
2845,-7.97,2022-08-17 14:24:28.296875
2846,-10.72,2022-08-17 14:24:28.312500
2847,-12.94,2022-08-17 14:24:28.328125
2848,-14.29,2022-08-17 14:24:28.343750
2849,-14.42,2022-08-17 14:24:28.359375
2850,-13.23,2022-08-17 14:24:28.375000
2851,-11.03,2022-08-17 14:24:28.390625
2852,-8.48,2022-08-17 14:24:28.406250
2853,-6.27,2022-08-17 14:24:28.421875
2854,-4.89,2022-08-17 14:24:28.437500
2855,-4.45,2022-08-17 14:24:28.453125
2856,-4.81,2022-08-17 14:24:28.468750
2857,-5.74,2022-08-17 14:24:28.484375
2858,-7.01,2022-08-17 14:24:28.500000
2859,-8.38,2022-08-17 14:24:28.515625
2860,-9.49,2022-08-17 14:24:28.531250
2861,-9.95,2022-08-17 14:24:28.546875
2862,-9.5,2022-08-17 14:24:28.562500
2863,-8.27,2022-08-17 14:24:28.578125
2864,-6.74,2022-08-17 14:24:28.593750
2865,-5.51,2022-08-17 14:24:28.609375
2866,-5.0,2022-08-17 14:24:28.625000
2867,-5.3,2022-08-17 14:24:28.640625
2868,-6.15,2022-08-17 14:24:28.656250
2869,-7.09,2022-08-17 14:24:28.671875
2870,-7.69,2022-08-17 14:24:28.687500
2871,-7.65,2022-08-17 14:24:28.703125
2872,-6.79,2022-08-17 14:24:28.718750
2873,-5.22,2022-08-17 14:24:28.734375
2874,-3.25,2022-08-17 14:24:28.750000
2875,-1.41,2022-08-17 14:24:28.765625
2876,-0.26,2022-08-17 14:24:28.781250
2877,-0.21,2022-08-17 14:24:28.796875
2878,-1.3,2022-08-17 14:24:28.812500
2879,-3.17,2022-08-17 14:24:28.828125
2880,-5.21,2022-08-17 14:24:28.843750
2881,-6.69,2022-08-17 14:24:28.859375
2882,-7.05,2022-08-17 14:24:28.875000
2883,-6.05,2022-08-17 14:24:28.890625
2884,-3.81,2022-08-17 14:24:28.906250
2885,-0.72,2022-08-17 14:24:28.921875
2886,2.6,2022-08-17 14:24:28.937500
2887,5.45,2022-08-17 14:24:28.953125
2888,7.19,2022-08-17 14:24:28.968750
2889,7.4,2022-08-17 14:24:28.984375
2890,5.99,2022-08-17 14:24:29.000000
2891,3.3,2022-08-17 14:24:29.015625
2892,-0.04,2022-08-17 14:24:29.031250
2893,-3.3,2022-08-17 14:24:29.046875
2894,-5.84,2022-08-17 14:24:29.062500
2895,-7.4,2022-08-17 14:24:29.078125
2896,-8.15,2022-08-17 14:24:29.093750
2897,-8.59,2022-08-17 14:24:29.109375
2898,-9.29,2022-08-17 14:24:29.125000
2899,-10.53,2022-08-17 14:24:29.140625
2900,-12.12,2022-08-17 14:24:29.156250
2901,-13.47,2022-08-17 14:24:29.171875
2902,-13.88,2022-08-17 14:24:29.187500
2903,-12.97,2022-08-17 14:24:29.203125
2904,-10.92,2022-08-17 14:24:29.218750
2905,-8.37,2022-08-17 14:24:29.234375
2906,-6.12,2022-08-17 14:24:29.250000
2907,-4.73,2022-08-17 14:24:29.265625
2908,-4.37,2022-08-17 14:24:29.281250
2909,-4.85,2022-08-17 14:24:29.296875
2910,-5.76,2022-08-17 14:24:29.312500
2911,-6.63,2022-08-17 14:24:29.328125
2912,-7.16,2022-08-17 14:24:29.343750
2913,-7.13,2022-08-17 14:24:29.359375
2914,-6.48,2022-08-17 14:24:29.375000
2915,-5.41,2022-08-17 14:24:29.390625
2916,-4.23,2022-08-17 14:24:29.406250
2917,-3.36,2022-08-17 14:24:29.421875
2918,-3.08,2022-08-17 14:24:29.437500
2919,-3.36,2022-08-17 14:24:29.453125
2920,-3.87,2022-08-17 14:24:29.468750
2921,-4.05,2022-08-17 14:24:29.484375
2922,-3.48,2022-08-17 14:24:29.500000
2923,-1.91,2022-08-17 14:24:29.515625
2924,0.56,2022-08-17 14:24:29.531250
2925,3.62,2022-08-17 14:24:29.546875
2926,6.79,2022-08-17 14:24:29.562500
2927,9.57,2022-08-17 14:24:29.578125
2928,11.5,2022-08-17 14:24:29.593750
2929,12.21,2022-08-17 14:24:29.609375
2930,11.65,2022-08-17 14:24:29.625000
2931,10.16,2022-08-17 14:24:29.640625
2932,8.5,2022-08-17 14:24:29.656250
2933,7.48,2022-08-17 14:24:29.671875
2934,7.51,2022-08-17 14:24:29.687500
2935,8.22,2022-08-17 14:24:29.703125
2936,8.65,2022-08-17 14:24:29.718750
2937,7.7,2022-08-17 14:24:29.734375
2938,4.87,2022-08-17 14:24:29.750000
2939,0.63,2022-08-17 14:24:29.765625
2940,-3.79,2022-08-17 14:24:29.781250
2941,-7.13,2022-08-17 14:24:29.796875
2942,-8.81,2022-08-17 14:24:29.812500
2943,-9.12,2022-08-17 14:24:29.828125
2944,-8.99,2022-08-17 14:24:29.843750
2945,-9.26,2022-08-17 14:24:29.859375
2946,-10.09,2022-08-17 14:24:29.875000
2947,-11.02,2022-08-17 14:24:29.890625
2948,-11.26,2022-08-17 14:24:29.906250
2949,-10.34,2022-08-17 14:24:29.921875
2950,-8.4,2022-08-17 14:24:29.937500
2951,-6.16,2022-08-17 14:24:29.953125
2952,-4.41,2022-08-17 14:24:29.968750
2953,-3.57,2022-08-17 14:24:29.984375
2954,-3.49,2022-08-17 14:24:30.000000
2955,-3.54,2022-08-17 14:24:30.015625
2956,-3.01,2022-08-17 14:24:30.031250
2957,-1.35,2022-08-17 14:24:30.046875
2958,1.62,2022-08-17 14:24:30.062500
2959,5.58,2022-08-17 14:24:30.078125
2960,9.92,2022-08-17 14:24:30.093750
2961,13.89,2022-08-17 14:24:30.109375
2962,16.88,2022-08-17 14:24:30.125000
2963,18.58,2022-08-17 14:24:30.140625
2964,18.94,2022-08-17 14:24:30.156250
2965,18.13,2022-08-17 14:24:30.171875
2966,16.34,2022-08-17 14:24:30.187500
2967,13.68,2022-08-17 14:24:30.203125
2968,10.3,2022-08-17 14:24:30.218750
2969,6.45,2022-08-17 14:24:30.234375
2970,2.6,2022-08-17 14:24:30.250000
2971,-0.65,2022-08-17 14:24:30.265625
2972,-2.85,2022-08-17 14:24:30.281250
2973,-3.94,2022-08-17 14:24:30.296875
2974,-4.42,2022-08-17 14:24:30.312500
2975,-5.13,2022-08-17 14:24:30.328125
2976,-6.69,2022-08-17 14:24:30.343750
2977,-9.16,2022-08-17 14:24:30.359375
2978,-11.75,2022-08-17 14:24:30.375000
2979,-13.22,2022-08-17 14:24:30.390625
2980,-12.43,2022-08-17 14:24:30.406250
2981,-9.06,2022-08-17 14:24:30.421875
2982,-3.71,2022-08-17 14:24:30.437500
2983,2.51,2022-08-17 14:24:30.453125
2984,8.46,2022-08-17 14:24:30.468750
2985,13.47,2022-08-17 14:24:30.484375
2986,17.44,2022-08-17 14:24:30.500000
2987,20.6,2022-08-17 14:24:30.515625
2988,22.97,2022-08-17 14:24:30.531250
2989,24.35,2022-08-17 14:24:30.546875
2990,24.24,2022-08-17 14:24:30.562500
2991,22.17,2022-08-17 14:24:30.578125
2992,18.08,2022-08-17 14:24:30.593750
2993,12.45,2022-08-17 14:24:30.609375
2994,6.32,2022-08-17 14:24:30.625000
2995,0.9,2022-08-17 14:24:30.640625
2996,-2.73,2022-08-17 14:24:30.656250
2997,-4.19,2022-08-17 14:24:30.671875
2998,-3.65,2022-08-17 14:24:30.687500
2999,-1.95,2022-08-17 14:24:30.703125
3000,-0.01,2022-08-17 14:24:30.718750
3001,1.57,2022-08-17 14:24:30.734375
3002,2.75,2022-08-17 14:24:30.750000
3003,4.02,2022-08-17 14:24:30.765625
3004,5.97,2022-08-17 14:24:30.781250
3005,8.85,2022-08-17 14:24:30.796875
3006,12.37,2022-08-17 14:24:30.812500
3007,15.73,2022-08-17 14:24:30.828125
3008,18.26,2022-08-17 14:24:30.843750
3009,19.67,2022-08-17 14:24:30.859375
3010,20.23,2022-08-17 14:24:30.875000
3011,20.45,2022-08-17 14:24:30.890625
3012,20.8,2022-08-17 14:24:30.906250
3013,21.48,2022-08-17 14:24:30.921875
3014,22.39,2022-08-17 14:24:30.937500
3015,23.38,2022-08-17 14:24:30.953125
3016,24.37,2022-08-17 14:24:30.968750
3017,25.27,2022-08-17 14:24:30.984375
3018,25.78,2022-08-17 14:24:31.000000
3019,25.33,2022-08-17 14:24:31.015625
3020,23.17,2022-08-17 14:24:31.031250
3021,18.9,2022-08-17 14:24:31.046875
3022,12.66,2022-08-17 14:24:31.062500
3023,5.05,2022-08-17 14:24:31.078125
3024,-3.14,2022-08-17 14:24:31.093750
3025,-11.55,2022-08-17 14:24:31.109375
3026,-20.28,2022-08-17 14:24:31.125000
3027,-29.77,2022-08-17 14:24:31.140625
3028,-40.06,2022-08-17 14:24:31.156250
3029,-50.7,2022-08-17 14:24:31.171875
3030,-60.54,2022-08-17 14:24:31.187500
3031,-68.37,2022-08-17 14:24:31.203125
3032,-73.22,2022-08-17 14:24:31.218750
3033,-74.59,2022-08-17 14:24:31.234375
3034,-72.29,2022-08-17 14:24:31.250000
3035,-66.23,2022-08-17 14:24:31.265625
3036,-56.42,2022-08-17 14:24:31.281250
3037,-43.3,2022-08-17 14:24:31.296875
3038,-28.06,2022-08-17 14:24:31.312500
3039,-12.83,2022-08-17 14:24:31.328125
3040,-0.14,2022-08-17 14:24:31.343750
3041,7.96,2022-08-17 14:24:31.359375
3042,10.66,2022-08-17 14:24:31.375000
3043,8.63,2022-08-17 14:24:31.390625
3044,3.69,2022-08-17 14:24:31.406250
3045,-1.94,2022-08-17 14:24:31.421875
3046,-6.46,2022-08-17 14:24:31.437500
3047,-9.03,2022-08-17 14:24:31.453125
3048,-9.79,2022-08-17 14:24:31.468750
3049,-9.64,2022-08-17 14:24:31.484375
3050,-9.5,2022-08-17 14:24:31.500000
3051,-9.94,2022-08-17 14:24:31.515625
3052,-10.93,2022-08-17 14:24:31.531250
3053,-11.87,2022-08-17 14:24:31.546875
3054,-11.93,2022-08-17 14:24:31.562500
3055,-10.47,2022-08-17 14:24:31.578125
3056,-7.31,2022-08-17 14:24:31.593750
3057,-2.8,2022-08-17 14:24:31.609375
3058,2.3,2022-08-17 14:24:31.625000
3059,7.34,2022-08-17 14:24:31.640625
3060,11.79,2022-08-17 14:24:31.656250
3061,15.18,2022-08-17 14:24:31.671875
3062,17.25,2022-08-17 14:24:31.687500
3063,18.02,2022-08-17 14:24:31.703125
3064,17.96,2022-08-17 14:24:31.718750
3065,18.03,2022-08-17 14:24:31.734375
3066,19.37,2022-08-17 14:24:31.750000
3067,22.99,2022-08-17 14:24:31.765625
3068,29.64,2022-08-17 14:24:31.781250
3069,38.89,2022-08-17 14:24:31.796875
3070,48.99,2022-08-17 14:24:31.812500
3071,57.52,2022-08-17 14:24:31.828125
3072,62.54,2022-08-17 14:24:31.843750
3073,63.38,2022-08-17 14:24:31.859375
3074,60.84,2022-08-17 14:24:31.875000
3075,56.66,2022-08-17 14:24:31.890625
3076,52.82,2022-08-17 14:24:31.906250
3077,51.41,2022-08-17 14:24:31.921875
3078,53.41,2022-08-17 14:24:31.937500
3079,58.27,2022-08-17 14:24:31.953125
3080,64.39,2022-08-17 14:24:31.968750
3081,69.71,2022-08-17 14:24:31.984375
3082,72.55,2022-08-17 14:24:32.000000
3083,71.99,2022-08-17 14:24:32.015625
3084,68.11,2022-08-17 14:24:32.031250
3085,62.18,2022-08-17 14:24:32.046875
3086,57.18,2022-08-17 14:24:32.062500
3087,55.96,2022-08-17 14:24:32.078125
3088,59.48,2022-08-17 14:24:32.093750
3089,65.95,2022-08-17 14:24:32.109375
3090,71.12,2022-08-17 14:24:32.125000
3091,69.69,2022-08-17 14:24:32.140625
3092,57.1,2022-08-17 14:24:32.156250
3093,31.24,2022-08-17 14:24:32.171875
3094,-10.68,2022-08-17 14:24:32.187500
3095,-64.04,2022-08-17 14:24:32.203125
3096,-117.94,2022-08-17 14:24:32.218750
3097,-160.27,2022-08-17 14:24:32.234375
3098,-184.09,2022-08-17 14:24:32.250000
3099,-190.05,2022-08-17 14:24:32.265625
3100,-183.5,2022-08-17 14:24:32.281250
3101,-170.56,2022-08-17 14:24:32.296875
3102,-156.11,2022-08-17 14:24:32.312500
3103,-143.44,2022-08-17 14:24:32.328125
3104,-133.78,2022-08-17 14:24:32.343750
3105,-126.83,2022-08-17 14:24:32.359375
3106,-121.52,2022-08-17 14:24:32.375000
3107,-114.6,2022-08-17 14:24:32.390625
3108,-102.06,2022-08-17 14:24:32.406250
3109,-80.32,2022-08-17 14:24:32.421875
3110,-48.28,2022-08-17 14:24:32.437500
3111,-8.58,2022-08-17 14:24:32.453125
3112,33.15,2022-08-17 14:24:32.468750
3113,67.99,2022-08-17 14:24:32.484375
3114,88.6,2022-08-17 14:24:32.500000
3115,92.45,2022-08-17 14:24:32.515625
3116,82.29,2022-08-17 14:24:32.531250
3117,63.56,2022-08-17 14:24:32.546875
3118,42.01,2022-08-17 14:24:32.562500
3119,21.89,2022-08-17 14:24:32.578125
3120,5.61,2022-08-17 14:24:32.593750
3121,-5.77,2022-08-17 14:24:32.609375
3122,-11.78,2022-08-17 14:24:32.625000
3123,-11.94,2022-08-17 14:24:32.640625
3124,-8.56,2022-08-17 14:24:32.656250
3125,-5.27,2022-08-17 14:24:32.671875
3126,-5.86,2022-08-17 14:24:32.687500
3127,-12.43,2022-08-17 14:24:32.703125
3128,-24.85,2022-08-17 14:24:32.718750
3129,-40.86,2022-08-17 14:24:32.734375
3130,-57.09,2022-08-17 14:24:32.750000
3131,-70.14,2022-08-17 14:24:32.765625
3132,-77.26,2022-08-17 14:24:32.781250
3133,-77.29,2022-08-17 14:24:32.796875
3134,-70.37,2022-08-17 14:24:32.812500
3135,-58.02,2022-08-17 14:24:32.828125
3136,-42.68,2022-08-17 14:24:32.843750
3137,-27.35,2022-08-17 14:24:32.859375
3138,-15.44,2022-08-17 14:24:32.875000
3139,-9.83,2022-08-17 14:24:32.890625
3140,-11.71,2022-08-17 14:24:32.906250
3141,-19.7,2022-08-17 14:24:32.921875
3142,-30.53,2022-08-17 14:24:32.937500
3143,-40.28,2022-08-17 14:24:32.953125
3144,-45.98,2022-08-17 14:24:32.968750
3145,-46.38,2022-08-17 14:24:32.984375
3146,-41.92,2022-08-17 14:24:33.000000
3147,-33.55,2022-08-17 14:24:33.015625
