,BVP,time
0,31.25,2022-10-26 10:14:11.234375
1,30.87,2022-10-26 10:14:11.250000
2,31.25,2022-10-26 10:14:11.265625
3,32.97,2022-10-26 10:14:11.281250
4,36.27,2022-10-26 10:14:11.296875
5,40.91,2022-10-26 10:14:11.312500
6,46.15,2022-10-26 10:14:11.328125
7,50.99,2022-10-26 10:14:11.343750
8,54.49,2022-10-26 10:14:11.359375
9,56.16,2022-10-26 10:14:11.375000
10,56.08,2022-10-26 10:14:11.390625
11,54.89,2022-10-26 10:14:11.406250
12,53.54,2022-10-26 10:14:11.421875
13,52.94,2022-10-26 10:14:11.437500
14,53.56,2022-10-26 10:14:11.453125
15,55.31,2022-10-26 10:14:11.468750
16,57.59,2022-10-26 10:14:11.484375
17,59.58,2022-10-26 10:14:11.500000
18,60.69,2022-10-26 10:14:11.515625
19,60.79,2022-10-26 10:14:11.531250
20,60.29,2022-10-26 10:14:11.546875
21,59.84,2022-10-26 10:14:11.562500
22,60.13,2022-10-26 10:14:11.578125
23,61.57,2022-10-26 10:14:11.593750
24,64.31,2022-10-26 10:14:11.609375
25,68.02,2022-10-26 10:14:11.625000
26,71.62,2022-10-26 10:14:11.640625
27,72.97,2022-10-26 10:14:11.656250
28,69.03,2022-10-26 10:14:11.671875
29,56.68,2022-10-26 10:14:11.687500
30,34.3,2022-10-26 10:14:11.703125
31,3.09,2022-10-26 10:14:11.718750
32,-32.51,2022-10-26 10:14:11.734375
33,-65.93,2022-10-26 10:14:11.750000
34,-90.92,2022-10-26 10:14:11.765625
35,-103.88,2022-10-26 10:14:11.781250
36,-105.1,2022-10-26 10:14:11.796875
37,-98.18,2022-10-26 10:14:11.812500
38,-87.95,2022-10-26 10:14:11.828125
39,-78.15,2022-10-26 10:14:11.843750
40,-70.17,2022-10-26 10:14:11.859375
41,-63.29,2022-10-26 10:14:11.875000
42,-55.95,2022-10-26 10:14:11.890625
43,-47.27,2022-10-26 10:14:11.906250
44,-37.53,2022-10-26 10:14:11.921875
45,-27.95,2022-10-26 10:14:11.937500
46,-19.75,2022-10-26 10:14:11.953125
47,-13.45,2022-10-26 10:14:11.968750
48,-8.59,2022-10-26 10:14:11.984375
49,-4.13,2022-10-26 10:14:12.000000
50,0.94,2022-10-26 10:14:12.015625
51,7.25,2022-10-26 10:14:12.031250
52,15.05,2022-10-26 10:14:12.046875
53,24.62,2022-10-26 10:14:12.062500
54,36.67,2022-10-26 10:14:12.078125
55,52.43,2022-10-26 10:14:12.093750
56,73.09,2022-10-26 10:14:12.109375
57,98.84,2022-10-26 10:14:12.125000
58,128.04,2022-10-26 10:14:12.140625
59,157.17,2022-10-26 10:14:12.156250
60,181.6,2022-10-26 10:14:12.171875
61,197.05,2022-10-26 10:14:12.187500
62,201.22,2022-10-26 10:14:12.203125
63,194.55,2022-10-26 10:14:12.218750
64,180.09,2022-10-26 10:14:12.234375
65,162.36,2022-10-26 10:14:12.250000
66,145.86,2022-10-26 10:14:12.265625
67,133.82,2022-10-26 10:14:12.281250
68,127.64,2022-10-26 10:14:12.296875
69,126.82,2022-10-26 10:14:12.312500
70,129.49,2022-10-26 10:14:12.328125
71,133.01,2022-10-26 10:14:12.343750
72,134.62,2022-10-26 10:14:12.359375
73,132.09,2022-10-26 10:14:12.375000
74,124.22,2022-10-26 10:14:12.390625
75,111.01,2022-10-26 10:14:12.406250
76,93.34,2022-10-26 10:14:12.421875
77,72.51,2022-10-26 10:14:12.437500
78,49.46,2022-10-26 10:14:12.453125
79,24.4,2022-10-26 10:14:12.468750
80,-3.14,2022-10-26 10:14:12.484375
81,-34.15,2022-10-26 10:14:12.500000
82,-69.86,2022-10-26 10:14:12.515625
83,-111.73,2022-10-26 10:14:12.531250
84,-161.17,2022-10-26 10:14:12.546875
85,-218.66,2022-10-26 10:14:12.562500
86,-282.46,2022-10-26 10:14:12.578125
87,-347.6,2022-10-26 10:14:12.593750
88,-406.31,2022-10-26 10:14:12.609375
89,-450.28,2022-10-26 10:14:12.625000
90,-473.77,2022-10-26 10:14:12.640625
91,-475.98,2022-10-26 10:14:12.656250
92,-461.27,2022-10-26 10:14:12.671875
93,-436.84,2022-10-26 10:14:12.687500
94,-409.18,2022-10-26 10:14:12.703125
95,-381.41,2022-10-26 10:14:12.718750
96,-352.88,2022-10-26 10:14:12.734375
97,-321.25,2022-10-26 10:14:12.750000
98,-285.31,2022-10-26 10:14:12.765625
99,-246.71,2022-10-26 10:14:12.781250
100,-209.3,2022-10-26 10:14:12.796875
101,-177.06,2022-10-26 10:14:12.812500
102,-151.72,2022-10-26 10:14:12.828125
103,-131.97,2022-10-26 10:14:12.843750
104,-114.55,2022-10-26 10:14:12.859375
105,-96.41,2022-10-26 10:14:12.875000
106,-76.36,2022-10-26 10:14:12.890625
107,-55.52,2022-10-26 10:14:12.906250
108,-36.42,2022-10-26 10:14:12.921875
109,-21.21,2022-10-26 10:14:12.937500
110,-10.53,2022-10-26 10:14:12.953125
111,-3.21,2022-10-26 10:14:12.968750
112,2.93,2022-10-26 10:14:12.984375
113,9.74,2022-10-26 10:14:13.000000
114,17.69,2022-10-26 10:14:13.015625
115,25.7,2022-10-26 10:14:13.031250
116,31.85,2022-10-26 10:14:13.046875
117,34.42,2022-10-26 10:14:13.062500
118,32.82,2022-10-26 10:14:13.078125
119,27.87,2022-10-26 10:14:13.093750
120,21.41,2022-10-26 10:14:13.109375
121,15.43,2022-10-26 10:14:13.125000
122,11.21,2022-10-26 10:14:13.140625
123,8.87,2022-10-26 10:14:13.156250
124,7.4,2022-10-26 10:14:13.171875
125,5.19,2022-10-26 10:14:13.187500
126,0.72,2022-10-26 10:14:13.203125
127,-6.73,2022-10-26 10:14:13.218750
128,-16.68,2022-10-26 10:14:13.234375
129,-27.43,2022-10-26 10:14:13.250000
130,-36.54,2022-10-26 10:14:13.265625
131,-41.51,2022-10-26 10:14:13.281250
132,-40.57,2022-10-26 10:14:13.296875
133,-33.22,2022-10-26 10:14:13.312500
134,-20.45,2022-10-26 10:14:13.328125
135,-4.4,2022-10-26 10:14:13.343750
136,12.39,2022-10-26 10:14:13.359375
137,27.62,2022-10-26 10:14:13.375000
138,39.93,2022-10-26 10:14:13.390625
139,48.9,2022-10-26 10:14:13.406250
140,54.84,2022-10-26 10:14:13.421875
141,58.35,2022-10-26 10:14:13.437500
142,59.9,2022-10-26 10:14:13.453125
143,59.75,2022-10-26 10:14:13.468750
144,57.98,2022-10-26 10:14:13.484375
145,54.78,2022-10-26 10:14:13.500000
146,50.55,2022-10-26 10:14:13.515625
147,45.98,2022-10-26 10:14:13.531250
148,41.8,2022-10-26 10:14:13.546875
149,38.61,2022-10-26 10:14:13.562500
150,36.71,2022-10-26 10:14:13.578125
151,36.13,2022-10-26 10:14:13.593750
152,36.68,2022-10-26 10:14:13.609375
153,38.0,2022-10-26 10:14:13.625000
154,39.72,2022-10-26 10:14:13.640625
155,41.41,2022-10-26 10:14:13.656250
156,42.72,2022-10-26 10:14:13.671875
157,43.29,2022-10-26 10:14:13.687500
158,42.81,2022-10-26 10:14:13.703125
159,41.1,2022-10-26 10:14:13.718750
160,38.08,2022-10-26 10:14:13.734375
161,33.87,2022-10-26 10:14:13.750000
162,28.79,2022-10-26 10:14:13.765625
163,23.28,2022-10-26 10:14:13.781250
164,17.77,2022-10-26 10:14:13.796875
165,12.62,2022-10-26 10:14:13.812500
166,7.86,2022-10-26 10:14:13.828125
167,3.17,2022-10-26 10:14:13.843750
168,-2.02,2022-10-26 10:14:13.859375
169,-8.34,2022-10-26 10:14:13.875000
170,-16.12,2022-10-26 10:14:13.890625
171,-25.09,2022-10-26 10:14:13.906250
172,-34.21,2022-10-26 10:14:13.921875
173,-41.82,2022-10-26 10:14:13.937500
174,-46.02,2022-10-26 10:14:13.953125
175,-45.33,2022-10-26 10:14:13.968750
176,-39.21,2022-10-26 10:14:13.984375
177,-28.3,2022-10-26 10:14:14.000000
178,-14.27,2022-10-26 10:14:14.015625
179,0.78,2022-10-26 10:14:14.031250
180,14.92,2022-10-26 10:14:14.046875
181,26.95,2022-10-26 10:14:14.062500
182,36.41,2022-10-26 10:14:14.078125
183,43.48,2022-10-26 10:14:14.093750
184,48.54,2022-10-26 10:14:14.109375
185,51.9,2022-10-26 10:14:14.125000
186,53.68,2022-10-26 10:14:14.140625
187,53.88,2022-10-26 10:14:14.156250
188,52.58,2022-10-26 10:14:14.171875
189,50.07,2022-10-26 10:14:14.187500
190,46.89,2022-10-26 10:14:14.203125
191,43.63,2022-10-26 10:14:14.218750
192,40.88,2022-10-26 10:14:14.234375
193,38.93,2022-10-26 10:14:14.250000
194,37.75,2022-10-26 10:14:14.265625
195,37.11,2022-10-26 10:14:14.281250
196,36.65,2022-10-26 10:14:14.296875
197,36.15,2022-10-26 10:14:14.312500
198,35.58,2022-10-26 10:14:14.328125
199,35.05,2022-10-26 10:14:14.343750
200,34.56,2022-10-26 10:14:14.359375
201,33.9,2022-10-26 10:14:14.375000
202,32.61,2022-10-26 10:14:14.390625
203,30.14,2022-10-26 10:14:14.406250
204,26.12,2022-10-26 10:14:14.421875
205,20.59,2022-10-26 10:14:14.437500
206,14.03,2022-10-26 10:14:14.453125
207,7.21,2022-10-26 10:14:14.468750
208,0.84,2022-10-26 10:14:14.484375
209,-4.73,2022-10-26 10:14:14.500000
210,-9.6,2022-10-26 10:14:14.515625
211,-14.23,2022-10-26 10:14:14.531250
212,-19.23,2022-10-26 10:14:14.546875
213,-25.15,2022-10-26 10:14:14.562500
214,-32.35,2022-10-26 10:14:14.578125
215,-40.86,2022-10-26 10:14:14.593750
216,-50.27,2022-10-26 10:14:14.609375
217,-59.63,2022-10-26 10:14:14.625000
218,-67.49,2022-10-26 10:14:14.640625
219,-72.16,2022-10-26 10:14:14.656250
220,-72.1,2022-10-26 10:14:14.671875
221,-66.58,2022-10-26 10:14:14.687500
222,-55.92,2022-10-26 10:14:14.703125
223,-41.53,2022-10-26 10:14:14.718750
224,-25.43,2022-10-26 10:14:14.734375
225,-9.63,2022-10-26 10:14:14.750000
226,4.49,2022-10-26 10:14:14.765625
227,16.45,2022-10-26 10:14:14.781250
228,26.44,2022-10-26 10:14:14.796875
229,34.91,2022-10-26 10:14:14.812500
230,42.12,2022-10-26 10:14:14.828125
231,47.95,2022-10-26 10:14:14.843750
232,52.04,2022-10-26 10:14:14.859375
233,54.08,2022-10-26 10:14:14.875000
234,54.18,2022-10-26 10:14:14.890625
235,52.89,2022-10-26 10:14:14.906250
236,51.06,2022-10-26 10:14:14.921875
237,49.5,2022-10-26 10:14:14.937500
238,48.74,2022-10-26 10:14:14.953125
239,48.81,2022-10-26 10:14:14.968750
240,49.43,2022-10-26 10:14:14.984375
241,50.19,2022-10-26 10:14:15.000000
242,50.76,2022-10-26 10:14:15.015625
243,50.96,2022-10-26 10:14:15.031250
244,50.74,2022-10-26 10:14:15.046875
245,50.1,2022-10-26 10:14:15.062500
246,49.0,2022-10-26 10:14:15.078125
247,47.35,2022-10-26 10:14:15.093750
248,45.02,2022-10-26 10:14:15.109375
249,41.93,2022-10-26 10:14:15.125000
250,37.99,2022-10-26 10:14:15.140625
251,33.21,2022-10-26 10:14:15.156250
252,27.71,2022-10-26 10:14:15.171875
253,21.7,2022-10-26 10:14:15.187500
254,15.48,2022-10-26 10:14:15.203125
255,9.35,2022-10-26 10:14:15.218750
256,3.52,2022-10-26 10:14:15.234375
257,-1.97,2022-10-26 10:14:15.250000
258,-7.23,2022-10-26 10:14:15.265625
259,-12.44,2022-10-26 10:14:15.281250
260,-17.71,2022-10-26 10:14:15.296875
261,-23.16,2022-10-26 10:14:15.312500
262,-28.89,2022-10-26 10:14:15.328125
263,-35.02,2022-10-26 10:14:15.343750
264,-41.64,2022-10-26 10:14:15.359375
265,-48.6,2022-10-26 10:14:15.375000
266,-55.29,2022-10-26 10:14:15.390625
267,-60.59,2022-10-26 10:14:15.406250
268,-63.13,2022-10-26 10:14:15.421875
269,-61.67,2022-10-26 10:14:15.437500
270,-55.56,2022-10-26 10:14:15.453125
271,-45.12,2022-10-26 10:14:15.468750
272,-31.57,2022-10-26 10:14:15.484375
273,-16.57,2022-10-26 10:14:15.500000
274,-1.79,2022-10-26 10:14:15.515625
275,11.49,2022-10-26 10:14:15.531250
276,22.67,2022-10-26 10:14:15.546875
277,31.65,2022-10-26 10:14:15.562500
278,38.67,2022-10-26 10:14:15.578125
279,43.98,2022-10-26 10:14:15.593750
280,47.77,2022-10-26 10:14:15.609375
281,50.12,2022-10-26 10:14:15.625000
282,51.08,2022-10-26 10:14:15.640625
283,50.78,2022-10-26 10:14:15.656250
284,49.57,2022-10-26 10:14:15.671875
285,47.95,2022-10-26 10:14:15.687500
286,46.45,2022-10-26 10:14:15.703125
287,45.48,2022-10-26 10:14:15.718750
288,45.17,2022-10-26 10:14:15.734375
289,45.33,2022-10-26 10:14:15.750000
290,45.58,2022-10-26 10:14:15.765625
291,45.59,2022-10-26 10:14:15.781250
292,45.24,2022-10-26 10:14:15.796875
293,44.65,2022-10-26 10:14:15.812500
294,44.04,2022-10-26 10:14:15.828125
295,43.49,2022-10-26 10:14:15.843750
296,42.84,2022-10-26 10:14:15.859375
297,41.74,2022-10-26 10:14:15.875000
298,39.75,2022-10-26 10:14:15.890625
299,36.72,2022-10-26 10:14:15.906250
300,32.79,2022-10-26 10:14:15.921875
301,28.44,2022-10-26 10:14:15.937500
302,24.31,2022-10-26 10:14:15.953125
303,20.89,2022-10-26 10:14:15.968750
304,18.34,2022-10-26 10:14:15.984375
305,16.42,2022-10-26 10:14:16.000000
306,14.65,2022-10-26 10:14:16.015625
307,12.39,2022-10-26 10:14:16.031250
308,9.25,2022-10-26 10:14:16.046875
309,5.09,2022-10-26 10:14:16.062500
310,0.11,2022-10-26 10:14:16.078125
311,-5.24,2022-10-26 10:14:16.093750
312,-10.42,2022-10-26 10:14:16.109375
313,-15.03,2022-10-26 10:14:16.125000
314,-18.86,2022-10-26 10:14:16.140625
315,-22.04,2022-10-26 10:14:16.156250
316,-25.01,2022-10-26 10:14:16.171875
317,-28.33,2022-10-26 10:14:16.187500
318,-32.59,2022-10-26 10:14:16.203125
319,-38.2,2022-10-26 10:14:16.218750
320,-45.23,2022-10-26 10:14:16.234375
321,-53.2,2022-10-26 10:14:16.250000
322,-61.16,2022-10-26 10:14:16.265625
323,-67.67,2022-10-26 10:14:16.281250
324,-71.21,2022-10-26 10:14:16.296875
325,-70.57,2022-10-26 10:14:16.312500
326,-65.37,2022-10-26 10:14:16.328125
327,-56.22,2022-10-26 10:14:16.343750
328,-44.62,2022-10-26 10:14:16.359375
329,-32.46,2022-10-26 10:14:16.375000
330,-21.36,2022-10-26 10:14:16.390625
331,-12.13,2022-10-26 10:14:16.406250
332,-4.77,2022-10-26 10:14:16.421875
333,1.3,2022-10-26 10:14:16.437500
334,6.71,2022-10-26 10:14:16.453125
335,11.69,2022-10-26 10:14:16.468750
336,16.11,2022-10-26 10:14:16.484375
337,19.7,2022-10-26 10:14:16.500000
338,22.32,2022-10-26 10:14:16.515625
339,24.16,2022-10-26 10:14:16.531250
340,25.56,2022-10-26 10:14:16.546875
341,26.87,2022-10-26 10:14:16.562500
342,28.15,2022-10-26 10:14:16.578125
343,29.23,2022-10-26 10:14:16.593750
344,29.88,2022-10-26 10:14:16.609375
345,30.01,2022-10-26 10:14:16.625000
346,29.86,2022-10-26 10:14:16.640625
347,29.85,2022-10-26 10:14:16.656250
348,30.41,2022-10-26 10:14:16.671875
349,31.67,2022-10-26 10:14:16.687500
350,33.42,2022-10-26 10:14:16.703125
351,35.09,2022-10-26 10:14:16.718750
352,35.94,2022-10-26 10:14:16.734375
353,35.38,2022-10-26 10:14:16.750000
354,33.11,2022-10-26 10:14:16.765625
355,29.37,2022-10-26 10:14:16.781250
356,24.71,2022-10-26 10:14:16.796875
357,19.91,2022-10-26 10:14:16.812500
358,15.6,2022-10-26 10:14:16.828125
359,12.12,2022-10-26 10:14:16.843750
360,9.47,2022-10-26 10:14:16.859375
361,7.33,2022-10-26 10:14:16.875000
362,5.25,2022-10-26 10:14:16.890625
363,2.81,2022-10-26 10:14:16.906250
364,-0.27,2022-10-26 10:14:16.921875
365,-4.04,2022-10-26 10:14:16.937500
366,-8.32,2022-10-26 10:14:16.953125
367,-12.84,2022-10-26 10:14:16.968750
368,-17.36,2022-10-26 10:14:16.984375
369,-21.83,2022-10-26 10:14:17.000000
370,-26.45,2022-10-26 10:14:17.015625
371,-31.6,2022-10-26 10:14:17.031250
372,-37.76,2022-10-26 10:14:17.046875
373,-45.1,2022-10-26 10:14:17.062500
374,-53.34,2022-10-26 10:14:17.078125
375,-61.64,2022-10-26 10:14:17.093750
376,-68.71,2022-10-26 10:14:17.109375
377,-73.1,2022-10-26 10:14:17.125000
378,-73.63,2022-10-26 10:14:17.140625
379,-69.74,2022-10-26 10:14:17.156250
380,-61.65,2022-10-26 10:14:17.171875
381,-50.4,2022-10-26 10:14:17.187500
382,-37.44,2022-10-26 10:14:17.203125
383,-24.28,2022-10-26 10:14:17.218750
384,-12.11,2022-10-26 10:14:17.234375
385,-1.47,2022-10-26 10:14:17.250000
386,7.59,2022-10-26 10:14:17.265625
387,15.33,2022-10-26 10:14:17.281250
388,21.92,2022-10-26 10:14:17.296875
389,27.29,2022-10-26 10:14:17.312500
390,31.16,2022-10-26 10:14:17.328125
391,33.26,2022-10-26 10:14:17.343750
392,33.63,2022-10-26 10:14:17.359375
393,32.72,2022-10-26 10:14:17.375000
394,31.22,2022-10-26 10:14:17.390625
395,29.9,2022-10-26 10:14:17.406250
396,29.25,2022-10-26 10:14:17.421875
397,29.33,2022-10-26 10:14:17.437500
398,29.9,2022-10-26 10:14:17.453125
399,30.57,2022-10-26 10:14:17.468750
400,31.0,2022-10-26 10:14:17.484375
401,31.07,2022-10-26 10:14:17.500000
402,30.78,2022-10-26 10:14:17.515625
403,30.18,2022-10-26 10:14:17.531250
404,29.23,2022-10-26 10:14:17.546875
405,27.86,2022-10-26 10:14:17.562500
406,25.93,2022-10-26 10:14:17.578125
407,23.33,2022-10-26 10:14:17.593750
408,19.99,2022-10-26 10:14:17.609375
409,15.87,2022-10-26 10:14:17.625000
410,11.06,2022-10-26 10:14:17.640625
411,5.69,2022-10-26 10:14:17.656250
412,0.06,2022-10-26 10:14:17.671875
413,-5.52,2022-10-26 10:14:17.687500
414,-10.68,2022-10-26 10:14:17.703125
415,-15.2,2022-10-26 10:14:17.718750
416,-19.09,2022-10-26 10:14:17.734375
417,-22.54,2022-10-26 10:14:17.750000
418,-26.0,2022-10-26 10:14:17.765625
419,-29.97,2022-10-26 10:14:17.781250
420,-34.88,2022-10-26 10:14:17.796875
421,-40.93,2022-10-26 10:14:17.812500
422,-47.87,2022-10-26 10:14:17.828125
423,-54.94,2022-10-26 10:14:17.843750
424,-60.95,2022-10-26 10:14:17.859375
425,-64.4,2022-10-26 10:14:17.875000
426,-64.03,2022-10-26 10:14:17.890625
427,-59.19,2022-10-26 10:14:17.906250
428,-50.13,2022-10-26 10:14:17.921875
429,-38.03,2022-10-26 10:14:17.937500
430,-24.6,2022-10-26 10:14:17.953125
431,-11.54,2022-10-26 10:14:17.968750
432,0.03,2022-10-26 10:14:17.984375
433,9.71,2022-10-26 10:14:18.000000
434,17.77,2022-10-26 10:14:18.015625
435,24.63,2022-10-26 10:14:18.031250
436,30.55,2022-10-26 10:14:18.046875
437,35.37,2022-10-26 10:14:18.062500
438,38.72,2022-10-26 10:14:18.078125
439,40.31,2022-10-26 10:14:18.093750
440,40.19,2022-10-26 10:14:18.109375
441,38.88,2022-10-26 10:14:18.125000
442,37.17,2022-10-26 10:14:18.140625
443,35.75,2022-10-26 10:14:18.156250
444,35.01,2022-10-26 10:14:18.171875
445,34.97,2022-10-26 10:14:18.187500
446,35.4,2022-10-26 10:14:18.203125
447,35.96,2022-10-26 10:14:18.218750
448,36.41,2022-10-26 10:14:18.234375
449,36.64,2022-10-26 10:14:18.250000
450,36.64,2022-10-26 10:14:18.265625
451,36.47,2022-10-26 10:14:18.281250
452,36.14,2022-10-26 10:14:18.296875
453,35.56,2022-10-26 10:14:18.312500
454,34.57,2022-10-26 10:14:18.328125
455,32.92,2022-10-26 10:14:18.343750
456,30.41,2022-10-26 10:14:18.359375
457,26.99,2022-10-26 10:14:18.375000
458,22.85,2022-10-26 10:14:18.390625
459,18.4,2022-10-26 10:14:18.406250
460,14.11,2022-10-26 10:14:18.421875
461,10.35,2022-10-26 10:14:18.437500
462,7.2,2022-10-26 10:14:18.453125
463,4.43,2022-10-26 10:14:18.468750
464,1.56,2022-10-26 10:14:18.484375
465,-1.81,2022-10-26 10:14:18.500000
466,-5.88,2022-10-26 10:14:18.515625
467,-10.5,2022-10-26 10:14:18.531250
468,-15.25,2022-10-26 10:14:18.546875
469,-19.64,2022-10-26 10:14:18.562500
470,-23.34,2022-10-26 10:14:18.578125
471,-26.34,2022-10-26 10:14:18.593750
472,-28.93,2022-10-26 10:14:18.609375
473,-31.64,2022-10-26 10:14:18.625000
474,-35.03,2022-10-26 10:14:18.640625
475,-39.57,2022-10-26 10:14:18.656250
476,-45.56,2022-10-26 10:14:18.671875
477,-52.93,2022-10-26 10:14:18.687500
478,-61.18,2022-10-26 10:14:18.703125
479,-69.29,2022-10-26 10:14:18.718750
480,-75.75,2022-10-26 10:14:18.734375
481,-78.95,2022-10-26 10:14:18.750000
482,-77.67,2022-10-26 10:14:18.765625
483,-71.45,2022-10-26 10:14:18.781250
484,-60.87,2022-10-26 10:14:18.796875
485,-47.34,2022-10-26 10:14:18.812500
486,-32.58,2022-10-26 10:14:18.828125
487,-18.19,2022-10-26 10:14:18.843750
488,-5.21,2022-10-26 10:14:18.859375
489,5.9,2022-10-26 10:14:18.875000
490,15.08,2022-10-26 10:14:18.890625
491,22.48,2022-10-26 10:14:18.906250
492,28.37,2022-10-26 10:14:18.921875
493,32.95,2022-10-26 10:14:18.937500
494,36.45,2022-10-26 10:14:18.953125
495,39.02,2022-10-26 10:14:18.968750
496,40.74,2022-10-26 10:14:18.984375
497,41.68,2022-10-26 10:14:19.000000
498,41.91,2022-10-26 10:14:19.015625
499,41.58,2022-10-26 10:14:19.031250
500,40.88,2022-10-26 10:14:19.046875
501,40.08,2022-10-26 10:14:19.062500
502,39.44,2022-10-26 10:14:19.078125
503,39.12,2022-10-26 10:14:19.093750
504,39.2,2022-10-26 10:14:19.109375
505,39.67,2022-10-26 10:14:19.125000
506,40.46,2022-10-26 10:14:19.140625
507,41.37,2022-10-26 10:14:19.156250
508,42.09,2022-10-26 10:14:19.171875
509,42.34,2022-10-26 10:14:19.187500
510,41.85,2022-10-26 10:14:19.203125
511,40.48,2022-10-26 10:14:19.218750
512,38.3,2022-10-26 10:14:19.234375
513,35.58,2022-10-26 10:14:19.250000
514,32.67,2022-10-26 10:14:19.265625
515,29.94,2022-10-26 10:14:19.281250
516,27.55,2022-10-26 10:14:19.296875
517,25.48,2022-10-26 10:14:19.312500
518,23.48,2022-10-26 10:14:19.328125
519,21.28,2022-10-26 10:14:19.343750
520,18.7,2022-10-26 10:14:19.359375
521,15.79,2022-10-26 10:14:19.375000
522,12.8,2022-10-26 10:14:19.390625
523,9.94,2022-10-26 10:14:19.406250
524,7.3,2022-10-26 10:14:19.421875
525,4.71,2022-10-26 10:14:19.437500
526,1.97,2022-10-26 10:14:19.453125
527,-1.08,2022-10-26 10:14:19.468750
528,-4.38,2022-10-26 10:14:19.484375
529,-7.69,2022-10-26 10:14:19.500000
530,-10.75,2022-10-26 10:14:19.515625
531,-13.46,2022-10-26 10:14:19.531250
532,-16.01,2022-10-26 10:14:19.546875
533,-18.67,2022-10-26 10:14:19.562500
534,-21.78,2022-10-26 10:14:19.578125
535,-25.48,2022-10-26 10:14:19.593750
536,-29.7,2022-10-26 10:14:19.609375
537,-34.15,2022-10-26 10:14:19.625000
538,-38.47,2022-10-26 10:14:19.640625
539,-42.33,2022-10-26 10:14:19.656250
540,-45.62,2022-10-26 10:14:19.671875
541,-48.48,2022-10-26 10:14:19.687500
542,-51.25,2022-10-26 10:14:19.703125
543,-54.42,2022-10-26 10:14:19.718750
544,-58.5,2022-10-26 10:14:19.734375
545,-63.86,2022-10-26 10:14:19.750000
546,-70.45,2022-10-26 10:14:19.765625
547,-77.69,2022-10-26 10:14:19.781250
548,-84.39,2022-10-26 10:14:19.796875
549,-88.96,2022-10-26 10:14:19.812500
550,-89.84,2022-10-26 10:14:19.828125
551,-85.89,2022-10-26 10:14:19.843750
552,-76.96,2022-10-26 10:14:19.859375
553,-63.86,2022-10-26 10:14:19.875000
554,-48.18,2022-10-26 10:14:19.890625
555,-31.84,2022-10-26 10:14:19.906250
556,-16.49,2022-10-26 10:14:19.921875
557,-3.19,2022-10-26 10:14:19.937500
558,7.68,2022-10-26 10:14:19.953125
559,16.22,2022-10-26 10:14:19.968750
560,22.74,2022-10-26 10:14:19.984375
561,27.57,2022-10-26 10:14:20.000000
562,30.97,2022-10-26 10:14:20.015625
563,33.19,2022-10-26 10:14:20.031250
564,34.45,2022-10-26 10:14:20.046875
565,35.06,2022-10-26 10:14:20.062500
566,35.33,2022-10-26 10:14:20.078125
567,35.54,2022-10-26 10:14:20.093750
568,35.82,2022-10-26 10:14:20.109375
569,36.24,2022-10-26 10:14:20.125000
570,36.77,2022-10-26 10:14:20.140625
571,37.4,2022-10-26 10:14:20.156250
572,38.12,2022-10-26 10:14:20.171875
573,38.93,2022-10-26 10:14:20.187500
574,39.85,2022-10-26 10:14:20.203125
575,40.83,2022-10-26 10:14:20.218750
576,41.77,2022-10-26 10:14:20.234375
577,42.45,2022-10-26 10:14:20.250000
578,42.65,2022-10-26 10:14:20.265625
579,42.12,2022-10-26 10:14:20.281250
580,40.72,2022-10-26 10:14:20.296875
581,38.39,2022-10-26 10:14:20.312500
582,35.23,2022-10-26 10:14:20.328125
583,31.52,2022-10-26 10:14:20.343750
584,27.6,2022-10-26 10:14:20.359375
585,23.87,2022-10-26 10:14:20.375000
586,20.61,2022-10-26 10:14:20.390625
587,17.92,2022-10-26 10:14:20.406250
588,15.67,2022-10-26 10:14:20.421875
589,13.68,2022-10-26 10:14:20.437500
590,11.7,2022-10-26 10:14:20.453125
591,9.6,2022-10-26 10:14:20.468750
592,7.36,2022-10-26 10:14:20.484375
593,5.06,2022-10-26 10:14:20.500000
594,2.77,2022-10-26 10:14:20.515625
595,0.51,2022-10-26 10:14:20.531250
596,-1.81,2022-10-26 10:14:20.546875
597,-4.42,2022-10-26 10:14:20.562500
598,-7.54,2022-10-26 10:14:20.578125
599,-11.37,2022-10-26 10:14:20.593750
600,-15.95,2022-10-26 10:14:20.609375
601,-21.12,2022-10-26 10:14:20.625000
602,-26.52,2022-10-26 10:14:20.640625
603,-31.69,2022-10-26 10:14:20.656250
604,-36.23,2022-10-26 10:14:20.671875
605,-39.96,2022-10-26 10:14:20.687500
606,-43.08,2022-10-26 10:14:20.703125
607,-46.08,2022-10-26 10:14:20.718750
608,-49.6,2022-10-26 10:14:20.734375
609,-54.25,2022-10-26 10:14:20.750000
610,-60.29,2022-10-26 10:14:20.765625
611,-67.48,2022-10-26 10:14:20.781250
612,-74.99,2022-10-26 10:14:20.796875
613,-81.49,2022-10-26 10:14:20.812500
614,-85.36,2022-10-26 10:14:20.828125
615,-85.16,2022-10-26 10:14:20.843750
616,-80.09,2022-10-26 10:14:20.859375
617,-70.29,2022-10-26 10:14:20.875000
618,-56.76,2022-10-26 10:14:20.890625
619,-41.13,2022-10-26 10:14:20.906250
620,-25.18,2022-10-26 10:14:20.921875
621,-10.33,2022-10-26 10:14:20.937500
622,2.54,2022-10-26 10:14:20.953125
623,13.17,2022-10-26 10:14:20.968750
624,21.66,2022-10-26 10:14:20.984375
625,28.27,2022-10-26 10:14:21.000000
626,33.19,2022-10-26 10:14:21.015625
627,36.52,2022-10-26 10:14:21.031250
628,38.28,2022-10-26 10:14:21.046875
629,38.54,2022-10-26 10:14:21.062500
630,37.51,2022-10-26 10:14:21.078125
631,35.58,2022-10-26 10:14:21.093750
632,33.25,2022-10-26 10:14:21.109375
633,31.03,2022-10-26 10:14:21.125000
634,29.4,2022-10-26 10:14:21.140625
635,28.6,2022-10-26 10:14:21.156250
636,28.69,2022-10-26 10:14:21.171875
637,29.57,2022-10-26 10:14:21.187500
638,31.01,2022-10-26 10:14:21.203125
639,32.76,2022-10-26 10:14:21.218750
640,34.54,2022-10-26 10:14:21.234375
641,36.1,2022-10-26 10:14:21.250000
642,37.09,2022-10-26 10:14:21.265625
643,37.29,2022-10-26 10:14:21.281250
644,36.5,2022-10-26 10:14:21.296875
645,34.71,2022-10-26 10:14:21.312500
646,32.09,2022-10-26 10:14:21.328125
647,28.98,2022-10-26 10:14:21.343750
648,25.8,2022-10-26 10:14:21.359375
649,22.84,2022-10-26 10:14:21.375000
650,20.19,2022-10-26 10:14:21.390625
651,17.67,2022-10-26 10:14:21.406250
652,14.98,2022-10-26 10:14:21.421875
653,11.88,2022-10-26 10:14:21.437500
654,8.34,2022-10-26 10:14:21.453125
655,4.62,2022-10-26 10:14:21.468750
656,1.13,2022-10-26 10:14:21.484375
657,-1.78,2022-10-26 10:14:21.500000
658,-4.05,2022-10-26 10:14:21.515625
659,-5.99,2022-10-26 10:14:21.531250
660,-8.12,2022-10-26 10:14:21.546875
661,-10.95,2022-10-26 10:14:21.562500
662,-14.69,2022-10-26 10:14:21.578125
663,-19.18,2022-10-26 10:14:21.593750
664,-23.96,2022-10-26 10:14:21.609375
665,-28.54,2022-10-26 10:14:21.625000
666,-32.54,2022-10-26 10:14:21.640625
667,-35.83,2022-10-26 10:14:21.656250
668,-38.55,2022-10-26 10:14:21.671875
669,-41.03,2022-10-26 10:14:21.687500
670,-43.78,2022-10-26 10:14:21.703125
671,-47.44,2022-10-26 10:14:21.718750
672,-52.55,2022-10-26 10:14:21.734375
673,-59.25,2022-10-26 10:14:21.750000
674,-66.95,2022-10-26 10:14:21.765625
675,-74.21,2022-10-26 10:14:21.781250
676,-79.02,2022-10-26 10:14:21.796875
677,-79.51,2022-10-26 10:14:21.812500
678,-74.61,2022-10-26 10:14:21.828125
679,-64.6,2022-10-26 10:14:21.843750
680,-50.88,2022-10-26 10:14:21.859375
681,-35.51,2022-10-26 10:14:21.875000
682,-20.34,2022-10-26 10:14:21.890625
683,-6.57,2022-10-26 10:14:21.906250
684,5.34,2022-10-26 10:14:21.921875
685,15.34,2022-10-26 10:14:21.937500
686,23.45,2022-10-26 10:14:21.953125
687,29.59,2022-10-26 10:14:21.968750
688,33.59,2022-10-26 10:14:21.984375
689,35.46,2022-10-26 10:14:22.000000
690,35.55,2022-10-26 10:14:22.015625
691,34.48,2022-10-26 10:14:22.031250
692,32.92,2022-10-26 10:14:22.046875
693,31.35,2022-10-26 10:14:22.062500
694,30.0,2022-10-26 10:14:22.078125
695,28.88,2022-10-26 10:14:22.093750
696,27.98,2022-10-26 10:14:22.109375
697,27.36,2022-10-26 10:14:22.125000
698,27.14,2022-10-26 10:14:22.140625
699,27.5,2022-10-26 10:14:22.156250
700,28.51,2022-10-26 10:14:22.171875
701,30.09,2022-10-26 10:14:22.187500
702,31.96,2022-10-26 10:14:22.203125
703,33.7,2022-10-26 10:14:22.218750
704,34.82,2022-10-26 10:14:22.234375
705,34.97,2022-10-26 10:14:22.250000
706,33.99,2022-10-26 10:14:22.265625
707,32.01,2022-10-26 10:14:22.281250
708,29.44,2022-10-26 10:14:22.296875
709,26.75,2022-10-26 10:14:22.312500
710,24.33,2022-10-26 10:14:22.328125
711,22.29,2022-10-26 10:14:22.343750
712,20.46,2022-10-26 10:14:22.359375
713,18.49,2022-10-26 10:14:22.375000
714,16.04,2022-10-26 10:14:22.390625
715,12.94,2022-10-26 10:14:22.406250
716,9.27,2022-10-26 10:14:22.421875
717,5.29,2022-10-26 10:14:22.437500
718,1.33,2022-10-26 10:14:22.453125
719,-2.35,2022-10-26 10:14:22.468750
720,-5.6,2022-10-26 10:14:22.484375
721,-8.57,2022-10-26 10:14:22.500000
722,-11.49,2022-10-26 10:14:22.515625
723,-14.73,2022-10-26 10:14:22.531250
724,-18.51,2022-10-26 10:14:22.546875
725,-22.84,2022-10-26 10:14:22.562500
726,-27.42,2022-10-26 10:14:22.578125
727,-31.85,2022-10-26 10:14:22.593750
728,-35.75,2022-10-26 10:14:22.609375
729,-39.19,2022-10-26 10:14:22.625000
730,-42.63,2022-10-26 10:14:22.640625
731,-46.91,2022-10-26 10:14:22.656250
732,-52.74,2022-10-26 10:14:22.671875
733,-60.39,2022-10-26 10:14:22.687500
734,-69.32,2022-10-26 10:14:22.703125
735,-78.17,2022-10-26 10:14:22.718750
736,-85.11,2022-10-26 10:14:22.734375
737,-88.3,2022-10-26 10:14:22.750000
738,-86.53,2022-10-26 10:14:22.765625
739,-79.47,2022-10-26 10:14:22.781250
740,-67.81,2022-10-26 10:14:22.796875
741,-52.98,2022-10-26 10:14:22.812500
742,-36.77,2022-10-26 10:14:22.828125
743,-20.83,2022-10-26 10:14:22.843750
744,-6.41,2022-10-26 10:14:22.859375
745,5.78,2022-10-26 10:14:22.875000
746,15.5,2022-10-26 10:14:22.890625
747,22.8,2022-10-26 10:14:22.906250
748,27.88,2022-10-26 10:14:22.921875
749,31.05,2022-10-26 10:14:22.937500
750,32.66,2022-10-26 10:14:22.953125
751,33.12,2022-10-26 10:14:22.968750
752,32.92,2022-10-26 10:14:22.984375
753,32.5,2022-10-26 10:14:23.000000
754,32.21,2022-10-26 10:14:23.015625
755,32.33,2022-10-26 10:14:23.031250
756,32.95,2022-10-26 10:14:23.046875
757,34.17,2022-10-26 10:14:23.062500
758,36.04,2022-10-26 10:14:23.078125
759,38.59,2022-10-26 10:14:23.093750
760,41.7,2022-10-26 10:14:23.109375
761,45.16,2022-10-26 10:14:23.125000
762,48.57,2022-10-26 10:14:23.140625
763,51.45,2022-10-26 10:14:23.156250
764,53.42,2022-10-26 10:14:23.171875
765,54.26,2022-10-26 10:14:23.187500
766,53.98,2022-10-26 10:14:23.203125
767,52.74,2022-10-26 10:14:23.218750
768,50.75,2022-10-26 10:14:23.234375
769,48.16,2022-10-26 10:14:23.250000
770,45.0,2022-10-26 10:14:23.265625
771,41.33,2022-10-26 10:14:23.281250
772,37.14,2022-10-26 10:14:23.296875
773,32.57,2022-10-26 10:14:23.312500
774,27.79,2022-10-26 10:14:23.328125
775,22.99,2022-10-26 10:14:23.343750
776,18.35,2022-10-26 10:14:23.359375
777,13.99,2022-10-26 10:14:23.375000
778,9.93,2022-10-26 10:14:23.390625
779,6.07,2022-10-26 10:14:23.406250
780,2.26,2022-10-26 10:14:23.421875
781,-1.72,2022-10-26 10:14:23.437500
782,-6.03,2022-10-26 10:14:23.453125
783,-10.75,2022-10-26 10:14:23.468750
784,-15.83,2022-10-26 10:14:23.484375
785,-21.13,2022-10-26 10:14:23.500000
786,-26.45,2022-10-26 10:14:23.515625
787,-31.62,2022-10-26 10:14:23.531250
788,-36.54,2022-10-26 10:14:23.546875
789,-41.24,2022-10-26 10:14:23.562500
790,-45.9,2022-10-26 10:14:23.578125
791,-50.82,2022-10-26 10:14:23.593750
792,-56.4,2022-10-26 10:14:23.609375
793,-62.97,2022-10-26 10:14:23.625000
794,-70.51,2022-10-26 10:14:23.640625
795,-78.42,2022-10-26 10:14:23.656250
796,-85.4,2022-10-26 10:14:23.671875
797,-89.65,2022-10-26 10:14:23.687500
798,-89.29,2022-10-26 10:14:23.703125
799,-83.13,2022-10-26 10:14:23.718750
800,-70.94,2022-10-26 10:14:23.734375
801,-53.73,2022-10-26 10:14:23.750000
802,-33.45,2022-10-26 10:14:23.765625
803,-12.39,2022-10-26 10:14:23.781250
804,7.37,2022-10-26 10:14:23.796875
805,24.37,2022-10-26 10:14:23.812500
806,37.92,2022-10-26 10:14:23.828125
807,47.95,2022-10-26 10:14:23.843750
808,54.65,2022-10-26 10:14:23.859375
809,58.35,2022-10-26 10:14:23.875000
810,59.36,2022-10-26 10:14:23.890625
811,58.05,2022-10-26 10:14:23.906250
812,54.9,2022-10-26 10:14:23.921875
813,50.51,2022-10-26 10:14:23.937500
814,45.54,2022-10-26 10:14:23.953125
815,40.49,2022-10-26 10:14:23.968750
816,35.7,2022-10-26 10:14:23.984375
817,31.25,2022-10-26 10:14:24.000000
818,27.14,2022-10-26 10:14:24.015625
819,23.43,2022-10-26 10:14:24.031250
820,20.38,2022-10-26 10:14:24.046875
821,18.26,2022-10-26 10:14:24.062500
822,17.22,2022-10-26 10:14:24.078125
823,17.07,2022-10-26 10:14:24.093750
824,17.28,2022-10-26 10:14:24.109375
825,17.18,2022-10-26 10:14:24.125000
826,16.3,2022-10-26 10:14:24.140625
827,14.59,2022-10-26 10:14:24.156250
828,12.3,2022-10-26 10:14:24.171875
829,9.76,2022-10-26 10:14:24.187500
830,7.12,2022-10-26 10:14:24.203125
831,4.13,2022-10-26 10:14:24.218750
832,0.42,2022-10-26 10:14:24.234375
833,-4.31,2022-10-26 10:14:24.250000
834,-9.93,2022-10-26 10:14:24.265625
835,-15.97,2022-10-26 10:14:24.281250
836,-21.7,2022-10-26 10:14:24.296875
837,-26.61,2022-10-26 10:14:24.312500
838,-30.58,2022-10-26 10:14:24.328125
839,-33.97,2022-10-26 10:14:24.343750
840,-37.44,2022-10-26 10:14:24.359375
841,-41.67,2022-10-26 10:14:24.375000
842,-47.07,2022-10-26 10:14:24.390625
843,-53.6,2022-10-26 10:14:24.406250
844,-60.64,2022-10-26 10:14:24.421875
845,-67.08,2022-10-26 10:14:24.437500
846,-71.51,2022-10-26 10:14:24.453125
847,-72.64,2022-10-26 10:14:24.468750
848,-69.64,2022-10-26 10:14:24.484375
849,-62.43,2022-10-26 10:14:24.500000
850,-51.73,2022-10-26 10:14:24.515625
851,-38.79,2022-10-26 10:14:24.531250
852,-25.01,2022-10-26 10:14:24.546875
853,-11.64,2022-10-26 10:14:24.562500
854,0.41,2022-10-26 10:14:24.578125
855,10.62,2022-10-26 10:14:24.593750
856,18.74,2022-10-26 10:14:24.609375
857,24.65,2022-10-26 10:14:24.625000
858,28.38,2022-10-26 10:14:24.640625
859,30.04,2022-10-26 10:14:24.656250
860,29.83,2022-10-26 10:14:24.671875
861,28.11,2022-10-26 10:14:24.687500
862,25.29,2022-10-26 10:14:24.703125
863,21.86,2022-10-26 10:14:24.718750
864,18.37,2022-10-26 10:14:24.734375
865,15.35,2022-10-26 10:14:24.750000
866,13.19,2022-10-26 10:14:24.765625
867,12.03,2022-10-26 10:14:24.781250
868,11.73,2022-10-26 10:14:24.796875
869,11.98,2022-10-26 10:14:24.812500
870,12.46,2022-10-26 10:14:24.828125
871,12.96,2022-10-26 10:14:24.843750
872,13.38,2022-10-26 10:14:24.859375
873,13.71,2022-10-26 10:14:24.875000
874,13.86,2022-10-26 10:14:24.890625
875,13.56,2022-10-26 10:14:24.906250
876,12.5,2022-10-26 10:14:24.921875
877,10.39,2022-10-26 10:14:24.937500
878,7.26,2022-10-26 10:14:24.953125
879,3.44,2022-10-26 10:14:24.968750
880,-0.52,2022-10-26 10:14:24.984375
881,-4.08,2022-10-26 10:14:25.000000
882,-6.99,2022-10-26 10:14:25.015625
883,-9.44,2022-10-26 10:14:25.031250
884,-12.01,2022-10-26 10:14:25.046875
885,-15.43,2022-10-26 10:14:25.062500
886,-20.36,2022-10-26 10:14:25.078125
887,-27.15,2022-10-26 10:14:25.093750
888,-35.67,2022-10-26 10:14:25.109375
889,-45.23,2022-10-26 10:14:25.125000
890,-54.57,2022-10-26 10:14:25.140625
891,-62.06,2022-10-26 10:14:25.156250
892,-65.99,2022-10-26 10:14:25.171875
893,-65.04,2022-10-26 10:14:25.187500
894,-58.71,2022-10-26 10:14:25.203125
895,-47.54,2022-10-26 10:14:25.218750
896,-33.06,2022-10-26 10:14:25.234375
897,-17.23,2022-10-26 10:14:25.250000
898,-1.92,2022-10-26 10:14:25.265625
899,11.55,2022-10-26 10:14:25.281250
900,22.64,2022-10-26 10:14:25.296875
901,31.31,2022-10-26 10:14:25.312500
902,37.69,2022-10-26 10:14:25.328125
903,41.83,2022-10-26 10:14:25.343750
904,43.65,2022-10-26 10:14:25.359375
905,43.1,2022-10-26 10:14:25.375000
906,40.39,2022-10-26 10:14:25.390625
907,36.11,2022-10-26 10:14:25.406250
908,31.13,2022-10-26 10:14:25.421875
909,26.4,2022-10-26 10:14:25.437500
910,22.66,2022-10-26 10:14:25.453125
911,20.26,2022-10-26 10:14:25.468750
912,19.18,2022-10-26 10:14:25.484375
913,19.03,2022-10-26 10:14:25.500000
914,19.35,2022-10-26 10:14:25.515625
915,19.74,2022-10-26 10:14:25.531250
916,19.98,2022-10-26 10:14:25.546875
917,20.04,2022-10-26 10:14:25.562500
918,19.88,2022-10-26 10:14:25.578125
919,19.46,2022-10-26 10:14:25.593750
920,18.51,2022-10-26 10:14:25.609375
921,16.69,2022-10-26 10:14:25.625000
922,13.69,2022-10-26 10:14:25.640625
923,9.4,2022-10-26 10:14:25.656250
924,4.09,2022-10-26 10:14:25.671875
925,-1.73,2022-10-26 10:14:25.687500
926,-7.4,2022-10-26 10:14:25.703125
927,-12.48,2022-10-26 10:14:25.718750
928,-16.87,2022-10-26 10:14:25.734375
929,-20.89,2022-10-26 10:14:25.750000
930,-25.04,2022-10-26 10:14:25.765625
931,-29.91,2022-10-26 10:14:25.781250
932,-35.94,2022-10-26 10:14:25.796875
933,-43.23,2022-10-26 10:14:25.812500
934,-51.5,2022-10-26 10:14:25.828125
935,-60.0,2022-10-26 10:14:25.843750
936,-67.51,2022-10-26 10:14:25.859375
937,-72.6,2022-10-26 10:14:25.875000
938,-73.83,2022-10-26 10:14:25.890625
939,-70.21,2022-10-26 10:14:25.906250
940,-61.55,2022-10-26 10:14:25.921875
941,-48.61,2022-10-26 10:14:25.937500
942,-32.91,2022-10-26 10:14:25.953125
943,-16.28,2022-10-26 10:14:25.968750
944,-0.35,2022-10-26 10:14:25.984375
945,13.75,2022-10-26 10:14:26.000000
946,25.45,2022-10-26 10:14:26.015625
947,34.55,2022-10-26 10:14:26.031250
948,41.08,2022-10-26 10:14:26.046875
949,45.08,2022-10-26 10:14:26.062500
950,46.68,2022-10-26 10:14:26.078125
951,46.11,2022-10-26 10:14:26.093750
952,43.82,2022-10-26 10:14:26.109375
953,40.39,2022-10-26 10:14:26.125000
954,36.48,2022-10-26 10:14:26.140625
955,32.67,2022-10-26 10:14:26.156250
956,29.33,2022-10-26 10:14:26.171875
957,26.59,2022-10-26 10:14:26.187500
958,24.4,2022-10-26 10:14:26.203125
959,22.67,2022-10-26 10:14:26.218750
960,21.33,2022-10-26 10:14:26.234375
961,20.4,2022-10-26 10:14:26.250000
962,19.95,2022-10-26 10:14:26.265625
963,19.99,2022-10-26 10:14:26.281250
964,20.37,2022-10-26 10:14:26.296875
965,20.67,2022-10-26 10:14:26.312500
966,20.31,2022-10-26 10:14:26.328125
967,18.71,2022-10-26 10:14:26.343750
968,15.55,2022-10-26 10:14:26.359375
969,10.95,2022-10-26 10:14:26.375000
970,5.46,2022-10-26 10:14:26.390625
971,-0.18,2022-10-26 10:14:26.406250
972,-5.25,2022-10-26 10:14:26.421875
973,-9.44,2022-10-26 10:14:26.437500
974,-12.95,2022-10-26 10:14:26.453125
975,-16.35,2022-10-26 10:14:26.468750
976,-20.43,2022-10-26 10:14:26.484375
977,-25.84,2022-10-26 10:14:26.500000
978,-32.78,2022-10-26 10:14:26.515625
979,-40.93,2022-10-26 10:14:26.531250
980,-49.31,2022-10-26 10:14:26.546875
981,-56.45,2022-10-26 10:14:26.562500
982,-60.71,2022-10-26 10:14:26.578125
983,-60.76,2022-10-26 10:14:26.593750
984,-56.04,2022-10-26 10:14:26.609375
985,-46.98,2022-10-26 10:14:26.625000
986,-34.92,2022-10-26 10:14:26.640625
987,-21.6,2022-10-26 10:14:26.656250
988,-8.63,2022-10-26 10:14:26.671875
989,2.98,2022-10-26 10:14:26.687500
990,12.91,2022-10-26 10:14:26.703125
991,21.29,2022-10-26 10:14:26.718750
992,28.4,2022-10-26 10:14:26.734375
993,34.31,2022-10-26 10:14:26.750000
994,38.86,2022-10-26 10:14:26.765625
995,41.77,2022-10-26 10:14:26.781250
996,42.92,2022-10-26 10:14:26.796875
997,42.47,2022-10-26 10:14:26.812500
998,40.96,2022-10-26 10:14:26.828125
999,39.11,2022-10-26 10:14:26.843750
1000,37.63,2022-10-26 10:14:26.859375
1001,36.89,2022-10-26 10:14:26.875000
1002,36.9,2022-10-26 10:14:26.890625
1003,37.21,2022-10-26 10:14:26.906250
1004,37.23,2022-10-26 10:14:26.921875
1005,36.46,2022-10-26 10:14:26.937500
1006,34.74,2022-10-26 10:14:26.953125
1007,32.31,2022-10-26 10:14:26.968750
1008,29.6,2022-10-26 10:14:26.984375
1009,26.96,2022-10-26 10:14:27.000000
1010,24.48,2022-10-26 10:14:27.015625
1011,21.9,2022-10-26 10:14:27.031250
1012,18.78,2022-10-26 10:14:27.046875
1013,14.76,2022-10-26 10:14:27.062500
1014,9.78,2022-10-26 10:14:27.078125
1015,4.14,2022-10-26 10:14:27.093750
1016,-1.62,2022-10-26 10:14:27.109375
1017,-6.93,2022-10-26 10:14:27.125000
1018,-11.42,2022-10-26 10:14:27.140625
1019,-15.07,2022-10-26 10:14:27.156250
1020,-18.18,2022-10-26 10:14:27.171875
1021,-21.34,2022-10-26 10:14:27.187500
1022,-25.11,2022-10-26 10:14:27.203125
1023,-29.9,2022-10-26 10:14:27.218750
1024,-35.85,2022-10-26 10:14:27.234375
1025,-42.64,2022-10-26 10:14:27.250000
1026,-49.56,2022-10-26 10:14:27.265625
1027,-55.46,2022-10-26 10:14:27.281250
1028,-59.01,2022-10-26 10:14:27.296875
1029,-58.96,2022-10-26 10:14:27.312500
1030,-54.56,2022-10-26 10:14:27.328125
1031,-45.87,2022-10-26 10:14:27.343750
1032,-33.75,2022-10-26 10:14:27.359375
1033,-19.73,2022-10-26 10:14:27.375000
1034,-5.46,2022-10-26 10:14:27.390625
1035,7.64,2022-10-26 10:14:27.406250
1036,18.69,2022-10-26 10:14:27.421875
1037,27.34,2022-10-26 10:14:27.437500
1038,33.62,2022-10-26 10:14:27.453125
1039,37.67,2022-10-26 10:14:27.468750
1040,39.7,2022-10-26 10:14:27.484375
1041,39.88,2022-10-26 10:14:27.500000
1042,38.52,2022-10-26 10:14:27.515625
1043,35.96,2022-10-26 10:14:27.531250
1044,32.65,2022-10-26 10:14:27.546875
1045,29.06,2022-10-26 10:14:27.562500
1046,25.6,2022-10-26 10:14:27.578125
1047,22.64,2022-10-26 10:14:27.593750
1048,20.35,2022-10-26 10:14:27.609375
1049,18.73,2022-10-26 10:14:27.625000
1050,17.61,2022-10-26 10:14:27.640625
1051,16.7,2022-10-26 10:14:27.656250
1052,15.74,2022-10-26 10:14:27.671875
1053,14.6,2022-10-26 10:14:27.687500
1054,13.27,2022-10-26 10:14:27.703125
1055,11.8,2022-10-26 10:14:27.718750
1056,10.14,2022-10-26 10:14:27.734375
1057,8.13,2022-10-26 10:14:27.750000
1058,5.51,2022-10-26 10:14:27.765625
1059,2.12,2022-10-26 10:14:27.781250
1060,-1.92,2022-10-26 10:14:27.796875
1061,-6.24,2022-10-26 10:14:27.812500
1062,-10.33,2022-10-26 10:14:27.828125
1063,-13.81,2022-10-26 10:14:27.843750
1064,-16.68,2022-10-26 10:14:27.859375
1065,-19.37,2022-10-26 10:14:27.875000
1066,-22.56,2022-10-26 10:14:27.890625
1067,-26.95,2022-10-26 10:14:27.906250
1068,-32.91,2022-10-26 10:14:27.921875
1069,-40.28,2022-10-26 10:14:27.937500
1070,-48.33,2022-10-26 10:14:27.953125
1071,-55.74,2022-10-26 10:14:27.968750
1072,-60.91,2022-10-26 10:14:27.984375
1073,-62.38,2022-10-26 10:14:28.000000
1074,-59.18,2022-10-26 10:14:28.015625
1075,-51.29,2022-10-26 10:14:28.031250
1076,-39.65,2022-10-26 10:14:28.046875
1077,-25.84,2022-10-26 10:14:28.062500
1078,-11.66,2022-10-26 10:14:28.078125
1079,1.51,2022-10-26 10:14:28.093750
1080,12.96,2022-10-26 10:14:28.109375
1081,22.54,2022-10-26 10:14:28.125000
1082,30.38,2022-10-26 10:14:28.140625
1083,36.54,2022-10-26 10:14:28.156250
1084,40.9,2022-10-26 10:14:28.171875
1085,43.29,2022-10-26 10:14:28.187500
1086,43.78,2022-10-26 10:14:28.203125
1087,42.71,2022-10-26 10:14:28.218750
1088,40.7,2022-10-26 10:14:28.234375
1089,38.41,2022-10-26 10:14:28.250000
1090,36.31,2022-10-26 10:14:28.265625
1091,34.56,2022-10-26 10:14:28.281250
1092,33.1,2022-10-26 10:14:28.296875
1093,31.77,2022-10-26 10:14:28.312500
1094,30.4,2022-10-26 10:14:28.328125
1095,28.96,2022-10-26 10:14:28.343750
1096,27.46,2022-10-26 10:14:28.359375
1097,25.94,2022-10-26 10:14:28.375000
1098,24.39,2022-10-26 10:14:28.390625
1099,22.67,2022-10-26 10:14:28.406250
1100,20.6,2022-10-26 10:14:28.421875
1101,17.97,2022-10-26 10:14:28.437500
1102,14.64,2022-10-26 10:14:28.453125
1103,10.65,2022-10-26 10:14:28.468750
1104,6.21,2022-10-26 10:14:28.484375
1105,1.66,2022-10-26 10:14:28.500000
1106,-2.67,2022-10-26 10:14:28.515625
1107,-6.54,2022-10-26 10:14:28.531250
1108,-9.97,2022-10-26 10:14:28.546875
1109,-13.13,2022-10-26 10:14:28.562500
1110,-16.41,2022-10-26 10:14:28.578125
1111,-20.32,2022-10-26 10:14:28.593750
1112,-25.34,2022-10-26 10:14:28.609375
1113,-31.83,2022-10-26 10:14:28.625000
1114,-39.73,2022-10-26 10:14:28.640625
1115,-48.42,2022-10-26 10:14:28.656250
1116,-56.57,2022-10-26 10:14:28.671875
1117,-62.45,2022-10-26 10:14:28.687500
1118,-64.36,2022-10-26 10:14:28.703125
1119,-61.22,2022-10-26 10:14:28.718750
1120,-53.05,2022-10-26 10:14:28.734375
1121,-40.89,2022-10-26 10:14:28.750000
1122,-26.52,2022-10-26 10:14:28.765625
1123,-11.81,2022-10-26 10:14:28.781250
1124,1.77,2022-10-26 10:14:28.796875
1125,13.45,2022-10-26 10:14:28.812500
1126,23.09,2022-10-26 10:14:28.828125
1127,30.88,2022-10-26 10:14:28.843750
1128,37.05,2022-10-26 10:14:28.859375
1129,41.63,2022-10-26 10:14:28.875000
1130,44.52,2022-10-26 10:14:28.890625
1131,45.6,2022-10-26 10:14:28.906250
1132,44.88,2022-10-26 10:14:28.921875
1133,42.63,2022-10-26 10:14:28.937500
1134,39.41,2022-10-26 10:14:28.953125
1135,35.98,2022-10-26 10:14:28.968750
1136,33.05,2022-10-26 10:14:28.984375
1137,31.12,2022-10-26 10:14:29.000000
1138,30.31,2022-10-26 10:14:29.015625
1139,30.41,2022-10-26 10:14:29.031250
1140,30.95,2022-10-26 10:14:29.046875
1141,31.42,2022-10-26 10:14:29.062500
1142,31.45,2022-10-26 10:14:29.078125
1143,30.94,2022-10-26 10:14:29.093750
1144,29.95,2022-10-26 10:14:29.109375
1145,28.61,2022-10-26 10:14:29.125000
1146,26.97,2022-10-26 10:14:29.140625
1147,24.9,2022-10-26 10:14:29.156250
1148,22.2,2022-10-26 10:14:29.171875
1149,18.59,2022-10-26 10:14:29.187500
1150,14.02,2022-10-26 10:14:29.203125
1151,8.65,2022-10-26 10:14:29.218750
1152,2.92,2022-10-26 10:14:29.234375
1153,-2.61,2022-10-26 10:14:29.250000
1154,-7.47,2022-10-26 10:14:29.265625
1155,-11.5,2022-10-26 10:14:29.281250
1156,-14.88,2022-10-26 10:14:29.296875
1157,-18.1,2022-10-26 10:14:29.312500
1158,-21.74,2022-10-26 10:14:29.328125
1159,-26.32,2022-10-26 10:14:29.343750
1160,-32.16,2022-10-26 10:14:29.359375
1161,-39.33,2022-10-26 10:14:29.375000
1162,-47.62,2022-10-26 10:14:29.390625
1163,-56.35,2022-10-26 10:14:29.406250
1164,-64.4,2022-10-26 10:14:29.421875
1165,-70.27,2022-10-26 10:14:29.437500
1166,-72.4,2022-10-26 10:14:29.453125
1167,-69.64,2022-10-26 10:14:29.468750
1168,-61.71,2022-10-26 10:14:29.484375
1169,-49.43,2022-10-26 10:14:29.500000
1170,-34.55,2022-10-26 10:14:29.515625
1171,-19.13,2022-10-26 10:14:29.531250
1172,-4.9,2022-10-26 10:14:29.546875
1173,7.16,2022-10-26 10:14:29.562500
1174,16.89,2022-10-26 10:14:29.578125
1175,24.59,2022-10-26 10:14:29.593750
1176,30.7,2022-10-26 10:14:29.609375
1177,35.44,2022-10-26 10:14:29.625000
1178,38.85,2022-10-26 10:14:29.640625
1179,40.88,2022-10-26 10:14:29.656250
1180,41.64,2022-10-26 10:14:29.671875
1181,41.42,2022-10-26 10:14:29.687500
1182,40.65,2022-10-26 10:14:29.703125
1183,39.74,2022-10-26 10:14:29.718750
1184,38.95,2022-10-26 10:14:29.734375
1185,38.32,2022-10-26 10:14:29.750000
1186,37.79,2022-10-26 10:14:29.765625
1187,37.33,2022-10-26 10:14:29.781250
1188,36.96,2022-10-26 10:14:29.796875
1189,36.84,2022-10-26 10:14:29.812500
1190,37.09,2022-10-26 10:14:29.828125
1191,37.66,2022-10-26 10:14:29.843750
1192,38.23,2022-10-26 10:14:29.859375
1193,38.27,2022-10-26 10:14:29.875000
1194,37.24,2022-10-26 10:14:29.890625
1195,34.76,2022-10-26 10:14:29.906250
1196,30.85,2022-10-26 10:14:29.921875
1197,25.87,2022-10-26 10:14:29.937500
1198,20.42,2022-10-26 10:14:29.953125
1199,15.05,2022-10-26 10:14:29.968750
1200,10.11,2022-10-26 10:14:29.984375
1201,5.71,2022-10-26 10:14:30.000000
1202,1.65,2022-10-26 10:14:30.015625
1203,-2.4,2022-10-26 10:14:30.031250
1204,-6.73,2022-10-26 10:14:30.046875
1205,-11.45,2022-10-26 10:14:30.062500
1206,-16.43,2022-10-26 10:14:30.078125
1207,-21.38,2022-10-26 10:14:30.093750
1208,-25.98,2022-10-26 10:14:30.109375
1209,-30.04,2022-10-26 10:14:30.125000
1210,-33.58,2022-10-26 10:14:30.140625
1211,-36.92,2022-10-26 10:14:30.156250
1212,-40.53,2022-10-26 10:14:30.171875
1213,-44.91,2022-10-26 10:14:30.187500
1214,-50.4,2022-10-26 10:14:30.203125
1215,-56.94,2022-10-26 10:14:30.218750
1216,-63.99,2022-10-26 10:14:30.234375
1217,-70.35,2022-10-26 10:14:30.250000
1218,-74.49,2022-10-26 10:14:30.265625
1219,-74.79,2022-10-26 10:14:30.281250
1220,-70.18,2022-10-26 10:14:30.296875
1221,-60.51,2022-10-26 10:14:30.312500
1222,-46.77,2022-10-26 10:14:30.328125
1223,-30.73,2022-10-26 10:14:30.343750
1224,-14.48,2022-10-26 10:14:30.359375
1225,0.19,2022-10-26 10:14:30.375000
1226,12.29,2022-10-26 10:14:30.390625
1227,21.58,2022-10-26 10:14:30.406250
1228,28.45,2022-10-26 10:14:30.421875
1229,33.44,2022-10-26 10:14:30.437500
1230,37.0,2022-10-26 10:14:30.453125
1231,39.34,2022-10-26 10:14:30.468750
1232,40.58,2022-10-26 10:14:30.484375
1233,40.81,2022-10-26 10:14:30.500000
1234,40.31,2022-10-26 10:14:30.515625
1235,39.49,2022-10-26 10:14:30.531250
1236,38.76,2022-10-26 10:14:30.546875
1237,38.46,2022-10-26 10:14:30.562500
1238,38.68,2022-10-26 10:14:30.578125
1239,39.31,2022-10-26 10:14:30.593750
1240,40.1,2022-10-26 10:14:30.609375
1241,40.78,2022-10-26 10:14:30.625000
1242,41.14,2022-10-26 10:14:30.640625
1243,41.1,2022-10-26 10:14:30.656250
1244,40.66,2022-10-26 10:14:30.671875
1245,39.79,2022-10-26 10:14:30.687500
1246,38.46,2022-10-26 10:14:30.703125
1247,36.51,2022-10-26 10:14:30.718750
1248,33.76,2022-10-26 10:14:30.734375
1249,30.14,2022-10-26 10:14:30.750000
1250,25.75,2022-10-26 10:14:30.765625
1251,20.89,2022-10-26 10:14:30.781250
1252,16.01,2022-10-26 10:14:30.796875
1253,11.53,2022-10-26 10:14:30.812500
1254,7.65,2022-10-26 10:14:30.828125
1255,4.27,2022-10-26 10:14:30.843750
1256,1.03,2022-10-26 10:14:30.859375
1257,-2.5,2022-10-26 10:14:30.875000
1258,-6.58,2022-10-26 10:14:30.890625
1259,-11.13,2022-10-26 10:14:30.906250
1260,-15.79,2022-10-26 10:14:30.921875
1261,-20.09,2022-10-26 10:14:30.937500
1262,-23.66,2022-10-26 10:14:30.953125
1263,-26.51,2022-10-26 10:14:30.968750
1264,-28.98,2022-10-26 10:14:30.984375
1265,-31.71,2022-10-26 10:14:31.000000
1266,-35.41,2022-10-26 10:14:31.015625
1267,-40.6,2022-10-26 10:14:31.031250
1268,-47.39,2022-10-26 10:14:31.046875
1269,-55.32,2022-10-26 10:14:31.062500
1270,-63.29,2022-10-26 10:14:31.078125
1271,-69.78,2022-10-26 10:14:31.093750
1272,-73.16,2022-10-26 10:14:31.109375
1273,-72.18,2022-10-26 10:14:31.125000
1274,-66.42,2022-10-26 10:14:31.140625
1275,-56.41,2022-10-26 10:14:31.156250
1276,-43.55,2022-10-26 10:14:31.171875
1277,-29.58,2022-10-26 10:14:31.187500
1278,-16.11,2022-10-26 10:14:31.203125
1279,-4.19,2022-10-26 10:14:31.218750
1280,5.77,2022-10-26 10:14:31.234375
1281,13.8,2022-10-26 10:14:31.250000
1282,20.11,2022-10-26 10:14:31.265625
1283,24.83,2022-10-26 10:14:31.281250
1284,28.0,2022-10-26 10:14:31.296875
1285,29.63,2022-10-26 10:14:31.312500
1286,29.85,2022-10-26 10:14:31.328125
1287,28.98,2022-10-26 10:14:31.343750
1288,27.49,2022-10-26 10:14:31.359375
1289,25.9,2022-10-26 10:14:31.375000
1290,24.65,2022-10-26 10:14:31.390625
1291,24.0,2022-10-26 10:14:31.406250
1292,23.97,2022-10-26 10:14:31.421875
1293,24.38,2022-10-26 10:14:31.437500
1294,24.94,2022-10-26 10:14:31.453125
1295,25.37,2022-10-26 10:14:31.468750
1296,25.46,2022-10-26 10:14:31.484375
1297,25.18,2022-10-26 10:14:31.500000
1298,24.57,2022-10-26 10:14:31.515625
1299,23.71,2022-10-26 10:14:31.531250
1300,22.59,2022-10-26 10:14:31.546875
1301,21.06,2022-10-26 10:14:31.562500
1302,18.91,2022-10-26 10:14:31.578125
1303,15.91,2022-10-26 10:14:31.593750
1304,11.96,2022-10-26 10:14:31.609375
1305,7.17,2022-10-26 10:14:31.625000
1306,1.92,2022-10-26 10:14:31.640625
1307,-3.29,2022-10-26 10:14:31.656250
1308,-8.0,2022-10-26 10:14:31.671875
1309,-11.92,2022-10-26 10:14:31.687500
1310,-15.1,2022-10-26 10:14:31.703125
1311,-17.8,2022-10-26 10:14:31.718750
1312,-20.53,2022-10-26 10:14:31.734375
1313,-23.82,2022-10-26 10:14:31.750000
1314,-28.08,2022-10-26 10:14:31.765625
1315,-33.46,2022-10-26 10:14:31.781250
1316,-39.76,2022-10-26 10:14:31.796875
1317,-46.36,2022-10-26 10:14:31.812500
1318,-52.19,2022-10-26 10:14:31.828125
1319,-55.95,2022-10-26 10:14:31.843750
1320,-56.41,2022-10-26 10:14:31.859375
1321,-52.8,2022-10-26 10:14:31.875000
1322,-45.14,2022-10-26 10:14:31.890625
1323,-34.29,2022-10-26 10:14:31.906250
1324,-21.69,2022-10-26 10:14:31.921875
1325,-8.9,2022-10-26 10:14:31.937500
1326,2.79,2022-10-26 10:14:31.953125
1327,12.64,2022-10-26 10:14:31.968750
1328,20.45,2022-10-26 10:14:31.984375
1329,26.34,2022-10-26 10:14:32.000000
1330,30.54,2022-10-26 10:14:32.015625
1331,33.24,2022-10-26 10:14:32.031250
1332,34.56,2022-10-26 10:14:32.046875
1333,34.57,2022-10-26 10:14:32.062500
1334,33.41,2022-10-26 10:14:32.078125
1335,31.38,2022-10-26 10:14:32.093750
1336,28.88,2022-10-26 10:14:32.109375
1337,26.34,2022-10-26 10:14:32.125000
1338,24.16,2022-10-26 10:14:32.140625
1339,22.59,2022-10-26 10:14:32.156250
1340,21.68,2022-10-26 10:14:32.171875
1341,21.37,2022-10-26 10:14:32.187500
1342,21.52,2022-10-26 10:14:32.203125
1343,21.99,2022-10-26 10:14:32.218750
1344,22.66,2022-10-26 10:14:32.234375
1345,23.39,2022-10-26 10:14:32.250000
1346,23.89,2022-10-26 10:14:32.265625
1347,23.85,2022-10-26 10:14:32.281250
1348,22.96,2022-10-26 10:14:32.296875
1349,21.08,2022-10-26 10:14:32.312500
1350,18.26,2022-10-26 10:14:32.328125
1351,14.81,2022-10-26 10:14:32.343750
1352,11.11,2022-10-26 10:14:32.359375
1353,7.53,2022-10-26 10:14:32.375000
1354,4.24,2022-10-26 10:14:32.390625
1355,1.25,2022-10-26 10:14:32.406250
1356,-1.62,2022-10-26 10:14:32.421875
1357,-4.63,2022-10-26 10:14:32.437500
1358,-7.99,2022-10-26 10:14:32.453125
1359,-11.84,2022-10-26 10:14:32.468750
1360,-16.09,2022-10-26 10:14:32.484375
1361,-20.52,2022-10-26 10:14:32.500000
1362,-24.77,2022-10-26 10:14:32.515625
1363,-28.55,2022-10-26 10:14:32.531250
1364,-31.78,2022-10-26 10:14:32.546875
1365,-34.71,2022-10-26 10:14:32.562500
1366,-37.96,2022-10-26 10:14:32.578125
1367,-42.2,2022-10-26 10:14:32.593750
1368,-47.89,2022-10-26 10:14:32.609375
1369,-54.92,2022-10-26 10:14:32.625000
1370,-62.44,2022-10-26 10:14:32.640625
1371,-68.99,2022-10-26 10:14:32.656250
1372,-72.91,2022-10-26 10:14:32.671875
1373,-72.8,2022-10-26 10:14:32.687500
1374,-68.03,2022-10-26 10:14:32.703125
1375,-58.9,2022-10-26 10:14:32.718750
1376,-46.54,2022-10-26 10:14:32.734375
1377,-32.49,2022-10-26 10:14:32.750000
1378,-18.31,2022-10-26 10:14:32.765625
1379,-5.26,2022-10-26 10:14:32.781250
1380,5.89,2022-10-26 10:14:32.796875
1381,14.83,2022-10-26 10:14:32.812500
1382,21.53,2022-10-26 10:14:32.828125
1383,26.23,2022-10-26 10:14:32.843750
1384,29.27,2022-10-26 10:14:32.859375
1385,31.1,2022-10-26 10:14:32.875000
1386,32.15,2022-10-26 10:14:32.890625
1387,32.79,2022-10-26 10:14:32.906250
1388,33.18,2022-10-26 10:14:32.921875
1389,33.34,2022-10-26 10:14:32.937500
1390,33.2,2022-10-26 10:14:32.953125
1391,32.73,2022-10-26 10:14:32.968750
1392,32.02,2022-10-26 10:14:32.984375
1393,31.23,2022-10-26 10:14:33.000000
1394,30.6,2022-10-26 10:14:33.015625
1395,30.31,2022-10-26 10:14:33.031250
1396,30.38,2022-10-26 10:14:33.046875
1397,30.72,2022-10-26 10:14:33.062500
1398,31.1,2022-10-26 10:14:33.078125
1399,31.27,2022-10-26 10:14:33.093750
1400,30.96,2022-10-26 10:14:33.109375
1401,29.95,2022-10-26 10:14:33.125000
1402,28.17,2022-10-26 10:14:33.140625
1403,25.69,2022-10-26 10:14:33.156250
1404,22.66,2022-10-26 10:14:33.171875
1405,19.25,2022-10-26 10:14:33.187500
1406,15.53,2022-10-26 10:14:33.203125
1407,11.51,2022-10-26 10:14:33.218750
1408,7.11,2022-10-26 10:14:33.234375
1409,2.35,2022-10-26 10:14:33.250000
1410,-2.66,2022-10-26 10:14:33.265625
1411,-7.68,2022-10-26 10:14:33.281250
1412,-12.47,2022-10-26 10:14:33.296875
1413,-16.91,2022-10-26 10:14:33.312500
1414,-21.05,2022-10-26 10:14:33.328125
1415,-25.16,2022-10-26 10:14:33.343750
1416,-29.49,2022-10-26 10:14:33.359375
1417,-34.31,2022-10-26 10:14:33.375000
1418,-39.67,2022-10-26 10:14:33.390625
1419,-45.48,2022-10-26 10:14:33.406250
1420,-51.55,2022-10-26 10:14:33.421875
1421,-57.43,2022-10-26 10:14:33.437500
1422,-62.4,2022-10-26 10:14:33.453125
1423,-65.51,2022-10-26 10:14:33.468750
1424,-65.72,2022-10-26 10:14:33.484375
1425,-62.2,2022-10-26 10:14:33.500000
1426,-54.75,2022-10-26 10:14:33.515625
1427,-43.95,2022-10-26 10:14:33.531250
1428,-31.12,2022-10-26 10:14:33.546875
1429,-17.94,2022-10-26 10:14:33.562500
1430,-5.91,2022-10-26 10:14:33.578125
1431,4.03,2022-10-26 10:14:33.593750
1432,11.7,2022-10-26 10:14:33.609375
1433,17.44,2022-10-26 10:14:33.625000
1434,21.81,2022-10-26 10:14:33.640625
1435,25.24,2022-10-26 10:14:33.656250
1436,27.85,2022-10-26 10:14:33.671875
1437,29.55,2022-10-26 10:14:33.687500
1438,30.19,2022-10-26 10:14:33.703125
1439,29.82,2022-10-26 10:14:33.718750
1440,28.75,2022-10-26 10:14:33.734375
1441,27.46,2022-10-26 10:14:33.750000
1442,26.42,2022-10-26 10:14:33.765625
1443,25.82,2022-10-26 10:14:33.781250
1444,25.58,2022-10-26 10:14:33.796875
1445,25.37,2022-10-26 10:14:33.812500
1446,24.8,2022-10-26 10:14:33.828125
1447,23.64,2022-10-26 10:14:33.843750
1448,21.89,2022-10-26 10:14:33.859375
1449,19.73,2022-10-26 10:14:33.875000
1450,17.42,2022-10-26 10:14:33.890625
1451,15.09,2022-10-26 10:14:33.906250
1452,12.66,2022-10-26 10:14:33.921875
1453,9.9,2022-10-26 10:14:33.937500
1454,6.56,2022-10-26 10:14:33.953125
1455,2.49,2022-10-26 10:14:33.968750
1456,-2.12,2022-10-26 10:14:33.984375
1457,-6.87,2022-10-26 10:14:34.000000
1458,-11.26,2022-10-26 10:14:34.015625
1459,-14.93,2022-10-26 10:14:34.031250
1460,-17.84,2022-10-26 10:14:34.046875
1461,-20.32,2022-10-26 10:14:34.062500
1462,-22.85,2022-10-26 10:14:34.078125
1463,-25.88,2022-10-26 10:14:34.093750
1464,-29.66,2022-10-26 10:14:34.109375
1465,-34.24,2022-10-26 10:14:34.125000
1466,-39.54,2022-10-26 10:14:34.140625
1467,-45.38,2022-10-26 10:14:34.156250
1468,-51.43,2022-10-26 10:14:34.171875
1469,-56.99,2022-10-26 10:14:34.187500
1470,-60.91,2022-10-26 10:14:34.203125
1471,-61.87,2022-10-26 10:14:34.218750
1472,-58.73,2022-10-26 10:14:34.234375
1473,-51.15,2022-10-26 10:14:34.250000
1474,-39.78,2022-10-26 10:14:34.265625
1475,-26.24,2022-10-26 10:14:34.281250
1476,-12.43,2022-10-26 10:14:34.296875
1477,0.04,2022-10-26 10:14:34.312500
1478,10.28,2022-10-26 10:14:34.328125
1479,18.13,2022-10-26 10:14:34.343750
1480,23.89,2022-10-26 10:14:34.359375
1481,27.91,2022-10-26 10:14:34.375000
1482,30.39,2022-10-26 10:14:34.390625
1483,31.37,2022-10-26 10:14:34.406250
1484,30.93,2022-10-26 10:14:34.421875
1485,29.33,2022-10-26 10:14:34.437500
1486,27.01,2022-10-26 10:14:34.453125
1487,24.49,2022-10-26 10:14:34.468750
1488,22.16,2022-10-26 10:14:34.484375
1489,20.24,2022-10-26 10:14:34.500000
1490,18.75,2022-10-26 10:14:34.515625
1491,17.66,2022-10-26 10:14:34.531250
1492,16.99,2022-10-26 10:14:34.546875
1493,16.78,2022-10-26 10:14:34.562500
1494,17.04,2022-10-26 10:14:34.578125
1495,17.65,2022-10-26 10:14:34.593750
1496,18.31,2022-10-26 10:14:34.609375
1497,18.57,2022-10-26 10:14:34.625000
1498,17.97,2022-10-26 10:14:34.640625
1499,16.12,2022-10-26 10:14:34.656250
1500,12.92,2022-10-26 10:14:34.671875
1501,8.53,2022-10-26 10:14:34.687500
1502,3.36,2022-10-26 10:14:34.703125
1503,-2.11,2022-10-26 10:14:34.718750
1504,-7.4,2022-10-26 10:14:34.734375
1505,-12.25,2022-10-26 10:14:34.750000
1506,-16.59,2022-10-26 10:14:34.765625
1507,-20.63,2022-10-26 10:14:34.781250
1508,-24.76,2022-10-26 10:14:34.796875
1509,-29.43,2022-10-26 10:14:34.812500
1510,-34.98,2022-10-26 10:14:34.828125
1511,-41.36,2022-10-26 10:14:34.843750
1512,-47.91,2022-10-26 10:14:34.859375
1513,-53.42,2022-10-26 10:14:34.875000
1514,-56.41,2022-10-26 10:14:34.890625
1515,-55.52,2022-10-26 10:14:34.906250
1516,-50.14,2022-10-26 10:14:34.921875
1517,-40.59,2022-10-26 10:14:34.937500
1518,-28.11,2022-10-26 10:14:34.953125
1519,-14.42,2022-10-26 10:14:34.968750
1520,-1.18,2022-10-26 10:14:34.984375
1521,10.42,2022-10-26 10:14:35.000000
1522,19.83,2022-10-26 10:14:35.015625
1523,26.98,2022-10-26 10:14:35.031250
1524,32.05,2022-10-26 10:14:35.046875
1525,35.22,2022-10-26 10:14:35.062500
1526,36.64,2022-10-26 10:14:35.078125
1527,36.43,2022-10-26 10:14:35.093750
1528,34.82,2022-10-26 10:14:35.109375
1529,32.19,2022-10-26 10:14:35.125000
1530,29.06,2022-10-26 10:14:35.140625
1531,25.92,2022-10-26 10:14:35.156250
1532,23.21,2022-10-26 10:14:35.171875
1533,21.17,2022-10-26 10:14:35.187500
1534,19.8,2022-10-26 10:14:35.203125
1535,18.93,2022-10-26 10:14:35.218750
1536,18.32,2022-10-26 10:14:35.234375
1537,17.81,2022-10-26 10:14:35.250000
1538,17.37,2022-10-26 10:14:35.265625
1539,17.02,2022-10-26 10:14:35.281250
1540,16.7,2022-10-26 10:14:35.296875
1541,16.16,2022-10-26 10:14:35.312500
1542,14.92,2022-10-26 10:14:35.328125
1543,12.42,2022-10-26 10:14:35.343750
1544,8.34,2022-10-26 10:14:35.359375
1545,2.78,2022-10-26 10:14:35.375000
1546,-3.72,2022-10-26 10:14:35.390625
1547,-10.33,2022-10-26 10:14:35.406250
1548,-16.31,2022-10-26 10:14:35.421875
1549,-21.25,2022-10-26 10:14:35.437500
1550,-25.3,2022-10-26 10:14:35.453125
1551,-29.02,2022-10-26 10:14:35.468750
1552,-33.11,2022-10-26 10:14:35.484375
1553,-38.2,2022-10-26 10:14:35.500000
1554,-44.48,2022-10-26 10:14:35.515625
1555,-51.58,2022-10-26 10:14:35.531250
1556,-58.57,2022-10-26 10:14:35.546875
1557,-64.1,2022-10-26 10:14:35.562500
1558,-66.74,2022-10-26 10:14:35.578125
1559,-65.3,2022-10-26 10:14:35.593750
1560,-59.28,2022-10-26 10:14:35.609375
1561,-48.98,2022-10-26 10:14:35.625000
1562,-35.53,2022-10-26 10:14:35.640625
1563,-20.59,2022-10-26 10:14:35.656250
1564,-5.9,2022-10-26 10:14:35.671875
1565,7.19,2022-10-26 10:14:35.687500
1566,17.92,2022-10-26 10:14:35.703125
1567,26.17,2022-10-26 10:14:35.718750
1568,32.21,2022-10-26 10:14:35.734375
1569,36.33,2022-10-26 10:14:35.750000
1570,38.71,2022-10-26 10:14:35.765625
1571,39.34,2022-10-26 10:14:35.781250
1572,38.25,2022-10-26 10:14:35.796875
1573,35.67,2022-10-26 10:14:35.812500
1574,32.18,2022-10-26 10:14:35.828125
1575,28.57,2022-10-26 10:14:35.843750
1576,25.66,2022-10-26 10:14:35.859375
1577,23.97,2022-10-26 10:14:35.875000
1578,23.56,2022-10-26 10:14:35.890625
1579,24.11,2022-10-26 10:14:35.906250
1580,25.01,2022-10-26 10:14:35.921875
1581,25.74,2022-10-26 10:14:35.937500
1582,26.03,2022-10-26 10:14:35.953125
1583,25.93,2022-10-26 10:14:35.968750
1584,25.63,2022-10-26 10:14:35.984375
1585,25.28,2022-10-26 10:14:36.000000
1586,24.73,2022-10-26 10:14:36.015625
1587,23.5,2022-10-26 10:14:36.031250
1588,21.03,2022-10-26 10:14:36.046875
1589,16.93,2022-10-26 10:14:36.062500
1590,11.25,2022-10-26 10:14:36.078125
1591,4.55,2022-10-26 10:14:36.093750
1592,-2.31,2022-10-26 10:14:36.109375
1593,-8.55,2022-10-26 10:14:36.125000
1594,-13.71,2022-10-26 10:14:36.140625
1595,-17.86,2022-10-26 10:14:36.156250
1596,-21.46,2022-10-26 10:14:36.171875
1597,-25.15,2022-10-26 10:14:36.187500
1598,-29.52,2022-10-26 10:14:36.203125
1599,-34.94,2022-10-26 10:14:36.218750
1600,-41.47,2022-10-26 10:14:36.234375
1601,-48.77,2022-10-26 10:14:36.250000
1602,-56.1,2022-10-26 10:14:36.265625
1603,-62.24,2022-10-26 10:14:36.281250
1604,-65.75,2022-10-26 10:14:36.296875
1605,-65.34,2022-10-26 10:14:36.312500
1606,-60.24,2022-10-26 10:14:36.328125
1607,-50.63,2022-10-26 10:14:36.343750
1608,-37.62,2022-10-26 10:14:36.359375
1609,-22.93,2022-10-26 10:14:36.375000
1610,-8.34,2022-10-26 10:14:36.390625
1611,4.73,2022-10-26 10:14:36.406250
1612,15.57,2022-10-26 10:14:36.421875
1613,24.03,2022-10-26 10:14:36.437500
1614,30.29,2022-10-26 10:14:36.453125
1615,34.59,2022-10-26 10:14:36.468750
1616,37.09,2022-10-26 10:14:36.484375
1617,37.9,2022-10-26 10:14:36.500000
1618,37.18,2022-10-26 10:14:36.515625
1619,35.28,2022-10-26 10:14:36.531250
1620,32.71,2022-10-26 10:14:36.546875
1621,30.14,2022-10-26 10:14:36.562500
1622,28.13,2022-10-26 10:14:36.578125
1623,27.09,2022-10-26 10:14:36.593750
1624,27.16,2022-10-26 10:14:36.609375
1625,28.15,2022-10-26 10:14:36.625000
1626,29.61,2022-10-26 10:14:36.640625
1627,31.05,2022-10-26 10:14:36.656250
1628,32.02,2022-10-26 10:14:36.671875
1629,32.26,2022-10-26 10:14:36.687500
1630,31.74,2022-10-26 10:14:36.703125
1631,30.55,2022-10-26 10:14:36.718750
1632,28.85,2022-10-26 10:14:36.734375
1633,26.72,2022-10-26 10:14:36.750000
1634,24.19,2022-10-26 10:14:36.765625
1635,21.2,2022-10-26 10:14:36.781250
1636,17.63,2022-10-26 10:14:36.796875
1637,13.39,2022-10-26 10:14:36.812500
1638,8.46,2022-10-26 10:14:36.828125
1639,2.99,2022-10-26 10:14:36.843750
1640,-2.72,2022-10-26 10:14:36.859375
1641,-8.31,2022-10-26 10:14:36.875000
1642,-13.46,2022-10-26 10:14:36.890625
1643,-18.09,2022-10-26 10:14:36.906250
1644,-22.33,2022-10-26 10:14:36.921875
1645,-26.49,2022-10-26 10:14:36.937500
1646,-30.86,2022-10-26 10:14:36.953125
1647,-35.65,2022-10-26 10:14:36.968750
1648,-40.92,2022-10-26 10:14:36.984375
1649,-46.71,2022-10-26 10:14:37.000000
1650,-52.96,2022-10-26 10:14:37.015625
1651,-59.39,2022-10-26 10:14:37.031250
1652,-65.34,2022-10-26 10:14:37.046875
1653,-69.57,2022-10-26 10:14:37.062500
1654,-70.56,2022-10-26 10:14:37.078125
1655,-67.03,2022-10-26 10:14:37.093750
1656,-58.55,2022-10-26 10:14:37.109375
1657,-45.86,2022-10-26 10:14:37.125000
1658,-30.7,2022-10-26 10:14:37.140625
1659,-15.24,2022-10-26 10:14:37.156250
1660,-1.24,2022-10-26 10:14:37.171875
1661,10.34,2022-10-26 10:14:37.187500
1662,19.43,2022-10-26 10:14:37.203125
1663,26.45,2022-10-26 10:14:37.218750
1664,31.91,2022-10-26 10:14:37.234375
1665,36.05,2022-10-26 10:14:37.250000
1666,38.84,2022-10-26 10:14:37.265625
1667,40.26,2022-10-26 10:14:37.281250
1668,40.46,2022-10-26 10:14:37.296875
1669,39.77,2022-10-26 10:14:37.312500
1670,38.63,2022-10-26 10:14:37.328125
1671,37.48,2022-10-26 10:14:37.343750
1672,36.63,2022-10-26 10:14:37.359375
1673,36.19,2022-10-26 10:14:37.375000
1674,36.15,2022-10-26 10:14:37.390625
1675,36.42,2022-10-26 10:14:37.406250
1676,36.88,2022-10-26 10:14:37.421875
1677,37.37,2022-10-26 10:14:37.437500
1678,37.73,2022-10-26 10:14:37.453125
1679,37.73,2022-10-26 10:14:37.468750
1680,37.16,2022-10-26 10:14:37.484375
1681,35.79,2022-10-26 10:14:37.500000
1682,33.46,2022-10-26 10:14:37.515625
1683,30.17,2022-10-26 10:14:37.531250
1684,26.13,2022-10-26 10:14:37.546875
1685,21.69,2022-10-26 10:14:37.562500
1686,17.27,2022-10-26 10:14:37.578125
1687,13.15,2022-10-26 10:14:37.593750
1688,9.44,2022-10-26 10:14:37.609375
1689,5.99,2022-10-26 10:14:37.625000
1690,2.53,2022-10-26 10:14:37.640625
1691,-1.23,2022-10-26 10:14:37.656250
1692,-5.41,2022-10-26 10:14:37.671875
1693,-9.91,2022-10-26 10:14:37.687500
1694,-14.46,2022-10-26 10:14:37.703125
1695,-18.77,2022-10-26 10:14:37.718750
1696,-22.67,2022-10-26 10:14:37.734375
1697,-26.21,2022-10-26 10:14:37.750000
1698,-29.69,2022-10-26 10:14:37.765625
1699,-33.57,2022-10-26 10:14:37.781250
1700,-38.4,2022-10-26 10:14:37.796875
1701,-44.59,2022-10-26 10:14:37.812500
1702,-52.18,2022-10-26 10:14:37.828125
1703,-60.6,2022-10-26 10:14:37.843750
1704,-68.57,2022-10-26 10:14:37.859375
1705,-74.26,2022-10-26 10:14:37.875000
1706,-75.83,2022-10-26 10:14:37.890625
1707,-72.07,2022-10-26 10:14:37.906250
1708,-62.89,2022-10-26 10:14:37.921875
1709,-49.43,2022-10-26 10:14:37.937500
1710,-33.68,2022-10-26 10:14:37.953125
1711,-17.78,2022-10-26 10:14:37.968750
1712,-3.39,2022-10-26 10:14:37.984375
1713,8.7,2022-10-26 10:14:38.000000
1714,18.45,2022-10-26 10:14:38.015625
1715,26.18,2022-10-26 10:14:38.031250
1716,32.15,2022-10-26 10:14:38.046875
1717,36.44,2022-10-26 10:14:38.062500
1718,38.95,2022-10-26 10:14:38.078125
1719,39.67,2022-10-26 10:14:38.093750
1720,38.87,2022-10-26 10:14:38.109375
1721,37.06,2022-10-26 10:14:38.125000
1722,34.88,2022-10-26 10:14:38.140625
1723,32.87,2022-10-26 10:14:38.156250
1724,31.39,2022-10-26 10:14:38.171875
1725,30.54,2022-10-26 10:14:38.187500
1726,30.27,2022-10-26 10:14:38.203125
1727,30.41,2022-10-26 10:14:38.218750
1728,30.71,2022-10-26 10:14:38.234375
1729,30.92,2022-10-26 10:14:38.250000
1730,30.86,2022-10-26 10:14:38.265625
1731,30.37,2022-10-26 10:14:38.281250
1732,29.4,2022-10-26 10:14:38.296875
1733,27.95,2022-10-26 10:14:38.312500
1734,26.07,2022-10-26 10:14:38.328125
1735,23.84,2022-10-26 10:14:38.343750
1736,21.32,2022-10-26 10:14:38.359375
1737,18.53,2022-10-26 10:14:38.375000
1738,15.49,2022-10-26 10:14:38.390625
1739,12.14,2022-10-26 10:14:38.406250
1740,8.44,2022-10-26 10:14:38.421875
1741,4.4,2022-10-26 10:14:38.437500
1742,0.1,2022-10-26 10:14:38.453125
1743,-4.32,2022-10-26 10:14:38.468750
1744,-8.67,2022-10-26 10:14:38.484375
1745,-12.84,2022-10-26 10:14:38.500000
1746,-16.79,2022-10-26 10:14:38.515625
1747,-20.63,2022-10-26 10:14:38.531250
1748,-24.56,2022-10-26 10:14:38.546875
1749,-28.85,2022-10-26 10:14:38.562500
1750,-33.74,2022-10-26 10:14:38.578125
1751,-39.42,2022-10-26 10:14:38.593750
1752,-45.83,2022-10-26 10:14:38.609375
1753,-52.47,2022-10-26 10:14:38.625000
1754,-58.38,2022-10-26 10:14:38.640625
1755,-62.17,2022-10-26 10:14:38.656250
1756,-62.44,2022-10-26 10:14:38.671875
1757,-58.31,2022-10-26 10:14:38.687500
1758,-49.75,2022-10-26 10:14:38.703125
1759,-37.72,2022-10-26 10:14:38.718750
1760,-23.87,2022-10-26 10:14:38.734375
1761,-10.01,2022-10-26 10:14:38.750000
1762,2.49,2022-10-26 10:14:38.765625
1763,12.92,2022-10-26 10:14:38.781250
1764,21.23,2022-10-26 10:14:38.796875
1765,27.67,2022-10-26 10:14:38.812500
1766,32.54,2022-10-26 10:14:38.828125
1767,35.95,2022-10-26 10:14:38.843750
1768,37.85,2022-10-26 10:14:38.859375
1769,38.25,2022-10-26 10:14:38.875000
1770,37.25,2022-10-26 10:14:38.890625
1771,35.25,2022-10-26 10:14:38.906250
1772,32.79,2022-10-26 10:14:38.921875
1773,30.44,2022-10-26 10:14:38.937500
1774,28.72,2022-10-26 10:14:38.953125
1775,27.88,2022-10-26 10:14:38.968750
1776,27.91,2022-10-26 10:14:38.984375
1777,28.58,2022-10-26 10:14:39.000000
1778,29.54,2022-10-26 10:14:39.015625
1779,30.41,2022-10-26 10:14:39.031250
1780,30.92,2022-10-26 10:14:39.046875
1781,30.83,2022-10-26 10:14:39.062500
1782,30.05,2022-10-26 10:14:39.078125
1783,28.51,2022-10-26 10:14:39.093750
1784,26.22,2022-10-26 10:14:39.109375
1785,23.26,2022-10-26 10:14:39.125000
1786,19.83,2022-10-26 10:14:39.140625
1787,16.15,2022-10-26 10:14:39.156250
1788,12.39,2022-10-26 10:14:39.171875
1789,8.61,2022-10-26 10:14:39.187500
1790,4.72,2022-10-26 10:14:39.203125
1791,0.57,2022-10-26 10:14:39.218750
1792,-3.9,2022-10-26 10:14:39.234375
1793,-8.6,2022-10-26 10:14:39.250000
1794,-13.3,2022-10-26 10:14:39.265625
1795,-17.7,2022-10-26 10:14:39.281250
1796,-21.59,2022-10-26 10:14:39.296875
1797,-24.95,2022-10-26 10:14:39.312500
1798,-27.92,2022-10-26 10:14:39.328125
1799,-30.86,2022-10-26 10:14:39.343750
1800,-34.19,2022-10-26 10:14:39.359375
1801,-38.31,2022-10-26 10:14:39.375000
1802,-43.51,2022-10-26 10:14:39.390625
1803,-49.68,2022-10-26 10:14:39.406250
1804,-56.16,2022-10-26 10:14:39.421875
1805,-61.69,2022-10-26 10:14:39.437500
1806,-64.64,2022-10-26 10:14:39.453125
1807,-63.55,2022-10-26 10:14:39.468750
1808,-57.63,2022-10-26 10:14:39.484375
1809,-47.16,2022-10-26 10:14:39.500000
1810,-33.45,2022-10-26 10:14:39.515625
1811,-18.44,2022-10-26 10:14:39.531250
1812,-4.07,2022-10-26 10:14:39.546875
1813,8.3,2022-10-26 10:14:39.562500
1814,18.1,2022-10-26 10:14:39.578125
1815,25.46,2022-10-26 10:14:39.593750
1816,30.82,2022-10-26 10:14:39.609375
1817,34.58,2022-10-26 10:14:39.625000
1818,36.95,2022-10-26 10:14:39.640625
1819,38.0,2022-10-26 10:14:39.656250
1820,37.76,2022-10-26 10:14:39.671875
1821,36.48,2022-10-26 10:14:39.687500
1822,34.6,2022-10-26 10:14:39.703125
1823,32.64,2022-10-26 10:14:39.718750
1824,31.06,2022-10-26 10:14:39.734375
1825,30.11,2022-10-26 10:14:39.750000
1826,29.82,2022-10-26 10:14:39.765625
1827,30.04,2022-10-26 10:14:39.781250
1828,30.49,2022-10-26 10:14:39.796875
1829,30.94,2022-10-26 10:14:39.812500
1830,31.27,2022-10-26 10:14:39.828125
1831,31.45,2022-10-26 10:14:39.843750
1832,31.55,2022-10-26 10:14:39.859375
1833,31.59,2022-10-26 10:14:39.875000
1834,31.42,2022-10-26 10:14:39.890625
1835,30.74,2022-10-26 10:14:39.906250
1836,29.17,2022-10-26 10:14:39.921875
1837,26.43,2022-10-26 10:14:39.937500
1838,22.51,2022-10-26 10:14:39.953125
1839,17.82,2022-10-26 10:14:39.968750
1840,13.0,2022-10-26 10:14:39.984375
1841,8.7,2022-10-26 10:14:40.000000
1842,5.29,2022-10-26 10:14:40.015625
1843,2.71,2022-10-26 10:14:40.031250
1844,0.5,2022-10-26 10:14:40.046875
1845,-1.92,2022-10-26 10:14:40.062500
1846,-4.96,2022-10-26 10:14:40.078125
1847,-8.71,2022-10-26 10:14:40.093750
1848,-12.91,2022-10-26 10:14:40.109375
1849,-17.16,2022-10-26 10:14:40.125000
1850,-21.12,2022-10-26 10:14:40.140625
1851,-24.66,2022-10-26 10:14:40.156250
1852,-27.86,2022-10-26 10:14:40.171875
1853,-31.02,2022-10-26 10:14:40.187500
1854,-34.47,2022-10-26 10:14:40.203125
1855,-38.57,2022-10-26 10:14:40.218750
1856,-43.61,2022-10-26 10:14:40.234375
1857,-49.84,2022-10-26 10:14:40.250000
1858,-57.25,2022-10-26 10:14:40.265625
1859,-65.32,2022-10-26 10:14:40.281250
1860,-72.98,2022-10-26 10:14:40.296875
1861,-78.59,2022-10-26 10:14:40.312500
1862,-80.41,2022-10-26 10:14:40.328125
1863,-77.18,2022-10-26 10:14:40.343750
1864,-68.58,2022-10-26 10:14:40.359375
1865,-55.44,2022-10-26 10:14:40.375000
1866,-39.51,2022-10-26 10:14:40.390625
1867,-22.83,2022-10-26 10:14:40.406250
1868,-7.2,2022-10-26 10:14:40.421875
1869,6.24,2022-10-26 10:14:40.437500
1870,17.08,2022-10-26 10:14:40.453125
1871,25.4,2022-10-26 10:14:40.468750
1872,31.51,2022-10-26 10:14:40.484375
1873,35.71,2022-10-26 10:14:40.500000
1874,38.19,2022-10-26 10:14:40.515625
1875,39.14,2022-10-26 10:14:40.531250
1876,38.77,2022-10-26 10:14:40.546875
1877,37.43,2022-10-26 10:14:40.562500
1878,35.6,2022-10-26 10:14:40.578125
1879,33.82,2022-10-26 10:14:40.593750
1880,32.56,2022-10-26 10:14:40.609375
1881,32.11,2022-10-26 10:14:40.625000
1882,32.49,2022-10-26 10:14:40.640625
1883,33.45,2022-10-26 10:14:40.656250
1884,34.65,2022-10-26 10:14:40.671875
1885,35.7,2022-10-26 10:14:40.687500
1886,36.35,2022-10-26 10:14:40.703125
1887,36.51,2022-10-26 10:14:40.718750
1888,36.2,2022-10-26 10:14:40.734375
1889,35.4,2022-10-26 10:14:40.750000
1890,34.02,2022-10-26 10:14:40.765625
1891,31.92,2022-10-26 10:14:40.781250
1892,28.99,2022-10-26 10:14:40.796875
1893,25.25,2022-10-26 10:14:40.812500
1894,20.94,2022-10-26 10:14:40.828125
1895,16.42,2022-10-26 10:14:40.843750
1896,12.03,2022-10-26 10:14:40.859375
1897,7.94,2022-10-26 10:14:40.875000
1898,4.06,2022-10-26 10:14:40.890625
1899,0.11,2022-10-26 10:14:40.906250
1900,-4.21,2022-10-26 10:14:40.921875
1901,-9.04,2022-10-26 10:14:40.937500
1902,-14.23,2022-10-26 10:14:40.953125
1903,-19.39,2022-10-26 10:14:40.968750
1904,-24.04,2022-10-26 10:14:40.984375
1905,-27.81,2022-10-26 10:14:41.000000
1906,-30.65,2022-10-26 10:14:41.015625
1907,-32.88,2022-10-26 10:14:41.031250
1908,-35.15,2022-10-26 10:14:41.046875
1909,-38.21,2022-10-26 10:14:41.062500
1910,-42.72,2022-10-26 10:14:41.078125
1911,-48.84,2022-10-26 10:14:41.093750
1912,-56.11,2022-10-26 10:14:41.109375
1913,-63.35,2022-10-26 10:14:41.125000
1914,-68.85,2022-10-26 10:14:41.140625
1915,-70.87,2022-10-26 10:14:41.156250
1916,-68.14,2022-10-26 10:14:41.171875
1917,-60.41,2022-10-26 10:14:41.187500
1918,-48.5,2022-10-26 10:14:41.203125
1919,-34.11,2022-10-26 10:14:41.218750
1920,-19.16,2022-10-26 10:14:41.234375
1921,-5.29,2022-10-26 10:14:41.250000
1922,6.58,2022-10-26 10:14:41.265625
1923,16.14,2022-10-26 10:14:41.281250
1924,23.45,2022-10-26 10:14:41.296875
1925,28.72,2022-10-26 10:14:41.312500
1926,32.0,2022-10-26 10:14:41.328125
1927,33.41,2022-10-26 10:14:41.343750
1928,33.1,2022-10-26 10:14:41.359375
1929,31.49,2022-10-26 10:14:41.375000
1930,29.06,2022-10-26 10:14:41.390625
1931,26.4,2022-10-26 10:14:41.406250
1932,24.02,2022-10-26 10:14:41.421875
1933,22.29,2022-10-26 10:14:41.437500
1934,21.51,2022-10-26 10:14:41.453125
1935,21.82,2022-10-26 10:14:41.468750
1936,23.2,2022-10-26 10:14:41.484375
1937,25.35,2022-10-26 10:14:41.500000
1938,27.73,2022-10-26 10:14:41.515625
1939,29.68,2022-10-26 10:14:41.531250
1940,30.66,2022-10-26 10:14:41.546875
1941,30.4,2022-10-26 10:14:41.562500
1942,28.95,2022-10-26 10:14:41.578125
1943,26.65,2022-10-26 10:14:41.593750
1944,23.87,2022-10-26 10:14:41.609375
1945,20.89,2022-10-26 10:14:41.625000
1946,17.8,2022-10-26 10:14:41.640625
1947,14.58,2022-10-26 10:14:41.656250
1948,11.13,2022-10-26 10:14:41.671875
1949,7.39,2022-10-26 10:14:41.687500
1950,3.37,2022-10-26 10:14:41.703125
1951,-0.84,2022-10-26 10:14:41.718750
1952,-5.13,2022-10-26 10:14:41.734375
1953,-9.39,2022-10-26 10:14:41.750000
1954,-13.51,2022-10-26 10:14:41.765625
1955,-17.44,2022-10-26 10:14:41.781250
1956,-21.18,2022-10-26 10:14:41.796875
1957,-24.9,2022-10-26 10:14:41.812500
1958,-28.84,2022-10-26 10:14:41.828125
1959,-33.38,2022-10-26 10:14:41.843750
1960,-38.85,2022-10-26 10:14:41.859375
1961,-45.41,2022-10-26 10:14:41.875000
1962,-52.86,2022-10-26 10:14:41.890625
1963,-60.46,2022-10-26 10:14:41.906250
1964,-66.94,2022-10-26 10:14:41.921875
1965,-70.73,2022-10-26 10:14:41.937500
1966,-70.36,2022-10-26 10:14:41.953125
1967,-65.03,2022-10-26 10:14:41.968750
1968,-54.94,2022-10-26 10:14:41.984375
1969,-41.3,2022-10-26 10:14:42.000000
1970,-25.94,2022-10-26 10:14:42.015625
1971,-10.76,2022-10-26 10:14:42.031250
1972,2.81,2022-10-26 10:14:42.046875
1973,14.1,2022-10-26 10:14:42.062500
1974,23.0,2022-10-26 10:14:42.078125
1975,29.71,2022-10-26 10:14:42.093750
1976,34.45,2022-10-26 10:14:42.109375
1977,37.36,2022-10-26 10:14:42.125000
1978,38.53,2022-10-26 10:14:42.140625
1979,38.18,2022-10-26 10:14:42.156250
1980,36.67,2022-10-26 10:14:42.171875
1981,34.5,2022-10-26 10:14:42.187500
1982,32.2,2022-10-26 10:14:42.203125
1983,30.2,2022-10-26 10:14:42.218750
1984,28.77,2022-10-26 10:14:42.234375
1985,28.01,2022-10-26 10:14:42.250000
1986,27.89,2022-10-26 10:14:42.265625
1987,28.31,2022-10-26 10:14:42.281250
1988,29.16,2022-10-26 10:14:42.296875
1989,30.28,2022-10-26 10:14:42.312500
1990,31.43,2022-10-26 10:14:42.328125
1991,32.25,2022-10-26 10:14:42.343750
1992,32.4,2022-10-26 10:14:42.359375
1993,31.49,2022-10-26 10:14:42.375000
1994,29.34,2022-10-26 10:14:42.390625
1995,26.06,2022-10-26 10:14:42.406250
1996,21.99,2022-10-26 10:14:42.421875
1997,17.68,2022-10-26 10:14:42.437500
1998,13.58,2022-10-26 10:14:42.453125
1999,9.94,2022-10-26 10:14:42.468750
2000,6.72,2022-10-26 10:14:42.484375
2001,3.68,2022-10-26 10:14:42.500000
2002,0.49,2022-10-26 10:14:42.515625
2003,-3.05,2022-10-26 10:14:42.531250
2004,-6.99,2022-10-26 10:14:42.546875
2005,-11.17,2022-10-26 10:14:42.562500
2006,-15.31,2022-10-26 10:14:42.578125
2007,-19.13,2022-10-26 10:14:42.593750
2008,-22.48,2022-10-26 10:14:42.609375
2009,-25.43,2022-10-26 10:14:42.625000
2010,-28.33,2022-10-26 10:14:42.640625
2011,-31.76,2022-10-26 10:14:42.656250
2012,-36.33,2022-10-26 10:14:42.671875
2013,-42.46,2022-10-26 10:14:42.687500
2014,-49.99,2022-10-26 10:14:42.703125
2015,-58.1,2022-10-26 10:14:42.718750
2016,-65.25,2022-10-26 10:14:42.734375
2017,-69.61,2022-10-26 10:14:42.750000
2018,-69.6,2022-10-26 10:14:42.765625
2019,-64.49,2022-10-26 10:14:42.781250
2020,-54.64,2022-10-26 10:14:42.796875
2021,-41.42,2022-10-26 10:14:42.812500
2022,-26.72,2022-10-26 10:14:42.828125
2023,-12.41,2022-10-26 10:14:42.843750
2024,0.26,2022-10-26 10:14:42.859375
2025,10.78,2022-10-26 10:14:42.875000
2026,19.22,2022-10-26 10:14:42.890625
2027,25.86,2022-10-26 10:14:42.906250
2028,30.9,2022-10-26 10:14:42.921875
2029,34.33,2022-10-26 10:14:42.937500
2030,36.04,2022-10-26 10:14:42.953125
2031,36.07,2022-10-26 10:14:42.968750
2032,34.68,2022-10-26 10:14:42.984375
2033,32.45,2022-10-26 10:14:43.000000
2034,30.04,2022-10-26 10:14:43.015625
2035,28.01,2022-10-26 10:14:43.031250
2036,26.74,2022-10-26 10:14:43.046875
2037,26.29,2022-10-26 10:14:43.062500
2038,26.61,2022-10-26 10:14:43.078125
2039,27.54,2022-10-26 10:14:43.093750
2040,28.96,2022-10-26 10:14:43.109375
2041,30.68,2022-10-26 10:14:43.125000
2042,32.45,2022-10-26 10:14:43.140625
2043,33.8,2022-10-26 10:14:43.156250
2044,34.23,2022-10-26 10:14:43.171875
2045,33.34,2022-10-26 10:14:43.187500
2046,31.0,2022-10-26 10:14:43.203125
2047,27.39,2022-10-26 10:14:43.218750
2048,23.0,2022-10-26 10:14:43.234375
2049,18.4,2022-10-26 10:14:43.250000
2050,14.03,2022-10-26 10:14:43.265625
2051,10.09,2022-10-26 10:14:43.281250
2052,6.55,2022-10-26 10:14:43.296875
2053,3.16,2022-10-26 10:14:43.312500
2054,-0.34,2022-10-26 10:14:43.328125
2055,-4.15,2022-10-26 10:14:43.343750
2056,-8.32,2022-10-26 10:14:43.359375
2057,-12.72,2022-10-26 10:14:43.375000
2058,-17.1,2022-10-26 10:14:43.390625
2059,-21.16,2022-10-26 10:14:43.406250
2060,-24.72,2022-10-26 10:14:43.421875
2061,-27.82,2022-10-26 10:14:43.437500
2062,-30.82,2022-10-26 10:14:43.453125
2063,-34.27,2022-10-26 10:14:43.468750
2064,-38.78,2022-10-26 10:14:43.484375
2065,-44.72,2022-10-26 10:14:43.500000
2066,-51.95,2022-10-26 10:14:43.515625
2067,-59.64,2022-10-26 10:14:43.531250
2068,-66.35,2022-10-26 10:14:43.546875
2069,-70.34,2022-10-26 10:14:43.562500
2070,-70.08,2022-10-26 10:14:43.578125
2071,-64.83,2022-10-26 10:14:43.593750
2072,-54.93,2022-10-26 10:14:43.609375
2073,-41.78,2022-10-26 10:14:43.625000
2074,-27.28,2022-10-26 10:14:43.640625
2075,-13.31,2022-10-26 10:14:43.656250
2076,-1.07,2022-10-26 10:14:43.671875
2077,9.06,2022-10-26 10:14:43.687500
2078,17.32,2022-10-26 10:14:43.703125
2079,24.12,2022-10-26 10:14:43.718750
2080,29.64,2022-10-26 10:14:43.734375
2081,33.67,2022-10-26 10:14:43.750000
2082,35.84,2022-10-26 10:14:43.765625
2083,35.91,2022-10-26 10:14:43.781250
2084,34.09,2022-10-26 10:14:43.796875
2085,31.09,2022-10-26 10:14:43.812500
2086,27.83,2022-10-26 10:14:43.828125
2087,25.21,2022-10-26 10:14:43.843750
2088,23.77,2022-10-26 10:14:43.859375
2089,23.64,2022-10-26 10:14:43.875000
2090,24.5,2022-10-26 10:14:43.890625
2091,25.81,2022-10-26 10:14:43.906250
2092,26.98,2022-10-26 10:14:43.921875
2093,27.64,2022-10-26 10:14:43.937500
2094,27.64,2022-10-26 10:14:43.953125
2095,27.04,2022-10-26 10:14:43.968750
2096,25.96,2022-10-26 10:14:43.984375
2097,24.41,2022-10-26 10:14:44.000000
2098,22.25,2022-10-26 10:14:44.015625
2099,19.27,2022-10-26 10:14:44.031250
2100,15.3,2022-10-26 10:14:44.046875
2101,10.43,2022-10-26 10:14:44.062500
2102,5.02,2022-10-26 10:14:44.078125
2103,-0.36,2022-10-26 10:14:44.093750
2104,-5.12,2022-10-26 10:14:44.109375
2105,-8.95,2022-10-26 10:14:44.125000
2106,-11.88,2022-10-26 10:14:44.140625
2107,-14.26,2022-10-26 10:14:44.156250
2108,-16.63,2022-10-26 10:14:44.171875
2109,-19.49,2022-10-26 10:14:44.187500
2110,-23.27,2022-10-26 10:14:44.203125
2111,-28.22,2022-10-26 10:14:44.218750
2112,-34.35,2022-10-26 10:14:44.234375
2113,-41.26,2022-10-26 10:14:44.250000
2114,-48.15,2022-10-26 10:14:44.265625
2115,-53.75,2022-10-26 10:14:44.281250
2116,-56.62,2022-10-26 10:14:44.296875
2117,-55.56,2022-10-26 10:14:44.312500
2118,-50.06,2022-10-26 10:14:44.328125
2119,-40.57,2022-10-26 10:14:44.343750
2120,-28.33,2022-10-26 10:14:44.359375
2121,-15.07,2022-10-26 10:14:44.375000
2122,-2.38,2022-10-26 10:14:44.390625
2123,8.67,2022-10-26 10:14:44.406250
2124,17.63,2022-10-26 10:14:44.421875
2125,24.56,2022-10-26 10:14:44.437500
2126,29.69,2022-10-26 10:14:44.453125
2127,33.12,2022-10-26 10:14:44.468750
2128,34.85,2022-10-26 10:14:44.484375
2129,34.84,2022-10-26 10:14:44.500000
2130,33.17,2022-10-26 10:14:44.515625
2131,30.28,2022-10-26 10:14:44.531250
2132,26.87,2022-10-26 10:14:44.546875
2133,23.73,2022-10-26 10:14:44.562500
2134,21.49,2022-10-26 10:14:44.578125
2135,20.47,2022-10-26 10:14:44.593750
2136,20.48,2022-10-26 10:14:44.609375
2137,21.05,2022-10-26 10:14:44.625000
2138,21.59,2022-10-26 10:14:44.640625
2139,21.66,2022-10-26 10:14:44.656250
2140,21.17,2022-10-26 10:14:44.671875
2141,20.3,2022-10-26 10:14:44.687500
2142,19.31,2022-10-26 10:14:44.703125
2143,18.31,2022-10-26 10:14:44.718750
2144,17.12,2022-10-26 10:14:44.734375
2145,15.35,2022-10-26 10:14:44.750000
2146,12.56,2022-10-26 10:14:44.765625
2147,8.61,2022-10-26 10:14:44.781250
2148,3.71,2022-10-26 10:14:44.796875
2149,-1.58,2022-10-26 10:14:44.812500
2150,-6.6,2022-10-26 10:14:44.828125
2151,-10.87,2022-10-26 10:14:44.843750
2152,-14.31,2022-10-26 10:14:44.859375
2153,-17.24,2022-10-26 10:14:44.875000
2154,-20.27,2022-10-26 10:14:44.890625
2155,-24.03,2022-10-26 10:14:44.906250
2156,-29.06,2022-10-26 10:14:44.921875
2157,-35.67,2022-10-26 10:14:44.937500
2158,-43.78,2022-10-26 10:14:44.953125
2159,-52.84,2022-10-26 10:14:44.968750
2160,-61.77,2022-10-26 10:14:44.984375
2161,-69.04,2022-10-26 10:14:45.000000
2162,-72.99,2022-10-26 10:14:45.015625
2163,-72.27,2022-10-26 10:14:45.031250
2164,-66.37,2022-10-26 10:14:45.046875
2165,-55.8,2022-10-26 10:14:45.062500
2166,-42.05,2022-10-26 10:14:45.078125
2167,-27.02,2022-10-26 10:14:45.093750
2168,-12.48,2022-10-26 10:14:45.109375
2169,0.31,2022-10-26 10:14:45.125000
2170,10.88,2022-10-26 10:14:45.140625
2171,19.24,2022-10-26 10:14:45.156250
2172,25.59,2022-10-26 10:14:45.171875
2173,30.11,2022-10-26 10:14:45.187500
2174,32.82,2022-10-26 10:14:45.203125
2175,33.79,2022-10-26 10:14:45.218750
2176,33.29,2022-10-26 10:14:45.234375
2177,31.82,2022-10-26 10:14:45.250000
2178,30.07,2022-10-26 10:14:45.265625
2179,28.7,2022-10-26 10:14:45.281250
2180,28.11,2022-10-26 10:14:45.296875
2181,28.36,2022-10-26 10:14:45.312500
2182,29.15,2022-10-26 10:14:45.328125
2183,30.01,2022-10-26 10:14:45.343750
2184,30.55,2022-10-26 10:14:45.359375
2185,30.57,2022-10-26 10:14:45.375000
2186,30.15,2022-10-26 10:14:45.390625
2187,29.48,2022-10-26 10:14:45.406250
2188,28.73,2022-10-26 10:14:45.421875
2189,27.88,2022-10-26 10:14:45.437500
2190,26.66,2022-10-26 10:14:45.453125
2191,24.64,2022-10-26 10:14:45.468750
2192,21.47,2022-10-26 10:14:45.484375
2193,17.04,2022-10-26 10:14:45.500000
2194,11.57,2022-10-26 10:14:45.515625
2195,5.57,2022-10-26 10:14:45.531250
2196,-0.38,2022-10-26 10:14:45.546875
2197,-5.87,2022-10-26 10:14:45.562500
2198,-10.77,2022-10-26 10:14:45.578125
2199,-15.29,2022-10-26 10:14:45.593750
2200,-19.8,2022-10-26 10:14:45.609375
2201,-24.75,2022-10-26 10:14:45.625000
2202,-30.51,2022-10-26 10:14:45.640625
2203,-37.31,2022-10-26 10:14:45.656250
2204,-45.08,2022-10-26 10:14:45.671875
2205,-53.35,2022-10-26 10:14:45.687500
2206,-61.11,2022-10-26 10:14:45.703125
2207,-66.94,2022-10-26 10:14:45.718750
2208,-69.31,2022-10-26 10:14:45.734375
2209,-67.06,2022-10-26 10:14:45.750000
2210,-59.83,2022-10-26 10:14:45.765625
2211,-48.35,2022-10-26 10:14:45.781250
2212,-34.21,2022-10-26 10:14:45.796875
2213,-19.36,2022-10-26 10:14:45.812500
2214,-5.45,2022-10-26 10:14:45.828125
2215,6.51,2022-10-26 10:14:45.843750
2216,16.26,2022-10-26 10:14:45.859375
2217,24.02,2022-10-26 10:14:45.875000
2218,30.06,2022-10-26 10:14:45.890625
2219,34.47,2022-10-26 10:14:45.906250
2220,37.13,2022-10-26 10:14:45.921875
2221,37.92,2022-10-26 10:14:45.937500
2222,36.97,2022-10-26 10:14:45.953125
2223,34.77,2022-10-26 10:14:45.968750
2224,32.07,2022-10-26 10:14:45.984375
2225,29.71,2022-10-26 10:14:46.000000
2226,28.26,2022-10-26 10:14:46.015625
2227,27.96,2022-10-26 10:14:46.031250
2228,28.66,2022-10-26 10:14:46.046875
2229,29.91,2022-10-26 10:14:46.062500
2230,31.17,2022-10-26 10:14:46.078125
2231,32.01,2022-10-26 10:14:46.093750
2232,32.09,2022-10-26 10:14:46.109375
2233,31.32,2022-10-26 10:14:46.125000
2234,29.82,2022-10-26 10:14:46.140625
2235,27.78,2022-10-26 10:14:46.156250
2236,25.44,2022-10-26 10:14:46.171875
2237,22.94,2022-10-26 10:14:46.187500
2238,20.31,2022-10-26 10:14:46.203125
2239,17.41,2022-10-26 10:14:46.218750
2240,14.08,2022-10-26 10:14:46.234375
2241,10.23,2022-10-26 10:14:46.250000
2242,5.88,2022-10-26 10:14:46.265625
2243,1.2,2022-10-26 10:14:46.281250
2244,-3.6,2022-10-26 10:14:46.296875
2245,-8.36,2022-10-26 10:14:46.312500
2246,-13.03,2022-10-26 10:14:46.328125
2247,-17.74,2022-10-26 10:14:46.343750
2248,-22.64,2022-10-26 10:14:46.359375
2249,-27.94,2022-10-26 10:14:46.375000
2250,-33.82,2022-10-26 10:14:46.390625
2251,-40.36,2022-10-26 10:14:46.406250
2252,-47.51,2022-10-26 10:14:46.421875
2253,-54.87,2022-10-26 10:14:46.437500
2254,-61.61,2022-10-26 10:14:46.453125
2255,-66.47,2022-10-26 10:14:46.468750
2256,-68.01,2022-10-26 10:14:46.484375
2257,-65.12,2022-10-26 10:14:46.500000
2258,-57.42,2022-10-26 10:14:46.515625
2259,-45.61,2022-10-26 10:14:46.531250
2260,-31.23,2022-10-26 10:14:46.546875
2261,-16.23,2022-10-26 10:14:46.562500
2262,-2.33,2022-10-26 10:14:46.578125
2263,9.42,2022-10-26 10:14:46.593750
2264,18.71,2022-10-26 10:14:46.609375
2265,25.78,2022-10-26 10:14:46.625000
2266,30.97,2022-10-26 10:14:46.640625
2267,34.53,2022-10-26 10:14:46.656250
2268,36.5,2022-10-26 10:14:46.671875
2269,36.91,2022-10-26 10:14:46.687500
2270,35.95,2022-10-26 10:14:46.703125
2271,34.07,2022-10-26 10:14:46.718750
2272,31.9,2022-10-26 10:14:46.734375
2273,30.1,2022-10-26 10:14:46.750000
2274,29.14,2022-10-26 10:14:46.765625
2275,29.1,2022-10-26 10:14:46.781250
2276,29.72,2022-10-26 10:14:46.796875
2277,30.56,2022-10-26 10:14:46.812500
2278,31.15,2022-10-26 10:14:46.828125
2279,31.26,2022-10-26 10:14:46.843750
2280,30.82,2022-10-26 10:14:46.859375
2281,29.96,2022-10-26 10:14:46.875000
2282,28.84,2022-10-26 10:14:46.890625
2283,27.53,2022-10-26 10:14:46.906250
2284,25.91,2022-10-26 10:14:46.921875
2285,23.77,2022-10-26 10:14:46.937500
2286,20.85,2022-10-26 10:14:46.953125
2287,17.0,2022-10-26 10:14:46.968750
2288,12.27,2022-10-26 10:14:46.984375
2289,6.88,2022-10-26 10:14:47.000000
2290,1.22,2022-10-26 10:14:47.015625
2291,-4.25,2022-10-26 10:14:47.031250
2292,-9.13,2022-10-26 10:14:47.046875
2293,-13.23,2022-10-26 10:14:47.062500
2294,-16.6,2022-10-26 10:14:47.078125
2295,-19.55,2022-10-26 10:14:47.093750
2296,-22.57,2022-10-26 10:14:47.109375
2297,-26.17,2022-10-26 10:14:47.125000
2298,-30.78,2022-10-26 10:14:47.140625
2299,-36.53,2022-10-26 10:14:47.156250
2300,-43.16,2022-10-26 10:14:47.171875
2301,-49.94,2022-10-26 10:14:47.187500
2302,-55.77,2022-10-26 10:14:47.203125
2303,-59.39,2022-10-26 10:14:47.218750
2304,-59.64,2022-10-26 10:14:47.234375
2305,-55.87,2022-10-26 10:14:47.250000
2306,-48.14,2022-10-26 10:14:47.265625
2307,-37.24,2022-10-26 10:14:47.281250
2308,-24.47,2022-10-26 10:14:47.296875
2309,-11.3,2022-10-26 10:14:47.312500
2310,1.08,2022-10-26 10:14:47.328125
2311,11.89,2022-10-26 10:14:47.343750
2312,20.82,2022-10-26 10:14:47.359375
2313,27.81,2022-10-26 10:14:47.375000
2314,32.86,2022-10-26 10:14:47.390625
2315,35.93,2022-10-26 10:14:47.406250
2316,37.07,2022-10-26 10:14:47.421875
2317,36.45,2022-10-26 10:14:47.437500
2318,34.5,2022-10-26 10:14:47.453125
2319,31.9,2022-10-26 10:14:47.468750
2320,29.43,2022-10-26 10:14:47.484375
2321,27.72,2022-10-26 10:14:47.500000
2322,27.08,2022-10-26 10:14:47.515625
2323,27.36,2022-10-26 10:14:47.531250
2324,28.06,2022-10-26 10:14:47.546875
2325,28.53,2022-10-26 10:14:47.562500
2326,28.34,2022-10-26 10:14:47.578125
2327,27.36,2022-10-26 10:14:47.593750
2328,25.85,2022-10-26 10:14:47.609375
2329,24.24,2022-10-26 10:14:47.625000
2330,22.86,2022-10-26 10:14:47.640625
2331,21.72,2022-10-26 10:14:47.656250
2332,20.46,2022-10-26 10:14:47.671875
2333,18.55,2022-10-26 10:14:47.687500
2334,15.6,2022-10-26 10:14:47.703125
2335,11.59,2022-10-26 10:14:47.718750
2336,6.87,2022-10-26 10:14:47.734375
2337,1.99,2022-10-26 10:14:47.750000
2338,-2.56,2022-10-26 10:14:47.765625
2339,-6.52,2022-10-26 10:14:47.781250
2340,-9.93,2022-10-26 10:14:47.796875
2341,-13.07,2022-10-26 10:14:47.812500
2342,-16.35,2022-10-26 10:14:47.828125
2343,-20.2,2022-10-26 10:14:47.843750
2344,-24.98,2022-10-26 10:14:47.859375
2345,-30.98,2022-10-26 10:14:47.875000
2346,-38.2,2022-10-26 10:14:47.890625
2347,-46.28,2022-10-26 10:14:47.906250
2348,-54.31,2022-10-26 10:14:47.921875
2349,-60.94,2022-10-26 10:14:47.937500
2350,-64.66,2022-10-26 10:14:47.953125
2351,-64.27,2022-10-26 10:14:47.968750
2352,-59.29,2022-10-26 10:14:47.984375
2353,-50.14,2022-10-26 10:14:48.000000
2354,-38.02,2022-10-26 10:14:48.015625
2355,-24.53,2022-10-26 10:14:48.031250
2356,-11.15,2022-10-26 10:14:48.046875
2357,1.07,2022-10-26 10:14:48.062500
2358,11.62,2022-10-26 10:14:48.078125
2359,20.44,2022-10-26 10:14:48.093750
2360,27.6,2022-10-26 10:14:48.109375
2361,33.18,2022-10-26 10:14:48.125000
2362,37.19,2022-10-26 10:14:48.140625
2363,39.64,2022-10-26 10:14:48.156250
2364,40.7,2022-10-26 10:14:48.171875
2365,40.76,2022-10-26 10:14:48.187500
2366,40.28,2022-10-26 10:14:48.203125
2367,39.83,2022-10-26 10:14:48.218750
2368,39.81,2022-10-26 10:14:48.234375
2369,40.43,2022-10-26 10:14:48.250000
2370,41.61,2022-10-26 10:14:48.265625
2371,43.07,2022-10-26 10:14:48.281250
2372,44.41,2022-10-26 10:14:48.296875
2373,45.33,2022-10-26 10:14:48.312500
2374,45.71,2022-10-26 10:14:48.328125
2375,45.65,2022-10-26 10:14:48.343750
2376,45.35,2022-10-26 10:14:48.359375
2377,44.97,2022-10-26 10:14:48.375000
2378,44.5,2022-10-26 10:14:48.390625
2379,43.73,2022-10-26 10:14:48.406250
2380,42.42,2022-10-26 10:14:48.421875
2381,40.36,2022-10-26 10:14:48.437500
2382,37.56,2022-10-26 10:14:48.453125
2383,34.26,2022-10-26 10:14:48.468750
2384,30.71,2022-10-26 10:14:48.484375
2385,27.13,2022-10-26 10:14:48.500000
2386,23.63,2022-10-26 10:14:48.515625
2387,20.27,2022-10-26 10:14:48.531250
2388,17.01,2022-10-26 10:14:48.546875
2389,13.85,2022-10-26 10:14:48.562500
2390,10.79,2022-10-26 10:14:48.578125
2391,7.86,2022-10-26 10:14:48.593750
2392,5.08,2022-10-26 10:14:48.609375
2393,2.43,2022-10-26 10:14:48.625000
2394,-0.05,2022-10-26 10:14:48.640625
2395,-2.39,2022-10-26 10:14:48.656250
2396,-4.58,2022-10-26 10:14:48.671875
2397,-6.66,2022-10-26 10:14:48.687500
2398,-8.78,2022-10-26 10:14:48.703125
2399,-11.09,2022-10-26 10:14:48.718750
2400,-13.79,2022-10-26 10:14:48.734375
2401,-17.04,2022-10-26 10:14:48.750000
2402,-20.88,2022-10-26 10:14:48.765625
2403,-25.19,2022-10-26 10:14:48.781250
2404,-29.69,2022-10-26 10:14:48.796875
2405,-34.03,2022-10-26 10:14:48.812500
2406,-37.96,2022-10-26 10:14:48.828125
2407,-41.39,2022-10-26 10:14:48.843750
2408,-44.55,2022-10-26 10:14:48.859375
2409,-47.86,2022-10-26 10:14:48.875000
2410,-51.87,2022-10-26 10:14:48.890625
2411,-57.04,2022-10-26 10:14:48.906250
2412,-63.55,2022-10-26 10:14:48.921875
2413,-71.12,2022-10-26 10:14:48.937500
2414,-78.92,2022-10-26 10:14:48.953125
2415,-85.61,2022-10-26 10:14:48.968750
2416,-89.6,2022-10-26 10:14:48.984375
2417,-89.4,2022-10-26 10:14:49.000000
2418,-84.16,2022-10-26 10:14:49.015625
2419,-73.99,2022-10-26 10:14:49.031250
2420,-59.96,2022-10-26 10:14:49.046875
2421,-43.88,2022-10-26 10:14:49.062500
2422,-27.7,2022-10-26 10:14:49.078125
2423,-13.01,2022-10-26 10:14:49.093750
2424,-0.6,2022-10-26 10:14:49.109375
2425,9.4,2022-10-26 10:14:49.125000
2426,17.33,2022-10-26 10:14:49.140625
2427,23.66,2022-10-26 10:14:49.156250
2428,28.65,2022-10-26 10:14:49.171875
2429,32.44,2022-10-26 10:14:49.187500
2430,35.06,2022-10-26 10:14:49.203125
2431,36.68,2022-10-26 10:14:49.218750
2432,37.64,2022-10-26 10:14:49.234375
2433,38.37,2022-10-26 10:14:49.250000
2434,39.2,2022-10-26 10:14:49.265625
2435,40.27,2022-10-26 10:14:49.281250
2436,41.52,2022-10-26 10:14:49.296875
2437,42.71,2022-10-26 10:14:49.312500
2438,43.66,2022-10-26 10:14:49.328125
2439,44.28,2022-10-26 10:14:49.343750
2440,44.68,2022-10-26 10:14:49.359375
2441,45.01,2022-10-26 10:14:49.375000
2442,45.34,2022-10-26 10:14:49.390625
2443,45.59,2022-10-26 10:14:49.406250
2444,45.52,2022-10-26 10:14:49.421875
2445,44.82,2022-10-26 10:14:49.437500
2446,43.25,2022-10-26 10:14:49.453125
2447,40.77,2022-10-26 10:14:49.468750
2448,37.53,2022-10-26 10:14:49.484375
2449,33.86,2022-10-26 10:14:49.500000
2450,30.18,2022-10-26 10:14:49.515625
2451,26.87,2022-10-26 10:14:49.531250
2452,24.08,2022-10-26 10:14:49.546875
2453,21.77,2022-10-26 10:14:49.562500
2454,19.7,2022-10-26 10:14:49.578125
2455,17.58,2022-10-26 10:14:49.593750
2456,15.19,2022-10-26 10:14:49.609375
2457,12.49,2022-10-26 10:14:49.625000
2458,9.61,2022-10-26 10:14:49.640625
2459,6.83,2022-10-26 10:14:49.656250
2460,4.36,2022-10-26 10:14:49.671875
2461,2.27,2022-10-26 10:14:49.687500
2462,0.36,2022-10-26 10:14:49.703125
2463,-1.74,2022-10-26 10:14:49.718750
2464,-4.43,2022-10-26 10:14:49.734375
2465,-7.91,2022-10-26 10:14:49.750000
2466,-12.1,2022-10-26 10:14:49.765625
2467,-16.62,2022-10-26 10:14:49.781250
2468,-21.01,2022-10-26 10:14:49.796875
2469,-24.88,2022-10-26 10:14:49.812500
2470,-28.16,2022-10-26 10:14:49.828125
2471,-31.18,2022-10-26 10:14:49.843750
2472,-34.45,2022-10-26 10:14:49.859375
2473,-38.54,2022-10-26 10:14:49.875000
2474,-43.87,2022-10-26 10:14:49.890625
2475,-50.51,2022-10-26 10:14:49.906250
2476,-58.01,2022-10-26 10:14:49.921875
2477,-65.49,2022-10-26 10:14:49.937500
2478,-71.58,2022-10-26 10:14:49.953125
2479,-74.8,2022-10-26 10:14:49.968750
2480,-73.91,2022-10-26 10:14:49.984375
2481,-68.34,2022-10-26 10:14:50.000000
2482,-58.47,2022-10-26 10:14:50.015625
2483,-45.61,2022-10-26 10:14:50.031250
2484,-31.52,2022-10-26 10:14:50.046875
2485,-17.92,2022-10-26 10:14:50.062500
2486,-5.98,2022-10-26 10:14:50.078125
2487,3.83,2022-10-26 10:14:50.093750
2488,11.62,2022-10-26 10:14:50.109375
2489,17.77,2022-10-26 10:14:50.125000
2490,22.53,2022-10-26 10:14:50.140625
2491,25.97,2022-10-26 10:14:50.156250
2492,28.03,2022-10-26 10:14:50.171875
2493,28.73,2022-10-26 10:14:50.187500
2494,28.35,2022-10-26 10:14:50.203125
2495,27.37,2022-10-26 10:14:50.218750
2496,26.33,2022-10-26 10:14:50.234375
2497,25.67,2022-10-26 10:14:50.250000
2498,25.57,2022-10-26 10:14:50.265625
2499,25.87,2022-10-26 10:14:50.281250
2500,26.28,2022-10-26 10:14:50.296875
2501,26.53,2022-10-26 10:14:50.312500
2502,26.54,2022-10-26 10:14:50.328125
2503,26.45,2022-10-26 10:14:50.343750
2504,26.48,2022-10-26 10:14:50.359375
2505,26.81,2022-10-26 10:14:50.375000
2506,27.33,2022-10-26 10:14:50.390625
2507,27.67,2022-10-26 10:14:50.406250
2508,27.33,2022-10-26 10:14:50.421875
2509,25.91,2022-10-26 10:14:50.437500
2510,23.3,2022-10-26 10:14:50.453125
2511,19.79,2022-10-26 10:14:50.468750
2512,15.94,2022-10-26 10:14:50.484375
2513,12.28,2022-10-26 10:14:50.500000
2514,9.21,2022-10-26 10:14:50.515625
2515,6.7,2022-10-26 10:14:50.531250
2516,4.48,2022-10-26 10:14:50.546875
2517,2.09,2022-10-26 10:14:50.562500
2518,-0.82,2022-10-26 10:14:50.578125
2519,-4.37,2022-10-26 10:14:50.593750
2520,-8.33,2022-10-26 10:14:50.609375
2521,-12.27,2022-10-26 10:14:50.625000
2522,-15.72,2022-10-26 10:14:50.640625
2523,-18.36,2022-10-26 10:14:50.656250
2524,-20.2,2022-10-26 10:14:50.671875
2525,-21.53,2022-10-26 10:14:50.687500
2526,-22.89,2022-10-26 10:14:50.703125
2527,-24.88,2022-10-26 10:14:50.718750
2528,-28.01,2022-10-26 10:14:50.734375
2529,-32.56,2022-10-26 10:14:50.750000
2530,-38.36,2022-10-26 10:14:50.765625
2531,-44.85,2022-10-26 10:14:50.781250
2532,-51.0,2022-10-26 10:14:50.796875
2533,-55.48,2022-10-26 10:14:50.812500
2534,-57.05,2022-10-26 10:14:50.828125
2535,-54.88,2022-10-26 10:14:50.843750
2536,-48.85,2022-10-26 10:14:50.859375
2537,-39.6,2022-10-26 10:14:50.875000
2538,-28.34,2022-10-26 10:14:50.890625
2539,-16.48,2022-10-26 10:14:50.906250
2540,-5.24,2022-10-26 10:14:50.921875
2541,4.6,2022-10-26 10:14:50.937500
2542,12.81,2022-10-26 10:14:50.953125
2543,19.46,2022-10-26 10:14:50.968750
2544,24.74,2022-10-26 10:14:50.984375
2545,28.73,2022-10-26 10:14:51.000000
2546,31.45,2022-10-26 10:14:51.015625
2547,32.9,2022-10-26 10:14:51.031250
2548,33.17,2022-10-26 10:14:51.046875
2549,32.59,2022-10-26 10:14:51.062500
2550,31.63,2022-10-26 10:14:51.078125
2551,30.82,2022-10-26 10:14:51.093750
2552,30.57,2022-10-26 10:14:51.109375
2553,31.02,2022-10-26 10:14:51.125000
2554,32.02,2022-10-26 10:14:51.140625
2555,33.24,2022-10-26 10:14:51.156250
2556,34.31,2022-10-26 10:14:51.171875
2557,34.89,2022-10-26 10:14:51.187500
2558,34.83,2022-10-26 10:14:51.203125
2559,34.11,2022-10-26 10:14:51.218750
2560,32.81,2022-10-26 10:14:51.234375
2561,30.96,2022-10-26 10:14:51.250000
2562,28.6,2022-10-26 10:14:51.265625
2563,25.76,2022-10-26 10:14:51.281250
2564,22.45,2022-10-26 10:14:51.296875
2565,18.77,2022-10-26 10:14:51.312500
2566,14.9,2022-10-26 10:14:51.328125
2567,11.05,2022-10-26 10:14:51.343750
2568,7.44,2022-10-26 10:14:51.359375
2569,4.21,2022-10-26 10:14:51.375000
2570,1.38,2022-10-26 10:14:51.390625
2571,-1.12,2022-10-26 10:14:51.406250
2572,-3.41,2022-10-26 10:14:51.421875
2573,-5.68,2022-10-26 10:14:51.437500
2574,-8.13,2022-10-26 10:14:51.453125
2575,-10.9,2022-10-26 10:14:51.468750
2576,-14.04,2022-10-26 10:14:51.484375
2577,-17.48,2022-10-26 10:14:51.500000
2578,-21.02,2022-10-26 10:14:51.515625
2579,-24.43,2022-10-26 10:14:51.531250
2580,-27.54,2022-10-26 10:14:51.546875
2581,-30.31,2022-10-26 10:14:51.562500
2582,-32.97,2022-10-26 10:14:51.578125
2583,-35.88,2022-10-26 10:14:51.593750
2584,-39.47,2022-10-26 10:14:51.609375
2585,-44.13,2022-10-26 10:14:51.625000
2586,-50.05,2022-10-26 10:14:51.640625
2587,-57.08,2022-10-26 10:14:51.656250
2588,-64.61,2022-10-26 10:14:51.671875
2589,-71.52,2022-10-26 10:14:51.687500
2590,-76.33,2022-10-26 10:14:51.703125
2591,-77.53,2022-10-26 10:14:51.718750
2592,-74.07,2022-10-26 10:14:51.734375
2593,-65.78,2022-10-26 10:14:51.750000
2594,-53.45,2022-10-26 10:14:51.765625
2595,-38.69,2022-10-26 10:14:51.781250
2596,-23.35,2022-10-26 10:14:51.796875
2597,-9.05,2022-10-26 10:14:51.812500
2598,3.19,2022-10-26 10:14:51.828125
2599,13.02,2022-10-26 10:14:51.843750
2600,20.51,2022-10-26 10:14:51.859375
2601,25.97,2022-10-26 10:14:51.875000
2602,29.73,2022-10-26 10:14:51.890625
2603,32.13,2022-10-26 10:14:51.906250
2604,33.56,2022-10-26 10:14:51.921875
2605,34.42,2022-10-26 10:14:51.937500
2606,35.01,2022-10-26 10:14:51.953125
2607,35.55,2022-10-26 10:14:51.968750
2608,36.08,2022-10-26 10:14:51.984375
2609,36.55,2022-10-26 10:14:52.000000
2610,36.9,2022-10-26 10:14:52.015625
2611,37.16,2022-10-26 10:14:52.031250
2612,37.35,2022-10-26 10:14:52.046875
2613,37.59,2022-10-26 10:14:52.062500
2614,37.93,2022-10-26 10:14:52.078125
2615,38.32,2022-10-26 10:14:52.093750
2616,38.69,2022-10-26 10:14:52.109375
2617,38.91,2022-10-26 10:14:52.125000
2618,38.76,2022-10-26 10:14:52.140625
2619,38.08,2022-10-26 10:14:52.156250
2620,36.7,2022-10-26 10:14:52.171875
2621,34.5,2022-10-26 10:14:52.187500
2622,31.57,2022-10-26 10:14:52.203125
2623,28.08,2022-10-26 10:14:52.218750
2624,24.38,2022-10-26 10:14:52.234375
2625,20.82,2022-10-26 10:14:52.250000
2626,17.66,2022-10-26 10:14:52.265625
2627,14.94,2022-10-26 10:14:52.281250
2628,12.49,2022-10-26 10:14:52.296875
2629,10.08,2022-10-26 10:14:52.312500
2630,7.52,2022-10-26 10:14:52.328125
2631,4.82,2022-10-26 10:14:52.343750
2632,2.07,2022-10-26 10:14:52.359375
2633,-0.6,2022-10-26 10:14:52.375000
2634,-3.18,2022-10-26 10:14:52.390625
2635,-5.89,2022-10-26 10:14:52.406250
2636,-8.99,2022-10-26 10:14:52.421875
2637,-12.62,2022-10-26 10:14:52.437500
2638,-16.75,2022-10-26 10:14:52.453125
2639,-21.07,2022-10-26 10:14:52.468750
2640,-25.24,2022-10-26 10:14:52.484375
2641,-28.99,2022-10-26 10:14:52.500000
2642,-32.35,2022-10-26 10:14:52.515625
2643,-35.58,2022-10-26 10:14:52.531250
2644,-39.14,2022-10-26 10:14:52.546875
2645,-43.51,2022-10-26 10:14:52.562500
2646,-48.98,2022-10-26 10:14:52.578125
2647,-55.58,2022-10-26 10:14:52.593750
2648,-62.76,2022-10-26 10:14:52.609375
2649,-69.5,2022-10-26 10:14:52.625000
2650,-74.39,2022-10-26 10:14:52.640625
2651,-75.96,2022-10-26 10:14:52.656250
2652,-73.2,2022-10-26 10:14:52.671875
2653,-65.86,2022-10-26 10:14:52.687500
2654,-54.63,2022-10-26 10:14:52.703125
2655,-40.99,2022-10-26 10:14:52.718750
2656,-26.72,2022-10-26 10:14:52.734375
2657,-13.4,2022-10-26 10:14:52.750000
2658,-2.04,2022-10-26 10:14:52.765625
2659,7.02,2022-10-26 10:14:52.781250
2660,14.04,2022-10-26 10:14:52.796875
2661,19.5,2022-10-26 10:14:52.812500
2662,23.8,2022-10-26 10:14:52.828125
2663,27.14,2022-10-26 10:14:52.843750
2664,29.45,2022-10-26 10:14:52.859375
2665,30.66,2022-10-26 10:14:52.875000
2666,30.85,2022-10-26 10:14:52.890625
2667,30.33,2022-10-26 10:14:52.906250
2668,29.58,2022-10-26 10:14:52.921875
2669,29.04,2022-10-26 10:14:52.937500
2670,28.98,2022-10-26 10:14:52.953125
2671,29.42,2022-10-26 10:14:52.968750
2672,30.22,2022-10-26 10:14:52.984375
2673,31.26,2022-10-26 10:14:53.000000
2674,32.44,2022-10-26 10:14:53.015625
2675,33.71,2022-10-26 10:14:53.031250
2676,34.88,2022-10-26 10:14:53.046875
2677,35.61,2022-10-26 10:14:53.062500
2678,35.49,2022-10-26 10:14:53.078125
2679,34.13,2022-10-26 10:14:53.093750
2680,31.44,2022-10-26 10:14:53.109375
2681,27.67,2022-10-26 10:14:53.125000
2682,23.34,2022-10-26 10:14:53.140625
2683,18.97,2022-10-26 10:14:53.156250
2684,14.85,2022-10-26 10:14:53.171875
2685,11.01,2022-10-26 10:14:53.187500
2686,7.24,2022-10-26 10:14:53.203125
2687,3.34,2022-10-26 10:14:53.218750
2688,-0.76,2022-10-26 10:14:53.234375
2689,-4.89,2022-10-26 10:14:53.250000
2690,-8.78,2022-10-26 10:14:53.265625
2691,-12.21,2022-10-26 10:14:53.281250
2692,-15.11,2022-10-26 10:14:53.296875
2693,-17.63,2022-10-26 10:14:53.312500
2694,-20.05,2022-10-26 10:14:53.328125
2695,-22.73,2022-10-26 10:14:53.343750
2696,-25.97,2022-10-26 10:14:53.359375
2697,-30.11,2022-10-26 10:14:53.375000
2698,-35.34,2022-10-26 10:14:53.390625
2699,-41.65,2022-10-26 10:14:53.406250
2700,-48.6,2022-10-26 10:14:53.421875
2701,-55.21,2022-10-26 10:14:53.437500
2702,-60.11,2022-10-26 10:14:53.453125
2703,-61.87,2022-10-26 10:14:53.468750
2704,-59.49,2022-10-26 10:14:53.484375
2705,-52.8,2022-10-26 10:14:53.500000
2706,-42.55,2022-10-26 10:14:53.515625
2707,-30.14,2022-10-26 10:14:53.531250
2708,-17.15,2022-10-26 10:14:53.546875
2709,-4.96,2022-10-26 10:14:53.562500
2710,5.7,2022-10-26 10:14:53.578125
2711,14.56,2022-10-26 10:14:53.593750
2712,21.68,2022-10-26 10:14:53.609375
2713,27.2,2022-10-26 10:14:53.625000
2714,31.16,2022-10-26 10:14:53.640625
2715,33.47,2022-10-26 10:14:53.656250
2716,34.06,2022-10-26 10:14:53.671875
2717,33.1,2022-10-26 10:14:53.687500
2718,30.94,2022-10-26 10:14:53.703125
2719,28.2,2022-10-26 10:14:53.718750
2720,25.57,2022-10-26 10:14:53.734375
2721,23.63,2022-10-26 10:14:53.750000
2722,22.66,2022-10-26 10:14:53.765625
2723,22.67,2022-10-26 10:14:53.781250
2724,23.4,2022-10-26 10:14:53.796875
2725,24.51,2022-10-26 10:14:53.812500
2726,25.73,2022-10-26 10:14:53.828125
2727,26.85,2022-10-26 10:14:53.843750
2728,27.75,2022-10-26 10:14:53.859375
2729,28.27,2022-10-26 10:14:53.875000
2730,28.22,2022-10-26 10:14:53.890625
2731,27.32,2022-10-26 10:14:53.906250
2732,25.35,2022-10-26 10:14:53.921875
2733,22.28,2022-10-26 10:14:53.937500
2734,18.33,2022-10-26 10:14:53.953125
2735,14.03,2022-10-26 10:14:53.968750
2736,9.96,2022-10-26 10:14:53.984375
2737,6.58,2022-10-26 10:14:54.000000
2738,4.05,2022-10-26 10:14:54.015625
2739,2.15,2022-10-26 10:14:54.031250
2740,0.37,2022-10-26 10:14:54.046875
2741,-1.87,2022-10-26 10:14:54.062500
2742,-4.95,2022-10-26 10:14:54.078125
2743,-8.95,2022-10-26 10:14:54.093750
2744,-13.61,2022-10-26 10:14:54.109375
2745,-18.45,2022-10-26 10:14:54.125000
2746,-22.99,2022-10-26 10:14:54.140625
2747,-26.97,2022-10-26 10:14:54.156250
2748,-30.44,2022-10-26 10:14:54.171875
2749,-33.69,2022-10-26 10:14:54.187500
2750,-37.2,2022-10-26 10:14:54.203125
2751,-41.45,2022-10-26 10:14:54.218750
2752,-46.81,2022-10-26 10:14:54.234375
2753,-53.39,2022-10-26 10:14:54.250000
2754,-60.87,2022-10-26 10:14:54.265625
2755,-68.47,2022-10-26 10:14:54.281250
2756,-74.89,2022-10-26 10:14:54.296875
2757,-78.57,2022-10-26 10:14:54.312500
2758,-78.11,2022-10-26 10:14:54.328125
2759,-72.75,2022-10-26 10:14:54.343750
2760,-62.69,2022-10-26 10:14:54.359375
2761,-49.12,2022-10-26 10:14:54.375000
2762,-33.79,2022-10-26 10:14:54.390625
2763,-18.55,2022-10-26 10:14:54.406250
2764,-4.73,2022-10-26 10:14:54.421875
2765,6.98,2022-10-26 10:14:54.437500
2766,16.52,2022-10-26 10:14:54.453125
2767,24.08,2022-10-26 10:14:54.468750
2768,29.9,2022-10-26 10:14:54.484375
2769,34.06,2022-10-26 10:14:54.500000
2770,36.63,2022-10-26 10:14:54.515625
2771,37.73,2022-10-26 10:14:54.531250
2772,37.72,2022-10-26 10:14:54.546875
2773,37.08,2022-10-26 10:14:54.562500
2774,36.4,2022-10-26 10:14:54.578125
2775,36.17,2022-10-26 10:14:54.593750
2776,36.63,2022-10-26 10:14:54.609375
2777,37.77,2022-10-26 10:14:54.625000
2778,39.36,2022-10-26 10:14:54.640625
2779,41.08,2022-10-26 10:14:54.656250
2780,42.65,2022-10-26 10:14:54.671875
2781,43.96,2022-10-26 10:14:54.687500
2782,45.08,2022-10-26 10:14:54.703125
2783,46.1,2022-10-26 10:14:54.718750
2784,47.03,2022-10-26 10:14:54.734375
2785,47.71,2022-10-26 10:14:54.750000
2786,47.77,2022-10-26 10:14:54.765625
2787,46.78,2022-10-26 10:14:54.781250
2788,44.52,2022-10-26 10:14:54.796875
2789,41.04,2022-10-26 10:14:54.812500
2790,36.7,2022-10-26 10:14:54.828125
2791,32.04,2022-10-26 10:14:54.843750
2792,27.59,2022-10-26 10:14:54.859375
2793,23.67,2022-10-26 10:14:54.875000
2794,20.36,2022-10-26 10:14:54.890625
2795,17.51,2022-10-26 10:14:54.906250
2796,14.8,2022-10-26 10:14:54.921875
2797,11.94,2022-10-26 10:14:54.937500
2798,8.77,2022-10-26 10:14:54.953125
2799,5.31,2022-10-26 10:14:54.968750
2800,1.76,2022-10-26 10:14:54.984375
2801,-1.55,2022-10-26 10:14:55.000000
2802,-4.36,2022-10-26 10:14:55.015625
2803,-6.57,2022-10-26 10:14:55.031250
2804,-8.26,2022-10-26 10:14:55.046875
2805,-9.75,2022-10-26 10:14:55.062500
2806,-11.42,2022-10-26 10:14:55.078125
2807,-13.63,2022-10-26 10:14:55.093750
2808,-16.6,2022-10-26 10:14:55.109375
2809,-20.33,2022-10-26 10:14:55.125000
2810,-24.56,2022-10-26 10:14:55.140625
2811,-28.93,2022-10-26 10:14:55.156250
2812,-33.02,2022-10-26 10:14:55.171875
2813,-36.57,2022-10-26 10:14:55.187500
2814,-39.54,2022-10-26 10:14:55.203125
2815,-42.18,2022-10-26 10:14:55.218750
2816,-44.99,2022-10-26 10:14:55.234375
2817,-48.56,2022-10-26 10:14:55.250000
2818,-53.42,2022-10-26 10:14:55.265625
2819,-59.79,2022-10-26 10:14:55.281250
2820,-67.35,2022-10-26 10:14:55.296875
2821,-75.1,2022-10-26 10:14:55.312500
2822,-81.45,2022-10-26 10:14:55.328125
2823,-84.62,2022-10-26 10:14:55.343750
2824,-83.2,2022-10-26 10:14:55.359375
2825,-76.65,2022-10-26 10:14:55.375000
2826,-65.5,2022-10-26 10:14:55.390625
2827,-51.23,2022-10-26 10:14:55.406250
2828,-35.76,2022-10-26 10:14:55.421875
2829,-20.8,2022-10-26 10:14:55.437500
2830,-7.42,2022-10-26 10:14:55.453125
2831,3.97,2022-10-26 10:14:55.468750
2832,13.44,2022-10-26 10:14:55.484375
2833,21.22,2022-10-26 10:14:55.500000
2834,27.46,2022-10-26 10:14:55.515625
2835,32.17,2022-10-26 10:14:55.531250
2836,35.34,2022-10-26 10:14:55.546875
2837,37.1,2022-10-26 10:14:55.562500
2838,37.74,2022-10-26 10:14:55.578125
2839,37.71,2022-10-26 10:14:55.593750
2840,37.48,2022-10-26 10:14:55.609375
2841,37.43,2022-10-26 10:14:55.625000
2842,37.8,2022-10-26 10:14:55.640625
2843,38.57,2022-10-26 10:14:55.656250
2844,39.58,2022-10-26 10:14:55.671875
2845,40.63,2022-10-26 10:14:55.687500
2846,41.58,2022-10-26 10:14:55.703125
2847,42.39,2022-10-26 10:14:55.718750
2848,43.06,2022-10-26 10:14:55.734375
2849,43.53,2022-10-26 10:14:55.750000
2850,43.6,2022-10-26 10:14:55.765625
2851,42.98,2022-10-26 10:14:55.781250
2852,41.4,2022-10-26 10:14:55.796875
2853,38.79,2022-10-26 10:14:55.812500
2854,35.33,2022-10-26 10:14:55.828125
2855,31.41,2022-10-26 10:14:55.843750
2856,27.45,2022-10-26 10:14:55.859375
2857,23.8,2022-10-26 10:14:55.875000
2858,20.63,2022-10-26 10:14:55.890625
2859,17.94,2022-10-26 10:14:55.906250
2860,15.66,2022-10-26 10:14:55.921875
2861,13.66,2022-10-26 10:14:55.937500
2862,11.81,2022-10-26 10:14:55.953125
2863,9.92,2022-10-26 10:14:55.968750
2864,7.86,2022-10-26 10:14:55.984375
2865,5.54,2022-10-26 10:14:56.000000
2866,3.06,2022-10-26 10:14:56.015625
2867,0.61,2022-10-26 10:14:56.031250
2868,-1.59,2022-10-26 10:14:56.046875
2869,-3.49,2022-10-26 10:14:56.062500
2870,-5.28,2022-10-26 10:14:56.078125
2871,-7.3,2022-10-26 10:14:56.093750
2872,-9.98,2022-10-26 10:14:56.109375
2873,-13.54,2022-10-26 10:14:56.125000
2874,-17.92,2022-10-26 10:14:56.140625
2875,-22.74,2022-10-26 10:14:56.156250
2876,-27.52,2022-10-26 10:14:56.171875
2877,-31.81,2022-10-26 10:14:56.187500
2878,-35.47,2022-10-26 10:14:56.203125
2879,-38.64,2022-10-26 10:14:56.218750
2880,-41.77,2022-10-26 10:14:56.234375
2881,-45.45,2022-10-26 10:14:56.250000
2882,-50.28,2022-10-26 10:14:56.265625
2883,-56.54,2022-10-26 10:14:56.281250
2884,-64.04,2022-10-26 10:14:56.296875
2885,-71.9,2022-10-26 10:14:56.312500
2886,-78.66,2022-10-26 10:14:56.328125
2887,-82.59,2022-10-26 10:14:56.343750
2888,-82.21,2022-10-26 10:14:56.359375
2889,-76.82,2022-10-26 10:14:56.375000
2890,-66.76,2022-10-26 10:14:56.390625
2891,-53.34,2022-10-26 10:14:56.406250
2892,-38.42,2022-10-26 10:14:56.421875
2893,-23.84,2022-10-26 10:14:56.437500
2894,-10.85,2022-10-26 10:14:56.453125
2895,0.02,2022-10-26 10:14:56.468750
2896,8.84,2022-10-26 10:14:56.484375
2897,15.95,2022-10-26 10:14:56.500000
2898,21.66,2022-10-26 10:14:56.515625
2899,26.09,2022-10-26 10:14:56.531250
2900,29.24,2022-10-26 10:14:56.546875
2901,31.1,2022-10-26 10:14:56.562500
2902,31.76,2022-10-26 10:14:56.578125
2903,31.5,2022-10-26 10:14:56.593750
2904,30.75,2022-10-26 10:14:56.609375
2905,29.94,2022-10-26 10:14:56.625000
2906,29.42,2022-10-26 10:14:56.640625
2907,29.44,2022-10-26 10:14:56.656250
2908,30.08,2022-10-26 10:14:56.671875
2909,31.31,2022-10-26 10:14:56.687500
2910,32.97,2022-10-26 10:14:56.703125
2911,34.8,2022-10-26 10:14:56.718750
2912,36.43,2022-10-26 10:14:56.734375
2913,37.47,2022-10-26 10:14:56.750000
2914,37.48,2022-10-26 10:14:56.765625
2915,36.22,2022-10-26 10:14:56.781250
2916,33.63,2022-10-26 10:14:56.796875
2917,29.9,2022-10-26 10:14:56.812500
2918,25.47,2022-10-26 10:14:56.828125
2919,20.78,2022-10-26 10:14:56.843750
2920,16.16,2022-10-26 10:14:56.859375
2921,11.72,2022-10-26 10:14:56.875000
2922,7.41,2022-10-26 10:14:56.890625
2923,3.06,2022-10-26 10:14:56.906250
2924,-1.38,2022-10-26 10:14:56.921875
2925,-5.87,2022-10-26 10:14:56.937500
2926,-10.3,2022-10-26 10:14:56.953125
2927,-14.54,2022-10-26 10:14:56.968750
2928,-18.58,2022-10-26 10:14:56.984375
2929,-22.51,2022-10-26 10:14:57.000000
2930,-26.51,2022-10-26 10:14:57.015625
2931,-30.83,2022-10-26 10:14:57.031250
2932,-35.7,2022-10-26 10:14:57.046875
2933,-41.22,2022-10-26 10:14:57.062500
2934,-47.28,2022-10-26 10:14:57.078125
2935,-53.39,2022-10-26 10:14:57.093750
2936,-58.62,2022-10-26 10:14:57.109375
2937,-61.75,2022-10-26 10:14:57.125000
2938,-61.6,2022-10-26 10:14:57.140625
2939,-57.41,2022-10-26 10:14:57.156250
2940,-49.17,2022-10-26 10:14:57.171875
2941,-37.69,2022-10-26 10:14:57.187500
2942,-24.37,2022-10-26 10:14:57.203125
2943,-10.8,2022-10-26 10:14:57.218750
2944,1.65,2022-10-26 10:14:57.234375
2945,12.19,2022-10-26 10:14:57.250000
2946,20.51,2022-10-26 10:14:57.265625
2947,26.74,2022-10-26 10:14:57.281250
2948,31.18,2022-10-26 10:14:57.296875
2949,34.12,2022-10-26 10:14:57.312500
2950,35.74,2022-10-26 10:14:57.328125
2951,36.17,2022-10-26 10:14:57.343750
2952,35.56,2022-10-26 10:14:57.359375
2953,34.19,2022-10-26 10:14:57.375000
2954,32.46,2022-10-26 10:14:57.390625
2955,30.78,2022-10-26 10:14:57.406250
2956,29.56,2022-10-26 10:14:57.421875
2957,29.01,2022-10-26 10:14:57.437500
2958,29.2,2022-10-26 10:14:57.453125
2959,29.97,2022-10-26 10:14:57.468750
2960,31.13,2022-10-26 10:14:57.484375
2961,32.36,2022-10-26 10:14:57.500000
2962,33.4,2022-10-26 10:14:57.515625
2963,34.03,2022-10-26 10:14:57.531250
2964,34.07,2022-10-26 10:14:57.546875
2965,33.47,2022-10-26 10:14:57.562500
2966,32.25,2022-10-26 10:14:57.578125
2967,30.45,2022-10-26 10:14:57.593750
2968,28.12,2022-10-26 10:14:57.609375
2969,25.31,2022-10-26 10:14:57.625000
2970,22.05,2022-10-26 10:14:57.640625
2971,18.44,2022-10-26 10:14:57.656250
2972,14.65,2022-10-26 10:14:57.671875
2973,10.91,2022-10-26 10:14:57.687500
2974,7.4,2022-10-26 10:14:57.703125
2975,4.21,2022-10-26 10:14:57.718750
2976,1.19,2022-10-26 10:14:57.734375
2977,-1.9,2022-10-26 10:14:57.750000
2978,-5.38,2022-10-26 10:14:57.765625
2979,-9.37,2022-10-26 10:14:57.781250
2980,-13.81,2022-10-26 10:14:57.796875
2981,-18.42,2022-10-26 10:14:57.812500
2982,-22.83,2022-10-26 10:14:57.828125
2983,-26.77,2022-10-26 10:14:57.843750
2984,-30.16,2022-10-26 10:14:57.859375
2985,-33.18,2022-10-26 10:14:57.875000
2986,-36.13,2022-10-26 10:14:57.890625
2987,-39.36,2022-10-26 10:14:57.906250
2988,-43.16,2022-10-26 10:14:57.921875
2989,-47.8,2022-10-26 10:14:57.937500
2990,-53.42,2022-10-26 10:14:57.953125
2991,-60.03,2022-10-26 10:14:57.968750
2992,-67.27,2022-10-26 10:14:57.984375
2993,-74.3,2022-10-26 10:14:58.000000
2994,-79.83,2022-10-26 10:14:58.015625
2995,-82.36,2022-10-26 10:14:58.031250
2996,-80.67,2022-10-26 10:14:58.046875
2997,-74.19,2022-10-26 10:14:58.062500
2998,-63.31,2022-10-26 10:14:58.078125
2999,-49.27,2022-10-26 10:14:58.093750
3000,-33.82,2022-10-26 10:14:58.109375
3001,-18.71,2022-10-26 10:14:58.125000
3002,-5.23,2022-10-26 10:14:58.140625
3003,5.96,2022-10-26 10:14:58.156250
3004,14.82,2022-10-26 10:14:58.171875
3005,21.65,2022-10-26 10:14:58.187500
3006,26.87,2022-10-26 10:14:58.203125
3007,30.76,2022-10-26 10:14:58.218750
3008,33.49,2022-10-26 10:14:58.234375
3009,35.19,2022-10-26 10:14:58.250000
3010,36.03,2022-10-26 10:14:58.265625
3011,36.34,2022-10-26 10:14:58.281250
3012,36.52,2022-10-26 10:14:58.296875
3013,36.96,2022-10-26 10:14:58.312500
3014,37.85,2022-10-26 10:14:58.328125
3015,39.15,2022-10-26 10:14:58.343750
3016,40.7,2022-10-26 10:14:58.359375
3017,42.32,2022-10-26 10:14:58.375000
3018,43.89,2022-10-26 10:14:58.390625
3019,45.45,2022-10-26 10:14:58.406250
3020,47.02,2022-10-26 10:14:58.421875
3021,48.45,2022-10-26 10:14:58.437500
3022,49.49,2022-10-26 10:14:58.453125
3023,49.73,2022-10-26 10:14:58.468750
3024,48.82,2022-10-26 10:14:58.484375
3025,46.67,2022-10-26 10:14:58.500000
3026,43.48,2022-10-26 10:14:58.515625
3027,39.63,2022-10-26 10:14:58.531250
3028,35.59,2022-10-26 10:14:58.546875
3029,31.74,2022-10-26 10:14:58.562500
3030,28.25,2022-10-26 10:14:58.578125
3031,25.22,2022-10-26 10:14:58.593750
3032,22.58,2022-10-26 10:14:58.609375
3033,20.27,2022-10-26 10:14:58.625000
3034,18.2,2022-10-26 10:14:58.640625
3035,16.26,2022-10-26 10:14:58.656250
3036,14.28,2022-10-26 10:14:58.671875
3037,12.1,2022-10-26 10:14:58.687500
3038,9.63,2022-10-26 10:14:58.703125
3039,6.87,2022-10-26 10:14:58.718750
3040,3.95,2022-10-26 10:14:58.734375
3041,1.05,2022-10-26 10:14:58.750000
3042,-1.69,2022-10-26 10:14:58.765625
3043,-4.24,2022-10-26 10:14:58.781250
3044,-6.8,2022-10-26 10:14:58.796875
3045,-9.63,2022-10-26 10:14:58.812500
3046,-12.99,2022-10-26 10:14:58.828125
3047,-17.01,2022-10-26 10:14:58.843750
3048,-21.63,2022-10-26 10:14:58.859375
3049,-26.54,2022-10-26 10:14:58.875000
3050,-31.39,2022-10-26 10:14:58.890625
3051,-35.86,2022-10-26 10:14:58.906250
3052,-39.76,2022-10-26 10:14:58.921875
3053,-43.09,2022-10-26 10:14:58.937500
3054,-46.06,2022-10-26 10:14:58.953125
3055,-48.98,2022-10-26 10:14:58.968750
3056,-52.34,2022-10-26 10:14:58.984375
3057,-56.66,2022-10-26 10:14:59.000000
3058,-62.37,2022-10-26 10:14:59.015625
3059,-69.52,2022-10-26 10:14:59.031250
3060,-77.54,2022-10-26 10:14:59.046875
3061,-85.16,2022-10-26 10:14:59.062500
3062,-90.57,2022-10-26 10:14:59.078125
3063,-92.0,2022-10-26 10:14:59.093750
3064,-88.28,2022-10-26 10:14:59.109375
3065,-79.35,2022-10-26 10:14:59.125000
3066,-66.24,2022-10-26 10:14:59.140625
3067,-50.75,2022-10-26 10:14:59.156250
3068,-34.77,2022-10-26 10:14:59.171875
3069,-19.8,2022-10-26 10:14:59.187500
3070,-6.66,2022-10-26 10:14:59.203125
3071,4.35,2022-10-26 10:14:59.218750
3072,13.3,2022-10-26 10:14:59.234375
3073,20.29,2022-10-26 10:14:59.250000
3074,25.45,2022-10-26 10:14:59.265625
3075,28.9,2022-10-26 10:14:59.281250
3076,30.83,2022-10-26 10:14:59.296875
3077,31.55,2022-10-26 10:14:59.312500
3078,31.49,2022-10-26 10:14:59.328125
3079,31.07,2022-10-26 10:14:59.343750
3080,30.7,2022-10-26 10:14:59.359375
3081,30.71,2022-10-26 10:14:59.375000
3082,31.31,2022-10-26 10:14:59.390625
3083,32.52,2022-10-26 10:14:59.406250
3084,34.23,2022-10-26 10:14:59.421875
3085,36.19,2022-10-26 10:14:59.437500
3086,38.12,2022-10-26 10:14:59.453125
3087,39.74,2022-10-26 10:14:59.468750
3088,40.83,2022-10-26 10:14:59.484375
3089,41.21,2022-10-26 10:14:59.500000
3090,40.71,2022-10-26 10:14:59.515625
3091,39.21,2022-10-26 10:14:59.531250
3092,36.68,2022-10-26 10:14:59.546875
3093,33.24,2022-10-26 10:14:59.562500
3094,29.09,2022-10-26 10:14:59.578125
3095,24.52,2022-10-26 10:14:59.593750
3096,19.77,2022-10-26 10:14:59.609375
3097,15.03,2022-10-26 10:14:59.625000
3098,10.4,2022-10-26 10:14:59.640625
3099,5.91,2022-10-26 10:14:59.656250
3100,1.55,2022-10-26 10:14:59.671875
3101,-2.69,2022-10-26 10:14:59.687500
3102,-6.82,2022-10-26 10:14:59.703125
3103,-10.83,2022-10-26 10:14:59.718750
3104,-14.71,2022-10-26 10:14:59.734375
3105,-18.49,2022-10-26 10:14:59.750000
3106,-22.2,2022-10-26 10:14:59.765625
3107,-26.04,2022-10-26 10:14:59.781250
3108,-30.25,2022-10-26 10:14:59.796875
3109,-35.16,2022-10-26 10:14:59.812500
3110,-40.84,2022-10-26 10:14:59.828125
3111,-46.92,2022-10-26 10:14:59.843750
3112,-52.5,2022-10-26 10:14:59.859375
3113,-56.19,2022-10-26 10:14:59.875000
3114,-56.61,2022-10-26 10:14:59.890625
3115,-52.86,2022-10-26 10:14:59.906250
3116,-44.9,2022-10-26 10:14:59.921875
3117,-33.63,2022-10-26 10:14:59.937500
3118,-20.6,2022-10-26 10:14:59.953125
3119,-7.48,2022-10-26 10:14:59.968750
3120,4.42,2022-10-26 10:14:59.984375
3121,14.4,2022-10-26 10:15:00.000000
3122,22.31,2022-10-26 10:15:00.015625
3123,28.3,2022-10-26 10:15:00.031250
3124,32.59,2022-10-26 10:15:00.046875
3125,35.32,2022-10-26 10:15:00.062500
3126,36.59,2022-10-26 10:15:00.078125
3127,36.58,2022-10-26 10:15:00.093750
3128,35.57,2022-10-26 10:15:00.109375
3129,34.02,2022-10-26 10:15:00.125000
3130,32.44,2022-10-26 10:15:00.140625
3131,31.3,2022-10-26 10:15:00.156250
3132,30.91,2022-10-26 10:15:00.171875
3133,31.35,2022-10-26 10:15:00.187500
3134,32.42,2022-10-26 10:15:00.203125
3135,33.82,2022-10-26 10:15:00.218750
3136,35.22,2022-10-26 10:15:00.234375
3137,36.35,2022-10-26 10:15:00.250000
3138,37.14,2022-10-26 10:15:00.265625
3139,37.6,2022-10-26 10:15:00.281250
3140,37.7,2022-10-26 10:15:00.296875
3141,37.36,2022-10-26 10:15:00.312500
3142,36.37,2022-10-26 10:15:00.328125
3143,34.56,2022-10-26 10:15:00.343750
3144,31.83,2022-10-26 10:15:00.359375
3145,28.26,2022-10-26 10:15:00.375000
3146,24.12,2022-10-26 10:15:00.390625
3147,19.77,2022-10-26 10:15:00.406250
3148,15.53,2022-10-26 10:15:00.421875
3149,11.67,2022-10-26 10:15:00.437500
3150,8.29,2022-10-26 10:15:00.453125
3151,5.32,2022-10-26 10:15:00.468750
3152,2.55,2022-10-26 10:15:00.484375
3153,-0.29,2022-10-26 10:15:00.500000
3154,-3.47,2022-10-26 10:15:00.515625
3155,-7.13,2022-10-26 10:15:00.531250
3156,-11.25,2022-10-26 10:15:00.546875
3157,-15.63,2022-10-26 10:15:00.562500
3158,-20.0,2022-10-26 10:15:00.578125
3159,-24.13,2022-10-26 10:15:00.593750
3160,-27.94,2022-10-26 10:15:00.609375
3161,-31.6,2022-10-26 10:15:00.625000
3162,-35.46,2022-10-26 10:15:00.640625
3163,-39.99,2022-10-26 10:15:00.656250
3164,-45.65,2022-10-26 10:15:00.671875
3165,-52.76,2022-10-26 10:15:00.687500
3166,-61.34,2022-10-26 10:15:00.703125
3167,-70.95,2022-10-26 10:15:00.718750
3168,-80.51,2022-10-26 10:15:00.734375
3169,-88.44,2022-10-26 10:15:00.750000
