,BVP,time
0,-1.04,2022-10-26 10:05:44.312500
1,-35.17,2022-10-26 10:05:44.328125
2,-66.76,2022-10-26 10:05:44.343750
3,-94.16,2022-10-26 10:05:44.359375
4,-116.57,2022-10-26 10:05:44.375000
5,-133.95,2022-10-26 10:05:44.390625
6,-146.09,2022-10-26 10:05:44.406250
7,-153.35,2022-10-26 10:05:44.421875
8,-157.45,2022-10-26 10:05:44.437500
9,-159.5,2022-10-26 10:05:44.453125
10,-159.82,2022-10-26 10:05:44.468750
11,-158.66,2022-10-26 10:05:44.484375
12,-156.29,2022-10-26 10:05:44.500000
13,-153.08,2022-10-26 10:05:44.515625
14,-149.68,2022-10-26 10:05:44.531250
15,-146.57,2022-10-26 10:05:44.546875
16,-144.38,2022-10-26 10:05:44.562500
17,-144.22,2022-10-26 10:05:44.578125
18,-146.17,2022-10-26 10:05:44.593750
19,-149.23,2022-10-26 10:05:44.609375
20,-152.1,2022-10-26 10:05:44.625000
21,-153.76,2022-10-26 10:05:44.640625
22,-153.78,2022-10-26 10:05:44.656250
23,-152.43,2022-10-26 10:05:44.671875
24,-150.26,2022-10-26 10:05:44.687500
25,-148.08,2022-10-26 10:05:44.703125
26,-147.05,2022-10-26 10:05:44.718750
27,-148.04,2022-10-26 10:05:44.734375
28,-151.35,2022-10-26 10:05:44.750000
29,-156.55,2022-10-26 10:05:44.765625
30,-162.0,2022-10-26 10:05:44.781250
31,-164.63,2022-10-26 10:05:44.796875
32,-160.3,2022-10-26 10:05:44.812500
33,-145.03,2022-10-26 10:05:44.828125
34,-116.66,2022-10-26 10:05:44.843750
35,-76.21,2022-10-26 10:05:44.859375
36,-27.88,2022-10-26 10:05:44.875000
37,22.43,2022-10-26 10:05:44.890625
38,69.07,2022-10-26 10:05:44.906250
39,108.2,2022-10-26 10:05:44.921875
40,138.13,2022-10-26 10:05:44.937500
41,158.58,2022-10-26 10:05:44.953125
42,169.52,2022-10-26 10:05:44.968750
43,170.73,2022-10-26 10:05:44.984375
44,162.46,2022-10-26 10:05:45.000000
45,146.5,2022-10-26 10:05:45.015625
46,127.06,2022-10-26 10:05:45.031250
47,110.08,2022-10-26 10:05:45.046875
48,101.5,2022-10-26 10:05:45.062500
49,105.02,2022-10-26 10:05:45.078125
50,120.65,2022-10-26 10:05:45.093750
51,144.93,2022-10-26 10:05:45.109375
52,172.49,2022-10-26 10:05:45.125000
53,198.21,2022-10-26 10:05:45.140625
54,218.75,2022-10-26 10:05:45.156250
55,232.79,2022-10-26 10:05:45.171875
56,240.34,2022-10-26 10:05:45.187500
57,241.64,2022-10-26 10:05:45.203125
58,236.64,2022-10-26 10:05:45.218750
59,225.22,2022-10-26 10:05:45.234375
60,207.94,2022-10-26 10:05:45.250000
61,186.66,2022-10-26 10:05:45.265625
62,164.46,2022-10-26 10:05:45.281250
63,144.52,2022-10-26 10:05:45.296875
64,128.77,2022-10-26 10:05:45.312500
65,116.64,2022-10-26 10:05:45.328125
66,105.09,2022-10-26 10:05:45.343750
67,89.77,2022-10-26 10:05:45.359375
68,66.56,2022-10-26 10:05:45.375000
69,33.09,2022-10-26 10:05:45.390625
70,-10.86,2022-10-26 10:05:45.406250
71,-63.47,2022-10-26 10:05:45.421875
72,-121.55,2022-10-26 10:05:45.437500
73,-180.84,2022-10-26 10:05:45.453125
74,-236.18,2022-10-26 10:05:45.468750
75,-281.67,2022-10-26 10:05:45.484375
76,-311.07,2022-10-26 10:05:45.500000
77,-319.77,2022-10-26 10:05:45.515625
78,-306.61,2022-10-26 10:05:45.531250
79,-275.0,2022-10-26 10:05:45.546875
80,-232.44,2022-10-26 10:05:45.562500
81,-188.22,2022-10-26 10:05:45.578125
82,-150.39,2022-10-26 10:05:45.593750
83,-123.23,2022-10-26 10:05:45.609375
84,-106.84,2022-10-26 10:05:45.625000
85,-97.91,2022-10-26 10:05:45.640625
86,-92.43,2022-10-26 10:05:45.656250
87,-87.5,2022-10-26 10:05:45.671875
88,-82.0,2022-10-26 10:05:45.687500
89,-76.14,2022-10-26 10:05:45.703125
90,-70.42,2022-10-26 10:05:45.718750
91,-65.17,2022-10-26 10:05:45.734375
92,-60.32,2022-10-26 10:05:45.750000
93,-56.22,2022-10-26 10:05:45.765625
94,-52.96,2022-10-26 10:05:45.781250
95,-51.34,2022-10-26 10:05:45.796875
96,-52.12,2022-10-26 10:05:45.812500
97,-55.58,2022-10-26 10:05:45.828125
98,-61.05,2022-10-26 10:05:45.843750
99,-67.2,2022-10-26 10:05:45.859375
100,-72.57,2022-10-26 10:05:45.875000
101,-75.88,2022-10-26 10:05:45.890625
102,-77.12,2022-10-26 10:05:45.906250
103,-74.98,2022-10-26 10:05:45.921875
104,-68.87,2022-10-26 10:05:45.937500
105,-57.46,2022-10-26 10:05:45.953125
106,-38.97,2022-10-26 10:05:45.968750
107,-11.97,2022-10-26 10:05:45.984375
108,23.02,2022-10-26 10:05:46.000000
109,62.17,2022-10-26 10:05:46.015625
110,98.98,2022-10-26 10:05:46.031250
111,125.09,2022-10-26 10:05:46.046875
112,138.13,2022-10-26 10:05:46.062500
113,138.21,2022-10-26 10:05:46.078125
114,129.64,2022-10-26 10:05:46.093750
115,118.24,2022-10-26 10:05:46.109375
116,109.0,2022-10-26 10:05:46.125000
117,104.65,2022-10-26 10:05:46.140625
118,104.38,2022-10-26 10:05:46.156250
119,106.44,2022-10-26 10:05:46.171875
120,107.41,2022-10-26 10:05:46.187500
121,110.22,2022-10-26 10:05:46.203125
122,114.36,2022-10-26 10:05:46.218750
123,117.66,2022-10-26 10:05:46.234375
124,115.27,2022-10-26 10:05:46.250000
125,103.05,2022-10-26 10:05:46.265625
126,80.21,2022-10-26 10:05:46.281250
127,47.74,2022-10-26 10:05:46.296875
128,9.71,2022-10-26 10:05:46.312500
129,-31.42,2022-10-26 10:05:46.328125
130,-66.51,2022-10-26 10:05:46.343750
131,-92.82,2022-10-26 10:05:46.359375
132,-109.74,2022-10-26 10:05:46.375000
133,-120.34,2022-10-26 10:05:46.390625
134,-127.36,2022-10-26 10:05:46.406250
135,-131.98,2022-10-26 10:05:46.421875
136,-138.39,2022-10-26 10:05:46.437500
137,-128.77,2022-10-26 10:05:46.453125
138,-130.65,2022-10-26 10:05:46.468750
139,-138.01,2022-10-26 10:05:46.484375
140,-147.24,2022-10-26 10:05:46.500000
141,-153.51,2022-10-26 10:05:46.515625
142,-156.82,2022-10-26 10:05:46.531250
143,-158.58,2022-10-26 10:05:46.546875
144,-161.01,2022-10-26 10:05:46.562500
145,-172.24,2022-10-26 10:05:46.578125
146,-200.26,2022-10-26 10:05:46.593750
147,-252.28,2022-10-26 10:05:46.609375
148,-323.08,2022-10-26 10:05:46.625000
149,-407.19,2022-10-26 10:05:46.640625
150,-495.2,2022-10-26 10:05:46.656250
151,-581.02,2022-10-26 10:05:46.671875
152,-657.64,2022-10-26 10:05:46.687500
153,-685.57,2022-10-26 10:05:46.703125
154,-639.8,2022-10-26 10:05:46.718750
155,-523.56,2022-10-26 10:05:46.734375
156,-371.03,2022-10-26 10:05:46.750000
157,-218.21,2022-10-26 10:05:46.765625
158,-106.19,2022-10-26 10:05:46.781250
159,-29.66,2022-10-26 10:05:46.796875
160,22.59,2022-10-26 10:05:46.812500
161,60.69,2022-10-26 10:05:46.828125
162,92.11,2022-10-26 10:05:46.843750
163,118.29,2022-10-26 10:05:46.859375
164,137.13,2022-10-26 10:05:46.875000
165,147.54,2022-10-26 10:05:46.890625
166,155.92,2022-10-26 10:05:46.906250
167,168.03,2022-10-26 10:05:46.921875
168,189.22,2022-10-26 10:05:46.937500
169,216.25,2022-10-26 10:05:46.953125
170,242.88,2022-10-26 10:05:46.968750
171,262.89,2022-10-26 10:05:46.984375
172,268.4,2022-10-26 10:05:47.000000
173,255.31,2022-10-26 10:05:47.015625
174,225.32,2022-10-26 10:05:47.031250
175,187.3,2022-10-26 10:05:47.046875
176,150.52,2022-10-26 10:05:47.062500
177,123.24,2022-10-26 10:05:47.078125
178,106.35,2022-10-26 10:05:47.093750
179,97.58,2022-10-26 10:05:47.109375
180,93.72,2022-10-26 10:05:47.125000
181,89.24,2022-10-26 10:05:47.140625
182,79.57,2022-10-26 10:05:47.156250
183,63.01,2022-10-26 10:05:47.171875
184,42.0,2022-10-26 10:05:47.187500
185,20.81,2022-10-26 10:05:47.203125
186,5.15,2022-10-26 10:05:47.218750
187,-2.14,2022-10-26 10:05:47.234375
188,0.39,2022-10-26 10:05:47.250000
189,12.91,2022-10-26 10:05:47.265625
190,33.04,2022-10-26 10:05:47.281250
191,57.27,2022-10-26 10:05:47.296875
192,82.55,2022-10-26 10:05:47.312500
193,106.8,2022-10-26 10:05:47.328125
194,128.69,2022-10-26 10:05:47.343750
195,147.52,2022-10-26 10:05:47.359375
196,161.74,2022-10-26 10:05:47.375000
197,170.24,2022-10-26 10:05:47.390625
198,172.99,2022-10-26 10:05:47.406250
199,170.61,2022-10-26 10:05:47.421875
200,164.49,2022-10-26 10:05:47.437500
201,156.56,2022-10-26 10:05:47.453125
202,148.74,2022-10-26 10:05:47.468750
203,142.34,2022-10-26 10:05:47.484375
204,138.04,2022-10-26 10:05:47.500000
205,135.6,2022-10-26 10:05:47.515625
206,134.57,2022-10-26 10:05:47.531250
207,134.5,2022-10-26 10:05:47.546875
208,134.86,2022-10-26 10:05:47.562500
209,134.84,2022-10-26 10:05:47.578125
210,133.41,2022-10-26 10:05:47.593750
211,129.71,2022-10-26 10:05:47.609375
212,123.39,2022-10-26 10:05:47.625000
213,114.94,2022-10-26 10:05:47.640625
214,105.61,2022-10-26 10:05:47.656250
215,96.97,2022-10-26 10:05:47.671875
216,90.34,2022-10-26 10:05:47.687500
217,86.3,2022-10-26 10:05:47.703125
218,84.61,2022-10-26 10:05:47.718750
219,84.38,2022-10-26 10:05:47.734375
220,84.51,2022-10-26 10:05:47.750000
221,84.05,2022-10-26 10:05:47.765625
222,82.46,2022-10-26 10:05:47.781250
223,79.68,2022-10-26 10:05:47.796875
224,75.87,2022-10-26 10:05:47.812500
225,71.21,2022-10-26 10:05:47.828125
226,65.76,2022-10-26 10:05:47.843750
227,59.4,2022-10-26 10:05:47.859375
228,51.97,2022-10-26 10:05:47.875000
229,43.46,2022-10-26 10:05:47.890625
230,34.09,2022-10-26 10:05:47.906250
231,24.32,2022-10-26 10:05:47.921875
232,14.83,2022-10-26 10:05:47.937500
233,6.44,2022-10-26 10:05:47.953125
234,0.12,2022-10-26 10:05:47.968750
235,-3.16,2022-10-26 10:05:47.984375
236,-2.65,2022-10-26 10:05:48.000000
237,1.81,2022-10-26 10:05:48.015625
238,9.67,2022-10-26 10:05:48.031250
239,19.58,2022-10-26 10:05:48.046875
240,29.85,2022-10-26 10:05:48.062500
241,39.02,2022-10-26 10:05:48.078125
242,46.23,2022-10-26 10:05:48.093750
243,51.4,2022-10-26 10:05:48.109375
244,54.9,2022-10-26 10:05:48.125000
245,57.2,2022-10-26 10:05:48.140625
246,58.48,2022-10-26 10:05:48.156250
247,58.68,2022-10-26 10:05:48.171875
248,57.81,2022-10-26 10:05:48.187500
249,56.07,2022-10-26 10:05:48.203125
250,54.07,2022-10-26 10:05:48.218750
251,52.6,2022-10-26 10:05:48.234375
252,52.38,2022-10-26 10:05:48.250000
253,53.79,2022-10-26 10:05:48.265625
254,56.67,2022-10-26 10:05:48.281250
255,60.53,2022-10-26 10:05:48.296875
256,64.65,2022-10-26 10:05:48.312500
257,68.37,2022-10-26 10:05:48.328125
258,71.27,2022-10-26 10:05:48.343750
259,73.14,2022-10-26 10:05:48.359375
260,73.79,2022-10-26 10:05:48.375000
261,72.9,2022-10-26 10:05:48.390625
262,69.8,2022-10-26 10:05:48.406250
263,63.63,2022-10-26 10:05:48.421875
264,53.63,2022-10-26 10:05:48.437500
265,39.58,2022-10-26 10:05:48.453125
266,22.16,2022-10-26 10:05:48.468750
267,2.85,2022-10-26 10:05:48.484375
268,-16.49,2022-10-26 10:05:48.500000
269,-34.26,2022-10-26 10:05:48.515625
270,-49.6,2022-10-26 10:05:48.531250
271,-62.59,2022-10-26 10:05:48.546875
272,-73.92,2022-10-26 10:05:48.562500
273,-84.46,2022-10-26 10:05:48.578125
274,-94.9,2022-10-26 10:05:48.593750
275,-105.66,2022-10-26 10:05:48.609375
276,-116.97,2022-10-26 10:05:48.625000
277,-128.89,2022-10-26 10:05:48.640625
278,-141.14,2022-10-26 10:05:48.656250
279,-152.87,2022-10-26 10:05:48.671875
280,-162.61,2022-10-26 10:05:48.687500
281,-168.62,2022-10-26 10:05:48.703125
282,-169.6,2022-10-26 10:05:48.718750
283,-165.35,2022-10-26 10:05:48.734375
284,-156.96,2022-10-26 10:05:48.750000
285,-146.37,2022-10-26 10:05:48.765625
286,-135.39,2022-10-26 10:05:48.781250
287,-124.95,2022-10-26 10:05:48.796875
288,-114.85,2022-10-26 10:05:48.812500
289,-104.17,2022-10-26 10:05:48.828125
290,-92.25,2022-10-26 10:05:48.843750
291,-79.18,2022-10-26 10:05:48.859375
292,-65.98,2022-10-26 10:05:48.875000
293,-54.12,2022-10-26 10:05:48.890625
294,-44.6,2022-10-26 10:05:48.906250
295,-37.5,2022-10-26 10:05:48.921875
296,-31.9,2022-10-26 10:05:48.937500
297,-26.23,2022-10-26 10:05:48.953125
298,-18.71,2022-10-26 10:05:48.968750
299,-7.72,2022-10-26 10:05:48.984375
300,7.82,2022-10-26 10:05:49.000000
301,28.14,2022-10-26 10:05:49.015625
302,52.24,2022-10-26 10:05:49.031250
303,77.83,2022-10-26 10:05:49.046875
304,101.74,2022-10-26 10:05:49.062500
305,120.67,2022-10-26 10:05:49.078125
306,132.3,2022-10-26 10:05:49.093750
307,136.12,2022-10-26 10:05:49.109375
308,133.45,2022-10-26 10:05:49.125000
309,126.81,2022-10-26 10:05:49.140625
310,118.74,2022-10-26 10:05:49.156250
311,110.73,2022-10-26 10:05:49.171875
312,102.81,2022-10-26 10:05:49.187500
313,93.9,2022-10-26 10:05:49.203125
314,82.74,2022-10-26 10:05:49.218750
315,68.66,2022-10-26 10:05:49.234375
316,51.87,2022-10-26 10:05:49.250000
317,33.23,2022-10-26 10:05:49.265625
318,13.86,2022-10-26 10:05:49.281250
319,-5.06,2022-10-26 10:05:49.296875
320,-22.17,2022-10-26 10:05:49.312500
321,-35.97,2022-10-26 10:05:49.328125
322,-45.03,2022-10-26 10:05:49.343750
323,-48.44,2022-10-26 10:05:49.359375
324,-46.51,2022-10-26 10:05:49.375000
325,-40.94,2022-10-26 10:05:49.390625
326,-34.29,2022-10-26 10:05:49.406250
327,-28.96,2022-10-26 10:05:49.421875
328,-25.87,2022-10-26 10:05:49.437500
329,-24.04,2022-10-26 10:05:49.453125
330,-21.01,2022-10-26 10:05:49.468750
331,-14.17,2022-10-26 10:05:49.484375
332,-2.23,2022-10-26 10:05:49.500000
333,13.93,2022-10-26 10:05:49.515625
334,31.58,2022-10-26 10:05:49.531250
335,47.29,2022-10-26 10:05:49.546875
336,58.21,2022-10-26 10:05:49.562500
337,63.09,2022-10-26 10:05:49.578125
338,62.31,2022-10-26 10:05:49.593750
339,57.34,2022-10-26 10:05:49.609375
340,49.82,2022-10-26 10:05:49.625000
341,40.93,2022-10-26 10:05:49.640625
342,31.24,2022-10-26 10:05:49.656250
343,21.12,2022-10-26 10:05:49.671875
344,11.24,2022-10-26 10:05:49.687500
345,2.89,2022-10-26 10:05:49.703125
346,-2.41,2022-10-26 10:05:49.718750
347,-3.53,2022-10-26 10:05:49.734375
348,-0.35,2022-10-26 10:05:49.750000
349,5.96,2022-10-26 10:05:49.765625
350,13.33,2022-10-26 10:05:49.781250
351,19.61,2022-10-26 10:05:49.796875
352,23.45,2022-10-26 10:05:49.812500
353,24.59,2022-10-26 10:05:49.828125
354,23.74,2022-10-26 10:05:49.843750
355,21.88,2022-10-26 10:05:49.859375
356,19.58,2022-10-26 10:05:49.875000
357,16.91,2022-10-26 10:05:49.890625
358,13.71,2022-10-26 10:05:49.906250
359,10.24,2022-10-26 10:05:49.921875
360,7.59,2022-10-26 10:05:49.937500
361,7.35,2022-10-26 10:05:49.953125
362,10.74,2022-10-26 10:05:49.968750
363,17.72,2022-10-26 10:05:49.984375
364,26.72,2022-10-26 10:05:50.000000
365,35.19,2022-10-26 10:05:50.015625
366,40.71,2022-10-26 10:05:50.031250
367,41.93,2022-10-26 10:05:50.046875
368,38.77,2022-10-26 10:05:50.062500
369,31.89,2022-10-26 10:05:50.078125
370,22.05,2022-10-26 10:05:50.093750
371,9.7,2022-10-26 10:05:50.109375
372,-4.76,2022-10-26 10:05:50.125000
373,-20.38,2022-10-26 10:05:50.140625
374,-35.45,2022-10-26 10:05:50.156250
375,-47.78,2022-10-26 10:05:50.171875
376,-55.63,2022-10-26 10:05:50.187500
377,-58.58,2022-10-26 10:05:50.203125
378,-57.76,2022-10-26 10:05:50.218750
379,-55.34,2022-10-26 10:05:50.234375
380,-53.53,2022-10-26 10:05:50.250000
381,-53.67,2022-10-26 10:05:50.265625
382,-55.9,2022-10-26 10:05:50.281250
383,-59.52,2022-10-26 10:05:50.296875
384,-63.54,2022-10-26 10:05:50.312500
385,-67.28,2022-10-26 10:05:50.328125
386,-70.63,2022-10-26 10:05:50.343750
387,-73.9,2022-10-26 10:05:50.359375
388,-77.55,2022-10-26 10:05:50.375000
389,-81.86,2022-10-26 10:05:50.390625
390,-86.83,2022-10-26 10:05:50.406250
391,-92.14,2022-10-26 10:05:50.421875
392,-97.36,2022-10-26 10:05:50.437500
393,-102.06,2022-10-26 10:05:50.453125
394,-105.99,2022-10-26 10:05:50.468750
395,-108.98,2022-10-26 10:05:50.484375
396,-111.01,2022-10-26 10:05:50.500000
397,-112.0,2022-10-26 10:05:50.515625
398,-111.98,2022-10-26 10:05:50.531250
399,-111.02,2022-10-26 10:05:50.546875
400,-109.39,2022-10-26 10:05:50.562500
401,-107.54,2022-10-26 10:05:50.578125
402,-105.95,2022-10-26 10:05:50.593750
403,-104.9,2022-10-26 10:05:50.609375
404,-104.38,2022-10-26 10:05:50.625000
405,-103.99,2022-10-26 10:05:50.640625
406,-103.24,2022-10-26 10:05:50.656250
407,-101.75,2022-10-26 10:05:50.671875
408,-99.61,2022-10-26 10:05:50.687500
409,-97.36,2022-10-26 10:05:50.703125
410,-95.8,2022-10-26 10:05:50.718750
411,-95.72,2022-10-26 10:05:50.734375
412,-97.55,2022-10-26 10:05:50.750000
413,-101.33,2022-10-26 10:05:50.765625
414,-106.61,2022-10-26 10:05:50.781250
415,-112.58,2022-10-26 10:05:50.796875
416,-118.07,2022-10-26 10:05:50.812500
417,-121.67,2022-10-26 10:05:50.828125
418,-121.88,2022-10-26 10:05:50.843750
419,-117.43,2022-10-26 10:05:50.859375
420,-107.6,2022-10-26 10:05:50.875000
421,-92.53,2022-10-26 10:05:50.890625
422,-73.19,2022-10-26 10:05:50.906250
423,-51.19,2022-10-26 10:05:50.921875
424,-28.3,2022-10-26 10:05:50.937500
425,-6.15,2022-10-26 10:05:50.953125
426,13.99,2022-10-26 10:05:50.968750
427,31.19,2022-10-26 10:05:50.984375
428,44.79,2022-10-26 10:05:51.000000
429,54.42,2022-10-26 10:05:51.015625
430,60.03,2022-10-26 10:05:51.031250
431,62.06,2022-10-26 10:05:51.046875
432,61.44,2022-10-26 10:05:51.062500
433,59.44,2022-10-26 10:05:51.078125
434,57.33,2022-10-26 10:05:51.093750
435,55.95,2022-10-26 10:05:51.109375
436,55.53,2022-10-26 10:05:51.125000
437,55.61,2022-10-26 10:05:51.140625
438,55.4,2022-10-26 10:05:51.156250
439,54.06,2022-10-26 10:05:51.171875
440,51.15,2022-10-26 10:05:51.187500
441,46.64,2022-10-26 10:05:51.203125
442,40.86,2022-10-26 10:05:51.218750
443,34.14,2022-10-26 10:05:51.234375
444,26.55,2022-10-26 10:05:51.250000
445,17.83,2022-10-26 10:05:51.265625
446,7.59,2022-10-26 10:05:51.281250
447,-4.38,2022-10-26 10:05:51.296875
448,-17.8,2022-10-26 10:05:51.312500
449,-31.86,2022-10-26 10:05:51.328125
450,-45.39,2022-10-26 10:05:51.343750
451,-57.36,2022-10-26 10:05:51.359375
452,-67.18,2022-10-26 10:05:51.375000
453,-75.02,2022-10-26 10:05:51.390625
454,-81.74,2022-10-26 10:05:51.406250
455,-88.64,2022-10-26 10:05:51.421875
456,-97.02,2022-10-26 10:05:51.437500
457,-107.59,2022-10-26 10:05:51.453125
458,-120.02,2022-10-26 10:05:51.468750
459,-132.48,2022-10-26 10:05:51.484375
460,-141.82,2022-10-26 10:05:51.500000
461,-144.16,2022-10-26 10:05:51.515625
462,-135.98,2022-10-26 10:05:51.531250
463,-115.39,2022-10-26 10:05:51.546875
464,-83.05,2022-10-26 10:05:51.562500
465,-42.19,2022-10-26 10:05:51.578125
466,2.26,2022-10-26 10:05:51.593750
467,45.04,2022-10-26 10:05:51.609375
468,82.08,2022-10-26 10:05:51.625000
469,111.25,2022-10-26 10:05:51.640625
470,132.43,2022-10-26 10:05:51.656250
471,146.73,2022-10-26 10:05:51.671875
472,155.71,2022-10-26 10:05:51.687500
473,160.6,2022-10-26 10:05:51.703125
474,162.27,2022-10-26 10:05:51.718750
475,161.33,2022-10-26 10:05:51.734375
476,158.48,2022-10-26 10:05:51.750000
477,154.62,2022-10-26 10:05:51.765625
478,150.65,2022-10-26 10:05:51.781250
479,147.15,2022-10-26 10:05:51.796875
480,144.23,2022-10-26 10:05:51.812500
481,141.45,2022-10-26 10:05:51.828125
482,138.24,2022-10-26 10:05:51.843750
483,134.14,2022-10-26 10:05:51.859375
484,129.2,2022-10-26 10:05:51.875000
485,123.84,2022-10-26 10:05:51.890625
486,118.66,2022-10-26 10:05:51.906250
487,114.11,2022-10-26 10:05:51.921875
488,110.19,2022-10-26 10:05:51.937500
489,106.41,2022-10-26 10:05:51.953125
490,101.96,2022-10-26 10:05:51.968750
491,95.98,2022-10-26 10:05:51.984375
492,87.91,2022-10-26 10:05:52.000000
493,77.71,2022-10-26 10:05:52.015625
494,65.85,2022-10-26 10:05:52.031250
495,53.24,2022-10-26 10:05:52.046875
496,40.87,2022-10-26 10:05:52.062500
497,29.45,2022-10-26 10:05:52.078125
498,19.21,2022-10-26 10:05:52.093750
499,9.84,2022-10-26 10:05:52.109375
500,0.68,2022-10-26 10:05:52.125000
501,-8.91,2022-10-26 10:05:52.140625
502,-19.23,2022-10-26 10:05:52.156250
503,-30.05,2022-10-26 10:05:52.171875
504,-40.58,2022-10-26 10:05:52.187500
505,-49.78,2022-10-26 10:05:52.203125
506,-56.59,2022-10-26 10:05:52.218750
507,-60.28,2022-10-26 10:05:52.234375
508,-60.65,2022-10-26 10:05:52.250000
509,-57.99,2022-10-26 10:05:52.265625
510,-52.99,2022-10-26 10:05:52.281250
511,-46.52,2022-10-26 10:05:52.296875
512,-39.46,2022-10-26 10:05:52.312500
513,-32.59,2022-10-26 10:05:52.328125
514,-26.46,2022-10-26 10:05:52.343750
515,-21.49,2022-10-26 10:05:52.359375
516,-17.91,2022-10-26 10:05:52.375000
517,-15.81,2022-10-26 10:05:52.390625
518,-15.14,2022-10-26 10:05:52.406250
519,-15.74,2022-10-26 10:05:52.421875
520,-17.41,2022-10-26 10:05:52.437500
521,-19.97,2022-10-26 10:05:52.453125
522,-23.27,2022-10-26 10:05:52.468750
523,-27.23,2022-10-26 10:05:52.484375
524,-31.72,2022-10-26 10:05:52.500000
525,-36.48,2022-10-26 10:05:52.515625
526,-41.08,2022-10-26 10:05:52.531250
527,-45.03,2022-10-26 10:05:52.546875
528,-47.9,2022-10-26 10:05:52.562500
529,-49.58,2022-10-26 10:05:52.578125
530,-50.3,2022-10-26 10:05:52.593750
531,-50.6,2022-10-26 10:05:52.609375
532,-51.06,2022-10-26 10:05:52.625000
533,-52.16,2022-10-26 10:05:52.640625
534,-53.98,2022-10-26 10:05:52.656250
535,-56.25,2022-10-26 10:05:52.671875
536,-58.45,2022-10-26 10:05:52.687500
537,-60.07,2022-10-26 10:05:52.703125
538,-60.85,2022-10-26 10:05:52.718750
539,-60.92,2022-10-26 10:05:52.734375
540,-60.79,2022-10-26 10:05:52.750000
541,-61.27,2022-10-26 10:05:52.765625
542,-63.23,2022-10-26 10:05:52.781250
543,-67.48,2022-10-26 10:05:52.796875
544,-74.48,2022-10-26 10:05:52.812500
545,-84.08,2022-10-26 10:05:52.828125
546,-95.21,2022-10-26 10:05:52.843750
547,-105.71,2022-10-26 10:05:52.859375
548,-112.6,2022-10-26 10:05:52.875000
549,-112.81,2022-10-26 10:05:52.890625
550,-104.2,2022-10-26 10:05:52.906250
551,-86.44,2022-10-26 10:05:52.921875
552,-61.39,2022-10-26 10:05:52.937500
553,-32.52,2022-10-26 10:05:52.953125
554,-3.84,2022-10-26 10:05:52.968750
555,21.47,2022-10-26 10:05:52.984375
556,41.83,2022-10-26 10:05:53.000000
557,57.34,2022-10-26 10:05:53.015625
558,69.14,2022-10-26 10:05:53.031250
559,78.52,2022-10-26 10:05:53.046875
560,86.28,2022-10-26 10:05:53.062500
561,92.63,2022-10-26 10:05:53.078125
562,97.46,2022-10-26 10:05:53.093750
563,100.8,2022-10-26 10:05:53.109375
564,103.07,2022-10-26 10:05:53.125000
565,105.01,2022-10-26 10:05:53.140625
566,107.33,2022-10-26 10:05:53.156250
567,110.42,2022-10-26 10:05:53.171875
568,114.08,2022-10-26 10:05:53.187500
569,117.68,2022-10-26 10:05:53.203125
570,120.5,2022-10-26 10:05:53.218750
571,122.0,2022-10-26 10:05:53.234375
572,121.98,2022-10-26 10:05:53.250000
573,120.5,2022-10-26 10:05:53.265625
574,117.62,2022-10-26 10:05:53.281250
575,113.31,2022-10-26 10:05:53.296875
576,107.52,2022-10-26 10:05:53.312500
577,100.37,2022-10-26 10:05:53.328125
578,92.16,2022-10-26 10:05:53.343750
579,83.35,2022-10-26 10:05:53.359375
580,74.13,2022-10-26 10:05:53.375000
581,64.27,2022-10-26 10:05:53.390625
582,53.03,2022-10-26 10:05:53.406250
583,39.51,2022-10-26 10:05:53.421875
584,23.0,2022-10-26 10:05:53.437500
585,3.38,2022-10-26 10:05:53.453125
586,-18.83,2022-10-26 10:05:53.468750
587,-42.37,2022-10-26 10:05:53.484375
588,-65.37,2022-10-26 10:05:53.500000
589,-85.36,2022-10-26 10:05:53.515625
590,-99.61,2022-10-26 10:05:53.531250
591,-105.63,2022-10-26 10:05:53.546875
592,-101.98,2022-10-26 10:05:53.562500
593,-89.03,2022-10-26 10:05:53.578125
594,-69.08,2022-10-26 10:05:53.593750
595,-45.72,2022-10-26 10:05:53.609375
596,-22.53,2022-10-26 10:05:53.625000
597,-1.63,2022-10-26 10:05:53.640625
598,16.83,2022-10-26 10:05:53.656250
599,34.29,2022-10-26 10:05:53.671875
600,52.41,2022-10-26 10:05:53.687500
601,71.66,2022-10-26 10:05:53.703125
602,90.69,2022-10-26 10:05:53.718750
603,106.75,2022-10-26 10:05:53.734375
604,117.03,2022-10-26 10:05:53.750000
605,120.07,2022-10-26 10:05:53.765625
606,116.35,2022-10-26 10:05:53.781250
607,108.05,2022-10-26 10:05:53.796875
608,97.93,2022-10-26 10:05:53.812500
609,88.29,2022-10-26 10:05:53.828125
610,80.31,2022-10-26 10:05:53.843750
611,74.22,2022-10-26 10:05:53.859375
612,69.76,2022-10-26 10:05:53.875000
613,66.6,2022-10-26 10:05:53.890625
614,64.41,2022-10-26 10:05:53.906250
615,62.59,2022-10-26 10:05:53.921875
616,60.11,2022-10-26 10:05:53.937500
617,55.58,2022-10-26 10:05:53.953125
618,47.72,2022-10-26 10:05:53.968750
619,35.95,2022-10-26 10:05:53.984375
620,20.82,2022-10-26 10:05:54.000000
621,4.02,2022-10-26 10:05:54.015625
622,-12.14,2022-10-26 10:05:54.031250
623,-25.47,2022-10-26 10:05:54.046875
624,-34.74,2022-10-26 10:05:54.062500
625,-40.11,2022-10-26 10:05:54.078125
626,-43.16,2022-10-26 10:05:54.093750
627,-46.32,2022-10-26 10:05:54.109375
628,-52.08,2022-10-26 10:05:54.125000
629,-62.01,2022-10-26 10:05:54.140625
630,-76.12,2022-10-26 10:05:54.156250
631,-92.53,2022-10-26 10:05:54.171875
632,-107.78,2022-10-26 10:05:54.187500
633,-117.75,2022-10-26 10:05:54.203125
634,-118.84,2022-10-26 10:05:54.218750
635,-109.28,2022-10-26 10:05:54.234375
636,-89.75,2022-10-26 10:05:54.250000
637,-63.31,2022-10-26 10:05:54.265625
638,-34.37,2022-10-26 10:05:54.281250
639,-7.29,2022-10-26 10:05:54.296875
640,14.96,2022-10-26 10:05:54.312500
641,31.3,2022-10-26 10:05:54.328125
642,42.25,2022-10-26 10:05:54.343750
643,49.04,2022-10-26 10:05:54.359375
644,52.73,2022-10-26 10:05:54.375000
645,53.79,2022-10-26 10:05:54.390625
646,52.27,2022-10-26 10:05:54.406250
647,48.29,2022-10-26 10:05:54.421875
648,42.46,2022-10-26 10:05:54.437500
649,35.86,2022-10-26 10:05:54.453125
650,29.65,2022-10-26 10:05:54.468750
651,24.63,2022-10-26 10:05:54.484375
652,20.96,2022-10-26 10:05:54.500000
653,18.2,2022-10-26 10:05:54.515625
654,15.67,2022-10-26 10:05:54.531250
655,12.86,2022-10-26 10:05:54.546875
656,9.69,2022-10-26 10:05:54.562500
657,6.49,2022-10-26 10:05:54.578125
658,3.76,2022-10-26 10:05:54.593750
659,1.81,2022-10-26 10:05:54.609375
660,0.5,2022-10-26 10:05:54.625000
661,-0.85,2022-10-26 10:05:54.640625
662,-3.17,2022-10-26 10:05:54.656250
663,-7.27,2022-10-26 10:05:54.671875
664,-13.41,2022-10-26 10:05:54.687500
665,-21.13,2022-10-26 10:05:54.703125
666,-29.36,2022-10-26 10:05:54.718750
667,-36.84,2022-10-26 10:05:54.734375
668,-42.64,2022-10-26 10:05:54.750000
669,-46.56,2022-10-26 10:05:54.765625
670,-49.27,2022-10-26 10:05:54.781250
671,-52.0,2022-10-26 10:05:54.796875
672,-56.13,2022-10-26 10:05:54.812500
673,-62.66,2022-10-26 10:05:54.828125
674,-71.86,2022-10-26 10:05:54.843750
675,-82.96,2022-10-26 10:05:54.859375
676,-94.17,2022-10-26 10:05:54.875000
677,-102.88,2022-10-26 10:05:54.890625
678,-106.22,2022-10-26 10:05:54.906250
679,-101.83,2022-10-26 10:05:54.921875
680,-88.6,2022-10-26 10:05:54.937500
681,-67.14,2022-10-26 10:05:54.953125
682,-39.74,2022-10-26 10:05:54.968750
683,-9.66,2022-10-26 10:05:54.984375
684,19.74,2022-10-26 10:05:55.000000
685,45.82,2022-10-26 10:05:55.015625
686,67.08,2022-10-26 10:05:55.031250
687,83.07,2022-10-26 10:05:55.046875
688,93.99,2022-10-26 10:05:55.062500
689,100.4,2022-10-26 10:05:55.078125
690,103.02,2022-10-26 10:05:55.093750
691,102.7,2022-10-26 10:05:55.109375
692,100.47,2022-10-26 10:05:55.125000
693,97.32,2022-10-26 10:05:55.140625
694,94.04,2022-10-26 10:05:55.156250
695,90.95,2022-10-26 10:05:55.171875
696,87.91,2022-10-26 10:05:55.187500
697,84.6,2022-10-26 10:05:55.203125
698,80.82,2022-10-26 10:05:55.218750
699,76.75,2022-10-26 10:05:55.234375
700,72.94,2022-10-26 10:05:55.250000
701,70.06,2022-10-26 10:05:55.265625
702,68.54,2022-10-26 10:05:55.281250
703,68.22,2022-10-26 10:05:55.296875
704,68.26,2022-10-26 10:05:55.312500
705,67.37,2022-10-26 10:05:55.328125
706,64.09,2022-10-26 10:05:55.343750
707,57.33,2022-10-26 10:05:55.359375
708,46.69,2022-10-26 10:05:55.375000
709,32.67,2022-10-26 10:05:55.390625
710,16.54,2022-10-26 10:05:55.406250
711,0.02,2022-10-26 10:05:55.421875
712,-15.25,2022-10-26 10:05:55.437500
713,-28.17,2022-10-26 10:05:55.453125
714,-38.6,2022-10-26 10:05:55.468750
715,-47.41,2022-10-26 10:05:55.484375
716,-56.13,2022-10-26 10:05:55.500000
717,-66.27,2022-10-26 10:05:55.515625
718,-78.32,2022-10-26 10:05:55.531250
719,-91.17,2022-10-26 10:05:55.546875
720,-102.05,2022-10-26 10:05:55.562500
721,-107.35,2022-10-26 10:05:55.578125
722,-103.93,2022-10-26 10:05:55.593750
723,-90.44,2022-10-26 10:05:55.609375
724,-68.05,2022-10-26 10:05:55.625000
725,-40.08,2022-10-26 10:05:55.640625
726,-10.91,2022-10-26 10:05:55.656250
727,15.42,2022-10-26 10:05:55.671875
728,36.3,2022-10-26 10:05:55.687500
729,50.85,2022-10-26 10:05:55.703125
730,59.55,2022-10-26 10:05:55.718750
731,63.63,2022-10-26 10:05:55.734375
732,64.53,2022-10-26 10:05:55.750000
733,63.7,2022-10-26 10:05:55.765625
734,62.54,2022-10-26 10:05:55.781250
735,62.39,2022-10-26 10:05:55.796875
736,64.25,2022-10-26 10:05:55.812500
737,68.56,2022-10-26 10:05:55.828125
738,74.94,2022-10-26 10:05:55.843750
739,82.4,2022-10-26 10:05:55.859375
740,89.65,2022-10-26 10:05:55.875000
741,95.72,2022-10-26 10:05:55.890625
742,100.29,2022-10-26 10:05:55.906250
743,103.85,2022-10-26 10:05:55.921875
744,107.31,2022-10-26 10:05:55.937500
745,111.43,2022-10-26 10:05:55.953125
746,116.27,2022-10-26 10:05:55.968750
747,120.82,2022-10-26 10:05:55.984375
748,123.13,2022-10-26 10:05:56.000000
749,120.88,2022-10-26 10:05:56.015625
750,112.11,2022-10-26 10:05:56.031250
751,95.93,2022-10-26 10:05:56.046875
752,72.79,2022-10-26 10:05:56.062500
753,44.36,2022-10-26 10:05:56.078125
754,12.93,2022-10-26 10:05:56.093750
755,-19.17,2022-10-26 10:05:56.109375
756,-50.09,2022-10-26 10:05:56.125000
757,-78.59,2022-10-26 10:05:56.140625
758,-103.91,2022-10-26 10:05:56.156250
759,-125.38,2022-10-26 10:05:56.171875
760,-142.26,2022-10-26 10:05:56.187500
761,-153.61,2022-10-26 10:05:56.203125
762,-158.44,2022-10-26 10:05:56.218750
763,-156.14,2022-10-26 10:05:56.234375
764,-146.72,2022-10-26 10:05:56.250000
765,-131.09,2022-10-26 10:05:56.265625
766,-110.99,2022-10-26 10:05:56.281250
767,-88.64,2022-10-26 10:05:56.296875
768,-66.24,2022-10-26 10:05:56.312500
769,-45.61,2022-10-26 10:05:56.328125
770,-27.96,2022-10-26 10:05:56.343750
771,-14.02,2022-10-26 10:05:56.359375
772,-4.35,2022-10-26 10:05:56.375000
773,0.43,2022-10-26 10:05:56.390625
774,-0.29,2022-10-26 10:05:56.406250
775,-6.78,2022-10-26 10:05:56.421875
776,-18.5,2022-10-26 10:05:56.437500
777,-33.76,2022-10-26 10:05:56.453125
778,-49.95,2022-10-26 10:05:56.468750
779,-64.05,2022-10-26 10:05:56.484375
780,-73.59,2022-10-26 10:05:56.500000
781,-77.32,2022-10-26 10:05:56.515625
782,-75.48,2022-10-26 10:05:56.531250
783,-69.6,2022-10-26 10:05:56.546875
784,-61.77,2022-10-26 10:05:56.562500
785,-53.94,2022-10-26 10:05:56.578125
786,-47.4,2022-10-26 10:05:56.593750
787,-42.64,2022-10-26 10:05:56.609375
788,-39.54,2022-10-26 10:05:56.625000
789,-37.72,2022-10-26 10:05:56.640625
790,-36.87,2022-10-26 10:05:56.656250
791,-36.85,2022-10-26 10:05:56.671875
792,-37.7,2022-10-26 10:05:56.687500
793,-39.6,2022-10-26 10:05:56.703125
794,-42.9,2022-10-26 10:05:56.718750
795,-48.08,2022-10-26 10:05:56.734375
796,-55.59,2022-10-26 10:05:56.750000
797,-65.37,2022-10-26 10:05:56.765625
798,-76.44,2022-10-26 10:05:56.781250
799,-86.57,2022-10-26 10:05:56.796875
800,-92.63,2022-10-26 10:05:56.812500
801,-91.42,2022-10-26 10:05:56.828125
802,-80.82,2022-10-26 10:05:56.843750
803,-60.75,2022-10-26 10:05:56.859375
804,-33.37,2022-10-26 10:05:56.875000
805,-2.47,2022-10-26 10:05:56.890625
806,27.71,2022-10-26 10:05:56.906250
807,53.7,2022-10-26 10:05:56.921875
808,73.52,2022-10-26 10:05:56.937500
809,86.66,2022-10-26 10:05:56.953125
810,93.71,2022-10-26 10:05:56.968750
811,95.65,2022-10-26 10:05:56.984375
812,93.56,2022-10-26 10:05:57.000000
813,88.52,2022-10-26 10:05:57.015625
814,81.75,2022-10-26 10:05:57.031250
815,74.63,2022-10-26 10:05:57.046875
816,68.56,2022-10-26 10:05:57.062500
817,64.63,2022-10-26 10:05:57.078125
818,63.29,2022-10-26 10:05:57.093750
819,64.22,2022-10-26 10:05:57.109375
820,66.38,2022-10-26 10:05:57.125000
821,68.32,2022-10-26 10:05:57.140625
822,68.62,2022-10-26 10:05:57.156250
823,66.32,2022-10-26 10:05:57.171875
824,61.13,2022-10-26 10:05:57.187500
825,53.52,2022-10-26 10:05:57.203125
826,44.4,2022-10-26 10:05:57.218750
827,34.8,2022-10-26 10:05:57.234375
828,25.45,2022-10-26 10:05:57.250000
829,16.54,2022-10-26 10:05:57.265625
830,7.81,2022-10-26 10:05:57.281250
831,-1.2,2022-10-26 10:05:57.296875
832,-10.82,2022-10-26 10:05:57.312500
833,-21.1,2022-10-26 10:05:57.328125
834,-31.91,2022-10-26 10:05:57.343750
835,-42.91,2022-10-26 10:05:57.359375
836,-53.64,2022-10-26 10:05:57.375000
837,-63.29,2022-10-26 10:05:57.390625
838,-70.53,2022-10-26 10:05:57.406250
839,-73.63,2022-10-26 10:05:57.421875
840,-70.97,2022-10-26 10:05:57.437500
841,-61.72,2022-10-26 10:05:57.453125
842,-46.45,2022-10-26 10:05:57.468750
843,-27.1,2022-10-26 10:05:57.484375
844,-6.38,2022-10-26 10:05:57.500000
845,13.19,2022-10-26 10:05:57.515625
846,29.98,2022-10-26 10:05:57.531250
847,43.43,2022-10-26 10:05:57.546875
848,53.64,2022-10-26 10:05:57.562500
849,60.7,2022-10-26 10:05:57.578125
850,64.34,2022-10-26 10:05:57.593750
851,64.07,2022-10-26 10:05:57.609375
852,59.66,2022-10-26 10:05:57.625000
853,51.65,2022-10-26 10:05:57.640625
854,41.56,2022-10-26 10:05:57.656250
855,31.51,2022-10-26 10:05:57.671875
856,23.51,2022-10-26 10:05:57.687500
857,18.89,2022-10-26 10:05:57.703125
858,17.77,2022-10-26 10:05:57.718750
859,19.21,2022-10-26 10:05:57.734375
860,21.61,2022-10-26 10:05:57.750000
861,23.34,2022-10-26 10:05:57.765625
862,23.29,2022-10-26 10:05:57.781250
863,21.14,2022-10-26 10:05:57.796875
864,17.33,2022-10-26 10:05:57.812500
865,12.7,2022-10-26 10:05:57.828125
866,8.0,2022-10-26 10:05:57.843750
867,3.56,2022-10-26 10:05:57.859375
868,-0.86,2022-10-26 10:05:57.875000
869,-5.91,2022-10-26 10:05:57.890625
870,-12.35,2022-10-26 10:05:57.906250
871,-20.81,2022-10-26 10:05:57.921875
872,-31.57,2022-10-26 10:05:57.937500
873,-44.42,2022-10-26 10:05:57.953125
874,-58.58,2022-10-26 10:05:57.968750
875,-72.48,2022-10-26 10:05:57.984375
876,-83.92,2022-10-26 10:05:58.000000
877,-90.36,2022-10-26 10:05:58.015625
878,-89.66,2022-10-26 10:05:58.031250
879,-80.87,2022-10-26 10:05:58.046875
880,-64.67,2022-10-26 10:05:58.062500
881,-43.31,2022-10-26 10:05:58.078125
882,-19.96,2022-10-26 10:05:58.093750
883,2.28,2022-10-26 10:05:58.109375
884,21.05,2022-10-26 10:05:58.125000
885,35.15,2022-10-26 10:05:58.140625
886,44.25,2022-10-26 10:05:58.156250
887,48.57,2022-10-26 10:05:58.171875
888,48.51,2022-10-26 10:05:58.187500
889,44.64,2022-10-26 10:05:58.203125
890,37.89,2022-10-26 10:05:58.218750
891,29.71,2022-10-26 10:05:58.234375
892,21.97,2022-10-26 10:05:58.250000
893,16.53,2022-10-26 10:05:58.265625
894,14.65,2022-10-26 10:05:58.281250
895,16.39,2022-10-26 10:05:58.296875
896,20.5,2022-10-26 10:05:58.312500
897,24.84,2022-10-26 10:05:58.328125
898,27.08,2022-10-26 10:05:58.343750
899,25.75,2022-10-26 10:05:58.359375
900,20.73,2022-10-26 10:05:58.375000
901,13.31,2022-10-26 10:05:58.390625
902,5.57,2022-10-26 10:05:58.406250
903,-0.53,2022-10-26 10:05:58.421875
904,-3.89,2022-10-26 10:05:58.437500
905,-4.71,2022-10-26 10:05:58.453125
906,-4.3,2022-10-26 10:05:58.468750
907,-4.6,2022-10-26 10:05:58.484375
908,-7.52,2022-10-26 10:05:58.500000
909,-14.41,2022-10-26 10:05:58.515625
910,-25.67,2022-10-26 10:05:58.531250
911,-40.52,2022-10-26 10:05:58.546875
912,-57.05,2022-10-26 10:05:58.562500
913,-72.45,2022-10-26 10:05:58.578125
914,-83.6,2022-10-26 10:05:58.593750
915,-87.88,2022-10-26 10:05:58.609375
916,-83.93,2022-10-26 10:05:58.625000
917,-72.12,2022-10-26 10:05:58.640625
918,-54.41,2022-10-26 10:05:58.656250
919,-33.73,2022-10-26 10:05:58.671875
920,-13.04,2022-10-26 10:05:58.687500
921,5.43,2022-10-26 10:05:58.703125
922,20.48,2022-10-26 10:05:58.718750
923,31.66,2022-10-26 10:05:58.734375
924,38.77,2022-10-26 10:05:58.750000
925,41.59,2022-10-26 10:05:58.765625
926,39.86,2022-10-26 10:05:58.781250
927,33.75,2022-10-26 10:05:58.796875
928,24.23,2022-10-26 10:05:58.812500
929,13.18,2022-10-26 10:05:58.828125
930,2.93,2022-10-26 10:05:58.843750
931,-4.45,2022-10-26 10:05:58.859375
932,-7.97,2022-10-26 10:05:58.875000
933,-7.94,2022-10-26 10:05:58.890625
934,-5.82,2022-10-26 10:05:58.906250
935,-3.45,2022-10-26 10:05:58.921875
936,-2.34,2022-10-26 10:05:58.937500
937,-3.13,2022-10-26 10:05:58.953125
938,-5.54,2022-10-26 10:05:58.968750
939,-8.66,2022-10-26 10:05:58.984375
940,-11.47,2022-10-26 10:05:59.000000
941,-13.3,2022-10-26 10:05:59.015625
942,-14.02,2022-10-26 10:05:59.031250
943,-14.08,2022-10-26 10:05:59.046875
944,-14.3,2022-10-26 10:05:59.062500
945,-15.61,2022-10-26 10:05:59.078125
946,-18.71,2022-10-26 10:05:59.093750
947,-23.8,2022-10-26 10:05:59.109375
948,-30.21,2022-10-26 10:05:59.125000
949,-36.36,2022-10-26 10:05:59.140625
950,-39.98,2022-10-26 10:05:59.156250
951,-38.68,2022-10-26 10:05:59.171875
952,-30.76,2022-10-26 10:05:59.187500
953,-15.95,2022-10-26 10:05:59.203125
954,4.28,2022-10-26 10:05:59.218750
955,27.1,2022-10-26 10:05:59.234375
956,49.19,2022-10-26 10:05:59.250000
957,67.74,2022-10-26 10:05:59.265625
958,81.28,2022-10-26 10:05:59.281250
959,89.79,2022-10-26 10:05:59.296875
960,94.2,2022-10-26 10:05:59.312500
961,95.69,2022-10-26 10:05:59.328125
962,95.01,2022-10-26 10:05:59.343750
963,92.29,2022-10-26 10:05:59.359375
964,87.27,2022-10-26 10:05:59.375000
965,79.85,2022-10-26 10:05:59.390625
966,70.5,2022-10-26 10:05:59.406250
967,60.27,2022-10-26 10:05:59.421875
968,50.51,2022-10-26 10:05:59.437500
969,42.29,2022-10-26 10:05:59.453125
970,35.96,2022-10-26 10:05:59.468750
971,31.08,2022-10-26 10:05:59.484375
972,26.65,2022-10-26 10:05:59.500000
973,21.66,2022-10-26 10:05:59.515625
974,15.52,2022-10-26 10:05:59.531250
975,8.27,2022-10-26 10:05:59.546875
976,0.47,2022-10-26 10:05:59.562500
977,-7.14,2022-10-26 10:05:59.578125
978,-14.08,2022-10-26 10:05:59.593750
979,-20.3,2022-10-26 10:05:59.609375
980,-26.26,2022-10-26 10:05:59.625000
981,-32.7,2022-10-26 10:05:59.640625
982,-40.36,2022-10-26 10:05:59.656250
983,-49.76,2022-10-26 10:05:59.671875
984,-60.98,2022-10-26 10:05:59.687500
985,-73.52,2022-10-26 10:05:59.703125
986,-86.23,2022-10-26 10:05:59.718750
987,-97.32,2022-10-26 10:05:59.734375
988,-104.58,2022-10-26 10:05:59.750000
989,-105.92,2022-10-26 10:05:59.765625
990,-99.9,2022-10-26 10:05:59.781250
991,-86.29,2022-10-26 10:05:59.796875
992,-66.33,2022-10-26 10:05:59.812500
993,-42.36,2022-10-26 10:05:59.828125
994,-17.28,2022-10-26 10:05:59.843750
995,6.3,2022-10-26 10:05:59.859375
996,26.59,2022-10-26 10:05:59.875000
997,42.82,2022-10-26 10:05:59.890625
998,54.96,2022-10-26 10:05:59.906250
999,63.23,2022-10-26 10:05:59.921875
1000,67.8,2022-10-26 10:05:59.937500
1001,68.7,2022-10-26 10:05:59.953125
1002,66.11,2022-10-26 10:05:59.968750
1003,60.59,2022-10-26 10:05:59.984375
1004,53.37,2022-10-26 10:06:00.000000
1005,46.06,2022-10-26 10:06:00.015625
1006,40.23,2022-10-26 10:06:00.031250
1007,36.9,2022-10-26 10:06:00.046875
1008,36.09,2022-10-26 10:06:00.062500
1009,36.91,2022-10-26 10:06:00.078125
1010,37.88,2022-10-26 10:06:00.093750
1011,37.62,2022-10-26 10:06:00.109375
1012,35.31,2022-10-26 10:06:00.125000
1013,31.04,2022-10-26 10:06:00.140625
1014,25.49,2022-10-26 10:06:00.156250
1015,19.54,2022-10-26 10:06:00.171875
1016,13.73,2022-10-26 10:06:00.187500
1017,8.0,2022-10-26 10:06:00.203125
1018,1.83,2022-10-26 10:06:00.218750
1019,-5.46,2022-10-26 10:06:00.234375
1020,-14.39,2022-10-26 10:06:00.250000
1021,-25.12,2022-10-26 10:06:00.265625
1022,-37.44,2022-10-26 10:06:00.281250
1023,-50.76,2022-10-26 10:06:00.296875
1024,-64.09,2022-10-26 10:06:00.312500
1025,-75.93,2022-10-26 10:06:00.328125
1026,-84.31,2022-10-26 10:06:00.343750
1027,-87.2,2022-10-26 10:06:00.359375
1028,-83.16,2022-10-26 10:06:00.375000
1029,-71.98,2022-10-26 10:06:00.390625
1030,-54.99,2022-10-26 10:06:00.406250
1031,-34.79,2022-10-26 10:06:00.421875
1032,-14.37,2022-10-26 10:06:00.437500
1033,3.81,2022-10-26 10:06:00.453125
1034,18.41,2022-10-26 10:06:00.468750
1035,29.16,2022-10-26 10:06:00.484375
1036,36.5,2022-10-26 10:06:00.500000
1037,40.87,2022-10-26 10:06:00.515625
1038,42.46,2022-10-26 10:06:00.531250
1039,41.26,2022-10-26 10:06:00.546875
1040,37.34,2022-10-26 10:06:00.562500
1041,31.27,2022-10-26 10:06:00.578125
1042,24.14,2022-10-26 10:06:00.593750
1043,17.34,2022-10-26 10:06:00.609375
1044,12.13,2022-10-26 10:06:00.625000
1045,9.28,2022-10-26 10:06:00.640625
1046,8.79,2022-10-26 10:06:00.656250
1047,9.99,2022-10-26 10:06:00.671875
1048,11.84,2022-10-26 10:06:00.687500
1049,13.32,2022-10-26 10:06:00.703125
1050,13.74,2022-10-26 10:06:00.718750
1051,12.92,2022-10-26 10:06:00.734375
1052,11.05,2022-10-26 10:06:00.750000
1053,8.56,2022-10-26 10:06:00.765625
1054,5.71,2022-10-26 10:06:00.781250
1055,2.53,2022-10-26 10:06:00.796875
1056,-1.27,2022-10-26 10:06:00.812500
1057,-6.1,2022-10-26 10:06:00.828125
1058,-12.3,2022-10-26 10:06:00.843750
1059,-20.05,2022-10-26 10:06:00.859375
1060,-29.26,2022-10-26 10:06:00.875000
1061,-39.6,2022-10-26 10:06:00.890625
1062,-50.44,2022-10-26 10:06:00.906250
1063,-60.72,2022-10-26 10:06:00.921875
1064,-68.84,2022-10-26 10:06:00.937500
1065,-72.91,2022-10-26 10:06:00.953125
1066,-71.14,2022-10-26 10:06:00.968750
1067,-62.5,2022-10-26 10:06:00.984375
1068,-47.3,2022-10-26 10:06:01.000000
1069,-27.28,2022-10-26 10:06:01.015625
1070,-5.27,2022-10-26 10:06:01.031250
1071,15.72,2022-10-26 10:06:01.046875
1072,33.29,2022-10-26 10:06:01.062500
1073,46.15,2022-10-26 10:06:01.078125
1074,54.17,2022-10-26 10:06:01.093750
1075,57.95,2022-10-26 10:06:01.109375
1076,58.35,2022-10-26 10:06:01.125000
1077,56.12,2022-10-26 10:06:01.140625
1078,51.88,2022-10-26 10:06:01.156250
1079,46.2,2022-10-26 10:06:01.171875
1080,39.76,2022-10-26 10:06:01.187500
1081,33.35,2022-10-26 10:06:01.203125
1082,27.75,2022-10-26 10:06:01.218750
1083,23.58,2022-10-26 10:06:01.234375
1084,21.07,2022-10-26 10:06:01.250000
1085,20.09,2022-10-26 10:06:01.265625
1086,20.13,2022-10-26 10:06:01.281250
1087,20.5,2022-10-26 10:06:01.296875
1088,20.5,2022-10-26 10:06:01.312500
1089,19.59,2022-10-26 10:06:01.328125
1090,17.46,2022-10-26 10:06:01.343750
1091,14.1,2022-10-26 10:06:01.359375
1092,9.66,2022-10-26 10:06:01.375000
1093,4.45,2022-10-26 10:06:01.390625
1094,-1.22,2022-10-26 10:06:01.406250
1095,-7.12,2022-10-26 10:06:01.421875
1096,-13.15,2022-10-26 10:06:01.437500
1097,-19.34,2022-10-26 10:06:01.453125
1098,-25.87,2022-10-26 10:06:01.468750
1099,-33.0,2022-10-26 10:06:01.484375
1100,-41.01,2022-10-26 10:06:01.500000
1101,-50.13,2022-10-26 10:06:01.515625
1102,-60.35,2022-10-26 10:06:01.531250
1103,-71.1,2022-10-26 10:06:01.546875
1104,-81.13,2022-10-26 10:06:01.562500
1105,-88.45,2022-10-26 10:06:01.578125
1106,-90.85,2022-10-26 10:06:01.593750
1107,-86.47,2022-10-26 10:06:01.609375
1108,-74.62,2022-10-26 10:06:01.625000
1109,-56.2,2022-10-26 10:06:01.640625
1110,-33.56,2022-10-26 10:06:01.656250
1111,-9.92,2022-10-26 10:06:01.671875
1112,11.71,2022-10-26 10:06:01.687500
1113,29.21,2022-10-26 10:06:01.703125
1114,41.85,2022-10-26 10:06:01.718750
1115,49.93,2022-10-26 10:06:01.734375
1116,54.26,2022-10-26 10:06:01.750000
1117,55.63,2022-10-26 10:06:01.765625
1118,54.56,2022-10-26 10:06:01.781250
1119,51.41,2022-10-26 10:06:01.796875
1120,46.66,2022-10-26 10:06:01.812500
1121,41.17,2022-10-26 10:06:01.828125
1122,35.92,2022-10-26 10:06:01.843750
1123,31.85,2022-10-26 10:06:01.859375
1124,29.41,2022-10-26 10:06:01.875000
1125,28.46,2022-10-26 10:06:01.890625
1126,28.35,2022-10-26 10:06:01.906250
1127,28.38,2022-10-26 10:06:01.921875
1128,28.11,2022-10-26 10:06:01.937500
1129,27.43,2022-10-26 10:06:01.953125
1130,26.43,2022-10-26 10:06:01.968750
1131,25.07,2022-10-26 10:06:01.984375
1132,22.98,2022-10-26 10:06:02.000000
1133,19.57,2022-10-26 10:06:02.015625
1134,14.34,2022-10-26 10:06:02.031250
1135,7.22,2022-10-26 10:06:02.046875
1136,-1.23,2022-10-26 10:06:02.062500
1137,-10.07,2022-10-26 10:06:02.078125
1138,-18.28,2022-10-26 10:06:02.093750
1139,-25.25,2022-10-26 10:06:02.109375
1140,-30.97,2022-10-26 10:06:02.125000
1141,-36.08,2022-10-26 10:06:02.140625
1142,-41.53,2022-10-26 10:06:02.156250
1143,-48.3,2022-10-26 10:06:02.171875
1144,-56.96,2022-10-26 10:06:02.187500
1145,-67.36,2022-10-26 10:06:02.203125
1146,-78.38,2022-10-26 10:06:02.218750
1147,-88.01,2022-10-26 10:06:02.234375
1148,-93.69,2022-10-26 10:06:02.250000
1149,-93.07,2022-10-26 10:06:02.265625
1150,-84.86,2022-10-26 10:06:02.281250
1151,-69.34,2022-10-26 10:06:02.296875
1152,-48.51,2022-10-26 10:06:02.312500
1153,-25.42,2022-10-26 10:06:02.328125
1154,-3.2,2022-10-26 10:06:02.343750
1155,15.85,2022-10-26 10:06:02.359375
1156,30.74,2022-10-26 10:06:02.375000
1157,41.57,2022-10-26 10:06:02.390625
1158,48.99,2022-10-26 10:06:02.406250
1159,53.58,2022-10-26 10:06:02.421875
1160,55.53,2022-10-26 10:06:02.437500
1161,54.85,2022-10-26 10:06:02.453125
1162,51.67,2022-10-26 10:06:02.468750
1163,46.63,2022-10-26 10:06:02.484375
1164,40.93,2022-10-26 10:06:02.500000
1165,35.97,2022-10-26 10:06:02.515625
1166,32.91,2022-10-26 10:06:02.531250
1167,32.19,2022-10-26 10:06:02.546875
1168,33.4,2022-10-26 10:06:02.562500
1169,35.46,2022-10-26 10:06:02.578125
1170,37.14,2022-10-26 10:06:02.593750
1171,37.5,2022-10-26 10:06:02.609375
1172,36.25,2022-10-26 10:06:02.625000
1173,33.68,2022-10-26 10:06:02.640625
1174,30.41,2022-10-26 10:06:02.656250
1175,27.04,2022-10-26 10:06:02.671875
1176,23.79,2022-10-26 10:06:02.687500
1177,20.43,2022-10-26 10:06:02.703125
1178,16.45,2022-10-26 10:06:02.718750
1179,11.37,2022-10-26 10:06:02.734375
1180,4.93,2022-10-26 10:06:02.750000
1181,-2.64,2022-10-26 10:06:02.765625
1182,-10.72,2022-10-26 10:06:02.781250
1183,-18.52,2022-10-26 10:06:02.796875
1184,-25.36,2022-10-26 10:06:02.812500
1185,-30.99,2022-10-26 10:06:02.828125
1186,-35.67,2022-10-26 10:06:02.843750
1187,-40.03,2022-10-26 10:06:02.859375
1188,-44.87,2022-10-26 10:06:02.875000
1189,-50.86,2022-10-26 10:06:02.890625
1190,-58.34,2022-10-26 10:06:02.906250
1191,-67.33,2022-10-26 10:06:02.921875
1192,-77.4,2022-10-26 10:06:02.937500
1193,-87.63,2022-10-26 10:06:02.953125
1194,-96.49,2022-10-26 10:06:02.968750
1195,-101.93,2022-10-26 10:06:02.984375
1196,-101.77,2022-10-26 10:06:03.000000
1197,-94.43,2022-10-26 10:06:03.015625
1198,-79.64,2022-10-26 10:06:03.031250
1199,-58.75,2022-10-26 10:06:03.046875
1200,-34.52,2022-10-26 10:06:03.062500
1201,-10.22,2022-10-26 10:06:03.078125
1202,11.33,2022-10-26 10:06:03.093750
1203,28.55,2022-10-26 10:06:03.109375
1204,41.14,2022-10-26 10:06:03.125000
1205,49.65,2022-10-26 10:06:03.140625
1206,54.86,2022-10-26 10:06:03.156250
1207,57.28,2022-10-26 10:06:03.171875
1208,57.17,2022-10-26 10:06:03.187500
1209,54.76,2022-10-26 10:06:03.203125
1210,50.6,2022-10-26 10:06:03.218750
1211,45.67,2022-10-26 10:06:03.234375
1212,41.07,2022-10-26 10:06:03.250000
1213,37.76,2022-10-26 10:06:03.265625
1214,36.18,2022-10-26 10:06:03.281250
1215,36.16,2022-10-26 10:06:03.296875
1216,37.18,2022-10-26 10:06:03.312500
1217,38.58,2022-10-26 10:06:03.328125
1218,39.91,2022-10-26 10:06:03.343750
1219,40.98,2022-10-26 10:06:03.359375
1220,41.7,2022-10-26 10:06:03.375000
1221,41.96,2022-10-26 10:06:03.390625
1222,41.42,2022-10-26 10:06:03.406250
1223,39.64,2022-10-26 10:06:03.421875
1224,36.23,2022-10-26 10:06:03.437500
1225,31.16,2022-10-26 10:06:03.453125
1226,24.83,2022-10-26 10:06:03.468750
1227,17.97,2022-10-26 10:06:03.484375
1228,11.39,2022-10-26 10:06:03.500000
1229,5.57,2022-10-26 10:06:03.515625
1230,0.51,2022-10-26 10:06:03.531250
1231,-4.21,2022-10-26 10:06:03.546875
1232,-9.15,2022-10-26 10:06:03.562500
1233,-14.72,2022-10-26 10:06:03.578125
1234,-20.91,2022-10-26 10:06:03.593750
1235,-27.32,2022-10-26 10:06:03.609375
1236,-33.35,2022-10-26 10:06:03.625000
1237,-38.54,2022-10-26 10:06:03.640625
1238,-42.76,2022-10-26 10:06:03.656250
1239,-46.36,2022-10-26 10:06:03.671875
1240,-50.09,2022-10-26 10:06:03.687500
1241,-54.88,2022-10-26 10:06:03.703125
1242,-61.58,2022-10-26 10:06:03.718750
1243,-70.63,2022-10-26 10:06:03.734375
1244,-81.73,2022-10-26 10:06:03.750000
1245,-93.62,2022-10-26 10:06:03.765625
1246,-104.05,2022-10-26 10:06:03.781250
1247,-110.21,2022-10-26 10:06:03.796875
1248,-109.47,2022-10-26 10:06:03.812500
1249,-100.3,2022-10-26 10:06:03.828125
1250,-82.93,2022-10-26 10:06:03.843750
1251,-59.39,2022-10-26 10:06:03.859375
1252,-32.99,2022-10-26 10:06:03.875000
1253,-7.24,2022-10-26 10:06:03.890625
1254,15.13,2022-10-26 10:06:03.906250
1255,32.71,2022-10-26 10:06:03.921875
1256,45.42,2022-10-26 10:06:03.937500
1257,53.91,2022-10-26 10:06:03.953125
1258,58.95,2022-10-26 10:06:03.968750
1259,61.09,2022-10-26 10:06:03.984375
1260,60.65,2022-10-26 10:06:04.000000
1261,57.99,2022-10-26 10:06:04.015625
1262,53.75,2022-10-26 10:06:04.031250
1263,48.91,2022-10-26 10:06:04.046875
1264,44.62,2022-10-26 10:06:04.062500
1265,41.84,2022-10-26 10:06:04.078125
1266,40.98,2022-10-26 10:06:04.093750
1267,41.84,2022-10-26 10:06:04.109375
1268,43.67,2022-10-26 10:06:04.125000
1269,45.59,2022-10-26 10:06:04.140625
1270,46.88,2022-10-26 10:06:04.156250
1271,47.29,2022-10-26 10:06:04.171875
1272,46.93,2022-10-26 10:06:04.187500
1273,46.05,2022-10-26 10:06:04.203125
1274,44.81,2022-10-26 10:06:04.218750
1275,43.01,2022-10-26 10:06:04.234375
1276,40.21,2022-10-26 10:06:04.250000
1277,35.94,2022-10-26 10:06:04.265625
1278,30.05,2022-10-26 10:06:04.281250
1279,22.87,2022-10-26 10:06:04.296875
1280,15.18,2022-10-26 10:06:04.312500
1281,7.89,2022-10-26 10:06:04.328125
1282,1.62,2022-10-26 10:06:04.343750
1283,-3.57,2022-10-26 10:06:04.359375
1284,-8.2,2022-10-26 10:06:04.375000
1285,-13.11,2022-10-26 10:06:04.390625
1286,-18.94,2022-10-26 10:06:04.406250
1287,-25.78,2022-10-26 10:06:04.421875
1288,-33.08,2022-10-26 10:06:04.437500
1289,-39.89,2022-10-26 10:06:04.453125
1290,-45.35,2022-10-26 10:06:04.468750
1291,-49.14,2022-10-26 10:06:04.484375
1292,-51.62,2022-10-26 10:06:04.500000
1293,-53.81,2022-10-26 10:06:04.515625
1294,-56.96,2022-10-26 10:06:04.531250
1295,-62.19,2022-10-26 10:06:04.546875
1296,-70.12,2022-10-26 10:06:04.562500
1297,-80.58,2022-10-26 10:06:04.578125
1298,-92.46,2022-10-26 10:06:04.593750
1299,-103.67,2022-10-26 10:06:04.609375
1300,-111.5,2022-10-26 10:06:04.625000
1301,-113.15,2022-10-26 10:06:04.640625
1302,-106.65,2022-10-26 10:06:04.656250
1303,-91.57,2022-10-26 10:06:04.671875
1304,-69.36,2022-10-26 10:06:04.687500
1305,-42.96,2022-10-26 10:06:04.703125
1306,-15.89,2022-10-26 10:06:04.718750
1307,8.72,2022-10-26 10:06:04.734375
1308,28.97,2022-10-26 10:06:04.750000
1309,44.25,2022-10-26 10:06:04.765625
1310,54.9,2022-10-26 10:06:04.781250
1311,61.6,2022-10-26 10:06:04.796875
1312,64.87,2022-10-26 10:06:04.812500
1313,65.0,2022-10-26 10:06:04.828125
1314,62.27,2022-10-26 10:06:04.843750
1315,57.31,2022-10-26 10:06:04.859375
1316,51.21,2022-10-26 10:06:04.875000
1317,45.43,2022-10-26 10:06:04.890625
1318,41.32,2022-10-26 10:06:04.906250
1319,39.71,2022-10-26 10:06:04.921875
1320,40.56,2022-10-26 10:06:04.937500
1321,43.1,2022-10-26 10:06:04.953125
1322,46.12,2022-10-26 10:06:04.968750
1323,48.54,2022-10-26 10:06:04.984375
1324,49.78,2022-10-26 10:06:05.000000
1325,49.86,2022-10-26 10:06:05.015625
1326,49.21,2022-10-26 10:06:05.031250
1327,48.24,2022-10-26 10:06:05.046875
1328,46.97,2022-10-26 10:06:05.062500
1329,44.98,2022-10-26 10:06:05.078125
1330,41.61,2022-10-26 10:06:05.093750
1331,36.38,2022-10-26 10:06:05.109375
1332,29.28,2022-10-26 10:06:05.125000
1333,20.96,2022-10-26 10:06:05.140625
1334,12.41,2022-10-26 10:06:05.156250
1335,4.63,2022-10-26 10:06:05.171875
1336,-1.75,2022-10-26 10:06:05.187500
1337,-6.73,2022-10-26 10:06:05.203125
1338,-10.87,2022-10-26 10:06:05.218750
1339,-15.05,2022-10-26 10:06:05.234375
1340,-20.05,2022-10-26 10:06:05.250000
1341,-26.28,2022-10-26 10:06:05.265625
1342,-33.51,2022-10-26 10:06:05.281250
1343,-41.05,2022-10-26 10:06:05.296875
1344,-47.95,2022-10-26 10:06:05.312500
1345,-53.47,2022-10-26 10:06:05.328125
1346,-57.39,2022-10-26 10:06:05.343750
1347,-60.15,2022-10-26 10:06:05.359375
1348,-62.75,2022-10-26 10:06:05.375000
1349,-66.39,2022-10-26 10:06:05.390625
1350,-72.12,2022-10-26 10:06:05.406250
1351,-80.52,2022-10-26 10:06:05.421875
1352,-91.43,2022-10-26 10:06:05.437500
1353,-103.77,2022-10-26 10:06:05.453125
1354,-115.47,2022-10-26 10:06:05.468750
1355,-123.7,2022-10-26 10:06:05.484375
1356,-125.48,2022-10-26 10:06:05.500000
1357,-118.55,2022-10-26 10:06:05.515625
1358,-102.31,2022-10-26 10:06:05.531250
1359,-78.18,2022-10-26 10:06:05.546875
1360,-49.33,2022-10-26 10:06:05.562500
1361,-19.72,2022-10-26 10:06:05.578125
1362,7.14,2022-10-26 10:06:05.593750
1363,29.06,2022-10-26 10:06:05.609375
1364,45.44,2022-10-26 10:06:05.625000
1365,56.86,2022-10-26 10:06:05.640625
1366,64.29,2022-10-26 10:06:05.656250
1367,68.48,2022-10-26 10:06:05.671875
1368,69.81,2022-10-26 10:06:05.687500
1369,68.46,2022-10-26 10:06:05.703125
1370,64.8,2022-10-26 10:06:05.718750
1371,59.65,2022-10-26 10:06:05.734375
1372,54.24,2022-10-26 10:06:05.750000
1373,49.82,2022-10-26 10:06:05.765625
1374,47.28,2022-10-26 10:06:05.781250
1375,46.87,2022-10-26 10:06:05.796875
1376,48.17,2022-10-26 10:06:05.812500
1377,50.36,2022-10-26 10:06:05.828125
1378,52.63,2022-10-26 10:06:05.843750
1379,54.4,2022-10-26 10:06:05.859375
1380,55.5,2022-10-26 10:06:05.875000
1381,55.98,2022-10-26 10:06:05.890625
1382,55.92,2022-10-26 10:06:05.906250
1383,55.24,2022-10-26 10:06:05.921875
1384,53.64,2022-10-26 10:06:05.937500
1385,50.73,2022-10-26 10:06:05.953125
1386,46.19,2022-10-26 10:06:05.968750
1387,39.96,2022-10-26 10:06:05.984375
1388,32.3,2022-10-26 10:06:06.000000
1389,23.81,2022-10-26 10:06:06.015625
1390,15.29,2022-10-26 10:06:06.031250
1391,7.52,2022-10-26 10:06:06.046875
1392,1.07,2022-10-26 10:06:06.062500
1393,-3.97,2022-10-26 10:06:06.078125
1394,-7.99,2022-10-26 10:06:06.093750
1395,-11.81,2022-10-26 10:06:06.109375
1396,-16.29,2022-10-26 10:06:06.125000
1397,-22.03,2022-10-26 10:06:06.140625
1398,-29.05,2022-10-26 10:06:06.156250
1399,-36.76,2022-10-26 10:06:06.171875
1400,-44.25,2022-10-26 10:06:06.187500
1401,-50.67,2022-10-26 10:06:06.203125
1402,-55.61,2022-10-26 10:06:06.218750
1403,-59.31,2022-10-26 10:06:06.234375
1404,-62.57,2022-10-26 10:06:06.250000
1405,-66.45,2022-10-26 10:06:06.265625
1406,-71.97,2022-10-26 10:06:06.281250
1407,-79.83,2022-10-26 10:06:06.296875
1408,-90.2,2022-10-26 10:06:06.312500
1409,-102.48,2022-10-26 10:06:06.328125
1410,-115.09,2022-10-26 10:06:06.343750
1411,-125.54,2022-10-26 10:06:06.359375
1412,-130.82,2022-10-26 10:06:06.375000
1413,-128.18,2022-10-26 10:06:06.390625
1414,-116.12,2022-10-26 10:06:06.406250
1415,-95.09,2022-10-26 10:06:06.421875
1416,-67.53,2022-10-26 10:06:06.437500
1417,-37.17,2022-10-26 10:06:06.453125
1418,-7.89,2022-10-26 10:06:06.468750
1419,17.36,2022-10-26 10:06:06.484375
1420,37.23,2022-10-26 10:06:06.500000
1421,51.74,2022-10-26 10:06:06.515625
1422,61.63,2022-10-26 10:06:06.531250
1423,67.72,2022-10-26 10:06:06.546875
1424,70.54,2022-10-26 10:06:06.562500
1425,70.38,2022-10-26 10:06:06.578125
1426,67.64,2022-10-26 10:06:06.593750
1427,63.11,2022-10-26 10:06:06.609375
1428,57.93,2022-10-26 10:06:06.625000
1429,53.31,2022-10-26 10:06:06.640625
1430,50.19,2022-10-26 10:06:06.656250
1431,48.92,2022-10-26 10:06:06.671875
1432,49.27,2022-10-26 10:06:06.687500
1433,50.64,2022-10-26 10:06:06.703125
1434,52.36,2022-10-26 10:06:06.718750
1435,53.92,2022-10-26 10:06:06.734375
1436,55.05,2022-10-26 10:06:06.750000
1437,55.66,2022-10-26 10:06:06.765625
1438,55.69,2022-10-26 10:06:06.781250
1439,54.94,2022-10-26 10:06:06.796875
1440,53.06,2022-10-26 10:06:06.812500
1441,49.67,2022-10-26 10:06:06.828125
1442,44.53,2022-10-26 10:06:06.843750
1443,37.73,2022-10-26 10:06:06.859375
1444,29.81,2022-10-26 10:06:06.875000
1445,21.62,2022-10-26 10:06:06.890625
1446,14.05,2022-10-26 10:06:06.906250
1447,7.65,2022-10-26 10:06:06.921875
1448,2.37,2022-10-26 10:06:06.937500
1449,-2.43,2022-10-26 10:06:06.953125
1450,-7.68,2022-10-26 10:06:06.968750
1451,-14.09,2022-10-26 10:06:06.984375
1452,-21.71,2022-10-26 10:06:07.000000
1453,-29.86,2022-10-26 10:06:07.015625
1454,-37.48,2022-10-26 10:06:07.031250
1455,-43.64,2022-10-26 10:06:07.046875
1456,-48.09,2022-10-26 10:06:07.062500
1457,-51.34,2022-10-26 10:06:07.078125
1458,-54.54,2022-10-26 10:06:07.093750
1459,-59.03,2022-10-26 10:06:07.109375
1460,-65.88,2022-10-26 10:06:07.125000
1461,-75.56,2022-10-26 10:06:07.140625
1462,-87.74,2022-10-26 10:06:07.156250
1463,-101.06,2022-10-26 10:06:07.171875
1464,-113.18,2022-10-26 10:06:07.187500
1465,-121.04,2022-10-26 10:06:07.203125
1466,-121.63,2022-10-26 10:06:07.218750
1467,-112.94,2022-10-26 10:06:07.234375
1468,-94.83,2022-10-26 10:06:07.250000
1469,-69.31,2022-10-26 10:06:07.265625
1470,-39.96,2022-10-26 10:06:07.281250
1471,-10.78,2022-10-26 10:06:07.296875
1472,15.0,2022-10-26 10:06:07.312500
1473,35.64,2022-10-26 10:06:07.328125
1474,50.86,2022-10-26 10:06:07.343750
1475,61.22,2022-10-26 10:06:07.359375
1476,67.49,2022-10-26 10:06:07.375000
1477,70.22,2022-10-26 10:06:07.390625
1478,69.79,2022-10-26 10:06:07.406250
1479,66.68,2022-10-26 10:06:07.421875
1480,61.71,2022-10-26 10:06:07.437500
1481,56.02,2022-10-26 10:06:07.453125
1482,50.84,2022-10-26 10:06:07.468750
1483,47.17,2022-10-26 10:06:07.484375
1484,45.53,2022-10-26 10:06:07.500000
1485,45.89,2022-10-26 10:06:07.515625
1486,47.76,2022-10-26 10:06:07.531250
1487,50.4,2022-10-26 10:06:07.546875
1488,53.12,2022-10-26 10:06:07.562500
1489,55.4,2022-10-26 10:06:07.578125
1490,57.01,2022-10-26 10:06:07.593750
1491,57.86,2022-10-26 10:06:07.609375
1492,57.84,2022-10-26 10:06:07.625000
1493,56.68,2022-10-26 10:06:07.640625
1494,53.95,2022-10-26 10:06:07.656250
1495,49.32,2022-10-26 10:06:07.671875
1496,42.86,2022-10-26 10:06:07.687500
1497,35.24,2022-10-26 10:06:07.703125
1498,27.73,2022-10-26 10:06:07.718750
1499,21.73,2022-10-26 10:06:07.734375
1500,18.24,2022-10-26 10:06:07.750000
1501,17.38,2022-10-26 10:06:07.765625
1502,18.31,2022-10-26 10:06:07.781250
1503,19.55,2022-10-26 10:06:07.796875
1504,19.59,2022-10-26 10:06:07.812500
1505,17.56,2022-10-26 10:06:07.828125
1506,13.42,2022-10-26 10:06:07.843750
1507,7.94,2022-10-26 10:06:07.859375
1508,2.19,2022-10-26 10:06:07.875000
1509,-3.0,2022-10-26 10:06:07.890625
1510,-7.4,2022-10-26 10:06:07.906250
1511,-11.41,2022-10-26 10:06:07.921875
1512,-15.77,2022-10-26 10:06:07.937500
1513,-21.15,2022-10-26 10:06:07.953125
1514,-27.74,2022-10-26 10:06:07.968750
1515,-35.19,2022-10-26 10:06:07.984375
1516,-42.7,2022-10-26 10:06:08.000000
1517,-49.42,2022-10-26 10:06:08.015625
1518,-54.81,2022-10-26 10:06:08.031250
1519,-58.92,2022-10-26 10:06:08.046875
1520,-62.33,2022-10-26 10:06:08.062500
1521,-66.0,2022-10-26 10:06:08.078125
1522,-70.92,2022-10-26 10:06:08.093750
1523,-77.87,2022-10-26 10:06:08.109375
1524,-87.15,2022-10-26 10:06:08.125000
1525,-98.41,2022-10-26 10:06:08.140625
1526,-110.42,2022-10-26 10:06:08.156250
1527,-120.99,2022-10-26 10:06:08.171875
1528,-127.32,2022-10-26 10:06:08.187500
1529,-126.63,2022-10-26 10:06:08.203125
1530,-117.12,2022-10-26 10:06:08.218750
1531,-98.71,2022-10-26 10:06:08.234375
1532,-73.3,2022-10-26 10:06:08.250000
1533,-44.25,2022-10-26 10:06:08.265625
1534,-15.37,2022-10-26 10:06:08.281250
1535,10.24,2022-10-26 10:06:08.296875
1536,30.85,2022-10-26 10:06:08.312500
1537,46.16,2022-10-26 10:06:08.328125
1538,56.77,2022-10-26 10:06:08.343750
1539,63.5,2022-10-26 10:06:08.359375
1540,66.85,2022-10-26 10:06:08.375000
1541,67.05,2022-10-26 10:06:08.390625
1542,64.27,2022-10-26 10:06:08.406250
1543,59.01,2022-10-26 10:06:08.421875
1544,52.29,2022-10-26 10:06:08.437500
1545,45.49,2022-10-26 10:06:08.453125
1546,40.04,2022-10-26 10:06:08.468750
1547,36.95,2022-10-26 10:06:08.484375
1548,36.52,2022-10-26 10:06:08.500000
1549,38.25,2022-10-26 10:06:08.515625
1550,41.13,2022-10-26 10:06:08.531250
1551,43.96,2022-10-26 10:06:08.546875
1552,45.85,2022-10-26 10:06:08.562500
1553,46.34,2022-10-26 10:06:08.578125
1554,45.47,2022-10-26 10:06:08.593750
1555,43.53,2022-10-26 10:06:08.609375
1556,40.77,2022-10-26 10:06:08.625000
1557,37.26,2022-10-26 10:06:08.640625
1558,32.8,2022-10-26 10:06:08.656250
1559,27.07,2022-10-26 10:06:08.671875
1560,19.89,2022-10-26 10:06:08.687500
1561,11.37,2022-10-26 10:06:08.703125
1562,2.0,2022-10-26 10:06:08.718750
1563,-7.46,2022-10-26 10:06:08.734375
1564,-16.25,2022-10-26 10:06:08.750000
1565,-23.82,2022-10-26 10:06:08.765625
1566,-30.11,2022-10-26 10:06:08.781250
1567,-35.56,2022-10-26 10:06:08.796875
1568,-40.9,2022-10-26 10:06:08.812500
1569,-47.04,2022-10-26 10:06:08.828125
1570,-54.69,2022-10-26 10:06:08.843750
1571,-64.21,2022-10-26 10:06:08.859375
1572,-75.5,2022-10-26 10:06:08.875000
1573,-87.9,2022-10-26 10:06:08.890625
1574,-100.05,2022-10-26 10:06:08.906250
1575,-109.93,2022-10-26 10:06:08.921875
1576,-115.08,2022-10-26 10:06:08.937500
1577,-113.17,2022-10-26 10:06:08.953125
1578,-102.8,2022-10-26 10:06:08.968750
1579,-84.16,2022-10-26 10:06:08.984375
1580,-59.24,2022-10-26 10:06:09.000000
1581,-31.37,2022-10-26 10:06:09.015625
1582,-4.17,2022-10-26 10:06:09.031250
1583,19.44,2022-10-26 10:06:09.046875
1584,38.0,2022-10-26 10:06:09.062500
1585,51.45,2022-10-26 10:06:09.078125
1586,60.61,2022-10-26 10:06:09.093750
1587,66.42,2022-10-26 10:06:09.109375
1588,69.49,2022-10-26 10:06:09.125000
1589,70.01,2022-10-26 10:06:09.140625
1590,68.1,2022-10-26 10:06:09.156250
1591,64.2,2022-10-26 10:06:09.171875
1592,59.18,2022-10-26 10:06:09.187500
1593,54.2,2022-10-26 10:06:09.203125
1594,50.38,2022-10-26 10:06:09.218750
1595,48.38,2022-10-26 10:06:09.234375
1596,48.23,2022-10-26 10:06:09.250000
1597,49.45,2022-10-26 10:06:09.265625
1598,51.31,2022-10-26 10:06:09.281250
1599,53.07,2022-10-26 10:06:09.296875
1600,54.25,2022-10-26 10:06:09.312500
1601,54.56,2022-10-26 10:06:09.328125
1602,53.88,2022-10-26 10:06:09.343750
1603,52.07,2022-10-26 10:06:09.359375
1604,48.99,2022-10-26 10:06:09.375000
1605,44.53,2022-10-26 10:06:09.390625
1606,38.77,2022-10-26 10:06:09.406250
1607,31.98,2022-10-26 10:06:09.421875
1608,24.62,2022-10-26 10:06:09.437500
1609,17.07,2022-10-26 10:06:09.453125
1610,9.52,2022-10-26 10:06:09.468750
1611,1.9,2022-10-26 10:06:09.484375
1612,-5.99,2022-10-26 10:06:09.500000
1613,-14.25,2022-10-26 10:06:09.515625
1614,-22.73,2022-10-26 10:06:09.531250
1615,-31.0,2022-10-26 10:06:09.546875
1616,-38.56,2022-10-26 10:06:09.562500
1617,-45.17,2022-10-26 10:06:09.578125
1618,-51.0,2022-10-26 10:06:09.593750
1619,-56.66,2022-10-26 10:06:09.609375
1620,-63.15,2022-10-26 10:06:09.625000
1621,-71.41,2022-10-26 10:06:09.640625
1622,-81.98,2022-10-26 10:06:09.656250
1623,-94.64,2022-10-26 10:06:09.671875
1624,-108.06,2022-10-26 10:06:09.687500
1625,-119.79,2022-10-26 10:06:09.703125
1626,-126.78,2022-10-26 10:06:09.718750
1627,-126.14,2022-10-26 10:06:09.734375
1628,-116.17,2022-10-26 10:06:09.750000
1629,-97.1,2022-10-26 10:06:09.765625
1630,-71.16,2022-10-26 10:06:09.781250
1631,-41.96,2022-10-26 10:06:09.796875
1632,-13.35,2022-10-26 10:06:09.812500
1633,11.7,2022-10-26 10:06:09.828125
1634,31.73,2022-10-26 10:06:09.843750
1635,46.72,2022-10-26 10:06:09.859375
1636,57.44,2022-10-26 10:06:09.875000
1637,64.78,2022-10-26 10:06:09.890625
1638,69.27,2022-10-26 10:06:09.906250
1639,71.06,2022-10-26 10:06:09.921875
1640,70.3,2022-10-26 10:06:09.937500
1641,67.46,2022-10-26 10:06:09.953125
1642,63.49,2022-10-26 10:06:09.968750
1643,59.57,2022-10-26 10:06:09.984375
1644,56.82,2022-10-26 10:06:10.000000
1645,55.81,2022-10-26 10:06:10.015625
1646,56.48,2022-10-26 10:06:10.031250
1647,58.24,2022-10-26 10:06:10.046875
1648,60.29,2022-10-26 10:06:10.062500
1649,62.01,2022-10-26 10:06:10.078125
1650,63.14,2022-10-26 10:06:10.093750
1651,63.71,2022-10-26 10:06:10.109375
1652,63.81,2022-10-26 10:06:10.125000
1653,63.28,2022-10-26 10:06:10.140625
1654,61.69,2022-10-26 10:06:10.156250
1655,58.46,2022-10-26 10:06:10.171875
1656,53.21,2022-10-26 10:06:10.187500
1657,46.06,2022-10-26 10:06:10.203125
1658,37.66,2022-10-26 10:06:10.218750
1659,29.02,2022-10-26 10:06:10.234375
1660,21.06,2022-10-26 10:06:10.250000
1661,14.3,2022-10-26 10:06:10.265625
1662,8.56,2022-10-26 10:06:10.281250
1663,3.18,2022-10-26 10:06:10.296875
1664,-2.7,2022-10-26 10:06:10.312500
1665,-9.7,2022-10-26 10:06:10.328125
1666,-17.91,2022-10-26 10:06:10.343750
1667,-26.87,2022-10-26 10:06:10.359375
1668,-35.74,2022-10-26 10:06:10.375000
1669,-43.74,2022-10-26 10:06:10.390625
1670,-50.41,2022-10-26 10:06:10.406250
1671,-55.86,2022-10-26 10:06:10.421875
1672,-60.8,2022-10-26 10:06:10.437500
1673,-66.25,2022-10-26 10:06:10.453125
1674,-73.38,2022-10-26 10:06:10.468750
1675,-83.01,2022-10-26 10:06:10.484375
1676,-95.3,2022-10-26 10:06:10.500000
1677,-109.33,2022-10-26 10:06:10.515625
1678,-122.96,2022-10-26 10:06:10.531250
1679,-133.08,2022-10-26 10:06:10.546875
1680,-136.36,2022-10-26 10:06:10.562500
1681,-130.3,2022-10-26 10:06:10.578125
1682,-114.18,2022-10-26 10:06:10.593750
1683,-89.54,2022-10-26 10:06:10.609375
1684,-59.75,2022-10-26 10:06:10.625000
1685,-28.93,2022-10-26 10:06:10.640625
1686,-0.76,2022-10-26 10:06:10.656250
1687,22.57,2022-10-26 10:06:10.671875
1688,40.48,2022-10-26 10:06:10.687500
1689,53.54,2022-10-26 10:06:10.703125
1690,62.66,2022-10-26 10:06:10.718750
1691,68.52,2022-10-26 10:06:10.734375
1692,71.4,2022-10-26 10:06:10.750000
1693,71.49,2022-10-26 10:06:10.765625
1694,69.22,2022-10-26 10:06:10.781250
1695,65.49,2022-10-26 10:06:10.796875
1696,61.49,2022-10-26 10:06:10.812500
1697,58.39,2022-10-26 10:06:10.828125
1698,56.91,2022-10-26 10:06:10.843750
1699,57.14,2022-10-26 10:06:10.859375
1700,58.62,2022-10-26 10:06:10.875000
1701,60.67,2022-10-26 10:06:10.890625
1702,62.66,2022-10-26 10:06:10.906250
1703,64.22,2022-10-26 10:06:10.921875
1704,65.2,2022-10-26 10:06:10.937500
1705,65.51,2022-10-26 10:06:10.953125
1706,64.98,2022-10-26 10:06:10.968750
1707,63.26,2022-10-26 10:06:10.984375
1708,59.98,2022-10-26 10:06:11.000000
1709,54.98,2022-10-26 10:06:11.015625
1710,48.43,2022-10-26 10:06:11.031250
1711,40.89,2022-10-26 10:06:11.046875
1712,33.08,2022-10-26 10:06:11.062500
1713,25.62,2022-10-26 10:06:11.078125
1714,18.79,2022-10-26 10:06:11.093750
1715,12.41,2022-10-26 10:06:11.109375
1716,6.03,2022-10-26 10:06:11.125000
1717,-0.81,2022-10-26 10:06:11.140625
1718,-8.28,2022-10-26 10:06:11.156250
1719,-16.15,2022-10-26 10:06:11.171875
1720,-23.88,2022-10-26 10:06:11.187500
1721,-30.95,2022-10-26 10:06:11.203125
1722,-37.09,2022-10-26 10:06:11.218750
1723,-42.54,2022-10-26 10:06:11.234375
1724,-47.97,2022-10-26 10:06:11.250000
1725,-54.4,2022-10-26 10:06:11.265625
1726,-62.78,2022-10-26 10:06:11.281250
1727,-73.7,2022-10-26 10:06:11.296875
1728,-86.92,2022-10-26 10:06:11.312500
1729,-101.03,2022-10-26 10:06:11.328125
1730,-113.46,2022-10-26 10:06:11.343750
1731,-120.93,2022-10-26 10:06:11.359375
1732,-120.4,2022-10-26 10:06:11.375000
1733,-110.16,2022-10-26 10:06:11.390625
1734,-90.63,2022-10-26 10:06:11.406250
1735,-64.39,2022-10-26 10:06:11.421875
1736,-35.37,2022-10-26 10:06:11.437500
1737,-7.62,2022-10-26 10:06:11.453125
1738,15.99,2022-10-26 10:06:11.468750
1739,34.3,2022-10-26 10:06:11.484375
1740,47.6,2022-10-26 10:06:11.500000
1741,56.91,2022-10-26 10:06:11.515625
1742,63.12,2022-10-26 10:06:11.531250
1743,66.58,2022-10-26 10:06:11.546875
1744,67.28,2022-10-26 10:06:11.562500
1745,65.21,2022-10-26 10:06:11.578125
1746,60.89,2022-10-26 10:06:11.593750
1747,55.4,2022-10-26 10:06:11.609375
1748,50.22,2022-10-26 10:06:11.625000
1749,46.74,2022-10-26 10:06:11.640625
1750,45.79,2022-10-26 10:06:11.656250
1751,47.3,2022-10-26 10:06:11.671875
1752,50.39,2022-10-26 10:06:11.687500
1753,53.75,2022-10-26 10:06:11.703125
1754,56.14,2022-10-26 10:06:11.718750
1755,56.86,2022-10-26 10:06:11.734375
1756,55.9,2022-10-26 10:06:11.750000
1757,53.78,2022-10-26 10:06:11.765625
1758,51.07,2022-10-26 10:06:11.781250
1759,48.02,2022-10-26 10:06:11.796875
1760,44.34,2022-10-26 10:06:11.812500
1761,39.39,2022-10-26 10:06:11.828125
1762,32.63,2022-10-26 10:06:11.843750
1763,23.97,2022-10-26 10:06:11.859375
1764,13.99,2022-10-26 10:06:11.875000
1765,3.73,2022-10-26 10:06:11.890625
1766,-5.62,2022-10-26 10:06:11.906250
1767,-13.29,2022-10-26 10:06:11.921875
1768,-19.14,2022-10-26 10:06:11.937500
1769,-23.73,2022-10-26 10:06:11.953125
1770,-28.06,2022-10-26 10:06:11.968750
1771,-33.21,2022-10-26 10:06:11.984375
1772,-40.03,2022-10-26 10:06:12.000000
1773,-48.96,2022-10-26 10:06:12.015625
1774,-59.9,2022-10-26 10:06:12.031250
1775,-72.23,2022-10-26 10:06:12.046875
1776,-84.71,2022-10-26 10:06:12.062500
1777,-95.53,2022-10-26 10:06:12.078125
1778,-102.48,2022-10-26 10:06:12.093750
1779,-103.42,2022-10-26 10:06:12.109375
1780,-96.87,2022-10-26 10:06:12.125000
1781,-82.66,2022-10-26 10:06:12.140625
1782,-62.11,2022-10-26 10:06:12.156250
1783,-37.83,2022-10-26 10:06:12.171875
1784,-12.98,2022-10-26 10:06:12.187500
1785,9.67,2022-10-26 10:06:12.203125
1786,28.36,2022-10-26 10:06:12.218750
1787,42.51,2022-10-26 10:06:12.234375
1788,52.34,2022-10-26 10:06:12.250000
1789,58.3,2022-10-26 10:06:12.265625
1790,60.69,2022-10-26 10:06:12.281250
1791,59.65,2022-10-26 10:06:12.296875
1792,55.5,2022-10-26 10:06:12.312500
1793,49.07,2022-10-26 10:06:12.328125
1794,41.82,2022-10-26 10:06:12.343750
1795,35.5,2022-10-26 10:06:12.359375
1796,31.58,2022-10-26 10:06:12.375000
1797,30.68,2022-10-26 10:06:12.390625
1798,32.34,2022-10-26 10:06:12.406250
1799,35.32,2022-10-26 10:06:12.421875
1800,38.13,2022-10-26 10:06:12.437500
1801,39.69,2022-10-26 10:06:12.453125
1802,39.65,2022-10-26 10:06:12.468750
1803,38.3,2022-10-26 10:06:12.484375
1804,36.21,2022-10-26 10:06:12.500000
1805,33.78,2022-10-26 10:06:12.515625
1806,30.92,2022-10-26 10:06:12.531250
1807,27.09,2022-10-26 10:06:12.546875
1808,21.62,2022-10-26 10:06:12.562500
1809,14.14,2022-10-26 10:06:12.578125
1810,4.86,2022-10-26 10:06:12.593750
1811,-5.39,2022-10-26 10:06:12.609375
1812,-15.47,2022-10-26 10:06:12.625000
1813,-24.33,2022-10-26 10:06:12.640625
1814,-31.48,2022-10-26 10:06:12.656250
1815,-37.15,2022-10-26 10:06:12.671875
1816,-42.14,2022-10-26 10:06:12.687500
1817,-47.58,2022-10-26 10:06:12.703125
1818,-54.49,2022-10-26 10:06:12.718750
1819,-63.57,2022-10-26 10:06:12.734375
1820,-74.92,2022-10-26 10:06:12.750000
1821,-87.93,2022-10-26 10:06:12.765625
1822,-101.09,2022-10-26 10:06:12.781250
1823,-112.04,2022-10-26 10:06:12.796875
1824,-117.97,2022-10-26 10:06:12.812500
1825,-116.36,2022-10-26 10:06:12.828125
1826,-105.84,2022-10-26 10:06:12.843750
1827,-86.94,2022-10-26 10:06:12.859375
1828,-62.0,2022-10-26 10:06:12.875000
1829,-34.53,2022-10-26 10:06:12.890625
1830,-8.04,2022-10-26 10:06:12.906250
1831,14.95,2022-10-26 10:06:12.921875
1832,33.38,2022-10-26 10:06:12.937500
1833,47.43,2022-10-26 10:06:12.953125
1834,57.86,2022-10-26 10:06:12.968750
1835,65.29,2022-10-26 10:06:12.984375
1836,69.93,2022-10-26 10:06:13.000000
1837,71.72,2022-10-26 10:06:13.015625
1838,70.71,2022-10-26 10:06:13.031250
1839,67.4,2022-10-26 10:06:13.046875
1840,62.81,2022-10-26 10:06:13.062500
1841,58.19,2022-10-26 10:06:13.078125
1842,54.61,2022-10-26 10:06:13.093750
1843,52.52,2022-10-26 10:06:13.109375
1844,51.71,2022-10-26 10:06:13.125000
1845,51.42,2022-10-26 10:06:13.140625
1846,50.76,2022-10-26 10:06:13.156250
1847,49.16,2022-10-26 10:06:13.171875
1848,46.51,2022-10-26 10:06:13.187500
1849,43.1,2022-10-26 10:06:13.203125
1850,39.43,2022-10-26 10:06:13.218750
1851,35.74,2022-10-26 10:06:13.234375
1852,31.93,2022-10-26 10:06:13.250000
1853,27.56,2022-10-26 10:06:13.265625
1854,22.06,2022-10-26 10:06:13.281250
1855,15.08,2022-10-26 10:06:13.296875
1856,6.63,2022-10-26 10:06:13.312500
1857,-2.82,2022-10-26 10:06:13.328125
1858,-12.49,2022-10-26 10:06:13.343750
1859,-21.58,2022-10-26 10:06:13.359375
1860,-29.51,2022-10-26 10:06:13.375000
1861,-36.08,2022-10-26 10:06:13.390625
1862,-41.62,2022-10-26 10:06:13.406250
1863,-46.77,2022-10-26 10:06:13.421875
1864,-52.36,2022-10-26 10:06:13.437500
1865,-59.17,2022-10-26 10:06:13.453125
1866,-67.73,2022-10-26 10:06:13.468750
1867,-78.18,2022-10-26 10:06:13.484375
1868,-90.12,2022-10-26 10:06:13.500000
1869,-102.38,2022-10-26 10:06:13.515625
1870,-113.03,2022-10-26 10:06:13.531250
1871,-119.6,2022-10-26 10:06:13.546875
1872,-119.63,2022-10-26 10:06:13.562500
1873,-111.51,2022-10-26 10:06:13.578125
1874,-95.16,2022-10-26 10:06:13.593750
1875,-72.22,2022-10-26 10:06:13.609375
1876,-45.69,2022-10-26 10:06:13.625000
1877,-18.97,2022-10-26 10:06:13.640625
1878,5.11,2022-10-26 10:06:13.656250
1879,25.02,2022-10-26 10:06:13.671875
1880,40.54,2022-10-26 10:06:13.687500
1881,52.32,2022-10-26 10:06:13.703125
1882,61.14,2022-10-26 10:06:13.718750
1883,67.51,2022-10-26 10:06:13.734375
1884,71.54,2022-10-26 10:06:13.750000
1885,73.19,2022-10-26 10:06:13.765625
1886,72.68,2022-10-26 10:06:13.781250
1887,70.65,2022-10-26 10:06:13.796875
1888,68.06,2022-10-26 10:06:13.812500
1889,65.93,2022-10-26 10:06:13.828125
1890,64.94,2022-10-26 10:06:13.843750
1891,65.23,2022-10-26 10:06:13.859375
1892,66.46,2022-10-26 10:06:13.875000
1893,68.02,2022-10-26 10:06:13.890625
1894,69.32,2022-10-26 10:06:13.906250
1895,69.98,2022-10-26 10:06:13.921875
1896,69.81,2022-10-26 10:06:13.937500
1897,68.7,2022-10-26 10:06:13.953125
1898,66.5,2022-10-26 10:06:13.968750
1899,63.0,2022-10-26 10:06:13.984375
1900,58.09,2022-10-26 10:06:14.000000
1901,51.87,2022-10-26 10:06:14.015625
1902,44.75,2022-10-26 10:06:14.031250
1903,37.34,2022-10-26 10:06:14.046875
1904,30.23,2022-10-26 10:06:14.062500
1905,23.71,2022-10-26 10:06:14.078125
1906,17.68,2022-10-26 10:06:14.093750
1907,11.74,2022-10-26 10:06:14.109375
1908,5.48,2022-10-26 10:06:14.125000
1909,-1.29,2022-10-26 10:06:14.140625
1910,-8.31,2022-10-26 10:06:14.156250
1911,-15.04,2022-10-26 10:06:14.171875
1912,-20.98,2022-10-26 10:06:14.187500
1913,-25.94,2022-10-26 10:06:14.203125
1914,-30.31,2022-10-26 10:06:14.218750
1915,-34.93,2022-10-26 10:06:14.234375
1916,-40.93,2022-10-26 10:06:14.250000
1917,-49.33,2022-10-26 10:06:14.265625
1918,-60.67,2022-10-26 10:06:14.281250
1919,-74.62,2022-10-26 10:06:14.296875
1920,-89.84,2022-10-26 10:06:14.312500
1921,-103.99,2022-10-26 10:06:14.328125
1922,-114.12,2022-10-26 10:06:14.343750
1923,-117.43,2022-10-26 10:06:14.359375
1924,-112.12,2022-10-26 10:06:14.375000
1925,-98.07,2022-10-26 10:06:14.390625
1926,-77.02,2022-10-26 10:06:14.406250
1927,-52.03,2022-10-26 10:06:14.421875
1928,-26.51,2022-10-26 10:06:14.437500
1929,-3.29,2022-10-26 10:06:14.453125
1930,16.04,2022-10-26 10:06:14.468750
1931,31.12,2022-10-26 10:06:14.484375
1932,42.43,2022-10-26 10:06:14.500000
1933,50.64,2022-10-26 10:06:14.515625
1934,56.2,2022-10-26 10:06:14.531250
1935,59.29,2022-10-26 10:06:14.546875
1936,60.01,2022-10-26 10:06:14.562500
1937,58.63,2022-10-26 10:06:14.578125
1938,55.8,2022-10-26 10:06:14.593750
1939,52.49,2022-10-26 10:06:14.609375
1940,49.7,2022-10-26 10:06:14.625000
1941,48.14,2022-10-26 10:06:14.640625
1942,48.05,2022-10-26 10:06:14.656250
1943,49.13,2022-10-26 10:06:14.671875
1944,50.77,2022-10-26 10:06:14.687500
1945,52.32,2022-10-26 10:06:14.703125
1946,53.26,2022-10-26 10:06:14.718750
1947,53.35,2022-10-26 10:06:14.734375
1948,52.51,2022-10-26 10:06:14.750000
1949,50.71,2022-10-26 10:06:14.765625
1950,47.88,2022-10-26 10:06:14.781250
1951,43.97,2022-10-26 10:06:14.796875
1952,39.04,2022-10-26 10:06:14.812500
1953,33.3,2022-10-26 10:06:14.828125
1954,27.03,2022-10-26 10:06:14.843750
1955,20.54,2022-10-26 10:06:14.859375
1956,13.93,2022-10-26 10:06:14.875000
1957,7.16,2022-10-26 10:06:14.890625
1958,0.17,2022-10-26 10:06:14.906250
1959,-7.0,2022-10-26 10:06:14.921875
1960,-14.08,2022-10-26 10:06:14.937500
1961,-20.62,2022-10-26 10:06:14.953125
1962,-26.29,2022-10-26 10:06:14.968750
1963,-31.04,2022-10-26 10:06:14.984375
1964,-35.29,2022-10-26 10:06:15.000000
1965,-39.78,2022-10-26 10:06:15.015625
1966,-45.42,2022-10-26 10:06:15.031250
1967,-52.96,2022-10-26 10:06:15.046875
1968,-62.75,2022-10-26 10:06:15.062500
1969,-74.5,2022-10-26 10:06:15.078125
1970,-87.08,2022-10-26 10:06:15.093750
1971,-98.51,2022-10-26 10:06:15.109375
1972,-106.22,2022-10-26 10:06:15.125000
1973,-107.66,2022-10-26 10:06:15.140625
1974,-101.1,2022-10-26 10:06:15.156250
1975,-86.38,2022-10-26 10:06:15.171875
1976,-65.1,2022-10-26 10:06:15.187500
1977,-40.28,2022-10-26 10:06:15.203125
1978,-15.37,2022-10-26 10:06:15.218750
1979,6.77,2022-10-26 10:06:15.234375
1980,24.55,2022-10-26 10:06:15.250000
1981,37.74,2022-10-26 10:06:15.265625
1982,46.9,2022-10-26 10:06:15.281250
1983,52.77,2022-10-26 10:06:15.296875
1984,55.77,2022-10-26 10:06:15.312500
1985,56.06,2022-10-26 10:06:15.328125
1986,53.81,2022-10-26 10:06:15.343750
1987,49.65,2022-10-26 10:06:15.359375
1988,44.69,2022-10-26 10:06:15.375000
1989,40.27,2022-10-26 10:06:15.390625
1990,37.49,2022-10-26 10:06:15.406250
1991,36.79,2022-10-26 10:06:15.421875
1992,37.77,2022-10-26 10:06:15.437500
1993,39.54,2022-10-26 10:06:15.453125
1994,41.1,2022-10-26 10:06:15.468750
1995,41.81,2022-10-26 10:06:15.484375
1996,41.52,2022-10-26 10:06:15.500000
1997,40.39,2022-10-26 10:06:15.515625
1998,38.56,2022-10-26 10:06:15.531250
1999,35.91,2022-10-26 10:06:15.546875
2000,32.04,2022-10-26 10:06:15.562500
2001,26.53,2022-10-26 10:06:15.578125
2002,19.28,2022-10-26 10:06:15.593750
2003,10.73,2022-10-26 10:06:15.609375
2004,1.77,2022-10-26 10:06:15.625000
2005,-6.58,2022-10-26 10:06:15.640625
2006,-13.58,2022-10-26 10:06:15.656250
2007,-19.15,2022-10-26 10:06:15.671875
2008,-23.83,2022-10-26 10:06:15.687500
2009,-28.66,2022-10-26 10:06:15.703125
2010,-34.74,2022-10-26 10:06:15.718750
2011,-42.85,2022-10-26 10:06:15.734375
2012,-53.11,2022-10-26 10:06:15.750000
2013,-64.74,2022-10-26 10:06:15.765625
2014,-76.08,2022-10-26 10:06:15.781250
2015,-84.84,2022-10-26 10:06:15.796875
2016,-88.65,2022-10-26 10:06:15.812500
2017,-85.73,2022-10-26 10:06:15.828125
2018,-75.55,2022-10-26 10:06:15.843750
2019,-59.08,2022-10-26 10:06:15.859375
2020,-38.6,2022-10-26 10:06:15.875000
2021,-16.94,2022-10-26 10:06:15.890625
2022,3.3,2022-10-26 10:06:15.906250
2023,20.49,2022-10-26 10:06:15.921875
2024,34.05,2022-10-26 10:06:15.937500
2025,44.18,2022-10-26 10:06:15.953125
2026,51.34,2022-10-26 10:06:15.968750
2027,55.81,2022-10-26 10:06:15.984375
2028,57.62,2022-10-26 10:06:16.000000
2029,56.82,2022-10-26 10:06:16.015625
2030,53.79,2022-10-26 10:06:16.031250
2031,49.41,2022-10-26 10:06:16.046875
2032,44.93,2022-10-26 10:06:16.062500
2033,41.52,2022-10-26 10:06:16.078125
2034,39.86,2022-10-26 10:06:16.093750
2035,39.85,2022-10-26 10:06:16.109375
2036,40.76,2022-10-26 10:06:16.125000
2037,41.58,2022-10-26 10:06:16.140625
2038,41.54,2022-10-26 10:06:16.156250
2039,40.4,2022-10-26 10:06:16.171875
2040,38.42,2022-10-26 10:06:16.187500
2041,36.05,2022-10-26 10:06:16.203125
2042,33.57,2022-10-26 10:06:16.218750
2043,30.77,2022-10-26 10:06:16.234375
2044,27.07,2022-10-26 10:06:16.250000
2045,21.81,2022-10-26 10:06:16.265625
2046,14.68,2022-10-26 10:06:16.281250
2047,5.98,2022-10-26 10:06:16.296875
2048,-3.46,2022-10-26 10:06:16.312500
2049,-12.57,2022-10-26 10:06:16.328125
2050,-20.48,2022-10-26 10:06:16.343750
2051,-26.9,2022-10-26 10:06:16.359375
2052,-32.17,2022-10-26 10:06:16.375000
2053,-37.12,2022-10-26 10:06:16.390625
2054,-42.85,2022-10-26 10:06:16.406250
2055,-50.31,2022-10-26 10:06:16.421875
2056,-60.04,2022-10-26 10:06:16.437500
2057,-71.87,2022-10-26 10:06:16.453125
2058,-84.68,2022-10-26 10:06:16.468750
2059,-96.44,2022-10-26 10:06:16.484375
2060,-104.53,2022-10-26 10:06:16.500000
2061,-106.39,2022-10-26 10:06:16.515625
2062,-100.38,2022-10-26 10:06:16.531250
2063,-86.42,2022-10-26 10:06:16.546875
2064,-66.18,2022-10-26 10:06:16.562500
2065,-42.6,2022-10-26 10:06:16.578125
2066,-18.97,2022-10-26 10:06:16.593750
2067,2.08,2022-10-26 10:06:16.609375
2068,19.24,2022-10-26 10:06:16.625000
2069,32.44,2022-10-26 10:06:16.640625
2070,42.43,2022-10-26 10:06:16.656250
2071,50.03,2022-10-26 10:06:16.671875
2072,55.67,2022-10-26 10:06:16.687500
2073,59.38,2022-10-26 10:06:16.703125
2074,61.04,2022-10-26 10:06:16.718750
2075,60.79,2022-10-26 10:06:16.734375
2076,59.22,2022-10-26 10:06:16.750000
2077,57.23,2022-10-26 10:06:16.765625
2078,55.7,2022-10-26 10:06:16.781250
2079,55.12,2022-10-26 10:06:16.796875
2080,55.47,2022-10-26 10:06:16.812500
2081,56.33,2022-10-26 10:06:16.828125
2082,57.15,2022-10-26 10:06:16.843750
2083,57.53,2022-10-26 10:06:16.859375
2084,57.3,2022-10-26 10:06:16.875000
2085,56.49,2022-10-26 10:06:16.890625
2086,55.11,2022-10-26 10:06:16.906250
2087,53.01,2022-10-26 10:06:16.921875
2088,49.91,2022-10-26 10:06:16.937500
2089,45.57,2022-10-26 10:06:16.953125
2090,39.96,2022-10-26 10:06:16.968750
2091,33.4,2022-10-26 10:06:16.984375
2092,26.5,2022-10-26 10:06:17.000000
2093,19.87,2022-10-26 10:06:17.015625
2094,13.88,2022-10-26 10:06:17.031250
2095,8.46,2022-10-26 10:06:17.046875
2096,3.19,2022-10-26 10:06:17.062500
2097,-2.51,2022-10-26 10:06:17.078125
2098,-9.04,2022-10-26 10:06:17.093750
2099,-16.38,2022-10-26 10:06:17.109375
2100,-24.1,2022-10-26 10:06:17.125000
2101,-31.52,2022-10-26 10:06:17.140625
2102,-38.08,2022-10-26 10:06:17.156250
2103,-43.63,2022-10-26 10:06:17.171875
2104,-48.48,2022-10-26 10:06:17.187500
2105,-53.4,2022-10-26 10:06:17.203125
2106,-59.29,2022-10-26 10:06:17.218750
2107,-66.99,2022-10-26 10:06:17.234375
2108,-76.89,2022-10-26 10:06:17.250000
2109,-88.61,2022-10-26 10:06:17.265625
2110,-100.77,2022-10-26 10:06:17.281250
2111,-111.03,2022-10-26 10:06:17.296875
2112,-116.55,2022-10-26 10:06:17.312500
2113,-114.78,2022-10-26 10:06:17.328125
2114,-104.44,2022-10-26 10:06:17.343750
2115,-86.09,2022-10-26 10:06:17.359375
2116,-62.09,2022-10-26 10:06:17.375000
2117,-35.89,2022-10-26 10:06:17.390625
2118,-10.92,2022-10-26 10:06:17.406250
2119,10.45,2022-10-26 10:06:17.421875
2120,27.35,2022-10-26 10:06:17.437500
2121,40.18,2022-10-26 10:06:17.453125
2122,49.9,2022-10-26 10:06:17.468750
2123,57.35,2022-10-26 10:06:17.484375
2124,62.87,2022-10-26 10:06:17.500000
2125,66.4,2022-10-26 10:06:17.515625
2126,67.84,2022-10-26 10:06:17.531250
2127,67.48,2022-10-26 10:06:17.546875
2128,66.0,2022-10-26 10:06:17.562500
2129,64.38,2022-10-26 10:06:17.578125
2130,63.46,2022-10-26 10:06:17.593750
2131,63.64,2022-10-26 10:06:17.609375
2132,64.78,2022-10-26 10:06:17.625000
2133,66.35,2022-10-26 10:06:17.640625
2134,67.7,2022-10-26 10:06:17.656250
2135,68.44,2022-10-26 10:06:17.671875
2136,68.49,2022-10-26 10:06:17.687500
2137,68.05,2022-10-26 10:06:17.703125
2138,67.39,2022-10-26 10:06:17.718750
2139,66.54,2022-10-26 10:06:17.734375
2140,65.26,2022-10-26 10:06:17.750000
2141,63.04,2022-10-26 10:06:17.765625
2142,59.44,2022-10-26 10:06:17.781250
2143,54.37,2022-10-26 10:06:17.796875
2144,48.17,2022-10-26 10:06:17.812500
2145,41.61,2022-10-26 10:06:17.828125
2146,35.56,2022-10-26 10:06:17.843750
2147,30.62,2022-10-26 10:06:17.859375
2148,26.89,2022-10-26 10:06:17.875000
2149,23.96,2022-10-26 10:06:17.890625
2150,21.04,2022-10-26 10:06:17.906250
2151,17.48,2022-10-26 10:06:17.921875
2152,12.93,2022-10-26 10:06:17.937500
2153,7.6,2022-10-26 10:06:17.953125
2154,2.06,2022-10-26 10:06:17.968750
2155,-3.0,2022-10-26 10:06:17.984375
2156,-7.16,2022-10-26 10:06:18.000000
2157,-10.47,2022-10-26 10:06:18.015625
2158,-13.46,2022-10-26 10:06:18.031250
2159,-16.93,2022-10-26 10:06:18.046875
2160,-21.56,2022-10-26 10:06:18.062500
2161,-27.66,2022-10-26 10:06:18.078125
2162,-34.95,2022-10-26 10:06:18.093750
2163,-42.72,2022-10-26 10:06:18.109375
2164,-50.11,2022-10-26 10:06:18.125000
2165,-56.42,2022-10-26 10:06:18.140625
2166,-61.45,2022-10-26 10:06:18.156250
2167,-65.51,2022-10-26 10:06:18.171875
2168,-69.44,2022-10-26 10:06:18.187500
2169,-74.36,2022-10-26 10:06:18.203125
2170,-81.37,2022-10-26 10:06:18.218750
2171,-91.16,2022-10-26 10:06:18.234375
2172,-103.61,2022-10-26 10:06:18.250000
2173,-117.45,2022-10-26 10:06:18.265625
2174,-130.25,2022-10-26 10:06:18.281250
2175,-138.86,2022-10-26 10:06:18.296875
2176,-140.29,2022-10-26 10:06:18.312500
2177,-132.66,2022-10-26 10:06:18.328125
2178,-115.93,2022-10-26 10:06:18.343750
2179,-91.99,2022-10-26 10:06:18.359375
2180,-64.08,2022-10-26 10:06:18.375000
2181,-35.78,2022-10-26 10:06:18.390625
2182,-10.04,2022-10-26 10:06:18.406250
2183,11.42,2022-10-26 10:06:18.421875
2184,28.09,2022-10-26 10:06:18.437500
2185,40.37,2022-10-26 10:06:18.453125
2186,49.03,2022-10-26 10:06:18.468750
2187,54.83,2022-10-26 10:06:18.484375
2188,58.36,2022-10-26 10:06:18.500000
2189,60.01,2022-10-26 10:06:18.515625
2190,60.1,2022-10-26 10:06:18.531250
2191,59.06,2022-10-26 10:06:18.546875
2192,57.41,2022-10-26 10:06:18.562500
2193,55.81,2022-10-26 10:06:18.578125
2194,54.86,2022-10-26 10:06:18.593750
2195,54.92,2022-10-26 10:06:18.609375
2196,55.93,2022-10-26 10:06:18.625000
2197,57.49,2022-10-26 10:06:18.640625
2198,59.02,2022-10-26 10:06:18.656250
2199,59.99,2022-10-26 10:06:18.671875
2200,60.16,2022-10-26 10:06:18.687500
2201,59.57,2022-10-26 10:06:18.703125
2202,58.41,2022-10-26 10:06:18.718750
2203,56.88,2022-10-26 10:06:18.734375
2204,54.94,2022-10-26 10:06:18.750000
2205,52.39,2022-10-26 10:06:18.765625
2206,48.94,2022-10-26 10:06:18.781250
2207,44.39,2022-10-26 10:06:18.796875
2208,38.79,2022-10-26 10:06:18.812500
2209,32.43,2022-10-26 10:06:18.828125
2210,25.82,2022-10-26 10:06:18.843750
2211,19.54,2022-10-26 10:06:18.859375
2212,14.03,2022-10-26 10:06:18.875000
2213,9.46,2022-10-26 10:06:18.890625
2214,5.61,2022-10-26 10:06:18.906250
2215,1.97,2022-10-26 10:06:18.921875
2216,-2.05,2022-10-26 10:06:18.937500
2217,-6.89,2022-10-26 10:06:18.953125
2218,-12.62,2022-10-26 10:06:18.968750
2219,-18.94,2022-10-26 10:06:18.984375
2220,-25.32,2022-10-26 10:06:19.000000
2221,-31.18,2022-10-26 10:06:19.015625
2222,-36.24,2022-10-26 10:06:19.031250
2223,-40.54,2022-10-26 10:06:19.046875
2224,-44.44,2022-10-26 10:06:19.062500
2225,-48.48,2022-10-26 10:06:19.078125
2226,-53.26,2022-10-26 10:06:19.093750
2227,-59.31,2022-10-26 10:06:19.109375
2228,-67.04,2022-10-26 10:06:19.125000
2229,-76.59,2022-10-26 10:06:19.140625
2230,-87.49,2022-10-26 10:06:19.156250
2231,-98.44,2022-10-26 10:06:19.171875
2232,-107.23,2022-10-26 10:06:19.187500
2233,-111.2,2022-10-26 10:06:19.203125
2234,-108.01,2022-10-26 10:06:19.218750
2235,-96.6,2022-10-26 10:06:19.234375
2236,-77.71,2022-10-26 10:06:19.250000
2237,-53.8,2022-10-26 10:06:19.265625
2238,-28.24,2022-10-26 10:06:19.281250
2239,-4.22,2022-10-26 10:06:19.296875
2240,16.08,2022-10-26 10:06:19.312500
2241,31.85,2022-10-26 10:06:19.328125
2242,43.4,2022-10-26 10:06:19.343750
2243,51.49,2022-10-26 10:06:19.359375
2244,56.8,2022-10-26 10:06:19.375000
2245,59.73,2022-10-26 10:06:19.390625
2246,60.44,2022-10-26 10:06:19.406250
2247,59.12,2022-10-26 10:06:19.421875
2248,56.25,2022-10-26 10:06:19.437500
2249,52.62,2022-10-26 10:06:19.453125
2250,49.18,2022-10-26 10:06:19.468750
2251,46.79,2022-10-26 10:06:19.484375
2252,45.97,2022-10-26 10:06:19.500000
2253,46.73,2022-10-26 10:06:19.515625
2254,48.66,2022-10-26 10:06:19.531250
2255,51.05,2022-10-26 10:06:19.546875
2256,53.17,2022-10-26 10:06:19.562500
2257,54.52,2022-10-26 10:06:19.578125
2258,54.85,2022-10-26 10:06:19.593750
2259,54.15,2022-10-26 10:06:19.609375
2260,52.54,2022-10-26 10:06:19.625000
2261,50.1,2022-10-26 10:06:19.640625
2262,46.85,2022-10-26 10:06:19.656250
2263,42.73,2022-10-26 10:06:19.671875
2264,37.7,2022-10-26 10:06:19.687500
2265,31.84,2022-10-26 10:06:19.703125
2266,25.36,2022-10-26 10:06:19.718750
2267,18.62,2022-10-26 10:06:19.734375
2268,12.01,2022-10-26 10:06:19.750000
2269,5.9,2022-10-26 10:06:19.765625
2270,0.5,2022-10-26 10:06:19.781250
2271,-4.2,2022-10-26 10:06:19.796875
2272,-8.45,2022-10-26 10:06:19.812500
2273,-12.67,2022-10-26 10:06:19.828125
2274,-17.34,2022-10-26 10:06:19.843750
2275,-22.82,2022-10-26 10:06:19.859375
2276,-29.15,2022-10-26 10:06:19.875000
2277,-35.99,2022-10-26 10:06:19.890625
2278,-42.77,2022-10-26 10:06:19.906250
2279,-48.86,2022-10-26 10:06:19.921875
2280,-53.91,2022-10-26 10:06:19.937500
2281,-58.03,2022-10-26 10:06:19.953125
2282,-61.79,2022-10-26 10:06:19.968750
2283,-66.12,2022-10-26 10:06:19.984375
2284,-72.02,2022-10-26 10:06:20.000000
2285,-80.22,2022-10-26 10:06:20.015625
2286,-90.96,2022-10-26 10:06:20.031250
2287,-103.58,2022-10-26 10:06:20.046875
2288,-116.48,2022-10-26 10:06:20.062500
2289,-127.17,2022-10-26 10:06:20.078125
2290,-132.76,2022-10-26 10:06:20.093750
2291,-130.74,2022-10-26 10:06:20.109375
2292,-119.81,2022-10-26 10:06:20.125000
2293,-100.44,2022-10-26 10:06:20.140625
2294,-74.85,2022-10-26 10:06:20.156250
2295,-46.42,2022-10-26 10:06:20.171875
2296,-18.63,2022-10-26 10:06:20.187500
2297,5.79,2022-10-26 10:06:20.203125
2298,25.42,2022-10-26 10:06:20.218750
2299,40.09,2022-10-26 10:06:20.234375
2300,50.44,2022-10-26 10:06:20.250000
2301,57.31,2022-10-26 10:06:20.265625
2302,61.44,2022-10-26 10:06:20.281250
2303,63.26,2022-10-26 10:06:20.296875
2304,63.08,2022-10-26 10:06:20.312500
2305,61.33,2022-10-26 10:06:20.328125
2306,58.63,2022-10-26 10:06:20.343750
2307,55.81,2022-10-26 10:06:20.359375
2308,53.69,2022-10-26 10:06:20.375000
2309,52.77,2022-10-26 10:06:20.390625
2310,53.1,2022-10-26 10:06:20.406250
2311,54.21,2022-10-26 10:06:20.421875
2312,55.42,2022-10-26 10:06:20.437500
2313,56.11,2022-10-26 10:06:20.453125
2314,55.97,2022-10-26 10:06:20.468750
2315,55.13,2022-10-26 10:06:20.484375
2316,53.94,2022-10-26 10:06:20.500000
2317,52.65,2022-10-26 10:06:20.515625
2318,51.17,2022-10-26 10:06:20.531250
2319,49.04,2022-10-26 10:06:20.546875
2320,45.64,2022-10-26 10:06:20.562500
2321,40.53,2022-10-26 10:06:20.578125
2322,33.82,2022-10-26 10:06:20.593750
2323,26.13,2022-10-26 10:06:20.609375
2324,18.43,2022-10-26 10:06:20.625000
2325,11.57,2022-10-26 10:06:20.640625
2326,5.96,2022-10-26 10:06:20.656250
2327,1.36,2022-10-26 10:06:20.671875
2328,-2.94,2022-10-26 10:06:20.687500
2329,-7.78,2022-10-26 10:06:20.703125
2330,-13.68,2022-10-26 10:06:20.718750
2331,-20.64,2022-10-26 10:06:20.734375
2332,-28.13,2022-10-26 10:06:20.750000
2333,-35.32,2022-10-26 10:06:20.765625
2334,-41.5,2022-10-26 10:06:20.781250
2335,-46.33,2022-10-26 10:06:20.796875
2336,-50.0,2022-10-26 10:06:20.812500
2337,-53.18,2022-10-26 10:06:20.828125
2338,-56.82,2022-10-26 10:06:20.843750
2339,-61.94,2022-10-26 10:06:20.859375
2340,-69.31,2022-10-26 10:06:20.875000
2341,-79.27,2022-10-26 10:06:20.890625
2342,-91.38,2022-10-26 10:06:20.906250
2343,-104.14,2022-10-26 10:06:20.921875
2344,-115.09,2022-10-26 10:06:20.937500
2345,-121.24,2022-10-26 10:06:20.953125
2346,-119.87,2022-10-26 10:06:20.968750
2347,-109.53,2022-10-26 10:06:20.984375
2348,-90.69,2022-10-26 10:06:21.000000
2349,-65.71,2022-10-26 10:06:21.015625
2350,-38.15,2022-10-26 10:06:21.031250
2351,-11.62,2022-10-26 10:06:21.046875
2352,11.21,2022-10-26 10:06:21.062500
2353,29.17,2022-10-26 10:06:21.078125
2354,42.39,2022-10-26 10:06:21.093750
2355,51.75,2022-10-26 10:06:21.109375
2356,58.07,2022-10-26 10:06:21.125000
2357,61.85,2022-10-26 10:06:21.140625
2358,63.21,2022-10-26 10:06:21.156250
2359,62.28,2022-10-26 10:06:21.171875
2360,59.45,2022-10-26 10:06:21.187500
2361,55.57,2022-10-26 10:06:21.203125
2362,51.7,2022-10-26 10:06:21.218750
2363,48.84,2022-10-26 10:06:21.234375
2364,47.53,2022-10-26 10:06:21.250000
2365,47.76,2022-10-26 10:06:21.265625
2366,49.0,2022-10-26 10:06:21.281250
2367,50.59,2022-10-26 10:06:21.296875
2368,51.95,2022-10-26 10:06:21.312500
2369,52.79,2022-10-26 10:06:21.328125
2370,53.12,2022-10-26 10:06:21.343750
2371,53.06,2022-10-26 10:06:21.359375
2372,52.62,2022-10-26 10:06:21.375000
2373,51.61,2022-10-26 10:06:21.390625
2374,49.61,2022-10-26 10:06:21.406250
2375,46.18,2022-10-26 10:06:21.421875
2376,41.04,2022-10-26 10:06:21.437500
2377,34.29,2022-10-26 10:06:21.453125
2378,26.47,2022-10-26 10:06:21.468750
2379,18.46,2022-10-26 10:06:21.484375
2380,11.18,2022-10-26 10:06:21.500000
2381,5.26,2022-10-26 10:06:21.515625
2382,0.79,2022-10-26 10:06:21.531250
2383,-2.73,2022-10-26 10:06:21.546875
2384,-6.19,2022-10-26 10:06:21.562500
2385,-10.47,2022-10-26 10:06:21.578125
2386,-16.05,2022-10-26 10:06:21.593750
2387,-22.77,2022-10-26 10:06:21.609375
2388,-29.97,2022-10-26 10:06:21.625000
2389,-36.75,2022-10-26 10:06:21.640625
2390,-42.36,2022-10-26 10:06:21.656250
2391,-46.56,2022-10-26 10:06:21.671875
2392,-49.72,2022-10-26 10:06:21.687500
2393,-52.65,2022-10-26 10:06:21.703125
2394,-56.34,2022-10-26 10:06:21.718750
2395,-61.78,2022-10-26 10:06:21.734375
2396,-69.69,2022-10-26 10:06:21.750000
2397,-80.28,2022-10-26 10:06:21.765625
2398,-93.02,2022-10-26 10:06:21.781250
2399,-106.36,2022-10-26 10:06:21.796875
2400,-117.72,2022-10-26 10:06:21.812500
2401,-124.0,2022-10-26 10:06:21.828125
2402,-122.41,2022-10-26 10:06:21.843750
2403,-111.53,2022-10-26 10:06:21.859375
2404,-91.96,2022-10-26 10:06:21.875000
2405,-66.25,2022-10-26 10:06:21.890625
2406,-38.14,2022-10-26 10:06:21.906250
2407,-11.31,2022-10-26 10:06:21.921875
2408,11.66,2022-10-26 10:06:21.937500
2409,29.67,2022-10-26 10:06:21.953125
2410,42.88,2022-10-26 10:06:21.968750
2411,52.03,2022-10-26 10:06:21.984375
2412,57.88,2022-10-26 10:06:22.000000
2413,60.83,2022-10-26 10:06:22.015625
2414,61.08,2022-10-26 10:06:22.031250
2415,58.92,2022-10-26 10:06:22.046875
2416,54.91,2022-10-26 10:06:22.062500
2417,49.95,2022-10-26 10:06:22.078125
2418,45.07,2022-10-26 10:06:22.093750
2419,41.23,2022-10-26 10:06:22.109375
2420,39.01,2022-10-26 10:06:22.125000
2421,38.59,2022-10-26 10:06:22.140625
2422,39.68,2022-10-26 10:06:22.156250
2423,41.72,2022-10-26 10:06:22.171875
2424,44.09,2022-10-26 10:06:22.187500
2425,46.22,2022-10-26 10:06:22.203125
2426,47.7,2022-10-26 10:06:22.218750
2427,48.18,2022-10-26 10:06:22.234375
2428,47.37,2022-10-26 10:06:22.250000
2429,44.98,2022-10-26 10:06:22.265625
2430,40.9,2022-10-26 10:06:22.281250
2431,35.28,2022-10-26 10:06:22.296875
2432,28.6,2022-10-26 10:06:22.312500
2433,21.49,2022-10-26 10:06:22.328125
2434,14.52,2022-10-26 10:06:22.343750
2435,7.88,2022-10-26 10:06:22.359375
2436,1.41,2022-10-26 10:06:22.375000
2437,-5.29,2022-10-26 10:06:22.390625
2438,-12.46,2022-10-26 10:06:22.406250
2439,-19.98,2022-10-26 10:06:22.421875
2440,-27.35,2022-10-26 10:06:22.437500
2441,-33.94,2022-10-26 10:06:22.453125
2442,-39.35,2022-10-26 10:06:22.468750
2443,-43.7,2022-10-26 10:06:22.484375
2444,-47.61,2022-10-26 10:06:22.500000
2445,-52.0,2022-10-26 10:06:22.515625
2446,-57.8,2022-10-26 10:06:22.531250
2447,-65.67,2022-10-26 10:06:22.546875
2448,-75.69,2022-10-26 10:06:22.562500
2449,-87.18,2022-10-26 10:06:22.578125
2450,-98.49,2022-10-26 10:06:22.593750
2451,-107.1,2022-10-26 10:06:22.609375
2452,-110.21,2022-10-26 10:06:22.625000
2453,-105.5,2022-10-26 10:06:22.640625
2454,-92.1,2022-10-26 10:06:22.656250
2455,-71.11,2022-10-26 10:06:22.671875
2456,-45.38,2022-10-26 10:06:22.687500
2457,-18.62,2022-10-26 10:06:22.703125
2458,5.78,2022-10-26 10:06:22.718750
2459,25.74,2022-10-26 10:06:22.734375
2460,40.73,2022-10-26 10:06:22.750000
2461,51.32,2022-10-26 10:06:22.765625
2462,58.51,2022-10-26 10:06:22.781250
2463,63.0,2022-10-26 10:06:22.796875
2464,65.09,2022-10-26 10:06:22.812500
2465,64.83,2022-10-26 10:06:22.828125
2466,62.51,2022-10-26 10:06:22.843750
2467,58.77,2022-10-26 10:06:22.859375
2468,54.6,2022-10-26 10:06:22.875000
2469,51.07,2022-10-26 10:06:22.890625
2470,48.9,2022-10-26 10:06:22.906250
2471,48.32,2022-10-26 10:06:22.921875
2472,49.06,2022-10-26 10:06:22.937500
2473,50.54,2022-10-26 10:06:22.953125
2474,52.1,2022-10-26 10:06:22.968750
2475,53.32,2022-10-26 10:06:22.984375
2476,54.01,2022-10-26 10:06:23.000000
2477,54.2,2022-10-26 10:06:23.015625
2478,53.96,2022-10-26 10:06:23.031250
2479,53.2,2022-10-26 10:06:23.046875
2480,51.64,2022-10-26 10:06:23.062500
2481,48.83,2022-10-26 10:06:23.078125
2482,44.38,2022-10-26 10:06:23.093750
2483,38.23,2022-10-26 10:06:23.109375
2484,30.74,2022-10-26 10:06:23.125000
2485,22.69,2022-10-26 10:06:23.140625
2486,15.01,2022-10-26 10:06:23.156250
2487,8.41,2022-10-26 10:06:23.171875
2488,3.08,2022-10-26 10:06:23.187500
2489,-1.4,2022-10-26 10:06:23.203125
2490,-5.88,2022-10-26 10:06:23.218750
2491,-11.24,2022-10-26 10:06:23.234375
2492,-17.96,2022-10-26 10:06:23.250000
2493,-25.92,2022-10-26 10:06:23.265625
2494,-34.42,2022-10-26 10:06:23.281250
2495,-42.43,2022-10-26 10:06:23.296875
2496,-49.09,2022-10-26 10:06:23.312500
2497,-54.06,2022-10-26 10:06:23.328125
2498,-57.67,2022-10-26 10:06:23.343750
2499,-60.88,2022-10-26 10:06:23.359375
2500,-64.93,2022-10-26 10:06:23.375000
2501,-71.05,2022-10-26 10:06:23.390625
2502,-80.06,2022-10-26 10:06:23.406250
2503,-92.0,2022-10-26 10:06:23.421875
2504,-105.83,2022-10-26 10:06:23.437500
2505,-119.34,2022-10-26 10:06:23.453125
2506,-129.34,2022-10-26 10:06:23.468750
2507,-132.52,2022-10-26 10:06:23.484375
2508,-126.35,2022-10-26 10:06:23.500000
2509,-110.18,2022-10-26 10:06:23.515625
2510,-85.58,2022-10-26 10:06:23.531250
2511,-56.02,2022-10-26 10:06:23.546875
2512,-25.7,2022-10-26 10:06:23.562500
2513,1.72,2022-10-26 10:06:23.578125
2514,24.12,2022-10-26 10:06:23.593750
2515,41.11,2022-10-26 10:06:23.609375
2516,53.46,2022-10-26 10:06:23.625000
2517,62.33,2022-10-26 10:06:23.640625
2518,68.48,2022-10-26 10:06:23.656250
2519,72.17,2022-10-26 10:06:23.671875
2520,73.38,2022-10-26 10:06:23.687500
2521,72.31,2022-10-26 10:06:23.703125
2522,69.61,2022-10-26 10:06:23.718750
2523,66.3,2022-10-26 10:06:23.734375
2524,63.45,2022-10-26 10:06:23.750000
2525,61.8,2022-10-26 10:06:23.765625
2526,61.53,2022-10-26 10:06:23.781250
2527,62.33,2022-10-26 10:06:23.796875
2528,63.66,2022-10-26 10:06:23.812500
2529,65.08,2022-10-26 10:06:23.828125
2530,66.35,2022-10-26 10:06:23.843750
2531,67.4,2022-10-26 10:06:23.859375
2532,68.12,2022-10-26 10:06:23.875000
2533,68.24,2022-10-26 10:06:23.890625
2534,67.34,2022-10-26 10:06:23.906250
2535,65.04,2022-10-26 10:06:23.921875
2536,61.22,2022-10-26 10:06:23.937500
2537,56.12,2022-10-26 10:06:23.953125
2538,50.29,2022-10-26 10:06:23.968750
2539,44.33,2022-10-26 10:06:23.984375
2540,38.6,2022-10-26 10:06:24.000000
2541,33.12,2022-10-26 10:06:24.015625
2542,27.65,2022-10-26 10:06:24.031250
2543,21.82,2022-10-26 10:06:24.046875
2544,15.5,2022-10-26 10:06:24.062500
2545,8.85,2022-10-26 10:06:24.078125
2546,2.28,2022-10-26 10:06:24.093750
2547,-3.8,2022-10-26 10:06:24.109375
2548,-9.18,2022-10-26 10:06:24.125000
2549,-14.02,2022-10-26 10:06:24.140625
2550,-18.78,2022-10-26 10:06:24.156250
2551,-23.97,2022-10-26 10:06:24.171875
2552,-29.9,2022-10-26 10:06:24.187500
2553,-36.45,2022-10-26 10:06:24.203125
2554,-43.24,2022-10-26 10:06:24.218750
2555,-49.75,2022-10-26 10:06:24.234375
2556,-55.67,2022-10-26 10:06:24.250000
2557,-61.07,2022-10-26 10:06:24.265625
2558,-66.36,2022-10-26 10:06:24.281250
2559,-72.22,2022-10-26 10:06:24.296875
2560,-79.36,2022-10-26 10:06:24.312500
2561,-88.37,2022-10-26 10:06:24.328125
2562,-99.57,2022-10-26 10:06:24.343750
2563,-112.69,2022-10-26 10:06:24.359375
2564,-126.49,2022-10-26 10:06:24.375000
2565,-138.64,2022-10-26 10:06:24.390625
2566,-145.99,2022-10-26 10:06:24.406250
2567,-145.33,2022-10-26 10:06:24.421875
2568,-134.64,2022-10-26 10:06:24.437500
2569,-113.97,2022-10-26 10:06:24.453125
2570,-85.71,2022-10-26 10:06:24.468750
2571,-53.88,2022-10-26 10:06:24.484375
2572,-22.82,2022-10-26 10:06:24.500000
2573,4.13,2022-10-26 10:06:24.515625
2574,25.34,2022-10-26 10:06:24.531250
2575,40.79,2022-10-26 10:06:24.546875
2576,51.4,2022-10-26 10:06:24.562500
2577,58.24,2022-10-26 10:06:24.578125
2578,62.12,2022-10-26 10:06:24.593750
2579,63.48,2022-10-26 10:06:24.609375
2580,62.72,2022-10-26 10:06:24.625000
2581,60.39,2022-10-26 10:06:24.640625
2582,57.28,2022-10-26 10:06:24.656250
2583,54.27,2022-10-26 10:06:24.671875
2584,52.13,2022-10-26 10:06:24.687500
2585,51.35,2022-10-26 10:06:24.703125
2586,52.0,2022-10-26 10:06:24.718750
2587,53.79,2022-10-26 10:06:24.734375
2588,56.13,2022-10-26 10:06:24.750000
2589,58.33,2022-10-26 10:06:24.765625
2590,59.83,2022-10-26 10:06:24.781250
2591,60.25,2022-10-26 10:06:24.796875
2592,59.48,2022-10-26 10:06:24.812500
2593,57.6,2022-10-26 10:06:24.828125
2594,54.73,2022-10-26 10:06:24.843750
2595,50.91,2022-10-26 10:06:24.859375
2596,46.09,2022-10-26 10:06:24.875000
2597,40.21,2022-10-26 10:06:24.890625
2598,33.28,2022-10-26 10:06:24.906250
2599,25.47,2022-10-26 10:06:24.921875
2600,17.11,2022-10-26 10:06:24.937500
2601,8.67,2022-10-26 10:06:24.953125
2602,0.66,2022-10-26 10:06:24.968750
2603,-6.45,2022-10-26 10:06:24.984375
2604,-12.44,2022-10-26 10:06:25.000000
2605,-17.32,2022-10-26 10:06:25.015625
2606,-21.46,2022-10-26 10:06:25.031250
2607,-25.41,2022-10-26 10:06:25.046875
2608,-29.81,2022-10-26 10:06:25.062500
2609,-35.25,2022-10-26 10:06:25.078125
2610,-42.15,2022-10-26 10:06:25.093750
2611,-50.74,2022-10-26 10:06:25.109375
2612,-60.96,2022-10-26 10:06:25.125000
2613,-72.25,2022-10-26 10:06:25.140625
2614,-83.31,2022-10-26 10:06:25.156250
2615,-92.04,2022-10-26 10:06:25.171875
2616,-95.96,2022-10-26 10:06:25.187500
2617,-92.84,2022-10-26 10:06:25.203125
2618,-81.72,2022-10-26 10:06:25.218750
2619,-63.36,2022-10-26 10:06:25.234375
2620,-40.24,2022-10-26 10:06:25.250000
2621,-15.74,2022-10-26 10:06:25.265625
2622,6.97,2022-10-26 10:06:25.281250
2623,25.87,2022-10-26 10:06:25.296875
2624,40.37,2022-10-26 10:06:25.312500
2625,50.88,2022-10-26 10:06:25.328125
2626,58.15,2022-10-26 10:06:25.343750
2627,62.54,2022-10-26 10:06:25.359375
2628,63.94,2022-10-26 10:06:25.375000
2629,62.1,2022-10-26 10:06:25.390625
2630,57.14,2022-10-26 10:06:25.406250
2631,49.89,2022-10-26 10:06:25.421875
2632,41.93,2022-10-26 10:06:25.437500
2633,35.08,2022-10-26 10:06:25.453125
2634,30.79,2022-10-26 10:06:25.468750
2635,29.61,2022-10-26 10:06:25.484375
2636,31.07,2022-10-26 10:06:25.500000
2637,33.91,2022-10-26 10:06:25.515625
2638,36.62,2022-10-26 10:06:25.531250
2639,38.05,2022-10-26 10:06:25.546875
2640,37.7,2022-10-26 10:06:25.562500
2641,35.72,2022-10-26 10:06:25.578125
2642,32.64,2022-10-26 10:06:25.593750
2643,28.93,2022-10-26 10:06:25.609375
2644,24.76,2022-10-26 10:06:25.625000
2645,19.91,2022-10-26 10:06:25.640625
2646,14.04,2022-10-26 10:06:25.656250
2647,6.89,2022-10-26 10:06:25.671875
2648,-1.43,2022-10-26 10:06:25.687500
2649,-10.43,2022-10-26 10:06:25.703125
2650,-19.45,2022-10-26 10:06:25.718750
2651,-27.89,2022-10-26 10:06:25.734375
2652,-35.44,2022-10-26 10:06:25.750000
2653,-42.19,2022-10-26 10:06:25.765625
2654,-48.55,2022-10-26 10:06:25.781250
2655,-55.04,2022-10-26 10:06:25.796875
2656,-62.23,2022-10-26 10:06:25.812500
2657,-70.59,2022-10-26 10:06:25.828125
2658,-80.49,2022-10-26 10:06:25.843750
2659,-92.07,2022-10-26 10:06:25.859375
2660,-104.92,2022-10-26 10:06:25.875000
2661,-117.77,2022-10-26 10:06:25.890625
2662,-128.34,2022-10-26 10:06:25.906250
2663,-133.7,2022-10-26 10:06:25.921875
2664,-131.17,2022-10-26 10:06:25.937500
2665,-119.4,2022-10-26 10:06:25.953125
2666,-99.08,2022-10-26 10:06:25.968750
2667,-72.96,2022-10-26 10:06:25.984375
2668,-44.95,2022-10-26 10:06:26.000000
2669,-18.8,2022-10-26 10:06:26.015625
2670,3.03,2022-10-26 10:06:26.031250
2671,19.82,2022-10-26 10:06:26.046875
2672,32.21,2022-10-26 10:06:26.062500
2673,41.31,2022-10-26 10:06:26.078125
2674,47.93,2022-10-26 10:06:26.093750
2675,52.24,2022-10-26 10:06:26.109375
2676,53.98,2022-10-26 10:06:26.125000
2677,53.07,2022-10-26 10:06:26.140625
2678,50.02,2022-10-26 10:06:26.156250
2679,46.05,2022-10-26 10:06:26.171875
2680,42.61,2022-10-26 10:06:26.187500
2681,40.82,2022-10-26 10:06:26.203125
2682,41.01,2022-10-26 10:06:26.218750
2683,42.58,2022-10-26 10:06:26.234375
2684,44.4,2022-10-26 10:06:26.250000
2685,45.43,2022-10-26 10:06:26.265625
2686,45.18,2022-10-26 10:06:26.281250
2687,43.87,2022-10-26 10:06:26.296875
2688,42.12,2022-10-26 10:06:26.312500
2689,40.46,2022-10-26 10:06:26.328125
2690,38.96,2022-10-26 10:06:26.343750
2691,37.11,2022-10-26 10:06:26.359375
2692,34.1,2022-10-26 10:06:26.375000
2693,29.28,2022-10-26 10:06:26.390625
2694,22.45,2022-10-26 10:06:26.406250
2695,14.02,2022-10-26 10:06:26.421875
2696,4.82,2022-10-26 10:06:26.437500
2697,-4.22,2022-10-26 10:06:26.453125
2698,-12.32,2022-10-26 10:06:26.468750
2699,-19.17,2022-10-26 10:06:26.484375
2700,-24.93,2022-10-26 10:06:26.500000
2701,-30.17,2022-10-26 10:06:26.515625
2702,-35.77,2022-10-26 10:06:26.531250
2703,-42.59,2022-10-26 10:06:26.546875
2704,-51.24,2022-10-26 10:06:26.562500
2705,-61.85,2022-10-26 10:06:26.578125
2706,-73.85,2022-10-26 10:06:26.593750
2707,-85.91,2022-10-26 10:06:26.609375
2708,-96.06,2022-10-26 10:06:26.625000
2709,-102.02,2022-10-26 10:06:26.640625
2710,-101.73,2022-10-26 10:06:26.656250
2711,-94.02,2022-10-26 10:06:26.671875
2712,-79.03,2022-10-26 10:06:26.687500
2713,-58.34,2022-10-26 10:06:26.703125
2714,-34.53,2022-10-26 10:06:26.718750
2715,-10.54,2022-10-26 10:06:26.734375
2716,11.2,2022-10-26 10:06:26.750000
2717,29.2,2022-10-26 10:06:26.765625
2718,43.07,2022-10-26 10:06:26.781250
2719,53.22,2022-10-26 10:06:26.796875
2720,60.32,2022-10-26 10:06:26.812500
2721,64.95,2022-10-26 10:06:26.828125
2722,67.39,2022-10-26 10:06:26.843750
2723,67.81,2022-10-26 10:06:26.859375
2724,66.47,2022-10-26 10:06:26.875000
2725,63.91,2022-10-26 10:06:26.890625
2726,60.96,2022-10-26 10:06:26.906250
2727,58.55,2022-10-26 10:06:26.921875
2728,57.44,2022-10-26 10:06:26.937500
2729,57.88,2022-10-26 10:06:26.953125
2730,59.62,2022-10-26 10:06:26.968750
2731,61.92,2022-10-26 10:06:26.984375
2732,63.93,2022-10-26 10:06:27.000000
2733,64.88,2022-10-26 10:06:27.015625
2734,64.34,2022-10-26 10:06:27.031250
2735,62.28,2022-10-26 10:06:27.046875
2736,58.93,2022-10-26 10:06:27.062500
2737,54.61,2022-10-26 10:06:27.078125
2738,49.62,2022-10-26 10:06:27.093750
2739,44.1,2022-10-26 10:06:27.109375
2740,38.06,2022-10-26 10:06:27.125000
2741,31.43,2022-10-26 10:06:27.140625
2742,24.15,2022-10-26 10:06:27.156250
2743,16.25,2022-10-26 10:06:27.171875
2744,7.87,2022-10-26 10:06:27.187500
2745,-0.72,2022-10-26 10:06:27.203125
2746,-9.2,2022-10-26 10:06:27.218750
2747,-17.26,2022-10-26 10:06:27.234375
2748,-24.65,2022-10-26 10:06:27.250000
2749,-31.33,2022-10-26 10:06:27.265625
2750,-37.41,2022-10-26 10:06:27.281250
2751,-43.18,2022-10-26 10:06:27.296875
2752,-49.09,2022-10-26 10:06:27.312500
2753,-55.71,2022-10-26 10:06:27.328125
2754,-63.72,2022-10-26 10:06:27.343750
2755,-73.63,2022-10-26 10:06:27.359375
2756,-85.37,2022-10-26 10:06:27.375000
2757,-97.85,2022-10-26 10:06:27.390625
2758,-108.85,2022-10-26 10:06:27.406250
2759,-115.35,2022-10-26 10:06:27.421875
2760,-114.5,2022-10-26 10:06:27.437500
2761,-104.72,2022-10-26 10:06:27.453125
2762,-86.44,2022-10-26 10:06:27.468750
2763,-62.12,2022-10-26 10:06:27.484375
2764,-35.43,2022-10-26 10:06:27.500000
2765,-9.98,2022-10-26 10:06:27.515625
2766,11.77,2022-10-26 10:06:27.531250
2767,28.9,2022-10-26 10:06:27.546875
2768,41.74,2022-10-26 10:06:27.562500
2769,51.15,2022-10-26 10:06:27.578125
2770,57.81,2022-10-26 10:06:27.593750
2771,62.04,2022-10-26 10:06:27.609375
2772,63.87,2022-10-26 10:06:27.625000
2773,63.49,2022-10-26 10:06:27.640625
2774,61.44,2022-10-26 10:06:27.656250
2775,58.58,2022-10-26 10:06:27.671875
2776,55.86,2022-10-26 10:06:27.687500
2777,53.96,2022-10-26 10:06:27.703125
2778,53.19,2022-10-26 10:06:27.718750
2779,53.43,2022-10-26 10:06:27.734375
2780,54.31,2022-10-26 10:06:27.750000
2781,55.34,2022-10-26 10:06:27.765625
2782,56.09,2022-10-26 10:06:27.781250
2783,56.16,2022-10-26 10:06:27.796875
2784,55.22,2022-10-26 10:06:27.812500
2785,53.06,2022-10-26 10:06:27.828125
2786,49.56,2022-10-26 10:06:27.843750
2787,44.79,2022-10-26 10:06:27.859375
2788,38.91,2022-10-26 10:06:27.875000
2789,32.23,2022-10-26 10:06:27.890625
2790,24.99,2022-10-26 10:06:27.906250
2791,17.36,2022-10-26 10:06:27.921875
2792,9.42,2022-10-26 10:06:27.937500
2793,1.24,2022-10-26 10:06:27.953125
2794,-7.03,2022-10-26 10:06:27.968750
2795,-15.11,2022-10-26 10:06:27.984375
2796,-22.68,2022-10-26 10:06:28.000000
2797,-29.47,2022-10-26 10:06:28.015625
2798,-35.38,2022-10-26 10:06:28.031250
2799,-40.61,2022-10-26 10:06:28.046875
2800,-45.53,2022-10-26 10:06:28.062500
2801,-50.65,2022-10-26 10:06:28.078125
2802,-56.44,2022-10-26 10:06:28.093750
2803,-63.25,2022-10-26 10:06:28.109375
2804,-71.26,2022-10-26 10:06:28.125000
2805,-80.27,2022-10-26 10:06:28.140625
2806,-89.51,2022-10-26 10:06:28.156250
2807,-97.57,2022-10-26 10:06:28.171875
2808,-102.48,2022-10-26 10:06:28.187500
2809,-102.16,2022-10-26 10:06:28.203125
2810,-95.13,2022-10-26 10:06:28.218750
2811,-81.15,2022-10-26 10:06:28.234375
2812,-61.51,2022-10-26 10:06:28.250000
2813,-38.71,2022-10-26 10:06:28.265625
2814,-15.66,2022-10-26 10:06:28.281250
2815,5.22,2022-10-26 10:06:28.296875
2816,22.58,2022-10-26 10:06:28.312500
2817,36.17,2022-10-26 10:06:28.328125
2818,46.4,2022-10-26 10:06:28.343750
2819,53.77,2022-10-26 10:06:28.359375
2820,58.57,2022-10-26 10:06:28.375000
2821,60.86,2022-10-26 10:06:28.390625
2822,60.78,2022-10-26 10:06:28.406250
2823,58.79,2022-10-26 10:06:28.421875
2824,55.76,2022-10-26 10:06:28.437500
2825,52.77,2022-10-26 10:06:28.453125
2826,50.86,2022-10-26 10:06:28.468750
2827,50.65,2022-10-26 10:06:28.484375
2828,52.22,2022-10-26 10:06:28.500000
2829,55.08,2022-10-26 10:06:28.515625
2830,58.35,2022-10-26 10:06:28.531250
2831,61.04,2022-10-26 10:06:28.546875
2832,62.35,2022-10-26 10:06:28.562500
2833,61.88,2022-10-26 10:06:28.578125
2834,59.73,2022-10-26 10:06:28.593750
2835,56.31,2022-10-26 10:06:28.609375
2836,52.15,2022-10-26 10:06:28.625000
2837,47.61,2022-10-26 10:06:28.640625
2838,42.78,2022-10-26 10:06:28.656250
2839,37.49,2022-10-26 10:06:28.671875
2840,31.53,2022-10-26 10:06:28.687500
2841,24.8,2022-10-26 10:06:28.703125
2842,17.43,2022-10-26 10:06:28.718750
2843,9.79,2022-10-26 10:06:28.734375
2844,2.34,2022-10-26 10:06:28.750000
2845,-4.58,2022-10-26 10:06:28.765625
2846,-10.83,2022-10-26 10:06:28.781250
2847,-16.54,2022-10-26 10:06:28.796875
2848,-22.03,2022-10-26 10:06:28.812500
2849,-27.71,2022-10-26 10:06:28.828125
2850,-33.98,2022-10-26 10:06:28.843750
2851,-41.23,2022-10-26 10:06:28.859375
2852,-49.82,2022-10-26 10:06:28.875000
2853,-60.01,2022-10-26 10:06:28.890625
2854,-71.65,2022-10-26 10:06:28.906250
2855,-83.79,2022-10-26 10:06:28.921875
2856,-94.55,2022-10-26 10:06:28.937500
2857,-101.32,2022-10-26 10:06:28.953125
2858,-101.53,2022-10-26 10:06:28.968750
2859,-93.64,2022-10-26 10:06:28.984375
2860,-77.88,2022-10-26 10:06:29.000000
2861,-56.38,2022-10-26 10:06:29.015625
2862,-32.51,2022-10-26 10:06:29.031250
2863,-9.66,2022-10-26 10:06:29.046875
2864,9.8,2022-10-26 10:06:29.062500
2865,25.05,2022-10-26 10:06:29.078125
2866,36.6,2022-10-26 10:06:29.093750
2867,45.49,2022-10-26 10:06:29.109375
2868,52.58,2022-10-26 10:06:29.125000
2869,58.06,2022-10-26 10:06:29.140625
2870,61.66,2022-10-26 10:06:29.156250
2871,63.05,2022-10-26 10:06:29.171875
2872,62.38,2022-10-26 10:06:29.187500
2873,60.39,2022-10-26 10:06:29.203125
2874,58.24,2022-10-26 10:06:29.218750
2875,56.99,2022-10-26 10:06:29.234375
2876,57.21,2022-10-26 10:06:29.250000
2877,58.7,2022-10-26 10:06:29.265625
2878,60.67,2022-10-26 10:06:29.281250
2879,62.19,2022-10-26 10:06:29.296875
2880,62.55,2022-10-26 10:06:29.312500
2881,61.56,2022-10-26 10:06:29.328125
2882,59.5,2022-10-26 10:06:29.343750
2883,56.93,2022-10-26 10:06:29.359375
2884,54.28,2022-10-26 10:06:29.375000
2885,51.63,2022-10-26 10:06:29.390625
2886,48.63,2022-10-26 10:06:29.406250
2887,44.71,2022-10-26 10:06:29.421875
2888,39.37,2022-10-26 10:06:29.437500
2889,32.49,2022-10-26 10:06:29.453125
2890,24.44,2022-10-26 10:06:29.468750
2891,15.95,2022-10-26 10:06:29.484375
2892,7.89,2022-10-26 10:06:29.500000
2893,0.89,2022-10-26 10:06:29.515625
2894,-4.77,2022-10-26 10:06:29.531250
2895,-9.29,2022-10-26 10:06:29.546875
2896,-13.17,2022-10-26 10:06:29.562500
2897,-17.04,2022-10-26 10:06:29.578125
2898,-21.48,2022-10-26 10:06:29.593750
2899,-26.73,2022-10-26 10:06:29.609375
2900,-32.67,2022-10-26 10:06:29.625000
2901,-38.82,2022-10-26 10:06:29.640625
2902,-44.59,2022-10-26 10:06:29.656250
2903,-49.54,2022-10-26 10:06:29.671875
2904,-53.63,2022-10-26 10:06:29.687500
2905,-57.32,2022-10-26 10:06:29.703125
2906,-61.41,2022-10-26 10:06:29.718750
2907,-66.81,2022-10-26 10:06:29.734375
2908,-74.14,2022-10-26 10:06:29.750000
2909,-83.61,2022-10-26 10:06:29.765625
2910,-94.84,2022-10-26 10:06:29.781250
2911,-106.76,2022-10-26 10:06:29.796875
2912,-117.58,2022-10-26 10:06:29.812500
2913,-125.03,2022-10-26 10:06:29.828125
2914,-126.7,2022-10-26 10:06:29.843750
2915,-120.8,2022-10-26 10:06:29.859375
2916,-106.81,2022-10-26 10:06:29.875000
2917,-85.91,2022-10-26 10:06:29.890625
2918,-60.68,2022-10-26 10:06:29.906250
2919,-34.39,2022-10-26 10:06:29.921875
2920,-9.99,2022-10-26 10:06:29.937500
2921,10.65,2022-10-26 10:06:29.953125
2922,26.97,2022-10-26 10:06:29.968750
2923,39.42,2022-10-26 10:06:29.984375
2924,48.91,2022-10-26 10:06:30.000000
2925,56.24,2022-10-26 10:06:30.015625
2926,61.82,2022-10-26 10:06:30.031250
2927,65.71,2022-10-26 10:06:30.046875
2928,67.86,2022-10-26 10:06:30.062500
2929,68.35,2022-10-26 10:06:30.078125
2930,67.49,2022-10-26 10:06:30.093750
2931,65.89,2022-10-26 10:06:30.109375
2932,64.28,2022-10-26 10:06:30.125000
2933,63.34,2022-10-26 10:06:30.140625
2934,63.48,2022-10-26 10:06:30.156250
2935,64.73,2022-10-26 10:06:30.171875
2936,66.69,2022-10-26 10:06:30.187500
2937,68.76,2022-10-26 10:06:30.203125
2938,70.33,2022-10-26 10:06:30.218750
2939,71.0,2022-10-26 10:06:30.234375
2940,70.6,2022-10-26 10:06:30.250000
2941,69.11,2022-10-26 10:06:30.265625
2942,66.47,2022-10-26 10:06:30.281250
2943,62.53,2022-10-26 10:06:30.296875
2944,57.15,2022-10-26 10:06:30.312500
2945,50.36,2022-10-26 10:06:30.328125
2946,42.62,2022-10-26 10:06:30.343750
2947,34.76,2022-10-26 10:06:30.359375
2948,27.75,2022-10-26 10:06:30.375000
2949,22.31,2022-10-26 10:06:30.390625
2950,18.55,2022-10-26 10:06:30.406250
2951,15.93,2022-10-26 10:06:30.421875
2952,13.48,2022-10-26 10:06:30.437500
2953,10.27,2022-10-26 10:06:30.453125
2954,5.74,2022-10-26 10:06:30.468750
2955,-0.07,2022-10-26 10:06:30.484375
2956,-6.7,2022-10-26 10:06:30.500000
2957,-13.5,2022-10-26 10:06:30.515625
2958,-19.96,2022-10-26 10:06:30.531250
2959,-25.82,2022-10-26 10:06:30.546875
2960,-31.15,2022-10-26 10:06:30.562500
2961,-36.22,2022-10-26 10:06:30.578125
2962,-41.5,2022-10-26 10:06:30.593750
2963,-47.55,2022-10-26 10:06:30.609375
2964,-55.08,2022-10-26 10:06:30.625000
2965,-64.74,2022-10-26 10:06:30.640625
2966,-76.86,2022-10-26 10:06:30.656250
2967,-90.98,2022-10-26 10:06:30.671875
2968,-105.57,2022-10-26 10:06:30.687500
2969,-118.07,2022-10-26 10:06:30.703125
2970,-125.39,2022-10-26 10:06:30.718750
2971,-124.9,2022-10-26 10:06:30.734375
2972,-115.31,2022-10-26 10:06:30.750000
2973,-97.3,2022-10-26 10:06:30.765625
2974,-73.34,2022-10-26 10:06:30.781250
2975,-46.9,2022-10-26 10:06:30.796875
2976,-21.4,2022-10-26 10:06:30.812500
2977,0.71,2022-10-26 10:06:30.828125
2978,18.37,2022-10-26 10:06:30.843750
2979,31.7,2022-10-26 10:06:30.859375
2980,41.49,2022-10-26 10:06:30.875000
2981,48.64,2022-10-26 10:06:30.890625
2982,53.77,2022-10-26 10:06:30.906250
2983,57.22,2022-10-26 10:06:30.921875
2984,59.17,2022-10-26 10:06:30.937500
2985,59.9,2022-10-26 10:06:30.953125
2986,59.85,2022-10-26 10:06:30.968750
2987,59.67,2022-10-26 10:06:30.984375
2988,59.94,2022-10-26 10:06:31.000000
2989,61.04,2022-10-26 10:06:31.015625
2990,62.91,2022-10-26 10:06:31.031250
2991,65.09,2022-10-26 10:06:31.046875
2992,66.92,2022-10-26 10:06:31.062500
2993,67.84,2022-10-26 10:06:31.078125
2994,67.62,2022-10-26 10:06:31.093750
2995,66.37,2022-10-26 10:06:31.109375
2996,64.42,2022-10-26 10:06:31.125000
2997,61.99,2022-10-26 10:06:31.140625
2998,59.05,2022-10-26 10:06:31.156250
2999,55.37,2022-10-26 10:06:31.171875
3000,50.66,2022-10-26 10:06:31.187500
3001,44.92,2022-10-26 10:06:31.203125
3002,38.53,2022-10-26 10:06:31.218750
3003,32.18,2022-10-26 10:06:31.234375
3004,26.55,2022-10-26 10:06:31.250000
3005,21.95,2022-10-26 10:06:31.265625
3006,18.1,2022-10-26 10:06:31.281250
3007,14.29,2022-10-26 10:06:31.296875
3008,9.66,2022-10-26 10:06:31.312500
3009,3.59,2022-10-26 10:06:31.328125
3010,-3.92,2022-10-26 10:06:31.343750
3011,-12.35,2022-10-26 10:06:31.359375
3012,-20.81,2022-10-26 10:06:31.375000
3013,-28.53,2022-10-26 10:06:31.390625
3014,-35.07,2022-10-26 10:06:31.406250
3015,-40.56,2022-10-26 10:06:31.421875
3016,-45.6,2022-10-26 10:06:31.437500
3017,-51.05,2022-10-26 10:06:31.453125
3018,-57.84,2022-10-26 10:06:31.468750
3019,-66.58,2022-10-26 10:06:31.484375
3020,-77.23,2022-10-26 10:06:31.500000
3021,-88.86,2022-10-26 10:06:31.515625
3022,-99.56,2022-10-26 10:06:31.531250
3023,-106.77,2022-10-26 10:06:31.546875
3024,-108.0,2022-10-26 10:06:31.562500
3025,-101.69,2022-10-26 10:06:31.578125
3026,-87.85,2022-10-26 10:06:31.593750
3027,-68.18,2022-10-26 10:06:31.609375
3028,-45.53,2022-10-26 10:06:31.625000
3029,-22.99,2022-10-26 10:06:31.640625
3030,-2.93,2022-10-26 10:06:31.656250
3031,13.45,2022-10-26 10:06:31.671875
3032,26.11,2022-10-26 10:06:31.687500
3033,35.66,2022-10-26 10:06:31.703125
3034,42.77,2022-10-26 10:06:31.718750
3035,47.88,2022-10-26 10:06:31.734375
3036,51.08,2022-10-26 10:06:31.750000
3037,52.42,2022-10-26 10:06:31.765625
3038,52.05,2022-10-26 10:06:31.781250
3039,50.42,2022-10-26 10:06:31.796875
3040,48.18,2022-10-26 10:06:31.812500
3041,46.02,2022-10-26 10:06:31.828125
3042,44.51,2022-10-26 10:06:31.843750
3043,43.94,2022-10-26 10:06:31.859375
3044,44.33,2022-10-26 10:06:31.875000
3045,45.48,2022-10-26 10:06:31.890625
3046,47.06,2022-10-26 10:06:31.906250
3047,48.75,2022-10-26 10:06:31.921875
3048,50.23,2022-10-26 10:06:31.937500
3049,51.27,2022-10-26 10:06:31.953125
3050,51.64,2022-10-26 10:06:31.968750
3051,51.12,2022-10-26 10:06:31.984375
3052,49.43,2022-10-26 10:06:32.000000
3053,46.39,2022-10-26 10:06:32.015625
3054,41.94,2022-10-26 10:06:32.031250
3055,36.24,2022-10-26 10:06:32.046875
3056,29.6,2022-10-26 10:06:32.062500
3057,22.42,2022-10-26 10:06:32.078125
3058,15.01,2022-10-26 10:06:32.093750
3059,7.5,2022-10-26 10:06:32.109375
3060,-0.09,2022-10-26 10:06:32.125000
3061,-7.75,2022-10-26 10:06:32.140625
3062,-15.31,2022-10-26 10:06:32.156250
3063,-22.46,2022-10-26 10:06:32.171875
3064,-28.86,2022-10-26 10:06:32.187500
3065,-34.33,2022-10-26 10:06:32.203125
3066,-38.99,2022-10-26 10:06:32.218750
3067,-43.22,2022-10-26 10:06:32.234375
3068,-47.48,2022-10-26 10:06:32.250000
3069,-52.17,2022-10-26 10:06:32.265625
3070,-57.43,2022-10-26 10:06:32.281250
3071,-63.25,2022-10-26 10:06:32.296875
3072,-69.42,2022-10-26 10:06:32.312500
3073,-75.67,2022-10-26 10:06:32.328125
3074,-81.72,2022-10-26 10:06:32.343750
3075,-87.34,2022-10-26 10:06:32.359375
3076,-92.36,2022-10-26 10:06:32.375000
3077,-96.85,2022-10-26 10:06:32.390625
3078,-101.11,2022-10-26 10:06:32.406250
3079,-105.59,2022-10-26 10:06:32.421875
3080,-110.59,2022-10-26 10:06:32.437500
3081,-115.86,2022-10-26 10:06:32.453125
3082,-120.35,2022-10-26 10:06:32.468750
3083,-122.3,2022-10-26 10:06:32.484375
3084,-119.72,2022-10-26 10:06:32.500000
3085,-111.1,2022-10-26 10:06:32.515625
3086,-96.16,2022-10-26 10:06:32.531250
3087,-76.03,2022-10-26 10:06:32.546875
3088,-53.0,2022-10-26 10:06:32.562500
3089,-29.79,2022-10-26 10:06:32.578125
3090,-8.73,2022-10-26 10:06:32.593750
3091,8.78,2022-10-26 10:06:32.609375
3092,22.44,2022-10-26 10:06:32.625000
3093,32.71,2022-10-26 10:06:32.640625
3094,40.36,2022-10-26 10:06:32.656250
3095,46.1,2022-10-26 10:06:32.671875
3096,50.45,2022-10-26 10:06:32.687500
3097,53.78,2022-10-26 10:06:32.703125
3098,56.45,2022-10-26 10:06:32.718750
3099,58.78,2022-10-26 10:06:32.734375
3100,61.04,2022-10-26 10:06:32.750000
3101,63.34,2022-10-26 10:06:32.765625
3102,65.6,2022-10-26 10:06:32.781250
3103,67.58,2022-10-26 10:06:32.796875
3104,69.07,2022-10-26 10:06:32.812500
3105,70.04,2022-10-26 10:06:32.828125
3106,70.58,2022-10-26 10:06:32.843750
3107,70.97,2022-10-26 10:06:32.859375
3108,71.47,2022-10-26 10:06:32.875000
3109,72.19,2022-10-26 10:06:32.890625
3110,73.0,2022-10-26 10:06:32.906250
3111,73.46,2022-10-26 10:06:32.921875
3112,72.97,2022-10-26 10:06:32.937500
3113,70.97,2022-10-26 10:06:32.953125
3114,67.08,2022-10-26 10:06:32.968750
3115,61.32,2022-10-26 10:06:32.984375
3116,54.03,2022-10-26 10:06:33.000000
3117,45.75,2022-10-26 10:06:33.015625
3118,37.13,2022-10-26 10:06:33.031250
3119,28.69,2022-10-26 10:06:33.046875
3120,20.83,2022-10-26 10:06:33.062500
3121,13.76,2022-10-26 10:06:33.078125
3122,7.59,2022-10-26 10:06:33.093750
3123,2.27,2022-10-26 10:06:33.109375
3124,-2.39,2022-10-26 10:06:33.125000
3125,-6.6,2022-10-26 10:06:33.140625
3126,-10.59,2022-10-26 10:06:33.156250
3127,-14.6,2022-10-26 10:06:33.171875
3128,-18.85,2022-10-26 10:06:33.187500
3129,-23.68,2022-10-26 10:06:33.203125
3130,-29.59,2022-10-26 10:06:33.218750
3131,-37.12,2022-10-26 10:06:33.234375
3132,-46.67,2022-10-26 10:06:33.250000
3133,-57.93,2022-10-26 10:06:33.265625
3134,-69.7,2022-10-26 10:06:33.281250
3135,-79.83,2022-10-26 10:06:33.296875
3136,-85.82,2022-10-26 10:06:33.312500
3137,-85.55,2022-10-26 10:06:33.328125
3138,-78.16,2022-10-26 10:06:33.343750
3139,-64.33,2022-10-26 10:06:33.359375
3140,-46.15,2022-10-26 10:06:33.375000
3141,-26.36,2022-10-26 10:06:33.390625
3142,-7.53,2022-10-26 10:06:33.406250
3143,8.59,2022-10-26 10:06:33.421875
3144,21.15,2022-10-26 10:06:33.437500
3145,30.11,2022-10-26 10:06:33.453125
3146,35.76,2022-10-26 10:06:33.468750
3147,38.41,2022-10-26 10:06:33.484375
3148,38.41,2022-10-26 10:06:33.500000
3149,36.18,2022-10-26 10:06:33.515625
3150,32.44,2022-10-26 10:06:33.531250
3151,28.21,2022-10-26 10:06:33.546875
