,BVP,time
0,-28.88,2022-08-17 13:30:13.171875
1,-59.28,2022-08-17 13:30:13.187500
2,-88.67,2022-08-17 13:30:13.203125
3,-115.2,2022-08-17 13:30:13.218750
4,-137.93,2022-08-17 13:30:13.234375
5,-157.05,2022-08-17 13:30:13.250000
6,-173.58,2022-08-17 13:30:13.265625
7,-188.57,2022-08-17 13:30:13.281250
8,-202.56,2022-08-17 13:30:13.296875
9,-215.18,2022-08-17 13:30:13.312500
10,-225.66,2022-08-17 13:30:13.328125
11,-233.31,2022-08-17 13:30:13.343750
12,-238.32,2022-08-17 13:30:13.359375
13,-242.12,2022-08-17 13:30:13.375000
14,-247.28,2022-08-17 13:30:13.390625
15,-257.03,2022-08-17 13:30:13.406250
16,-274.88,2022-08-17 13:30:13.421875
17,-304.25,2022-08-17 13:30:13.437500
18,-347.73,2022-08-17 13:30:13.453125
19,-405.97,2022-08-17 13:30:13.468750
20,-476.2,2022-08-17 13:30:13.484375
21,-551.64,2022-08-17 13:30:13.500000
22,-622.26,2022-08-17 13:30:13.515625
23,-677.29,2022-08-17 13:30:13.531250
24,-708.73,2022-08-17 13:30:13.546875
25,-714.13,2022-08-17 13:30:13.562500
26,-697.16,2022-08-17 13:30:13.578125
27,-665.63,2022-08-17 13:30:13.593750
28,-627.96,2022-08-17 13:30:13.609375
29,-589.99,2022-08-17 13:30:13.625000
30,-553.82,2022-08-17 13:30:13.640625
31,-518.63,2022-08-17 13:30:13.656250
32,-482.63,2022-08-17 13:30:13.671875
33,-444.91,2022-08-17 13:30:13.687500
34,-406.12,2022-08-17 13:30:13.703125
35,-367.75,2022-08-17 13:30:13.718750
36,-330.99,2022-08-17 13:30:13.734375
37,-295.87,2022-08-17 13:30:13.750000
38,-261.38,2022-08-17 13:30:13.765625
39,-226.38,2022-08-17 13:30:13.781250
40,-190.12,2022-08-17 13:30:13.796875
41,-152.3,2022-08-17 13:30:13.812500
42,-113.15,2022-08-17 13:30:13.828125
43,-73.15,2022-08-17 13:30:13.843750
44,-33.25,2022-08-17 13:30:13.859375
45,5.11,2022-08-17 13:30:13.875000
46,40.23,2022-08-17 13:30:13.890625
47,70.75,2022-08-17 13:30:13.906250
48,95.75,2022-08-17 13:30:13.921875
49,115.55,2022-08-17 13:30:13.937500
50,131.98,2022-08-17 13:30:13.953125
51,147.86,2022-08-17 13:30:13.968750
52,165.96,2022-08-17 13:30:13.984375
53,187.82,2022-08-17 13:30:14.000000
54,213.15,2022-08-17 13:30:14.015625
55,240.04,2022-08-17 13:30:14.031250
56,265.74,2022-08-17 13:30:14.046875
57,286.41,2022-08-17 13:30:14.062500
58,298.55,2022-08-17 13:30:14.078125
59,300.43,2022-08-17 13:30:14.093750
60,293.18,2022-08-17 13:30:14.109375
61,281.13,2022-08-17 13:30:14.125000
62,270.35,2022-08-17 13:30:14.140625
63,266.39,2022-08-17 13:30:14.156250
64,271.96,2022-08-17 13:30:14.171875
65,285.29,2022-08-17 13:30:14.187500
66,299.08,2022-08-17 13:30:14.203125
67,303.52,2022-08-17 13:30:14.218750
68,290.47,2022-08-17 13:30:14.234375
69,256.76,2022-08-17 13:30:14.250000
70,205.28,2022-08-17 13:30:14.265625
71,142.82,2022-08-17 13:30:14.281250
72,76.87,2022-08-17 13:30:14.296875
73,13.39,2022-08-17 13:30:14.312500
74,-37.45,2022-08-17 13:30:14.328125
75,-66.48,2022-08-17 13:30:14.343750
76,-69.05,2022-08-17 13:30:14.359375
77,-47.63,2022-08-17 13:30:14.375000
78,-10.01,2022-08-17 13:30:14.390625
79,35.63,2022-08-17 13:30:14.406250
80,82.91,2022-08-17 13:30:14.421875
81,127.14,2022-08-17 13:30:14.437500
82,165.21,2022-08-17 13:30:14.453125
83,195.59,2022-08-17 13:30:14.468750
84,217.52,2022-08-17 13:30:14.484375
85,231.43,2022-08-17 13:30:14.500000
86,239.2,2022-08-17 13:30:14.515625
87,243.09,2022-08-17 13:30:14.531250
88,245.45,2022-08-17 13:30:14.546875
89,248.15,2022-08-17 13:30:14.562500
90,250.41,2022-08-17 13:30:14.578125
91,250.64,2022-08-17 13:30:14.593750
92,247.6,2022-08-17 13:30:14.609375
93,240.35,2022-08-17 13:30:14.625000
94,228.92,2022-08-17 13:30:14.640625
95,214.58,2022-08-17 13:30:14.656250
96,198.85,2022-08-17 13:30:14.671875
97,183.5,2022-08-17 13:30:14.687500
98,169.54,2022-08-17 13:30:14.703125
99,156.82,2022-08-17 13:30:14.718750
100,144.72,2022-08-17 13:30:14.734375
101,132.67,2022-08-17 13:30:14.750000
102,119.74,2022-08-17 13:30:14.765625
103,104.56,2022-08-17 13:30:14.781250
104,89.73,2022-08-17 13:30:14.796875
105,76.25,2022-08-17 13:30:14.812500
106,64.32,2022-08-17 13:30:14.828125
107,53.07,2022-08-17 13:30:14.843750
108,41.03,2022-08-17 13:30:14.859375
109,27.15,2022-08-17 13:30:14.875000
110,11.68,2022-08-17 13:30:14.890625
111,-3.77,2022-08-17 13:30:14.906250
112,-16.59,2022-08-17 13:30:14.921875
113,-23.79,2022-08-17 13:30:14.937500
114,-23.53,2022-08-17 13:30:14.953125
115,-15.43,2022-08-17 13:30:14.968750
116,-0.93,2022-08-17 13:30:14.984375
117,17.1,2022-08-17 13:30:15.000000
118,35.41,2022-08-17 13:30:15.015625
119,51.5,2022-08-17 13:30:15.031250
120,64.02,2022-08-17 13:30:15.046875
121,72.0,2022-08-17 13:30:15.062500
122,74.99,2022-08-17 13:30:15.078125
123,71.76,2022-08-17 13:30:15.093750
124,60.82,2022-08-17 13:30:15.109375
125,40.16,2022-08-17 13:30:15.125000
126,7.95,2022-08-17 13:30:15.140625
127,-37.04,2022-08-17 13:30:15.156250
128,-94.7,2022-08-17 13:30:15.171875
129,-162.72,2022-08-17 13:30:15.187500
130,-236.95,2022-08-17 13:30:15.203125
131,-309.19,2022-08-17 13:30:15.218750
132,-368.0,2022-08-17 13:30:15.234375
133,-400.92,2022-08-17 13:30:15.250000
134,-399.28,2022-08-17 13:30:15.265625
135,-361.89,2022-08-17 13:30:15.281250
136,-297.59,2022-08-17 13:30:15.296875
137,-222.08,2022-08-17 13:30:15.312500
138,-152.68,2022-08-17 13:30:15.328125
139,-104.75,2022-08-17 13:30:15.343750
140,-84.84,2022-08-17 13:30:15.359375
141,-90.47,2022-08-17 13:30:15.375000
142,-113.35,2022-08-17 13:30:15.390625
143,-145.01,2022-08-17 13:30:15.406250
144,-179.22,2022-08-17 13:30:15.421875
145,-214.74,2022-08-17 13:30:15.437500
146,-251.72,2022-08-17 13:30:15.453125
147,-289.89,2022-08-17 13:30:15.468750
148,-331.83,2022-08-17 13:30:15.484375
149,-378.43,2022-08-17 13:30:15.500000
150,-428.19,2022-08-17 13:30:15.515625
151,-477.28,2022-08-17 13:30:15.531250
152,-520.66,2022-08-17 13:30:15.546875
153,-552.2,2022-08-17 13:30:15.562500
154,-569.07,2022-08-17 13:30:15.578125
155,-570.64,2022-08-17 13:30:15.593750
156,-558.54,2022-08-17 13:30:15.609375
157,-540.99,2022-08-17 13:30:15.625000
158,-524.89,2022-08-17 13:30:15.640625
159,-512.48,2022-08-17 13:30:15.656250
160,-501.54,2022-08-17 13:30:15.671875
161,-488.66,2022-08-17 13:30:15.687500
162,-470.85,2022-08-17 13:30:15.703125
163,-450.83,2022-08-17 13:30:15.718750
164,-432.96,2022-08-17 13:30:15.734375
165,-391.95,2022-08-17 13:30:15.750000
166,-318.83,2022-08-17 13:30:15.765625
167,-221.75,2022-08-17 13:30:15.781250
168,-120.73,2022-08-17 13:30:15.796875
169,-34.22,2022-08-17 13:30:15.812500
170,18.58,2022-08-17 13:30:15.828125
171,45.33,2022-08-17 13:30:15.843750
172,54.0,2022-08-17 13:30:15.859375
173,50.54,2022-08-17 13:30:15.875000
174,39.99,2022-08-17 13:30:15.890625
175,24.86,2022-08-17 13:30:15.906250
176,7.52,2022-08-17 13:30:15.921875
177,-7.77,2022-08-17 13:30:15.937500
178,-15.76,2022-08-17 13:30:15.953125
179,-12.79,2022-08-17 13:30:15.968750
180,3.15,2022-08-17 13:30:15.984375
181,28.88,2022-08-17 13:30:16.000000
182,60.44,2022-08-17 13:30:16.015625
183,94.85,2022-08-17 13:30:16.031250
184,126.85,2022-08-17 13:30:16.046875
185,153.48,2022-08-17 13:30:16.062500
186,175.19,2022-08-17 13:30:16.078125
187,194.65,2022-08-17 13:30:16.093750
188,214.65,2022-08-17 13:30:16.109375
189,237.85,2022-08-17 13:30:16.125000
190,263.58,2022-08-17 13:30:16.140625
191,290.92,2022-08-17 13:30:16.156250
192,319.7,2022-08-17 13:30:16.171875
193,348.28,2022-08-17 13:30:16.187500
194,375.93,2022-08-17 13:30:16.203125
195,403.4,2022-08-17 13:30:16.218750
196,431.71,2022-08-17 13:30:16.234375
197,461.11,2022-08-17 13:30:16.250000
198,491.39,2022-08-17 13:30:16.265625
199,520.74,2022-08-17 13:30:16.281250
200,548.24,2022-08-17 13:30:16.296875
201,574.36,2022-08-17 13:30:16.312500
202,598.67,2022-08-17 13:30:16.328125
203,619.5,2022-08-17 13:30:16.343750
204,633.4,2022-08-17 13:30:16.359375
205,635.24,2022-08-17 13:30:16.375000
206,619.83,2022-08-17 13:30:16.390625
207,584.54,2022-08-17 13:30:16.406250
208,530.48,2022-08-17 13:30:16.421875
209,463.44,2022-08-17 13:30:16.437500
210,392.32,2022-08-17 13:30:16.453125
211,326.12,2022-08-17 13:30:16.468750
212,272.31,2022-08-17 13:30:16.484375
213,236.23,2022-08-17 13:30:16.500000
214,220.77,2022-08-17 13:30:16.515625
215,225.91,2022-08-17 13:30:16.531250
216,247.96,2022-08-17 13:30:16.546875
217,278.87,2022-08-17 13:30:16.562500
218,307.41,2022-08-17 13:30:16.578125
219,322.07,2022-08-17 13:30:16.593750
220,314.86,2022-08-17 13:30:16.609375
221,284.39,2022-08-17 13:30:16.625000
222,236.65,2022-08-17 13:30:16.640625
223,182.65,2022-08-17 13:30:16.656250
224,134.29,2022-08-17 13:30:16.671875
225,99.98,2022-08-17 13:30:16.687500
226,82.23,2022-08-17 13:30:16.703125
227,77.85,2022-08-17 13:30:16.718750
228,80.36,2022-08-17 13:30:16.734375
229,83.33,2022-08-17 13:30:16.750000
230,82.9,2022-08-17 13:30:16.765625
231,78.72,2022-08-17 13:30:16.781250
232,72.9,2022-08-17 13:30:16.796875
233,68.11,2022-08-17 13:30:16.812500
234,65.64,2022-08-17 13:30:16.828125
235,64.75,2022-08-17 13:30:16.843750
236,63.41,2022-08-17 13:30:16.859375
237,60.01,2022-08-17 13:30:16.875000
238,54.95,2022-08-17 13:30:16.890625
239,50.71,2022-08-17 13:30:16.906250
240,50.77,2022-08-17 13:30:16.921875
241,57.73,2022-08-17 13:30:16.937500
242,71.85,2022-08-17 13:30:16.953125
243,90.75,2022-08-17 13:30:16.968750
244,110.35,2022-08-17 13:30:16.984375
245,126.23,2022-08-17 13:30:17.000000
246,135.03,2022-08-17 13:30:17.015625
247,135.09,2022-08-17 13:30:17.031250
248,126.32,2022-08-17 13:30:17.046875
249,109.66,2022-08-17 13:30:17.062500
250,86.49,2022-08-17 13:30:17.078125
251,58.12,2022-08-17 13:30:17.093750
252,25.66,2022-08-17 13:30:17.109375
253,-9.81,2022-08-17 13:30:17.125000
254,-46.91,2022-08-17 13:30:17.140625
255,-83.77,2022-08-17 13:30:17.156250
256,-118.05,2022-08-17 13:30:17.171875
257,-147.52,2022-08-17 13:30:17.187500
258,-170.61,2022-08-17 13:30:17.203125
259,-186.94,2022-08-17 13:30:17.218750
260,-197.29,2022-08-17 13:30:17.234375
261,-203.11,2022-08-17 13:30:17.250000
262,-205.75,2022-08-17 13:30:17.265625
263,-205.85,2022-08-17 13:30:17.281250
264,-203.13,2022-08-17 13:30:17.296875
265,-196.78,2022-08-17 13:30:17.312500
266,-186.07,2022-08-17 13:30:17.328125
267,-170.84,2022-08-17 13:30:17.343750
268,-151.83,2022-08-17 13:30:17.359375
269,-130.4,2022-08-17 13:30:17.375000
270,-108.1,2022-08-17 13:30:17.390625
271,-86.2,2022-08-17 13:30:17.406250
272,-65.41,2022-08-17 13:30:17.421875
273,-45.86,2022-08-17 13:30:17.437500
274,-27.45,2022-08-17 13:30:17.453125
275,-10.2,2022-08-17 13:30:17.468750
276,5.56,2022-08-17 13:30:17.484375
277,19.2,2022-08-17 13:30:17.500000
278,29.99,2022-08-17 13:30:17.515625
279,37.48,2022-08-17 13:30:17.531250
280,41.68,2022-08-17 13:30:17.546875
281,43.02,2022-08-17 13:30:17.562500
282,42.03,2022-08-17 13:30:17.578125
283,39.05,2022-08-17 13:30:17.593750
284,33.86,2022-08-17 13:30:17.609375
285,25.85,2022-08-17 13:30:17.625000
286,14.16,2022-08-17 13:30:17.640625
287,-1.76,2022-08-17 13:30:17.656250
288,-21.9,2022-08-17 13:30:17.671875
289,-45.56,2022-08-17 13:30:17.687500
290,-71.66,2022-08-17 13:30:17.703125
291,-99.3,2022-08-17 13:30:17.718750
292,-128.07,2022-08-17 13:30:17.734375
293,-158.33,2022-08-17 13:30:17.750000
294,-190.79,2022-08-17 13:30:17.765625
295,-225.98,2022-08-17 13:30:17.781250
296,-263.5,2022-08-17 13:30:17.796875
297,-301.62,2022-08-17 13:30:17.812500
298,-337.64,2022-08-17 13:30:17.828125
299,-368.37,2022-08-17 13:30:17.843750
300,-391.19,2022-08-17 13:30:17.859375
301,-404.75,2022-08-17 13:30:17.875000
302,-409.4,2022-08-17 13:30:17.890625
303,-407.06,2022-08-17 13:30:17.906250
304,-401.16,2022-08-17 13:30:17.921875
305,-396.17,2022-08-17 13:30:17.937500
306,-396.64,2022-08-17 13:30:17.953125
307,-405.89,2022-08-17 13:30:17.968750
308,-424.19,2022-08-17 13:30:17.984375
309,-447.81,2022-08-17 13:30:18.000000
310,-469.43,2022-08-17 13:30:18.015625
311,-480.5,2022-08-17 13:30:18.031250
312,-474.47,2022-08-17 13:30:18.046875
313,-449.42,2022-08-17 13:30:18.062500
314,-408.77,2022-08-17 13:30:18.078125
315,-359.24,2022-08-17 13:30:18.093750
316,-307.74,2022-08-17 13:30:18.109375
317,-258.24,2022-08-17 13:30:18.125000
318,-210.98,2022-08-17 13:30:18.140625
319,-163.64,2022-08-17 13:30:18.156250
320,-113.94,2022-08-17 13:30:18.171875
321,-61.68,2022-08-17 13:30:18.187500
322,-8.99,2022-08-17 13:30:18.203125
323,40.83,2022-08-17 13:30:18.218750
324,85.32,2022-08-17 13:30:18.234375
325,124.06,2022-08-17 13:30:18.250000
326,158.79,2022-08-17 13:30:18.265625
327,192.24,2022-08-17 13:30:18.281250
328,226.99,2022-08-17 13:30:18.296875
329,264.68,2022-08-17 13:30:18.312500
330,305.69,2022-08-17 13:30:18.328125
331,349.22,2022-08-17 13:30:18.343750
332,393.11,2022-08-17 13:30:18.359375
333,433.79,2022-08-17 13:30:18.375000
334,466.35,2022-08-17 13:30:18.390625
335,485.19,2022-08-17 13:30:18.406250
336,485.15,2022-08-17 13:30:18.421875
337,463.16,2022-08-17 13:30:18.437500
338,419.58,2022-08-17 13:30:18.453125
339,358.54,2022-08-17 13:30:18.468750
340,287.21,2022-08-17 13:30:18.484375
341,213.77,2022-08-17 13:30:18.500000
342,145.22,2022-08-17 13:30:18.515625
343,85.71,2022-08-17 13:30:18.531250
344,36.42,2022-08-17 13:30:18.546875
345,-3.24,2022-08-17 13:30:18.562500
346,-33.9,2022-08-17 13:30:18.578125
347,-55.22,2022-08-17 13:30:18.593750
348,-66.35,2022-08-17 13:30:18.609375
349,-67.5,2022-08-17 13:30:18.625000
350,-61.3,2022-08-17 13:30:18.640625
351,-52.77,2022-08-17 13:30:18.656250
352,-47.63,2022-08-17 13:30:18.671875
353,-49.72,2022-08-17 13:30:18.687500
354,-59.28,2022-08-17 13:30:18.703125
355,-73.3,2022-08-17 13:30:18.718750
356,-87.62,2022-08-17 13:30:18.734375
357,-99.53,2022-08-17 13:30:18.750000
358,-108.86,2022-08-17 13:30:18.765625
359,-117.25,2022-08-17 13:30:18.781250
360,-126.14,2022-08-17 13:30:18.796875
361,-135.09,2022-08-17 13:30:18.812500
362,-141.54,2022-08-17 13:30:18.828125
363,-142.25,2022-08-17 13:30:18.843750
364,-135.2,2022-08-17 13:30:18.859375
365,-120.66,2022-08-17 13:30:18.875000
366,-101.03,2022-08-17 13:30:18.890625
367,-79.73,2022-08-17 13:30:18.906250
368,-60.15,2022-08-17 13:30:18.921875
369,-45.05,2022-08-17 13:30:18.937500
370,-36.17,2022-08-17 13:30:18.953125
371,-33.88,2022-08-17 13:30:18.968750
372,-36.74,2022-08-17 13:30:18.984375
373,-41.35,2022-08-17 13:30:19.000000
374,-42.67,2022-08-17 13:30:19.015625
375,-35.38,2022-08-17 13:30:19.031250
376,-15.46,2022-08-17 13:30:19.046875
377,18.39,2022-08-17 13:30:19.062500
378,64.08,2022-08-17 13:30:19.078125
379,116.51,2022-08-17 13:30:19.093750
380,169.01,2022-08-17 13:30:19.109375
381,214.96,2022-08-17 13:30:19.125000
382,249.07,2022-08-17 13:30:19.140625
383,268.12,2022-08-17 13:30:19.156250
384,270.99,2022-08-17 13:30:19.171875
385,258.55,2022-08-17 13:30:19.187500
386,233.36,2022-08-17 13:30:19.203125
387,199.35,2022-08-17 13:30:19.218750
388,161.37,2022-08-17 13:30:19.234375
389,124.46,2022-08-17 13:30:19.250000
390,93.04,2022-08-17 13:30:19.265625
391,70.13,2022-08-17 13:30:19.281250
392,56.76,2022-08-17 13:30:19.296875
393,51.75,2022-08-17 13:30:19.312500
394,52.2,2022-08-17 13:30:19.328125
395,54.38,2022-08-17 13:30:19.343750
396,54.79,2022-08-17 13:30:19.359375
397,51.16,2022-08-17 13:30:19.375000
398,42.71,2022-08-17 13:30:19.390625
399,29.87,2022-08-17 13:30:19.406250
400,13.74,2022-08-17 13:30:19.421875
401,-4.49,2022-08-17 13:30:19.437500
402,-23.86,2022-08-17 13:30:19.453125
403,-43.44,2022-08-17 13:30:19.468750
404,-62.16,2022-08-17 13:30:19.484375
405,-78.66,2022-08-17 13:30:19.500000
406,-91.28,2022-08-17 13:30:19.515625
407,-98.61,2022-08-17 13:30:19.531250
408,-99.82,2022-08-17 13:30:19.546875
409,-95.0,2022-08-17 13:30:19.562500
410,-85.04,2022-08-17 13:30:19.578125
411,-71.26,2022-08-17 13:30:19.593750
412,-54.98,2022-08-17 13:30:19.609375
413,-37.31,2022-08-17 13:30:19.625000
414,-19.09,2022-08-17 13:30:19.640625
415,-1.06,2022-08-17 13:30:19.656250
416,15.88,2022-08-17 13:30:19.671875
417,30.5,2022-08-17 13:30:19.687500
418,41.48,2022-08-17 13:30:19.703125
419,47.62,2022-08-17 13:30:19.718750
420,48.34,2022-08-17 13:30:19.734375
421,43.96,2022-08-17 13:30:19.750000
422,35.69,2022-08-17 13:30:19.765625
423,25.23,2022-08-17 13:30:19.781250
424,14.14,2022-08-17 13:30:19.796875
425,3.33,2022-08-17 13:30:19.812500
426,-7.12,2022-08-17 13:30:19.828125
427,-17.47,2022-08-17 13:30:19.843750
428,-27.86,2022-08-17 13:30:19.859375
429,-38.01,2022-08-17 13:30:19.875000
430,-47.38,2022-08-17 13:30:19.890625
431,-55.67,2022-08-17 13:30:19.906250
432,-63.43,2022-08-17 13:30:19.921875
433,-72.32,2022-08-17 13:30:19.937500
434,-84.57,2022-08-17 13:30:19.953125
435,-102.3,2022-08-17 13:30:19.968750
436,-126.42,2022-08-17 13:30:19.984375
437,-155.95,2022-08-17 13:30:20.000000
438,-187.81,2022-08-17 13:30:20.015625
439,-217.21,2022-08-17 13:30:20.031250
440,-238.74,2022-08-17 13:30:20.046875
441,-247.65,2022-08-17 13:30:20.062500
442,-241.28,2022-08-17 13:30:20.078125
443,-219.72,2022-08-17 13:30:20.093750
444,-185.92,2022-08-17 13:30:20.109375
445,-145.02,2022-08-17 13:30:20.125000
446,-102.98,2022-08-17 13:30:20.140625
447,-65.34,2022-08-17 13:30:20.156250
448,-35.94,2022-08-17 13:30:20.171875
449,-16.35,2022-08-17 13:30:20.187500
450,-5.91,2022-08-17 13:30:20.203125
451,-2.32,2022-08-17 13:30:20.218750
452,-2.46,2022-08-17 13:30:20.234375
453,-2.99,2022-08-17 13:30:20.250000
454,-0.91,2022-08-17 13:30:20.265625
455,6.43,2022-08-17 13:30:20.281250
456,20.81,2022-08-17 13:30:20.296875
457,42.77,2022-08-17 13:30:20.312500
458,70.76,2022-08-17 13:30:20.328125
459,100.88,2022-08-17 13:30:20.343750
460,127.08,2022-08-17 13:30:20.359375
461,142.67,2022-08-17 13:30:20.375000
462,142.58,2022-08-17 13:30:20.390625
463,125.61,2022-08-17 13:30:20.406250
464,95.68,2022-08-17 13:30:20.421875
465,60.69,2022-08-17 13:30:20.437500
466,29.74,2022-08-17 13:30:20.453125
467,9.55,2022-08-17 13:30:20.468750
468,1.85,2022-08-17 13:30:20.484375
469,2.97,2022-08-17 13:30:20.500000
470,6.01,2022-08-17 13:30:20.515625
471,4.28,2022-08-17 13:30:20.531250
472,-5.52,2022-08-17 13:30:20.546875
473,-21.92,2022-08-17 13:30:20.562500
474,-39.89,2022-08-17 13:30:20.578125
475,-53.41,2022-08-17 13:30:20.593750
476,-58.3,2022-08-17 13:30:20.609375
477,-53.7,2022-08-17 13:30:20.625000
478,-41.62,2022-08-17 13:30:20.640625
479,-25.26,2022-08-17 13:30:20.656250
480,-7.12,2022-08-17 13:30:20.671875
481,11.94,2022-08-17 13:30:20.687500
482,32.51,2022-08-17 13:30:20.703125
483,55.4,2022-08-17 13:30:20.718750
484,80.51,2022-08-17 13:30:20.734375
485,106.09,2022-08-17 13:30:20.750000
486,128.98,2022-08-17 13:30:20.765625
487,145.59,2022-08-17 13:30:20.781250
488,153.08,2022-08-17 13:30:20.796875
489,150.26,2022-08-17 13:30:20.812500
490,137.72,2022-08-17 13:30:20.828125
491,117.48,2022-08-17 13:30:20.843750
492,92.18,2022-08-17 13:30:20.859375
493,64.34,2022-08-17 13:30:20.875000
494,35.97,2022-08-17 13:30:20.890625
495,8.66,2022-08-17 13:30:20.906250
496,-15.98,2022-08-17 13:30:20.921875
497,-36.22,2022-08-17 13:30:20.937500
498,-50.45,2022-08-17 13:30:20.953125
499,-57.91,2022-08-17 13:30:20.968750
500,-59.21,2022-08-17 13:30:20.984375
501,-56.42,2022-08-17 13:30:21.000000
502,-52.39,2022-08-17 13:30:21.015625
503,-49.54,2022-08-17 13:30:21.031250
504,-49.06,2022-08-17 13:30:21.046875
505,-50.43,2022-08-17 13:30:21.062500
506,-52.01,2022-08-17 13:30:21.078125
507,-51.9,2022-08-17 13:30:21.093750
508,-49.01,2022-08-17 13:30:21.109375
509,-43.46,2022-08-17 13:30:21.125000
510,-36.59,2022-08-17 13:30:21.140625
511,-30.37,2022-08-17 13:30:21.156250
512,-26.56,2022-08-17 13:30:21.171875
513,-26.13,2022-08-17 13:30:21.187500
514,-28.7,2022-08-17 13:30:21.203125
515,-32.59,2022-08-17 13:30:21.218750
516,-34.98,2022-08-17 13:30:21.234375
517,-32.88,2022-08-17 13:30:21.250000
518,-24.28,2022-08-17 13:30:21.265625
519,-9.38,2022-08-17 13:30:21.281250
520,9.09,2022-08-17 13:30:21.296875
521,26.67,2022-08-17 13:30:21.312500
522,38.68,2022-08-17 13:30:21.328125
523,42.18,2022-08-17 13:30:21.343750
524,36.91,2022-08-17 13:30:21.359375
525,25.06,2022-08-17 13:30:21.375000
526,9.92,2022-08-17 13:30:21.390625
527,-5.77,2022-08-17 13:30:21.406250
528,-20.7,2022-08-17 13:30:21.421875
529,-34.69,2022-08-17 13:30:21.437500
530,-47.48,2022-08-17 13:30:21.453125
531,-57.6,2022-08-17 13:30:21.468750
532,-62.09,2022-08-17 13:30:21.484375
533,-57.62,2022-08-17 13:30:21.500000
534,-42.55,2022-08-17 13:30:21.515625
535,-18.52,2022-08-17 13:30:21.531250
536,9.17,2022-08-17 13:30:21.546875
537,32.95,2022-08-17 13:30:21.562500
538,45.43,2022-08-17 13:30:21.578125
539,42.09,2022-08-17 13:30:21.593750
540,22.95,2022-08-17 13:30:21.609375
541,-7.17,2022-08-17 13:30:21.625000
542,-40.2,2022-08-17 13:30:21.640625
543,-67.5,2022-08-17 13:30:21.656250
544,-82.56,2022-08-17 13:30:21.671875
545,-82.87,2022-08-17 13:30:21.687500
546,-70.39,2022-08-17 13:30:21.703125
547,-50.1,2022-08-17 13:30:21.718750
548,-27.76,2022-08-17 13:30:21.734375
549,-7.72,2022-08-17 13:30:21.750000
550,8.29,2022-08-17 13:30:21.765625
551,20.72,2022-08-17 13:30:21.781250
552,30.75,2022-08-17 13:30:21.796875
553,38.83,2022-08-17 13:30:21.812500
554,44.32,2022-08-17 13:30:21.828125
555,46.12,2022-08-17 13:30:21.843750
556,43.98,2022-08-17 13:30:21.859375
557,39.07,2022-08-17 13:30:21.875000
558,33.24,2022-08-17 13:30:21.890625
559,27.69,2022-08-17 13:30:21.906250
560,21.89,2022-08-17 13:30:21.921875
561,13.97,2022-08-17 13:30:21.937500
562,2.22,2022-08-17 13:30:21.953125
563,-13.25,2022-08-17 13:30:21.968750
564,-29.91,2022-08-17 13:30:21.984375
565,-43.67,2022-08-17 13:30:22.000000
566,-50.87,2022-08-17 13:30:22.015625
567,-49.92,2022-08-17 13:30:22.031250
568,-41.87,2022-08-17 13:30:22.046875
569,-29.72,2022-08-17 13:30:22.062500
570,-17.03,2022-08-17 13:30:22.078125
571,-6.98,2022-08-17 13:30:22.093750
572,-2.07,2022-08-17 13:30:22.109375
573,-4.14,2022-08-17 13:30:22.125000
574,-14.09,2022-08-17 13:30:22.140625
575,-31.26,2022-08-17 13:30:22.156250
576,-52.76,2022-08-17 13:30:22.171875
577,-73.42,2022-08-17 13:30:22.187500
578,-87.25,2022-08-17 13:30:22.203125
579,-89.16,2022-08-17 13:30:22.218750
580,-77.05,2022-08-17 13:30:22.234375
581,-52.5,2022-08-17 13:30:22.250000
582,-20.31,2022-08-17 13:30:22.265625
583,13.04,2022-08-17 13:30:22.281250
584,41.18,2022-08-17 13:30:22.296875
585,59.24,2022-08-17 13:30:22.312500
586,64.77,2022-08-17 13:30:22.328125
587,57.77,2022-08-17 13:30:22.343750
588,40.69,2022-08-17 13:30:22.359375
589,18.23,2022-08-17 13:30:22.375000
590,-3.33,2022-08-17 13:30:22.390625
591,-16.95,2022-08-17 13:30:22.406250
592,-16.55,2022-08-17 13:30:22.421875
593,1.14,2022-08-17 13:30:22.437500
594,35.21,2022-08-17 13:30:22.453125
595,80.4,2022-08-17 13:30:22.468750
596,128.47,2022-08-17 13:30:22.484375
597,170.6,2022-08-17 13:30:22.500000
598,200.08,2022-08-17 13:30:22.515625
599,214.04,2022-08-17 13:30:22.531250
600,213.53,2022-08-17 13:30:22.546875
601,202.55,2022-08-17 13:30:22.562500
602,186.19,2022-08-17 13:30:22.578125
603,168.89,2022-08-17 13:30:22.593750
604,153.75,2022-08-17 13:30:22.609375
605,142.35,2022-08-17 13:30:22.625000
606,134.88,2022-08-17 13:30:22.640625
607,130.48,2022-08-17 13:30:22.656250
608,127.42,2022-08-17 13:30:22.671875
609,123.72,2022-08-17 13:30:22.687500
610,118.03,2022-08-17 13:30:22.703125
611,110.52,2022-08-17 13:30:22.718750
612,102.78,2022-08-17 13:30:22.734375
613,96.57,2022-08-17 13:30:22.750000
614,92.28,2022-08-17 13:30:22.765625
615,88.28,2022-08-17 13:30:22.781250
616,81.96,2022-08-17 13:30:22.796875
617,72.0,2022-08-17 13:30:22.812500
618,60.16,2022-08-17 13:30:22.828125
619,50.97,2022-08-17 13:30:22.843750
620,49.23,2022-08-17 13:30:22.859375
621,56.58,2022-08-17 13:30:22.875000
622,69.37,2022-08-17 13:30:22.890625
623,79.45,2022-08-17 13:30:22.906250
624,77.59,2022-08-17 13:30:22.921875
625,57.52,2022-08-17 13:30:22.937500
626,18.51,2022-08-17 13:30:22.953125
627,-34.75,2022-08-17 13:30:22.968750
628,-94.39,2022-08-17 13:30:22.984375
629,-152.16,2022-08-17 13:30:23.000000
630,-201.33,2022-08-17 13:30:23.015625
631,-237.39,2022-08-17 13:30:23.031250
632,-258.2,2022-08-17 13:30:23.046875
633,-264.03,2022-08-17 13:30:23.062500
634,-257.44,2022-08-17 13:30:23.078125
635,-242.97,2022-08-17 13:30:23.093750
636,-225.93,2022-08-17 13:30:23.109375
637,-210.81,2022-08-17 13:30:23.125000
638,-200.08,2022-08-17 13:30:23.140625
639,-194.03,2022-08-17 13:30:23.156250
640,-191.48,2022-08-17 13:30:23.171875
641,-191.12,2022-08-17 13:30:23.187500
642,-192.37,2022-08-17 13:30:23.203125
643,-194.95,2022-08-17 13:30:23.218750
644,-197.81,2022-08-17 13:30:23.234375
645,-198.16,2022-08-17 13:30:23.250000
646,-191.7,2022-08-17 13:30:23.265625
647,-174.0,2022-08-17 13:30:23.281250
648,-142.73,2022-08-17 13:30:23.296875
649,-99.13,2022-08-17 13:30:23.312500
650,-48.24,2022-08-17 13:30:23.328125
651,2.98,2022-08-17 13:30:23.343750
652,48.06,2022-08-17 13:30:23.359375
653,83.37,2022-08-17 13:30:23.375000
654,108.62,2022-08-17 13:30:23.390625
655,125.8,2022-08-17 13:30:23.406250
656,137.2,2022-08-17 13:30:23.421875
657,143.71,2022-08-17 13:30:23.437500
658,144.58,2022-08-17 13:30:23.453125
659,138.34,2022-08-17 13:30:23.468750
660,124.65,2022-08-17 13:30:23.484375
661,105.12,2022-08-17 13:30:23.500000
662,83.36,2022-08-17 13:30:23.515625
663,63.56,2022-08-17 13:30:23.531250
664,48.81,2022-08-17 13:30:23.546875
665,40.0,2022-08-17 13:30:23.562500
666,35.84,2022-08-17 13:30:23.578125
667,33.8,2022-08-17 13:30:23.593750
668,31.5,2022-08-17 13:30:23.609375
669,27.78,2022-08-17 13:30:23.625000
670,22.76,2022-08-17 13:30:23.640625
671,17.34,2022-08-17 13:30:23.656250
672,12.32,2022-08-17 13:30:23.671875
673,7.85,2022-08-17 13:30:23.687500
674,3.11,2022-08-17 13:30:23.703125
675,-3.27,2022-08-17 13:30:23.718750
676,-12.68,2022-08-17 13:30:23.734375
677,-25.64,2022-08-17 13:30:23.750000
678,-41.13,2022-08-17 13:30:23.765625
679,-56.45,2022-08-17 13:30:23.781250
680,-67.79,2022-08-17 13:30:23.796875
681,-71.4,2022-08-17 13:30:23.812500
682,-65.09,2022-08-17 13:30:23.828125
683,-49.17,2022-08-17 13:30:23.843750
684,-26.62,2022-08-17 13:30:23.859375
685,-1.93,2022-08-17 13:30:23.875000
686,20.53,2022-08-17 13:30:23.890625
687,37.83,2022-08-17 13:30:23.906250
688,49.12,2022-08-17 13:30:23.921875
689,55.03,2022-08-17 13:30:23.937500
690,56.7,2022-08-17 13:30:23.953125
691,54.78,2022-08-17 13:30:23.968750
692,49.29,2022-08-17 13:30:23.984375
693,39.98,2022-08-17 13:30:24.000000
694,27.22,2022-08-17 13:30:24.015625
695,12.34,2022-08-17 13:30:24.031250
696,-2.52,2022-08-17 13:30:24.046875
697,-15.13,2022-08-17 13:30:24.062500
698,-24.02,2022-08-17 13:30:24.078125
699,-28.93,2022-08-17 13:30:24.093750
700,-30.69,2022-08-17 13:30:24.109375
701,-30.56,2022-08-17 13:30:24.125000
702,-29.64,2022-08-17 13:30:24.140625
703,-28.45,2022-08-17 13:30:24.156250
704,-27.11,2022-08-17 13:30:24.171875
705,-25.76,2022-08-17 13:30:24.187500
706,-24.84,2022-08-17 13:30:24.203125
707,-25.26,2022-08-17 13:30:24.218750
708,-28.07,2022-08-17 13:30:24.234375
709,-34.01,2022-08-17 13:30:24.250000
710,-43.03,2022-08-17 13:30:24.265625
711,-54.07,2022-08-17 13:30:24.281250
712,-65.0,2022-08-17 13:30:24.296875
713,-73.05,2022-08-17 13:30:24.312500
714,-75.38,2022-08-17 13:30:24.328125
715,-69.99,2022-08-17 13:30:24.343750
716,-56.42,2022-08-17 13:30:24.359375
717,-36.06,2022-08-17 13:30:24.375000
718,-11.84,2022-08-17 13:30:24.390625
719,12.53,2022-08-17 13:30:24.406250
720,33.7,2022-08-17 13:30:24.421875
721,49.4,2022-08-17 13:30:24.437500
722,58.69,2022-08-17 13:30:24.453125
723,61.76,2022-08-17 13:30:24.468750
724,59.28,2022-08-17 13:30:24.484375
725,52.04,2022-08-17 13:30:24.500000
726,40.79,2022-08-17 13:30:24.515625
727,26.36,2022-08-17 13:30:24.531250
728,9.95,2022-08-17 13:30:24.546875
729,-7.02,2022-08-17 13:30:24.562500
730,-23.09,2022-08-17 13:30:24.578125
731,-37.35,2022-08-17 13:30:24.593750
732,-49.63,2022-08-17 13:30:24.609375
733,-60.37,2022-08-17 13:30:24.625000
734,-70.19,2022-08-17 13:30:24.640625
735,-79.22,2022-08-17 13:30:24.656250
736,-86.8,2022-08-17 13:30:24.671875
737,-91.61,2022-08-17 13:30:24.687500
738,-92.4,2022-08-17 13:30:24.703125
739,-88.87,2022-08-17 13:30:24.718750
740,-82.24,2022-08-17 13:30:24.734375
741,-75.15,2022-08-17 13:30:24.750000
742,-70.87,2022-08-17 13:30:24.765625
743,-72.08,2022-08-17 13:30:24.781250
744,-79.89,2022-08-17 13:30:24.796875
745,-93.3,2022-08-17 13:30:24.812500
746,-109.37,2022-08-17 13:30:24.828125
747,-124.02,2022-08-17 13:30:24.843750
748,-133.0,2022-08-17 13:30:24.859375
749,-133.07,2022-08-17 13:30:24.875000
750,-122.78,2022-08-17 13:30:24.890625
751,-102.92,2022-08-17 13:30:24.906250
752,-76.29,2022-08-17 13:30:24.921875
753,-47.01,2022-08-17 13:30:24.937500
754,-19.18,2022-08-17 13:30:24.953125
755,4.1,2022-08-17 13:30:24.968750
756,21.39,2022-08-17 13:30:24.984375
757,32.85,2022-08-17 13:30:25.000000
758,39.56,2022-08-17 13:30:25.015625
759,42.68,2022-08-17 13:30:25.031250
760,43.04,2022-08-17 13:30:25.046875
761,41.14,2022-08-17 13:30:25.062500
762,37.5,2022-08-17 13:30:25.078125
763,33.02,2022-08-17 13:30:25.093750
764,28.78,2022-08-17 13:30:25.109375
765,25.65,2022-08-17 13:30:25.125000
766,23.88,2022-08-17 13:30:25.140625
767,23.02,2022-08-17 13:30:25.156250
768,22.16,2022-08-17 13:30:25.171875
769,20.6,2022-08-17 13:30:25.187500
770,18.15,2022-08-17 13:30:25.203125
771,15.11,2022-08-17 13:30:25.218750
772,11.91,2022-08-17 13:30:25.234375
773,8.66,2022-08-17 13:30:25.250000
774,4.97,2022-08-17 13:30:25.265625
775,0.04,2022-08-17 13:30:25.281250
776,-6.96,2022-08-17 13:30:25.296875
777,-16.57,2022-08-17 13:30:25.312500
778,-28.69,2022-08-17 13:30:25.328125
779,-42.3,2022-08-17 13:30:25.343750
780,-55.3,2022-08-17 13:30:25.359375
781,-64.79,2022-08-17 13:30:25.375000
782,-67.61,2022-08-17 13:30:25.390625
783,-61.43,2022-08-17 13:30:25.406250
784,-45.75,2022-08-17 13:30:25.421875
785,-22.3,2022-08-17 13:30:25.437500
786,5.28,2022-08-17 13:30:25.453125
787,32.63,2022-08-17 13:30:25.468750
788,55.95,2022-08-17 13:30:25.484375
789,72.98,2022-08-17 13:30:25.500000
790,83.01,2022-08-17 13:30:25.515625
791,86.51,2022-08-17 13:30:25.531250
792,84.31,2022-08-17 13:30:25.546875
793,77.27,2022-08-17 13:30:25.562500
794,66.39,2022-08-17 13:30:25.578125
795,53.01,2022-08-17 13:30:25.593750
796,38.82,2022-08-17 13:30:25.609375
797,25.59,2022-08-17 13:30:25.625000
798,14.65,2022-08-17 13:30:25.640625
799,6.5,2022-08-17 13:30:25.656250
800,0.75,2022-08-17 13:30:25.671875
801,-3.46,2022-08-17 13:30:25.687500
802,-7.05,2022-08-17 13:30:25.703125
803,-10.62,2022-08-17 13:30:25.718750
804,-14.35,2022-08-17 13:30:25.734375
805,-18.13,2022-08-17 13:30:25.750000
806,-21.93,2022-08-17 13:30:25.765625
807,-25.89,2022-08-17 13:30:25.781250
808,-30.49,2022-08-17 13:30:25.796875
809,-36.49,2022-08-17 13:30:25.812500
810,-44.66,2022-08-17 13:30:25.828125
811,-55.54,2022-08-17 13:30:25.843750
812,-68.89,2022-08-17 13:30:25.859375
813,-83.41,2022-08-17 13:30:25.875000
814,-96.65,2022-08-17 13:30:25.890625
815,-105.37,2022-08-17 13:30:25.906250
816,-106.48,2022-08-17 13:30:25.921875
817,-98.05,2022-08-17 13:30:25.937500
818,-80.17,2022-08-17 13:30:25.953125
819,-54.92,2022-08-17 13:30:25.968750
820,-25.87,2022-08-17 13:30:25.984375
821,3.14,2022-08-17 13:30:26.000000
822,28.95,2022-08-17 13:30:26.015625
823,49.7,2022-08-17 13:30:26.031250
824,64.66,2022-08-17 13:30:26.046875
825,73.87,2022-08-17 13:30:26.062500
826,77.61,2022-08-17 13:30:26.078125
827,76.33,2022-08-17 13:30:26.093750
828,70.76,2022-08-17 13:30:26.109375
829,62.09,2022-08-17 13:30:26.125000
830,51.95,2022-08-17 13:30:26.140625
831,42.01,2022-08-17 13:30:26.156250
832,33.55,2022-08-17 13:30:26.171875
833,27.01,2022-08-17 13:30:26.187500
834,22.08,2022-08-17 13:30:26.203125
835,17.99,2022-08-17 13:30:26.218750
836,14.03,2022-08-17 13:30:26.234375
837,9.96,2022-08-17 13:30:26.250000
838,5.9,2022-08-17 13:30:26.265625
839,2.13,2022-08-17 13:30:26.281250
840,-1.33,2022-08-17 13:30:26.296875
841,-4.98,2022-08-17 13:30:26.312500
842,-9.8,2022-08-17 13:30:26.328125
843,-16.93,2022-08-17 13:30:26.343750
844,-27.17,2022-08-17 13:30:26.359375
845,-40.52,2022-08-17 13:30:26.375000
846,-55.77,2022-08-17 13:30:26.390625
847,-70.56,2022-08-17 13:30:26.406250
848,-81.67,2022-08-17 13:30:26.421875
849,-85.82,2022-08-17 13:30:26.437500
850,-80.66,2022-08-17 13:30:26.453125
851,-65.54,2022-08-17 13:30:26.468750
852,-41.9,2022-08-17 13:30:26.484375
853,-12.97,2022-08-17 13:30:26.500000
854,17.12,2022-08-17 13:30:26.515625
855,44.49,2022-08-17 13:30:26.531250
856,66.4,2022-08-17 13:30:26.546875
857,81.71,2022-08-17 13:30:26.562500
858,90.6,2022-08-17 13:30:26.578125
859,94.08,2022-08-17 13:30:26.593750
860,93.36,2022-08-17 13:30:26.609375
861,89.35,2022-08-17 13:30:26.625000
862,82.69,2022-08-17 13:30:26.640625
863,73.84,2022-08-17 13:30:26.656250
864,63.39,2022-08-17 13:30:26.671875
865,52.2,2022-08-17 13:30:26.687500
866,41.47,2022-08-17 13:30:26.703125
867,32.43,2022-08-17 13:30:26.718750
868,26.04,2022-08-17 13:30:26.734375
869,22.6,2022-08-17 13:30:26.750000
870,21.38,2022-08-17 13:30:26.765625
871,20.82,2022-08-17 13:30:26.781250
872,18.78,2022-08-17 13:30:26.796875
873,13.31,2022-08-17 13:30:26.812500
874,3.31,2022-08-17 13:30:26.828125
875,-11.17,2022-08-17 13:30:26.843750
876,-28.99,2022-08-17 13:30:26.859375
877,-48.42,2022-08-17 13:30:26.875000
878,-67.82,2022-08-17 13:30:26.890625
879,-86.03,2022-08-17 13:30:26.906250
880,-102.13,2022-08-17 13:30:26.921875
881,-115.33,2022-08-17 13:30:26.937500
882,-124.37,2022-08-17 13:30:26.953125
883,-127.67,2022-08-17 13:30:26.968750
884,-123.57,2022-08-17 13:30:26.984375
885,-110.94,2022-08-17 13:30:27.000000
886,-89.34,2022-08-17 13:30:27.015625
887,-58.86,2022-08-17 13:30:27.031250
888,-19.91,2022-08-17 13:30:27.046875
889,26.7,2022-08-17 13:30:27.062500
890,78.9,2022-08-17 13:30:27.078125
891,132.65,2022-08-17 13:30:27.093750
892,181.78,2022-08-17 13:30:27.109375
893,219.03,2022-08-17 13:30:27.125000
894,238.25,2022-08-17 13:30:27.140625
895,236.73,2022-08-17 13:30:27.156250
896,216.61,2022-08-17 13:30:27.171875
897,184.45,2022-08-17 13:30:27.187500
898,148.93,2022-08-17 13:30:27.203125
899,117.7,2022-08-17 13:30:27.218750
900,94.94,2022-08-17 13:30:27.234375
901,80.57,2022-08-17 13:30:27.250000
902,71.43,2022-08-17 13:30:27.265625
903,63.45,2022-08-17 13:30:27.281250
904,53.79,2022-08-17 13:30:27.296875
905,41.78,2022-08-17 13:30:27.312500
906,28.67,2022-08-17 13:30:27.328125
907,16.48,2022-08-17 13:30:27.343750
908,6.59,2022-08-17 13:30:27.359375
909,-0.97,2022-08-17 13:30:27.375000
910,-7.7,2022-08-17 13:30:27.390625
911,-15.95,2022-08-17 13:30:27.406250
912,-27.78,2022-08-17 13:30:27.421875
913,-44.1,2022-08-17 13:30:27.437500
914,-64.39,2022-08-17 13:30:27.453125
915,-86.82,2022-08-17 13:30:27.468750
916,-109.06,2022-08-17 13:30:27.484375
917,-128.93,2022-08-17 13:30:27.500000
918,-144.75,2022-08-17 13:30:27.515625
919,-155.32,2022-08-17 13:30:27.531250
920,-159.42,2022-08-17 13:30:27.546875
921,-155.55,2022-08-17 13:30:27.562500
922,-142.11,2022-08-17 13:30:27.578125
923,-118.31,2022-08-17 13:30:27.593750
924,-85.21,2022-08-17 13:30:27.609375
925,-46.28,2022-08-17 13:30:27.625000
926,-7.01,2022-08-17 13:30:27.640625
927,26.67,2022-08-17 13:30:27.656250
928,50.35,2022-08-17 13:30:27.671875
929,62.69,2022-08-17 13:30:27.687500
930,65.62,2022-08-17 13:30:27.703125
931,63.15,2022-08-17 13:30:27.718750
932,59.51,2022-08-17 13:30:27.734375
933,57.46,2022-08-17 13:30:27.750000
934,57.59,2022-08-17 13:30:27.765625
935,58.7,2022-08-17 13:30:27.781250
936,59.01,2022-08-17 13:30:27.796875
937,57.29,2022-08-17 13:30:27.812500
938,53.49,2022-08-17 13:30:27.828125
939,48.47,2022-08-17 13:30:27.843750
940,43.26,2022-08-17 13:30:27.859375
941,38.31,2022-08-17 13:30:27.875000
942,33.24,2022-08-17 13:30:27.890625
943,26.98,2022-08-17 13:30:27.906250
944,18.28,2022-08-17 13:30:27.921875
945,6.49,2022-08-17 13:30:27.937500
946,-8.14,2022-08-17 13:30:27.953125
947,-24.12,2022-08-17 13:30:27.968750
948,-38.87,2022-08-17 13:30:27.984375
949,-49.22,2022-08-17 13:30:28.000000
950,-52.11,2022-08-17 13:30:28.015625
951,-45.54,2022-08-17 13:30:28.031250
952,-29.15,2022-08-17 13:30:28.046875
953,-4.48,2022-08-17 13:30:28.062500
954,25.63,2022-08-17 13:30:28.078125
955,57.9,2022-08-17 13:30:28.093750
956,89.64,2022-08-17 13:30:28.109375
957,119.39,2022-08-17 13:30:28.125000
958,147.04,2022-08-17 13:30:28.140625
959,173.35,2022-08-17 13:30:28.156250
960,199.05,2022-08-17 13:30:28.171875
961,224.01,2022-08-17 13:30:28.187500
962,246.58,2022-08-17 13:30:28.203125
963,263.91,2022-08-17 13:30:28.218750
964,272.96,2022-08-17 13:30:28.234375
965,271.87,2022-08-17 13:30:28.250000
966,261.08,2022-08-17 13:30:28.265625
967,243.24,2022-08-17 13:30:28.281250
968,222.0,2022-08-17 13:30:28.296875
969,200.33,2022-08-17 13:30:28.312500
970,179.28,2022-08-17 13:30:28.328125
971,158.14,2022-08-17 13:30:28.343750
972,135.44,2022-08-17 13:30:28.359375
973,110.55,2022-08-17 13:30:28.375000
974,84.28,2022-08-17 13:30:28.390625
975,58.6,2022-08-17 13:30:28.406250
976,35.54,2022-08-17 13:30:28.421875
977,16.29,2022-08-17 13:30:28.437500
978,0.91,2022-08-17 13:30:28.453125
979,-11.26,2022-08-17 13:30:28.468750
980,-21.08,2022-08-17 13:30:28.484375
981,-29.58,2022-08-17 13:30:28.500000
982,-37.89,2022-08-17 13:30:28.515625
983,-47.19,2022-08-17 13:30:28.531250
984,-58.06,2022-08-17 13:30:28.546875
985,-69.71,2022-08-17 13:30:28.562500
986,-79.64,2022-08-17 13:30:28.578125
987,-84.19,2022-08-17 13:30:28.593750
988,-79.99,2022-08-17 13:30:28.609375
989,-65.42,2022-08-17 13:30:28.625000
990,-41.51,2022-08-17 13:30:28.640625
991,-11.7,2022-08-17 13:30:28.656250
992,19.19,2022-08-17 13:30:28.671875
993,46.36,2022-08-17 13:30:28.687500
994,65.98,2022-08-17 13:30:28.703125
995,75.76,2022-08-17 13:30:28.718750
996,75.18,2022-08-17 13:30:28.734375
997,65.4,2022-08-17 13:30:28.750000
998,49.0,2022-08-17 13:30:28.765625
999,29.49,2022-08-17 13:30:28.781250
1000,10.47,2022-08-17 13:30:28.796875
1001,-5.17,2022-08-17 13:30:28.812500
1002,-15.8,2022-08-17 13:30:28.828125
1003,-21.13,2022-08-17 13:30:28.843750
1004,-22.0,2022-08-17 13:30:28.859375
1005,-19.82,2022-08-17 13:30:28.875000
1006,-16.22,2022-08-17 13:30:28.890625
1007,-12.76,2022-08-17 13:30:28.906250
1008,-10.69,2022-08-17 13:30:28.921875
1009,-11.01,2022-08-17 13:30:28.937500
1010,-14.2,2022-08-17 13:30:28.953125
1011,-20.34,2022-08-17 13:30:28.968750
1012,-29.14,2022-08-17 13:30:28.984375
1013,-40.05,2022-08-17 13:30:29.000000
1014,-52.35,2022-08-17 13:30:29.015625
1015,-65.12,2022-08-17 13:30:29.031250
1016,-77.05,2022-08-17 13:30:29.046875
1017,-86.46,2022-08-17 13:30:29.062500
1018,-91.45,2022-08-17 13:30:29.078125
1019,-90.36,2022-08-17 13:30:29.093750
1020,-82.35,2022-08-17 13:30:29.109375
1021,-67.75,2022-08-17 13:30:29.125000
1022,-47.98,2022-08-17 13:30:29.140625
1023,-25.18,2022-08-17 13:30:29.156250
1024,-1.62,2022-08-17 13:30:29.171875
1025,20.77,2022-08-17 13:30:29.187500
1026,40.67,2022-08-17 13:30:29.203125
1027,57.04,2022-08-17 13:30:29.218750
1028,68.76,2022-08-17 13:30:29.234375
1029,74.99,2022-08-17 13:30:29.250000
1030,75.44,2022-08-17 13:30:29.265625
1031,70.58,2022-08-17 13:30:29.281250
1032,61.68,2022-08-17 13:30:29.296875
1033,50.66,2022-08-17 13:30:29.312500
1034,39.54,2022-08-17 13:30:29.328125
1035,29.99,2022-08-17 13:30:29.343750
1036,22.78,2022-08-17 13:30:29.359375
1037,17.53,2022-08-17 13:30:29.375000
1038,13.33,2022-08-17 13:30:29.390625
1039,9.33,2022-08-17 13:30:29.406250
1040,4.93,2022-08-17 13:30:29.421875
1041,-0.03,2022-08-17 13:30:29.437500
1042,-5.36,2022-08-17 13:30:29.453125
1043,-10.72,2022-08-17 13:30:29.468750
1044,-15.69,2022-08-17 13:30:29.484375
1045,-20.27,2022-08-17 13:30:29.500000
1046,-25.46,2022-08-17 13:30:29.515625
1047,-32.28,2022-08-17 13:30:29.531250
1048,-41.32,2022-08-17 13:30:29.546875
1049,-52.97,2022-08-17 13:30:29.562500
1050,-67.18,2022-08-17 13:30:29.578125
1051,-83.44,2022-08-17 13:30:29.593750
1052,-100.42,2022-08-17 13:30:29.609375
1053,-115.22,2022-08-17 13:30:29.625000
1054,-124.63,2022-08-17 13:30:29.640625
1055,-127.4,2022-08-17 13:30:29.656250
1056,-122.65,2022-08-17 13:30:29.671875
1057,-109.97,2022-08-17 13:30:29.687500
1058,-90.69,2022-08-17 13:30:29.703125
1059,-67.32,2022-08-17 13:30:29.718750
1060,-42.82,2022-08-17 13:30:29.734375
1061,-19.69,2022-08-17 13:30:29.750000
1062,2.23,2022-08-17 13:30:29.765625
1063,23.34,2022-08-17 13:30:29.781250
1064,40.54,2022-08-17 13:30:29.796875
1065,51.61,2022-08-17 13:30:29.812500
1066,56.38,2022-08-17 13:30:29.828125
1067,54.9,2022-08-17 13:30:29.843750
1068,47.96,2022-08-17 13:30:29.859375
1069,37.14,2022-08-17 13:30:29.875000
1070,24.54,2022-08-17 13:30:29.890625
1071,14.94,2022-08-17 13:30:29.906250
1072,11.67,2022-08-17 13:30:29.921875
1073,10.93,2022-08-17 13:30:29.937500
1074,9.58,2022-08-17 13:30:29.953125
1075,7.1,2022-08-17 13:30:29.968750
1076,2.78,2022-08-17 13:30:29.984375
1077,-3.88,2022-08-17 13:30:30.000000
1078,-12.57,2022-08-17 13:30:30.015625
1079,-21.79,2022-08-17 13:30:30.031250
1080,-25.22,2022-08-17 13:30:30.046875
1081,-17.07,2022-08-17 13:30:30.062500
1082,-0.32,2022-08-17 13:30:30.078125
1083,22.01,2022-08-17 13:30:30.093750
1084,48.5,2022-08-17 13:30:30.109375
1085,75.56,2022-08-17 13:30:30.125000
1086,98.95,2022-08-17 13:30:30.140625
1087,115.41,2022-08-17 13:30:30.156250
1088,100.31,2022-08-17 13:30:30.171875
1089,41.52,2022-08-17 13:30:30.187500
1090,-22.24,2022-08-17 13:30:30.203125
1091,-73.33,2022-08-17 13:30:30.218750
1092,-118.49,2022-08-17 13:30:30.234375
1093,-159.38,2022-08-17 13:30:30.250000
1094,-196.98,2022-08-17 13:30:30.265625
1095,-231.07,2022-08-17 13:30:30.281250
1096,-260.15,2022-08-17 13:30:30.296875
1097,-282.2,2022-08-17 13:30:30.312500
1098,-291.86,2022-08-17 13:30:30.328125
1099,-286.07,2022-08-17 13:30:30.343750
1100,-271.43,2022-08-17 13:30:30.359375
1101,-253.97,2022-08-17 13:30:30.375000
1102,-235.96,2022-08-17 13:30:30.390625
1103,-219.22,2022-08-17 13:30:30.406250
1104,-204.29,2022-08-17 13:30:30.421875
1105,-190.2,2022-08-17 13:30:30.437500
1106,-175.05,2022-08-17 13:30:30.453125
1107,-154.16,2022-08-17 13:30:30.468750
1108,-124.73,2022-08-17 13:30:30.484375
1109,-91.72,2022-08-17 13:30:30.500000
1110,-60.02,2022-08-17 13:30:30.515625
1111,-31.73,2022-08-17 13:30:30.531250
1112,-8.38,2022-08-17 13:30:30.546875
1113,10.04,2022-08-17 13:30:30.562500
1114,25.27,2022-08-17 13:30:30.578125
1115,40.34,2022-08-17 13:30:30.593750
1116,60.42,2022-08-17 13:30:30.609375
1117,90.0,2022-08-17 13:30:30.625000
1118,128.86,2022-08-17 13:30:30.640625
1119,176.26,2022-08-17 13:30:30.656250
1120,231.28,2022-08-17 13:30:30.671875
1121,289.98,2022-08-17 13:30:30.687500
1122,345.52,2022-08-17 13:30:30.703125
1123,389.5,2022-08-17 13:30:30.718750
1124,414.53,2022-08-17 13:30:30.734375
1125,417.97,2022-08-17 13:30:30.750000
1126,402.36,2022-08-17 13:30:30.765625
1127,373.14,2022-08-17 13:30:30.781250
1128,338.18,2022-08-17 13:30:30.796875
1129,304.8,2022-08-17 13:30:30.812500
1130,276.27,2022-08-17 13:30:30.828125
1131,251.66,2022-08-17 13:30:30.843750
1132,227.74,2022-08-17 13:30:30.859375
1133,201.81,2022-08-17 13:30:30.875000
1134,173.92,2022-08-17 13:30:30.890625
1135,146.52,2022-08-17 13:30:30.906250
1136,122.61,2022-08-17 13:30:30.921875
1137,104.63,2022-08-17 13:30:30.937500
1138,93.62,2022-08-17 13:30:30.953125
1139,88.91,2022-08-17 13:30:30.968750
1140,88.93,2022-08-17 13:30:30.984375
1141,92.15,2022-08-17 13:30:31.000000
1142,97.55,2022-08-17 13:30:31.015625
1143,104.41,2022-08-17 13:30:31.031250
1144,111.65,2022-08-17 13:30:31.046875
1145,117.6,2022-08-17 13:30:31.062500
1146,120.1,2022-08-17 13:30:31.078125
1147,117.15,2022-08-17 13:30:31.093750
1148,107.61,2022-08-17 13:30:31.109375
1149,91.68,2022-08-17 13:30:31.125000
1150,70.84,2022-08-17 13:30:31.140625
1151,47.45,2022-08-17 13:30:31.156250
1152,24.04,2022-08-17 13:30:31.171875
1153,2.68,2022-08-17 13:30:31.187500
1154,-15.62,2022-08-17 13:30:31.203125
1155,-31.28,2022-08-17 13:30:31.218750
1156,-46.05,2022-08-17 13:30:31.234375
1157,-62.14,2022-08-17 13:30:31.250000
1158,-81.0,2022-08-17 13:30:31.265625
1159,-102.05,2022-08-17 13:30:31.281250
1160,-122.31,2022-08-17 13:30:31.296875
1161,-137.29,2022-08-17 13:30:31.312500
1162,-142.84,2022-08-17 13:30:31.328125
1163,-137.04,2022-08-17 13:30:31.343750
1164,-121.29,2022-08-17 13:30:31.359375
1165,-99.84,2022-08-17 13:30:31.375000
1166,-78.1,2022-08-17 13:30:31.390625
1167,-60.71,2022-08-17 13:30:31.406250
1168,-50.38,2022-08-17 13:30:31.421875
1169,-47.8,2022-08-17 13:30:31.437500
1170,-52.58,2022-08-17 13:30:31.453125
1171,-63.91,2022-08-17 13:30:31.468750
1172,-80.99,2022-08-17 13:30:31.484375
1173,-102.82,2022-08-17 13:30:31.500000
1174,-127.82,2022-08-17 13:30:31.515625
1175,-153.71,2022-08-17 13:30:31.531250
1176,-177.72,2022-08-17 13:30:31.546875
1177,-197.06,2022-08-17 13:30:31.562500
1178,-209.33,2022-08-17 13:30:31.578125
1179,-212.81,2022-08-17 13:30:31.593750
1180,-206.71,2022-08-17 13:30:31.609375
1181,-191.31,2022-08-17 13:30:31.625000
1182,-168.08,2022-08-17 13:30:31.640625
1183,-139.35,2022-08-17 13:30:31.656250
1184,-107.84,2022-08-17 13:30:31.671875
1185,-75.98,2022-08-17 13:30:31.687500
1186,-45.58,2022-08-17 13:30:31.703125
1187,-17.84,2022-08-17 13:30:31.718750
1188,6.23,2022-08-17 13:30:31.734375
1189,25.58,2022-08-17 13:30:31.750000
1190,39.25,2022-08-17 13:30:31.765625
1191,46.97,2022-08-17 13:30:31.781250
1192,49.74,2022-08-17 13:30:31.796875
1193,49.76,2022-08-17 13:30:31.812500
1194,49.76,2022-08-17 13:30:31.828125
1195,51.83,2022-08-17 13:30:31.843750
1196,56.59,2022-08-17 13:30:31.859375
1197,62.97,2022-08-17 13:30:31.875000
1198,68.87,2022-08-17 13:30:31.890625
1199,72.25,2022-08-17 13:30:31.906250
1200,72.0,2022-08-17 13:30:31.921875
1201,68.36,2022-08-17 13:30:31.937500
1202,62.67,2022-08-17 13:30:31.953125
1203,56.94,2022-08-17 13:30:31.968750
1204,53.33,2022-08-17 13:30:31.984375
1205,53.62,2022-08-17 13:30:32.000000
1206,58.75,2022-08-17 13:30:32.015625
1207,68.37,2022-08-17 13:30:32.031250
1208,80.69,2022-08-17 13:30:32.046875
1209,92.64,2022-08-17 13:30:32.062500
1210,100.65,2022-08-17 13:30:32.078125
1211,101.41,2022-08-17 13:30:32.093750
1212,92.67,2022-08-17 13:30:32.109375
1213,73.65,2022-08-17 13:30:32.125000
1214,45.3,2022-08-17 13:30:32.140625
1215,10.4,2022-08-17 13:30:32.156250
1216,-26.58,2022-08-17 13:30:32.171875
1217,-60.06,2022-08-17 13:30:32.187500
1218,-84.59,2022-08-17 13:30:32.203125
1219,-96.33,2022-08-17 13:30:32.218750
1220,-94.39,2022-08-17 13:30:32.234375
1221,-81.04,2022-08-17 13:30:32.250000
1222,-60.63,2022-08-17 13:30:32.265625
1223,-37.72,2022-08-17 13:30:32.281250
1224,-15.2,2022-08-17 13:30:32.296875
1225,6.54,2022-08-17 13:30:32.312500
1226,28.92,2022-08-17 13:30:32.328125
1227,53.51,2022-08-17 13:30:32.343750
1228,80.55,2022-08-17 13:30:32.359375
1229,108.29,2022-08-17 13:30:32.375000
1230,133.63,2022-08-17 13:30:32.390625
1231,153.43,2022-08-17 13:30:32.406250
1232,165.84,2022-08-17 13:30:32.421875
1233,170.85,2022-08-17 13:30:32.437500
1234,169.92,2022-08-17 13:30:32.453125
1235,165.05,2022-08-17 13:30:32.468750
1236,157.76,2022-08-17 13:30:32.484375
1237,148.53,2022-08-17 13:30:32.500000
1238,136.82,2022-08-17 13:30:32.515625
1239,121.71,2022-08-17 13:30:32.531250
1240,102.5,2022-08-17 13:30:32.546875
1241,79.25,2022-08-17 13:30:32.562500
1242,52.69,2022-08-17 13:30:32.578125
1243,23.98,2022-08-17 13:30:32.593750
1244,-5.65,2022-08-17 13:30:32.609375
1245,-35.03,2022-08-17 13:30:32.625000
1246,-62.93,2022-08-17 13:30:32.640625
1247,-87.99,2022-08-17 13:30:32.656250
1248,-108.74,2022-08-17 13:30:32.671875
1249,-124.05,2022-08-17 13:30:32.687500
1250,-133.59,2022-08-17 13:30:32.703125
1251,-138.22,2022-08-17 13:30:32.718750
1252,-139.85,2022-08-17 13:30:32.734375
1253,-140.87,2022-08-17 13:30:32.750000
1254,-143.26,2022-08-17 13:30:32.765625
1255,-147.93,2022-08-17 13:30:32.781250
1256,-154.4,2022-08-17 13:30:32.796875
1257,-161.01,2022-08-17 13:30:32.812500
1258,-165.43,2022-08-17 13:30:32.828125
1259,-165.46,2022-08-17 13:30:32.843750
1260,-159.52,2022-08-17 13:30:32.859375
1261,-147.17,2022-08-17 13:30:32.875000
1262,-129.0,2022-08-17 13:30:32.890625
1263,-106.38,2022-08-17 13:30:32.906250
1264,-81.1,2022-08-17 13:30:32.921875
1265,-54.98,2022-08-17 13:30:32.937500
1266,-29.74,2022-08-17 13:30:32.953125
1267,-7.05,2022-08-17 13:30:32.968750
1268,11.62,2022-08-17 13:30:32.984375
1269,25.17,2022-08-17 13:30:33.000000
1270,33.38,2022-08-17 13:30:33.015625
1271,37.25,2022-08-17 13:30:33.031250
1272,38.91,2022-08-17 13:30:33.046875
1273,40.93,2022-08-17 13:30:33.062500
1274,45.39,2022-08-17 13:30:33.078125
1275,52.96,2022-08-17 13:30:33.093750
1276,62.67,2022-08-17 13:30:33.109375
1277,72.35,2022-08-17 13:30:33.125000
1278,79.63,2022-08-17 13:30:33.140625
1279,82.93,2022-08-17 13:30:33.156250
1280,82.04,2022-08-17 13:30:33.171875
1281,78.16,2022-08-17 13:30:33.187500
1282,73.42,2022-08-17 13:30:33.203125
1283,70.27,2022-08-17 13:30:33.218750
1284,70.68,2022-08-17 13:30:33.234375
1285,75.29,2022-08-17 13:30:33.250000
1286,82.88,2022-08-17 13:30:33.265625
1287,90.36,2022-08-17 13:30:33.281250
1288,93.71,2022-08-17 13:30:33.296875
1289,89.69,2022-08-17 13:30:33.312500
1290,77.76,2022-08-17 13:30:33.328125
1291,60.83,2022-08-17 13:30:33.343750
1292,44.32,2022-08-17 13:30:33.359375
1293,33.66,2022-08-17 13:30:33.375000
1294,31.51,2022-08-17 13:30:33.390625
1295,36.4,2022-08-17 13:30:33.406250
1296,43.28,2022-08-17 13:30:33.421875
1297,45.77,2022-08-17 13:30:33.437500
1298,38.67,2022-08-17 13:30:33.453125
1299,19.51,2022-08-17 13:30:33.468750
1300,-11.38,2022-08-17 13:30:33.484375
1301,-51.53,2022-08-17 13:30:33.500000
1302,-97.13,2022-08-17 13:30:33.515625
1303,-143.44,2022-08-17 13:30:33.531250
1304,-185.01,2022-08-17 13:30:33.546875
1305,-216.42,2022-08-17 13:30:33.562500
1306,-233.67,2022-08-17 13:30:33.578125
1307,-235.76,2022-08-17 13:30:33.593750
1308,-225.34,2022-08-17 13:30:33.609375
1309,-207.81,2022-08-17 13:30:33.625000
1310,-189.32,2022-08-17 13:30:33.640625
1311,-174.54,2022-08-17 13:30:33.656250
1312,-165.48,2022-08-17 13:30:33.671875
1313,-161.59,2022-08-17 13:30:33.687500
1314,-160.88,2022-08-17 13:30:33.703125
1315,-161.15,2022-08-17 13:30:33.718750
1316,-160.65,2022-08-17 13:30:33.734375
1317,-158.44,2022-08-17 13:30:33.750000
1318,-154.22,2022-08-17 13:30:33.765625
1319,-148.16,2022-08-17 13:30:33.781250
1320,-140.67,2022-08-17 13:30:33.796875
1321,-132.25,2022-08-17 13:30:33.812500
1322,-123.23,2022-08-17 13:30:33.828125
1323,-113.7,2022-08-17 13:30:33.843750
1324,-103.61,2022-08-17 13:30:33.859375
1325,-92.89,2022-08-17 13:30:33.875000
1326,-81.79,2022-08-17 13:30:33.890625
1327,-70.85,2022-08-17 13:30:33.906250
1328,-60.72,2022-08-17 13:30:33.921875
1329,-51.8,2022-08-17 13:30:33.937500
1330,-44.06,2022-08-17 13:30:33.953125
1331,-37.17,2022-08-17 13:30:33.968750
1332,-30.78,2022-08-17 13:30:33.984375
1333,-24.93,2022-08-17 13:30:34.000000
1334,-19.98,2022-08-17 13:30:34.015625
1335,-16.45,2022-08-17 13:30:34.031250
1336,-14.74,2022-08-17 13:30:34.046875
1337,-14.9,2022-08-17 13:30:34.062500
1338,-16.66,2022-08-17 13:30:34.078125
1339,-19.59,2022-08-17 13:30:34.093750
1340,-23.23,2022-08-17 13:30:34.109375
1341,-26.89,2022-08-17 13:30:34.125000
1342,-29.48,2022-08-17 13:30:34.140625
1343,-29.3,2022-08-17 13:30:34.156250
1344,-24.5,2022-08-17 13:30:34.171875
1345,-13.65,2022-08-17 13:30:34.187500
1346,3.36,2022-08-17 13:30:34.203125
1347,24.97,2022-08-17 13:30:34.218750
1348,48.26,2022-08-17 13:30:34.234375
1349,69.88,2022-08-17 13:30:34.250000
1350,87.23,2022-08-17 13:30:34.265625
1351,99.18,2022-08-17 13:30:34.281250
1352,106.11,2022-08-17 13:30:34.296875
1353,109.3,2022-08-17 13:30:34.312500
1354,109.97,2022-08-17 13:30:34.328125
1355,108.74,2022-08-17 13:30:34.343750
1356,105.54,2022-08-17 13:30:34.359375
1357,100.1,2022-08-17 13:30:34.375000
1358,92.41,2022-08-17 13:30:34.390625
1359,83.01,2022-08-17 13:30:34.406250
1360,72.9,2022-08-17 13:30:34.421875
1361,63.08,2022-08-17 13:30:34.437500
1362,54.18,2022-08-17 13:30:34.453125
1363,46.25,2022-08-17 13:30:34.468750
1364,39.0,2022-08-17 13:30:34.484375
1365,32.07,2022-08-17 13:30:34.500000
1366,25.39,2022-08-17 13:30:34.515625
1367,19.17,2022-08-17 13:30:34.531250
1368,13.83,2022-08-17 13:30:34.546875
1369,9.63,2022-08-17 13:30:34.562500
1370,6.44,2022-08-17 13:30:34.578125
1371,3.84,2022-08-17 13:30:34.593750
1372,1.06,2022-08-17 13:30:34.609375
1373,-2.63,2022-08-17 13:30:34.625000
1374,-7.76,2022-08-17 13:30:34.640625
1375,-14.53,2022-08-17 13:30:34.656250
1376,-22.81,2022-08-17 13:30:34.671875
1377,-32.28,2022-08-17 13:30:34.687500
1378,-42.56,2022-08-17 13:30:34.703125
1379,-53.17,2022-08-17 13:30:34.718750
1380,-63.33,2022-08-17 13:30:34.734375
1381,-71.75,2022-08-17 13:30:34.750000
1382,-76.63,2022-08-17 13:30:34.765625
1383,-76.04,2022-08-17 13:30:34.781250
1384,-68.59,2022-08-17 13:30:34.796875
1385,-54.14,2022-08-17 13:30:34.812500
1386,-34.08,2022-08-17 13:30:34.828125
1387,-11.13,2022-08-17 13:30:34.843750
1388,11.53,2022-08-17 13:30:34.859375
1389,31.25,2022-08-17 13:30:34.875000
1390,46.55,2022-08-17 13:30:34.890625
1391,57.21,2022-08-17 13:30:34.906250
1392,63.78,2022-08-17 13:30:34.921875
1393,66.96,2022-08-17 13:30:34.937500
1394,67.18,2022-08-17 13:30:34.953125
1395,64.58,2022-08-17 13:30:34.968750
1396,59.31,2022-08-17 13:30:34.984375
1397,51.91,2022-08-17 13:30:35.000000
1398,43.42,2022-08-17 13:30:35.015625
1399,35.22,2022-08-17 13:30:35.031250
1400,28.57,2022-08-17 13:30:35.046875
1401,24.18,2022-08-17 13:30:35.062500
1402,21.92,2022-08-17 13:30:35.078125
1403,20.88,2022-08-17 13:30:35.093750
1404,19.66,2022-08-17 13:30:35.109375
1405,16.85,2022-08-17 13:30:35.125000
1406,11.45,2022-08-17 13:30:35.140625
1407,3.17,2022-08-17 13:30:35.156250
1408,-7.59,2022-08-17 13:30:35.171875
1409,-19.87,2022-08-17 13:30:35.187500
1410,-32.54,2022-08-17 13:30:35.203125
1411,-44.61,2022-08-17 13:30:35.218750
1412,-55.49,2022-08-17 13:30:35.234375
1413,-64.89,2022-08-17 13:30:35.250000
1414,-72.73,2022-08-17 13:30:35.265625
1415,-79.07,2022-08-17 13:30:35.281250
1416,-84.17,2022-08-17 13:30:35.296875
1417,-88.57,2022-08-17 13:30:35.312500
1418,-93.07,2022-08-17 13:30:35.328125
1419,-98.46,2022-08-17 13:30:35.343750
1420,-105.01,2022-08-17 13:30:35.359375
1421,-112.13,2022-08-17 13:30:35.375000
1422,-118.21,2022-08-17 13:30:35.390625
1423,-121.13,2022-08-17 13:30:35.406250
1424,-119.11,2022-08-17 13:30:35.421875
1425,-111.56,2022-08-17 13:30:35.437500
1426,-99.34,2022-08-17 13:30:35.453125
1427,-84.46,2022-08-17 13:30:35.468750
1428,-69.31,2022-08-17 13:30:35.484375
1429,-55.74,2022-08-17 13:30:35.500000
1430,-44.63,2022-08-17 13:30:35.515625
1431,-35.94,2022-08-17 13:30:35.531250
1432,-29.16,2022-08-17 13:30:35.546875
1433,-23.89,2022-08-17 13:30:35.562500
1434,-20.13,2022-08-17 13:30:35.578125
1435,-18.26,2022-08-17 13:30:35.593750
1436,-18.69,2022-08-17 13:30:35.609375
1437,-21.48,2022-08-17 13:30:35.625000
1438,-25.98,2022-08-17 13:30:35.640625
1439,-31.04,2022-08-17 13:30:35.656250
1440,-35.27,2022-08-17 13:30:35.671875
1441,-37.52,2022-08-17 13:30:35.687500
1442,-37.31,2022-08-17 13:30:35.703125
1443,-34.91,2022-08-17 13:30:35.718750
1444,-31.17,2022-08-17 13:30:35.734375
1445,-27.07,2022-08-17 13:30:35.750000
1446,-23.33,2022-08-17 13:30:35.765625
1447,-20.16,2022-08-17 13:30:35.781250
1448,-17.43,2022-08-17 13:30:35.796875
1449,-14.96,2022-08-17 13:30:35.812500
1450,-12.76,2022-08-17 13:30:35.828125
1451,-11.23,2022-08-17 13:30:35.843750
1452,-10.98,2022-08-17 13:30:35.859375
1453,-12.61,2022-08-17 13:30:35.875000
1454,-16.62,2022-08-17 13:30:35.890625
1455,-23.34,2022-08-17 13:30:35.906250
1456,-32.86,2022-08-17 13:30:35.921875
1457,-45.04,2022-08-17 13:30:35.937500
1458,-59.11,2022-08-17 13:30:35.953125
1459,-73.28,2022-08-17 13:30:35.968750
1460,-84.93,2022-08-17 13:30:35.984375
1461,-91.03,2022-08-17 13:30:36.000000
1462,-89.07,2022-08-17 13:30:36.015625
1463,-78.1,2022-08-17 13:30:36.031250
1464,-59.12,2022-08-17 13:30:36.046875
1465,-34.9,2022-08-17 13:30:36.062500
1466,-9.02,2022-08-17 13:30:36.078125
1467,15.23,2022-08-17 13:30:36.093750
1468,35.73,2022-08-17 13:30:36.109375
1469,51.56,2022-08-17 13:30:36.125000
1470,62.8,2022-08-17 13:30:36.140625
1471,69.75,2022-08-17 13:30:36.156250
1472,72.6,2022-08-17 13:30:36.171875
1473,71.43,2022-08-17 13:30:36.187500
1474,66.45,2022-08-17 13:30:36.203125
1475,58.4,2022-08-17 13:30:36.218750
1476,48.61,2022-08-17 13:30:36.234375
1477,38.71,2022-08-17 13:30:36.250000
1478,30.13,2022-08-17 13:30:36.265625
1479,23.8,2022-08-17 13:30:36.281250
1480,19.76,2022-08-17 13:30:36.296875
1481,17.43,2022-08-17 13:30:36.312500
1482,15.85,2022-08-17 13:30:36.328125
1483,14.18,2022-08-17 13:30:36.343750
1484,11.88,2022-08-17 13:30:36.359375
1485,8.84,2022-08-17 13:30:36.375000
1486,5.21,2022-08-17 13:30:36.390625
1487,1.23,2022-08-17 13:30:36.406250
1488,-2.83,2022-08-17 13:30:36.421875
1489,-6.89,2022-08-17 13:30:36.437500
1490,-10.95,2022-08-17 13:30:36.453125
1491,-15.14,2022-08-17 13:30:36.468750
1492,-19.84,2022-08-17 13:30:36.484375
1493,-25.61,2022-08-17 13:30:36.500000
1494,-33.16,2022-08-17 13:30:36.515625
1495,-43.07,2022-08-17 13:30:36.531250
1496,-55.45,2022-08-17 13:30:36.546875
1497,-69.43,2022-08-17 13:30:36.562500
1498,-83.01,2022-08-17 13:30:36.578125
1499,-93.25,2022-08-17 13:30:36.593750
1500,-96.83,2022-08-17 13:30:36.609375
1501,-91.33,2022-08-17 13:30:36.625000
1502,-75.96,2022-08-17 13:30:36.640625
1503,-52.13,2022-08-17 13:30:36.656250
1504,-22.96,2022-08-17 13:30:36.671875
1505,7.65,2022-08-17 13:30:36.687500
1506,36.22,2022-08-17 13:30:36.703125
1507,60.55,2022-08-17 13:30:36.718750
1508,79.85,2022-08-17 13:30:36.734375
1509,94.38,2022-08-17 13:30:36.750000
1510,104.7,2022-08-17 13:30:36.765625
1511,111.21,2022-08-17 13:30:36.781250
1512,114.07,2022-08-17 13:30:36.796875
1513,113.36,2022-08-17 13:30:36.812500
1514,109.55,2022-08-17 13:30:36.828125
1515,103.64,2022-08-17 13:30:36.843750
1516,97.06,2022-08-17 13:30:36.859375
1517,91.3,2022-08-17 13:30:36.875000
1518,87.58,2022-08-17 13:30:36.890625
1519,86.4,2022-08-17 13:30:36.906250
1520,87.47,2022-08-17 13:30:36.921875
1521,89.84,2022-08-17 13:30:36.937500
1522,92.16,2022-08-17 13:30:36.953125
1523,93.1,2022-08-17 13:30:36.968750
1524,91.73,2022-08-17 13:30:36.984375
1525,87.65,2022-08-17 13:30:37.000000
1526,80.87,2022-08-17 13:30:37.015625
1527,71.81,2022-08-17 13:30:37.031250
1528,60.97,2022-08-17 13:30:37.046875
1529,48.92,2022-08-17 13:30:37.062500
1530,36.26,2022-08-17 13:30:37.078125
1531,23.5,2022-08-17 13:30:37.093750
1532,10.91,2022-08-17 13:30:37.109375
1533,-1.81,2022-08-17 13:30:37.125000
1534,-15.55,2022-08-17 13:30:37.140625
1535,-31.52,2022-08-17 13:30:37.156250
1536,-50.44,2022-08-17 13:30:37.171875
1537,-71.71,2022-08-17 13:30:37.187500
1538,-92.94,2022-08-17 13:30:37.203125
1539,-110.37,2022-08-17 13:30:37.218750
1540,-120.07,2022-08-17 13:30:37.234375
1541,-119.49,2022-08-17 13:30:37.250000
1542,-108.55,2022-08-17 13:30:37.265625
1543,-89.68,2022-08-17 13:30:37.281250
1544,-66.66,2022-08-17 13:30:37.296875
1545,-43.04,2022-08-17 13:30:37.312500
1546,-20.95,2022-08-17 13:30:37.328125
1547,-0.88,2022-08-17 13:30:37.343750
1548,17.55,2022-08-17 13:30:37.359375
1549,34.49,2022-08-17 13:30:37.375000
1550,49.08,2022-08-17 13:30:37.390625
1551,59.67,2022-08-17 13:30:37.406250
1552,64.58,2022-08-17 13:30:37.421875
1553,63.18,2022-08-17 13:30:37.437500
1554,56.41,2022-08-17 13:30:37.453125
1555,46.61,2022-08-17 13:30:37.468750
1556,36.6,2022-08-17 13:30:37.484375
1557,28.69,2022-08-17 13:30:37.500000
1558,23.97,2022-08-17 13:30:37.515625
1559,22.08,2022-08-17 13:30:37.531250
1560,21.72,2022-08-17 13:30:37.546875
1561,21.14,2022-08-17 13:30:37.562500
1562,19.0,2022-08-17 13:30:37.578125
1563,14.67,2022-08-17 13:30:37.593750
1564,8.43,2022-08-17 13:30:37.609375
1565,1.11,2022-08-17 13:30:37.625000
1566,-6.33,2022-08-17 13:30:37.640625
1567,-13.24,2022-08-17 13:30:37.656250
1568,-19.55,2022-08-17 13:30:37.671875
1569,-25.69,2022-08-17 13:30:37.687500
1570,-32.45,2022-08-17 13:30:37.703125
1571,-40.59,2022-08-17 13:30:37.718750
1572,-50.72,2022-08-17 13:30:37.734375
1573,-63.21,2022-08-17 13:30:37.750000
1574,-78.01,2022-08-17 13:30:37.765625
1575,-94.38,2022-08-17 13:30:37.781250
1576,-110.55,2022-08-17 13:30:37.796875
1577,-123.73,2022-08-17 13:30:37.812500
1578,-130.55,2022-08-17 13:30:37.828125
1579,-128.09,2022-08-17 13:30:37.843750
1580,-115.0,2022-08-17 13:30:37.859375
1581,-92.28,2022-08-17 13:30:37.875000
1582,-63.2,2022-08-17 13:30:37.890625
1583,-32.09,2022-08-17 13:30:37.906250
1584,-2.97,2022-08-17 13:30:37.921875
1585,21.77,2022-08-17 13:30:37.937500
1586,41.61,2022-08-17 13:30:37.953125
1587,57.5,2022-08-17 13:30:37.968750
1588,70.74,2022-08-17 13:30:37.984375
1589,82.09,2022-08-17 13:30:38.000000
1590,91.42,2022-08-17 13:30:38.015625
1591,97.87,2022-08-17 13:30:38.031250
1592,100.61,2022-08-17 13:30:38.046875
1593,99.28,2022-08-17 13:30:38.062500
1594,94.45,2022-08-17 13:30:38.078125
1595,87.44,2022-08-17 13:30:38.093750
1596,79.92,2022-08-17 13:30:38.109375
1597,73.34,2022-08-17 13:30:38.125000
1598,68.46,2022-08-17 13:30:38.140625
1599,65.29,2022-08-17 13:30:38.156250
1600,63.22,2022-08-17 13:30:38.171875
1601,61.6,2022-08-17 13:30:38.187500
1602,60.09,2022-08-17 13:30:38.203125
1603,58.94,2022-08-17 13:30:38.218750
1604,58.82,2022-08-17 13:30:38.234375
1605,60.27,2022-08-17 13:30:38.250000
1606,63.36,2022-08-17 13:30:38.265625
1607,67.27,2022-08-17 13:30:38.281250
1608,70.6,2022-08-17 13:30:38.296875
1609,71.63,2022-08-17 13:30:38.312500
1610,68.94,2022-08-17 13:30:38.328125
1611,61.58,2022-08-17 13:30:38.343750
1612,49.31,2022-08-17 13:30:38.359375
1613,32.53,2022-08-17 13:30:38.375000
1614,12.37,2022-08-17 13:30:38.390625
1615,-9.13,2022-08-17 13:30:38.406250
1616,-29.04,2022-08-17 13:30:38.421875
1617,-43.71,2022-08-17 13:30:38.437500
1618,-49.56,2022-08-17 13:30:38.453125
1619,-44.18,2022-08-17 13:30:38.468750
1620,-27.42,2022-08-17 13:30:38.484375
1621,-1.73,2022-08-17 13:30:38.500000
1622,28.37,2022-08-17 13:30:38.515625
1623,57.9,2022-08-17 13:30:38.531250
1624,83.02,2022-08-17 13:30:38.546875
1625,102.24,2022-08-17 13:30:38.562500
1626,116.41,2022-08-17 13:30:38.578125
1627,127.73,2022-08-17 13:30:38.593750
1628,138.37,2022-08-17 13:30:38.609375
1629,149.36,2022-08-17 13:30:38.625000
1630,160.37,2022-08-17 13:30:38.640625
1631,170.23,2022-08-17 13:30:38.656250
1632,177.73,2022-08-17 13:30:38.671875
1633,182.24,2022-08-17 13:30:38.687500
1634,183.67,2022-08-17 13:30:38.703125
1635,182.13,2022-08-17 13:30:38.718750
1636,177.67,2022-08-17 13:30:38.734375
1637,170.14,2022-08-17 13:30:38.750000
1638,159.56,2022-08-17 13:30:38.765625
1639,146.55,2022-08-17 13:30:38.781250
1640,132.51,2022-08-17 13:30:38.796875
1641,119.29,2022-08-17 13:30:38.812500
1642,108.53,2022-08-17 13:30:38.828125
1643,101.02,2022-08-17 13:30:38.843750
1644,96.29,2022-08-17 13:30:38.859375
1645,92.74,2022-08-17 13:30:38.875000
1646,88.15,2022-08-17 13:30:38.890625
1647,80.39,2022-08-17 13:30:38.906250
1648,68.08,2022-08-17 13:30:38.921875
1649,50.73,2022-08-17 13:30:38.937500
1650,28.59,2022-08-17 13:30:38.953125
1651,2.36,2022-08-17 13:30:38.968750
1652,-26.93,2022-08-17 13:30:38.984375
1653,-57.85,2022-08-17 13:30:39.000000
1654,-88.33,2022-08-17 13:30:39.015625
1655,-115.54,2022-08-17 13:30:39.031250
1656,-136.26,2022-08-17 13:30:39.046875
1657,-147.59,2022-08-17 13:30:39.062500
1658,-148.01,2022-08-17 13:30:39.078125
1659,-138.03,2022-08-17 13:30:39.093750
1660,-120.16,2022-08-17 13:30:39.109375
1661,-98.13,2022-08-17 13:30:39.125000
1662,-75.62,2022-08-17 13:30:39.140625
1663,-55.26,2022-08-17 13:30:39.156250
1664,-38.09,2022-08-17 13:30:39.171875
1665,-24.02,2022-08-17 13:30:39.187500
1666,-12.5,2022-08-17 13:30:39.203125
1667,-3.34,2022-08-17 13:30:39.218750
1668,3.09,2022-08-17 13:30:39.234375
1669,6.08,2022-08-17 13:30:39.250000
1670,5.18,2022-08-17 13:30:39.265625
1671,0.81,2022-08-17 13:30:39.281250
1672,-5.74,2022-08-17 13:30:39.296875
1673,-12.54,2022-08-17 13:30:39.312500
1674,-17.72,2022-08-17 13:30:39.328125
1675,-20.12,2022-08-17 13:30:39.343750
1676,-19.64,2022-08-17 13:30:39.359375
1677,-17.2,2022-08-17 13:30:39.375000
1678,-14.35,2022-08-17 13:30:39.390625
1679,-12.68,2022-08-17 13:30:39.406250
1680,-13.21,2022-08-17 13:30:39.421875
1681,-16.11,2022-08-17 13:30:39.437500
1682,-20.73,2022-08-17 13:30:39.453125
1683,-25.98,2022-08-17 13:30:39.468750
1684,-30.82,2022-08-17 13:30:39.484375
1685,-34.69,2022-08-17 13:30:39.500000
1686,-37.66,2022-08-17 13:30:39.515625
1687,-40.43,2022-08-17 13:30:39.531250
1688,-44.05,2022-08-17 13:30:39.546875
1689,-49.65,2022-08-17 13:30:39.562500
1690,-58.09,2022-08-17 13:30:39.578125
1691,-69.59,2022-08-17 13:30:39.593750
1692,-83.47,2022-08-17 13:30:39.609375
1693,-97.96,2022-08-17 13:30:39.625000
1694,-110.36,2022-08-17 13:30:39.640625
1695,-117.61,2022-08-17 13:30:39.656250
1696,-117.2,2022-08-17 13:30:39.671875
1697,-107.96,2022-08-17 13:30:39.687500
1698,-90.66,2022-08-17 13:30:39.703125
1699,-67.76,2022-08-17 13:30:39.718750
1700,-42.72,2022-08-17 13:30:39.734375
1701,-19.04,2022-08-17 13:30:39.750000
1702,0.63,2022-08-17 13:30:39.765625
1703,14.99,2022-08-17 13:30:39.781250
1704,24.03,2022-08-17 13:30:39.796875
1705,28.67,2022-08-17 13:30:39.812500
1706,30.14,2022-08-17 13:30:39.828125
1707,29.49,2022-08-17 13:30:39.843750
1708,27.29,2022-08-17 13:30:39.859375
1709,23.71,2022-08-17 13:30:39.875000
1710,18.87,2022-08-17 13:30:39.890625
1711,13.13,2022-08-17 13:30:39.906250
1712,7.35,2022-08-17 13:30:39.921875
1713,2.76,2022-08-17 13:30:39.937500
1714,0.45,2022-08-17 13:30:39.953125
1715,0.83,2022-08-17 13:30:39.968750
1716,3.33,2022-08-17 13:30:39.984375
1717,6.49,2022-08-17 13:30:40.000000
1718,8.49,2022-08-17 13:30:40.015625
1719,7.87,2022-08-17 13:30:40.031250
1720,4.03,2022-08-17 13:30:40.046875
1721,-2.65,2022-08-17 13:30:40.062500
1722,-11.04,2022-08-17 13:30:40.078125
1723,-19.77,2022-08-17 13:30:40.093750
1724,-27.56,2022-08-17 13:30:40.109375
1725,-33.48,2022-08-17 13:30:40.125000
1726,-37.06,2022-08-17 13:30:40.140625
1727,-38.33,2022-08-17 13:30:40.156250
1728,-37.97,2022-08-17 13:30:40.171875
1729,-37.23,2022-08-17 13:30:40.187500
1730,-37.78,2022-08-17 13:30:40.203125
1731,-40.92,2022-08-17 13:30:40.218750
1732,-46.85,2022-08-17 13:30:40.234375
1733,-54.06,2022-08-17 13:30:40.250000
1734,-59.54,2022-08-17 13:30:40.265625
1735,-59.79,2022-08-17 13:30:40.281250
1736,-52.21,2022-08-17 13:30:40.296875
1737,-36.24,2022-08-17 13:30:40.312500
1738,-13.68,2022-08-17 13:30:40.328125
1739,12.01,2022-08-17 13:30:40.343750
1740,37.07,2022-08-17 13:30:40.359375
1741,58.56,2022-08-17 13:30:40.375000
1742,75.09,2022-08-17 13:30:40.390625
1743,86.64,2022-08-17 13:30:40.406250
1744,93.96,2022-08-17 13:30:40.421875
1745,97.83,2022-08-17 13:30:40.437500
1746,98.71,2022-08-17 13:30:40.453125
1747,96.79,2022-08-17 13:30:40.468750
1748,92.11,2022-08-17 13:30:40.484375
1749,85.02,2022-08-17 13:30:40.500000
1750,76.11,2022-08-17 13:30:40.515625
1751,66.28,2022-08-17 13:30:40.531250
1752,56.52,2022-08-17 13:30:40.546875
1753,47.71,2022-08-17 13:30:40.562500
1754,40.41,2022-08-17 13:30:40.578125
1755,34.66,2022-08-17 13:30:40.593750
1756,30.08,2022-08-17 13:30:40.609375
1757,26.0,2022-08-17 13:30:40.625000
1758,21.72,2022-08-17 13:30:40.640625
1759,16.77,2022-08-17 13:30:40.656250
1760,10.98,2022-08-17 13:30:40.671875
1761,4.56,2022-08-17 13:30:40.687500
1762,-2.19,2022-08-17 13:30:40.703125
1763,-8.91,2022-08-17 13:30:40.718750
1764,-15.32,2022-08-17 13:30:40.734375
1765,-21.25,2022-08-17 13:30:40.750000
1766,-26.52,2022-08-17 13:30:40.765625
1767,-31.19,2022-08-17 13:30:40.781250
1768,-35.64,2022-08-17 13:30:40.796875
1769,-40.73,2022-08-17 13:30:40.812500
1770,-47.57,2022-08-17 13:30:40.828125
1771,-56.99,2022-08-17 13:30:40.843750
1772,-68.83,2022-08-17 13:30:40.859375
1773,-81.37,2022-08-17 13:30:40.875000
1774,-91.6,2022-08-17 13:30:40.890625
1775,-96.06,2022-08-17 13:30:40.906250
1776,-92.18,2022-08-17 13:30:40.921875
1777,-79.32,2022-08-17 13:30:40.937500
1778,-59.05,2022-08-17 13:30:40.953125
1779,-34.51,2022-08-17 13:30:40.968750
1780,-9.29,2022-08-17 13:30:40.984375
1781,13.76,2022-08-17 13:30:41.000000
1782,33.09,2022-08-17 13:30:41.015625
1783,48.32,2022-08-17 13:30:41.031250
1784,59.68,2022-08-17 13:30:41.046875
1785,67.46,2022-08-17 13:30:41.062500
1786,71.85,2022-08-17 13:30:41.078125
1787,72.9,2022-08-17 13:30:41.093750
1788,70.93,2022-08-17 13:30:41.109375
1789,66.59,2022-08-17 13:30:41.125000
1790,60.82,2022-08-17 13:30:41.140625
1791,54.64,2022-08-17 13:30:41.156250
1792,48.87,2022-08-17 13:30:41.171875
1793,44.04,2022-08-17 13:30:41.187500
1794,40.29,2022-08-17 13:30:41.203125
1795,37.57,2022-08-17 13:30:41.218750
1796,35.67,2022-08-17 13:30:41.234375
1797,34.34,2022-08-17 13:30:41.250000
1798,33.28,2022-08-17 13:30:41.265625
1799,32.24,2022-08-17 13:30:41.281250
1800,30.9,2022-08-17 13:30:41.296875
1801,29.01,2022-08-17 13:30:41.312500
1802,26.41,2022-08-17 13:30:41.328125
1803,22.97,2022-08-17 13:30:41.343750
1804,18.75,2022-08-17 13:30:41.359375
1805,13.81,2022-08-17 13:30:41.375000
1806,8.28,2022-08-17 13:30:41.390625
1807,2.25,2022-08-17 13:30:41.406250
1808,-4.33,2022-08-17 13:30:41.421875
1809,-11.71,2022-08-17 13:30:41.437500
1810,-20.31,2022-08-17 13:30:41.453125
1811,-30.51,2022-08-17 13:30:41.468750
1812,-42.27,2022-08-17 13:30:41.484375
1813,-54.73,2022-08-17 13:30:41.500000
1814,-66.07,2022-08-17 13:30:41.515625
1815,-73.69,2022-08-17 13:30:41.531250
1816,-74.92,2022-08-17 13:30:41.546875
1817,-67.93,2022-08-17 13:30:41.562500
1818,-52.36,2022-08-17 13:30:41.578125
1819,-29.62,2022-08-17 13:30:41.593750
1820,-2.45,2022-08-17 13:30:41.609375
1821,25.89,2022-08-17 13:30:41.625000
1822,52.49,2022-08-17 13:30:41.640625
1823,75.35,2022-08-17 13:30:41.656250
1824,93.6,2022-08-17 13:30:41.671875
1825,107.2,2022-08-17 13:30:41.687500
1826,116.54,2022-08-17 13:30:41.703125
1827,122.05,2022-08-17 13:30:41.718750
1828,124.04,2022-08-17 13:30:41.734375
1829,122.61,2022-08-17 13:30:41.750000
1830,117.83,2022-08-17 13:30:41.765625
1831,109.92,2022-08-17 13:30:41.781250
1832,99.42,2022-08-17 13:30:41.796875
1833,87.21,2022-08-17 13:30:41.812500
1834,74.49,2022-08-17 13:30:41.828125
1835,62.45,2022-08-17 13:30:41.843750
1836,52.09,2022-08-17 13:30:41.859375
1837,44.0,2022-08-17 13:30:41.875000
1838,38.11,2022-08-17 13:30:41.890625
1839,33.95,2022-08-17 13:30:41.906250
1840,30.68,2022-08-17 13:30:41.921875
1841,27.38,2022-08-17 13:30:41.937500
1842,23.21,2022-08-17 13:30:41.953125
1843,17.56,2022-08-17 13:30:41.968750
1844,10.11,2022-08-17 13:30:41.984375
1845,0.83,2022-08-17 13:30:42.000000
1846,-9.99,2022-08-17 13:30:42.015625
1847,-22.03,2022-08-17 13:30:42.031250
1848,-34.89,2022-08-17 13:30:42.046875
1849,-48.4,2022-08-17 13:30:42.062500
1850,-62.72,2022-08-17 13:30:42.078125
1851,-78.21,2022-08-17 13:30:42.093750
1852,-95.09,2022-08-17 13:30:42.109375
1853,-112.96,2022-08-17 13:30:42.125000
1854,-130.35,2022-08-17 13:30:42.140625
1855,-144.87,2022-08-17 13:30:42.156250
1856,-153.86,2022-08-17 13:30:42.171875
1857,-155.22,2022-08-17 13:30:42.187500
1858,-148.3,2022-08-17 13:30:42.203125
1859,-134.19,2022-08-17 13:30:42.218750
1860,-115.34,2022-08-17 13:30:42.234375
1861,-94.68,2022-08-17 13:30:42.250000
1862,-74.79,2022-08-17 13:30:42.265625
1863,-57.32,2022-08-17 13:30:42.281250
1864,-43.06,2022-08-17 13:30:42.296875
1865,-32.3,2022-08-17 13:30:42.312500
1866,-25.11,2022-08-17 13:30:42.328125
1867,-21.54,2022-08-17 13:30:42.343750
1868,-21.45,2022-08-17 13:30:42.359375
1869,-24.2,2022-08-17 13:30:42.375000
1870,-28.68,2022-08-17 13:30:42.390625
1871,-33.4,2022-08-17 13:30:42.406250
1872,-36.93,2022-08-17 13:30:42.421875
1873,-38.32,2022-08-17 13:30:42.437500
1874,-37.34,2022-08-17 13:30:42.453125
1875,-34.5,2022-08-17 13:30:42.468750
1876,-30.8,2022-08-17 13:30:42.484375
1877,-27.4,2022-08-17 13:30:42.500000
1878,-25.2,2022-08-17 13:30:42.515625
1879,-24.61,2022-08-17 13:30:42.531250
1880,-25.48,2022-08-17 13:30:42.546875
1881,-27.29,2022-08-17 13:30:42.562500
1882,-29.36,2022-08-17 13:30:42.578125
1883,-31.25,2022-08-17 13:30:42.593750
1884,-32.88,2022-08-17 13:30:42.609375
1885,-34.58,2022-08-17 13:30:42.625000
1886,-36.9,2022-08-17 13:30:42.640625
1887,-40.4,2022-08-17 13:30:42.656250
1888,-45.53,2022-08-17 13:30:42.671875
1889,-52.6,2022-08-17 13:30:42.687500
1890,-61.7,2022-08-17 13:30:42.703125
1891,-72.53,2022-08-17 13:30:42.718750
1892,-84.12,2022-08-17 13:30:42.734375
1893,-94.79,2022-08-17 13:30:42.750000
1894,-102.24,2022-08-17 13:30:42.765625
1895,-104.26,2022-08-17 13:30:42.781250
1896,-99.33,2022-08-17 13:30:42.796875
1897,-87.34,2022-08-17 13:30:42.812500
1898,-69.67,2022-08-17 13:30:42.828125
1899,-48.79,2022-08-17 13:30:42.843750
1900,-27.63,2022-08-17 13:30:42.859375
1901,-8.81,2022-08-17 13:30:42.875000
1902,5.75,2022-08-17 13:30:42.890625
1903,14.93,2022-08-17 13:30:42.906250
1904,18.29,2022-08-17 13:30:42.921875
1905,15.98,2022-08-17 13:30:42.937500
1906,8.69,2022-08-17 13:30:42.953125
1907,-2.23,2022-08-17 13:30:42.968750
1908,-14.97,2022-08-17 13:30:42.984375
1909,-27.51,2022-08-17 13:30:43.000000
1910,-38.3,2022-08-17 13:30:43.015625
1911,-46.73,2022-08-17 13:30:43.031250
1912,-53.29,2022-08-17 13:30:43.046875
1913,-59.4,2022-08-17 13:30:43.062500
1914,-66.72,2022-08-17 13:30:43.078125
1915,-76.49,2022-08-17 13:30:43.093750
1916,-88.87,2022-08-17 13:30:43.109375
1917,-102.86,2022-08-17 13:30:43.125000
1918,-116.48,2022-08-17 13:30:43.140625
1919,-127.47,2022-08-17 13:30:43.156250
1920,-133.77,2022-08-17 13:30:43.171875
1921,-134.07,2022-08-17 13:30:43.187500
1922,-128.07,2022-08-17 13:30:43.203125
1923,-116.64,2022-08-17 13:30:43.218750
1924,-101.69,2022-08-17 13:30:43.234375
1925,-85.68,2022-08-17 13:30:43.250000
1926,-70.95,2022-08-17 13:30:43.265625
1927,-59.05,2022-08-17 13:30:43.281250
1928,-50.45,2022-08-17 13:30:43.296875
1929,-44.56,2022-08-17 13:30:43.312500
1930,-40.11,2022-08-17 13:30:43.328125
1931,-35.52,2022-08-17 13:30:43.343750
1932,-29.17,2022-08-17 13:30:43.359375
1933,-19.33,2022-08-17 13:30:43.375000
1934,-4.31,2022-08-17 13:30:43.390625
1935,17.23,2022-08-17 13:30:43.406250
1936,45.38,2022-08-17 13:30:43.421875
1937,78.24,2022-08-17 13:30:43.437500
1938,111.73,2022-08-17 13:30:43.453125
1939,140.24,2022-08-17 13:30:43.468750
1940,158.38,2022-08-17 13:30:43.484375
1941,162.71,2022-08-17 13:30:43.500000
1942,152.98,2022-08-17 13:30:43.515625
1943,131.94,2022-08-17 13:30:43.531250
1944,104.44,2022-08-17 13:30:43.546875
1945,75.75,2022-08-17 13:30:43.562500
1946,50.38,2022-08-17 13:30:43.578125
1947,31.26,2022-08-17 13:30:43.593750
1948,19.49,2022-08-17 13:30:43.609375
1949,14.64,2022-08-17 13:30:43.625000
1950,15.15,2022-08-17 13:30:43.640625
1951,18.83,2022-08-17 13:30:43.656250
1952,23.39,2022-08-17 13:30:43.671875
1953,26.99,2022-08-17 13:30:43.687500
1954,28.4,2022-08-17 13:30:43.703125
1955,27.18,2022-08-17 13:30:43.718750
1956,23.35,2022-08-17 13:30:43.734375
1957,17.06,2022-08-17 13:30:43.750000
1958,8.48,2022-08-17 13:30:43.765625
1959,-2.08,2022-08-17 13:30:43.781250
1960,-13.95,2022-08-17 13:30:43.796875
1961,-26.09,2022-08-17 13:30:43.812500
1962,-37.36,2022-08-17 13:30:43.828125
1963,-47.08,2022-08-17 13:30:43.843750
1964,-55.49,2022-08-17 13:30:43.859375
1965,-63.79,2022-08-17 13:30:43.875000
1966,-73.77,2022-08-17 13:30:43.890625
1967,-86.83,2022-08-17 13:30:43.906250
1968,-103.26,2022-08-17 13:30:43.921875
1969,-121.56,2022-08-17 13:30:43.937500
1970,-138.69,2022-08-17 13:30:43.953125
1971,-150.8,2022-08-17 13:30:43.968750
1972,-154.55,2022-08-17 13:30:43.984375
1973,-148.24,2022-08-17 13:30:44.000000
1974,-132.44,2022-08-17 13:30:44.015625
1975,-109.8,2022-08-17 13:30:44.031250
1976,-84.03,2022-08-17 13:30:44.046875
1977,-58.82,2022-08-17 13:30:44.062500
1978,-36.63,2022-08-17 13:30:44.078125
1979,-18.44,2022-08-17 13:30:44.093750
1980,-3.88,2022-08-17 13:30:44.109375
1981,8.01,2022-08-17 13:30:44.125000
1982,18.2,2022-08-17 13:30:44.140625
1983,27.26,2022-08-17 13:30:44.156250
1984,35.3,2022-08-17 13:30:44.171875
1985,42.21,2022-08-17 13:30:44.187500
1986,47.82,2022-08-17 13:30:44.203125
1987,52.14,2022-08-17 13:30:44.218750
1988,55.32,2022-08-17 13:30:44.234375
1989,57.77,2022-08-17 13:30:44.250000
1990,59.83,2022-08-17 13:30:44.265625
1991,61.85,2022-08-17 13:30:44.281250
1992,63.94,2022-08-17 13:30:44.296875
1993,66.0,2022-08-17 13:30:44.312500
1994,67.81,2022-08-17 13:30:44.328125
1995,69.17,2022-08-17 13:30:44.343750
1996,70.04,2022-08-17 13:30:44.359375
1997,70.5,2022-08-17 13:30:44.375000
1998,70.67,2022-08-17 13:30:44.390625
1999,70.51,2022-08-17 13:30:44.406250
2000,69.85,2022-08-17 13:30:44.421875
2001,68.58,2022-08-17 13:30:44.437500
2002,66.82,2022-08-17 13:30:44.453125
2003,65.03,2022-08-17 13:30:44.468750
2004,63.77,2022-08-17 13:30:44.484375
2005,63.32,2022-08-17 13:30:44.500000
2006,63.35,2022-08-17 13:30:44.515625
2007,63.01,2022-08-17 13:30:44.531250
2008,61.47,2022-08-17 13:30:44.546875
2009,58.44,2022-08-17 13:30:44.562500
2010,54.66,2022-08-17 13:30:44.578125
2011,51.67,2022-08-17 13:30:44.593750
2012,51.11,2022-08-17 13:30:44.609375
2013,53.88,2022-08-17 13:30:44.625000
2014,59.7,2022-08-17 13:30:44.640625
2015,67.33,2022-08-17 13:30:44.656250
2016,75.21,2022-08-17 13:30:44.671875
2017,82.05,2022-08-17 13:30:44.687500
2018,87.07,2022-08-17 13:30:44.703125
2019,89.82,2022-08-17 13:30:44.718750
2020,89.89,2022-08-17 13:30:44.734375
2021,86.89,2022-08-17 13:30:44.750000
2022,80.83,2022-08-17 13:30:44.765625
2023,72.68,2022-08-17 13:30:44.781250
2024,64.59,2022-08-17 13:30:44.796875
2025,59.46,2022-08-17 13:30:44.812500
2026,60.01,2022-08-17 13:30:44.828125
2027,67.62,2022-08-17 13:30:44.843750
2028,81.71,2022-08-17 13:30:44.859375
2029,99.67,2022-08-17 13:30:44.875000
2030,117.64,2022-08-17 13:30:44.890625
2031,131.34,2022-08-17 13:30:44.906250
2032,136.9,2022-08-17 13:30:44.921875
2033,131.49,2022-08-17 13:30:44.937500
2034,113.61,2022-08-17 13:30:44.953125
2035,83.39,2022-08-17 13:30:44.968750
2036,42.68,2022-08-17 13:30:44.984375
2037,-5.04,2022-08-17 13:30:45.000000
2038,-55.3,2022-08-17 13:30:45.015625
2039,-103.4,2022-08-17 13:30:45.031250
2040,-145.37,2022-08-17 13:30:45.046875
2041,-178.6,2022-08-17 13:30:45.062500
2042,-202.07,2022-08-17 13:30:45.078125
2043,-216.08,2022-08-17 13:30:45.093750
2044,-221.67,2022-08-17 13:30:45.109375
2045,-220.13,2022-08-17 13:30:45.125000
2046,-212.63,2022-08-17 13:30:45.140625
2047,-200.07,2022-08-17 13:30:45.156250
2048,-183.14,2022-08-17 13:30:45.171875
2049,-162.45,2022-08-17 13:30:45.187500
2050,-138.66,2022-08-17 13:30:45.203125
2051,-112.63,2022-08-17 13:30:45.218750
2052,-85.51,2022-08-17 13:30:45.234375
2053,-58.62,2022-08-17 13:30:45.250000
2054,-33.34,2022-08-17 13:30:45.265625
2055,-10.9,2022-08-17 13:30:45.281250
2056,7.95,2022-08-17 13:30:45.296875
2057,23.06,2022-08-17 13:30:45.312500
2058,34.87,2022-08-17 13:30:45.328125
2059,44.31,2022-08-17 13:30:45.343750
2060,52.52,2022-08-17 13:30:45.359375
2061,60.63,2022-08-17 13:30:45.375000
2062,69.46,2022-08-17 13:30:45.390625
2063,79.48,2022-08-17 13:30:45.406250
2064,90.79,2022-08-17 13:30:45.421875
2065,103.35,2022-08-17 13:30:45.437500
2066,117.21,2022-08-17 13:30:45.453125
2067,132.52,2022-08-17 13:30:45.468750
2068,149.47,2022-08-17 13:30:45.484375
2069,167.91,2022-08-17 13:30:45.500000
2070,187.24,2022-08-17 13:30:45.515625
2071,206.28,2022-08-17 13:30:45.531250
2072,223.69,2022-08-17 13:30:45.546875
2073,238.29,2022-08-17 13:30:45.562500
2074,249.36,2022-08-17 13:30:45.578125
2075,256.66,2022-08-17 13:30:45.593750
2076,259.99,2022-08-17 13:30:45.609375
2077,259.06,2022-08-17 13:30:45.625000
2078,253.36,2022-08-17 13:30:45.640625
2079,242.5,2022-08-17 13:30:45.656250
2080,226.54,2022-08-17 13:30:45.671875
2081,206.14,2022-08-17 13:30:45.687500
2082,182.44,2022-08-17 13:30:45.703125
2083,156.82,2022-08-17 13:30:45.718750
2084,130.6,2022-08-17 13:30:45.734375
2085,104.97,2022-08-17 13:30:45.750000
2086,81.12,2022-08-17 13:30:45.765625
2087,60.2,2022-08-17 13:30:45.781250
2088,43.18,2022-08-17 13:30:45.796875
2089,30.43,2022-08-17 13:30:45.812500
2090,21.54,2022-08-17 13:30:45.828125
2091,15.49,2022-08-17 13:30:45.843750
2092,11.05,2022-08-17 13:30:45.859375
2093,7.54,2022-08-17 13:30:45.875000
2094,4.99,2022-08-17 13:30:45.890625
2095,4.03,2022-08-17 13:30:45.906250
2096,5.18,2022-08-17 13:30:45.921875
2097,8.29,2022-08-17 13:30:45.937500
2098,12.32,2022-08-17 13:30:45.953125
2099,15.82,2022-08-17 13:30:45.968750
2100,17.62,2022-08-17 13:30:45.984375
2101,17.4,2022-08-17 13:30:46.000000
2102,15.85,2022-08-17 13:30:46.015625
2103,14.2,2022-08-17 13:30:46.031250
2104,13.52,2022-08-17 13:30:46.046875
2105,14.03,2022-08-17 13:30:46.062500
2106,15.04,2022-08-17 13:30:46.078125
2107,15.27,2022-08-17 13:30:46.093750
2108,13.5,2022-08-17 13:30:46.109375
2109,9.3,2022-08-17 13:30:46.125000
2110,3.21,2022-08-17 13:30:46.140625
2111,-3.25,2022-08-17 13:30:46.156250
2112,-8.2,2022-08-17 13:30:46.171875
2113,-9.91,2022-08-17 13:30:46.187500
2114,-7.27,2022-08-17 13:30:46.203125
2115,-0.05,2022-08-17 13:30:46.218750
2116,11.19,2022-08-17 13:30:46.234375
2117,25.14,2022-08-17 13:30:46.250000
2118,40.07,2022-08-17 13:30:46.265625
2119,53.93,2022-08-17 13:30:46.281250
2120,64.86,2022-08-17 13:30:46.296875
2121,71.37,2022-08-17 13:30:46.312500
2122,72.77,2022-08-17 13:30:46.328125
2123,69.29,2022-08-17 13:30:46.343750
2124,62.08,2022-08-17 13:30:46.359375
2125,52.84,2022-08-17 13:30:46.375000
2126,43.3,2022-08-17 13:30:46.390625
2127,34.66,2022-08-17 13:30:46.406250
2128,27.12,2022-08-17 13:30:46.421875
2129,19.91,2022-08-17 13:30:46.437500
2130,11.66,2022-08-17 13:30:46.453125
2131,0.95,2022-08-17 13:30:46.468750
2132,-13.1,2022-08-17 13:30:46.484375
2133,-30.6,2022-08-17 13:30:46.500000
2134,-51.04,2022-08-17 13:30:46.515625
2135,-73.61,2022-08-17 13:30:46.531250
2136,-97.46,2022-08-17 13:30:46.546875
2137,-121.71,2022-08-17 13:30:46.562500
2138,-145.16,2022-08-17 13:30:46.578125
2139,-166.29,2022-08-17 13:30:46.593750
2140,-183.5,2022-08-17 13:30:46.609375
2141,-195.86,2022-08-17 13:30:46.625000
2142,-203.6,2022-08-17 13:30:46.640625
2143,-208.17,2022-08-17 13:30:46.656250
2144,-211.57,2022-08-17 13:30:46.671875
2145,-215.15,2022-08-17 13:30:46.687500
2146,-219.01,2022-08-17 13:30:46.703125
2147,-221.88,2022-08-17 13:30:46.718750
2148,-222.02,2022-08-17 13:30:46.734375
2149,-218.49,2022-08-17 13:30:46.750000
2150,-211.83,2022-08-17 13:30:46.765625
2151,-204.02,2022-08-17 13:30:46.781250
2152,-197.6,2022-08-17 13:30:46.796875
2153,-194.46,2022-08-17 13:30:46.812500
2154,-194.97,2022-08-17 13:30:46.828125
2155,-197.83,2022-08-17 13:30:46.843750
2156,-200.58,2022-08-17 13:30:46.859375
2157,-200.48,2022-08-17 13:30:46.875000
2158,-195.43,2022-08-17 13:30:46.890625
2159,-184.45,2022-08-17 13:30:46.906250
2160,-167.87,2022-08-17 13:30:46.921875
2161,-146.98,2022-08-17 13:30:46.937500
2162,-123.55,2022-08-17 13:30:46.953125
2163,-99.06,2022-08-17 13:30:46.968750
2164,-74.35,2022-08-17 13:30:46.984375
2165,-49.41,2022-08-17 13:30:47.000000
2166,-23.68,2022-08-17 13:30:47.015625
2167,3.59,2022-08-17 13:30:47.031250
2168,32.72,2022-08-17 13:30:47.046875
2169,63.31,2022-08-17 13:30:47.062500
2170,94.25,2022-08-17 13:30:47.078125
2171,123.98,2022-08-17 13:30:47.093750
2172,151.02,2022-08-17 13:30:47.109375
2173,174.3,2022-08-17 13:30:47.125000
2174,193.35,2022-08-17 13:30:47.140625
2175,208.16,2022-08-17 13:30:47.156250
2176,218.96,2022-08-17 13:30:47.171875
2177,225.95,2022-08-17 13:30:47.187500
2178,229.3,2022-08-17 13:30:47.203125
2179,229.19,2022-08-17 13:30:47.218750
2180,225.94,2022-08-17 13:30:47.234375
2181,220.08,2022-08-17 13:30:47.250000
2182,212.15,2022-08-17 13:30:47.265625
2183,202.7,2022-08-17 13:30:47.281250
2184,192.04,2022-08-17 13:30:47.296875
2185,180.36,2022-08-17 13:30:47.312500
2186,167.72,2022-08-17 13:30:47.328125
2187,154.24,2022-08-17 13:30:47.343750
2188,139.99,2022-08-17 13:30:47.359375
2189,124.99,2022-08-17 13:30:47.375000
2190,109.16,2022-08-17 13:30:47.390625
2191,92.33,2022-08-17 13:30:47.406250
2192,74.46,2022-08-17 13:30:47.421875
2193,55.76,2022-08-17 13:30:47.437500
2194,36.66,2022-08-17 13:30:47.453125
2195,17.52,2022-08-17 13:30:47.468750
2196,-1.46,2022-08-17 13:30:47.484375
2197,-20.37,2022-08-17 13:30:47.500000
2198,-39.37,2022-08-17 13:30:47.515625
2199,-58.15,2022-08-17 13:30:47.531250
2200,-75.69,2022-08-17 13:30:47.546875
2201,-90.12,2022-08-17 13:30:47.562500
2202,-99.36,2022-08-17 13:30:47.578125
2203,-101.91,2022-08-17 13:30:47.593750
2204,-97.61,2022-08-17 13:30:47.609375
2205,-87.71,2022-08-17 13:30:47.625000
2206,-74.47,2022-08-17 13:30:47.640625
2207,-60.3,2022-08-17 13:30:47.656250
2208,-46.86,2022-08-17 13:30:47.671875
2209,-34.88,2022-08-17 13:30:47.687500
2210,-24.23,2022-08-17 13:30:47.703125
2211,-14.55,2022-08-17 13:30:47.718750
2212,-5.84,2022-08-17 13:30:47.734375
2213,1.32,2022-08-17 13:30:47.750000
2214,6.06,2022-08-17 13:30:47.765625
2215,7.56,2022-08-17 13:30:47.781250
2216,5.64,2022-08-17 13:30:47.796875
2217,0.94,2022-08-17 13:30:47.812500
2218,-5.19,2022-08-17 13:30:47.828125
2219,-11.09,2022-08-17 13:30:47.843750
2220,-15.34,2022-08-17 13:30:47.859375
2221,-17.28,2022-08-17 13:30:47.875000
2222,-17.1,2022-08-17 13:30:47.890625
2223,-15.78,2022-08-17 13:30:47.906250
2224,-14.64,2022-08-17 13:30:47.921875
2225,-14.87,2022-08-17 13:30:47.937500
2226,-17.04,2022-08-17 13:30:47.953125
2227,-21.11,2022-08-17 13:30:47.968750
2228,-26.48,2022-08-17 13:30:47.984375
2229,-32.38,2022-08-17 13:30:48.000000
2230,-38.18,2022-08-17 13:30:48.015625
2231,-43.64,2022-08-17 13:30:48.031250
2232,-48.91,2022-08-17 13:30:48.046875
2233,-54.5,2022-08-17 13:30:48.062500
2234,-61.03,2022-08-17 13:30:48.078125
2235,-69.11,2022-08-17 13:30:48.093750
2236,-79.15,2022-08-17 13:30:48.109375
2237,-91.07,2022-08-17 13:30:48.125000
2238,-104.02,2022-08-17 13:30:48.140625
2239,-116.26,2022-08-17 13:30:48.156250
2240,-125.3,2022-08-17 13:30:48.171875
2241,-128.63,2022-08-17 13:30:48.187500
2242,-124.52,2022-08-17 13:30:48.203125
2243,-112.72,2022-08-17 13:30:48.218750
2244,-94.69,2022-08-17 13:30:48.234375
2245,-73.13,2022-08-17 13:30:48.250000
2246,-50.98,2022-08-17 13:30:48.265625
2247,-30.59,2022-08-17 13:30:48.281250
2248,-13.26,2022-08-17 13:30:48.296875
2249,0.72,2022-08-17 13:30:48.312500
2250,11.51,2022-08-17 13:30:48.328125
2251,19.31,2022-08-17 13:30:48.343750
2252,24.19,2022-08-17 13:30:48.359375
2253,26.24,2022-08-17 13:30:48.375000
2254,25.85,2022-08-17 13:30:48.390625
2255,23.89,2022-08-17 13:30:48.406250
2256,21.45,2022-08-17 13:30:48.421875
2257,19.58,2022-08-17 13:30:48.437500
2258,18.9,2022-08-17 13:30:48.453125
2259,19.43,2022-08-17 13:30:48.468750
2260,20.71,2022-08-17 13:30:48.484375
2261,22.1,2022-08-17 13:30:48.500000
2262,22.9,2022-08-17 13:30:48.515625
2263,22.7,2022-08-17 13:30:48.531250
2264,21.36,2022-08-17 13:30:48.546875
2265,18.97,2022-08-17 13:30:48.562500
2266,15.82,2022-08-17 13:30:48.578125
2267,12.23,2022-08-17 13:30:48.593750
2268,8.47,2022-08-17 13:30:48.609375
2269,4.62,2022-08-17 13:30:48.625000
2270,0.65,2022-08-17 13:30:48.640625
2271,-3.69,2022-08-17 13:30:48.656250
2272,-8.68,2022-08-17 13:30:48.671875
2273,-14.61,2022-08-17 13:30:48.687500
2274,-21.83,2022-08-17 13:30:48.703125
2275,-30.7,2022-08-17 13:30:48.718750
2276,-41.48,2022-08-17 13:30:48.734375
2277,-54.09,2022-08-17 13:30:48.750000
2278,-67.77,2022-08-17 13:30:48.765625
2279,-80.74,2022-08-17 13:30:48.781250
2280,-90.49,2022-08-17 13:30:48.796875
2281,-94.5,2022-08-17 13:30:48.812500
2282,-91.04,2022-08-17 13:30:48.828125
2283,-80.06,2022-08-17 13:30:48.843750
2284,-63.24,2022-08-17 13:30:48.859375
2285,-43.51,2022-08-17 13:30:48.875000
2286,-24.05,2022-08-17 13:30:48.890625
2287,-7.24,2022-08-17 13:30:48.906250
2288,5.78,2022-08-17 13:30:48.921875
2289,15.07,2022-08-17 13:30:48.937500
2290,21.29,2022-08-17 13:30:48.953125
2291,25.07,2022-08-17 13:30:48.968750
2292,26.65,2022-08-17 13:30:48.984375
2293,26.05,2022-08-17 13:30:49.000000
2294,23.34,2022-08-17 13:30:49.015625
2295,18.93,2022-08-17 13:30:49.031250
2296,13.71,2022-08-17 13:30:49.046875
2297,8.78,2022-08-17 13:30:49.062500
2298,5.17,2022-08-17 13:30:49.078125
2299,3.4,2022-08-17 13:30:49.093750
2300,3.41,2022-08-17 13:30:49.109375
2301,4.59,2022-08-17 13:30:49.125000
2302,6.08,2022-08-17 13:30:49.140625
2303,7.11,2022-08-17 13:30:49.156250
2304,7.17,2022-08-17 13:30:49.171875
2305,6.09,2022-08-17 13:30:49.187500
2306,3.94,2022-08-17 13:30:49.203125
2307,0.92,2022-08-17 13:30:49.218750
2308,-2.74,2022-08-17 13:30:49.234375
2309,-6.84,2022-08-17 13:30:49.250000
2310,-11.21,2022-08-17 13:30:49.265625
2311,-15.78,2022-08-17 13:30:49.281250
2312,-20.58,2022-08-17 13:30:49.296875
2313,-25.81,2022-08-17 13:30:49.312500
2314,-31.85,2022-08-17 13:30:49.328125
2315,-39.17,2022-08-17 13:30:49.343750
2316,-47.95,2022-08-17 13:30:49.359375
2317,-57.85,2022-08-17 13:30:49.375000
2318,-67.61,2022-08-17 13:30:49.390625
2319,-75.14,2022-08-17 13:30:49.406250
2320,-77.98,2022-08-17 13:30:49.421875
2321,-74.03,2022-08-17 13:30:49.437500
2322,-62.35,2022-08-17 13:30:49.453125
2323,-43.55,2022-08-17 13:30:49.468750
2324,-19.74,2022-08-17 13:30:49.484375
2325,6.26,2022-08-17 13:30:49.500000
2326,31.69,2022-08-17 13:30:49.515625
2327,54.8,2022-08-17 13:30:49.531250
2328,75.03,2022-08-17 13:30:49.546875
2329,92.7,2022-08-17 13:30:49.562500
2330,108.29,2022-08-17 13:30:49.578125
2331,121.76,2022-08-17 13:30:49.593750
2332,132.35,2022-08-17 13:30:49.609375
2333,138.91,2022-08-17 13:30:49.625000
2334,140.45,2022-08-17 13:30:49.640625
2335,136.83,2022-08-17 13:30:49.656250
2336,128.81,2022-08-17 13:30:49.671875
2337,117.77,2022-08-17 13:30:49.687500
2338,104.97,2022-08-17 13:30:49.703125
2339,91.03,2022-08-17 13:30:49.718750
2340,75.75,2022-08-17 13:30:49.734375
2341,58.71,2022-08-17 13:30:49.750000
2342,39.96,2022-08-17 13:30:49.765625
2343,20.46,2022-08-17 13:30:49.781250
2344,2.1,2022-08-17 13:30:49.796875
2345,-13.01,2022-08-17 13:30:49.812500
2346,-23.34,2022-08-17 13:30:49.828125
2347,-28.54,2022-08-17 13:30:49.843750
2348,-29.6,2022-08-17 13:30:49.859375
2349,-28.4,2022-08-17 13:30:49.875000
2350,-27.06,2022-08-17 13:30:49.890625
2351,-27.35,2022-08-17 13:30:49.906250
2352,-30.45,2022-08-17 13:30:49.921875
2353,-37.03,2022-08-17 13:30:49.937500
2354,-47.55,2022-08-17 13:30:49.953125
2355,-62.29,2022-08-17 13:30:49.968750
2356,-81.25,2022-08-17 13:30:49.984375
2357,-103.67,2022-08-17 13:30:50.000000
2358,-127.66,2022-08-17 13:30:50.015625
2359,-150.13,2022-08-17 13:30:50.031250
2360,-167.22,2022-08-17 13:30:50.046875
2361,-175.24,2022-08-17 13:30:50.062500
2362,-171.78,2022-08-17 13:30:50.078125
2363,-156.64,2022-08-17 13:30:50.093750
2364,-132.05,2022-08-17 13:30:50.109375
2365,-102.06,2022-08-17 13:30:50.125000
2366,-71.27,2022-08-17 13:30:50.140625
2367,-43.52,2022-08-17 13:30:50.156250
2368,-20.96,2022-08-17 13:30:50.171875
2369,-3.82,2022-08-17 13:30:50.187500
2370,9.21,2022-08-17 13:30:50.203125
2371,20.1,2022-08-17 13:30:50.218750
2372,30.69,2022-08-17 13:30:50.234375
2373,42.2,2022-08-17 13:30:50.250000
2374,55.15,2022-08-17 13:30:50.265625
2375,69.14,2022-08-17 13:30:50.281250
2376,82.88,2022-08-17 13:30:50.296875
2377,94.16,2022-08-17 13:30:50.312500
2378,100.46,2022-08-17 13:30:50.328125
2379,100.02,2022-08-17 13:30:50.343750
2380,93.18,2022-08-17 13:30:50.359375
2381,83.07,2022-08-17 13:30:50.375000
2382,74.88,2022-08-17 13:30:50.390625
2383,73.94,2022-08-17 13:30:50.406250
2384,83.28,2022-08-17 13:30:50.421875
2385,101.88,2022-08-17 13:30:50.437500
2386,124.77,2022-08-17 13:30:50.453125
2387,144.71,2022-08-17 13:30:50.468750
2388,154.88,2022-08-17 13:30:50.484375
2389,151.11,2022-08-17 13:30:50.500000
2390,132.92,2022-08-17 13:30:50.515625
2391,103.13,2022-08-17 13:30:50.531250
2392,66.56,2022-08-17 13:30:50.546875
2393,28.43,2022-08-17 13:30:50.562500
2394,-6.83,2022-08-17 13:30:50.578125
2395,-36.42,2022-08-17 13:30:50.593750
2396,-59.35,2022-08-17 13:30:50.609375
2397,-76.13,2022-08-17 13:30:50.625000
2398,-87.97,2022-08-17 13:30:50.640625
2399,-95.87,2022-08-17 13:30:50.656250
2400,-100.0,2022-08-17 13:30:50.671875
2401,-99.59,2022-08-17 13:30:50.687500
2402,-93.63,2022-08-17 13:30:50.703125
2403,-81.58,2022-08-17 13:30:50.718750
2404,-63.93,2022-08-17 13:30:50.734375
2405,-42.25,2022-08-17 13:30:50.750000
2406,-18.74,2022-08-17 13:30:50.765625
2407,4.42,2022-08-17 13:30:50.781250
2408,25.45,2022-08-17 13:30:50.796875
2409,43.09,2022-08-17 13:30:50.812500
2410,56.54,2022-08-17 13:30:50.828125
2411,65.22,2022-08-17 13:30:50.843750
2412,68.75,2022-08-17 13:30:50.859375
2413,67.08,2022-08-17 13:30:50.875000
2414,60.61,2022-08-17 13:30:50.890625
2415,50.34,2022-08-17 13:30:50.906250
2416,37.85,2022-08-17 13:30:50.921875
2417,25.03,2022-08-17 13:30:50.937500
2418,13.68,2022-08-17 13:30:50.953125
2419,5.12,2022-08-17 13:30:50.968750
2420,-0.13,2022-08-17 13:30:50.984375
2421,-2.44,2022-08-17 13:30:51.000000
2422,-2.89,2022-08-17 13:30:51.015625
2423,-2.88,2022-08-17 13:30:51.031250
2424,-3.71,2022-08-17 13:30:51.046875
2425,-6.29,2022-08-17 13:30:51.062500
2426,-10.9,2022-08-17 13:30:51.078125
2427,-17.32,2022-08-17 13:30:51.093750
2428,-24.91,2022-08-17 13:30:51.109375
2429,-33.06,2022-08-17 13:30:51.125000
2430,-41.23,2022-08-17 13:30:51.140625
2431,-49.07,2022-08-17 13:30:51.156250
2432,-56.32,2022-08-17 13:30:51.171875
2433,-62.75,2022-08-17 13:30:51.187500
2434,-68.31,2022-08-17 13:30:51.203125
2435,-73.23,2022-08-17 13:30:51.218750
2436,-78.08,2022-08-17 13:30:51.234375
2437,-83.69,2022-08-17 13:30:51.250000
2438,-90.71,2022-08-17 13:30:51.265625
2439,-98.94,2022-08-17 13:30:51.281250
2440,-106.84,2022-08-17 13:30:51.296875
2441,-111.6,2022-08-17 13:30:51.312500
2442,-109.82,2022-08-17 13:30:51.328125
2443,-98.64,2022-08-17 13:30:51.343750
2444,-77.02,2022-08-17 13:30:51.359375
2445,-46.36,2022-08-17 13:30:51.375000
2446,-10.24,2022-08-17 13:30:51.390625
2447,26.46,2022-08-17 13:30:51.406250
2448,59.02,2022-08-17 13:30:51.421875
2449,84.01,2022-08-17 13:30:51.437500
2450,99.92,2022-08-17 13:30:51.453125
2451,107.15,2022-08-17 13:30:51.468750
2452,107.42,2022-08-17 13:30:51.484375
2453,103.04,2022-08-17 13:30:51.500000
2454,96.16,2022-08-17 13:30:51.515625
2455,88.4,2022-08-17 13:30:51.531250
2456,80.64,2022-08-17 13:30:51.546875
2457,73.06,2022-08-17 13:30:51.562500
2458,65.44,2022-08-17 13:30:51.578125
2459,57.41,2022-08-17 13:30:51.593750
2460,48.78,2022-08-17 13:30:51.609375
2461,39.69,2022-08-17 13:30:51.625000
2462,30.69,2022-08-17 13:30:51.640625
2463,22.37,2022-08-17 13:30:51.656250
2464,15.11,2022-08-17 13:30:51.671875
2465,8.64,2022-08-17 13:30:51.687500
2466,1.84,2022-08-17 13:30:51.703125
2467,-7.03,2022-08-17 13:30:51.718750
2468,-19.8,2022-08-17 13:30:51.734375
2469,-37.73,2022-08-17 13:30:51.750000
2470,-61.05,2022-08-17 13:30:51.765625
2471,-88.56,2022-08-17 13:30:51.781250
2472,-117.96,2022-08-17 13:30:51.796875
2473,-146.01,2022-08-17 13:30:51.812500
2474,-169.09,2022-08-17 13:30:51.828125
2475,-183.8,2022-08-17 13:30:51.843750
2476,-187.79,2022-08-17 13:30:51.859375
2477,-180.64,2022-08-17 13:30:51.875000
2478,-164.41,2022-08-17 13:30:51.890625
2479,-143.35,2022-08-17 13:30:51.906250
2480,-122.45,2022-08-17 13:30:51.921875
2481,-105.6,2022-08-17 13:30:51.937500
2482,-93.8,2022-08-17 13:30:51.953125
2483,-84.75,2022-08-17 13:30:51.968750
2484,-74.02,2022-08-17 13:30:51.984375
2485,-57.35,2022-08-17 13:30:52.000000
2486,-32.77,2022-08-17 13:30:52.015625
2487,-1.4,2022-08-17 13:30:52.031250
2488,33.39,2022-08-17 13:30:52.046875
2489,67.91,2022-08-17 13:30:52.062500
2490,99.9,2022-08-17 13:30:52.078125
2491,129.13,2022-08-17 13:30:52.093750
2492,156.34,2022-08-17 13:30:52.109375
2493,181.72,2022-08-17 13:30:52.125000
2494,203.82,2022-08-17 13:30:52.140625
2495,219.65,2022-08-17 13:30:52.156250
2496,226.17,2022-08-17 13:30:52.171875
2497,221.8,2022-08-17 13:30:52.187500
2498,207.13,2022-08-17 13:30:52.203125
2499,184.48,2022-08-17 13:30:52.218750
2500,156.56,2022-08-17 13:30:52.234375
2501,125.09,2022-08-17 13:30:52.250000
2502,90.57,2022-08-17 13:30:52.265625
2503,52.88,2022-08-17 13:30:52.281250
2504,12.42,2022-08-17 13:30:52.296875
2505,-28.99,2022-08-17 13:30:52.312500
2506,-68.13,2022-08-17 13:30:52.328125
2507,-101.16,2022-08-17 13:30:52.343750
2508,-124.68,2022-08-17 13:30:52.359375
2509,-136.51,2022-08-17 13:30:52.375000
2510,-136.31,2022-08-17 13:30:52.390625
2511,-125.59,2022-08-17 13:30:52.406250
2512,-107.54,2022-08-17 13:30:52.421875
2513,-86.72,2022-08-17 13:30:52.437500
2514,-68.1,2022-08-17 13:30:52.453125
2515,-56.08,2022-08-17 13:30:52.468750
2516,-53.39,2022-08-17 13:30:52.484375
2517,-60.57,2022-08-17 13:30:52.500000
2518,-75.97,2022-08-17 13:30:52.515625
2519,-96.23,2022-08-17 13:30:52.531250
2520,-116.8,2022-08-17 13:30:52.546875
2521,-132.52,2022-08-17 13:30:52.562500
2522,-138.37,2022-08-17 13:30:52.578125
2523,-130.29,2022-08-17 13:30:52.593750
2524,-106.41,2022-08-17 13:30:52.609375
2525,-67.86,2022-08-17 13:30:52.625000
2526,-18.84,2022-08-17 13:30:52.640625
2527,34.33,2022-08-17 13:30:52.656250
2528,84.92,2022-08-17 13:30:52.671875
2529,127.55,2022-08-17 13:30:52.687500
2530,159.14,2022-08-17 13:30:52.703125
2531,178.81,2022-08-17 13:30:52.718750
2532,187.16,2022-08-17 13:30:52.734375
2533,185.3,2022-08-17 13:30:52.750000
2534,174.46,2022-08-17 13:30:52.765625
2535,156.02,2022-08-17 13:30:52.781250
2536,131.84,2022-08-17 13:30:52.796875
2537,104.27,2022-08-17 13:30:52.812500
2538,76.03,2022-08-17 13:30:52.828125
2539,49.72,2022-08-17 13:30:52.843750
2540,27.33,2022-08-17 13:30:52.859375
2541,10.11,2022-08-17 13:30:52.875000
2542,-1.59,2022-08-17 13:30:52.890625
2543,-8.13,2022-08-17 13:30:52.906250
2544,-10.4,2022-08-17 13:30:52.921875
2545,-9.6,2022-08-17 13:30:52.937500
2546,-6.97,2022-08-17 13:30:52.953125
2547,-3.67,2022-08-17 13:30:52.968750
2548,-0.68,2022-08-17 13:30:52.984375
2549,1.22,2022-08-17 13:30:53.000000
2550,1.44,2022-08-17 13:30:53.015625
2551,-0.35,2022-08-17 13:30:53.031250
2552,-4.14,2022-08-17 13:30:53.046875
2553,-9.51,2022-08-17 13:30:53.062500
2554,-15.69,2022-08-17 13:30:53.078125
2555,-21.77,2022-08-17 13:30:53.093750
2556,-27.03,2022-08-17 13:30:53.109375
2557,-31.24,2022-08-17 13:30:53.125000
2558,-34.87,2022-08-17 13:30:53.140625
2559,-38.91,2022-08-17 13:30:53.156250
2560,-44.49,2022-08-17 13:30:53.171875
2561,-52.27,2022-08-17 13:30:53.187500
2562,-61.93,2022-08-17 13:30:53.203125
2563,-72.0,2022-08-17 13:30:53.218750
2564,-80.05,2022-08-17 13:30:53.234375
2565,-83.46,2022-08-17 13:30:53.250000
2566,-80.37,2022-08-17 13:30:53.265625
2567,-70.33,2022-08-17 13:30:53.281250
2568,-54.5,2022-08-17 13:30:53.296875
2569,-35.33,2022-08-17 13:30:53.312500
2570,-15.63,2022-08-17 13:30:53.328125
2571,2.3,2022-08-17 13:30:53.343750
2572,17.15,2022-08-17 13:30:53.359375
2573,28.6,2022-08-17 13:30:53.375000
2574,36.92,2022-08-17 13:30:53.390625
2575,42.52,2022-08-17 13:30:53.406250
2576,45.53,2022-08-17 13:30:53.421875
2577,46.0,2022-08-17 13:30:53.437500
2578,44.07,2022-08-17 13:30:53.453125
2579,40.31,2022-08-17 13:30:53.468750
2580,35.81,2022-08-17 13:30:53.484375
2581,31.9,2022-08-17 13:30:53.500000
2582,29.65,2022-08-17 13:30:53.515625
2583,29.41,2022-08-17 13:30:53.531250
2584,30.61,2022-08-17 13:30:53.546875
2585,31.93,2022-08-17 13:30:53.562500
2586,31.87,2022-08-17 13:30:53.578125
2587,29.3,2022-08-17 13:30:53.593750
2588,23.96,2022-08-17 13:30:53.609375
2589,16.45,2022-08-17 13:30:53.625000
2590,8.01,2022-08-17 13:30:53.640625
2591,0.0,2022-08-17 13:30:53.656250
2592,-6.57,2022-08-17 13:30:53.671875
2593,-11.29,2022-08-17 13:30:53.687500
2594,-14.35,2022-08-17 13:30:53.703125
2595,-16.25,2022-08-17 13:30:53.718750
2596,-17.72,2022-08-17 13:30:53.734375
2597,-19.44,2022-08-17 13:30:53.750000
2598,-22.08,2022-08-17 13:30:53.765625
2599,-26.03,2022-08-17 13:30:53.781250
2600,-31.11,2022-08-17 13:30:53.796875
2601,-36.26,2022-08-17 13:30:53.812500
2602,-39.33,2022-08-17 13:30:53.828125
2603,-37.6,2022-08-17 13:30:53.843750
2604,-28.62,2022-08-17 13:30:53.859375
2605,-11.42,2022-08-17 13:30:53.875000
2606,12.84,2022-08-17 13:30:53.890625
2607,40.93,2022-08-17 13:30:53.906250
2608,68.58,2022-08-17 13:30:53.921875
2609,91.66,2022-08-17 13:30:53.937500
2610,107.16,2022-08-17 13:30:53.953125
2611,113.33,2022-08-17 13:30:53.968750
2612,109.32,2022-08-17 13:30:53.984375
2613,95.02,2022-08-17 13:30:54.000000
2614,71.26,2022-08-17 13:30:54.015625
2615,40.39,2022-08-17 13:30:54.031250
2616,6.77,2022-08-17 13:30:54.046875
2617,-23.71,2022-08-17 13:30:54.062500
2618,-45.18,2022-08-17 13:30:54.078125
2619,-53.78,2022-08-17 13:30:54.093750
2620,-49.12,2022-08-17 13:30:54.109375
2621,-34.34,2022-08-17 13:30:54.125000
2622,-14.76,2022-08-17 13:30:54.140625
2623,4.14,2022-08-17 13:30:54.156250
2624,18.37,2022-08-17 13:30:54.171875
2625,26.13,2022-08-17 13:30:54.187500
2626,27.36,2022-08-17 13:30:54.203125
2627,23.02,2022-08-17 13:30:54.218750
2628,14.33,2022-08-17 13:30:54.234375
2629,2.68,2022-08-17 13:30:54.250000
2630,-10.51,2022-08-17 13:30:54.265625
2631,-23.85,2022-08-17 13:30:54.281250
2632,-36.15,2022-08-17 13:30:54.296875
2633,-46.79,2022-08-17 13:30:54.312500
2634,-55.72,2022-08-17 13:30:54.328125
2635,-63.25,2022-08-17 13:30:54.343750
2636,-69.66,2022-08-17 13:30:54.359375
2637,-74.85,2022-08-17 13:30:54.375000
2638,-78.38,2022-08-17 13:30:54.390625
2639,-79.99,2022-08-17 13:30:54.406250
2640,-80.1,2022-08-17 13:30:54.421875
2641,-80.05,2022-08-17 13:30:54.437500
2642,-81.9,2022-08-17 13:30:54.453125
2643,-87.47,2022-08-17 13:30:54.468750
2644,-97.27,2022-08-17 13:30:54.484375
2645,-109.68,2022-08-17 13:30:54.500000
2646,-120.99,2022-08-17 13:30:54.515625
2647,-126.46,2022-08-17 13:30:54.531250
2648,-122.18,2022-08-17 13:30:54.546875
2649,-106.69,2022-08-17 13:30:54.562500
2650,-81.79,2022-08-17 13:30:54.578125
2651,-51.91,2022-08-17 13:30:54.593750
2652,-22.26,2022-08-17 13:30:54.609375
2653,3.09,2022-08-17 13:30:54.625000
2654,22.41,2022-08-17 13:30:54.640625
2655,36.27,2022-08-17 13:30:54.656250
2656,46.31,2022-08-17 13:30:54.671875
2657,53.91,2022-08-17 13:30:54.687500
2658,59.4,2022-08-17 13:30:54.703125
2659,62.26,2022-08-17 13:30:54.718750
2660,61.92,2022-08-17 13:30:54.734375
2661,58.54,2022-08-17 13:30:54.750000
2662,53.28,2022-08-17 13:30:54.765625
2663,47.79,2022-08-17 13:30:54.781250
2664,43.5,2022-08-17 13:30:54.796875
2665,40.91,2022-08-17 13:30:54.812500
2666,39.45,2022-08-17 13:30:54.828125
2667,37.79,2022-08-17 13:30:54.843750
2668,34.54,2022-08-17 13:30:54.859375
2669,28.83,2022-08-17 13:30:54.875000
2670,20.62,2022-08-17 13:30:54.890625
2671,10.64,2022-08-17 13:30:54.906250
2672,-0.17,2022-08-17 13:30:54.921875
2673,-10.94,2022-08-17 13:30:54.937500
2674,-21.27,2022-08-17 13:30:54.953125
2675,-31.17,2022-08-17 13:30:54.968750
2676,-40.91,2022-08-17 13:30:54.984375
2677,-50.75,2022-08-17 13:30:55.000000
2678,-61.03,2022-08-17 13:30:55.015625
2679,-72.2,2022-08-17 13:30:55.031250
2680,-85.11,2022-08-17 13:30:55.046875
2681,-101.01,2022-08-17 13:30:55.062500
2682,-121.41,2022-08-17 13:30:55.078125
2683,-147.46,2022-08-17 13:30:55.093750
2684,-179.11,2022-08-17 13:30:55.109375
2685,-214.51,2022-08-17 13:30:55.125000
2686,-249.68,2022-08-17 13:30:55.140625
2687,-279.12,2022-08-17 13:30:55.156250
2688,-297.08,2022-08-17 13:30:55.171875
2689,-299.11,2022-08-17 13:30:55.187500
2690,-283.54,2022-08-17 13:30:55.203125
2691,-252.1,2022-08-17 13:30:55.218750
2692,-209.54,2022-08-17 13:30:55.234375
2693,-162.23,2022-08-17 13:30:55.250000
2694,-116.59,2022-08-17 13:30:55.265625
2695,-77.59,2022-08-17 13:30:55.281250
2696,-48.04,2022-08-17 13:30:55.296875
2697,-28.69,2022-08-17 13:30:55.312500
2698,-18.75,2022-08-17 13:30:55.328125
2699,-16.6,2022-08-17 13:30:55.343750
2700,-20.36,2022-08-17 13:30:55.359375
2701,-28.09,2022-08-17 13:30:55.375000
2702,-37.98,2022-08-17 13:30:55.390625
2703,-48.44,2022-08-17 13:30:55.406250
2704,-58.07,2022-08-17 13:30:55.421875
2705,-65.69,2022-08-17 13:30:55.437500
2706,-70.32,2022-08-17 13:30:55.453125
2707,-71.13,2022-08-17 13:30:55.468750
2708,-67.48,2022-08-17 13:30:55.484375
2709,-59.02,2022-08-17 13:30:55.500000
2710,-45.79,2022-08-17 13:30:55.515625
2711,-28.37,2022-08-17 13:30:55.531250
2712,-7.88,2022-08-17 13:30:55.546875
2713,14.26,2022-08-17 13:30:55.562500
2714,36.56,2022-08-17 13:30:55.578125
2715,57.65,2022-08-17 13:30:55.593750
2716,76.4,2022-08-17 13:30:55.609375
2717,91.94,2022-08-17 13:30:55.625000
2718,103.64,2022-08-17 13:30:55.640625
2719,111.03,2022-08-17 13:30:55.656250
2720,113.89,2022-08-17 13:30:55.671875
2721,112.18,2022-08-17 13:30:55.687500
2722,106.18,2022-08-17 13:30:55.703125
2723,96.35,2022-08-17 13:30:55.718750
2724,83.32,2022-08-17 13:30:55.734375
2725,67.94,2022-08-17 13:30:55.750000
2726,51.35,2022-08-17 13:30:55.765625
2727,35.16,2022-08-17 13:30:55.781250
2728,21.34,2022-08-17 13:30:55.796875
2729,12.01,2022-08-17 13:30:55.812500
2730,8.96,2022-08-17 13:30:55.828125
2731,13.15,2022-08-17 13:30:55.843750
2732,24.39,2022-08-17 13:30:55.859375
2733,41.39,2022-08-17 13:30:55.875000
2734,62.12,2022-08-17 13:30:55.890625
2735,84.2,2022-08-17 13:30:55.906250
2736,105.52,2022-08-17 13:30:55.921875
2737,124.35,2022-08-17 13:30:55.937500
2738,139.54,2022-08-17 13:30:55.953125
2739,150.22,2022-08-17 13:30:55.968750
2740,155.75,2022-08-17 13:30:55.984375
2741,155.68,2022-08-17 13:30:56.000000
2742,150.05,2022-08-17 13:30:56.015625
2743,139.87,2022-08-17 13:30:56.031250
2744,127.38,2022-08-17 13:30:56.046875
2745,116.04,2022-08-17 13:30:56.062500
2746,109.84,2022-08-17 13:30:56.078125
2747,112.1,2022-08-17 13:30:56.093750
2748,124.33,2022-08-17 13:30:56.109375
2749,145.36,2022-08-17 13:30:56.125000
2750,171.51,2022-08-17 13:30:56.140625
2751,197.55,2022-08-17 13:30:56.156250
2752,218.23,2022-08-17 13:30:56.171875
2753,229.6,2022-08-17 13:30:56.187500
2754,229.84,2022-08-17 13:30:56.203125
2755,219.31,2022-08-17 13:30:56.218750
2756,200.05,2022-08-17 13:30:56.234375
2757,175.07,2022-08-17 13:30:56.250000
2758,147.44,2022-08-17 13:30:56.265625
2759,119.51,2022-08-17 13:30:56.281250
2760,92.58,2022-08-17 13:30:56.296875
2761,66.9,2022-08-17 13:30:56.312500
2762,42.18,2022-08-17 13:30:56.328125
2763,18.29,2022-08-17 13:30:56.343750
2764,-4.26,2022-08-17 13:30:56.359375
2765,-24.35,2022-08-17 13:30:56.375000
2766,-40.8,2022-08-17 13:30:56.390625
2767,-53.07,2022-08-17 13:30:56.406250
2768,-61.45,2022-08-17 13:30:56.421875
2769,-66.6,2022-08-17 13:30:56.437500
2770,-68.66,2022-08-17 13:30:56.453125
2771,-66.58,2022-08-17 13:30:56.468750
2772,-58.42,2022-08-17 13:30:56.484375
2773,-42.39,2022-08-17 13:30:56.500000
2774,-18.15,2022-08-17 13:30:56.515625
2775,12.43,2022-08-17 13:30:56.531250
2776,45.62,2022-08-17 13:30:56.546875
2777,77.11,2022-08-17 13:30:56.562500
2778,103.45,2022-08-17 13:30:56.578125
2779,123.04,2022-08-17 13:30:56.593750
2780,136.15,2022-08-17 13:30:56.609375
2781,144.15,2022-08-17 13:30:56.625000
2782,148.5,2022-08-17 13:30:56.640625
2783,149.93,2022-08-17 13:30:56.656250
2784,148.42,2022-08-17 13:30:56.671875
2785,143.52,2022-08-17 13:30:56.687500
2786,135.07,2022-08-17 13:30:56.703125
2787,123.65,2022-08-17 13:30:56.718750
2788,110.59,2022-08-17 13:30:56.734375
2789,97.51,2022-08-17 13:30:56.750000
2790,85.86,2022-08-17 13:30:56.765625
2791,76.4,2022-08-17 13:30:56.781250
2792,69.12,2022-08-17 13:30:56.796875
2793,63.53,2022-08-17 13:30:56.812500
2794,59.03,2022-08-17 13:30:56.828125
2795,55.15,2022-08-17 13:30:56.843750
2796,51.58,2022-08-17 13:30:56.859375
2797,47.93,2022-08-17 13:30:56.875000
2798,43.58,2022-08-17 13:30:56.890625
2799,37.77,2022-08-17 13:30:56.906250
2800,29.92,2022-08-17 13:30:56.921875
2801,19.98,2022-08-17 13:30:56.937500
2802,8.52,2022-08-17 13:30:56.953125
2803,-3.22,2022-08-17 13:30:56.968750
2804,-13.91,2022-08-17 13:30:56.984375
2805,-22.56,2022-08-17 13:30:57.000000
2806,-28.82,2022-08-17 13:30:57.015625
2807,-33.08,2022-08-17 13:30:57.031250
2808,-36.33,2022-08-17 13:30:57.046875
2809,-39.77,2022-08-17 13:30:57.062500
2810,-44.24,2022-08-17 13:30:57.078125
2811,-49.74,2022-08-17 13:30:57.093750
2812,-55.02,2022-08-17 13:30:57.109375
2813,-57.68,2022-08-17 13:30:57.125000
2814,-54.71,2022-08-17 13:30:57.140625
2815,-43.47,2022-08-17 13:30:57.156250
2816,-22.81,2022-08-17 13:30:57.171875
2817,6.15,2022-08-17 13:30:57.187500
2818,40.11,2022-08-17 13:30:57.203125
2819,74.46,2022-08-17 13:30:57.218750
2820,104.47,2022-08-17 13:30:57.234375
2821,126.59,2022-08-17 13:30:57.250000
2822,138.98,2022-08-17 13:30:57.265625
2823,141.65,2022-08-17 13:30:57.281250
2824,136.01,2022-08-17 13:30:57.296875
2825,124.22,2022-08-17 13:30:57.312500
2826,108.81,2022-08-17 13:30:57.328125
2827,92.15,2022-08-17 13:30:57.343750
2828,76.18,2022-08-17 13:30:57.359375
2829,62.05,2022-08-17 13:30:57.375000
2830,50.05,2022-08-17 13:30:57.390625
2831,39.6,2022-08-17 13:30:57.406250
2832,29.74,2022-08-17 13:30:57.421875
2833,19.53,2022-08-17 13:30:57.437500
2834,8.31,2022-08-17 13:30:57.453125
2835,-4.09,2022-08-17 13:30:57.468750
2836,-17.55,2022-08-17 13:30:57.484375
2837,-31.94,2022-08-17 13:30:57.500000
2838,-47.12,2022-08-17 13:30:57.515625
2839,-62.92,2022-08-17 13:30:57.531250
2840,-79.05,2022-08-17 13:30:57.546875
2841,-95.05,2022-08-17 13:30:57.562500
2842,-110.26,2022-08-17 13:30:57.578125
2843,-124.04,2022-08-17 13:30:57.593750
2844,-135.84,2022-08-17 13:30:57.609375
2845,-145.19,2022-08-17 13:30:57.625000
2846,-151.95,2022-08-17 13:30:57.640625
2847,-156.33,2022-08-17 13:30:57.656250
2848,-159.19,2022-08-17 13:30:57.671875
2849,-161.96,2022-08-17 13:30:57.687500
2850,-166.38,2022-08-17 13:30:57.703125
2851,-173.73,2022-08-17 13:30:57.718750
2852,-184.17,2022-08-17 13:30:57.734375
2853,-196.08,2022-08-17 13:30:57.750000
2854,-206.22,2022-08-17 13:30:57.765625
2855,-210.47,2022-08-17 13:30:57.781250
2856,-205.01,2022-08-17 13:30:57.796875
2857,-187.75,2022-08-17 13:30:57.812500
2858,-159.04,2022-08-17 13:30:57.828125
2859,-121.81,2022-08-17 13:30:57.843750
2860,-80.69,2022-08-17 13:30:57.859375
2861,-40.78,2022-08-17 13:30:57.875000
2862,-6.22,2022-08-17 13:30:57.890625
2863,20.66,2022-08-17 13:30:57.906250
2864,39.39,2022-08-17 13:30:57.921875
2865,50.9,2022-08-17 13:30:57.937500
2866,56.46,2022-08-17 13:30:57.953125
2867,56.96,2022-08-17 13:30:57.968750
2868,52.59,2022-08-17 13:30:57.984375
2869,43.01,2022-08-17 13:30:58.000000
2870,28.12,2022-08-17 13:30:58.015625
2871,8.74,2022-08-17 13:30:58.031250
2872,-12.95,2022-08-17 13:30:58.046875
2873,-33.59,2022-08-17 13:30:58.062500
2874,-49.4,2022-08-17 13:30:58.078125
2875,-57.16,2022-08-17 13:30:58.093750
2876,-55.21,2022-08-17 13:30:58.109375
2877,-43.77,2022-08-17 13:30:58.125000
2878,-24.83,2022-08-17 13:30:58.140625
2879,-1.51,2022-08-17 13:30:58.156250
2880,22.66,2022-08-17 13:30:58.171875
2881,44.39,2022-08-17 13:30:58.187500
2882,60.97,2022-08-17 13:30:58.203125
2883,70.6,2022-08-17 13:30:58.218750
2884,72.52,2022-08-17 13:30:58.234375
2885,67.06,2022-08-17 13:30:58.250000
2886,55.33,2022-08-17 13:30:58.265625
2887,38.48,2022-08-17 13:30:58.281250
2888,17.03,2022-08-17 13:30:58.296875
2889,-9.59,2022-08-17 13:30:58.312500
2890,-42.55,2022-08-17 13:30:58.328125
2891,-82.5,2022-08-17 13:30:58.343750
2892,-128.3,2022-08-17 13:30:58.359375
2893,-176.29,2022-08-17 13:30:58.375000
2894,-220.78,2022-08-17 13:30:58.390625
2895,-255.51,2022-08-17 13:30:58.406250
2896,-275.47,2022-08-17 13:30:58.421875
2897,-278.24,2022-08-17 13:30:58.437500
2898,-264.32,2022-08-17 13:30:58.453125
2899,-236.62,2022-08-17 13:30:58.468750
2900,-199.46,2022-08-17 13:30:58.484375
2901,-157.55,2022-08-17 13:30:58.500000
2902,-115.35,2022-08-17 13:30:58.515625
2903,-76.6,2022-08-17 13:30:58.531250
2904,-44.13,2022-08-17 13:30:58.546875
2905,-19.56,2022-08-17 13:30:58.562500
2906,-3.26,2022-08-17 13:30:58.578125
2907,5.6,2022-08-17 13:30:58.593750
2908,8.72,2022-08-17 13:30:58.609375
2909,8.17,2022-08-17 13:30:58.625000
2910,5.97,2022-08-17 13:30:58.640625
2911,3.78,2022-08-17 13:30:58.656250
2912,2.77,2022-08-17 13:30:58.671875
2913,3.54,2022-08-17 13:30:58.687500
2914,6.21,2022-08-17 13:30:58.703125
2915,10.51,2022-08-17 13:30:58.718750
2916,15.91,2022-08-17 13:30:58.734375
2917,21.77,2022-08-17 13:30:58.750000
2918,27.41,2022-08-17 13:30:58.765625
2919,32.15,2022-08-17 13:30:58.781250
2920,35.32,2022-08-17 13:30:58.796875
2921,36.31,2022-08-17 13:30:58.812500
2922,34.74,2022-08-17 13:30:58.828125
2923,30.66,2022-08-17 13:30:58.843750
2924,24.52,2022-08-17 13:30:58.859375
2925,17.1,2022-08-17 13:30:58.875000
2926,9.18,2022-08-17 13:30:58.890625
2927,1.22,2022-08-17 13:30:58.906250
2928,-6.8,2022-08-17 13:30:58.921875
2929,-15.37,2022-08-17 13:30:58.937500
2930,-25.23,2022-08-17 13:30:58.953125
2931,-36.98,2022-08-17 13:30:58.968750
2932,-50.6,2022-08-17 13:30:58.984375
2933,-65.24,2022-08-17 13:30:59.000000
2934,-79.01,2022-08-17 13:30:59.015625
2935,-89.33,2022-08-17 13:30:59.031250
2936,-93.41,2022-08-17 13:30:59.046875
2937,-89.16,2022-08-17 13:30:59.062500
2938,-75.99,2022-08-17 13:30:59.078125
2939,-55.11,2022-08-17 13:30:59.093750
2940,-29.44,2022-08-17 13:30:59.109375
2941,-2.7,2022-08-17 13:30:59.125000
2942,21.58,2022-08-17 13:30:59.140625
2943,40.92,2022-08-17 13:30:59.156250
2944,54.27,2022-08-17 13:30:59.171875
2945,61.85,2022-08-17 13:30:59.187500
2946,64.52,2022-08-17 13:30:59.203125
2947,63.29,2022-08-17 13:30:59.218750
2948,59.07,2022-08-17 13:30:59.234375
2949,52.6,2022-08-17 13:30:59.250000
2950,44.74,2022-08-17 13:30:59.265625
2951,36.51,2022-08-17 13:30:59.281250
2952,29.08,2022-08-17 13:30:59.296875
2953,23.52,2022-08-17 13:30:59.312500
2954,20.46,2022-08-17 13:30:59.328125
2955,19.91,2022-08-17 13:30:59.343750
2956,21.25,2022-08-17 13:30:59.359375
2957,23.5,2022-08-17 13:30:59.375000
2958,25.61,2022-08-17 13:30:59.390625
2959,26.78,2022-08-17 13:30:59.406250
2960,26.58,2022-08-17 13:30:59.421875
2961,24.93,2022-08-17 13:30:59.437500
2962,21.95,2022-08-17 13:30:59.453125
2963,17.69,2022-08-17 13:30:59.468750
2964,12.12,2022-08-17 13:30:59.484375
2965,5.15,2022-08-17 13:30:59.500000
2966,-3.13,2022-08-17 13:30:59.515625
2967,-12.49,2022-08-17 13:30:59.531250
2968,-22.49,2022-08-17 13:30:59.546875
2969,-32.74,2022-08-17 13:30:59.562500
2970,-43.28,2022-08-17 13:30:59.578125
2971,-54.53,2022-08-17 13:30:59.593750
2972,-67.09,2022-08-17 13:30:59.609375
2973,-81.2,2022-08-17 13:30:59.625000
2974,-96.08,2022-08-17 13:30:59.640625
2975,-109.62,2022-08-17 13:30:59.656250
2976,-118.75,2022-08-17 13:30:59.671875
2977,-120.34,2022-08-17 13:30:59.687500
2978,-112.33,2022-08-17 13:30:59.703125
2979,-94.79,2022-08-17 13:30:59.718750
2980,-69.91,2022-08-17 13:30:59.734375
2981,-41.5,2022-08-17 13:30:59.750000
2982,-13.78,2022-08-17 13:30:59.765625
2983,9.77,2022-08-17 13:30:59.781250
2984,27.15,2022-08-17 13:30:59.796875
2985,37.99,2022-08-17 13:30:59.812500
2986,43.08,2022-08-17 13:30:59.828125
2987,43.97,2022-08-17 13:30:59.843750
2988,42.49,2022-08-17 13:30:59.859375
2989,40.51,2022-08-17 13:30:59.875000
2990,39.83,2022-08-17 13:30:59.890625
2991,41.7,2022-08-17 13:30:59.906250
2992,46.54,2022-08-17 13:30:59.921875
2993,53.76,2022-08-17 13:30:59.937500
2994,61.97,2022-08-17 13:30:59.953125
2995,69.84,2022-08-17 13:30:59.968750
2996,76.94,2022-08-17 13:30:59.984375
2997,84.1,2022-08-17 13:31:00.000000
2998,93.18,2022-08-17 13:31:00.015625
2999,106.0,2022-08-17 13:31:00.031250
3000,123.08,2022-08-17 13:31:00.046875
3001,143.04,2022-08-17 13:31:00.062500
3002,162.69,2022-08-17 13:31:00.078125
3003,178.06,2022-08-17 13:31:00.093750
3004,185.68,2022-08-17 13:31:00.109375
3005,183.62,2022-08-17 13:31:00.125000
3006,171.81,2022-08-17 13:31:00.140625
3007,151.85,2022-08-17 13:31:00.156250
3008,126.46,2022-08-17 13:31:00.171875
3009,98.64,2022-08-17 13:31:00.187500
3010,71.08,2022-08-17 13:31:00.203125
3011,45.68,2022-08-17 13:31:00.218750
3012,23.25,2022-08-17 13:31:00.234375
3013,3.88,2022-08-17 13:31:00.250000
3014,-12.51,2022-08-17 13:31:00.265625
3015,-25.51,2022-08-17 13:31:00.281250
3016,-33.85,2022-08-17 13:31:00.296875
3017,-35.69,2022-08-17 13:31:00.312500
3018,-29.45,2022-08-17 13:31:00.328125
3019,-14.75,2022-08-17 13:31:00.343750
3020,7.05,2022-08-17 13:31:00.359375
3021,33.11,2022-08-17 13:31:00.375000
3022,60.0,2022-08-17 13:31:00.390625
3023,84.77,2022-08-17 13:31:00.406250
3024,105.59,2022-08-17 13:31:00.421875
3025,121.92,2022-08-17 13:31:00.437500
3026,133.93,2022-08-17 13:31:00.453125
3027,141.98,2022-08-17 13:31:00.468750
3028,146.25,2022-08-17 13:31:00.484375
3029,146.79,2022-08-17 13:31:00.500000
3030,143.73,2022-08-17 13:31:00.515625
3031,137.59,2022-08-17 13:31:00.531250
3032,129.39,2022-08-17 13:31:00.546875
3033,120.33,2022-08-17 13:31:00.562500
3034,111.51,2022-08-17 13:31:00.578125
3035,103.64,2022-08-17 13:31:00.593750
3036,96.84,2022-08-17 13:31:00.609375
3037,90.91,2022-08-17 13:31:00.625000
3038,85.49,2022-08-17 13:31:00.640625
3039,80.34,2022-08-17 13:31:00.656250
3040,75.35,2022-08-17 13:31:00.671875
3041,70.52,2022-08-17 13:31:00.687500
3042,65.62,2022-08-17 13:31:00.703125
3043,60.3,2022-08-17 13:31:00.718750
3044,54.06,2022-08-17 13:31:00.734375
3045,46.49,2022-08-17 13:31:00.750000
3046,37.5,2022-08-17 13:31:00.765625
3047,27.31,2022-08-17 13:31:00.781250
3048,16.38,2022-08-17 13:31:00.796875
3049,5.14,2022-08-17 13:31:00.812500
3050,-6.15,2022-08-17 13:31:00.828125
3051,-17.6,2022-08-17 13:31:00.843750
3052,-29.65,2022-08-17 13:31:00.859375
3053,-42.91,2022-08-17 13:31:00.875000
3054,-57.88,2022-08-17 13:31:00.890625
3055,-74.52,2022-08-17 13:31:00.906250
3056,-91.82,2022-08-17 13:31:00.921875
3057,-107.67,2022-08-17 13:31:00.937500
3058,-119.22,2022-08-17 13:31:00.953125
3059,-123.59,2022-08-17 13:31:00.968750
3060,-118.83,2022-08-17 13:31:00.984375
3061,-104.82,2022-08-17 13:31:01.000000
3062,-83.38,2022-08-17 13:31:01.015625
3063,-57.81,2022-08-17 13:31:01.031250
3064,-31.82,2022-08-17 13:31:01.046875
3065,-8.39,2022-08-17 13:31:01.062500
3066,10.79,2022-08-17 13:31:01.078125
3067,25.31,2022-08-17 13:31:01.093750
3068,35.61,2022-08-17 13:31:01.109375
3069,42.38,2022-08-17 13:31:01.125000
3070,46.11,2022-08-17 13:31:01.140625
3071,47.13,2022-08-17 13:31:01.156250
3072,45.73,2022-08-17 13:31:01.171875
3073,42.48,2022-08-17 13:31:01.187500
3074,38.17,2022-08-17 13:31:01.203125
3075,33.77,2022-08-17 13:31:01.218750
3076,30.12,2022-08-17 13:31:01.234375
3077,27.77,2022-08-17 13:31:01.250000
3078,26.94,2022-08-17 13:31:01.265625
3079,27.45,2022-08-17 13:31:01.281250
3080,28.95,2022-08-17 13:31:01.296875
3081,30.9,2022-08-17 13:31:01.312500
3082,32.69,2022-08-17 13:31:01.328125
3083,33.58,2022-08-17 13:31:01.343750
3084,32.86,2022-08-17 13:31:01.359375
3085,29.92,2022-08-17 13:31:01.375000
3086,24.45,2022-08-17 13:31:01.390625
3087,16.51,2022-08-17 13:31:01.406250
3088,6.51,2022-08-17 13:31:01.421875
3089,-4.84,2022-08-17 13:31:01.437500
3090,-16.88,2022-08-17 13:31:01.453125
3091,-29.12,2022-08-17 13:31:01.468750
3092,-41.44,2022-08-17 13:31:01.484375
3093,-54.03,2022-08-17 13:31:01.500000
3094,-67.33,2022-08-17 13:31:01.515625
3095,-81.78,2022-08-17 13:31:01.531250
3096,-97.46,2022-08-17 13:31:01.546875
3097,-113.75,2022-08-17 13:31:01.562500
3098,-129.07,2022-08-17 13:31:01.578125
3099,-141.11,2022-08-17 13:31:01.593750
3100,-147.25,2022-08-17 13:31:01.609375
3101,-145.35,2022-08-17 13:31:01.625000
3102,-134.52,2022-08-17 13:31:01.640625
3103,-115.53,2022-08-17 13:31:01.656250
3104,-90.64,2022-08-17 13:31:01.671875
3105,-62.9,2022-08-17 13:31:01.687500
3106,-35.39,2022-08-17 13:31:01.703125
3107,-10.49,2022-08-17 13:31:01.718750
3108,10.25,2022-08-17 13:31:01.734375
3109,25.92,2022-08-17 13:31:01.750000
3110,35.97,2022-08-17 13:31:01.765625
3111,40.17,2022-08-17 13:31:01.781250
3112,38.63,2022-08-17 13:31:01.796875
3113,32.12,2022-08-17 13:31:01.812500
3114,22.26,2022-08-17 13:31:01.828125
3115,11.16,2022-08-17 13:31:01.843750
3116,1.02,2022-08-17 13:31:01.859375
3117,-6.54,2022-08-17 13:31:01.875000
3118,-11.0,2022-08-17 13:31:01.890625
3119,-13.09,2022-08-17 13:31:01.906250
3120,-14.41,2022-08-17 13:31:01.921875
3121,-17.03,2022-08-17 13:31:01.937500
3122,-22.72,2022-08-17 13:31:01.953125
3123,-32.38,2022-08-17 13:31:01.968750
3124,-45.78,2022-08-17 13:31:01.984375
3125,-61.57,2022-08-17 13:31:02.000000
3126,-77.72,2022-08-17 13:31:02.015625
3127,-92.16,2022-08-17 13:31:02.031250
3128,-103.43,2022-08-17 13:31:02.046875
3129,-111.04,2022-08-17 13:31:02.062500
3130,-115.45,2022-08-17 13:31:02.078125
3131,-117.63,2022-08-17 13:31:02.093750
3132,-118.49,2022-08-17 13:31:02.109375
3133,-118.62,2022-08-17 13:31:02.125000
3134,-118.14,2022-08-17 13:31:02.140625
3135,-117.09,2022-08-17 13:31:02.156250
3136,-115.72,2022-08-17 13:31:02.171875
