,BVP,time
0,38.31,2021-12-17 16:49:35.234375
1,44.5,2021-12-17 16:49:35.250000
2,50.35,2021-12-17 16:49:35.265625
3,55.65,2021-12-17 16:49:35.281250
4,60.11,2021-12-17 16:49:35.296875
5,63.63,2021-12-17 16:49:35.312500
6,66.49,2021-12-17 16:49:35.328125
7,69.19,2021-12-17 16:49:35.343750
8,72.2,2021-12-17 16:49:35.359375
9,75.74,2021-12-17 16:49:35.375000
10,79.8,2021-12-17 16:49:35.390625
11,84.25,2021-12-17 16:49:35.406250
12,89.05,2021-12-17 16:49:35.421875
13,94.3,2021-12-17 16:49:35.437500
14,100.05,2021-12-17 16:49:35.453125
15,106.07,2021-12-17 16:49:35.468750
16,111.68,2021-12-17 16:49:35.484375
17,115.93,2021-12-17 16:49:35.500000
18,117.93,2021-12-17 16:49:35.515625
19,117.33,2021-12-17 16:49:35.531250
20,114.57,2021-12-17 16:49:35.546875
21,110.65,2021-12-17 16:49:35.562500
22,106.77,2021-12-17 16:49:35.578125
23,103.77,2021-12-17 16:49:35.593750
24,101.8,2021-12-17 16:49:35.609375
25,100.38,2021-12-17 16:49:35.625000
26,98.61,2021-12-17 16:49:35.640625
27,95.51,2021-12-17 16:49:35.656250
28,90.27,2021-12-17 16:49:35.671875
29,82.43,2021-12-17 16:49:35.687500
30,71.96,2021-12-17 16:49:35.703125
31,59.4,2021-12-17 16:49:35.718750
32,45.97,2021-12-17 16:49:35.734375
33,33.42,2021-12-17 16:49:35.750000
34,23.7,2021-12-17 16:49:35.765625
35,18.4,2021-12-17 16:49:35.781250
36,18.26,2021-12-17 16:49:35.796875
37,22.95,2021-12-17 16:49:35.812500
38,31.14,2021-12-17 16:49:35.828125
39,40.95,2021-12-17 16:49:35.843750
40,50.45,2021-12-17 16:49:35.859375
41,58.12,2021-12-17 16:49:35.875000
42,62.94,2021-12-17 16:49:35.890625
43,64.34,2021-12-17 16:49:35.906250
44,62.11,2021-12-17 16:49:35.921875
45,56.34,2021-12-17 16:49:35.937500
46,47.44,2021-12-17 16:49:35.953125
47,36.18,2021-12-17 16:49:35.968750
48,23.62,2021-12-17 16:49:35.984375
49,10.92,2021-12-17 16:49:36.000000
50,-0.92,2021-12-17 16:49:36.015625
51,-11.25,2021-12-17 16:49:36.031250
52,-19.8,2021-12-17 16:49:36.046875
53,-26.59,2021-12-17 16:49:36.062500
54,-31.72,2021-12-17 16:49:36.078125
55,-35.16,2021-12-17 16:49:36.093750
56,-36.8,2021-12-17 16:49:36.109375
57,-36.55,2021-12-17 16:49:36.125000
58,-34.45,2021-12-17 16:49:36.140625
59,-30.95,2021-12-17 16:49:36.156250
60,-26.83,2021-12-17 16:49:36.171875
61,-23.07,2021-12-17 16:49:36.187500
62,-20.55,2021-12-17 16:49:36.203125
63,-19.79,2021-12-17 16:49:36.218750
64,-20.84,2021-12-17 16:49:36.234375
65,-23.29,2021-12-17 16:49:36.250000
66,-26.55,2021-12-17 16:49:36.265625
67,-30.08,2021-12-17 16:49:36.281250
68,-33.67,2021-12-17 16:49:36.296875
69,-37.36,2021-12-17 16:49:36.312500
70,-41.33,2021-12-17 16:49:36.328125
71,-45.63,2021-12-17 16:49:36.343750
72,-50.01,2021-12-17 16:49:36.359375
73,-53.92,2021-12-17 16:49:36.375000
74,-56.58,2021-12-17 16:49:36.390625
75,-57.2,2021-12-17 16:49:36.406250
76,-55.19,2021-12-17 16:49:36.421875
77,-50.37,2021-12-17 16:49:36.437500
78,-42.99,2021-12-17 16:49:36.453125
79,-33.63,2021-12-17 16:49:36.468750
80,-22.92,2021-12-17 16:49:36.484375
81,-11.46,2021-12-17 16:49:36.500000
82,0.15,2021-12-17 16:49:36.515625
83,11.26,2021-12-17 16:49:36.531250
84,21.18,2021-12-17 16:49:36.546875
85,29.19,2021-12-17 16:49:36.562500
86,34.74,2021-12-17 16:49:36.578125
87,37.49,2021-12-17 16:49:36.593750
88,37.31,2021-12-17 16:49:36.609375
89,34.3,2021-12-17 16:49:36.625000
90,28.53,2021-12-17 16:49:36.640625
91,20.09,2021-12-17 16:49:36.656250
92,9.33,2021-12-17 16:49:36.671875
93,-2.86,2021-12-17 16:49:36.687500
94,-15.05,2021-12-17 16:49:36.703125
95,-25.65,2021-12-17 16:49:36.718750
96,-33.65,2021-12-17 16:49:36.734375
97,-39.17,2021-12-17 16:49:36.750000
98,-43.1,2021-12-17 16:49:36.765625
99,-47.14,2021-12-17 16:49:36.781250
100,-53.17,2021-12-17 16:49:36.796875
101,-62.41,2021-12-17 16:49:36.812500
102,-74.78,2021-12-17 16:49:36.828125
103,-88.85,2021-12-17 16:49:36.843750
104,-102.32,2021-12-17 16:49:36.859375
105,-112.77,2021-12-17 16:49:36.875000
106,-118.46,2021-12-17 16:49:36.890625
107,-117.85,2021-12-17 16:49:36.906250
108,-110.9,2021-12-17 16:49:36.921875
109,-98.99,2021-12-17 16:49:36.937500
110,-84.38,2021-12-17 16:49:36.953125
111,-69.06,2021-12-17 16:49:36.968750
112,-54.06,2021-12-17 16:49:36.984375
113,-39.34,2021-12-17 16:49:37.000000
114,-24.38,2021-12-17 16:49:37.015625
115,-8.81,2021-12-17 16:49:37.031250
116,8.68,2021-12-17 16:49:37.046875
117,28.43,2021-12-17 16:49:37.062500
118,49.66,2021-12-17 16:49:37.078125
119,70.86,2021-12-17 16:49:37.093750
120,90.58,2021-12-17 16:49:37.109375
121,108.18,2021-12-17 16:49:37.125000
122,124.04,2021-12-17 16:49:37.140625
123,139.29,2021-12-17 16:49:37.156250
124,155.54,2021-12-17 16:49:37.171875
125,176.15,2021-12-17 16:49:37.187500
126,202.85,2021-12-17 16:49:37.203125
127,234.19,2021-12-17 16:49:37.218750
128,265.39,2021-12-17 16:49:37.234375
129,289.95,2021-12-17 16:49:37.250000
130,302.46,2021-12-17 16:49:37.265625
131,300.61,2021-12-17 16:49:37.281250
132,285.91,2021-12-17 16:49:37.296875
133,250.78,2021-12-17 16:49:37.312500
134,194.86,2021-12-17 16:49:37.328125
135,124.46,2021-12-17 16:49:37.343750
136,50.56,2021-12-17 16:49:37.359375
137,-16.52,2021-12-17 16:49:37.375000
138,-71.13,2021-12-17 16:49:37.390625
139,-111.86,2021-12-17 16:49:37.406250
140,-139.28,2021-12-17 16:49:37.421875
141,-154.62,2021-12-17 16:49:37.437500
142,-159.84,2021-12-17 16:49:37.453125
143,-156.2,2021-12-17 16:49:37.468750
144,-146.39,2021-12-17 16:49:37.484375
145,-134.36,2021-12-17 16:49:37.500000
146,-124.01,2021-12-17 16:49:37.515625
147,-117.77,2021-12-17 16:49:37.531250
148,-115.35,2021-12-17 16:49:37.546875
149,-114.45,2021-12-17 16:49:37.562500
150,-112.51,2021-12-17 16:49:37.578125
151,-108.01,2021-12-17 16:49:37.593750
152,-99.76,2021-12-17 16:49:37.609375
153,-88.56,2021-12-17 16:49:37.625000
154,-76.71,2021-12-17 16:49:37.640625
155,-67.22,2021-12-17 16:49:37.656250
156,-62.93,2021-12-17 16:49:37.671875
157,-65.08,2021-12-17 16:49:37.687500
158,-73.76,2021-12-17 16:49:37.703125
159,-87.45,2021-12-17 16:49:37.718750
160,-102.88,2021-12-17 16:49:37.734375
161,-114.52,2021-12-17 16:49:37.750000
162,-116.95,2021-12-17 16:49:37.765625
163,-107.12,2021-12-17 16:49:37.781250
164,-85.17,2021-12-17 16:49:37.796875
165,-56.9,2021-12-17 16:49:37.812500
166,-30.36,2021-12-17 16:49:37.828125
167,-12.36,2021-12-17 16:49:37.843750
168,-5.84,2021-12-17 16:49:37.859375
169,-9.27,2021-12-17 16:49:37.875000
170,-17.82,2021-12-17 16:49:37.890625
171,-26.6,2021-12-17 16:49:37.906250
172,-32.92,2021-12-17 16:49:37.921875
173,-36.93,2021-12-17 16:49:37.937500
174,-40.29,2021-12-17 16:49:37.953125
175,-44.12,2021-12-17 16:49:37.968750
176,-48.13,2021-12-17 16:49:37.984375
177,-51.03,2021-12-17 16:49:38.000000
178,-51.66,2021-12-17 16:49:38.015625
179,-49.86,2021-12-17 16:49:38.031250
180,-46.75,2021-12-17 16:49:38.046875
181,-44.07,2021-12-17 16:49:38.062500
182,-43.5,2021-12-17 16:49:38.078125
183,-45.57,2021-12-17 16:49:38.093750
184,-49.39,2021-12-17 16:49:38.109375
185,-53.13,2021-12-17 16:49:38.125000
186,-54.91,2021-12-17 16:49:38.140625
187,-53.59,2021-12-17 16:49:38.156250
188,-49.18,2021-12-17 16:49:38.171875
189,-42.73,2021-12-17 16:49:38.187500
190,-35.64,2021-12-17 16:49:38.203125
191,-29.15,2021-12-17 16:49:38.218750
192,-23.86,2021-12-17 16:49:38.234375
193,-19.45,2021-12-17 16:49:38.250000
194,-15.06,2021-12-17 16:49:38.265625
195,-9.84,2021-12-17 16:49:38.281250
196,-3.39,2021-12-17 16:49:38.296875
197,4.0,2021-12-17 16:49:38.312500
198,11.53,2021-12-17 16:49:38.328125
199,18.31,2021-12-17 16:49:38.343750
200,23.78,2021-12-17 16:49:38.359375
201,28.01,2021-12-17 16:49:38.375000
202,31.68,2021-12-17 16:49:38.390625
203,35.77,2021-12-17 16:49:38.406250
204,41.07,2021-12-17 16:49:38.421875
205,47.91,2021-12-17 16:49:38.437500
206,55.93,2021-12-17 16:49:38.453125
207,64.31,2021-12-17 16:49:38.468750
208,72.08,2021-12-17 16:49:38.484375
209,78.42,2021-12-17 16:49:38.500000
210,82.95,2021-12-17 16:49:38.515625
211,85.66,2021-12-17 16:49:38.531250
212,86.75,2021-12-17 16:49:38.546875
213,86.59,2021-12-17 16:49:38.562500
214,85.65,2021-12-17 16:49:38.578125
215,84.34,2021-12-17 16:49:38.593750
216,82.95,2021-12-17 16:49:38.609375
217,81.37,2021-12-17 16:49:38.625000
218,78.94,2021-12-17 16:49:38.640625
219,74.53,2021-12-17 16:49:38.656250
220,66.92,2021-12-17 16:49:38.671875
221,55.49,2021-12-17 16:49:38.687500
222,40.66,2021-12-17 16:49:38.703125
223,24.13,2021-12-17 16:49:38.718750
224,8.07,2021-12-17 16:49:38.734375
225,-5.57,2021-12-17 16:49:38.750000
226,-15.71,2021-12-17 16:49:38.765625
227,-22.3,2021-12-17 16:49:38.781250
228,-25.91,2021-12-17 16:49:38.796875
229,-27.17,2021-12-17 16:49:38.812500
230,-26.37,2021-12-17 16:49:38.828125
231,-24.49,2021-12-17 16:49:38.843750
232,-21.96,2021-12-17 16:49:38.859375
233,-19.37,2021-12-17 16:49:38.875000
234,-17.52,2021-12-17 16:49:38.890625
235,-17.17,2021-12-17 16:49:38.906250
236,-18.64,2021-12-17 16:49:38.921875
237,-21.58,2021-12-17 16:49:38.937500
238,-25.09,2021-12-17 16:49:38.953125
239,-28.08,2021-12-17 16:49:38.968750
240,-29.73,2021-12-17 16:49:38.984375
241,-29.66,2021-12-17 16:49:39.000000
242,-28.07,2021-12-17 16:49:39.015625
243,-25.48,2021-12-17 16:49:39.031250
244,-22.44,2021-12-17 16:49:39.046875
245,-19.33,2021-12-17 16:49:39.062500
246,-16.24,2021-12-17 16:49:39.078125
247,-13.23,2021-12-17 16:49:39.093750
248,-10.37,2021-12-17 16:49:39.109375
249,-7.98,2021-12-17 16:49:39.125000
250,-6.37,2021-12-17 16:49:39.140625
251,-5.89,2021-12-17 16:49:39.156250
252,-6.68,2021-12-17 16:49:39.171875
253,-8.54,2021-12-17 16:49:39.187500
254,-11.03,2021-12-17 16:49:39.203125
255,-13.65,2021-12-17 16:49:39.218750
256,-16.07,2021-12-17 16:49:39.234375
257,-18.25,2021-12-17 16:49:39.250000
258,-20.36,2021-12-17 16:49:39.265625
259,-22.62,2021-12-17 16:49:39.281250
260,-25.31,2021-12-17 16:49:39.296875
261,-28.67,2021-12-17 16:49:39.312500
262,-32.82,2021-12-17 16:49:39.328125
263,-37.59,2021-12-17 16:49:39.343750
264,-42.47,2021-12-17 16:49:39.359375
265,-46.42,2021-12-17 16:49:39.375000
266,-48.14,2021-12-17 16:49:39.390625
267,-46.42,2021-12-17 16:49:39.406250
268,-40.6,2021-12-17 16:49:39.421875
269,-31.03,2021-12-17 16:49:39.437500
270,-18.91,2021-12-17 16:49:39.453125
271,-5.9,2021-12-17 16:49:39.468750
272,6.5,2021-12-17 16:49:39.484375
273,17.31,2021-12-17 16:49:39.500000
274,26.15,2021-12-17 16:49:39.515625
275,32.95,2021-12-17 16:49:39.531250
276,37.7,2021-12-17 16:49:39.546875
277,40.33,2021-12-17 16:49:39.562500
278,40.87,2021-12-17 16:49:39.578125
279,39.52,2021-12-17 16:49:39.593750
280,36.83,2021-12-17 16:49:39.609375
281,33.45,2021-12-17 16:49:39.625000
282,29.97,2021-12-17 16:49:39.640625
283,26.76,2021-12-17 16:49:39.656250
284,23.96,2021-12-17 16:49:39.671875
285,21.58,2021-12-17 16:49:39.687500
286,19.62,2021-12-17 16:49:39.703125
287,18.08,2021-12-17 16:49:39.718750
288,16.95,2021-12-17 16:49:39.734375
289,16.15,2021-12-17 16:49:39.750000
290,15.48,2021-12-17 16:49:39.765625
291,14.75,2021-12-17 16:49:39.781250
292,13.78,2021-12-17 16:49:39.796875
293,12.46,2021-12-17 16:49:39.812500
294,10.78,2021-12-17 16:49:39.828125
295,8.72,2021-12-17 16:49:39.843750
296,6.3,2021-12-17 16:49:39.859375
297,3.58,2021-12-17 16:49:39.875000
298,0.7,2021-12-17 16:49:39.890625
299,-2.18,2021-12-17 16:49:39.906250
300,-4.84,2021-12-17 16:49:39.921875
301,-7.21,2021-12-17 16:49:39.937500
302,-9.36,2021-12-17 16:49:39.953125
303,-11.6,2021-12-17 16:49:39.968750
304,-14.43,2021-12-17 16:49:39.984375
305,-18.33,2021-12-17 16:49:40.000000
306,-23.57,2021-12-17 16:49:40.015625
307,-29.93,2021-12-17 16:49:40.031250
308,-36.67,2021-12-17 16:49:40.046875
309,-42.55,2021-12-17 16:49:40.062500
310,-46.15,2021-12-17 16:49:40.078125
311,-46.28,2021-12-17 16:49:40.093750
312,-42.35,2021-12-17 16:49:40.109375
313,-34.52,2021-12-17 16:49:40.125000
314,-23.76,2021-12-17 16:49:40.140625
315,-11.52,2021-12-17 16:49:40.156250
316,0.61,2021-12-17 16:49:40.171875
317,11.34,2021-12-17 16:49:40.187500
318,19.91,2021-12-17 16:49:40.203125
319,26.15,2021-12-17 16:49:40.218750
320,30.35,2021-12-17 16:49:40.234375
321,32.9,2021-12-17 16:49:40.250000
322,34.05,2021-12-17 16:49:40.265625
323,33.8,2021-12-17 16:49:40.281250
324,32.06,2021-12-17 16:49:40.296875
325,28.95,2021-12-17 16:49:40.312500
326,24.97,2021-12-17 16:49:40.328125
327,20.9,2021-12-17 16:49:40.343750
328,17.57,2021-12-17 16:49:40.359375
329,15.44,2021-12-17 16:49:40.375000
330,14.43,2021-12-17 16:49:40.390625
331,14.04,2021-12-17 16:49:40.406250
332,13.7,2021-12-17 16:49:40.421875
333,13.09,2021-12-17 16:49:40.437500
334,12.33,2021-12-17 16:49:40.453125
335,11.8,2021-12-17 16:49:40.468750
336,11.79,2021-12-17 16:49:40.484375
337,12.21,2021-12-17 16:49:40.500000
338,12.59,2021-12-17 16:49:40.515625
339,12.29,2021-12-17 16:49:40.531250
340,10.86,2021-12-17 16:49:40.546875
341,8.26,2021-12-17 16:49:40.562500
342,4.87,2021-12-17 16:49:40.578125
343,1.28,2021-12-17 16:49:40.593750
344,-2.0,2021-12-17 16:49:40.609375
345,-4.81,2021-12-17 16:49:40.625000
346,-7.3,2021-12-17 16:49:40.640625
347,-9.84,2021-12-17 16:49:40.656250
348,-12.79,2021-12-17 16:49:40.671875
349,-16.34,2021-12-17 16:49:40.687500
350,-20.47,2021-12-17 16:49:40.703125
351,-25.06,2021-12-17 16:49:40.718750
352,-29.99,2021-12-17 16:49:40.734375
353,-35.1,2021-12-17 16:49:40.750000
354,-40.07,2021-12-17 16:49:40.765625
355,-44.31,2021-12-17 16:49:40.781250
356,-46.95,2021-12-17 16:49:40.796875
357,-46.95,2021-12-17 16:49:40.812500
358,-43.55,2021-12-17 16:49:40.828125
359,-36.59,2021-12-17 16:49:40.843750
360,-26.66,2021-12-17 16:49:40.859375
361,-15.01,2021-12-17 16:49:40.875000
362,-3.14,2021-12-17 16:49:40.890625
363,7.7,2021-12-17 16:49:40.906250
364,16.78,2021-12-17 16:49:40.921875
365,23.84,2021-12-17 16:49:40.937500
366,28.91,2021-12-17 16:49:40.953125
367,32.06,2021-12-17 16:49:40.968750
368,33.28,2021-12-17 16:49:40.984375
369,32.62,2021-12-17 16:49:41.000000
370,30.33,2021-12-17 16:49:41.015625
371,26.95,2021-12-17 16:49:41.031250
372,23.22,2021-12-17 16:49:41.046875
373,19.94,2021-12-17 16:49:41.062500
374,17.6,2021-12-17 16:49:41.078125
375,16.27,2021-12-17 16:49:41.093750
376,15.68,2021-12-17 16:49:41.109375
377,15.36,2021-12-17 16:49:41.125000
378,14.98,2021-12-17 16:49:41.140625
379,14.43,2021-12-17 16:49:41.156250
380,13.84,2021-12-17 16:49:41.171875
381,13.42,2021-12-17 16:49:41.187500
382,13.36,2021-12-17 16:49:41.203125
383,13.61,2021-12-17 16:49:41.218750
384,13.91,2021-12-17 16:49:41.234375
385,13.79,2021-12-17 16:49:41.250000
386,12.76,2021-12-17 16:49:41.265625
387,10.51,2021-12-17 16:49:41.281250
388,7.04,2021-12-17 16:49:41.296875
389,2.73,2021-12-17 16:49:41.312500
390,-1.86,2021-12-17 16:49:41.328125
391,-6.13,2021-12-17 16:49:41.343750
392,-9.67,2021-12-17 16:49:41.359375
393,-12.45,2021-12-17 16:49:41.375000
394,-14.77,2021-12-17 16:49:41.390625
395,-17.17,2021-12-17 16:49:41.406250
396,-20.27,2021-12-17 16:49:41.421875
397,-24.47,2021-12-17 16:49:41.437500
398,-29.78,2021-12-17 16:49:41.453125
399,-35.64,2021-12-17 16:49:41.468750
400,-40.93,2021-12-17 16:49:41.484375
401,-44.26,2021-12-17 16:49:41.500000
402,-44.29,2021-12-17 16:49:41.515625
403,-40.21,2021-12-17 16:49:41.531250
404,-32.05,2021-12-17 16:49:41.546875
405,-20.73,2021-12-17 16:49:41.562500
406,-7.8,2021-12-17 16:49:41.578125
407,5.11,2021-12-17 16:49:41.593750
408,16.59,2021-12-17 16:49:41.609375
409,25.91,2021-12-17 16:49:41.625000
410,32.89,2021-12-17 16:49:41.640625
411,37.81,2021-12-17 16:49:41.656250
412,41.01,2021-12-17 16:49:41.671875
413,42.76,2021-12-17 16:49:41.687500
414,43.27,2021-12-17 16:49:41.703125
415,42.64,2021-12-17 16:49:41.718750
416,41.06,2021-12-17 16:49:41.734375
417,38.86,2021-12-17 16:49:41.750000
418,36.47,2021-12-17 16:49:41.765625
419,34.34,2021-12-17 16:49:41.781250
420,32.84,2021-12-17 16:49:41.796875
421,32.15,2021-12-17 16:49:41.812500
422,32.1,2021-12-17 16:49:41.828125
423,32.33,2021-12-17 16:49:41.843750
424,32.43,2021-12-17 16:49:41.859375
425,32.16,2021-12-17 16:49:41.875000
426,31.59,2021-12-17 16:49:41.890625
427,31.09,2021-12-17 16:49:41.906250
428,31.09,2021-12-17 16:49:41.921875
429,31.77,2021-12-17 16:49:41.937500
430,32.9,2021-12-17 16:49:41.953125
431,33.75,2021-12-17 16:49:41.968750
432,33.44,2021-12-17 16:49:41.984375
433,31.31,2021-12-17 16:49:42.000000
434,27.24,2021-12-17 16:49:42.015625
435,21.64,2021-12-17 16:49:42.031250
436,15.28,2021-12-17 16:49:42.046875
437,8.78,2021-12-17 16:49:42.062500
438,2.32,2021-12-17 16:49:42.078125
439,-4.3,2021-12-17 16:49:42.093750
440,-11.56,2021-12-17 16:49:42.109375
441,-19.86,2021-12-17 16:49:42.125000
442,-29.37,2021-12-17 16:49:42.140625
443,-39.96,2021-12-17 16:49:42.156250
444,-51.22,2021-12-17 16:49:42.171875
445,-62.62,2021-12-17 16:49:42.187500
446,-73.51,2021-12-17 16:49:42.203125
447,-83.36,2021-12-17 16:49:42.218750
448,-91.9,2021-12-17 16:49:42.234375
449,-99.33,2021-12-17 16:49:42.250000
450,-106.08,2021-12-17 16:49:42.265625
451,-112.43,2021-12-17 16:49:42.281250
452,-118.01,2021-12-17 16:49:42.296875
453,-121.3,2021-12-17 16:49:42.312500
454,-119.89,2021-12-17 16:49:42.328125
455,-111.23,2021-12-17 16:49:42.343750
456,-93.46,2021-12-17 16:49:42.359375
457,-66.09,2021-12-17 16:49:42.375000
458,-30.31,2021-12-17 16:49:42.390625
459,11.22,2021-12-17 16:49:42.406250
460,54.44,2021-12-17 16:49:42.421875
461,94.18,2021-12-17 16:49:42.437500
462,124.84,2021-12-17 16:49:42.453125
463,141.52,2021-12-17 16:49:42.468750
464,141.53,2021-12-17 16:49:42.484375
465,125.69,2021-12-17 16:49:42.500000
466,98.37,2021-12-17 16:49:42.515625
467,66.19,2021-12-17 16:49:42.531250
468,35.74,2021-12-17 16:49:42.546875
469,11.43,2021-12-17 16:49:42.562500
470,-5.44,2021-12-17 16:49:42.578125
471,-16.1,2021-12-17 16:49:42.593750
472,-22.72,2021-12-17 16:49:42.609375
473,-27.1,2021-12-17 16:49:42.625000
474,-30.02,2021-12-17 16:49:42.640625
475,-31.63,2021-12-17 16:49:42.656250
476,-32.17,2021-12-17 16:49:42.671875
477,-32.35,2021-12-17 16:49:42.687500
478,-33.1,2021-12-17 16:49:42.703125
479,-34.9,2021-12-17 16:49:42.718750
480,-37.32,2021-12-17 16:49:42.734375
481,-39.11,2021-12-17 16:49:42.750000
482,-38.72,2021-12-17 16:49:42.765625
483,-35.15,2021-12-17 16:49:42.781250
484,-28.64,2021-12-17 16:49:42.796875
485,-20.76,2021-12-17 16:49:42.812500
486,-13.88,2021-12-17 16:49:42.828125
487,-10.33,2021-12-17 16:49:42.843750
488,-11.34,2021-12-17 16:49:42.859375
489,-16.47,2021-12-17 16:49:42.875000
490,-23.66,2021-12-17 16:49:42.890625
491,-30.03,2021-12-17 16:49:42.906250
492,-33.06,2021-12-17 16:49:42.921875
493,-31.51,2021-12-17 16:49:42.937500
494,-25.82,2021-12-17 16:49:42.953125
495,-17.64,2021-12-17 16:49:42.968750
496,-9.01,2021-12-17 16:49:42.984375
497,-1.35,2021-12-17 16:49:43.000000
498,4.96,2021-12-17 16:49:43.015625
499,10.55,2021-12-17 16:49:43.031250
500,16.53,2021-12-17 16:49:43.046875
501,23.81,2021-12-17 16:49:43.062500
502,32.62,2021-12-17 16:49:43.078125
503,42.46,2021-12-17 16:49:43.093750
504,52.36,2021-12-17 16:49:43.109375
505,61.37,2021-12-17 16:49:43.125000
506,68.94,2021-12-17 16:49:43.140625
507,75.06,2021-12-17 16:49:43.156250
508,80.04,2021-12-17 16:49:43.171875
509,84.15,2021-12-17 16:49:43.187500
510,87.27,2021-12-17 16:49:43.203125
511,88.84,2021-12-17 16:49:43.218750
512,88.09,2021-12-17 16:49:43.234375
513,84.59,2021-12-17 16:49:43.250000
514,78.6,2021-12-17 16:49:43.265625
515,71.06,2021-12-17 16:49:43.281250
516,63.2,2021-12-17 16:49:43.296875
517,55.91,2021-12-17 16:49:43.312500
518,49.26,2021-12-17 16:49:43.328125
519,42.45,2021-12-17 16:49:43.343750
520,34.24,2021-12-17 16:49:43.359375
521,23.46,2021-12-17 16:49:43.375000
522,9.68,2021-12-17 16:49:43.390625
523,-6.61,2021-12-17 16:49:43.406250
524,-24.02,2021-12-17 16:49:43.421875
525,-40.56,2021-12-17 16:49:43.437500
526,-54.08,2021-12-17 16:49:43.453125
527,-62.79,2021-12-17 16:49:43.468750
528,-65.75,2021-12-17 16:49:43.484375
529,-63.13,2021-12-17 16:49:43.500000
530,-56.33,2021-12-17 16:49:43.515625
531,-47.52,2021-12-17 16:49:43.531250
532,-38.93,2021-12-17 16:49:43.546875
533,-32.12,2021-12-17 16:49:43.562500
534,-27.48,2021-12-17 16:49:43.578125
535,-24.27,2021-12-17 16:49:43.593750
536,-21.2,2021-12-17 16:49:43.609375
537,-17.1,2021-12-17 16:49:43.625000
538,-11.49,2021-12-17 16:49:43.640625
539,-4.63,2021-12-17 16:49:43.656250
540,2.71,2021-12-17 16:49:43.671875
541,9.72,2021-12-17 16:49:43.687500
542,15.78,2021-12-17 16:49:43.703125
543,20.6,2021-12-17 16:49:43.718750
544,24.12,2021-12-17 16:49:43.734375
545,26.36,2021-12-17 16:49:43.750000
546,27.4,2021-12-17 16:49:43.765625
547,27.37,2021-12-17 16:49:43.781250
548,26.5,2021-12-17 16:49:43.796875
549,25.13,2021-12-17 16:49:43.812500
550,23.58,2021-12-17 16:49:43.828125
551,22.07,2021-12-17 16:49:43.843750
552,20.67,2021-12-17 16:49:43.859375
553,19.35,2021-12-17 16:49:43.875000
554,18.1,2021-12-17 16:49:43.890625
555,16.91,2021-12-17 16:49:43.906250
556,15.75,2021-12-17 16:49:43.921875
557,14.55,2021-12-17 16:49:43.937500
558,13.14,2021-12-17 16:49:43.953125
559,11.24,2021-12-17 16:49:43.968750
560,8.52,2021-12-17 16:49:43.984375
561,4.7,2021-12-17 16:49:44.000000
562,-0.37,2021-12-17 16:49:44.015625
563,-6.64,2021-12-17 16:49:44.031250
564,-13.82,2021-12-17 16:49:44.046875
565,-21.46,2021-12-17 16:49:44.062500
566,-29.19,2021-12-17 16:49:44.078125
567,-36.86,2021-12-17 16:49:44.093750
568,-44.64,2021-12-17 16:49:44.109375
569,-52.97,2021-12-17 16:49:44.125000
570,-62.39,2021-12-17 16:49:44.140625
571,-73.14,2021-12-17 16:49:44.156250
572,-85.07,2021-12-17 16:49:44.171875
573,-97.55,2021-12-17 16:49:44.187500
574,-109.56,2021-12-17 16:49:44.203125
575,-119.95,2021-12-17 16:49:44.218750
576,-127.43,2021-12-17 16:49:44.234375
577,-130.76,2021-12-17 16:49:44.250000
578,-128.9,2021-12-17 16:49:44.265625
579,-121.28,2021-12-17 16:49:44.281250
580,-108.1,2021-12-17 16:49:44.296875
581,-90.48,2021-12-17 16:49:44.312500
582,-70.17,2021-12-17 16:49:44.328125
583,-49.01,2021-12-17 16:49:44.343750
584,-28.29,2021-12-17 16:49:44.359375
585,-8.56,2021-12-17 16:49:44.375000
586,10.15,2021-12-17 16:49:44.390625
587,27.76,2021-12-17 16:49:44.406250
588,43.71,2021-12-17 16:49:44.421875
589,56.96,2021-12-17 16:49:44.437500
590,66.41,2021-12-17 16:49:44.453125
591,71.42,2021-12-17 16:49:44.468750
592,72.18,2021-12-17 16:49:44.484375
593,69.54,2021-12-17 16:49:44.500000
594,64.71,2021-12-17 16:49:44.515625
595,58.77,2021-12-17 16:49:44.531250
596,52.51,2021-12-17 16:49:44.546875
597,46.56,2021-12-17 16:49:44.562500
598,41.38,2021-12-17 16:49:44.578125
599,37.28,2021-12-17 16:49:44.593750
600,34.26,2021-12-17 16:49:44.609375
601,31.86,2021-12-17 16:49:44.625000
602,29.23,2021-12-17 16:49:44.640625
603,25.5,2021-12-17 16:49:44.656250
604,20.15,2021-12-17 16:49:44.671875
605,13.21,2021-12-17 16:49:44.687500
606,5.27,2021-12-17 16:49:44.703125
607,-2.85,2021-12-17 16:49:44.718750
608,-10.4,2021-12-17 16:49:44.734375
609,-16.89,2021-12-17 16:49:44.750000
610,-22.21,2021-12-17 16:49:44.765625
611,-26.58,2021-12-17 16:49:44.781250
612,-30.42,2021-12-17 16:49:44.796875
613,-34.11,2021-12-17 16:49:44.812500
614,-37.75,2021-12-17 16:49:44.828125
615,-40.9,2021-12-17 16:49:44.843750
616,-42.62,2021-12-17 16:49:44.859375
617,-41.76,2021-12-17 16:49:44.875000
618,-37.41,2021-12-17 16:49:44.890625
619,-29.38,2021-12-17 16:49:44.906250
620,-18.37,2021-12-17 16:49:44.921875
621,-5.8,2021-12-17 16:49:44.937500
622,6.68,2021-12-17 16:49:44.953125
623,17.62,2021-12-17 16:49:44.968750
624,26.13,2021-12-17 16:49:44.984375
625,31.9,2021-12-17 16:49:45.000000
626,35.05,2021-12-17 16:49:45.015625
627,35.9,2021-12-17 16:49:45.031250
628,34.83,2021-12-17 16:49:45.046875
629,32.23,2021-12-17 16:49:45.062500
630,28.47,2021-12-17 16:49:45.078125
631,23.93,2021-12-17 16:49:45.093750
632,18.96,2021-12-17 16:49:45.109375
633,13.89,2021-12-17 16:49:45.125000
634,9.08,2021-12-17 16:49:45.140625
635,4.9,2021-12-17 16:49:45.156250
636,1.74,2021-12-17 16:49:45.171875
637,-0.03,2021-12-17 16:49:45.187500
638,-0.25,2021-12-17 16:49:45.203125
639,1.03,2021-12-17 16:49:45.218750
640,3.42,2021-12-17 16:49:45.234375
641,6.31,2021-12-17 16:49:45.250000
642,9.02,2021-12-17 16:49:45.265625
643,11.05,2021-12-17 16:49:45.281250
644,12.19,2021-12-17 16:49:45.296875
645,12.57,2021-12-17 16:49:45.312500
646,12.41,2021-12-17 16:49:45.328125
647,11.87,2021-12-17 16:49:45.343750
648,10.91,2021-12-17 16:49:45.359375
649,9.33,2021-12-17 16:49:45.375000
650,6.97,2021-12-17 16:49:45.390625
651,3.76,2021-12-17 16:49:45.406250
652,-0.26,2021-12-17 16:49:45.421875
653,-5.07,2021-12-17 16:49:45.437500
654,-10.64,2021-12-17 16:49:45.453125
655,-16.78,2021-12-17 16:49:45.468750
656,-22.94,2021-12-17 16:49:45.484375
657,-28.08,2021-12-17 16:49:45.500000
658,-30.81,2021-12-17 16:49:45.515625
659,-29.86,2021-12-17 16:49:45.531250
660,-24.65,2021-12-17 16:49:45.546875
661,-15.56,2021-12-17 16:49:45.562500
662,-3.95,2021-12-17 16:49:45.578125
663,8.34,2021-12-17 16:49:45.593750
664,19.64,2021-12-17 16:49:45.609375
665,28.85,2021-12-17 16:49:45.625000
666,35.62,2021-12-17 16:49:45.640625
667,40.11,2021-12-17 16:49:45.656250
668,42.65,2021-12-17 16:49:45.671875
669,43.57,2021-12-17 16:49:45.687500
670,43.09,2021-12-17 16:49:45.703125
671,41.35,2021-12-17 16:49:45.718750
672,38.52,2021-12-17 16:49:45.734375
673,34.82,2021-12-17 16:49:45.750000
674,30.55,2021-12-17 16:49:45.765625
675,26.06,2021-12-17 16:49:45.781250
676,21.74,2021-12-17 16:49:45.796875
677,17.93,2021-12-17 16:49:45.812500
678,14.84,2021-12-17 16:49:45.828125
679,12.5,2021-12-17 16:49:45.843750
680,10.74,2021-12-17 16:49:45.859375
681,9.25,2021-12-17 16:49:45.875000
682,7.71,2021-12-17 16:49:45.890625
683,5.95,2021-12-17 16:49:45.906250
684,3.94,2021-12-17 16:49:45.921875
685,1.79,2021-12-17 16:49:45.937500
686,-0.34,2021-12-17 16:49:45.953125
687,-2.42,2021-12-17 16:49:45.968750
688,-4.49,2021-12-17 16:49:45.984375
689,-6.71,2021-12-17 16:49:46.000000
690,-9.28,2021-12-17 16:49:46.015625
691,-12.42,2021-12-17 16:49:46.031250
692,-16.31,2021-12-17 16:49:46.046875
693,-21.03,2021-12-17 16:49:46.062500
694,-26.38,2021-12-17 16:49:46.078125
695,-31.81,2021-12-17 16:49:46.093750
696,-36.35,2021-12-17 16:49:46.109375
697,-38.85,2021-12-17 16:49:46.125000
698,-38.32,2021-12-17 16:49:46.140625
699,-34.22,2021-12-17 16:49:46.156250
700,-26.76,2021-12-17 16:49:46.171875
701,-16.86,2021-12-17 16:49:46.187500
702,-5.87,2021-12-17 16:49:46.203125
703,4.89,2021-12-17 16:49:46.218750
704,14.35,2021-12-17 16:49:46.234375
705,21.96,2021-12-17 16:49:46.250000
706,27.59,2021-12-17 16:49:46.265625
707,31.36,2021-12-17 16:49:46.281250
708,33.42,2021-12-17 16:49:46.296875
709,33.92,2021-12-17 16:49:46.312500
710,32.95,2021-12-17 16:49:46.328125
711,30.62,2021-12-17 16:49:46.343750
712,27.22,2021-12-17 16:49:46.359375
713,23.16,2021-12-17 16:49:46.375000
714,18.95,2021-12-17 16:49:46.390625
715,15.08,2021-12-17 16:49:46.406250
716,11.93,2021-12-17 16:49:46.421875
717,9.64,2021-12-17 16:49:46.437500
718,8.15,2021-12-17 16:49:46.453125
719,7.23,2021-12-17 16:49:46.468750
720,6.62,2021-12-17 16:49:46.484375
721,6.07,2021-12-17 16:49:46.500000
722,5.35,2021-12-17 16:49:46.515625
723,4.33,2021-12-17 16:49:46.531250
724,2.97,2021-12-17 16:49:46.546875
725,1.33,2021-12-17 16:49:46.562500
726,-0.43,2021-12-17 16:49:46.578125
727,-2.18,2021-12-17 16:49:46.593750
728,-3.94,2021-12-17 16:49:46.609375
729,-5.88,2021-12-17 16:49:46.625000
730,-8.36,2021-12-17 16:49:46.640625
731,-11.7,2021-12-17 16:49:46.656250
732,-16.0,2021-12-17 16:49:46.671875
733,-21.07,2021-12-17 16:49:46.687500
734,-26.37,2021-12-17 16:49:46.703125
735,-31.1,2021-12-17 16:49:46.718750
736,-34.34,2021-12-17 16:49:46.734375
737,-35.29,2021-12-17 16:49:46.750000
738,-33.4,2021-12-17 16:49:46.765625
739,-28.55,2021-12-17 16:49:46.781250
740,-21.12,2021-12-17 16:49:46.796875
741,-11.89,2021-12-17 16:49:46.812500
742,-1.94,2021-12-17 16:49:46.828125
743,7.68,2021-12-17 16:49:46.843750
744,16.18,2021-12-17 16:49:46.859375
745,23.07,2021-12-17 16:49:46.875000
746,28.13,2021-12-17 16:49:46.890625
747,31.31,2021-12-17 16:49:46.906250
748,32.55,2021-12-17 16:49:46.921875
749,31.91,2021-12-17 16:49:46.937500
750,29.67,2021-12-17 16:49:46.953125
751,26.37,2021-12-17 16:49:46.968750
752,22.73,2021-12-17 16:49:46.984375
753,19.41,2021-12-17 16:49:47.000000
754,16.75,2021-12-17 16:49:47.015625
755,14.71,2021-12-17 16:49:47.031250
756,12.98,2021-12-17 16:49:47.046875
757,11.2,2021-12-17 16:49:47.062500
758,9.18,2021-12-17 16:49:47.078125
759,7.02,2021-12-17 16:49:47.093750
760,4.94,2021-12-17 16:49:47.109375
761,3.18,2021-12-17 16:49:47.125000
762,1.82,2021-12-17 16:49:47.140625
763,0.71,2021-12-17 16:49:47.156250
764,-0.42,2021-12-17 16:49:47.171875
765,-1.89,2021-12-17 16:49:47.187500
766,-3.93,2021-12-17 16:49:47.203125
767,-6.68,2021-12-17 16:49:47.218750
768,-10.15,2021-12-17 16:49:47.234375
769,-14.35,2021-12-17 16:49:47.250000
770,-19.25,2021-12-17 16:49:47.265625
771,-24.8,2021-12-17 16:49:47.281250
772,-30.89,2021-12-17 16:49:47.296875
773,-37.19,2021-12-17 16:49:47.312500
774,-43.13,2021-12-17 16:49:47.328125
775,-47.92,2021-12-17 16:49:47.343750
776,-50.58,2021-12-17 16:49:47.359375
777,-50.2,2021-12-17 16:49:47.375000
778,-46.24,2021-12-17 16:49:47.390625
779,-38.72,2021-12-17 16:49:47.406250
780,-28.27,2021-12-17 16:49:47.421875
781,-16.08,2021-12-17 16:49:47.437500
782,-3.61,2021-12-17 16:49:47.453125
783,7.78,2021-12-17 16:49:47.468750
784,17.02,2021-12-17 16:49:47.484375
785,23.62,2021-12-17 16:49:47.500000
786,27.54,2021-12-17 16:49:47.515625
787,29.09,2021-12-17 16:49:47.531250
788,28.81,2021-12-17 16:49:47.546875
789,27.24,2021-12-17 16:49:47.562500
790,24.86,2021-12-17 16:49:47.578125
791,22.04,2021-12-17 16:49:47.593750
792,19.02,2021-12-17 16:49:47.609375
793,15.95,2021-12-17 16:49:47.625000
794,12.98,2021-12-17 16:49:47.640625
795,10.31,2021-12-17 16:49:47.656250
796,8.17,2021-12-17 16:49:47.671875
797,6.76,2021-12-17 16:49:47.687500
798,6.1,2021-12-17 16:49:47.703125
799,5.98,2021-12-17 16:49:47.718750
800,6.01,2021-12-17 16:49:47.734375
801,5.78,2021-12-17 16:49:47.750000
802,5.1,2021-12-17 16:49:47.765625
803,4.09,2021-12-17 16:49:47.781250
804,3.03,2021-12-17 16:49:47.796875
805,2.2,2021-12-17 16:49:47.812500
806,1.64,2021-12-17 16:49:47.828125
807,1.09,2021-12-17 16:49:47.843750
808,0.15,2021-12-17 16:49:47.859375
809,-1.53,2021-12-17 16:49:47.875000
810,-4.14,2021-12-17 16:49:47.890625
811,-7.7,2021-12-17 16:49:47.906250
812,-12.13,2021-12-17 16:49:47.921875
813,-17.27,2021-12-17 16:49:47.937500
814,-22.84,2021-12-17 16:49:47.953125
815,-28.17,2021-12-17 16:49:47.968750
816,-32.3,2021-12-17 16:49:47.984375
817,-34.06,2021-12-17 16:49:48.000000
818,-32.56,2021-12-17 16:49:48.015625
819,-27.6,2021-12-17 16:49:48.031250
820,-19.84,2021-12-17 16:49:48.046875
821,-10.59,2021-12-17 16:49:48.062500
822,-1.22,2021-12-17 16:49:48.078125
823,7.28,2021-12-17 16:49:48.093750
824,14.62,2021-12-17 16:49:48.109375
825,21.01,2021-12-17 16:49:48.125000
826,26.75,2021-12-17 16:49:48.140625
827,31.87,2021-12-17 16:49:48.156250
828,36.04,2021-12-17 16:49:48.171875
829,38.72,2021-12-17 16:49:48.187500
830,39.47,2021-12-17 16:49:48.203125
831,38.15,2021-12-17 16:49:48.218750
832,35.0,2021-12-17 16:49:48.234375
833,30.48,2021-12-17 16:49:48.250000
834,25.16,2021-12-17 16:49:48.265625
835,19.53,2021-12-17 16:49:48.281250
836,13.94,2021-12-17 16:49:48.296875
837,8.64,2021-12-17 16:49:48.312500
838,3.76,2021-12-17 16:49:48.328125
839,-0.64,2021-12-17 16:49:48.343750
840,-4.53,2021-12-17 16:49:48.359375
841,-7.85,2021-12-17 16:49:48.375000
842,-10.46,2021-12-17 16:49:48.390625
843,-12.3,2021-12-17 16:49:48.406250
844,-13.39,2021-12-17 16:49:48.421875
845,-13.97,2021-12-17 16:49:48.437500
846,-14.46,2021-12-17 16:49:48.453125
847,-15.33,2021-12-17 16:49:48.468750
848,-16.89,2021-12-17 16:49:48.484375
849,-19.24,2021-12-17 16:49:48.500000
850,-22.3,2021-12-17 16:49:48.515625
851,-25.91,2021-12-17 16:49:48.531250
852,-29.98,2021-12-17 16:49:48.546875
853,-34.53,2021-12-17 16:49:48.562500
854,-39.61,2021-12-17 16:49:48.578125
855,-45.13,2021-12-17 16:49:48.593750
856,-50.7,2021-12-17 16:49:48.609375
857,-55.55,2021-12-17 16:49:48.625000
858,-58.69,2021-12-17 16:49:48.640625
859,-59.22,2021-12-17 16:49:48.656250
860,-56.65,2021-12-17 16:49:48.671875
861,-51.2,2021-12-17 16:49:48.687500
862,-43.76,2021-12-17 16:49:48.703125
863,-35.5,2021-12-17 16:49:48.718750
864,-27.42,2021-12-17 16:49:48.734375
865,-19.85,2021-12-17 16:49:48.750000
866,-12.47,2021-12-17 16:49:48.765625
867,-4.55,2021-12-17 16:49:48.781250
868,4.4,2021-12-17 16:49:48.796875
869,14.33,2021-12-17 16:49:48.812500
870,24.48,2021-12-17 16:49:48.828125
871,33.84,2021-12-17 16:49:48.843750
872,41.6,2021-12-17 16:49:48.859375
873,47.44,2021-12-17 16:49:48.875000
874,51.48,2021-12-17 16:49:48.890625
875,53.92,2021-12-17 16:49:48.906250
876,54.76,2021-12-17 16:49:48.921875
877,53.81,2021-12-17 16:49:48.937500
878,50.97,2021-12-17 16:49:48.953125
879,46.51,2021-12-17 16:49:48.968750
880,41.14,2021-12-17 16:49:48.984375
881,35.84,2021-12-17 16:49:49.000000
882,31.42,2021-12-17 16:49:49.015625
883,28.29,2021-12-17 16:49:49.031250
884,26.33,2021-12-17 16:49:49.046875
885,25.12,2021-12-17 16:49:49.062500
886,24.11,2021-12-17 16:49:49.078125
887,22.89,2021-12-17 16:49:49.093750
888,21.21,2021-12-17 16:49:49.109375
889,19.01,2021-12-17 16:49:49.125000
890,16.42,2021-12-17 16:49:49.140625
891,13.67,2021-12-17 16:49:49.156250
892,11.07,2021-12-17 16:49:49.171875
893,8.7,2021-12-17 16:49:49.187500
894,6.25,2021-12-17 16:49:49.203125
895,3.0,2021-12-17 16:49:49.218750
896,-1.96,2021-12-17 16:49:49.234375
897,-9.19,2021-12-17 16:49:49.250000
898,-18.5,2021-12-17 16:49:49.265625
899,-28.73,2021-12-17 16:49:49.281250
900,-38.13,2021-12-17 16:49:49.296875
901,-44.84,2021-12-17 16:49:49.312500
902,-47.63,2021-12-17 16:49:49.328125
903,-46.3,2021-12-17 16:49:49.343750
904,-41.69,2021-12-17 16:49:49.359375
905,-35.21,2021-12-17 16:49:49.375000
906,-28.26,2021-12-17 16:49:49.390625
907,-21.71,2021-12-17 16:49:49.406250
908,-15.75,2021-12-17 16:49:49.421875
909,-10.17,2021-12-17 16:49:49.437500
910,-4.68,2021-12-17 16:49:49.453125
911,0.69,2021-12-17 16:49:49.468750
912,5.51,2021-12-17 16:49:49.484375
913,9.2,2021-12-17 16:49:49.500000
914,11.36,2021-12-17 16:49:49.515625
915,12.07,2021-12-17 16:49:49.531250
916,11.87,2021-12-17 16:49:49.546875
917,11.46,2021-12-17 16:49:49.562500
918,11.36,2021-12-17 16:49:49.578125
919,11.71,2021-12-17 16:49:49.593750
920,12.26,2021-12-17 16:49:49.609375
921,12.68,2021-12-17 16:49:49.625000
922,12.87,2021-12-17 16:49:49.640625
923,12.97,2021-12-17 16:49:49.656250
924,13.29,2021-12-17 16:49:49.671875
925,14.03,2021-12-17 16:49:49.687500
926,15.0,2021-12-17 16:49:49.703125
927,15.58,2021-12-17 16:49:49.718750
928,14.99,2021-12-17 16:49:49.734375
929,12.66,2021-12-17 16:49:49.750000
930,8.51,2021-12-17 16:49:49.765625
931,3.08,2021-12-17 16:49:49.781250
932,-2.8,2021-12-17 16:49:49.796875
933,-8.29,2021-12-17 16:49:49.812500
934,-12.85,2021-12-17 16:49:49.828125
935,-16.38,2021-12-17 16:49:49.843750
936,-19.13,2021-12-17 16:49:49.859375
937,-21.53,2021-12-17 16:49:49.875000
938,-23.96,2021-12-17 16:49:49.890625
939,-26.66,2021-12-17 16:49:49.906250
940,-29.59,2021-12-17 16:49:49.921875
941,-32.46,2021-12-17 16:49:49.937500
942,-34.71,2021-12-17 16:49:49.953125
943,-35.65,2021-12-17 16:49:49.968750
944,-34.65,2021-12-17 16:49:49.984375
945,-31.4,2021-12-17 16:49:50.000000
946,-26.05,2021-12-17 16:49:50.015625
947,-19.17,2021-12-17 16:49:50.031250
948,-11.6,2021-12-17 16:49:50.046875
949,-4.19,2021-12-17 16:49:50.062500
950,2.35,2021-12-17 16:49:50.078125
951,7.47,2021-12-17 16:49:50.093750
952,10.75,2021-12-17 16:49:50.109375
953,11.74,2021-12-17 16:49:50.125000
954,10.01,2021-12-17 16:49:50.140625
955,5.24,2021-12-17 16:49:50.156250
956,-2.62,2021-12-17 16:49:50.171875
957,-13.12,2021-12-17 16:49:50.187500
958,-25.2,2021-12-17 16:49:50.203125
959,-37.31,2021-12-17 16:49:50.218750
960,-47.75,2021-12-17 16:49:50.234375
961,-55.06,2021-12-17 16:49:50.250000
962,-58.56,2021-12-17 16:49:50.265625
963,-58.42,2021-12-17 16:49:50.281250
964,-55.61,2021-12-17 16:49:50.296875
965,-51.31,2021-12-17 16:49:50.312500
966,-46.39,2021-12-17 16:49:50.328125
967,-41.01,2021-12-17 16:49:50.343750
968,-34.62,2021-12-17 16:49:50.359375
969,-26.24,2021-12-17 16:49:50.375000
970,-15.06,2021-12-17 16:49:50.390625
971,-0.91,2021-12-17 16:49:50.406250
972,15.49,2021-12-17 16:49:50.421875
973,32.52,2021-12-17 16:49:50.437500
974,48.05,2021-12-17 16:49:50.453125
975,60.02,2021-12-17 16:49:50.468750
976,67.02,2021-12-17 16:49:50.484375
977,68.64,2021-12-17 16:49:50.500000
978,65.53,2021-12-17 16:49:50.515625
979,59.03,2021-12-17 16:49:50.531250
980,50.77,2021-12-17 16:49:50.546875
981,42.25,2021-12-17 16:49:50.562500
982,34.67,2021-12-17 16:49:50.578125
983,28.95,2021-12-17 16:49:50.593750
984,25.82,2021-12-17 16:49:50.609375
985,25.73,2021-12-17 16:49:50.625000
986,28.77,2021-12-17 16:49:50.640625
987,34.47,2021-12-17 16:49:50.656250
988,41.85,2021-12-17 16:49:50.671875
989,49.55,2021-12-17 16:49:50.687500
990,56.24,2021-12-17 16:49:50.703125
991,60.9,2021-12-17 16:49:50.718750
992,62.96,2021-12-17 16:49:50.734375
993,62.22,2021-12-17 16:49:50.750000
994,58.68,2021-12-17 16:49:50.765625
995,52.38,2021-12-17 16:49:50.781250
996,43.35,2021-12-17 16:49:50.796875
997,31.77,2021-12-17 16:49:50.812500
998,18.09,2021-12-17 16:49:50.828125
999,3.07,2021-12-17 16:49:50.843750
1000,-12.19,2021-12-17 16:49:50.859375
1001,-26.45,2021-12-17 16:49:50.875000
1002,-38.56,2021-12-17 16:49:50.890625
1003,-47.69,2021-12-17 16:49:50.906250
1004,-53.58,2021-12-17 16:49:50.921875
1005,-56.53,2021-12-17 16:49:50.937500
1006,-57.27,2021-12-17 16:49:50.953125
1007,-56.7,2021-12-17 16:49:50.968750
1008,-55.58,2021-12-17 16:49:50.984375
1009,-54.35,2021-12-17 16:49:51.000000
1010,-53.02,2021-12-17 16:49:51.015625
1011,-51.34,2021-12-17 16:49:51.031250
1012,-48.92,2021-12-17 16:49:51.046875
1013,-45.53,2021-12-17 16:49:51.062500
1014,-41.26,2021-12-17 16:49:51.078125
1015,-36.47,2021-12-17 16:49:51.093750
1016,-31.78,2021-12-17 16:49:51.109375
1017,-27.79,2021-12-17 16:49:51.125000
1018,-24.92,2021-12-17 16:49:51.140625
1019,-23.28,2021-12-17 16:49:51.156250
1020,-22.83,2021-12-17 16:49:51.171875
1021,-23.39,2021-12-17 16:49:51.187500
1022,-24.87,2021-12-17 16:49:51.203125
1023,-27.27,2021-12-17 16:49:51.218750
1024,-30.55,2021-12-17 16:49:51.234375
1025,-34.37,2021-12-17 16:49:51.250000
1026,-37.97,2021-12-17 16:49:51.265625
1027,-40.09,2021-12-17 16:49:51.281250
1028,-39.35,2021-12-17 16:49:51.296875
1029,-34.73,2021-12-17 16:49:51.312500
1030,-25.98,2021-12-17 16:49:51.328125
1031,-13.86,2021-12-17 16:49:51.343750
1032,0.09,2021-12-17 16:49:51.359375
1033,13.95,2021-12-17 16:49:51.375000
1034,26.0,2021-12-17 16:49:51.390625
1035,35.15,2021-12-17 16:49:51.406250
1036,41.07,2021-12-17 16:49:51.421875
1037,44.07,2021-12-17 16:49:51.437500
1038,44.84,2021-12-17 16:49:51.453125
1039,44.16,2021-12-17 16:49:51.468750
1040,42.69,2021-12-17 16:49:51.484375
1041,40.88,2021-12-17 16:49:51.500000
1042,38.96,2021-12-17 16:49:51.515625
1043,36.93,2021-12-17 16:49:51.531250
1044,34.67,2021-12-17 16:49:51.546875
1045,31.97,2021-12-17 16:49:51.562500
1046,28.71,2021-12-17 16:49:51.578125
1047,24.92,2021-12-17 16:49:51.593750
1048,20.83,2021-12-17 16:49:51.609375
1049,16.82,2021-12-17 16:49:51.625000
1050,13.22,2021-12-17 16:49:51.640625
1051,10.29,2021-12-17 16:49:51.656250
1052,8.05,2021-12-17 16:49:51.671875
1053,6.39,2021-12-17 16:49:51.687500
1054,5.07,2021-12-17 16:49:51.703125
1055,3.83,2021-12-17 16:49:51.718750
1056,2.43,2021-12-17 16:49:51.734375
1057,0.62,2021-12-17 16:49:51.750000
1058,-1.75,2021-12-17 16:49:51.765625
1059,-4.82,2021-12-17 16:49:51.781250
1060,-8.6,2021-12-17 16:49:51.796875
1061,-12.98,2021-12-17 16:49:51.812500
1062,-17.7,2021-12-17 16:49:51.828125
1063,-22.5,2021-12-17 16:49:51.843750
1064,-27.08,2021-12-17 16:49:51.859375
1065,-31.2,2021-12-17 16:49:51.875000
1066,-34.58,2021-12-17 16:49:51.890625
1067,-36.88,2021-12-17 16:49:51.906250
1068,-37.67,2021-12-17 16:49:51.921875
1069,-36.52,2021-12-17 16:49:51.937500
1070,-33.15,2021-12-17 16:49:51.953125
1071,-27.63,2021-12-17 16:49:51.968750
1072,-20.44,2021-12-17 16:49:51.984375
1073,-12.41,2021-12-17 16:49:52.000000
1074,-4.44,2021-12-17 16:49:52.015625
1075,2.74,2021-12-17 16:49:52.031250
1076,8.73,2021-12-17 16:49:52.046875
1077,13.44,2021-12-17 16:49:52.062500
1078,16.93,2021-12-17 16:49:52.078125
1079,19.29,2021-12-17 16:49:52.093750
1080,20.45,2021-12-17 16:49:52.109375
1081,20.38,2021-12-17 16:49:52.125000
1082,19.2,2021-12-17 16:49:52.140625
1083,17.24,2021-12-17 16:49:52.156250
1084,15.04,2021-12-17 16:49:52.171875
1085,13.14,2021-12-17 16:49:52.187500
1086,11.85,2021-12-17 16:49:52.203125
1087,11.18,2021-12-17 16:49:52.218750
1088,10.85,2021-12-17 16:49:52.234375
1089,10.52,2021-12-17 16:49:52.250000
1090,9.99,2021-12-17 16:49:52.265625
1091,9.21,2021-12-17 16:49:52.281250
1092,8.28,2021-12-17 16:49:52.296875
1093,7.18,2021-12-17 16:49:52.312500
1094,5.79,2021-12-17 16:49:52.328125
1095,3.9,2021-12-17 16:49:52.343750
1096,1.41,2021-12-17 16:49:52.359375
1097,-1.53,2021-12-17 16:49:52.375000
1098,-4.55,2021-12-17 16:49:52.390625
1099,-7.21,2021-12-17 16:49:52.406250
1100,-9.28,2021-12-17 16:49:52.421875
1101,-10.88,2021-12-17 16:49:52.437500
1102,-12.44,2021-12-17 16:49:52.453125
1103,-14.45,2021-12-17 16:49:52.468750
1104,-17.25,2021-12-17 16:49:52.484375
1105,-20.78,2021-12-17 16:49:52.500000
1106,-24.59,2021-12-17 16:49:52.515625
1107,-28.01,2021-12-17 16:49:52.531250
1108,-30.31,2021-12-17 16:49:52.546875
1109,-30.87,2021-12-17 16:49:52.562500
1110,-29.3,2021-12-17 16:49:52.578125
1111,-25.53,2021-12-17 16:49:52.593750
1112,-19.86,2021-12-17 16:49:52.609375
1113,-12.88,2021-12-17 16:49:52.625000
1114,-5.41,2021-12-17 16:49:52.640625
1115,1.79,2021-12-17 16:49:52.656250
1116,8.11,2021-12-17 16:49:52.671875
1117,13.22,2021-12-17 16:49:52.687500
1118,17.01,2021-12-17 16:49:52.703125
1119,19.48,2021-12-17 16:49:52.718750
1120,20.58,2021-12-17 16:49:52.734375
1121,20.3,2021-12-17 16:49:52.750000
1122,18.79,2021-12-17 16:49:52.765625
1123,16.38,2021-12-17 16:49:52.781250
1124,13.69,2021-12-17 16:49:52.796875
1125,11.34,2021-12-17 16:49:52.812500
1126,9.78,2021-12-17 16:49:52.828125
1127,9.13,2021-12-17 16:49:52.843750
1128,9.17,2021-12-17 16:49:52.859375
1129,9.49,2021-12-17 16:49:52.875000
1130,9.74,2021-12-17 16:49:52.890625
1131,9.67,2021-12-17 16:49:52.906250
1132,9.22,2021-12-17 16:49:52.921875
1133,8.46,2021-12-17 16:49:52.937500
1134,7.42,2021-12-17 16:49:52.953125
1135,6.17,2021-12-17 16:49:52.968750
1136,4.76,2021-12-17 16:49:52.984375
1137,3.25,2021-12-17 16:49:53.000000
1138,1.73,2021-12-17 16:49:53.015625
1139,0.3,2021-12-17 16:49:53.031250
1140,-1.03,2021-12-17 16:49:53.046875
1141,-2.35,2021-12-17 16:49:53.062500
1142,-3.88,2021-12-17 16:49:53.078125
1143,-5.92,2021-12-17 16:49:53.093750
1144,-8.69,2021-12-17 16:49:53.109375
1145,-12.29,2021-12-17 16:49:53.125000
1146,-16.61,2021-12-17 16:49:53.140625
1147,-21.29,2021-12-17 16:49:53.156250
1148,-25.69,2021-12-17 16:49:53.171875
1149,-29.01,2021-12-17 16:49:53.187500
1150,-30.33,2021-12-17 16:49:53.203125
1151,-28.95,2021-12-17 16:49:53.218750
1152,-24.56,2021-12-17 16:49:53.234375
1153,-17.44,2021-12-17 16:49:53.250000
1154,-8.49,2021-12-17 16:49:53.265625
1155,0.97,2021-12-17 16:49:53.281250
1156,9.59,2021-12-17 16:49:53.296875
1157,16.37,2021-12-17 16:49:53.312500
1158,20.94,2021-12-17 16:49:53.328125
1159,23.43,2021-12-17 16:49:53.343750
1160,24.27,2021-12-17 16:49:53.359375
1161,23.87,2021-12-17 16:49:53.375000
1162,22.48,2021-12-17 16:49:53.390625
1163,20.21,2021-12-17 16:49:53.406250
1164,17.22,2021-12-17 16:49:53.421875
1165,13.87,2021-12-17 16:49:53.437500
1166,10.64,2021-12-17 16:49:53.453125
1167,8.02,2021-12-17 16:49:53.468750
1168,6.34,2021-12-17 16:49:53.484375
1169,5.6,2021-12-17 16:49:53.500000
1170,5.58,2021-12-17 16:49:53.515625
1171,5.94,2021-12-17 16:49:53.531250
1172,6.37,2021-12-17 16:49:53.546875
1173,6.68,2021-12-17 16:49:53.562500
1174,6.77,2021-12-17 16:49:53.578125
1175,6.59,2021-12-17 16:49:53.593750
1176,6.1,2021-12-17 16:49:53.609375
1177,5.23,2021-12-17 16:49:53.625000
1178,4.0,2021-12-17 16:49:53.640625
1179,2.51,2021-12-17 16:49:53.656250
1180,0.93,2021-12-17 16:49:53.671875
1181,-0.58,2021-12-17 16:49:53.687500
1182,-2.04,2021-12-17 16:49:53.703125
1183,-3.7,2021-12-17 16:49:53.718750
1184,-5.94,2021-12-17 16:49:53.734375
1185,-9.09,2021-12-17 16:49:53.750000
1186,-13.15,2021-12-17 16:49:53.765625
1187,-17.74,2021-12-17 16:49:53.781250
1188,-22.07,2021-12-17 16:49:53.796875
1189,-25.25,2021-12-17 16:49:53.812500
1190,-26.49,2021-12-17 16:49:53.828125
1191,-25.35,2021-12-17 16:49:53.843750
1192,-21.86,2021-12-17 16:49:53.859375
1193,-16.41,2021-12-17 16:49:53.875000
1194,-9.69,2021-12-17 16:49:53.890625
1195,-2.49,2021-12-17 16:49:53.906250
1196,4.42,2021-12-17 16:49:53.921875
1197,10.41,2021-12-17 16:49:53.937500
1198,15.09,2021-12-17 16:49:53.953125
1199,18.28,2021-12-17 16:49:53.968750
1200,20.01,2021-12-17 16:49:53.984375
1201,20.46,2021-12-17 16:49:54.000000
1202,19.86,2021-12-17 16:49:54.015625
1203,18.44,2021-12-17 16:49:54.031250
1204,16.37,2021-12-17 16:49:54.046875
1205,13.88,2021-12-17 16:49:54.062500
1206,11.24,2021-12-17 16:49:54.078125
1207,8.76,2021-12-17 16:49:54.093750
1208,6.79,2021-12-17 16:49:54.109375
1209,5.6,2021-12-17 16:49:54.125000
1210,5.23,2021-12-17 16:49:54.140625
1211,5.53,2021-12-17 16:49:54.156250
1212,6.14,2021-12-17 16:49:54.171875
1213,6.65,2021-12-17 16:49:54.187500
1214,6.71,2021-12-17 16:49:54.203125
1215,6.19,2021-12-17 16:49:54.218750
1216,5.18,2021-12-17 16:49:54.234375
1217,3.87,2021-12-17 16:49:54.250000
1218,2.47,2021-12-17 16:49:54.265625
1219,1.08,2021-12-17 16:49:54.281250
1220,-0.31,2021-12-17 16:49:54.296875
1221,-1.8,2021-12-17 16:49:54.312500
1222,-3.56,2021-12-17 16:49:54.328125
1223,-5.78,2021-12-17 16:49:54.343750
1224,-8.66,2021-12-17 16:49:54.359375
1225,-12.27,2021-12-17 16:49:54.375000
1226,-16.52,2021-12-17 16:49:54.390625
1227,-20.99,2021-12-17 16:49:54.406250
1228,-25.01,2021-12-17 16:49:54.421875
1229,-27.72,2021-12-17 16:49:54.437500
1230,-28.35,2021-12-17 16:49:54.453125
1231,-26.48,2021-12-17 16:49:54.468750
1232,-22.19,2021-12-17 16:49:54.484375
1233,-16.03,2021-12-17 16:49:54.500000
1234,-8.86,2021-12-17 16:49:54.515625
1235,-1.54,2021-12-17 16:49:54.531250
1236,5.2,2021-12-17 16:49:54.546875
1237,10.93,2021-12-17 16:49:54.562500
1238,15.43,2021-12-17 16:49:54.578125
1239,18.7,2021-12-17 16:49:54.593750
1240,20.75,2021-12-17 16:49:54.609375
1241,21.64,2021-12-17 16:49:54.625000
1242,21.38,2021-12-17 16:49:54.640625
1243,19.99,2021-12-17 16:49:54.656250
1244,17.6,2021-12-17 16:49:54.671875
1245,14.51,2021-12-17 16:49:54.687500
1246,11.2,2021-12-17 16:49:54.703125
1247,8.2,2021-12-17 16:49:54.718750
1248,5.95,2021-12-17 16:49:54.734375
1249,4.64,2021-12-17 16:49:54.750000
1250,4.14,2021-12-17 16:49:54.765625
1251,4.16,2021-12-17 16:49:54.781250
1252,4.38,2021-12-17 16:49:54.796875
1253,4.57,2021-12-17 16:49:54.812500
1254,4.57,2021-12-17 16:49:54.828125
1255,4.26,2021-12-17 16:49:54.843750
1256,3.47,2021-12-17 16:49:54.859375
1257,2.06,2021-12-17 16:49:54.875000
1258,0.03,2021-12-17 16:49:54.890625
1259,-2.44,2021-12-17 16:49:54.906250
1260,-4.99,2021-12-17 16:49:54.921875
1261,-7.34,2021-12-17 16:49:54.937500
1262,-9.45,2021-12-17 16:49:54.953125
1263,-11.58,2021-12-17 16:49:54.968750
1264,-14.14,2021-12-17 16:49:54.984375
1265,-17.42,2021-12-17 16:49:55.000000
1266,-21.26,2021-12-17 16:49:55.015625
1267,-25.06,2021-12-17 16:49:55.031250
1268,-27.89,2021-12-17 16:49:55.046875
1269,-28.82,2021-12-17 16:49:55.062500
1270,-27.3,2021-12-17 16:49:55.078125
1271,-23.35,2021-12-17 16:49:55.093750
1272,-17.6,2021-12-17 16:49:55.109375
1273,-11.16,2021-12-17 16:49:55.125000
1274,-5.3,2021-12-17 16:49:55.140625
1275,-1.06,2021-12-17 16:49:55.156250
1276,1.02,2021-12-17 16:49:55.171875
1277,0.97,2021-12-17 16:49:55.187500
1278,-0.74,2021-12-17 16:49:55.203125
1279,-3.57,2021-12-17 16:49:55.218750
1280,-7.07,2021-12-17 16:49:55.234375
1281,-11.11,2021-12-17 16:49:55.250000
1282,-15.67,2021-12-17 16:49:55.265625
1283,-20.62,2021-12-17 16:49:55.281250
1284,-25.57,2021-12-17 16:49:55.296875
1285,-29.8,2021-12-17 16:49:55.312500
1286,-32.51,2021-12-17 16:49:55.328125
1287,-33.13,2021-12-17 16:49:55.343750
1288,-31.6,2021-12-17 16:49:55.359375
1289,-28.38,2021-12-17 16:49:55.375000
1290,-24.22,2021-12-17 16:49:55.390625
1291,-19.89,2021-12-17 16:49:55.406250
1292,-15.89,2021-12-17 16:49:55.421875
1293,-12.38,2021-12-17 16:49:55.437500
1294,-9.37,2021-12-17 16:49:55.453125
1295,-6.9,2021-12-17 16:49:55.468750
1296,-5.09,2021-12-17 16:49:55.484375
1297,-4.2,2021-12-17 16:49:55.500000
1298,-4.4,2021-12-17 16:49:55.515625
1299,-5.71,2021-12-17 16:49:55.531250
1300,-7.95,2021-12-17 16:49:55.546875
1301,-10.86,2021-12-17 16:49:55.562500
1302,-14.35,2021-12-17 16:49:55.578125
1303,-18.42,2021-12-17 16:49:55.593750
1304,-23.09,2021-12-17 16:49:55.609375
1305,-28.19,2021-12-17 16:49:55.625000
1306,-33.18,2021-12-17 16:49:55.640625
1307,-37.19,2021-12-17 16:49:55.656250
1308,-39.27,2021-12-17 16:49:55.671875
1309,-38.66,2021-12-17 16:49:55.687500
1310,-35.1,2021-12-17 16:49:55.703125
1311,-28.9,2021-12-17 16:49:55.718750
1312,-20.79,2021-12-17 16:49:55.734375
1313,-11.84,2021-12-17 16:49:55.750000
1314,-2.98,2021-12-17 16:49:55.765625
1315,5.04,2021-12-17 16:49:55.781250
1316,11.86,2021-12-17 16:49:55.796875
1317,17.39,2021-12-17 16:49:55.812500
1318,21.69,2021-12-17 16:49:55.828125
1319,24.76,2021-12-17 16:49:55.843750
1320,26.53,2021-12-17 16:49:55.859375
1321,26.95,2021-12-17 16:49:55.875000
1322,26.09,2021-12-17 16:49:55.890625
1323,24.28,2021-12-17 16:49:55.906250
1324,22.07,2021-12-17 16:49:55.921875
1325,20.04,2021-12-17 16:49:55.937500
1326,18.53,2021-12-17 16:49:55.953125
1327,17.57,2021-12-17 16:49:55.968750
1328,16.94,2021-12-17 16:49:55.984375
1329,16.38,2021-12-17 16:49:56.000000
1330,15.78,2021-12-17 16:49:56.015625
1331,15.17,2021-12-17 16:49:56.031250
1332,14.7,2021-12-17 16:49:56.046875
1333,14.44,2021-12-17 16:49:56.062500
1334,14.27,2021-12-17 16:49:56.078125
1335,13.96,2021-12-17 16:49:56.093750
1336,13.25,2021-12-17 16:49:56.109375
1337,12.03,2021-12-17 16:49:56.125000
1338,10.32,2021-12-17 16:49:56.140625
1339,8.25,2021-12-17 16:49:56.156250
1340,5.83,2021-12-17 16:49:56.171875
1341,2.99,2021-12-17 16:49:56.187500
1342,-0.44,2021-12-17 16:49:56.203125
1343,-4.5,2021-12-17 16:49:56.218750
1344,-9.07,2021-12-17 16:49:56.234375
1345,-13.7,2021-12-17 16:49:56.250000
1346,-17.76,2021-12-17 16:49:56.265625
1347,-20.53,2021-12-17 16:49:56.281250
1348,-21.34,2021-12-17 16:49:56.296875
1349,-19.87,2021-12-17 16:49:56.312500
1350,-16.11,2021-12-17 16:49:56.328125
1351,-10.54,2021-12-17 16:49:56.343750
1352,-3.88,2021-12-17 16:49:56.359375
1353,3.0,2021-12-17 16:49:56.375000
1354,9.35,2021-12-17 16:49:56.390625
1355,14.67,2021-12-17 16:49:56.406250
1356,18.81,2021-12-17 16:49:56.421875
1357,21.83,2021-12-17 16:49:56.437500
1358,23.79,2021-12-17 16:49:56.453125
1359,24.69,2021-12-17 16:49:56.468750
1360,24.39,2021-12-17 16:49:56.484375
1361,22.86,2021-12-17 16:49:56.500000
1362,20.28,2021-12-17 16:49:56.515625
1363,17.15,2021-12-17 16:49:56.531250
1364,14.13,2021-12-17 16:49:56.546875
1365,11.77,2021-12-17 16:49:56.562500
1366,10.34,2021-12-17 16:49:56.578125
1367,9.77,2021-12-17 16:49:56.593750
1368,9.76,2021-12-17 16:49:56.609375
1369,9.99,2021-12-17 16:49:56.625000
1370,10.27,2021-12-17 16:49:56.640625
1371,10.55,2021-12-17 16:49:56.656250
1372,10.82,2021-12-17 16:49:56.671875
1373,11.04,2021-12-17 16:49:56.687500
1374,11.01,2021-12-17 16:49:56.703125
1375,10.53,2021-12-17 16:49:56.718750
1376,9.5,2021-12-17 16:49:56.734375
1377,8.01,2021-12-17 16:49:56.750000
1378,6.3,2021-12-17 16:49:56.765625
1379,4.64,2021-12-17 16:49:56.781250
1380,3.06,2021-12-17 16:49:56.796875
1381,1.35,2021-12-17 16:49:56.812500
1382,-0.86,2021-12-17 16:49:56.828125
1383,-3.85,2021-12-17 16:49:56.843750
1384,-7.45,2021-12-17 16:49:56.859375
1385,-10.97,2021-12-17 16:49:56.875000
1386,-13.33,2021-12-17 16:49:56.890625
1387,-13.37,2021-12-17 16:49:56.906250
1388,-10.37,2021-12-17 16:49:56.921875
1389,-4.25,2021-12-17 16:49:56.937500
1390,4.34,2021-12-17 16:49:56.953125
1391,14.27,2021-12-17 16:49:56.968750
1392,24.36,2021-12-17 16:49:56.984375
1393,33.67,2021-12-17 16:49:57.000000
1394,41.71,2021-12-17 16:49:57.015625
1395,48.43,2021-12-17 16:49:57.031250
1396,53.97,2021-12-17 16:49:57.046875
1397,58.4,2021-12-17 16:49:57.062500
1398,61.6,2021-12-17 16:49:57.078125
1399,63.34,2021-12-17 16:49:57.093750
1400,63.32,2021-12-17 16:49:57.109375
1401,61.47,2021-12-17 16:49:57.125000
1402,58.09,2021-12-17 16:49:57.140625
1403,53.77,2021-12-17 16:49:57.156250
1404,49.34,2021-12-17 16:49:57.171875
1405,45.57,2021-12-17 16:49:57.187500
1406,42.98,2021-12-17 16:49:57.203125
1407,41.69,2021-12-17 16:49:57.218750
1408,41.49,2021-12-17 16:49:57.234375
1409,41.95,2021-12-17 16:49:57.250000
1410,42.51,2021-12-17 16:49:57.265625
1411,42.69,2021-12-17 16:49:57.281250
1412,42.04,2021-12-17 16:49:57.296875
1413,40.23,2021-12-17 16:49:57.312500
1414,37.02,2021-12-17 16:49:57.328125
1415,32.31,2021-12-17 16:49:57.343750
1416,26.25,2021-12-17 16:49:57.359375
1417,19.27,2021-12-17 16:49:57.375000
1418,11.91,2021-12-17 16:49:57.390625
1419,4.6,2021-12-17 16:49:57.406250
1420,-2.66,2021-12-17 16:49:57.421875
1421,-10.29,2021-12-17 16:49:57.437500
1422,-19.02,2021-12-17 16:49:57.453125
1423,-29.35,2021-12-17 16:49:57.468750
1424,-41.17,2021-12-17 16:49:57.484375
1425,-53.43,2021-12-17 16:49:57.500000
1426,-64.41,2021-12-17 16:49:57.515625
1427,-72.2,2021-12-17 16:49:57.531250
1428,-75.33,2021-12-17 16:49:57.546875
1429,-73.3,2021-12-17 16:49:57.562500
1430,-66.68,2021-12-17 16:49:57.578125
1431,-56.81,2021-12-17 16:49:57.593750
1432,-45.31,2021-12-17 16:49:57.609375
1433,-33.66,2021-12-17 16:49:57.625000
1434,-22.87,2021-12-17 16:49:57.640625
1435,-13.5,2021-12-17 16:49:57.656250
1436,-5.72,2021-12-17 16:49:57.671875
1437,0.48,2021-12-17 16:49:57.687500
1438,5.13,2021-12-17 16:49:57.703125
1439,8.17,2021-12-17 16:49:57.718750
1440,9.49,2021-12-17 16:49:57.734375
1441,9.01,2021-12-17 16:49:57.750000
1442,6.8,2021-12-17 16:49:57.765625
1443,3.19,2021-12-17 16:49:57.781250
1444,-1.29,2021-12-17 16:49:57.796875
1445,-6.06,2021-12-17 16:49:57.812500
1446,-10.7,2021-12-17 16:49:57.828125
1447,-15.16,2021-12-17 16:49:57.843750
1448,-19.75,2021-12-17 16:49:57.859375
1449,-24.81,2021-12-17 16:49:57.875000
1450,-30.35,2021-12-17 16:49:57.890625
1451,-35.73,2021-12-17 16:49:57.906250
1452,-39.72,2021-12-17 16:49:57.921875
1453,-40.88,2021-12-17 16:49:57.937500
1454,-38.19,2021-12-17 16:49:57.953125
1455,-31.58,2021-12-17 16:49:57.968750
1456,-21.89,2021-12-17 16:49:57.984375
1457,-10.57,2021-12-17 16:49:58.000000
1458,0.89,2021-12-17 16:49:58.015625
1459,11.46,2021-12-17 16:49:58.031250
1460,20.79,2021-12-17 16:49:58.046875
1461,29.12,2021-12-17 16:49:58.062500
1462,37.07,2021-12-17 16:49:58.078125
1463,45.35,2021-12-17 16:49:58.093750
1464,54.61,2021-12-17 16:49:58.109375
1465,65.21,2021-12-17 16:49:58.125000
1466,76.98,2021-12-17 16:49:58.140625
1467,89.12,2021-12-17 16:49:58.156250
1468,100.24,2021-12-17 16:49:58.171875
1469,108.73,2021-12-17 16:49:58.187500
1470,113.28,2021-12-17 16:49:58.203125
1471,113.4,2021-12-17 16:49:58.218750
1472,109.48,2021-12-17 16:49:58.234375
1473,102.63,2021-12-17 16:49:58.250000
1474,94.09,2021-12-17 16:49:58.265625
1475,84.87,2021-12-17 16:49:58.281250
1476,75.59,2021-12-17 16:49:58.296875
1477,66.68,2021-12-17 16:49:58.312500
1478,58.54,2021-12-17 16:49:58.328125
1479,51.45,2021-12-17 16:49:58.343750
1480,45.36,2021-12-17 16:49:58.359375
1481,39.72,2021-12-17 16:49:58.375000
1482,33.57,2021-12-17 16:49:58.390625
1483,26.03,2021-12-17 16:49:58.406250
1484,16.82,2021-12-17 16:49:58.421875
1485,6.54,2021-12-17 16:49:58.437500
1486,-3.56,2021-12-17 16:49:58.453125
1487,-12.1,2021-12-17 16:49:58.468750
1488,-18.2,2021-12-17 16:49:58.484375
1489,-21.79,2021-12-17 16:49:58.500000
1490,-23.46,2021-12-17 16:49:58.515625
1491,-24.09,2021-12-17 16:49:58.531250
1492,-24.37,2021-12-17 16:49:58.546875
1493,-24.6,2021-12-17 16:49:58.562500
1494,-24.75,2021-12-17 16:49:58.578125
1495,-24.68,2021-12-17 16:49:58.593750
1496,-24.33,2021-12-17 16:49:58.609375
1497,-23.8,2021-12-17 16:49:58.625000
1498,-23.38,2021-12-17 16:49:58.640625
1499,-23.43,2021-12-17 16:49:58.656250
1500,-24.37,2021-12-17 16:49:58.671875
1501,-26.49,2021-12-17 16:49:58.687500
1502,-29.93,2021-12-17 16:49:58.703125
1503,-34.53,2021-12-17 16:49:58.718750
1504,-39.9,2021-12-17 16:49:58.734375
1505,-45.33,2021-12-17 16:49:58.750000
1506,-49.93,2021-12-17 16:49:58.765625
1507,-52.79,2021-12-17 16:49:58.781250
1508,-53.17,2021-12-17 16:49:58.796875
1509,-50.83,2021-12-17 16:49:58.812500
1510,-46.14,2021-12-17 16:49:58.828125
1511,-40.07,2021-12-17 16:49:58.843750
1512,-33.98,2021-12-17 16:49:58.859375
1513,-29.19,2021-12-17 16:49:58.875000
1514,-26.58,2021-12-17 16:49:58.890625
1515,-26.38,2021-12-17 16:49:58.906250
1516,-28.13,2021-12-17 16:49:58.921875
1517,-30.94,2021-12-17 16:49:58.937500
1518,-33.9,2021-12-17 16:49:58.953125
1519,-36.37,2021-12-17 16:49:58.968750
1520,-38.04,2021-12-17 16:49:58.984375
1521,-38.94,2021-12-17 16:49:59.000000
1522,-39.12,2021-12-17 16:49:59.015625
1523,-38.53,2021-12-17 16:49:59.031250
1524,-36.86,2021-12-17 16:49:59.046875
1525,-33.76,2021-12-17 16:49:59.062500
1526,-29.03,2021-12-17 16:49:59.078125
1527,-22.77,2021-12-17 16:49:59.093750
1528,-15.48,2021-12-17 16:49:59.109375
1529,-7.73,2021-12-17 16:49:59.125000
1530,-0.12,2021-12-17 16:49:59.140625
1531,6.98,2021-12-17 16:49:59.156250
1532,13.36,2021-12-17 16:49:59.171875
1533,18.78,2021-12-17 16:49:59.187500
1534,22.95,2021-12-17 16:49:59.203125
1535,25.36,2021-12-17 16:49:59.218750
1536,25.45,2021-12-17 16:49:59.234375
1537,22.72,2021-12-17 16:49:59.250000
1538,16.99,2021-12-17 16:49:59.265625
1539,8.41,2021-12-17 16:49:59.281250
1540,-2.38,2021-12-17 16:49:59.296875
1541,-14.3,2021-12-17 16:49:59.312500
1542,-25.99,2021-12-17 16:49:59.328125
1543,-36.06,2021-12-17 16:49:59.343750
1544,-43.39,2021-12-17 16:49:59.359375
1545,-47.42,2021-12-17 16:49:59.375000
1546,-48.16,2021-12-17 16:49:59.390625
1547,-46.21,2021-12-17 16:49:59.406250
1548,-42.46,2021-12-17 16:49:59.421875
1549,-37.85,2021-12-17 16:49:59.437500
1550,-33.21,2021-12-17 16:49:59.453125
1551,-29.22,2021-12-17 16:49:59.468750
1552,-26.29,2021-12-17 16:49:59.484375
1553,-24.57,2021-12-17 16:49:59.500000
1554,-23.88,2021-12-17 16:49:59.515625
1555,-23.74,2021-12-17 16:49:59.531250
1556,-23.4,2021-12-17 16:49:59.546875
1557,-22.1,2021-12-17 16:49:59.562500
1558,-19.26,2021-12-17 16:49:59.578125
1559,-14.67,2021-12-17 16:49:59.593750
1560,-8.57,2021-12-17 16:49:59.609375
1561,-1.51,2021-12-17 16:49:59.625000
1562,5.83,2021-12-17 16:49:59.640625
1563,12.77,2021-12-17 16:49:59.656250
1564,18.8,2021-12-17 16:49:59.671875
1565,23.63,2021-12-17 16:49:59.687500
1566,27.14,2021-12-17 16:49:59.703125
1567,29.39,2021-12-17 16:49:59.718750
1568,30.54,2021-12-17 16:49:59.734375
1569,30.81,2021-12-17 16:49:59.750000
1570,30.51,2021-12-17 16:49:59.765625
1571,29.92,2021-12-17 16:49:59.781250
1572,29.27,2021-12-17 16:49:59.796875
1573,28.66,2021-12-17 16:49:59.812500
1574,28.04,2021-12-17 16:49:59.828125
1575,27.22,2021-12-17 16:49:59.843750
1576,25.97,2021-12-17 16:49:59.859375
1577,24.14,2021-12-17 16:49:59.875000
1578,21.78,2021-12-17 16:49:59.890625
1579,19.07,2021-12-17 16:49:59.906250
1580,16.23,2021-12-17 16:49:59.921875
1581,13.19,2021-12-17 16:49:59.937500
1582,9.43,2021-12-17 16:49:59.953125
1583,3.88,2021-12-17 16:49:59.968750
1584,-4.81,2021-12-17 16:49:59.984375
1585,-17.73,2021-12-17 16:50:00.000000
1586,-35.05,2021-12-17 16:50:00.015625
1587,-55.63,2021-12-17 16:50:00.031250
1588,-77.08,2021-12-17 16:50:00.046875
1589,-96.42,2021-12-17 16:50:00.062500
1590,-111.1,2021-12-17 16:50:00.078125
1591,-119.81,2021-12-17 16:50:00.093750
1592,-122.91,2021-12-17 16:50:00.109375
1593,-122.07,2021-12-17 16:50:00.125000
1594,-119.46,2021-12-17 16:50:00.140625
1595,-117.04,2021-12-17 16:50:00.156250
1596,-116.0,2021-12-17 16:50:00.171875
1597,-116.75,2021-12-17 16:50:00.187500
1598,-119.06,2021-12-17 16:50:00.203125
1599,-122.3,2021-12-17 16:50:00.218750
1600,-125.46,2021-12-17 16:50:00.234375
1601,-127.24,2021-12-17 16:50:00.250000
1602,-126.17,2021-12-17 16:50:00.265625
1603,-120.82,2021-12-17 16:50:00.281250
1604,-110.23,2021-12-17 16:50:00.296875
1605,-94.14,2021-12-17 16:50:00.312500
1606,-73.12,2021-12-17 16:50:00.328125
1607,-48.5,2021-12-17 16:50:00.343750
1608,-22.15,2021-12-17 16:50:00.359375
1609,3.82,2021-12-17 16:50:00.375000
1610,27.51,2021-12-17 16:50:00.390625
1611,47.52,2021-12-17 16:50:00.406250
1612,63.27,2021-12-17 16:50:00.421875
1613,74.93,2021-12-17 16:50:00.437500
1614,83.15,2021-12-17 16:50:00.453125
1615,88.75,2021-12-17 16:50:00.468750
1616,92.51,2021-12-17 16:50:00.484375
1617,95.04,2021-12-17 16:50:00.500000
1618,97.0,2021-12-17 16:50:00.515625
1619,98.98,2021-12-17 16:50:00.531250
1620,101.48,2021-12-17 16:50:00.546875
1621,104.46,2021-12-17 16:50:00.562500
1622,107.2,2021-12-17 16:50:00.578125
1623,108.56,2021-12-17 16:50:00.593750
1624,107.53,2021-12-17 16:50:00.609375
1625,103.87,2021-12-17 16:50:00.625000
1626,98.41,2021-12-17 16:50:00.640625
1627,92.75,2021-12-17 16:50:00.656250
1628,88.56,2021-12-17 16:50:00.671875
1629,86.77,2021-12-17 16:50:00.687500
1630,87.18,2021-12-17 16:50:00.703125
1631,88.57,2021-12-17 16:50:00.718750
1632,89.28,2021-12-17 16:50:00.734375
1633,87.76,2021-12-17 16:50:00.750000
1634,83.15,2021-12-17 16:50:00.765625
1635,75.37,2021-12-17 16:50:00.781250
1636,65.01,2021-12-17 16:50:00.796875
1637,53.09,2021-12-17 16:50:00.812500
1638,40.78,2021-12-17 16:50:00.828125
1639,29.18,2021-12-17 16:50:00.843750
1640,19.13,2021-12-17 16:50:00.859375
1641,11.05,2021-12-17 16:50:00.875000
1642,4.77,2021-12-17 16:50:00.890625
1643,-0.37,2021-12-17 16:50:00.906250
1644,-5.37,2021-12-17 16:50:00.921875
1645,-11.3,2021-12-17 16:50:00.937500
1646,-19.01,2021-12-17 16:50:00.953125
1647,-28.97,2021-12-17 16:50:00.968750
1648,-41.23,2021-12-17 16:50:00.984375
1649,-55.4,2021-12-17 16:50:01.000000
1650,-70.69,2021-12-17 16:50:01.015625
1651,-85.99,2021-12-17 16:50:01.031250
1652,-99.89,2021-12-17 16:50:01.046875
1653,-110.99,2021-12-17 16:50:01.062500
1654,-118.13,2021-12-17 16:50:01.078125
1655,-120.54,2021-12-17 16:50:01.093750
1656,-117.94,2021-12-17 16:50:01.109375
1657,-110.4,2021-12-17 16:50:01.125000
1658,-98.28,2021-12-17 16:50:01.140625
1659,-82.3,2021-12-17 16:50:01.156250
1660,-63.65,2021-12-17 16:50:01.171875
1661,-43.96,2021-12-17 16:50:01.187500
1662,-25.18,2021-12-17 16:50:01.203125
1663,-9.14,2021-12-17 16:50:01.218750
1664,2.95,2021-12-17 16:50:01.234375
1665,10.72,2021-12-17 16:50:01.250000
1666,14.54,2021-12-17 16:50:01.265625
1667,15.21,2021-12-17 16:50:01.281250
1668,13.48,2021-12-17 16:50:01.296875
1669,9.89,2021-12-17 16:50:01.312500
1670,4.84,2021-12-17 16:50:01.328125
1671,-1.18,2021-12-17 16:50:01.343750
1672,-7.49,2021-12-17 16:50:01.359375
1673,-13.24,2021-12-17 16:50:01.375000
1674,-17.83,2021-12-17 16:50:01.390625
1675,-20.98,2021-12-17 16:50:01.406250
1676,-22.87,2021-12-17 16:50:01.421875
1677,-23.83,2021-12-17 16:50:01.437500
1678,-24.02,2021-12-17 16:50:01.453125
1679,-23.19,2021-12-17 16:50:01.468750
1680,-20.53,2021-12-17 16:50:01.484375
1681,-14.95,2021-12-17 16:50:01.500000
1682,-5.51,2021-12-17 16:50:01.515625
1683,8.09,2021-12-17 16:50:01.531250
1684,25.08,2021-12-17 16:50:01.546875
1685,43.67,2021-12-17 16:50:01.562500
1686,61.29,2021-12-17 16:50:01.578125
1687,75.33,2021-12-17 16:50:01.593750
1688,83.81,2021-12-17 16:50:01.609375
1689,85.89,2021-12-17 16:50:01.625000
1690,82.0,2021-12-17 16:50:01.640625
1691,73.58,2021-12-17 16:50:01.656250
1692,62.59,2021-12-17 16:50:01.671875
1693,50.96,2021-12-17 16:50:01.687500
1694,40.37,2021-12-17 16:50:01.703125
1695,32.01,2021-12-17 16:50:01.718750
1696,26.62,2021-12-17 16:50:01.734375
1697,24.33,2021-12-17 16:50:01.750000
1698,24.58,2021-12-17 16:50:01.765625
1699,25.95,2021-12-17 16:50:01.781250
1700,26.44,2021-12-17 16:50:01.796875
1701,24.04,2021-12-17 16:50:01.812500
1702,17.45,2021-12-17 16:50:01.828125
1703,6.75,2021-12-17 16:50:01.843750
1704,-6.52,2021-12-17 16:50:01.859375
1705,-19.94,2021-12-17 16:50:01.875000
1706,-31.16,2021-12-17 16:50:01.890625
1707,-38.82,2021-12-17 16:50:01.906250
1708,-42.92,2021-12-17 16:50:01.921875
1709,-44.44,2021-12-17 16:50:01.937500
1710,-44.5,2021-12-17 16:50:01.953125
1711,-43.66,2021-12-17 16:50:01.968750
1712,-41.54,2021-12-17 16:50:01.984375
1713,-37.33,2021-12-17 16:50:02.000000
1714,-30.49,2021-12-17 16:50:02.015625
1715,-21.39,2021-12-17 16:50:02.031250
1716,-11.45,2021-12-17 16:50:02.046875
1717,-2.65,2021-12-17 16:50:02.062500
1718,3.3,2021-12-17 16:50:02.078125
1719,5.65,2021-12-17 16:50:02.093750
1720,4.88,2021-12-17 16:50:02.109375
1721,2.41,2021-12-17 16:50:02.125000
1722,-0.04,2021-12-17 16:50:02.140625
1723,-1.15,2021-12-17 16:50:02.156250
1724,-0.49,2021-12-17 16:50:02.171875
1725,1.48,2021-12-17 16:50:02.187500
1726,3.78,2021-12-17 16:50:02.203125
1727,5.53,2021-12-17 16:50:02.218750
1728,6.52,2021-12-17 16:50:02.234375
1729,7.22,2021-12-17 16:50:02.250000
1730,8.51,2021-12-17 16:50:02.265625
1731,11.08,2021-12-17 16:50:02.281250
1732,14.87,2021-12-17 16:50:02.296875
1733,19.12,2021-12-17 16:50:02.312500
1734,22.7,2021-12-17 16:50:02.328125
1735,24.68,2021-12-17 16:50:02.343750
1736,24.79,2021-12-17 16:50:02.359375
1737,23.43,2021-12-17 16:50:02.375000
1738,21.36,2021-12-17 16:50:02.390625
1739,19.2,2021-12-17 16:50:02.406250
1740,17.15,2021-12-17 16:50:02.421875
1741,15.04,2021-12-17 16:50:02.437500
1742,12.59,2021-12-17 16:50:02.453125
1743,9.61,2021-12-17 16:50:02.468750
1744,6.21,2021-12-17 16:50:02.484375
1745,2.63,2021-12-17 16:50:02.500000
1746,-0.84,2021-12-17 16:50:02.515625
1747,-4.08,2021-12-17 16:50:02.531250
1748,-7.21,2021-12-17 16:50:02.546875
1749,-10.48,2021-12-17 16:50:02.562500
1750,-14.15,2021-12-17 16:50:02.578125
1751,-18.29,2021-12-17 16:50:02.593750
1752,-22.56,2021-12-17 16:50:02.609375
1753,-26.22,2021-12-17 16:50:02.625000
1754,-28.32,2021-12-17 16:50:02.640625
1755,-27.99,2021-12-17 16:50:02.656250
1756,-24.85,2021-12-17 16:50:02.671875
1757,-19.16,2021-12-17 16:50:02.687500
1758,-11.75,2021-12-17 16:50:02.703125
1759,-3.76,2021-12-17 16:50:02.718750
1760,3.8,2021-12-17 16:50:02.734375
1761,10.33,2021-12-17 16:50:02.750000
1762,15.7,2021-12-17 16:50:02.765625
1763,20.08,2021-12-17 16:50:02.781250
1764,23.7,2021-12-17 16:50:02.796875
1765,26.6,2021-12-17 16:50:02.812500
1766,28.58,2021-12-17 16:50:02.828125
1767,29.36,2021-12-17 16:50:02.843750
1768,28.78,2021-12-17 16:50:02.859375
1769,26.96,2021-12-17 16:50:02.875000
1770,24.34,2021-12-17 16:50:02.890625
1771,21.54,2021-12-17 16:50:02.906250
1772,19.12,2021-12-17 16:50:02.921875
1773,17.39,2021-12-17 16:50:02.937500
1774,16.35,2021-12-17 16:50:02.953125
1775,15.77,2021-12-17 16:50:02.968750
1776,15.29,2021-12-17 16:50:02.984375
1777,14.66,2021-12-17 16:50:03.000000
1778,13.75,2021-12-17 16:50:03.015625
1779,12.63,2021-12-17 16:50:03.031250
1780,11.42,2021-12-17 16:50:03.046875
1781,10.29,2021-12-17 16:50:03.062500
1782,9.28,2021-12-17 16:50:03.078125
1783,8.29,2021-12-17 16:50:03.093750
1784,7.16,2021-12-17 16:50:03.109375
1785,5.71,2021-12-17 16:50:03.125000
1786,3.86,2021-12-17 16:50:03.140625
1787,1.68,2021-12-17 16:50:03.156250
1788,-0.61,2021-12-17 16:50:03.171875
1789,-2.81,2021-12-17 16:50:03.187500
1790,-4.77,2021-12-17 16:50:03.203125
1791,-6.54,2021-12-17 16:50:03.218750
1792,-8.42,2021-12-17 16:50:03.234375
1793,-10.81,2021-12-17 16:50:03.250000
1794,-14.06,2021-12-17 16:50:03.265625
1795,-18.24,2021-12-17 16:50:03.281250
1796,-23.03,2021-12-17 16:50:03.296875
1797,-27.72,2021-12-17 16:50:03.312500
1798,-31.45,2021-12-17 16:50:03.328125
1799,-33.4,2021-12-17 16:50:03.343750
1800,-32.96,2021-12-17 16:50:03.359375
1801,-29.93,2021-12-17 16:50:03.375000
1802,-24.52,2021-12-17 16:50:03.390625
1803,-17.27,2021-12-17 16:50:03.406250
1804,-8.92,2021-12-17 16:50:03.421875
1805,-0.31,2021-12-17 16:50:03.437500
1806,7.77,2021-12-17 16:50:03.453125
1807,14.64,2021-12-17 16:50:03.468750
1808,19.81,2021-12-17 16:50:03.484375
1809,23.07,2021-12-17 16:50:03.500000
1810,24.46,2021-12-17 16:50:03.515625
1811,24.32,2021-12-17 16:50:03.531250
1812,23.11,2021-12-17 16:50:03.546875
1813,21.38,2021-12-17 16:50:03.562500
1814,19.62,2021-12-17 16:50:03.578125
1815,18.15,2021-12-17 16:50:03.593750
1816,17.09,2021-12-17 16:50:03.609375
1817,16.38,2021-12-17 16:50:03.625000
1818,15.94,2021-12-17 16:50:03.640625
1819,15.6,2021-12-17 16:50:03.656250
1820,15.31,2021-12-17 16:50:03.671875
1821,14.99,2021-12-17 16:50:03.687500
1822,14.58,2021-12-17 16:50:03.703125
1823,14.04,2021-12-17 16:50:03.718750
1824,13.4,2021-12-17 16:50:03.734375
1825,12.74,2021-12-17 16:50:03.750000
1826,12.18,2021-12-17 16:50:03.765625
1827,11.8,2021-12-17 16:50:03.781250
1828,11.47,2021-12-17 16:50:03.796875
1829,10.96,2021-12-17 16:50:03.812500
1830,9.98,2021-12-17 16:50:03.828125
1831,8.38,2021-12-17 16:50:03.843750
1832,6.22,2021-12-17 16:50:03.859375
1833,3.7,2021-12-17 16:50:03.875000
1834,1.07,2021-12-17 16:50:03.890625
1835,-1.57,2021-12-17 16:50:03.906250
1836,-4.29,2021-12-17 16:50:03.921875
1837,-7.28,2021-12-17 16:50:03.937500
1838,-10.73,2021-12-17 16:50:03.953125
1839,-14.73,2021-12-17 16:50:03.968750
1840,-19.23,2021-12-17 16:50:03.984375
1841,-23.97,2021-12-17 16:50:04.000000
1842,-28.48,2021-12-17 16:50:04.015625
1843,-32.11,2021-12-17 16:50:04.031250
1844,-34.13,2021-12-17 16:50:04.046875
1845,-33.87,2021-12-17 16:50:04.062500
1846,-31.01,2021-12-17 16:50:04.078125
1847,-25.69,2021-12-17 16:50:04.093750
1848,-18.54,2021-12-17 16:50:04.109375
1849,-10.47,2021-12-17 16:50:04.125000
1850,-2.47,2021-12-17 16:50:04.140625
1851,4.67,2021-12-17 16:50:04.156250
1852,10.5,2021-12-17 16:50:04.171875
1853,14.86,2021-12-17 16:50:04.187500
1854,17.75,2021-12-17 16:50:04.203125
1855,19.27,2021-12-17 16:50:04.218750
1856,19.54,2021-12-17 16:50:04.234375
1857,18.74,2021-12-17 16:50:04.250000
1858,17.07,2021-12-17 16:50:04.265625
1859,14.9,2021-12-17 16:50:04.281250
1860,12.61,2021-12-17 16:50:04.296875
1861,10.66,2021-12-17 16:50:04.312500
1862,9.4,2021-12-17 16:50:04.328125
1863,8.99,2021-12-17 16:50:04.343750
1864,9.29,2021-12-17 16:50:04.359375
1865,9.99,2021-12-17 16:50:04.375000
1866,10.67,2021-12-17 16:50:04.390625
1867,11.02,2021-12-17 16:50:04.406250
1868,10.95,2021-12-17 16:50:04.421875
1869,10.52,2021-12-17 16:50:04.437500
1870,9.85,2021-12-17 16:50:04.453125
1871,9.02,2021-12-17 16:50:04.468750
1872,7.93,2021-12-17 16:50:04.484375
1873,6.42,2021-12-17 16:50:04.500000
1874,4.43,2021-12-17 16:50:04.515625
1875,2.06,2021-12-17 16:50:04.531250
1876,-0.39,2021-12-17 16:50:04.546875
1877,-2.58,2021-12-17 16:50:04.562500
1878,-4.36,2021-12-17 16:50:04.578125
1879,-5.88,2021-12-17 16:50:04.593750
1880,-7.53,2021-12-17 16:50:04.609375
1881,-9.84,2021-12-17 16:50:04.625000
1882,-13.16,2021-12-17 16:50:04.640625
1883,-17.5,2021-12-17 16:50:04.656250
1884,-22.5,2021-12-17 16:50:04.671875
1885,-27.38,2021-12-17 16:50:04.687500
1886,-31.16,2021-12-17 16:50:04.703125
1887,-32.88,2021-12-17 16:50:04.718750
1888,-31.93,2021-12-17 16:50:04.734375
1889,-28.16,2021-12-17 16:50:04.750000
1890,-22.05,2021-12-17 16:50:04.765625
1891,-14.41,2021-12-17 16:50:04.781250
1892,-6.27,2021-12-17 16:50:04.796875
1893,1.43,2021-12-17 16:50:04.812500
1894,8.03,2021-12-17 16:50:04.828125
1895,13.11,2021-12-17 16:50:04.843750
1896,16.54,2021-12-17 16:50:04.859375
1897,18.36,2021-12-17 16:50:04.875000
1898,18.75,2021-12-17 16:50:04.890625
1899,18.01,2021-12-17 16:50:04.906250
1900,16.51,2021-12-17 16:50:04.921875
1901,14.67,2021-12-17 16:50:04.937500
1902,12.78,2021-12-17 16:50:04.953125
1903,11.04,2021-12-17 16:50:04.968750
1904,9.51,2021-12-17 16:50:04.984375
1905,8.23,2021-12-17 16:50:05.000000
1906,7.21,2021-12-17 16:50:05.015625
1907,6.51,2021-12-17 16:50:05.031250
1908,6.14,2021-12-17 16:50:05.046875
1909,6.09,2021-12-17 16:50:05.062500
1910,6.27,2021-12-17 16:50:05.078125
1911,6.44,2021-12-17 16:50:05.093750
1912,6.3,2021-12-17 16:50:05.109375
1913,5.57,2021-12-17 16:50:05.125000
1914,4.04,2021-12-17 16:50:05.140625
1915,1.78,2021-12-17 16:50:05.156250
1916,-0.92,2021-12-17 16:50:05.171875
1917,-3.65,2021-12-17 16:50:05.187500
1918,-6.05,2021-12-17 16:50:05.203125
1919,-7.95,2021-12-17 16:50:05.218750
1920,-9.53,2021-12-17 16:50:05.234375
1921,-11.15,2021-12-17 16:50:05.250000
1922,-13.18,2021-12-17 16:50:05.265625
1923,-15.86,2021-12-17 16:50:05.281250
1924,-19.17,2021-12-17 16:50:05.296875
1925,-22.86,2021-12-17 16:50:05.312500
1926,-26.54,2021-12-17 16:50:05.328125
1927,-29.73,2021-12-17 16:50:05.343750
1928,-31.84,2021-12-17 16:50:05.359375
1929,-32.25,2021-12-17 16:50:05.375000
1930,-30.42,2021-12-17 16:50:05.390625
1931,-26.07,2021-12-17 16:50:05.406250
1932,-19.43,2021-12-17 16:50:05.421875
1933,-11.24,2021-12-17 16:50:05.437500
1934,-2.58,2021-12-17 16:50:05.453125
1935,5.37,2021-12-17 16:50:05.468750
1936,11.67,2021-12-17 16:50:05.484375
1937,15.83,2021-12-17 16:50:05.500000
1938,17.8,2021-12-17 16:50:05.515625
1939,17.91,2021-12-17 16:50:05.531250
1940,16.68,2021-12-17 16:50:05.546875
1941,14.65,2021-12-17 16:50:05.562500
1942,12.31,2021-12-17 16:50:05.578125
1943,10.03,2021-12-17 16:50:05.593750
1944,8.02,2021-12-17 16:50:05.609375
1945,6.44,2021-12-17 16:50:05.625000
1946,5.36,2021-12-17 16:50:05.640625
1947,4.82,2021-12-17 16:50:05.656250
1948,4.8,2021-12-17 16:50:05.671875
1949,5.16,2021-12-17 16:50:05.687500
1950,5.66,2021-12-17 16:50:05.703125
1951,5.98,2021-12-17 16:50:05.718750
1952,5.81,2021-12-17 16:50:05.734375
1953,4.98,2021-12-17 16:50:05.750000
1954,3.58,2021-12-17 16:50:05.765625
1955,1.84,2021-12-17 16:50:05.781250
1956,0.09,2021-12-17 16:50:05.796875
1957,-1.43,2021-12-17 16:50:05.812500
1958,-2.7,2021-12-17 16:50:05.828125
1959,-3.9,2021-12-17 16:50:05.843750
1960,-5.35,2021-12-17 16:50:05.859375
1961,-7.36,2021-12-17 16:50:05.875000
1962,-10.13,2021-12-17 16:50:05.890625
1963,-13.69,2021-12-17 16:50:05.906250
1964,-17.91,2021-12-17 16:50:05.921875
1965,-22.55,2021-12-17 16:50:05.937500
1966,-27.2,2021-12-17 16:50:05.953125
1967,-31.22,2021-12-17 16:50:05.968750
1968,-33.81,2021-12-17 16:50:05.984375
1969,-34.1,2021-12-17 16:50:06.000000
1970,-31.4,2021-12-17 16:50:06.015625
1971,-25.55,2021-12-17 16:50:06.031250
1972,-17.05,2021-12-17 16:50:06.046875
1973,-7.09,2021-12-17 16:50:06.062500
1974,2.81,2021-12-17 16:50:06.078125
1975,11.32,2021-12-17 16:50:06.093750
1976,17.66,2021-12-17 16:50:06.109375
1977,21.74,2021-12-17 16:50:06.125000
1978,24.0,2021-12-17 16:50:06.140625
1979,25.0,2021-12-17 16:50:06.156250
1980,25.16,2021-12-17 16:50:06.171875
1981,24.62,2021-12-17 16:50:06.187500
1982,23.5,2021-12-17 16:50:06.203125
1983,21.9,2021-12-17 16:50:06.218750
1984,20.13,2021-12-17 16:50:06.234375
1985,18.49,2021-12-17 16:50:06.250000
1986,17.16,2021-12-17 16:50:06.265625
1987,16.09,2021-12-17 16:50:06.281250
1988,15.14,2021-12-17 16:50:06.296875
1989,14.13,2021-12-17 16:50:06.312500
1990,13.04,2021-12-17 16:50:06.328125
1991,12.02,2021-12-17 16:50:06.343750
1992,11.22,2021-12-17 16:50:06.359375
1993,10.66,2021-12-17 16:50:06.375000
1994,10.17,2021-12-17 16:50:06.390625
1995,9.49,2021-12-17 16:50:06.406250
1996,8.38,2021-12-17 16:50:06.421875
1997,6.82,2021-12-17 16:50:06.437500
1998,4.91,2021-12-17 16:50:06.453125
1999,2.78,2021-12-17 16:50:06.468750
2000,0.49,2021-12-17 16:50:06.484375
2001,-2.04,2021-12-17 16:50:06.500000
2002,-4.91,2021-12-17 16:50:06.515625
2003,-8.22,2021-12-17 16:50:06.531250
2004,-11.99,2021-12-17 16:50:06.546875
2005,-16.21,2021-12-17 16:50:06.562500
2006,-20.81,2021-12-17 16:50:06.578125
2007,-25.57,2021-12-17 16:50:06.593750
2008,-29.99,2021-12-17 16:50:06.609375
2009,-33.32,2021-12-17 16:50:06.625000
2010,-34.68,2021-12-17 16:50:06.640625
2011,-33.32,2021-12-17 16:50:06.656250
2012,-28.92,2021-12-17 16:50:06.671875
2013,-21.79,2021-12-17 16:50:06.687500
2014,-12.8,2021-12-17 16:50:06.703125
2015,-3.23,2021-12-17 16:50:06.718750
2016,5.63,2021-12-17 16:50:06.734375
2017,12.74,2021-12-17 16:50:06.750000
2018,17.58,2021-12-17 16:50:06.765625
2019,20.2,2021-12-17 16:50:06.781250
2020,21.05,2021-12-17 16:50:06.796875
2021,20.78,2021-12-17 16:50:06.812500
2022,19.98,2021-12-17 16:50:06.828125
2023,19.0,2021-12-17 16:50:06.843750
2024,17.92,2021-12-17 16:50:06.859375
2025,16.67,2021-12-17 16:50:06.875000
2026,15.17,2021-12-17 16:50:06.890625
2027,13.5,2021-12-17 16:50:06.906250
2028,11.94,2021-12-17 16:50:06.921875
2029,10.75,2021-12-17 16:50:06.937500
2030,10.13,2021-12-17 16:50:06.953125
2031,10.01,2021-12-17 16:50:06.968750
2032,10.16,2021-12-17 16:50:06.984375
2033,10.28,2021-12-17 16:50:07.000000
2034,10.16,2021-12-17 16:50:07.015625
2035,9.71,2021-12-17 16:50:07.031250
2036,8.88,2021-12-17 16:50:07.046875
2037,7.66,2021-12-17 16:50:07.062500
2038,6.0,2021-12-17 16:50:07.078125
2039,3.82,2021-12-17 16:50:07.093750
2040,1.07,2021-12-17 16:50:07.109375
2041,-2.14,2021-12-17 16:50:07.125000
2042,-5.65,2021-12-17 16:50:07.140625
2043,-9.24,2021-12-17 16:50:07.156250
2044,-12.79,2021-12-17 16:50:07.171875
2045,-16.36,2021-12-17 16:50:07.187500
2046,-20.08,2021-12-17 16:50:07.203125
2047,-24.07,2021-12-17 16:50:07.218750
2048,-28.2,2021-12-17 16:50:07.234375
2049,-31.98,2021-12-17 16:50:07.250000
2050,-34.63,2021-12-17 16:50:07.265625
2051,-35.22,2021-12-17 16:50:07.281250
2052,-33.03,2021-12-17 16:50:07.296875
2053,-27.84,2021-12-17 16:50:07.312500
2054,-20.06,2021-12-17 16:50:07.328125
2055,-10.62,2021-12-17 16:50:07.343750
2056,-0.71,2021-12-17 16:50:07.359375
2057,8.6,2021-12-17 16:50:07.375000
2058,16.56,2021-12-17 16:50:07.390625
2059,22.76,2021-12-17 16:50:07.406250
2060,27.08,2021-12-17 16:50:07.421875
2061,29.48,2021-12-17 16:50:07.437500
2062,30.08,2021-12-17 16:50:07.453125
2063,29.08,2021-12-17 16:50:07.468750
2064,26.95,2021-12-17 16:50:07.484375
2065,24.34,2021-12-17 16:50:07.500000
2066,21.9,2021-12-17 16:50:07.515625
2067,20.12,2021-12-17 16:50:07.531250
2068,19.08,2021-12-17 16:50:07.546875
2069,18.52,2021-12-17 16:50:07.562500
2070,18.03,2021-12-17 16:50:07.578125
2071,17.26,2021-12-17 16:50:07.593750
2072,16.11,2021-12-17 16:50:07.609375
2073,14.77,2021-12-17 16:50:07.625000
2074,13.58,2021-12-17 16:50:07.640625
2075,12.81,2021-12-17 16:50:07.656250
2076,12.55,2021-12-17 16:50:07.671875
2077,12.58,2021-12-17 16:50:07.687500
2078,12.52,2021-12-17 16:50:07.703125
2079,12.0,2021-12-17 16:50:07.718750
2080,10.85,2021-12-17 16:50:07.734375
2081,9.17,2021-12-17 16:50:07.750000
2082,7.27,2021-12-17 16:50:07.765625
2083,5.47,2021-12-17 16:50:07.781250
2084,3.93,2021-12-17 16:50:07.796875
2085,2.57,2021-12-17 16:50:07.812500
2086,1.06,2021-12-17 16:50:07.828125
2087,-0.96,2021-12-17 16:50:07.843750
2088,-3.8,2021-12-17 16:50:07.859375
2089,-7.51,2021-12-17 16:50:07.875000
2090,-11.97,2021-12-17 16:50:07.890625
2091,-16.77,2021-12-17 16:50:07.906250
2092,-21.31,2021-12-17 16:50:07.921875
2093,-24.81,2021-12-17 16:50:07.937500
2094,-26.45,2021-12-17 16:50:07.953125
2095,-25.56,2021-12-17 16:50:07.968750
2096,-21.85,2021-12-17 16:50:07.984375
2097,-15.56,2021-12-17 16:50:08.000000
2098,-7.36,2021-12-17 16:50:08.015625
2099,1.8,2021-12-17 16:50:08.031250
2100,11.01,2021-12-17 16:50:08.046875
2101,19.53,2021-12-17 16:50:08.062500
2102,26.93,2021-12-17 16:50:08.078125
2103,33.04,2021-12-17 16:50:08.093750
2104,37.8,2021-12-17 16:50:08.109375
2105,41.23,2021-12-17 16:50:08.125000
2106,43.36,2021-12-17 16:50:08.140625
2107,44.31,2021-12-17 16:50:08.156250
2108,44.19,2021-12-17 16:50:08.171875
2109,43.2,2021-12-17 16:50:08.187500
2110,41.54,2021-12-17 16:50:08.203125
2111,39.46,2021-12-17 16:50:08.218750
2112,37.19,2021-12-17 16:50:08.234375
2113,34.92,2021-12-17 16:50:08.250000
2114,32.79,2021-12-17 16:50:08.265625
2115,30.79,2021-12-17 16:50:08.281250
2116,28.77,2021-12-17 16:50:08.296875
2117,26.5,2021-12-17 16:50:08.312500
2118,23.73,2021-12-17 16:50:08.328125
2119,20.26,2021-12-17 16:50:08.343750
2120,15.94,2021-12-17 16:50:08.359375
2121,10.72,2021-12-17 16:50:08.375000
2122,4.53,2021-12-17 16:50:08.390625
2123,-2.64,2021-12-17 16:50:08.406250
2124,-10.79,2021-12-17 16:50:08.421875
2125,-19.8,2021-12-17 16:50:08.437500
2126,-29.3,2021-12-17 16:50:08.453125
2127,-38.7,2021-12-17 16:50:08.468750
2128,-47.25,2021-12-17 16:50:08.484375
2129,-54.28,2021-12-17 16:50:08.500000
2130,-59.41,2021-12-17 16:50:08.515625
2131,-62.73,2021-12-17 16:50:08.531250
2132,-64.83,2021-12-17 16:50:08.546875
2133,-66.59,2021-12-17 16:50:08.562500
2134,-68.83,2021-12-17 16:50:08.578125
2135,-72.07,2021-12-17 16:50:08.593750
2136,-76.28,2021-12-17 16:50:08.609375
2137,-80.86,2021-12-17 16:50:08.625000
2138,-84.91,2021-12-17 16:50:08.640625
2139,-87.42,2021-12-17 16:50:08.656250
2140,-87.56,2021-12-17 16:50:08.671875
2141,-84.91,2021-12-17 16:50:08.687500
2142,-79.49,2021-12-17 16:50:08.703125
2143,-71.76,2021-12-17 16:50:08.718750
2144,-62.48,2021-12-17 16:50:08.734375
2145,-52.52,2021-12-17 16:50:08.750000
2146,-42.64,2021-12-17 16:50:08.765625
2147,-33.39,2021-12-17 16:50:08.781250
2148,-25.16,2021-12-17 16:50:08.796875
2149,-18.15,2021-12-17 16:50:08.812500
2150,-12.46,2021-12-17 16:50:08.828125
2151,-8.18,2021-12-17 16:50:08.843750
2152,-5.31,2021-12-17 16:50:08.859375
2153,-3.72,2021-12-17 16:50:08.875000
2154,-3.13,2021-12-17 16:50:08.890625
2155,-3.16,2021-12-17 16:50:08.906250
2156,-3.36,2021-12-17 16:50:08.921875
2157,-3.37,2021-12-17 16:50:08.937500
2158,-2.9,2021-12-17 16:50:08.953125
2159,-1.78,2021-12-17 16:50:08.968750
2160,0.09,2021-12-17 16:50:08.984375
2161,2.69,2021-12-17 16:50:09.000000
2162,5.86,2021-12-17 16:50:09.015625
2163,9.36,2021-12-17 16:50:09.031250
2164,12.86,2021-12-17 16:50:09.046875
2165,16.11,2021-12-17 16:50:09.062500
2166,18.99,2021-12-17 16:50:09.078125
2167,21.53,2021-12-17 16:50:09.093750
2168,23.82,2021-12-17 16:50:09.109375
2169,25.93,2021-12-17 16:50:09.125000
2170,27.82,2021-12-17 16:50:09.140625
2171,29.32,2021-12-17 16:50:09.156250
2172,30.26,2021-12-17 16:50:09.171875
2173,30.53,2021-12-17 16:50:09.187500
2174,30.17,2021-12-17 16:50:09.203125
2175,29.26,2021-12-17 16:50:09.218750
2176,27.96,2021-12-17 16:50:09.234375
2177,26.37,2021-12-17 16:50:09.250000
2178,24.56,2021-12-17 16:50:09.265625
2179,22.65,2021-12-17 16:50:09.281250
2180,20.68,2021-12-17 16:50:09.296875
2181,18.68,2021-12-17 16:50:09.312500
2182,16.55,2021-12-17 16:50:09.328125
2183,14.07,2021-12-17 16:50:09.343750
2184,10.98,2021-12-17 16:50:09.359375
2185,7.18,2021-12-17 16:50:09.375000
2186,2.9,2021-12-17 16:50:09.390625
2187,-1.24,2021-12-17 16:50:09.406250
2188,-4.37,2021-12-17 16:50:09.421875
2189,-5.64,2021-12-17 16:50:09.437500
2190,-4.55,2021-12-17 16:50:09.453125
2191,-1.12,2021-12-17 16:50:09.468750
2192,4.08,2021-12-17 16:50:09.484375
2193,10.17,2021-12-17 16:50:09.500000
2194,16.21,2021-12-17 16:50:09.515625
2195,21.42,2021-12-17 16:50:09.531250
2196,25.32,2021-12-17 16:50:09.546875
2197,27.75,2021-12-17 16:50:09.562500
2198,28.81,2021-12-17 16:50:09.578125
2199,28.74,2021-12-17 16:50:09.593750
2200,27.85,2021-12-17 16:50:09.609375
2201,26.45,2021-12-17 16:50:09.625000
2202,24.85,2021-12-17 16:50:09.640625
2203,23.31,2021-12-17 16:50:09.656250
2204,22.0,2021-12-17 16:50:09.671875
2205,21.03,2021-12-17 16:50:09.687500
2206,20.39,2021-12-17 16:50:09.703125
2207,20.01,2021-12-17 16:50:09.718750
2208,19.72,2021-12-17 16:50:09.734375
2209,19.42,2021-12-17 16:50:09.750000
2210,18.98,2021-12-17 16:50:09.765625
2211,18.32,2021-12-17 16:50:09.781250
2212,17.46,2021-12-17 16:50:09.796875
2213,16.44,2021-12-17 16:50:09.812500
2214,15.34,2021-12-17 16:50:09.828125
2215,14.23,2021-12-17 16:50:09.843750
2216,13.2,2021-12-17 16:50:09.859375
2217,12.33,2021-12-17 16:50:09.875000
2218,11.68,2021-12-17 16:50:09.890625
2219,11.25,2021-12-17 16:50:09.906250
2220,10.98,2021-12-17 16:50:09.921875
2221,10.64,2021-12-17 16:50:09.937500
2222,9.94,2021-12-17 16:50:09.953125
2223,8.63,2021-12-17 16:50:09.968750
2224,6.58,2021-12-17 16:50:09.984375
2225,3.91,2021-12-17 16:50:10.000000
2226,0.94,2021-12-17 16:50:10.015625
2227,-1.91,2021-12-17 16:50:10.031250
2228,-4.31,2021-12-17 16:50:10.046875
2229,-6.21,2021-12-17 16:50:10.062500
2230,-7.85,2021-12-17 16:50:10.078125
2231,-9.63,2021-12-17 16:50:10.093750
2232,-11.89,2021-12-17 16:50:10.109375
2233,-14.86,2021-12-17 16:50:10.125000
2234,-18.42,2021-12-17 16:50:10.140625
2235,-22.18,2021-12-17 16:50:10.156250
2236,-25.53,2021-12-17 16:50:10.171875
2237,-27.67,2021-12-17 16:50:10.187500
2238,-27.82,2021-12-17 16:50:10.203125
2239,-25.39,2021-12-17 16:50:10.218750
2240,-20.25,2021-12-17 16:50:10.234375
2241,-12.92,2021-12-17 16:50:10.250000
2242,-4.49,2021-12-17 16:50:10.265625
2243,3.7,2021-12-17 16:50:10.281250
2244,10.54,2021-12-17 16:50:10.296875
2245,15.46,2021-12-17 16:50:10.312500
2246,18.56,2021-12-17 16:50:10.328125
2247,20.36,2021-12-17 16:50:10.343750
2248,21.4,2021-12-17 16:50:10.359375
2249,21.97,2021-12-17 16:50:10.375000
2250,22.0,2021-12-17 16:50:10.390625
2251,21.29,2021-12-17 16:50:10.406250
2252,19.79,2021-12-17 16:50:10.421875
2253,17.71,2021-12-17 16:50:10.437500
2254,15.46,2021-12-17 16:50:10.453125
2255,13.52,2021-12-17 16:50:10.468750
2256,12.15,2021-12-17 16:50:10.484375
2257,11.37,2021-12-17 16:50:10.500000
2258,11.01,2021-12-17 16:50:10.515625
2259,10.84,2021-12-17 16:50:10.531250
2260,10.64,2021-12-17 16:50:10.546875
2261,10.32,2021-12-17 16:50:10.562500
2262,9.86,2021-12-17 16:50:10.578125
2263,9.26,2021-12-17 16:50:10.593750
2264,8.58,2021-12-17 16:50:10.609375
2265,7.85,2021-12-17 16:50:10.625000
2266,7.06,2021-12-17 16:50:10.640625
2267,6.14,2021-12-17 16:50:10.656250
2268,4.99,2021-12-17 16:50:10.671875
2269,3.5,2021-12-17 16:50:10.687500
2270,1.62,2021-12-17 16:50:10.703125
2271,-0.61,2021-12-17 16:50:10.718750
2272,-3.05,2021-12-17 16:50:10.734375
2273,-5.57,2021-12-17 16:50:10.750000
2274,-8.09,2021-12-17 16:50:10.765625
2275,-10.62,2021-12-17 16:50:10.781250
2276,-13.18,2021-12-17 16:50:10.796875
2277,-15.75,2021-12-17 16:50:10.812500
2278,-18.26,2021-12-17 16:50:10.828125
2279,-20.62,2021-12-17 16:50:10.843750
2280,-22.85,2021-12-17 16:50:10.859375
2281,-25.08,2021-12-17 16:50:10.875000
2282,-27.53,2021-12-17 16:50:10.890625
2283,-30.35,2021-12-17 16:50:10.906250
2284,-33.45,2021-12-17 16:50:10.921875
2285,-36.33,2021-12-17 16:50:10.937500
2286,-38.18,2021-12-17 16:50:10.953125
2287,-38.14,2021-12-17 16:50:10.968750
2288,-35.67,2021-12-17 16:50:10.984375
2289,-30.73,2021-12-17 16:50:11.000000
2290,-23.91,2021-12-17 16:50:11.015625
2291,-16.16,2021-12-17 16:50:11.031250
2292,-8.48,2021-12-17 16:50:11.046875
2293,-1.59,2021-12-17 16:50:11.062500
2294,4.21,2021-12-17 16:50:11.078125
2295,8.94,2021-12-17 16:50:11.093750
2296,12.79,2021-12-17 16:50:11.109375
2297,15.87,2021-12-17 16:50:11.125000
2298,18.13,2021-12-17 16:50:11.140625
2299,19.46,2021-12-17 16:50:11.156250
2300,19.82,2021-12-17 16:50:11.171875
2301,19.41,2021-12-17 16:50:11.187500
2302,18.61,2021-12-17 16:50:11.203125
2303,17.87,2021-12-17 16:50:11.218750
2304,17.53,2021-12-17 16:50:11.234375
2305,17.67,2021-12-17 16:50:11.250000
2306,18.18,2021-12-17 16:50:11.265625
2307,18.79,2021-12-17 16:50:11.281250
2308,19.25,2021-12-17 16:50:11.296875
2309,19.44,2021-12-17 16:50:11.312500
2310,19.34,2021-12-17 16:50:11.328125
2311,19.02,2021-12-17 16:50:11.343750
2312,18.54,2021-12-17 16:50:11.359375
2313,17.87,2021-12-17 16:50:11.375000
2314,16.95,2021-12-17 16:50:11.390625
2315,15.73,2021-12-17 16:50:11.406250
2316,14.2,2021-12-17 16:50:11.421875
2317,12.49,2021-12-17 16:50:11.437500
2318,10.76,2021-12-17 16:50:11.453125
2319,9.12,2021-12-17 16:50:11.468750
2320,7.53,2021-12-17 16:50:11.484375
2321,5.83,2021-12-17 16:50:11.500000
2322,3.8,2021-12-17 16:50:11.515625
2323,1.32,2021-12-17 16:50:11.531250
2324,-1.54,2021-12-17 16:50:11.546875
2325,-4.48,2021-12-17 16:50:11.562500
2326,-7.14,2021-12-17 16:50:11.578125
2327,-9.23,2021-12-17 16:50:11.593750
2328,-10.72,2021-12-17 16:50:11.609375
2329,-11.82,2021-12-17 16:50:11.625000
2330,-12.84,2021-12-17 16:50:11.640625
2331,-14.07,2021-12-17 16:50:11.656250
2332,-15.69,2021-12-17 16:50:11.671875
2333,-17.72,2021-12-17 16:50:11.687500
2334,-20.18,2021-12-17 16:50:11.703125
2335,-22.91,2021-12-17 16:50:11.718750
2336,-25.64,2021-12-17 16:50:11.734375
2337,-27.8,2021-12-17 16:50:11.750000
2338,-28.63,2021-12-17 16:50:11.765625
2339,-27.41,2021-12-17 16:50:11.781250
2340,-23.75,2021-12-17 16:50:11.796875
2341,-17.91,2021-12-17 16:50:11.812500
2342,-10.74,2021-12-17 16:50:11.828125
2343,-3.46,2021-12-17 16:50:11.843750
2344,2.84,2021-12-17 16:50:11.859375
2345,7.51,2021-12-17 16:50:11.875000
2346,10.53,2021-12-17 16:50:11.890625
2347,12.33,2021-12-17 16:50:11.906250
2348,13.5,2021-12-17 16:50:11.921875
2349,14.49,2021-12-17 16:50:11.937500
2350,15.46,2021-12-17 16:50:11.953125
2351,16.34,2021-12-17 16:50:11.968750
2352,16.92,2021-12-17 16:50:11.984375
2353,17.07,2021-12-17 16:50:12.000000
2354,16.8,2021-12-17 16:50:12.015625
2355,16.23,2021-12-17 16:50:12.031250
2356,15.62,2021-12-17 16:50:12.046875
2357,15.22,2021-12-17 16:50:12.062500
2358,15.19,2021-12-17 16:50:12.078125
2359,15.58,2021-12-17 16:50:12.093750
2360,16.25,2021-12-17 16:50:12.109375
2361,16.93,2021-12-17 16:50:12.125000
2362,17.36,2021-12-17 16:50:12.140625
2363,17.35,2021-12-17 16:50:12.156250
2364,16.85,2021-12-17 16:50:12.171875
2365,16.0,2021-12-17 16:50:12.187500
2366,14.96,2021-12-17 16:50:12.203125
2367,13.83,2021-12-17 16:50:12.218750
2368,12.58,2021-12-17 16:50:12.234375
2369,11.09,2021-12-17 16:50:12.250000
2370,9.18,2021-12-17 16:50:12.265625
2371,6.8,2021-12-17 16:50:12.281250
2372,4.04,2021-12-17 16:50:12.296875
2373,1.15,2021-12-17 16:50:12.312500
2374,-1.59,2021-12-17 16:50:12.328125
2375,-4.0,2021-12-17 16:50:12.343750
2376,-5.98,2021-12-17 16:50:12.359375
2377,-7.56,2021-12-17 16:50:12.375000
2378,-8.8,2021-12-17 16:50:12.390625
2379,-9.78,2021-12-17 16:50:12.406250
2380,-10.55,2021-12-17 16:50:12.421875
2381,-11.37,2021-12-17 16:50:12.437500
2382,-12.58,2021-12-17 16:50:12.453125
2383,-14.61,2021-12-17 16:50:12.468750
2384,-17.75,2021-12-17 16:50:12.484375
2385,-21.91,2021-12-17 16:50:12.500000
2386,-26.49,2021-12-17 16:50:12.515625
2387,-30.52,2021-12-17 16:50:12.531250
2388,-32.96,2021-12-17 16:50:12.546875
2389,-33.09,2021-12-17 16:50:12.562500
2390,-30.78,2021-12-17 16:50:12.578125
2391,-26.5,2021-12-17 16:50:12.593750
2392,-21.09,2021-12-17 16:50:12.609375
2393,-15.43,2021-12-17 16:50:12.625000
2394,-10.21,2021-12-17 16:50:12.640625
2395,-5.81,2021-12-17 16:50:12.656250
2396,-2.34,2021-12-17 16:50:12.671875
2397,0.25,2021-12-17 16:50:12.687500
2398,2.04,2021-12-17 16:50:12.703125
2399,3.14,2021-12-17 16:50:12.718750
2400,3.62,2021-12-17 16:50:12.734375
2401,3.58,2021-12-17 16:50:12.750000
2402,3.09,2021-12-17 16:50:12.765625
2403,2.34,2021-12-17 16:50:12.781250
2404,1.57,2021-12-17 16:50:12.796875
2405,1.11,2021-12-17 16:50:12.812500
2406,1.22,2021-12-17 16:50:12.828125
2407,1.94,2021-12-17 16:50:12.843750
2408,3.06,2021-12-17 16:50:12.859375
2409,4.17,2021-12-17 16:50:12.875000
2410,4.9,2021-12-17 16:50:12.890625
2411,5.08,2021-12-17 16:50:12.906250
2412,4.89,2021-12-17 16:50:12.921875
2413,4.73,2021-12-17 16:50:12.937500
2414,4.92,2021-12-17 16:50:12.953125
2415,5.61,2021-12-17 16:50:12.968750
2416,6.65,2021-12-17 16:50:12.984375
2417,7.73,2021-12-17 16:50:13.000000
2418,8.55,2021-12-17 16:50:13.015625
2419,8.95,2021-12-17 16:50:13.031250
2420,8.86,2021-12-17 16:50:13.046875
2421,8.3,2021-12-17 16:50:13.062500
2422,7.26,2021-12-17 16:50:13.078125
2423,5.74,2021-12-17 16:50:13.093750
2424,3.78,2021-12-17 16:50:13.109375
2425,1.56,2021-12-17 16:50:13.125000
2426,-0.63,2021-12-17 16:50:13.140625
2427,-2.45,2021-12-17 16:50:13.156250
2428,-3.68,2021-12-17 16:50:13.171875
2429,-4.26,2021-12-17 16:50:13.187500
2430,-4.41,2021-12-17 16:50:13.203125
2431,-4.51,2021-12-17 16:50:13.218750
2432,-5.07,2021-12-17 16:50:13.234375
2433,-6.45,2021-12-17 16:50:13.250000
2434,-8.73,2021-12-17 16:50:13.265625
2435,-11.59,2021-12-17 16:50:13.281250
2436,-14.32,2021-12-17 16:50:13.296875
2437,-16.05,2021-12-17 16:50:13.312500
2438,-15.99,2021-12-17 16:50:13.328125
2439,-13.7,2021-12-17 16:50:13.343750
2440,-9.32,2021-12-17 16:50:13.359375
2441,-3.42,2021-12-17 16:50:13.375000
2442,3.13,2021-12-17 16:50:13.390625
2443,9.4,2021-12-17 16:50:13.406250
2444,14.68,2021-12-17 16:50:13.421875
2445,18.61,2021-12-17 16:50:13.437500
2446,21.22,2021-12-17 16:50:13.453125
2447,22.81,2021-12-17 16:50:13.468750
2448,23.85,2021-12-17 16:50:13.484375
2449,24.79,2021-12-17 16:50:13.500000
2450,25.86,2021-12-17 16:50:13.515625
2451,27.1,2021-12-17 16:50:13.531250
2452,28.34,2021-12-17 16:50:13.546875
2453,29.37,2021-12-17 16:50:13.562500
2454,30.04,2021-12-17 16:50:13.578125
2455,30.34,2021-12-17 16:50:13.593750
2456,30.38,2021-12-17 16:50:13.609375
2457,30.35,2021-12-17 16:50:13.625000
2458,30.42,2021-12-17 16:50:13.640625
2459,30.66,2021-12-17 16:50:13.656250
2460,30.98,2021-12-17 16:50:13.671875
2461,31.27,2021-12-17 16:50:13.687500
2462,31.35,2021-12-17 16:50:13.703125
2463,31.03,2021-12-17 16:50:13.718750
2464,30.09,2021-12-17 16:50:13.734375
2465,28.31,2021-12-17 16:50:13.750000
2466,25.43,2021-12-17 16:50:13.765625
2467,21.29,2021-12-17 16:50:13.781250
2468,15.84,2021-12-17 16:50:13.796875
2469,9.29,2021-12-17 16:50:13.812500
2470,2.08,2021-12-17 16:50:13.828125
2471,-5.12,2021-12-17 16:50:13.843750
2472,-11.65,2021-12-17 16:50:13.859375
2473,-17.0,2021-12-17 16:50:13.875000
2474,-21.0,2021-12-17 16:50:13.890625
2475,-23.79,2021-12-17 16:50:13.906250
2476,-25.77,2021-12-17 16:50:13.921875
2477,-27.38,2021-12-17 16:50:13.937500
2478,-29.02,2021-12-17 16:50:13.953125
2479,-30.97,2021-12-17 16:50:13.968750
2480,-33.29,2021-12-17 16:50:13.984375
2481,-35.8,2021-12-17 16:50:14.000000
2482,-38.15,2021-12-17 16:50:14.015625
2483,-39.87,2021-12-17 16:50:14.031250
2484,-40.59,2021-12-17 16:50:14.046875
2485,-40.16,2021-12-17 16:50:14.062500
2486,-38.75,2021-12-17 16:50:14.078125
2487,-36.8,2021-12-17 16:50:14.093750
2488,-34.83,2021-12-17 16:50:14.109375
2489,-33.19,2021-12-17 16:50:14.125000
2490,-31.74,2021-12-17 16:50:14.140625
2491,-29.94,2021-12-17 16:50:14.156250
2492,-26.99,2021-12-17 16:50:14.171875
2493,-22.13,2021-12-17 16:50:14.187500
2494,-15.0,2021-12-17 16:50:14.203125
2495,-5.76,2021-12-17 16:50:14.218750
2496,4.91,2021-12-17 16:50:14.234375
2497,15.92,2021-12-17 16:50:14.250000
2498,26.08,2021-12-17 16:50:14.265625
2499,34.28,2021-12-17 16:50:14.281250
2500,39.77,2021-12-17 16:50:14.296875
2501,42.18,2021-12-17 16:50:14.312500
2502,41.59,2021-12-17 16:50:14.328125
2503,38.49,2021-12-17 16:50:14.343750
2504,33.54,2021-12-17 16:50:14.359375
2505,27.52,2021-12-17 16:50:14.375000
2506,21.09,2021-12-17 16:50:14.390625
2507,14.74,2021-12-17 16:50:14.406250
2508,8.76,2021-12-17 16:50:14.421875
2509,3.32,2021-12-17 16:50:14.437500
2510,-1.51,2021-12-17 16:50:14.453125
2511,-5.68,2021-12-17 16:50:14.468750
2512,-9.25,2021-12-17 16:50:14.484375
2513,-12.39,2021-12-17 16:50:14.500000
2514,-15.31,2021-12-17 16:50:14.515625
2515,-18.24,2021-12-17 16:50:14.531250
2516,-21.18,2021-12-17 16:50:14.546875
2517,-23.99,2021-12-17 16:50:14.562500
2518,-26.35,2021-12-17 16:50:14.578125
2519,-28.07,2021-12-17 16:50:14.593750
2520,-29.19,2021-12-17 16:50:14.609375
2521,-30.08,2021-12-17 16:50:14.625000
2522,-31.3,2021-12-17 16:50:14.640625
2523,-33.37,2021-12-17 16:50:14.656250
2524,-36.49,2021-12-17 16:50:14.671875
2525,-40.42,2021-12-17 16:50:14.687500
2526,-44.53,2021-12-17 16:50:14.703125
2527,-48.0,2021-12-17 16:50:14.718750
2528,-49.99,2021-12-17 16:50:14.734375
2529,-49.88,2021-12-17 16:50:14.750000
2530,-47.44,2021-12-17 16:50:14.765625
2531,-42.83,2021-12-17 16:50:14.781250
2532,-36.52,2021-12-17 16:50:14.796875
2533,-29.19,2021-12-17 16:50:14.812500
2534,-21.54,2021-12-17 16:50:14.828125
2535,-14.16,2021-12-17 16:50:14.843750
2536,-7.44,2021-12-17 16:50:14.859375
2537,-1.6,2021-12-17 16:50:14.875000
2538,3.19,2021-12-17 16:50:14.890625
2539,6.8,2021-12-17 16:50:14.906250
2540,9.1,2021-12-17 16:50:14.921875
2541,10.1,2021-12-17 16:50:14.937500
2542,10.01,2021-12-17 16:50:14.953125
2543,9.25,2021-12-17 16:50:14.968750
2544,8.36,2021-12-17 16:50:14.984375
2545,7.8,2021-12-17 16:50:15.000000
2546,7.77,2021-12-17 16:50:15.015625
2547,8.23,2021-12-17 16:50:15.031250
2548,8.88,2021-12-17 16:50:15.046875
2549,9.46,2021-12-17 16:50:15.062500
2550,9.82,2021-12-17 16:50:15.078125
2551,10.04,2021-12-17 16:50:15.093750
2552,10.32,2021-12-17 16:50:15.109375
2553,10.83,2021-12-17 16:50:15.125000
2554,11.56,2021-12-17 16:50:15.140625
2555,12.32,2021-12-17 16:50:15.156250
2556,12.78,2021-12-17 16:50:15.171875
2557,12.64,2021-12-17 16:50:15.187500
2558,11.79,2021-12-17 16:50:15.203125
2559,10.29,2021-12-17 16:50:15.218750
2560,8.34,2021-12-17 16:50:15.234375
2561,6.14,2021-12-17 16:50:15.250000
2562,3.77,2021-12-17 16:50:15.265625
2563,1.17,2021-12-17 16:50:15.281250
2564,-1.77,2021-12-17 16:50:15.296875
2565,-5.1,2021-12-17 16:50:15.312500
2566,-8.79,2021-12-17 16:50:15.328125
2567,-12.7,2021-12-17 16:50:15.343750
2568,-16.7,2021-12-17 16:50:15.359375
2569,-20.65,2021-12-17 16:50:15.375000
2570,-24.41,2021-12-17 16:50:15.390625
2571,-27.69,2021-12-17 16:50:15.406250
2572,-30.09,2021-12-17 16:50:15.421875
2573,-31.03,2021-12-17 16:50:15.437500
2574,-29.96,2021-12-17 16:50:15.453125
2575,-26.55,2021-12-17 16:50:15.468750
2576,-20.96,2021-12-17 16:50:15.484375
2577,-13.77,2021-12-17 16:50:15.500000
2578,-5.94,2021-12-17 16:50:15.515625
2579,1.59,2021-12-17 16:50:15.531250
2580,8.09,2021-12-17 16:50:15.546875
2581,13.25,2021-12-17 16:50:15.562500
2582,17.07,2021-12-17 16:50:15.578125
2583,19.68,2021-12-17 16:50:15.593750
2584,21.24,2021-12-17 16:50:15.609375
2585,21.83,2021-12-17 16:50:15.625000
2586,21.46,2021-12-17 16:50:15.640625
2587,20.26,2021-12-17 16:50:15.656250
2588,18.52,2021-12-17 16:50:15.671875
2589,16.7,2021-12-17 16:50:15.687500
2590,15.25,2021-12-17 16:50:15.703125
2591,14.44,2021-12-17 16:50:15.718750
2592,14.23,2021-12-17 16:50:15.734375
2593,14.29,2021-12-17 16:50:15.750000
2594,14.19,2021-12-17 16:50:15.765625
2595,13.63,2021-12-17 16:50:15.781250
2596,12.65,2021-12-17 16:50:15.796875
2597,11.53,2021-12-17 16:50:15.812500
2598,10.64,2021-12-17 16:50:15.828125
2599,10.15,2021-12-17 16:50:15.843750
2600,9.87,2021-12-17 16:50:15.859375
2601,9.36,2021-12-17 16:50:15.875000
2602,8.18,2021-12-17 16:50:15.890625
2603,6.2,2021-12-17 16:50:15.906250
2604,3.72,2021-12-17 16:50:15.921875
2605,1.21,2021-12-17 16:50:15.937500
2606,-0.85,2021-12-17 16:50:15.953125
2607,-2.39,2021-12-17 16:50:15.968750
2608,-3.7,2021-12-17 16:50:15.984375
2609,-5.28,2021-12-17 16:50:16.000000
2610,-7.57,2021-12-17 16:50:16.015625
2611,-10.71,2021-12-17 16:50:16.031250
2612,-14.52,2021-12-17 16:50:16.046875
2613,-18.57,2021-12-17 16:50:16.062500
2614,-22.36,2021-12-17 16:50:16.078125
2615,-25.37,2021-12-17 16:50:16.093750
2616,-27.11,2021-12-17 16:50:16.109375
2617,-27.11,2021-12-17 16:50:16.125000
2618,-25.04,2021-12-17 16:50:16.140625
2619,-20.8,2021-12-17 16:50:16.156250
2620,-14.71,2021-12-17 16:50:16.171875
2621,-7.54,2021-12-17 16:50:16.187500
2622,-0.27,2021-12-17 16:50:16.203125
2623,6.25,2021-12-17 16:50:16.218750
2624,11.5,2021-12-17 16:50:16.234375
2625,15.48,2021-12-17 16:50:16.250000
2626,18.48,2021-12-17 16:50:16.265625
2627,20.81,2021-12-17 16:50:16.281250
2628,22.55,2021-12-17 16:50:16.296875
2629,23.51,2021-12-17 16:50:16.312500
2630,23.37,2021-12-17 16:50:16.328125
2631,21.97,2021-12-17 16:50:16.343750
2632,19.51,2021-12-17 16:50:16.359375
2633,16.49,2021-12-17 16:50:16.375000
2634,13.52,2021-12-17 16:50:16.390625
2635,11.05,2021-12-17 16:50:16.406250
2636,9.22,2021-12-17 16:50:16.421875
2637,7.87,2021-12-17 16:50:16.437500
2638,6.74,2021-12-17 16:50:16.453125
2639,5.67,2021-12-17 16:50:16.468750
2640,4.71,2021-12-17 16:50:16.484375
2641,3.94,2021-12-17 16:50:16.500000
2642,3.39,2021-12-17 16:50:16.515625
2643,2.83,2021-12-17 16:50:16.531250
2644,1.86,2021-12-17 16:50:16.546875
2645,0.13,2021-12-17 16:50:16.562500
2646,-2.52,2021-12-17 16:50:16.578125
2647,-5.88,2021-12-17 16:50:16.593750
2648,-9.54,2021-12-17 16:50:16.609375
2649,-13.03,2021-12-17 16:50:16.625000
2650,-16.11,2021-12-17 16:50:16.640625
2651,-18.83,2021-12-17 16:50:16.656250
2652,-21.5,2021-12-17 16:50:16.671875
2653,-24.53,2021-12-17 16:50:16.687500
2654,-28.24,2021-12-17 16:50:16.703125
2655,-32.78,2021-12-17 16:50:16.718750
2656,-38.02,2021-12-17 16:50:16.734375
2657,-43.56,2021-12-17 16:50:16.750000
2658,-48.68,2021-12-17 16:50:16.765625
2659,-52.48,2021-12-17 16:50:16.781250
2660,-54.05,2021-12-17 16:50:16.796875
2661,-52.83,2021-12-17 16:50:16.812500
2662,-48.76,2021-12-17 16:50:16.828125
2663,-42.36,2021-12-17 16:50:16.843750
2664,-34.56,2021-12-17 16:50:16.859375
2665,-26.43,2021-12-17 16:50:16.875000
2666,-18.87,2021-12-17 16:50:16.890625
2667,-12.37,2021-12-17 16:50:16.906250
2668,-7.06,2021-12-17 16:50:16.921875
2669,-2.74,2021-12-17 16:50:16.937500
2670,0.84,2021-12-17 16:50:16.953125
2671,3.93,2021-12-17 16:50:16.968750
2672,6.58,2021-12-17 16:50:16.984375
2673,8.67,2021-12-17 16:50:17.000000
2674,10.04,2021-12-17 16:50:17.015625
2675,10.63,2021-12-17 16:50:17.031250
2676,10.66,2021-12-17 16:50:17.046875
2677,10.61,2021-12-17 16:50:17.062500
2678,11.1,2021-12-17 16:50:17.078125
2679,12.67,2021-12-17 16:50:17.093750
2680,15.52,2021-12-17 16:50:17.109375
2681,19.51,2021-12-17 16:50:17.125000
2682,24.27,2021-12-17 16:50:17.140625
2683,29.34,2021-12-17 16:50:17.156250
2684,34.28,2021-12-17 16:50:17.171875
2685,38.61,2021-12-17 16:50:17.187500
2686,41.72,2021-12-17 16:50:17.203125
2687,42.99,2021-12-17 16:50:17.218750
2688,41.9,2021-12-17 16:50:17.234375
2689,38.3,2021-12-17 16:50:17.250000
2690,32.6,2021-12-17 16:50:17.265625
2691,25.65,2021-12-17 16:50:17.281250
2692,18.52,2021-12-17 16:50:17.296875
2693,12.12,2021-12-17 16:50:17.312500
2694,6.91,2021-12-17 16:50:17.328125
2695,2.93,2021-12-17 16:50:17.343750
2696,-0.06,2021-12-17 16:50:17.359375
2697,-2.43,2021-12-17 16:50:17.375000
2698,-4.54,2021-12-17 16:50:17.390625
2699,-6.74,2021-12-17 16:50:17.406250
2700,-9.27,2021-12-17 16:50:17.421875
2701,-12.21,2021-12-17 16:50:17.437500
2702,-15.37,2021-12-17 16:50:17.453125
2703,-18.12,2021-12-17 16:50:17.468750
2704,-19.61,2021-12-17 16:50:17.484375
2705,-18.95,2021-12-17 16:50:17.500000
2706,-15.53,2021-12-17 16:50:17.515625
2707,-9.28,2021-12-17 16:50:17.531250
2708,-0.65,2021-12-17 16:50:17.546875
2709,9.53,2021-12-17 16:50:17.562500
2710,20.3,2021-12-17 16:50:17.578125
2711,30.73,2021-12-17 16:50:17.593750
2712,40.09,2021-12-17 16:50:17.609375
2713,47.77,2021-12-17 16:50:17.625000
2714,53.37,2021-12-17 16:50:17.640625
2715,56.75,2021-12-17 16:50:17.656250
2716,57.99,2021-12-17 16:50:17.671875
2717,57.43,2021-12-17 16:50:17.687500
2718,55.53,2021-12-17 16:50:17.703125
2719,52.73,2021-12-17 16:50:17.718750
2720,49.39,2021-12-17 16:50:17.734375
2721,45.7,2021-12-17 16:50:17.750000
2722,41.88,2021-12-17 16:50:17.765625
2723,38.04,2021-12-17 16:50:17.781250
2724,34.32,2021-12-17 16:50:17.796875
2725,30.73,2021-12-17 16:50:17.812500
2726,27.19,2021-12-17 16:50:17.828125
2727,23.58,2021-12-17 16:50:17.843750
2728,19.78,2021-12-17 16:50:17.859375
2729,15.83,2021-12-17 16:50:17.875000
2730,11.91,2021-12-17 16:50:17.890625
2731,8.34,2021-12-17 16:50:17.906250
2732,5.27,2021-12-17 16:50:17.921875
2733,2.72,2021-12-17 16:50:17.937500
2734,0.35,2021-12-17 16:50:17.953125
2735,-2.3,2021-12-17 16:50:17.968750
2736,-5.66,2021-12-17 16:50:17.984375
2737,-9.92,2021-12-17 16:50:18.000000
2738,-14.89,2021-12-17 16:50:18.015625
2739,-20.04,2021-12-17 16:50:18.031250
2740,-24.72,2021-12-17 16:50:18.046875
2741,-28.37,2021-12-17 16:50:18.062500
2742,-30.85,2021-12-17 16:50:18.078125
2743,-32.48,2021-12-17 16:50:18.093750
2744,-33.99,2021-12-17 16:50:18.109375
2745,-36.22,2021-12-17 16:50:18.125000
2746,-39.78,2021-12-17 16:50:18.140625
2747,-44.73,2021-12-17 16:50:18.156250
2748,-50.46,2021-12-17 16:50:18.171875
2749,-55.82,2021-12-17 16:50:18.187500
2750,-59.49,2021-12-17 16:50:18.203125
2751,-60.32,2021-12-17 16:50:18.218750
2752,-57.66,2021-12-17 16:50:18.234375
2753,-51.62,2021-12-17 16:50:18.250000
2754,-42.89,2021-12-17 16:50:18.265625
2755,-32.54,2021-12-17 16:50:18.281250
2756,-21.7,2021-12-17 16:50:18.296875
2757,-11.34,2021-12-17 16:50:18.312500
2758,-2.21,2021-12-17 16:50:18.328125
2759,5.19,2021-12-17 16:50:18.343750
2760,10.6,2021-12-17 16:50:18.359375
2761,13.97,2021-12-17 16:50:18.375000
2762,15.5,2021-12-17 16:50:18.390625
2763,15.64,2021-12-17 16:50:18.406250
2764,14.92,2021-12-17 16:50:18.421875
2765,13.82,2021-12-17 16:50:18.437500
2766,12.6,2021-12-17 16:50:18.453125
2767,11.35,2021-12-17 16:50:18.468750
2768,10.13,2021-12-17 16:50:18.484375
2769,9.12,2021-12-17 16:50:18.500000
2770,8.57,2021-12-17 16:50:18.515625
2771,8.66,2021-12-17 16:50:18.531250
2772,9.36,2021-12-17 16:50:18.546875
2773,10.28,2021-12-17 16:50:18.562500
2774,10.89,2021-12-17 16:50:18.578125
2775,10.78,2021-12-17 16:50:18.593750
2776,9.92,2021-12-17 16:50:18.609375
2777,8.68,2021-12-17 16:50:18.625000
2778,7.6,2021-12-17 16:50:18.640625
2779,7.02,2021-12-17 16:50:18.656250
2780,6.9,2021-12-17 16:50:18.671875
2781,6.81,2021-12-17 16:50:18.687500
2782,6.23,2021-12-17 16:50:18.703125
2783,4.81,2021-12-17 16:50:18.718750
2784,2.58,2021-12-17 16:50:18.734375
2785,-0.12,2021-12-17 16:50:18.750000
2786,-2.86,2021-12-17 16:50:18.765625
2787,-5.24,2021-12-17 16:50:18.781250
2788,-7.15,2021-12-17 16:50:18.796875
2789,-8.68,2021-12-17 16:50:18.812500
2790,-10.13,2021-12-17 16:50:18.828125
2791,-11.89,2021-12-17 16:50:18.843750
2792,-14.33,2021-12-17 16:50:18.859375
2793,-17.7,2021-12-17 16:50:18.875000
2794,-22.12,2021-12-17 16:50:18.890625
2795,-27.45,2021-12-17 16:50:18.906250
2796,-33.22,2021-12-17 16:50:18.921875
2797,-38.67,2021-12-17 16:50:18.937500
2798,-42.76,2021-12-17 16:50:18.953125
2799,-44.47,2021-12-17 16:50:18.968750
2800,-43.04,2021-12-17 16:50:18.984375
2801,-38.23,2021-12-17 16:50:19.000000
2802,-30.44,2021-12-17 16:50:19.015625
2803,-20.72,2021-12-17 16:50:19.031250
2804,-10.41,2021-12-17 16:50:19.046875
2805,-0.81,2021-12-17 16:50:19.062500
2806,7.14,2021-12-17 16:50:19.078125
2807,13.07,2021-12-17 16:50:19.093750
2808,17.1,2021-12-17 16:50:19.109375
2809,19.63,2021-12-17 16:50:19.125000
2810,21.14,2021-12-17 16:50:19.140625
2811,21.96,2021-12-17 16:50:19.156250
2812,22.24,2021-12-17 16:50:19.171875
2813,22.05,2021-12-17 16:50:19.187500
2814,21.41,2021-12-17 16:50:19.203125
2815,20.39,2021-12-17 16:50:19.218750
2816,19.18,2021-12-17 16:50:19.234375
2817,18.05,2021-12-17 16:50:19.250000
2818,17.28,2021-12-17 16:50:19.265625
2819,17.16,2021-12-17 16:50:19.281250
2820,17.73,2021-12-17 16:50:19.296875
2821,18.78,2021-12-17 16:50:19.312500
2822,19.91,2021-12-17 16:50:19.328125
2823,20.62,2021-12-17 16:50:19.343750
2824,20.58,2021-12-17 16:50:19.359375
2825,19.73,2021-12-17 16:50:19.375000
2826,18.29,2021-12-17 16:50:19.390625
2827,16.59,2021-12-17 16:50:19.406250
2828,14.9,2021-12-17 16:50:19.421875
2829,13.3,2021-12-17 16:50:19.437500
2830,11.71,2021-12-17 16:50:19.453125
2831,9.95,2021-12-17 16:50:19.468750
2832,7.87,2021-12-17 16:50:19.484375
2833,5.46,2021-12-17 16:50:19.500000
2834,2.83,2021-12-17 16:50:19.515625
2835,0.14,2021-12-17 16:50:19.531250
2836,-2.51,2021-12-17 16:50:19.546875
2837,-5.07,2021-12-17 16:50:19.562500
2838,-7.62,2021-12-17 16:50:19.578125
2839,-10.29,2021-12-17 16:50:19.593750
2840,-13.27,2021-12-17 16:50:19.609375
2841,-16.76,2021-12-17 16:50:19.625000
2842,-20.89,2021-12-17 16:50:19.640625
2843,-25.61,2021-12-17 16:50:19.656250
2844,-30.62,2021-12-17 16:50:19.671875
2845,-35.38,2021-12-17 16:50:19.687500
2846,-39.14,2021-12-17 16:50:19.703125
2847,-41.17,2021-12-17 16:50:19.718750
2848,-40.83,2021-12-17 16:50:19.734375
2849,-37.87,2021-12-17 16:50:19.750000
2850,-32.43,2021-12-17 16:50:19.765625
2851,-25.11,2021-12-17 16:50:19.781250
2852,-16.78,2021-12-17 16:50:19.796875
2853,-8.4,2021-12-17 16:50:19.812500
2854,-0.77,2021-12-17 16:50:19.828125
2855,5.62,2021-12-17 16:50:19.843750
2856,10.68,2021-12-17 16:50:19.859375
2857,14.55,2021-12-17 16:50:19.875000
2858,17.52,2021-12-17 16:50:19.890625
2859,19.82,2021-12-17 16:50:19.906250
2860,21.53,2021-12-17 16:50:19.921875
2861,22.64,2021-12-17 16:50:19.937500
2862,23.11,2021-12-17 16:50:19.953125
2863,22.98,2021-12-17 16:50:19.968750
2864,22.4,2021-12-17 16:50:19.984375
2865,21.6,2021-12-17 16:50:20.000000
2866,20.83,2021-12-17 16:50:20.015625
2867,20.26,2021-12-17 16:50:20.031250
2868,19.95,2021-12-17 16:50:20.046875
2869,19.85,2021-12-17 16:50:20.062500
2870,19.88,2021-12-17 16:50:20.078125
2871,19.96,2021-12-17 16:50:20.093750
2872,20.0,2021-12-17 16:50:20.109375
2873,19.98,2021-12-17 16:50:20.125000
2874,19.86,2021-12-17 16:50:20.140625
2875,19.63,2021-12-17 16:50:20.156250
2876,19.23,2021-12-17 16:50:20.171875
2877,18.57,2021-12-17 16:50:20.187500
2878,17.53,2021-12-17 16:50:20.203125
2879,15.98,2021-12-17 16:50:20.218750
2880,13.9,2021-12-17 16:50:20.234375
2881,11.3,2021-12-17 16:50:20.250000
2882,8.29,2021-12-17 16:50:20.265625
2883,5.03,2021-12-17 16:50:20.281250
2884,1.73,2021-12-17 16:50:20.296875
2885,-1.42,2021-12-17 16:50:20.312500
2886,-4.2,2021-12-17 16:50:20.328125
2887,-6.5,2021-12-17 16:50:20.343750
2888,-8.44,2021-12-17 16:50:20.359375
2889,-10.35,2021-12-17 16:50:20.375000
2890,-12.74,2021-12-17 16:50:20.390625
2891,-16.09,2021-12-17 16:50:20.406250
2892,-20.55,2021-12-17 16:50:20.421875
2893,-25.71,2021-12-17 16:50:20.437500
2894,-30.58,2021-12-17 16:50:20.453125
2895,-33.94,2021-12-17 16:50:20.468750
2896,-34.71,2021-12-17 16:50:20.484375
2897,-32.39,2021-12-17 16:50:20.500000
2898,-27.21,2021-12-17 16:50:20.515625
2899,-20.04,2021-12-17 16:50:20.531250
2900,-11.98,2021-12-17 16:50:20.546875
2901,-3.98,2021-12-17 16:50:20.562500
2902,3.38,2021-12-17 16:50:20.578125
2903,9.83,2021-12-17 16:50:20.593750
2904,15.37,2021-12-17 16:50:20.609375
2905,20.04,2021-12-17 16:50:20.625000
2906,23.87,2021-12-17 16:50:20.640625
2907,26.89,2021-12-17 16:50:20.656250
2908,29.14,2021-12-17 16:50:20.671875
2909,30.68,2021-12-17 16:50:20.687500
2910,31.55,2021-12-17 16:50:20.703125
2911,31.79,2021-12-17 16:50:20.718750
2912,31.47,2021-12-17 16:50:20.734375
2913,30.71,2021-12-17 16:50:20.750000
2914,29.7,2021-12-17 16:50:20.765625
2915,28.68,2021-12-17 16:50:20.781250
2916,27.79,2021-12-17 16:50:20.796875
2917,26.99,2021-12-17 16:50:20.812500
2918,26.09,2021-12-17 16:50:20.828125
2919,24.86,2021-12-17 16:50:20.843750
2920,23.13,2021-12-17 16:50:20.859375
2921,20.95,2021-12-17 16:50:20.875000
2922,18.51,2021-12-17 16:50:20.890625
2923,16.04,2021-12-17 16:50:20.906250
2924,13.64,2021-12-17 16:50:20.921875
2925,11.23,2021-12-17 16:50:20.937500
2926,8.54,2021-12-17 16:50:20.953125
2927,5.33,2021-12-17 16:50:20.968750
2928,1.47,2021-12-17 16:50:20.984375
2929,-2.95,2021-12-17 16:50:21.000000
2930,-7.65,2021-12-17 16:50:21.015625
2931,-12.28,2021-12-17 16:50:21.031250
2932,-16.56,2021-12-17 16:50:21.046875
2933,-20.35,2021-12-17 16:50:21.062500
2934,-23.6,2021-12-17 16:50:21.078125
2935,-26.37,2021-12-17 16:50:21.093750
2936,-28.75,2021-12-17 16:50:21.109375
2937,-30.79,2021-12-17 16:50:21.125000
2938,-32.59,2021-12-17 16:50:21.140625
2939,-34.29,2021-12-17 16:50:21.156250
2940,-36.02,2021-12-17 16:50:21.171875
2941,-37.84,2021-12-17 16:50:21.187500
2942,-39.6,2021-12-17 16:50:21.203125
2943,-40.81,2021-12-17 16:50:21.218750
2944,-40.77,2021-12-17 16:50:21.234375
2945,-38.72,2021-12-17 16:50:21.250000
2946,-34.18,2021-12-17 16:50:21.265625
2947,-27.23,2021-12-17 16:50:21.281250
2948,-18.56,2021-12-17 16:50:21.296875
2949,-9.27,2021-12-17 16:50:21.312500
2950,-0.54,2021-12-17 16:50:21.328125
2951,6.77,2021-12-17 16:50:21.343750
2952,12.33,2021-12-17 16:50:21.359375
2953,16.27,2021-12-17 16:50:21.375000
2954,18.96,2021-12-17 16:50:21.390625
2955,20.73,2021-12-17 16:50:21.406250
2956,21.66,2021-12-17 16:50:21.421875
2957,21.71,2021-12-17 16:50:21.437500
2958,20.86,2021-12-17 16:50:21.453125
2959,19.26,2021-12-17 16:50:21.468750
2960,17.29,2021-12-17 16:50:21.484375
2961,15.45,2021-12-17 16:50:21.500000
2962,14.18,2021-12-17 16:50:21.515625
2963,13.71,2021-12-17 16:50:21.531250
2964,14.06,2021-12-17 16:50:21.546875
2965,14.99,2021-12-17 16:50:21.562500
2966,16.2,2021-12-17 16:50:21.578125
2967,17.4,2021-12-17 16:50:21.593750
2968,18.33,2021-12-17 16:50:21.609375
2969,18.84,2021-12-17 16:50:21.625000
2970,18.9,2021-12-17 16:50:21.640625
2971,18.53,2021-12-17 16:50:21.656250
2972,17.87,2021-12-17 16:50:21.671875
2973,17.18,2021-12-17 16:50:21.687500
2974,16.72,2021-12-17 16:50:21.703125
2975,16.71,2021-12-17 16:50:21.718750
2976,17.25,2021-12-17 16:50:21.734375
2977,18.24,2021-12-17 16:50:21.750000
2978,19.37,2021-12-17 16:50:21.765625
2979,20.22,2021-12-17 16:50:21.781250
2980,20.36,2021-12-17 16:50:21.796875
2981,19.42,2021-12-17 16:50:21.812500
2982,17.14,2021-12-17 16:50:21.828125
2983,13.44,2021-12-17 16:50:21.843750
2984,8.38,2021-12-17 16:50:21.859375
2985,2.17,2021-12-17 16:50:21.875000
2986,-4.9,2021-12-17 16:50:21.890625
2987,-12.41,2021-12-17 16:50:21.906250
2988,-19.88,2021-12-17 16:50:21.921875
2989,-26.84,2021-12-17 16:50:21.937500
2990,-32.79,2021-12-17 16:50:21.953125
2991,-37.24,2021-12-17 16:50:21.968750
2992,-39.7,2021-12-17 16:50:21.984375
2993,-39.79,2021-12-17 16:50:22.000000
2994,-37.31,2021-12-17 16:50:22.015625
2995,-32.39,2021-12-17 16:50:22.031250
2996,-25.54,2021-12-17 16:50:22.046875
2997,-17.52,2021-12-17 16:50:22.062500
2998,-9.29,2021-12-17 16:50:22.078125
2999,-1.7,2021-12-17 16:50:22.093750
3000,4.55,2021-12-17 16:50:22.109375
3001,9.1,2021-12-17 16:50:22.125000
3002,11.86,2021-12-17 16:50:22.140625
3003,12.97,2021-12-17 16:50:22.156250
3004,12.72,2021-12-17 16:50:22.171875
3005,11.43,2021-12-17 16:50:22.187500
3006,9.5,2021-12-17 16:50:22.203125
3007,7.32,2021-12-17 16:50:22.218750
3008,5.26,2021-12-17 16:50:22.234375
3009,3.61,2021-12-17 16:50:22.250000
3010,2.55,2021-12-17 16:50:22.265625
3011,2.07,2021-12-17 16:50:22.281250
3012,2.06,2021-12-17 16:50:22.296875
3013,2.36,2021-12-17 16:50:22.312500
3014,2.77,2021-12-17 16:50:22.328125
3015,3.22,2021-12-17 16:50:22.343750
3016,3.64,2021-12-17 16:50:22.359375
3017,3.97,2021-12-17 16:50:22.375000
3018,4.12,2021-12-17 16:50:22.390625
3019,3.98,2021-12-17 16:50:22.406250
3020,3.44,2021-12-17 16:50:22.421875
3021,2.43,2021-12-17 16:50:22.437500
3022,0.95,2021-12-17 16:50:22.453125
3023,-0.97,2021-12-17 16:50:22.468750
3024,-3.23,2021-12-17 16:50:22.484375
3025,-5.7,2021-12-17 16:50:22.500000
3026,-8.13,2021-12-17 16:50:22.515625
3027,-10.3,2021-12-17 16:50:22.531250
3028,-12.06,2021-12-17 16:50:22.546875
3029,-13.48,2021-12-17 16:50:22.562500
3030,-14.85,2021-12-17 16:50:22.578125
3031,-16.57,2021-12-17 16:50:22.593750
3032,-18.98,2021-12-17 16:50:22.609375
3033,-22.21,2021-12-17 16:50:22.625000
3034,-26.05,2021-12-17 16:50:22.640625
3035,-30.01,2021-12-17 16:50:22.656250
3036,-33.37,2021-12-17 16:50:22.671875
3037,-35.33,2021-12-17 16:50:22.687500
3038,-35.2,2021-12-17 16:50:22.703125
3039,-32.52,2021-12-17 16:50:22.718750
3040,-27.26,2021-12-17 16:50:22.734375
3041,-19.88,2021-12-17 16:50:22.750000
3042,-11.26,2021-12-17 16:50:22.765625
3043,-2.51,2021-12-17 16:50:22.781250
3044,5.34,2021-12-17 16:50:22.796875
3045,11.63,2021-12-17 16:50:22.812500
3046,16.22,2021-12-17 16:50:22.828125
3047,19.37,2021-12-17 16:50:22.843750
3048,21.61,2021-12-17 16:50:22.859375
3049,23.44,2021-12-17 16:50:22.875000
3050,25.17,2021-12-17 16:50:22.890625
3051,26.92,2021-12-17 16:50:22.906250
3052,28.7,2021-12-17 16:50:22.921875
3053,30.51,2021-12-17 16:50:22.937500
3054,32.43,2021-12-17 16:50:22.953125
3055,34.5,2021-12-17 16:50:22.968750
3056,36.65,2021-12-17 16:50:22.984375
3057,38.66,2021-12-17 16:50:23.000000
3058,40.14,2021-12-17 16:50:23.015625
3059,40.74,2021-12-17 16:50:23.031250
3060,40.31,2021-12-17 16:50:23.046875
3061,39.0,2021-12-17 16:50:23.062500
3062,37.2,2021-12-17 16:50:23.078125
3063,35.28,2021-12-17 16:50:23.093750
3064,33.41,2021-12-17 16:50:23.109375
3065,31.48,2021-12-17 16:50:23.125000
3066,29.07,2021-12-17 16:50:23.140625
3067,25.71,2021-12-17 16:50:23.156250
3068,20.99,2021-12-17 16:50:23.171875
3069,14.77,2021-12-17 16:50:23.187500
3070,7.21,2021-12-17 16:50:23.203125
3071,-1.21,2021-12-17 16:50:23.218750
3072,-9.91,2021-12-17 16:50:23.234375
3073,-18.3,2021-12-17 16:50:23.250000
3074,-26.01,2021-12-17 16:50:23.265625
3075,-32.98,2021-12-17 16:50:23.281250
3076,-39.38,2021-12-17 16:50:23.296875
3077,-45.51,2021-12-17 16:50:23.312500
3078,-51.6,2021-12-17 16:50:23.328125
3079,-57.65,2021-12-17 16:50:23.343750
3080,-63.48,2021-12-17 16:50:23.359375
3081,-68.71,2021-12-17 16:50:23.375000
3082,-72.94,2021-12-17 16:50:23.390625
3083,-75.76,2021-12-17 16:50:23.406250
3084,-76.76,2021-12-17 16:50:23.421875
3085,-75.56,2021-12-17 16:50:23.437500
3086,-71.94,2021-12-17 16:50:23.453125
3087,-65.9,2021-12-17 16:50:23.468750
3088,-57.74,2021-12-17 16:50:23.484375
3089,-48.05,2021-12-17 16:50:23.500000
3090,-37.55,2021-12-17 16:50:23.515625
3091,-26.92,2021-12-17 16:50:23.531250
3092,-16.79,2021-12-17 16:50:23.546875
3093,-7.64,2021-12-17 16:50:23.562500
3094,0.15,2021-12-17 16:50:23.578125
3095,6.43,2021-12-17 16:50:23.593750
3096,11.19,2021-12-17 16:50:23.609375
3097,14.7,2021-12-17 16:50:23.625000
3098,17.31,2021-12-17 16:50:23.640625
3099,19.41,2021-12-17 16:50:23.656250
3100,21.26,2021-12-17 16:50:23.671875
3101,22.94,2021-12-17 16:50:23.687500
3102,24.33,2021-12-17 16:50:23.703125
3103,25.3,2021-12-17 16:50:23.718750
3104,25.73,2021-12-17 16:50:23.734375
3105,25.62,2021-12-17 16:50:23.750000
3106,25.1,2021-12-17 16:50:23.765625
3107,24.31,2021-12-17 16:50:23.781250
3108,23.41,2021-12-17 16:50:23.796875
3109,22.52,2021-12-17 16:50:23.812500
3110,21.64,2021-12-17 16:50:23.828125
3111,20.68,2021-12-17 16:50:23.843750
3112,19.41,2021-12-17 16:50:23.859375
3113,17.58,2021-12-17 16:50:23.875000
3114,14.99,2021-12-17 16:50:23.890625
3115,11.67,2021-12-17 16:50:23.906250
3116,7.87,2021-12-17 16:50:23.921875
3117,4.04,2021-12-17 16:50:23.937500
3118,0.63,2021-12-17 16:50:23.953125
3119,-2.07,2021-12-17 16:50:23.968750
3120,-4.08,2021-12-17 16:50:23.984375
3121,-5.75,2021-12-17 16:50:24.000000
3122,-7.6,2021-12-17 16:50:24.015625
3123,-10.16,2021-12-17 16:50:24.031250
3124,-13.76,2021-12-17 16:50:24.046875
3125,-18.38,2021-12-17 16:50:24.062500
3126,-23.6,2021-12-17 16:50:24.078125
3127,-28.58,2021-12-17 16:50:24.093750
3128,-32.28,2021-12-17 16:50:24.109375
3129,-33.67,2021-12-17 16:50:24.125000
3130,-31.94,2021-12-17 16:50:24.140625
3131,-26.83,2021-12-17 16:50:24.156250
3132,-18.63,2021-12-17 16:50:24.171875
3133,-8.2,2021-12-17 16:50:24.187500
3134,3.29,2021-12-17 16:50:24.203125
3135,14.62,2021-12-17 16:50:24.218750
3136,24.81,2021-12-17 16:50:24.234375
3137,33.29,2021-12-17 16:50:24.250000
3138,40.0,2021-12-17 16:50:24.265625
3139,45.17,2021-12-17 16:50:24.281250
3140,49.09,2021-12-17 16:50:24.296875
3141,51.85,2021-12-17 16:50:24.312500
3142,53.27,2021-12-17 16:50:24.328125
3143,53.06,2021-12-17 16:50:24.343750
3144,51.12,2021-12-17 16:50:24.359375
3145,47.87,2021-12-17 16:50:24.375000
3146,44.2,2021-12-17 16:50:24.390625
3147,41.16,2021-12-17 16:50:24.406250
3148,39.42,2021-12-17 16:50:24.421875
3149,38.97,2021-12-17 16:50:24.437500
3150,39.08,2021-12-17 16:50:24.453125
3151,38.73,2021-12-17 16:50:24.468750
3152,37.19,2021-12-17 16:50:24.484375
3153,34.42,2021-12-17 16:50:24.500000
3154,31.06,2021-12-17 16:50:24.515625
3155,28.1,2021-12-17 16:50:24.531250
3156,26.43,2021-12-17 16:50:24.546875
3157,26.53,2021-12-17 16:50:24.562500
3158,28.38,2021-12-17 16:50:24.578125
3159,31.73,2021-12-17 16:50:24.593750
3160,36.06,2021-12-17 16:50:24.609375
3161,40.63,2021-12-17 16:50:24.625000
3162,44.21,2021-12-17 16:50:24.640625
3163,45.13,2021-12-17 16:50:24.656250
3164,41.62,2021-12-17 16:50:24.671875
3165,32.54,2021-12-17 16:50:24.687500
3166,18.0,2021-12-17 16:50:24.703125
3167,-0.33,2021-12-17 16:50:24.718750
3168,-19.52,2021-12-17 16:50:24.734375
3169,-36.37,2021-12-17 16:50:24.750000
3170,-48.45,2021-12-17 16:50:24.765625
3171,-54.74,2021-12-17 16:50:24.781250
3172,-55.73,2021-12-17 16:50:24.796875
3173,-52.72,2021-12-17 16:50:24.812500
3174,-47.07,2021-12-17 16:50:24.828125
