,BVP,time
0,115.09,2022-08-17 13:53:54.625000
1,94.52,2022-08-17 13:53:54.640625
2,70.8,2022-08-17 13:53:54.656250
3,42.71,2022-08-17 13:53:54.671875
4,9.65,2022-08-17 13:53:54.687500
5,-28.35,2022-08-17 13:53:54.703125
6,-70.71,2022-08-17 13:53:54.718750
7,-116.21,2022-08-17 13:53:54.734375
8,-162.71,2022-08-17 13:53:54.750000
9,-207.23,2022-08-17 13:53:54.765625
10,-246.41,2022-08-17 13:53:54.781250
11,-277.63,2022-08-17 13:53:54.796875
12,-300.23,2022-08-17 13:53:54.812500
13,-315.99,2022-08-17 13:53:54.828125
14,-328.61,2022-08-17 13:53:54.843750
15,-342.13,2022-08-17 13:53:54.859375
16,-359.38,2022-08-17 13:53:54.875000
17,-381.01,2022-08-17 13:53:54.890625
18,-405.73,2022-08-17 13:53:54.906250
19,-431.19,2022-08-17 13:53:54.921875
20,-454.99,2022-08-17 13:53:54.937500
21,-475.19,2022-08-17 13:53:54.953125
22,-490.09,2022-08-17 13:53:54.968750
23,-497.95,2022-08-17 13:53:54.984375
24,-496.93,2022-08-17 13:53:55.000000
25,-485.43,2022-08-17 13:53:55.015625
26,-462.64,2022-08-17 13:53:55.031250
27,-428.8,2022-08-17 13:53:55.046875
28,-385.06,2022-08-17 13:53:55.062500
29,-333.1,2022-08-17 13:53:55.078125
30,-275.0,2022-08-17 13:53:55.093750
31,-213.06,2022-08-17 13:53:55.109375
32,-150.09,2022-08-17 13:53:55.125000
33,-89.58,2022-08-17 13:53:55.140625
34,-35.45,2022-08-17 13:53:55.156250
35,8.56,2022-08-17 13:53:55.171875
36,39.76,2022-08-17 13:53:55.187500
37,57.23,2022-08-17 13:53:55.203125
38,62.14,2022-08-17 13:53:55.218750
39,57.55,2022-08-17 13:53:55.234375
40,47.59,2022-08-17 13:53:55.250000
41,36.39,2022-08-17 13:53:55.265625
42,27.17,2022-08-17 13:53:55.281250
43,21.79,2022-08-17 13:53:55.296875
44,20.99,2022-08-17 13:53:55.312500
45,24.84,2022-08-17 13:53:55.328125
46,33.39,2022-08-17 13:53:55.343750
47,46.98,2022-08-17 13:53:55.359375
48,66.23,2022-08-17 13:53:55.375000
49,91.79,2022-08-17 13:53:55.390625
50,124.17,2022-08-17 13:53:55.406250
51,163.43,2022-08-17 13:53:55.421875
52,208.95,2022-08-17 13:53:55.437500
53,258.85,2022-08-17 13:53:55.453125
54,309.55,2022-08-17 13:53:55.468750
55,355.81,2022-08-17 13:53:55.484375
56,391.58,2022-08-17 13:53:55.500000
57,411.55,2022-08-17 13:53:55.515625
58,412.84,2022-08-17 13:53:55.531250
59,395.77,2022-08-17 13:53:55.546875
60,363.62,2022-08-17 13:53:55.562500
61,321.19,2022-08-17 13:53:55.578125
62,273.16,2022-08-17 13:53:55.593750
63,223.0,2022-08-17 13:53:55.609375
64,172.79,2022-08-17 13:53:55.625000
65,123.68,2022-08-17 13:53:55.640625
66,76.49,2022-08-17 13:53:55.656250
67,32.1,2022-08-17 13:53:55.671875
68,-8.68,2022-08-17 13:53:55.687500
69,-45.44,2022-08-17 13:53:55.703125
70,-78.25,2022-08-17 13:53:55.718750
71,-107.64,2022-08-17 13:53:55.734375
72,-134.46,2022-08-17 13:53:55.750000
73,-159.88,2022-08-17 13:53:55.765625
74,-185.08,2022-08-17 13:53:55.781250
75,-210.53,2022-08-17 13:53:55.796875
76,-235.13,2022-08-17 13:53:55.812500
77,-255.91,2022-08-17 13:53:55.828125
78,-268.83,2022-08-17 13:53:55.843750
79,-270.5,2022-08-17 13:53:55.859375
80,-260.27,2022-08-17 13:53:55.875000
81,-241.05,2022-08-17 13:53:55.890625
82,-218.4,2022-08-17 13:53:55.906250
83,-198.31,2022-08-17 13:53:55.921875
84,-184.83,2022-08-17 13:53:55.937500
85,-179.14,2022-08-17 13:53:55.953125
86,-180.39,2022-08-17 13:53:55.968750
87,-187.58,2022-08-17 13:53:55.984375
88,-200.8,2022-08-17 13:53:56.000000
89,-220.92,2022-08-17 13:53:56.015625
90,-247.9,2022-08-17 13:53:56.031250
91,-279.0,2022-08-17 13:53:56.046875
92,-308.57,2022-08-17 13:53:56.062500
93,-329.88,2022-08-17 13:53:56.078125
94,-337.92,2022-08-17 13:53:56.093750
95,-331.46,2022-08-17 13:53:56.109375
96,-312.94,2022-08-17 13:53:56.125000
97,-286.18,2022-08-17 13:53:56.140625
98,-253.56,2022-08-17 13:53:56.156250
99,-214.14,2022-08-17 13:53:56.171875
100,-164.41,2022-08-17 13:53:56.187500
101,-100.95,2022-08-17 13:53:56.203125
102,-23.69,2022-08-17 13:53:56.218750
103,62.39,2022-08-17 13:53:56.234375
104,148.14,2022-08-17 13:53:56.250000
105,223.1,2022-08-17 13:53:56.265625
106,278.97,2022-08-17 13:53:56.281250
107,312.16,2022-08-17 13:53:56.296875
108,324.42,2022-08-17 13:53:56.312500
109,321.46,2022-08-17 13:53:56.328125
110,310.8,2022-08-17 13:53:56.343750
111,299.87,2022-08-17 13:53:56.359375
112,294.87,2022-08-17 13:53:56.375000
113,300.17,2022-08-17 13:53:56.390625
114,317.71,2022-08-17 13:53:56.406250
115,346.13,2022-08-17 13:53:56.421875
116,380.44,2022-08-17 13:53:56.437500
117,412.65,2022-08-17 13:53:56.453125
118,433.83,2022-08-17 13:53:56.468750
119,436.85,2022-08-17 13:53:56.484375
120,418.78,2022-08-17 13:53:56.500000
121,381.59,2022-08-17 13:53:56.515625
122,330.99,2022-08-17 13:53:56.531250
123,274.06,2022-08-17 13:53:56.546875
124,216.8,2022-08-17 13:53:56.562500
125,162.81,2022-08-17 13:53:56.578125
126,113.41,2022-08-17 13:53:56.593750
127,68.72,2022-08-17 13:53:56.609375
128,28.82,2022-08-17 13:53:56.625000
129,-5.84,2022-08-17 13:53:56.640625
130,-34.73,2022-08-17 13:53:56.656250
131,-57.66,2022-08-17 13:53:56.671875
132,-75.2,2022-08-17 13:53:56.687500
133,-88.28,2022-08-17 13:53:56.703125
134,-97.75,2022-08-17 13:53:56.718750
135,-104.11,2022-08-17 13:53:56.734375
136,-107.33,2022-08-17 13:53:56.750000
137,-107.07,2022-08-17 13:53:56.765625
138,-103.18,2022-08-17 13:53:56.781250
139,-96.17,2022-08-17 13:53:56.796875
140,-87.38,2022-08-17 13:53:56.812500
141,-78.85,2022-08-17 13:53:56.828125
142,-72.95,2022-08-17 13:53:56.843750
143,-71.76,2022-08-17 13:53:56.859375
144,-76.8,2022-08-17 13:53:56.875000
145,-88.86,2022-08-17 13:53:56.890625
146,-108.1,2022-08-17 13:53:56.906250
147,-134.13,2022-08-17 13:53:56.921875
148,-165.74,2022-08-17 13:53:56.937500
149,-200.55,2022-08-17 13:53:56.953125
150,-234.95,2022-08-17 13:53:56.968750
151,-264.63,2022-08-17 13:53:56.984375
152,-285.61,2022-08-17 13:53:57.000000
153,-295.6,2022-08-17 13:53:57.015625
154,-294.74,2022-08-17 13:53:57.031250
155,-285.5,2022-08-17 13:53:57.046875
156,-271.85,2022-08-17 13:53:57.062500
157,-257.85,2022-08-17 13:53:57.078125
158,-246.73,2022-08-17 13:53:57.093750
159,-240.41,2022-08-17 13:53:57.109375
160,-239.56,2022-08-17 13:53:57.125000
161,-243.87,2022-08-17 13:53:57.140625
162,-252.33,2022-08-17 13:53:57.156250
163,-263.18,2022-08-17 13:53:57.171875
164,-274.13,2022-08-17 13:53:57.187500
165,-282.7,2022-08-17 13:53:57.203125
166,-286.91,2022-08-17 13:53:57.218750
167,-285.9,2022-08-17 13:53:57.234375
168,-280.36,2022-08-17 13:53:57.250000
169,-272.49,2022-08-17 13:53:57.265625
170,-265.58,2022-08-17 13:53:57.281250
171,-263.18,2022-08-17 13:53:57.296875
172,-268.16,2022-08-17 13:53:57.312500
173,-281.72,2022-08-17 13:53:57.328125
174,-302.83,2022-08-17 13:53:57.343750
175,-328.08,2022-08-17 13:53:57.359375
176,-352.35,2022-08-17 13:53:57.375000
177,-370.11,2022-08-17 13:53:57.390625
178,-376.92,2022-08-17 13:53:57.406250
179,-370.71,2022-08-17 13:53:57.421875
180,-352.17,2022-08-17 13:53:57.437500
181,-324.23,2022-08-17 13:53:57.453125
182,-290.88,2022-08-17 13:53:57.468750
183,-255.84,2022-08-17 13:53:57.484375
184,-221.78,2022-08-17 13:53:57.500000
185,-190.2,2022-08-17 13:53:57.515625
186,-161.66,2022-08-17 13:53:57.531250
187,-136.35,2022-08-17 13:53:57.546875
188,-114.2,2022-08-17 13:53:57.562500
189,-94.79,2022-08-17 13:53:57.578125
190,-77.11,2022-08-17 13:53:57.593750
191,-59.6,2022-08-17 13:53:57.609375
192,-40.4,2022-08-17 13:53:57.625000
193,-18.07,2022-08-17 13:53:57.640625
194,7.98,2022-08-17 13:53:57.656250
195,37.23,2022-08-17 13:53:57.671875
196,68.43,2022-08-17 13:53:57.687500
197,100.15,2022-08-17 13:53:57.703125
198,131.38,2022-08-17 13:53:57.718750
199,162.04,2022-08-17 13:53:57.734375
200,193.02,2022-08-17 13:53:57.750000
201,226.01,2022-08-17 13:53:57.765625
202,262.93,2022-08-17 13:53:57.781250
203,305.0,2022-08-17 13:53:57.796875
204,351.78,2022-08-17 13:53:57.812500
205,400.53,2022-08-17 13:53:57.828125
206,446.35,2022-08-17 13:53:57.843750
207,483.38,2022-08-17 13:53:57.859375
208,506.65,2022-08-17 13:53:57.875000
209,513.81,2022-08-17 13:53:57.890625
210,506.13,2022-08-17 13:53:57.906250
211,488.05,2022-08-17 13:53:57.921875
212,465.67,2022-08-17 13:53:57.937500
213,444.62,2022-08-17 13:53:57.953125
214,428.35,2022-08-17 13:53:57.968750
215,417.33,2022-08-17 13:53:57.984375
216,409.4,2022-08-17 13:53:58.000000
217,400.78,2022-08-17 13:53:58.015625
218,387.45,2022-08-17 13:53:58.031250
219,366.37,2022-08-17 13:53:58.046875
220,336.17,2022-08-17 13:53:58.062500
221,297.29,2022-08-17 13:53:58.078125
222,251.68,2022-08-17 13:53:58.093750
223,202.06,2022-08-17 13:53:58.109375
224,151.12,2022-08-17 13:53:58.125000
225,100.91,2022-08-17 13:53:58.140625
226,52.62,2022-08-17 13:53:58.156250
227,6.39,2022-08-17 13:53:58.171875
228,-38.44,2022-08-17 13:53:58.187500
229,-83.15,2022-08-17 13:53:58.203125
230,-128.91,2022-08-17 13:53:58.218750
231,-175.84,2022-08-17 13:53:58.234375
232,-222.14,2022-08-17 13:53:58.250000
233,-263.71,2022-08-17 13:53:58.265625
234,-294.89,2022-08-17 13:53:58.281250
235,-310.22,2022-08-17 13:53:58.296875
236,-306.52,2022-08-17 13:53:58.312500
237,-284.49,2022-08-17 13:53:58.328125
238,-248.78,2022-08-17 13:53:58.343750
239,-206.74,2022-08-17 13:53:58.359375
240,-166.17,2022-08-17 13:53:58.375000
241,-133.31,2022-08-17 13:53:58.390625
242,-111.55,2022-08-17 13:53:58.406250
243,-101.42,2022-08-17 13:53:58.421875
244,-101.38,2022-08-17 13:53:58.437500
245,-108.78,2022-08-17 13:53:58.453125
246,-120.85,2022-08-17 13:53:58.468750
247,-135.19,2022-08-17 13:53:58.484375
248,-149.93,2022-08-17 13:53:58.500000
249,-163.7,2022-08-17 13:53:58.515625
250,-175.46,2022-08-17 13:53:58.531250
251,-184.36,2022-08-17 13:53:58.546875
252,-189.57,2022-08-17 13:53:58.562500
253,-190.38,2022-08-17 13:53:58.578125
254,-186.22,2022-08-17 13:53:58.593750
255,-176.65,2022-08-17 13:53:58.609375
256,-161.55,2022-08-17 13:53:58.625000
257,-141.06,2022-08-17 13:53:58.640625
258,-115.83,2022-08-17 13:53:58.656250
259,-87.22,2022-08-17 13:53:58.671875
260,-57.43,2022-08-17 13:53:58.687500
261,-29.23,2022-08-17 13:53:58.703125
262,-5.35,2022-08-17 13:53:58.718750
263,12.42,2022-08-17 13:53:58.734375
264,24.05,2022-08-17 13:53:58.750000
265,31.6,2022-08-17 13:53:58.765625
266,38.73,2022-08-17 13:53:58.781250
267,49.48,2022-08-17 13:53:58.796875
268,66.49,2022-08-17 13:53:58.812500
269,89.48,2022-08-17 13:53:58.828125
270,114.41,2022-08-17 13:53:58.843750
271,134.13,2022-08-17 13:53:58.859375
272,140.27,2022-08-17 13:53:58.875000
273,125.91,2022-08-17 13:53:58.890625
274,88.02,2022-08-17 13:53:58.906250
275,28.68,2022-08-17 13:53:58.921875
276,-45.39,2022-08-17 13:53:58.937500
277,-124.76,2022-08-17 13:53:58.953125
278,-199.9,2022-08-17 13:53:58.968750
279,-263.52,2022-08-17 13:53:58.984375
280,-311.73,2022-08-17 13:53:59.000000
281,-343.9,2022-08-17 13:53:59.015625
282,-361.56,2022-08-17 13:53:59.031250
283,-367.07,2022-08-17 13:53:59.046875
284,-362.66,2022-08-17 13:53:59.062500
285,-350.28,2022-08-17 13:53:59.078125
286,-331.85,2022-08-17 13:53:59.093750
287,-309.51,2022-08-17 13:53:59.109375
288,-285.71,2022-08-17 13:53:59.125000
289,-262.73,2022-08-17 13:53:59.140625
290,-242.04,2022-08-17 13:53:59.156250
291,-223.92,2022-08-17 13:53:59.171875
292,-207.57,2022-08-17 13:53:59.187500
293,-191.76,2022-08-17 13:53:59.203125
294,-175.72,2022-08-17 13:53:59.218750
295,-159.61,2022-08-17 13:53:59.234375
296,-144.58,2022-08-17 13:53:59.250000
297,-132.09,2022-08-17 13:53:59.265625
298,-123.23,2022-08-17 13:53:59.281250
299,-118.17,2022-08-17 13:53:59.296875
300,-116.16,2022-08-17 13:53:59.312500
301,-115.88,2022-08-17 13:53:59.328125
302,-116.1,2022-08-17 13:53:59.343750
303,-116.08,2022-08-17 13:53:59.359375
304,-115.68,2022-08-17 13:53:59.375000
305,-115.29,2022-08-17 13:53:59.390625
306,-115.3,2022-08-17 13:53:59.406250
307,-115.77,2022-08-17 13:53:59.421875
308,-116.21,2022-08-17 13:53:59.437500
309,-115.68,2022-08-17 13:53:59.453125
310,-113.08,2022-08-17 13:53:59.468750
311,-107.45,2022-08-17 13:53:59.484375
312,-98.33,2022-08-17 13:53:59.500000
313,-85.73,2022-08-17 13:53:59.515625
314,-70.03,2022-08-17 13:53:59.531250
315,-51.68,2022-08-17 13:53:59.546875
316,-30.87,2022-08-17 13:53:59.562500
317,-7.41,2022-08-17 13:53:59.578125
318,19.23,2022-08-17 13:53:59.593750
319,49.67,2022-08-17 13:53:59.609375
320,84.38,2022-08-17 13:53:59.625000
321,123.38,2022-08-17 13:53:59.640625
322,166.27,2022-08-17 13:53:59.656250
323,212.24,2022-08-17 13:53:59.671875
324,260.29,2022-08-17 13:53:59.687500
325,309.44,2022-08-17 13:53:59.703125
326,358.74,2022-08-17 13:53:59.718750
327,407.38,2022-08-17 13:53:59.734375
328,454.72,2022-08-17 13:53:59.750000
329,500.21,2022-08-17 13:53:59.765625
330,543.27,2022-08-17 13:53:59.781250
331,583.03,2022-08-17 13:53:59.796875
332,618.02,2022-08-17 13:53:59.812500
333,646.25,2022-08-17 13:53:59.828125
334,665.49,2022-08-17 13:53:59.843750
335,673.81,2022-08-17 13:53:59.859375
336,670.29,2022-08-17 13:53:59.875000
337,655.4,2022-08-17 13:53:59.890625
338,630.97,2022-08-17 13:53:59.906250
339,599.69,2022-08-17 13:53:59.921875
340,564.46,2022-08-17 13:53:59.937500
341,527.69,2022-08-17 13:53:59.953125
342,491.08,2022-08-17 13:53:59.968750
343,455.6,2022-08-17 13:53:59.984375
344,421.74,2022-08-17 13:54:00.000000
345,389.82,2022-08-17 13:54:00.015625
346,359.93,2022-08-17 13:54:00.031250
347,331.94,2022-08-17 13:54:00.046875
348,305.38,2022-08-17 13:54:00.062500
349,279.26,2022-08-17 13:54:00.078125
350,252.22,2022-08-17 13:54:00.093750
351,222.59,2022-08-17 13:54:00.109375
352,188.76,2022-08-17 13:54:00.125000
353,149.35,2022-08-17 13:54:00.140625
354,103.63,2022-08-17 13:54:00.156250
355,51.9,2022-08-17 13:54:00.171875
356,-4.07,2022-08-17 13:54:00.187500
357,-60.95,2022-08-17 13:54:00.203125
358,-114.29,2022-08-17 13:54:00.218750
359,-159.54,2022-08-17 13:54:00.234375
360,-193.3,2022-08-17 13:54:00.250000
361,-214.4,2022-08-17 13:54:00.265625
362,-224.21,2022-08-17 13:54:00.281250
363,-225.9,2022-08-17 13:54:00.296875
364,-223.21,2022-08-17 13:54:00.312500
365,-219.1,2022-08-17 13:54:00.328125
366,-215.29,2022-08-17 13:54:00.343750
367,-212.44,2022-08-17 13:54:00.359375
368,-210.74,2022-08-17 13:54:00.375000
369,-210.32,2022-08-17 13:54:00.390625
370,-211.19,2022-08-17 13:54:00.406250
371,-212.83,2022-08-17 13:54:00.421875
372,-213.9,2022-08-17 13:54:00.437500
373,-212.37,2022-08-17 13:54:00.453125
374,-206.07,2022-08-17 13:54:00.468750
375,-193.88,2022-08-17 13:54:00.484375
376,-176.43,2022-08-17 13:54:00.500000
377,-156.27,2022-08-17 13:54:00.515625
378,-137.36,2022-08-17 13:54:00.531250
379,-124.1,2022-08-17 13:54:00.546875
380,-120.29,2022-08-17 13:54:00.562500
381,-128.37,2022-08-17 13:54:00.578125
382,-148.62,2022-08-17 13:54:00.593750
383,-178.41,2022-08-17 13:54:00.609375
384,-212.61,2022-08-17 13:54:00.625000
385,-244.61,2022-08-17 13:54:00.640625
386,-267.6,2022-08-17 13:54:00.656250
387,-276.41,2022-08-17 13:54:00.671875
388,-269.12,2022-08-17 13:54:00.687500
389,-247.61,2022-08-17 13:54:00.703125
390,-217.0,2022-08-17 13:54:00.718750
391,-183.17,2022-08-17 13:54:00.734375
392,-149.42,2022-08-17 13:54:00.750000
393,-115.7,2022-08-17 13:54:00.765625
394,-79.31,2022-08-17 13:54:00.781250
395,-36.57,2022-08-17 13:54:00.796875
396,14.46,2022-08-17 13:54:00.812500
397,72.3,2022-08-17 13:54:00.828125
398,132.42,2022-08-17 13:54:00.843750
399,188.76,2022-08-17 13:54:00.859375
400,236.63,2022-08-17 13:54:00.875000
401,275.2,2022-08-17 13:54:00.890625
402,305.32,2022-08-17 13:54:00.906250
403,327.12,2022-08-17 13:54:00.921875
404,339.16,2022-08-17 13:54:00.937500
405,338.49,2022-08-17 13:54:00.953125
406,322.23,2022-08-17 13:54:00.968750
407,289.4,2022-08-17 13:54:00.984375
408,241.21,2022-08-17 13:54:01.000000
409,181.18,2022-08-17 13:54:01.015625
410,115.38,2022-08-17 13:54:01.031250
411,49.44,2022-08-17 13:54:01.046875
412,-12.62,2022-08-17 13:54:01.062500
413,-67.12,2022-08-17 13:54:01.078125
414,-110.76,2022-08-17 13:54:01.093750
415,-141.29,2022-08-17 13:54:01.109375
416,-154.22,2022-08-17 13:54:01.125000
417,-148.15,2022-08-17 13:54:01.140625
418,-134.03,2022-08-17 13:54:01.156250
419,-119.15,2022-08-17 13:54:01.171875
420,-102.49,2022-08-17 13:54:01.187500
421,-80.83,2022-08-17 13:54:01.203125
422,-50.49,2022-08-17 13:54:01.218750
423,-10.95,2022-08-17 13:54:01.234375
424,32.79,2022-08-17 13:54:01.250000
425,71.0,2022-08-17 13:54:01.265625
426,92.57,2022-08-17 13:54:01.281250
427,90.89,2022-08-17 13:54:01.296875
428,68.82,2022-08-17 13:54:01.312500
429,36.41,2022-08-17 13:54:01.328125
430,5.89,2022-08-17 13:54:01.343750
431,-13.08,2022-08-17 13:54:01.359375
432,-17.48,2022-08-17 13:54:01.375000
433,-11.59,2022-08-17 13:54:01.390625
434,-4.38,2022-08-17 13:54:01.406250
435,-5.61,2022-08-17 13:54:01.421875
436,-21.46,2022-08-17 13:54:01.437500
437,-51.17,2022-08-17 13:54:01.453125
438,-88.7,2022-08-17 13:54:01.468750
439,-125.23,2022-08-17 13:54:01.484375
440,-151.1,2022-08-17 13:54:01.500000
441,-158.57,2022-08-17 13:54:01.515625
442,-143.94,2022-08-17 13:54:01.531250
443,-108.86,2022-08-17 13:54:01.546875
444,-60.53,2022-08-17 13:54:01.562500
445,-9.65,2022-08-17 13:54:01.578125
446,32.99,2022-08-17 13:54:01.593750
447,58.9,2022-08-17 13:54:01.609375
448,64.18,2022-08-17 13:54:01.625000
449,50.95,2022-08-17 13:54:01.640625
450,26.24,2022-08-17 13:54:01.656250
451,-1.07,2022-08-17 13:54:01.671875
452,-23.93,2022-08-17 13:54:01.687500
453,-40.08,2022-08-17 13:54:01.703125
454,-52.42,2022-08-17 13:54:01.718750
455,-66.5,2022-08-17 13:54:01.734375
456,-87.19,2022-08-17 13:54:01.750000
457,-115.36,2022-08-17 13:54:01.765625
458,-146.54,2022-08-17 13:54:01.781250
459,-172.44,2022-08-17 13:54:01.796875
460,-184.85,2022-08-17 13:54:01.812500
461,-178.94,2022-08-17 13:54:01.828125
462,-154.96,2022-08-17 13:54:01.843750
463,-117.09,2022-08-17 13:54:01.859375
464,-70.82,2022-08-17 13:54:01.875000
465,-20.73,2022-08-17 13:54:01.890625
466,30.28,2022-08-17 13:54:01.906250
467,80.22,2022-08-17 13:54:01.921875
468,126.73,2022-08-17 13:54:01.937500
469,166.26,2022-08-17 13:54:01.953125
470,194.68,2022-08-17 13:54:01.968750
471,208.83,2022-08-17 13:54:01.984375
472,208.33,2022-08-17 13:54:02.000000
473,196.45,2022-08-17 13:54:02.015625
474,179.47,2022-08-17 13:54:02.031250
475,164.51,2022-08-17 13:54:02.046875
476,157.01,2022-08-17 13:54:02.062500
477,158.58,2022-08-17 13:54:02.078125
478,166.29,2022-08-17 13:54:02.093750
479,173.65,2022-08-17 13:54:02.109375
480,173.23,2022-08-17 13:54:02.125000
481,159.71,2022-08-17 13:54:02.140625
482,132.36,2022-08-17 13:54:02.156250
483,95.83,2022-08-17 13:54:02.171875
484,58.79,2022-08-17 13:54:02.187500
485,31.07,2022-08-17 13:54:02.203125
486,20.42,2022-08-17 13:54:02.218750
487,30.24,2022-08-17 13:54:02.234375
488,58.85,2022-08-17 13:54:02.250000
489,100.47,2022-08-17 13:54:02.265625
490,146.95,2022-08-17 13:54:02.281250
491,189.62,2022-08-17 13:54:02.296875
492,220.9,2022-08-17 13:54:02.312500
493,235.49,2022-08-17 13:54:02.328125
494,231.22,2022-08-17 13:54:02.343750
495,209.37,2022-08-17 13:54:02.359375
496,174.32,2022-08-17 13:54:02.375000
497,132.17,2022-08-17 13:54:02.390625
498,88.99,2022-08-17 13:54:02.406250
499,49.13,2022-08-17 13:54:02.421875
500,14.62,2022-08-17 13:54:02.437500
501,-14.36,2022-08-17 13:54:02.453125
502,-38.14,2022-08-17 13:54:02.468750
503,-56.56,2022-08-17 13:54:02.484375
504,-68.99,2022-08-17 13:54:02.500000
505,-75.03,2022-08-17 13:54:02.515625
506,-75.49,2022-08-17 13:54:02.531250
507,-72.64,2022-08-17 13:54:02.546875
508,-69.59,2022-08-17 13:54:02.562500
509,-69.01,2022-08-17 13:54:02.578125
510,-72.09,2022-08-17 13:54:02.593750
511,-78.29,2022-08-17 13:54:02.609375
512,-85.88,2022-08-17 13:54:02.625000
513,-93.04,2022-08-17 13:54:02.640625
514,-98.78,2022-08-17 13:54:02.656250
515,-103.12,2022-08-17 13:54:02.671875
516,-106.8,2022-08-17 13:54:02.687500
517,-110.56,2022-08-17 13:54:02.703125
518,-114.67,2022-08-17 13:54:02.718750
519,-118.71,2022-08-17 13:54:02.734375
520,-121.87,2022-08-17 13:54:02.750000
521,-123.31,2022-08-17 13:54:02.765625
522,-122.62,2022-08-17 13:54:02.781250
523,-119.93,2022-08-17 13:54:02.796875
524,-115.91,2022-08-17 13:54:02.812500
525,-111.45,2022-08-17 13:54:02.828125
526,-107.37,2022-08-17 13:54:02.843750
527,-104.1,2022-08-17 13:54:02.859375
528,-101.54,2022-08-17 13:54:02.875000
529,-99.15,2022-08-17 13:54:02.890625
530,-96.15,2022-08-17 13:54:02.906250
531,-91.77,2022-08-17 13:54:02.921875
532,-85.52,2022-08-17 13:54:02.937500
533,-77.37,2022-08-17 13:54:02.953125
534,-67.68,2022-08-17 13:54:02.968750
535,-57.05,2022-08-17 13:54:02.984375
536,-46.04,2022-08-17 13:54:03.000000
537,-35.01,2022-08-17 13:54:03.015625
538,-24.16,2022-08-17 13:54:03.031250
539,-13.66,2022-08-17 13:54:03.046875
540,-3.93,2022-08-17 13:54:03.062500
541,4.34,2022-08-17 13:54:03.078125
542,10.33,2022-08-17 13:54:03.093750
543,13.49,2022-08-17 13:54:03.109375
544,13.97,2022-08-17 13:54:03.125000
545,12.65,2022-08-17 13:54:03.140625
546,10.95,2022-08-17 13:54:03.156250
547,10.22,2022-08-17 13:54:03.171875
548,11.3,2022-08-17 13:54:03.187500
549,14.14,2022-08-17 13:54:03.203125
550,17.87,2022-08-17 13:54:03.218750
551,21.15,2022-08-17 13:54:03.234375
552,22.49,2022-08-17 13:54:03.250000
553,20.77,2022-08-17 13:54:03.265625
554,15.44,2022-08-17 13:54:03.281250
555,6.75,2022-08-17 13:54:03.296875
556,-4.32,2022-08-17 13:54:03.312500
557,-16.17,2022-08-17 13:54:03.328125
558,-27.08,2022-08-17 13:54:03.343750
559,-35.68,2022-08-17 13:54:03.359375
560,-41.31,2022-08-17 13:54:03.375000
561,-44.12,2022-08-17 13:54:03.390625
562,-44.75,2022-08-17 13:54:03.406250
563,-43.87,2022-08-17 13:54:03.421875
564,-41.76,2022-08-17 13:54:03.437500
565,-38.23,2022-08-17 13:54:03.453125
566,-32.81,2022-08-17 13:54:03.468750
567,-25.14,2022-08-17 13:54:03.484375
568,-15.29,2022-08-17 13:54:03.500000
569,-3.72,2022-08-17 13:54:03.515625
570,8.88,2022-08-17 13:54:03.531250
571,21.8,2022-08-17 13:54:03.546875
572,34.48,2022-08-17 13:54:03.562500
573,46.45,2022-08-17 13:54:03.578125
574,57.25,2022-08-17 13:54:03.593750
575,66.28,2022-08-17 13:54:03.609375
576,72.95,2022-08-17 13:54:03.625000
577,76.79,2022-08-17 13:54:03.640625
578,77.64,2022-08-17 13:54:03.656250
579,75.65,2022-08-17 13:54:03.671875
580,71.12,2022-08-17 13:54:03.687500
581,64.27,2022-08-17 13:54:03.703125
582,55.1,2022-08-17 13:54:03.718750
583,43.24,2022-08-17 13:54:03.734375
584,28.04,2022-08-17 13:54:03.750000
585,8.84,2022-08-17 13:54:03.765625
586,-14.56,2022-08-17 13:54:03.781250
587,-41.31,2022-08-17 13:54:03.796875
588,-69.16,2022-08-17 13:54:03.812500
589,-94.67,2022-08-17 13:54:03.828125
590,-114.15,2022-08-17 13:54:03.843750
591,-124.92,2022-08-17 13:54:03.859375
592,-126.51,2022-08-17 13:54:03.875000
593,-120.93,2022-08-17 13:54:03.890625
594,-111.9,2022-08-17 13:54:03.906250
595,-103.36,2022-08-17 13:54:03.921875
596,-97.92,2022-08-17 13:54:03.937500
597,-96.07,2022-08-17 13:54:03.953125
598,-96.17,2022-08-17 13:54:03.968750
599,-95.15,2022-08-17 13:54:03.984375
600,-89.39,2022-08-17 13:54:04.000000
601,-75.67,2022-08-17 13:54:04.015625
602,-52.05,2022-08-17 13:54:04.031250
603,-18.59,2022-08-17 13:54:04.046875
604,22.17,2022-08-17 13:54:04.062500
605,65.41,2022-08-17 13:54:04.078125
606,104.97,2022-08-17 13:54:04.093750
607,134.96,2022-08-17 13:54:04.109375
608,151.33,2022-08-17 13:54:04.125000
609,152.95,2022-08-17 13:54:04.140625
610,141.6,2022-08-17 13:54:04.156250
611,121.11,2022-08-17 13:54:04.171875
612,96.16,2022-08-17 13:54:04.187500
613,71.07,2022-08-17 13:54:04.203125
614,49.17,2022-08-17 13:54:04.218750
615,32.48,2022-08-17 13:54:04.234375
616,21.6,2022-08-17 13:54:04.250000
617,15.83,2022-08-17 13:54:04.265625
618,13.34,2022-08-17 13:54:04.281250
619,11.61,2022-08-17 13:54:04.296875
620,8.07,2022-08-17 13:54:04.312500
621,0.8,2022-08-17 13:54:04.328125
622,-10.94,2022-08-17 13:54:04.343750
623,-26.49,2022-08-17 13:54:04.359375
624,-44.02,2022-08-17 13:54:04.375000
625,-61.09,2022-08-17 13:54:04.390625
626,-75.45,2022-08-17 13:54:04.406250
627,-85.79,2022-08-17 13:54:04.421875
628,-92.18,2022-08-17 13:54:04.437500
629,-95.99,2022-08-17 13:54:04.453125
630,-99.36,2022-08-17 13:54:04.468750
631,-104.43,2022-08-17 13:54:04.484375
632,-112.48,2022-08-17 13:54:04.500000
633,-123.27,2022-08-17 13:54:04.515625
634,-134.82,2022-08-17 13:54:04.531250
635,-143.74,2022-08-17 13:54:04.546875
636,-146.08,2022-08-17 13:54:04.562500
637,-138.56,2022-08-17 13:54:04.578125
638,-119.82,2022-08-17 13:54:04.593750
639,-91.13,2022-08-17 13:54:04.609375
640,-56.27,2022-08-17 13:54:04.625000
641,-20.56,2022-08-17 13:54:04.640625
642,10.83,2022-08-17 13:54:04.656250
643,34.21,2022-08-17 13:54:04.671875
644,48.22,2022-08-17 13:54:04.687500
645,53.59,2022-08-17 13:54:04.703125
646,52.27,2022-08-17 13:54:04.718750
647,46.36,2022-08-17 13:54:04.734375
648,37.48,2022-08-17 13:54:04.750000
649,26.81,2022-08-17 13:54:04.765625
650,15.48,2022-08-17 13:54:04.781250
651,4.96,2022-08-17 13:54:04.796875
652,-3.04,2022-08-17 13:54:04.812500
653,-7.14,2022-08-17 13:54:04.828125
654,-6.94,2022-08-17 13:54:04.843750
655,-3.47,2022-08-17 13:54:04.859375
656,1.14,2022-08-17 13:54:04.875000
657,4.43,2022-08-17 13:54:04.890625
658,4.57,2022-08-17 13:54:04.906250
659,1.03,2022-08-17 13:54:04.921875
660,-5.44,2022-08-17 13:54:04.937500
661,-13.45,2022-08-17 13:54:04.953125
662,-21.75,2022-08-17 13:54:04.968750
663,-29.84,2022-08-17 13:54:04.984375
664,-38.17,2022-08-17 13:54:05.000000
665,-47.76,2022-08-17 13:54:05.015625
666,-59.47,2022-08-17 13:54:05.031250
667,-73.48,2022-08-17 13:54:05.046875
668,-88.83,2022-08-17 13:54:05.062500
669,-103.51,2022-08-17 13:54:05.078125
670,-114.95,2022-08-17 13:54:05.093750
671,-120.61,2022-08-17 13:54:05.109375
672,-118.7,2022-08-17 13:54:05.125000
673,-108.62,2022-08-17 13:54:05.140625
674,-91.14,2022-08-17 13:54:05.156250
675,-68.09,2022-08-17 13:54:05.171875
676,-41.81,2022-08-17 13:54:05.187500
677,-14.4,2022-08-17 13:54:05.203125
678,12.72,2022-08-17 13:54:05.218750
679,39.02,2022-08-17 13:54:05.234375
680,64.44,2022-08-17 13:54:05.250000
681,88.96,2022-08-17 13:54:05.265625
682,112.07,2022-08-17 13:54:05.281250
683,132.79,2022-08-17 13:54:05.296875
684,149.98,2022-08-17 13:54:05.312500
685,162.85,2022-08-17 13:54:05.328125
686,171.38,2022-08-17 13:54:05.343750
687,176.25,2022-08-17 13:54:05.359375
688,178.54,2022-08-17 13:54:05.375000
689,179.18,2022-08-17 13:54:05.390625
690,178.54,2022-08-17 13:54:05.406250
691,176.44,2022-08-17 13:54:05.421875
692,172.39,2022-08-17 13:54:05.437500
693,166.0,2022-08-17 13:54:05.453125
694,157.22,2022-08-17 13:54:05.468750
695,146.42,2022-08-17 13:54:05.484375
696,134.25,2022-08-17 13:54:05.500000
697,121.41,2022-08-17 13:54:05.515625
698,108.45,2022-08-17 13:54:05.531250
699,95.73,2022-08-17 13:54:05.546875
700,83.36,2022-08-17 13:54:05.562500
701,71.41,2022-08-17 13:54:05.578125
702,60.06,2022-08-17 13:54:05.593750
703,49.78,2022-08-17 13:54:05.609375
704,41.28,2022-08-17 13:54:05.625000
705,35.33,2022-08-17 13:54:05.640625
706,32.32,2022-08-17 13:54:05.656250
707,31.98,2022-08-17 13:54:05.671875
708,33.17,2022-08-17 13:54:05.687500
709,34.12,2022-08-17 13:54:05.703125
710,32.89,2022-08-17 13:54:05.718750
711,28.08,2022-08-17 13:54:05.734375
712,19.39,2022-08-17 13:54:05.750000
713,7.67,2022-08-17 13:54:05.765625
714,-5.52,2022-08-17 13:54:05.781250
715,-18.83,2022-08-17 13:54:05.796875
716,-32.0,2022-08-17 13:54:05.812500
717,-46.27,2022-08-17 13:54:05.828125
718,-64.03,2022-08-17 13:54:05.843750
719,-87.79,2022-08-17 13:54:05.859375
720,-118.79,2022-08-17 13:54:05.875000
721,-155.93,2022-08-17 13:54:05.890625
722,-195.38,2022-08-17 13:54:05.906250
723,-231.12,2022-08-17 13:54:05.921875
724,-256.36,2022-08-17 13:54:05.937500
725,-265.54,2022-08-17 13:54:05.953125
726,-256.12,2022-08-17 13:54:05.968750
727,-229.59,2022-08-17 13:54:05.984375
728,-191.09,2022-08-17 13:54:06.000000
729,-147.96,2022-08-17 13:54:06.015625
730,-107.56,2022-08-17 13:54:06.031250
731,-75.46,2022-08-17 13:54:06.046875
732,-54.56,2022-08-17 13:54:06.062500
733,-45.15,2022-08-17 13:54:06.078125
734,-45.84,2022-08-17 13:54:06.093750
735,-54.57,2022-08-17 13:54:06.109375
736,-69.33,2022-08-17 13:54:06.125000
737,-88.5,2022-08-17 13:54:06.140625
738,-110.74,2022-08-17 13:54:06.156250
739,-134.66,2022-08-17 13:54:06.171875
740,-158.44,2022-08-17 13:54:06.187500
741,-179.46,2022-08-17 13:54:06.203125
742,-194.3,2022-08-17 13:54:06.218750
743,-199.27,2022-08-17 13:54:06.234375
744,-191.25,2022-08-17 13:54:06.250000
745,-168.78,2022-08-17 13:54:06.265625
746,-132.81,2022-08-17 13:54:06.281250
747,-86.72,2022-08-17 13:54:06.296875
748,-35.54,2022-08-17 13:54:06.312500
749,15.2,2022-08-17 13:54:06.328125
750,60.68,2022-08-17 13:54:06.343750
751,97.48,2022-08-17 13:54:06.359375
752,123.8,2022-08-17 13:54:06.375000
753,139.27,2022-08-17 13:54:06.390625
754,144.7,2022-08-17 13:54:06.406250
755,141.77,2022-08-17 13:54:06.421875
756,132.94,2022-08-17 13:54:06.437500
757,121.26,2022-08-17 13:54:06.453125
758,110.14,2022-08-17 13:54:06.468750
759,102.78,2022-08-17 13:54:06.484375
760,101.54,2022-08-17 13:54:06.500000
761,107.23,2022-08-17 13:54:06.515625
762,118.71,2022-08-17 13:54:06.531250
763,133.04,2022-08-17 13:54:06.546875
764,146.25,2022-08-17 13:54:06.562500
765,154.67,2022-08-17 13:54:06.578125
766,156.05,2022-08-17 13:54:06.593750
767,150.32,2022-08-17 13:54:06.609375
768,139.39,2022-08-17 13:54:06.625000
769,126.4,2022-08-17 13:54:06.640625
770,114.57,2022-08-17 13:54:06.656250
771,106.26,2022-08-17 13:54:06.671875
772,102.35,2022-08-17 13:54:06.687500
773,102.09,2022-08-17 13:54:06.703125
774,103.49,2022-08-17 13:54:06.718750
775,104.01,2022-08-17 13:54:06.734375
776,101.43,2022-08-17 13:54:06.750000
777,94.6,2022-08-17 13:54:06.765625
778,83.84,2022-08-17 13:54:06.781250
779,70.79,2022-08-17 13:54:06.796875
780,57.82,2022-08-17 13:54:06.812500
781,47.2,2022-08-17 13:54:06.828125
782,40.42,2022-08-17 13:54:06.843750
783,37.9,2022-08-17 13:54:06.859375
784,39.13,2022-08-17 13:54:06.875000
785,43.1,2022-08-17 13:54:06.890625
786,48.66,2022-08-17 13:54:06.906250
787,54.79,2022-08-17 13:54:06.921875
788,60.53,2022-08-17 13:54:06.937500
789,64.9,2022-08-17 13:54:06.953125
790,67.01,2022-08-17 13:54:06.968750
791,66.24,2022-08-17 13:54:06.984375
792,62.61,2022-08-17 13:54:07.000000
793,56.78,2022-08-17 13:54:07.015625
794,49.91,2022-08-17 13:54:07.031250
795,43.21,2022-08-17 13:54:07.046875
796,37.52,2022-08-17 13:54:07.062500
797,33.2,2022-08-17 13:54:07.078125
798,30.16,2022-08-17 13:54:07.093750
799,28.23,2022-08-17 13:54:07.109375
800,27.36,2022-08-17 13:54:07.125000
801,27.7,2022-08-17 13:54:07.140625
802,29.38,2022-08-17 13:54:07.156250
803,32.18,2022-08-17 13:54:07.171875
804,35.35,2022-08-17 13:54:07.187500
805,37.56,2022-08-17 13:54:07.203125
806,37.31,2022-08-17 13:54:07.218750
807,33.25,2022-08-17 13:54:07.234375
808,24.59,2022-08-17 13:54:07.250000
809,11.21,2022-08-17 13:54:07.265625
810,-6.39,2022-08-17 13:54:07.281250
811,-27.24,2022-08-17 13:54:07.296875
812,-49.96,2022-08-17 13:54:07.312500
813,-72.64,2022-08-17 13:54:07.328125
814,-92.82,2022-08-17 13:54:07.343750
815,-107.75,2022-08-17 13:54:07.359375
816,-115.05,2022-08-17 13:54:07.375000
817,-113.63,2022-08-17 13:54:07.390625
818,-104.37,2022-08-17 13:54:07.406250
819,-90.17,2022-08-17 13:54:07.421875
820,-75.23,2022-08-17 13:54:07.437500
821,-63.81,2022-08-17 13:54:07.453125
822,-59.02,2022-08-17 13:54:07.468750
823,-62.33,2022-08-17 13:54:07.484375
824,-73.54,2022-08-17 13:54:07.500000
825,-91.56,2022-08-17 13:54:07.515625
826,-114.98,2022-08-17 13:54:07.531250
827,-142.17,2022-08-17 13:54:07.546875
828,-170.98,2022-08-17 13:54:07.562500
829,-198.14,2022-08-17 13:54:07.578125
830,-219.28,2022-08-17 13:54:07.593750
831,-229.8,2022-08-17 13:54:07.609375
832,-226.36,2022-08-17 13:54:07.625000
833,-208.23,2022-08-17 13:54:07.640625
834,-177.64,2022-08-17 13:54:07.656250
835,-139.0,2022-08-17 13:54:07.671875
836,-97.36,2022-08-17 13:54:07.687500
837,-56.79,2022-08-17 13:54:07.703125
838,-19.82,2022-08-17 13:54:07.718750
839,12.31,2022-08-17 13:54:07.734375
840,38.65,2022-08-17 13:54:07.750000
841,57.9,2022-08-17 13:54:07.765625
842,68.66,2022-08-17 13:54:07.781250
843,70.47,2022-08-17 13:54:07.796875
844,64.82,2022-08-17 13:54:07.812500
845,55.18,2022-08-17 13:54:07.828125
846,45.97,2022-08-17 13:54:07.843750
847,40.6,2022-08-17 13:54:07.859375
848,40.18,2022-08-17 13:54:07.875000
849,43.39,2022-08-17 13:54:07.890625
850,47.71,2022-08-17 13:54:07.906250
851,51.2,2022-08-17 13:54:07.921875
852,53.66,2022-08-17 13:54:07.937500
853,56.45,2022-08-17 13:54:07.953125
854,61.41,2022-08-17 13:54:07.968750
855,69.4,2022-08-17 13:54:07.984375
856,79.61,2022-08-17 13:54:08.000000
857,89.93,2022-08-17 13:54:08.015625
858,98.04,2022-08-17 13:54:08.031250
859,102.53,2022-08-17 13:54:08.046875
860,103.17,2022-08-17 13:54:08.062500
861,100.54,2022-08-17 13:54:08.078125
862,95.22,2022-08-17 13:54:08.093750
863,87.39,2022-08-17 13:54:08.109375
864,76.88,2022-08-17 13:54:08.125000
865,63.58,2022-08-17 13:54:08.140625
866,47.98,2022-08-17 13:54:08.156250
867,31.12,2022-08-17 13:54:08.171875
868,14.37,2022-08-17 13:54:08.187500
869,-1.0,2022-08-17 13:54:08.203125
870,-14.12,2022-08-17 13:54:08.218750
871,-24.54,2022-08-17 13:54:08.234375
872,-32.25,2022-08-17 13:54:08.250000
873,-37.69,2022-08-17 13:54:08.265625
874,-41.7,2022-08-17 13:54:08.281250
875,-45.38,2022-08-17 13:54:08.296875
876,-49.75,2022-08-17 13:54:08.312500
877,-55.47,2022-08-17 13:54:08.328125
878,-62.43,2022-08-17 13:54:08.343750
879,-69.84,2022-08-17 13:54:08.359375
880,-76.62,2022-08-17 13:54:08.375000
881,-81.82,2022-08-17 13:54:08.390625
882,-85.15,2022-08-17 13:54:08.406250
883,-87.1,2022-08-17 13:54:08.421875
884,-88.73,2022-08-17 13:54:08.437500
885,-91.31,2022-08-17 13:54:08.453125
886,-95.76,2022-08-17 13:54:08.468750
887,-102.23,2022-08-17 13:54:08.484375
888,-109.76,2022-08-17 13:54:08.500000
889,-116.16,2022-08-17 13:54:08.515625
890,-118.24,2022-08-17 13:54:08.531250
891,-112.58,2022-08-17 13:54:08.546875
892,-96.65,2022-08-17 13:54:08.562500
893,-69.93,2022-08-17 13:54:08.578125
894,-34.55,2022-08-17 13:54:08.593750
895,4.98,2022-08-17 13:54:08.609375
896,43.12,2022-08-17 13:54:08.625000
897,74.95,2022-08-17 13:54:08.640625
898,97.58,2022-08-17 13:54:08.656250
899,110.71,2022-08-17 13:54:08.671875
900,116.02,2022-08-17 13:54:08.687500
901,116.05,2022-08-17 13:54:08.703125
902,113.03,2022-08-17 13:54:08.718750
903,108.27,2022-08-17 13:54:08.734375
904,102.34,2022-08-17 13:54:08.750000
905,95.42,2022-08-17 13:54:08.765625
906,87.71,2022-08-17 13:54:08.781250
907,79.43,2022-08-17 13:54:08.796875
908,70.92,2022-08-17 13:54:08.812500
909,62.64,2022-08-17 13:54:08.828125
910,55.47,2022-08-17 13:54:08.843750
911,50.81,2022-08-17 13:54:08.859375
912,50.2,2022-08-17 13:54:08.875000
913,54.61,2022-08-17 13:54:08.890625
914,63.73,2022-08-17 13:54:08.906250
915,75.83,2022-08-17 13:54:08.921875
916,88.46,2022-08-17 13:54:08.937500
917,99.63,2022-08-17 13:54:08.953125
918,108.84,2022-08-17 13:54:08.968750
919,116.99,2022-08-17 13:54:08.984375
920,125.41,2022-08-17 13:54:09.000000
921,134.36,2022-08-17 13:54:09.015625
922,142.14,2022-08-17 13:54:09.031250
923,145.26,2022-08-17 13:54:09.046875
924,139.84,2022-08-17 13:54:09.062500
925,123.02,2022-08-17 13:54:09.078125
926,93.95,2022-08-17 13:54:09.093750
927,53.8,2022-08-17 13:54:09.109375
928,5.26,2022-08-17 13:54:09.125000
929,-47.66,2022-08-17 13:54:09.140625
930,-99.83,2022-08-17 13:54:09.156250
931,-145.1,2022-08-17 13:54:09.171875
932,-177.1,2022-08-17 13:54:09.187500
933,-190.72,2022-08-17 13:54:09.203125
934,-183.9,2022-08-17 13:54:09.218750
935,-158.66,2022-08-17 13:54:09.234375
936,-120.8,2022-08-17 13:54:09.250000
937,-78.19,2022-08-17 13:54:09.265625
938,-38.39,2022-08-17 13:54:09.281250
939,-6.71,2022-08-17 13:54:09.296875
940,14.59,2022-08-17 13:54:09.312500
941,25.83,2022-08-17 13:54:09.328125
942,28.86,2022-08-17 13:54:09.343750
943,25.86,2022-08-17 13:54:09.359375
944,18.7,2022-08-17 13:54:09.375000
945,8.67,2022-08-17 13:54:09.390625
946,-3.57,2022-08-17 13:54:09.406250
947,-17.69,2022-08-17 13:54:09.421875
948,-33.63,2022-08-17 13:54:09.437500
949,-51.24,2022-08-17 13:54:09.453125
950,-70.29,2022-08-17 13:54:09.468750
951,-90.45,2022-08-17 13:54:09.484375
952,-111.58,2022-08-17 13:54:09.500000
953,-133.68,2022-08-17 13:54:09.515625
954,-156.86,2022-08-17 13:54:09.531250
955,-180.98,2022-08-17 13:54:09.546875
956,-205.19,2022-08-17 13:54:09.562500
957,-227.82,2022-08-17 13:54:09.578125
958,-246.47,2022-08-17 13:54:09.593750
959,-258.8,2022-08-17 13:54:09.609375
960,-263.26,2022-08-17 13:54:09.625000
961,-259.52,2022-08-17 13:54:09.640625
962,-248.2,2022-08-17 13:54:09.656250
963,-230.24,2022-08-17 13:54:09.671875
964,-206.05,2022-08-17 13:54:09.687500
965,-175.29,2022-08-17 13:54:09.703125
966,-137.36,2022-08-17 13:54:09.718750
967,-92.46,2022-08-17 13:54:09.734375
968,-42.49,2022-08-17 13:54:09.750000
969,8.77,2022-08-17 13:54:09.765625
970,56.56,2022-08-17 13:54:09.781250
971,96.69,2022-08-17 13:54:09.796875
972,126.97,2022-08-17 13:54:09.812500
973,147.69,2022-08-17 13:54:09.828125
974,161.05,2022-08-17 13:54:09.843750
975,169.72,2022-08-17 13:54:09.859375
976,175.55,2022-08-17 13:54:09.875000
977,178.92,2022-08-17 13:54:09.890625
978,179.08,2022-08-17 13:54:09.906250
979,174.92,2022-08-17 13:54:09.921875
980,166.2,2022-08-17 13:54:09.937500
981,153.88,2022-08-17 13:54:09.953125
982,139.99,2022-08-17 13:54:09.968750
983,126.95,2022-08-17 13:54:09.984375
984,116.64,2022-08-17 13:54:10.000000
985,109.64,2022-08-17 13:54:10.015625
986,104.85,2022-08-17 13:54:10.031250
987,99.56,2022-08-17 13:54:10.046875
988,90.19,2022-08-17 13:54:10.062500
989,73.97,2022-08-17 13:54:10.078125
990,50.1,2022-08-17 13:54:10.093750
991,20.28,2022-08-17 13:54:10.109375
992,-11.91,2022-08-17 13:54:10.125000
993,-42.34,2022-08-17 13:54:10.140625
994,-67.98,2022-08-17 13:54:10.156250
995,-87.9,2022-08-17 13:54:10.171875
996,-103.52,2022-08-17 13:54:10.187500
997,-118.09,2022-08-17 13:54:10.203125
998,-135.09,2022-08-17 13:54:10.218750
999,-157.3,2022-08-17 13:54:10.234375
1000,-186.17,2022-08-17 13:54:10.250000
1001,-221.41,2022-08-17 13:54:10.265625
1002,-260.52,2022-08-17 13:54:10.281250
1003,-298.72,2022-08-17 13:54:10.296875
1004,-329.47,2022-08-17 13:54:10.312500
1005,-345.94,2022-08-17 13:54:10.328125
1006,-343.45,2022-08-17 13:54:10.343750
1007,-320.49,2022-08-17 13:54:10.359375
1008,-279.57,2022-08-17 13:54:10.375000
1009,-226.52,2022-08-17 13:54:10.390625
1010,-168.64,2022-08-17 13:54:10.406250
1011,-112.82,2022-08-17 13:54:10.421875
1012,-64.12,2022-08-17 13:54:10.437500
1013,-25.58,2022-08-17 13:54:10.453125
1014,4.27,2022-08-17 13:54:10.468750
1015,24.81,2022-08-17 13:54:10.484375
1016,34.66,2022-08-17 13:54:10.500000
1017,32.91,2022-08-17 13:54:10.515625
1018,20.4,2022-08-17 13:54:10.531250
1019,-0.04,2022-08-17 13:54:10.546875
1020,-24.39,2022-08-17 13:54:10.562500
1021,-48.92,2022-08-17 13:54:10.578125
1022,-71.17,2022-08-17 13:54:10.593750
1023,-91.04,2022-08-17 13:54:10.609375
1024,-109.28,2022-08-17 13:54:10.625000
1025,-126.38,2022-08-17 13:54:10.640625
1026,-142.15,2022-08-17 13:54:10.656250
1027,-155.7,2022-08-17 13:54:10.671875
1028,-165.77,2022-08-17 13:54:10.687500
1029,-171.09,2022-08-17 13:54:10.703125
1030,-170.77,2022-08-17 13:54:10.718750
1031,-164.45,2022-08-17 13:54:10.734375
1032,-152.82,2022-08-17 13:54:10.750000
1033,-137.52,2022-08-17 13:54:10.765625
1034,-120.23,2022-08-17 13:54:10.781250
1035,-102.25,2022-08-17 13:54:10.796875
1036,-84.25,2022-08-17 13:54:10.812500
1037,-66.32,2022-08-17 13:54:10.828125
1038,-48.15,2022-08-17 13:54:10.843750
1039,-29.38,2022-08-17 13:54:10.859375
1040,-9.87,2022-08-17 13:54:10.875000
1041,9.97,2022-08-17 13:54:10.890625
1042,29.2,2022-08-17 13:54:10.906250
1043,46.72,2022-08-17 13:54:10.921875
1044,61.73,2022-08-17 13:54:10.937500
1045,73.97,2022-08-17 13:54:10.953125
1046,84.03,2022-08-17 13:54:10.968750
1047,93.27,2022-08-17 13:54:10.984375
1048,103.43,2022-08-17 13:54:11.000000
1049,116.16,2022-08-17 13:54:11.015625
1050,132.42,2022-08-17 13:54:11.031250
1051,152.18,2022-08-17 13:54:11.046875
1052,174.72,2022-08-17 13:54:11.062500
1053,198.99,2022-08-17 13:54:11.078125
1054,224.09,2022-08-17 13:54:11.093750
1055,249.63,2022-08-17 13:54:11.109375
1056,275.83,2022-08-17 13:54:11.125000
1057,303.38,2022-08-17 13:54:11.140625
1058,333.39,2022-08-17 13:54:11.156250
1059,367.45,2022-08-17 13:54:11.171875
1060,407.37,2022-08-17 13:54:11.187500
1061,454.47,2022-08-17 13:54:11.203125
1062,508.2,2022-08-17 13:54:11.218750
1063,564.78,2022-08-17 13:54:11.234375
1064,616.95,2022-08-17 13:54:11.250000
1065,655.52,2022-08-17 13:54:11.265625
1066,672.24,2022-08-17 13:54:11.281250
1067,662.99,2022-08-17 13:54:11.296875
1068,629.43,2022-08-17 13:54:11.312500
1069,578.35,2022-08-17 13:54:11.328125
1070,518.79,2022-08-17 13:54:11.343750
1071,458.73,2022-08-17 13:54:11.359375
1072,402.67,2022-08-17 13:54:11.375000
1073,351.49,2022-08-17 13:54:11.390625
1074,303.83,2022-08-17 13:54:11.406250
1075,257.94,2022-08-17 13:54:11.421875
1076,212.81,2022-08-17 13:54:11.437500
1077,167.93,2022-08-17 13:54:11.453125
1078,122.72,2022-08-17 13:54:11.468750
1079,76.28,2022-08-17 13:54:11.484375
1080,28.14,2022-08-17 13:54:11.500000
1081,-20.52,2022-08-17 13:54:11.515625
1082,-66.21,2022-08-17 13:54:11.531250
1083,-103.8,2022-08-17 13:54:11.546875
1084,-128.23,2022-08-17 13:54:11.562500
1085,-136.68,2022-08-17 13:54:11.578125
1086,-129.85,2022-08-17 13:54:11.593750
1087,-111.8,2022-08-17 13:54:11.609375
1088,-88.34,2022-08-17 13:54:11.625000
1089,-64.96,2022-08-17 13:54:11.640625
1090,-45.25,2022-08-17 13:54:11.656250
1091,-30.39,2022-08-17 13:54:11.671875
1092,-19.86,2022-08-17 13:54:11.687500
1093,-12.37,2022-08-17 13:54:11.703125
1094,-6.75,2022-08-17 13:54:11.718750
1095,-2.19,2022-08-17 13:54:11.734375
1096,1.93,2022-08-17 13:54:11.750000
1097,6.24,2022-08-17 13:54:11.765625
1098,11.48,2022-08-17 13:54:11.781250
1099,18.24,2022-08-17 13:54:11.796875
1100,26.68,2022-08-17 13:54:11.812500
1101,36.37,2022-08-17 13:54:11.828125
1102,46.15,2022-08-17 13:54:11.843750
1103,54.48,2022-08-17 13:54:11.859375
1104,59.9,2022-08-17 13:54:11.875000
1105,61.53,2022-08-17 13:54:11.890625
1106,59.42,2022-08-17 13:54:11.906250
1107,54.44,2022-08-17 13:54:11.921875
1108,47.87,2022-08-17 13:54:11.937500
1109,40.89,2022-08-17 13:54:11.953125
1110,34.25,2022-08-17 13:54:11.968750
1111,28.09,2022-08-17 13:54:11.984375
1112,22.23,2022-08-17 13:54:12.000000
1113,16.55,2022-08-17 13:54:12.015625
1114,11.27,2022-08-17 13:54:12.031250
1115,6.84,2022-08-17 13:54:12.046875
1116,3.53,2022-08-17 13:54:12.062500
1117,0.86,2022-08-17 13:54:12.078125
1118,-2.24,2022-08-17 13:54:12.093750
1119,-7.11,2022-08-17 13:54:12.109375
1120,-14.84,2022-08-17 13:54:12.125000
1121,-25.7,2022-08-17 13:54:12.140625
1122,-38.97,2022-08-17 13:54:12.156250
1123,-53.12,2022-08-17 13:54:12.171875
1124,-66.22,2022-08-17 13:54:12.187500
1125,-76.62,2022-08-17 13:54:12.203125
1126,-83.93,2022-08-17 13:54:12.218750
1127,-88.61,2022-08-17 13:54:12.234375
1128,-91.76,2022-08-17 13:54:12.250000
1129,-94.8,2022-08-17 13:54:12.265625
1130,-99.13,2022-08-17 13:54:12.281250
1131,-105.84,2022-08-17 13:54:12.296875
1132,-115.49,2022-08-17 13:54:12.312500
1133,-127.82,2022-08-17 13:54:12.328125
1134,-142.18,2022-08-17 13:54:12.343750
1135,-158.49,2022-08-17 13:54:12.359375
1136,-176.2,2022-08-17 13:54:12.375000
1137,-194.39,2022-08-17 13:54:12.390625
1138,-212.04,2022-08-17 13:54:12.406250
1139,-228.31,2022-08-17 13:54:12.421875
1140,-242.99,2022-08-17 13:54:12.437500
1141,-256.44,2022-08-17 13:54:12.453125
1142,-269.05,2022-08-17 13:54:12.468750
1143,-281.42,2022-08-17 13:54:12.484375
1144,-295.24,2022-08-17 13:54:12.500000
1145,-311.0,2022-08-17 13:54:12.515625
1146,-327.86,2022-08-17 13:54:12.531250
1147,-344.28,2022-08-17 13:54:12.546875
1148,-358.92,2022-08-17 13:54:12.562500
1149,-371.56,2022-08-17 13:54:12.578125
1150,-383.18,2022-08-17 13:54:12.593750
1151,-394.81,2022-08-17 13:54:12.609375
1152,-407.81,2022-08-17 13:54:12.625000
1153,-424.33,2022-08-17 13:54:12.640625
1154,-444.09,2022-08-17 13:54:12.656250
1155,-464.35,2022-08-17 13:54:12.671875
1156,-480.93,2022-08-17 13:54:12.687500
1157,-489.87,2022-08-17 13:54:12.703125
1158,-489.17,2022-08-17 13:54:12.718750
1159,-479.43,2022-08-17 13:54:12.734375
1160,-462.82,2022-08-17 13:54:12.750000
1161,-430.96,2022-08-17 13:54:12.765625
1162,-382.1,2022-08-17 13:54:12.781250
1163,-319.56,2022-08-17 13:54:12.796875
1164,-251.1,2022-08-17 13:54:12.812500
1165,-185.7,2022-08-17 13:54:12.828125
1166,-130.07,2022-08-17 13:54:12.843750
1167,-87.21,2022-08-17 13:54:12.859375
1168,-60.8,2022-08-17 13:54:12.875000
1169,-46.35,2022-08-17 13:54:12.890625
1170,-38.9,2022-08-17 13:54:12.906250
1171,-36.21,2022-08-17 13:54:12.921875
1172,-36.34,2022-08-17 13:54:12.937500
1173,-37.45,2022-08-17 13:54:12.953125
1174,-37.62,2022-08-17 13:54:12.968750
1175,-35.03,2022-08-17 13:54:12.984375
1176,-29.05,2022-08-17 13:54:13.000000
1177,-19.83,2022-08-17 13:54:13.015625
1178,-7.1,2022-08-17 13:54:13.031250
1179,8.59,2022-08-17 13:54:13.046875
1180,25.28,2022-08-17 13:54:13.062500
1181,41.7,2022-08-17 13:54:13.078125
1182,57.26,2022-08-17 13:54:13.093750
1183,71.98,2022-08-17 13:54:13.109375
1184,86.02,2022-08-17 13:54:13.125000
1185,99.33,2022-08-17 13:54:13.140625
1186,111.69,2022-08-17 13:54:13.156250
1187,123.46,2022-08-17 13:54:13.171875
1188,134.56,2022-08-17 13:54:13.187500
1189,144.21,2022-08-17 13:54:13.203125
1190,152.17,2022-08-17 13:54:13.218750
1191,158.66,2022-08-17 13:54:13.234375
1192,164.21,2022-08-17 13:54:13.250000
1193,169.31,2022-08-17 13:54:13.265625
1194,174.18,2022-08-17 13:54:13.281250
1195,178.84,2022-08-17 13:54:13.296875
1196,183.64,2022-08-17 13:54:13.312500
1197,188.62,2022-08-17 13:54:13.328125
1198,193.51,2022-08-17 13:54:13.343750
1199,198.36,2022-08-17 13:54:13.359375
1200,203.56,2022-08-17 13:54:13.375000
1201,209.76,2022-08-17 13:54:13.390625
1202,217.62,2022-08-17 13:54:13.406250
1203,227.39,2022-08-17 13:54:13.421875
1204,238.74,2022-08-17 13:54:13.437500
1205,250.64,2022-08-17 13:54:13.453125
1206,261.22,2022-08-17 13:54:13.468750
1207,268.26,2022-08-17 13:54:13.484375
1208,270.11,2022-08-17 13:54:13.500000
1209,266.22,2022-08-17 13:54:13.515625
1210,257.27,2022-08-17 13:54:13.531250
1211,244.77,2022-08-17 13:54:13.546875
1212,230.38,2022-08-17 13:54:13.562500
1213,215.42,2022-08-17 13:54:13.578125
1214,200.67,2022-08-17 13:54:13.593750
1215,186.44,2022-08-17 13:54:13.609375
1216,172.94,2022-08-17 13:54:13.625000
1217,160.55,2022-08-17 13:54:13.640625
1218,149.83,2022-08-17 13:54:13.656250
1219,141.25,2022-08-17 13:54:13.671875
1220,134.97,2022-08-17 13:54:13.687500
1221,130.76,2022-08-17 13:54:13.703125
1222,128.01,2022-08-17 13:54:13.718750
1223,126.0,2022-08-17 13:54:13.734375
1224,124.15,2022-08-17 13:54:13.750000
1225,122.09,2022-08-17 13:54:13.765625
1226,119.82,2022-08-17 13:54:13.781250
1227,117.59,2022-08-17 13:54:13.796875
1228,115.84,2022-08-17 13:54:13.812500
1229,114.99,2022-08-17 13:54:13.828125
1230,115.29,2022-08-17 13:54:13.843750
1231,116.75,2022-08-17 13:54:13.859375
1232,119.11,2022-08-17 13:54:13.875000
1233,121.85,2022-08-17 13:54:13.890625
1234,124.33,2022-08-17 13:54:13.906250
1235,125.91,2022-08-17 13:54:13.921875
1236,126.19,2022-08-17 13:54:13.937500
1237,125.29,2022-08-17 13:54:13.953125
1238,123.97,2022-08-17 13:54:13.968750
1239,123.67,2022-08-17 13:54:13.984375
1240,126.17,2022-08-17 13:54:14.000000
1241,133.1,2022-08-17 13:54:14.015625
1242,145.39,2022-08-17 13:54:14.031250
1243,162.98,2022-08-17 13:54:14.046875
1244,184.86,2022-08-17 13:54:14.062500
1245,209.39,2022-08-17 13:54:14.078125
1246,234.69,2022-08-17 13:54:14.093750
1247,258.95,2022-08-17 13:54:14.109375
1248,280.55,2022-08-17 13:54:14.125000
1249,298.08,2022-08-17 13:54:14.140625
1250,310.51,2022-08-17 13:54:14.156250
1251,317.39,2022-08-17 13:54:14.171875
1252,318.91,2022-08-17 13:54:14.187500
1253,315.83,2022-08-17 13:54:14.203125
1254,309.08,2022-08-17 13:54:14.218750
1255,299.32,2022-08-17 13:54:14.234375
1256,286.69,2022-08-17 13:54:14.250000
1257,270.98,2022-08-17 13:54:14.265625
1258,251.99,2022-08-17 13:54:14.281250
1259,229.95,2022-08-17 13:54:14.296875
1260,205.76,2022-08-17 13:54:14.312500
1261,180.72,2022-08-17 13:54:14.328125
1262,156.24,2022-08-17 13:54:14.343750
1263,133.42,2022-08-17 13:54:14.359375
1264,112.89,2022-08-17 13:54:14.375000
1265,94.79,2022-08-17 13:54:14.390625
1266,78.86,2022-08-17 13:54:14.406250
1267,64.55,2022-08-17 13:54:14.421875
1268,51.06,2022-08-17 13:54:14.437500
1269,37.52,2022-08-17 13:54:14.453125
1270,23.24,2022-08-17 13:54:14.468750
1271,8.01,2022-08-17 13:54:14.484375
1272,-7.8,2022-08-17 13:54:14.500000
1273,-23.34,2022-08-17 13:54:14.515625
1274,-37.79,2022-08-17 13:54:14.531250
1275,-50.69,2022-08-17 13:54:14.546875
1276,-62.29,2022-08-17 13:54:14.562500
1277,-73.43,2022-08-17 13:54:14.578125
1278,-85.13,2022-08-17 13:54:14.593750
1279,-98.14,2022-08-17 13:54:14.609375
1280,-112.66,2022-08-17 13:54:14.625000
1281,-128.45,2022-08-17 13:54:14.640625
1282,-145.02,2022-08-17 13:54:14.656250
1283,-161.8,2022-08-17 13:54:14.671875
1284,-178.09,2022-08-17 13:54:14.687500
1285,-193.03,2022-08-17 13:54:14.703125
1286,-205.58,2022-08-17 13:54:14.718750
1287,-214.81,2022-08-17 13:54:14.734375
1288,-220.15,2022-08-17 13:54:14.750000
1289,-221.62,2022-08-17 13:54:14.765625
1290,-219.72,2022-08-17 13:54:14.781250
1291,-215.21,2022-08-17 13:54:14.796875
1292,-208.89,2022-08-17 13:54:14.812500
1293,-201.7,2022-08-17 13:54:14.828125
1294,-194.98,2022-08-17 13:54:14.843750
1295,-190.64,2022-08-17 13:54:14.859375
1296,-190.84,2022-08-17 13:54:14.875000
1297,-197.16,2022-08-17 13:54:14.890625
1298,-209.63,2022-08-17 13:54:14.906250
1299,-226.26,2022-08-17 13:54:14.921875
1300,-243.43,2022-08-17 13:54:14.937500
1301,-257.05,2022-08-17 13:54:14.953125
1302,-263.99,2022-08-17 13:54:14.968750
1303,-263.35,2022-08-17 13:54:14.984375
1304,-256.83,2022-08-17 13:54:15.000000
1305,-248.44,2022-08-17 13:54:15.015625
1306,-243.4,2022-08-17 13:54:15.031250
1307,-246.49,2022-08-17 13:54:15.046875
1308,-260.45,2022-08-17 13:54:15.062500
1309,-284.73,2022-08-17 13:54:15.078125
1310,-315.12,2022-08-17 13:54:15.093750
1311,-344.77,2022-08-17 13:54:15.109375
1312,-366.53,2022-08-17 13:54:15.125000
1313,-375.37,2022-08-17 13:54:15.140625
1314,-370.18,2022-08-17 13:54:15.156250
1315,-353.58,2022-08-17 13:54:15.171875
1316,-330.05,2022-08-17 13:54:15.187500
1317,-303.34,2022-08-17 13:54:15.203125
1318,-274.45,2022-08-17 13:54:15.218750
1319,-241.43,2022-08-17 13:54:15.234375
1320,-201.06,2022-08-17 13:54:15.250000
1321,-151.47,2022-08-17 13:54:15.265625
1322,-94.13,2022-08-17 13:54:15.281250
1323,-34.06,2022-08-17 13:54:15.296875
1324,21.79,2022-08-17 13:54:15.312500
1325,67.21,2022-08-17 13:54:15.328125
1326,98.85,2022-08-17 13:54:15.343750
1327,116.97,2022-08-17 13:54:15.359375
1328,124.3,2022-08-17 13:54:15.375000
1329,124.19,2022-08-17 13:54:15.390625
1330,119.02,2022-08-17 13:54:15.406250
1331,109.67,2022-08-17 13:54:15.421875
1332,96.24,2022-08-17 13:54:15.437500
1333,79.15,2022-08-17 13:54:15.453125
1334,60.09,2022-08-17 13:54:15.468750
1335,41.95,2022-08-17 13:54:15.484375
1336,27.89,2022-08-17 13:54:15.500000
1337,20.03,2022-08-17 13:54:15.515625
1338,18.36,2022-08-17 13:54:15.531250
1339,20.91,2022-08-17 13:54:15.546875
1340,24.59,2022-08-17 13:54:15.562500
1341,26.82,2022-08-17 13:54:15.578125
1342,26.7,2022-08-17 13:54:15.593750
1343,25.66,2022-08-17 13:54:15.609375
1344,26.78,2022-08-17 13:54:15.625000
1345,33.31,2022-08-17 13:54:15.640625
1346,46.77,2022-08-17 13:54:15.656250
1347,65.69,2022-08-17 13:54:15.671875
1348,85.59,2022-08-17 13:54:15.687500
1349,100.26,2022-08-17 13:54:15.703125
1350,104.02,2022-08-17 13:54:15.718750
1351,93.93,2022-08-17 13:54:15.734375
1352,71.07,2022-08-17 13:54:15.750000
1353,40.31,2022-08-17 13:54:15.765625
1354,8.62,2022-08-17 13:54:15.781250
1355,-17.14,2022-08-17 13:54:15.796875
1356,-32.47,2022-08-17 13:54:15.812500
1357,-36.4,2022-08-17 13:54:15.828125
1358,-31.3,2022-08-17 13:54:15.843750
1359,-21.59,2022-08-17 13:54:15.859375
1360,-11.73,2022-08-17 13:54:15.875000
1361,-4.53,2022-08-17 13:54:15.890625
1362,-0.38,2022-08-17 13:54:15.906250
1363,2.23,2022-08-17 13:54:15.921875
1364,5.41,2022-08-17 13:54:15.937500
1365,10.36,2022-08-17 13:54:15.953125
1366,16.61,2022-08-17 13:54:15.968750
1367,22.29,2022-08-17 13:54:15.984375
1368,25.27,2022-08-17 13:54:16.000000
1369,24.45,2022-08-17 13:54:16.015625
1370,20.36,2022-08-17 13:54:16.031250
1371,14.81,2022-08-17 13:54:16.046875
1372,9.88,2022-08-17 13:54:16.062500
1373,6.83,2022-08-17 13:54:16.078125
1374,5.64,2022-08-17 13:54:16.093750
1375,5.39,2022-08-17 13:54:16.109375
1376,5.28,2022-08-17 13:54:16.125000
1377,5.39,2022-08-17 13:54:16.140625
1378,7.0,2022-08-17 13:54:16.156250
1379,12.0,2022-08-17 13:54:16.171875
1380,21.99,2022-08-17 13:54:16.187500
1381,37.38,2022-08-17 13:54:16.203125
1382,57.11,2022-08-17 13:54:16.218750
1383,78.94,2022-08-17 13:54:16.234375
1384,100.23,2022-08-17 13:54:16.250000
1385,118.83,2022-08-17 13:54:16.265625
1386,133.63,2022-08-17 13:54:16.281250
1387,144.73,2022-08-17 13:54:16.296875
1388,153.08,2022-08-17 13:54:16.312500
1389,159.84,2022-08-17 13:54:16.328125
1390,165.84,2022-08-17 13:54:16.343750
1391,171.15,2022-08-17 13:54:16.359375
1392,175.25,2022-08-17 13:54:16.375000
1393,177.24,2022-08-17 13:54:16.390625
1394,176.32,2022-08-17 13:54:16.406250
1395,172.03,2022-08-17 13:54:16.421875
1396,164.26,2022-08-17 13:54:16.437500
1397,153.06,2022-08-17 13:54:16.453125
1398,138.52,2022-08-17 13:54:16.468750
1399,120.57,2022-08-17 13:54:16.484375
1400,99.1,2022-08-17 13:54:16.500000
1401,73.96,2022-08-17 13:54:16.515625
1402,45.15,2022-08-17 13:54:16.531250
1403,12.76,2022-08-17 13:54:16.546875
1404,-22.97,2022-08-17 13:54:16.562500
1405,-61.67,2022-08-17 13:54:16.578125
1406,-102.78,2022-08-17 13:54:16.593750
1407,-145.48,2022-08-17 13:54:16.609375
1408,-188.69,2022-08-17 13:54:16.625000
1409,-231.06,2022-08-17 13:54:16.640625
1410,-271.2,2022-08-17 13:54:16.656250
1411,-307.77,2022-08-17 13:54:16.671875
1412,-339.69,2022-08-17 13:54:16.687500
1413,-366.41,2022-08-17 13:54:16.703125
1414,-388.01,2022-08-17 13:54:16.718750
1415,-405.24,2022-08-17 13:54:16.734375
1416,-419.22,2022-08-17 13:54:16.750000
1417,-430.95,2022-08-17 13:54:16.765625
1418,-440.78,2022-08-17 13:54:16.781250
1419,-448.08,2022-08-17 13:54:16.796875
1420,-451.35,2022-08-17 13:54:16.812500
1421,-448.73,2022-08-17 13:54:16.828125
1422,-438.68,2022-08-17 13:54:16.843750
1423,-420.73,2022-08-17 13:54:16.859375
1424,-395.71,2022-08-17 13:54:16.875000
1425,-365.65,2022-08-17 13:54:16.890625
1426,-333.26,2022-08-17 13:54:16.906250
1427,-301.34,2022-08-17 13:54:16.921875
1428,-272.32,2022-08-17 13:54:16.937500
1429,-247.99,2022-08-17 13:54:16.953125
1430,-229.37,2022-08-17 13:54:16.968750
1431,-216.62,2022-08-17 13:54:16.984375
1432,-209.04,2022-08-17 13:54:17.000000
1433,-204.98,2022-08-17 13:54:17.015625
1434,-202.13,2022-08-17 13:54:17.031250
1435,-197.88,2022-08-17 13:54:17.046875
1436,-189.96,2022-08-17 13:54:17.062500
1437,-177.12,2022-08-17 13:54:17.078125
1438,-159.46,2022-08-17 13:54:17.093750
1439,-138.28,2022-08-17 13:54:17.109375
1440,-115.41,2022-08-17 13:54:17.125000
1441,-92.37,2022-08-17 13:54:17.140625
1442,-69.69,2022-08-17 13:54:17.156250
1443,-46.83,2022-08-17 13:54:17.171875
1444,-22.54,2022-08-17 13:54:17.187500
1445,4.25,2022-08-17 13:54:17.203125
1446,33.7,2022-08-17 13:54:17.218750
1447,64.81,2022-08-17 13:54:17.234375
1448,95.89,2022-08-17 13:54:17.250000
1449,125.32,2022-08-17 13:54:17.265625
1450,152.46,2022-08-17 13:54:17.281250
1451,178.03,2022-08-17 13:54:17.296875
1452,203.85,2022-08-17 13:54:17.312500
1453,232.12,2022-08-17 13:54:17.328125
1454,264.85,2022-08-17 13:54:17.343750
1455,303.54,2022-08-17 13:54:17.359375
1456,348.98,2022-08-17 13:54:17.375000
1457,400.83,2022-08-17 13:54:17.390625
1458,456.81,2022-08-17 13:54:17.406250
1459,512.11,2022-08-17 13:54:17.421875
1460,559.98,2022-08-17 13:54:17.437500
1461,593.57,2022-08-17 13:54:17.453125
1462,608.84,2022-08-17 13:54:17.468750
1463,606.62,2022-08-17 13:54:17.484375
1464,592.53,2022-08-17 13:54:17.500000
1465,574.35,2022-08-17 13:54:17.515625
1466,558.09,2022-08-17 13:54:17.531250
1467,545.07,2022-08-17 13:54:17.546875
1468,531.71,2022-08-17 13:54:17.562500
1469,512.21,2022-08-17 13:54:17.578125
1470,482.14,2022-08-17 13:54:17.593750
1471,441.15,2022-08-17 13:54:17.609375
1472,392.93,2022-08-17 13:54:17.625000
1473,343.01,2022-08-17 13:54:17.640625
1474,295.87,2022-08-17 13:54:17.656250
1475,253.15,2022-08-17 13:54:17.671875
1476,214.0,2022-08-17 13:54:17.687500
1477,176.64,2022-08-17 13:54:17.703125
1478,140.12,2022-08-17 13:54:17.718750
1479,104.98,2022-08-17 13:54:17.734375
1480,72.78,2022-08-17 13:54:17.750000
1481,44.89,2022-08-17 13:54:17.765625
1482,21.45,2022-08-17 13:54:17.781250
1483,1.14,2022-08-17 13:54:17.796875
1484,-18.32,2022-08-17 13:54:17.812500
1485,-39.15,2022-08-17 13:54:17.828125
1486,-62.78,2022-08-17 13:54:17.843750
1487,-89.62,2022-08-17 13:54:17.859375
1488,-119.5,2022-08-17 13:54:17.875000
1489,-152.36,2022-08-17 13:54:17.890625
1490,-188.55,2022-08-17 13:54:17.906250
1491,-228.49,2022-08-17 13:54:17.921875
1492,-271.74,2022-08-17 13:54:17.937500
1493,-316.16,2022-08-17 13:54:17.953125
1494,-357.6,2022-08-17 13:54:17.968750
1495,-390.72,2022-08-17 13:54:17.984375
1496,-410.39,2022-08-17 13:54:18.000000
1497,-413.2,2022-08-17 13:54:18.015625
1498,-398.3,2022-08-17 13:54:18.031250
1499,-367.31,2022-08-17 13:54:18.046875
1500,-323.55,2022-08-17 13:54:18.062500
1501,-271.04,2022-08-17 13:54:18.078125
1502,-213.89,2022-08-17 13:54:18.093750
1503,-155.95,2022-08-17 13:54:18.109375
1504,-100.66,2022-08-17 13:54:18.125000
1505,-50.73,2022-08-17 13:54:18.140625
1506,-7.74,2022-08-17 13:54:18.156250
1507,28.19,2022-08-17 13:54:18.171875
1508,58.23,2022-08-17 13:54:18.187500
1509,84.31,2022-08-17 13:54:18.203125
1510,108.26,2022-08-17 13:54:18.218750
1511,131.14,2022-08-17 13:54:18.234375
1512,153.17,2022-08-17 13:54:18.250000
1513,173.94,2022-08-17 13:54:18.265625
1514,192.85,2022-08-17 13:54:18.281250
1515,209.42,2022-08-17 13:54:18.296875
1516,223.37,2022-08-17 13:54:18.312500
1517,234.53,2022-08-17 13:54:18.328125
1518,242.74,2022-08-17 13:54:18.343750
1519,248.12,2022-08-17 13:54:18.359375
1520,251.28,2022-08-17 13:54:18.375000
1521,253.53,2022-08-17 13:54:18.390625
1522,256.71,2022-08-17 13:54:18.406250
1523,262.66,2022-08-17 13:54:18.421875
1524,272.51,2022-08-17 13:54:18.437500
1525,286.13,2022-08-17 13:54:18.453125
1526,302.1,2022-08-17 13:54:18.468750
1527,317.98,2022-08-17 13:54:18.484375
1528,330.87,2022-08-17 13:54:18.500000
1529,337.83,2022-08-17 13:54:18.515625
1530,336.37,2022-08-17 13:54:18.531250
1531,324.61,2022-08-17 13:54:18.546875
1532,301.73,2022-08-17 13:54:18.562500
1533,268.24,2022-08-17 13:54:18.578125
1534,226.14,2022-08-17 13:54:18.593750
1535,178.53,2022-08-17 13:54:18.609375
1536,128.87,2022-08-17 13:54:18.625000
1537,80.1,2022-08-17 13:54:18.640625
1538,33.85,2022-08-17 13:54:18.656250
1539,-9.7,2022-08-17 13:54:18.671875
1540,-51.48,2022-08-17 13:54:18.687500
1541,-92.83,2022-08-17 13:54:18.703125
1542,-134.92,2022-08-17 13:54:18.718750
1543,-178.41,2022-08-17 13:54:18.734375
1544,-223.11,2022-08-17 13:54:18.750000
1545,-267.42,2022-08-17 13:54:18.765625
1546,-308.03,2022-08-17 13:54:18.781250
1547,-340.14,2022-08-17 13:54:18.796875
1548,-358.62,2022-08-17 13:54:18.812500
1549,-360.04,2022-08-17 13:54:18.828125
1550,-344.38,2022-08-17 13:54:18.843750
1551,-315.68,2022-08-17 13:54:18.859375
1552,-280.94,2022-08-17 13:54:18.875000
1553,-247.67,2022-08-17 13:54:18.890625
1554,-221.38,2022-08-17 13:54:18.906250
1555,-204.25,2022-08-17 13:54:18.921875
1556,-195.47,2022-08-17 13:54:18.937500
1557,-192.82,2022-08-17 13:54:18.953125
1558,-194.5,2022-08-17 13:54:18.968750
1559,-199.93,2022-08-17 13:54:18.984375
1560,-209.32,2022-08-17 13:54:19.000000
1561,-222.36,2022-08-17 13:54:19.015625
1562,-237.18,2022-08-17 13:54:19.031250
1563,-250.32,2022-08-17 13:54:19.046875
1564,-257.82,2022-08-17 13:54:19.062500
1565,-256.96,2022-08-17 13:54:19.078125
1566,-247.37,2022-08-17 13:54:19.093750
1567,-231.29,2022-08-17 13:54:19.109375
1568,-212.53,2022-08-17 13:54:19.125000
1569,-194.68,2022-08-17 13:54:19.140625
1570,-179.58,2022-08-17 13:54:19.156250
1571,-166.78,2022-08-17 13:54:19.171875
1572,-154.19,2022-08-17 13:54:19.187500
1573,-139.59,2022-08-17 13:54:19.203125
1574,-121.99,2022-08-17 13:54:19.218750
1575,-102.2,2022-08-17 13:54:19.234375
1576,-82.33,2022-08-17 13:54:19.250000
1577,-64.66,2022-08-17 13:54:19.265625
1578,-50.5,2022-08-17 13:54:19.281250
1579,-39.71,2022-08-17 13:54:19.296875
1580,-31.02,2022-08-17 13:54:19.312500
1581,-22.9,2022-08-17 13:54:19.328125
1582,-14.31,2022-08-17 13:54:19.343750
1583,-5.16,2022-08-17 13:54:19.359375
1584,3.89,2022-08-17 13:54:19.375000
1585,11.98,2022-08-17 13:54:19.390625
1586,18.56,2022-08-17 13:54:19.406250
1587,23.68,2022-08-17 13:54:19.421875
1588,27.87,2022-08-17 13:54:19.437500
1589,31.8,2022-08-17 13:54:19.453125
1590,35.71,2022-08-17 13:54:19.468750
1591,39.28,2022-08-17 13:54:19.484375
1592,41.66,2022-08-17 13:54:19.500000
1593,41.67,2022-08-17 13:54:19.515625
1594,38.23,2022-08-17 13:54:19.531250
1595,30.67,2022-08-17 13:54:19.546875
1596,18.95,2022-08-17 13:54:19.562500
1597,3.83,2022-08-17 13:54:19.578125
1598,-13.04,2022-08-17 13:54:19.593750
1599,-29.25,2022-08-17 13:54:19.609375
1600,-41.87,2022-08-17 13:54:19.625000
1601,-48.14,2022-08-17 13:54:19.640625
1602,-46.18,2022-08-17 13:54:19.656250
1603,-35.56,2022-08-17 13:54:19.671875
1604,-17.52,2022-08-17 13:54:19.687500
1605,5.42,2022-08-17 13:54:19.703125
1606,30.24,2022-08-17 13:54:19.718750
1607,54.12,2022-08-17 13:54:19.734375
1608,74.98,2022-08-17 13:54:19.750000
1609,91.58,2022-08-17 13:54:19.765625
1610,103.31,2022-08-17 13:54:19.781250
1611,109.9,2022-08-17 13:54:19.796875
1612,111.36,2022-08-17 13:54:19.812500
1613,108.0,2022-08-17 13:54:19.828125
1614,100.59,2022-08-17 13:54:19.843750
1615,90.36,2022-08-17 13:54:19.859375
1616,78.81,2022-08-17 13:54:19.875000
1617,67.39,2022-08-17 13:54:19.890625
1618,57.25,2022-08-17 13:54:19.906250
1619,49.11,2022-08-17 13:54:19.921875
1620,43.23,2022-08-17 13:54:19.937500
1621,39.46,2022-08-17 13:54:19.953125
1622,37.28,2022-08-17 13:54:19.968750
1623,35.88,2022-08-17 13:54:19.984375
1624,34.3,2022-08-17 13:54:20.000000
1625,31.64,2022-08-17 13:54:20.015625
1626,27.26,2022-08-17 13:54:20.031250
1627,20.92,2022-08-17 13:54:20.046875
1628,12.77,2022-08-17 13:54:20.062500
1629,3.08,2022-08-17 13:54:20.078125
1630,-7.83,2022-08-17 13:54:20.093750
1631,-19.79,2022-08-17 13:54:20.109375
1632,-32.7,2022-08-17 13:54:20.125000
1633,-46.42,2022-08-17 13:54:20.140625
1634,-60.76,2022-08-17 13:54:20.156250
1635,-75.59,2022-08-17 13:54:20.171875
1636,-90.91,2022-08-17 13:54:20.187500
1637,-106.8,2022-08-17 13:54:20.203125
1638,-123.12,2022-08-17 13:54:20.218750
1639,-139.14,2022-08-17 13:54:20.234375
1640,-153.36,2022-08-17 13:54:20.250000
1641,-163.85,2022-08-17 13:54:20.265625
1642,-168.97,2022-08-17 13:54:20.281250
1643,-168.13,2022-08-17 13:54:20.296875
1644,-162.29,2022-08-17 13:54:20.312500
1645,-153.64,2022-08-17 13:54:20.328125
1646,-144.73,2022-08-17 13:54:20.343750
1647,-137.31,2022-08-17 13:54:20.359375
1648,-131.56,2022-08-17 13:54:20.375000
1649,-125.98,2022-08-17 13:54:20.390625
1650,-118.08,2022-08-17 13:54:20.406250
1651,-105.23,2022-08-17 13:54:20.421875
1652,-85.62,2022-08-17 13:54:20.437500
1653,-58.69,2022-08-17 13:54:20.453125
1654,-25.37,2022-08-17 13:54:20.468750
1655,12.01,2022-08-17 13:54:20.484375
1656,49.93,2022-08-17 13:54:20.500000
1657,84.12,2022-08-17 13:54:20.515625
1658,110.27,2022-08-17 13:54:20.531250
1659,124.89,2022-08-17 13:54:20.546875
1660,126.29,2022-08-17 13:54:20.562500
1661,115.27,2022-08-17 13:54:20.578125
1662,95.37,2022-08-17 13:54:20.593750
1663,72.41,2022-08-17 13:54:20.609375
1664,53.27,2022-08-17 13:54:20.625000
1665,44.13,2022-08-17 13:54:20.640625
1666,48.84,2022-08-17 13:54:20.656250
1667,68.07,2022-08-17 13:54:20.671875
1668,99.67,2022-08-17 13:54:20.687500
1669,140.01,2022-08-17 13:54:20.703125
1670,185.58,2022-08-17 13:54:20.718750
1671,233.88,2022-08-17 13:54:20.734375
1672,283.27,2022-08-17 13:54:20.750000
1673,331.84,2022-08-17 13:54:20.765625
1674,376.27,2022-08-17 13:54:20.781250
1675,411.81,2022-08-17 13:54:20.796875
1676,433.34,2022-08-17 13:54:20.812500
1677,437.37,2022-08-17 13:54:20.828125
1678,423.41,2022-08-17 13:54:20.843750
1679,394.23,2022-08-17 13:54:20.859375
1680,354.57,2022-08-17 13:54:20.875000
1681,309.3,2022-08-17 13:54:20.890625
1682,261.89,2022-08-17 13:54:20.906250
1683,214.0,2022-08-17 13:54:20.921875
1684,166.05,2022-08-17 13:54:20.937500
1685,118.28,2022-08-17 13:54:20.953125
1686,71.69,2022-08-17 13:54:20.968750
1687,28.28,2022-08-17 13:54:20.984375
1688,-9.26,2022-08-17 13:54:21.000000
1689,-38.36,2022-08-17 13:54:21.015625
1690,-57.41,2022-08-17 13:54:21.031250
1691,-66.34,2022-08-17 13:54:21.046875
1692,-66.54,2022-08-17 13:54:21.062500
1693,-60.32,2022-08-17 13:54:21.078125
1694,-50.05,2022-08-17 13:54:21.093750
1695,-37.59,2022-08-17 13:54:21.109375
1696,-24.19,2022-08-17 13:54:21.125000
1697,-10.72,2022-08-17 13:54:21.140625
1698,1.75,2022-08-17 13:54:21.156250
1699,11.76,2022-08-17 13:54:21.171875
1700,17.66,2022-08-17 13:54:21.187500
1701,18.16,2022-08-17 13:54:21.203125
1702,12.92,2022-08-17 13:54:21.218750
1703,2.74,2022-08-17 13:54:21.234375
1704,-10.56,2022-08-17 13:54:21.250000
1705,-24.63,2022-08-17 13:54:21.265625
1706,-37.2,2022-08-17 13:54:21.281250
1707,-46.5,2022-08-17 13:54:21.296875
1708,-51.74,2022-08-17 13:54:21.312500
1709,-53.38,2022-08-17 13:54:21.328125
1710,-53.1,2022-08-17 13:54:21.343750
1711,-53.41,2022-08-17 13:54:21.359375
1712,-56.86,2022-08-17 13:54:21.375000
1713,-65.14,2022-08-17 13:54:21.390625
1714,-78.59,2022-08-17 13:54:21.406250
1715,-96.25,2022-08-17 13:54:21.421875
1716,-116.56,2022-08-17 13:54:21.437500
1717,-138.09,2022-08-17 13:54:21.453125
1718,-159.85,2022-08-17 13:54:21.468750
1719,-180.98,2022-08-17 13:54:21.484375
1720,-200.08,2022-08-17 13:54:21.500000
1721,-214.8,2022-08-17 13:54:21.515625
1722,-222.22,2022-08-17 13:54:21.531250
1723,-219.91,2022-08-17 13:54:21.546875
1724,-207.19,2022-08-17 13:54:21.562500
1725,-185.82,2022-08-17 13:54:21.578125
1726,-159.65,2022-08-17 13:54:21.593750
1727,-133.26,2022-08-17 13:54:21.609375
1728,-110.42,2022-08-17 13:54:21.625000
1729,-92.99,2022-08-17 13:54:21.640625
1730,-80.67,2022-08-17 13:54:21.656250
1731,-71.7,2022-08-17 13:54:21.671875
1732,-63.94,2022-08-17 13:54:21.687500
1733,-55.86,2022-08-17 13:54:21.703125
1734,-46.96,2022-08-17 13:54:21.718750
1735,-37.79,2022-08-17 13:54:21.734375
1736,-29.38,2022-08-17 13:54:21.750000
1737,-22.56,2022-08-17 13:54:21.765625
1738,-17.4,2022-08-17 13:54:21.781250
1739,-12.86,2022-08-17 13:54:21.796875
1740,-6.84,2022-08-17 13:54:21.812500
1741,3.19,2022-08-17 13:54:21.828125
1742,19.27,2022-08-17 13:54:21.843750
1743,42.06,2022-08-17 13:54:21.859375
1744,70.5,2022-08-17 13:54:21.875000
1745,102.21,2022-08-17 13:54:21.890625
1746,134.49,2022-08-17 13:54:21.906250
1747,165.34,2022-08-17 13:54:21.921875
1748,193.98,2022-08-17 13:54:21.937500
1749,220.79,2022-08-17 13:54:21.953125
1750,246.7,2022-08-17 13:54:21.968750
1751,272.47,2022-08-17 13:54:21.984375
1752,298.0,2022-08-17 13:54:22.000000
1753,322.12,2022-08-17 13:54:22.015625
1754,342.65,2022-08-17 13:54:22.031250
1755,356.92,2022-08-17 13:54:22.046875
1756,362.56,2022-08-17 13:54:22.062500
1757,358.3,2022-08-17 13:54:22.078125
1758,344.45,2022-08-17 13:54:22.093750
1759,322.81,2022-08-17 13:54:22.109375
1760,295.87,2022-08-17 13:54:22.125000
1761,265.71,2022-08-17 13:54:22.140625
1762,233.26,2022-08-17 13:54:22.156250
1763,198.48,2022-08-17 13:54:22.171875
1764,161.31,2022-08-17 13:54:22.187500
1765,122.79,2022-08-17 13:54:22.203125
1766,85.57,2022-08-17 13:54:22.218750
1767,53.19,2022-08-17 13:54:22.234375
1768,28.75,2022-08-17 13:54:22.250000
1769,13.6,2022-08-17 13:54:22.265625
1770,6.96,2022-08-17 13:54:22.281250
1771,6.49,2022-08-17 13:54:22.296875
1772,9.25,2022-08-17 13:54:22.312500
1773,12.7,2022-08-17 13:54:22.328125
1774,14.99,2022-08-17 13:54:22.343750
1775,15.04,2022-08-17 13:54:22.359375
1776,12.4,2022-08-17 13:54:22.375000
1777,7.2,2022-08-17 13:54:22.390625
1778,0.32,2022-08-17 13:54:22.406250
1779,-6.86,2022-08-17 13:54:22.421875
1780,-12.87,2022-08-17 13:54:22.437500
1781,-17.06,2022-08-17 13:54:22.453125
1782,-20.1,2022-08-17 13:54:22.468750
1783,-24.0,2022-08-17 13:54:22.484375
1784,-31.37,2022-08-17 13:54:22.500000
1785,-44.18,2022-08-17 13:54:22.515625
1786,-62.75,2022-08-17 13:54:22.531250
1787,-85.42,2022-08-17 13:54:22.546875
1788,-109.01,2022-08-17 13:54:22.562500
1789,-130.05,2022-08-17 13:54:22.578125
1790,-145.89,2022-08-17 13:54:22.593750
1791,-155.49,2022-08-17 13:54:22.609375
1792,-159.41,2022-08-17 13:54:22.625000
1793,-159.15,2022-08-17 13:54:22.640625
1794,-156.37,2022-08-17 13:54:22.656250
1795,-152.35,2022-08-17 13:54:22.671875
1796,-147.86,2022-08-17 13:54:22.687500
1797,-143.51,2022-08-17 13:54:22.703125
1798,-139.94,2022-08-17 13:54:22.718750
1799,-137.94,2022-08-17 13:54:22.734375
1800,-138.08,2022-08-17 13:54:22.750000
1801,-140.29,2022-08-17 13:54:22.765625
1802,-143.53,2022-08-17 13:54:22.781250
1803,-146.01,2022-08-17 13:54:22.796875
1804,-145.91,2022-08-17 13:54:22.812500
1805,-142.11,2022-08-17 13:54:22.828125
1806,-134.89,2022-08-17 13:54:22.843750
1807,-125.8,2022-08-17 13:54:22.859375
1808,-117.04,2022-08-17 13:54:22.875000
1809,-110.37,2022-08-17 13:54:22.890625
1810,-106.47,2022-08-17 13:54:22.906250
1811,-104.7,2022-08-17 13:54:22.921875
1812,-103.71,2022-08-17 13:54:22.937500
1813,-102.27,2022-08-17 13:54:22.953125
1814,-99.98,2022-08-17 13:54:22.968750
1815,-97.37,2022-08-17 13:54:22.984375
1816,-95.57,2022-08-17 13:54:23.000000
1817,-95.63,2022-08-17 13:54:23.015625
1818,-98.08,2022-08-17 13:54:23.031250
1819,-102.95,2022-08-17 13:54:23.046875
1820,-109.89,2022-08-17 13:54:23.062500
1821,-118.62,2022-08-17 13:54:23.078125
1822,-128.9,2022-08-17 13:54:23.093750
1823,-140.34,2022-08-17 13:54:23.109375
1824,-152.09,2022-08-17 13:54:23.125000
1825,-162.55,2022-08-17 13:54:23.140625
1826,-169.59,2022-08-17 13:54:23.156250
1827,-170.94,2022-08-17 13:54:23.171875
1828,-164.99,2022-08-17 13:54:23.187500
1829,-151.29,2022-08-17 13:54:23.203125
1830,-130.82,2022-08-17 13:54:23.218750
1831,-105.78,2022-08-17 13:54:23.234375
1832,-79.01,2022-08-17 13:54:23.250000
1833,-53.35,2022-08-17 13:54:23.265625
1834,-31.19,2022-08-17 13:54:23.281250
1835,-14.31,2022-08-17 13:54:23.296875
1836,-3.93,2022-08-17 13:54:23.312500
1837,-0.67,2022-08-17 13:54:23.328125
1838,-4.36,2022-08-17 13:54:23.343750
1839,-13.65,2022-08-17 13:54:23.359375
1840,-25.87,2022-08-17 13:54:23.375000
1841,-37.36,2022-08-17 13:54:23.390625
1842,-44.49,2022-08-17 13:54:23.406250
1843,-44.74,2022-08-17 13:54:23.421875
1844,-37.75,2022-08-17 13:54:23.437500
1845,-25.4,2022-08-17 13:54:23.453125
1846,-11.14,2022-08-17 13:54:23.468750
1847,1.38,2022-08-17 13:54:23.484375
1848,9.77,2022-08-17 13:54:23.500000
1849,13.7,2022-08-17 13:54:23.515625
1850,14.85,2022-08-17 13:54:23.531250
1851,15.76,2022-08-17 13:54:23.546875
1852,18.48,2022-08-17 13:54:23.562500
1853,23.38,2022-08-17 13:54:23.578125
1854,28.79,2022-08-17 13:54:23.593750
1855,31.73,2022-08-17 13:54:23.609375
1856,29.2,2022-08-17 13:54:23.625000
1857,19.39,2022-08-17 13:54:23.640625
1858,2.38,2022-08-17 13:54:23.656250
1859,-20.07,2022-08-17 13:54:23.671875
1860,-45.39,2022-08-17 13:54:23.687500
1861,-71.08,2022-08-17 13:54:23.703125
1862,-95.35,2022-08-17 13:54:23.718750
1863,-117.07,2022-08-17 13:54:23.734375
1864,-135.32,2022-08-17 13:54:23.750000
1865,-148.98,2022-08-17 13:54:23.765625
1866,-156.51,2022-08-17 13:54:23.781250
1867,-156.37,2022-08-17 13:54:23.796875
1868,-147.56,2022-08-17 13:54:23.812500
1869,-130.12,2022-08-17 13:54:23.828125
1870,-105.32,2022-08-17 13:54:23.843750
1871,-75.4,2022-08-17 13:54:23.859375
1872,-42.97,2022-08-17 13:54:23.875000
1873,-10.62,2022-08-17 13:54:23.890625
1874,19.43,2022-08-17 13:54:23.906250
1875,45.24,2022-08-17 13:54:23.921875
1876,64.9,2022-08-17 13:54:23.937500
1877,76.55,2022-08-17 13:54:23.953125
1878,78.67,2022-08-17 13:54:23.968750
1879,70.75,2022-08-17 13:54:23.984375
1880,54.07,2022-08-17 13:54:24.000000
1881,31.86,2022-08-17 13:54:24.015625
1882,8.82,2022-08-17 13:54:24.031250
1883,-10.1,2022-08-17 13:54:24.046875
1884,-21.22,2022-08-17 13:54:24.062500
1885,-23.1,2022-08-17 13:54:24.078125
1886,-16.55,2022-08-17 13:54:24.093750
1887,-4.09,2022-08-17 13:54:24.109375
1888,11.23,2022-08-17 13:54:24.125000
1889,26.71,2022-08-17 13:54:24.140625
1890,40.33,2022-08-17 13:54:24.156250
1891,50.63,2022-08-17 13:54:24.171875
1892,56.35,2022-08-17 13:54:24.187500
1893,56.38,2022-08-17 13:54:24.203125
1894,49.94,2022-08-17 13:54:24.218750
1895,37.05,2022-08-17 13:54:24.234375
1896,18.97,2022-08-17 13:54:24.250000
1897,-1.72,2022-08-17 13:54:24.265625
1898,-21.32,2022-08-17 13:54:24.281250
1899,-35.76,2022-08-17 13:54:24.296875
1900,-41.64,2022-08-17 13:54:24.312500
1901,-37.23,2022-08-17 13:54:24.328125
1902,-23.1,2022-08-17 13:54:24.343750
1903,-2.12,2022-08-17 13:54:24.359375
1904,21.56,2022-08-17 13:54:24.375000
1905,43.78,2022-08-17 13:54:24.390625
1906,61.62,2022-08-17 13:54:24.406250
1907,74.07,2022-08-17 13:54:24.421875
1908,81.83,2022-08-17 13:54:24.437500
1909,86.45,2022-08-17 13:54:24.453125
1910,89.46,2022-08-17 13:54:24.468750
1911,91.74,2022-08-17 13:54:24.484375
1912,93.53,2022-08-17 13:54:24.500000
1913,94.65,2022-08-17 13:54:24.515625
1914,94.84,2022-08-17 13:54:24.531250
1915,93.95,2022-08-17 13:54:24.546875
1916,91.79,2022-08-17 13:54:24.562500
1917,87.97,2022-08-17 13:54:24.578125
1918,81.8,2022-08-17 13:54:24.593750
1919,72.35,2022-08-17 13:54:24.609375
1920,58.85,2022-08-17 13:54:24.625000
1921,41.19,2022-08-17 13:54:24.640625
1922,20.49,2022-08-17 13:54:24.656250
1923,-0.78,2022-08-17 13:54:24.671875
1924,-19.16,2022-08-17 13:54:24.687500
1925,-31.16,2022-08-17 13:54:24.703125
1926,-34.31,2022-08-17 13:54:24.718750
1927,-28.02,2022-08-17 13:54:24.734375
1928,-13.73,2022-08-17 13:54:24.750000
1929,5.67,2022-08-17 13:54:24.765625
1930,26.75,2022-08-17 13:54:24.781250
1931,46.38,2022-08-17 13:54:24.796875
1932,62.14,2022-08-17 13:54:24.812500
1933,72.44,2022-08-17 13:54:24.828125
1934,76.38,2022-08-17 13:54:24.843750
1935,73.85,2022-08-17 13:54:24.859375
1936,65.59,2022-08-17 13:54:24.875000
1937,53.25,2022-08-17 13:54:24.890625
1938,39.04,2022-08-17 13:54:24.906250
1939,25.09,2022-08-17 13:54:24.921875
1940,12.7,2022-08-17 13:54:24.937500
1941,1.87,2022-08-17 13:54:24.953125
1942,-8.42,2022-08-17 13:54:24.968750
1943,-19.62,2022-08-17 13:54:24.984375
1944,-32.6,2022-08-17 13:54:25.000000
1945,-47.04,2022-08-17 13:54:25.015625
1946,-61.35,2022-08-17 13:54:25.031250
1947,-73.13,2022-08-17 13:54:25.046875
1948,-80.11,2022-08-17 13:54:25.062500
1949,-80.99,2022-08-17 13:54:25.078125
1950,-75.94,2022-08-17 13:54:25.093750
1951,-66.55,2022-08-17 13:54:25.109375
1952,-55.2,2022-08-17 13:54:25.125000
1953,-44.3,2022-08-17 13:54:25.140625
1954,-35.63,2022-08-17 13:54:25.156250
1955,-30.11,2022-08-17 13:54:25.171875
1956,-27.98,2022-08-17 13:54:25.187500
1957,-29.13,2022-08-17 13:54:25.203125
1958,-33.58,2022-08-17 13:54:25.218750
1959,-41.56,2022-08-17 13:54:25.234375
1960,-53.31,2022-08-17 13:54:25.250000
1961,-68.79,2022-08-17 13:54:25.265625
1962,-87.2,2022-08-17 13:54:25.281250
1963,-106.64,2022-08-17 13:54:25.296875
1964,-124.21,2022-08-17 13:54:25.312500
1965,-136.25,2022-08-17 13:54:25.328125
1966,-139.02,2022-08-17 13:54:25.343750
1967,-129.36,2022-08-17 13:54:25.359375
1968,-105.35,2022-08-17 13:54:25.375000
1969,-66.87,2022-08-17 13:54:25.390625
1970,-15.8,2022-08-17 13:54:25.406250
1971,43.87,2022-08-17 13:54:25.421875
1972,106.38,2022-08-17 13:54:25.437500
1973,164.9,2022-08-17 13:54:25.453125
1974,212.6,2022-08-17 13:54:25.468750
1975,243.97,2022-08-17 13:54:25.484375
1976,255.98,2022-08-17 13:54:25.500000
1977,248.69,2022-08-17 13:54:25.515625
1978,224.97,2022-08-17 13:54:25.531250
1979,189.71,2022-08-17 13:54:25.546875
1980,148.73,2022-08-17 13:54:25.562500
1981,107.84,2022-08-17 13:54:25.578125
1982,72.04,2022-08-17 13:54:25.593750
1983,45.09,2022-08-17 13:54:25.609375
1984,29.04,2022-08-17 13:54:25.625000
1985,24.02,2022-08-17 13:54:25.640625
1986,28.1,2022-08-17 13:54:25.656250
1987,37.71,2022-08-17 13:54:25.671875
1988,48.49,2022-08-17 13:54:25.687500
1989,56.42,2022-08-17 13:54:25.703125
1990,58.86,2022-08-17 13:54:25.718750
1991,55.08,2022-08-17 13:54:25.734375
1992,46.2,2022-08-17 13:54:25.750000
1993,34.35,2022-08-17 13:54:25.765625
1994,21.76,2022-08-17 13:54:25.781250
1995,9.88,2022-08-17 13:54:25.796875
1996,-1.03,2022-08-17 13:54:25.812500
1997,-11.65,2022-08-17 13:54:25.828125
1998,-23.07,2022-08-17 13:54:25.843750
1999,-36.1,2022-08-17 13:54:25.859375
2000,-50.88,2022-08-17 13:54:25.875000
2001,-66.96,2022-08-17 13:54:25.890625
2002,-83.49,2022-08-17 13:54:25.906250
2003,-99.31,2022-08-17 13:54:25.921875
2004,-112.84,2022-08-17 13:54:25.937500
2005,-121.93,2022-08-17 13:54:25.953125
2006,-124.1,2022-08-17 13:54:25.968750
2007,-117.37,2022-08-17 13:54:25.984375
2008,-101.29,2022-08-17 13:54:26.000000
2009,-77.62,2022-08-17 13:54:26.015625
2010,-50.04,2022-08-17 13:54:26.031250
2011,-23.07,2022-08-17 13:54:26.046875
2012,-0.35,2022-08-17 13:54:26.062500
2013,16.36,2022-08-17 13:54:26.078125
2014,27.46,2022-08-17 13:54:26.093750
2015,34.54,2022-08-17 13:54:26.109375
2016,39.25,2022-08-17 13:54:26.125000
2017,42.4,2022-08-17 13:54:26.140625
2018,43.87,2022-08-17 13:54:26.156250
2019,43.11,2022-08-17 13:54:26.171875
2020,39.85,2022-08-17 13:54:26.187500
2021,34.55,2022-08-17 13:54:26.203125
2022,28.34,2022-08-17 13:54:26.218750
2023,22.65,2022-08-17 13:54:26.234375
2024,18.71,2022-08-17 13:54:26.250000
2025,17.22,2022-08-17 13:54:26.265625
2026,18.21,2022-08-17 13:54:26.281250
2027,21.27,2022-08-17 13:54:26.296875
2028,25.65,2022-08-17 13:54:26.312500
2029,30.54,2022-08-17 13:54:26.328125
2030,35.18,2022-08-17 13:54:26.343750
2031,39.02,2022-08-17 13:54:26.359375
2032,41.71,2022-08-17 13:54:26.375000
2033,43.12,2022-08-17 13:54:26.390625
2034,43.27,2022-08-17 13:54:26.406250
2035,42.37,2022-08-17 13:54:26.421875
2036,40.67,2022-08-17 13:54:26.437500
2037,38.41,2022-08-17 13:54:26.453125
2038,35.68,2022-08-17 13:54:26.468750
2039,32.35,2022-08-17 13:54:26.484375
2040,28.09,2022-08-17 13:54:26.500000
2041,22.45,2022-08-17 13:54:26.515625
2042,15.15,2022-08-17 13:54:26.531250
2043,6.45,2022-08-17 13:54:26.546875
2044,-2.6,2022-08-17 13:54:26.562500
2045,-10.15,2022-08-17 13:54:26.578125
2046,-13.89,2022-08-17 13:54:26.593750
2047,-11.76,2022-08-17 13:54:26.609375
2048,-2.61,2022-08-17 13:54:26.625000
2049,13.22,2022-08-17 13:54:26.640625
2050,33.97,2022-08-17 13:54:26.656250
2051,57.01,2022-08-17 13:54:26.671875
2052,79.76,2022-08-17 13:54:26.687500
2053,100.57,2022-08-17 13:54:26.703125
2054,119.06,2022-08-17 13:54:26.718750
2055,135.96,2022-08-17 13:54:26.734375
2056,152.25,2022-08-17 13:54:26.750000
2057,168.2,2022-08-17 13:54:26.765625
2058,182.64,2022-08-17 13:54:26.781250
2059,192.84,2022-08-17 13:54:26.796875
2060,195.08,2022-08-17 13:54:26.812500
2061,185.85,2022-08-17 13:54:26.828125
2062,163.11,2022-08-17 13:54:26.843750
2063,127.28,2022-08-17 13:54:26.859375
2064,81.42,2022-08-17 13:54:26.875000
2065,30.56,2022-08-17 13:54:26.890625
2066,-19.62,2022-08-17 13:54:26.906250
2067,-64.27,2022-08-17 13:54:26.921875
2068,-100.29,2022-08-17 13:54:26.937500
2069,-126.6,2022-08-17 13:54:26.953125
2070,-143.58,2022-08-17 13:54:26.968750
2071,-152.28,2022-08-17 13:54:26.984375
2072,-153.89,2022-08-17 13:54:27.000000
2073,-149.71,2022-08-17 13:54:27.015625
2074,-141.42,2022-08-17 13:54:27.031250
2075,-131.09,2022-08-17 13:54:27.046875
2076,-121.01,2022-08-17 13:54:27.062500
2077,-112.97,2022-08-17 13:54:27.078125
2078,-107.88,2022-08-17 13:54:27.093750
2079,-105.71,2022-08-17 13:54:27.109375
2080,-106.24,2022-08-17 13:54:27.125000
2081,-109.78,2022-08-17 13:54:27.140625
2082,-117.52,2022-08-17 13:54:27.156250
2083,-131.07,2022-08-17 13:54:27.171875
2084,-151.06,2022-08-17 13:54:27.187500
2085,-175.83,2022-08-17 13:54:27.203125
2086,-200.87,2022-08-17 13:54:27.218750
2087,-219.83,2022-08-17 13:54:27.234375
2088,-226.63,2022-08-17 13:54:27.250000
2089,-217.77,2022-08-17 13:54:27.265625
2090,-193.7,2022-08-17 13:54:27.281250
2091,-158.68,2022-08-17 13:54:27.296875
2092,-119.13,2022-08-17 13:54:27.312500
2093,-81.4,2022-08-17 13:54:27.328125
2094,-50.04,2022-08-17 13:54:27.343750
2095,-27.08,2022-08-17 13:54:27.359375
2096,-12.48,2022-08-17 13:54:27.375000
2097,-5.03,2022-08-17 13:54:27.390625
2098,-3.18,2022-08-17 13:54:27.406250
2099,-5.34,2022-08-17 13:54:27.421875
2100,-9.82,2022-08-17 13:54:27.437500
2101,-14.8,2022-08-17 13:54:27.453125
2102,-18.61,2022-08-17 13:54:27.468750
2103,-20.17,2022-08-17 13:54:27.484375
2104,-19.3,2022-08-17 13:54:27.500000
2105,-16.72,2022-08-17 13:54:27.515625
2106,-13.54,2022-08-17 13:54:27.531250
2107,-10.66,2022-08-17 13:54:27.546875
2108,-8.48,2022-08-17 13:54:27.562500
2109,-6.98,2022-08-17 13:54:27.578125
2110,-6.04,2022-08-17 13:54:27.593750
2111,-5.63,2022-08-17 13:54:27.609375
2112,-5.87,2022-08-17 13:54:27.625000
2113,-6.7,2022-08-17 13:54:27.640625
2114,-7.53,2022-08-17 13:54:27.656250
2115,-7.18,2022-08-17 13:54:27.671875
2116,-4.15,2022-08-17 13:54:27.687500
2117,2.9,2022-08-17 13:54:27.703125
2118,14.76,2022-08-17 13:54:27.718750
2119,31.56,2022-08-17 13:54:27.734375
2120,52.74,2022-08-17 13:54:27.750000
2121,76.95,2022-08-17 13:54:27.765625
2122,101.94,2022-08-17 13:54:27.781250
2123,124.53,2022-08-17 13:54:27.796875
2124,141.11,2022-08-17 13:54:27.812500
2125,148.62,2022-08-17 13:54:27.828125
2126,145.82,2022-08-17 13:54:27.843750
2127,134.19,2022-08-17 13:54:27.859375
2128,117.87,2022-08-17 13:54:27.875000
2129,102.54,2022-08-17 13:54:27.890625
2130,93.44,2022-08-17 13:54:27.906250
2131,93.58,2022-08-17 13:54:27.921875
2132,102.81,2022-08-17 13:54:27.937500
2133,118.08,2022-08-17 13:54:27.953125
2134,134.98,2022-08-17 13:54:27.968750
2135,149.73,2022-08-17 13:54:27.984375
2136,160.62,2022-08-17 13:54:28.000000
2137,168.49,2022-08-17 13:54:28.015625
2138,175.85,2022-08-17 13:54:28.031250
2139,185.28,2022-08-17 13:54:28.046875
2140,197.89,2022-08-17 13:54:28.062500
2141,212.68,2022-08-17 13:54:28.078125
2142,226.88,2022-08-17 13:54:28.093750
2143,237.23,2022-08-17 13:54:28.109375
2144,241.12,2022-08-17 13:54:28.125000
2145,237.15,2022-08-17 13:54:28.140625
2146,225.18,2022-08-17 13:54:28.156250
2147,205.87,2022-08-17 13:54:28.171875
2148,180.44,2022-08-17 13:54:28.187500
2149,150.68,2022-08-17 13:54:28.203125
2150,119.05,2022-08-17 13:54:28.218750
2151,88.14,2022-08-17 13:54:28.234375
2152,59.92,2022-08-17 13:54:28.250000
2153,34.83,2022-08-17 13:54:28.265625
2154,11.7,2022-08-17 13:54:28.281250
2155,-11.39,2022-08-17 13:54:28.296875
2156,-35.64,2022-08-17 13:54:28.312500
2157,-60.42,2022-08-17 13:54:28.328125
2158,-83.39,2022-08-17 13:54:28.343750
2159,-101.67,2022-08-17 13:54:28.359375
2160,-113.61,2022-08-17 13:54:28.375000
2161,-119.82,2022-08-17 13:54:28.390625
2162,-123.03,2022-08-17 13:54:28.406250
2163,-126.82,2022-08-17 13:54:28.421875
2164,-133.92,2022-08-17 13:54:28.437500
2165,-145.09,2022-08-17 13:54:28.453125
2166,-158.98,2022-08-17 13:54:28.468750
2167,-172.68,2022-08-17 13:54:28.484375
2168,-182.89,2022-08-17 13:54:28.500000
2169,-186.81,2022-08-17 13:54:28.515625
2170,-182.77,2022-08-17 13:54:28.531250
2171,-170.38,2022-08-17 13:54:28.546875
2172,-150.52,2022-08-17 13:54:28.562500
2173,-125.01,2022-08-17 13:54:28.578125
2174,-96.27,2022-08-17 13:54:28.593750
2175,-66.87,2022-08-17 13:54:28.609375
2176,-39.17,2022-08-17 13:54:28.625000
2177,-15.17,2022-08-17 13:54:28.640625
2178,3.62,2022-08-17 13:54:28.656250
2179,16.22,2022-08-17 13:54:28.671875
2180,22.38,2022-08-17 13:54:28.687500
2181,22.57,2022-08-17 13:54:28.703125
2182,18.13,2022-08-17 13:54:28.718750
2183,10.9,2022-08-17 13:54:28.734375
2184,2.85,2022-08-17 13:54:28.750000
2185,-4.51,2022-08-17 13:54:28.765625
2186,-10.5,2022-08-17 13:54:28.781250
2187,-15.18,2022-08-17 13:54:28.796875
2188,-19.06,2022-08-17 13:54:28.812500
2189,-22.54,2022-08-17 13:54:28.828125
2190,-25.61,2022-08-17 13:54:28.843750
2191,-27.86,2022-08-17 13:54:28.859375
2192,-28.82,2022-08-17 13:54:28.875000
2193,-28.43,2022-08-17 13:54:28.890625
2194,-27.17,2022-08-17 13:54:28.906250
2195,-26.13,2022-08-17 13:54:28.921875
2196,-26.39,2022-08-17 13:54:28.937500
2197,-28.69,2022-08-17 13:54:28.953125
2198,-33.08,2022-08-17 13:54:28.968750
2199,-39.06,2022-08-17 13:54:28.984375
2200,-45.92,2022-08-17 13:54:29.000000
2201,-53.2,2022-08-17 13:54:29.015625
2202,-60.71,2022-08-17 13:54:29.031250
2203,-68.5,2022-08-17 13:54:29.046875
2204,-76.59,2022-08-17 13:54:29.062500
2205,-84.85,2022-08-17 13:54:29.078125
2206,-93.11,2022-08-17 13:54:29.093750
2207,-101.29,2022-08-17 13:54:29.109375
2208,-109.46,2022-08-17 13:54:29.125000
2209,-117.47,2022-08-17 13:54:29.140625
2210,-124.6,2022-08-17 13:54:29.156250
2211,-129.21,2022-08-17 13:54:29.171875
2212,-128.92,2022-08-17 13:54:29.187500
2213,-121.46,2022-08-17 13:54:29.203125
2214,-105.63,2022-08-17 13:54:29.218750
2215,-82.06,2022-08-17 13:54:29.234375
2216,-53.21,2022-08-17 13:54:29.250000
2217,-22.75,2022-08-17 13:54:29.265625
2218,5.69,2022-08-17 13:54:29.281250
2219,29.39,2022-08-17 13:54:29.296875
2220,47.04,2022-08-17 13:54:29.312500
2221,58.62,2022-08-17 13:54:29.328125
2222,64.69,2022-08-17 13:54:29.343750
2223,65.89,2022-08-17 13:54:29.359375
2224,62.55,2022-08-17 13:54:29.375000
2225,54.81,2022-08-17 13:54:29.390625
2226,42.95,2022-08-17 13:54:29.406250
2227,27.66,2022-08-17 13:54:29.421875
2228,10.07,2022-08-17 13:54:29.437500
2229,-8.5,2022-08-17 13:54:29.453125
2230,-26.92,2022-08-17 13:54:29.468750
2231,-44.44,2022-08-17 13:54:29.484375
2232,-60.71,2022-08-17 13:54:29.500000
2233,-75.48,2022-08-17 13:54:29.515625
2234,-88.36,2022-08-17 13:54:29.531250
2235,-98.83,2022-08-17 13:54:29.546875
2236,-106.37,2022-08-17 13:54:29.562500
2237,-110.82,2022-08-17 13:54:29.578125
2238,-112.54,2022-08-17 13:54:29.593750
2239,-112.1,2022-08-17 13:54:29.609375
2240,-109.85,2022-08-17 13:54:29.625000
2241,-105.18,2022-08-17 13:54:29.640625
2242,-96.28,2022-08-17 13:54:29.656250
2243,-80.55,2022-08-17 13:54:29.671875
2244,-55.61,2022-08-17 13:54:29.687500
2245,-20.65,2022-08-17 13:54:29.703125
2246,22.59,2022-08-17 13:54:29.718750
2247,69.62,2022-08-17 13:54:29.734375
2248,114.18,2022-08-17 13:54:29.750000
2249,149.77,2022-08-17 13:54:29.765625
2250,171.59,2022-08-17 13:54:29.781250
2251,177.68,2022-08-17 13:54:29.796875
2252,169.34,2022-08-17 13:54:29.812500
2253,150.46,2022-08-17 13:54:29.828125
2254,126.28,2022-08-17 13:54:29.843750
2255,101.98,2022-08-17 13:54:29.859375
2256,81.67,2022-08-17 13:54:29.875000
2257,67.89,2022-08-17 13:54:29.890625
2258,61.49,2022-08-17 13:54:29.906250
2259,61.99,2022-08-17 13:54:29.921875
2260,67.91,2022-08-17 13:54:29.937500
2261,77.25,2022-08-17 13:54:29.953125
2262,87.82,2022-08-17 13:54:29.968750
2263,97.6,2022-08-17 13:54:29.984375
2264,104.91,2022-08-17 13:54:30.000000
2265,108.61,2022-08-17 13:54:30.015625
2266,108.26,2022-08-17 13:54:30.031250
2267,104.18,2022-08-17 13:54:30.046875
2268,97.39,2022-08-17 13:54:30.062500
2269,89.32,2022-08-17 13:54:30.078125
2270,81.41,2022-08-17 13:54:30.093750
2271,74.62,2022-08-17 13:54:30.109375
2272,69.3,2022-08-17 13:54:30.125000
2273,65.15,2022-08-17 13:54:30.140625
2274,61.55,2022-08-17 13:54:30.156250
2275,57.96,2022-08-17 13:54:30.171875
2276,54.15,2022-08-17 13:54:30.187500
2277,50.29,2022-08-17 13:54:30.203125
2278,46.83,2022-08-17 13:54:30.218750
2279,44.16,2022-08-17 13:54:30.234375
2280,42.4,2022-08-17 13:54:30.250000
2281,41.29,2022-08-17 13:54:30.265625
2282,40.23,2022-08-17 13:54:30.281250
2283,38.59,2022-08-17 13:54:30.296875
2284,35.94,2022-08-17 13:54:30.312500
2285,32.27,2022-08-17 13:54:30.328125
2286,27.95,2022-08-17 13:54:30.343750
2287,23.51,2022-08-17 13:54:30.359375
2288,19.27,2022-08-17 13:54:30.375000
2289,15.17,2022-08-17 13:54:30.390625
2290,10.74,2022-08-17 13:54:30.406250
2291,5.4,2022-08-17 13:54:30.421875
2292,-1.18,2022-08-17 13:54:30.437500
2293,-8.72,2022-08-17 13:54:30.453125
2294,-16.31,2022-08-17 13:54:30.468750
2295,-22.46,2022-08-17 13:54:30.484375
2296,-25.3,2022-08-17 13:54:30.500000
2297,-22.88,2022-08-17 13:54:30.515625
2298,-13.35,2022-08-17 13:54:30.531250
2299,4.56,2022-08-17 13:54:30.546875
2300,31.14,2022-08-17 13:54:30.562500
2301,65.19,2022-08-17 13:54:30.578125
2302,103.71,2022-08-17 13:54:30.593750
2303,142.2,2022-08-17 13:54:30.609375
2304,175.35,2022-08-17 13:54:30.625000
2305,198.2,2022-08-17 13:54:30.640625
2306,207.13,2022-08-17 13:54:30.656250
2307,200.51,2022-08-17 13:54:30.671875
2308,178.84,2022-08-17 13:54:30.687500
2309,144.35,2022-08-17 13:54:30.703125
2310,100.62,2022-08-17 13:54:30.718750
2311,52.09,2022-08-17 13:54:30.734375
2312,3.75,2022-08-17 13:54:30.750000
2313,-39.37,2022-08-17 13:54:30.765625
2314,-72.84,2022-08-17 13:54:30.781250
2315,-93.83,2022-08-17 13:54:30.796875
2316,-101.93,2022-08-17 13:54:30.812500
2317,-99.34,2022-08-17 13:54:30.828125
2318,-90.34,2022-08-17 13:54:30.843750
2319,-79.72,2022-08-17 13:54:30.859375
2320,-71.18,2022-08-17 13:54:30.875000
2321,-66.12,2022-08-17 13:54:30.890625
2322,-63.58,2022-08-17 13:54:30.906250
2323,-61.18,2022-08-17 13:54:30.921875
2324,-56.66,2022-08-17 13:54:30.937500
2325,-48.91,2022-08-17 13:54:30.953125
2326,-38.35,2022-08-17 13:54:30.968750
2327,-26.43,2022-08-17 13:54:30.984375
2328,-14.7,2022-08-17 13:54:31.000000
2329,-4.28,2022-08-17 13:54:31.015625
2330,4.19,2022-08-17 13:54:31.031250
2331,10.18,2022-08-17 13:54:31.046875
2332,12.95,2022-08-17 13:54:31.062500
2333,11.51,2022-08-17 13:54:31.078125
2334,5.07,2022-08-17 13:54:31.093750
2335,-6.59,2022-08-17 13:54:31.109375
2336,-22.9,2022-08-17 13:54:31.125000
2337,-42.59,2022-08-17 13:54:31.140625
2338,-63.93,2022-08-17 13:54:31.156250
2339,-84.94,2022-08-17 13:54:31.171875
2340,-103.44,2022-08-17 13:54:31.187500
2341,-117.13,2022-08-17 13:54:31.203125
2342,-124.01,2022-08-17 13:54:31.218750
2343,-122.84,2022-08-17 13:54:31.234375
2344,-113.71,2022-08-17 13:54:31.250000
2345,-98.19,2022-08-17 13:54:31.265625
2346,-78.96,2022-08-17 13:54:31.281250
2347,-59.05,2022-08-17 13:54:31.296875
2348,-41.03,2022-08-17 13:54:31.312500
2349,-26.57,2022-08-17 13:54:31.328125
2350,-16.38,2022-08-17 13:54:31.343750
2351,-10.59,2022-08-17 13:54:31.359375
2352,-8.99,2022-08-17 13:54:31.375000
2353,-11.25,2022-08-17 13:54:31.390625
2354,-16.74,2022-08-17 13:54:31.406250
2355,-24.43,2022-08-17 13:54:31.421875
2356,-32.94,2022-08-17 13:54:31.437500
2357,-40.75,2022-08-17 13:54:31.453125
2358,-46.69,2022-08-17 13:54:31.468750
2359,-50.18,2022-08-17 13:54:31.484375
2360,-51.4,2022-08-17 13:54:31.500000
2361,-51.0,2022-08-17 13:54:31.515625
2362,-49.75,2022-08-17 13:54:31.531250
2363,-48.23,2022-08-17 13:54:31.546875
2364,-46.72,2022-08-17 13:54:31.562500
2365,-45.46,2022-08-17 13:54:31.578125
2366,-44.91,2022-08-17 13:54:31.593750
2367,-45.96,2022-08-17 13:54:31.609375
2368,-49.74,2022-08-17 13:54:31.625000
2369,-57.21,2022-08-17 13:54:31.640625
2370,-68.5,2022-08-17 13:54:31.656250
2371,-82.58,2022-08-17 13:54:31.671875
2372,-97.36,2022-08-17 13:54:31.687500
2373,-110.17,2022-08-17 13:54:31.703125
2374,-118.57,2022-08-17 13:54:31.718750
2375,-121.08,2022-08-17 13:54:31.734375
2376,-117.57,2022-08-17 13:54:31.750000
2377,-109.37,2022-08-17 13:54:31.765625
2378,-98.95,2022-08-17 13:54:31.781250
2379,-89.39,2022-08-17 13:54:31.796875
2380,-83.54,2022-08-17 13:54:31.812500
2381,-83.2,2022-08-17 13:54:31.828125
2382,-88.38,2022-08-17 13:54:31.843750
2383,-97.08,2022-08-17 13:54:31.859375
2384,-105.81,2022-08-17 13:54:31.875000
2385,-110.65,2022-08-17 13:54:31.890625
2386,-108.72,2022-08-17 13:54:31.906250
2387,-99.11,2022-08-17 13:54:31.921875
2388,-83.15,2022-08-17 13:54:31.937500
2389,-63.58,2022-08-17 13:54:31.953125
2390,-43.27,2022-08-17 13:54:31.968750
2391,-24.07,2022-08-17 13:54:31.984375
2392,-6.37,2022-08-17 13:54:32.000000
2393,10.39,2022-08-17 13:54:32.015625
2394,26.88,2022-08-17 13:54:32.031250
2395,42.97,2022-08-17 13:54:32.046875
2396,57.53,2022-08-17 13:54:32.062500
2397,68.71,2022-08-17 13:54:32.078125
2398,74.66,2022-08-17 13:54:32.093750
2399,74.22,2022-08-17 13:54:32.109375
2400,67.44,2022-08-17 13:54:32.125000
2401,55.75,2022-08-17 13:54:32.140625
2402,42.0,2022-08-17 13:54:32.156250
2403,30.11,2022-08-17 13:54:32.171875
2404,24.34,2022-08-17 13:54:32.187500
2405,28.13,2022-08-17 13:54:32.203125
2406,42.94,2022-08-17 13:54:32.218750
2407,67.43,2022-08-17 13:54:32.234375
2408,97.7,2022-08-17 13:54:32.250000
2409,128.45,2022-08-17 13:54:32.265625
2410,154.64,2022-08-17 13:54:32.281250
2411,172.96,2022-08-17 13:54:32.296875
2412,182.35,2022-08-17 13:54:32.312500
2413,183.53,2022-08-17 13:54:32.328125
2414,178.12,2022-08-17 13:54:32.343750
2415,167.77,2022-08-17 13:54:32.359375
2416,153.87,2022-08-17 13:54:32.375000
2417,137.58,2022-08-17 13:54:32.390625
2418,120.19,2022-08-17 13:54:32.406250
2419,102.98,2022-08-17 13:54:32.421875
2420,86.99,2022-08-17 13:54:32.437500
2421,72.59,2022-08-17 13:54:32.453125
2422,59.25,2022-08-17 13:54:32.468750
2423,45.94,2022-08-17 13:54:32.484375
2424,31.57,2022-08-17 13:54:32.500000
2425,15.67,2022-08-17 13:54:32.515625
2426,-1.25,2022-08-17 13:54:32.531250
2427,-17.65,2022-08-17 13:54:32.546875
2428,-31.37,2022-08-17 13:54:32.562500
2429,-40.2,2022-08-17 13:54:32.578125
2430,-42.62,2022-08-17 13:54:32.593750
2431,-38.3,2022-08-17 13:54:32.609375
2432,-28.25,2022-08-17 13:54:32.625000
2433,-14.67,2022-08-17 13:54:32.640625
2434,-0.2,2022-08-17 13:54:32.656250
2435,12.79,2022-08-17 13:54:32.671875
2436,22.82,2022-08-17 13:54:32.687500
2437,29.42,2022-08-17 13:54:32.703125
2438,32.83,2022-08-17 13:54:32.718750
2439,33.5,2022-08-17 13:54:32.734375
2440,31.61,2022-08-17 13:54:32.750000
2441,27.06,2022-08-17 13:54:32.765625
2442,19.71,2022-08-17 13:54:32.781250
2443,9.82,2022-08-17 13:54:32.796875
2444,-1.65,2022-08-17 13:54:32.812500
2445,-13.11,2022-08-17 13:54:32.828125
2446,-22.72,2022-08-17 13:54:32.843750
2447,-29.06,2022-08-17 13:54:32.859375
2448,-31.46,2022-08-17 13:54:32.875000
2449,-30.14,2022-08-17 13:54:32.890625
2450,-26.0,2022-08-17 13:54:32.906250
2451,-20.19,2022-08-17 13:54:32.921875
2452,-13.81,2022-08-17 13:54:32.937500
2453,-7.72,2022-08-17 13:54:32.953125
2454,-2.58,2022-08-17 13:54:32.968750
2455,1.14,2022-08-17 13:54:32.984375
2456,3.07,2022-08-17 13:54:33.000000
2457,3.0,2022-08-17 13:54:33.015625
2458,0.93,2022-08-17 13:54:33.031250
2459,-2.9,2022-08-17 13:54:33.046875
2460,-8.01,2022-08-17 13:54:33.062500
2461,-13.82,2022-08-17 13:54:33.078125
2462,-19.82,2022-08-17 13:54:33.093750
2463,-25.7,2022-08-17 13:54:33.109375
2464,-31.39,2022-08-17 13:54:33.125000
2465,-37.14,2022-08-17 13:54:33.140625
2466,-43.27,2022-08-17 13:54:33.156250
2467,-50.15,2022-08-17 13:54:33.171875
2468,-57.89,2022-08-17 13:54:33.187500
2469,-66.11,2022-08-17 13:54:33.203125
2470,-73.8,2022-08-17 13:54:33.218750
2471,-79.32,2022-08-17 13:54:33.234375
2472,-80.72,2022-08-17 13:54:33.250000
2473,-76.21,2022-08-17 13:54:33.265625
2474,-64.81,2022-08-17 13:54:33.281250
2475,-46.85,2022-08-17 13:54:33.296875
2476,-24.06,2022-08-17 13:54:33.312500
2477,0.88,2022-08-17 13:54:33.328125
2478,25.16,2022-08-17 13:54:33.343750
2479,46.65,2022-08-17 13:54:33.359375
2480,64.38,2022-08-17 13:54:33.375000
2481,78.38,2022-08-17 13:54:33.390625
2482,89.19,2022-08-17 13:54:33.406250
2483,97.2,2022-08-17 13:54:33.421875
2484,102.35,2022-08-17 13:54:33.437500
2485,104.24,2022-08-17 13:54:33.453125
2486,102.49,2022-08-17 13:54:33.468750
2487,97.22,2022-08-17 13:54:33.484375
2488,89.16,2022-08-17 13:54:33.500000
2489,79.55,2022-08-17 13:54:33.515625
2490,69.65,2022-08-17 13:54:33.531250
2491,60.49,2022-08-17 13:54:33.546875
2492,52.67,2022-08-17 13:54:33.562500
2493,46.4,2022-08-17 13:54:33.578125
2494,41.63,2022-08-17 13:54:33.593750
2495,38.22,2022-08-17 13:54:33.609375
2496,35.91,2022-08-17 13:54:33.625000
2497,34.3,2022-08-17 13:54:33.640625
2498,32.86,2022-08-17 13:54:33.656250
2499,30.85,2022-08-17 13:54:33.671875
2500,27.46,2022-08-17 13:54:33.687500
2501,22.01,2022-08-17 13:54:33.703125
2502,14.1,2022-08-17 13:54:33.718750
2503,3.86,2022-08-17 13:54:33.734375
2504,-8.05,2022-08-17 13:54:33.750000
2505,-20.54,2022-08-17 13:54:33.765625
2506,-32.39,2022-08-17 13:54:33.781250
2507,-42.63,2022-08-17 13:54:33.796875
2508,-50.84,2022-08-17 13:54:33.812500
2509,-57.25,2022-08-17 13:54:33.828125
2510,-62.59,2022-08-17 13:54:33.843750
2511,-67.85,2022-08-17 13:54:33.859375
2512,-74.0,2022-08-17 13:54:33.875000
2513,-81.69,2022-08-17 13:54:33.890625
2514,-91.0,2022-08-17 13:54:33.906250
2515,-101.25,2022-08-17 13:54:33.921875
2516,-110.93,2022-08-17 13:54:33.937500
2517,-117.95,2022-08-17 13:54:33.953125
2518,-120.07,2022-08-17 13:54:33.968750
2519,-115.75,2022-08-17 13:54:33.984375
2520,-104.76,2022-08-17 13:54:34.000000
2521,-88.38,2022-08-17 13:54:34.015625
2522,-69.09,2022-08-17 13:54:34.031250
2523,-49.68,2022-08-17 13:54:34.046875
2524,-32.35,2022-08-17 13:54:34.062500
2525,-18.19,2022-08-17 13:54:34.078125
2526,-7.09,2022-08-17 13:54:34.093750
2527,1.61,2022-08-17 13:54:34.109375
2528,8.49,2022-08-17 13:54:34.125000
2529,13.53,2022-08-17 13:54:34.140625
2530,16.13,2022-08-17 13:54:34.156250
2531,15.58,2022-08-17 13:54:34.171875
2532,11.61,2022-08-17 13:54:34.187500
2533,4.76,2022-08-17 13:54:34.203125
2534,-3.71,2022-08-17 13:54:34.218750
2535,-12.2,2022-08-17 13:54:34.234375
2536,-19.43,2022-08-17 13:54:34.250000
2537,-24.85,2022-08-17 13:54:34.265625
2538,-28.69,2022-08-17 13:54:34.281250
2539,-31.81,2022-08-17 13:54:34.296875
2540,-35.22,2022-08-17 13:54:34.312500
2541,-39.79,2022-08-17 13:54:34.328125
2542,-45.99,2022-08-17 13:54:34.343750
2543,-53.84,2022-08-17 13:54:34.359375
2544,-62.87,2022-08-17 13:54:34.375000
2545,-72.17,2022-08-17 13:54:34.390625
2546,-80.49,2022-08-17 13:54:34.406250
2547,-86.49,2022-08-17 13:54:34.421875
2548,-89.04,2022-08-17 13:54:34.437500
2549,-87.71,2022-08-17 13:54:34.453125
2550,-82.91,2022-08-17 13:54:34.468750
2551,-75.93,2022-08-17 13:54:34.484375
2552,-68.56,2022-08-17 13:54:34.500000
2553,-62.54,2022-08-17 13:54:34.515625
2554,-59.01,2022-08-17 13:54:34.531250
2555,-58.16,2022-08-17 13:54:34.546875
2556,-59.31,2022-08-17 13:54:34.562500
2557,-61.49,2022-08-17 13:54:34.578125
2558,-64.1,2022-08-17 13:54:34.593750
2559,-67.31,2022-08-17 13:54:34.609375
2560,-71.94,2022-08-17 13:54:34.625000
2561,-78.72,2022-08-17 13:54:34.640625
2562,-87.27,2022-08-17 13:54:34.656250
2563,-95.58,2022-08-17 13:54:34.671875
2564,-100.21,2022-08-17 13:54:34.687500
2565,-97.51,2022-08-17 13:54:34.703125
2566,-85.11,2022-08-17 13:54:34.718750
2567,-63.03,2022-08-17 13:54:34.734375
2568,-33.74,2022-08-17 13:54:34.750000
2569,-1.25,2022-08-17 13:54:34.765625
2570,30.33,2022-08-17 13:54:34.781250
2571,57.88,2022-08-17 13:54:34.796875
2572,79.68,2022-08-17 13:54:34.812500
2573,95.11,2022-08-17 13:54:34.828125
2574,104.1,2022-08-17 13:54:34.843750
2575,106.87,2022-08-17 13:54:34.859375
2576,103.95,2022-08-17 13:54:34.875000
2577,96.48,2022-08-17 13:54:34.890625
2578,86.31,2022-08-17 13:54:34.906250
2579,75.77,2022-08-17 13:54:34.921875
2580,67.06,2022-08-17 13:54:34.937500
2581,61.56,2022-08-17 13:54:34.953125
2582,59.48,2022-08-17 13:54:34.968750
2583,59.94,2022-08-17 13:54:34.984375
2584,61.49,2022-08-17 13:54:35.000000
2585,62.74,2022-08-17 13:54:35.015625
2586,62.93,2022-08-17 13:54:35.031250
2587,62.05,2022-08-17 13:54:35.046875
2588,60.58,2022-08-17 13:54:35.062500
2589,59.0,2022-08-17 13:54:35.078125
2590,57.41,2022-08-17 13:54:35.093750
2591,55.34,2022-08-17 13:54:35.109375
2592,51.92,2022-08-17 13:54:35.125000
2593,46.31,2022-08-17 13:54:35.140625
2594,38.1,2022-08-17 13:54:35.156250
2595,27.62,2022-08-17 13:54:35.171875
2596,15.85,2022-08-17 13:54:35.187500
2597,4.1,2022-08-17 13:54:35.203125
2598,-6.45,2022-08-17 13:54:35.218750
2599,-15.19,2022-08-17 13:54:35.234375
2600,-22.24,2022-08-17 13:54:35.250000
2601,-28.47,2022-08-17 13:54:35.265625
2602,-35.08,2022-08-17 13:54:35.281250
2603,-43.15,2022-08-17 13:54:35.296875
2604,-53.05,2022-08-17 13:54:35.312500
2605,-64.11,2022-08-17 13:54:35.328125
2606,-74.46,2022-08-17 13:54:35.343750
2607,-81.39,2022-08-17 13:54:35.359375
2608,-82.08,2022-08-17 13:54:35.375000
2609,-74.51,2022-08-17 13:54:35.390625
2610,-58.28,2022-08-17 13:54:35.406250
2611,-34.85,2022-08-17 13:54:35.421875
2612,-7.23,2022-08-17 13:54:35.437500
2613,21.0,2022-08-17 13:54:35.453125
2614,46.67,2022-08-17 13:54:35.468750
2615,67.8,2022-08-17 13:54:35.484375
2616,83.76,2022-08-17 13:54:35.500000
2617,94.83,2022-08-17 13:54:35.515625
2618,101.51,2022-08-17 13:54:35.531250
2619,104.19,2022-08-17 13:54:35.546875
2620,102.98,2022-08-17 13:54:35.562500
2621,98.13,2022-08-17 13:54:35.578125
2622,90.37,2022-08-17 13:54:35.593750
2623,81.01,2022-08-17 13:54:35.609375
2624,71.65,2022-08-17 13:54:35.625000
2625,63.69,2022-08-17 13:54:35.640625
2626,57.81,2022-08-17 13:54:35.656250
2627,53.79,2022-08-17 13:54:35.671875
2628,50.81,2022-08-17 13:54:35.687500
2629,47.83,2022-08-17 13:54:35.703125
2630,44.14,2022-08-17 13:54:35.718750
2631,39.54,2022-08-17 13:54:35.734375
2632,34.28,2022-08-17 13:54:35.750000
2633,28.79,2022-08-17 13:54:35.765625
2634,23.41,2022-08-17 13:54:35.781250
2635,18.16,2022-08-17 13:54:35.796875
2636,12.8,2022-08-17 13:54:35.812500
2637,6.93,2022-08-17 13:54:35.828125
2638,0.19,2022-08-17 13:54:35.843750
2639,-7.56,2022-08-17 13:54:35.859375
2640,-16.13,2022-08-17 13:54:35.875000
2641,-25.07,2022-08-17 13:54:35.890625
2642,-33.72,2022-08-17 13:54:35.906250
2643,-41.44,2022-08-17 13:54:35.921875
2644,-47.89,2022-08-17 13:54:35.937500
2645,-53.26,2022-08-17 13:54:35.953125
2646,-58.37,2022-08-17 13:54:35.968750
2647,-64.55,2022-08-17 13:54:35.984375
2648,-73.14,2022-08-17 13:54:36.000000
2649,-84.88,2022-08-17 13:54:36.015625
2650,-99.36,2022-08-17 13:54:36.031250
2651,-114.81,2022-08-17 13:54:36.046875
2652,-128.36,2022-08-17 13:54:36.062500
2653,-136.65,2022-08-17 13:54:36.078125
2654,-136.59,2022-08-17 13:54:36.093750
2655,-126.02,2022-08-17 13:54:36.109375
2656,-104.24,2022-08-17 13:54:36.125000
2657,-72.17,2022-08-17 13:54:36.140625
2658,-32.34,2022-08-17 13:54:36.156250
2659,11.46,2022-08-17 13:54:36.171875
2660,54.82,2022-08-17 13:54:36.187500
2661,93.42,2022-08-17 13:54:36.203125
2662,123.82,2022-08-17 13:54:36.218750
2663,143.95,2022-08-17 13:54:36.234375
2664,153.21,2022-08-17 13:54:36.250000
2665,152.33,2022-08-17 13:54:36.265625
2666,143.0,2022-08-17 13:54:36.281250
2667,127.65,2022-08-17 13:54:36.296875
2668,109.07,2022-08-17 13:54:36.312500
2669,90.16,2022-08-17 13:54:36.328125
2670,73.35,2022-08-17 13:54:36.343750
2671,60.17,2022-08-17 13:54:36.359375
2672,50.89,2022-08-17 13:54:36.375000
2673,44.66,2022-08-17 13:54:36.390625
2674,40.09,2022-08-17 13:54:36.406250
2675,36.04,2022-08-17 13:54:36.421875
2676,32.15,2022-08-17 13:54:36.437500
2677,28.86,2022-08-17 13:54:36.453125
2678,26.88,2022-08-17 13:54:36.468750
2679,26.54,2022-08-17 13:54:36.484375
2680,27.2,2022-08-17 13:54:36.500000
2681,27.41,2022-08-17 13:54:36.515625
2682,25.4,2022-08-17 13:54:36.531250
2683,19.95,2022-08-17 13:54:36.546875
2684,10.98,2022-08-17 13:54:36.562500
2685,-0.27,2022-08-17 13:54:36.578125
2686,-11.62,2022-08-17 13:54:36.593750
2687,-20.82,2022-08-17 13:54:36.609375
2688,-26.39,2022-08-17 13:54:36.625000
2689,-28.24,2022-08-17 13:54:36.640625
2690,-27.87,2022-08-17 13:54:36.656250
2691,-28.07,2022-08-17 13:54:36.671875
2692,-32.21,2022-08-17 13:54:36.687500
2693,-43.19,2022-08-17 13:54:36.703125
2694,-62.39,2022-08-17 13:54:36.718750
2695,-88.81,2022-08-17 13:54:36.734375
2696,-118.72,2022-08-17 13:54:36.750000
2697,-146.42,2022-08-17 13:54:36.765625
2698,-165.74,2022-08-17 13:54:36.781250
2699,-172.04,2022-08-17 13:54:36.796875
2700,-163.87,2022-08-17 13:54:36.812500
2701,-143.33,2022-08-17 13:54:36.828125
2702,-115.11,2022-08-17 13:54:36.843750
2703,-84.62,2022-08-17 13:54:36.859375
2704,-56.17,2022-08-17 13:54:36.875000
2705,-31.85,2022-08-17 13:54:36.890625
2706,-11.78,2022-08-17 13:54:36.906250
2707,5.14,2022-08-17 13:54:36.921875
2708,20.24,2022-08-17 13:54:36.937500
2709,34.71,2022-08-17 13:54:36.953125
2710,49.73,2022-08-17 13:54:36.968750
2711,66.7,2022-08-17 13:54:36.984375
2712,87.06,2022-08-17 13:54:37.000000
2713,111.66,2022-08-17 13:54:37.015625
2714,139.98,2022-08-17 13:54:37.031250
2715,169.67,2022-08-17 13:54:37.046875
2716,196.88,2022-08-17 13:54:37.062500
2717,217.28,2022-08-17 13:54:37.078125
2718,227.19,2022-08-17 13:54:37.093750
2719,224.73,2022-08-17 13:54:37.109375
2720,210.26,2022-08-17 13:54:37.125000
2721,186.36,2022-08-17 13:54:37.140625
2722,157.16,2022-08-17 13:54:37.156250
2723,127.33,2022-08-17 13:54:37.171875
2724,100.97,2022-08-17 13:54:37.187500
2725,80.7,2022-08-17 13:54:37.203125
2726,67.32,2022-08-17 13:54:37.218750
2727,59.89,2022-08-17 13:54:37.234375
2728,56.47,2022-08-17 13:54:37.250000
2729,54.81,2022-08-17 13:54:37.265625
2730,52.95,2022-08-17 13:54:37.281250
2731,49.52,2022-08-17 13:54:37.296875
2732,43.69,2022-08-17 13:54:37.312500
2733,35.07,2022-08-17 13:54:37.328125
2734,23.7,2022-08-17 13:54:37.343750
2735,10.09,2022-08-17 13:54:37.359375
2736,-4.85,2022-08-17 13:54:37.375000
2737,-19.99,2022-08-17 13:54:37.390625
2738,-34.27,2022-08-17 13:54:37.406250
2739,-46.81,2022-08-17 13:54:37.421875
2740,-56.88,2022-08-17 13:54:37.437500
2741,-63.52,2022-08-17 13:54:37.453125
2742,-65.46,2022-08-17 13:54:37.468750
2743,-61.26,2022-08-17 13:54:37.484375
2744,-49.99,2022-08-17 13:54:37.500000
2745,-31.72,2022-08-17 13:54:37.515625
2746,-7.85,2022-08-17 13:54:37.531250
2747,19.29,2022-08-17 13:54:37.546875
2748,47.14,2022-08-17 13:54:37.562500
2749,73.34,2022-08-17 13:54:37.578125
2750,95.71,2022-08-17 13:54:37.593750
2751,111.74,2022-08-17 13:54:37.609375
2752,118.69,2022-08-17 13:54:37.625000
2753,114.3,2022-08-17 13:54:37.640625
2754,98.28,2022-08-17 13:54:37.656250
2755,73.32,2022-08-17 13:54:37.671875
2756,44.83,2022-08-17 13:54:37.687500
2757,19.19,2022-08-17 13:54:37.703125
2758,1.18,2022-08-17 13:54:37.718750
2759,-7.83,2022-08-17 13:54:37.734375
2760,-10.14,2022-08-17 13:54:37.750000
2761,-10.06,2022-08-17 13:54:37.765625
2762,-11.46,2022-08-17 13:54:37.781250
2763,-16.05,2022-08-17 13:54:37.796875
2764,-23.09,2022-08-17 13:54:37.812500
2765,-30.41,2022-08-17 13:54:37.828125
2766,-36.1,2022-08-17 13:54:37.843750
2767,-39.45,2022-08-17 13:54:37.859375
2768,-41.06,2022-08-17 13:54:37.875000
2769,-42.14,2022-08-17 13:54:37.890625
2770,-43.67,2022-08-17 13:54:37.906250
2771,-45.97,2022-08-17 13:54:37.921875
2772,-48.7,2022-08-17 13:54:37.937500
2773,-51.3,2022-08-17 13:54:37.953125
2774,-53.33,2022-08-17 13:54:37.968750
2775,-54.77,2022-08-17 13:54:37.984375
2776,-56.16,2022-08-17 13:54:38.000000
2777,-58.23,2022-08-17 13:54:38.015625
2778,-61.72,2022-08-17 13:54:38.031250
2779,-67.02,2022-08-17 13:54:38.046875
2780,-74.07,2022-08-17 13:54:38.062500
2781,-82.55,2022-08-17 13:54:38.078125
2782,-91.87,2022-08-17 13:54:38.093750
2783,-101.29,2022-08-17 13:54:38.109375
2784,-109.67,2022-08-17 13:54:38.125000
2785,-115.35,2022-08-17 13:54:38.140625
2786,-116.34,2022-08-17 13:54:38.156250
2787,-110.72,2022-08-17 13:54:38.171875
2788,-97.4,2022-08-17 13:54:38.187500
2789,-76.69,2022-08-17 13:54:38.203125
2790,-50.39,2022-08-17 13:54:38.218750
2791,-21.41,2022-08-17 13:54:38.234375
2792,7.1,2022-08-17 13:54:38.250000
2793,32.44,2022-08-17 13:54:38.265625
2794,52.95,2022-08-17 13:54:38.281250
2795,67.96,2022-08-17 13:54:38.296875
2796,77.55,2022-08-17 13:54:38.312500
2797,82.12,2022-08-17 13:54:38.328125
2798,82.17,2022-08-17 13:54:38.343750
2799,78.31,2022-08-17 13:54:38.359375
2800,71.35,2022-08-17 13:54:38.375000
2801,62.34,2022-08-17 13:54:38.390625
2802,52.57,2022-08-17 13:54:38.406250
2803,43.23,2022-08-17 13:54:38.421875
2804,35.26,2022-08-17 13:54:38.437500
2805,29.03,2022-08-17 13:54:38.453125
2806,24.41,2022-08-17 13:54:38.468750
2807,20.95,2022-08-17 13:54:38.484375
2808,18.17,2022-08-17 13:54:38.500000
2809,15.79,2022-08-17 13:54:38.515625
2810,13.82,2022-08-17 13:54:38.531250
2811,12.31,2022-08-17 13:54:38.546875
2812,11.12,2022-08-17 13:54:38.562500
2813,9.72,2022-08-17 13:54:38.578125
2814,7.29,2022-08-17 13:54:38.593750
2815,3.05,2022-08-17 13:54:38.609375
2816,-3.38,2022-08-17 13:54:38.625000
2817,-11.7,2022-08-17 13:54:38.640625
2818,-20.99,2022-08-17 13:54:38.656250
2819,-30.12,2022-08-17 13:54:38.671875
2820,-38.1,2022-08-17 13:54:38.687500
2821,-44.51,2022-08-17 13:54:38.703125
2822,-49.59,2022-08-17 13:54:38.718750
2823,-54.1,2022-08-17 13:54:38.734375
2824,-59.01,2022-08-17 13:54:38.750000
2825,-65.23,2022-08-17 13:54:38.765625
2826,-73.3,2022-08-17 13:54:38.781250
2827,-83.16,2022-08-17 13:54:38.796875
2828,-93.96,2022-08-17 13:54:38.812500
2829,-103.95,2022-08-17 13:54:38.828125
2830,-110.8,2022-08-17 13:54:38.843750
2831,-112.11,2022-08-17 13:54:38.859375
2832,-106.19,2022-08-17 13:54:38.875000
2833,-92.74,2022-08-17 13:54:38.890625
2834,-73.02,2022-08-17 13:54:38.906250
2835,-49.57,2022-08-17 13:54:38.921875
2836,-25.35,2022-08-17 13:54:38.937500
2837,-2.97,2022-08-17 13:54:38.953125
2838,15.85,2022-08-17 13:54:38.968750
2839,30.28,2022-08-17 13:54:38.984375
2840,40.1,2022-08-17 13:54:39.000000
2841,45.25,2022-08-17 13:54:39.015625
2842,45.71,2022-08-17 13:54:39.031250
2843,41.55,2022-08-17 13:54:39.046875
2844,33.25,2022-08-17 13:54:39.062500
2845,21.77,2022-08-17 13:54:39.078125
2846,8.47,2022-08-17 13:54:39.093750
2847,-5.22,2022-08-17 13:54:39.109375
2848,-18.16,2022-08-17 13:54:39.125000
2849,-29.73,2022-08-17 13:54:39.140625
2850,-39.76,2022-08-17 13:54:39.156250
2851,-48.46,2022-08-17 13:54:39.171875
2852,-56.06,2022-08-17 13:54:39.187500
2853,-62.75,2022-08-17 13:54:39.203125
2854,-68.62,2022-08-17 13:54:39.218750
2855,-73.65,2022-08-17 13:54:39.234375
2856,-77.92,2022-08-17 13:54:39.250000
2857,-81.61,2022-08-17 13:54:39.265625
2858,-85.05,2022-08-17 13:54:39.281250
2859,-88.65,2022-08-17 13:54:39.296875
2860,-92.84,2022-08-17 13:54:39.312500
2861,-97.95,2022-08-17 13:54:39.328125
2862,-104.11,2022-08-17 13:54:39.343750
2863,-111.18,2022-08-17 13:54:39.359375
2864,-118.87,2022-08-17 13:54:39.375000
2865,-126.86,2022-08-17 13:54:39.390625
2866,-135.08,2022-08-17 13:54:39.406250
2867,-143.83,2022-08-17 13:54:39.421875
2868,-153.84,2022-08-17 13:54:39.437500
2869,-166.13,2022-08-17 13:54:39.453125
2870,-181.58,2022-08-17 13:54:39.468750
2871,-200.49,2022-08-17 13:54:39.484375
2872,-222.08,2022-08-17 13:54:39.500000
2873,-244.32,2022-08-17 13:54:39.515625
2874,-264.27,2022-08-17 13:54:39.531250
2875,-278.86,2022-08-17 13:54:39.546875
2876,-285.94,2022-08-17 13:54:39.562500
2877,-284.99,2022-08-17 13:54:39.578125
2878,-277.36,2022-08-17 13:54:39.593750
2879,-265.64,2022-08-17 13:54:39.609375
2880,-252.62,2022-08-17 13:54:39.625000
2881,-240.27,2022-08-17 13:54:39.640625
2882,-229.26,2022-08-17 13:54:39.656250
2883,-219.15,2022-08-17 13:54:39.671875
2884,-208.99,2022-08-17 13:54:39.687500
2885,-198.08,2022-08-17 13:54:39.703125
2886,-186.29,2022-08-17 13:54:39.718750
2887,-174.01,2022-08-17 13:54:39.734375
2888,-161.69,2022-08-17 13:54:39.750000
2889,-149.49,2022-08-17 13:54:39.765625
2890,-137.09,2022-08-17 13:54:39.781250
2891,-123.85,2022-08-17 13:54:39.796875
2892,-109.11,2022-08-17 13:54:39.812500
2893,-92.53,2022-08-17 13:54:39.828125
2894,-74.32,2022-08-17 13:54:39.843750
2895,-55.2,2022-08-17 13:54:39.859375
2896,-36.08,2022-08-17 13:54:39.875000
2897,-17.76,2022-08-17 13:54:39.890625
2898,-0.61,2022-08-17 13:54:39.906250
2899,15.6,2022-08-17 13:54:39.921875
2900,31.55,2022-08-17 13:54:39.937500
2901,48.04,2022-08-17 13:54:39.953125
2902,65.74,2022-08-17 13:54:39.968750
2903,84.98,2022-08-17 13:54:39.984375
2904,105.85,2022-08-17 13:54:40.000000
2905,128.32,2022-08-17 13:54:40.015625
2906,152.07,2022-08-17 13:54:40.031250
2907,176.27,2022-08-17 13:54:40.046875
2908,199.24,2022-08-17 13:54:40.062500
2909,218.62,2022-08-17 13:54:40.078125
2910,231.84,2022-08-17 13:54:40.093750
2911,237.09,2022-08-17 13:54:40.109375
2912,233.99,2022-08-17 13:54:40.125000
2913,223.76,2022-08-17 13:54:40.140625
2914,208.64,2022-08-17 13:54:40.156250
2915,190.84,2022-08-17 13:54:40.171875
2916,171.78,2022-08-17 13:54:40.187500
2917,151.87,2022-08-17 13:54:40.203125
2918,131.14,2022-08-17 13:54:40.218750
2919,110.19,2022-08-17 13:54:40.234375
2920,90.87,2022-08-17 13:54:40.250000
2921,76.15,2022-08-17 13:54:40.265625
2922,69.22,2022-08-17 13:54:40.281250
2923,72.16,2022-08-17 13:54:40.296875
2924,85.06,2022-08-17 13:54:40.312500
2925,105.84,2022-08-17 13:54:40.328125
2926,131.0,2022-08-17 13:54:40.343750
2927,156.68,2022-08-17 13:54:40.359375
2928,179.8,2022-08-17 13:54:40.375000
2929,198.61,2022-08-17 13:54:40.390625
2930,212.63,2022-08-17 13:54:40.406250
2931,222.21,2022-08-17 13:54:40.421875
2932,227.93,2022-08-17 13:54:40.437500
2933,230.35,2022-08-17 13:54:40.453125
2934,230.0,2022-08-17 13:54:40.468750
2935,227.5,2022-08-17 13:54:40.484375
2936,223.65,2022-08-17 13:54:40.500000
2937,219.33,2022-08-17 13:54:40.515625
2938,215.47,2022-08-17 13:54:40.531250
2939,212.83,2022-08-17 13:54:40.546875
2940,211.95,2022-08-17 13:54:40.562500
2941,213.26,2022-08-17 13:54:40.578125
2942,216.97,2022-08-17 13:54:40.593750
2943,223.07,2022-08-17 13:54:40.609375
2944,231.24,2022-08-17 13:54:40.625000
2945,240.76,2022-08-17 13:54:40.640625
2946,250.59,2022-08-17 13:54:40.656250
2947,259.75,2022-08-17 13:54:40.671875
2948,267.53,2022-08-17 13:54:40.687500
2949,273.93,2022-08-17 13:54:40.703125
2950,279.54,2022-08-17 13:54:40.718750
2951,285.35,2022-08-17 13:54:40.734375
2952,292.19,2022-08-17 13:54:40.750000
2953,300.21,2022-08-17 13:54:40.765625
2954,308.68,2022-08-17 13:54:40.781250
2955,316.2,2022-08-17 13:54:40.796875
2956,321.21,2022-08-17 13:54:40.812500
2957,322.58,2022-08-17 13:54:40.828125
2958,320.0,2022-08-17 13:54:40.843750
2959,313.84,2022-08-17 13:54:40.859375
2960,304.68,2022-08-17 13:54:40.875000
2961,292.82,2022-08-17 13:54:40.890625
2962,278.32,2022-08-17 13:54:40.906250
2963,260.89,2022-08-17 13:54:40.921875
2964,240.42,2022-08-17 13:54:40.937500
2965,217.09,2022-08-17 13:54:40.953125
2966,191.1,2022-08-17 13:54:40.968750
2967,162.3,2022-08-17 13:54:40.984375
2968,130.31,2022-08-17 13:54:41.000000
2969,95.3,2022-08-17 13:54:41.015625
2970,59.18,2022-08-17 13:54:41.031250
2971,25.93,2022-08-17 13:54:41.046875
2972,0.33,2022-08-17 13:54:41.062500
2973,-14.29,2022-08-17 13:54:41.078125
2974,-18.38,2022-08-17 13:54:41.093750
2975,-16.68,2022-08-17 13:54:41.109375
2976,-16.48,2022-08-17 13:54:41.125000
2977,-24.18,2022-08-17 13:54:41.140625
2978,-42.42,2022-08-17 13:54:41.156250
2979,-69.13,2022-08-17 13:54:41.171875
2980,-99.28,2022-08-17 13:54:41.187500
2981,-128.04,2022-08-17 13:54:41.203125
2982,-153.4,2022-08-17 13:54:41.218750
2983,-176.92,2022-08-17 13:54:41.234375
2984,-202.01,2022-08-17 13:54:41.250000
2985,-231.18,2022-08-17 13:54:41.265625
2986,-263.8,2022-08-17 13:54:41.281250
2987,-295.73,2022-08-17 13:54:41.296875
2988,-320.87,2022-08-17 13:54:41.312500
2989,-333.72,2022-08-17 13:54:41.328125
2990,-331.65,2022-08-17 13:54:41.343750
2991,-315.67,2022-08-17 13:54:41.359375
2992,-290.01,2022-08-17 13:54:41.375000
2993,-260.5,2022-08-17 13:54:41.390625
2994,-232.39,2022-08-17 13:54:41.406250
2995,-209.25,2022-08-17 13:54:41.421875
2996,-192.72,2022-08-17 13:54:41.437500
2997,-183.15,2022-08-17 13:54:41.453125
2998,-180.66,2022-08-17 13:54:41.468750
2999,-185.64,2022-08-17 13:54:41.484375
3000,-198.62,2022-08-17 13:54:41.500000
3001,-219.7,2022-08-17 13:54:41.515625
3002,-247.99,2022-08-17 13:54:41.531250
3003,-281.45,2022-08-17 13:54:41.546875
3004,-317.54,2022-08-17 13:54:41.562500
3005,-353.87,2022-08-17 13:54:41.578125
3006,-388.72,2022-08-17 13:54:41.593750
3007,-421.01,2022-08-17 13:54:41.609375
3008,-449.78,2022-08-17 13:54:41.625000
3009,-473.5,2022-08-17 13:54:41.640625
3010,-489.81,2022-08-17 13:54:41.656250
3011,-495.82,2022-08-17 13:54:41.671875
3012,-488.99,2022-08-17 13:54:41.687500
3013,-468.21,2022-08-17 13:54:41.703125
3014,-434.38,2022-08-17 13:54:41.718750
3015,-390.37,2022-08-17 13:54:41.734375
3016,-340.45,2022-08-17 13:54:41.750000
3017,-289.31,2022-08-17 13:54:41.765625
3018,-241.26,2022-08-17 13:54:41.781250
3019,-199.56,2022-08-17 13:54:41.796875
3020,-165.93,2022-08-17 13:54:41.812500
3021,-140.25,2022-08-17 13:54:41.828125
3022,-120.58,2022-08-17 13:54:41.843750
3023,-103.72,2022-08-17 13:54:41.859375
3024,-86.09,2022-08-17 13:54:41.875000
3025,-65.13,2022-08-17 13:54:41.890625
3026,-40.17,2022-08-17 13:54:41.906250
3027,-12.47,2022-08-17 13:54:41.921875
3028,15.55,2022-08-17 13:54:41.937500
3029,41.62,2022-08-17 13:54:41.953125
3030,64.86,2022-08-17 13:54:41.968750
3031,85.9,2022-08-17 13:54:41.984375
3032,106.59,2022-08-17 13:54:42.000000
3033,129.07,2022-08-17 13:54:42.015625
3034,155.06,2022-08-17 13:54:42.031250
3035,185.36,2022-08-17 13:54:42.046875
3036,219.44,2022-08-17 13:54:42.062500
3037,255.11,2022-08-17 13:54:42.078125
3038,288.42,2022-08-17 13:54:42.093750
3039,314.36,2022-08-17 13:54:42.109375
3040,328.33,2022-08-17 13:54:42.125000
3041,327.93,2022-08-17 13:54:42.140625
3042,314.12,2022-08-17 13:54:42.156250
3043,290.83,2022-08-17 13:54:42.171875
3044,263.06,2022-08-17 13:54:42.187500
3045,234.66,2022-08-17 13:54:42.203125
3046,206.74,2022-08-17 13:54:42.218750
3047,177.98,2022-08-17 13:54:42.234375
3048,146.43,2022-08-17 13:54:42.250000
3049,111.74,2022-08-17 13:54:42.265625
3050,76.36,2022-08-17 13:54:42.281250
3051,45.1,2022-08-17 13:54:42.296875
3052,23.18,2022-08-17 13:54:42.312500
3053,14.2,2022-08-17 13:54:42.328125
3054,18.78,2022-08-17 13:54:42.343750
3055,34.79,2022-08-17 13:54:42.359375
3056,58.52,2022-08-17 13:54:42.375000
3057,86.14,2022-08-17 13:54:42.390625
3058,114.84,2022-08-17 13:54:42.406250
3059,143.4,2022-08-17 13:54:42.421875
3060,171.9,2022-08-17 13:54:42.437500
3061,201.04,2022-08-17 13:54:42.453125
3062,231.25,2022-08-17 13:54:42.468750
3063,261.98,2022-08-17 13:54:42.484375
3064,291.35,2022-08-17 13:54:42.500000
3065,316.55,2022-08-17 13:54:42.515625
3066,334.79,2022-08-17 13:54:42.531250
3067,344.29,2022-08-17 13:54:42.546875
3068,345.02,2022-08-17 13:54:42.562500
3069,338.64,2022-08-17 13:54:42.578125
3070,327.84,2022-08-17 13:54:42.593750
3071,315.29,2022-08-17 13:54:42.609375
3072,302.77,2022-08-17 13:54:42.625000
3073,290.93,2022-08-17 13:54:42.640625
3074,279.63,2022-08-17 13:54:42.656250
3075,268.67,2022-08-17 13:54:42.671875
3076,258.34,2022-08-17 13:54:42.687500
3077,249.56,2022-08-17 13:54:42.703125
3078,243.53,2022-08-17 13:54:42.718750
3079,241.11,2022-08-17 13:54:42.734375
3080,242.38,2022-08-17 13:54:42.750000
3081,246.52,2022-08-17 13:54:42.765625
3082,252.17,2022-08-17 13:54:42.781250
3083,257.9,2022-08-17 13:54:42.796875
3084,262.73,2022-08-17 13:54:42.812500
3085,266.23,2022-08-17 13:54:42.828125
3086,268.35,2022-08-17 13:54:42.843750
3087,269.14,2022-08-17 13:54:42.859375
3088,268.5,2022-08-17 13:54:42.875000
3089,266.1,2022-08-17 13:54:42.890625
3090,261.52,2022-08-17 13:54:42.906250
3091,254.41,2022-08-17 13:54:42.921875
3092,244.58,2022-08-17 13:54:42.937500
3093,231.91,2022-08-17 13:54:42.953125
3094,216.33,2022-08-17 13:54:42.968750
3095,197.85,2022-08-17 13:54:42.984375
3096,176.71,2022-08-17 13:54:43.000000
3097,153.62,2022-08-17 13:54:43.015625
3098,129.77,2022-08-17 13:54:43.031250
3099,106.46,2022-08-17 13:54:43.046875
3100,84.63,2022-08-17 13:54:43.062500
3101,64.5,2022-08-17 13:54:43.078125
3102,45.52,2022-08-17 13:54:43.093750
3103,26.74,2022-08-17 13:54:43.109375
3104,7.28,2022-08-17 13:54:43.125000
3105,-13.25,2022-08-17 13:54:43.140625
3106,-34.75,2022-08-17 13:54:43.156250
3107,-56.87,2022-08-17 13:54:43.171875
3108,-79.3,2022-08-17 13:54:43.187500
3109,-102.06,2022-08-17 13:54:43.203125
3110,-125.45,2022-08-17 13:54:43.218750
3111,-149.92,2022-08-17 13:54:43.234375
3112,-175.98,2022-08-17 13:54:43.250000
3113,-204.28,2022-08-17 13:54:43.265625
3114,-235.46,2022-08-17 13:54:43.281250
3115,-269.75,2022-08-17 13:54:43.296875
3116,-306.11,2022-08-17 13:54:43.312500
3117,-341.71,2022-08-17 13:54:43.328125
