,BVP,time
0,-39.34,2022-10-26 15:47:58.203125
1,-36.52,2022-10-26 15:47:58.218750
2,-33.02,2022-10-26 15:47:58.234375
3,-29.62,2022-10-26 15:47:58.250000
4,-26.73,2022-10-26 15:47:58.265625
5,-24.38,2022-10-26 15:47:58.281250
6,-22.37,2022-10-26 15:47:58.296875
7,-20.45,2022-10-26 15:47:58.312500
8,-18.67,2022-10-26 15:47:58.328125
9,-17.22,2022-10-26 15:47:58.343750
10,-16.4,2022-10-26 15:47:58.359375
11,-16.39,2022-10-26 15:47:58.375000
12,-17.08,2022-10-26 15:47:58.390625
13,-18.1,2022-10-26 15:47:58.406250
14,-18.95,2022-10-26 15:47:58.421875
15,-19.2,2022-10-26 15:47:58.437500
16,-18.71,2022-10-26 15:47:58.453125
17,-17.77,2022-10-26 15:47:58.468750
18,-16.9,2022-10-26 15:47:58.484375
19,-16.78,2022-10-26 15:47:58.500000
20,-17.84,2022-10-26 15:47:58.515625
21,-20.13,2022-10-26 15:47:58.531250
22,-23.26,2022-10-26 15:47:58.546875
23,-26.45,2022-10-26 15:47:58.562500
24,-28.89,2022-10-26 15:47:58.578125
25,-29.95,2022-10-26 15:47:58.593750
26,-29.55,2022-10-26 15:47:58.609375
27,-28.09,2022-10-26 15:47:58.625000
28,-26.4,2022-10-26 15:47:58.640625
29,-25.25,2022-10-26 15:47:58.656250
30,-25.09,2022-10-26 15:47:58.671875
31,-25.82,2022-10-26 15:47:58.687500
32,-26.9,2022-10-26 15:47:58.703125
33,-27.7,2022-10-26 15:47:58.718750
34,-27.88,2022-10-26 15:47:58.734375
35,-27.72,2022-10-26 15:47:58.750000
36,-28.03,2022-10-26 15:47:58.765625
37,-29.91,2022-10-26 15:47:58.781250
38,-34.15,2022-10-26 15:47:58.796875
39,-40.8,2022-10-26 15:47:58.812500
40,-49.07,2022-10-26 15:47:58.828125
41,-57.49,2022-10-26 15:47:58.843750
42,-64.58,2022-10-26 15:47:58.859375
43,-69.36,2022-10-26 15:47:58.875000
44,-71.87,2022-10-26 15:47:58.890625
45,-73.03,2022-10-26 15:47:58.906250
46,-74.29,2022-10-26 15:47:58.921875
47,-76.98,2022-10-26 15:47:58.937500
48,-81.93,2022-10-26 15:47:58.953125
49,-89.44,2022-10-26 15:47:58.968750
50,-99.35,2022-10-26 15:47:58.984375
51,-111.01,2022-10-26 15:47:59.000000
52,-123.01,2022-10-26 15:47:59.015625
53,-133.05,2022-10-26 15:47:59.031250
54,-138.31,2022-10-26 15:47:59.046875
55,-136.67,2022-10-26 15:47:59.062500
56,-128.03,2022-10-26 15:47:59.078125
57,-114.9,2022-10-26 15:47:59.093750
58,-101.52,2022-10-26 15:47:59.109375
59,-91.69,2022-10-26 15:47:59.125000
60,-86.42,2022-10-26 15:47:59.140625
61,-82.99,2022-10-26 15:47:59.156250
62,-76.21,2022-10-26 15:47:59.171875
63,-61.2,2022-10-26 15:47:59.187500
64,-36.18,2022-10-26 15:47:59.203125
65,-3.67,2022-10-26 15:47:59.218750
66,30.67,2022-10-26 15:47:59.234375
67,60.78,2022-10-26 15:47:59.250000
68,82.88,2022-10-26 15:47:59.265625
69,96.59,2022-10-26 15:47:59.281250
70,104.22,2022-10-26 15:47:59.296875
71,108.93,2022-10-26 15:47:59.312500
72,112.93,2022-10-26 15:47:59.328125
73,116.92,2022-10-26 15:47:59.343750
74,120.31,2022-10-26 15:47:59.359375
75,122.28,2022-10-26 15:47:59.375000
76,122.57,2022-10-26 15:47:59.390625
77,121.76,2022-10-26 15:47:59.406250
78,121.0,2022-10-26 15:47:59.421875
79,121.5,2022-10-26 15:47:59.437500
80,124.08,2022-10-26 15:47:59.453125
81,128.8,2022-10-26 15:47:59.468750
82,135.11,2022-10-26 15:47:59.484375
83,142.13,2022-10-26 15:47:59.500000
84,149.17,2022-10-26 15:47:59.515625
85,156.02,2022-10-26 15:47:59.531250
86,162.93,2022-10-26 15:47:59.546875
87,170.32,2022-10-26 15:47:59.562500
88,178.35,2022-10-26 15:47:59.578125
89,186.69,2022-10-26 15:47:59.593750
90,194.59,2022-10-26 15:47:59.609375
91,201.36,2022-10-26 15:47:59.625000
92,206.67,2022-10-26 15:47:59.640625
93,210.88,2022-10-26 15:47:59.656250
94,214.64,2022-10-26 15:47:59.671875
95,218.19,2022-10-26 15:47:59.687500
96,220.76,2022-10-26 15:47:59.703125
97,220.63,2022-10-26 15:47:59.718750
98,216.01,2022-10-26 15:47:59.734375
99,206.06,2022-10-26 15:47:59.750000
100,191.64,2022-10-26 15:47:59.765625
101,174.86,2022-10-26 15:47:59.781250
102,157.93,2022-10-26 15:47:59.796875
103,141.87,2022-10-26 15:47:59.812500
104,125.9,2022-10-26 15:47:59.828125
105,107.9,2022-10-26 15:47:59.843750
106,85.64,2022-10-26 15:47:59.859375
107,58.11,2022-10-26 15:47:59.875000
108,26.14,2022-10-26 15:47:59.890625
109,-7.87,2022-10-26 15:47:59.906250
110,-41.0,2022-10-26 15:47:59.921875
111,-70.75,2022-10-26 15:47:59.937500
112,-95.57,2022-10-26 15:47:59.953125
113,-114.82,2022-10-26 15:47:59.968750
114,-128.41,2022-10-26 15:47:59.984375
115,-136.48,2022-10-26 15:48:00.000000
116,-139.39,2022-10-26 15:48:00.015625
117,-137.88,2022-10-26 15:48:00.031250
118,-133.06,2022-10-26 15:48:00.046875
119,-126.43,2022-10-26 15:48:00.062500
120,-119.47,2022-10-26 15:48:00.078125
121,-113.42,2022-10-26 15:48:00.093750
122,-109.01,2022-10-26 15:48:00.109375
123,-106.3,2022-10-26 15:48:00.125000
124,-104.73,2022-10-26 15:48:00.140625
125,-103.4,2022-10-26 15:48:00.156250
126,-101.46,2022-10-26 15:48:00.171875
127,-98.39,2022-10-26 15:48:00.187500
128,-94.31,2022-10-26 15:48:00.203125
129,-89.9,2022-10-26 15:48:00.218750
130,-86.12,2022-10-26 15:48:00.234375
131,-83.85,2022-10-26 15:48:00.250000
132,-83.42,2022-10-26 15:48:00.265625
133,-84.49,2022-10-26 15:48:00.281250
134,-86.22,2022-10-26 15:48:00.296875
135,-87.59,2022-10-26 15:48:00.312500
136,-87.81,2022-10-26 15:48:00.328125
137,-86.6,2022-10-26 15:48:00.343750
138,-84.17,2022-10-26 15:48:00.359375
139,-81.01,2022-10-26 15:48:00.375000
140,-77.58,2022-10-26 15:48:00.390625
141,-74.14,2022-10-26 15:48:00.406250
142,-70.67,2022-10-26 15:48:00.421875
143,-67.05,2022-10-26 15:48:00.437500
144,-63.19,2022-10-26 15:48:00.453125
145,-59.18,2022-10-26 15:48:00.468750
146,-55.27,2022-10-26 15:48:00.484375
147,-51.83,2022-10-26 15:48:00.500000
148,-49.12,2022-10-26 15:48:00.515625
149,-47.32,2022-10-26 15:48:00.531250
150,-46.39,2022-10-26 15:48:00.546875
151,-46.12,2022-10-26 15:48:00.562500
152,-46.2,2022-10-26 15:48:00.578125
153,-46.29,2022-10-26 15:48:00.593750
154,-46.09,2022-10-26 15:48:00.609375
155,-45.37,2022-10-26 15:48:00.625000
156,-44.06,2022-10-26 15:48:00.640625
157,-42.12,2022-10-26 15:48:00.656250
158,-39.55,2022-10-26 15:48:00.671875
159,-36.36,2022-10-26 15:48:00.687500
160,-32.59,2022-10-26 15:48:00.703125
161,-28.35,2022-10-26 15:48:00.718750
162,-23.85,2022-10-26 15:48:00.734375
163,-19.38,2022-10-26 15:48:00.750000
164,-15.19,2022-10-26 15:48:00.765625
165,-11.45,2022-10-26 15:48:00.781250
166,-8.2,2022-10-26 15:48:00.796875
167,-5.35,2022-10-26 15:48:00.812500
168,-2.83,2022-10-26 15:48:00.828125
169,-0.73,2022-10-26 15:48:00.843750
170,0.81,2022-10-26 15:48:00.859375
171,1.56,2022-10-26 15:48:00.875000
172,1.41,2022-10-26 15:48:00.890625
173,0.48,2022-10-26 15:48:00.906250
174,-0.86,2022-10-26 15:48:00.921875
175,-2.16,2022-10-26 15:48:00.937500
176,-3.0,2022-10-26 15:48:00.953125
177,-3.19,2022-10-26 15:48:00.968750
178,-2.83,2022-10-26 15:48:00.984375
179,-2.13,2022-10-26 15:48:01.000000
180,-1.33,2022-10-26 15:48:01.015625
181,-0.56,2022-10-26 15:48:01.031250
182,0.13,2022-10-26 15:48:01.046875
183,0.75,2022-10-26 15:48:01.062500
184,1.21,2022-10-26 15:48:01.078125
185,1.32,2022-10-26 15:48:01.093750
186,0.9,2022-10-26 15:48:01.109375
187,-0.17,2022-10-26 15:48:01.125000
188,-1.84,2022-10-26 15:48:01.140625
189,-3.93,2022-10-26 15:48:01.156250
190,-6.22,2022-10-26 15:48:01.171875
191,-8.54,2022-10-26 15:48:01.187500
192,-10.83,2022-10-26 15:48:01.203125
193,-13.12,2022-10-26 15:48:01.218750
194,-15.46,2022-10-26 15:48:01.234375
195,-17.81,2022-10-26 15:48:01.250000
196,-20.0,2022-10-26 15:48:01.265625
197,-21.74,2022-10-26 15:48:01.281250
198,-22.63,2022-10-26 15:48:01.296875
199,-22.37,2022-10-26 15:48:01.312500
200,-20.78,2022-10-26 15:48:01.328125
201,-17.95,2022-10-26 15:48:01.343750
202,-14.15,2022-10-26 15:48:01.359375
203,-9.76,2022-10-26 15:48:01.375000
204,-5.16,2022-10-26 15:48:01.390625
205,-0.6,2022-10-26 15:48:01.406250
206,3.73,2022-10-26 15:48:01.421875
207,7.65,2022-10-26 15:48:01.437500
208,10.93,2022-10-26 15:48:01.453125
209,13.3,2022-10-26 15:48:01.468750
210,14.48,2022-10-26 15:48:01.484375
211,14.41,2022-10-26 15:48:01.500000
212,13.27,2022-10-26 15:48:01.515625
213,11.42,2022-10-26 15:48:01.531250
214,9.29,2022-10-26 15:48:01.546875
215,7.27,2022-10-26 15:48:01.562500
216,5.59,2022-10-26 15:48:01.578125
217,4.32,2022-10-26 15:48:01.593750
218,3.48,2022-10-26 15:48:01.609375
219,3.09,2022-10-26 15:48:01.625000
220,3.23,2022-10-26 15:48:01.640625
221,3.97,2022-10-26 15:48:01.656250
222,5.29,2022-10-26 15:48:01.671875
223,6.98,2022-10-26 15:48:01.687500
224,8.66,2022-10-26 15:48:01.703125
225,9.86,2022-10-26 15:48:01.718750
226,10.15,2022-10-26 15:48:01.734375
227,9.37,2022-10-26 15:48:01.750000
228,7.56,2022-10-26 15:48:01.765625
229,5.04,2022-10-26 15:48:01.781250
230,2.22,2022-10-26 15:48:01.796875
231,-0.57,2022-10-26 15:48:01.812500
232,-3.18,2022-10-26 15:48:01.828125
233,-5.69,2022-10-26 15:48:01.843750
234,-8.3,2022-10-26 15:48:01.859375
235,-11.23,2022-10-26 15:48:01.875000
236,-14.59,2022-10-26 15:48:01.890625
237,-18.25,2022-10-26 15:48:01.906250
238,-21.91,2022-10-26 15:48:01.921875
239,-25.15,2022-10-26 15:48:01.937500
240,-27.55,2022-10-26 15:48:01.953125
241,-28.71,2022-10-26 15:48:01.968750
242,-28.39,2022-10-26 15:48:01.984375
243,-26.54,2022-10-26 15:48:02.000000
244,-23.28,2022-10-26 15:48:02.015625
245,-18.93,2022-10-26 15:48:02.031250
246,-13.98,2022-10-26 15:48:02.046875
247,-8.97,2022-10-26 15:48:02.062500
248,-4.38,2022-10-26 15:48:02.078125
249,-0.57,2022-10-26 15:48:02.093750
250,2.36,2022-10-26 15:48:02.109375
251,4.45,2022-10-26 15:48:02.125000
252,5.85,2022-10-26 15:48:02.140625
253,6.72,2022-10-26 15:48:02.156250
254,7.16,2022-10-26 15:48:02.171875
255,7.31,2022-10-26 15:48:02.187500
256,7.31,2022-10-26 15:48:02.203125
257,7.32,2022-10-26 15:48:02.218750
258,7.4,2022-10-26 15:48:02.234375
259,7.56,2022-10-26 15:48:02.250000
260,7.66,2022-10-26 15:48:02.265625
261,7.65,2022-10-26 15:48:02.281250
262,7.51,2022-10-26 15:48:02.296875
263,7.43,2022-10-26 15:48:02.312500
264,7.61,2022-10-26 15:48:02.328125
265,8.2,2022-10-26 15:48:02.343750
266,9.11,2022-10-26 15:48:02.359375
267,10.02,2022-10-26 15:48:02.375000
268,10.48,2022-10-26 15:48:02.390625
269,10.13,2022-10-26 15:48:02.406250
270,8.82,2022-10-26 15:48:02.421875
271,6.69,2022-10-26 15:48:02.437500
272,4.05,2022-10-26 15:48:02.453125
273,1.33,2022-10-26 15:48:02.468750
274,-1.13,2022-10-26 15:48:02.484375
275,-3.1,2022-10-26 15:48:02.500000
276,-4.58,2022-10-26 15:48:02.515625
277,-5.71,2022-10-26 15:48:02.531250
278,-6.8,2022-10-26 15:48:02.546875
279,-8.18,2022-10-26 15:48:02.562500
280,-10.1,2022-10-26 15:48:02.578125
281,-12.66,2022-10-26 15:48:02.593750
282,-15.71,2022-10-26 15:48:02.609375
283,-18.84,2022-10-26 15:48:02.625000
284,-21.45,2022-10-26 15:48:02.640625
285,-22.86,2022-10-26 15:48:02.656250
286,-22.56,2022-10-26 15:48:02.671875
287,-20.38,2022-10-26 15:48:02.687500
288,-16.55,2022-10-26 15:48:02.703125
289,-11.65,2022-10-26 15:48:02.718750
290,-6.41,2022-10-26 15:48:02.734375
291,-1.45,2022-10-26 15:48:02.750000
292,2.92,2022-10-26 15:48:02.765625
293,6.64,2022-10-26 15:48:02.781250
294,9.83,2022-10-26 15:48:02.796875
295,12.56,2022-10-26 15:48:02.812500
296,14.7,2022-10-26 15:48:02.828125
297,16.05,2022-10-26 15:48:02.843750
298,16.46,2022-10-26 15:48:02.859375
299,15.95,2022-10-26 15:48:02.875000
300,14.8,2022-10-26 15:48:02.890625
301,13.41,2022-10-26 15:48:02.906250
302,12.21,2022-10-26 15:48:02.921875
303,11.44,2022-10-26 15:48:02.937500
304,11.16,2022-10-26 15:48:02.953125
305,11.33,2022-10-26 15:48:02.968750
306,11.79,2022-10-26 15:48:02.984375
307,12.37,2022-10-26 15:48:03.000000
308,12.92,2022-10-26 15:48:03.015625
309,13.34,2022-10-26 15:48:03.031250
310,13.49,2022-10-26 15:48:03.046875
311,13.26,2022-10-26 15:48:03.062500
312,12.58,2022-10-26 15:48:03.078125
313,11.45,2022-10-26 15:48:03.093750
314,9.94,2022-10-26 15:48:03.109375
315,8.2,2022-10-26 15:48:03.125000
316,6.42,2022-10-26 15:48:03.140625
317,4.78,2022-10-26 15:48:03.156250
318,3.42,2022-10-26 15:48:03.171875
319,2.43,2022-10-26 15:48:03.187500
320,1.77,2022-10-26 15:48:03.203125
321,1.25,2022-10-26 15:48:03.218750
322,0.54,2022-10-26 15:48:03.234375
323,-0.71,2022-10-26 15:48:03.250000
324,-2.79,2022-10-26 15:48:03.265625
325,-5.74,2022-10-26 15:48:03.281250
326,-9.22,2022-10-26 15:48:03.296875
327,-12.61,2022-10-26 15:48:03.312500
328,-15.12,2022-10-26 15:48:03.328125
329,-16.07,2022-10-26 15:48:03.343750
330,-15.11,2022-10-26 15:48:03.359375
331,-12.3,2022-10-26 15:48:03.375000
332,-8.1,2022-10-26 15:48:03.390625
333,-3.16,2022-10-26 15:48:03.406250
334,1.82,2022-10-26 15:48:03.421875
335,6.26,2022-10-26 15:48:03.437500
336,9.71,2022-10-26 15:48:03.453125
337,11.91,2022-10-26 15:48:03.468750
338,12.79,2022-10-26 15:48:03.484375
339,12.42,2022-10-26 15:48:03.500000
340,11.09,2022-10-26 15:48:03.515625
341,9.18,2022-10-26 15:48:03.531250
342,7.11,2022-10-26 15:48:03.546875
343,5.24,2022-10-26 15:48:03.562500
344,3.79,2022-10-26 15:48:03.578125
345,2.8,2022-10-26 15:48:03.593750
346,2.22,2022-10-26 15:48:03.609375
347,1.99,2022-10-26 15:48:03.625000
348,2.09,2022-10-26 15:48:03.640625
349,2.54,2022-10-26 15:48:03.656250
350,3.36,2022-10-26 15:48:03.671875
351,4.51,2022-10-26 15:48:03.687500
352,5.89,2022-10-26 15:48:03.703125
353,7.35,2022-10-26 15:48:03.718750
354,8.73,2022-10-26 15:48:03.734375
355,9.94,2022-10-26 15:48:03.750000
356,10.89,2022-10-26 15:48:03.765625
357,11.51,2022-10-26 15:48:03.781250
358,11.66,2022-10-26 15:48:03.796875
359,11.24,2022-10-26 15:48:03.812500
360,10.19,2022-10-26 15:48:03.828125
361,8.56,2022-10-26 15:48:03.843750
362,6.47,2022-10-26 15:48:03.859375
363,4.06,2022-10-26 15:48:03.875000
364,1.48,2022-10-26 15:48:03.890625
365,-1.21,2022-10-26 15:48:03.906250
366,-4.0,2022-10-26 15:48:03.921875
367,-6.89,2022-10-26 15:48:03.937500
368,-9.93,2022-10-26 15:48:03.953125
369,-13.12,2022-10-26 15:48:03.968750
370,-16.42,2022-10-26 15:48:03.984375
371,-19.71,2022-10-26 15:48:04.000000
372,-22.65,2022-10-26 15:48:04.015625
373,-24.79,2022-10-26 15:48:04.031250
374,-25.67,2022-10-26 15:48:04.046875
375,-24.88,2022-10-26 15:48:04.062500
376,-22.37,2022-10-26 15:48:04.078125
377,-18.37,2022-10-26 15:48:04.093750
378,-13.35,2022-10-26 15:48:04.109375
379,-7.85,2022-10-26 15:48:04.125000
380,-2.28,2022-10-26 15:48:04.140625
381,3.1,2022-10-26 15:48:04.156250
382,8.13,2022-10-26 15:48:04.171875
383,12.68,2022-10-26 15:48:04.187500
384,16.54,2022-10-26 15:48:04.203125
385,19.48,2022-10-26 15:48:04.218750
386,21.27,2022-10-26 15:48:04.234375
387,21.84,2022-10-26 15:48:04.250000
388,21.3,2022-10-26 15:48:04.265625
389,19.93,2022-10-26 15:48:04.281250
390,18.07,2022-10-26 15:48:04.296875
391,16.09,2022-10-26 15:48:04.312500
392,14.29,2022-10-26 15:48:04.328125
393,12.85,2022-10-26 15:48:04.343750
394,11.88,2022-10-26 15:48:04.359375
395,11.38,2022-10-26 15:48:04.375000
396,11.28,2022-10-26 15:48:04.390625
397,11.51,2022-10-26 15:48:04.406250
398,11.99,2022-10-26 15:48:04.421875
399,12.66,2022-10-26 15:48:04.437500
400,13.42,2022-10-26 15:48:04.453125
401,14.19,2022-10-26 15:48:04.468750
402,14.78,2022-10-26 15:48:04.484375
403,14.98,2022-10-26 15:48:04.500000
404,14.56,2022-10-26 15:48:04.515625
405,13.4,2022-10-26 15:48:04.531250
406,11.49,2022-10-26 15:48:04.546875
407,9.01,2022-10-26 15:48:04.562500
408,6.22,2022-10-26 15:48:04.578125
409,3.42,2022-10-26 15:48:04.593750
410,0.86,2022-10-26 15:48:04.609375
411,-1.32,2022-10-26 15:48:04.625000
412,-3.13,2022-10-26 15:48:04.640625
413,-4.63,2022-10-26 15:48:04.656250
414,-6.0,2022-10-26 15:48:04.671875
415,-7.44,2022-10-26 15:48:04.687500
416,-9.19,2022-10-26 15:48:04.703125
417,-11.43,2022-10-26 15:48:04.718750
418,-14.2,2022-10-26 15:48:04.734375
419,-17.31,2022-10-26 15:48:04.750000
420,-20.32,2022-10-26 15:48:04.765625
421,-22.65,2022-10-26 15:48:04.781250
422,-23.68,2022-10-26 15:48:04.796875
423,-22.94,2022-10-26 15:48:04.812500
424,-20.29,2022-10-26 15:48:04.828125
425,-15.93,2022-10-26 15:48:04.843750
426,-10.36,2022-10-26 15:48:04.859375
427,-4.33,2022-10-26 15:48:04.875000
428,1.38,2022-10-26 15:48:04.890625
429,6.08,2022-10-26 15:48:04.906250
430,9.34,2022-10-26 15:48:04.921875
431,11.1,2022-10-26 15:48:04.937500
432,11.59,2022-10-26 15:48:04.953125
433,11.28,2022-10-26 15:48:04.968750
434,10.71,2022-10-26 15:48:04.984375
435,10.28,2022-10-26 15:48:05.000000
436,10.2,2022-10-26 15:48:05.015625
437,10.48,2022-10-26 15:48:05.031250
438,11.02,2022-10-26 15:48:05.046875
439,11.72,2022-10-26 15:48:05.062500
440,12.54,2022-10-26 15:48:05.078125
441,13.5,2022-10-26 15:48:05.093750
442,14.6,2022-10-26 15:48:05.109375
443,15.78,2022-10-26 15:48:05.125000
444,16.9,2022-10-26 15:48:05.140625
445,17.8,2022-10-26 15:48:05.156250
446,18.29,2022-10-26 15:48:05.171875
447,18.29,2022-10-26 15:48:05.187500
448,17.75,2022-10-26 15:48:05.203125
449,16.69,2022-10-26 15:48:05.218750
450,15.18,2022-10-26 15:48:05.234375
451,13.3,2022-10-26 15:48:05.250000
452,11.21,2022-10-26 15:48:05.265625
453,9.06,2022-10-26 15:48:05.281250
454,7.02,2022-10-26 15:48:05.296875
455,5.22,2022-10-26 15:48:05.312500
456,3.72,2022-10-26 15:48:05.328125
457,2.48,2022-10-26 15:48:05.343750
458,1.36,2022-10-26 15:48:05.359375
459,0.18,2022-10-26 15:48:05.375000
460,-1.25,2022-10-26 15:48:05.390625
461,-3.04,2022-10-26 15:48:05.406250
462,-5.25,2022-10-26 15:48:05.421875
463,-7.88,2022-10-26 15:48:05.437500
464,-10.85,2022-10-26 15:48:05.453125
465,-13.96,2022-10-26 15:48:05.468750
466,-16.89,2022-10-26 15:48:05.484375
467,-19.15,2022-10-26 15:48:05.500000
468,-20.23,2022-10-26 15:48:05.515625
469,-19.7,2022-10-26 15:48:05.531250
470,-17.42,2022-10-26 15:48:05.546875
471,-13.58,2022-10-26 15:48:05.562500
472,-8.64,2022-10-26 15:48:05.578125
473,-3.21,2022-10-26 15:48:05.593750
474,2.15,2022-10-26 15:48:05.609375
475,7.07,2022-10-26 15:48:05.625000
476,11.33,2022-10-26 15:48:05.640625
477,14.82,2022-10-26 15:48:05.656250
478,17.45,2022-10-26 15:48:05.671875
479,19.16,2022-10-26 15:48:05.687500
480,19.97,2022-10-26 15:48:05.703125
481,20.0,2022-10-26 15:48:05.718750
482,19.48,2022-10-26 15:48:05.734375
483,18.67,2022-10-26 15:48:05.750000
484,17.77,2022-10-26 15:48:05.765625
485,16.94,2022-10-26 15:48:05.781250
486,16.19,2022-10-26 15:48:05.796875
487,15.53,2022-10-26 15:48:05.812500
488,14.92,2022-10-26 15:48:05.828125
489,14.37,2022-10-26 15:48:05.843750
490,13.91,2022-10-26 15:48:05.859375
491,13.62,2022-10-26 15:48:05.875000
492,13.65,2022-10-26 15:48:05.890625
493,14.04,2022-10-26 15:48:05.906250
494,14.78,2022-10-26 15:48:05.921875
495,15.68,2022-10-26 15:48:05.937500
496,16.42,2022-10-26 15:48:05.953125
497,16.69,2022-10-26 15:48:05.968750
498,16.36,2022-10-26 15:48:05.984375
499,15.51,2022-10-26 15:48:06.000000
500,14.43,2022-10-26 15:48:06.015625
501,13.43,2022-10-26 15:48:06.031250
502,12.66,2022-10-26 15:48:06.046875
503,12.03,2022-10-26 15:48:06.062500
504,11.3,2022-10-26 15:48:06.078125
505,10.15,2022-10-26 15:48:06.093750
506,8.45,2022-10-26 15:48:06.109375
507,6.26,2022-10-26 15:48:06.125000
508,3.9,2022-10-26 15:48:06.140625
509,1.71,2022-10-26 15:48:06.156250
510,-0.05,2022-10-26 15:48:06.171875
511,-1.27,2022-10-26 15:48:06.187500
512,-2.06,2022-10-26 15:48:06.203125
513,-2.66,2022-10-26 15:48:06.218750
514,-3.32,2022-10-26 15:48:06.234375
515,-4.21,2022-10-26 15:48:06.250000
516,-5.34,2022-10-26 15:48:06.265625
517,-6.67,2022-10-26 15:48:06.281250
518,-8.07,2022-10-26 15:48:06.296875
519,-9.49,2022-10-26 15:48:06.312500
520,-10.97,2022-10-26 15:48:06.328125
521,-12.66,2022-10-26 15:48:06.343750
522,-14.68,2022-10-26 15:48:06.359375
523,-17.09,2022-10-26 15:48:06.375000
524,-19.87,2022-10-26 15:48:06.390625
525,-22.84,2022-10-26 15:48:06.406250
526,-25.81,2022-10-26 15:48:06.421875
527,-28.49,2022-10-26 15:48:06.437500
528,-30.54,2022-10-26 15:48:06.453125
529,-31.57,2022-10-26 15:48:06.468750
530,-31.24,2022-10-26 15:48:06.484375
531,-29.26,2022-10-26 15:48:06.500000
532,-25.62,2022-10-26 15:48:06.515625
533,-20.54,2022-10-26 15:48:06.531250
534,-14.5,2022-10-26 15:48:06.546875
535,-8.15,2022-10-26 15:48:06.562500
536,-2.07,2022-10-26 15:48:06.578125
537,3.29,2022-10-26 15:48:06.593750
538,7.73,2022-10-26 15:48:06.609375
539,11.19,2022-10-26 15:48:06.625000
540,13.75,2022-10-26 15:48:06.640625
541,15.44,2022-10-26 15:48:06.656250
542,16.26,2022-10-26 15:48:06.671875
543,16.22,2022-10-26 15:48:06.687500
544,15.4,2022-10-26 15:48:06.703125
545,14.01,2022-10-26 15:48:06.718750
546,12.38,2022-10-26 15:48:06.734375
547,10.89,2022-10-26 15:48:06.750000
548,9.82,2022-10-26 15:48:06.765625
549,9.28,2022-10-26 15:48:06.781250
550,9.2,2022-10-26 15:48:06.796875
551,9.43,2022-10-26 15:48:06.812500
552,9.83,2022-10-26 15:48:06.828125
553,10.34,2022-10-26 15:48:06.843750
554,10.97,2022-10-26 15:48:06.859375
555,11.74,2022-10-26 15:48:06.875000
556,12.57,2022-10-26 15:48:06.890625
557,13.26,2022-10-26 15:48:06.906250
558,13.58,2022-10-26 15:48:06.921875
559,13.35,2022-10-26 15:48:06.937500
560,12.55,2022-10-26 15:48:06.953125
561,11.36,2022-10-26 15:48:06.968750
562,10.02,2022-10-26 15:48:06.984375
563,8.78,2022-10-26 15:48:07.000000
564,7.76,2022-10-26 15:48:07.015625
565,6.9,2022-10-26 15:48:07.031250
566,6.03,2022-10-26 15:48:07.046875
567,4.96,2022-10-26 15:48:07.062500
568,3.58,2022-10-26 15:48:07.078125
569,1.93,2022-10-26 15:48:07.093750
570,0.14,2022-10-26 15:48:07.109375
571,-1.66,2022-10-26 15:48:07.125000
572,-3.45,2022-10-26 15:48:07.140625
573,-5.31,2022-10-26 15:48:07.156250
574,-7.33,2022-10-26 15:48:07.171875
575,-9.53,2022-10-26 15:48:07.187500
576,-11.85,2022-10-26 15:48:07.203125
577,-14.2,2022-10-26 15:48:07.218750
578,-16.5,2022-10-26 15:48:07.234375
579,-18.75,2022-10-26 15:48:07.250000
580,-20.93,2022-10-26 15:48:07.265625
581,-22.95,2022-10-26 15:48:07.281250
582,-24.46,2022-10-26 15:48:07.296875
583,-25.03,2022-10-26 15:48:07.312500
584,-24.22,2022-10-26 15:48:07.328125
585,-21.77,2022-10-26 15:48:07.343750
586,-17.84,2022-10-26 15:48:07.359375
587,-12.84,2022-10-26 15:48:07.375000
588,-7.35,2022-10-26 15:48:07.390625
589,-1.96,2022-10-26 15:48:07.406250
590,2.93,2022-10-26 15:48:07.421875
591,7.13,2022-10-26 15:48:07.437500
592,10.54,2022-10-26 15:48:07.453125
593,13.18,2022-10-26 15:48:07.468750
594,15.06,2022-10-26 15:48:07.484375
595,16.21,2022-10-26 15:48:07.500000
596,16.62,2022-10-26 15:48:07.515625
597,16.3,2022-10-26 15:48:07.531250
598,15.23,2022-10-26 15:48:07.546875
599,13.51,2022-10-26 15:48:07.562500
600,11.29,2022-10-26 15:48:07.578125
601,8.85,2022-10-26 15:48:07.593750
602,6.57,2022-10-26 15:48:07.609375
603,4.8,2022-10-26 15:48:07.625000
604,3.77,2022-10-26 15:48:07.640625
605,3.5,2022-10-26 15:48:07.656250
606,3.81,2022-10-26 15:48:07.671875
607,4.41,2022-10-26 15:48:07.687500
608,5.04,2022-10-26 15:48:07.703125
609,5.56,2022-10-26 15:48:07.718750
610,5.95,2022-10-26 15:48:07.734375
611,6.29,2022-10-26 15:48:07.750000
612,6.61,2022-10-26 15:48:07.765625
613,6.87,2022-10-26 15:48:07.781250
614,6.98,2022-10-26 15:48:07.796875
615,6.82,2022-10-26 15:48:07.812500
616,6.33,2022-10-26 15:48:07.828125
617,5.56,2022-10-26 15:48:07.843750
618,4.58,2022-10-26 15:48:07.859375
619,3.46,2022-10-26 15:48:07.875000
620,2.22,2022-10-26 15:48:07.890625
621,0.83,2022-10-26 15:48:07.906250
622,-0.75,2022-10-26 15:48:07.921875
623,-2.56,2022-10-26 15:48:07.937500
624,-4.59,2022-10-26 15:48:07.953125
625,-6.86,2022-10-26 15:48:07.968750
626,-9.45,2022-10-26 15:48:07.984375
627,-12.48,2022-10-26 15:48:08.000000
628,-16.02,2022-10-26 15:48:08.015625
629,-19.96,2022-10-26 15:48:08.031250
630,-23.96,2022-10-26 15:48:08.046875
631,-27.49,2022-10-26 15:48:08.062500
632,-29.95,2022-10-26 15:48:08.078125
633,-30.85,2022-10-26 15:48:08.093750
634,-29.92,2022-10-26 15:48:08.109375
635,-27.26,2022-10-26 15:48:08.125000
636,-23.22,2022-10-26 15:48:08.140625
637,-18.29,2022-10-26 15:48:08.156250
638,-12.99,2022-10-26 15:48:08.171875
639,-7.74,2022-10-26 15:48:08.187500
640,-2.84,2022-10-26 15:48:08.203125
641,1.49,2022-10-26 15:48:08.218750
642,5.15,2022-10-26 15:48:08.234375
643,8.07,2022-10-26 15:48:08.250000
644,10.2,2022-10-26 15:48:08.265625
645,11.56,2022-10-26 15:48:08.281250
646,12.18,2022-10-26 15:48:08.296875
647,12.16,2022-10-26 15:48:08.312500
648,11.67,2022-10-26 15:48:08.328125
649,10.92,2022-10-26 15:48:08.343750
650,10.09,2022-10-26 15:48:08.359375
651,9.32,2022-10-26 15:48:08.375000
652,8.61,2022-10-26 15:48:08.390625
653,7.93,2022-10-26 15:48:08.406250
654,7.23,2022-10-26 15:48:08.421875
655,6.5,2022-10-26 15:48:08.437500
656,5.78,2022-10-26 15:48:08.453125
657,5.17,2022-10-26 15:48:08.468750
658,4.76,2022-10-26 15:48:08.484375
659,4.62,2022-10-26 15:48:08.500000
660,4.66,2022-10-26 15:48:08.515625
661,4.72,2022-10-26 15:48:08.531250
662,4.58,2022-10-26 15:48:08.546875
663,4.03,2022-10-26 15:48:08.562500
664,2.94,2022-10-26 15:48:08.578125
665,1.38,2022-10-26 15:48:08.593750
666,-0.44,2022-10-26 15:48:08.609375
667,-2.24,2022-10-26 15:48:08.625000
668,-3.78,2022-10-26 15:48:08.640625
669,-5.01,2022-10-26 15:48:08.656250
670,-6.03,2022-10-26 15:48:08.671875
671,-7.15,2022-10-26 15:48:08.687500
672,-8.64,2022-10-26 15:48:08.703125
673,-10.69,2022-10-26 15:48:08.718750
674,-13.25,2022-10-26 15:48:08.734375
675,-16.04,2022-10-26 15:48:08.750000
676,-18.61,2022-10-26 15:48:08.765625
677,-20.44,2022-10-26 15:48:08.781250
678,-21.1,2022-10-26 15:48:08.796875
679,-20.33,2022-10-26 15:48:08.812500
680,-18.14,2022-10-26 15:48:08.828125
681,-14.8,2022-10-26 15:48:08.843750
682,-10.71,2022-10-26 15:48:08.859375
683,-6.35,2022-10-26 15:48:08.875000
684,-2.16,2022-10-26 15:48:08.890625
685,1.55,2022-10-26 15:48:08.906250
686,4.56,2022-10-26 15:48:08.921875
687,6.71,2022-10-26 15:48:08.937500
688,7.98,2022-10-26 15:48:08.953125
689,8.39,2022-10-26 15:48:08.968750
690,8.11,2022-10-26 15:48:08.984375
691,7.42,2022-10-26 15:48:09.000000
692,6.63,2022-10-26 15:48:09.015625
693,6.01,2022-10-26 15:48:09.031250
694,5.69,2022-10-26 15:48:09.046875
695,5.66,2022-10-26 15:48:09.062500
696,5.8,2022-10-26 15:48:09.078125
697,6.0,2022-10-26 15:48:09.093750
698,6.21,2022-10-26 15:48:09.109375
699,6.48,2022-10-26 15:48:09.125000
700,6.96,2022-10-26 15:48:09.140625
701,7.68,2022-10-26 15:48:09.156250
702,8.55,2022-10-26 15:48:09.171875
703,9.28,2022-10-26 15:48:09.187500
704,9.51,2022-10-26 15:48:09.203125
705,8.94,2022-10-26 15:48:09.218750
706,7.46,2022-10-26 15:48:09.234375
707,5.18,2022-10-26 15:48:09.250000
708,2.38,2022-10-26 15:48:09.265625
709,-0.66,2022-10-26 15:48:09.281250
710,-3.71,2022-10-26 15:48:09.296875
711,-6.68,2022-10-26 15:48:09.312500
712,-9.55,2022-10-26 15:48:09.328125
713,-12.4,2022-10-26 15:48:09.343750
714,-15.28,2022-10-26 15:48:09.359375
715,-18.25,2022-10-26 15:48:09.375000
716,-21.3,2022-10-26 15:48:09.390625
717,-24.31,2022-10-26 15:48:09.406250
718,-27.04,2022-10-26 15:48:09.421875
719,-29.02,2022-10-26 15:48:09.437500
720,-29.71,2022-10-26 15:48:09.453125
721,-28.62,2022-10-26 15:48:09.468750
722,-25.5,2022-10-26 15:48:09.484375
723,-20.55,2022-10-26 15:48:09.500000
724,-14.33,2022-10-26 15:48:09.515625
725,-7.64,2022-10-26 15:48:09.531250
726,-1.3,2022-10-26 15:48:09.546875
727,4.13,2022-10-26 15:48:09.562500
728,8.41,2022-10-26 15:48:09.578125
729,11.59,2022-10-26 15:48:09.593750
730,13.83,2022-10-26 15:48:09.609375
731,15.25,2022-10-26 15:48:09.625000
732,15.94,2022-10-26 15:48:09.640625
733,15.92,2022-10-26 15:48:09.656250
734,15.27,2022-10-26 15:48:09.671875
735,14.17,2022-10-26 15:48:09.687500
736,12.88,2022-10-26 15:48:09.703125
737,11.68,2022-10-26 15:48:09.718750
738,10.78,2022-10-26 15:48:09.734375
739,10.24,2022-10-26 15:48:09.750000
740,9.94,2022-10-26 15:48:09.765625
741,9.69,2022-10-26 15:48:09.781250
742,9.25,2022-10-26 15:48:09.796875
743,8.49,2022-10-26 15:48:09.812500
744,7.4,2022-10-26 15:48:09.828125
745,6.07,2022-10-26 15:48:09.843750
746,4.7,2022-10-26 15:48:09.859375
747,3.45,2022-10-26 15:48:09.875000
748,2.39,2022-10-26 15:48:09.890625
749,1.46,2022-10-26 15:48:09.906250
750,0.55,2022-10-26 15:48:09.921875
751,-0.47,2022-10-26 15:48:09.937500
752,-1.71,2022-10-26 15:48:09.953125
753,-3.23,2022-10-26 15:48:09.968750
754,-5.08,2022-10-26 15:48:09.984375
755,-7.27,2022-10-26 15:48:10.000000
756,-9.81,2022-10-26 15:48:10.015625
757,-12.52,2022-10-26 15:48:10.031250
758,-15.14,2022-10-26 15:48:10.046875
759,-17.23,2022-10-26 15:48:10.062500
760,-18.34,2022-10-26 15:48:10.078125
761,-18.1,2022-10-26 15:48:10.093750
762,-16.36,2022-10-26 15:48:10.109375
763,-13.24,2022-10-26 15:48:10.125000
764,-9.09,2022-10-26 15:48:10.140625
765,-4.37,2022-10-26 15:48:10.156250
766,0.38,2022-10-26 15:48:10.171875
767,4.7,2022-10-26 15:48:10.187500
768,8.26,2022-10-26 15:48:10.203125
769,10.93,2022-10-26 15:48:10.218750
770,12.72,2022-10-26 15:48:10.234375
771,13.78,2022-10-26 15:48:10.250000
772,14.23,2022-10-26 15:48:10.265625
773,14.11,2022-10-26 15:48:10.281250
774,13.38,2022-10-26 15:48:10.296875
775,11.99,2022-10-26 15:48:10.312500
776,10.02,2022-10-26 15:48:10.328125
777,7.75,2022-10-26 15:48:10.343750
778,5.58,2022-10-26 15:48:10.359375
779,3.9,2022-10-26 15:48:10.375000
780,2.93,2022-10-26 15:48:10.390625
781,2.67,2022-10-26 15:48:10.406250
782,2.88,2022-10-26 15:48:10.421875
783,3.24,2022-10-26 15:48:10.437500
784,3.48,2022-10-26 15:48:10.453125
785,3.5,2022-10-26 15:48:10.468750
786,3.28,2022-10-26 15:48:10.484375
787,2.91,2022-10-26 15:48:10.500000
788,2.43,2022-10-26 15:48:10.515625
789,1.82,2022-10-26 15:48:10.531250
790,0.97,2022-10-26 15:48:10.546875
791,-0.26,2022-10-26 15:48:10.562500
792,-1.95,2022-10-26 15:48:10.578125
793,-4.15,2022-10-26 15:48:10.593750
794,-6.8,2022-10-26 15:48:10.609375
795,-9.8,2022-10-26 15:48:10.625000
796,-13.02,2022-10-26 15:48:10.640625
797,-16.28,2022-10-26 15:48:10.656250
798,-19.33,2022-10-26 15:48:10.671875
799,-21.76,2022-10-26 15:48:10.687500
800,-23.1,2022-10-26 15:48:10.703125
801,-22.87,2022-10-26 15:48:10.718750
802,-20.84,2022-10-26 15:48:10.734375
803,-17.15,2022-10-26 15:48:10.750000
804,-12.31,2022-10-26 15:48:10.765625
805,-7.05,2022-10-26 15:48:10.781250
806,-2.07,2022-10-26 15:48:10.796875
807,2.18,2022-10-26 15:48:10.812500
808,5.59,2022-10-26 15:48:10.828125
809,8.27,2022-10-26 15:48:10.843750
810,10.37,2022-10-26 15:48:10.859375
811,12.01,2022-10-26 15:48:10.875000
812,13.16,2022-10-26 15:48:10.890625
813,13.74,2022-10-26 15:48:10.906250
814,13.74,2022-10-26 15:48:10.921875
815,13.2,2022-10-26 15:48:10.937500
816,12.3,2022-10-26 15:48:10.953125
817,11.26,2022-10-26 15:48:10.968750
818,10.29,2022-10-26 15:48:10.984375
819,9.56,2022-10-26 15:48:11.000000
820,9.13,2022-10-26 15:48:11.015625
821,8.98,2022-10-26 15:48:11.031250
822,9.01,2022-10-26 15:48:11.046875
823,9.1,2022-10-26 15:48:11.062500
824,9.18,2022-10-26 15:48:11.078125
825,9.18,2022-10-26 15:48:11.093750
826,9.11,2022-10-26 15:48:11.109375
827,9.0,2022-10-26 15:48:11.125000
828,8.86,2022-10-26 15:48:11.140625
829,8.63,2022-10-26 15:48:11.156250
830,8.18,2022-10-26 15:48:11.171875
831,7.31,2022-10-26 15:48:11.187500
832,5.94,2022-10-26 15:48:11.203125
833,4.07,2022-10-26 15:48:11.218750
834,1.89,2022-10-26 15:48:11.234375
835,-0.35,2022-10-26 15:48:11.250000
836,-2.41,2022-10-26 15:48:11.265625
837,-4.13,2022-10-26 15:48:11.281250
838,-5.55,2022-10-26 15:48:11.296875
839,-6.87,2022-10-26 15:48:11.312500
840,-8.35,2022-10-26 15:48:11.328125
841,-10.22,2022-10-26 15:48:11.343750
842,-12.6,2022-10-26 15:48:11.359375
843,-15.37,2022-10-26 15:48:11.375000
844,-18.13,2022-10-26 15:48:11.390625
845,-20.32,2022-10-26 15:48:11.406250
846,-21.28,2022-10-26 15:48:11.421875
847,-20.55,2022-10-26 15:48:11.437500
848,-17.96,2022-10-26 15:48:11.453125
849,-13.73,2022-10-26 15:48:11.468750
850,-8.4,2022-10-26 15:48:11.484375
851,-2.64,2022-10-26 15:48:11.500000
852,2.9,2022-10-26 15:48:11.515625
853,7.8,2022-10-26 15:48:11.531250
854,11.82,2022-10-26 15:48:11.546875
855,14.92,2022-10-26 15:48:11.562500
856,17.18,2022-10-26 15:48:11.578125
857,18.71,2022-10-26 15:48:11.593750
858,19.63,2022-10-26 15:48:11.609375
859,20.04,2022-10-26 15:48:11.625000
860,20.05,2022-10-26 15:48:11.640625
861,19.78,2022-10-26 15:48:11.656250
862,19.33,2022-10-26 15:48:11.671875
863,18.82,2022-10-26 15:48:11.687500
864,18.33,2022-10-26 15:48:11.703125
865,17.87,2022-10-26 15:48:11.718750
866,17.47,2022-10-26 15:48:11.734375
867,17.17,2022-10-26 15:48:11.750000
868,16.99,2022-10-26 15:48:11.765625
869,17.01,2022-10-26 15:48:11.781250
870,17.22,2022-10-26 15:48:11.796875
871,17.56,2022-10-26 15:48:11.812500
872,17.89,2022-10-26 15:48:11.828125
873,18.04,2022-10-26 15:48:11.843750
874,17.87,2022-10-26 15:48:11.859375
875,17.27,2022-10-26 15:48:11.875000
876,16.25,2022-10-26 15:48:11.890625
877,14.84,2022-10-26 15:48:11.906250
878,13.18,2022-10-26 15:48:11.921875
879,11.42,2022-10-26 15:48:11.937500
880,9.72,2022-10-26 15:48:11.953125
881,8.18,2022-10-26 15:48:11.968750
882,6.84,2022-10-26 15:48:11.984375
883,5.63,2022-10-26 15:48:12.000000
884,4.38,2022-10-26 15:48:12.015625
885,3.01,2022-10-26 15:48:12.031250
886,1.49,2022-10-26 15:48:12.046875
887,-0.04,2022-10-26 15:48:12.062500
888,-1.38,2022-10-26 15:48:12.078125
889,-2.37,2022-10-26 15:48:12.093750
890,-3.02,2022-10-26 15:48:12.109375
891,-3.48,2022-10-26 15:48:12.125000
892,-3.97,2022-10-26 15:48:12.140625
893,-4.68,2022-10-26 15:48:12.156250
894,-5.68,2022-10-26 15:48:12.171875
895,-6.91,2022-10-26 15:48:12.187500
896,-8.3,2022-10-26 15:48:12.203125
897,-9.74,2022-10-26 15:48:12.218750
898,-11.19,2022-10-26 15:48:12.234375
899,-12.57,2022-10-26 15:48:12.250000
900,-13.83,2022-10-26 15:48:12.265625
901,-14.88,2022-10-26 15:48:12.281250
902,-15.75,2022-10-26 15:48:12.296875
903,-16.58,2022-10-26 15:48:12.312500
904,-17.58,2022-10-26 15:48:12.328125
905,-18.96,2022-10-26 15:48:12.343750
906,-20.78,2022-10-26 15:48:12.359375
907,-22.8,2022-10-26 15:48:12.375000
908,-24.56,2022-10-26 15:48:12.390625
909,-25.44,2022-10-26 15:48:12.406250
910,-24.91,2022-10-26 15:48:12.421875
911,-22.7,2022-10-26 15:48:12.437500
912,-18.88,2022-10-26 15:48:12.453125
913,-13.86,2022-10-26 15:48:12.468750
914,-8.28,2022-10-26 15:48:12.484375
915,-2.71,2022-10-26 15:48:12.500000
916,2.37,2022-10-26 15:48:12.515625
917,6.75,2022-10-26 15:48:12.531250
918,10.34,2022-10-26 15:48:12.546875
919,13.16,2022-10-26 15:48:12.562500
920,15.2,2022-10-26 15:48:12.578125
921,16.49,2022-10-26 15:48:12.593750
922,17.1,2022-10-26 15:48:12.609375
923,17.14,2022-10-26 15:48:12.625000
924,16.86,2022-10-26 15:48:12.640625
925,16.48,2022-10-26 15:48:12.656250
926,16.12,2022-10-26 15:48:12.671875
927,15.82,2022-10-26 15:48:12.687500
928,15.53,2022-10-26 15:48:12.703125
929,15.24,2022-10-26 15:48:12.718750
930,15.0,2022-10-26 15:48:12.734375
931,14.95,2022-10-26 15:48:12.750000
932,15.19,2022-10-26 15:48:12.765625
933,15.72,2022-10-26 15:48:12.781250
934,16.41,2022-10-26 15:48:12.796875
935,17.05,2022-10-26 15:48:12.812500
936,17.41,2022-10-26 15:48:12.828125
937,17.32,2022-10-26 15:48:12.843750
938,16.69,2022-10-26 15:48:12.859375
939,15.48,2022-10-26 15:48:12.875000
940,13.73,2022-10-26 15:48:12.890625
941,11.53,2022-10-26 15:48:12.906250
942,9.03,2022-10-26 15:48:12.921875
943,6.47,2022-10-26 15:48:12.937500
944,4.07,2022-10-26 15:48:12.953125
945,2.02,2022-10-26 15:48:12.968750
946,0.43,2022-10-26 15:48:12.984375
947,-0.71,2022-10-26 15:48:13.000000
948,-1.5,2022-10-26 15:48:13.015625
949,-2.07,2022-10-26 15:48:13.031250
950,-2.56,2022-10-26 15:48:13.046875
951,-3.04,2022-10-26 15:48:13.062500
952,-3.5,2022-10-26 15:48:13.078125
953,-3.93,2022-10-26 15:48:13.093750
954,-4.31,2022-10-26 15:48:13.109375
955,-4.74,2022-10-26 15:48:13.125000
956,-5.38,2022-10-26 15:48:13.140625
957,-6.44,2022-10-26 15:48:13.156250
958,-8.04,2022-10-26 15:48:13.171875
959,-10.17,2022-10-26 15:48:13.187500
960,-12.69,2022-10-26 15:48:13.203125
961,-15.44,2022-10-26 15:48:13.218750
962,-18.28,2022-10-26 15:48:13.234375
963,-21.12,2022-10-26 15:48:13.250000
964,-23.89,2022-10-26 15:48:13.265625
965,-26.32,2022-10-26 15:48:13.281250
966,-28.0,2022-10-26 15:48:13.296875
967,-28.42,2022-10-26 15:48:13.312500
968,-27.13,2022-10-26 15:48:13.328125
969,-24.05,2022-10-26 15:48:13.343750
970,-19.46,2022-10-26 15:48:13.359375
971,-14.03,2022-10-26 15:48:13.375000
972,-8.53,2022-10-26 15:48:13.390625
973,-3.6,2022-10-26 15:48:13.406250
974,0.4,2022-10-26 15:48:13.421875
975,3.45,2022-10-26 15:48:13.437500
976,5.72,2022-10-26 15:48:13.453125
977,7.41,2022-10-26 15:48:13.468750
978,8.61,2022-10-26 15:48:13.484375
979,9.36,2022-10-26 15:48:13.500000
980,9.65,2022-10-26 15:48:13.515625
981,9.47,2022-10-26 15:48:13.531250
982,8.93,2022-10-26 15:48:13.546875
983,8.17,2022-10-26 15:48:13.562500
984,7.33,2022-10-26 15:48:13.578125
985,6.54,2022-10-26 15:48:13.593750
986,5.9,2022-10-26 15:48:13.609375
987,5.56,2022-10-26 15:48:13.625000
988,5.64,2022-10-26 15:48:13.640625
989,6.24,2022-10-26 15:48:13.656250
990,7.37,2022-10-26 15:48:13.671875
991,8.87,2022-10-26 15:48:13.687500
992,10.48,2022-10-26 15:48:13.703125
993,11.9,2022-10-26 15:48:13.718750
994,12.97,2022-10-26 15:48:13.734375
995,13.64,2022-10-26 15:48:13.750000
996,14.03,2022-10-26 15:48:13.765625
997,14.31,2022-10-26 15:48:13.781250
998,14.61,2022-10-26 15:48:13.796875
999,14.97,2022-10-26 15:48:13.812500
1000,15.31,2022-10-26 15:48:13.828125
1001,15.46,2022-10-26 15:48:13.843750
1002,15.19,2022-10-26 15:48:13.859375
1003,14.35,2022-10-26 15:48:13.875000
1004,12.87,2022-10-26 15:48:13.890625
1005,10.78,2022-10-26 15:48:13.906250
1006,8.29,2022-10-26 15:48:13.921875
1007,5.66,2022-10-26 15:48:13.937500
1008,3.17,2022-10-26 15:48:13.953125
1009,1.13,2022-10-26 15:48:13.968750
1010,-0.26,2022-10-26 15:48:13.984375
1011,-0.9,2022-10-26 15:48:14.000000
1012,-0.75,2022-10-26 15:48:14.015625
1013,0.02,2022-10-26 15:48:14.031250
1014,1.07,2022-10-26 15:48:14.046875
1015,1.88,2022-10-26 15:48:14.062500
1016,1.89,2022-10-26 15:48:14.078125
1017,0.63,2022-10-26 15:48:14.093750
1018,-2.07,2022-10-26 15:48:14.109375
1019,-6.02,2022-10-26 15:48:14.125000
1020,-10.83,2022-10-26 15:48:14.140625
1021,-15.88,2022-10-26 15:48:14.156250
1022,-20.59,2022-10-26 15:48:14.171875
1023,-24.41,2022-10-26 15:48:14.187500
1024,-26.88,2022-10-26 15:48:14.203125
1025,-27.62,2022-10-26 15:48:14.218750
1026,-26.49,2022-10-26 15:48:14.234375
1027,-23.58,2022-10-26 15:48:14.250000
1028,-19.3,2022-10-26 15:48:14.265625
1029,-14.34,2022-10-26 15:48:14.281250
1030,-9.45,2022-10-26 15:48:14.296875
1031,-5.25,2022-10-26 15:48:14.312500
1032,-2.07,2022-10-26 15:48:14.328125
1033,0.11,2022-10-26 15:48:14.343750
1034,1.51,2022-10-26 15:48:14.359375
1035,2.43,2022-10-26 15:48:14.375000
1036,3.11,2022-10-26 15:48:14.390625
1037,3.61,2022-10-26 15:48:14.406250
1038,3.94,2022-10-26 15:48:14.421875
1039,4.09,2022-10-26 15:48:14.437500
1040,4.08,2022-10-26 15:48:14.453125
1041,4.02,2022-10-26 15:48:14.468750
1042,3.98,2022-10-26 15:48:14.484375
1043,4.06,2022-10-26 15:48:14.500000
1044,4.26,2022-10-26 15:48:14.515625
1045,4.57,2022-10-26 15:48:14.531250
1046,5.03,2022-10-26 15:48:14.546875
1047,5.65,2022-10-26 15:48:14.562500
1048,6.49,2022-10-26 15:48:14.578125
1049,7.48,2022-10-26 15:48:14.593750
1050,8.47,2022-10-26 15:48:14.609375
1051,9.23,2022-10-26 15:48:14.625000
1052,9.53,2022-10-26 15:48:14.640625
1053,9.27,2022-10-26 15:48:14.656250
1054,8.49,2022-10-26 15:48:14.671875
1055,7.38,2022-10-26 15:48:14.687500
1056,6.15,2022-10-26 15:48:14.703125
1057,5.0,2022-10-26 15:48:14.718750
1058,3.97,2022-10-26 15:48:14.734375
1059,3.06,2022-10-26 15:48:14.750000
1060,2.18,2022-10-26 15:48:14.765625
1061,1.23,2022-10-26 15:48:14.781250
1062,0.19,2022-10-26 15:48:14.796875
1063,-0.96,2022-10-26 15:48:14.812500
1064,-2.17,2022-10-26 15:48:14.828125
1065,-3.43,2022-10-26 15:48:14.843750
1066,-4.75,2022-10-26 15:48:14.859375
1067,-6.17,2022-10-26 15:48:14.875000
1068,-7.69,2022-10-26 15:48:14.890625
1069,-9.29,2022-10-26 15:48:14.906250
1070,-10.94,2022-10-26 15:48:14.921875
1071,-12.56,2022-10-26 15:48:14.937500
1072,-14.16,2022-10-26 15:48:14.953125
1073,-15.74,2022-10-26 15:48:14.968750
1074,-17.31,2022-10-26 15:48:14.984375
1075,-18.76,2022-10-26 15:48:15.000000
1076,-19.84,2022-10-26 15:48:15.015625
1077,-20.22,2022-10-26 15:48:15.031250
1078,-19.57,2022-10-26 15:48:15.046875
1079,-17.68,2022-10-26 15:48:15.062500
1080,-14.57,2022-10-26 15:48:15.078125
1081,-10.43,2022-10-26 15:48:15.093750
1082,-5.59,2022-10-26 15:48:15.109375
1083,-0.42,2022-10-26 15:48:15.125000
1084,4.69,2022-10-26 15:48:15.140625
1085,9.27,2022-10-26 15:48:15.156250
1086,12.84,2022-10-26 15:48:15.171875
1087,14.98,2022-10-26 15:48:15.187500
1088,15.53,2022-10-26 15:48:15.203125
1089,14.7,2022-10-26 15:48:15.218750
1090,13.06,2022-10-26 15:48:15.234375
1091,11.36,2022-10-26 15:48:15.250000
1092,10.25,2022-10-26 15:48:15.265625
1093,10.02,2022-10-26 15:48:15.281250
1094,10.52,2022-10-26 15:48:15.296875
1095,11.33,2022-10-26 15:48:15.312500
1096,12.04,2022-10-26 15:48:15.328125
1097,12.37,2022-10-26 15:48:15.343750
1098,12.41,2022-10-26 15:48:15.359375
1099,12.43,2022-10-26 15:48:15.375000
1100,12.76,2022-10-26 15:48:15.390625
1101,13.68,2022-10-26 15:48:15.406250
1102,15.24,2022-10-26 15:48:15.421875
1103,17.27,2022-10-26 15:48:15.437500
1104,19.51,2022-10-26 15:48:15.453125
1105,21.62,2022-10-26 15:48:15.468750
1106,23.26,2022-10-26 15:48:15.484375
1107,24.2,2022-10-26 15:48:15.500000
1108,24.26,2022-10-26 15:48:15.515625
1109,23.3,2022-10-26 15:48:15.531250
1110,21.16,2022-10-26 15:48:15.546875
1111,17.71,2022-10-26 15:48:15.562500
1112,12.94,2022-10-26 15:48:15.578125
1113,7.0,2022-10-26 15:48:15.593750
1114,0.23,2022-10-26 15:48:15.609375
1115,-6.93,2022-10-26 15:48:15.625000
1116,-14.12,2022-10-26 15:48:15.640625
1117,-21.16,2022-10-26 15:48:15.656250
1118,-28.1,2022-10-26 15:48:15.671875
1119,-34.98,2022-10-26 15:48:15.687500
1120,-41.75,2022-10-26 15:48:15.703125
1121,-48.08,2022-10-26 15:48:15.718750
1122,-53.56,2022-10-26 15:48:15.734375
1123,-57.86,2022-10-26 15:48:15.750000
1124,-60.86,2022-10-26 15:48:15.765625
1125,-62.64,2022-10-26 15:48:15.781250
1126,-63.31,2022-10-26 15:48:15.796875
1127,-62.79,2022-10-26 15:48:15.812500
1128,-60.75,2022-10-26 15:48:15.828125
1129,-56.69,2022-10-26 15:48:15.843750
1130,-50.26,2022-10-26 15:48:15.859375
1131,-41.46,2022-10-26 15:48:15.875000
1132,-30.72,2022-10-26 15:48:15.890625
1133,-18.78,2022-10-26 15:48:15.906250
1134,-6.49,2022-10-26 15:48:15.921875
1135,5.41,2022-10-26 15:48:15.937500
1136,16.29,2022-10-26 15:48:15.953125
1137,25.69,2022-10-26 15:48:15.968750
1138,33.23,2022-10-26 15:48:15.984375
1139,38.57,2022-10-26 15:48:16.000000
1140,41.49,2022-10-26 15:48:16.015625
1141,41.99,2022-10-26 15:48:16.031250
1142,40.32,2022-10-26 15:48:16.046875
1143,36.96,2022-10-26 15:48:16.062500
1144,32.56,2022-10-26 15:48:16.078125
1145,27.82,2022-10-26 15:48:16.093750
1146,23.31,2022-10-26 15:48:16.109375
1147,19.44,2022-10-26 15:48:16.125000
1148,16.35,2022-10-26 15:48:16.140625
1149,13.99,2022-10-26 15:48:16.156250
1150,12.17,2022-10-26 15:48:16.171875
1151,10.71,2022-10-26 15:48:16.187500
1152,9.44,2022-10-26 15:48:16.203125
1153,8.31,2022-10-26 15:48:16.218750
1154,7.33,2022-10-26 15:48:16.234375
1155,6.58,2022-10-26 15:48:16.250000
1156,6.12,2022-10-26 15:48:16.265625
1157,5.97,2022-10-26 15:48:16.281250
1158,6.04,2022-10-26 15:48:16.296875
1159,6.14,2022-10-26 15:48:16.312500
1160,5.97,2022-10-26 15:48:16.328125
1161,5.21,2022-10-26 15:48:16.343750
1162,3.6,2022-10-26 15:48:16.359375
1163,0.95,2022-10-26 15:48:16.375000
1164,-2.79,2022-10-26 15:48:16.390625
1165,-7.52,2022-10-26 15:48:16.406250
1166,-13.01,2022-10-26 15:48:16.421875
1167,-18.84,2022-10-26 15:48:16.437500
1168,-24.46,2022-10-26 15:48:16.453125
1169,-29.29,2022-10-26 15:48:16.468750
1170,-32.84,2022-10-26 15:48:16.484375
1171,-34.84,2022-10-26 15:48:16.500000
1172,-35.28,2022-10-26 15:48:16.515625
1173,-34.26,2022-10-26 15:48:16.531250
1174,-31.97,2022-10-26 15:48:16.546875
1175,-28.55,2022-10-26 15:48:16.562500
1176,-24.19,2022-10-26 15:48:16.578125
1177,-19.18,2022-10-26 15:48:16.593750
1178,-13.98,2022-10-26 15:48:16.609375
1179,-9.13,2022-10-26 15:48:16.625000
1180,-5.13,2022-10-26 15:48:16.640625
1181,-2.15,2022-10-26 15:48:16.656250
1182,-0.06,2022-10-26 15:48:16.671875
1183,1.56,2022-10-26 15:48:16.687500
1184,3.14,2022-10-26 15:48:16.703125
1185,4.91,2022-10-26 15:48:16.718750
1186,6.77,2022-10-26 15:48:16.734375
1187,8.43,2022-10-26 15:48:16.750000
1188,9.54,2022-10-26 15:48:16.765625
1189,9.97,2022-10-26 15:48:16.781250
1190,9.77,2022-10-26 15:48:16.796875
1191,9.22,2022-10-26 15:48:16.812500
1192,8.64,2022-10-26 15:48:16.828125
1193,8.24,2022-10-26 15:48:16.843750
1194,8.11,2022-10-26 15:48:16.859375
1195,8.14,2022-10-26 15:48:16.875000
1196,8.17,2022-10-26 15:48:16.890625
1197,8.0,2022-10-26 15:48:16.906250
1198,7.55,2022-10-26 15:48:16.921875
1199,6.79,2022-10-26 15:48:16.937500
1200,5.74,2022-10-26 15:48:16.953125
1201,4.42,2022-10-26 15:48:16.968750
1202,2.8,2022-10-26 15:48:16.984375
1203,0.86,2022-10-26 15:48:17.000000
1204,-1.4,2022-10-26 15:48:17.015625
1205,-3.85,2022-10-26 15:48:17.031250
1206,-6.33,2022-10-26 15:48:17.046875
1207,-8.69,2022-10-26 15:48:17.062500
1208,-10.85,2022-10-26 15:48:17.078125
1209,-12.91,2022-10-26 15:48:17.093750
1210,-15.02,2022-10-26 15:48:17.109375
1211,-17.29,2022-10-26 15:48:17.125000
1212,-19.6,2022-10-26 15:48:17.140625
1213,-21.64,2022-10-26 15:48:17.156250
1214,-23.08,2022-10-26 15:48:17.171875
1215,-23.63,2022-10-26 15:48:17.187500
1216,-23.29,2022-10-26 15:48:17.203125
1217,-22.24,2022-10-26 15:48:17.218750
1218,-20.81,2022-10-26 15:48:17.234375
1219,-19.32,2022-10-26 15:48:17.250000
1220,-18.0,2022-10-26 15:48:17.265625
1221,-16.94,2022-10-26 15:48:17.281250
1222,-16.12,2022-10-26 15:48:17.296875
1223,-15.4,2022-10-26 15:48:17.312500
1224,-14.52,2022-10-26 15:48:17.328125
1225,-13.25,2022-10-26 15:48:17.343750
1226,-11.43,2022-10-26 15:48:17.359375
1227,-9.15,2022-10-26 15:48:17.375000
1228,-6.7,2022-10-26 15:48:17.390625
1229,-4.56,2022-10-26 15:48:17.406250
1230,-3.16,2022-10-26 15:48:17.421875
1231,-2.71,2022-10-26 15:48:17.437500
1232,-3.16,2022-10-26 15:48:17.453125
1233,-4.25,2022-10-26 15:48:17.468750
1234,-5.62,2022-10-26 15:48:17.484375
1235,-7.0,2022-10-26 15:48:17.500000
1236,-8.2,2022-10-26 15:48:17.515625
1237,-9.11,2022-10-26 15:48:17.531250
1238,-9.69,2022-10-26 15:48:17.546875
1239,-9.84,2022-10-26 15:48:17.562500
1240,-9.45,2022-10-26 15:48:17.578125
1241,-8.48,2022-10-26 15:48:17.593750
1242,-6.94,2022-10-26 15:48:17.609375
1243,-4.98,2022-10-26 15:48:17.625000
1244,-2.84,2022-10-26 15:48:17.640625
1245,-0.91,2022-10-26 15:48:17.656250
1246,0.4,2022-10-26 15:48:17.671875
1247,0.75,2022-10-26 15:48:17.687500
1248,0.0,2022-10-26 15:48:17.703125
1249,-1.64,2022-10-26 15:48:17.718750
1250,-3.69,2022-10-26 15:48:17.734375
1251,-5.5,2022-10-26 15:48:17.750000
1252,-6.45,2022-10-26 15:48:17.765625
1253,-6.18,2022-10-26 15:48:17.781250
1254,-4.62,2022-10-26 15:48:17.796875
1255,-1.95,2022-10-26 15:48:17.812500
1256,1.48,2022-10-26 15:48:17.828125
1257,5.28,2022-10-26 15:48:17.843750
1258,9.14,2022-10-26 15:48:17.859375
1259,12.77,2022-10-26 15:48:17.875000
1260,15.95,2022-10-26 15:48:17.890625
1261,18.52,2022-10-26 15:48:17.906250
1262,20.41,2022-10-26 15:48:17.921875
1263,21.7,2022-10-26 15:48:17.937500
1264,22.59,2022-10-26 15:48:17.953125
1265,23.34,2022-10-26 15:48:17.968750
1266,24.11,2022-10-26 15:48:17.984375
1267,24.93,2022-10-26 15:48:18.000000
1268,25.71,2022-10-26 15:48:18.015625
1269,26.29,2022-10-26 15:48:18.031250
1270,26.58,2022-10-26 15:48:18.046875
1271,26.57,2022-10-26 15:48:18.062500
1272,26.38,2022-10-26 15:48:18.078125
1273,26.08,2022-10-26 15:48:18.093750
1274,25.69,2022-10-26 15:48:18.109375
1275,25.04,2022-10-26 15:48:18.125000
1276,23.94,2022-10-26 15:48:18.140625
1277,22.18,2022-10-26 15:48:18.156250
1278,19.74,2022-10-26 15:48:18.171875
1279,16.74,2022-10-26 15:48:18.187500
1280,13.5,2022-10-26 15:48:18.203125
1281,10.3,2022-10-26 15:48:18.218750
1282,7.27,2022-10-26 15:48:18.234375
1283,4.32,2022-10-26 15:48:18.250000
1284,1.17,2022-10-26 15:48:18.265625
1285,-2.57,2022-10-26 15:48:18.281250
1286,-7.13,2022-10-26 15:48:18.296875
1287,-12.51,2022-10-26 15:48:18.312500
1288,-18.37,2022-10-26 15:48:18.328125
1289,-24.2,2022-10-26 15:48:18.343750
1290,-29.4,2022-10-26 15:48:18.359375
1291,-33.51,2022-10-26 15:48:18.375000
1292,-36.27,2022-10-26 15:48:18.390625
1293,-37.67,2022-10-26 15:48:18.406250
1294,-37.81,2022-10-26 15:48:18.421875
1295,-36.91,2022-10-26 15:48:18.437500
1296,-35.19,2022-10-26 15:48:18.453125
1297,-32.85,2022-10-26 15:48:18.468750
1298,-30.08,2022-10-26 15:48:18.484375
1299,-27.04,2022-10-26 15:48:18.500000
1300,-23.86,2022-10-26 15:48:18.515625
1301,-20.63,2022-10-26 15:48:18.531250
1302,-17.43,2022-10-26 15:48:18.546875
1303,-14.3,2022-10-26 15:48:18.562500
1304,-11.27,2022-10-26 15:48:18.578125
1305,-8.39,2022-10-26 15:48:18.593750
1306,-5.7,2022-10-26 15:48:18.609375
1307,-3.25,2022-10-26 15:48:18.625000
1308,-0.99,2022-10-26 15:48:18.640625
1309,1.15,2022-10-26 15:48:18.656250
1310,3.27,2022-10-26 15:48:18.671875
1311,5.41,2022-10-26 15:48:18.687500
1312,7.52,2022-10-26 15:48:18.703125
1313,9.49,2022-10-26 15:48:18.718750
1314,11.18,2022-10-26 15:48:18.734375
1315,12.49,2022-10-26 15:48:18.750000
1316,13.39,2022-10-26 15:48:18.765625
1317,13.85,2022-10-26 15:48:18.781250
1318,13.89,2022-10-26 15:48:18.796875
1319,13.52,2022-10-26 15:48:18.812500
1320,12.7,2022-10-26 15:48:18.828125
1321,11.37,2022-10-26 15:48:18.843750
1322,9.49,2022-10-26 15:48:18.859375
1323,7.01,2022-10-26 15:48:18.875000
1324,3.96,2022-10-26 15:48:18.890625
1325,0.43,2022-10-26 15:48:18.906250
1326,-3.31,2022-10-26 15:48:18.921875
1327,-6.85,2022-10-26 15:48:18.937500
1328,-9.67,2022-10-26 15:48:18.953125
1329,-11.28,2022-10-26 15:48:18.968750
1330,-11.42,2022-10-26 15:48:18.984375
1331,-10.09,2022-10-26 15:48:19.000000
1332,-7.59,2022-10-26 15:48:19.015625
1333,-4.37,2022-10-26 15:48:19.031250
1334,-0.88,2022-10-26 15:48:19.046875
1335,2.57,2022-10-26 15:48:19.062500
1336,5.85,2022-10-26 15:48:19.078125
1337,8.95,2022-10-26 15:48:19.093750
1338,11.86,2022-10-26 15:48:19.109375
1339,14.47,2022-10-26 15:48:19.125000
1340,16.58,2022-10-26 15:48:19.140625
1341,17.91,2022-10-26 15:48:19.156250
1342,18.24,2022-10-26 15:48:19.171875
1343,17.51,2022-10-26 15:48:19.187500
1344,15.88,2022-10-26 15:48:19.203125
1345,13.68,2022-10-26 15:48:19.218750
1346,11.41,2022-10-26 15:48:19.234375
1347,9.47,2022-10-26 15:48:19.250000
1348,8.15,2022-10-26 15:48:19.265625
1349,7.5,2022-10-26 15:48:19.281250
1350,7.34,2022-10-26 15:48:19.296875
1351,7.38,2022-10-26 15:48:19.312500
1352,7.33,2022-10-26 15:48:19.328125
1353,6.99,2022-10-26 15:48:19.343750
1354,6.37,2022-10-26 15:48:19.359375
1355,5.54,2022-10-26 15:48:19.375000
1356,4.66,2022-10-26 15:48:19.390625
1357,3.78,2022-10-26 15:48:19.406250
1358,2.82,2022-10-26 15:48:19.421875
1359,1.64,2022-10-26 15:48:19.437500
1360,0.02,2022-10-26 15:48:19.453125
1361,-2.18,2022-10-26 15:48:19.468750
1362,-4.98,2022-10-26 15:48:19.484375
1363,-8.24,2022-10-26 15:48:19.500000
1364,-11.73,2022-10-26 15:48:19.515625
1365,-15.12,2022-10-26 15:48:19.531250
1366,-18.09,2022-10-26 15:48:19.546875
1367,-20.27,2022-10-26 15:48:19.562500
1368,-21.35,2022-10-26 15:48:19.578125
1369,-21.03,2022-10-26 15:48:19.593750
1370,-19.15,2022-10-26 15:48:19.609375
1371,-15.74,2022-10-26 15:48:19.625000
1372,-11.12,2022-10-26 15:48:19.640625
1373,-5.84,2022-10-26 15:48:19.656250
1374,-0.57,2022-10-26 15:48:19.671875
1375,4.02,2022-10-26 15:48:19.687500
1376,7.51,2022-10-26 15:48:19.703125
1377,9.73,2022-10-26 15:48:19.718750
1378,10.83,2022-10-26 15:48:19.734375
1379,11.09,2022-10-26 15:48:19.750000
1380,10.78,2022-10-26 15:48:19.765625
1381,10.05,2022-10-26 15:48:19.781250
1382,8.97,2022-10-26 15:48:19.796875
1383,7.59,2022-10-26 15:48:19.812500
1384,6.08,2022-10-26 15:48:19.828125
1385,4.73,2022-10-26 15:48:19.843750
1386,3.84,2022-10-26 15:48:19.859375
1387,3.6,2022-10-26 15:48:19.875000
1388,4.0,2022-10-26 15:48:19.890625
1389,4.83,2022-10-26 15:48:19.906250
1390,5.76,2022-10-26 15:48:19.921875
1391,6.52,2022-10-26 15:48:19.937500
1392,6.93,2022-10-26 15:48:19.953125
1393,6.97,2022-10-26 15:48:19.968750
1394,6.69,2022-10-26 15:48:19.984375
1395,6.16,2022-10-26 15:48:20.000000
1396,5.41,2022-10-26 15:48:20.015625
1397,4.39,2022-10-26 15:48:20.031250
1398,3.08,2022-10-26 15:48:20.046875
1399,1.46,2022-10-26 15:48:20.062500
1400,-0.42,2022-10-26 15:48:20.078125
1401,-2.51,2022-10-26 15:48:20.093750
1402,-4.71,2022-10-26 15:48:20.109375
1403,-6.96,2022-10-26 15:48:20.125000
1404,-9.21,2022-10-26 15:48:20.140625
1405,-11.4,2022-10-26 15:48:20.156250
1406,-13.36,2022-10-26 15:48:20.171875
1407,-14.78,2022-10-26 15:48:20.187500
1408,-15.25,2022-10-26 15:48:20.203125
1409,-14.43,2022-10-26 15:48:20.218750
1410,-12.16,2022-10-26 15:48:20.234375
1411,-8.61,2022-10-26 15:48:20.250000
1412,-4.2,2022-10-26 15:48:20.265625
1413,0.5,2022-10-26 15:48:20.281250
1414,5.03,2022-10-26 15:48:20.296875
1415,9.04,2022-10-26 15:48:20.312500
1416,12.43,2022-10-26 15:48:20.328125
1417,15.17,2022-10-26 15:48:20.343750
1418,17.26,2022-10-26 15:48:20.359375
1419,18.64,2022-10-26 15:48:20.375000
1420,19.22,2022-10-26 15:48:20.390625
1421,19.05,2022-10-26 15:48:20.406250
1422,18.26,2022-10-26 15:48:20.421875
1423,17.17,2022-10-26 15:48:20.437500
1424,16.12,2022-10-26 15:48:20.453125
1425,15.38,2022-10-26 15:48:20.468750
1426,15.04,2022-10-26 15:48:20.484375
1427,15.0,2022-10-26 15:48:20.500000
1428,15.05,2022-10-26 15:48:20.515625
1429,15.02,2022-10-26 15:48:20.531250
1430,14.84,2022-10-26 15:48:20.546875
1431,14.58,2022-10-26 15:48:20.562500
1432,14.43,2022-10-26 15:48:20.578125
1433,14.53,2022-10-26 15:48:20.593750
1434,14.89,2022-10-26 15:48:20.609375
1435,15.37,2022-10-26 15:48:20.625000
1436,15.75,2022-10-26 15:48:20.640625
1437,15.78,2022-10-26 15:48:20.656250
1438,15.31,2022-10-26 15:48:20.671875
1439,14.33,2022-10-26 15:48:20.687500
1440,12.95,2022-10-26 15:48:20.703125
1441,11.35,2022-10-26 15:48:20.718750
1442,9.71,2022-10-26 15:48:20.734375
1443,8.15,2022-10-26 15:48:20.750000
1444,6.68,2022-10-26 15:48:20.765625
1445,5.23,2022-10-26 15:48:20.781250
1446,3.67,2022-10-26 15:48:20.796875
1447,1.92,2022-10-26 15:48:20.812500
1448,-0.03,2022-10-26 15:48:20.828125
1449,-2.03,2022-10-26 15:48:20.843750
1450,-3.86,2022-10-26 15:48:20.859375
1451,-5.33,2022-10-26 15:48:20.875000
1452,-6.37,2022-10-26 15:48:20.890625
1453,-7.08,2022-10-26 15:48:20.906250
1454,-7.7,2022-10-26 15:48:20.921875
1455,-8.47,2022-10-26 15:48:20.937500
1456,-9.57,2022-10-26 15:48:20.953125
1457,-11.04,2022-10-26 15:48:20.968750
1458,-12.88,2022-10-26 15:48:20.984375
1459,-15.0,2022-10-26 15:48:21.000000
1460,-17.3,2022-10-26 15:48:21.015625
1461,-19.66,2022-10-26 15:48:21.031250
1462,-21.89,2022-10-26 15:48:21.046875
1463,-23.69,2022-10-26 15:48:21.062500
1464,-24.69,2022-10-26 15:48:21.078125
1465,-24.6,2022-10-26 15:48:21.093750
1466,-23.22,2022-10-26 15:48:21.109375
1467,-20.59,2022-10-26 15:48:21.125000
1468,-16.98,2022-10-26 15:48:21.140625
1469,-12.82,2022-10-26 15:48:21.156250
1470,-8.58,2022-10-26 15:48:21.171875
1471,-4.71,2022-10-26 15:48:21.187500
1472,-1.52,2022-10-26 15:48:21.203125
1473,0.85,2022-10-26 15:48:21.218750
1474,2.41,2022-10-26 15:48:21.234375
1475,3.34,2022-10-26 15:48:21.250000
1476,3.87,2022-10-26 15:48:21.265625
1477,4.26,2022-10-26 15:48:21.281250
1478,4.72,2022-10-26 15:48:21.296875
1479,5.37,2022-10-26 15:48:21.312500
1480,6.19,2022-10-26 15:48:21.328125
1481,7.09,2022-10-26 15:48:21.343750
1482,7.95,2022-10-26 15:48:21.359375
1483,8.72,2022-10-26 15:48:21.375000
1484,9.42,2022-10-26 15:48:21.390625
1485,10.16,2022-10-26 15:48:21.406250
1486,10.99,2022-10-26 15:48:21.421875
1487,11.93,2022-10-26 15:48:21.437500
1488,12.93,2022-10-26 15:48:21.453125
1489,13.86,2022-10-26 15:48:21.468750
1490,14.64,2022-10-26 15:48:21.484375
1491,15.21,2022-10-26 15:48:21.500000
1492,15.55,2022-10-26 15:48:21.515625
1493,15.64,2022-10-26 15:48:21.531250
1494,15.46,2022-10-26 15:48:21.546875
1495,14.96,2022-10-26 15:48:21.562500
1496,14.15,2022-10-26 15:48:21.578125
1497,13.01,2022-10-26 15:48:21.593750
1498,11.62,2022-10-26 15:48:21.609375
1499,10.01,2022-10-26 15:48:21.625000
1500,8.21,2022-10-26 15:48:21.640625
1501,6.25,2022-10-26 15:48:21.656250
1502,4.2,2022-10-26 15:48:21.671875
1503,2.18,2022-10-26 15:48:21.687500
1504,0.36,2022-10-26 15:48:21.703125
1505,-1.12,2022-10-26 15:48:21.718750
1506,-2.14,2022-10-26 15:48:21.734375
1507,-2.75,2022-10-26 15:48:21.750000
1508,-3.07,2022-10-26 15:48:21.765625
1509,-3.32,2022-10-26 15:48:21.781250
1510,-3.74,2022-10-26 15:48:21.796875
1511,-4.53,2022-10-26 15:48:21.812500
1512,-5.83,2022-10-26 15:48:21.828125
1513,-7.66,2022-10-26 15:48:21.843750
1514,-9.93,2022-10-26 15:48:21.859375
1515,-12.46,2022-10-26 15:48:21.875000
1516,-14.92,2022-10-26 15:48:21.890625
1517,-16.96,2022-10-26 15:48:21.906250
1518,-18.23,2022-10-26 15:48:21.921875
1519,-18.48,2022-10-26 15:48:21.937500
1520,-17.62,2022-10-26 15:48:21.953125
1521,-15.73,2022-10-26 15:48:21.968750
1522,-13.04,2022-10-26 15:48:21.984375
1523,-9.85,2022-10-26 15:48:22.000000
1524,-6.5,2022-10-26 15:48:22.015625
1525,-3.19,2022-10-26 15:48:22.031250
1526,-0.09,2022-10-26 15:48:22.046875
1527,2.73,2022-10-26 15:48:22.062500
1528,5.24,2022-10-26 15:48:22.078125
1529,7.46,2022-10-26 15:48:22.093750
1530,9.37,2022-10-26 15:48:22.109375
1531,10.93,2022-10-26 15:48:22.125000
1532,12.06,2022-10-26 15:48:22.140625
1533,12.67,2022-10-26 15:48:22.156250
1534,12.7,2022-10-26 15:48:22.171875
1535,12.12,2022-10-26 15:48:22.187500
1536,10.99,2022-10-26 15:48:22.203125
1537,9.47,2022-10-26 15:48:22.218750
1538,7.71,2022-10-26 15:48:22.234375
1539,5.88,2022-10-26 15:48:22.250000
1540,4.12,2022-10-26 15:48:22.265625
1541,2.58,2022-10-26 15:48:22.281250
1542,1.38,2022-10-26 15:48:22.296875
1543,0.66,2022-10-26 15:48:22.312500
1544,0.44,2022-10-26 15:48:22.328125
1545,0.67,2022-10-26 15:48:22.343750
1546,1.19,2022-10-26 15:48:22.359375
1547,1.82,2022-10-26 15:48:22.375000
1548,2.33,2022-10-26 15:48:22.390625
1549,2.59,2022-10-26 15:48:22.406250
1550,2.53,2022-10-26 15:48:22.421875
1551,2.15,2022-10-26 15:48:22.437500
1552,1.53,2022-10-26 15:48:22.453125
1553,0.79,2022-10-26 15:48:22.468750
1554,0.09,2022-10-26 15:48:22.484375
1555,-0.39,2022-10-26 15:48:22.500000
1556,-0.61,2022-10-26 15:48:22.515625
1557,-0.66,2022-10-26 15:48:22.531250
1558,-0.82,2022-10-26 15:48:22.546875
1559,-1.35,2022-10-26 15:48:22.562500
1560,-2.44,2022-10-26 15:48:22.578125
1561,-3.99,2022-10-26 15:48:22.593750
1562,-5.68,2022-10-26 15:48:22.609375
1563,-7.13,2022-10-26 15:48:22.625000
1564,-8.08,2022-10-26 15:48:22.640625
1565,-8.58,2022-10-26 15:48:22.656250
1566,-8.96,2022-10-26 15:48:22.671875
1567,-9.63,2022-10-26 15:48:22.687500
1568,-10.87,2022-10-26 15:48:22.703125
1569,-12.6,2022-10-26 15:48:22.718750
1570,-14.38,2022-10-26 15:48:22.734375
1571,-15.64,2022-10-26 15:48:22.750000
1572,-15.91,2022-10-26 15:48:22.765625
1573,-15.05,2022-10-26 15:48:22.781250
1574,-13.27,2022-10-26 15:48:22.796875
1575,-10.96,2022-10-26 15:48:22.812500
1576,-8.47,2022-10-26 15:48:22.828125
1577,-5.93,2022-10-26 15:48:22.843750
1578,-3.25,2022-10-26 15:48:22.859375
1579,-0.26,2022-10-26 15:48:22.875000
1580,3.08,2022-10-26 15:48:22.890625
1581,6.52,2022-10-26 15:48:22.906250
1582,9.58,2022-10-26 15:48:22.921875
1583,11.71,2022-10-26 15:48:22.937500
1584,12.57,2022-10-26 15:48:22.953125
1585,12.21,2022-10-26 15:48:22.968750
1586,11.03,2022-10-26 15:48:22.984375
1587,9.63,2022-10-26 15:48:23.000000
1588,8.53,2022-10-26 15:48:23.015625
1589,8.05,2022-10-26 15:48:23.031250
1590,8.21,2022-10-26 15:48:23.046875
1591,8.91,2022-10-26 15:48:23.062500
1592,9.95,2022-10-26 15:48:23.078125
1593,11.07,2022-10-26 15:48:23.093750
1594,11.97,2022-10-26 15:48:23.109375
1595,12.23,2022-10-26 15:48:23.125000
1596,11.39,2022-10-26 15:48:23.140625
1597,9.14,2022-10-26 15:48:23.156250
1598,5.45,2022-10-26 15:48:23.171875
1599,0.76,2022-10-26 15:48:23.187500
1600,-4.23,2022-10-26 15:48:23.203125
1601,-8.75,2022-10-26 15:48:23.218750
1602,-12.23,2022-10-26 15:48:23.234375
1603,-14.46,2022-10-26 15:48:23.250000
1604,-15.57,2022-10-26 15:48:23.265625
1605,-15.85,2022-10-26 15:48:23.281250
1606,-15.55,2022-10-26 15:48:23.296875
1607,-14.78,2022-10-26 15:48:23.312500
1608,-13.55,2022-10-26 15:48:23.328125
1609,-11.87,2022-10-26 15:48:23.343750
1610,-9.83,2022-10-26 15:48:23.359375
1611,-7.64,2022-10-26 15:48:23.375000
1612,-5.53,2022-10-26 15:48:23.390625
1613,-3.71,2022-10-26 15:48:23.406250
1614,-2.33,2022-10-26 15:48:23.421875
1615,-1.38,2022-10-26 15:48:23.437500
1616,-0.83,2022-10-26 15:48:23.453125
1617,-0.59,2022-10-26 15:48:23.468750
1618,-0.62,2022-10-26 15:48:23.484375
1619,-0.89,2022-10-26 15:48:23.500000
1620,-1.4,2022-10-26 15:48:23.515625
1621,-2.12,2022-10-26 15:48:23.531250
1622,-2.95,2022-10-26 15:48:23.546875
1623,-3.71,2022-10-26 15:48:23.562500
1624,-4.18,2022-10-26 15:48:23.578125
1625,-4.15,2022-10-26 15:48:23.593750
1626,-3.46,2022-10-26 15:48:23.609375
1627,-2.11,2022-10-26 15:48:23.625000
1628,-0.2,2022-10-26 15:48:23.640625
1629,2.02,2022-10-26 15:48:23.656250
1630,4.29,2022-10-26 15:48:23.671875
1631,6.36,2022-10-26 15:48:23.687500
1632,8.09,2022-10-26 15:48:23.703125
1633,9.41,2022-10-26 15:48:23.718750
1634,10.29,2022-10-26 15:48:23.734375
1635,10.71,2022-10-26 15:48:23.750000
1636,10.66,2022-10-26 15:48:23.765625
1637,10.11,2022-10-26 15:48:23.781250
1638,9.13,2022-10-26 15:48:23.796875
1639,7.79,2022-10-26 15:48:23.812500
1640,6.22,2022-10-26 15:48:23.828125
1641,4.51,2022-10-26 15:48:23.843750
1642,2.7,2022-10-26 15:48:23.859375
1643,0.79,2022-10-26 15:48:23.875000
1644,-1.18,2022-10-26 15:48:23.890625
1645,-3.06,2022-10-26 15:48:23.906250
1646,-4.6,2022-10-26 15:48:23.921875
1647,-5.53,2022-10-26 15:48:23.937500
1648,-5.69,2022-10-26 15:48:23.953125
1649,-5.1,2022-10-26 15:48:23.968750
1650,-4.03,2022-10-26 15:48:23.984375
1651,-2.78,2022-10-26 15:48:24.000000
1652,-1.62,2022-10-26 15:48:24.015625
1653,-0.61,2022-10-26 15:48:24.031250
1654,0.33,2022-10-26 15:48:24.046875
1655,1.43,2022-10-26 15:48:24.062500
1656,2.81,2022-10-26 15:48:24.078125
1657,4.5,2022-10-26 15:48:24.093750
1658,6.41,2022-10-26 15:48:24.109375
1659,8.33,2022-10-26 15:48:24.125000
1660,9.97,2022-10-26 15:48:24.140625
1661,11.1,2022-10-26 15:48:24.156250
1662,11.52,2022-10-26 15:48:24.171875
1663,11.1,2022-10-26 15:48:24.187500
1664,9.85,2022-10-26 15:48:24.203125
1665,7.88,2022-10-26 15:48:24.218750
1666,5.4,2022-10-26 15:48:24.234375
1667,2.65,2022-10-26 15:48:24.250000
1668,-0.17,2022-10-26 15:48:24.265625
1669,-2.94,2022-10-26 15:48:24.281250
1670,-5.65,2022-10-26 15:48:24.296875
1671,-8.31,2022-10-26 15:48:24.312500
1672,-10.89,2022-10-26 15:48:24.328125
1673,-13.29,2022-10-26 15:48:24.343750
1674,-15.32,2022-10-26 15:48:24.359375
1675,-16.76,2022-10-26 15:48:24.375000
1676,-17.4,2022-10-26 15:48:24.390625
1677,-17.11,2022-10-26 15:48:24.406250
1678,-15.83,2022-10-26 15:48:24.421875
1679,-13.66,2022-10-26 15:48:24.437500
1680,-10.79,2022-10-26 15:48:24.453125
1681,-7.45,2022-10-26 15:48:24.468750
1682,-3.91,2022-10-26 15:48:24.484375
1683,-0.43,2022-10-26 15:48:24.500000
1684,2.78,2022-10-26 15:48:24.515625
1685,5.58,2022-10-26 15:48:24.531250
1686,7.82,2022-10-26 15:48:24.546875
1687,9.38,2022-10-26 15:48:24.562500
1688,10.11,2022-10-26 15:48:24.578125
1689,9.88,2022-10-26 15:48:24.593750
1690,8.69,2022-10-26 15:48:24.609375
1691,6.73,2022-10-26 15:48:24.625000
1692,4.36,2022-10-26 15:48:24.640625
1693,2.05,2022-10-26 15:48:24.656250
1694,0.2,2022-10-26 15:48:24.671875
1695,-1.0,2022-10-26 15:48:24.687500
1696,-1.59,2022-10-26 15:48:24.703125
1697,-1.81,2022-10-26 15:48:24.718750
1698,-1.89,2022-10-26 15:48:24.734375
1699,-1.91,2022-10-26 15:48:24.750000
1700,-1.81,2022-10-26 15:48:24.765625
1701,-1.45,2022-10-26 15:48:24.781250
1702,-0.76,2022-10-26 15:48:24.796875
1703,0.09,2022-10-26 15:48:24.812500
1704,0.78,2022-10-26 15:48:24.828125
1705,1.0,2022-10-26 15:48:24.843750
1706,0.65,2022-10-26 15:48:24.859375
1707,-0.13,2022-10-26 15:48:24.875000
1708,-0.94,2022-10-26 15:48:24.890625
1709,-1.42,2022-10-26 15:48:24.906250
1710,-1.44,2022-10-26 15:48:24.921875
1711,-1.17,2022-10-26 15:48:24.937500
1712,-1.0,2022-10-26 15:48:24.953125
1713,-1.31,2022-10-26 15:48:24.968750
1714,-2.31,2022-10-26 15:48:24.984375
1715,-3.9,2022-10-26 15:48:25.000000
1716,-5.79,2022-10-26 15:48:25.015625
1717,-7.63,2022-10-26 15:48:25.031250
1718,-9.25,2022-10-26 15:48:25.046875
1719,-10.62,2022-10-26 15:48:25.062500
1720,-11.9,2022-10-26 15:48:25.078125
1721,-13.22,2022-10-26 15:48:25.093750
1722,-14.56,2022-10-26 15:48:25.109375
1723,-15.74,2022-10-26 15:48:25.125000
1724,-16.4,2022-10-26 15:48:25.140625
1725,-16.22,2022-10-26 15:48:25.156250
1726,-15.05,2022-10-26 15:48:25.171875
1727,-13.04,2022-10-26 15:48:25.187500
1728,-10.53,2022-10-26 15:48:25.203125
1729,-7.99,2022-10-26 15:48:25.218750
1730,-5.75,2022-10-26 15:48:25.234375
1731,-3.88,2022-10-26 15:48:25.250000
1732,-2.25,2022-10-26 15:48:25.265625
1733,-0.63,2022-10-26 15:48:25.281250
1734,1.09,2022-10-26 15:48:25.296875
1735,2.8,2022-10-26 15:48:25.312500
1736,4.23,2022-10-26 15:48:25.328125
1737,5.1,2022-10-26 15:48:25.343750
1738,5.25,2022-10-26 15:48:25.359375
1739,4.7,2022-10-26 15:48:25.375000
1740,3.63,2022-10-26 15:48:25.390625
1741,2.27,2022-10-26 15:48:25.406250
1742,0.84,2022-10-26 15:48:25.421875
1743,-0.43,2022-10-26 15:48:25.437500
1744,-1.34,2022-10-26 15:48:25.453125
1745,-1.69,2022-10-26 15:48:25.468750
1746,-1.38,2022-10-26 15:48:25.484375
1747,-0.42,2022-10-26 15:48:25.500000
1748,1.06,2022-10-26 15:48:25.515625
1749,2.8,2022-10-26 15:48:25.531250
1750,4.54,2022-10-26 15:48:25.546875
1751,6.03,2022-10-26 15:48:25.562500
1752,7.07,2022-10-26 15:48:25.578125
1753,7.51,2022-10-26 15:48:25.593750
1754,7.28,2022-10-26 15:48:25.609375
1755,6.37,2022-10-26 15:48:25.625000
1756,4.9,2022-10-26 15:48:25.640625
1757,3.09,2022-10-26 15:48:25.656250
1758,1.21,2022-10-26 15:48:25.671875
1759,-0.54,2022-10-26 15:48:25.687500
1760,-2.1,2022-10-26 15:48:25.703125
1761,-3.58,2022-10-26 15:48:25.718750
1762,-5.13,2022-10-26 15:48:25.734375
1763,-6.85,2022-10-26 15:48:25.750000
1764,-8.73,2022-10-26 15:48:25.765625
1765,-10.62,2022-10-26 15:48:25.781250
1766,-12.33,2022-10-26 15:48:25.796875
1767,-13.65,2022-10-26 15:48:25.812500
1768,-14.48,2022-10-26 15:48:25.828125
1769,-14.75,2022-10-26 15:48:25.843750
1770,-14.47,2022-10-26 15:48:25.859375
1771,-13.63,2022-10-26 15:48:25.875000
1772,-12.27,2022-10-26 15:48:25.890625
1773,-10.41,2022-10-26 15:48:25.906250
1774,-8.12,2022-10-26 15:48:25.921875
1775,-5.47,2022-10-26 15:48:25.937500
1776,-2.63,2022-10-26 15:48:25.953125
1777,0.25,2022-10-26 15:48:25.968750
1778,3.01,2022-10-26 15:48:25.984375
1779,5.45,2022-10-26 15:48:26.000000
1780,7.4,2022-10-26 15:48:26.015625
1781,8.75,2022-10-26 15:48:26.031250
1782,9.38,2022-10-26 15:48:26.046875
1783,9.29,2022-10-26 15:48:26.062500
1784,8.55,2022-10-26 15:48:26.078125
1785,7.32,2022-10-26 15:48:26.093750
1786,5.84,2022-10-26 15:48:26.109375
1787,4.35,2022-10-26 15:48:26.125000
1788,3.04,2022-10-26 15:48:26.140625
1789,2.06,2022-10-26 15:48:26.156250
1790,1.44,2022-10-26 15:48:26.171875
1791,1.14,2022-10-26 15:48:26.187500
1792,1.09,2022-10-26 15:48:26.203125
1793,1.15,2022-10-26 15:48:26.218750
1794,1.24,2022-10-26 15:48:26.234375
1795,1.26,2022-10-26 15:48:26.250000
1796,1.12,2022-10-26 15:48:26.265625
1797,0.74,2022-10-26 15:48:26.281250
1798,0.08,2022-10-26 15:48:26.296875
1799,-0.88,2022-10-26 15:48:26.312500
1800,-2.1,2022-10-26 15:48:26.328125
1801,-3.46,2022-10-26 15:48:26.343750
1802,-4.84,2022-10-26 15:48:26.359375
1803,-6.1,2022-10-26 15:48:26.375000
1804,-7.14,2022-10-26 15:48:26.390625
1805,-7.97,2022-10-26 15:48:26.406250
1806,-8.69,2022-10-26 15:48:26.421875
1807,-9.5,2022-10-26 15:48:26.437500
1808,-10.51,2022-10-26 15:48:26.453125
1809,-11.8,2022-10-26 15:48:26.468750
1810,-13.26,2022-10-26 15:48:26.484375
1811,-14.62,2022-10-26 15:48:26.500000
1812,-15.53,2022-10-26 15:48:26.515625
1813,-15.69,2022-10-26 15:48:26.531250
1814,-14.94,2022-10-26 15:48:26.546875
1815,-13.27,2022-10-26 15:48:26.562500
1816,-10.85,2022-10-26 15:48:26.578125
1817,-7.88,2022-10-26 15:48:26.593750
1818,-4.58,2022-10-26 15:48:26.609375
1819,-1.11,2022-10-26 15:48:26.625000
1820,2.33,2022-10-26 15:48:26.640625
1821,5.49,2022-10-26 15:48:26.656250
1822,8.07,2022-10-26 15:48:26.671875
1823,9.74,2022-10-26 15:48:26.687500
1824,10.29,2022-10-26 15:48:26.703125
1825,9.69,2022-10-26 15:48:26.718750
1826,8.18,2022-10-26 15:48:26.734375
1827,6.13,2022-10-26 15:48:26.750000
1828,3.98,2022-10-26 15:48:26.765625
1829,2.15,2022-10-26 15:48:26.781250
1830,0.88,2022-10-26 15:48:26.796875
1831,0.21,2022-10-26 15:48:26.812500
1832,0.07,2022-10-26 15:48:26.828125
1833,0.27,2022-10-26 15:48:26.843750
1834,0.62,2022-10-26 15:48:26.859375
1835,0.98,2022-10-26 15:48:26.875000
1836,1.26,2022-10-26 15:48:26.890625
1837,1.48,2022-10-26 15:48:26.906250
1838,1.65,2022-10-26 15:48:26.921875
1839,1.78,2022-10-26 15:48:26.937500
1840,1.77,2022-10-26 15:48:26.953125
1841,1.48,2022-10-26 15:48:26.968750
1842,0.76,2022-10-26 15:48:26.984375
1843,-0.52,2022-10-26 15:48:27.000000
1844,-2.29,2022-10-26 15:48:27.015625
1845,-4.46,2022-10-26 15:48:27.031250
1846,-6.84,2022-10-26 15:48:27.046875
1847,-9.26,2022-10-26 15:48:27.062500
1848,-11.56,2022-10-26 15:48:27.078125
1849,-13.55,2022-10-26 15:48:27.093750
1850,-15.01,2022-10-26 15:48:27.109375
1851,-15.67,2022-10-26 15:48:27.125000
1852,-15.3,2022-10-26 15:48:27.140625
1853,-13.82,2022-10-26 15:48:27.156250
1854,-11.34,2022-10-26 15:48:27.171875
1855,-8.22,2022-10-26 15:48:27.187500
1856,-4.82,2022-10-26 15:48:27.203125
1857,-1.49,2022-10-26 15:48:27.218750
1858,1.55,2022-10-26 15:48:27.234375
1859,4.26,2022-10-26 15:48:27.250000
1860,6.65,2022-10-26 15:48:27.265625
1861,8.71,2022-10-26 15:48:27.281250
1862,10.35,2022-10-26 15:48:27.296875
1863,11.4,2022-10-26 15:48:27.312500
1864,11.63,2022-10-26 15:48:27.328125
1865,10.96,2022-10-26 15:48:27.343750
1866,9.45,2022-10-26 15:48:27.359375
1867,7.36,2022-10-26 15:48:27.375000
1868,5.1,2022-10-26 15:48:27.390625
1869,3.08,2022-10-26 15:48:27.406250
1870,1.57,2022-10-26 15:48:27.421875
1871,0.67,2022-10-26 15:48:27.437500
1872,0.32,2022-10-26 15:48:27.453125
1873,0.41,2022-10-26 15:48:27.468750
1874,0.83,2022-10-26 15:48:27.484375
1875,1.51,2022-10-26 15:48:27.500000
1876,2.35,2022-10-26 15:48:27.515625
1877,3.15,2022-10-26 15:48:27.531250
1878,3.64,2022-10-26 15:48:27.546875
1879,3.58,2022-10-26 15:48:27.562500
1880,2.87,2022-10-26 15:48:27.578125
1881,1.63,2022-10-26 15:48:27.593750
1882,0.14,2022-10-26 15:48:27.609375
1883,-1.29,2022-10-26 15:48:27.625000
1884,-2.55,2022-10-26 15:48:27.640625
1885,-3.75,2022-10-26 15:48:27.656250
1886,-5.17,2022-10-26 15:48:27.671875
1887,-7.06,2022-10-26 15:48:27.687500
1888,-9.44,2022-10-26 15:48:27.703125
1889,-12.06,2022-10-26 15:48:27.718750
1890,-14.46,2022-10-26 15:48:27.734375
1891,-16.08,2022-10-26 15:48:27.750000
1892,-16.5,2022-10-26 15:48:27.765625
1893,-15.55,2022-10-26 15:48:27.781250
1894,-13.35,2022-10-26 15:48:27.796875
1895,-10.23,2022-10-26 15:48:27.812500
1896,-6.64,2022-10-26 15:48:27.828125
1897,-2.99,2022-10-26 15:48:27.843750
1898,0.38,2022-10-26 15:48:27.859375
1899,3.3,2022-10-26 15:48:27.875000
1900,5.75,2022-10-26 15:48:27.890625
1901,7.79,2022-10-26 15:48:27.906250
1902,9.48,2022-10-26 15:48:27.921875
1903,10.81,2022-10-26 15:48:27.937500
1904,11.73,2022-10-26 15:48:27.953125
1905,12.1,2022-10-26 15:48:27.968750
1906,11.82,2022-10-26 15:48:27.984375
1907,10.91,2022-10-26 15:48:28.000000
1908,9.53,2022-10-26 15:48:28.015625
1909,7.99,2022-10-26 15:48:28.031250
1910,6.61,2022-10-26 15:48:28.046875
1911,5.62,2022-10-26 15:48:28.062500
1912,5.04,2022-10-26 15:48:28.078125
1913,4.63,2022-10-26 15:48:28.093750
1914,4.06,2022-10-26 15:48:28.109375
1915,2.91,2022-10-26 15:48:28.125000
1916,0.84,2022-10-26 15:48:28.140625
1917,-2.48,2022-10-26 15:48:28.156250
1918,-7.33,2022-10-26 15:48:28.171875
1919,-13.99,2022-10-26 15:48:28.187500
1920,-22.52,2022-10-26 15:48:28.203125
1921,-32.71,2022-10-26 15:48:28.218750
1922,-43.93,2022-10-26 15:48:28.234375
1923,-55.27,2022-10-26 15:48:28.250000
1924,-65.77,2022-10-26 15:48:28.265625
1925,-74.71,2022-10-26 15:48:28.281250
1926,-81.71,2022-10-26 15:48:28.296875
1927,-86.81,2022-10-26 15:48:28.312500
1928,-90.21,2022-10-26 15:48:28.328125
1929,-92.14,2022-10-26 15:48:28.343750
1930,-92.81,2022-10-26 15:48:28.359375
1931,-92.34,2022-10-26 15:48:28.375000
1932,-90.95,2022-10-26 15:48:28.390625
1933,-88.82,2022-10-26 15:48:28.406250
1934,-86.16,2022-10-26 15:48:28.421875
1935,-83.04,2022-10-26 15:48:28.437500
1936,-79.48,2022-10-26 15:48:28.453125
1937,-75.5,2022-10-26 15:48:28.468750
1938,-71.27,2022-10-26 15:48:28.484375
1939,-67.04,2022-10-26 15:48:28.500000
1940,-63.08,2022-10-26 15:48:28.515625
1941,-59.34,2022-10-26 15:48:28.531250
1942,-55.28,2022-10-26 15:48:28.546875
1943,-49.89,2022-10-26 15:48:28.562500
1944,-41.88,2022-10-26 15:48:28.578125
1945,-30.19,2022-10-26 15:48:28.593750
1946,-14.33,2022-10-26 15:48:28.609375
1947,5.37,2022-10-26 15:48:28.625000
1948,27.86,2022-10-26 15:48:28.640625
1949,51.66,2022-10-26 15:48:28.656250
1950,75.19,2022-10-26 15:48:28.671875
1951,97.07,2022-10-26 15:48:28.687500
1952,116.27,2022-10-26 15:48:28.703125
1953,132.15,2022-10-26 15:48:28.718750
1954,144.34,2022-10-26 15:48:28.734375
1955,152.76,2022-10-26 15:48:28.750000
1956,157.56,2022-10-26 15:48:28.765625
1957,159.08,2022-10-26 15:48:28.781250
1958,157.86,2022-10-26 15:48:28.796875
1959,154.53,2022-10-26 15:48:28.812500
1960,149.65,2022-10-26 15:48:28.828125
1961,143.6,2022-10-26 15:48:28.843750
1962,136.52,2022-10-26 15:48:28.859375
1963,128.3,2022-10-26 15:48:28.875000
1964,118.66,2022-10-26 15:48:28.890625
1965,107.44,2022-10-26 15:48:28.906250
1966,94.61,2022-10-26 15:48:28.921875
1967,80.56,2022-10-26 15:48:28.937500
1968,65.99,2022-10-26 15:48:28.953125
1969,51.89,2022-10-26 15:48:28.968750
1970,39.26,2022-10-26 15:48:28.984375
1971,28.94,2022-10-26 15:48:29.000000
1972,21.36,2022-10-26 15:48:29.015625
1973,16.46,2022-10-26 15:48:29.031250
1974,13.61,2022-10-26 15:48:29.046875
1975,11.71,2022-10-26 15:48:29.062500
1976,9.53,2022-10-26 15:48:29.078125
1977,5.95,2022-10-26 15:48:29.093750
1978,0.45,2022-10-26 15:48:29.109375
1979,-6.79,2022-10-26 15:48:29.125000
1980,-14.96,2022-10-26 15:48:29.140625
1981,-22.9,2022-10-26 15:48:29.156250
1982,-29.57,2022-10-26 15:48:29.171875
1983,-34.33,2022-10-26 15:48:29.187500
1984,-37.05,2022-10-26 15:48:29.203125
1985,-37.98,2022-10-26 15:48:29.218750
1986,-37.53,2022-10-26 15:48:29.234375
1987,-36.04,2022-10-26 15:48:29.250000
1988,-33.81,2022-10-26 15:48:29.265625
1989,-31.04,2022-10-26 15:48:29.281250
1990,-28.01,2022-10-26 15:48:29.296875
1991,-25.02,2022-10-26 15:48:29.312500
1992,-22.31,2022-10-26 15:48:29.328125
1993,-19.99,2022-10-26 15:48:29.343750
1994,-17.98,2022-10-26 15:48:29.359375
1995,-16.01,2022-10-26 15:48:29.375000
1996,-13.81,2022-10-26 15:48:29.390625
1997,-11.2,2022-10-26 15:48:29.406250
1998,-8.19,2022-10-26 15:48:29.421875
1999,-5.07,2022-10-26 15:48:29.437500
2000,-2.28,2022-10-26 15:48:29.453125
2001,-0.29,2022-10-26 15:48:29.468750
2002,0.59,2022-10-26 15:48:29.484375
2003,0.34,2022-10-26 15:48:29.500000
2004,-0.8,2022-10-26 15:48:29.515625
2005,-2.43,2022-10-26 15:48:29.531250
2006,-4.17,2022-10-26 15:48:29.546875
2007,-5.8,2022-10-26 15:48:29.562500
2008,-7.32,2022-10-26 15:48:29.578125
2009,-8.87,2022-10-26 15:48:29.593750
2010,-10.56,2022-10-26 15:48:29.609375
2011,-12.45,2022-10-26 15:48:29.625000
2012,-14.47,2022-10-26 15:48:29.640625
2013,-16.57,2022-10-26 15:48:29.656250
2014,-18.68,2022-10-26 15:48:29.671875
2015,-20.79,2022-10-26 15:48:29.687500
2016,-22.77,2022-10-26 15:48:29.703125
2017,-24.32,2022-10-26 15:48:29.718750
2018,-25.02,2022-10-26 15:48:29.734375
2019,-24.38,2022-10-26 15:48:29.750000
2020,-22.14,2022-10-26 15:48:29.765625
2021,-18.36,2022-10-26 15:48:29.781250
2022,-13.56,2022-10-26 15:48:29.796875
2023,-8.47,2022-10-26 15:48:29.812500
2024,-3.82,2022-10-26 15:48:29.828125
2025,-0.1,2022-10-26 15:48:29.843750
2026,2.52,2022-10-26 15:48:29.859375
2027,4.16,2022-10-26 15:48:29.875000
2028,5.03,2022-10-26 15:48:29.890625
2029,5.36,2022-10-26 15:48:29.906250
2030,5.24,2022-10-26 15:48:29.921875
2031,4.73,2022-10-26 15:48:29.937500
2032,3.88,2022-10-26 15:48:29.953125
2033,2.8,2022-10-26 15:48:29.968750
2034,1.65,2022-10-26 15:48:29.984375
2035,0.63,2022-10-26 15:48:30.000000
2036,-0.07,2022-10-26 15:48:30.015625
2037,-0.36,2022-10-26 15:48:30.031250
2038,-0.24,2022-10-26 15:48:30.046875
2039,0.27,2022-10-26 15:48:30.062500
2040,1.13,2022-10-26 15:48:30.078125
2041,2.29,2022-10-26 15:48:30.093750
2042,3.68,2022-10-26 15:48:30.109375
2043,5.18,2022-10-26 15:48:30.125000
2044,6.65,2022-10-26 15:48:30.140625
2045,7.91,2022-10-26 15:48:30.156250
2046,8.78,2022-10-26 15:48:30.171875
2047,9.11,2022-10-26 15:48:30.187500
2048,8.83,2022-10-26 15:48:30.203125
2049,7.95,2022-10-26 15:48:30.218750
2050,6.57,2022-10-26 15:48:30.234375
2051,4.79,2022-10-26 15:48:30.250000
2052,2.73,2022-10-26 15:48:30.265625
2053,0.5,2022-10-26 15:48:30.281250
2054,-1.83,2022-10-26 15:48:30.296875
2055,-4.21,2022-10-26 15:48:30.312500
2056,-6.63,2022-10-26 15:48:30.328125
2057,-9.1,2022-10-26 15:48:30.343750
2058,-11.67,2022-10-26 15:48:30.359375
2059,-14.28,2022-10-26 15:48:30.375000
2060,-16.84,2022-10-26 15:48:30.390625
2061,-19.11,2022-10-26 15:48:30.406250
2062,-20.73,2022-10-26 15:48:30.421875
2063,-21.34,2022-10-26 15:48:30.437500
2064,-20.63,2022-10-26 15:48:30.453125
2065,-18.51,2022-10-26 15:48:30.468750
2066,-15.06,2022-10-26 15:48:30.484375
2067,-10.6,2022-10-26 15:48:30.500000
2068,-5.52,2022-10-26 15:48:30.515625
2069,-0.24,2022-10-26 15:48:30.531250
2070,4.91,2022-10-26 15:48:30.546875
2071,9.64,2022-10-26 15:48:30.562500
2072,13.71,2022-10-26 15:48:30.578125
2073,16.98,2022-10-26 15:48:30.593750
2074,19.34,2022-10-26 15:48:30.609375
2075,20.75,2022-10-26 15:48:30.625000
2076,21.22,2022-10-26 15:48:30.640625
2077,20.84,2022-10-26 15:48:30.656250
2078,19.74,2022-10-26 15:48:30.671875
2079,18.11,2022-10-26 15:48:30.687500
2080,16.21,2022-10-26 15:48:30.703125
2081,14.36,2022-10-26 15:48:30.718750
2082,12.89,2022-10-26 15:48:30.734375
2083,12.0,2022-10-26 15:48:30.750000
2084,11.68,2022-10-26 15:48:30.765625
2085,11.73,2022-10-26 15:48:30.781250
2086,11.74,2022-10-26 15:48:30.796875
2087,11.35,2022-10-26 15:48:30.812500
2088,10.33,2022-10-26 15:48:30.828125
2089,8.69,2022-10-26 15:48:30.843750
2090,6.66,2022-10-26 15:48:30.859375
2091,4.61,2022-10-26 15:48:30.875000
2092,2.91,2022-10-26 15:48:30.890625
2093,1.78,2022-10-26 15:48:30.906250
2094,1.21,2022-10-26 15:48:30.921875
2095,0.99,2022-10-26 15:48:30.937500
2096,0.78,2022-10-26 15:48:30.953125
2097,0.29,2022-10-26 15:48:30.968750
2098,-0.6,2022-10-26 15:48:30.984375
2099,-1.83,2022-10-26 15:48:31.000000
2100,-3.18,2022-10-26 15:48:31.015625
2101,-4.44,2022-10-26 15:48:31.031250
2102,-5.47,2022-10-26 15:48:31.046875
2103,-6.31,2022-10-26 15:48:31.062500
2104,-7.16,2022-10-26 15:48:31.078125
2105,-8.26,2022-10-26 15:48:31.093750
2106,-9.72,2022-10-26 15:48:31.109375
2107,-11.58,2022-10-26 15:48:31.125000
2108,-13.76,2022-10-26 15:48:31.140625
2109,-16.11,2022-10-26 15:48:31.156250
2110,-18.42,2022-10-26 15:48:31.171875
2111,-20.42,2022-10-26 15:48:31.187500
2112,-21.72,2022-10-26 15:48:31.203125
2113,-21.94,2022-10-26 15:48:31.218750
2114,-20.78,2022-10-26 15:48:31.234375
2115,-18.16,2022-10-26 15:48:31.250000
2116,-14.25,2022-10-26 15:48:31.265625
2117,-9.49,2022-10-26 15:48:31.281250
2118,-4.39,2022-10-26 15:48:31.296875
2119,0.53,2022-10-26 15:48:31.312500
2120,4.94,2022-10-26 15:48:31.328125
2121,8.63,2022-10-26 15:48:31.343750
2122,11.6,2022-10-26 15:48:31.359375
2123,13.85,2022-10-26 15:48:31.375000
2124,15.42,2022-10-26 15:48:31.390625
2125,16.28,2022-10-26 15:48:31.406250
2126,16.4,2022-10-26 15:48:31.421875
2127,15.8,2022-10-26 15:48:31.437500
2128,14.61,2022-10-26 15:48:31.453125
2129,13.15,2022-10-26 15:48:31.468750
2130,11.85,2022-10-26 15:48:31.484375
2131,11.1,2022-10-26 15:48:31.500000
2132,11.1,2022-10-26 15:48:31.515625
2133,11.76,2022-10-26 15:48:31.531250
2134,12.76,2022-10-26 15:48:31.546875
2135,13.63,2022-10-26 15:48:31.562500
2136,13.99,2022-10-26 15:48:31.578125
2137,13.65,2022-10-26 15:48:31.593750
2138,12.66,2022-10-26 15:48:31.609375
2139,11.18,2022-10-26 15:48:31.625000
2140,9.43,2022-10-26 15:48:31.640625
2141,7.53,2022-10-26 15:48:31.656250
2142,5.56,2022-10-26 15:48:31.671875
2143,3.55,2022-10-26 15:48:31.687500
2144,1.58,2022-10-26 15:48:31.703125
2145,-0.23,2022-10-26 15:48:31.718750
2146,-1.76,2022-10-26 15:48:31.734375
2147,-2.94,2022-10-26 15:48:31.750000
2148,-3.84,2022-10-26 15:48:31.765625
2149,-4.66,2022-10-26 15:48:31.781250
2150,-5.6,2022-10-26 15:48:31.796875
2151,-6.77,2022-10-26 15:48:31.812500
2152,-8.11,2022-10-26 15:48:31.828125
2153,-9.41,2022-10-26 15:48:31.843750
2154,-10.45,2022-10-26 15:48:31.859375
2155,-11.18,2022-10-26 15:48:31.875000
2156,-11.74,2022-10-26 15:48:31.890625
2157,-12.39,2022-10-26 15:48:31.906250
2158,-13.39,2022-10-26 15:48:31.921875
2159,-14.79,2022-10-26 15:48:31.937500
2160,-16.37,2022-10-26 15:48:31.953125
2161,-17.67,2022-10-26 15:48:31.968750
2162,-18.24,2022-10-26 15:48:31.984375
2163,-17.76,2022-10-26 15:48:32.000000
2164,-16.2,2022-10-26 15:48:32.015625
2165,-13.77,2022-10-26 15:48:32.031250
2166,-10.81,2022-10-26 15:48:32.046875
2167,-7.61,2022-10-26 15:48:32.062500
2168,-4.39,2022-10-26 15:48:32.078125
2169,-1.27,2022-10-26 15:48:32.093750
2170,1.64,2022-10-26 15:48:32.109375
2171,4.21,2022-10-26 15:48:32.125000
2172,6.34,2022-10-26 15:48:32.140625
2173,7.9,2022-10-26 15:48:32.156250
2174,8.86,2022-10-26 15:48:32.171875
2175,9.21,2022-10-26 15:48:32.187500
2176,9.05,2022-10-26 15:48:32.203125
2177,8.51,2022-10-26 15:48:32.218750
2178,7.81,2022-10-26 15:48:32.234375
2179,7.19,2022-10-26 15:48:32.250000
2180,6.85,2022-10-26 15:48:32.265625
2181,6.88,2022-10-26 15:48:32.281250
2182,7.23,2022-10-26 15:48:32.296875
2183,7.71,2022-10-26 15:48:32.312500
2184,8.11,2022-10-26 15:48:32.328125
2185,8.33,2022-10-26 15:48:32.343750
2186,8.46,2022-10-26 15:48:32.359375
2187,8.66,2022-10-26 15:48:32.375000
2188,9.09,2022-10-26 15:48:32.390625
2189,9.67,2022-10-26 15:48:32.406250
2190,10.15,2022-10-26 15:48:32.421875
2191,10.2,2022-10-26 15:48:32.437500
2192,9.61,2022-10-26 15:48:32.453125
2193,8.48,2022-10-26 15:48:32.468750
2194,7.14,2022-10-26 15:48:32.484375
2195,6.02,2022-10-26 15:48:32.500000
2196,5.42,2022-10-26 15:48:32.515625
2197,5.31,2022-10-26 15:48:32.531250
2198,5.33,2022-10-26 15:48:32.546875
2199,4.95,2022-10-26 15:48:32.562500
2200,3.69,2022-10-26 15:48:32.578125
2201,1.28,2022-10-26 15:48:32.593750
2202,-2.23,2022-10-26 15:48:32.609375
2203,-6.49,2022-10-26 15:48:32.625000
2204,-10.99,2022-10-26 15:48:32.640625
2205,-15.21,2022-10-26 15:48:32.656250
2206,-18.7,2022-10-26 15:48:32.671875
2207,-21.16,2022-10-26 15:48:32.687500
2208,-22.35,2022-10-26 15:48:32.703125
2209,-22.18,2022-10-26 15:48:32.718750
2210,-20.67,2022-10-26 15:48:32.734375
2211,-17.92,2022-10-26 15:48:32.750000
2212,-14.22,2022-10-26 15:48:32.765625
2213,-9.95,2022-10-26 15:48:32.781250
2214,-5.58,2022-10-26 15:48:32.796875
2215,-1.51,2022-10-26 15:48:32.812500
2216,1.96,2022-10-26 15:48:32.828125
2217,4.76,2022-10-26 15:48:32.843750
2218,6.96,2022-10-26 15:48:32.859375
2219,8.64,2022-10-26 15:48:32.875000
2220,9.92,2022-10-26 15:48:32.890625
2221,10.75,2022-10-26 15:48:32.906250
2222,11.07,2022-10-26 15:48:32.921875
2223,10.83,2022-10-26 15:48:32.937500
2224,10.11,2022-10-26 15:48:32.953125
2225,9.15,2022-10-26 15:48:32.968750
2226,8.22,2022-10-26 15:48:32.984375
2227,7.55,2022-10-26 15:48:33.000000
2228,7.24,2022-10-26 15:48:33.015625
2229,7.27,2022-10-26 15:48:33.031250
2230,7.53,2022-10-26 15:48:33.046875
2231,7.89,2022-10-26 15:48:33.062500
2232,8.29,2022-10-26 15:48:33.078125
2233,8.69,2022-10-26 15:48:33.093750
2234,9.04,2022-10-26 15:48:33.109375
2235,9.3,2022-10-26 15:48:33.125000
2236,9.35,2022-10-26 15:48:33.140625
2237,9.08,2022-10-26 15:48:33.156250
2238,8.36,2022-10-26 15:48:33.171875
2239,7.14,2022-10-26 15:48:33.187500
2240,5.47,2022-10-26 15:48:33.203125
2241,3.47,2022-10-26 15:48:33.218750
2242,1.29,2022-10-26 15:48:33.234375
2243,-0.93,2022-10-26 15:48:33.250000
2244,-3.14,2022-10-26 15:48:33.265625
2245,-5.36,2022-10-26 15:48:33.281250
2246,-7.73,2022-10-26 15:48:33.296875
2247,-10.3,2022-10-26 15:48:33.312500
2248,-13.0,2022-10-26 15:48:33.328125
2249,-15.55,2022-10-26 15:48:33.343750
2250,-17.52,2022-10-26 15:48:33.359375
2251,-18.48,2022-10-26 15:48:33.375000
2252,-18.16,2022-10-26 15:48:33.390625
2253,-16.58,2022-10-26 15:48:33.406250
2254,-13.97,2022-10-26 15:48:33.421875
2255,-10.68,2022-10-26 15:48:33.437500
2256,-7.0,2022-10-26 15:48:33.453125
2257,-3.14,2022-10-26 15:48:33.468750
2258,0.73,2022-10-26 15:48:33.484375
2259,4.36,2022-10-26 15:48:33.500000
2260,7.42,2022-10-26 15:48:33.515625
2261,9.52,2022-10-26 15:48:33.531250
2262,10.37,2022-10-26 15:48:33.546875
2263,9.98,2022-10-26 15:48:33.562500
2264,8.65,2022-10-26 15:48:33.578125
2265,6.88,2022-10-26 15:48:33.593750
2266,5.18,2022-10-26 15:48:33.609375
2267,3.94,2022-10-26 15:48:33.625000
2268,3.27,2022-10-26 15:48:33.640625
2269,3.06,2022-10-26 15:48:33.656250
2270,3.06,2022-10-26 15:48:33.671875
2271,3.01,2022-10-26 15:48:33.687500
2272,2.73,2022-10-26 15:48:33.703125
2273,2.21,2022-10-26 15:48:33.718750
2274,1.56,2022-10-26 15:48:33.734375
2275,0.98,2022-10-26 15:48:33.750000
2276,0.68,2022-10-26 15:48:33.765625
2277,0.74,2022-10-26 15:48:33.781250
2278,1.13,2022-10-26 15:48:33.796875
2279,1.6,2022-10-26 15:48:33.812500
2280,1.87,2022-10-26 15:48:33.828125
2281,1.66,2022-10-26 15:48:33.843750
2282,0.9,2022-10-26 15:48:33.859375
2283,-0.32,2022-10-26 15:48:33.875000
2284,-1.74,2022-10-26 15:48:33.890625
2285,-3.1,2022-10-26 15:48:33.906250
2286,-4.2,2022-10-26 15:48:33.921875
2287,-5.07,2022-10-26 15:48:33.937500
2288,-5.86,2022-10-26 15:48:33.953125
2289,-6.77,2022-10-26 15:48:33.968750
2290,-7.98,2022-10-26 15:48:33.984375
2291,-9.46,2022-10-26 15:48:34.000000
2292,-11.04,2022-10-26 15:48:34.015625
2293,-12.38,2022-10-26 15:48:34.031250
2294,-13.09,2022-10-26 15:48:34.046875
2295,-12.85,2022-10-26 15:48:34.062500
2296,-11.42,2022-10-26 15:48:34.078125
2297,-8.8,2022-10-26 15:48:34.093750
2298,-5.16,2022-10-26 15:48:34.109375
2299,-0.88,2022-10-26 15:48:34.125000
2300,3.61,2022-10-26 15:48:34.140625
2301,7.85,2022-10-26 15:48:34.156250
2302,11.47,2022-10-26 15:48:34.171875
2303,14.23,2022-10-26 15:48:34.187500
2304,16.03,2022-10-26 15:48:34.203125
2305,16.84,2022-10-26 15:48:34.218750
2306,16.69,2022-10-26 15:48:34.234375
2307,15.59,2022-10-26 15:48:34.250000
2308,13.65,2022-10-26 15:48:34.265625
2309,11.05,2022-10-26 15:48:34.281250
2310,8.15,2022-10-26 15:48:34.296875
2311,5.39,2022-10-26 15:48:34.312500
2312,3.2,2022-10-26 15:48:34.328125
2313,1.84,2022-10-26 15:48:34.343750
2314,1.33,2022-10-26 15:48:34.359375
2315,1.43,2022-10-26 15:48:34.375000
2316,1.82,2022-10-26 15:48:34.390625
2317,2.26,2022-10-26 15:48:34.406250
2318,2.67,2022-10-26 15:48:34.421875
2319,3.05,2022-10-26 15:48:34.437500
2320,3.46,2022-10-26 15:48:34.453125
2321,3.86,2022-10-26 15:48:34.468750
2322,4.09,2022-10-26 15:48:34.484375
2323,3.97,2022-10-26 15:48:34.500000
2324,3.39,2022-10-26 15:48:34.515625
2325,2.4,2022-10-26 15:48:34.531250
2326,1.1,2022-10-26 15:48:34.546875
2327,-0.35,2022-10-26 15:48:34.562500
2328,-1.87,2022-10-26 15:48:34.578125
2329,-3.45,2022-10-26 15:48:34.593750
2330,-5.02,2022-10-26 15:48:34.609375
2331,-6.55,2022-10-26 15:48:34.625000
2332,-7.94,2022-10-26 15:48:34.640625
2333,-9.23,2022-10-26 15:48:34.656250
2334,-10.54,2022-10-26 15:48:34.671875
2335,-12.08,2022-10-26 15:48:34.687500
2336,-13.96,2022-10-26 15:48:34.703125
2337,-16.03,2022-10-26 15:48:34.718750
2338,-17.89,2022-10-26 15:48:34.734375
2339,-18.97,2022-10-26 15:48:34.750000
2340,-18.82,2022-10-26 15:48:34.765625
2341,-17.29,2022-10-26 15:48:34.781250
2342,-14.6,2022-10-26 15:48:34.796875
2343,-11.19,2022-10-26 15:48:34.812500
2344,-7.57,2022-10-26 15:48:34.828125
2345,-4.05,2022-10-26 15:48:34.843750
2346,-0.77,2022-10-26 15:48:34.859375
2347,2.28,2022-10-26 15:48:34.875000
2348,5.1,2022-10-26 15:48:34.890625
2349,7.61,2022-10-26 15:48:34.906250
2350,9.66,2022-10-26 15:48:34.921875
2351,11.07,2022-10-26 15:48:34.937500
2352,11.78,2022-10-26 15:48:34.953125
2353,11.85,2022-10-26 15:48:34.968750
2354,11.47,2022-10-26 15:48:34.984375
2355,10.82,2022-10-26 15:48:35.000000
2356,10.01,2022-10-26 15:48:35.015625
2357,9.04,2022-10-26 15:48:35.031250
2358,7.85,2022-10-26 15:48:35.046875
2359,6.44,2022-10-26 15:48:35.062500
2360,4.93,2022-10-26 15:48:35.078125
2361,3.54,2022-10-26 15:48:35.093750
2362,2.55,2022-10-26 15:48:35.109375
2363,2.14,2022-10-26 15:48:35.125000
2364,2.33,2022-10-26 15:48:35.140625
2365,2.98,2022-10-26 15:48:35.156250
2366,3.83,2022-10-26 15:48:35.171875
2367,4.62,2022-10-26 15:48:35.187500
2368,5.13,2022-10-26 15:48:35.203125
2369,5.23,2022-10-26 15:48:35.218750
2370,4.85,2022-10-26 15:48:35.234375
2371,3.98,2022-10-26 15:48:35.250000
2372,2.67,2022-10-26 15:48:35.265625
2373,1.04,2022-10-26 15:48:35.281250
2374,-0.75,2022-10-26 15:48:35.296875
2375,-2.54,2022-10-26 15:48:35.312500
2376,-4.26,2022-10-26 15:48:35.328125
2377,-5.97,2022-10-26 15:48:35.343750
2378,-7.83,2022-10-26 15:48:35.359375
2379,-10.03,2022-10-26 15:48:35.375000
2380,-12.67,2022-10-26 15:48:35.390625
2381,-15.67,2022-10-26 15:48:35.406250
2382,-18.73,2022-10-26 15:48:35.421875
2383,-21.42,2022-10-26 15:48:35.437500
2384,-23.26,2022-10-26 15:48:35.453125
2385,-23.84,2022-10-26 15:48:35.468750
2386,-22.89,2022-10-26 15:48:35.484375
2387,-20.35,2022-10-26 15:48:35.500000
2388,-16.37,2022-10-26 15:48:35.515625
2389,-11.28,2022-10-26 15:48:35.531250
2390,-5.54,2022-10-26 15:48:35.546875
2391,0.34,2022-10-26 15:48:35.562500
2392,5.89,2022-10-26 15:48:35.578125
2393,10.75,2022-10-26 15:48:35.593750
2394,14.7,2022-10-26 15:48:35.609375
2395,17.66,2022-10-26 15:48:35.625000
2396,19.68,2022-10-26 15:48:35.640625
2397,20.79,2022-10-26 15:48:35.656250
2398,21.02,2022-10-26 15:48:35.671875
2399,20.41,2022-10-26 15:48:35.687500
2400,19.02,2022-10-26 15:48:35.703125
2401,17.04,2022-10-26 15:48:35.718750
2402,14.78,2022-10-26 15:48:35.734375
2403,12.57,2022-10-26 15:48:35.750000
2404,10.7,2022-10-26 15:48:35.765625
2405,9.27,2022-10-26 15:48:35.781250
2406,8.21,2022-10-26 15:48:35.796875
2407,7.41,2022-10-26 15:48:35.812500
2408,6.75,2022-10-26 15:48:35.828125
2409,6.25,2022-10-26 15:48:35.843750
2410,5.99,2022-10-26 15:48:35.859375
2411,6.04,2022-10-26 15:48:35.875000
2412,6.34,2022-10-26 15:48:35.890625
2413,6.68,2022-10-26 15:48:35.906250
2414,6.76,2022-10-26 15:48:35.921875
2415,6.35,2022-10-26 15:48:35.937500
2416,5.34,2022-10-26 15:48:35.953125
2417,3.78,2022-10-26 15:48:35.968750
2418,1.84,2022-10-26 15:48:35.984375
2419,-0.31,2022-10-26 15:48:36.000000
2420,-2.49,2022-10-26 15:48:36.015625
2421,-4.56,2022-10-26 15:48:36.031250
2422,-6.39,2022-10-26 15:48:36.046875
2423,-7.92,2022-10-26 15:48:36.062500
2424,-9.12,2022-10-26 15:48:36.078125
2425,-10.06,2022-10-26 15:48:36.093750
2426,-10.97,2022-10-26 15:48:36.109375
2427,-12.12,2022-10-26 15:48:36.125000
2428,-13.7,2022-10-26 15:48:36.140625
2429,-15.74,2022-10-26 15:48:36.156250
2430,-17.97,2022-10-26 15:48:36.171875
2431,-19.93,2022-10-26 15:48:36.187500
2432,-21.03,2022-10-26 15:48:36.203125
2433,-20.81,2022-10-26 15:48:36.218750
2434,-19.07,2022-10-26 15:48:36.234375
2435,-15.92,2022-10-26 15:48:36.250000
2436,-11.7,2022-10-26 15:48:36.265625
2437,-6.91,2022-10-26 15:48:36.281250
2438,-2.03,2022-10-26 15:48:36.296875
2439,2.52,2022-10-26 15:48:36.312500
2440,6.48,2022-10-26 15:48:36.328125
2441,9.68,2022-10-26 15:48:36.343750
2442,12.03,2022-10-26 15:48:36.359375
2443,13.51,2022-10-26 15:48:36.375000
2444,14.13,2022-10-26 15:48:36.390625
2445,13.96,2022-10-26 15:48:36.406250
2446,13.11,2022-10-26 15:48:36.421875
2447,11.78,2022-10-26 15:48:36.437500
2448,10.29,2022-10-26 15:48:36.453125
2449,8.92,2022-10-26 15:48:36.468750
2450,7.92,2022-10-26 15:48:36.484375
2451,7.36,2022-10-26 15:48:36.500000
2452,7.18,2022-10-26 15:48:36.515625
2453,7.2,2022-10-26 15:48:36.531250
2454,7.26,2022-10-26 15:48:36.546875
2455,7.29,2022-10-26 15:48:36.562500
2456,7.35,2022-10-26 15:48:36.578125
2457,7.56,2022-10-26 15:48:36.593750
2458,8.01,2022-10-26 15:48:36.609375
2459,8.62,2022-10-26 15:48:36.625000
2460,9.18,2022-10-26 15:48:36.640625
2461,9.35,2022-10-26 15:48:36.656250
2462,8.9,2022-10-26 15:48:36.671875
2463,7.7,2022-10-26 15:48:36.687500
2464,5.76,2022-10-26 15:48:36.703125
2465,3.27,2022-10-26 15:48:36.718750
2466,0.45,2022-10-26 15:48:36.734375
2467,-2.48,2022-10-26 15:48:36.750000
2468,-5.31,2022-10-26 15:48:36.765625
2469,-7.91,2022-10-26 15:48:36.781250
2470,-10.22,2022-10-26 15:48:36.796875
2471,-12.27,2022-10-26 15:48:36.812500
2472,-14.12,2022-10-26 15:48:36.828125
2473,-15.9,2022-10-26 15:48:36.843750
2474,-17.67,2022-10-26 15:48:36.859375
2475,-19.39,2022-10-26 15:48:36.875000
2476,-20.89,2022-10-26 15:48:36.890625
2477,-21.88,2022-10-26 15:48:36.906250
2478,-22.03,2022-10-26 15:48:36.921875
2479,-21.06,2022-10-26 15:48:36.937500
2480,-18.9,2022-10-26 15:48:36.953125
2481,-15.64,2022-10-26 15:48:36.968750
2482,-11.59,2022-10-26 15:48:36.984375
2483,-7.1,2022-10-26 15:48:37.000000
2484,-2.54,2022-10-26 15:48:37.015625
2485,1.75,2022-10-26 15:48:37.031250
2486,5.53,2022-10-26 15:48:37.046875
2487,8.58,2022-10-26 15:48:37.062500
2488,10.75,2022-10-26 15:48:37.078125
2489,11.9,2022-10-26 15:48:37.093750
2490,12.01,2022-10-26 15:48:37.109375
2491,11.23,2022-10-26 15:48:37.125000
2492,9.88,2022-10-26 15:48:37.140625
2493,8.32,2022-10-26 15:48:37.156250
2494,6.92,2022-10-26 15:48:37.171875
2495,5.88,2022-10-26 15:48:37.187500
2496,5.16,2022-10-26 15:48:37.203125
2497,4.63,2022-10-26 15:48:37.218750
2498,4.12,2022-10-26 15:48:37.234375
2499,3.61,2022-10-26 15:48:37.250000
2500,3.18,2022-10-26 15:48:37.265625
2501,2.99,2022-10-26 15:48:37.281250
2502,3.17,2022-10-26 15:48:37.296875
2503,3.67,2022-10-26 15:48:37.312500
2504,4.3,2022-10-26 15:48:37.328125
2505,4.81,2022-10-26 15:48:37.343750
2506,4.97,2022-10-26 15:48:37.359375
2507,4.7,2022-10-26 15:48:37.375000
2508,4.03,2022-10-26 15:48:37.390625
2509,3.07,2022-10-26 15:48:37.406250
2510,1.92,2022-10-26 15:48:37.421875
2511,0.69,2022-10-26 15:48:37.437500
2512,-0.6,2022-10-26 15:48:37.453125
2513,-1.98,2022-10-26 15:48:37.468750
2514,-3.49,2022-10-26 15:48:37.484375
2515,-5.18,2022-10-26 15:48:37.500000
2516,-7.13,2022-10-26 15:48:37.515625
2517,-9.39,2022-10-26 15:48:37.531250
2518,-11.99,2022-10-26 15:48:37.546875
2519,-14.87,2022-10-26 15:48:37.562500
2520,-17.84,2022-10-26 15:48:37.578125
2521,-20.56,2022-10-26 15:48:37.593750
2522,-22.6,2022-10-26 15:48:37.609375
2523,-23.54,2022-10-26 15:48:37.625000
2524,-23.05,2022-10-26 15:48:37.640625
2525,-21.07,2022-10-26 15:48:37.656250
2526,-17.76,2022-10-26 15:48:37.671875
2527,-13.53,2022-10-26 15:48:37.687500
2528,-8.93,2022-10-26 15:48:37.703125
2529,-4.48,2022-10-26 15:48:37.718750
2530,-0.59,2022-10-26 15:48:37.734375
2531,2.52,2022-10-26 15:48:37.750000
2532,4.84,2022-10-26 15:48:37.765625
2533,6.43,2022-10-26 15:48:37.781250
2534,7.42,2022-10-26 15:48:37.796875
2535,7.89,2022-10-26 15:48:37.812500
2536,7.93,2022-10-26 15:48:37.828125
2537,7.63,2022-10-26 15:48:37.843750
2538,7.17,2022-10-26 15:48:37.859375
2539,6.75,2022-10-26 15:48:37.875000
2540,6.53,2022-10-26 15:48:37.890625
2541,6.61,2022-10-26 15:48:37.906250
2542,6.93,2022-10-26 15:48:37.921875
2543,7.36,2022-10-26 15:48:37.937500
2544,7.78,2022-10-26 15:48:37.953125
2545,8.15,2022-10-26 15:48:37.968750
2546,8.51,2022-10-26 15:48:37.984375
2547,8.97,2022-10-26 15:48:38.000000
2548,9.52,2022-10-26 15:48:38.015625
2549,10.01,2022-10-26 15:48:38.031250
2550,10.2,2022-10-26 15:48:38.046875
2551,9.82,2022-10-26 15:48:38.062500
2552,8.71,2022-10-26 15:48:38.078125
2553,6.93,2022-10-26 15:48:38.093750
2554,4.73,2022-10-26 15:48:38.109375
2555,2.42,2022-10-26 15:48:38.125000
2556,0.31,2022-10-26 15:48:38.140625
2557,-1.45,2022-10-26 15:48:38.156250
2558,-2.91,2022-10-26 15:48:38.171875
2559,-4.24,2022-10-26 15:48:38.187500
2560,-5.76,2022-10-26 15:48:38.203125
2561,-7.72,2022-10-26 15:48:38.218750
2562,-10.25,2022-10-26 15:48:38.234375
2563,-13.28,2022-10-26 15:48:38.250000
2564,-16.48,2022-10-26 15:48:38.265625
2565,-19.39,2022-10-26 15:48:38.281250
2566,-21.5,2022-10-26 15:48:38.296875
2567,-22.45,2022-10-26 15:48:38.312500
2568,-22.01,2022-10-26 15:48:38.328125
2569,-20.23,2022-10-26 15:48:38.343750
2570,-17.3,2022-10-26 15:48:38.359375
2571,-13.47,2022-10-26 15:48:38.375000
2572,-9.06,2022-10-26 15:48:38.390625
2573,-4.37,2022-10-26 15:48:38.406250
2574,0.24,2022-10-26 15:48:38.421875
2575,4.49,2022-10-26 15:48:38.437500
2576,8.07,2022-10-26 15:48:38.453125
2577,10.81,2022-10-26 15:48:38.468750
2578,12.67,2022-10-26 15:48:38.484375
2579,13.67,2022-10-26 15:48:38.500000
2580,13.92,2022-10-26 15:48:38.515625
2581,13.55,2022-10-26 15:48:38.531250
2582,12.69,2022-10-26 15:48:38.546875
2583,11.48,2022-10-26 15:48:38.562500
2584,10.1,2022-10-26 15:48:38.578125
2585,8.74,2022-10-26 15:48:38.593750
2586,7.53,2022-10-26 15:48:38.609375
2587,6.57,2022-10-26 15:48:38.625000
2588,5.85,2022-10-26 15:48:38.640625
2589,5.35,2022-10-26 15:48:38.656250
2590,5.01,2022-10-26 15:48:38.671875
2591,4.86,2022-10-26 15:48:38.687500
2592,4.92,2022-10-26 15:48:38.703125
2593,5.24,2022-10-26 15:48:38.718750
2594,5.75,2022-10-26 15:48:38.734375
2595,6.29,2022-10-26 15:48:38.750000
2596,6.59,2022-10-26 15:48:38.765625
2597,6.35,2022-10-26 15:48:38.781250
2598,5.42,2022-10-26 15:48:38.796875
2599,3.78,2022-10-26 15:48:38.812500
2600,1.65,2022-10-26 15:48:38.828125
2601,-0.66,2022-10-26 15:48:38.843750
2602,-2.84,2022-10-26 15:48:38.859375
2603,-4.71,2022-10-26 15:48:38.875000
2604,-6.28,2022-10-26 15:48:38.890625
2605,-7.66,2022-10-26 15:48:38.906250
2606,-9.03,2022-10-26 15:48:38.921875
2607,-10.53,2022-10-26 15:48:38.937500
2608,-12.23,2022-10-26 15:48:38.953125
2609,-14.06,2022-10-26 15:48:38.968750
2610,-15.88,2022-10-26 15:48:38.984375
2611,-17.4,2022-10-26 15:48:39.000000
2612,-18.3,2022-10-26 15:48:39.015625
2613,-18.22,2022-10-26 15:48:39.031250
2614,-16.91,2022-10-26 15:48:39.046875
2615,-14.37,2022-10-26 15:48:39.062500
2616,-10.79,2022-10-26 15:48:39.078125
2617,-6.58,2022-10-26 15:48:39.093750
2618,-2.17,2022-10-26 15:48:39.109375
2619,2.06,2022-10-26 15:48:39.125000
2620,5.92,2022-10-26 15:48:39.140625
2621,9.36,2022-10-26 15:48:39.156250
2622,12.36,2022-10-26 15:48:39.171875
2623,14.91,2022-10-26 15:48:39.187500
2624,16.84,2022-10-26 15:48:39.203125
2625,18.0,2022-10-26 15:48:39.218750
2626,18.26,2022-10-26 15:48:39.234375
2627,17.71,2022-10-26 15:48:39.250000
2628,16.62,2022-10-26 15:48:39.265625
2629,15.39,2022-10-26 15:48:39.281250
2630,14.43,2022-10-26 15:48:39.296875
2631,14.0,2022-10-26 15:48:39.312500
2632,14.24,2022-10-26 15:48:39.328125
2633,15.07,2022-10-26 15:48:39.343750
2634,16.33,2022-10-26 15:48:39.359375
2635,17.83,2022-10-26 15:48:39.375000
2636,19.39,2022-10-26 15:48:39.390625
2637,20.88,2022-10-26 15:48:39.406250
2638,22.25,2022-10-26 15:48:39.421875
2639,23.46,2022-10-26 15:48:39.437500
2640,24.47,2022-10-26 15:48:39.453125
2641,25.23,2022-10-26 15:48:39.468750
2642,25.59,2022-10-26 15:48:39.484375
2643,25.41,2022-10-26 15:48:39.500000
2644,24.56,2022-10-26 15:48:39.515625
2645,23.02,2022-10-26 15:48:39.531250
2646,20.96,2022-10-26 15:48:39.546875
2647,18.67,2022-10-26 15:48:39.562500
2648,16.43,2022-10-26 15:48:39.578125
2649,14.41,2022-10-26 15:48:39.593750
2650,12.62,2022-10-26 15:48:39.609375
2651,10.97,2022-10-26 15:48:39.625000
2652,9.49,2022-10-26 15:48:39.640625
2653,8.33,2022-10-26 15:48:39.656250
2654,7.65,2022-10-26 15:48:39.671875
2655,7.35,2022-10-26 15:48:39.687500
2656,6.8,2022-10-26 15:48:39.703125
2657,4.88,2022-10-26 15:48:39.718750
2658,0.45,2022-10-26 15:48:39.734375
2659,-7.11,2022-10-26 15:48:39.750000
2660,-17.52,2022-10-26 15:48:39.765625
2661,-29.76,2022-10-26 15:48:39.781250
2662,-42.64,2022-10-26 15:48:39.796875
2663,-55.53,2022-10-26 15:48:39.812500
2664,-68.53,2022-10-26 15:48:39.828125
2665,-82.25,2022-10-26 15:48:39.843750
2666,-97.28,2022-10-26 15:48:39.859375
2667,-113.64,2022-10-26 15:48:39.875000
2668,-130.79,2022-10-26 15:48:39.890625
2669,-147.77,2022-10-26 15:48:39.906250
2670,-163.44,2022-10-26 15:48:39.921875
2671,-176.44,2022-10-26 15:48:39.937500
2672,-184.93,2022-10-26 15:48:39.953125
2673,-186.44,2022-10-26 15:48:39.968750
2674,-178.17,2022-10-26 15:48:39.984375
2675,-157.86,2022-10-26 15:48:40.000000
2676,-124.88,2022-10-26 15:48:40.015625
2677,-80.88,2022-10-26 15:48:40.031250
2678,-29.85,2022-10-26 15:48:40.046875
2679,22.7,2022-10-26 15:48:40.062500
2680,71.02,2022-10-26 15:48:40.078125
2681,110.33,2022-10-26 15:48:40.093750
2682,137.83,2022-10-26 15:48:40.109375
2683,153.02,2022-10-26 15:48:40.125000
2684,157.4,2022-10-26 15:48:40.140625
2685,153.81,2022-10-26 15:48:40.156250
2686,145.35,2022-10-26 15:48:40.171875
2687,134.59,2022-10-26 15:48:40.187500
2688,123.16,2022-10-26 15:48:40.203125
2689,111.72,2022-10-26 15:48:40.218750
2690,100.51,2022-10-26 15:48:40.234375
2691,89.67,2022-10-26 15:48:40.250000
2692,79.52,2022-10-26 15:48:40.265625
2693,70.37,2022-10-26 15:48:40.281250
2694,62.29,2022-10-26 15:48:40.296875
2695,54.95,2022-10-26 15:48:40.312500
2696,47.76,2022-10-26 15:48:40.328125
2697,40.21,2022-10-26 15:48:40.343750
2698,32.2,2022-10-26 15:48:40.359375
2699,24.12,2022-10-26 15:48:40.375000
2700,16.67,2022-10-26 15:48:40.390625
2701,10.54,2022-10-26 15:48:40.406250
2702,6.0,2022-10-26 15:48:40.421875
2703,2.85,2022-10-26 15:48:40.437500
2704,0.47,2022-10-26 15:48:40.453125
2705,-1.86,2022-10-26 15:48:40.468750
2706,-4.7,2022-10-26 15:48:40.484375
2707,-8.29,2022-10-26 15:48:40.500000
2708,-12.51,2022-10-26 15:48:40.515625
2709,-17.1,2022-10-26 15:48:40.531250
2710,-21.75,2022-10-26 15:48:40.546875
2711,-26.11,2022-10-26 15:48:40.562500
2712,-29.71,2022-10-26 15:48:40.578125
2713,-31.91,2022-10-26 15:48:40.593750
2714,-32.0,2022-10-26 15:48:40.609375
2715,-29.5,2022-10-26 15:48:40.625000
2716,-24.41,2022-10-26 15:48:40.640625
2717,-17.39,2022-10-26 15:48:40.656250
2718,-9.52,2022-10-26 15:48:40.671875
2719,-1.92,2022-10-26 15:48:40.687500
2720,4.68,2022-10-26 15:48:40.703125
2721,10.13,2022-10-26 15:48:40.718750
2722,14.65,2022-10-26 15:48:40.734375
2723,18.51,2022-10-26 15:48:40.750000
2724,21.78,2022-10-26 15:48:40.765625
2725,24.33,2022-10-26 15:48:40.781250
2726,25.95,2022-10-26 15:48:40.796875
2727,26.65,2022-10-26 15:48:40.812500
2728,26.68,2022-10-26 15:48:40.828125
2729,26.42,2022-10-26 15:48:40.843750
2730,26.02,2022-10-26 15:48:40.859375
2731,25.35,2022-10-26 15:48:40.875000
2732,23.97,2022-10-26 15:48:40.890625
2733,21.46,2022-10-26 15:48:40.906250
2734,17.64,2022-10-26 15:48:40.921875
2735,12.76,2022-10-26 15:48:40.937500
2736,7.45,2022-10-26 15:48:40.953125
2737,2.47,2022-10-26 15:48:40.968750
2738,-1.56,2022-10-26 15:48:40.984375
2739,-4.29,2022-10-26 15:48:41.000000
2740,-5.72,2022-10-26 15:48:41.015625
2741,-6.08,2022-10-26 15:48:41.031250
2742,-5.65,2022-10-26 15:48:41.046875
2743,-4.69,2022-10-26 15:48:41.062500
2744,-3.38,2022-10-26 15:48:41.078125
2745,-1.82,2022-10-26 15:48:41.093750
2746,-0.12,2022-10-26 15:48:41.109375
2747,1.61,2022-10-26 15:48:41.125000
2748,3.24,2022-10-26 15:48:41.140625
2749,4.59,2022-10-26 15:48:41.156250
2750,5.56,2022-10-26 15:48:41.171875
2751,6.06,2022-10-26 15:48:41.187500
2752,6.12,2022-10-26 15:48:41.203125
2753,5.76,2022-10-26 15:48:41.218750
2754,5.07,2022-10-26 15:48:41.234375
2755,4.11,2022-10-26 15:48:41.250000
2756,2.96,2022-10-26 15:48:41.265625
2757,1.7,2022-10-26 15:48:41.281250
2758,0.39,2022-10-26 15:48:41.296875
2759,-0.94,2022-10-26 15:48:41.312500
2760,-2.3,2022-10-26 15:48:41.328125
2761,-3.71,2022-10-26 15:48:41.343750
2762,-5.2,2022-10-26 15:48:41.359375
2763,-6.75,2022-10-26 15:48:41.375000
2764,-8.28,2022-10-26 15:48:41.390625
2765,-9.69,2022-10-26 15:48:41.406250
2766,-10.9,2022-10-26 15:48:41.421875
2767,-11.95,2022-10-26 15:48:41.437500
2768,-12.97,2022-10-26 15:48:41.453125
2769,-14.18,2022-10-26 15:48:41.468750
2770,-15.77,2022-10-26 15:48:41.484375
2771,-17.86,2022-10-26 15:48:41.500000
2772,-20.36,2022-10-26 15:48:41.515625
2773,-23.06,2022-10-26 15:48:41.531250
2774,-25.52,2022-10-26 15:48:41.546875
2775,-27.25,2022-10-26 15:48:41.562500
2776,-27.79,2022-10-26 15:48:41.578125
2777,-26.8,2022-10-26 15:48:41.593750
2778,-24.26,2022-10-26 15:48:41.609375
2779,-20.35,2022-10-26 15:48:41.625000
2780,-15.47,2022-10-26 15:48:41.640625
2781,-10.06,2022-10-26 15:48:41.656250
2782,-4.5,2022-10-26 15:48:41.671875
2783,0.88,2022-10-26 15:48:41.687500
2784,5.83,2022-10-26 15:48:41.703125
2785,10.04,2022-10-26 15:48:41.718750
2786,13.25,2022-10-26 15:48:41.734375
2787,15.25,2022-10-26 15:48:41.750000
2788,16.03,2022-10-26 15:48:41.765625
2789,15.79,2022-10-26 15:48:41.781250
2790,14.88,2022-10-26 15:48:41.796875
2791,13.66,2022-10-26 15:48:41.812500
2792,12.43,2022-10-26 15:48:41.828125
2793,11.34,2022-10-26 15:48:41.843750
2794,10.47,2022-10-26 15:48:41.859375
2795,9.88,2022-10-26 15:48:41.875000
2796,9.58,2022-10-26 15:48:41.890625
2797,9.62,2022-10-26 15:48:41.906250
2798,9.98,2022-10-26 15:48:41.921875
2799,10.58,2022-10-26 15:48:41.937500
2800,11.31,2022-10-26 15:48:41.953125
2801,12.07,2022-10-26 15:48:41.968750
2802,12.74,2022-10-26 15:48:41.984375
2803,13.25,2022-10-26 15:48:42.000000
2804,13.48,2022-10-26 15:48:42.015625
2805,13.35,2022-10-26 15:48:42.031250
2806,12.84,2022-10-26 15:48:42.046875
2807,11.97,2022-10-26 15:48:42.062500
2808,10.8,2022-10-26 15:48:42.078125
2809,9.46,2022-10-26 15:48:42.093750
2810,7.98,2022-10-26 15:48:42.109375
2811,6.36,2022-10-26 15:48:42.125000
2812,4.61,2022-10-26 15:48:42.140625
2813,2.74,2022-10-26 15:48:42.156250
2814,0.78,2022-10-26 15:48:42.171875
2815,-1.23,2022-10-26 15:48:42.187500
2816,-3.29,2022-10-26 15:48:42.203125
2817,-5.45,2022-10-26 15:48:42.218750
2818,-7.74,2022-10-26 15:48:42.234375
2819,-10.2,2022-10-26 15:48:42.250000
2820,-12.78,2022-10-26 15:48:42.265625
2821,-15.41,2022-10-26 15:48:42.281250
2822,-17.96,2022-10-26 15:48:42.296875
2823,-20.36,2022-10-26 15:48:42.312500
2824,-22.5,2022-10-26 15:48:42.328125
2825,-24.25,2022-10-26 15:48:42.343750
2826,-25.41,2022-10-26 15:48:42.359375
2827,-25.74,2022-10-26 15:48:42.375000
2828,-25.05,2022-10-26 15:48:42.390625
2829,-23.15,2022-10-26 15:48:42.406250
2830,-20.02,2022-10-26 15:48:42.421875
2831,-15.73,2022-10-26 15:48:42.437500
2832,-10.55,2022-10-26 15:48:42.453125
2833,-4.88,2022-10-26 15:48:42.468750
2834,0.81,2022-10-26 15:48:42.484375
2835,6.01,2022-10-26 15:48:42.500000
2836,10.35,2022-10-26 15:48:42.515625
2837,13.58,2022-10-26 15:48:42.531250
2838,15.62,2022-10-26 15:48:42.546875
2839,16.55,2022-10-26 15:48:42.562500
2840,16.55,2022-10-26 15:48:42.578125
2841,15.88,2022-10-26 15:48:42.593750
2842,14.85,2022-10-26 15:48:42.609375
2843,13.78,2022-10-26 15:48:42.625000
2844,12.9,2022-10-26 15:48:42.640625
2845,12.34,2022-10-26 15:48:42.656250
2846,12.07,2022-10-26 15:48:42.671875
2847,11.98,2022-10-26 15:48:42.687500
2848,11.91,2022-10-26 15:48:42.703125
2849,11.74,2022-10-26 15:48:42.718750
2850,11.44,2022-10-26 15:48:42.734375
2851,11.04,2022-10-26 15:48:42.750000
2852,10.54,2022-10-26 15:48:42.765625
2853,9.9,2022-10-26 15:48:42.781250
2854,9.07,2022-10-26 15:48:42.796875
2855,7.99,2022-10-26 15:48:42.812500
2856,6.69,2022-10-26 15:48:42.828125
2857,5.25,2022-10-26 15:48:42.843750
2858,3.78,2022-10-26 15:48:42.859375
2859,2.36,2022-10-26 15:48:42.875000
2860,0.98,2022-10-26 15:48:42.890625
2861,-0.38,2022-10-26 15:48:42.906250
2862,-1.8,2022-10-26 15:48:42.921875
2863,-3.29,2022-10-26 15:48:42.937500
2864,-4.78,2022-10-26 15:48:42.953125
2865,-6.14,2022-10-26 15:48:42.968750
2866,-7.25,2022-10-26 15:48:42.984375
2867,-8.03,2022-10-26 15:48:43.000000
2868,-8.48,2022-10-26 15:48:43.015625
2869,-8.72,2022-10-26 15:48:43.031250
2870,-8.89,2022-10-26 15:48:43.046875
2871,-9.24,2022-10-26 15:48:43.062500
2872,-9.97,2022-10-26 15:48:43.078125
2873,-11.3,2022-10-26 15:48:43.093750
2874,-13.31,2022-10-26 15:48:43.109375
2875,-15.9,2022-10-26 15:48:43.125000
2876,-18.73,2022-10-26 15:48:43.140625
2877,-21.23,2022-10-26 15:48:43.156250
2878,-22.72,2022-10-26 15:48:43.171875
2879,-22.58,2022-10-26 15:48:43.187500
2880,-20.54,2022-10-26 15:48:43.203125
2881,-16.72,2022-10-26 15:48:43.218750
2882,-11.63,2022-10-26 15:48:43.234375
2883,-5.99,2022-10-26 15:48:43.250000
2884,-0.52,2022-10-26 15:48:43.265625
2885,4.25,2022-10-26 15:48:43.281250
2886,8.06,2022-10-26 15:48:43.296875
2887,10.88,2022-10-26 15:48:43.312500
2888,12.84,2022-10-26 15:48:43.328125
2889,14.18,2022-10-26 15:48:43.343750
2890,15.08,2022-10-26 15:48:43.359375
2891,15.67,2022-10-26 15:48:43.375000
2892,15.9,2022-10-26 15:48:43.390625
2893,15.72,2022-10-26 15:48:43.406250
2894,15.01,2022-10-26 15:48:43.421875
2895,13.79,2022-10-26 15:48:43.437500
2896,12.2,2022-10-26 15:48:43.453125
2897,10.55,2022-10-26 15:48:43.468750
2898,9.21,2022-10-26 15:48:43.484375
2899,8.52,2022-10-26 15:48:43.500000
2900,8.59,2022-10-26 15:48:43.515625
2901,9.32,2022-10-26 15:48:43.531250
2902,10.41,2022-10-26 15:48:43.546875
2903,11.44,2022-10-26 15:48:43.562500
2904,12.03,2022-10-26 15:48:43.578125
2905,11.99,2022-10-26 15:48:43.593750
2906,11.34,2022-10-26 15:48:43.609375
2907,10.33,2022-10-26 15:48:43.625000
2908,9.22,2022-10-26 15:48:43.640625
2909,8.19,2022-10-26 15:48:43.656250
2910,7.24,2022-10-26 15:48:43.671875
2911,6.17,2022-10-26 15:48:43.687500
2912,4.76,2022-10-26 15:48:43.703125
2913,2.92,2022-10-26 15:48:43.718750
2914,0.78,2022-10-26 15:48:43.734375
2915,-1.37,2022-10-26 15:48:43.750000
2916,-3.24,2022-10-26 15:48:43.765625
2917,-4.68,2022-10-26 15:48:43.781250
2918,-5.78,2022-10-26 15:48:43.796875
2919,-6.79,2022-10-26 15:48:43.812500
2920,-8.01,2022-10-26 15:48:43.828125
2921,-9.62,2022-10-26 15:48:43.843750
2922,-11.68,2022-10-26 15:48:43.859375
2923,-14.11,2022-10-26 15:48:43.875000
2924,-16.79,2022-10-26 15:48:43.890625
2925,-19.5,2022-10-26 15:48:43.906250
2926,-21.93,2022-10-26 15:48:43.921875
2927,-23.74,2022-10-26 15:48:43.937500
2928,-24.57,2022-10-26 15:48:43.953125
2929,-24.23,2022-10-26 15:48:43.968750
2930,-22.73,2022-10-26 15:48:43.984375
2931,-20.32,2022-10-26 15:48:44.000000
2932,-17.34,2022-10-26 15:48:44.015625
2933,-14.08,2022-10-26 15:48:44.031250
2934,-10.66,2022-10-26 15:48:44.046875
2935,-7.09,2022-10-26 15:48:44.062500
2936,-3.43,2022-10-26 15:48:44.078125
2937,0.14,2022-10-26 15:48:44.093750
2938,3.3,2022-10-26 15:48:44.109375
2939,5.69,2022-10-26 15:48:44.125000
2940,7.14,2022-10-26 15:48:44.140625
2941,7.64,2022-10-26 15:48:44.156250
2942,7.35,2022-10-26 15:48:44.171875
2943,6.53,2022-10-26 15:48:44.187500
2944,5.4,2022-10-26 15:48:44.203125
2945,4.16,2022-10-26 15:48:44.218750
2946,3.05,2022-10-26 15:48:44.234375
2947,2.3,2022-10-26 15:48:44.250000
2948,2.16,2022-10-26 15:48:44.265625
2949,2.83,2022-10-26 15:48:44.281250
2950,4.35,2022-10-26 15:48:44.296875
2951,6.55,2022-10-26 15:48:44.312500
2952,9.15,2022-10-26 15:48:44.328125
2953,11.73,2022-10-26 15:48:44.343750
2954,13.96,2022-10-26 15:48:44.359375
2955,15.53,2022-10-26 15:48:44.375000
2956,16.21,2022-10-26 15:48:44.390625
2957,15.92,2022-10-26 15:48:44.406250
2958,14.69,2022-10-26 15:48:44.421875
2959,12.67,2022-10-26 15:48:44.437500
2960,10.19,2022-10-26 15:48:44.453125
2961,7.65,2022-10-26 15:48:44.468750
2962,5.5,2022-10-26 15:48:44.484375
2963,4.07,2022-10-26 15:48:44.500000
2964,3.45,2022-10-26 15:48:44.515625
2965,3.42,2022-10-26 15:48:44.531250
2966,3.53,2022-10-26 15:48:44.546875
2967,3.28,2022-10-26 15:48:44.562500
2968,2.3,2022-10-26 15:48:44.578125
2969,0.51,2022-10-26 15:48:44.593750
2970,-1.92,2022-10-26 15:48:44.609375
2971,-4.63,2022-10-26 15:48:44.625000
2972,-7.29,2022-10-26 15:48:44.640625
2973,-9.63,2022-10-26 15:48:44.656250
2974,-11.47,2022-10-26 15:48:44.671875
2975,-12.64,2022-10-26 15:48:44.687500
2976,-12.94,2022-10-26 15:48:44.703125
2977,-12.17,2022-10-26 15:48:44.718750
2978,-10.22,2022-10-26 15:48:44.734375
2979,-7.15,2022-10-26 15:48:44.750000
2980,-3.22,2022-10-26 15:48:44.765625
2981,1.1,2022-10-26 15:48:44.781250
2982,5.27,2022-10-26 15:48:44.796875
2983,8.81,2022-10-26 15:48:44.812500
2984,11.4,2022-10-26 15:48:44.828125
2985,12.92,2022-10-26 15:48:44.843750
2986,13.44,2022-10-26 15:48:44.859375
2987,13.17,2022-10-26 15:48:44.875000
2988,12.37,2022-10-26 15:48:44.890625
2989,11.27,2022-10-26 15:48:44.906250
2990,10.04,2022-10-26 15:48:44.921875
2991,8.81,2022-10-26 15:48:44.937500
2992,7.75,2022-10-26 15:48:44.953125
2993,7.01,2022-10-26 15:48:44.968750
2994,6.77,2022-10-26 15:48:44.984375
2995,7.19,2022-10-26 15:48:45.000000
2996,8.28,2022-10-26 15:48:45.015625
2997,9.81,2022-10-26 15:48:45.031250
2998,11.47,2022-10-26 15:48:45.046875
2999,12.81,2022-10-26 15:48:45.062500
3000,13.5,2022-10-26 15:48:45.078125
3001,13.43,2022-10-26 15:48:45.093750
3002,12.72,2022-10-26 15:48:45.109375
3003,11.65,2022-10-26 15:48:45.125000
3004,10.57,2022-10-26 15:48:45.140625
3005,9.66,2022-10-26 15:48:45.156250
3006,8.94,2022-10-26 15:48:45.171875
3007,8.24,2022-10-26 15:48:45.187500
3008,7.38,2022-10-26 15:48:45.203125
3009,6.22,2022-10-26 15:48:45.218750
3010,4.77,2022-10-26 15:48:45.234375
3011,3.07,2022-10-26 15:48:45.250000
3012,1.17,2022-10-26 15:48:45.265625
3013,-0.97,2022-10-26 15:48:45.281250
3014,-3.43,2022-10-26 15:48:45.296875
3015,-6.22,2022-10-26 15:48:45.312500
3016,-9.27,2022-10-26 15:48:45.328125
3017,-12.42,2022-10-26 15:48:45.343750
3018,-15.44,2022-10-26 15:48:45.359375
3019,-18.16,2022-10-26 15:48:45.375000
3020,-20.46,2022-10-26 15:48:45.390625
3021,-22.27,2022-10-26 15:48:45.406250
3022,-23.42,2022-10-26 15:48:45.421875
3023,-23.75,2022-10-26 15:48:45.437500
3024,-23.02,2022-10-26 15:48:45.453125
3025,-21.12,2022-10-26 15:48:45.468750
3026,-18.09,2022-10-26 15:48:45.484375
3027,-14.19,2022-10-26 15:48:45.500000
3028,-9.82,2022-10-26 15:48:45.515625
3029,-5.43,2022-10-26 15:48:45.531250
3030,-1.34,2022-10-26 15:48:45.546875
3031,2.21,2022-10-26 15:48:45.562500
3032,5.07,2022-10-26 15:48:45.578125
3033,7.17,2022-10-26 15:48:45.593750
3034,8.4,2022-10-26 15:48:45.609375
3035,8.72,2022-10-26 15:48:45.625000
3036,8.17,2022-10-26 15:48:45.640625
3037,6.95,2022-10-26 15:48:45.656250
3038,5.35,2022-10-26 15:48:45.671875
3039,3.68,2022-10-26 15:48:45.687500
3040,2.24,2022-10-26 15:48:45.703125
3041,1.15,2022-10-26 15:48:45.718750
3042,0.45,2022-10-26 15:48:45.734375
3043,0.05,2022-10-26 15:48:45.750000
3044,-0.12,2022-10-26 15:48:45.765625
3045,-0.11,2022-10-26 15:48:45.781250
3046,0.07,2022-10-26 15:48:45.796875
3047,0.42,2022-10-26 15:48:45.812500
3048,0.91,2022-10-26 15:48:45.828125
3049,1.43,2022-10-26 15:48:45.843750
3050,1.84,2022-10-26 15:48:45.859375
3051,1.95,2022-10-26 15:48:45.875000
3052,1.63,2022-10-26 15:48:45.890625
3053,0.82,2022-10-26 15:48:45.906250
3054,-0.43,2022-10-26 15:48:45.921875
3055,-1.96,2022-10-26 15:48:45.937500
3056,-3.51,2022-10-26 15:48:45.953125
3057,-4.87,2022-10-26 15:48:45.968750
3058,-5.96,2022-10-26 15:48:45.984375
3059,-6.8,2022-10-26 15:48:46.000000
3060,-7.59,2022-10-26 15:48:46.015625
3061,-8.58,2022-10-26 15:48:46.031250
3062,-9.99,2022-10-26 15:48:46.046875
3063,-11.9,2022-10-26 15:48:46.062500
3064,-14.2,2022-10-26 15:48:46.078125
3065,-16.6,2022-10-26 15:48:46.093750
3066,-18.67,2022-10-26 15:48:46.109375
3067,-19.95,2022-10-26 15:48:46.125000
3068,-20.05,2022-10-26 15:48:46.140625
3069,-18.72,2022-10-26 15:48:46.156250
3070,-15.99,2022-10-26 15:48:46.171875
3071,-12.12,2022-10-26 15:48:46.187500
3072,-7.6,2022-10-26 15:48:46.203125
3073,-2.99,2022-10-26 15:48:46.218750
3074,1.19,2022-10-26 15:48:46.234375
3075,4.6,2022-10-26 15:48:46.250000
3076,7.09,2022-10-26 15:48:46.265625
3077,8.73,2022-10-26 15:48:46.281250
3078,9.64,2022-10-26 15:48:46.296875
3079,9.96,2022-10-26 15:48:46.312500
3080,9.82,2022-10-26 15:48:46.328125
3081,9.35,2022-10-26 15:48:46.343750
3082,8.74,2022-10-26 15:48:46.359375
3083,8.2,2022-10-26 15:48:46.375000
3084,7.94,2022-10-26 15:48:46.390625
3085,8.03,2022-10-26 15:48:46.406250
3086,8.32,2022-10-26 15:48:46.421875
3087,8.46,2022-10-26 15:48:46.437500
3088,7.99,2022-10-26 15:48:46.453125
3089,6.66,2022-10-26 15:48:46.468750
3090,4.43,2022-10-26 15:48:46.484375
3091,1.58,2022-10-26 15:48:46.500000
3092,-1.47,2022-10-26 15:48:46.515625
3093,-4.39,2022-10-26 15:48:46.531250
3094,-7.1,2022-10-26 15:48:46.546875
3095,-9.74,2022-10-26 15:48:46.562500
3096,-12.57,2022-10-26 15:48:46.578125
3097,-15.7,2022-10-26 15:48:46.593750
3098,-19.02,2022-10-26 15:48:46.609375
3099,-22.2,2022-10-26 15:48:46.625000
3100,-24.92,2022-10-26 15:48:46.640625
3101,-27.05,2022-10-26 15:48:46.656250
3102,-28.74,2022-10-26 15:48:46.671875
3103,-30.26,2022-10-26 15:48:46.687500
3104,-31.84,2022-10-26 15:48:46.703125
3105,-33.41,2022-10-26 15:48:46.718750
3106,-34.64,2022-10-26 15:48:46.734375
3107,-35.14,2022-10-26 15:48:46.750000
3108,-34.74,2022-10-26 15:48:46.765625
3109,-33.67,2022-10-26 15:48:46.781250
3110,-32.6,2022-10-26 15:48:46.796875
3111,-32.22,2022-10-26 15:48:46.812500
3112,-32.95,2022-10-26 15:48:46.828125
3113,-34.57,2022-10-26 15:48:46.843750
3114,-36.22,2022-10-26 15:48:46.859375
3115,-36.67,2022-10-26 15:48:46.875000
3116,-34.77,2022-10-26 15:48:46.890625
3117,-29.81,2022-10-26 15:48:46.906250
3118,-21.69,2022-10-26 15:48:46.921875
3119,-10.85,2022-10-26 15:48:46.937500
3120,1.99,2022-10-26 15:48:46.953125
3121,16.14,2022-10-26 15:48:46.968750
3122,31.08,2022-10-26 15:48:46.984375
3123,46.54,2022-10-26 15:48:47.000000
3124,62.42,2022-10-26 15:48:47.015625
3125,78.7,2022-10-26 15:48:47.031250
3126,95.33,2022-10-26 15:48:47.046875
3127,112.28,2022-10-26 15:48:47.062500
3128,129.33,2022-10-26 15:48:47.078125
3129,146.15,2022-10-26 15:48:47.093750
3130,162.11,2022-10-26 15:48:47.109375
3131,176.39,2022-10-26 15:48:47.125000
3132,188.06,2022-10-26 15:48:47.140625
3133,196.34,2022-10-26 15:48:47.156250
3134,200.82,2022-10-26 15:48:47.171875
3135,201.72,2022-10-26 15:48:47.187500
3136,199.79,2022-10-26 15:48:47.203125
3137,196.16,2022-10-26 15:48:47.218750
3138,191.87,2022-10-26 15:48:47.234375
3139,187.51,2022-10-26 15:48:47.250000
3140,183.0,2022-10-26 15:48:47.265625
3141,177.8,2022-10-26 15:48:47.281250
3142,171.32,2022-10-26 15:48:47.296875
3143,163.32,2022-10-26 15:48:47.312500
3144,154.05,2022-10-26 15:48:47.328125
3145,143.9,2022-10-26 15:48:47.343750
3146,132.87,2022-10-26 15:48:47.359375
3147,120.21,2022-10-26 15:48:47.375000
3148,104.64,2022-10-26 15:48:47.390625
3149,85.04,2022-10-26 15:48:47.406250
3150,61.38,2022-10-26 15:48:47.421875
3151,35.25,2022-10-26 15:48:47.437500
3152,9.59,2022-10-26 15:48:47.453125
3153,-12.24,2022-10-26 15:48:47.468750
3154,-27.65,2022-10-26 15:48:47.484375
3155,-35.72,2022-10-26 15:48:47.500000
3156,-37.47,2022-10-26 15:48:47.515625
3157,-35.39,2022-10-26 15:48:47.531250
3158,-32.59,2022-10-26 15:48:47.546875
3159,-32.04,2022-10-26 15:48:47.562500
3160,-35.97,2022-10-26 15:48:47.578125
3161,-45.7,2022-10-26 15:48:47.593750
3162,-61.51,2022-10-26 15:48:47.609375
3163,-82.6,2022-10-26 15:48:47.625000
3164,-107.16,2022-10-26 15:48:47.640625
3165,-132.69,2022-10-26 15:48:47.656250
3166,-156.58,2022-10-26 15:48:47.671875
3167,-176.8,2022-10-26 15:48:47.687500
3168,-192.53,2022-10-26 15:48:47.703125
3169,-204.3,2022-10-26 15:48:47.718750
3170,-213.68,2022-10-26 15:48:47.734375
3171,-222.53,2022-10-26 15:48:47.750000
3172,-232.06,2022-10-26 15:48:47.765625
3173,-242.37,2022-10-26 15:48:47.781250
3174,-252.44,2022-10-26 15:48:47.796875
3175,-260.58,2022-10-26 15:48:47.812500
3176,-265.01,2022-10-26 15:48:47.828125
3177,-264.29,2022-10-26 15:48:47.843750
3178,-257.58,2022-10-26 15:48:47.859375
3179,-244.69,2022-10-26 15:48:47.875000
3180,-226.2,2022-10-26 15:48:47.890625
3181,-203.39,2022-10-26 15:48:47.906250
3182,-178.08,2022-10-26 15:48:47.921875
3183,-152.24,2022-10-26 15:48:47.937500
3184,-127.48,2022-10-26 15:48:47.953125
3185,-104.71,2022-10-26 15:48:47.968750
3186,-84.09,2022-10-26 15:48:47.984375
3187,-65.3,2022-10-26 15:48:48.000000
3188,-47.89,2022-10-26 15:48:48.015625
3189,-31.67,2022-10-26 15:48:48.031250
3190,-16.67,2022-10-26 15:48:48.046875
3191,-3.08,2022-10-26 15:48:48.062500
3192,8.88,2022-10-26 15:48:48.078125
3193,19.02,2022-10-26 15:48:48.093750
3194,27.17,2022-10-26 15:48:48.109375
