,BVP,time
0,-8.0,2022-10-26 10:14:10.343750
1,8.46,2022-10-26 10:14:10.359375
2,21.86,2022-10-26 10:14:10.375000
3,31.02,2022-10-26 10:14:10.390625
4,36.03,2022-10-26 10:14:10.406250
5,37.87,2022-10-26 10:14:10.421875
6,37.62,2022-10-26 10:14:10.437500
7,36.05,2022-10-26 10:14:10.453125
8,33.43,2022-10-26 10:14:10.468750
9,29.84,2022-10-26 10:14:10.484375
10,25.46,2022-10-26 10:14:10.500000
11,20.77,2022-10-26 10:14:10.515625
12,16.34,2022-10-26 10:14:10.531250
13,12.64,2022-10-26 10:14:10.546875
14,9.76,2022-10-26 10:14:10.562500
15,7.44,2022-10-26 10:14:10.578125
16,5.25,2022-10-26 10:14:10.593750
17,2.8,2022-10-26 10:14:10.609375
18,-0.06,2022-10-26 10:14:10.625000
19,-3.26,2022-10-26 10:14:10.640625
20,-6.6,2022-10-26 10:14:10.656250
21,-9.91,2022-10-26 10:14:10.671875
22,-13.17,2022-10-26 10:14:10.687500
23,-16.5,2022-10-26 10:14:10.703125
24,-20.11,2022-10-26 10:14:10.718750
25,-24.17,2022-10-26 10:14:10.734375
26,-28.83,2022-10-26 10:14:10.750000
27,-34.21,2022-10-26 10:14:10.765625
28,-40.41,2022-10-26 10:14:10.781250
29,-47.62,2022-10-26 10:14:10.796875
30,-55.78,2022-10-26 10:14:10.812500
31,-64.52,2022-10-26 10:14:10.828125
32,-72.91,2022-10-26 10:14:10.843750
33,-79.61,2022-10-26 10:14:10.859375
34,-83.21,2022-10-26 10:14:10.875000
35,-82.7,2022-10-26 10:14:10.890625
36,-77.92,2022-10-26 10:14:10.906250
37,-69.64,2022-10-26 10:14:10.921875
38,-59.33,2022-10-26 10:14:10.937500
39,-48.68,2022-10-26 10:14:10.953125
40,-39.03,2022-10-26 10:14:10.968750
41,-31.02,2022-10-26 10:14:10.984375
42,-24.57,2022-10-26 10:14:11.000000
43,-19.11,2022-10-26 10:14:11.015625
44,-13.99,2022-10-26 10:14:11.031250
45,-8.82,2022-10-26 10:14:11.046875
46,-3.65,2022-10-26 10:14:11.062500
47,1.2,2022-10-26 10:14:11.078125
48,5.36,2022-10-26 10:14:11.093750
49,8.55,2022-10-26 10:14:11.109375
50,10.77,2022-10-26 10:14:11.125000
51,12.1,2022-10-26 10:14:11.140625
52,12.71,2022-10-26 10:14:11.156250
53,12.82,2022-10-26 10:14:11.171875
54,12.67,2022-10-26 10:14:11.187500
55,12.63,2022-10-26 10:14:11.203125
56,13.15,2022-10-26 10:14:11.218750
57,14.58,2022-10-26 10:14:11.234375
58,17.02,2022-10-26 10:14:11.250000
59,20.28,2022-10-26 10:14:11.265625
60,23.86,2022-10-26 10:14:11.281250
61,27.2,2022-10-26 10:14:11.296875
62,29.72,2022-10-26 10:14:11.312500
63,31.04,2022-10-26 10:14:11.328125
64,31.0,2022-10-26 10:14:11.343750
65,29.73,2022-10-26 10:14:11.359375
66,27.63,2022-10-26 10:14:11.375000
67,25.47,2022-10-26 10:14:11.390625
68,24.2,2022-10-26 10:14:11.406250
69,24.68,2022-10-26 10:14:11.421875
70,27.54,2022-10-26 10:14:11.437500
71,32.93,2022-10-26 10:14:11.453125
72,40.64,2022-10-26 10:14:11.468750
73,50.26,2022-10-26 10:14:11.484375
74,61.33,2022-10-26 10:14:11.500000
75,73.51,2022-10-26 10:14:11.515625
76,86.45,2022-10-26 10:14:11.531250
77,99.78,2022-10-26 10:14:11.546875
78,112.94,2022-10-26 10:14:11.562500
79,125.26,2022-10-26 10:14:11.578125
80,136.13,2022-10-26 10:14:11.593750
81,145.19,2022-10-26 10:14:11.609375
82,152.41,2022-10-26 10:14:11.625000
83,158.03,2022-10-26 10:14:11.640625
84,162.25,2022-10-26 10:14:11.656250
85,165.09,2022-10-26 10:14:11.671875
86,166.3,2022-10-26 10:14:11.687500
87,165.4,2022-10-26 10:14:11.703125
88,162.09,2022-10-26 10:14:11.718750
89,156.37,2022-10-26 10:14:11.734375
90,148.57,2022-10-26 10:14:11.750000
91,139.14,2022-10-26 10:14:11.765625
92,128.24,2022-10-26 10:14:11.781250
93,115.71,2022-10-26 10:14:11.796875
94,101.21,2022-10-26 10:14:11.812500
95,84.58,2022-10-26 10:14:11.828125
96,66.24,2022-10-26 10:14:11.843750
97,47.23,2022-10-26 10:14:11.859375
98,28.89,2022-10-26 10:14:11.875000
99,12.45,2022-10-26 10:14:11.890625
100,-1.33,2022-10-26 10:14:11.906250
101,-12.33,2022-10-26 10:14:11.921875
102,-20.9,2022-10-26 10:14:11.937500
103,-27.58,2022-10-26 10:14:11.953125
104,-32.99,2022-10-26 10:14:11.968750
105,-37.56,2022-10-26 10:14:11.984375
106,-41.63,2022-10-26 10:14:12.000000
107,-45.36,2022-10-26 10:14:12.015625
108,-48.88,2022-10-26 10:14:12.031250
109,-52.22,2022-10-26 10:14:12.046875
110,-55.46,2022-10-26 10:14:12.062500
111,-58.68,2022-10-26 10:14:12.078125
112,-61.93,2022-10-26 10:14:12.093750
113,-65.23,2022-10-26 10:14:12.109375
114,-68.46,2022-10-26 10:14:12.125000
115,-71.45,2022-10-26 10:14:12.140625
116,-74.07,2022-10-26 10:14:12.156250
117,-76.31,2022-10-26 10:14:12.171875
118,-78.26,2022-10-26 10:14:12.187500
119,-80.08,2022-10-26 10:14:12.203125
120,-81.82,2022-10-26 10:14:12.218750
121,-83.36,2022-10-26 10:14:12.234375
122,-84.51,2022-10-26 10:14:12.250000
123,-85.08,2022-10-26 10:14:12.265625
124,-85.07,2022-10-26 10:14:12.281250
125,-84.7,2022-10-26 10:14:12.296875
126,-84.24,2022-10-26 10:14:12.312500
127,-83.86,2022-10-26 10:14:12.328125
128,-83.43,2022-10-26 10:14:12.343750
129,-82.48,2022-10-26 10:14:12.359375
130,-80.37,2022-10-26 10:14:12.375000
131,-76.55,2022-10-26 10:14:12.390625
132,-70.71,2022-10-26 10:14:12.406250
133,-63.03,2022-10-26 10:14:12.421875
134,-54.09,2022-10-26 10:14:12.437500
135,-44.69,2022-10-26 10:14:12.453125
136,-35.62,2022-10-26 10:14:12.468750
137,-27.36,2022-10-26 10:14:12.484375
138,-20.1,2022-10-26 10:14:12.500000
139,-13.77,2022-10-26 10:14:12.515625
140,-8.27,2022-10-26 10:14:12.531250
141,-3.53,2022-10-26 10:14:12.546875
142,0.39,2022-10-26 10:14:12.562500
143,3.42,2022-10-26 10:14:12.578125
144,5.55,2022-10-26 10:14:12.593750
145,6.92,2022-10-26 10:14:12.609375
146,7.77,2022-10-26 10:14:12.625000
147,8.39,2022-10-26 10:14:12.640625
148,9.0,2022-10-26 10:14:12.656250
149,9.74,2022-10-26 10:14:12.671875
150,10.62,2022-10-26 10:14:12.687500
151,11.67,2022-10-26 10:14:12.703125
152,12.91,2022-10-26 10:14:12.718750
153,14.42,2022-10-26 10:14:12.734375
154,16.25,2022-10-26 10:14:12.750000
155,18.34,2022-10-26 10:14:12.765625
156,20.47,2022-10-26 10:14:12.781250
157,22.23,2022-10-26 10:14:12.796875
158,23.14,2022-10-26 10:14:12.812500
159,22.77,2022-10-26 10:14:12.828125
160,20.91,2022-10-26 10:14:12.843750
161,17.62,2022-10-26 10:14:12.859375
162,13.27,2022-10-26 10:14:12.875000
163,8.32,2022-10-26 10:14:12.890625
164,3.21,2022-10-26 10:14:12.906250
165,-1.76,2022-10-26 10:14:12.921875
166,-6.41,2022-10-26 10:14:12.937500
167,-10.75,2022-10-26 10:14:12.953125
168,-14.81,2022-10-26 10:14:12.968750
169,-18.71,2022-10-26 10:14:12.984375
170,-22.6,2022-10-26 10:14:13.000000
171,-26.6,2022-10-26 10:14:13.015625
172,-30.62,2022-10-26 10:14:13.031250
173,-34.34,2022-10-26 10:14:13.046875
174,-37.17,2022-10-26 10:14:13.062500
175,-38.33,2022-10-26 10:14:13.078125
176,-37.18,2022-10-26 10:14:13.093750
177,-33.45,2022-10-26 10:14:13.109375
178,-27.43,2022-10-26 10:14:13.125000
179,-19.87,2022-10-26 10:14:13.140625
180,-11.83,2022-10-26 10:14:13.156250
181,-4.23,2022-10-26 10:14:13.171875
182,2.28,2022-10-26 10:14:13.187500
183,7.52,2022-10-26 10:14:13.203125
184,11.66,2022-10-26 10:14:13.218750
185,14.98,2022-10-26 10:14:13.234375
186,17.69,2022-10-26 10:14:13.250000
187,19.82,2022-10-26 10:14:13.265625
188,21.28,2022-10-26 10:14:13.281250
189,21.93,2022-10-26 10:14:13.296875
190,21.75,2022-10-26 10:14:13.312500
191,20.85,2022-10-26 10:14:13.328125
192,19.44,2022-10-26 10:14:13.343750
193,17.74,2022-10-26 10:14:13.359375
194,15.96,2022-10-26 10:14:13.375000
195,14.24,2022-10-26 10:14:13.390625
196,12.8,2022-10-26 10:14:13.406250
197,11.78,2022-10-26 10:14:13.421875
198,11.28,2022-10-26 10:14:13.437500
199,11.3,2022-10-26 10:14:13.453125
200,11.61,2022-10-26 10:14:13.468750
201,11.86,2022-10-26 10:14:13.484375
202,11.68,2022-10-26 10:14:13.500000
203,10.85,2022-10-26 10:14:13.515625
204,9.39,2022-10-26 10:14:13.531250
205,7.5,2022-10-26 10:14:13.546875
206,5.39,2022-10-26 10:14:13.562500
207,3.16,2022-10-26 10:14:13.578125
208,0.75,2022-10-26 10:14:13.593750
209,-2.03,2022-10-26 10:14:13.609375
210,-5.36,2022-10-26 10:14:13.625000
211,-9.33,2022-10-26 10:14:13.640625
212,-13.94,2022-10-26 10:14:13.656250
213,-19.03,2022-10-26 10:14:13.671875
214,-24.27,2022-10-26 10:14:13.687500
215,-29.14,2022-10-26 10:14:13.703125
216,-32.89,2022-10-26 10:14:13.718750
217,-34.71,2022-10-26 10:14:13.734375
218,-33.92,2022-10-26 10:14:13.750000
219,-30.21,2022-10-26 10:14:13.765625
220,-23.9,2022-10-26 10:14:13.781250
221,-15.84,2022-10-26 10:14:13.796875
222,-7.22,2022-10-26 10:14:13.812500
223,0.85,2022-10-26 10:14:13.828125
224,7.6,2022-10-26 10:14:13.843750
225,12.74,2022-10-26 10:14:13.859375
226,16.43,2022-10-26 10:14:13.875000
227,19.0,2022-10-26 10:14:13.890625
228,20.8,2022-10-26 10:14:13.906250
229,22.04,2022-10-26 10:14:13.921875
230,22.84,2022-10-26 10:14:13.937500
231,23.28,2022-10-26 10:14:13.953125
232,23.5,2022-10-26 10:14:13.968750
233,23.68,2022-10-26 10:14:13.984375
234,23.93,2022-10-26 10:14:14.000000
235,24.27,2022-10-26 10:14:14.015625
236,24.56,2022-10-26 10:14:14.031250
237,24.53,2022-10-26 10:14:14.046875
238,24.01,2022-10-26 10:14:14.062500
239,22.91,2022-10-26 10:14:14.078125
240,21.43,2022-10-26 10:14:14.093750
241,19.89,2022-10-26 10:14:14.109375
242,18.65,2022-10-26 10:14:14.125000
243,17.92,2022-10-26 10:14:14.140625
244,17.69,2022-10-26 10:14:14.156250
245,17.7,2022-10-26 10:14:14.171875
246,17.54,2022-10-26 10:14:14.187500
247,16.84,2022-10-26 10:14:14.203125
248,15.36,2022-10-26 10:14:14.218750
249,13.08,2022-10-26 10:14:14.234375
250,10.15,2022-10-26 10:14:14.250000
251,6.88,2022-10-26 10:14:14.265625
252,3.5,2022-10-26 10:14:14.281250
253,0.15,2022-10-26 10:14:14.296875
254,-3.15,2022-10-26 10:14:14.312500
255,-6.48,2022-10-26 10:14:14.328125
256,-9.89,2022-10-26 10:14:14.343750
257,-13.37,2022-10-26 10:14:14.359375
258,-16.85,2022-10-26 10:14:14.375000
259,-20.28,2022-10-26 10:14:14.390625
260,-23.75,2022-10-26 10:14:14.406250
261,-27.46,2022-10-26 10:14:14.421875
262,-31.54,2022-10-26 10:14:14.437500
263,-35.85,2022-10-26 10:14:14.453125
264,-39.78,2022-10-26 10:14:14.468750
265,-42.37,2022-10-26 10:14:14.484375
266,-42.64,2022-10-26 10:14:14.500000
267,-39.93,2022-10-26 10:14:14.515625
268,-34.33,2022-10-26 10:14:14.531250
269,-26.58,2022-10-26 10:14:14.546875
270,-17.89,2022-10-26 10:14:14.562500
271,-9.44,2022-10-26 10:14:14.578125
272,-2.1,2022-10-26 10:14:14.593750
273,3.76,2022-10-26 10:14:14.609375
274,8.18,2022-10-26 10:14:14.625000
275,11.41,2022-10-26 10:14:14.640625
276,13.76,2022-10-26 10:14:14.656250
277,15.49,2022-10-26 10:14:14.671875
278,16.85,2022-10-26 10:14:14.687500
279,18.07,2022-10-26 10:14:14.703125
280,19.34,2022-10-26 10:14:14.718750
281,20.74,2022-10-26 10:14:14.734375
282,22.2,2022-10-26 10:14:14.750000
283,23.54,2022-10-26 10:14:14.765625
284,24.49,2022-10-26 10:14:14.781250
285,24.86,2022-10-26 10:14:14.796875
286,24.61,2022-10-26 10:14:14.812500
287,23.9,2022-10-26 10:14:14.828125
288,22.97,2022-10-26 10:14:14.843750
289,22.11,2022-10-26 10:14:14.859375
290,21.45,2022-10-26 10:14:14.875000
291,20.98,2022-10-26 10:14:14.890625
292,20.5,2022-10-26 10:14:14.906250
293,19.74,2022-10-26 10:14:14.921875
294,18.48,2022-10-26 10:14:14.937500
295,16.63,2022-10-26 10:14:14.953125
296,14.27,2022-10-26 10:14:14.968750
297,11.63,2022-10-26 10:14:14.984375
298,8.94,2022-10-26 10:14:15.000000
299,6.39,2022-10-26 10:14:15.015625
300,4.08,2022-10-26 10:14:15.031250
301,2.0,2022-10-26 10:14:15.046875
302,0.01,2022-10-26 10:14:15.062500
303,-1.98,2022-10-26 10:14:15.078125
304,-4.06,2022-10-26 10:14:15.093750
305,-6.26,2022-10-26 10:14:15.109375
306,-8.55,2022-10-26 10:14:15.125000
307,-10.87,2022-10-26 10:14:15.140625
308,-13.18,2022-10-26 10:14:15.156250
309,-15.53,2022-10-26 10:14:15.171875
310,-18.07,2022-10-26 10:14:15.187500
311,-21.05,2022-10-26 10:14:15.203125
312,-24.72,2022-10-26 10:14:15.218750
313,-29.12,2022-10-26 10:14:15.234375
314,-33.96,2022-10-26 10:14:15.250000
315,-38.55,2022-10-26 10:14:15.265625
316,-41.89,2022-10-26 10:14:15.281250
317,-42.97,2022-10-26 10:14:15.296875
318,-41.17,2022-10-26 10:14:15.312500
319,-36.52,2022-10-26 10:14:15.328125
320,-29.69,2022-10-26 10:14:15.343750
321,-21.74,2022-10-26 10:14:15.359375
322,-13.79,2022-10-26 10:14:15.375000
323,-6.7,2022-10-26 10:14:15.390625
324,-0.93,2022-10-26 10:14:15.406250
325,3.45,2022-10-26 10:14:15.421875
326,6.58,2022-10-26 10:14:15.437500
327,8.73,2022-10-26 10:14:15.453125
328,10.24,2022-10-26 10:14:15.468750
329,11.41,2022-10-26 10:14:15.484375
330,12.5,2022-10-26 10:14:15.500000
331,13.6,2022-10-26 10:14:15.515625
332,14.61,2022-10-26 10:14:15.531250
333,15.33,2022-10-26 10:14:15.546875
334,15.54,2022-10-26 10:14:15.562500
335,15.2,2022-10-26 10:14:15.578125
336,14.46,2022-10-26 10:14:15.593750
337,13.63,2022-10-26 10:14:15.609375
338,12.97,2022-10-26 10:14:15.625000
339,12.63,2022-10-26 10:14:15.640625
340,12.55,2022-10-26 10:14:15.656250
341,12.61,2022-10-26 10:14:15.671875
342,12.63,2022-10-26 10:14:15.687500
343,12.58,2022-10-26 10:14:15.703125
344,12.41,2022-10-26 10:14:15.718750
345,12.12,2022-10-26 10:14:15.734375
346,11.65,2022-10-26 10:14:15.750000
347,10.91,2022-10-26 10:14:15.765625
348,9.82,2022-10-26 10:14:15.781250
349,8.34,2022-10-26 10:14:15.796875
350,6.49,2022-10-26 10:14:15.812500
351,4.31,2022-10-26 10:14:15.828125
352,1.87,2022-10-26 10:14:15.843750
353,-0.82,2022-10-26 10:14:15.859375
354,-3.68,2022-10-26 10:14:15.875000
355,-6.62,2022-10-26 10:14:15.890625
356,-9.58,2022-10-26 10:14:15.906250
357,-12.48,2022-10-26 10:14:15.921875
358,-15.32,2022-10-26 10:14:15.937500
359,-18.13,2022-10-26 10:14:15.953125
360,-20.99,2022-10-26 10:14:15.968750
361,-23.94,2022-10-26 10:14:15.984375
362,-26.96,2022-10-26 10:14:16.000000
363,-29.95,2022-10-26 10:14:16.015625
364,-32.63,2022-10-26 10:14:16.031250
365,-34.58,2022-10-26 10:14:16.046875
366,-35.3,2022-10-26 10:14:16.062500
367,-34.27,2022-10-26 10:14:16.078125
368,-31.17,2022-10-26 10:14:16.093750
369,-26.04,2022-10-26 10:14:16.109375
370,-19.27,2022-10-26 10:14:16.125000
371,-11.57,2022-10-26 10:14:16.140625
372,-3.81,2022-10-26 10:14:16.156250
373,3.23,2022-10-26 10:14:16.171875
374,8.98,2022-10-26 10:14:16.187500
375,13.16,2022-10-26 10:14:16.203125
376,15.83,2022-10-26 10:14:16.218750
377,17.25,2022-10-26 10:14:16.234375
378,17.77,2022-10-26 10:14:16.250000
379,17.7,2022-10-26 10:14:16.265625
380,17.29,2022-10-26 10:14:16.281250
381,16.7,2022-10-26 10:14:16.296875
382,16.03,2022-10-26 10:14:16.312500
383,15.34,2022-10-26 10:14:16.328125
384,14.74,2022-10-26 10:14:16.343750
385,14.3,2022-10-26 10:14:16.359375
386,14.02,2022-10-26 10:14:16.375000
387,13.9,2022-10-26 10:14:16.390625
388,13.87,2022-10-26 10:14:16.406250
389,13.82,2022-10-26 10:14:16.421875
390,13.69,2022-10-26 10:14:16.437500
391,13.47,2022-10-26 10:14:16.453125
392,13.17,2022-10-26 10:14:16.468750
393,12.75,2022-10-26 10:14:16.484375
394,12.13,2022-10-26 10:14:16.500000
395,11.13,2022-10-26 10:14:16.515625
396,9.59,2022-10-26 10:14:16.531250
397,7.33,2022-10-26 10:14:16.546875
398,4.34,2022-10-26 10:14:16.562500
399,0.75,2022-10-26 10:14:16.578125
400,-3.16,2022-10-26 10:14:16.593750
401,-6.99,2022-10-26 10:14:16.609375
402,-10.38,2022-10-26 10:14:16.625000
403,-13.1,2022-10-26 10:14:16.640625
404,-15.09,2022-10-26 10:14:16.656250
405,-16.51,2022-10-26 10:14:16.671875
406,-17.71,2022-10-26 10:14:16.687500
407,-19.11,2022-10-26 10:14:16.703125
408,-21.11,2022-10-26 10:14:16.718750
409,-23.94,2022-10-26 10:14:16.734375
410,-27.55,2022-10-26 10:14:16.750000
411,-31.54,2022-10-26 10:14:16.765625
412,-35.16,2022-10-26 10:14:16.781250
413,-37.52,2022-10-26 10:14:16.796875
414,-37.77,2022-10-26 10:14:16.812500
415,-35.47,2022-10-26 10:14:16.828125
416,-30.65,2022-10-26 10:14:16.843750
417,-23.83,2022-10-26 10:14:16.859375
418,-15.97,2022-10-26 10:14:16.875000
419,-8.01,2022-10-26 10:14:16.890625
420,-0.82,2022-10-26 10:14:16.906250
421,5.07,2022-10-26 10:14:16.921875
422,9.5,2022-10-26 10:14:16.937500
423,12.55,2022-10-26 10:14:16.953125
424,14.53,2022-10-26 10:14:16.968750
425,15.76,2022-10-26 10:14:16.984375
426,16.55,2022-10-26 10:14:17.000000
427,17.08,2022-10-26 10:14:17.015625
428,17.48,2022-10-26 10:14:17.031250
429,17.71,2022-10-26 10:14:17.046875
430,17.69,2022-10-26 10:14:17.062500
431,17.33,2022-10-26 10:14:17.078125
432,16.57,2022-10-26 10:14:17.093750
433,15.42,2022-10-26 10:14:17.109375
434,13.93,2022-10-26 10:14:17.125000
435,12.24,2022-10-26 10:14:17.140625
436,10.54,2022-10-26 10:14:17.156250
437,9.06,2022-10-26 10:14:17.171875
438,8.0,2022-10-26 10:14:17.187500
439,7.43,2022-10-26 10:14:17.203125
440,7.21,2022-10-26 10:14:17.218750
441,7.04,2022-10-26 10:14:17.234375
442,6.54,2022-10-26 10:14:17.250000
443,5.4,2022-10-26 10:14:17.265625
444,3.57,2022-10-26 10:14:17.281250
445,1.15,2022-10-26 10:14:17.296875
446,-1.58,2022-10-26 10:14:17.312500
447,-4.35,2022-10-26 10:14:17.328125
448,-7.05,2022-10-26 10:14:17.343750
449,-9.73,2022-10-26 10:14:17.359375
450,-12.64,2022-10-26 10:14:17.375000
451,-15.99,2022-10-26 10:14:17.390625
452,-19.95,2022-10-26 10:14:17.406250
453,-24.42,2022-10-26 10:14:17.421875
454,-29.0,2022-10-26 10:14:17.437500
455,-32.94,2022-10-26 10:14:17.453125
456,-35.39,2022-10-26 10:14:17.468750
457,-35.54,2022-10-26 10:14:17.484375
458,-32.98,2022-10-26 10:14:17.500000
459,-27.92,2022-10-26 10:14:17.515625
460,-21.03,2022-10-26 10:14:17.531250
461,-13.39,2022-10-26 10:14:17.546875
462,-6.03,2022-10-26 10:14:17.562500
463,0.29,2022-10-26 10:14:17.578125
464,5.21,2022-10-26 10:14:17.593750
465,8.72,2022-10-26 10:14:17.609375
466,11.0,2022-10-26 10:14:17.625000
467,12.27,2022-10-26 10:14:17.640625
468,12.8,2022-10-26 10:14:17.656250
469,12.8,2022-10-26 10:14:17.671875
470,12.48,2022-10-26 10:14:17.687500
471,12.03,2022-10-26 10:14:17.703125
472,11.53,2022-10-26 10:14:17.718750
473,11.0,2022-10-26 10:14:17.734375
474,10.37,2022-10-26 10:14:17.750000
475,9.64,2022-10-26 10:14:17.765625
476,8.85,2022-10-26 10:14:17.781250
477,8.19,2022-10-26 10:14:17.796875
478,7.79,2022-10-26 10:14:17.812500
479,7.74,2022-10-26 10:14:17.828125
480,7.96,2022-10-26 10:14:17.843750
481,8.19,2022-10-26 10:14:17.859375
482,8.15,2022-10-26 10:14:17.875000
483,7.49,2022-10-26 10:14:17.890625
484,6.03,2022-10-26 10:14:17.906250
485,3.73,2022-10-26 10:14:17.921875
486,0.78,2022-10-26 10:14:17.937500
487,-2.49,2022-10-26 10:14:17.953125
488,-5.73,2022-10-26 10:14:17.968750
489,-8.67,2022-10-26 10:14:17.984375
490,-11.25,2022-10-26 10:14:18.000000
491,-13.56,2022-10-26 10:14:18.015625
492,-15.81,2022-10-26 10:14:18.031250
493,-18.23,2022-10-26 10:14:18.046875
494,-21.1,2022-10-26 10:14:18.062500
495,-24.63,2022-10-26 10:14:18.078125
496,-28.81,2022-10-26 10:14:18.093750
497,-33.35,2022-10-26 10:14:18.109375
498,-37.52,2022-10-26 10:14:18.125000
499,-40.37,2022-10-26 10:14:18.140625
500,-40.89,2022-10-26 10:14:18.156250
501,-38.48,2022-10-26 10:14:18.171875
502,-33.12,2022-10-26 10:14:18.187500
503,-25.53,2022-10-26 10:14:18.203125
504,-16.85,2022-10-26 10:14:18.218750
505,-8.33,2022-10-26 10:14:18.234375
506,-0.92,2022-10-26 10:14:18.250000
507,4.96,2022-10-26 10:14:18.265625
508,9.27,2022-10-26 10:14:18.281250
509,12.29,2022-10-26 10:14:18.296875
510,14.29,2022-10-26 10:14:18.312500
511,15.56,2022-10-26 10:14:18.328125
512,16.28,2022-10-26 10:14:18.343750
513,16.59,2022-10-26 10:14:18.359375
514,16.62,2022-10-26 10:14:18.375000
515,16.48,2022-10-26 10:14:18.390625
516,16.21,2022-10-26 10:14:18.406250
517,15.76,2022-10-26 10:14:18.421875
518,15.09,2022-10-26 10:14:18.437500
519,14.1,2022-10-26 10:14:18.453125
520,12.79,2022-10-26 10:14:18.468750
521,11.27,2022-10-26 10:14:18.484375
522,9.67,2022-10-26 10:14:18.500000
523,8.23,2022-10-26 10:14:18.515625
524,7.14,2022-10-26 10:14:18.531250
525,6.51,2022-10-26 10:14:18.546875
526,6.33,2022-10-26 10:14:18.562500
527,6.46,2022-10-26 10:14:18.578125
528,6.58,2022-10-26 10:14:18.593750
529,6.39,2022-10-26 10:14:18.609375
530,5.62,2022-10-26 10:14:18.625000
531,4.21,2022-10-26 10:14:18.640625
532,2.27,2022-10-26 10:14:18.656250
533,-0.0,2022-10-26 10:14:18.671875
534,-2.43,2022-10-26 10:14:18.687500
535,-4.91,2022-10-26 10:14:18.703125
536,-7.49,2022-10-26 10:14:18.718750
537,-10.27,2022-10-26 10:14:18.734375
538,-13.4,2022-10-26 10:14:18.750000
539,-17.07,2022-10-26 10:14:18.765625
540,-21.45,2022-10-26 10:14:18.781250
541,-26.57,2022-10-26 10:14:18.796875
542,-32.21,2022-10-26 10:14:18.812500
543,-37.7,2022-10-26 10:14:18.828125
544,-41.97,2022-10-26 10:14:18.843750
545,-43.89,2022-10-26 10:14:18.859375
546,-42.61,2022-10-26 10:14:18.875000
547,-37.94,2022-10-26 10:14:18.890625
548,-30.58,2022-10-26 10:14:18.906250
549,-21.75,2022-10-26 10:14:18.921875
550,-12.82,2022-10-26 10:14:18.937500
551,-4.81,2022-10-26 10:14:18.953125
552,1.84,2022-10-26 10:14:18.968750
553,7.17,2022-10-26 10:14:18.984375
554,11.44,2022-10-26 10:14:19.000000
555,14.89,2022-10-26 10:14:19.015625
556,17.61,2022-10-26 10:14:19.031250
557,19.53,2022-10-26 10:14:19.046875
558,20.63,2022-10-26 10:14:19.062500
559,21.09,2022-10-26 10:14:19.078125
560,21.14,2022-10-26 10:14:19.093750
561,21.06,2022-10-26 10:14:19.109375
562,20.99,2022-10-26 10:14:19.125000
563,20.84,2022-10-26 10:14:19.140625
564,20.43,2022-10-26 10:14:19.156250
565,19.58,2022-10-26 10:14:19.171875
566,18.23,2022-10-26 10:14:19.187500
567,16.52,2022-10-26 10:14:19.203125
568,14.73,2022-10-26 10:14:19.218750
569,13.23,2022-10-26 10:14:19.234375
570,12.27,2022-10-26 10:14:19.250000
571,11.89,2022-10-26 10:14:19.265625
572,11.93,2022-10-26 10:14:19.281250
573,12.01,2022-10-26 10:14:19.296875
574,11.68,2022-10-26 10:14:19.312500
575,10.53,2022-10-26 10:14:19.328125
576,8.36,2022-10-26 10:14:19.343750
577,5.2,2022-10-26 10:14:19.359375
578,1.35,2022-10-26 10:14:19.375000
579,-2.8,2022-10-26 10:14:19.390625
580,-6.86,2022-10-26 10:14:19.406250
581,-10.62,2022-10-26 10:14:19.421875
582,-14.05,2022-10-26 10:14:19.437500
583,-17.38,2022-10-26 10:14:19.453125
584,-20.95,2022-10-26 10:14:19.468750
585,-25.16,2022-10-26 10:14:19.484375
586,-30.27,2022-10-26 10:14:19.500000
587,-36.32,2022-10-26 10:14:19.515625
588,-42.9,2022-10-26 10:14:19.531250
589,-49.25,2022-10-26 10:14:19.546875
590,-54.26,2022-10-26 10:14:19.562500
591,-56.84,2022-10-26 10:14:19.578125
592,-56.19,2022-10-26 10:14:19.593750
593,-52.04,2022-10-26 10:14:19.609375
594,-44.75,2022-10-26 10:14:19.625000
595,-35.19,2022-10-26 10:14:19.640625
596,-24.52,2022-10-26 10:14:19.656250
597,-13.86,2022-10-26 10:14:19.671875
598,-4.07,2022-10-26 10:14:19.687500
599,4.27,2022-10-26 10:14:19.703125
600,10.91,2022-10-26 10:14:19.718750
601,15.83,2022-10-26 10:14:19.734375
602,19.19,2022-10-26 10:14:19.750000
603,21.24,2022-10-26 10:14:19.765625
604,22.28,2022-10-26 10:14:19.781250
605,22.6,2022-10-26 10:14:19.796875
606,22.35,2022-10-26 10:14:19.812500
607,21.58,2022-10-26 10:14:19.828125
608,20.27,2022-10-26 10:14:19.843750
609,18.38,2022-10-26 10:14:19.859375
610,16.04,2022-10-26 10:14:19.875000
611,13.56,2022-10-26 10:14:19.890625
612,11.41,2022-10-26 10:14:19.906250
613,10.06,2022-10-26 10:14:19.921875
614,9.76,2022-10-26 10:14:19.937500
615,10.42,2022-10-26 10:14:19.953125
616,11.6,2022-10-26 10:14:19.968750
617,12.58,2022-10-26 10:14:19.984375
618,12.71,2022-10-26 10:14:20.000000
619,11.56,2022-10-26 10:14:20.015625
620,9.08,2022-10-26 10:14:20.031250
621,5.49,2022-10-26 10:14:20.046875
622,1.24,2022-10-26 10:14:20.062500
623,-3.2,2022-10-26 10:14:20.078125
624,-7.47,2022-10-26 10:14:20.093750
625,-11.33,2022-10-26 10:14:20.109375
626,-14.75,2022-10-26 10:14:20.125000
627,-17.85,2022-10-26 10:14:20.140625
628,-20.87,2022-10-26 10:14:20.156250
629,-24.02,2022-10-26 10:14:20.171875
630,-27.27,2022-10-26 10:14:20.187500
631,-30.32,2022-10-26 10:14:20.203125
632,-32.56,2022-10-26 10:14:20.218750
633,-33.31,2022-10-26 10:14:20.234375
634,-32.0,2022-10-26 10:14:20.250000
635,-28.42,2022-10-26 10:14:20.265625
636,-22.77,2022-10-26 10:14:20.281250
637,-15.58,2022-10-26 10:14:20.296875
638,-7.66,2022-10-26 10:14:20.312500
639,0.24,2022-10-26 10:14:20.328125
640,7.5,2022-10-26 10:14:20.343750
641,13.66,2022-10-26 10:14:20.359375
642,18.47,2022-10-26 10:14:20.375000
643,21.89,2022-10-26 10:14:20.390625
644,24.0,2022-10-26 10:14:20.406250
645,25.01,2022-10-26 10:14:20.421875
646,25.16,2022-10-26 10:14:20.437500
647,24.7,2022-10-26 10:14:20.453125
648,23.85,2022-10-26 10:14:20.468750
649,22.76,2022-10-26 10:14:20.484375
650,21.59,2022-10-26 10:14:20.500000
651,20.44,2022-10-26 10:14:20.515625
652,19.46,2022-10-26 10:14:20.531250
653,18.7,2022-10-26 10:14:20.546875
654,18.18,2022-10-26 10:14:20.562500
655,17.86,2022-10-26 10:14:20.578125
656,17.67,2022-10-26 10:14:20.593750
657,17.55,2022-10-26 10:14:20.609375
658,17.33,2022-10-26 10:14:20.625000
659,16.85,2022-10-26 10:14:20.640625
660,15.81,2022-10-26 10:14:20.656250
661,13.89,2022-10-26 10:14:20.671875
662,10.87,2022-10-26 10:14:20.687500
663,6.78,2022-10-26 10:14:20.703125
664,1.92,2022-10-26 10:14:20.718750
665,-3.24,2022-10-26 10:14:20.734375
666,-8.22,2022-10-26 10:14:20.750000
667,-12.82,2022-10-26 10:14:20.765625
668,-17.19,2022-10-26 10:14:20.781250
669,-21.72,2022-10-26 10:14:20.796875
670,-26.87,2022-10-26 10:14:20.812500
671,-32.94,2022-10-26 10:14:20.828125
672,-39.76,2022-10-26 10:14:20.843750
673,-46.69,2022-10-26 10:14:20.859375
674,-52.73,2022-10-26 10:14:20.875000
675,-56.7,2022-10-26 10:14:20.890625
676,-57.58,2022-10-26 10:14:20.906250
677,-54.85,2022-10-26 10:14:20.921875
678,-48.57,2022-10-26 10:14:20.937500
679,-39.48,2022-10-26 10:14:20.953125
680,-28.74,2022-10-26 10:14:20.968750
681,-17.66,2022-10-26 10:14:20.984375
682,-7.27,2022-10-26 10:14:21.000000
683,1.73,2022-10-26 10:14:21.015625
684,9.17,2022-10-26 10:14:21.031250
685,15.14,2022-10-26 10:14:21.046875
686,19.89,2022-10-26 10:14:21.062500
687,23.68,2022-10-26 10:14:21.078125
688,26.72,2022-10-26 10:14:21.093750
689,29.17,2022-10-26 10:14:21.109375
690,31.12,2022-10-26 10:14:21.125000
691,32.65,2022-10-26 10:14:21.140625
692,33.8,2022-10-26 10:14:21.156250
693,34.59,2022-10-26 10:14:21.171875
694,35.02,2022-10-26 10:14:21.187500
695,35.08,2022-10-26 10:14:21.203125
696,34.73,2022-10-26 10:14:21.218750
697,34.02,2022-10-26 10:14:21.234375
698,33.06,2022-10-26 10:14:21.250000
699,32.02,2022-10-26 10:14:21.265625
700,31.07,2022-10-26 10:14:21.281250
701,30.2,2022-10-26 10:14:21.296875
702,29.27,2022-10-26 10:14:21.312500
703,27.92,2022-10-26 10:14:21.328125
704,25.66,2022-10-26 10:14:21.343750
705,22.11,2022-10-26 10:14:21.359375
706,17.11,2022-10-26 10:14:21.375000
707,10.91,2022-10-26 10:14:21.390625
708,4.04,2022-10-26 10:14:21.406250
709,-2.83,2022-10-26 10:14:21.421875
710,-9.09,2022-10-26 10:14:21.437500
711,-14.43,2022-10-26 10:14:21.453125
712,-18.92,2022-10-26 10:14:21.468750
713,-22.94,2022-10-26 10:14:21.484375
714,-27.11,2022-10-26 10:14:21.500000
715,-32.05,2022-10-26 10:14:21.515625
716,-38.17,2022-10-26 10:14:21.531250
717,-45.41,2022-10-26 10:14:21.546875
718,-53.16,2022-10-26 10:14:21.562500
719,-60.2,2022-10-26 10:14:21.578125
720,-65.06,2022-10-26 10:14:21.593750
721,-66.36,2022-10-26 10:14:21.609375
722,-63.26,2022-10-26 10:14:21.625000
723,-55.88,2022-10-26 10:14:21.640625
724,-45.18,2022-10-26 10:14:21.656250
725,-32.64,2022-10-26 10:14:21.671875
726,-19.86,2022-10-26 10:14:21.687500
727,-7.95,2022-10-26 10:14:21.703125
728,2.47,2022-10-26 10:14:21.718750
729,11.29,2022-10-26 10:14:21.734375
730,18.69,2022-10-26 10:14:21.750000
731,24.9,2022-10-26 10:14:21.765625
732,30.06,2022-10-26 10:14:21.781250
733,34.26,2022-10-26 10:14:21.796875
734,37.5,2022-10-26 10:14:21.812500
735,39.84,2022-10-26 10:14:21.828125
736,41.28,2022-10-26 10:14:21.843750
737,41.95,2022-10-26 10:14:21.859375
738,41.93,2022-10-26 10:14:21.875000
739,41.4,2022-10-26 10:14:21.890625
740,40.54,2022-10-26 10:14:21.906250
741,39.55,2022-10-26 10:14:21.921875
742,38.55,2022-10-26 10:14:21.937500
743,37.61,2022-10-26 10:14:21.953125
744,36.77,2022-10-26 10:14:21.968750
745,36.0,2022-10-26 10:14:21.984375
746,35.29,2022-10-26 10:14:22.000000
747,34.56,2022-10-26 10:14:22.015625
748,33.73,2022-10-26 10:14:22.031250
749,32.62,2022-10-26 10:14:22.046875
750,31.0,2022-10-26 10:14:22.062500
751,28.65,2022-10-26 10:14:22.078125
752,25.43,2022-10-26 10:14:22.093750
753,21.32,2022-10-26 10:14:22.109375
754,16.43,2022-10-26 10:14:22.125000
755,11.03,2022-10-26 10:14:22.140625
756,5.43,2022-10-26 10:14:22.156250
757,-0.07,2022-10-26 10:14:22.171875
758,-5.25,2022-10-26 10:14:22.187500
759,-9.99,2022-10-26 10:14:22.203125
760,-14.32,2022-10-26 10:14:22.218750
761,-18.44,2022-10-26 10:14:22.234375
762,-22.64,2022-10-26 10:14:22.250000
763,-27.26,2022-10-26 10:14:22.265625
764,-32.62,2022-10-26 10:14:22.281250
765,-38.87,2022-10-26 10:14:22.296875
766,-45.83,2022-10-26 10:14:22.312500
767,-52.83,2022-10-26 10:14:22.328125
768,-58.76,2022-10-26 10:14:22.343750
769,-62.27,2022-10-26 10:14:22.359375
770,-62.16,2022-10-26 10:14:22.375000
771,-57.84,2022-10-26 10:14:22.390625
772,-49.45,2022-10-26 10:14:22.406250
773,-37.89,2022-10-26 10:14:22.421875
774,-24.51,2022-10-26 10:14:22.437500
775,-10.77,2022-10-26 10:14:22.453125
776,2.08,2022-10-26 10:14:22.468750
777,13.14,2022-10-26 10:14:22.484375
778,21.97,2022-10-26 10:14:22.500000
779,28.43,2022-10-26 10:14:22.515625
780,32.7,2022-10-26 10:14:22.531250
781,35.2,2022-10-26 10:14:22.546875
782,36.45,2022-10-26 10:14:22.562500
783,36.98,2022-10-26 10:14:22.578125
784,37.13,2022-10-26 10:14:22.593750
785,37.07,2022-10-26 10:14:22.609375
786,36.77,2022-10-26 10:14:22.625000
787,36.13,2022-10-26 10:14:22.640625
788,35.17,2022-10-26 10:14:22.656250
789,33.97,2022-10-26 10:14:22.671875
790,32.69,2022-10-26 10:14:22.687500
791,31.44,2022-10-26 10:14:22.703125
792,30.24,2022-10-26 10:14:22.718750
793,29.05,2022-10-26 10:14:22.734375
794,27.79,2022-10-26 10:14:22.750000
795,26.5,2022-10-26 10:14:22.765625
796,25.28,2022-10-26 10:14:22.781250
797,24.22,2022-10-26 10:14:22.796875
798,23.35,2022-10-26 10:14:22.812500
799,22.51,2022-10-26 10:14:22.828125
800,21.43,2022-10-26 10:14:22.843750
801,19.8,2022-10-26 10:14:22.859375
802,17.38,2022-10-26 10:14:22.875000
803,14.1,2022-10-26 10:14:22.890625
804,10.09,2022-10-26 10:14:22.906250
805,5.58,2022-10-26 10:14:22.921875
806,0.86,2022-10-26 10:14:22.937500
807,-3.78,2022-10-26 10:14:22.953125
808,-8.17,2022-10-26 10:14:22.968750
809,-12.22,2022-10-26 10:14:22.984375
810,-15.97,2022-10-26 10:14:23.000000
811,-19.59,2022-10-26 10:14:23.015625
812,-23.39,2022-10-26 10:14:23.031250
813,-27.75,2022-10-26 10:14:23.046875
814,-32.96,2022-10-26 10:14:23.062500
815,-39.05,2022-10-26 10:14:23.078125
816,-45.55,2022-10-26 10:14:23.093750
817,-51.5,2022-10-26 10:14:23.109375
818,-55.6,2022-10-26 10:14:23.125000
819,-56.54,2022-10-26 10:14:23.140625
820,-53.51,2022-10-26 10:14:23.156250
821,-46.43,2022-10-26 10:14:23.171875
822,-36.07,2022-10-26 10:14:23.187500
823,-23.81,2022-10-26 10:14:23.203125
824,-11.17,2022-10-26 10:14:23.218750
825,0.47,2022-10-26 10:14:23.234375
826,10.28,2022-10-26 10:14:23.250000
827,17.9,2022-10-26 10:14:23.265625
828,23.42,2022-10-26 10:14:23.281250
829,27.14,2022-10-26 10:14:23.296875
830,29.43,2022-10-26 10:14:23.312500
831,30.69,2022-10-26 10:14:23.328125
832,31.26,2022-10-26 10:14:23.343750
833,31.43,2022-10-26 10:14:23.359375
834,31.46,2022-10-26 10:14:23.375000
835,31.46,2022-10-26 10:14:23.390625
836,31.42,2022-10-26 10:14:23.406250
837,31.27,2022-10-26 10:14:23.421875
838,30.88,2022-10-26 10:14:23.437500
839,30.19,2022-10-26 10:14:23.453125
840,29.23,2022-10-26 10:14:23.468750
841,28.17,2022-10-26 10:14:23.484375
842,27.17,2022-10-26 10:14:23.500000
843,26.36,2022-10-26 10:14:23.515625
844,25.7,2022-10-26 10:14:23.531250
845,24.93,2022-10-26 10:14:23.546875
846,23.69,2022-10-26 10:14:23.562500
847,21.64,2022-10-26 10:14:23.578125
848,18.58,2022-10-26 10:14:23.593750
849,14.57,2022-10-26 10:14:23.609375
850,9.84,2022-10-26 10:14:23.625000
851,4.71,2022-10-26 10:14:23.640625
852,-0.46,2022-10-26 10:14:23.656250
853,-5.43,2022-10-26 10:14:23.671875
854,-10.14,2022-10-26 10:14:23.687500
855,-14.77,2022-10-26 10:14:23.703125
856,-19.61,2022-10-26 10:14:23.718750
857,-25.06,2022-10-26 10:14:23.734375
858,-31.29,2022-10-26 10:14:23.750000
859,-38.08,2022-10-26 10:14:23.765625
860,-44.59,2022-10-26 10:14:23.781250
861,-49.53,2022-10-26 10:14:23.796875
862,-51.47,2022-10-26 10:14:23.812500
863,-49.42,2022-10-26 10:14:23.828125
864,-43.19,2022-10-26 10:14:23.843750
865,-33.54,2022-10-26 10:14:23.859375
866,-21.94,2022-10-26 10:14:23.875000
867,-9.99,2022-10-26 10:14:23.890625
868,1.02,2022-10-26 10:14:23.906250
869,10.41,2022-10-26 10:14:23.921875
870,18.04,2022-10-26 10:14:23.937500
871,24.17,2022-10-26 10:14:23.953125
872,29.08,2022-10-26 10:14:23.968750
873,32.97,2022-10-26 10:14:23.984375
874,35.85,2022-10-26 10:14:24.000000
875,37.72,2022-10-26 10:14:24.015625
876,38.63,2022-10-26 10:14:24.031250
877,38.73,2022-10-26 10:14:24.046875
878,38.23,2022-10-26 10:14:24.062500
879,37.33,2022-10-26 10:14:24.078125
880,36.08,2022-10-26 10:14:24.093750
881,34.42,2022-10-26 10:14:24.109375
882,32.31,2022-10-26 10:14:24.125000
883,29.75,2022-10-26 10:14:24.140625
884,26.92,2022-10-26 10:14:24.156250
885,24.18,2022-10-26 10:14:24.171875
886,21.94,2022-10-26 10:14:24.187500
887,20.46,2022-10-26 10:14:24.203125
888,19.74,2022-10-26 10:14:24.218750
889,19.45,2022-10-26 10:14:24.234375
890,19.01,2022-10-26 10:14:24.250000
891,17.86,2022-10-26 10:14:24.265625
892,15.6,2022-10-26 10:14:24.281250
893,12.16,2022-10-26 10:14:24.296875
894,7.86,2022-10-26 10:14:24.312500
895,3.17,2022-10-26 10:14:24.328125
896,-1.43,2022-10-26 10:14:24.343750
897,-5.59,2022-10-26 10:14:24.359375
898,-9.27,2022-10-26 10:14:24.375000
899,-12.68,2022-10-26 10:14:24.390625
900,-16.26,2022-10-26 10:14:24.406250
901,-20.49,2022-10-26 10:14:24.421875
902,-25.8,2022-10-26 10:14:24.437500
903,-32.38,2022-10-26 10:14:24.453125
904,-40.06,2022-10-26 10:14:24.468750
905,-48.11,2022-10-26 10:14:24.484375
906,-55.39,2022-10-26 10:14:24.500000
907,-60.44,2022-10-26 10:14:24.515625
908,-61.96,2022-10-26 10:14:24.531250
909,-59.18,2022-10-26 10:14:24.546875
910,-52.14,2022-10-26 10:14:24.562500
911,-41.72,2022-10-26 10:14:24.578125
912,-29.34,2022-10-26 10:14:24.593750
913,-16.58,2022-10-26 10:14:24.609375
914,-4.75,2022-10-26 10:14:24.625000
915,5.33,2022-10-26 10:14:24.640625
916,13.39,2022-10-26 10:14:24.656250
917,19.55,2022-10-26 10:14:24.671875
918,24.14,2022-10-26 10:14:24.687500
919,27.59,2022-10-26 10:14:24.703125
920,30.24,2022-10-26 10:14:24.718750
921,32.32,2022-10-26 10:14:24.734375
922,33.93,2022-10-26 10:14:24.750000
923,35.12,2022-10-26 10:14:24.765625
924,35.86,2022-10-26 10:14:24.781250
925,36.12,2022-10-26 10:14:24.796875
926,35.98,2022-10-26 10:14:24.812500
927,35.45,2022-10-26 10:14:24.828125
928,34.66,2022-10-26 10:14:24.843750
929,33.67,2022-10-26 10:14:24.859375
930,32.6,2022-10-26 10:14:24.875000
931,31.5,2022-10-26 10:14:24.890625
932,30.39,2022-10-26 10:14:24.906250
933,29.28,2022-10-26 10:14:24.921875
934,28.09,2022-10-26 10:14:24.937500
935,26.77,2022-10-26 10:14:24.953125
936,25.22,2022-10-26 10:14:24.968750
937,23.33,2022-10-26 10:14:24.984375
938,21.0,2022-10-26 10:14:25.000000
939,18.16,2022-10-26 10:14:25.015625
940,14.78,2022-10-26 10:14:25.031250
941,10.9,2022-10-26 10:14:25.046875
942,6.65,2022-10-26 10:14:25.062500
943,2.21,2022-10-26 10:14:25.078125
944,-2.15,2022-10-26 10:14:25.093750
945,-6.27,2022-10-26 10:14:25.109375
946,-10.02,2022-10-26 10:14:25.125000
947,-13.43,2022-10-26 10:14:25.140625
948,-16.63,2022-10-26 10:14:25.156250
949,-19.86,2022-10-26 10:14:25.171875
950,-23.4,2022-10-26 10:14:25.187500
951,-27.5,2022-10-26 10:14:25.203125
952,-32.38,2022-10-26 10:14:25.218750
953,-38.02,2022-10-26 10:14:25.234375
954,-44.12,2022-10-26 10:14:25.250000
955,-49.98,2022-10-26 10:14:25.265625
956,-54.64,2022-10-26 10:14:25.281250
957,-57.02,2022-10-26 10:14:25.296875
958,-56.2,2022-10-26 10:14:25.312500
959,-51.79,2022-10-26 10:14:25.328125
960,-44.05,2022-10-26 10:14:25.343750
961,-33.87,2022-10-26 10:14:25.359375
962,-22.56,2022-10-26 10:14:25.375000
963,-11.46,2022-10-26 10:14:25.390625
964,-1.64,2022-10-26 10:14:25.406250
965,6.36,2022-10-26 10:14:25.421875
966,12.49,2022-10-26 10:14:25.437500
967,17.1,2022-10-26 10:14:25.453125
968,20.72,2022-10-26 10:14:25.468750
969,23.82,2022-10-26 10:14:25.484375
970,26.62,2022-10-26 10:14:25.500000
971,29.15,2022-10-26 10:14:25.515625
972,31.24,2022-10-26 10:14:25.531250
973,32.73,2022-10-26 10:14:25.546875
974,33.55,2022-10-26 10:14:25.562500
975,33.77,2022-10-26 10:14:25.578125
976,33.5,2022-10-26 10:14:25.593750
977,32.85,2022-10-26 10:14:25.609375
978,31.8,2022-10-26 10:14:25.625000
979,30.28,2022-10-26 10:14:25.640625
980,28.23,2022-10-26 10:14:25.656250
981,25.78,2022-10-26 10:14:25.671875
982,23.21,2022-10-26 10:14:25.687500
983,20.86,2022-10-26 10:14:25.703125
984,19.01,2022-10-26 10:14:25.718750
985,17.68,2022-10-26 10:14:25.734375
986,16.64,2022-10-26 10:14:25.750000
987,15.48,2022-10-26 10:14:25.765625
988,13.78,2022-10-26 10:14:25.781250
989,11.27,2022-10-26 10:14:25.796875
990,7.93,2022-10-26 10:14:25.812500
991,4.01,2022-10-26 10:14:25.828125
992,-0.12,2022-10-26 10:14:25.843750
993,-4.03,2022-10-26 10:14:25.859375
994,-7.48,2022-10-26 10:14:25.875000
995,-10.46,2022-10-26 10:14:25.890625
996,-13.14,2022-10-26 10:14:25.906250
997,-15.92,2022-10-26 10:14:25.921875
998,-19.24,2022-10-26 10:14:25.937500
999,-23.47,2022-10-26 10:14:25.953125
1000,-28.75,2022-10-26 10:14:25.968750
1001,-34.89,2022-10-26 10:14:25.984375
1002,-41.29,2022-10-26 10:14:26.000000
1003,-46.99,2022-10-26 10:14:26.015625
1004,-50.84,2022-10-26 10:14:26.031250
1005,-51.71,2022-10-26 10:14:26.046875
1006,-48.92,2022-10-26 10:14:26.062500
1007,-42.44,2022-10-26 10:14:26.078125
1008,-32.93,2022-10-26 10:14:26.093750
1009,-21.59,2022-10-26 10:14:26.109375
1010,-9.86,2022-10-26 10:14:26.125000
1011,1.03,2022-10-26 10:14:26.140625
1012,10.24,2022-10-26 10:14:26.156250
1013,17.39,2022-10-26 10:14:26.171875
1014,22.49,2022-10-26 10:14:26.187500
1015,25.78,2022-10-26 10:14:26.203125
1016,27.57,2022-10-26 10:14:26.218750
1017,28.19,2022-10-26 10:14:26.234375
1018,27.95,2022-10-26 10:14:26.250000
1019,27.15,2022-10-26 10:14:26.265625
1020,26.02,2022-10-26 10:14:26.281250
1021,24.7,2022-10-26 10:14:26.296875
1022,23.23,2022-10-26 10:14:26.312500
1023,21.6,2022-10-26 10:14:26.328125
1024,19.82,2022-10-26 10:14:26.343750
1025,18.0,2022-10-26 10:14:26.359375
1026,16.33,2022-10-26 10:14:26.375000
1027,15.02,2022-10-26 10:14:26.390625
1028,14.21,2022-10-26 10:14:26.406250
1029,13.86,2022-10-26 10:14:26.421875
1030,13.79,2022-10-26 10:14:26.437500
1031,13.68,2022-10-26 10:14:26.453125
1032,13.24,2022-10-26 10:14:26.468750
1033,12.24,2022-10-26 10:14:26.484375
1034,10.55,2022-10-26 10:14:26.500000
1035,8.12,2022-10-26 10:14:26.515625
1036,5.02,2022-10-26 10:14:26.531250
1037,1.38,2022-10-26 10:14:26.546875
1038,-2.6,2022-10-26 10:14:26.562500
1039,-6.71,2022-10-26 10:14:26.578125
1040,-10.74,2022-10-26 10:14:26.593750
1041,-14.61,2022-10-26 10:14:26.609375
1042,-18.41,2022-10-26 10:14:26.625000
1043,-22.42,2022-10-26 10:14:26.640625
1044,-26.98,2022-10-26 10:14:26.656250
1045,-32.31,2022-10-26 10:14:26.671875
1046,-38.27,2022-10-26 10:14:26.687500
1047,-44.25,2022-10-26 10:14:26.703125
1048,-49.19,2022-10-26 10:14:26.718750
1049,-51.8,2022-10-26 10:14:26.734375
1050,-51.03,2022-10-26 10:14:26.750000
1051,-46.41,2022-10-26 10:14:26.765625
1052,-38.26,2022-10-26 10:14:26.781250
1053,-27.67,2022-10-26 10:14:26.796875
1054,-16.11,2022-10-26 10:14:26.812500
1055,-5.01,2022-10-26 10:14:26.828125
1056,4.67,2022-10-26 10:14:26.843750
1057,12.51,2022-10-26 10:14:26.859375
1058,18.62,2022-10-26 10:14:26.875000
1059,23.29,2022-10-26 10:14:26.890625
1060,26.84,2022-10-26 10:14:26.906250
1061,29.47,2022-10-26 10:14:26.921875
1062,31.26,2022-10-26 10:14:26.937500
1063,32.28,2022-10-26 10:14:26.953125
1064,32.66,2022-10-26 10:14:26.968750
1065,32.61,2022-10-26 10:14:26.984375
1066,32.32,2022-10-26 10:14:27.000000
1067,31.88,2022-10-26 10:14:27.015625
1068,31.21,2022-10-26 10:14:27.031250
1069,30.21,2022-10-26 10:14:27.046875
1070,28.76,2022-10-26 10:14:27.062500
1071,26.81,2022-10-26 10:14:27.078125
1072,24.5,2022-10-26 10:14:27.093750
1073,22.09,2022-10-26 10:14:27.109375
1074,19.87,2022-10-26 10:14:27.125000
1075,18.05,2022-10-26 10:14:27.140625
1076,16.68,2022-10-26 10:14:27.156250
1077,15.61,2022-10-26 10:14:27.171875
1078,14.51,2022-10-26 10:14:27.187500
1079,13.03,2022-10-26 10:14:27.203125
1080,10.87,2022-10-26 10:14:27.218750
1081,7.91,2022-10-26 10:14:27.234375
1082,4.2,2022-10-26 10:14:27.250000
1083,-0.06,2022-10-26 10:14:27.265625
1084,-4.59,2022-10-26 10:14:27.281250
1085,-9.06,2022-10-26 10:14:27.296875
1086,-13.22,2022-10-26 10:14:27.312500
1087,-16.87,2022-10-26 10:14:27.328125
1088,-19.95,2022-10-26 10:14:27.343750
1089,-22.6,2022-10-26 10:14:27.359375
1090,-25.04,2022-10-26 10:14:27.375000
1091,-27.69,2022-10-26 10:14:27.390625
1092,-30.94,2022-10-26 10:14:27.406250
1093,-35.13,2022-10-26 10:14:27.421875
1094,-40.23,2022-10-26 10:14:27.437500
1095,-45.88,2022-10-26 10:14:27.453125
1096,-51.2,2022-10-26 10:14:27.468750
1097,-55.02,2022-10-26 10:14:27.484375
1098,-56.16,2022-10-26 10:14:27.500000
1099,-53.81,2022-10-26 10:14:27.515625
1100,-47.88,2022-10-26 10:14:27.531250
1101,-39.06,2022-10-26 10:14:27.546875
1102,-28.55,2022-10-26 10:14:27.562500
1103,-17.68,2022-10-26 10:14:27.578125
1104,-7.57,2022-10-26 10:14:27.593750
1105,1.2,2022-10-26 10:14:27.609375
1106,8.44,2022-10-26 10:14:27.625000
1107,14.22,2022-10-26 10:14:27.640625
1108,18.72,2022-10-26 10:14:27.656250
1109,22.1,2022-10-26 10:14:27.671875
1110,24.56,2022-10-26 10:14:27.687500
1111,26.36,2022-10-26 10:14:27.703125
1112,27.77,2022-10-26 10:14:27.718750
1113,28.98,2022-10-26 10:14:27.734375
1114,30.07,2022-10-26 10:14:27.750000
1115,30.95,2022-10-26 10:14:27.765625
1116,31.48,2022-10-26 10:14:27.781250
1117,31.57,2022-10-26 10:14:27.796875
1118,31.28,2022-10-26 10:14:27.812500
1119,30.78,2022-10-26 10:14:27.828125
1120,30.32,2022-10-26 10:14:27.843750
1121,30.1,2022-10-26 10:14:27.859375
1122,30.17,2022-10-26 10:14:27.875000
1123,30.49,2022-10-26 10:14:27.890625
1124,30.8,2022-10-26 10:14:27.906250
1125,30.78,2022-10-26 10:14:27.921875
1126,30.12,2022-10-26 10:14:27.937500
1127,28.56,2022-10-26 10:14:27.953125
1128,26.07,2022-10-26 10:14:27.968750
1129,22.78,2022-10-26 10:14:27.984375
1130,18.95,2022-10-26 10:14:28.000000
1131,14.81,2022-10-26 10:14:28.015625
1132,10.55,2022-10-26 10:14:28.031250
1133,6.19,2022-10-26 10:14:28.046875
1134,1.66,2022-10-26 10:14:28.062500
1135,-3.06,2022-10-26 10:14:28.078125
1136,-7.98,2022-10-26 10:14:28.093750
1137,-12.92,2022-10-26 10:14:28.109375
1138,-17.69,2022-10-26 10:14:28.125000
1139,-22.1,2022-10-26 10:14:28.140625
1140,-26.1,2022-10-26 10:14:28.156250
1141,-29.81,2022-10-26 10:14:28.171875
1142,-33.57,2022-10-26 10:14:28.187500
1143,-37.78,2022-10-26 10:14:28.203125
1144,-42.74,2022-10-26 10:14:28.218750
1145,-48.49,2022-10-26 10:14:28.234375
1146,-54.59,2022-10-26 10:14:28.250000
1147,-60.14,2022-10-26 10:14:28.265625
1148,-63.94,2022-10-26 10:14:28.281250
1149,-64.77,2022-10-26 10:14:28.296875
1150,-61.82,2022-10-26 10:14:28.312500
1151,-54.93,2022-10-26 10:14:28.328125
1152,-44.7,2022-10-26 10:14:28.343750
1153,-32.34,2022-10-26 10:14:28.359375
1154,-19.34,2022-10-26 10:14:28.375000
1155,-7.03,2022-10-26 10:14:28.390625
1156,3.68,2022-10-26 10:14:28.406250
1157,12.36,2022-10-26 10:14:28.421875
1158,19.07,2022-10-26 10:14:28.437500
1159,24.08,2022-10-26 10:14:28.453125
1160,27.72,2022-10-26 10:14:28.468750
1161,30.21,2022-10-26 10:14:28.484375
1162,31.68,2022-10-26 10:14:28.500000
1163,32.21,2022-10-26 10:14:28.515625
1164,31.87,2022-10-26 10:14:28.531250
1165,30.81,2022-10-26 10:14:28.546875
1166,29.26,2022-10-26 10:14:28.562500
1167,27.46,2022-10-26 10:14:28.578125
1168,25.65,2022-10-26 10:14:28.593750
1169,24.02,2022-10-26 10:14:28.609375
1170,22.67,2022-10-26 10:14:28.625000
1171,21.62,2022-10-26 10:14:28.640625
1172,20.82,2022-10-26 10:14:28.656250
1173,20.21,2022-10-26 10:14:28.671875
1174,19.75,2022-10-26 10:14:28.687500
1175,19.4,2022-10-26 10:14:28.703125
1176,19.15,2022-10-26 10:14:28.718750
1177,18.97,2022-10-26 10:14:28.734375
1178,18.74,2022-10-26 10:14:28.750000
1179,18.22,2022-10-26 10:14:28.765625
1180,17.12,2022-10-26 10:14:28.781250
1181,15.19,2022-10-26 10:14:28.796875
1182,12.32,2022-10-26 10:14:28.812500
1183,8.62,2022-10-26 10:14:28.828125
1184,4.41,2022-10-26 10:14:28.843750
1185,0.08,2022-10-26 10:14:28.859375
1186,-4.06,2022-10-26 10:14:28.875000
1187,-7.92,2022-10-26 10:14:28.890625
1188,-11.56,2022-10-26 10:14:28.906250
1189,-15.23,2022-10-26 10:14:28.921875
1190,-19.15,2022-10-26 10:14:28.937500
1191,-23.52,2022-10-26 10:14:28.953125
1192,-28.44,2022-10-26 10:14:28.968750
1193,-33.89,2022-10-26 10:14:28.984375
1194,-39.71,2022-10-26 10:14:29.000000
1195,-45.49,2022-10-26 10:14:29.015625
1196,-50.52,2022-10-26 10:14:29.031250
1197,-53.88,2022-10-26 10:14:29.046875
1198,-54.59,2022-10-26 10:14:29.062500
1199,-51.98,2022-10-26 10:14:29.078125
1200,-45.9,2022-10-26 10:14:29.093750
1201,-36.92,2022-10-26 10:14:29.109375
1202,-26.09,2022-10-26 10:14:29.125000
1203,-14.7,2022-10-26 10:14:29.140625
1204,-3.92,2022-10-26 10:14:29.156250
1205,5.41,2022-10-26 10:14:29.171875
1206,12.88,2022-10-26 10:14:29.187500
1207,18.4,2022-10-26 10:14:29.203125
1208,22.15,2022-10-26 10:14:29.218750
1209,24.46,2022-10-26 10:14:29.234375
1210,25.67,2022-10-26 10:14:29.250000
1211,26.16,2022-10-26 10:14:29.265625
1212,26.22,2022-10-26 10:14:29.281250
1213,26.04,2022-10-26 10:14:29.296875
1214,25.69,2022-10-26 10:14:29.312500
1215,25.16,2022-10-26 10:14:29.328125
1216,24.41,2022-10-26 10:14:29.343750
1217,23.39,2022-10-26 10:14:29.359375
1218,22.1,2022-10-26 10:14:29.375000
1219,20.61,2022-10-26 10:14:29.390625
1220,19.04,2022-10-26 10:14:29.406250
1221,17.56,2022-10-26 10:14:29.421875
1222,16.27,2022-10-26 10:14:29.437500
1223,15.18,2022-10-26 10:14:29.453125
1224,14.12,2022-10-26 10:14:29.468750
1225,12.78,2022-10-26 10:14:29.484375
1226,10.83,2022-10-26 10:14:29.500000
1227,8.02,2022-10-26 10:14:29.515625
1228,4.34,2022-10-26 10:14:29.531250
1229,-0.0,2022-10-26 10:14:29.546875
1230,-4.62,2022-10-26 10:14:29.562500
1231,-9.12,2022-10-26 10:14:29.578125
1232,-13.18,2022-10-26 10:14:29.593750
1233,-16.76,2022-10-26 10:14:29.609375
1234,-20.06,2022-10-26 10:14:29.625000
1235,-23.5,2022-10-26 10:14:29.640625
1236,-27.55,2022-10-26 10:14:29.656250
1237,-32.56,2022-10-26 10:14:29.671875
1238,-38.48,2022-10-26 10:14:29.687500
1239,-44.7,2022-10-26 10:14:29.703125
1240,-50.13,2022-10-26 10:14:29.718750
1241,-53.43,2022-10-26 10:14:29.734375
1242,-53.45,2022-10-26 10:14:29.750000
1243,-49.57,2022-10-26 10:14:29.765625
1244,-41.97,2022-10-26 10:14:29.781250
1245,-31.62,2022-10-26 10:14:29.796875
1246,-19.95,2022-10-26 10:14:29.812500
1247,-8.43,2022-10-26 10:14:29.828125
1248,1.81,2022-10-26 10:14:29.843750
1249,10.19,2022-10-26 10:14:29.859375
1250,16.66,2022-10-26 10:14:29.875000
1251,21.53,2022-10-26 10:14:29.890625
1252,25.18,2022-10-26 10:14:29.906250
1253,27.91,2022-10-26 10:14:29.921875
1254,29.88,2022-10-26 10:14:29.937500
1255,31.08,2022-10-26 10:14:29.953125
1256,31.51,2022-10-26 10:14:29.968750
1257,31.24,2022-10-26 10:14:29.984375
1258,30.47,2022-10-26 10:14:30.000000
1259,29.39,2022-10-26 10:14:30.015625
1260,28.15,2022-10-26 10:14:30.031250
1261,26.8,2022-10-26 10:14:30.046875
1262,25.28,2022-10-26 10:14:30.062500
1263,23.48,2022-10-26 10:14:30.078125
1264,21.38,2022-10-26 10:14:30.093750
1265,19.07,2022-10-26 10:14:30.109375
1266,16.72,2022-10-26 10:14:30.125000
1267,14.54,2022-10-26 10:14:30.140625
1268,12.61,2022-10-26 10:14:30.156250
1269,10.87,2022-10-26 10:14:30.171875
1270,9.05,2022-10-26 10:14:30.187500
1271,6.83,2022-10-26 10:14:30.203125
1272,3.99,2022-10-26 10:14:30.218750
1273,0.54,2022-10-26 10:14:30.234375
1274,-3.28,2022-10-26 10:14:30.250000
1275,-7.14,2022-10-26 10:14:30.265625
1276,-10.73,2022-10-26 10:14:30.281250
1277,-13.95,2022-10-26 10:14:30.296875
1278,-16.9,2022-10-26 10:14:30.312500
1279,-19.87,2022-10-26 10:14:30.328125
1280,-23.23,2022-10-26 10:14:30.343750
1281,-27.28,2022-10-26 10:14:30.359375
1282,-32.27,2022-10-26 10:14:30.375000
1283,-38.23,2022-10-26 10:14:30.390625
1284,-44.92,2022-10-26 10:14:30.406250
1285,-51.67,2022-10-26 10:14:30.421875
1286,-57.45,2022-10-26 10:14:30.437500
1287,-60.92,2022-10-26 10:14:30.453125
1288,-60.87,2022-10-26 10:14:30.468750
1289,-56.65,2022-10-26 10:14:30.484375
1290,-48.37,2022-10-26 10:14:30.500000
1291,-37.07,2022-10-26 10:14:30.515625
1292,-24.27,2022-10-26 10:14:30.531250
1293,-11.6,2022-10-26 10:14:30.546875
1294,-0.31,2022-10-26 10:14:30.562500
1295,8.95,2022-10-26 10:14:30.578125
1296,16.14,2022-10-26 10:14:30.593750
1297,21.58,2022-10-26 10:14:30.609375
1298,25.72,2022-10-26 10:14:30.625000
1299,28.89,2022-10-26 10:14:30.640625
1300,31.27,2022-10-26 10:14:30.656250
1301,32.93,2022-10-26 10:14:30.671875
1302,33.88,2022-10-26 10:14:30.687500
1303,34.21,2022-10-26 10:14:30.703125
1304,34.01,2022-10-26 10:14:30.718750
1305,33.36,2022-10-26 10:14:30.734375
1306,32.39,2022-10-26 10:14:30.750000
1307,31.18,2022-10-26 10:14:30.765625
1308,29.75,2022-10-26 10:14:30.781250
1309,28.14,2022-10-26 10:14:30.796875
1310,26.38,2022-10-26 10:14:30.812500
1311,24.56,2022-10-26 10:14:30.828125
1312,22.83,2022-10-26 10:14:30.843750
1313,21.36,2022-10-26 10:14:30.859375
1314,20.2,2022-10-26 10:14:30.875000
1315,19.27,2022-10-26 10:14:30.890625
1316,18.22,2022-10-26 10:14:30.906250
1317,16.65,2022-10-26 10:14:30.921875
1318,14.17,2022-10-26 10:14:30.937500
1319,10.61,2022-10-26 10:14:30.953125
1320,6.13,2022-10-26 10:14:30.968750
1321,1.12,2022-10-26 10:14:30.984375
1322,-3.91,2022-10-26 10:14:31.000000
1323,-8.64,2022-10-26 10:14:31.015625
1324,-12.89,2022-10-26 10:14:31.031250
1325,-16.73,2022-10-26 10:14:31.046875
1326,-20.34,2022-10-26 10:14:31.062500
1327,-23.9,2022-10-26 10:14:31.078125
1328,-27.7,2022-10-26 10:14:31.093750
1329,-31.99,2022-10-26 10:14:31.109375
1330,-37.01,2022-10-26 10:14:31.125000
1331,-42.81,2022-10-26 10:14:31.140625
1332,-49.09,2022-10-26 10:14:31.156250
1333,-55.08,2022-10-26 10:14:31.171875
1334,-59.62,2022-10-26 10:14:31.187500
1335,-61.45,2022-10-26 10:14:31.203125
1336,-59.6,2022-10-26 10:14:31.218750
1337,-53.8,2022-10-26 10:14:31.234375
1338,-44.6,2022-10-26 10:14:31.250000
1339,-33.2,2022-10-26 10:14:31.265625
1340,-21.07,2022-10-26 10:14:31.281250
1341,-9.5,2022-10-26 10:14:31.296875
1342,0.67,2022-10-26 10:14:31.312500
1343,9.1,2022-10-26 10:14:31.328125
1344,15.85,2022-10-26 10:14:31.343750
1345,21.2,2022-10-26 10:14:31.359375
1346,25.41,2022-10-26 10:14:31.375000
1347,28.72,2022-10-26 10:14:31.390625
1348,31.31,2022-10-26 10:14:31.406250
1349,33.32,2022-10-26 10:14:31.421875
1350,34.81,2022-10-26 10:14:31.437500
1351,35.74,2022-10-26 10:14:31.453125
1352,36.07,2022-10-26 10:14:31.468750
1353,35.69,2022-10-26 10:14:31.484375
1354,34.66,2022-10-26 10:14:31.500000
1355,33.14,2022-10-26 10:14:31.515625
1356,31.42,2022-10-26 10:14:31.531250
1357,29.79,2022-10-26 10:14:31.546875
1358,28.42,2022-10-26 10:14:31.562500
1359,27.3,2022-10-26 10:14:31.578125
1360,26.28,2022-10-26 10:14:31.593750
1361,25.14,2022-10-26 10:14:31.609375
1362,23.72,2022-10-26 10:14:31.625000
1363,22.01,2022-10-26 10:14:31.640625
1364,20.05,2022-10-26 10:14:31.656250
1365,17.9,2022-10-26 10:14:31.671875
1366,15.57,2022-10-26 10:14:31.687500
1367,12.95,2022-10-26 10:14:31.703125
1368,9.93,2022-10-26 10:14:31.718750
1369,6.48,2022-10-26 10:14:31.734375
1370,2.71,2022-10-26 10:14:31.750000
1371,-1.21,2022-10-26 10:14:31.765625
1372,-5.11,2022-10-26 10:14:31.781250
1373,-8.89,2022-10-26 10:14:31.796875
1374,-12.6,2022-10-26 10:14:31.812500
1375,-16.32,2022-10-26 10:14:31.828125
1376,-20.13,2022-10-26 10:14:31.843750
1377,-24.09,2022-10-26 10:14:31.859375
1378,-28.24,2022-10-26 10:14:31.875000
1379,-32.67,2022-10-26 10:14:31.890625
1380,-37.56,2022-10-26 10:14:31.906250
1381,-43.0,2022-10-26 10:14:31.921875
1382,-48.75,2022-10-26 10:14:31.937500
1383,-54.13,2022-10-26 10:14:31.953125
1384,-58.0,2022-10-26 10:14:31.968750
1385,-59.14,2022-10-26 10:14:31.984375
1386,-56.67,2022-10-26 10:14:32.000000
1387,-50.44,2022-10-26 10:14:32.015625
1388,-41.1,2022-10-26 10:14:32.031250
1389,-29.93,2022-10-26 10:14:32.046875
1390,-18.33,2022-10-26 10:14:32.062500
1391,-7.5,2022-10-26 10:14:32.078125
1392,1.81,2022-10-26 10:14:32.093750
1393,9.28,2022-10-26 10:14:32.109375
1394,14.91,2022-10-26 10:14:32.125000
1395,18.78,2022-10-26 10:14:32.140625
1396,21.05,2022-10-26 10:14:32.156250
1397,22.01,2022-10-26 10:14:32.171875
1398,22.02,2022-10-26 10:14:32.187500
1399,21.55,2022-10-26 10:14:32.203125
1400,21.03,2022-10-26 10:14:32.218750
1401,20.74,2022-10-26 10:14:32.234375
1402,20.72,2022-10-26 10:14:32.250000
1403,20.8,2022-10-26 10:14:32.265625
1404,20.72,2022-10-26 10:14:32.281250
1405,20.33,2022-10-26 10:14:32.296875
1406,19.64,2022-10-26 10:14:32.312500
1407,18.85,2022-10-26 10:14:32.328125
1408,18.32,2022-10-26 10:14:32.343750
1409,18.33,2022-10-26 10:14:32.359375
1410,18.96,2022-10-26 10:14:32.375000
1411,20.03,2022-10-26 10:14:32.390625
1412,21.1,2022-10-26 10:14:32.406250
1413,21.61,2022-10-26 10:14:32.421875
1414,21.05,2022-10-26 10:14:32.437500
1415,19.16,2022-10-26 10:14:32.453125
1416,15.92,2022-10-26 10:14:32.468750
1417,11.6,2022-10-26 10:14:32.484375
1418,6.65,2022-10-26 10:14:32.500000
1419,1.5,2022-10-26 10:14:32.515625
1420,-3.45,2022-10-26 10:14:32.531250
1421,-8.07,2022-10-26 10:14:32.546875
1422,-12.48,2022-10-26 10:14:32.562500
1423,-17.09,2022-10-26 10:14:32.578125
1424,-22.33,2022-10-26 10:14:32.593750
1425,-28.49,2022-10-26 10:14:32.609375
1426,-35.42,2022-10-26 10:14:32.625000
1427,-42.41,2022-10-26 10:14:32.640625
1428,-48.26,2022-10-26 10:14:32.656250
1429,-51.62,2022-10-26 10:14:32.671875
1430,-51.44,2022-10-26 10:14:32.687500
1431,-47.28,2022-10-26 10:14:32.703125
1432,-39.51,2022-10-26 10:14:32.718750
1433,-29.14,2022-10-26 10:14:32.734375
1434,-17.53,2022-10-26 10:14:32.750000
1435,-5.99,2022-10-26 10:14:32.765625
1436,4.46,2022-10-26 10:14:32.781250
1437,13.23,2022-10-26 10:14:32.796875
1438,20.1,2022-10-26 10:14:32.812500
1439,25.09,2022-10-26 10:14:32.828125
1440,28.36,2022-10-26 10:14:32.843750
1441,30.07,2022-10-26 10:14:32.859375
1442,30.47,2022-10-26 10:14:32.875000
1443,29.87,2022-10-26 10:14:32.890625
1444,28.67,2022-10-26 10:14:32.906250
1445,27.34,2022-10-26 10:14:32.921875
1446,26.23,2022-10-26 10:14:32.937500
1447,25.57,2022-10-26 10:14:32.953125
1448,25.31,2022-10-26 10:14:32.968750
1449,25.29,2022-10-26 10:14:32.984375
1450,25.21,2022-10-26 10:14:33.000000
1451,24.93,2022-10-26 10:14:33.015625
1452,24.45,2022-10-26 10:14:33.031250
1453,23.94,2022-10-26 10:14:33.046875
1454,23.58,2022-10-26 10:14:33.062500
1455,23.41,2022-10-26 10:14:33.078125
1456,23.3,2022-10-26 10:14:33.093750
1457,22.98,2022-10-26 10:14:33.109375
1458,22.05,2022-10-26 10:14:33.125000
1459,20.17,2022-10-26 10:14:33.140625
1460,17.11,2022-10-26 10:14:33.156250
1461,12.82,2022-10-26 10:14:33.171875
1462,7.49,2022-10-26 10:14:33.187500
1463,1.45,2022-10-26 10:14:33.203125
1464,-4.81,2022-10-26 10:14:33.218750
1465,-10.79,2022-10-26 10:14:33.234375
1466,-16.1,2022-10-26 10:14:33.250000
1467,-20.6,2022-10-26 10:14:33.265625
1468,-24.51,2022-10-26 10:14:33.281250
1469,-28.27,2022-10-26 10:14:33.296875
1470,-32.47,2022-10-26 10:14:33.312500
1471,-37.55,2022-10-26 10:14:33.328125
1472,-43.57,2022-10-26 10:14:33.343750
1473,-50.08,2022-10-26 10:14:33.359375
1474,-56.08,2022-10-26 10:14:33.375000
1475,-60.33,2022-10-26 10:14:33.390625
1476,-61.57,2022-10-26 10:14:33.406250
1477,-59.02,2022-10-26 10:14:33.421875
1478,-52.55,2022-10-26 10:14:33.437500
1479,-42.87,2022-10-26 10:14:33.453125
1480,-31.22,2022-10-26 10:14:33.468750
1481,-19.08,2022-10-26 10:14:33.484375
1482,-7.74,2022-10-26 10:14:33.500000
1483,1.94,2022-10-26 10:14:33.515625
1484,9.67,2022-10-26 10:14:33.531250
1485,15.61,2022-10-26 10:14:33.546875
1486,20.15,2022-10-26 10:14:33.562500
1487,23.7,2022-10-26 10:14:33.578125
1488,26.55,2022-10-26 10:14:33.593750
1489,28.87,2022-10-26 10:14:33.609375
1490,30.78,2022-10-26 10:14:33.625000
1491,32.33,2022-10-26 10:14:33.640625
1492,33.56,2022-10-26 10:14:33.656250
1493,34.48,2022-10-26 10:14:33.671875
1494,35.1,2022-10-26 10:14:33.687500
1495,35.36,2022-10-26 10:14:33.703125
1496,35.15,2022-10-26 10:14:33.718750
1497,34.43,2022-10-26 10:14:33.734375
1498,33.2,2022-10-26 10:14:33.750000
1499,31.61,2022-10-26 10:14:33.765625
1500,29.92,2022-10-26 10:14:33.781250
1501,28.39,2022-10-26 10:14:33.796875
1502,27.19,2022-10-26 10:14:33.812500
1503,26.33,2022-10-26 10:14:33.828125
1504,25.62,2022-10-26 10:14:33.843750
1505,24.72,2022-10-26 10:14:33.859375
1506,23.23,2022-10-26 10:14:33.875000
1507,20.87,2022-10-26 10:14:33.890625
1508,17.49,2022-10-26 10:14:33.906250
1509,13.15,2022-10-26 10:14:33.921875
1510,8.07,2022-10-26 10:14:33.937500
1511,2.57,2022-10-26 10:14:33.953125
1512,-3.03,2022-10-26 10:14:33.968750
1513,-8.44,2022-10-26 10:14:33.984375
1514,-13.48,2022-10-26 10:14:34.000000
1515,-18.12,2022-10-26 10:14:34.015625
1516,-22.53,2022-10-26 10:14:34.031250
1517,-27.02,2022-10-26 10:14:34.046875
1518,-32.03,2022-10-26 10:14:34.062500
1519,-37.96,2022-10-26 10:14:34.078125
1520,-44.94,2022-10-26 10:14:34.093750
1521,-52.64,2022-10-26 10:14:34.109375
1522,-60.13,2022-10-26 10:14:34.125000
1523,-66.07,2022-10-26 10:14:34.140625
1524,-69.06,2022-10-26 10:14:34.156250
1525,-68.05,2022-10-26 10:14:34.171875
1526,-62.73,2022-10-26 10:14:34.187500
1527,-53.58,2022-10-26 10:14:34.203125
1528,-41.72,2022-10-26 10:14:34.218750
1529,-28.56,2022-10-26 10:14:34.234375
1530,-15.42,2022-10-26 10:14:34.250000
1531,-3.24,2022-10-26 10:14:34.265625
1532,7.4,2022-10-26 10:14:34.281250
1533,16.32,2022-10-26 10:14:34.296875
1534,23.56,2022-10-26 10:14:34.312500
1535,29.3,2022-10-26 10:14:34.328125
1536,33.81,2022-10-26 10:14:34.343750
1537,37.32,2022-10-26 10:14:34.359375
1538,39.98,2022-10-26 10:14:34.375000
1539,41.85,2022-10-26 10:14:34.390625
1540,42.95,2022-10-26 10:14:34.406250
1541,43.27,2022-10-26 10:14:34.421875
1542,42.89,2022-10-26 10:14:34.437500
1543,42.0,2022-10-26 10:14:34.453125
1544,40.8,2022-10-26 10:14:34.468750
1545,39.44,2022-10-26 10:14:34.484375
1546,38.0,2022-10-26 10:14:34.500000
1547,36.43,2022-10-26 10:14:34.515625
1548,34.66,2022-10-26 10:14:34.531250
1549,32.64,2022-10-26 10:14:34.546875
1550,30.34,2022-10-26 10:14:34.562500
1551,27.77,2022-10-26 10:14:34.578125
1552,24.98,2022-10-26 10:14:34.593750
1553,21.99,2022-10-26 10:14:34.609375
1554,18.9,2022-10-26 10:14:34.625000
1555,15.76,2022-10-26 10:14:34.640625
1556,12.66,2022-10-26 10:14:34.656250
1557,9.61,2022-10-26 10:14:34.671875
1558,6.61,2022-10-26 10:14:34.687500
1559,3.58,2022-10-26 10:14:34.703125
1560,0.46,2022-10-26 10:14:34.718750
1561,-2.8,2022-10-26 10:14:34.734375
1562,-6.21,2022-10-26 10:14:34.750000
1563,-9.75,2022-10-26 10:14:34.765625
1564,-13.37,2022-10-26 10:14:34.781250
1565,-17.06,2022-10-26 10:14:34.796875
1566,-20.85,2022-10-26 10:14:34.812500
1567,-24.89,2022-10-26 10:14:34.828125
1568,-29.43,2022-10-26 10:14:34.843750
1569,-34.73,2022-10-26 10:14:34.859375
1570,-40.91,2022-10-26 10:14:34.875000
1571,-47.79,2022-10-26 10:14:34.890625
1572,-54.64,2022-10-26 10:14:34.906250
1573,-60.37,2022-10-26 10:14:34.921875
1574,-63.65,2022-10-26 10:14:34.937500
1575,-63.35,2022-10-26 10:14:34.953125
1576,-58.9,2022-10-26 10:14:34.968750
1577,-50.5,2022-10-26 10:14:34.984375
1578,-39.07,2022-10-26 10:14:35.000000
1579,-25.99,2022-10-26 10:14:35.015625
1580,-12.76,2022-10-26 10:14:35.031250
1581,-0.6,2022-10-26 10:14:35.046875
1582,9.67,2022-10-26 10:14:35.062500
1583,17.75,2022-10-26 10:14:35.078125
1584,23.81,2022-10-26 10:14:35.093750
1585,28.2,2022-10-26 10:14:35.109375
1586,31.3,2022-10-26 10:14:35.125000
1587,33.44,2022-10-26 10:14:35.140625
1588,34.73,2022-10-26 10:14:35.156250
1589,35.23,2022-10-26 10:14:35.171875
1590,35.0,2022-10-26 10:14:35.187500
1591,34.18,2022-10-26 10:14:35.203125
1592,32.98,2022-10-26 10:14:35.218750
1593,31.56,2022-10-26 10:14:35.234375
1594,29.96,2022-10-26 10:14:35.250000
1595,28.12,2022-10-26 10:14:35.265625
1596,25.95,2022-10-26 10:14:35.281250
1597,23.52,2022-10-26 10:14:35.296875
1598,21.1,2022-10-26 10:14:35.312500
1599,19.08,2022-10-26 10:14:35.328125
1600,17.74,2022-10-26 10:14:35.343750
1601,17.08,2022-10-26 10:14:35.359375
1602,16.78,2022-10-26 10:14:35.375000
1603,16.27,2022-10-26 10:14:35.390625
1604,15.04,2022-10-26 10:14:35.406250
1605,12.8,2022-10-26 10:14:35.421875
1606,9.67,2022-10-26 10:14:35.437500
1607,5.95,2022-10-26 10:14:35.453125
1608,2.04,2022-10-26 10:14:35.468750
1609,-1.78,2022-10-26 10:14:35.484375
1610,-5.43,2022-10-26 10:14:35.500000
1611,-9.03,2022-10-26 10:14:35.515625
1612,-12.81,2022-10-26 10:14:35.531250
1613,-17.09,2022-10-26 10:14:35.546875
1614,-22.18,2022-10-26 10:14:35.562500
1615,-28.31,2022-10-26 10:14:35.578125
1616,-35.42,2022-10-26 10:14:35.593750
1617,-43.04,2022-10-26 10:14:35.609375
1618,-50.18,2022-10-26 10:14:35.625000
1619,-55.48,2022-10-26 10:14:35.640625
1620,-57.6,2022-10-26 10:14:35.656250
1621,-55.63,2022-10-26 10:14:35.671875
1622,-49.5,2022-10-26 10:14:35.687500
1623,-40.01,2022-10-26 10:14:35.703125
1624,-28.57,2022-10-26 10:14:35.718750
1625,-16.73,2022-10-26 10:14:35.734375
1626,-5.74,2022-10-26 10:14:35.750000
1627,3.75,2022-10-26 10:14:35.765625
1628,11.62,2022-10-26 10:14:35.781250
1629,18.04,2022-10-26 10:14:35.796875
1630,23.21,2022-10-26 10:14:35.812500
1631,27.22,2022-10-26 10:14:35.828125
1632,30.08,2022-10-26 10:14:35.843750
1633,31.79,2022-10-26 10:14:35.859375
1634,32.49,2022-10-26 10:14:35.875000
1635,32.51,2022-10-26 10:14:35.890625
1636,32.23,2022-10-26 10:14:35.906250
1637,31.9,2022-10-26 10:14:35.921875
1638,31.61,2022-10-26 10:14:35.937500
1639,31.23,2022-10-26 10:14:35.953125
1640,30.53,2022-10-26 10:14:35.968750
1641,29.36,2022-10-26 10:14:35.984375
1642,27.79,2022-10-26 10:14:36.000000
1643,26.05,2022-10-26 10:14:36.015625
1644,24.46,2022-10-26 10:14:36.031250
1645,23.26,2022-10-26 10:14:36.046875
1646,22.44,2022-10-26 10:14:36.062500
1647,21.71,2022-10-26 10:14:36.078125
1648,20.61,2022-10-26 10:14:36.093750
1649,18.64,2022-10-26 10:14:36.109375
1650,15.48,2022-10-26 10:14:36.125000
1651,11.06,2022-10-26 10:14:36.140625
1652,5.65,2022-10-26 10:14:36.156250
1653,-0.27,2022-10-26 10:14:36.171875
1654,-6.07,2022-10-26 10:14:36.187500
1655,-11.22,2022-10-26 10:14:36.203125
1656,-15.45,2022-10-26 10:14:36.218750
1657,-18.85,2022-10-26 10:14:36.234375
1658,-21.79,2022-10-26 10:14:36.250000
1659,-24.91,2022-10-26 10:14:36.265625
1660,-28.85,2022-10-26 10:14:36.281250
1661,-34.04,2022-10-26 10:14:36.296875
1662,-40.49,2022-10-26 10:14:36.312500
1663,-47.6,2022-10-26 10:14:36.328125
1664,-54.2,2022-10-26 10:14:36.343750
1665,-58.8,2022-10-26 10:14:36.359375
1666,-60.02,2022-10-26 10:14:36.375000
1667,-57.03,2022-10-26 10:14:36.390625
1668,-49.9,2022-10-26 10:14:36.406250
1669,-39.52,2022-10-26 10:14:36.421875
1670,-27.35,2022-10-26 10:14:36.437500
1671,-14.95,2022-10-26 10:14:36.453125
1672,-3.55,2022-10-26 10:14:36.468750
1673,6.15,2022-10-26 10:14:36.484375
1674,13.93,2022-10-26 10:14:36.500000
1675,19.92,2022-10-26 10:14:36.515625
1676,24.4,2022-10-26 10:14:36.531250
1677,27.64,2022-10-26 10:14:36.546875
1678,29.92,2022-10-26 10:14:36.562500
1679,31.49,2022-10-26 10:14:36.578125
1680,32.52,2022-10-26 10:14:36.593750
1681,33.13,2022-10-26 10:14:36.609375
1682,33.37,2022-10-26 10:14:36.625000
1683,33.23,2022-10-26 10:14:36.640625
1684,32.72,2022-10-26 10:14:36.656250
1685,31.92,2022-10-26 10:14:36.671875
1686,30.92,2022-10-26 10:14:36.687500
1687,29.88,2022-10-26 10:14:36.703125
1688,28.95,2022-10-26 10:14:36.718750
1689,28.21,2022-10-26 10:14:36.734375
1690,27.75,2022-10-26 10:14:36.750000
1691,27.53,2022-10-26 10:14:36.765625
1692,27.43,2022-10-26 10:14:36.781250
1693,27.26,2022-10-26 10:14:36.796875
1694,26.72,2022-10-26 10:14:36.812500
1695,25.49,2022-10-26 10:14:36.828125
1696,23.37,2022-10-26 10:14:36.843750
1697,20.25,2022-10-26 10:14:36.859375
1698,16.21,2022-10-26 10:14:36.875000
1699,11.43,2022-10-26 10:14:36.890625
1700,6.13,2022-10-26 10:14:36.906250
1701,0.57,2022-10-26 10:14:36.921875
1702,-5.04,2022-10-26 10:14:36.937500
1703,-10.42,2022-10-26 10:14:36.953125
1704,-15.37,2022-10-26 10:14:36.968750
1705,-19.73,2022-10-26 10:14:36.984375
1706,-23.56,2022-10-26 10:14:37.000000
1707,-27.16,2022-10-26 10:14:37.015625
1708,-30.99,2022-10-26 10:14:37.031250
1709,-35.59,2022-10-26 10:14:37.046875
1710,-41.21,2022-10-26 10:14:37.062500
1711,-47.66,2022-10-26 10:14:37.078125
1712,-54.19,2022-10-26 10:14:37.093750
1713,-59.57,2022-10-26 10:14:37.109375
1714,-62.44,2022-10-26 10:14:37.125000
1715,-61.74,2022-10-26 10:14:37.140625
1716,-57.07,2022-10-26 10:14:37.156250
1717,-48.81,2022-10-26 10:14:37.171875
1718,-38.07,2022-10-26 10:14:37.187500
1719,-26.27,2022-10-26 10:14:37.203125
1720,-14.72,2022-10-26 10:14:37.218750
1721,-4.36,2022-10-26 10:14:37.234375
1722,4.37,2022-10-26 10:14:37.250000
1723,11.41,2022-10-26 10:14:37.265625
1724,16.91,2022-10-26 10:14:37.281250
1725,21.12,2022-10-26 10:14:37.296875
1726,24.28,2022-10-26 10:14:37.312500
1727,26.59,2022-10-26 10:14:37.328125
1728,28.26,2022-10-26 10:14:37.343750
1729,29.43,2022-10-26 10:14:37.359375
1730,30.15,2022-10-26 10:14:37.375000
1731,30.5,2022-10-26 10:14:37.390625
1732,30.46,2022-10-26 10:14:37.406250
1733,30.07,2022-10-26 10:14:37.421875
1734,29.47,2022-10-26 10:14:37.437500
1735,28.81,2022-10-26 10:14:37.453125
1736,28.23,2022-10-26 10:14:37.468750
1737,27.8,2022-10-26 10:14:37.484375
1738,27.53,2022-10-26 10:14:37.500000
1739,27.32,2022-10-26 10:14:37.515625
1740,27.02,2022-10-26 10:14:37.531250
1741,26.49,2022-10-26 10:14:37.546875
1742,25.53,2022-10-26 10:14:37.562500
1743,24.02,2022-10-26 10:14:37.578125
1744,21.81,2022-10-26 10:14:37.593750
1745,18.83,2022-10-26 10:14:37.609375
1746,15.1,2022-10-26 10:14:37.625000
1747,10.75,2022-10-26 10:14:37.640625
1748,6.0,2022-10-26 10:14:37.656250
1749,1.13,2022-10-26 10:14:37.671875
1750,-3.63,2022-10-26 10:14:37.687500
1751,-8.14,2022-10-26 10:14:37.703125
1752,-12.34,2022-10-26 10:14:37.718750
1753,-16.26,2022-10-26 10:14:37.734375
1754,-20.02,2022-10-26 10:14:37.750000
1755,-23.81,2022-10-26 10:14:37.765625
1756,-27.9,2022-10-26 10:14:37.781250
1757,-32.62,2022-10-26 10:14:37.796875
1758,-38.17,2022-10-26 10:14:37.812500
1759,-44.51,2022-10-26 10:14:37.828125
1760,-51.14,2022-10-26 10:14:37.843750
1761,-57.06,2022-10-26 10:14:37.859375
1762,-61.03,2022-10-26 10:14:37.875000
1763,-61.82,2022-10-26 10:14:37.890625
1764,-58.65,2022-10-26 10:14:37.906250
1765,-51.52,2022-10-26 10:14:37.921875
1766,-41.15,2022-10-26 10:14:37.937500
1767,-28.82,2022-10-26 10:14:37.953125
1768,-16.05,2022-10-26 10:14:37.968750
1769,-4.16,2022-10-26 10:14:37.984375
1770,5.96,2022-10-26 10:14:38.000000
1771,13.93,2022-10-26 10:14:38.015625
1772,19.82,2022-10-26 10:14:38.031250
1773,23.94,2022-10-26 10:14:38.046875
1774,26.7,2022-10-26 10:14:38.062500
1775,28.44,2022-10-26 10:14:38.078125
1776,29.4,2022-10-26 10:14:38.093750
1777,29.74,2022-10-26 10:14:38.109375
1778,29.62,2022-10-26 10:14:38.125000
1779,29.2,2022-10-26 10:14:38.140625
1780,28.57,2022-10-26 10:14:38.156250
1781,27.83,2022-10-26 10:14:38.171875
1782,26.96,2022-10-26 10:14:38.187500
1783,25.93,2022-10-26 10:14:38.203125
1784,24.74,2022-10-26 10:14:38.218750
1785,23.5,2022-10-26 10:14:38.234375
1786,22.37,2022-10-26 10:14:38.250000
1787,21.47,2022-10-26 10:14:38.265625
1788,20.75,2022-10-26 10:14:38.281250
1789,19.97,2022-10-26 10:14:38.296875
1790,18.77,2022-10-26 10:14:38.312500
1791,16.78,2022-10-26 10:14:38.328125
1792,13.84,2022-10-26 10:14:38.343750
1793,10.06,2022-10-26 10:14:38.359375
1794,5.79,2022-10-26 10:14:38.375000
1795,1.41,2022-10-26 10:14:38.390625
1796,-2.74,2022-10-26 10:14:38.406250
1797,-6.56,2022-10-26 10:14:38.421875
1798,-10.18,2022-10-26 10:14:38.437500
1799,-13.83,2022-10-26 10:14:38.453125
1800,-17.87,2022-10-26 10:14:38.468750
1801,-22.57,2022-10-26 10:14:38.484375
1802,-28.08,2022-10-26 10:14:38.500000
1803,-34.33,2022-10-26 10:14:38.515625
1804,-40.89,2022-10-26 10:14:38.531250
1805,-46.94,2022-10-26 10:14:38.546875
1806,-51.36,2022-10-26 10:14:38.562500
1807,-53.07,2022-10-26 10:14:38.578125
1808,-51.24,2022-10-26 10:14:38.593750
1809,-45.8,2022-10-26 10:14:38.609375
1810,-37.37,2022-10-26 10:14:38.625000
1811,-27.17,2022-10-26 10:14:38.640625
1812,-16.61,2022-10-26 10:14:38.656250
1813,-6.88,2022-10-26 10:14:38.671875
1814,1.36,2022-10-26 10:14:38.687500
1815,7.96,2022-10-26 10:14:38.703125
1816,13.14,2022-10-26 10:14:38.718750
1817,17.24,2022-10-26 10:14:38.734375
1818,20.53,2022-10-26 10:14:38.750000
1819,23.15,2022-10-26 10:14:38.765625
1820,25.19,2022-10-26 10:14:38.781250
1821,26.75,2022-10-26 10:14:38.796875
1822,27.98,2022-10-26 10:14:38.812500
1823,29.11,2022-10-26 10:14:38.828125
1824,30.36,2022-10-26 10:14:38.843750
1825,31.81,2022-10-26 10:14:38.859375
1826,33.45,2022-10-26 10:14:38.875000
1827,35.1,2022-10-26 10:14:38.890625
1828,36.51,2022-10-26 10:14:38.906250
1829,37.55,2022-10-26 10:14:38.921875
1830,38.1,2022-10-26 10:14:38.937500
1831,38.19,2022-10-26 10:14:38.953125
1832,37.87,2022-10-26 10:14:38.968750
1833,37.11,2022-10-26 10:14:38.984375
1834,35.83,2022-10-26 10:14:39.000000
1835,33.88,2022-10-26 10:14:39.015625
1836,31.02,2022-10-26 10:14:39.031250
1837,27.09,2022-10-26 10:14:39.046875
1838,22.04,2022-10-26 10:14:39.062500
1839,15.96,2022-10-26 10:14:39.078125
1840,9.14,2022-10-26 10:14:39.093750
1841,1.96,2022-10-26 10:14:39.109375
1842,-5.29,2022-10-26 10:14:39.125000
1843,-12.48,2022-10-26 10:14:39.140625
1844,-19.73,2022-10-26 10:14:39.156250
1845,-27.32,2022-10-26 10:14:39.171875
1846,-35.49,2022-10-26 10:14:39.187500
1847,-44.17,2022-10-26 10:14:39.203125
1848,-52.86,2022-10-26 10:14:39.218750
1849,-60.55,2022-10-26 10:14:39.234375
1850,-65.98,2022-10-26 10:14:39.250000
1851,-67.97,2022-10-26 10:14:39.265625
1852,-65.78,2022-10-26 10:14:39.281250
1853,-59.37,2022-10-26 10:14:39.296875
1854,-49.45,2022-10-26 10:14:39.312500
1855,-37.28,2022-10-26 10:14:39.328125
1856,-24.29,2022-10-26 10:14:39.343750
1857,-11.83,2022-10-26 10:14:39.359375
1858,-0.8,2022-10-26 10:14:39.375000
1859,8.29,2022-10-26 10:14:39.390625
1860,15.32,2022-10-26 10:14:39.406250
1861,20.39,2022-10-26 10:14:39.421875
1862,23.71,2022-10-26 10:14:39.437500
1863,25.5,2022-10-26 10:14:39.453125
1864,26.05,2022-10-26 10:14:39.468750
1865,25.73,2022-10-26 10:14:39.484375
1866,24.95,2022-10-26 10:14:39.500000
1867,24.11,2022-10-26 10:14:39.515625
1868,23.52,2022-10-26 10:14:39.531250
1869,23.26,2022-10-26 10:14:39.546875
1870,23.24,2022-10-26 10:14:39.562500
1871,23.27,2022-10-26 10:14:39.578125
1872,23.16,2022-10-26 10:14:39.593750
1873,22.82,2022-10-26 10:14:39.609375
1874,22.23,2022-10-26 10:14:39.625000
1875,21.49,2022-10-26 10:14:39.640625
1876,20.67,2022-10-26 10:14:39.656250
1877,19.77,2022-10-26 10:14:39.671875
1878,18.63,2022-10-26 10:14:39.687500
1879,17.05,2022-10-26 10:14:39.703125
1880,14.76,2022-10-26 10:14:39.718750
1881,11.64,2022-10-26 10:14:39.734375
1882,7.73,2022-10-26 10:14:39.750000
1883,3.25,2022-10-26 10:14:39.765625
1884,-1.45,2022-10-26 10:14:39.781250
1885,-6.02,2022-10-26 10:14:39.796875
1886,-10.2,2022-10-26 10:14:39.812500
1887,-13.91,2022-10-26 10:14:39.828125
1888,-17.29,2022-10-26 10:14:39.843750
1889,-20.61,2022-10-26 10:14:39.859375
1890,-24.21,2022-10-26 10:14:39.875000
1891,-28.48,2022-10-26 10:14:39.890625
1892,-33.69,2022-10-26 10:14:39.906250
1893,-39.89,2022-10-26 10:14:39.921875
1894,-46.75,2022-10-26 10:14:39.937500
1895,-53.45,2022-10-26 10:14:39.953125
1896,-58.77,2022-10-26 10:14:39.968750
1897,-61.38,2022-10-26 10:14:39.984375
1898,-60.25,2022-10-26 10:14:40.000000
1899,-55.05,2022-10-26 10:14:40.015625
1900,-46.24,2022-10-26 10:14:40.031250
1901,-34.99,2022-10-26 10:14:40.046875
1902,-22.81,2022-10-26 10:14:40.062500
1903,-11.13,2022-10-26 10:14:40.078125
1904,-0.94,2022-10-26 10:14:40.093750
1905,7.31,2022-10-26 10:14:40.109375
1906,13.63,2022-10-26 10:14:40.125000
1907,18.29,2022-10-26 10:14:40.140625
1908,21.67,2022-10-26 10:14:40.156250
1909,24.06,2022-10-26 10:14:40.171875
1910,25.72,2022-10-26 10:14:40.187500
1911,26.81,2022-10-26 10:14:40.203125
1912,27.49,2022-10-26 10:14:40.218750
1913,27.86,2022-10-26 10:14:40.234375
1914,27.96,2022-10-26 10:14:40.250000
1915,27.85,2022-10-26 10:14:40.265625
1916,27.51,2022-10-26 10:14:40.281250
1917,26.97,2022-10-26 10:14:40.296875
1918,26.28,2022-10-26 10:14:40.312500
1919,25.62,2022-10-26 10:14:40.328125
1920,25.23,2022-10-26 10:14:40.343750
1921,25.33,2022-10-26 10:14:40.359375
1922,26.08,2022-10-26 10:14:40.375000
1923,27.39,2022-10-26 10:14:40.390625
1924,29.01,2022-10-26 10:14:40.406250
1925,30.48,2022-10-26 10:14:40.421875
1926,31.3,2022-10-26 10:14:40.437500
1927,31.0,2022-10-26 10:14:40.453125
1928,29.31,2022-10-26 10:14:40.468750
1929,26.18,2022-10-26 10:14:40.484375
1930,21.81,2022-10-26 10:14:40.500000
1931,16.55,2022-10-26 10:14:40.515625
1932,10.77,2022-10-26 10:14:40.531250
1933,4.82,2022-10-26 10:14:40.546875
1934,-1.06,2022-10-26 10:14:40.562500
1935,-6.84,2022-10-26 10:14:40.578125
1936,-12.58,2022-10-26 10:14:40.593750
1937,-18.44,2022-10-26 10:14:40.609375
1938,-24.59,2022-10-26 10:14:40.625000
1939,-31.14,2022-10-26 10:14:40.640625
1940,-38.02,2022-10-26 10:14:40.656250
1941,-44.91,2022-10-26 10:14:40.671875
1942,-51.11,2022-10-26 10:14:40.687500
1943,-55.61,2022-10-26 10:14:40.703125
1944,-57.38,2022-10-26 10:14:40.718750
1945,-55.57,2022-10-26 10:14:40.734375
1946,-49.98,2022-10-26 10:14:40.750000
1947,-41.17,2022-10-26 10:14:40.765625
1948,-30.37,2022-10-26 10:14:40.781250
1949,-19.03,2022-10-26 10:14:40.796875
1950,-8.44,2022-10-26 10:14:40.812500
1951,0.68,2022-10-26 10:14:40.828125
1952,8.15,2022-10-26 10:14:40.843750
1953,14.18,2022-10-26 10:14:40.859375
1954,19.04,2022-10-26 10:14:40.875000
1955,22.86,2022-10-26 10:14:40.890625
1956,25.6,2022-10-26 10:14:40.906250
1957,27.22,2022-10-26 10:14:40.921875
1958,27.86,2022-10-26 10:14:40.937500
1959,27.87,2022-10-26 10:14:40.953125
1960,27.69,2022-10-26 10:14:40.968750
1961,27.57,2022-10-26 10:14:40.984375
1962,27.45,2022-10-26 10:14:41.000000
1963,27.01,2022-10-26 10:14:41.015625
1964,25.87,2022-10-26 10:14:41.031250
1965,23.92,2022-10-26 10:14:41.046875
1966,21.47,2022-10-26 10:14:41.062500
1967,19.11,2022-10-26 10:14:41.078125
1968,17.45,2022-10-26 10:14:41.093750
1969,16.76,2022-10-26 10:14:41.109375
1970,16.77,2022-10-26 10:14:41.125000
1971,16.81,2022-10-26 10:14:41.140625
1972,16.06,2022-10-26 10:14:41.156250
1973,14.03,2022-10-26 10:14:41.171875
1974,10.64,2022-10-26 10:14:41.187500
1975,6.36,2022-10-26 10:14:41.203125
1976,1.76,2022-10-26 10:14:41.218750
1977,-2.55,2022-10-26 10:14:41.234375
1978,-6.24,2022-10-26 10:14:41.250000
1979,-9.27,2022-10-26 10:14:41.265625
1980,-11.82,2022-10-26 10:14:41.281250
1981,-14.24,2022-10-26 10:14:41.296875
1982,-16.9,2022-10-26 10:14:41.312500
1983,-20.19,2022-10-26 10:14:41.328125
1984,-24.47,2022-10-26 10:14:41.343750
1985,-29.96,2022-10-26 10:14:41.359375
1986,-36.49,2022-10-26 10:14:41.375000
1987,-43.42,2022-10-26 10:14:41.390625
1988,-49.62,2022-10-26 10:14:41.406250
1989,-53.65,2022-10-26 10:14:41.421875
1990,-54.26,2022-10-26 10:14:41.437500
1991,-50.84,2022-10-26 10:14:41.453125
1992,-43.65,2022-10-26 10:14:41.468750
1993,-33.74,2022-10-26 10:14:41.484375
1994,-22.62,2022-10-26 10:14:41.500000
1995,-11.72,2022-10-26 10:14:41.515625
1996,-2.05,2022-10-26 10:14:41.531250
1997,5.89,2022-10-26 10:14:41.546875
1998,12.09,2022-10-26 10:14:41.562500
1999,16.65,2022-10-26 10:14:41.578125
2000,19.82,2022-10-26 10:14:41.593750
2001,21.82,2022-10-26 10:14:41.609375
2002,23.04,2022-10-26 10:14:41.625000
2003,23.91,2022-10-26 10:14:41.640625
2004,24.86,2022-10-26 10:14:41.656250
2005,26.14,2022-10-26 10:14:41.671875
2006,27.64,2022-10-26 10:14:41.687500
2007,29.0,2022-10-26 10:14:41.703125
2008,29.65,2022-10-26 10:14:41.718750
2009,29.12,2022-10-26 10:14:41.734375
2010,27.25,2022-10-26 10:14:41.750000
2011,24.21,2022-10-26 10:14:41.765625
2012,20.47,2022-10-26 10:14:41.781250
2013,16.59,2022-10-26 10:14:41.796875
2014,13.05,2022-10-26 10:14:41.812500
2015,10.09,2022-10-26 10:14:41.828125
2016,7.74,2022-10-26 10:14:41.843750
2017,5.84,2022-10-26 10:14:41.859375
2018,4.14,2022-10-26 10:14:41.875000
2019,2.39,2022-10-26 10:14:41.890625
2020,0.35,2022-10-26 10:14:41.906250
2021,-2.12,2022-10-26 10:14:41.921875
2022,-5.1,2022-10-26 10:14:41.937500
2023,-8.48,2022-10-26 10:14:41.953125
2024,-12.11,2022-10-26 10:14:41.968750
2025,-15.83,2022-10-26 10:14:41.984375
2026,-19.64,2022-10-26 10:14:42.000000
2027,-23.79,2022-10-26 10:14:42.015625
2028,-28.61,2022-10-26 10:14:42.031250
2029,-34.4,2022-10-26 10:14:42.046875
2030,-40.99,2022-10-26 10:14:42.062500
2031,-47.55,2022-10-26 10:14:42.078125
2032,-52.66,2022-10-26 10:14:42.093750
2033,-54.71,2022-10-26 10:14:42.109375
2034,-52.44,2022-10-26 10:14:42.125000
2035,-45.53,2022-10-26 10:14:42.140625
2036,-34.72,2022-10-26 10:14:42.156250
2037,-21.64,2022-10-26 10:14:42.171875
2038,-8.23,2022-10-26 10:14:42.187500
2039,3.85,2022-10-26 10:14:42.203125
2040,13.61,2022-10-26 10:14:42.218750
2041,20.81,2022-10-26 10:14:42.234375
2042,25.83,2022-10-26 10:14:42.250000
2043,29.42,2022-10-26 10:14:42.265625
2044,32.47,2022-10-26 10:14:42.281250
2045,35.78,2022-10-26 10:14:42.296875
2046,39.87,2022-10-26 10:14:42.312500
2047,44.8,2022-10-26 10:14:42.328125
2048,50.01,2022-10-26 10:14:42.343750
2049,54.39,2022-10-26 10:14:42.359375
2050,56.59,2022-10-26 10:14:42.375000
2051,55.52,2022-10-26 10:14:42.390625
2052,50.81,2022-10-26 10:14:42.406250
2053,43.01,2022-10-26 10:14:42.421875
2054,33.47,2022-10-26 10:14:42.437500
2055,23.83,2022-10-26 10:14:42.453125
2056,15.49,2022-10-26 10:14:42.468750
2057,9.24,2022-10-26 10:14:42.484375
2058,5.16,2022-10-26 10:14:42.500000
2059,2.84,2022-10-26 10:14:42.515625
2060,1.61,2022-10-26 10:14:42.531250
2061,0.84,2022-10-26 10:14:42.546875
2062,0.02,2022-10-26 10:14:42.562500
2063,-1.15,2022-10-26 10:14:42.578125
2064,-2.8,2022-10-26 10:14:42.593750
2065,-4.95,2022-10-26 10:14:42.609375
2066,-7.52,2022-10-26 10:14:42.625000
2067,-10.43,2022-10-26 10:14:42.640625
2068,-13.55,2022-10-26 10:14:42.656250
2069,-16.89,2022-10-26 10:14:42.671875
2070,-20.52,2022-10-26 10:14:42.687500
2071,-24.69,2022-10-26 10:14:42.703125
2072,-29.66,2022-10-26 10:14:42.718750
2073,-35.57,2022-10-26 10:14:42.734375
2074,-42.17,2022-10-26 10:14:42.750000
2075,-48.76,2022-10-26 10:14:42.765625
2076,-54.13,2022-10-26 10:14:42.781250
2077,-56.95,2022-10-26 10:14:42.796875
2078,-56.1,2022-10-26 10:14:42.812500
2079,-51.18,2022-10-26 10:14:42.828125
2080,-42.63,2022-10-26 10:14:42.843750
2081,-31.65,2022-10-26 10:14:42.859375
2082,-19.78,2022-10-26 10:14:42.875000
2083,-8.38,2022-10-26 10:14:42.890625
2084,1.68,2022-10-26 10:14:42.906250
2085,10.05,2022-10-26 10:14:42.921875
2086,16.82,2022-10-26 10:14:42.937500
2087,22.23,2022-10-26 10:14:42.953125
2088,26.47,2022-10-26 10:14:42.968750
2089,29.69,2022-10-26 10:14:42.984375
2090,32.05,2022-10-26 10:14:43.000000
2091,33.72,2022-10-26 10:14:43.015625
2092,34.86,2022-10-26 10:14:43.031250
2093,35.57,2022-10-26 10:14:43.046875
2094,35.74,2022-10-26 10:14:43.062500
2095,35.16,2022-10-26 10:14:43.078125
2096,33.62,2022-10-26 10:14:43.093750
2097,31.08,2022-10-26 10:14:43.109375
2098,27.76,2022-10-26 10:14:43.125000
2099,24.06,2022-10-26 10:14:43.140625
2100,20.44,2022-10-26 10:14:43.156250
2101,17.25,2022-10-26 10:14:43.171875
2102,14.63,2022-10-26 10:14:43.187500
2103,12.49,2022-10-26 10:14:43.203125
2104,10.57,2022-10-26 10:14:43.218750
2105,8.52,2022-10-26 10:14:43.234375
2106,6.01,2022-10-26 10:14:43.250000
2107,2.86,2022-10-26 10:14:43.265625
2108,-0.92,2022-10-26 10:14:43.281250
2109,-5.1,2022-10-26 10:14:43.296875
2110,-9.35,2022-10-26 10:14:43.312500
2111,-13.34,2022-10-26 10:14:43.328125
2112,-16.89,2022-10-26 10:14:43.343750
2113,-20.04,2022-10-26 10:14:43.359375
2114,-23.02,2022-10-26 10:14:43.375000
2115,-26.12,2022-10-26 10:14:43.390625
2116,-29.59,2022-10-26 10:14:43.406250
2117,-33.66,2022-10-26 10:14:43.421875
2118,-38.4,2022-10-26 10:14:43.437500
2119,-43.64,2022-10-26 10:14:43.453125
2120,-48.93,2022-10-26 10:14:43.468750
2121,-53.34,2022-10-26 10:14:43.484375
2122,-55.75,2022-10-26 10:14:43.500000
2123,-55.05,2022-10-26 10:14:43.515625
2124,-50.63,2022-10-26 10:14:43.531250
2125,-42.7,2022-10-26 10:14:43.546875
2126,-32.22,2022-10-26 10:14:43.562500
2127,-20.63,2022-10-26 10:14:43.578125
2128,-9.31,2022-10-26 10:14:43.593750
2129,0.75,2022-10-26 10:14:43.609375
2130,9.16,2022-10-26 10:14:43.625000
2131,15.91,2022-10-26 10:14:43.640625
2132,21.16,2022-10-26 10:14:43.656250
2133,25.06,2022-10-26 10:14:43.671875
2134,27.7,2022-10-26 10:14:43.687500
2135,29.21,2022-10-26 10:14:43.703125
2136,29.81,2022-10-26 10:14:43.718750
2137,29.8,2022-10-26 10:14:43.734375
2138,29.44,2022-10-26 10:14:43.750000
2139,28.88,2022-10-26 10:14:43.765625
2140,28.15,2022-10-26 10:14:43.781250
2141,27.24,2022-10-26 10:14:43.796875
2142,26.13,2022-10-26 10:14:43.812500
2143,24.87,2022-10-26 10:14:43.828125
2144,23.57,2022-10-26 10:14:43.843750
2145,22.33,2022-10-26 10:14:43.859375
2146,21.28,2022-10-26 10:14:43.875000
2147,20.48,2022-10-26 10:14:43.890625
2148,20.0,2022-10-26 10:14:43.906250
2149,19.81,2022-10-26 10:14:43.921875
2150,19.77,2022-10-26 10:14:43.937500
2151,19.52,2022-10-26 10:14:43.953125
2152,18.66,2022-10-26 10:14:43.968750
2153,16.78,2022-10-26 10:14:43.984375
2154,13.66,2022-10-26 10:14:44.000000
2155,9.45,2022-10-26 10:14:44.015625
2156,4.6,2022-10-26 10:14:44.031250
2157,-0.33,2022-10-26 10:14:44.046875
2158,-4.82,2022-10-26 10:14:44.062500
2159,-8.63,2022-10-26 10:14:44.078125
2160,-11.88,2022-10-26 10:14:44.093750
2161,-14.92,2022-10-26 10:14:44.109375
2162,-18.26,2022-10-26 10:14:44.125000
2163,-22.31,2022-10-26 10:14:44.140625
2164,-27.28,2022-10-26 10:14:44.156250
2165,-33.04,2022-10-26 10:14:44.171875
2166,-39.0,2022-10-26 10:14:44.187500
2167,-44.25,2022-10-26 10:14:44.203125
2168,-47.72,2022-10-26 10:14:44.218750
2169,-48.42,2022-10-26 10:14:44.234375
2170,-45.83,2022-10-26 10:14:44.250000
2171,-40.04,2022-10-26 10:14:44.265625
2172,-31.75,2022-10-26 10:14:44.281250
2173,-22.08,2022-10-26 10:14:44.296875
2174,-12.22,2022-10-26 10:14:44.312500
2175,-3.15,2022-10-26 10:14:44.328125
2176,4.55,2022-10-26 10:14:44.343750
2177,10.65,2022-10-26 10:14:44.359375
2178,15.2,2022-10-26 10:14:44.375000
2179,18.35,2022-10-26 10:14:44.390625
2180,20.31,2022-10-26 10:14:44.406250
2181,21.36,2022-10-26 10:14:44.421875
2182,21.76,2022-10-26 10:14:44.437500
2183,21.73,2022-10-26 10:14:44.453125
2184,21.5,2022-10-26 10:14:44.468750
2185,21.19,2022-10-26 10:14:44.484375
2186,20.9,2022-10-26 10:14:44.500000
2187,20.68,2022-10-26 10:14:44.515625
2188,20.53,2022-10-26 10:14:44.531250
2189,20.48,2022-10-26 10:14:44.546875
2190,20.48,2022-10-26 10:14:44.562500
2191,20.55,2022-10-26 10:14:44.578125
2192,20.67,2022-10-26 10:14:44.593750
2193,20.81,2022-10-26 10:14:44.609375
2194,20.86,2022-10-26 10:14:44.625000
2195,20.63,2022-10-26 10:14:44.640625
2196,19.79,2022-10-26 10:14:44.656250
2197,18.02,2022-10-26 10:14:44.671875
2198,15.12,2022-10-26 10:14:44.687500
2199,11.16,2022-10-26 10:14:44.703125
2200,6.5,2022-10-26 10:14:44.718750
2201,1.71,2022-10-26 10:14:44.734375
2202,-2.71,2022-10-26 10:14:44.750000
2203,-6.46,2022-10-26 10:14:44.765625
2204,-9.61,2022-10-26 10:14:44.781250
2205,-12.52,2022-10-26 10:14:44.796875
2206,-15.67,2022-10-26 10:14:44.812500
2207,-19.52,2022-10-26 10:14:44.828125
2208,-24.28,2022-10-26 10:14:44.843750
2209,-29.8,2022-10-26 10:14:44.859375
2210,-35.51,2022-10-26 10:14:44.875000
2211,-40.5,2022-10-26 10:14:44.890625
2212,-43.69,2022-10-26 10:14:44.906250
2213,-44.08,2022-10-26 10:14:44.921875
2214,-41.14,2022-10-26 10:14:44.937500
2215,-34.94,2022-10-26 10:14:44.953125
2216,-26.27,2022-10-26 10:14:44.968750
2217,-16.37,2022-10-26 10:14:44.984375
2218,-6.64,2022-10-26 10:14:45.000000
2219,1.88,2022-10-26 10:14:45.015625
2220,8.63,2022-10-26 10:14:45.031250
2221,13.62,2022-10-26 10:14:45.046875
2222,17.15,2022-10-26 10:14:45.062500
2223,19.61,2022-10-26 10:14:45.078125
2224,21.26,2022-10-26 10:14:45.093750
2225,22.21,2022-10-26 10:14:45.109375
2226,22.59,2022-10-26 10:14:45.125000
2227,22.52,2022-10-26 10:14:45.140625
2228,22.24,2022-10-26 10:14:45.156250
2229,21.91,2022-10-26 10:14:45.171875
2230,21.62,2022-10-26 10:14:45.187500
2231,21.33,2022-10-26 10:14:45.203125
2232,20.9,2022-10-26 10:14:45.218750
2233,20.3,2022-10-26 10:14:45.234375
2234,19.52,2022-10-26 10:14:45.250000
2235,18.71,2022-10-26 10:14:45.265625
2236,18.04,2022-10-26 10:14:45.281250
2237,17.54,2022-10-26 10:14:45.296875
2238,17.07,2022-10-26 10:14:45.312500
2239,16.32,2022-10-26 10:14:45.328125
2240,14.91,2022-10-26 10:14:45.343750
2241,12.52,2022-10-26 10:14:45.359375
2242,9.06,2022-10-26 10:14:45.375000
2243,4.67,2022-10-26 10:14:45.390625
2244,-0.31,2022-10-26 10:14:45.406250
2245,-5.42,2022-10-26 10:14:45.421875
2246,-10.3,2022-10-26 10:14:45.437500
2247,-14.73,2022-10-26 10:14:45.453125
2248,-18.7,2022-10-26 10:14:45.468750
2249,-22.37,2022-10-26 10:14:45.484375
2250,-26.05,2022-10-26 10:14:45.500000
2251,-30.03,2022-10-26 10:14:45.515625
2252,-34.52,2022-10-26 10:14:45.531250
2253,-39.58,2022-10-26 10:14:45.546875
2254,-44.92,2022-10-26 10:14:45.562500
2255,-49.91,2022-10-26 10:14:45.578125
2256,-53.56,2022-10-26 10:14:45.593750
2257,-54.77,2022-10-26 10:14:45.609375
2258,-52.66,2022-10-26 10:14:45.625000
2259,-46.93,2022-10-26 10:14:45.640625
2260,-37.99,2022-10-26 10:14:45.656250
2261,-26.94,2022-10-26 10:14:45.671875
2262,-15.14,2022-10-26 10:14:45.687500
2263,-3.86,2022-10-26 10:14:45.703125
2264,6.07,2022-10-26 10:14:45.718750
2265,14.28,2022-10-26 10:14:45.734375
2266,20.78,2022-10-26 10:14:45.750000
2267,25.74,2022-10-26 10:14:45.765625
2268,29.31,2022-10-26 10:14:45.781250
2269,31.6,2022-10-26 10:14:45.796875
2270,32.73,2022-10-26 10:14:45.812500
2271,32.81,2022-10-26 10:14:45.828125
2272,32.07,2022-10-26 10:14:45.843750
2273,30.74,2022-10-26 10:14:45.859375
2274,29.08,2022-10-26 10:14:45.875000
2275,27.23,2022-10-26 10:14:45.890625
2276,25.35,2022-10-26 10:14:45.906250
2277,23.51,2022-10-26 10:14:45.921875
2278,21.8,2022-10-26 10:14:45.937500
2279,20.26,2022-10-26 10:14:45.953125
2280,18.99,2022-10-26 10:14:45.968750
2281,18.05,2022-10-26 10:14:45.984375
2282,17.43,2022-10-26 10:14:46.000000
2283,17.06,2022-10-26 10:14:46.015625
2284,16.79,2022-10-26 10:14:46.031250
2285,16.41,2022-10-26 10:14:46.046875
2286,15.7,2022-10-26 10:14:46.062500
2287,14.45,2022-10-26 10:14:46.078125
2288,12.52,2022-10-26 10:14:46.093750
2289,9.84,2022-10-26 10:14:46.109375
2290,6.45,2022-10-26 10:14:46.125000
2291,2.46,2022-10-26 10:14:46.140625
2292,-1.91,2022-10-26 10:14:46.156250
2293,-6.44,2022-10-26 10:14:46.171875
2294,-10.9,2022-10-26 10:14:46.187500
2295,-15.21,2022-10-26 10:14:46.203125
2296,-19.39,2022-10-26 10:14:46.218750
2297,-23.58,2022-10-26 10:14:46.234375
2298,-27.99,2022-10-26 10:14:46.250000
2299,-32.78,2022-10-26 10:14:46.265625
2300,-37.96,2022-10-26 10:14:46.281250
2301,-43.27,2022-10-26 10:14:46.296875
2302,-48.15,2022-10-26 10:14:46.312500
2303,-51.78,2022-10-26 10:14:46.328125
2304,-53.3,2022-10-26 10:14:46.343750
2305,-51.97,2022-10-26 10:14:46.359375
2306,-47.43,2022-10-26 10:14:46.375000
2307,-39.87,2022-10-26 10:14:46.390625
2308,-30.07,2022-10-26 10:14:46.406250
2309,-19.13,2022-10-26 10:14:46.421875
2310,-8.28,2022-10-26 10:14:46.437500
2311,1.43,2022-10-26 10:14:46.453125
2312,9.41,2022-10-26 10:14:46.468750
2313,15.48,2022-10-26 10:14:46.484375
2314,19.87,2022-10-26 10:14:46.500000
2315,22.96,2022-10-26 10:14:46.515625
2316,25.11,2022-10-26 10:14:46.531250
2317,26.56,2022-10-26 10:14:46.546875
2318,27.37,2022-10-26 10:14:46.562500
2319,27.54,2022-10-26 10:14:46.578125
2320,27.07,2022-10-26 10:14:46.593750
2321,26.06,2022-10-26 10:14:46.609375
2322,24.74,2022-10-26 10:14:46.625000
2323,23.31,2022-10-26 10:14:46.640625
2324,21.97,2022-10-26 10:14:46.656250
2325,20.79,2022-10-26 10:14:46.671875
2326,19.77,2022-10-26 10:14:46.687500
2327,18.9,2022-10-26 10:14:46.703125
2328,18.2,2022-10-26 10:14:46.718750
2329,17.77,2022-10-26 10:14:46.734375
2330,17.66,2022-10-26 10:14:46.750000
2331,17.86,2022-10-26 10:14:46.765625
2332,18.14,2022-10-26 10:14:46.781250
2333,18.16,2022-10-26 10:14:46.796875
2334,17.51,2022-10-26 10:14:46.812500
2335,15.94,2022-10-26 10:14:46.828125
2336,13.35,2022-10-26 10:14:46.843750
2337,9.93,2022-10-26 10:14:46.859375
2338,6.0,2022-10-26 10:14:46.875000
2339,1.92,2022-10-26 10:14:46.890625
2340,-2.06,2022-10-26 10:14:46.906250
2341,-5.87,2022-10-26 10:14:46.921875
2342,-9.53,2022-10-26 10:14:46.937500
2343,-13.13,2022-10-26 10:14:46.953125
2344,-16.78,2022-10-26 10:14:46.968750
2345,-20.62,2022-10-26 10:14:46.984375
2346,-24.87,2022-10-26 10:14:47.000000
2347,-29.75,2022-10-26 10:14:47.015625
2348,-35.37,2022-10-26 10:14:47.031250
2349,-41.49,2022-10-26 10:14:47.046875
2350,-47.46,2022-10-26 10:14:47.062500
2351,-52.18,2022-10-26 10:14:47.078125
2352,-54.44,2022-10-26 10:14:47.093750
2353,-53.36,2022-10-26 10:14:47.109375
2354,-48.6,2022-10-26 10:14:47.125000
2355,-40.65,2022-10-26 10:14:47.140625
2356,-30.6,2022-10-26 10:14:47.156250
2357,-19.8,2022-10-26 10:14:47.171875
2358,-9.49,2022-10-26 10:14:47.187500
2359,-0.51,2022-10-26 10:14:47.203125
2360,6.8,2022-10-26 10:14:47.218750
2361,12.41,2022-10-26 10:14:47.234375
2362,16.52,2022-10-26 10:14:47.250000
2363,19.41,2022-10-26 10:14:47.265625
2364,21.3,2022-10-26 10:14:47.281250
2365,22.38,2022-10-26 10:14:47.296875
2366,22.84,2022-10-26 10:14:47.312500
2367,22.86,2022-10-26 10:14:47.328125
2368,22.68,2022-10-26 10:14:47.343750
2369,22.5,2022-10-26 10:14:47.359375
2370,22.47,2022-10-26 10:14:47.375000
2371,22.58,2022-10-26 10:14:47.390625
2372,22.68,2022-10-26 10:14:47.406250
2373,22.5,2022-10-26 10:14:47.421875
2374,21.87,2022-10-26 10:14:47.437500
2375,20.79,2022-10-26 10:14:47.453125
2376,19.51,2022-10-26 10:14:47.468750
2377,18.42,2022-10-26 10:14:47.484375
2378,17.84,2022-10-26 10:14:47.500000
2379,17.81,2022-10-26 10:14:47.515625
2380,18.0,2022-10-26 10:14:47.531250
2381,17.87,2022-10-26 10:14:47.546875
2382,16.87,2022-10-26 10:14:47.562500
2383,14.69,2022-10-26 10:14:47.578125
2384,11.38,2022-10-26 10:14:47.593750
2385,7.3,2022-10-26 10:14:47.609375
2386,2.91,2022-10-26 10:14:47.625000
2387,-1.43,2022-10-26 10:14:47.640625
2388,-5.51,2022-10-26 10:14:47.656250
2389,-9.35,2022-10-26 10:14:47.671875
2390,-13.1,2022-10-26 10:14:47.687500
2391,-16.97,2022-10-26 10:14:47.703125
2392,-21.23,2022-10-26 10:14:47.718750
2393,-26.05,2022-10-26 10:14:47.734375
2394,-31.43,2022-10-26 10:14:47.750000
2395,-37.02,2022-10-26 10:14:47.765625
2396,-42.13,2022-10-26 10:14:47.781250
2397,-45.81,2022-10-26 10:14:47.796875
2398,-47.1,2022-10-26 10:14:47.812500
2399,-45.34,2022-10-26 10:14:47.828125
2400,-40.37,2022-10-26 10:14:47.843750
2401,-32.68,2022-10-26 10:14:47.859375
2402,-23.24,2022-10-26 10:14:47.875000
2403,-13.23,2022-10-26 10:14:47.890625
2404,-3.76,2022-10-26 10:14:47.906250
2405,4.4,2022-10-26 10:14:47.921875
2406,10.87,2022-10-26 10:14:47.937500
2407,15.64,2022-10-26 10:14:47.953125
2408,18.88,2022-10-26 10:14:47.968750
2409,20.89,2022-10-26 10:14:47.984375
2410,21.97,2022-10-26 10:14:48.000000
2411,22.39,2022-10-26 10:14:48.015625
2412,22.37,2022-10-26 10:14:48.031250
2413,22.08,2022-10-26 10:14:48.046875
2414,21.61,2022-10-26 10:14:48.062500
2415,21.0,2022-10-26 10:14:48.078125
2416,20.23,2022-10-26 10:14:48.093750
2417,19.22,2022-10-26 10:14:48.109375
2418,17.98,2022-10-26 10:14:48.125000
2419,16.55,2022-10-26 10:14:48.140625
2420,15.06,2022-10-26 10:14:48.156250
2421,13.67,2022-10-26 10:14:48.171875
2422,12.46,2022-10-26 10:14:48.187500
2423,11.44,2022-10-26 10:14:48.203125
2424,10.45,2022-10-26 10:14:48.218750
2425,9.23,2022-10-26 10:14:48.234375
2426,7.56,2022-10-26 10:14:48.250000
2427,5.32,2022-10-26 10:14:48.265625
2428,2.58,2022-10-26 10:14:48.281250
2429,-0.46,2022-10-26 10:14:48.296875
2430,-3.51,2022-10-26 10:14:48.312500
2431,-6.37,2022-10-26 10:14:48.328125
2432,-9.0,2022-10-26 10:14:48.343750
2433,-11.55,2022-10-26 10:14:48.359375
2434,-14.33,2022-10-26 10:14:48.375000
2435,-17.66,2022-10-26 10:14:48.390625
2436,-21.78,2022-10-26 10:14:48.406250
2437,-26.75,2022-10-26 10:14:48.421875
2438,-32.32,2022-10-26 10:14:48.437500
2439,-37.93,2022-10-26 10:14:48.453125
2440,-42.71,2022-10-26 10:14:48.468750
2441,-45.64,2022-10-26 10:14:48.484375
2442,-45.81,2022-10-26 10:14:48.500000
2443,-42.72,2022-10-26 10:14:48.515625
2444,-36.49,2022-10-26 10:14:48.531250
2445,-27.94,2022-10-26 10:14:48.546875
2446,-18.29,2022-10-26 10:14:48.562500
2447,-8.79,2022-10-26 10:14:48.578125
2448,-0.39,2022-10-26 10:14:48.593750
2449,6.45,2022-10-26 10:14:48.609375
2450,11.74,2022-10-26 10:14:48.625000
2451,15.71,2022-10-26 10:14:48.640625
2452,18.65,2022-10-26 10:14:48.656250
2453,20.73,2022-10-26 10:14:48.671875
2454,22.06,2022-10-26 10:14:48.687500
2455,22.78,2022-10-26 10:14:48.703125
2456,23.1,2022-10-26 10:14:48.718750
2457,23.25,2022-10-26 10:14:48.734375
2458,23.4,2022-10-26 10:14:48.750000
2459,23.5,2022-10-26 10:14:48.765625
2460,23.33,2022-10-26 10:14:48.781250
2461,22.54,2022-10-26 10:14:48.796875
2462,20.96,2022-10-26 10:14:48.812500
2463,18.63,2022-10-26 10:14:48.828125
2464,15.89,2022-10-26 10:14:48.843750
2465,13.26,2022-10-26 10:14:48.859375
2466,11.23,2022-10-26 10:14:48.875000
2467,10.0,2022-10-26 10:14:48.890625
2468,9.42,2022-10-26 10:14:48.906250
2469,9.02,2022-10-26 10:14:48.921875
2470,8.26,2022-10-26 10:14:48.937500
2471,6.75,2022-10-26 10:14:48.953125
2472,4.41,2022-10-26 10:14:48.968750
2473,1.43,2022-10-26 10:14:48.984375
2474,-1.86,2022-10-26 10:14:49.000000
2475,-5.14,2022-10-26 10:14:49.015625
2476,-8.32,2022-10-26 10:14:49.031250
2477,-11.42,2022-10-26 10:14:49.046875
2478,-14.7,2022-10-26 10:14:49.062500
2479,-18.5,2022-10-26 10:14:49.078125
2480,-23.09,2022-10-26 10:14:49.093750
2481,-28.64,2022-10-26 10:14:49.109375
2482,-35.13,2022-10-26 10:14:49.125000
2483,-42.2,2022-10-26 10:14:49.140625
2484,-49.13,2022-10-26 10:14:49.156250
2485,-54.87,2022-10-26 10:14:49.171875
2486,-58.22,2022-10-26 10:14:49.187500
2487,-58.16,2022-10-26 10:14:49.203125
2488,-54.2,2022-10-26 10:14:49.218750
2489,-46.56,2022-10-26 10:14:49.234375
2490,-36.2,2022-10-26 10:14:49.250000
2491,-24.53,2022-10-26 10:14:49.265625
2492,-13.04,2022-10-26 10:14:49.281250
2493,-2.87,2022-10-26 10:14:49.296875
2494,5.39,2022-10-26 10:14:49.312500
2495,11.74,2022-10-26 10:14:49.328125
2496,16.5,2022-10-26 10:14:49.343750
2497,20.16,2022-10-26 10:14:49.359375
2498,23.0,2022-10-26 10:14:49.375000
2499,25.12,2022-10-26 10:14:49.390625
2500,26.49,2022-10-26 10:14:49.406250
2501,27.06,2022-10-26 10:14:49.421875
2502,26.93,2022-10-26 10:14:49.437500
2503,26.33,2022-10-26 10:14:49.453125
2504,25.56,2022-10-26 10:14:49.468750
2505,24.88,2022-10-26 10:14:49.484375
2506,24.31,2022-10-26 10:14:49.500000
2507,23.77,2022-10-26 10:14:49.515625
2508,23.05,2022-10-26 10:14:49.531250
2509,22.05,2022-10-26 10:14:49.546875
2510,20.88,2022-10-26 10:14:49.562500
2511,19.75,2022-10-26 10:14:49.578125
2512,18.91,2022-10-26 10:14:49.593750
2513,18.45,2022-10-26 10:14:49.609375
2514,18.17,2022-10-26 10:14:49.625000
2515,17.69,2022-10-26 10:14:49.640625
2516,16.5,2022-10-26 10:14:49.656250
2517,14.27,2022-10-26 10:14:49.671875
2518,10.89,2022-10-26 10:14:49.687500
2519,6.58,2022-10-26 10:14:49.703125
2520,1.76,2022-10-26 10:14:49.718750
2521,-3.11,2022-10-26 10:14:49.734375
2522,-7.73,2022-10-26 10:14:49.750000
2523,-12.0,2022-10-26 10:14:49.765625
2524,-16.07,2022-10-26 10:14:49.781250
2525,-20.22,2022-10-26 10:14:49.796875
2526,-24.77,2022-10-26 10:14:49.812500
2527,-29.97,2022-10-26 10:14:49.828125
2528,-35.89,2022-10-26 10:14:49.843750
2529,-42.36,2022-10-26 10:14:49.859375
2530,-48.88,2022-10-26 10:14:49.875000
2531,-54.64,2022-10-26 10:14:49.890625
2532,-58.62,2022-10-26 10:14:49.906250
2533,-59.81,2022-10-26 10:14:49.921875
2534,-57.5,2022-10-26 10:14:49.937500
2535,-51.58,2022-10-26 10:14:49.953125
2536,-42.66,2022-10-26 10:14:49.968750
2537,-31.88,2022-10-26 10:14:49.984375
2538,-20.63,2022-10-26 10:14:50.000000
2539,-10.09,2022-10-26 10:14:50.015625
2540,-0.95,2022-10-26 10:14:50.031250
2541,6.63,2022-10-26 10:14:50.046875
2542,12.84,2022-10-26 10:14:50.062500
2543,17.92,2022-10-26 10:14:50.078125
2544,22.02,2022-10-26 10:14:50.093750
2545,25.13,2022-10-26 10:14:50.109375
2546,27.18,2022-10-26 10:14:50.125000
2547,28.27,2022-10-26 10:14:50.140625
2548,28.57,2022-10-26 10:14:50.156250
2549,28.45,2022-10-26 10:14:50.171875
2550,28.22,2022-10-26 10:14:50.187500
2551,28.01,2022-10-26 10:14:50.203125
2552,27.78,2022-10-26 10:14:50.218750
2553,27.33,2022-10-26 10:14:50.234375
2554,26.46,2022-10-26 10:14:50.250000
2555,25.09,2022-10-26 10:14:50.265625
2556,23.37,2022-10-26 10:14:50.281250
2557,21.52,2022-10-26 10:14:50.296875
2558,19.85,2022-10-26 10:14:50.312500
2559,18.52,2022-10-26 10:14:50.328125
2560,17.51,2022-10-26 10:14:50.343750
2561,16.63,2022-10-26 10:14:50.359375
2562,15.61,2022-10-26 10:14:50.375000
2563,14.16,2022-10-26 10:14:50.390625
2564,12.09,2022-10-26 10:14:50.406250
2565,9.41,2022-10-26 10:14:50.421875
2566,6.23,2022-10-26 10:14:50.437500
2567,2.76,2022-10-26 10:14:50.453125
2568,-0.79,2022-10-26 10:14:50.468750
2569,-4.34,2022-10-26 10:14:50.484375
2570,-7.94,2022-10-26 10:14:50.500000
2571,-11.77,2022-10-26 10:14:50.515625
2572,-16.01,2022-10-26 10:14:50.531250
2573,-20.88,2022-10-26 10:14:50.546875
2574,-26.47,2022-10-26 10:14:50.562500
2575,-32.83,2022-10-26 10:14:50.578125
2576,-39.81,2022-10-26 10:14:50.593750
2577,-47.03,2022-10-26 10:14:50.609375
2578,-53.8,2022-10-26 10:14:50.625000
2579,-59.09,2022-10-26 10:14:50.640625
2580,-61.76,2022-10-26 10:14:50.656250
2581,-60.83,2022-10-26 10:14:50.671875
2582,-55.84,2022-10-26 10:14:50.687500
2583,-47.07,2022-10-26 10:14:50.703125
2584,-35.57,2022-10-26 10:14:50.718750
2585,-22.76,2022-10-26 10:14:50.734375
2586,-10.12,2022-10-26 10:14:50.750000
2587,1.22,2022-10-26 10:14:50.765625
2588,10.64,2022-10-26 10:14:50.781250
2589,17.97,2022-10-26 10:14:50.796875
2590,23.31,2022-10-26 10:14:50.812500
2591,26.89,2022-10-26 10:14:50.828125
2592,28.97,2022-10-26 10:14:50.843750
2593,29.88,2022-10-26 10:14:50.859375
2594,29.93,2022-10-26 10:14:50.875000
2595,29.48,2022-10-26 10:14:50.890625
2596,28.79,2022-10-26 10:14:50.906250
2597,27.98,2022-10-26 10:14:50.921875
2598,27.07,2022-10-26 10:14:50.937500
2599,26.02,2022-10-26 10:14:50.953125
2600,24.75,2022-10-26 10:14:50.968750
2601,23.23,2022-10-26 10:14:50.984375
2602,21.49,2022-10-26 10:14:51.000000
2603,19.53,2022-10-26 10:14:51.015625
2604,17.44,2022-10-26 10:14:51.031250
2605,15.39,2022-10-26 10:14:51.046875
2606,13.58,2022-10-26 10:14:51.062500
2607,12.15,2022-10-26 10:14:51.078125
2608,11.08,2022-10-26 10:14:51.093750
2609,10.14,2022-10-26 10:14:51.109375
2610,8.97,2022-10-26 10:14:51.125000
2611,7.21,2022-10-26 10:14:51.140625
2612,4.67,2022-10-26 10:14:51.156250
2613,1.47,2022-10-26 10:14:51.171875
2614,-2.07,2022-10-26 10:14:51.187500
2615,-5.54,2022-10-26 10:14:51.203125
2616,-8.68,2022-10-26 10:14:51.218750
2617,-11.51,2022-10-26 10:14:51.234375
2618,-14.34,2022-10-26 10:14:51.250000
2619,-17.63,2022-10-26 10:14:51.265625
2620,-21.84,2022-10-26 10:14:51.281250
2621,-27.22,2022-10-26 10:14:51.296875
2622,-33.59,2022-10-26 10:14:51.312500
2623,-40.32,2022-10-26 10:14:51.328125
2624,-46.39,2022-10-26 10:14:51.343750
2625,-50.55,2022-10-26 10:14:51.359375
2626,-51.74,2022-10-26 10:14:51.375000
2627,-49.34,2022-10-26 10:14:51.390625
2628,-43.41,2022-10-26 10:14:51.406250
2629,-34.64,2022-10-26 10:14:51.421875
2630,-24.17,2022-10-26 10:14:51.437500
2631,-13.23,2022-10-26 10:14:51.453125
2632,-2.89,2022-10-26 10:14:51.468750
2633,6.13,2022-10-26 10:14:51.484375
2634,13.49,2022-10-26 10:14:51.500000
2635,19.11,2022-10-26 10:14:51.515625
2636,23.09,2022-10-26 10:14:51.531250
2637,25.66,2022-10-26 10:14:51.546875
2638,27.11,2022-10-26 10:14:51.562500
2639,27.7,2022-10-26 10:14:51.578125
2640,27.79,2022-10-26 10:14:51.593750
2641,27.62,2022-10-26 10:14:51.609375
2642,27.4,2022-10-26 10:14:51.625000
2643,27.18,2022-10-26 10:14:51.640625
2644,26.88,2022-10-26 10:14:51.656250
2645,26.32,2022-10-26 10:14:51.671875
2646,25.37,2022-10-26 10:14:51.687500
2647,24.01,2022-10-26 10:14:51.703125
2648,22.32,2022-10-26 10:14:51.718750
2649,20.52,2022-10-26 10:14:51.734375
2650,18.78,2022-10-26 10:14:51.750000
2651,17.11,2022-10-26 10:14:51.765625
2652,15.38,2022-10-26 10:14:51.781250
2653,13.37,2022-10-26 10:14:51.796875
2654,10.89,2022-10-26 10:14:51.812500
2655,7.96,2022-10-26 10:14:51.828125
2656,4.77,2022-10-26 10:14:51.843750
2657,1.56,2022-10-26 10:14:51.859375
2658,-1.49,2022-10-26 10:14:51.875000
2659,-4.39,2022-10-26 10:14:51.890625
2660,-7.37,2022-10-26 10:14:51.906250
2661,-10.69,2022-10-26 10:14:51.921875
2662,-14.65,2022-10-26 10:14:51.937500
2663,-19.46,2022-10-26 10:14:51.953125
2664,-25.19,2022-10-26 10:14:51.968750
2665,-31.7,2022-10-26 10:14:51.984375
2666,-38.46,2022-10-26 10:14:52.000000
2667,-44.59,2022-10-26 10:14:52.015625
2668,-48.83,2022-10-26 10:14:52.031250
2669,-49.96,2022-10-26 10:14:52.046875
2670,-47.13,2022-10-26 10:14:52.062500
2671,-40.27,2022-10-26 10:14:52.078125
2672,-30.14,2022-10-26 10:14:52.093750
2673,-18.13,2022-10-26 10:14:52.109375
2674,-5.82,2022-10-26 10:14:52.125000
2675,5.51,2022-10-26 10:14:52.140625
2676,15.04,2022-10-26 10:14:52.156250
2677,22.49,2022-10-26 10:14:52.171875
2678,27.93,2022-10-26 10:14:52.187500
2679,31.59,2022-10-26 10:14:52.203125
2680,33.74,2022-10-26 10:14:52.218750
2681,34.64,2022-10-26 10:14:52.234375
2682,34.61,2022-10-26 10:14:52.250000
2683,34.02,2022-10-26 10:14:52.265625
2684,33.15,2022-10-26 10:14:52.281250
2685,32.22,2022-10-26 10:14:52.296875
2686,31.23,2022-10-26 10:14:52.312500
2687,30.04,2022-10-26 10:14:52.328125
2688,28.52,2022-10-26 10:14:52.343750
2689,26.58,2022-10-26 10:14:52.359375
2690,24.39,2022-10-26 10:14:52.375000
2691,22.23,2022-10-26 10:14:52.390625
2692,20.41,2022-10-26 10:14:52.406250
2693,19.15,2022-10-26 10:14:52.421875
2694,18.45,2022-10-26 10:14:52.437500
2695,18.05,2022-10-26 10:14:52.453125
2696,17.58,2022-10-26 10:14:52.468750
2697,16.6,2022-10-26 10:14:52.484375
2698,14.87,2022-10-26 10:14:52.500000
2699,12.27,2022-10-26 10:14:52.515625
2700,8.95,2022-10-26 10:14:52.531250
2701,5.18,2022-10-26 10:14:52.546875
2702,1.27,2022-10-26 10:14:52.562500
2703,-2.55,2022-10-26 10:14:52.578125
2704,-6.25,2022-10-26 10:14:52.593750
2705,-10.01,2022-10-26 10:14:52.609375
2706,-14.23,2022-10-26 10:14:52.625000
2707,-19.41,2022-10-26 10:14:52.640625
2708,-25.96,2022-10-26 10:14:52.656250
2709,-33.97,2022-10-26 10:14:52.671875
2710,-43.0,2022-10-26 10:14:52.687500
2711,-52.0,2022-10-26 10:14:52.703125
2712,-59.44,2022-10-26 10:14:52.718750
2713,-63.74,2022-10-26 10:14:52.734375
2714,-63.69,2022-10-26 10:14:52.750000
2715,-58.91,2022-10-26 10:14:52.765625
2716,-50.0,2022-10-26 10:14:52.781250
2717,-38.33,2022-10-26 10:14:52.796875
2718,-25.56,2022-10-26 10:14:52.812500
2719,-13.14,2022-10-26 10:14:52.828125
2720,-2.01,2022-10-26 10:14:52.843750
2721,7.5,2022-10-26 10:14:52.859375
2722,15.46,2022-10-26 10:14:52.875000
2723,22.08,2022-10-26 10:14:52.890625
2724,27.48,2022-10-26 10:14:52.906250
2725,31.66,2022-10-26 10:14:52.921875
2726,34.64,2022-10-26 10:14:52.937500
2727,36.45,2022-10-26 10:14:52.953125
2728,37.34,2022-10-26 10:14:52.968750
2729,37.63,2022-10-26 10:14:52.984375
2730,37.68,2022-10-26 10:14:53.000000
2731,37.72,2022-10-26 10:14:53.015625
2732,37.76,2022-10-26 10:14:53.031250
2733,37.69,2022-10-26 10:14:53.046875
2734,37.25,2022-10-26 10:14:53.062500
2735,36.33,2022-10-26 10:14:53.078125
2736,35.0,2022-10-26 10:14:53.093750
2737,33.52,2022-10-26 10:14:53.109375
2738,32.21,2022-10-26 10:14:53.125000
2739,31.24,2022-10-26 10:14:53.140625
2740,30.53,2022-10-26 10:14:53.156250
2741,29.68,2022-10-26 10:14:53.171875
2742,28.15,2022-10-26 10:14:53.187500
2743,25.48,2022-10-26 10:14:53.203125
2744,21.48,2022-10-26 10:14:53.218750
2745,16.32,2022-10-26 10:14:53.234375
2746,10.43,2022-10-26 10:14:53.250000
2747,4.38,2022-10-26 10:14:53.265625
2748,-1.36,2022-10-26 10:14:53.281250
2749,-6.52,2022-10-26 10:14:53.296875
2750,-11.1,2022-10-26 10:14:53.312500
2751,-15.34,2022-10-26 10:14:53.328125
2752,-19.63,2022-10-26 10:14:53.343750
2753,-24.44,2022-10-26 10:14:53.359375
2754,-30.18,2022-10-26 10:14:53.375000
2755,-37.01,2022-10-26 10:14:53.390625
2756,-44.72,2022-10-26 10:14:53.406250
2757,-52.59,2022-10-26 10:14:53.421875
2758,-59.42,2022-10-26 10:14:53.437500
2759,-63.76,2022-10-26 10:14:53.453125
2760,-64.23,2022-10-26 10:14:53.468750
2761,-60.06,2022-10-26 10:14:53.484375
2762,-51.37,2022-10-26 10:14:53.500000
2763,-39.25,2022-10-26 10:14:53.515625
2764,-25.42,2022-10-26 10:14:53.531250
2765,-11.67,2022-10-26 10:14:53.546875
2766,0.65,2022-10-26 10:14:53.562500
2767,10.98,2022-10-26 10:14:53.578125
2768,19.41,2022-10-26 10:14:53.593750
2769,26.42,2022-10-26 10:14:53.609375
2770,32.41,2022-10-26 10:14:53.625000
2771,37.5,2022-10-26 10:14:53.640625
2772,41.6,2022-10-26 10:14:53.656250
2773,44.55,2022-10-26 10:14:53.671875
2774,46.37,2022-10-26 10:14:53.687500
2775,47.24,2022-10-26 10:14:53.703125
2776,47.41,2022-10-26 10:14:53.718750
2777,47.11,2022-10-26 10:14:53.734375
2778,46.42,2022-10-26 10:14:53.750000
2779,45.39,2022-10-26 10:14:53.765625
2780,44.07,2022-10-26 10:14:53.781250
2781,42.58,2022-10-26 10:14:53.796875
2782,41.05,2022-10-26 10:14:53.812500
2783,39.49,2022-10-26 10:14:53.828125
2784,37.83,2022-10-26 10:14:53.843750
2785,35.93,2022-10-26 10:14:53.859375
2786,33.68,2022-10-26 10:14:53.875000
2787,31.08,2022-10-26 10:14:53.890625
2788,28.18,2022-10-26 10:14:53.906250
2789,25.05,2022-10-26 10:14:53.921875
2790,21.72,2022-10-26 10:14:53.937500
2791,18.13,2022-10-26 10:14:53.953125
2792,14.23,2022-10-26 10:14:53.968750
2793,10.03,2022-10-26 10:14:53.984375
2794,5.68,2022-10-26 10:14:54.000000
2795,1.35,2022-10-26 10:14:54.015625
2796,-2.75,2022-10-26 10:14:54.031250
2797,-6.55,2022-10-26 10:14:54.046875
2798,-10.04,2022-10-26 10:14:54.062500
2799,-13.36,2022-10-26 10:14:54.078125
2800,-16.72,2022-10-26 10:14:54.093750
2801,-20.42,2022-10-26 10:14:54.109375
2802,-24.72,2022-10-26 10:14:54.125000
2803,-29.86,2022-10-26 10:14:54.140625
2804,-35.93,2022-10-26 10:14:54.156250
2805,-42.75,2022-10-26 10:14:54.171875
2806,-49.73,2022-10-26 10:14:54.187500
2807,-55.86,2022-10-26 10:14:54.203125
2808,-59.87,2022-10-26 10:14:54.218750
2809,-60.52,2022-10-26 10:14:54.234375
2810,-56.97,2022-10-26 10:14:54.250000
2811,-49.19,2022-10-26 10:14:54.265625
2812,-37.99,2022-10-26 10:14:54.281250
2813,-24.84,2022-10-26 10:14:54.296875
2814,-11.43,2022-10-26 10:14:54.312500
2815,0.78,2022-10-26 10:14:54.328125
2816,10.91,2022-10-26 10:14:54.343750
2817,18.66,2022-10-26 10:14:54.359375
2818,24.18,2022-10-26 10:14:54.375000
2819,27.86,2022-10-26 10:14:54.390625
2820,30.11,2022-10-26 10:14:54.406250
2821,31.32,2022-10-26 10:14:54.421875
2822,31.87,2022-10-26 10:14:54.437500
2823,32.14,2022-10-26 10:14:54.453125
2824,32.47,2022-10-26 10:14:54.468750
2825,33.05,2022-10-26 10:14:54.484375
2826,33.74,2022-10-26 10:14:54.500000
2827,34.19,2022-10-26 10:14:54.515625
2828,33.94,2022-10-26 10:14:54.531250
2829,32.63,2022-10-26 10:14:54.546875
2830,30.33,2022-10-26 10:14:54.562500
2831,27.46,2022-10-26 10:14:54.578125
2832,24.69,2022-10-26 10:14:54.593750
2833,22.6,2022-10-26 10:14:54.609375
2834,21.4,2022-10-26 10:14:54.625000
2835,20.79,2022-10-26 10:14:54.640625
2836,20.21,2022-10-26 10:14:54.656250
2837,19.0,2022-10-26 10:14:54.671875
2838,16.81,2022-10-26 10:14:54.687500
2839,13.61,2022-10-26 10:14:54.703125
2840,9.72,2022-10-26 10:14:54.718750
2841,5.54,2022-10-26 10:14:54.734375
2842,1.43,2022-10-26 10:14:54.750000
2843,-2.39,2022-10-26 10:14:54.765625
2844,-5.9,2022-10-26 10:14:54.781250
2845,-9.2,2022-10-26 10:14:54.796875
2846,-12.52,2022-10-26 10:14:54.812500
2847,-16.18,2022-10-26 10:14:54.828125
2848,-20.5,2022-10-26 10:14:54.843750
2849,-25.75,2022-10-26 10:14:54.859375
2850,-31.87,2022-10-26 10:14:54.875000
2851,-38.42,2022-10-26 10:14:54.890625
2852,-44.42,2022-10-26 10:14:54.906250
2853,-48.59,2022-10-26 10:14:54.921875
2854,-49.69,2022-10-26 10:14:54.937500
2855,-46.93,2022-10-26 10:14:54.953125
2856,-40.34,2022-10-26 10:14:54.968750
2857,-30.64,2022-10-26 10:14:54.984375
2858,-19.2,2022-10-26 10:14:55.000000
2859,-7.52,2022-10-26 10:14:55.015625
2860,3.19,2022-10-26 10:14:55.031250
2861,12.21,2022-10-26 10:14:55.046875
2862,19.32,2022-10-26 10:14:55.062500
2863,24.66,2022-10-26 10:14:55.078125
2864,28.49,2022-10-26 10:14:55.093750
2865,30.99,2022-10-26 10:14:55.109375
2866,32.24,2022-10-26 10:14:55.125000
2867,32.36,2022-10-26 10:14:55.140625
2868,31.56,2022-10-26 10:14:55.156250
2869,30.19,2022-10-26 10:14:55.171875
2870,28.69,2022-10-26 10:14:55.187500
2871,27.43,2022-10-26 10:14:55.203125
2872,26.61,2022-10-26 10:14:55.218750
2873,26.18,2022-10-26 10:14:55.234375
2874,25.93,2022-10-26 10:14:55.250000
2875,25.59,2022-10-26 10:14:55.265625
2876,24.98,2022-10-26 10:14:55.281250
2877,24.09,2022-10-26 10:14:55.296875
2878,23.09,2022-10-26 10:14:55.312500
2879,22.21,2022-10-26 10:14:55.328125
2880,21.58,2022-10-26 10:14:55.343750
2881,21.11,2022-10-26 10:14:55.359375
2882,20.56,2022-10-26 10:14:55.375000
2883,19.51,2022-10-26 10:14:55.390625
2884,17.66,2022-10-26 10:14:55.406250
2885,14.84,2022-10-26 10:14:55.421875
2886,11.16,2022-10-26 10:14:55.437500
2887,6.94,2022-10-26 10:14:55.453125
2888,2.5,2022-10-26 10:14:55.468750
2889,-1.9,2022-10-26 10:14:55.484375
2890,-6.17,2022-10-26 10:14:55.500000
2891,-10.33,2022-10-26 10:14:55.515625
2892,-14.56,2022-10-26 10:14:55.531250
2893,-19.13,2022-10-26 10:14:55.546875
2894,-24.34,2022-10-26 10:14:55.562500
2895,-30.45,2022-10-26 10:14:55.578125
2896,-37.49,2022-10-26 10:14:55.593750
2897,-45.04,2022-10-26 10:14:55.609375
2898,-52.23,2022-10-26 10:14:55.625000
2899,-57.72,2022-10-26 10:14:55.640625
2900,-60.14,2022-10-26 10:14:55.656250
2901,-58.52,2022-10-26 10:14:55.671875
2902,-52.65,2022-10-26 10:14:55.687500
2903,-43.17,2022-10-26 10:14:55.703125
2904,-31.38,2022-10-26 10:14:55.718750
2905,-18.8,2022-10-26 10:14:55.734375
2906,-6.76,2022-10-26 10:14:55.750000
2907,3.87,2022-10-26 10:14:55.765625
2908,12.7,2022-10-26 10:14:55.781250
2909,19.67,2022-10-26 10:14:55.796875
2910,24.88,2022-10-26 10:14:55.812500
2911,28.46,2022-10-26 10:14:55.828125
2912,30.62,2022-10-26 10:14:55.843750
2913,31.58,2022-10-26 10:14:55.859375
2914,31.7,2022-10-26 10:14:55.875000
2915,31.33,2022-10-26 10:14:55.890625
2916,30.76,2022-10-26 10:14:55.906250
2917,30.07,2022-10-26 10:14:55.921875
2918,29.19,2022-10-26 10:14:55.937500
2919,27.99,2022-10-26 10:14:55.953125
2920,26.38,2022-10-26 10:14:55.968750
2921,24.44,2022-10-26 10:14:55.984375
2922,22.41,2022-10-26 10:14:56.000000
2923,20.58,2022-10-26 10:14:56.015625
2924,19.21,2022-10-26 10:14:56.031250
2925,18.39,2022-10-26 10:14:56.046875
2926,18.02,2022-10-26 10:14:56.062500
2927,17.9,2022-10-26 10:14:56.078125
2928,17.74,2022-10-26 10:14:56.093750
2929,17.29,2022-10-26 10:14:56.109375
2930,16.35,2022-10-26 10:14:56.125000
2931,14.76,2022-10-26 10:14:56.140625
2932,12.43,2022-10-26 10:14:56.156250
2933,9.31,2022-10-26 10:14:56.171875
2934,5.42,2022-10-26 10:14:56.187500
2935,0.88,2022-10-26 10:14:56.203125
2936,-4.05,2022-10-26 10:14:56.218750
2937,-9.07,2022-10-26 10:14:56.234375
2938,-13.84,2022-10-26 10:14:56.250000
2939,-18.13,2022-10-26 10:14:56.265625
2940,-21.92,2022-10-26 10:14:56.281250
2941,-25.47,2022-10-26 10:14:56.296875
2942,-29.22,2022-10-26 10:14:56.312500
2943,-33.67,2022-10-26 10:14:56.328125
2944,-39.07,2022-10-26 10:14:56.343750
2945,-45.21,2022-10-26 10:14:56.359375
2946,-51.29,2022-10-26 10:14:56.375000
2947,-56.14,2022-10-26 10:14:56.390625
2948,-58.41,2022-10-26 10:14:56.406250
2949,-57.15,2022-10-26 10:14:56.421875
2950,-52.07,2022-10-26 10:14:56.437500
2951,-43.68,2022-10-26 10:14:56.453125
2952,-33.09,2022-10-26 10:14:56.468750
2953,-21.65,2022-10-26 10:14:56.484375
2954,-10.51,2022-10-26 10:14:56.500000
2955,-0.47,2022-10-26 10:14:56.515625
2956,8.09,2022-10-26 10:14:56.531250
2957,15.07,2022-10-26 10:14:56.546875
2958,20.58,2022-10-26 10:14:56.562500
2959,24.76,2022-10-26 10:14:56.578125
2960,27.74,2022-10-26 10:14:56.593750
2961,29.72,2022-10-26 10:14:56.609375
2962,30.83,2022-10-26 10:14:56.625000
2963,31.28,2022-10-26 10:14:56.640625
2964,31.24,2022-10-26 10:14:56.656250
2965,30.9,2022-10-26 10:14:56.671875
2966,30.44,2022-10-26 10:14:56.687500
2967,30.03,2022-10-26 10:14:56.703125
2968,29.75,2022-10-26 10:14:56.718750
2969,29.59,2022-10-26 10:14:56.734375
2970,29.4,2022-10-26 10:14:56.750000
2971,28.97,2022-10-26 10:14:56.765625
2972,28.1,2022-10-26 10:14:56.781250
2973,26.7,2022-10-26 10:14:56.796875
2974,24.79,2022-10-26 10:14:56.812500
2975,22.53,2022-10-26 10:14:56.828125
2976,20.07,2022-10-26 10:14:56.843750
2977,17.55,2022-10-26 10:14:56.859375
2978,15.02,2022-10-26 10:14:56.875000
2979,12.4,2022-10-26 10:14:56.890625
2980,9.51,2022-10-26 10:14:56.906250
2981,6.21,2022-10-26 10:14:56.921875
2982,2.49,2022-10-26 10:14:56.937500
2983,-1.44,2022-10-26 10:14:56.953125
2984,-5.22,2022-10-26 10:14:56.968750
2985,-8.45,2022-10-26 10:14:56.984375
2986,-10.91,2022-10-26 10:14:57.000000
2987,-12.65,2022-10-26 10:14:57.015625
2988,-13.99,2022-10-26 10:14:57.031250
2989,-15.48,2022-10-26 10:14:57.046875
2990,-17.66,2022-10-26 10:14:57.062500
2991,-20.98,2022-10-26 10:14:57.078125
2992,-25.68,2022-10-26 10:14:57.093750
2993,-31.67,2022-10-26 10:14:57.109375
2994,-38.48,2022-10-26 10:14:57.125000
2995,-45.21,2022-10-26 10:14:57.140625
2996,-50.62,2022-10-26 10:14:57.156250
2997,-53.45,2022-10-26 10:14:57.171875
2998,-52.76,2022-10-26 10:14:57.187500
2999,-48.26,2022-10-26 10:14:57.203125
3000,-40.45,2022-10-26 10:14:57.218750
3001,-30.42,2022-10-26 10:14:57.234375
3002,-19.55,2022-10-26 10:14:57.250000
3003,-9.09,2022-10-26 10:14:57.265625
3004,0.15,2022-10-26 10:14:57.281250
3005,7.75,2022-10-26 10:14:57.296875
3006,13.67,2022-10-26 10:14:57.312500
3007,17.99,2022-10-26 10:14:57.328125
3008,20.88,2022-10-26 10:14:57.343750
3009,22.47,2022-10-26 10:14:57.359375
3010,22.97,2022-10-26 10:14:57.375000
3011,22.68,2022-10-26 10:14:57.390625
3012,21.93,2022-10-26 10:14:57.406250
3013,21.05,2022-10-26 10:14:57.421875
3014,20.24,2022-10-26 10:14:57.437500
3015,19.59,2022-10-26 10:14:57.453125
3016,19.01,2022-10-26 10:14:57.468750
3017,18.36,2022-10-26 10:14:57.484375
3018,17.53,2022-10-26 10:14:57.500000
3019,16.51,2022-10-26 10:14:57.515625
3020,15.41,2022-10-26 10:14:57.531250
3021,14.43,2022-10-26 10:14:57.546875
3022,13.74,2022-10-26 10:14:57.562500
3023,13.41,2022-10-26 10:14:57.578125
3024,13.37,2022-10-26 10:14:57.593750
3025,13.38,2022-10-26 10:14:57.609375
3026,13.05,2022-10-26 10:14:57.625000
3027,12.04,2022-10-26 10:14:57.640625
3028,10.08,2022-10-26 10:14:57.656250
3029,7.02,2022-10-26 10:14:57.671875
3030,2.98,2022-10-26 10:14:57.687500
3031,-1.78,2022-10-26 10:14:57.703125
3032,-6.86,2022-10-26 10:14:57.718750
3033,-11.87,2022-10-26 10:14:57.734375
3034,-16.55,2022-10-26 10:14:57.750000
3035,-20.84,2022-10-26 10:14:57.765625
3036,-24.86,2022-10-26 10:14:57.781250
3037,-28.88,2022-10-26 10:14:57.796875
3038,-33.19,2022-10-26 10:14:57.812500
3039,-37.97,2022-10-26 10:14:57.828125
3040,-43.19,2022-10-26 10:14:57.843750
3041,-48.48,2022-10-26 10:14:57.859375
3042,-53.15,2022-10-26 10:14:57.875000
3043,-56.19,2022-10-26 10:14:57.890625
3044,-56.6,2022-10-26 10:14:57.906250
3045,-53.64,2022-10-26 10:14:57.921875
3046,-47.17,2022-10-26 10:14:57.937500
3047,-37.73,2022-10-26 10:14:57.953125
3048,-26.45,2022-10-26 10:14:57.968750
3049,-14.78,2022-10-26 10:14:57.984375
3050,-4.03,2022-10-26 10:14:58.000000
3051,4.87,2022-10-26 10:14:58.015625
3052,11.55,2022-10-26 10:14:58.031250
3053,16.13,2022-10-26 10:14:58.046875
3054,19.01,2022-10-26 10:14:58.062500
3055,20.65,2022-10-26 10:14:58.078125
3056,21.46,2022-10-26 10:14:58.093750
3057,21.72,2022-10-26 10:14:58.109375
3058,21.55,2022-10-26 10:14:58.125000
3059,21.04,2022-10-26 10:14:58.140625
3060,20.25,2022-10-26 10:14:58.156250
3061,19.34,2022-10-26 10:14:58.171875
3062,18.44,2022-10-26 10:14:58.187500
3063,17.73,2022-10-26 10:14:58.203125
3064,17.3,2022-10-26 10:14:58.218750
3065,17.13,2022-10-26 10:14:58.234375
3066,17.11,2022-10-26 10:14:58.250000
3067,17.13,2022-10-26 10:14:58.265625
3068,17.09,2022-10-26 10:14:58.281250
3069,16.91,2022-10-26 10:14:58.296875
3070,16.52,2022-10-26 10:14:58.312500
3071,15.83,2022-10-26 10:14:58.328125
3072,14.71,2022-10-26 10:14:58.343750
3073,13.03,2022-10-26 10:14:58.359375
3074,10.73,2022-10-26 10:14:58.375000
3075,7.87,2022-10-26 10:14:58.390625
3076,4.67,2022-10-26 10:14:58.406250
3077,1.42,2022-10-26 10:14:58.421875
3078,-1.73,2022-10-26 10:14:58.437500
3079,-4.78,2022-10-26 10:14:58.453125
3080,-8.02,2022-10-26 10:14:58.468750
3081,-11.84,2022-10-26 10:14:58.484375
3082,-16.65,2022-10-26 10:14:58.500000
3083,-22.61,2022-10-26 10:14:58.515625
3084,-29.43,2022-10-26 10:14:58.531250
3085,-36.38,2022-10-26 10:14:58.546875
3086,-42.31,2022-10-26 10:14:58.562500
3087,-45.98,2022-10-26 10:14:58.578125
3088,-46.44,2022-10-26 10:14:58.593750
3089,-43.34,2022-10-26 10:14:58.609375
3090,-37.01,2022-10-26 10:14:58.625000
3091,-28.41,2022-10-26 10:14:58.640625
3092,-18.81,2022-10-26 10:14:58.656250
3093,-9.43,2022-10-26 10:14:58.671875
3094,-1.1,2022-10-26 10:14:58.687500
3095,5.75,2022-10-26 10:14:58.703125
3096,11.1,2022-10-26 10:14:58.718750
3097,15.18,2022-10-26 10:14:58.734375
3098,18.24,2022-10-26 10:14:58.750000
3099,20.56,2022-10-26 10:14:58.765625
3100,22.34,2022-10-26 10:14:58.781250
3101,23.69,2022-10-26 10:14:58.796875
3102,24.64,2022-10-26 10:14:58.812500
3103,25.12,2022-10-26 10:14:58.828125
3104,25.01,2022-10-26 10:14:58.843750
3105,24.24,2022-10-26 10:14:58.859375
3106,22.89,2022-10-26 10:14:58.875000
3107,21.18,2022-10-26 10:14:58.890625
3108,19.4,2022-10-26 10:14:58.906250
3109,17.81,2022-10-26 10:14:58.921875
3110,16.51,2022-10-26 10:14:58.937500
3111,15.39,2022-10-26 10:14:58.953125
3112,14.18,2022-10-26 10:14:58.968750
3113,12.61,2022-10-26 10:14:58.984375
3114,10.48,2022-10-26 10:14:59.000000
3115,7.8,2022-10-26 10:14:59.015625
3116,4.69,2022-10-26 10:14:59.031250
3117,1.35,2022-10-26 10:14:59.046875
3118,-2.07,2022-10-26 10:14:59.062500
3119,-5.47,2022-10-26 10:14:59.078125
3120,-8.91,2022-10-26 10:14:59.093750
3121,-12.48,2022-10-26 10:14:59.109375
3122,-16.35,2022-10-26 10:14:59.125000
3123,-20.72,2022-10-26 10:14:59.140625
3124,-25.71,2022-10-26 10:14:59.156250
3125,-31.28,2022-10-26 10:14:59.171875
3126,-37.11,2022-10-26 10:14:59.187500
3127,-42.59,2022-10-26 10:14:59.203125
3128,-46.81,2022-10-26 10:14:59.218750
3129,-48.73,2022-10-26 10:14:59.234375
3130,-47.56,2022-10-26 10:14:59.250000
3131,-42.97,2022-10-26 10:14:59.265625
3132,-35.31,2022-10-26 10:14:59.281250
3133,-25.55,2022-10-26 10:14:59.296875
3134,-15.0,2022-10-26 10:14:59.312500
3135,-4.92,2022-10-26 10:14:59.328125
3136,3.71,2022-10-26 10:14:59.343750
3137,10.38,2022-10-26 10:14:59.359375
3138,15.02,2022-10-26 10:14:59.375000
3139,17.84,2022-10-26 10:14:59.390625
3140,19.23,2022-10-26 10:14:59.406250
3141,19.63,2022-10-26 10:14:59.421875
3142,19.51,2022-10-26 10:14:59.437500
3143,19.29,2022-10-26 10:14:59.453125
3144,19.26,2022-10-26 10:14:59.468750
3145,19.5,2022-10-26 10:14:59.484375
3146,19.84,2022-10-26 10:14:59.500000
3147,19.96,2022-10-26 10:14:59.515625
3148,19.52,2022-10-26 10:14:59.531250
3149,18.35,2022-10-26 10:14:59.546875
3150,16.52,2022-10-26 10:14:59.562500
3151,14.36,2022-10-26 10:14:59.578125
3152,12.26,2022-10-26 10:14:59.593750
3153,10.6,2022-10-26 10:14:59.609375
3154,9.49,2022-10-26 10:14:59.625000
3155,8.75,2022-10-26 10:14:59.640625
3156,7.99,2022-10-26 10:14:59.656250
3157,6.75,2022-10-26 10:14:59.671875
3158,4.7,2022-10-26 10:14:59.687500
3159,1.84,2022-10-26 10:14:59.703125
3160,-1.58,2022-10-26 10:14:59.718750
3161,-5.18,2022-10-26 10:14:59.734375
3162,-8.61,2022-10-26 10:14:59.750000
3163,-11.79,2022-10-26 10:14:59.765625
3164,-14.87,2022-10-26 10:14:59.781250
3165,-18.14,2022-10-26 10:14:59.796875
3166,-21.98,2022-10-26 10:14:59.812500
3167,-26.68,2022-10-26 10:14:59.828125
3168,-32.36,2022-10-26 10:14:59.843750
3169,-38.77,2022-10-26 10:14:59.859375
3170,-45.37,2022-10-26 10:14:59.875000
3171,-51.17,2022-10-26 10:14:59.890625
3172,-54.93,2022-10-26 10:14:59.906250
