,BVP,time
0,6.44,2022-10-28 15:53:30.343750
1,13.83,2022-10-28 15:53:30.359375
2,19.62,2022-10-28 15:53:30.375000
3,23.14,2022-10-28 15:53:30.390625
4,25.28,2022-10-28 15:53:30.406250
5,28.49,2022-10-28 15:53:30.421875
6,35.32,2022-10-28 15:53:30.437500
7,46.79,2022-10-28 15:53:30.453125
8,61.59,2022-10-28 15:53:30.468750
9,76.42,2022-10-28 15:53:30.484375
10,87.24,2022-10-28 15:53:30.500000
11,90.88,2022-10-28 15:53:30.515625
12,86.05,2022-10-28 15:53:30.531250
13,73.55,2022-10-28 15:53:30.546875
14,55.66,2022-10-28 15:53:30.562500
15,35.33,2022-10-28 15:53:30.578125
16,15.04,2022-10-28 15:53:30.593750
17,-3.73,2022-10-28 15:53:30.609375
18,-20.58,2022-10-28 15:53:30.625000
19,-35.53,2022-10-28 15:53:30.640625
20,-48.28,2022-10-28 15:53:30.656250
21,-57.95,2022-10-28 15:53:30.671875
22,-63.44,2022-10-28 15:53:30.687500
23,-64.49,2022-10-28 15:53:30.703125
24,-62.17,2022-10-28 15:53:30.718750
25,-58.59,2022-10-28 15:53:30.734375
26,-55.67,2022-10-28 15:53:30.750000
27,-54.05,2022-10-28 15:53:30.765625
28,-52.93,2022-10-28 15:53:30.781250
29,-51.18,2022-10-28 15:53:30.796875
30,-49.05,2022-10-28 15:53:30.812500
31,-48.75,2022-10-28 15:53:30.828125
32,-53.84,2022-10-28 15:53:30.843750
33,-67.28,2022-10-28 15:53:30.859375
34,-89.82,2022-10-28 15:53:30.875000
35,-119.14,2022-10-28 15:53:30.890625
36,-151.21,2022-10-28 15:53:30.906250
37,-182.31,2022-10-28 15:53:30.921875
38,-210.62,2022-10-28 15:53:30.937500
39,-236.24,2022-10-28 15:53:30.953125
40,-259.77,2022-10-28 15:53:30.968750
41,-280.86,2022-10-28 15:53:30.984375
42,-297.8,2022-10-28 15:53:31.000000
43,-308.28,2022-10-28 15:53:31.015625
44,-310.52,2022-10-28 15:53:31.031250
45,-303.88,2022-10-28 15:53:31.046875
46,-288.45,2022-10-28 15:53:31.062500
47,-264.18,2022-10-28 15:53:31.078125
48,-230.44,2022-10-28 15:53:31.093750
49,-186.55,2022-10-28 15:53:31.109375
50,-132.79,2022-10-28 15:53:31.125000
51,-71.05,2022-10-28 15:53:31.140625
52,-4.46,2022-10-28 15:53:31.156250
53,63.88,2022-10-28 15:53:31.171875
54,132.24,2022-10-28 15:53:31.187500
55,200.97,2022-10-28 15:53:31.203125
56,271.61,2022-10-28 15:53:31.218750
57,345.09,2022-10-28 15:53:31.234375
58,419.87,2022-10-28 15:53:31.250000
59,490.98,2022-10-28 15:53:31.265625
60,550.49,2022-10-28 15:53:31.281250
61,589.59,2022-10-28 15:53:31.296875
62,601.33,2022-10-28 15:53:31.312500
63,583.5,2022-10-28 15:53:31.328125
64,540.08,2022-10-28 15:53:31.343750
65,480.28,2022-10-28 15:53:31.359375
66,415.26,2022-10-28 15:53:31.375000
67,354.46,2022-10-28 15:53:31.390625
68,302.78,2022-10-28 15:53:31.406250
69,260.34,2022-10-28 15:53:31.421875
70,224.53,2022-10-28 15:53:31.437500
71,192.82,2022-10-28 15:53:31.453125
72,164.57,2022-10-28 15:53:31.468750
73,141.01,2022-10-28 15:53:31.484375
74,123.67,2022-10-28 15:53:31.500000
75,112.53,2022-10-28 15:53:31.515625
76,105.35,2022-10-28 15:53:31.531250
77,98.41,2022-10-28 15:53:31.546875
78,88.26,2022-10-28 15:53:31.562500
79,73.14,2022-10-28 15:53:31.578125
80,53.68,2022-10-28 15:53:31.593750
81,32.15,2022-10-28 15:53:31.609375
82,11.0,2022-10-28 15:53:31.625000
83,-8.42,2022-10-28 15:53:31.640625
84,-26.35,2022-10-28 15:53:31.656250
85,-44.06,2022-10-28 15:53:31.671875
86,-62.9,2022-10-28 15:53:31.687500
87,-83.07,2022-10-28 15:53:31.703125
88,-103.15,2022-10-28 15:53:31.718750
89,-120.65,2022-10-28 15:53:31.734375
90,-133.3,2022-10-28 15:53:31.750000
91,-140.12,2022-10-28 15:53:31.765625
92,-142.0,2022-10-28 15:53:31.781250
93,-141.17,2022-10-28 15:53:31.796875
94,-140.09,2022-10-28 15:53:31.812500
95,-140.29,2022-10-28 15:53:31.828125
96,-142.02,2022-10-28 15:53:31.843750
97,-144.64,2022-10-28 15:53:31.859375
98,-147.55,2022-10-28 15:53:31.875000
99,-150.8,2022-10-28 15:53:31.890625
100,-155.18,2022-10-28 15:53:31.906250
101,-161.68,2022-10-28 15:53:31.921875
102,-170.78,2022-10-28 15:53:31.937500
103,-181.86,2022-10-28 15:53:31.953125
104,-193.13,2022-10-28 15:53:31.968750
105,-202.08,2022-10-28 15:53:31.984375
106,-206.11,2022-10-28 15:53:32.000000
107,-203.48,2022-10-28 15:53:32.015625
108,-193.85,2022-10-28 15:53:32.031250
109,-178.72,2022-10-28 15:53:32.046875
110,-161.11,2022-10-28 15:53:32.062500
111,-145.13,2022-10-28 15:53:32.078125
112,-135.05,2022-10-28 15:53:32.093750
113,-134.16,2022-10-28 15:53:32.109375
114,-143.5,2022-10-28 15:53:32.125000
115,-160.83,2022-10-28 15:53:32.140625
116,-180.76,2022-10-28 15:53:32.156250
117,-195.98,2022-10-28 15:53:32.171875
118,-199.63,2022-10-28 15:53:32.187500
119,-187.84,2022-10-28 15:53:32.203125
120,-161.7,2022-10-28 15:53:32.218750
121,-127.36,2022-10-28 15:53:32.234375
122,-94.1,2022-10-28 15:53:32.250000
123,-70.91,2022-10-28 15:53:32.265625
124,-62.94,2022-10-28 15:53:32.281250
125,-69.47,2022-10-28 15:53:32.296875
126,-84.18,2022-10-28 15:53:32.312500
127,-97.7,2022-10-28 15:53:32.328125
128,-100.89,2022-10-28 15:53:32.343750
129,-87.63,2022-10-28 15:53:32.359375
130,-56.11,2022-10-28 15:53:32.375000
131,-8.77,2022-10-28 15:53:32.390625
132,48.24,2022-10-28 15:53:32.406250
133,106.15,2022-10-28 15:53:32.421875
134,154.97,2022-10-28 15:53:32.437500
135,185.6,2022-10-28 15:53:32.453125
136,192.39,2022-10-28 15:53:32.468750
137,175.28,2022-10-28 15:53:32.484375
138,140.48,2022-10-28 15:53:32.500000
139,98.84,2022-10-28 15:53:32.515625
140,62.38,2022-10-28 15:53:32.531250
141,40.1,2022-10-28 15:53:32.546875
142,35.53,2022-10-28 15:53:32.562500
143,46.61,2022-10-28 15:53:32.578125
144,68.16,2022-10-28 15:53:32.593750
145,94.79,2022-10-28 15:53:32.609375
146,123.05,2022-10-28 15:53:32.625000
147,151.58,2022-10-28 15:53:32.640625
148,179.89,2022-10-28 15:53:32.656250
149,207.16,2022-10-28 15:53:32.671875
150,231.98,2022-10-28 15:53:32.687500
151,253.38,2022-10-28 15:53:32.703125
152,272.24,2022-10-28 15:53:32.718750
153,291.76,2022-10-28 15:53:32.734375
154,316.52,2022-10-28 15:53:32.750000
155,350.02,2022-10-28 15:53:32.765625
156,392.14,2022-10-28 15:53:32.781250
157,437.95,2022-10-28 15:53:32.796875
158,478.74,2022-10-28 15:53:32.812500
159,505.08,2022-10-28 15:53:32.828125
160,510.37,2022-10-28 15:53:32.843750
161,493.07,2022-10-28 15:53:32.859375
162,456.61,2022-10-28 15:53:32.875000
163,407.25,2022-10-28 15:53:32.890625
164,351.09,2022-10-28 15:53:32.906250
165,291.95,2022-10-28 15:53:32.921875
166,231.15,2022-10-28 15:53:32.937500
167,168.59,2022-10-28 15:53:32.953125
168,104.43,2022-10-28 15:53:32.968750
169,40.1,2022-10-28 15:53:32.984375
170,-22.06,2022-10-28 15:53:33.000000
171,-79.93,2022-10-28 15:53:33.015625
172,-133.03,2022-10-28 15:53:33.031250
173,-183.23,2022-10-28 15:53:33.046875
174,-234.42,2022-10-28 15:53:33.062500
175,-290.88,2022-10-28 15:53:33.078125
176,-354.99,2022-10-28 15:53:33.093750
177,-425.06,2022-10-28 15:53:33.109375
178,-494.48,2022-10-28 15:53:33.125000
179,-552.89,2022-10-28 15:53:33.140625
180,-589.4,2022-10-28 15:53:33.156250
181,-596.57,2022-10-28 15:53:33.171875
182,-573.38,2022-10-28 15:53:33.187500
183,-525.52,2022-10-28 15:53:33.203125
184,-462.89,2022-10-28 15:53:33.218750
185,-395.29,2022-10-28 15:53:33.234375
186,-328.7,2022-10-28 15:53:33.250000
187,-263.99,2022-10-28 15:53:33.265625
188,-198.61,2022-10-28 15:53:33.281250
189,-129.92,2022-10-28 15:53:33.296875
190,-58.12,2022-10-28 15:53:33.312500
191,13.25,2022-10-28 15:53:33.328125
192,79.05,2022-10-28 15:53:33.343750
193,135.14,2022-10-28 15:53:33.359375
194,179.95,2022-10-28 15:53:33.375000
195,214.09,2022-10-28 15:53:33.390625
196,238.66,2022-10-28 15:53:33.406250
197,253.87,2022-10-28 15:53:33.421875
198,259.07,2022-10-28 15:53:33.437500
199,254.17,2022-10-28 15:53:33.453125
200,241.15,2022-10-28 15:53:33.468750
201,224.25,2022-10-28 15:53:33.484375
202,208.26,2022-10-28 15:53:33.500000
203,196.17,2022-10-28 15:53:33.515625
204,187.76,2022-10-28 15:53:33.531250
205,180.23,2022-10-28 15:53:33.546875
206,170.56,2022-10-28 15:53:33.562500
207,157.8,2022-10-28 15:53:33.578125
208,143.81,2022-10-28 15:53:33.593750
209,131.78,2022-10-28 15:53:33.609375
210,123.61,2022-10-28 15:53:33.625000
211,118.18,2022-10-28 15:53:33.640625
212,111.61,2022-10-28 15:53:33.656250
213,99.56,2022-10-28 15:53:33.671875
214,79.68,2022-10-28 15:53:33.687500
215,52.63,2022-10-28 15:53:33.703125
216,21.12,2022-10-28 15:53:33.718750
217,-12.35,2022-10-28 15:53:33.734375
218,-47.68,2022-10-28 15:53:33.750000
219,-87.65,2022-10-28 15:53:33.765625
220,-136.36,2022-10-28 15:53:33.781250
221,-196.33,2022-10-28 15:53:33.796875
222,-266.07,2022-10-28 15:53:33.812500
223,-339.27,2022-10-28 15:53:33.828125
224,-406.43,2022-10-28 15:53:33.843750
225,-457.78,2022-10-28 15:53:33.859375
226,-486.54,2022-10-28 15:53:33.875000
227,-490.81,2022-10-28 15:53:33.890625
228,-473.2,2022-10-28 15:53:33.906250
229,-438.95,2022-10-28 15:53:33.921875
230,-393.51,2022-10-28 15:53:33.937500
231,-340.93,2022-10-28 15:53:33.953125
232,-283.78,2022-10-28 15:53:33.968750
233,-224.06,2022-10-28 15:53:33.984375
234,-164.2,2022-10-28 15:53:34.000000
235,-107.29,2022-10-28 15:53:34.015625
236,-56.63,2022-10-28 15:53:34.031250
237,-14.76,2022-10-28 15:53:34.046875
238,17.17,2022-10-28 15:53:34.062500
239,39.77,2022-10-28 15:53:34.078125
240,55.39,2022-10-28 15:53:34.093750
241,67.8,2022-10-28 15:53:34.109375
242,81.36,2022-10-28 15:53:34.125000
243,99.72,2022-10-28 15:53:34.140625
244,124.27,2022-10-28 15:53:34.156250
245,153.14,2022-10-28 15:53:34.171875
246,181.57,2022-10-28 15:53:34.187500
247,203.43,2022-10-28 15:53:34.203125
248,213.66,2022-10-28 15:53:34.218750
249,210.12,2022-10-28 15:53:34.234375
250,193.8,2022-10-28 15:53:34.250000
251,167.49,2022-10-28 15:53:34.265625
252,133.99,2022-10-28 15:53:34.281250
253,95.11,2022-10-28 15:53:34.296875
254,52.22,2022-10-28 15:53:34.312500
255,7.59,2022-10-28 15:53:34.328125
256,-34.81,2022-10-28 15:53:34.343750
257,-69.89,2022-10-28 15:53:34.359375
258,-93.15,2022-10-28 15:53:34.375000
259,-102.6,2022-10-28 15:53:34.390625
260,-99.4,2022-10-28 15:53:34.406250
261,-87.28,2022-10-28 15:53:34.421875
262,-70.92,2022-10-28 15:53:34.437500
263,-54.12,2022-10-28 15:53:34.453125
264,-38.82,2022-10-28 15:53:34.468750
265,-24.97,2022-10-28 15:53:34.484375
266,-11.26,2022-10-28 15:53:34.500000
267,3.76,2022-10-28 15:53:34.515625
268,20.83,2022-10-28 15:53:34.531250
269,39.7,2022-10-28 15:53:34.546875
270,59.19,2022-10-28 15:53:34.562500
271,77.92,2022-10-28 15:53:34.578125
272,94.96,2022-10-28 15:53:34.593750
273,110.18,2022-10-28 15:53:34.609375
274,124.08,2022-10-28 15:53:34.625000
275,137.11,2022-10-28 15:53:34.640625
276,148.93,2022-10-28 15:53:34.656250
277,158.38,2022-10-28 15:53:34.671875
278,163.93,2022-10-28 15:53:34.687500
279,164.64,2022-10-28 15:53:34.703125
280,160.84,2022-10-28 15:53:34.718750
281,154.22,2022-10-28 15:53:34.734375
282,147.1,2022-10-28 15:53:34.750000
283,141.35,2022-10-28 15:53:34.765625
284,137.44,2022-10-28 15:53:34.781250
285,134.12,2022-10-28 15:53:34.796875
286,129.02,2022-10-28 15:53:34.812500
287,119.69,2022-10-28 15:53:34.828125
288,104.98,2022-10-28 15:53:34.843750
289,85.62,2022-10-28 15:53:34.859375
290,64.16,2022-10-28 15:53:34.875000
291,43.85,2022-10-28 15:53:34.890625
292,27.37,2022-10-28 15:53:34.906250
293,15.75,2022-10-28 15:53:34.921875
294,8.24,2022-10-28 15:53:34.937500
295,3.04,2022-10-28 15:53:34.953125
296,-1.56,2022-10-28 15:53:34.968750
297,-6.28,2022-10-28 15:53:34.984375
298,-10.58,2022-10-28 15:53:35.000000
299,-13.24,2022-10-28 15:53:35.015625
300,-13.18,2022-10-28 15:53:35.031250
301,-10.13,2022-10-28 15:53:35.046875
302,-4.76,2022-10-28 15:53:35.062500
303,1.74,2022-10-28 15:53:35.078125
304,8.28,2022-10-28 15:53:35.093750
305,14.38,2022-10-28 15:53:35.109375
306,20.32,2022-10-28 15:53:35.125000
307,26.94,2022-10-28 15:53:35.140625
308,35.04,2022-10-28 15:53:35.156250
309,44.68,2022-10-28 15:53:35.171875
310,54.82,2022-10-28 15:53:35.187500
311,63.42,2022-10-28 15:53:35.203125
312,68.35,2022-10-28 15:53:35.218750
313,68.43,2022-10-28 15:53:35.234375
314,64.24,2022-10-28 15:53:35.250000
315,58.05,2022-10-28 15:53:35.265625
316,52.9,2022-10-28 15:53:35.281250
317,51.14,2022-10-28 15:53:35.296875
318,53.66,2022-10-28 15:53:35.312500
319,59.99,2022-10-28 15:53:35.328125
320,69.04,2022-10-28 15:53:35.343750
321,79.92,2022-10-28 15:53:35.359375
322,91.81,2022-10-28 15:53:35.375000
323,103.21,2022-10-28 15:53:35.390625
324,111.19,2022-10-28 15:53:35.406250
325,111.83,2022-10-28 15:53:35.421875
326,101.76,2022-10-28 15:53:35.437500
327,80.18,2022-10-28 15:53:35.453125
328,49.92,2022-10-28 15:53:35.468750
329,16.65,2022-10-28 15:53:35.484375
330,-13.48,2022-10-28 15:53:35.500000
331,-36.45,2022-10-28 15:53:35.515625
332,-51.64,2022-10-28 15:53:35.531250
333,-61.16,2022-10-28 15:53:35.546875
334,-67.98,2022-10-28 15:53:35.562500
335,-74.04,2022-10-28 15:53:35.578125
336,-79.57,2022-10-28 15:53:35.593750
337,-83.75,2022-10-28 15:53:35.609375
338,-85.99,2022-10-28 15:53:35.625000
339,-86.62,2022-10-28 15:53:35.640625
340,-86.82,2022-10-28 15:53:35.656250
341,-87.76,2022-10-28 15:53:35.671875
342,-89.9,2022-10-28 15:53:35.687500
343,-92.84,2022-10-28 15:53:35.703125
344,-95.55,2022-10-28 15:53:35.718750
345,-96.92,2022-10-28 15:53:35.734375
346,-96.08,2022-10-28 15:53:35.750000
347,-92.54,2022-10-28 15:53:35.765625
348,-86.16,2022-10-28 15:53:35.781250
349,-77.2,2022-10-28 15:53:35.796875
350,-66.36,2022-10-28 15:53:35.812500
351,-54.7,2022-10-28 15:53:35.828125
352,-43.47,2022-10-28 15:53:35.843750
353,-33.76,2022-10-28 15:53:35.859375
354,-26.17,2022-10-28 15:53:35.875000
355,-20.72,2022-10-28 15:53:35.890625
356,-17.05,2022-10-28 15:53:35.906250
357,-14.67,2022-10-28 15:53:35.921875
358,-13.21,2022-10-28 15:53:35.937500
359,-12.51,2022-10-28 15:53:35.953125
360,-12.54,2022-10-28 15:53:35.968750
361,-13.22,2022-10-28 15:53:35.984375
362,-14.33,2022-10-28 15:53:36.000000
363,-15.47,2022-10-28 15:53:36.015625
364,-16.21,2022-10-28 15:53:36.031250
365,-16.24,2022-10-28 15:53:36.046875
366,-15.43,2022-10-28 15:53:36.062500
367,-13.88,2022-10-28 15:53:36.078125
368,-11.77,2022-10-28 15:53:36.093750
369,-9.2,2022-10-28 15:53:36.109375
370,-6.13,2022-10-28 15:53:36.125000
371,-2.37,2022-10-28 15:53:36.140625
372,2.14,2022-10-28 15:53:36.156250
373,7.22,2022-10-28 15:53:36.171875
374,12.31,2022-10-28 15:53:36.187500
375,16.63,2022-10-28 15:53:36.203125
376,19.43,2022-10-28 15:53:36.218750
377,20.28,2022-10-28 15:53:36.234375
378,19.21,2022-10-28 15:53:36.250000
379,16.67,2022-10-28 15:53:36.265625
380,13.33,2022-10-28 15:53:36.281250
381,9.81,2022-10-28 15:53:36.296875
382,6.55,2022-10-28 15:53:36.312500
383,3.73,2022-10-28 15:53:36.328125
384,1.33,2022-10-28 15:53:36.343750
385,-0.85,2022-10-28 15:53:36.359375
386,-3.06,2022-10-28 15:53:36.375000
387,-5.55,2022-10-28 15:53:36.390625
388,-8.51,2022-10-28 15:53:36.406250
389,-11.97,2022-10-28 15:53:36.421875
390,-15.91,2022-10-28 15:53:36.437500
391,-20.19,2022-10-28 15:53:36.453125
392,-24.74,2022-10-28 15:53:36.468750
393,-29.57,2022-10-28 15:53:36.484375
394,-34.75,2022-10-28 15:53:36.500000
395,-40.27,2022-10-28 15:53:36.515625
396,-45.88,2022-10-28 15:53:36.531250
397,-50.93,2022-10-28 15:53:36.546875
398,-54.49,2022-10-28 15:53:36.562500
399,-55.53,2022-10-28 15:53:36.578125
400,-53.33,2022-10-28 15:53:36.593750
401,-47.8,2022-10-28 15:53:36.609375
402,-39.6,2022-10-28 15:53:36.625000
403,-29.98,2022-10-28 15:53:36.640625
404,-20.38,2022-10-28 15:53:36.656250
405,-11.97,2022-10-28 15:53:36.671875
406,-5.35,2022-10-28 15:53:36.687500
407,-0.5,2022-10-28 15:53:36.703125
408,2.96,2022-10-28 15:53:36.718750
409,5.47,2022-10-28 15:53:36.734375
410,7.25,2022-10-28 15:53:36.750000
411,8.28,2022-10-28 15:53:36.765625
412,8.39,2022-10-28 15:53:36.781250
413,7.53,2022-10-28 15:53:36.796875
414,5.95,2022-10-28 15:53:36.812500
415,4.24,2022-10-28 15:53:36.828125
416,3.15,2022-10-28 15:53:36.843750
417,3.33,2022-10-28 15:53:36.859375
418,5.05,2022-10-28 15:53:36.875000
419,8.16,2022-10-28 15:53:36.890625
420,12.18,2022-10-28 15:53:36.906250
421,16.48,2022-10-28 15:53:36.921875
422,20.49,2022-10-28 15:53:36.937500
423,23.78,2022-10-28 15:53:36.953125
424,26.14,2022-10-28 15:53:36.968750
425,27.51,2022-10-28 15:53:36.984375
426,28.07,2022-10-28 15:53:37.000000
427,28.09,2022-10-28 15:53:37.015625
428,27.91,2022-10-28 15:53:37.031250
429,27.68,2022-10-28 15:53:37.046875
430,27.26,2022-10-28 15:53:37.062500
431,26.15,2022-10-28 15:53:37.078125
432,23.73,2022-10-28 15:53:37.093750
433,19.55,2022-10-28 15:53:37.109375
434,13.64,2022-10-28 15:53:37.125000
435,6.73,2022-10-28 15:53:37.140625
436,0.03,2022-10-28 15:53:37.156250
437,-4.9,2022-10-28 15:53:37.171875
438,-6.62,2022-10-28 15:53:37.187500
439,-4.01,2022-10-28 15:53:37.203125
440,3.42,2022-10-28 15:53:37.218750
441,15.29,2022-10-28 15:53:37.234375
442,30.14,2022-10-28 15:53:37.250000
443,45.59,2022-10-28 15:53:37.265625
444,58.73,2022-10-28 15:53:37.281250
445,66.88,2022-10-28 15:53:37.296875
446,68.35,2022-10-28 15:53:37.312500
447,62.88,2022-10-28 15:53:37.328125
448,51.54,2022-10-28 15:53:37.343750
449,36.28,2022-10-28 15:53:37.359375
450,19.4,2022-10-28 15:53:37.375000
451,3.21,2022-10-28 15:53:37.390625
452,-10.19,2022-10-28 15:53:37.406250
453,-19.01,2022-10-28 15:53:37.421875
454,-22.05,2022-10-28 15:53:37.437500
455,-18.97,2022-10-28 15:53:37.453125
456,-10.46,2022-10-28 15:53:37.468750
457,1.86,2022-10-28 15:53:37.484375
458,15.96,2022-10-28 15:53:37.500000
459,30.0,2022-10-28 15:53:37.515625
460,42.77,2022-10-28 15:53:37.531250
461,53.72,2022-10-28 15:53:37.546875
462,62.72,2022-10-28 15:53:37.562500
463,69.75,2022-10-28 15:53:37.578125
464,74.71,2022-10-28 15:53:37.593750
465,77.54,2022-10-28 15:53:37.609375
466,78.32,2022-10-28 15:53:37.625000
467,77.33,2022-10-28 15:53:37.640625
468,74.95,2022-10-28 15:53:37.656250
469,71.59,2022-10-28 15:53:37.671875
470,67.63,2022-10-28 15:53:37.687500
471,63.49,2022-10-28 15:53:37.703125
472,59.8,2022-10-28 15:53:37.718750
473,57.36,2022-10-28 15:53:37.734375
474,57.02,2022-10-28 15:53:37.750000
475,59.49,2022-10-28 15:53:37.765625
476,65.11,2022-10-28 15:53:37.781250
477,73.67,2022-10-28 15:53:37.796875
478,84.43,2022-10-28 15:53:37.812500
479,96.14,2022-10-28 15:53:37.828125
480,107.37,2022-10-28 15:53:37.843750
481,116.81,2022-10-28 15:53:37.859375
482,123.72,2022-10-28 15:53:37.875000
483,128.14,2022-10-28 15:53:37.890625
484,130.89,2022-10-28 15:53:37.906250
485,133.25,2022-10-28 15:53:37.921875
486,136.35,2022-10-28 15:53:37.937500
487,140.77,2022-10-28 15:53:37.953125
488,146.33,2022-10-28 15:53:37.968750
489,152.32,2022-10-28 15:53:37.984375
490,157.97,2022-10-28 15:53:38.000000
491,162.78,2022-10-28 15:53:38.015625
492,166.67,2022-10-28 15:53:38.031250
493,169.84,2022-10-28 15:53:38.046875
494,172.53,2022-10-28 15:53:38.062500
495,175.01,2022-10-28 15:53:38.078125
496,177.67,2022-10-28 15:53:38.093750
497,181.11,2022-10-28 15:53:38.109375
498,185.91,2022-10-28 15:53:38.125000
499,192.17,2022-10-28 15:53:38.140625
500,198.79,2022-10-28 15:53:38.156250
501,203.26,2022-10-28 15:53:38.171875
502,202.06,2022-10-28 15:53:38.187500
503,191.75,2022-10-28 15:53:38.203125
504,170.33,2022-10-28 15:53:38.218750
505,138.04,2022-10-28 15:53:38.234375
506,97.29,2022-10-28 15:53:38.250000
507,51.81,2022-10-28 15:53:38.265625
508,5.38,2022-10-28 15:53:38.281250
509,-39.35,2022-10-28 15:53:38.296875
510,-81.33,2022-10-28 15:53:38.312500
511,-121.21,2022-10-28 15:53:38.328125
512,-160.82,2022-10-28 15:53:38.343750
513,-202.52,2022-10-28 15:53:38.359375
514,-248.1,2022-10-28 15:53:38.375000
515,-297.51,2022-10-28 15:53:38.390625
516,-348.04,2022-10-28 15:53:38.406250
517,-394.61,2022-10-28 15:53:38.421875
518,-431.14,2022-10-28 15:53:38.437500
519,-452.54,2022-10-28 15:53:38.453125
520,-456.56,2022-10-28 15:53:38.468750
521,-444.09,2022-10-28 15:53:38.484375
522,-417.97,2022-10-28 15:53:38.500000
523,-381.49,2022-10-28 15:53:38.515625
524,-337.25,2022-10-28 15:53:38.531250
525,-287.35,2022-10-28 15:53:38.546875
526,-234.18,2022-10-28 15:53:38.562500
527,-180.75,2022-10-28 15:53:38.578125
528,-130.12,2022-10-28 15:53:38.593750
529,-84.28,2022-10-28 15:53:38.609375
530,-43.5,2022-10-28 15:53:38.625000
531,-6.76,2022-10-28 15:53:38.640625
532,26.63,2022-10-28 15:53:38.656250
533,55.55,2022-10-28 15:53:38.671875
534,76.91,2022-10-28 15:53:38.687500
535,87.12,2022-10-28 15:53:38.703125
536,84.68,2022-10-28 15:53:38.718750
537,71.8,2022-10-28 15:53:38.734375
538,54.27,2022-10-28 15:53:38.750000
539,39.33,2022-10-28 15:53:38.765625
540,32.85,2022-10-28 15:53:38.781250
541,37.0,2022-10-28 15:53:38.796875
542,49.97,2022-10-28 15:53:38.812500
543,67.13,2022-10-28 15:53:38.828125
544,83.43,2022-10-28 15:53:38.843750
545,95.24,2022-10-28 15:53:38.859375
546,101.02,2022-10-28 15:53:38.875000
547,101.02,2022-10-28 15:53:38.890625
548,96.15,2022-10-28 15:53:38.906250
549,87.08,2022-10-28 15:53:38.921875
550,74.31,2022-10-28 15:53:38.937500
551,59.01,2022-10-28 15:53:38.953125
552,43.57,2022-10-28 15:53:38.968750
553,31.23,2022-10-28 15:53:38.984375
554,24.53,2022-10-28 15:53:39.000000
555,23.3,2022-10-28 15:53:39.015625
556,23.68,2022-10-28 15:53:39.031250
557,19.14,2022-10-28 15:53:39.046875
558,2.83,2022-10-28 15:53:39.062500
559,-29.46,2022-10-28 15:53:39.078125
560,-77.34,2022-10-28 15:53:39.093750
561,-135.61,2022-10-28 15:53:39.109375
562,-195.79,2022-10-28 15:53:39.125000
563,-248.59,2022-10-28 15:53:39.140625
564,-286.77,2022-10-28 15:53:39.156250
565,-307.49,2022-10-28 15:53:39.171875
566,-312.89,2022-10-28 15:53:39.187500
567,-309.08,2022-10-28 15:53:39.203125
568,-303.17,2022-10-28 15:53:39.218750
569,-299.78,2022-10-28 15:53:39.234375
570,-298.65,2022-10-28 15:53:39.250000
571,-294.75,2022-10-28 15:53:39.265625
572,-280.87,2022-10-28 15:53:39.281250
573,-251.36,2022-10-28 15:53:39.296875
574,-204.94,2022-10-28 15:53:39.312500
575,-144.99,2022-10-28 15:53:39.328125
576,-77.7,2022-10-28 15:53:39.343750
577,-9.52,2022-10-28 15:53:39.359375
578,54.51,2022-10-28 15:53:39.375000
579,110.89,2022-10-28 15:53:39.390625
580,157.13,2022-10-28 15:53:39.406250
581,191.24,2022-10-28 15:53:39.421875
582,212.18,2022-10-28 15:53:39.437500
583,220.51,2022-10-28 15:53:39.453125
584,218.52,2022-10-28 15:53:39.468750
585,209.38,2022-10-28 15:53:39.484375
586,196.02,2022-10-28 15:53:39.500000
587,180.76,2022-10-28 15:53:39.515625
588,165.37,2022-10-28 15:53:39.531250
589,151.55,2022-10-28 15:53:39.546875
590,140.79,2022-10-28 15:53:39.562500
591,133.38,2022-10-28 15:53:39.578125
592,127.82,2022-10-28 15:53:39.593750
593,121.21,2022-10-28 15:53:39.609375
594,111.25,2022-10-28 15:53:39.625000
595,98.18,2022-10-28 15:53:39.640625
596,85.05,2022-10-28 15:53:39.656250
597,76.13,2022-10-28 15:53:39.671875
598,74.54,2022-10-28 15:53:39.687500
599,81.0,2022-10-28 15:53:39.703125
600,94.19,2022-10-28 15:53:39.718750
601,112.37,2022-10-28 15:53:39.734375
602,134.39,2022-10-28 15:53:39.750000
603,159.08,2022-10-28 15:53:39.765625
604,183.75,2022-10-28 15:53:39.781250
605,203.18,2022-10-28 15:53:39.796875
606,210.51,2022-10-28 15:53:39.812500
607,200.09,2022-10-28 15:53:39.828125
608,170.4,2022-10-28 15:53:39.843750
609,124.77,2022-10-28 15:53:39.859375
610,69.49,2022-10-28 15:53:39.875000
611,10.49,2022-10-28 15:53:39.890625
612,-49.12,2022-10-28 15:53:39.906250
613,-109.14,2022-10-28 15:53:39.921875
614,-170.09,2022-10-28 15:53:39.937500
615,-230.59,2022-10-28 15:53:39.953125
616,-286.31,2022-10-28 15:53:39.968750
617,-331.04,2022-10-28 15:53:39.984375
618,-359.11,2022-10-28 15:53:40.000000
619,-367.57,2022-10-28 15:53:40.015625
620,-357.41,2022-10-28 15:53:40.031250
621,-333.27,2022-10-28 15:53:40.046875
622,-301.73,2022-10-28 15:53:40.062500
623,-269.14,2022-10-28 15:53:40.078125
624,-239.61,2022-10-28 15:53:40.093750
625,-214.23,2022-10-28 15:53:40.109375
626,-191.59,2022-10-28 15:53:40.125000
627,-169.38,2022-10-28 15:53:40.140625
628,-146.19,2022-10-28 15:53:40.156250
629,-122.51,2022-10-28 15:53:40.171875
630,-100.28,2022-10-28 15:53:40.187500
631,-81.43,2022-10-28 15:53:40.203125
632,-66.55,2022-10-28 15:53:40.218750
633,-54.5,2022-10-28 15:53:40.234375
634,-43.6,2022-10-28 15:53:40.250000
635,-33.14,2022-10-28 15:53:40.265625
636,-24.29,2022-10-28 15:53:40.281250
637,-19.56,2022-10-28 15:53:40.296875
638,-21.1,2022-10-28 15:53:40.312500
639,-29.11,2022-10-28 15:53:40.328125
640,-41.29,2022-10-28 15:53:40.343750
641,-53.74,2022-10-28 15:53:40.359375
642,-62.54,2022-10-28 15:53:40.375000
643,-65.01,2022-10-28 15:53:40.390625
644,-59.89,2022-10-28 15:53:40.406250
645,-46.94,2022-10-28 15:53:40.421875
646,-26.34,2022-10-28 15:53:40.437500
647,1.37,2022-10-28 15:53:40.453125
648,34.84,2022-10-28 15:53:40.468750
649,71.45,2022-10-28 15:53:40.484375
650,107.33,2022-10-28 15:53:40.500000
651,138.24,2022-10-28 15:53:40.515625
652,160.74,2022-10-28 15:53:40.531250
653,173.27,2022-10-28 15:53:40.546875
654,176.43,2022-10-28 15:53:40.562500
655,172.37,2022-10-28 15:53:40.578125
656,163.6,2022-10-28 15:53:40.593750
657,151.99,2022-10-28 15:53:40.609375
658,138.35,2022-10-28 15:53:40.625000
659,122.64,2022-10-28 15:53:40.640625
660,104.58,2022-10-28 15:53:40.656250
661,84.42,2022-10-28 15:53:40.671875
662,63.2,2022-10-28 15:53:40.687500
663,42.79,2022-10-28 15:53:40.703125
664,25.33,2022-10-28 15:53:40.718750
665,12.64,2022-10-28 15:53:40.734375
666,5.56,2022-10-28 15:53:40.750000
667,3.75,2022-10-28 15:53:40.765625
668,5.85,2022-10-28 15:53:40.781250
669,9.83,2022-10-28 15:53:40.796875
670,13.52,2022-10-28 15:53:40.812500
671,15.29,2022-10-28 15:53:40.828125
672,14.57,2022-10-28 15:53:40.843750
673,11.95,2022-10-28 15:53:40.859375
674,8.78,2022-10-28 15:53:40.875000
675,6.27,2022-10-28 15:53:40.890625
676,4.51,2022-10-28 15:53:40.906250
677,2.23,2022-10-28 15:53:40.921875
678,-2.72,2022-10-28 15:53:40.937500
679,-12.09,2022-10-28 15:53:40.953125
680,-26.1,2022-10-28 15:53:40.968750
681,-42.94,2022-10-28 15:53:40.984375
682,-59.42,2022-10-28 15:53:41.000000
683,-72.2,2022-10-28 15:53:41.015625
684,-79.12,2022-10-28 15:53:41.031250
685,-79.88,2022-10-28 15:53:41.046875
686,-75.69,2022-10-28 15:53:41.062500
687,-68.31,2022-10-28 15:53:41.078125
688,-59.01,2022-10-28 15:53:41.093750
689,-48.12,2022-10-28 15:53:41.109375
690,-35.31,2022-10-28 15:53:41.125000
691,-20.38,2022-10-28 15:53:41.140625
692,-3.81,2022-10-28 15:53:41.156250
693,12.98,2022-10-28 15:53:41.171875
694,28.3,2022-10-28 15:53:41.187500
695,40.97,2022-10-28 15:53:41.203125
696,50.9,2022-10-28 15:53:41.218750
697,59.09,2022-10-28 15:53:41.234375
698,67.04,2022-10-28 15:53:41.250000
699,76.05,2022-10-28 15:53:41.265625
700,86.65,2022-10-28 15:53:41.281250
701,98.63,2022-10-28 15:53:41.296875
702,111.17,2022-10-28 15:53:41.312500
703,122.96,2022-10-28 15:53:41.328125
704,132.26,2022-10-28 15:53:41.343750
705,136.84,2022-10-28 15:53:41.359375
706,134.15,2022-10-28 15:53:41.375000
707,121.79,2022-10-28 15:53:41.390625
708,98.41,2022-10-28 15:53:41.406250
709,64.46,2022-10-28 15:53:41.421875
710,22.56,2022-10-28 15:53:41.437500
711,-22.85,2022-10-28 15:53:41.453125
712,-66.53,2022-10-28 15:53:41.468750
713,-103.76,2022-10-28 15:53:41.484375
714,-131.38,2022-10-28 15:53:41.500000
715,-148.4,2022-10-28 15:53:41.515625
716,-155.65,2022-10-28 15:53:41.531250
717,-155.04,2022-10-28 15:53:41.546875
718,-148.6,2022-10-28 15:53:41.562500
719,-137.86,2022-10-28 15:53:41.578125
720,-123.7,2022-10-28 15:53:41.593750
721,-106.81,2022-10-28 15:53:41.609375
722,-88.26,2022-10-28 15:53:41.625000
723,-69.57,2022-10-28 15:53:41.640625
724,-52.44,2022-10-28 15:53:41.656250
725,-38.14,2022-10-28 15:53:41.671875
726,-27.2,2022-10-28 15:53:41.687500
727,-19.57,2022-10-28 15:53:41.703125
728,-15.17,2022-10-28 15:53:41.718750
729,-14.2,2022-10-28 15:53:41.734375
730,-17.08,2022-10-28 15:53:41.750000
731,-24.18,2022-10-28 15:53:41.765625
732,-35.62,2022-10-28 15:53:41.781250
733,-51.21,2022-10-28 15:53:41.796875
734,-70.56,2022-10-28 15:53:41.812500
735,-92.99,2022-10-28 15:53:41.828125
736,-117.17,2022-10-28 15:53:41.843750
737,-140.67,2022-10-28 15:53:41.859375
738,-160.02,2022-10-28 15:53:41.875000
739,-171.54,2022-10-28 15:53:41.890625
740,-172.68,2022-10-28 15:53:41.906250
741,-163.28,2022-10-28 15:53:41.921875
742,-145.99,2022-10-28 15:53:41.937500
743,-125.41,2022-10-28 15:53:41.953125
744,-106.4,2022-10-28 15:53:41.968750
745,-92.38,2022-10-28 15:53:41.984375
746,-84.28,2022-10-28 15:53:42.000000
747,-80.78,2022-10-28 15:53:42.015625
748,-79.32,2022-10-28 15:53:42.031250
749,-77.38,2022-10-28 15:53:42.046875
750,-73.2,2022-10-28 15:53:42.062500
751,-66.08,2022-10-28 15:53:42.078125
752,-55.89,2022-10-28 15:53:42.093750
753,-42.7,2022-10-28 15:53:42.109375
754,-26.44,2022-10-28 15:53:42.125000
755,-7.05,2022-10-28 15:53:42.140625
756,15.24,2022-10-28 15:53:42.156250
757,39.56,2022-10-28 15:53:42.171875
758,64.38,2022-10-28 15:53:42.187500
759,88.0,2022-10-28 15:53:42.203125
760,109.33,2022-10-28 15:53:42.218750
761,128.55,2022-10-28 15:53:42.234375
762,147.2,2022-10-28 15:53:42.250000
763,167.38,2022-10-28 15:53:42.265625
764,190.43,2022-10-28 15:53:42.281250
765,215.79,2022-10-28 15:53:42.296875
766,240.89,2022-10-28 15:53:42.312500
767,262.16,2022-10-28 15:53:42.328125
768,276.57,2022-10-28 15:53:42.343750
769,282.96,2022-10-28 15:53:42.359375
770,282.27,2022-10-28 15:53:42.375000
771,276.41,2022-10-28 15:53:42.390625
772,266.43,2022-10-28 15:53:42.406250
773,251.29,2022-10-28 15:53:42.421875
774,228.0,2022-10-28 15:53:42.437500
775,193.43,2022-10-28 15:53:42.453125
776,146.63,2022-10-28 15:53:42.468750
777,90.71,2022-10-28 15:53:42.484375
778,32.74,2022-10-28 15:53:42.500000
779,-18.05,2022-10-28 15:53:42.515625
780,-53.25,2022-10-28 15:53:42.531250
781,-67.77,2022-10-28 15:53:42.546875
782,-61.02,2022-10-28 15:53:42.562500
783,-36.52,2022-10-28 15:53:42.578125
784,-0.41,2022-10-28 15:53:42.593750
785,40.34,2022-10-28 15:53:42.609375
786,79.31,2022-10-28 15:53:42.625000
787,111.25,2022-10-28 15:53:42.640625
788,132.55,2022-10-28 15:53:42.656250
789,141.33,2022-10-28 15:53:42.671875
790,137.68,2022-10-28 15:53:42.687500
791,123.77,2022-10-28 15:53:42.703125
792,103.45,2022-10-28 15:53:42.718750
793,81.48,2022-10-28 15:53:42.734375
794,62.29,2022-10-28 15:53:42.750000
795,48.97,2022-10-28 15:53:42.765625
796,42.62,2022-10-28 15:53:42.781250
797,42.32,2022-10-28 15:53:42.796875
798,45.44,2022-10-28 15:53:42.812500
799,48.61,2022-10-28 15:53:42.828125
800,48.61,2022-10-28 15:53:42.843750
801,43.35,2022-10-28 15:53:42.859375
802,32.48,2022-10-28 15:53:42.875000
803,17.67,2022-10-28 15:53:42.890625
804,2.0,2022-10-28 15:53:42.906250
805,-11.05,2022-10-28 15:53:42.921875
806,-18.91,2022-10-28 15:53:42.937500
807,-20.83,2022-10-28 15:53:42.953125
808,-17.95,2022-10-28 15:53:42.968750
809,-12.68,2022-10-28 15:53:42.984375
810,-7.47,2022-10-28 15:53:43.000000
811,-4.03,2022-10-28 15:53:43.015625
812,-2.88,2022-10-28 15:53:43.031250
813,-3.67,2022-10-28 15:53:43.046875
814,-5.73,2022-10-28 15:53:43.062500
815,-8.49,2022-10-28 15:53:43.078125
816,-11.73,2022-10-28 15:53:43.093750
817,-15.52,2022-10-28 15:53:43.109375
818,-20.03,2022-10-28 15:53:43.125000
819,-25.5,2022-10-28 15:53:43.140625
820,-32.07,2022-10-28 15:53:43.156250
821,-39.61,2022-10-28 15:53:43.171875
822,-47.57,2022-10-28 15:53:43.187500
823,-54.95,2022-10-28 15:53:43.203125
824,-60.38,2022-10-28 15:53:43.218750
825,-62.55,2022-10-28 15:53:43.234375
826,-60.61,2022-10-28 15:53:43.250000
827,-54.63,2022-10-28 15:53:43.265625
828,-45.54,2022-10-28 15:53:43.281250
829,-34.86,2022-10-28 15:53:43.296875
830,-24.31,2022-10-28 15:53:43.312500
831,-15.32,2022-10-28 15:53:43.328125
832,-8.69,2022-10-28 15:53:43.343750
833,-4.42,2022-10-28 15:53:43.359375
834,-1.72,2022-10-28 15:53:43.375000
835,0.76,2022-10-28 15:53:43.390625
836,4.37,2022-10-28 15:53:43.406250
837,9.94,2022-10-28 15:53:43.421875
838,17.35,2022-10-28 15:53:43.437500
839,25.65,2022-10-28 15:53:43.453125
840,33.55,2022-10-28 15:53:43.468750
841,40.11,2022-10-28 15:53:43.484375
842,45.34,2022-10-28 15:53:43.500000
843,50.17,2022-10-28 15:53:43.515625
844,55.91,2022-10-28 15:53:43.531250
845,63.48,2022-10-28 15:53:43.546875
846,73.06,2022-10-28 15:53:43.562500
847,84.11,2022-10-28 15:53:43.578125
848,95.82,2022-10-28 15:53:43.593750
849,107.33,2022-10-28 15:53:43.609375
850,117.65,2022-10-28 15:53:43.625000
851,125.64,2022-10-28 15:53:43.640625
852,130.18,2022-10-28 15:53:43.656250
853,130.98,2022-10-28 15:53:43.671875
854,129.35,2022-10-28 15:53:43.687500
855,128.1,2022-10-28 15:53:43.703125
856,130.42,2022-10-28 15:53:43.718750
857,137.98,2022-10-28 15:53:43.734375
858,149.48,2022-10-28 15:53:43.750000
859,160.67,2022-10-28 15:53:43.765625
860,166.05,2022-10-28 15:53:43.781250
861,161.29,2022-10-28 15:53:43.796875
862,144.91,2022-10-28 15:53:43.812500
863,118.36,2022-10-28 15:53:43.828125
864,84.52,2022-10-28 15:53:43.843750
865,45.64,2022-10-28 15:53:43.859375
866,2.13,2022-10-28 15:53:43.875000
867,-47.08,2022-10-28 15:53:43.890625
868,-102.95,2022-10-28 15:53:43.906250
869,-164.51,2022-10-28 15:53:43.921875
870,-227.77,2022-10-28 15:53:43.937500
871,-286.09,2022-10-28 15:53:43.953125
872,-331.69,2022-10-28 15:53:43.968750
873,-357.89,2022-10-28 15:53:43.984375
874,-360.91,2022-10-28 15:53:44.000000
875,-340.8,2022-10-28 15:53:44.015625
876,-300.93,2022-10-28 15:53:44.031250
877,-246.4,2022-10-28 15:53:44.046875
878,-182.29,2022-10-28 15:53:44.062500
879,-112.59,2022-10-28 15:53:44.078125
880,-40.38,2022-10-28 15:53:44.093750
881,31.06,2022-10-28 15:53:44.109375
882,97.35,2022-10-28 15:53:44.125000
883,153.08,2022-10-28 15:53:44.140625
884,193.32,2022-10-28 15:53:44.156250
885,215.68,2022-10-28 15:53:44.171875
886,221.76,2022-10-28 15:53:44.187500
887,217.0,2022-10-28 15:53:44.203125
888,208.84,2022-10-28 15:53:44.218750
889,204.17,2022-10-28 15:53:44.234375
890,206.92,2022-10-28 15:53:44.250000
891,216.82,2022-10-28 15:53:44.265625
892,229.76,2022-10-28 15:53:44.281250
893,239.34,2022-10-28 15:53:44.296875
894,238.95,2022-10-28 15:53:44.312500
895,223.96,2022-10-28 15:53:44.328125
896,193.42,2022-10-28 15:53:44.343750
897,151.02,2022-10-28 15:53:44.359375
898,104.54,2022-10-28 15:53:44.375000
899,63.46,2022-10-28 15:53:44.390625
900,35.63,2022-10-28 15:53:44.406250
901,24.18,2022-10-28 15:53:44.421875
902,26.16,2022-10-28 15:53:44.437500
903,33.94,2022-10-28 15:53:44.453125
904,38.62,2022-10-28 15:53:44.468750
905,33.66,2022-10-28 15:53:44.484375
906,17.13,2022-10-28 15:53:44.500000
907,-8.28,2022-10-28 15:53:44.515625
908,-37.09,2022-10-28 15:53:44.531250
909,-63.32,2022-10-28 15:53:44.546875
910,-82.49,2022-10-28 15:53:44.562500
911,-92.61,2022-10-28 15:53:44.578125
912,-94.37,2022-10-28 15:53:44.593750
913,-90.83,2022-10-28 15:53:44.609375
914,-86.41,2022-10-28 15:53:44.625000
915,-85.66,2022-10-28 15:53:44.640625
916,-91.88,2022-10-28 15:53:44.656250
917,-105.98,2022-10-28 15:53:44.671875
918,-126.5,2022-10-28 15:53:44.687500
919,-150.63,2022-10-28 15:53:44.703125
920,-176.11,2022-10-28 15:53:44.718750
921,-202.45,2022-10-28 15:53:44.734375
922,-231.27,2022-10-28 15:53:44.750000
923,-265.57,2022-10-28 15:53:44.765625
924,-307.88,2022-10-28 15:53:44.781250
925,-358.35,2022-10-28 15:53:44.796875
926,-413.53,2022-10-28 15:53:44.812500
927,-466.34,2022-10-28 15:53:44.828125
928,-507.71,2022-10-28 15:53:44.843750
929,-529.34,2022-10-28 15:53:44.859375
930,-526.55,2022-10-28 15:53:44.875000
931,-500.14,2022-10-28 15:53:44.890625
932,-455.94,2022-10-28 15:53:44.906250
933,-402.2,2022-10-28 15:53:44.921875
934,-346.29,2022-10-28 15:53:44.937500
935,-292.21,2022-10-28 15:53:44.953125
936,-240.28,2022-10-28 15:53:44.968750
937,-188.59,2022-10-28 15:53:44.984375
938,-135.19,2022-10-28 15:53:45.000000
939,-79.3,2022-10-28 15:53:45.015625
940,-21.61,2022-10-28 15:53:45.031250
941,36.16,2022-10-28 15:53:45.046875
942,91.44,2022-10-28 15:53:45.062500
943,140.32,2022-10-28 15:53:45.078125
944,177.16,2022-10-28 15:53:45.093750
945,194.97,2022-10-28 15:53:45.109375
946,187.49,2022-10-28 15:53:45.125000
947,152.82,2022-10-28 15:53:45.140625
948,95.73,2022-10-28 15:53:45.156250
949,27.68,2022-10-28 15:53:45.171875
950,-37.06,2022-10-28 15:53:45.187500
951,-86.98,2022-10-28 15:53:45.203125
952,-117.65,2022-10-28 15:53:45.218750
953,-131.98,2022-10-28 15:53:45.234375
954,-136.51,2022-10-28 15:53:45.250000
955,-136.45,2022-10-28 15:53:45.265625
956,-133.29,2022-10-28 15:53:45.281250
957,-126.18,2022-10-28 15:53:45.296875
958,-115.88,2022-10-28 15:53:45.312500
959,-107.44,2022-10-28 15:53:45.328125
960,-108.93,2022-10-28 15:53:45.343750
961,-126.48,2022-10-28 15:53:45.359375
962,-159.15,2022-10-28 15:53:45.375000
963,-197.33,2022-10-28 15:53:45.390625
964,-226.52,2022-10-28 15:53:45.406250
965,-234.5,2022-10-28 15:53:45.421875
966,-217.33,2022-10-28 15:53:45.437500
967,-180.59,2022-10-28 15:53:45.453125
968,-135.39,2022-10-28 15:53:45.468750
969,-92.12,2022-10-28 15:53:45.484375
970,-55.99,2022-10-28 15:53:45.500000
971,-26.1,2022-10-28 15:53:45.515625
972,1.71,2022-10-28 15:53:45.531250
973,31.57,2022-10-28 15:53:45.546875
974,65.17,2022-10-28 15:53:45.562500
975,101.45,2022-10-28 15:53:45.578125
976,137.96,2022-10-28 15:53:45.593750
977,172.53,2022-10-28 15:53:45.609375
978,204.3,2022-10-28 15:53:45.625000
979,234.23,2022-10-28 15:53:45.640625
980,264.54,2022-10-28 15:53:45.656250
981,297.36,2022-10-28 15:53:45.671875
982,333.0,2022-10-28 15:53:45.687500
983,368.6,2022-10-28 15:53:45.703125
984,398.27,2022-10-28 15:53:45.718750
985,414.76,2022-10-28 15:53:45.734375
986,412.13,2022-10-28 15:53:45.750000
987,388.15,2022-10-28 15:53:45.765625
988,344.97,2022-10-28 15:53:45.781250
989,287.58,2022-10-28 15:53:45.796875
990,221.3,2022-10-28 15:53:45.812500
991,149.66,2022-10-28 15:53:45.828125
992,74.54,2022-10-28 15:53:45.843750
993,-1.62,2022-10-28 15:53:45.859375
994,-73.66,2022-10-28 15:53:45.875000
995,-133.87,2022-10-28 15:53:45.890625
996,-175.31,2022-10-28 15:53:45.906250
997,-196.09,2022-10-28 15:53:45.921875
998,-201.67,2022-10-28 15:53:45.937500
999,-202.77,2022-10-28 15:53:45.953125
1000,-209.65,2022-10-28 15:53:45.968750
1001,-226.17,2022-10-28 15:53:45.984375
1002,-247.35,2022-10-28 15:53:46.000000
1003,-262.08,2022-10-28 15:53:46.015625
1004,-259.39,2022-10-28 15:53:46.031250
1005,-234.19,2022-10-28 15:53:46.046875
1006,-189.27,2022-10-28 15:53:46.062500
1007,-132.94,2022-10-28 15:53:46.078125
1008,-74.52,2022-10-28 15:53:46.093750
1009,-20.52,2022-10-28 15:53:46.109375
1010,26.18,2022-10-28 15:53:46.125000
1011,64.86,2022-10-28 15:53:46.140625
1012,95.04,2022-10-28 15:53:46.156250
1013,115.76,2022-10-28 15:53:46.171875
1014,126.48,2022-10-28 15:53:46.187500
1015,127.94,2022-10-28 15:53:46.203125
1016,122.53,2022-10-28 15:53:46.218750
1017,113.45,2022-10-28 15:53:46.234375
1018,103.51,2022-10-28 15:53:46.250000
1019,94.51,2022-10-28 15:53:46.265625
1020,87.4,2022-10-28 15:53:46.281250
1021,82.6,2022-10-28 15:53:46.296875
1022,80.58,2022-10-28 15:53:46.312500
1023,81.62,2022-10-28 15:53:46.328125
1024,85.4,2022-10-28 15:53:46.343750
1025,90.76,2022-10-28 15:53:46.359375
1026,95.88,2022-10-28 15:53:46.375000
1027,98.91,2022-10-28 15:53:46.390625
1028,98.87,2022-10-28 15:53:46.406250
1029,96.2,2022-10-28 15:53:46.421875
1030,92.8,2022-10-28 15:53:46.437500
1031,91.06,2022-10-28 15:53:46.453125
1032,92.35,2022-10-28 15:53:46.468750
1033,95.79,2022-10-28 15:53:46.484375
1034,98.22,2022-10-28 15:53:46.500000
1035,95.51,2022-10-28 15:53:46.515625
1036,84.91,2022-10-28 15:53:46.531250
1037,66.94,2022-10-28 15:53:46.546875
1038,45.72,2022-10-28 15:53:46.562500
1039,27.34,2022-10-28 15:53:46.578125
1040,17.1,2022-10-28 15:53:46.593750
1041,17.08,2022-10-28 15:53:46.609375
1042,25.43,2022-10-28 15:53:46.625000
1043,37.62,2022-10-28 15:53:46.640625
1044,48.79,2022-10-28 15:53:46.656250
1045,55.81,2022-10-28 15:53:46.671875
1046,58.01,2022-10-28 15:53:46.687500
1047,56.38,2022-10-28 15:53:46.703125
1048,52.33,2022-10-28 15:53:46.718750
1049,46.87,2022-10-28 15:53:46.734375
1050,40.72,2022-10-28 15:53:46.750000
1051,34.89,2022-10-28 15:53:46.765625
1052,31.25,2022-10-28 15:53:46.781250
1053,32.06,2022-10-28 15:53:46.796875
1054,39.18,2022-10-28 15:53:46.812500
1055,52.76,2022-10-28 15:53:46.828125
1056,71.01,2022-10-28 15:53:46.843750
1057,90.74,2022-10-28 15:53:46.859375
1058,108.62,2022-10-28 15:53:46.875000
1059,122.27,2022-10-28 15:53:46.890625
1060,130.46,2022-10-28 15:53:46.906250
1061,132.52,2022-10-28 15:53:46.921875
1062,127.54,2022-10-28 15:53:46.937500
1063,114.19,2022-10-28 15:53:46.953125
1064,91.53,2022-10-28 15:53:46.968750
1065,60.2,2022-10-28 15:53:46.984375
1066,22.98,2022-10-28 15:53:47.000000
1067,-16.0,2022-10-28 15:53:47.015625
1068,-52.88,2022-10-28 15:53:47.031250
1069,-85.63,2022-10-28 15:53:47.046875
1070,-114.26,2022-10-28 15:53:47.062500
1071,-139.66,2022-10-28 15:53:47.078125
1072,-161.9,2022-10-28 15:53:47.093750
1073,-179.34,2022-10-28 15:53:47.109375
1074,-189.41,2022-10-28 15:53:47.125000
1075,-190.42,2022-10-28 15:53:47.140625
1076,-183.3,2022-10-28 15:53:47.156250
1077,-171.91,2022-10-28 15:53:47.171875
1078,-161.44,2022-10-28 15:53:47.187500
1079,-155.95,2022-10-28 15:53:47.203125
1080,-156.37,2022-10-28 15:53:47.218750
1081,-160.13,2022-10-28 15:53:47.234375
1082,-162.59,2022-10-28 15:53:47.250000
1083,-159.26,2022-10-28 15:53:47.265625
1084,-147.62,2022-10-28 15:53:47.281250
1085,-127.71,2022-10-28 15:53:47.296875
1086,-101.56,2022-10-28 15:53:47.312500
1087,-72.01,2022-10-28 15:53:47.328125
1088,-41.64,2022-10-28 15:53:47.343750
1089,-12.46,2022-10-28 15:53:47.359375
1090,14.02,2022-10-28 15:53:47.375000
1091,36.45,2022-10-28 15:53:47.390625
1092,53.54,2022-10-28 15:53:47.406250
1093,64.57,2022-10-28 15:53:47.421875
1094,69.86,2022-10-28 15:53:47.437500
1095,71.06,2022-10-28 15:53:47.453125
1096,70.88,2022-10-28 15:53:47.468750
1097,72.17,2022-10-28 15:53:47.484375
1098,76.84,2022-10-28 15:53:47.500000
1099,85.09,2022-10-28 15:53:47.515625
1100,95.36,2022-10-28 15:53:47.531250
1101,104.98,2022-10-28 15:53:47.546875
1102,111.29,2022-10-28 15:53:47.562500
1103,112.64,2022-10-28 15:53:47.578125
1104,108.99,2022-10-28 15:53:47.593750
1105,101.75,2022-10-28 15:53:47.609375
1106,93.02,2022-10-28 15:53:47.625000
1107,84.83,2022-10-28 15:53:47.640625
1108,78.45,2022-10-28 15:53:47.656250
1109,74.35,2022-10-28 15:53:47.671875
1110,72.42,2022-10-28 15:53:47.687500
1111,72.35,2022-10-28 15:53:47.703125
1112,73.77,2022-10-28 15:53:47.718750
1113,76.21,2022-10-28 15:53:47.734375
1114,79.02,2022-10-28 15:53:47.750000
1115,81.38,2022-10-28 15:53:47.765625
1116,82.6,2022-10-28 15:53:47.781250
1117,82.45,2022-10-28 15:53:47.796875
1118,81.28,2022-10-28 15:53:47.812500
1119,79.69,2022-10-28 15:53:47.828125
1120,78.03,2022-10-28 15:53:47.843750
1121,75.9,2022-10-28 15:53:47.859375
1122,72.23,2022-10-28 15:53:47.875000
1123,65.7,2022-10-28 15:53:47.890625
1124,55.41,2022-10-28 15:53:47.906250
1125,41.49,2022-10-28 15:53:47.921875
1126,25.17,2022-10-28 15:53:47.937500
1127,8.41,2022-10-28 15:53:47.953125
1128,-6.82,2022-10-28 15:53:47.968750
1129,-19.16,2022-10-28 15:53:47.984375
1130,-28.3,2022-10-28 15:53:48.000000
1131,-34.84,2022-10-28 15:53:48.015625
1132,-39.85,2022-10-28 15:53:48.031250
1133,-44.32,2022-10-28 15:53:48.046875
1134,-48.79,2022-10-28 15:53:48.062500
1135,-53.16,2022-10-28 15:53:48.078125
1136,-56.97,2022-10-28 15:53:48.093750
1137,-59.7,2022-10-28 15:53:48.109375
1138,-61.0,2022-10-28 15:53:48.125000
1139,-60.82,2022-10-28 15:53:48.140625
1140,-59.34,2022-10-28 15:53:48.156250
1141,-56.92,2022-10-28 15:53:48.171875
1142,-54.01,2022-10-28 15:53:48.187500
1143,-51.09,2022-10-28 15:53:48.203125
1144,-48.46,2022-10-28 15:53:48.218750
1145,-46.12,2022-10-28 15:53:48.234375
1146,-43.64,2022-10-28 15:53:48.250000
1147,-40.25,2022-10-28 15:53:48.265625
1148,-35.18,2022-10-28 15:53:48.281250
1149,-28.11,2022-10-28 15:53:48.296875
1150,-19.41,2022-10-28 15:53:48.312500
1151,-9.97,2022-10-28 15:53:48.328125
1152,-0.7,2022-10-28 15:53:48.343750
1153,8.12,2022-10-28 15:53:48.359375
1154,17.01,2022-10-28 15:53:48.375000
1155,26.97,2022-10-28 15:53:48.390625
1156,38.75,2022-10-28 15:53:48.406250
1157,52.25,2022-10-28 15:53:48.421875
1158,66.46,2022-10-28 15:53:48.437500
1159,79.9,2022-10-28 15:53:48.453125
1160,91.41,2022-10-28 15:53:48.468750
1161,100.51,2022-10-28 15:53:48.484375
1162,107.31,2022-10-28 15:53:48.500000
1163,111.89,2022-10-28 15:53:48.515625
1164,113.75,2022-10-28 15:53:48.531250
1165,111.84,2022-10-28 15:53:48.546875
1166,105.07,2022-10-28 15:53:48.562500
1167,93.2,2022-10-28 15:53:48.578125
1168,77.42,2022-10-28 15:53:48.593750
1169,60.14,2022-10-28 15:53:48.609375
1170,44.23,2022-10-28 15:53:48.625000
1171,32.0,2022-10-28 15:53:48.640625
1172,24.39,2022-10-28 15:53:48.656250
1173,20.83,2022-10-28 15:53:48.671875
1174,19.53,2022-10-28 15:53:48.687500
1175,18.2,2022-10-28 15:53:48.703125
1176,14.89,2022-10-28 15:53:48.718750
1177,8.49,2022-10-28 15:53:48.734375
1178,-0.99,2022-10-28 15:53:48.750000
1179,-12.57,2022-10-28 15:53:48.765625
1180,-24.85,2022-10-28 15:53:48.781250
1181,-36.49,2022-10-28 15:53:48.796875
1182,-46.7,2022-10-28 15:53:48.812500
1183,-55.38,2022-10-28 15:53:48.828125
1184,-62.91,2022-10-28 15:53:48.843750
1185,-69.81,2022-10-28 15:53:48.859375
1186,-76.42,2022-10-28 15:53:48.875000
1187,-82.66,2022-10-28 15:53:48.890625
1188,-87.89,2022-10-28 15:53:48.906250
1189,-91.02,2022-10-28 15:53:48.921875
1190,-90.77,2022-10-28 15:53:48.937500
1191,-86.16,2022-10-28 15:53:48.953125
1192,-77.05,2022-10-28 15:53:48.968750
1193,-64.45,2022-10-28 15:53:48.984375
1194,-50.32,2022-10-28 15:53:49.000000
1195,-36.98,2022-10-28 15:53:49.015625
1196,-26.23,2022-10-28 15:53:49.031250
1197,-18.78,2022-10-28 15:53:49.046875
1198,-14.18,2022-10-28 15:53:49.062500
1199,-11.35,2022-10-28 15:53:49.078125
1200,-9.26,2022-10-28 15:53:49.093750
1201,-7.51,2022-10-28 15:53:49.109375
1202,-6.29,2022-10-28 15:53:49.125000
1203,-6.04,2022-10-28 15:53:49.140625
1204,-6.92,2022-10-28 15:53:49.156250
1205,-8.51,2022-10-28 15:53:49.171875
1206,-10.0,2022-10-28 15:53:49.187500
1207,-10.52,2022-10-28 15:53:49.203125
1208,-9.52,2022-10-28 15:53:49.218750
1209,-7.04,2022-10-28 15:53:49.234375
1210,-3.57,2022-10-28 15:53:49.250000
1211,0.11,2022-10-28 15:53:49.265625
1212,3.21,2022-10-28 15:53:49.281250
1213,5.25,2022-10-28 15:53:49.296875
1214,6.12,2022-10-28 15:53:49.312500
1215,6.14,2022-10-28 15:53:49.328125
1216,5.95,2022-10-28 15:53:49.343750
1217,6.27,2022-10-28 15:53:49.359375
1218,7.63,2022-10-28 15:53:49.375000
1219,10.19,2022-10-28 15:53:49.390625
1220,13.65,2022-10-28 15:53:49.406250
1221,17.36,2022-10-28 15:53:49.421875
1222,20.6,2022-10-28 15:53:49.437500
1223,22.87,2022-10-28 15:53:49.453125
1224,24.01,2022-10-28 15:53:49.468750
1225,24.18,2022-10-28 15:53:49.484375
1226,23.68,2022-10-28 15:53:49.500000
1227,22.72,2022-10-28 15:53:49.515625
1228,21.36,2022-10-28 15:53:49.531250
1229,19.68,2022-10-28 15:53:49.546875
1230,17.84,2022-10-28 15:53:49.562500
1231,16.22,2022-10-28 15:53:49.578125
1232,15.3,2022-10-28 15:53:49.593750
1233,15.47,2022-10-28 15:53:49.609375
1234,16.88,2022-10-28 15:53:49.625000
1235,19.26,2022-10-28 15:53:49.640625
1236,22.01,2022-10-28 15:53:49.656250
1237,24.41,2022-10-28 15:53:49.671875
1238,25.89,2022-10-28 15:53:49.687500
1239,26.18,2022-10-28 15:53:49.703125
1240,25.35,2022-10-28 15:53:49.718750
1241,23.71,2022-10-28 15:53:49.734375
1242,21.67,2022-10-28 15:53:49.750000
1243,19.63,2022-10-28 15:53:49.765625
1244,17.94,2022-10-28 15:53:49.781250
1245,16.8,2022-10-28 15:53:49.796875
1246,16.26,2022-10-28 15:53:49.812500
1247,16.09,2022-10-28 15:53:49.828125
1248,15.72,2022-10-28 15:53:49.843750
1249,14.2,2022-10-28 15:53:49.859375
1250,10.47,2022-10-28 15:53:49.875000
1251,3.61,2022-10-28 15:53:49.890625
1252,-6.67,2022-10-28 15:53:49.906250
1253,-19.8,2022-10-28 15:53:49.921875
1254,-34.47,2022-10-28 15:53:49.937500
1255,-49.01,2022-10-28 15:53:49.953125
1256,-61.85,2022-10-28 15:53:49.968750
1257,-71.83,2022-10-28 15:53:49.984375
1258,-78.2,2022-10-28 15:53:50.000000
1259,-80.55,2022-10-28 15:53:50.015625
1260,-78.6,2022-10-28 15:53:50.031250
1261,-72.27,2022-10-28 15:53:50.046875
1262,-61.83,2022-10-28 15:53:50.062500
1263,-48.09,2022-10-28 15:53:50.078125
1264,-32.59,2022-10-28 15:53:50.093750
1265,-17.45,2022-10-28 15:53:50.109375
1266,-4.86,2022-10-28 15:53:50.125000
1267,3.54,2022-10-28 15:53:50.140625
1268,7.13,2022-10-28 15:53:50.156250
1269,6.43,2022-10-28 15:53:50.171875
1270,2.74,2022-10-28 15:53:50.187500
1271,-2.41,2022-10-28 15:53:50.203125
1272,-7.71,2022-10-28 15:53:50.218750
1273,-12.22,2022-10-28 15:53:50.234375
1274,-15.4,2022-10-28 15:53:50.250000
1275,-16.96,2022-10-28 15:53:50.265625
1276,-16.87,2022-10-28 15:53:50.281250
1277,-15.42,2022-10-28 15:53:50.296875
1278,-13.27,2022-10-28 15:53:50.312500
1279,-11.19,2022-10-28 15:53:50.328125
1280,-9.83,2022-10-28 15:53:50.343750
1281,-9.3,2022-10-28 15:53:50.359375
1282,-9.26,2022-10-28 15:53:50.375000
1283,-9.17,2022-10-28 15:53:50.390625
1284,-8.93,2022-10-28 15:53:50.406250
1285,-9.09,2022-10-28 15:53:50.421875
1286,-10.77,2022-10-28 15:53:50.437500
1287,-14.99,2022-10-28 15:53:50.453125
1288,-22.06,2022-10-28 15:53:50.468750
1289,-31.33,2022-10-28 15:53:50.484375
1290,-41.38,2022-10-28 15:53:50.500000
1291,-50.63,2022-10-28 15:53:50.515625
1292,-57.93,2022-10-28 15:53:50.531250
1293,-62.83,2022-10-28 15:53:50.546875
1294,-65.42,2022-10-28 15:53:50.562500
1295,-65.98,2022-10-28 15:53:50.578125
1296,-64.61,2022-10-28 15:53:50.593750
1297,-61.15,2022-10-28 15:53:50.609375
1298,-55.3,2022-10-28 15:53:50.625000
1299,-46.83,2022-10-28 15:53:50.640625
1300,-35.78,2022-10-28 15:53:50.656250
1301,-22.51,2022-10-28 15:53:50.671875
1302,-7.74,2022-10-28 15:53:50.687500
1303,7.63,2022-10-28 15:53:50.703125
1304,22.59,2022-10-28 15:53:50.718750
1305,36.11,2022-10-28 15:53:50.734375
1306,47.32,2022-10-28 15:53:50.750000
1307,55.52,2022-10-28 15:53:50.765625
1308,60.36,2022-10-28 15:53:50.781250
1309,61.9,2022-10-28 15:53:50.796875
1310,60.67,2022-10-28 15:53:50.812500
1311,57.56,2022-10-28 15:53:50.828125
1312,53.68,2022-10-28 15:53:50.843750
1313,50.05,2022-10-28 15:53:50.859375
1314,47.29,2022-10-28 15:53:50.875000
1315,45.5,2022-10-28 15:53:50.890625
1316,44.26,2022-10-28 15:53:50.906250
1317,42.95,2022-10-28 15:53:50.921875
1318,41.08,2022-10-28 15:53:50.937500
1319,38.55,2022-10-28 15:53:50.953125
1320,35.64,2022-10-28 15:53:50.968750
1321,32.81,2022-10-28 15:53:50.984375
1322,30.37,2022-10-28 15:53:51.000000
1323,28.37,2022-10-28 15:53:51.015625
1324,26.68,2022-10-28 15:53:51.031250
1325,25.26,2022-10-28 15:53:51.046875
1326,24.34,2022-10-28 15:53:51.062500
1327,24.35,2022-10-28 15:53:51.078125
1328,25.64,2022-10-28 15:53:51.093750
1329,28.2,2022-10-28 15:53:51.109375
1330,31.42,2022-10-28 15:53:51.125000
1331,34.25,2022-10-28 15:53:51.140625
1332,35.57,2022-10-28 15:53:51.156250
1333,34.58,2022-10-28 15:53:51.171875
1334,31.1,2022-10-28 15:53:51.187500
1335,25.51,2022-10-28 15:53:51.203125
1336,18.6,2022-10-28 15:53:51.218750
1337,11.27,2022-10-28 15:53:51.234375
1338,4.36,2022-10-28 15:53:51.250000
1339,-1.48,2022-10-28 15:53:51.265625
1340,-5.86,2022-10-28 15:53:51.281250
1341,-8.66,2022-10-28 15:53:51.296875
1342,-10.02,2022-10-28 15:53:51.312500
1343,-10.41,2022-10-28 15:53:51.328125
1344,-10.54,2022-10-28 15:53:51.343750
1345,-11.23,2022-10-28 15:53:51.359375
1346,-13.09,2022-10-28 15:53:51.375000
1347,-16.29,2022-10-28 15:53:51.390625
1348,-20.46,2022-10-28 15:53:51.406250
1349,-24.76,2022-10-28 15:53:51.421875
1350,-28.25,2022-10-28 15:53:51.437500
1351,-30.26,2022-10-28 15:53:51.453125
1352,-30.69,2022-10-28 15:53:51.468750
1353,-30.03,2022-10-28 15:53:51.484375
1354,-29.11,2022-10-28 15:53:51.500000
1355,-28.71,2022-10-28 15:53:51.515625
1356,-29.25,2022-10-28 15:53:51.531250
1357,-30.69,2022-10-28 15:53:51.546875
1358,-32.68,2022-10-28 15:53:51.562500
1359,-34.86,2022-10-28 15:53:51.578125
1360,-37.08,2022-10-28 15:53:51.593750
1361,-39.47,2022-10-28 15:53:51.609375
1362,-42.3,2022-10-28 15:53:51.625000
1363,-45.72,2022-10-28 15:53:51.640625
1364,-49.71,2022-10-28 15:53:51.656250
1365,-54.03,2022-10-28 15:53:51.671875
1366,-58.36,2022-10-28 15:53:51.687500
1367,-62.41,2022-10-28 15:53:51.703125
1368,-65.9,2022-10-28 15:53:51.718750
1369,-68.43,2022-10-28 15:53:51.734375
1370,-69.39,2022-10-28 15:53:51.750000
1371,-68.02,2022-10-28 15:53:51.765625
1372,-63.71,2022-10-28 15:53:51.781250
1373,-56.21,2022-10-28 15:53:51.796875
1374,-45.8,2022-10-28 15:53:51.812500
1375,-33.13,2022-10-28 15:53:51.828125
1376,-19.02,2022-10-28 15:53:51.843750
1377,-4.33,2022-10-28 15:53:51.859375
1378,10.0,2022-10-28 15:53:51.875000
1379,22.83,2022-10-28 15:53:51.890625
1380,32.82,2022-10-28 15:53:51.906250
1381,38.77,2022-10-28 15:53:51.921875
1382,40.2,2022-10-28 15:53:51.937500
1383,37.73,2022-10-28 15:53:51.953125
1384,33.04,2022-10-28 15:53:51.968750
1385,28.3,2022-10-28 15:53:51.984375
1386,25.39,2022-10-28 15:53:52.000000
1387,25.16,2022-10-28 15:53:52.015625
1388,27.38,2022-10-28 15:53:52.031250
1389,31.06,2022-10-28 15:53:52.046875
1390,35.08,2022-10-28 15:53:52.062500
1391,38.72,2022-10-28 15:53:52.078125
1392,41.7,2022-10-28 15:53:52.093750
1393,44.02,2022-10-28 15:53:52.109375
1394,45.68,2022-10-28 15:53:52.125000
1395,46.55,2022-10-28 15:53:52.140625
1396,46.39,2022-10-28 15:53:52.156250
1397,44.99,2022-10-28 15:53:52.171875
1398,42.31,2022-10-28 15:53:52.187500
1399,38.45,2022-10-28 15:53:52.203125
1400,33.66,2022-10-28 15:53:52.218750
1401,28.16,2022-10-28 15:53:52.234375
1402,22.2,2022-10-28 15:53:52.250000
1403,15.97,2022-10-28 15:53:52.265625
1404,9.64,2022-10-28 15:53:52.281250
1405,3.35,2022-10-28 15:53:52.296875
1406,-2.72,2022-10-28 15:53:52.312500
1407,-8.36,2022-10-28 15:53:52.328125
1408,-13.22,2022-10-28 15:53:52.343750
1409,-16.96,2022-10-28 15:53:52.359375
1410,-19.18,2022-10-28 15:53:52.375000
1411,-19.6,2022-10-28 15:53:52.390625
1412,-18.05,2022-10-28 15:53:52.406250
1413,-14.65,2022-10-28 15:53:52.421875
1414,-9.8,2022-10-28 15:53:52.437500
1415,-4.23,2022-10-28 15:53:52.453125
1416,1.08,2022-10-28 15:53:52.468750
1417,5.21,2022-10-28 15:53:52.484375
1418,7.53,2022-10-28 15:53:52.500000
1419,7.89,2022-10-28 15:53:52.515625
1420,6.57,2022-10-28 15:53:52.531250
1421,4.11,2022-10-28 15:53:52.546875
1422,0.98,2022-10-28 15:53:52.562500
1423,-2.5,2022-10-28 15:53:52.578125
1424,-6.11,2022-10-28 15:53:52.593750
1425,-9.64,2022-10-28 15:53:52.609375
1426,-12.65,2022-10-28 15:53:52.625000
1427,-14.63,2022-10-28 15:53:52.640625
1428,-15.08,2022-10-28 15:53:52.656250
1429,-13.84,2022-10-28 15:53:52.671875
1430,-11.12,2022-10-28 15:53:52.687500
1431,-7.45,2022-10-28 15:53:52.703125
1432,-3.45,2022-10-28 15:53:52.718750
1433,0.35,2022-10-28 15:53:52.734375
1434,3.57,2022-10-28 15:53:52.750000
1435,5.95,2022-10-28 15:53:52.765625
1436,7.34,2022-10-28 15:53:52.781250
1437,7.74,2022-10-28 15:53:52.796875
1438,7.35,2022-10-28 15:53:52.812500
1439,6.5,2022-10-28 15:53:52.828125
1440,5.59,2022-10-28 15:53:52.843750
1441,4.92,2022-10-28 15:53:52.859375
1442,4.55,2022-10-28 15:53:52.875000
1443,4.36,2022-10-28 15:53:52.890625
1444,4.09,2022-10-28 15:53:52.906250
1445,3.54,2022-10-28 15:53:52.921875
1446,2.72,2022-10-28 15:53:52.937500
1447,1.88,2022-10-28 15:53:52.953125
1448,1.37,2022-10-28 15:53:52.968750
1449,1.54,2022-10-28 15:53:52.984375
1450,2.46,2022-10-28 15:53:53.000000
1451,3.94,2022-10-28 15:53:53.015625
1452,5.56,2022-10-28 15:53:53.031250
1453,6.91,2022-10-28 15:53:53.046875
1454,7.7,2022-10-28 15:53:53.062500
1455,7.84,2022-10-28 15:53:53.078125
1456,7.37,2022-10-28 15:53:53.093750
1457,6.31,2022-10-28 15:53:53.109375
1458,4.56,2022-10-28 15:53:53.125000
1459,1.95,2022-10-28 15:53:53.140625
1460,-1.6,2022-10-28 15:53:53.156250
1461,-5.88,2022-10-28 15:53:53.171875
1462,-10.28,2022-10-28 15:53:53.187500
1463,-13.88,2022-10-28 15:53:53.203125
1464,-15.62,2022-10-28 15:53:53.218750
1465,-14.45,2022-10-28 15:53:53.234375
1466,-9.41,2022-10-28 15:53:53.250000
1467,0.22,2022-10-28 15:53:53.265625
1468,14.75,2022-10-28 15:53:53.281250
1469,33.63,2022-10-28 15:53:53.296875
1470,55.14,2022-10-28 15:53:53.312500
1471,76.48,2022-10-28 15:53:53.328125
1472,94.49,2022-10-28 15:53:53.343750
1473,106.81,2022-10-28 15:53:53.359375
1474,112.92,2022-10-28 15:53:53.375000
1475,114.42,2022-10-28 15:53:53.390625
1476,114.13,2022-10-28 15:53:53.406250
1477,114.74,2022-10-28 15:53:53.421875
1478,117.46,2022-10-28 15:53:53.437500
1479,121.63,2022-10-28 15:53:53.453125
1480,125.33,2022-10-28 15:53:53.468750
1481,126.69,2022-10-28 15:53:53.484375
1482,124.93,2022-10-28 15:53:53.500000
1483,120.58,2022-10-28 15:53:53.515625
1484,114.91,2022-10-28 15:53:53.531250
1485,109.1,2022-10-28 15:53:53.546875
1486,103.7,2022-10-28 15:53:53.562500
1487,98.8,2022-10-28 15:53:53.578125
1488,94.47,2022-10-28 15:53:53.593750
1489,91.21,2022-10-28 15:53:53.609375
1490,89.93,2022-10-28 15:53:53.625000
1491,91.61,2022-10-28 15:53:53.640625
1492,96.69,2022-10-28 15:53:53.656250
1493,104.78,2022-10-28 15:53:53.671875
1494,114.62,2022-10-28 15:53:53.687500
1495,124.42,2022-10-28 15:53:53.703125
1496,132.39,2022-10-28 15:53:53.718750
1497,137.24,2022-10-28 15:53:53.734375
1498,138.48,2022-10-28 15:53:53.750000
1499,136.37,2022-10-28 15:53:53.765625
1500,131.67,2022-10-28 15:53:53.781250
1501,125.16,2022-10-28 15:53:53.796875
1502,117.34,2022-10-28 15:53:53.812500
1503,108.23,2022-10-28 15:53:53.828125
1504,97.52,2022-10-28 15:53:53.843750
1505,84.83,2022-10-28 15:53:53.859375
1506,70.04,2022-10-28 15:53:53.875000
1507,53.25,2022-10-28 15:53:53.890625
1508,34.72,2022-10-28 15:53:53.906250
1509,14.7,2022-10-28 15:53:53.921875
1510,-6.53,2022-10-28 15:53:53.937500
1511,-28.43,2022-10-28 15:53:53.953125
1512,-50.08,2022-10-28 15:53:53.968750
1513,-70.16,2022-10-28 15:53:53.984375
1514,-87.27,2022-10-28 15:53:54.000000
1515,-100.43,2022-10-28 15:53:54.015625
1516,-109.42,2022-10-28 15:53:54.031250
1517,-114.93,2022-10-28 15:53:54.046875
1518,-118.28,2022-10-28 15:53:54.062500
1519,-120.83,2022-10-28 15:53:54.078125
1520,-123.38,2022-10-28 15:53:54.093750
1521,-125.92,2022-10-28 15:53:54.109375
1522,-127.82,2022-10-28 15:53:54.125000
1523,-128.28,2022-10-28 15:53:54.140625
1524,-126.8,2022-10-28 15:53:54.156250
1525,-123.19,2022-10-28 15:53:54.171875
1526,-117.37,2022-10-28 15:53:54.187500
1527,-109.13,2022-10-28 15:53:54.203125
1528,-98.19,2022-10-28 15:53:54.218750
1529,-84.6,2022-10-28 15:53:54.234375
1530,-69.18,2022-10-28 15:53:54.250000
1531,-53.65,2022-10-28 15:53:54.265625
1532,-40.09,2022-10-28 15:53:54.281250
1533,-30.05,2022-10-28 15:53:54.296875
1534,-23.73,2022-10-28 15:53:54.312500
1535,-19.83,2022-10-28 15:53:54.328125
1536,-16.21,2022-10-28 15:53:54.343750
1537,-10.97,2022-10-28 15:53:54.359375
1538,-3.41,2022-10-28 15:53:54.375000
1539,5.71,2022-10-28 15:53:54.390625
1540,14.67,2022-10-28 15:53:54.406250
1541,21.65,2022-10-28 15:53:54.421875
1542,25.52,2022-10-28 15:53:54.437500
1543,26.14,2022-10-28 15:53:54.453125
1544,24.14,2022-10-28 15:53:54.468750
1545,20.38,2022-10-28 15:53:54.484375
1546,15.52,2022-10-28 15:53:54.500000
1547,9.85,2022-10-28 15:53:54.515625
1548,3.26,2022-10-28 15:53:54.531250
1549,-4.42,2022-10-28 15:53:54.546875
1550,-13.29,2022-10-28 15:53:54.562500
1551,-23.2,2022-10-28 15:53:54.578125
1552,-33.76,2022-10-28 15:53:54.593750
1553,-44.36,2022-10-28 15:53:54.609375
1554,-54.06,2022-10-28 15:53:54.625000
1555,-61.51,2022-10-28 15:53:54.640625
1556,-64.97,2022-10-28 15:53:54.656250
1557,-62.7,2022-10-28 15:53:54.671875
1558,-53.58,2022-10-28 15:53:54.687500
1559,-37.88,2022-10-28 15:53:54.703125
1560,-17.66,2022-10-28 15:53:54.718750
1561,3.55,2022-10-28 15:53:54.734375
1562,21.67,2022-10-28 15:53:54.750000
1563,33.3,2022-10-28 15:53:54.765625
1564,36.74,2022-10-28 15:53:54.781250
1565,32.28,2022-10-28 15:53:54.796875
1566,21.88,2022-10-28 15:53:54.812500
1567,8.27,2022-10-28 15:53:54.828125
1568,-6.05,2022-10-28 15:53:54.843750
1569,-19.58,2022-10-28 15:53:54.859375
1570,-31.99,2022-10-28 15:53:54.875000
1571,-43.99,2022-10-28 15:53:54.890625
1572,-56.68,2022-10-28 15:53:54.906250
1573,-70.74,2022-10-28 15:53:54.921875
1574,-85.66,2022-10-28 15:53:54.937500
1575,-99.54,2022-10-28 15:53:54.953125
1576,-109.59,2022-10-28 15:53:54.968750
1577,-113.55,2022-10-28 15:53:54.984375
1578,-110.96,2022-10-28 15:53:55.000000
1579,-103.83,2022-10-28 15:53:55.015625
1580,-95.89,2022-10-28 15:53:55.031250
1581,-90.86,2022-10-28 15:53:55.046875
1582,-90.68,2022-10-28 15:53:55.062500
1583,-94.69,2022-10-28 15:53:55.078125
1584,-100.4,2022-10-28 15:53:55.093750
1585,-105.08,2022-10-28 15:53:55.109375
1586,-107.37,2022-10-28 15:53:55.125000
1587,-107.78,2022-10-28 15:53:55.140625
1588,-107.84,2022-10-28 15:53:55.156250
1589,-108.77,2022-10-28 15:53:55.171875
1590,-110.55,2022-10-28 15:53:55.187500
1591,-112.04,2022-10-28 15:53:55.203125
1592,-111.69,2022-10-28 15:53:55.218750
1593,-108.42,2022-10-28 15:53:55.234375
1594,-101.47,2022-10-28 15:53:55.250000
1595,-89.65,2022-10-28 15:53:55.265625
1596,-70.57,2022-10-28 15:53:55.281250
1597,-40.76,2022-10-28 15:53:55.296875
1598,2.76,2022-10-28 15:53:55.312500
1599,60.25,2022-10-28 15:53:55.328125
1600,127.47,2022-10-28 15:53:55.343750
1601,195.67,2022-10-28 15:53:55.359375
1602,253.52,2022-10-28 15:53:55.375000
1603,290.43,2022-10-28 15:53:55.390625
1604,299.82,2022-10-28 15:53:55.406250
1605,281.06,2022-10-28 15:53:55.421875
1606,239.58,2022-10-28 15:53:55.437500
1607,184.92,2022-10-28 15:53:55.453125
1608,127.91,2022-10-28 15:53:55.468750
1609,77.82,2022-10-28 15:53:55.484375
1610,40.44,2022-10-28 15:53:55.500000
1611,17.4,2022-10-28 15:53:55.515625
1612,6.83,2022-10-28 15:53:55.531250
1613,4.8,2022-10-28 15:53:55.546875
1614,6.89,2022-10-28 15:53:55.562500
1615,9.47,2022-10-28 15:53:55.578125
1616,10.24,2022-10-28 15:53:55.593750
1617,8.32,2022-10-28 15:53:55.609375
1618,3.82,2022-10-28 15:53:55.625000
1619,-2.38,2022-10-28 15:53:55.640625
1620,-9.1,2022-10-28 15:53:55.656250
1621,-14.78,2022-10-28 15:53:55.671875
1622,-17.94,2022-10-28 15:53:55.687500
1623,-17.65,2022-10-28 15:53:55.703125
1624,-14.07,2022-10-28 15:53:55.718750
1625,-8.62,2022-10-28 15:53:55.734375
1626,-3.6,2022-10-28 15:53:55.750000
1627,-1.17,2022-10-28 15:53:55.765625
1628,-2.56,2022-10-28 15:53:55.781250
1629,-7.41,2022-10-28 15:53:55.796875
1630,-14.05,2022-10-28 15:53:55.812500
1631,-20.29,2022-10-28 15:53:55.828125
1632,-24.63,2022-10-28 15:53:55.843750
1633,-27.08,2022-10-28 15:53:55.859375
1634,-29.26,2022-10-28 15:53:55.875000
1635,-33.76,2022-10-28 15:53:55.890625
1636,-43.09,2022-10-28 15:53:55.906250
1637,-58.76,2022-10-28 15:53:55.921875
1638,-80.75,2022-10-28 15:53:55.937500
1639,-107.65,2022-10-28 15:53:55.953125
1640,-137.12,2022-10-28 15:53:55.968750
1641,-166.43,2022-10-28 15:53:55.984375
1642,-192.9,2022-10-28 15:53:56.000000
1643,-214.16,2022-10-28 15:53:56.015625
1644,-228.32,2022-10-28 15:53:56.031250
1645,-234.09,2022-10-28 15:53:56.046875
1646,-230.95,2022-10-28 15:53:56.062500
1647,-219.13,2022-10-28 15:53:56.078125
1648,-199.72,2022-10-28 15:53:56.093750
1649,-174.43,2022-10-28 15:53:56.109375
1650,-145.52,2022-10-28 15:53:56.125000
1651,-115.61,2022-10-28 15:53:56.140625
1652,-87.61,2022-10-28 15:53:56.156250
1653,-64.28,2022-10-28 15:53:56.171875
1654,-47.78,2022-10-28 15:53:56.187500
1655,-39.01,2022-10-28 15:53:56.203125
1656,-37.3,2022-10-28 15:53:56.218750
1657,-40.52,2022-10-28 15:53:56.234375
1658,-45.79,2022-10-28 15:53:56.250000
1659,-50.38,2022-10-28 15:53:56.265625
1660,-52.7,2022-10-28 15:53:56.281250
1661,-52.64,2022-10-28 15:53:56.296875
1662,-51.36,2022-10-28 15:53:56.312500
1663,-50.31,2022-10-28 15:53:56.328125
1664,-50.3,2022-10-28 15:53:56.343750
1665,-50.8,2022-10-28 15:53:56.359375
1666,-50.22,2022-10-28 15:53:56.375000
1667,-46.84,2022-10-28 15:53:56.390625
1668,-39.96,2022-10-28 15:53:56.406250
1669,-30.43,2022-10-28 15:53:56.421875
1670,-20.36,2022-10-28 15:53:56.437500
1671,-12.06,2022-10-28 15:53:56.453125
1672,-6.84,2022-10-28 15:53:56.468750
1673,-4.49,2022-10-28 15:53:56.484375
1674,-3.43,2022-10-28 15:53:56.500000
1675,-1.66,2022-10-28 15:53:56.515625
1676,2.37,2022-10-28 15:53:56.531250
1677,9.28,2022-10-28 15:53:56.546875
1678,18.78,2022-10-28 15:53:56.562500
1679,30.06,2022-10-28 15:53:56.578125
1680,42.21,2022-10-28 15:53:56.593750
1681,54.38,2022-10-28 15:53:56.609375
1682,65.7,2022-10-28 15:53:56.625000
1683,75.13,2022-10-28 15:53:56.640625
1684,81.46,2022-10-28 15:53:56.656250
1685,83.63,2022-10-28 15:53:56.671875
1686,81.31,2022-10-28 15:53:56.687500
1687,75.24,2022-10-28 15:53:56.703125
1688,67.11,2022-10-28 15:53:56.718750
1689,58.91,2022-10-28 15:53:56.734375
1690,52.03,2022-10-28 15:53:56.750000
1691,46.66,2022-10-28 15:53:56.765625
1692,41.73,2022-10-28 15:53:56.781250
1693,35.7,2022-10-28 15:53:56.796875
1694,27.52,2022-10-28 15:53:56.812500
1695,17.66,2022-10-28 15:53:56.828125
1696,7.92,2022-10-28 15:53:56.843750
1697,0.51,2022-10-28 15:53:56.859375
1698,-3.28,2022-10-28 15:53:56.875000
1699,-3.99,2022-10-28 15:53:56.890625
1700,-3.69,2022-10-28 15:53:56.906250
1701,-4.78,2022-10-28 15:53:56.921875
1702,-8.68,2022-10-28 15:53:56.937500
1703,-15.09,2022-10-28 15:53:56.953125
1704,-22.3,2022-10-28 15:53:56.968750
1705,-28.03,2022-10-28 15:53:56.984375
1706,-30.43,2022-10-28 15:53:57.000000
1707,-28.62,2022-10-28 15:53:57.015625
1708,-22.71,2022-10-28 15:53:57.031250
1709,-13.46,2022-10-28 15:53:57.046875
1710,-1.98,2022-10-28 15:53:57.062500
1711,10.44,2022-10-28 15:53:57.078125
1712,22.55,2022-10-28 15:53:57.093750
1713,33.31,2022-10-28 15:53:57.109375
1714,42.11,2022-10-28 15:53:57.125000
1715,48.93,2022-10-28 15:53:57.140625
1716,54.11,2022-10-28 15:53:57.156250
1717,58.07,2022-10-28 15:53:57.171875
1718,61.01,2022-10-28 15:53:57.187500
1719,63.1,2022-10-28 15:53:57.203125
1720,64.75,2022-10-28 15:53:57.218750
1721,66.87,2022-10-28 15:53:57.234375
1722,70.6,2022-10-28 15:53:57.250000
1723,76.65,2022-10-28 15:53:57.265625
1724,84.73,2022-10-28 15:53:57.281250
1725,93.38,2022-10-28 15:53:57.296875
1726,100.59,2022-10-28 15:53:57.312500
1727,104.75,2022-10-28 15:53:57.328125
1728,105.33,2022-10-28 15:53:57.343750
1729,102.95,2022-10-28 15:53:57.359375
1730,98.87,2022-10-28 15:53:57.375000
1731,94.13,2022-10-28 15:53:57.390625
1732,89.0,2022-10-28 15:53:57.406250
1733,83.06,2022-10-28 15:53:57.421875
1734,75.77,2022-10-28 15:53:57.437500
1735,67.1,2022-10-28 15:53:57.453125
1736,57.81,2022-10-28 15:53:57.468750
1737,49.29,2022-10-28 15:53:57.484375
1738,42.94,2022-10-28 15:53:57.500000
1739,39.59,2022-10-28 15:53:57.515625
1740,39.14,2022-10-28 15:53:57.531250
1741,40.67,2022-10-28 15:53:57.546875
1742,42.89,2022-10-28 15:53:57.562500
1743,44.7,2022-10-28 15:53:57.578125
1744,45.45,2022-10-28 15:53:57.593750
1745,45.15,2022-10-28 15:53:57.609375
1746,44.18,2022-10-28 15:53:57.625000
1747,42.96,2022-10-28 15:53:57.640625
1748,41.7,2022-10-28 15:53:57.656250
1749,40.33,2022-10-28 15:53:57.671875
1750,38.59,2022-10-28 15:53:57.687500
1751,36.24,2022-10-28 15:53:57.703125
1752,33.18,2022-10-28 15:53:57.718750
1753,29.31,2022-10-28 15:53:57.734375
1754,24.52,2022-10-28 15:53:57.750000
1755,18.6,2022-10-28 15:53:57.765625
1756,11.36,2022-10-28 15:53:57.781250
1757,2.81,2022-10-28 15:53:57.796875
1758,-6.59,2022-10-28 15:53:57.812500
1759,-15.93,2022-10-28 15:53:57.828125
1760,-24.1,2022-10-28 15:53:57.843750
1761,-30.15,2022-10-28 15:53:57.859375
1762,-33.67,2022-10-28 15:53:57.875000
1763,-34.9,2022-10-28 15:53:57.890625
1764,-34.45,2022-10-28 15:53:57.906250
1765,-33.03,2022-10-28 15:53:57.921875
1766,-31.05,2022-10-28 15:53:57.937500
1767,-28.53,2022-10-28 15:53:57.953125
1768,-25.3,2022-10-28 15:53:57.968750
1769,-21.26,2022-10-28 15:53:57.984375
1770,-16.62,2022-10-28 15:53:58.000000
1771,-11.91,2022-10-28 15:53:58.015625
1772,-7.74,2022-10-28 15:53:58.031250
1773,-4.54,2022-10-28 15:53:58.046875
1774,-2.4,2022-10-28 15:53:58.062500
1775,-1.13,2022-10-28 15:53:58.078125
1776,-0.51,2022-10-28 15:53:58.093750
1777,-0.42,2022-10-28 15:53:58.109375
1778,-0.95,2022-10-28 15:53:58.125000
1779,-2.24,2022-10-28 15:53:58.140625
1780,-4.23,2022-10-28 15:53:58.156250
1781,-6.55,2022-10-28 15:53:58.171875
1782,-8.57,2022-10-28 15:53:58.187500
1783,-9.63,2022-10-28 15:53:58.203125
1784,-9.35,2022-10-28 15:53:58.218750
1785,-7.76,2022-10-28 15:53:58.234375
1786,-5.18,2022-10-28 15:53:58.250000
1787,-2.09,2022-10-28 15:53:58.265625
1788,1.04,2022-10-28 15:53:58.281250
1789,3.85,2022-10-28 15:53:58.296875
1790,6.07,2022-10-28 15:53:58.312500
1791,7.5,2022-10-28 15:53:58.328125
1792,8.05,2022-10-28 15:53:58.343750
1793,7.81,2022-10-28 15:53:58.359375
1794,7.04,2022-10-28 15:53:58.375000
1795,6.07,2022-10-28 15:53:58.390625
1796,5.12,2022-10-28 15:53:58.406250
1797,4.15,2022-10-28 15:53:58.421875
1798,2.9,2022-10-28 15:53:58.437500
1799,1.09,2022-10-28 15:53:58.453125
1800,-1.42,2022-10-28 15:53:58.468750
1801,-4.41,2022-10-28 15:53:58.484375
1802,-7.38,2022-10-28 15:53:58.500000
1803,-9.79,2022-10-28 15:53:58.515625
1804,-11.3,2022-10-28 15:53:58.531250
1805,-11.99,2022-10-28 15:53:58.546875
1806,-12.24,2022-10-28 15:53:58.562500
1807,-12.58,2022-10-28 15:53:58.578125
1808,-13.44,2022-10-28 15:53:58.593750
1809,-14.97,2022-10-28 15:53:58.609375
1810,-17.09,2022-10-28 15:53:58.625000
1811,-19.58,2022-10-28 15:53:58.640625
1812,-22.32,2022-10-28 15:53:58.656250
1813,-25.05,2022-10-28 15:53:58.671875
1814,-27.3,2022-10-28 15:53:58.687500
1815,-28.12,2022-10-28 15:53:58.703125
1816,-26.28,2022-10-28 15:53:58.718750
1817,-20.8,2022-10-28 15:53:58.734375
1818,-11.65,2022-10-28 15:53:58.750000
1819,-0.12,2022-10-28 15:53:58.765625
1820,11.46,2022-10-28 15:53:58.781250
1821,20.6,2022-10-28 15:53:58.796875
1822,25.63,2022-10-28 15:53:58.812500
1823,26.25,2022-10-28 15:53:58.828125
1824,23.42,2022-10-28 15:53:58.843750
1825,18.59,2022-10-28 15:53:58.859375
1826,13.04,2022-10-28 15:53:58.875000
1827,7.4,2022-10-28 15:53:58.890625
1828,1.85,2022-10-28 15:53:58.906250
1829,-3.56,2022-10-28 15:53:58.921875
1830,-8.64,2022-10-28 15:53:58.937500
1831,-12.98,2022-10-28 15:53:58.953125
1832,-16.25,2022-10-28 15:53:58.968750
1833,-18.31,2022-10-28 15:53:58.984375
1834,-19.33,2022-10-28 15:53:59.000000
1835,-19.55,2022-10-28 15:53:59.015625
1836,-19.16,2022-10-28 15:53:59.031250
1837,-18.32,2022-10-28 15:53:59.046875
1838,-17.12,2022-10-28 15:53:59.062500
1839,-15.69,2022-10-28 15:53:59.078125
1840,-14.07,2022-10-28 15:53:59.093750
1841,-12.21,2022-10-28 15:53:59.109375
1842,-9.99,2022-10-28 15:53:59.125000
1843,-7.36,2022-10-28 15:53:59.140625
1844,-4.54,2022-10-28 15:53:59.156250
1845,-1.96,2022-10-28 15:53:59.171875
1846,-0.09,2022-10-28 15:53:59.187500
1847,0.78,2022-10-28 15:53:59.203125
1848,0.76,2022-10-28 15:53:59.218750
1849,0.23,2022-10-28 15:53:59.234375
1850,-0.36,2022-10-28 15:53:59.250000
1851,-0.77,2022-10-28 15:53:59.265625
1852,-0.91,2022-10-28 15:53:59.281250
1853,-0.88,2022-10-28 15:53:59.296875
1854,-0.68,2022-10-28 15:53:59.312500
1855,-0.23,2022-10-28 15:53:59.328125
1856,0.63,2022-10-28 15:53:59.343750
1857,1.93,2022-10-28 15:53:59.359375
1858,3.56,2022-10-28 15:53:59.375000
1859,5.3,2022-10-28 15:53:59.390625
1860,6.94,2022-10-28 15:53:59.406250
1861,8.28,2022-10-28 15:53:59.421875
1862,9.17,2022-10-28 15:53:59.437500
1863,9.42,2022-10-28 15:53:59.453125
1864,8.85,2022-10-28 15:53:59.468750
1865,7.46,2022-10-28 15:53:59.484375
1866,5.55,2022-10-28 15:53:59.500000
1867,3.66,2022-10-28 15:53:59.515625
1868,2.33,2022-10-28 15:53:59.531250
1869,1.81,2022-10-28 15:53:59.546875
1870,1.83,2022-10-28 15:53:59.562500
1871,1.76,2022-10-28 15:53:59.578125
1872,0.96,2022-10-28 15:53:59.593750
1873,-0.82,2022-10-28 15:53:59.609375
1874,-3.33,2022-10-28 15:53:59.625000
1875,-5.97,2022-10-28 15:53:59.640625
1876,-8.1,2022-10-28 15:53:59.656250
1877,-9.35,2022-10-28 15:53:59.671875
1878,-9.66,2022-10-28 15:53:59.687500
1879,-9.12,2022-10-28 15:53:59.703125
1880,-7.83,2022-10-28 15:53:59.718750
1881,-5.79,2022-10-28 15:53:59.734375
1882,-3.04,2022-10-28 15:53:59.750000
1883,0.11,2022-10-28 15:53:59.765625
1884,3.1,2022-10-28 15:53:59.781250
1885,5.2,2022-10-28 15:53:59.796875
1886,5.9,2022-10-28 15:53:59.812500
1887,5.19,2022-10-28 15:53:59.828125
1888,3.6,2022-10-28 15:53:59.843750
1889,1.98,2022-10-28 15:53:59.859375
1890,1.04,2022-10-28 15:53:59.875000
1891,1.07,2022-10-28 15:53:59.890625
1892,1.86,2022-10-28 15:53:59.906250
1893,2.84,2022-10-28 15:53:59.921875
1894,3.52,2022-10-28 15:53:59.937500
1895,3.7,2022-10-28 15:53:59.953125
1896,3.5,2022-10-28 15:53:59.968750
1897,3.28,2022-10-28 15:53:59.984375
1898,3.4,2022-10-28 15:54:00.000000
1899,4.09,2022-10-28 15:54:00.015625
1900,5.48,2022-10-28 15:54:00.031250
1901,7.53,2022-10-28 15:54:00.046875
1902,10.06,2022-10-28 15:54:00.062500
1903,12.79,2022-10-28 15:54:00.078125
1904,15.22,2022-10-28 15:54:00.093750
1905,16.84,2022-10-28 15:54:00.109375
1906,17.22,2022-10-28 15:54:00.125000
1907,16.19,2022-10-28 15:54:00.140625
1908,13.95,2022-10-28 15:54:00.156250
1909,10.99,2022-10-28 15:54:00.171875
1910,8.04,2022-10-28 15:54:00.187500
1911,6.0,2022-10-28 15:54:00.203125
1912,5.71,2022-10-28 15:54:00.218750
1913,7.65,2022-10-28 15:54:00.234375
1914,11.56,2022-10-28 15:54:00.250000
1915,16.18,2022-10-28 15:54:00.265625
1916,19.46,2022-10-28 15:54:00.281250
1917,19.15,2022-10-28 15:54:00.296875
1918,13.77,2022-10-28 15:54:00.312500
1919,3.35,2022-10-28 15:54:00.328125
1920,-10.49,2022-10-28 15:54:00.343750
1921,-25.08,2022-10-28 15:54:00.359375
1922,-37.82,2022-10-28 15:54:00.375000
1923,-47.22,2022-10-28 15:54:00.390625
1924,-53.4,2022-10-28 15:54:00.406250
1925,-57.93,2022-10-28 15:54:00.421875
1926,-62.97,2022-10-28 15:54:00.437500
1927,-70.32,2022-10-28 15:54:00.453125
1928,-80.68,2022-10-28 15:54:00.468750
1929,-93.38,2022-10-28 15:54:00.484375
1930,-106.64,2022-10-28 15:54:00.500000
1931,-118.16,2022-10-28 15:54:00.515625
1932,-125.75,2022-10-28 15:54:00.531250
1933,-127.97,2022-10-28 15:54:00.546875
1934,-124.4,2022-10-28 15:54:00.562500
1935,-115.58,2022-10-28 15:54:00.578125
1936,-102.73,2022-10-28 15:54:00.593750
1937,-87.44,2022-10-28 15:54:00.609375
1938,-71.28,2022-10-28 15:54:00.625000
1939,-55.64,2022-10-28 15:54:00.640625
1940,-41.56,2022-10-28 15:54:00.656250
1941,-29.5,2022-10-28 15:54:00.671875
1942,-19.41,2022-10-28 15:54:00.687500
1943,-10.91,2022-10-28 15:54:00.703125
1944,-3.48,2022-10-28 15:54:00.718750
1945,3.05,2022-10-28 15:54:00.734375
1946,8.48,2022-10-28 15:54:00.750000
1947,12.34,2022-10-28 15:54:00.765625
1948,14.27,2022-10-28 15:54:00.781250
1949,14.28,2022-10-28 15:54:00.796875
1950,12.85,2022-10-28 15:54:00.812500
1951,10.78,2022-10-28 15:54:00.828125
1952,8.8,2022-10-28 15:54:00.843750
1953,7.39,2022-10-28 15:54:00.859375
1954,6.72,2022-10-28 15:54:00.875000
1955,6.76,2022-10-28 15:54:00.890625
1956,7.39,2022-10-28 15:54:00.906250
1957,8.43,2022-10-28 15:54:00.921875
1958,9.62,2022-10-28 15:54:00.937500
1959,10.66,2022-10-28 15:54:00.953125
1960,11.27,2022-10-28 15:54:00.968750
1961,11.24,2022-10-28 15:54:00.984375
1962,10.59,2022-10-28 15:54:01.000000
1963,9.4,2022-10-28 15:54:01.015625
1964,7.79,2022-10-28 15:54:01.031250
1965,5.78,2022-10-28 15:54:01.046875
1966,3.33,2022-10-28 15:54:01.062500
1967,0.39,2022-10-28 15:54:01.078125
1968,-3.01,2022-10-28 15:54:01.093750
1969,-6.71,2022-10-28 15:54:01.109375
1970,-10.47,2022-10-28 15:54:01.125000
1971,-14.02,2022-10-28 15:54:01.140625
1972,-17.1,2022-10-28 15:54:01.156250
1973,-19.55,2022-10-28 15:54:01.171875
1974,-21.2,2022-10-28 15:54:01.187500
1975,-21.94,2022-10-28 15:54:01.203125
1976,-21.74,2022-10-28 15:54:01.218750
1977,-20.7,2022-10-28 15:54:01.234375
1978,-19.1,2022-10-28 15:54:01.250000
1979,-17.37,2022-10-28 15:54:01.265625
1980,-15.97,2022-10-28 15:54:01.281250
1981,-15.3,2022-10-28 15:54:01.296875
1982,-15.53,2022-10-28 15:54:01.312500
1983,-16.63,2022-10-28 15:54:01.328125
1984,-18.43,2022-10-28 15:54:01.343750
1985,-20.78,2022-10-28 15:54:01.359375
1986,-23.57,2022-10-28 15:54:01.375000
1987,-26.63,2022-10-28 15:54:01.390625
1988,-29.59,2022-10-28 15:54:01.406250
1989,-31.73,2022-10-28 15:54:01.421875
1990,-32.15,2022-10-28 15:54:01.437500
1991,-30.0,2022-10-28 15:54:01.453125
1992,-24.91,2022-10-28 15:54:01.468750
1993,-17.19,2022-10-28 15:54:01.484375
1994,-7.76,2022-10-28 15:54:01.500000
1995,2.19,2022-10-28 15:54:01.515625
1996,11.67,2022-10-28 15:54:01.531250
1997,20.01,2022-10-28 15:54:01.546875
1998,26.85,2022-10-28 15:54:01.562500
1999,32.03,2022-10-28 15:54:01.578125
2000,35.4,2022-10-28 15:54:01.593750
2001,36.82,2022-10-28 15:54:01.609375
2002,36.34,2022-10-28 15:54:01.625000
2003,34.25,2022-10-28 15:54:01.640625
2004,31.14,2022-10-28 15:54:01.656250
2005,27.69,2022-10-28 15:54:01.671875
2006,24.47,2022-10-28 15:54:01.687500
2007,21.88,2022-10-28 15:54:01.703125
2008,20.1,2022-10-28 15:54:01.718750
2009,19.14,2022-10-28 15:54:01.734375
2010,18.95,2022-10-28 15:54:01.750000
2011,19.43,2022-10-28 15:54:01.765625
2012,20.43,2022-10-28 15:54:01.781250
2013,21.69,2022-10-28 15:54:01.796875
2014,22.98,2022-10-28 15:54:01.812500
2015,24.1,2022-10-28 15:54:01.828125
2016,24.95,2022-10-28 15:54:01.843750
2017,25.52,2022-10-28 15:54:01.859375
2018,25.81,2022-10-28 15:54:01.875000
2019,25.75,2022-10-28 15:54:01.890625
2020,25.22,2022-10-28 15:54:01.906250
2021,24.08,2022-10-28 15:54:01.921875
2022,22.31,2022-10-28 15:54:01.937500
2023,20.03,2022-10-28 15:54:01.953125
2024,17.48,2022-10-28 15:54:01.968750
2025,14.94,2022-10-28 15:54:01.984375
2026,12.58,2022-10-28 15:54:02.000000
2027,10.38,2022-10-28 15:54:02.015625
2028,8.15,2022-10-28 15:54:02.031250
2029,5.68,2022-10-28 15:54:02.046875
2030,2.81,2022-10-28 15:54:02.062500
2031,-0.38,2022-10-28 15:54:02.078125
2032,-3.63,2022-10-28 15:54:02.093750
2033,-6.57,2022-10-28 15:54:02.109375
2034,-8.94,2022-10-28 15:54:02.125000
2035,-10.64,2022-10-28 15:54:02.140625
2036,-11.81,2022-10-28 15:54:02.156250
2037,-12.79,2022-10-28 15:54:02.171875
2038,-13.94,2022-10-28 15:54:02.187500
2039,-15.61,2022-10-28 15:54:02.203125
2040,-17.98,2022-10-28 15:54:02.218750
2041,-21.06,2022-10-28 15:54:02.234375
2042,-24.63,2022-10-28 15:54:02.250000
2043,-28.27,2022-10-28 15:54:02.265625
2044,-31.39,2022-10-28 15:54:02.281250
2045,-33.33,2022-10-28 15:54:02.296875
2046,-33.48,2022-10-28 15:54:02.312500
2047,-31.5,2022-10-28 15:54:02.328125
2048,-27.43,2022-10-28 15:54:02.343750
2049,-21.65,2022-10-28 15:54:02.359375
2050,-14.89,2022-10-28 15:54:02.375000
2051,-7.93,2022-10-28 15:54:02.390625
2052,-1.5,2022-10-28 15:54:02.406250
2053,3.94,2022-10-28 15:54:02.421875
2054,8.23,2022-10-28 15:54:02.437500
2055,11.41,2022-10-28 15:54:02.453125
2056,13.65,2022-10-28 15:54:02.468750
2057,15.14,2022-10-28 15:54:02.484375
2058,16.06,2022-10-28 15:54:02.500000
2059,16.55,2022-10-28 15:54:02.515625
2060,16.77,2022-10-28 15:54:02.531250
2061,16.83,2022-10-28 15:54:02.546875
2062,16.8,2022-10-28 15:54:02.562500
2063,16.65,2022-10-28 15:54:02.578125
2064,16.34,2022-10-28 15:54:02.593750
2065,15.86,2022-10-28 15:54:02.609375
2066,15.3,2022-10-28 15:54:02.625000
2067,14.9,2022-10-28 15:54:02.640625
2068,14.95,2022-10-28 15:54:02.656250
2069,15.71,2022-10-28 15:54:02.671875
2070,17.28,2022-10-28 15:54:02.687500
2071,19.49,2022-10-28 15:54:02.703125
2072,21.98,2022-10-28 15:54:02.718750
2073,24.28,2022-10-28 15:54:02.734375
2074,25.93,2022-10-28 15:54:02.750000
2075,26.57,2022-10-28 15:54:02.765625
2076,26.04,2022-10-28 15:54:02.781250
2077,24.37,2022-10-28 15:54:02.796875
2078,21.8,2022-10-28 15:54:02.812500
2079,18.7,2022-10-28 15:54:02.828125
2080,15.5,2022-10-28 15:54:02.843750
2081,12.57,2022-10-28 15:54:02.859375
2082,10.18,2022-10-28 15:54:02.875000
2083,8.45,2022-10-28 15:54:02.890625
2084,7.41,2022-10-28 15:54:02.906250
2085,6.94,2022-10-28 15:54:02.921875
2086,6.79,2022-10-28 15:54:02.937500
2087,6.61,2022-10-28 15:54:02.953125
2088,6.07,2022-10-28 15:54:02.968750
2089,4.96,2022-10-28 15:54:02.984375
2090,3.32,2022-10-28 15:54:03.000000
2091,1.51,2022-10-28 15:54:03.015625
2092,0.1,2022-10-28 15:54:03.031250
2093,-0.38,2022-10-28 15:54:03.046875
2094,0.37,2022-10-28 15:54:03.062500
2095,2.4,2022-10-28 15:54:03.078125
2096,5.55,2022-10-28 15:54:03.093750
2097,9.77,2022-10-28 15:54:03.109375
2098,15.26,2022-10-28 15:54:03.125000
2099,22.48,2022-10-28 15:54:03.140625
2100,31.87,2022-10-28 15:54:03.156250
2101,43.68,2022-10-28 15:54:03.171875
2102,57.73,2022-10-28 15:54:03.187500
2103,73.52,2022-10-28 15:54:03.203125
2104,90.35,2022-10-28 15:54:03.218750
2105,107.41,2022-10-28 15:54:03.234375
2106,123.95,2022-10-28 15:54:03.250000
2107,139.3,2022-10-28 15:54:03.265625
2108,152.9,2022-10-28 15:54:03.281250
2109,164.32,2022-10-28 15:54:03.296875
2110,173.4,2022-10-28 15:54:03.312500
2111,180.29,2022-10-28 15:54:03.328125
2112,185.52,2022-10-28 15:54:03.343750
2113,189.83,2022-10-28 15:54:03.359375
2114,193.74,2022-10-28 15:54:03.375000
2115,197.68,2022-10-28 15:54:03.390625
2116,202.06,2022-10-28 15:54:03.406250
2117,207.6,2022-10-28 15:54:03.421875
2118,215.27,2022-10-28 15:54:03.437500
2119,225.99,2022-10-28 15:54:03.453125
2120,240.1,2022-10-28 15:54:03.468750
2121,256.88,2022-10-28 15:54:03.484375
2122,274.3,2022-10-28 15:54:03.500000
2123,288.65,2022-10-28 15:54:03.515625
2124,295.9,2022-10-28 15:54:03.531250
2125,292.93,2022-10-28 15:54:03.546875
2126,278.55,2022-10-28 15:54:03.562500
2127,253.66,2022-10-28 15:54:03.578125
2128,220.85,2022-10-28 15:54:03.593750
2129,183.31,2022-10-28 15:54:03.609375
2130,144.01,2022-10-28 15:54:03.625000
2131,104.94,2022-10-28 15:54:03.640625
2132,65.51,2022-10-28 15:54:03.656250
2133,23.91,2022-10-28 15:54:03.671875
2134,-21.83,2022-10-28 15:54:03.687500
2135,-72.3,2022-10-28 15:54:03.703125
2136,-125.86,2022-10-28 15:54:03.718750
2137,-178.74,2022-10-28 15:54:03.734375
2138,-225.92,2022-10-28 15:54:03.750000
2139,-262.18,2022-10-28 15:54:03.765625
2140,-283.36,2022-10-28 15:54:03.781250
2141,-289.5,2022-10-28 15:54:03.796875
2142,-283.33,2022-10-28 15:54:03.812500
2143,-269.57,2022-10-28 15:54:03.828125
2144,-253.66,2022-10-28 15:54:03.843750
2145,-240.94,2022-10-28 15:54:03.859375
2146,-235.95,2022-10-28 15:54:03.875000
2147,-241.54,2022-10-28 15:54:03.890625
2148,-257.89,2022-10-28 15:54:03.906250
2149,-282.37,2022-10-28 15:54:03.921875
2150,-313.17,2022-10-28 15:54:03.937500
2151,-348.36,2022-10-28 15:54:03.953125
2152,-386.33,2022-10-28 15:54:03.968750
2153,-425.47,2022-10-28 15:54:03.984375
2154,-463.98,2022-10-28 15:54:04.000000
2155,-500.03,2022-10-28 15:54:04.015625
2156,-531.93,2022-10-28 15:54:04.031250
2157,-558.1,2022-10-28 15:54:04.046875
2158,-560.79,2022-10-28 15:54:04.062500
2159,-527.55,2022-10-28 15:54:04.078125
2160,-455.27,2022-10-28 15:54:04.093750
2161,-353.98,2022-10-28 15:54:04.109375
2162,-241.82,2022-10-28 15:54:04.125000
2163,-135.49,2022-10-28 15:54:04.140625
2164,-44.26,2022-10-28 15:54:04.156250
2165,29.56,2022-10-28 15:54:04.171875
2166,87.49,2022-10-28 15:54:04.187500
2167,132.24,2022-10-28 15:54:04.203125
2168,163.76,2022-10-28 15:54:04.218750
2169,181.94,2022-10-28 15:54:04.234375
2170,187.68,2022-10-28 15:54:04.250000
2171,183.95,2022-10-28 15:54:04.265625
2172,175.08,2022-10-28 15:54:04.281250
2173,165.17,2022-10-28 15:54:04.296875
2174,156.76,2022-10-28 15:54:04.312500
2175,150.82,2022-10-28 15:54:04.328125
2176,147.33,2022-10-28 15:54:04.343750
2177,143.94,2022-10-28 15:54:04.359375
2178,138.58,2022-10-28 15:54:04.375000
2179,130.2,2022-10-28 15:54:04.390625
2180,119.48,2022-10-28 15:54:04.406250
2181,108.13,2022-10-28 15:54:04.421875
2182,97.86,2022-10-28 15:54:04.437500
2183,89.53,2022-10-28 15:54:04.453125
2184,83.02,2022-10-28 15:54:04.468750
2185,77.3,2022-10-28 15:54:04.484375
2186,69.59,2022-10-28 15:54:04.500000
2187,57.33,2022-10-28 15:54:04.515625
2188,40.02,2022-10-28 15:54:04.531250
2189,20.56,2022-10-28 15:54:04.546875
2190,4.55,2022-10-28 15:54:04.562500
2191,-1.75,2022-10-28 15:54:04.578125
2192,5.64,2022-10-28 15:54:04.593750
2193,26.29,2022-10-28 15:54:04.609375
2194,55.15,2022-10-28 15:54:04.625000
2195,84.0,2022-10-28 15:54:04.640625
2196,105.08,2022-10-28 15:54:04.656250
2197,114.25,2022-10-28 15:54:04.671875
2198,112.31,2022-10-28 15:54:04.687500
2199,103.5,2022-10-28 15:54:04.703125
2200,92.97,2022-10-28 15:54:04.718750
2201,84.19,2022-10-28 15:54:04.734375
2202,78.24,2022-10-28 15:54:04.750000
2203,74.6,2022-10-28 15:54:04.765625
2204,72.6,2022-10-28 15:54:04.781250
2205,72.52,2022-10-28 15:54:04.796875
2206,75.51,2022-10-28 15:54:04.812500
2207,82.27,2022-10-28 15:54:04.828125
2208,91.67,2022-10-28 15:54:04.843750
2209,100.32,2022-10-28 15:54:04.859375
2210,103.7,2022-10-28 15:54:04.875000
2211,98.12,2022-10-28 15:54:04.890625
2212,82.82,2022-10-28 15:54:04.906250
2213,60.45,2022-10-28 15:54:04.921875
2214,35.57,2022-10-28 15:54:04.937500
2215,12.45,2022-10-28 15:54:04.953125
2216,-6.76,2022-10-28 15:54:04.968750
2217,-22.34,2022-10-28 15:54:04.984375
2218,-35.61,2022-10-28 15:54:05.000000
2219,-47.32,2022-10-28 15:54:05.015625
2220,-56.64,2022-10-28 15:54:05.031250
2221,-61.7,2022-10-28 15:54:05.046875
2222,-59.96,2022-10-28 15:54:05.062500
2223,-50.97,2022-10-28 15:54:05.078125
2224,-36.75,2022-10-28 15:54:05.093750
2225,-20.87,2022-10-28 15:54:05.109375
2226,-6.84,2022-10-28 15:54:05.125000
2227,2.97,2022-10-28 15:54:05.140625
2228,7.23,2022-10-28 15:54:05.156250
2229,4.81,2022-10-28 15:54:05.171875
2230,-5.49,2022-10-28 15:54:05.187500
2231,-24.55,2022-10-28 15:54:05.203125
2232,-51.9,2022-10-28 15:54:05.218750
2233,-84.66,2022-10-28 15:54:05.234375
2234,-117.92,2022-10-28 15:54:05.250000
2235,-146.26,2022-10-28 15:54:05.265625
2236,-165.6,2022-10-28 15:54:05.281250
2237,-174.21,2022-10-28 15:54:05.296875
2238,-172.6,2022-10-28 15:54:05.312500
2239,-162.36,2022-10-28 15:54:05.328125
2240,-145.28,2022-10-28 15:54:05.343750
2241,-123.29,2022-10-28 15:54:05.359375
2242,-98.56,2022-10-28 15:54:05.375000
2243,-73.76,2022-10-28 15:54:05.390625
2244,-51.93,2022-10-28 15:54:05.406250
2245,-35.6,2022-10-28 15:54:05.421875
2246,-26.02,2022-10-28 15:54:05.437500
2247,-22.84,2022-10-28 15:54:05.453125
2248,-24.37,2022-10-28 15:54:05.468750
2249,-28.22,2022-10-28 15:54:05.484375
2250,-32.04,2022-10-28 15:54:05.500000
2251,-33.69,2022-10-28 15:54:05.515625
2252,-31.41,2022-10-28 15:54:05.531250
2253,-23.96,2022-10-28 15:54:05.546875
2254,-11.02,2022-10-28 15:54:05.562500
2255,6.34,2022-10-28 15:54:05.578125
2256,25.51,2022-10-28 15:54:05.593750
2257,42.68,2022-10-28 15:54:05.609375
2258,53.75,2022-10-28 15:54:05.625000
2259,55.49,2022-10-28 15:54:05.640625
2260,46.72,2022-10-28 15:54:05.656250
2261,28.93,2022-10-28 15:54:05.671875
2262,5.97,2022-10-28 15:54:05.687500
2263,-16.84,2022-10-28 15:54:05.703125
2264,-34.39,2022-10-28 15:54:05.718750
2265,-43.3,2022-10-28 15:54:05.734375
2266,-42.92,2022-10-28 15:54:05.750000
2267,-35.39,2022-10-28 15:54:05.765625
2268,-24.45,2022-10-28 15:54:05.781250
2269,-13.78,2022-10-28 15:54:05.796875
2270,-5.58,2022-10-28 15:54:05.812500
2271,-0.04,2022-10-28 15:54:05.828125
2272,4.09,2022-10-28 15:54:05.843750
2273,8.42,2022-10-28 15:54:05.859375
2274,13.89,2022-10-28 15:54:05.875000
2275,20.4,2022-10-28 15:54:05.890625
2276,27.14,2022-10-28 15:54:05.906250
2277,33.22,2022-10-28 15:54:05.921875
2278,37.97,2022-10-28 15:54:05.937500
2279,40.98,2022-10-28 15:54:05.953125
2280,41.72,2022-10-28 15:54:05.968750
2281,39.46,2022-10-28 15:54:05.984375
2282,33.49,2022-10-28 15:54:06.000000
2283,23.85,2022-10-28 15:54:06.015625
2284,11.81,2022-10-28 15:54:06.031250
2285,-0.08,2022-10-28 15:54:06.046875
2286,-8.65,2022-10-28 15:54:06.062500
2287,-11.28,2022-10-28 15:54:06.078125
2288,-6.97,2022-10-28 15:54:06.093750
2289,3.34,2022-10-28 15:54:06.109375
2290,17.04,2022-10-28 15:54:06.125000
2291,30.85,2022-10-28 15:54:06.140625
2292,41.89,2022-10-28 15:54:06.156250
2293,48.44,2022-10-28 15:54:06.171875
2294,50.17,2022-10-28 15:54:06.187500
2295,48.06,2022-10-28 15:54:06.203125
2296,43.96,2022-10-28 15:54:06.218750
2297,40.15,2022-10-28 15:54:06.234375
2298,38.94,2022-10-28 15:54:06.250000
2299,42.16,2022-10-28 15:54:06.265625
2300,50.72,2022-10-28 15:54:06.281250
2301,64.27,2022-10-28 15:54:06.296875
2302,81.15,2022-10-28 15:54:06.312500
2303,98.7,2022-10-28 15:54:06.328125
2304,114.21,2022-10-28 15:54:06.343750
2305,125.75,2022-10-28 15:54:06.359375
2306,132.83,2022-10-28 15:54:06.375000
2307,136.31,2022-10-28 15:54:06.390625
2308,137.54,2022-10-28 15:54:06.406250
2309,137.22,2022-10-28 15:54:06.421875
2310,134.58,2022-10-28 15:54:06.437500
2311,127.17,2022-10-28 15:54:06.453125
2312,111.5,2022-10-28 15:54:06.468750
2313,84.17,2022-10-28 15:54:06.484375
2314,43.11,2022-10-28 15:54:06.500000
2315,-11.19,2022-10-28 15:54:06.515625
2316,-75.03,2022-10-28 15:54:06.531250
2317,-141.62,2022-10-28 15:54:06.546875
2318,-202.19,2022-10-28 15:54:06.562500
2319,-248.0,2022-10-28 15:54:06.578125
2320,-272.7,2022-10-28 15:54:06.593750
2321,-274.12,2022-10-28 15:54:06.609375
2322,-254.63,2022-10-28 15:54:06.625000
2323,-219.99,2022-10-28 15:54:06.640625
2324,-177.03,2022-10-28 15:54:06.656250
2325,-131.46,2022-10-28 15:54:06.671875
2326,-87.04,2022-10-28 15:54:06.687500
2327,-46.0,2022-10-28 15:54:06.703125
2328,-10.23,2022-10-28 15:54:06.718750
2329,18.03,2022-10-28 15:54:06.734375
2330,36.8,2022-10-28 15:54:06.750000
2331,45.48,2022-10-28 15:54:06.765625
2332,45.88,2022-10-28 15:54:06.781250
2333,41.98,2022-10-28 15:54:06.796875
2334,38.25,2022-10-28 15:54:06.812500
2335,37.6,2022-10-28 15:54:06.828125
2336,40.21,2022-10-28 15:54:06.843750
2337,43.84,2022-10-28 15:54:06.859375
2338,45.49,2022-10-28 15:54:06.875000
2339,43.34,2022-10-28 15:54:06.890625
2340,37.93,2022-10-28 15:54:06.906250
2341,31.88,2022-10-28 15:54:06.921875
2342,28.45,2022-10-28 15:54:06.937500
2343,29.93,2022-10-28 15:54:06.953125
2344,36.45,2022-10-28 15:54:06.968750
2345,45.98,2022-10-28 15:54:06.984375
2346,55.17,2022-10-28 15:54:07.000000
2347,60.76,2022-10-28 15:54:07.015625
2348,60.75,2022-10-28 15:54:07.031250
2349,55.08,2022-10-28 15:54:07.046875
2350,45.51,2022-10-28 15:54:07.062500
2351,34.77,2022-10-28 15:54:07.078125
2352,25.46,2022-10-28 15:54:07.093750
2353,19.1,2022-10-28 15:54:07.109375
2354,15.74,2022-10-28 15:54:07.125000
2355,14.33,2022-10-28 15:54:07.140625
2356,13.43,2022-10-28 15:54:07.156250
2357,11.96,2022-10-28 15:54:07.171875
2358,9.49,2022-10-28 15:54:07.187500
2359,6.09,2022-10-28 15:54:07.203125
2360,1.97,2022-10-28 15:54:07.218750
2361,-2.7,2022-10-28 15:54:07.234375
2362,-7.82,2022-10-28 15:54:07.250000
2363,-13.15,2022-10-28 15:54:07.265625
2364,-18.24,2022-10-28 15:54:07.281250
2365,-22.48,2022-10-28 15:54:07.296875
2366,-25.33,2022-10-28 15:54:07.312500
2367,-26.56,2022-10-28 15:54:07.328125
2368,-26.27,2022-10-28 15:54:07.343750
2369,-24.77,2022-10-28 15:54:07.359375
2370,-22.36,2022-10-28 15:54:07.375000
2371,-19.18,2022-10-28 15:54:07.390625
2372,-15.25,2022-10-28 15:54:07.406250
2373,-10.53,2022-10-28 15:54:07.421875
2374,-5.0,2022-10-28 15:54:07.437500
2375,1.33,2022-10-28 15:54:07.453125
2376,8.45,2022-10-28 15:54:07.468750
2377,16.23,2022-10-28 15:54:07.484375
2378,24.23,2022-10-28 15:54:07.500000
2379,31.49,2022-10-28 15:54:07.515625
2380,36.51,2022-10-28 15:54:07.531250
2381,37.59,2022-10-28 15:54:07.546875
2382,33.5,2022-10-28 15:54:07.562500
2383,24.16,2022-10-28 15:54:07.578125
2384,10.98,2022-10-28 15:54:07.593750
2385,-3.31,2022-10-28 15:54:07.609375
2386,-15.44,2022-10-28 15:54:07.625000
2387,-22.6,2022-10-28 15:54:07.640625
2388,-23.36,2022-10-28 15:54:07.656250
2389,-18.06,2022-10-28 15:54:07.671875
2390,-8.64,2022-10-28 15:54:07.687500
2391,2.17,2022-10-28 15:54:07.703125
2392,11.89,2022-10-28 15:54:07.718750
2393,19.03,2022-10-28 15:54:07.734375
2394,23.43,2022-10-28 15:54:07.750000
2395,25.85,2022-10-28 15:54:07.765625
2396,27.25,2022-10-28 15:54:07.781250
2397,28.03,2022-10-28 15:54:07.796875
2398,27.91,2022-10-28 15:54:07.812500
2399,26.1,2022-10-28 15:54:07.828125
2400,22.03,2022-10-28 15:54:07.843750
2401,15.87,2022-10-28 15:54:07.859375
2402,8.46,2022-10-28 15:54:07.875000
2403,0.92,2022-10-28 15:54:07.890625
2404,-5.99,2022-10-28 15:54:07.906250
2405,-12.26,2022-10-28 15:54:07.921875
2406,-18.53,2022-10-28 15:54:07.937500
2407,-25.6,2022-10-28 15:54:07.953125
2408,-34.06,2022-10-28 15:54:07.968750
2409,-44.16,2022-10-28 15:54:07.984375
2410,-55.89,2022-10-28 15:54:08.000000
2411,-69.15,2022-10-28 15:54:08.015625
2412,-83.47,2022-10-28 15:54:08.031250
2413,-97.69,2022-10-28 15:54:08.046875
2414,-109.61,2022-10-28 15:54:08.062500
2415,-116.22,2022-10-28 15:54:08.078125
2416,-114.65,2022-10-28 15:54:08.093750
2417,-103.36,2022-10-28 15:54:08.109375
2418,-83.02,2022-10-28 15:54:08.125000
2419,-56.58,2022-10-28 15:54:08.140625
2420,-28.45,2022-10-28 15:54:08.156250
2421,-3.13,2022-10-28 15:54:08.171875
2422,16.03,2022-10-28 15:54:08.187500
2423,27.44,2022-10-28 15:54:08.203125
2424,31.38,2022-10-28 15:54:08.218750
2425,29.44,2022-10-28 15:54:08.234375
2426,23.98,2022-10-28 15:54:08.250000
2427,17.55,2022-10-28 15:54:08.265625
2428,12.42,2022-10-28 15:54:08.281250
2429,10.14,2022-10-28 15:54:08.296875
2430,11.26,2022-10-28 15:54:08.312500
2431,15.26,2022-10-28 15:54:08.328125
2432,20.82,2022-10-28 15:54:08.343750
2433,26.47,2022-10-28 15:54:08.359375
2434,31.15,2022-10-28 15:54:08.375000
2435,34.52,2022-10-28 15:54:08.390625
2436,36.97,2022-10-28 15:54:08.406250
2437,39.18,2022-10-28 15:54:08.421875
2438,41.86,2022-10-28 15:54:08.437500
2439,45.51,2022-10-28 15:54:08.453125
2440,50.57,2022-10-28 15:54:08.468750
2441,57.35,2022-10-28 15:54:08.484375
2442,65.88,2022-10-28 15:54:08.500000
2443,75.55,2022-10-28 15:54:08.515625
2444,85.03,2022-10-28 15:54:08.531250
2445,92.42,2022-10-28 15:54:08.546875
2446,95.99,2022-10-28 15:54:08.562500
2447,94.87,2022-10-28 15:54:08.578125
2448,89.52,2022-10-28 15:54:08.593750
2449,81.51,2022-10-28 15:54:08.609375
2450,72.86,2022-10-28 15:54:08.625000
2451,65.12,2022-10-28 15:54:08.640625
2452,58.91,2022-10-28 15:54:08.656250
2453,53.95,2022-10-28 15:54:08.671875
2454,49.52,2022-10-28 15:54:08.687500
2455,45.12,2022-10-28 15:54:08.703125
2456,40.76,2022-10-28 15:54:08.718750
2457,36.88,2022-10-28 15:54:08.734375
2458,34.0,2022-10-28 15:54:08.750000
2459,32.27,2022-10-28 15:54:08.765625
2460,31.36,2022-10-28 15:54:08.781250
2461,30.54,2022-10-28 15:54:08.796875
2462,29.06,2022-10-28 15:54:08.812500
2463,26.44,2022-10-28 15:54:08.828125
2464,22.72,2022-10-28 15:54:08.843750
2465,18.38,2022-10-28 15:54:08.859375
2466,14.07,2022-10-28 15:54:08.875000
2467,10.34,2022-10-28 15:54:08.890625
2468,7.36,2022-10-28 15:54:08.906250
2469,4.9,2022-10-28 15:54:08.921875
2470,2.48,2022-10-28 15:54:08.937500
2471,-0.32,2022-10-28 15:54:08.953125
2472,-3.66,2022-10-28 15:54:08.968750
2473,-7.32,2022-10-28 15:54:08.984375
2474,-10.79,2022-10-28 15:54:09.000000
2475,-13.58,2022-10-28 15:54:09.015625
2476,-15.36,2022-10-28 15:54:09.031250
2477,-16.18,2022-10-28 15:54:09.046875
2478,-16.33,2022-10-28 15:54:09.062500
2479,-16.29,2022-10-28 15:54:09.078125
2480,-16.63,2022-10-28 15:54:09.093750
2481,-17.95,2022-10-28 15:54:09.109375
2482,-20.75,2022-10-28 15:54:09.125000
2483,-25.18,2022-10-28 15:54:09.140625
2484,-30.77,2022-10-28 15:54:09.156250
2485,-36.25,2022-10-28 15:54:09.171875
2486,-39.76,2022-10-28 15:54:09.187500
2487,-39.53,2022-10-28 15:54:09.203125
2488,-34.6,2022-10-28 15:54:09.218750
2489,-25.41,2022-10-28 15:54:09.234375
2490,-13.68,2022-10-28 15:54:09.250000
2491,-1.84,2022-10-28 15:54:09.265625
2492,7.95,2022-10-28 15:54:09.281250
2493,14.49,2022-10-28 15:54:09.296875
2494,17.67,2022-10-28 15:54:09.312500
2495,18.17,2022-10-28 15:54:09.328125
2496,16.89,2022-10-28 15:54:09.343750
2497,14.69,2022-10-28 15:54:09.359375
2498,12.24,2022-10-28 15:54:09.375000
2499,10.22,2022-10-28 15:54:09.390625
2500,9.2,2022-10-28 15:54:09.406250
2501,9.59,2022-10-28 15:54:09.421875
2502,11.39,2022-10-28 15:54:09.437500
2503,14.19,2022-10-28 15:54:09.453125
2504,17.29,2022-10-28 15:54:09.468750
2505,20.01,2022-10-28 15:54:09.484375
2506,21.94,2022-10-28 15:54:09.500000
2507,22.95,2022-10-28 15:54:09.515625
2508,23.17,2022-10-28 15:54:09.531250
2509,22.8,2022-10-28 15:54:09.546875
2510,22.0,2022-10-28 15:54:09.562500
2511,20.93,2022-10-28 15:54:09.578125
2512,19.7,2022-10-28 15:54:09.593750
2513,18.43,2022-10-28 15:54:09.609375
2514,17.23,2022-10-28 15:54:09.625000
2515,16.19,2022-10-28 15:54:09.640625
2516,15.4,2022-10-28 15:54:09.656250
2517,14.96,2022-10-28 15:54:09.671875
2518,14.87,2022-10-28 15:54:09.687500
2519,14.93,2022-10-28 15:54:09.703125
2520,14.72,2022-10-28 15:54:09.718750
2521,13.7,2022-10-28 15:54:09.734375
2522,11.49,2022-10-28 15:54:09.750000
2523,8.11,2022-10-28 15:54:09.765625
2524,3.96,2022-10-28 15:54:09.781250
2525,-0.33,2022-10-28 15:54:09.796875
2526,-4.3,2022-10-28 15:54:09.812500
2527,-7.83,2022-10-28 15:54:09.828125
2528,-11.11,2022-10-28 15:54:09.843750
2529,-14.36,2022-10-28 15:54:09.859375
2530,-17.48,2022-10-28 15:54:09.875000
2531,-20.03,2022-10-28 15:54:09.890625
2532,-21.38,2022-10-28 15:54:09.906250
2533,-21.15,2022-10-28 15:54:09.921875
2534,-19.53,2022-10-28 15:54:09.937500
2535,-17.22,2022-10-28 15:54:09.953125
2536,-15.14,2022-10-28 15:54:09.968750
2537,-13.91,2022-10-28 15:54:09.984375
2538,-13.61,2022-10-28 15:54:10.000000
2539,-13.87,2022-10-28 15:54:10.015625
2540,-14.22,2022-10-28 15:54:10.031250
2541,-14.52,2022-10-28 15:54:10.046875
2542,-15.09,2022-10-28 15:54:10.062500
2543,-16.59,2022-10-28 15:54:10.078125
2544,-19.55,2022-10-28 15:54:10.093750
2545,-24.08,2022-10-28 15:54:10.109375
2546,-29.62,2022-10-28 15:54:10.125000
2547,-35.07,2022-10-28 15:54:10.140625
2548,-39.01,2022-10-28 15:54:10.156250
2549,-40.07,2022-10-28 15:54:10.171875
2550,-37.37,2022-10-28 15:54:10.187500
2551,-30.76,2022-10-28 15:54:10.203125
2552,-21.04,2022-10-28 15:54:10.218750
2553,-9.76,2022-10-28 15:54:10.234375
2554,1.0,2022-10-28 15:54:10.250000
2555,9.34,2022-10-28 15:54:10.265625
2556,14.01,2022-10-28 15:54:10.281250
2557,14.83,2022-10-28 15:54:10.296875
2558,12.58,2022-10-28 15:54:10.312500
2559,8.6,2022-10-28 15:54:10.328125
2560,4.21,2022-10-28 15:54:10.343750
2561,0.26,2022-10-28 15:54:10.359375
2562,-2.89,2022-10-28 15:54:10.375000
2563,-5.23,2022-10-28 15:54:10.390625
2564,-6.69,2022-10-28 15:54:10.406250
2565,-7.05,2022-10-28 15:54:10.421875
2566,-5.89,2022-10-28 15:54:10.437500
2567,-2.88,2022-10-28 15:54:10.453125
2568,1.94,2022-10-28 15:54:10.468750
2569,8.06,2022-10-28 15:54:10.484375
2570,14.54,2022-10-28 15:54:10.500000
2571,20.24,2022-10-28 15:54:10.515625
2572,24.24,2022-10-28 15:54:10.531250
2573,26.09,2022-10-28 15:54:10.546875
2574,25.99,2022-10-28 15:54:10.562500
2575,24.71,2022-10-28 15:54:10.578125
2576,23.31,2022-10-28 15:54:10.593750
2577,22.74,2022-10-28 15:54:10.609375
2578,23.49,2022-10-28 15:54:10.625000
2579,25.36,2022-10-28 15:54:10.640625
2580,27.65,2022-10-28 15:54:10.656250
2581,29.5,2022-10-28 15:54:10.671875
2582,30.38,2022-10-28 15:54:10.687500
2583,30.27,2022-10-28 15:54:10.703125
2584,29.7,2022-10-28 15:54:10.718750
2585,29.59,2022-10-28 15:54:10.734375
2586,30.86,2022-10-28 15:54:10.750000
2587,34.07,2022-10-28 15:54:10.765625
2588,39.12,2022-10-28 15:54:10.781250
2589,45.25,2022-10-28 15:54:10.796875
2590,51.21,2022-10-28 15:54:10.812500
2591,55.71,2022-10-28 15:54:10.828125
2592,57.83,2022-10-28 15:54:10.843750
2593,57.48,2022-10-28 15:54:10.859375
2594,55.61,2022-10-28 15:54:10.875000
2595,54.07,2022-10-28 15:54:10.890625
2596,55.18,2022-10-28 15:54:10.906250
2597,60.77,2022-10-28 15:54:10.921875
2598,71.23,2022-10-28 15:54:10.937500
2599,84.71,2022-10-28 15:54:10.953125
2600,97.11,2022-10-28 15:54:10.968750
2601,102.84,2022-10-28 15:54:10.984375
2602,96.32,2022-10-28 15:54:11.000000
2603,73.63,2022-10-28 15:54:11.015625
2604,34.13,2022-10-28 15:54:11.031250
2605,-18.75,2022-10-28 15:54:11.046875
2606,-77.86,2022-10-28 15:54:11.062500
2607,-133.94,2022-10-28 15:54:11.078125
2608,-177.99,2022-10-28 15:54:11.093750
2609,-203.69,2022-10-28 15:54:11.109375
2610,-208.92,2022-10-28 15:54:11.125000
2611,-195.95,2022-10-28 15:54:11.140625
2612,-170.31,2022-10-28 15:54:11.156250
2613,-138.9,2022-10-28 15:54:11.171875
2614,-108.02,2022-10-28 15:54:11.187500
2615,-82.19,2022-10-28 15:54:11.203125
2616,-63.66,2022-10-28 15:54:11.218750
2617,-52.85,2022-10-28 15:54:11.234375
2618,-48.85,2022-10-28 15:54:11.250000
2619,-49.96,2022-10-28 15:54:11.265625
2620,-53.98,2022-10-28 15:54:11.281250
2621,-58.37,2022-10-28 15:54:11.296875
2622,-60.63,2022-10-28 15:54:11.312500
2623,-58.94,2022-10-28 15:54:11.328125
2624,-52.7,2022-10-28 15:54:11.343750
2625,-42.65,2022-10-28 15:54:11.359375
2626,-30.61,2022-10-28 15:54:11.375000
2627,-18.71,2022-10-28 15:54:11.390625
2628,-8.76,2022-10-28 15:54:11.406250
2629,-1.59,2022-10-28 15:54:11.421875
2630,2.88,2022-10-28 15:54:11.437500
2631,5.34,2022-10-28 15:54:11.453125
2632,6.63,2022-10-28 15:54:11.468750
2633,7.37,2022-10-28 15:54:11.484375
2634,7.96,2022-10-28 15:54:11.500000
2635,8.67,2022-10-28 15:54:11.515625
2636,9.8,2022-10-28 15:54:11.531250
2637,11.63,2022-10-28 15:54:11.546875
2638,14.18,2022-10-28 15:54:11.562500
2639,17.07,2022-10-28 15:54:11.578125
2640,19.52,2022-10-28 15:54:11.593750
2641,20.67,2022-10-28 15:54:11.609375
2642,19.96,2022-10-28 15:54:11.625000
2643,17.35,2022-10-28 15:54:11.640625
2644,13.24,2022-10-28 15:54:11.656250
2645,8.34,2022-10-28 15:54:11.671875
2646,3.41,2022-10-28 15:54:11.687500
2647,-0.82,2022-10-28 15:54:11.703125
2648,-3.72,2022-10-28 15:54:11.718750
2649,-4.95,2022-10-28 15:54:11.734375
2650,-4.59,2022-10-28 15:54:11.750000
2651,-3.27,2022-10-28 15:54:11.765625
2652,-2.06,2022-10-28 15:54:11.781250
2653,-2.14,2022-10-28 15:54:11.796875
2654,-4.33,2022-10-28 15:54:11.812500
2655,-8.71,2022-10-28 15:54:11.828125
2656,-14.41,2022-10-28 15:54:11.843750
2657,-19.81,2022-10-28 15:54:11.859375
2658,-23.05,2022-10-28 15:54:11.875000
2659,-22.67,2022-10-28 15:54:11.890625
2660,-18.1,2022-10-28 15:54:11.906250
2661,-9.94,2022-10-28 15:54:11.921875
2662,0.27,2022-10-28 15:54:11.937500
2663,10.5,2022-10-28 15:54:11.953125
2664,18.88,2022-10-28 15:54:11.968750
2665,24.11,2022-10-28 15:54:11.984375
2666,25.6,2022-10-28 15:54:12.000000
2667,23.4,2022-10-28 15:54:12.015625
2668,17.93,2022-10-28 15:54:12.031250
2669,9.83,2022-10-28 15:54:12.046875
2670,0.07,2022-10-28 15:54:12.062500
2671,-10.13,2022-10-28 15:54:12.078125
2672,-19.34,2022-10-28 15:54:12.093750
2673,-26.27,2022-10-28 15:54:12.109375
2674,-30.04,2022-10-28 15:54:12.125000
2675,-30.43,2022-10-28 15:54:12.140625
2676,-27.81,2022-10-28 15:54:12.156250
2677,-22.9,2022-10-28 15:54:12.171875
2678,-16.52,2022-10-28 15:54:12.187500
2679,-9.53,2022-10-28 15:54:12.203125
2680,-2.8,2022-10-28 15:54:12.218750
2681,2.8,2022-10-28 15:54:12.234375
2682,6.48,2022-10-28 15:54:12.250000
2683,7.78,2022-10-28 15:54:12.265625
2684,6.75,2022-10-28 15:54:12.281250
2685,3.98,2022-10-28 15:54:12.296875
2686,0.41,2022-10-28 15:54:12.312500
2687,-2.98,2022-10-28 15:54:12.328125
2688,-5.49,2022-10-28 15:54:12.343750
2689,-6.87,2022-10-28 15:54:12.359375
2690,-7.24,2022-10-28 15:54:12.375000
2691,-6.91,2022-10-28 15:54:12.390625
2692,-6.16,2022-10-28 15:54:12.406250
2693,-5.16,2022-10-28 15:54:12.421875
2694,-3.93,2022-10-28 15:54:12.437500
2695,-2.55,2022-10-28 15:54:12.453125
2696,-1.17,2022-10-28 15:54:12.468750
2697,-0.08,2022-10-28 15:54:12.484375
2698,0.32,2022-10-28 15:54:12.500000
2699,-0.37,2022-10-28 15:54:12.515625
2700,-2.49,2022-10-28 15:54:12.531250
2701,-6.32,2022-10-28 15:54:12.546875
2702,-11.94,2022-10-28 15:54:12.562500
2703,-19.01,2022-10-28 15:54:12.578125
2704,-26.63,2022-10-28 15:54:12.593750
2705,-33.28,2022-10-28 15:54:12.609375
2706,-37.12,2022-10-28 15:54:12.625000
2707,-36.6,2022-10-28 15:54:12.640625
2708,-31.11,2022-10-28 15:54:12.656250
2709,-21.29,2022-10-28 15:54:12.671875
2710,-8.89,2022-10-28 15:54:12.687500
2711,3.89,2022-10-28 15:54:12.703125
2712,15.2,2022-10-28 15:54:12.718750
2713,24.0,2022-10-28 15:54:12.734375
2714,30.1,2022-10-28 15:54:12.750000
2715,33.78,2022-10-28 15:54:12.765625
2716,35.35,2022-10-28 15:54:12.781250
2717,34.94,2022-10-28 15:54:12.796875
2718,32.66,2022-10-28 15:54:12.812500
2719,28.92,2022-10-28 15:54:12.828125
2720,24.59,2022-10-28 15:54:12.843750
2721,20.89,2022-10-28 15:54:12.859375
2722,18.95,2022-10-28 15:54:12.875000
2723,19.28,2022-10-28 15:54:12.890625
2724,21.59,2022-10-28 15:54:12.906250
2725,24.84,2022-10-28 15:54:12.921875
2726,27.66,2022-10-28 15:54:12.937500
2727,28.91,2022-10-28 15:54:12.953125
2728,28.04,2022-10-28 15:54:12.968750
2729,25.23,2022-10-28 15:54:12.984375
2730,21.16,2022-10-28 15:54:13.000000
2731,16.67,2022-10-28 15:54:13.015625
2732,12.42,2022-10-28 15:54:13.031250
2733,8.64,2022-10-28 15:54:13.046875
2734,5.31,2022-10-28 15:54:13.062500
2735,2.36,2022-10-28 15:54:13.078125
2736,-0.13,2022-10-28 15:54:13.093750
2737,-1.86,2022-10-28 15:54:13.109375
2738,-2.49,2022-10-28 15:54:13.125000
2739,-1.82,2022-10-28 15:54:13.140625
2740,0.1,2022-10-28 15:54:13.156250
2741,2.89,2022-10-28 15:54:13.171875
2742,5.98,2022-10-28 15:54:13.187500
2743,8.64,2022-10-28 15:54:13.203125
2744,9.98,2022-10-28 15:54:13.218750
2745,9.13,2022-10-28 15:54:13.234375
2746,5.45,2022-10-28 15:54:13.250000
2747,-1.13,2022-10-28 15:54:13.265625
2748,-9.82,2022-10-28 15:54:13.281250
2749,-18.97,2022-10-28 15:54:13.296875
2750,-26.49,2022-10-28 15:54:13.312500
2751,-30.53,2022-10-28 15:54:13.328125
2752,-30.05,2022-10-28 15:54:13.343750
2753,-25.2,2022-10-28 15:54:13.359375
2754,-17.09,2022-10-28 15:54:13.375000
2755,-7.37,2022-10-28 15:54:13.390625
2756,2.32,2022-10-28 15:54:13.406250
2757,10.68,2022-10-28 15:54:13.421875
2758,16.85,2022-10-28 15:54:13.437500
2759,20.37,2022-10-28 15:54:13.453125
2760,21.11,2022-10-28 15:54:13.468750
2761,19.24,2022-10-28 15:54:13.484375
2762,15.22,2022-10-28 15:54:13.500000
2763,9.87,2022-10-28 15:54:13.515625
2764,4.25,2022-10-28 15:54:13.531250
2765,-0.56,2022-10-28 15:54:13.546875
2766,-3.68,2022-10-28 15:54:13.562500
2767,-4.67,2022-10-28 15:54:13.578125
2768,-3.63,2022-10-28 15:54:13.593750
2769,-1.13,2022-10-28 15:54:13.609375
2770,1.92,2022-10-28 15:54:13.625000
2771,4.59,2022-10-28 15:54:13.640625
2772,6.21,2022-10-28 15:54:13.656250
2773,6.51,2022-10-28 15:54:13.671875
2774,5.76,2022-10-28 15:54:13.687500
2775,4.61,2022-10-28 15:54:13.703125
2776,3.84,2022-10-28 15:54:13.718750
2777,4.0,2022-10-28 15:54:13.734375
2778,5.22,2022-10-28 15:54:13.750000
2779,7.09,2022-10-28 15:54:13.765625
2780,8.85,2022-10-28 15:54:13.781250
2781,9.73,2022-10-28 15:54:13.796875
2782,9.23,2022-10-28 15:54:13.812500
2783,7.36,2022-10-28 15:54:13.828125
2784,4.53,2022-10-28 15:54:13.843750
2785,1.4,2022-10-28 15:54:13.859375
2786,-1.58,2022-10-28 15:54:13.875000
2787,-4.26,2022-10-28 15:54:13.890625
2788,-6.9,2022-10-28 15:54:13.906250
2789,-9.91,2022-10-28 15:54:13.921875
2790,-13.62,2022-10-28 15:54:13.937500
2791,-18.01,2022-10-28 15:54:13.953125
2792,-22.67,2022-10-28 15:54:13.968750
2793,-26.88,2022-10-28 15:54:13.984375
2794,-29.77,2022-10-28 15:54:14.000000
2795,-30.55,2022-10-28 15:54:14.015625
2796,-28.62,2022-10-28 15:54:14.031250
2797,-23.78,2022-10-28 15:54:14.046875
2798,-16.2,2022-10-28 15:54:14.062500
2799,-6.5,2022-10-28 15:54:14.078125
2800,4.35,2022-10-28 15:54:14.093750
2801,15.2,2022-10-28 15:54:14.109375
2802,24.82,2022-10-28 15:54:14.125000
2803,32.2,2022-10-28 15:54:14.140625
2804,36.6,2022-10-28 15:54:14.156250
2805,37.71,2022-10-28 15:54:14.171875
2806,35.66,2022-10-28 15:54:14.187500
2807,31.0,2022-10-28 15:54:14.203125
2808,24.67,2022-10-28 15:54:14.218750
2809,17.78,2022-10-28 15:54:14.234375
2810,11.53,2022-10-28 15:54:14.250000
2811,6.84,2022-10-28 15:54:14.265625
2812,4.25,2022-10-28 15:54:14.281250
2813,3.75,2022-10-28 15:54:14.296875
2814,4.86,2022-10-28 15:54:14.312500
2815,6.85,2022-10-28 15:54:14.328125
2816,9.0,2022-10-28 15:54:14.343750
2817,10.83,2022-10-28 15:54:14.359375
2818,12.24,2022-10-28 15:54:14.375000
2819,13.45,2022-10-28 15:54:14.390625
2820,14.85,2022-10-28 15:54:14.406250
2821,16.77,2022-10-28 15:54:14.421875
2822,19.16,2022-10-28 15:54:14.437500
2823,21.56,2022-10-28 15:54:14.453125
2824,23.22,2022-10-28 15:54:14.468750
2825,23.33,2022-10-28 15:54:14.484375
2826,21.42,2022-10-28 15:54:14.500000
2827,17.44,2022-10-28 15:54:14.515625
2828,11.79,2022-10-28 15:54:14.531250
2829,5.18,2022-10-28 15:54:14.546875
2830,-1.69,2022-10-28 15:54:14.562500
2831,-8.28,2022-10-28 15:54:14.578125
2832,-14.27,2022-10-28 15:54:14.593750
2833,-19.59,2022-10-28 15:54:14.609375
2834,-24.34,2022-10-28 15:54:14.625000
2835,-28.68,2022-10-28 15:54:14.640625
2836,-32.67,2022-10-28 15:54:14.656250
2837,-36.28,2022-10-28 15:54:14.671875
2838,-39.33,2022-10-28 15:54:14.687500
2839,-41.46,2022-10-28 15:54:14.703125
2840,-42.22,2022-10-28 15:54:14.718750
2841,-41.17,2022-10-28 15:54:14.734375
2842,-38.11,2022-10-28 15:54:14.750000
2843,-33.22,2022-10-28 15:54:14.765625
2844,-27.07,2022-10-28 15:54:14.781250
2845,-20.47,2022-10-28 15:54:14.796875
2846,-14.2,2022-10-28 15:54:14.812500
2847,-8.79,2022-10-28 15:54:14.828125
2848,-4.47,2022-10-28 15:54:14.843750
2849,-1.26,2022-10-28 15:54:14.859375
2850,0.81,2022-10-28 15:54:14.875000
2851,1.62,2022-10-28 15:54:14.890625
2852,1.09,2022-10-28 15:54:14.906250
2853,-0.65,2022-10-28 15:54:14.921875
2854,-3.02,2022-10-28 15:54:14.937500
2855,-5.07,2022-10-28 15:54:14.953125
2856,-5.71,2022-10-28 15:54:14.968750
2857,-4.2,2022-10-28 15:54:14.984375
2858,-0.49,2022-10-28 15:54:15.000000
2859,4.73,2022-10-28 15:54:15.015625
2860,10.18,2022-10-28 15:54:15.031250
2861,14.54,2022-10-28 15:54:15.046875
2862,16.89,2022-10-28 15:54:15.062500
2863,16.99,2022-10-28 15:54:15.078125
2864,15.33,2022-10-28 15:54:15.093750
2865,12.95,2022-10-28 15:54:15.109375
2866,10.96,2022-10-28 15:54:15.125000
2867,10.11,2022-10-28 15:54:15.140625
2868,10.48,2022-10-28 15:54:15.156250
2869,11.44,2022-10-28 15:54:15.171875
2870,12.01,2022-10-28 15:54:15.187500
2871,11.34,2022-10-28 15:54:15.203125
2872,9.13,2022-10-28 15:54:15.218750
2873,5.74,2022-10-28 15:54:15.234375
2874,2.04,2022-10-28 15:54:15.250000
2875,-1.12,2022-10-28 15:54:15.265625
2876,-3.22,2022-10-28 15:54:15.281250
2877,-4.28,2022-10-28 15:54:15.296875
2878,-4.83,2022-10-28 15:54:15.312500
2879,-5.66,2022-10-28 15:54:15.328125
2880,-7.43,2022-10-28 15:54:15.343750
2881,-10.46,2022-10-28 15:54:15.359375
2882,-14.61,2022-10-28 15:54:15.375000
2883,-19.29,2022-10-28 15:54:15.390625
2884,-23.62,2022-10-28 15:54:15.406250
2885,-26.71,2022-10-28 15:54:15.421875
2886,-27.86,2022-10-28 15:54:15.437500
2887,-26.69,2022-10-28 15:54:15.453125
2888,-23.3,2022-10-28 15:54:15.468750
2889,-18.09,2022-10-28 15:54:15.484375
2890,-11.74,2022-10-28 15:54:15.500000
2891,-5.05,2022-10-28 15:54:15.515625
2892,1.19,2022-10-28 15:54:15.531250
2893,6.22,2022-10-28 15:54:15.546875
2894,9.48,2022-10-28 15:54:15.562500
2895,10.75,2022-10-28 15:54:15.578125
2896,10.22,2022-10-28 15:54:15.593750
2897,8.49,2022-10-28 15:54:15.609375
2898,6.4,2022-10-28 15:54:15.625000
2899,4.74,2022-10-28 15:54:15.640625
2900,4.03,2022-10-28 15:54:15.656250
2901,4.42,2022-10-28 15:54:15.671875
2902,5.71,2022-10-28 15:54:15.687500
2903,7.44,2022-10-28 15:54:15.703125
2904,9.02,2022-10-28 15:54:15.718750
2905,9.83,2022-10-28 15:54:15.734375
2906,9.41,2022-10-28 15:54:15.750000
2907,7.61,2022-10-28 15:54:15.765625
2908,4.79,2022-10-28 15:54:15.781250
2909,1.81,2022-10-28 15:54:15.796875
2910,-0.19,2022-10-28 15:54:15.812500
2911,-0.25,2022-10-28 15:54:15.828125
2912,2.05,2022-10-28 15:54:15.843750
2913,6.38,2022-10-28 15:54:15.859375
2914,11.74,2022-10-28 15:54:15.875000
2915,16.8,2022-10-28 15:54:15.890625
2916,20.31,2022-10-28 15:54:15.906250
2917,21.47,2022-10-28 15:54:15.921875
2918,20.1,2022-10-28 15:54:15.937500
2919,16.66,2022-10-28 15:54:15.953125
2920,12.04,2022-10-28 15:54:15.968750
2921,7.3,2022-10-28 15:54:15.984375
2922,3.28,2022-10-28 15:54:16.000000
2923,0.3,2022-10-28 15:54:16.015625
2924,-1.86,2022-10-28 15:54:16.031250
2925,-3.87,2022-10-28 15:54:16.046875
2926,-6.39,2022-10-28 15:54:16.062500
2927,-9.68,2022-10-28 15:54:16.078125
2928,-13.46,2022-10-28 15:54:16.093750
2929,-16.91,2022-10-28 15:54:16.109375
2930,-19.04,2022-10-28 15:54:16.125000
2931,-19.01,2022-10-28 15:54:16.140625
2932,-16.42,2022-10-28 15:54:16.156250
2933,-11.41,2022-10-28 15:54:16.171875
2934,-4.63,2022-10-28 15:54:16.187500
2935,2.88,2022-10-28 15:54:16.203125
2936,9.91,2022-10-28 15:54:16.218750
2937,15.33,2022-10-28 15:54:16.234375
2938,18.35,2022-10-28 15:54:16.250000
2939,18.68,2022-10-28 15:54:16.265625
2940,16.54,2022-10-28 15:54:16.281250
2941,12.53,2022-10-28 15:54:16.296875
2942,7.55,2022-10-28 15:54:16.312500
2943,2.47,2022-10-28 15:54:16.328125
2944,-1.89,2022-10-28 15:54:16.343750
2945,-4.94,2022-10-28 15:54:16.359375
2946,-6.38,2022-10-28 15:54:16.375000
2947,-6.27,2022-10-28 15:54:16.390625
2948,-4.97,2022-10-28 15:54:16.406250
2949,-2.99,2022-10-28 15:54:16.421875
2950,-0.8,2022-10-28 15:54:16.437500
2951,1.22,2022-10-28 15:54:16.453125
2952,2.89,2022-10-28 15:54:16.468750
2953,4.15,2022-10-28 15:54:16.484375
2954,4.96,2022-10-28 15:54:16.500000
2955,5.37,2022-10-28 15:54:16.515625
2956,5.5,2022-10-28 15:54:16.531250
2957,5.52,2022-10-28 15:54:16.546875
2958,5.56,2022-10-28 15:54:16.562500
2959,5.58,2022-10-28 15:54:16.578125
2960,5.27,2022-10-28 15:54:16.593750
2961,4.15,2022-10-28 15:54:16.609375
2962,1.84,2022-10-28 15:54:16.625000
2963,-1.74,2022-10-28 15:54:16.640625
2964,-6.32,2022-10-28 15:54:16.656250
2965,-11.38,2022-10-28 15:54:16.671875
2966,-16.46,2022-10-28 15:54:16.687500
2967,-21.28,2022-10-28 15:54:16.703125
2968,-25.85,2022-10-28 15:54:16.718750
2969,-30.24,2022-10-28 15:54:16.734375
2970,-34.41,2022-10-28 15:54:16.750000
2971,-38.1,2022-10-28 15:54:16.765625
2972,-40.88,2022-10-28 15:54:16.781250
2973,-42.18,2022-10-28 15:54:16.796875
2974,-41.5,2022-10-28 15:54:16.812500
2975,-38.44,2022-10-28 15:54:16.828125
2976,-32.88,2022-10-28 15:54:16.843750
2977,-25.11,2022-10-28 15:54:16.859375
2978,-15.88,2022-10-28 15:54:16.875000
2979,-6.31,2022-10-28 15:54:16.890625
2980,2.41,2022-10-28 15:54:16.906250
2981,9.35,2022-10-28 15:54:16.921875
2982,14.12,2022-10-28 15:54:16.937500
2983,16.82,2022-10-28 15:54:16.953125
2984,17.79,2022-10-28 15:54:16.968750
2985,17.32,2022-10-28 15:54:16.984375
2986,15.48,2022-10-28 15:54:17.000000
2987,12.25,2022-10-28 15:54:17.015625
2988,7.78,2022-10-28 15:54:17.031250
2989,2.67,2022-10-28 15:54:17.046875
2990,-2.02,2022-10-28 15:54:17.062500
2991,-5.05,2022-10-28 15:54:17.078125
2992,-5.51,2022-10-28 15:54:17.093750
2993,-3.19,2022-10-28 15:54:17.109375
2994,1.27,2022-10-28 15:54:17.125000
2995,6.64,2022-10-28 15:54:17.140625
2996,11.6,2022-10-28 15:54:17.156250
2997,15.19,2022-10-28 15:54:17.171875
2998,17.16,2022-10-28 15:54:17.187500
2999,17.85,2022-10-28 15:54:17.203125
3000,17.83,2022-10-28 15:54:17.218750
3001,17.5,2022-10-28 15:54:17.234375
3002,16.78,2022-10-28 15:54:17.250000
3003,15.22,2022-10-28 15:54:17.265625
3004,12.34,2022-10-28 15:54:17.281250
3005,8.02,2022-10-28 15:54:17.296875
3006,2.77,2022-10-28 15:54:17.312500
3007,-2.46,2022-10-28 15:54:17.328125
3008,-6.66,2022-10-28 15:54:17.343750
3009,-9.31,2022-10-28 15:54:17.359375
3010,-10.56,2022-10-28 15:54:17.375000
3011,-11.24,2022-10-28 15:54:17.390625
3012,-12.34,2022-10-28 15:54:17.406250
3013,-14.6,2022-10-28 15:54:17.421875
3014,-18.14,2022-10-28 15:54:17.437500
3015,-22.42,2022-10-28 15:54:17.453125
3016,-26.34,2022-10-28 15:54:17.468750
3017,-28.65,2022-10-28 15:54:17.484375
3018,-28.33,2022-10-28 15:54:17.500000
3019,-24.87,2022-10-28 15:54:17.515625
3020,-18.48,2022-10-28 15:54:17.531250
3021,-9.97,2022-10-28 15:54:17.546875
3022,-0.46,2022-10-28 15:54:17.562500
3023,8.9,2022-10-28 15:54:17.578125
3024,17.2,2022-10-28 15:54:17.593750
3025,23.88,2022-10-28 15:54:17.609375
3026,28.59,2022-10-28 15:54:17.625000
3027,31.07,2022-10-28 15:54:17.640625
3028,31.09,2022-10-28 15:54:17.656250
3029,28.51,2022-10-28 15:54:17.671875
3030,23.43,2022-10-28 15:54:17.687500
3031,16.42,2022-10-28 15:54:17.703125
3032,8.47,2022-10-28 15:54:17.718750
3033,0.89,2022-10-28 15:54:17.734375
3034,-5.02,2022-10-28 15:54:17.750000
3035,-8.35,2022-10-28 15:54:17.765625
3036,-8.77,2022-10-28 15:54:17.781250
3037,-6.55,2022-10-28 15:54:17.796875
3038,-2.35,2022-10-28 15:54:17.812500
3039,3.03,2022-10-28 15:54:17.828125
3040,8.85,2022-10-28 15:54:17.843750
3041,14.61,2022-10-28 15:54:17.859375
3042,19.96,2022-10-28 15:54:17.875000
3043,24.64,2022-10-28 15:54:17.890625
3044,28.3,2022-10-28 15:54:17.906250
3045,30.47,2022-10-28 15:54:17.921875
3046,30.59,2022-10-28 15:54:17.937500
3047,28.25,2022-10-28 15:54:17.953125
3048,23.41,2022-10-28 15:54:17.968750
3049,16.52,2022-10-28 15:54:17.984375
3050,8.42,2022-10-28 15:54:18.000000
3051,0.13,2022-10-28 15:54:18.015625
3052,-7.41,2022-10-28 15:54:18.031250
3053,-13.6,2022-10-28 15:54:18.046875
3054,-18.32,2022-10-28 15:54:18.062500
3055,-21.81,2022-10-28 15:54:18.078125
3056,-24.54,2022-10-28 15:54:18.093750
3057,-26.98,2022-10-28 15:54:18.109375
3058,-29.35,2022-10-28 15:54:18.125000
3059,-31.57,2022-10-28 15:54:18.140625
3060,-33.31,2022-10-28 15:54:18.156250
3061,-34.15,2022-10-28 15:54:18.171875
3062,-33.91,2022-10-28 15:54:18.187500
3063,-32.83,2022-10-28 15:54:18.203125
3064,-31.59,2022-10-28 15:54:18.218750
3065,-31.0,2022-10-28 15:54:18.234375
3066,-31.68,2022-10-28 15:54:18.250000
3067,-33.71,2022-10-28 15:54:18.265625
3068,-36.75,2022-10-28 15:54:18.281250
3069,-40.38,2022-10-28 15:54:18.296875
3070,-44.5,2022-10-28 15:54:18.312500
3071,-49.37,2022-10-28 15:54:18.328125
3072,-55.34,2022-10-28 15:54:18.343750
3073,-62.3,2022-10-28 15:54:18.359375
3074,-69.34,2022-10-28 15:54:18.375000
3075,-74.95,2022-10-28 15:54:18.390625
3076,-77.51,2022-10-28 15:54:18.406250
3077,-75.95,2022-10-28 15:54:18.421875
3078,-70.07,2022-10-28 15:54:18.437500
3079,-60.36,2022-10-28 15:54:18.453125
3080,-47.66,2022-10-28 15:54:18.468750
3081,-32.86,2022-10-28 15:54:18.484375
3082,-16.86,2022-10-28 15:54:18.500000
3083,-0.68,2022-10-28 15:54:18.515625
3084,14.6,2022-10-28 15:54:18.531250
3085,28.08,2022-10-28 15:54:18.546875
3086,39.24,2022-10-28 15:54:18.562500
3087,48.09,2022-10-28 15:54:18.578125
3088,54.93,2022-10-28 15:54:18.593750
3089,59.99,2022-10-28 15:54:18.609375
3090,63.23,2022-10-28 15:54:18.625000
3091,64.42,2022-10-28 15:54:18.640625
3092,63.48,2022-10-28 15:54:18.656250
3093,60.75,2022-10-28 15:54:18.671875
3094,57.0,2022-10-28 15:54:18.687500
3095,53.13,2022-10-28 15:54:18.703125
3096,49.94,2022-10-28 15:54:18.718750
3097,47.92,2022-10-28 15:54:18.734375
3098,47.27,2022-10-28 15:54:18.750000
3099,47.85,2022-10-28 15:54:18.765625
3100,49.15,2022-10-28 15:54:18.781250
3101,50.27,2022-10-28 15:54:18.796875
3102,50.15,2022-10-28 15:54:18.812500
3103,48.03,2022-10-28 15:54:18.828125
3104,44.05,2022-10-28 15:54:18.843750
3105,39.45,2022-10-28 15:54:18.859375
3106,36.17,2022-10-28 15:54:18.875000
3107,35.98,2022-10-28 15:54:18.890625
3108,39.58,2022-10-28 15:54:18.906250
3109,46.11,2022-10-28 15:54:18.921875
3110,53.54,2022-10-28 15:54:18.937500
3111,59.43,2022-10-28 15:54:18.953125
3112,61.86,2022-10-28 15:54:18.968750
3113,59.94,2022-10-28 15:54:18.984375
3114,53.82,2022-10-28 15:54:19.000000
3115,44.31,2022-10-28 15:54:19.015625
3116,32.59,2022-10-28 15:54:19.031250
3117,20.0,2022-10-28 15:54:19.046875
3118,7.94,2022-10-28 15:54:19.062500
3119,-2.22,2022-10-28 15:54:19.078125
3120,-9.31,2022-10-28 15:54:19.093750
3121,-12.64,2022-10-28 15:54:19.109375
3122,-12.21,2022-10-28 15:54:19.125000
3123,-8.78,2022-10-28 15:54:19.140625
3124,-3.7,2022-10-28 15:54:19.156250
3125,1.48,2022-10-28 15:54:19.171875
3126,5.52,2022-10-28 15:54:19.187500
3127,7.81,2022-10-28 15:54:19.203125
3128,8.48,2022-10-28 15:54:19.218750
3129,8.14,2022-10-28 15:54:19.234375
3130,7.52,2022-10-28 15:54:19.250000
3131,7.06,2022-10-28 15:54:19.265625
3132,6.85,2022-10-28 15:54:19.281250
3133,6.69,2022-10-28 15:54:19.296875
3134,6.32,2022-10-28 15:54:19.312500
3135,5.61,2022-10-28 15:54:19.328125
3136,4.55,2022-10-28 15:54:19.343750
3137,3.2,2022-10-28 15:54:19.359375
3138,1.57,2022-10-28 15:54:19.375000
3139,-0.29,2022-10-28 15:54:19.390625
3140,-2.27,2022-10-28 15:54:19.406250
3141,-4.19,2022-10-28 15:54:19.421875
3142,-5.88,2022-10-28 15:54:19.437500
3143,-7.34,2022-10-28 15:54:19.453125
3144,-8.75,2022-10-28 15:54:19.468750
3145,-10.22,2022-10-28 15:54:19.484375
3146,-11.61,2022-10-28 15:54:19.500000
3147,-12.44,2022-10-28 15:54:19.515625
3148,-12.06,2022-10-28 15:54:19.531250
3149,-10.01,2022-10-28 15:54:19.546875
3150,-6.38,2022-10-28 15:54:19.562500
3151,-1.78,2022-10-28 15:54:19.578125
3152,2.82,2022-10-28 15:54:19.593750
3153,6.51,2022-10-28 15:54:19.609375
3154,8.69,2022-10-28 15:54:19.625000
3155,9.14,2022-10-28 15:54:19.640625
