,BVP,time
0,-19.87,2021-12-17 17:32:58.390625
1,3.16,2021-12-17 17:32:58.406250
2,36.71,2021-12-17 17:32:58.421875
3,80.68,2021-12-17 17:32:58.437500
4,132.07,2021-12-17 17:32:58.453125
5,185.23,2021-12-17 17:32:58.468750
6,233.19,2021-12-17 17:32:58.484375
7,269.85,2021-12-17 17:32:58.500000
8,291.78,2021-12-17 17:32:58.515625
9,299.1,2021-12-17 17:32:58.531250
10,294.88,2021-12-17 17:32:58.546875
11,283.64,2021-12-17 17:32:58.562500
12,269.71,2021-12-17 17:32:58.578125
13,256.2,2021-12-17 17:32:58.593750
14,244.85,2021-12-17 17:32:58.609375
15,236.42,2021-12-17 17:32:58.625000
16,231.01,2021-12-17 17:32:58.640625
17,228.17,2021-12-17 17:32:58.656250
18,226.71,2021-12-17 17:32:58.671875
19,224.7,2021-12-17 17:32:58.687500
20,219.76,2021-12-17 17:32:58.703125
21,209.83,2021-12-17 17:32:58.718750
22,193.75,2021-12-17 17:32:58.734375
23,171.76,2021-12-17 17:32:58.750000
24,145.48,2021-12-17 17:32:58.765625
25,117.39,2021-12-17 17:32:58.781250
26,90.22,2021-12-17 17:32:58.796875
27,66.17,2021-12-17 17:32:58.812500
28,46.56,2021-12-17 17:32:58.828125
29,31.59,2021-12-17 17:32:58.843750
30,20.58,2021-12-17 17:32:58.859375
31,12.39,2021-12-17 17:32:58.875000
32,6.02,2021-12-17 17:32:58.890625
33,1.05,2021-12-17 17:32:58.906250
34,-2.24,2021-12-17 17:32:58.921875
35,-3.06,2021-12-17 17:32:58.937500
36,-0.63,2021-12-17 17:32:58.953125
37,5.24,2021-12-17 17:32:58.968750
38,13.84,2021-12-17 17:32:58.984375
39,23.69,2021-12-17 17:32:59.000000
40,32.96,2021-12-17 17:32:59.015625
41,40.03,2021-12-17 17:32:59.031250
42,44.04,2021-12-17 17:32:59.046875
43,44.99,2021-12-17 17:32:59.062500
44,43.65,2021-12-17 17:32:59.078125
45,41.26,2021-12-17 17:32:59.093750
46,39.08,2021-12-17 17:32:59.109375
47,38.12,2021-12-17 17:32:59.125000
48,38.88,2021-12-17 17:32:59.140625
49,41.32,2021-12-17 17:32:59.156250
50,44.88,2021-12-17 17:32:59.171875
51,48.74,2021-12-17 17:32:59.187500
52,52.11,2021-12-17 17:32:59.203125
53,54.5,2021-12-17 17:32:59.218750
54,55.86,2021-12-17 17:32:59.234375
55,56.5,2021-12-17 17:32:59.250000
56,56.94,2021-12-17 17:32:59.265625
57,57.58,2021-12-17 17:32:59.281250
58,58.55,2021-12-17 17:32:59.296875
59,59.61,2021-12-17 17:32:59.312500
60,60.21,2021-12-17 17:32:59.328125
61,59.68,2021-12-17 17:32:59.343750
62,57.44,2021-12-17 17:32:59.359375
63,53.22,2021-12-17 17:32:59.375000
64,47.2,2021-12-17 17:32:59.390625
65,40.0,2021-12-17 17:32:59.406250
66,32.35,2021-12-17 17:32:59.421875
67,24.7,2021-12-17 17:32:59.437500
68,16.92,2021-12-17 17:32:59.453125
69,8.12,2021-12-17 17:32:59.468750
70,-2.95,2021-12-17 17:32:59.484375
71,-17.34,2021-12-17 17:32:59.500000
72,-35.37,2021-12-17 17:32:59.515625
73,-56.46,2021-12-17 17:32:59.531250
74,-79.26,2021-12-17 17:32:59.546875
75,-102.27,2021-12-17 17:32:59.562500
76,-124.3,2021-12-17 17:32:59.578125
77,-144.92,2021-12-17 17:32:59.593750
78,-164.5,2021-12-17 17:32:59.609375
79,-184.01,2021-12-17 17:32:59.625000
80,-205.03,2021-12-17 17:32:59.640625
81,-229.55,2021-12-17 17:32:59.656250
82,-259.73,2021-12-17 17:32:59.671875
83,-297.05,2021-12-17 17:32:59.687500
84,-341.18,2021-12-17 17:32:59.703125
85,-388.89,2021-12-17 17:32:59.718750
86,-434.07,2021-12-17 17:32:59.734375
87,-469.14,2021-12-17 17:32:59.750000
88,-487.58,2021-12-17 17:32:59.765625
89,-486.56,2021-12-17 17:32:59.781250
90,-468.13,2021-12-17 17:32:59.796875
91,-438.45,2021-12-17 17:32:59.812500
92,-405.25,2021-12-17 17:32:59.828125
93,-374.95,2021-12-17 17:32:59.843750
94,-350.76,2021-12-17 17:32:59.859375
95,-332.62,2021-12-17 17:32:59.875000
96,-318.45,2021-12-17 17:32:59.890625
97,-305.92,2021-12-17 17:32:59.906250
98,-293.51,2021-12-17 17:32:59.921875
99,-280.54,2021-12-17 17:32:59.937500
100,-266.51,2021-12-17 17:32:59.953125
101,-250.42,2021-12-17 17:32:59.968750
102,-230.86,2021-12-17 17:32:59.984375
103,-206.37,2021-12-17 17:33:00.000000
104,-176.24,2021-12-17 17:33:00.015625
105,-140.96,2021-12-17 17:33:00.031250
106,-102.1,2021-12-17 17:33:00.046875
107,-61.89,2021-12-17 17:33:00.062500
108,-22.28,2021-12-17 17:33:00.078125
109,15.63,2021-12-17 17:33:00.093750
110,51.82,2021-12-17 17:33:00.109375
111,86.91,2021-12-17 17:33:00.125000
112,121.28,2021-12-17 17:33:00.140625
113,154.23,2021-12-17 17:33:00.156250
114,184.08,2021-12-17 17:33:00.171875
115,208.8,2021-12-17 17:33:00.187500
116,227.14,2021-12-17 17:33:00.203125
117,239.24,2021-12-17 17:33:00.218750
118,246.31,2021-12-17 17:33:00.234375
119,249.63,2021-12-17 17:33:00.250000
120,249.55,2021-12-17 17:33:00.265625
121,245.28,2021-12-17 17:33:00.281250
122,235.5,2021-12-17 17:33:00.296875
123,219.52,2021-12-17 17:33:00.312500
124,198.03,2021-12-17 17:33:00.328125
125,172.97,2021-12-17 17:33:00.343750
126,146.69,2021-12-17 17:33:00.359375
127,120.96,2021-12-17 17:33:00.375000
128,96.59,2021-12-17 17:33:00.390625
129,73.77,2021-12-17 17:33:00.406250
130,52.72,2021-12-17 17:33:00.421875
131,34.06,2021-12-17 17:33:00.437500
132,18.61,2021-12-17 17:33:00.453125
133,6.8,2021-12-17 17:33:00.468750
134,-1.78,2021-12-17 17:33:00.484375
135,-8.25,2021-12-17 17:33:00.500000
136,-13.88,2021-12-17 17:33:00.515625
137,-19.52,2021-12-17 17:33:00.531250
138,-25.26,2021-12-17 17:33:00.546875
139,-30.56,2021-12-17 17:33:00.562500
140,-34.56,2021-12-17 17:33:00.578125
141,-36.66,2021-12-17 17:33:00.593750
142,-36.65,2021-12-17 17:33:00.609375
143,-34.77,2021-12-17 17:33:00.625000
144,-31.54,2021-12-17 17:33:00.640625
145,-27.58,2021-12-17 17:33:00.656250
146,-23.41,2021-12-17 17:33:00.671875
147,-19.39,2021-12-17 17:33:00.687500
148,-15.71,2021-12-17 17:33:00.703125
149,-12.44,2021-12-17 17:33:00.718750
150,-9.56,2021-12-17 17:33:00.734375
151,-7.03,2021-12-17 17:33:00.750000
152,-4.81,2021-12-17 17:33:00.765625
153,-2.87,2021-12-17 17:33:00.781250
154,-1.15,2021-12-17 17:33:00.796875
155,0.38,2021-12-17 17:33:00.812500
156,1.76,2021-12-17 17:33:00.828125
157,3.01,2021-12-17 17:33:00.843750
158,4.12,2021-12-17 17:33:00.859375
159,5.09,2021-12-17 17:33:00.875000
160,5.87,2021-12-17 17:33:00.890625
161,6.45,2021-12-17 17:33:00.906250
162,6.8,2021-12-17 17:33:00.921875
163,6.91,2021-12-17 17:33:00.937500
164,6.71,2021-12-17 17:33:00.953125
165,6.21,2021-12-17 17:33:00.968750
166,5.43,2021-12-17 17:33:00.984375
167,4.43,2021-12-17 17:33:01.000000
168,3.28,2021-12-17 17:33:01.015625
169,2.02,2021-12-17 17:33:01.031250
170,0.68,2021-12-17 17:33:01.046875
171,-0.79,2021-12-17 17:33:01.062500
172,-2.4,2021-12-17 17:33:01.078125
173,-4.14,2021-12-17 17:33:01.093750
174,-5.95,2021-12-17 17:33:01.109375
175,-7.78,2021-12-17 17:33:01.125000
176,-9.61,2021-12-17 17:33:01.140625
177,-11.51,2021-12-17 17:33:01.156250
178,-13.57,2021-12-17 17:33:01.171875
179,-15.87,2021-12-17 17:33:01.187500
180,-18.35,2021-12-17 17:33:01.203125
181,-20.81,2021-12-17 17:33:01.218750
182,-22.99,2021-12-17 17:33:01.234375
183,-24.69,2021-12-17 17:33:01.250000
184,-25.91,2021-12-17 17:33:01.265625
185,-26.89,2021-12-17 17:33:01.281250
186,-28.01,2021-12-17 17:33:01.296875
187,-29.68,2021-12-17 17:33:01.312500
188,-32.01,2021-12-17 17:33:01.328125
189,-34.74,2021-12-17 17:33:01.343750
190,-37.24,2021-12-17 17:33:01.359375
191,-38.72,2021-12-17 17:33:01.375000
192,-38.53,2021-12-17 17:33:01.390625
193,-36.38,2021-12-17 17:33:01.406250
194,-32.43,2021-12-17 17:33:01.421875
195,-27.17,2021-12-17 17:33:01.437500
196,-21.19,2021-12-17 17:33:01.453125
197,-15.01,2021-12-17 17:33:01.468750
198,-8.92,2021-12-17 17:33:01.484375
199,-3.01,2021-12-17 17:33:01.500000
200,2.69,2021-12-17 17:33:01.515625
201,8.13,2021-12-17 17:33:01.531250
202,13.16,2021-12-17 17:33:01.546875
203,17.58,2021-12-17 17:33:01.562500
204,21.22,2021-12-17 17:33:01.578125
205,24.01,2021-12-17 17:33:01.593750
206,25.98,2021-12-17 17:33:01.609375
207,27.26,2021-12-17 17:33:01.625000
208,27.95,2021-12-17 17:33:01.640625
209,28.08,2021-12-17 17:33:01.656250
210,27.61,2021-12-17 17:33:01.671875
211,26.51,2021-12-17 17:33:01.687500
212,24.83,2021-12-17 17:33:01.703125
213,22.7,2021-12-17 17:33:01.718750
214,20.39,2021-12-17 17:33:01.734375
215,18.14,2021-12-17 17:33:01.750000
216,16.14,2021-12-17 17:33:01.765625
217,14.43,2021-12-17 17:33:01.781250
218,12.98,2021-12-17 17:33:01.796875
219,11.69,2021-12-17 17:33:01.812500
220,10.44,2021-12-17 17:33:01.828125
221,9.08,2021-12-17 17:33:01.843750
222,7.48,2021-12-17 17:33:01.859375
223,5.51,2021-12-17 17:33:01.875000
224,3.03,2021-12-17 17:33:01.890625
225,-0.0,2021-12-17 17:33:01.906250
226,-3.55,2021-12-17 17:33:01.921875
227,-7.46,2021-12-17 17:33:01.937500
228,-11.53,2021-12-17 17:33:01.953125
229,-15.54,2021-12-17 17:33:01.968750
230,-19.25,2021-12-17 17:33:01.984375
231,-22.53,2021-12-17 17:33:02.000000
232,-25.39,2021-12-17 17:33:02.015625
233,-27.97,2021-12-17 17:33:02.031250
234,-30.47,2021-12-17 17:33:02.046875
235,-33.14,2021-12-17 17:33:02.062500
236,-36.12,2021-12-17 17:33:02.078125
237,-39.37,2021-12-17 17:33:02.093750
238,-42.67,2021-12-17 17:33:02.109375
239,-45.65,2021-12-17 17:33:02.125000
240,-47.83,2021-12-17 17:33:02.140625
241,-48.82,2021-12-17 17:33:02.156250
242,-48.4,2021-12-17 17:33:02.171875
243,-46.58,2021-12-17 17:33:02.187500
244,-43.62,2021-12-17 17:33:02.203125
245,-39.9,2021-12-17 17:33:02.218750
246,-35.82,2021-12-17 17:33:02.234375
247,-31.6,2021-12-17 17:33:02.250000
248,-27.23,2021-12-17 17:33:02.265625
249,-22.51,2021-12-17 17:33:02.281250
250,-17.25,2021-12-17 17:33:02.296875
251,-11.38,2021-12-17 17:33:02.312500
252,-5.08,2021-12-17 17:33:02.328125
253,1.29,2021-12-17 17:33:02.343750
254,7.32,2021-12-17 17:33:02.359375
255,12.72,2021-12-17 17:33:02.375000
256,17.35,2021-12-17 17:33:02.390625
257,21.16,2021-12-17 17:33:02.406250
258,24.15,2021-12-17 17:33:02.421875
259,26.25,2021-12-17 17:33:02.437500
260,27.37,2021-12-17 17:33:02.453125
261,27.61,2021-12-17 17:33:02.468750
262,27.21,2021-12-17 17:33:02.484375
263,26.61,2021-12-17 17:33:02.500000
264,26.21,2021-12-17 17:33:02.515625
265,26.27,2021-12-17 17:33:02.531250
266,26.73,2021-12-17 17:33:02.546875
267,27.29,2021-12-17 17:33:02.562500
268,27.56,2021-12-17 17:33:02.578125
269,27.22,2021-12-17 17:33:02.593750
270,26.17,2021-12-17 17:33:02.609375
271,24.56,2021-12-17 17:33:02.625000
272,22.65,2021-12-17 17:33:02.640625
273,20.71,2021-12-17 17:33:02.656250
274,18.9,2021-12-17 17:33:02.671875
275,17.25,2021-12-17 17:33:02.687500
276,15.65,2021-12-17 17:33:02.703125
277,13.92,2021-12-17 17:33:02.718750
278,11.89,2021-12-17 17:33:02.734375
279,9.48,2021-12-17 17:33:02.750000
280,6.68,2021-12-17 17:33:02.765625
281,3.6,2021-12-17 17:33:02.781250
282,0.38,2021-12-17 17:33:02.796875
283,-2.87,2021-12-17 17:33:02.812500
284,-6.05,2021-12-17 17:33:02.828125
285,-9.1,2021-12-17 17:33:02.843750
286,-12.01,2021-12-17 17:33:02.859375
287,-14.83,2021-12-17 17:33:02.875000
288,-17.67,2021-12-17 17:33:02.890625
289,-20.75,2021-12-17 17:33:02.906250
290,-24.28,2021-12-17 17:33:02.921875
291,-28.37,2021-12-17 17:33:02.937500
292,-32.88,2021-12-17 17:33:02.953125
293,-37.38,2021-12-17 17:33:02.968750
294,-41.22,2021-12-17 17:33:02.984375
295,-43.72,2021-12-17 17:33:03.000000
296,-44.4,2021-12-17 17:33:03.015625
297,-43.11,2021-12-17 17:33:03.031250
298,-40.06,2021-12-17 17:33:03.046875
299,-35.69,2021-12-17 17:33:03.062500
300,-30.43,2021-12-17 17:33:03.078125
301,-24.65,2021-12-17 17:33:03.093750
302,-18.51,2021-12-17 17:33:03.109375
303,-12.06,2021-12-17 17:33:03.125000
304,-5.4,2021-12-17 17:33:03.140625
305,1.32,2021-12-17 17:33:03.156250
306,7.82,2021-12-17 17:33:03.171875
307,13.8,2021-12-17 17:33:03.187500
308,19.04,2021-12-17 17:33:03.203125
309,23.49,2021-12-17 17:33:03.218750
310,27.15,2021-12-17 17:33:03.234375
311,30.13,2021-12-17 17:33:03.250000
312,32.45,2021-12-17 17:33:03.265625
313,34.09,2021-12-17 17:33:03.281250
314,35.01,2021-12-17 17:33:03.296875
315,35.24,2021-12-17 17:33:03.312500
316,34.87,2021-12-17 17:33:03.328125
317,34.12,2021-12-17 17:33:03.343750
318,33.22,2021-12-17 17:33:03.359375
319,32.37,2021-12-17 17:33:03.375000
320,31.64,2021-12-17 17:33:03.390625
321,31.0,2021-12-17 17:33:03.406250
322,30.32,2021-12-17 17:33:03.421875
323,29.44,2021-12-17 17:33:03.437500
324,28.26,2021-12-17 17:33:03.453125
325,26.72,2021-12-17 17:33:03.468750
326,24.93,2021-12-17 17:33:03.484375
327,23.03,2021-12-17 17:33:03.500000
328,21.19,2021-12-17 17:33:03.515625
329,19.49,2021-12-17 17:33:03.531250
330,17.87,2021-12-17 17:33:03.546875
331,16.1,2021-12-17 17:33:03.562500
332,13.91,2021-12-17 17:33:03.578125
333,11.08,2021-12-17 17:33:03.593750
334,7.59,2021-12-17 17:33:03.609375
335,3.65,2021-12-17 17:33:03.625000
336,-0.34,2021-12-17 17:33:03.640625
337,-3.99,2021-12-17 17:33:03.656250
338,-7.1,2021-12-17 17:33:03.671875
339,-9.73,2021-12-17 17:33:03.687500
340,-12.28,2021-12-17 17:33:03.703125
341,-15.36,2021-12-17 17:33:03.718750
342,-19.59,2021-12-17 17:33:03.734375
343,-25.53,2021-12-17 17:33:03.750000
344,-33.37,2021-12-17 17:33:03.765625
345,-42.78,2021-12-17 17:33:03.781250
346,-52.78,2021-12-17 17:33:03.796875
347,-61.72,2021-12-17 17:33:03.812500
348,-67.66,2021-12-17 17:33:03.828125
349,-68.87,2021-12-17 17:33:03.843750
350,-64.48,2021-12-17 17:33:03.859375
351,-54.83,2021-12-17 17:33:03.875000
352,-41.46,2021-12-17 17:33:03.890625
353,-26.56,2021-12-17 17:33:03.906250
354,-12.23,2021-12-17 17:33:03.921875
355,0.18,2021-12-17 17:33:03.937500
356,10.25,2021-12-17 17:33:03.953125
357,18.35,2021-12-17 17:33:03.968750
358,25.04,2021-12-17 17:33:03.984375
359,30.74,2021-12-17 17:33:04.000000
360,35.47,2021-12-17 17:33:04.015625
361,39.06,2021-12-17 17:33:04.031250
362,41.37,2021-12-17 17:33:04.046875
363,42.54,2021-12-17 17:33:04.062500
364,42.92,2021-12-17 17:33:04.078125
365,42.92,2021-12-17 17:33:04.093750
366,42.74,2021-12-17 17:33:04.109375
367,42.34,2021-12-17 17:33:04.125000
368,41.47,2021-12-17 17:33:04.140625
369,39.99,2021-12-17 17:33:04.156250
370,37.99,2021-12-17 17:33:04.171875
371,35.92,2021-12-17 17:33:04.187500
372,34.38,2021-12-17 17:33:04.203125
373,33.86,2021-12-17 17:33:04.218750
374,34.48,2021-12-17 17:33:04.234375
375,35.92,2021-12-17 17:33:04.250000
376,37.53,2021-12-17 17:33:04.265625
377,38.63,2021-12-17 17:33:04.281250
378,38.77,2021-12-17 17:33:04.296875
379,37.85,2021-12-17 17:33:04.312500
380,36.05,2021-12-17 17:33:04.328125
381,33.73,2021-12-17 17:33:04.343750
382,31.22,2021-12-17 17:33:04.359375
383,28.71,2021-12-17 17:33:04.375000
384,26.3,2021-12-17 17:33:04.390625
385,23.96,2021-12-17 17:33:04.406250
386,21.6,2021-12-17 17:33:04.421875
387,19.08,2021-12-17 17:33:04.437500
388,16.25,2021-12-17 17:33:04.453125
389,13.02,2021-12-17 17:33:04.468750
390,9.4,2021-12-17 17:33:04.484375
391,5.51,2021-12-17 17:33:04.500000
392,1.57,2021-12-17 17:33:04.515625
393,-2.16,2021-12-17 17:33:04.531250
394,-5.58,2021-12-17 17:33:04.546875
395,-8.65,2021-12-17 17:33:04.562500
396,-11.49,2021-12-17 17:33:04.578125
397,-14.25,2021-12-17 17:33:04.593750
398,-17.05,2021-12-17 17:33:04.609375
399,-20.0,2021-12-17 17:33:04.625000
400,-23.17,2021-12-17 17:33:04.640625
401,-26.69,2021-12-17 17:33:04.656250
402,-30.59,2021-12-17 17:33:04.671875
403,-34.79,2021-12-17 17:33:04.687500
404,-38.92,2021-12-17 17:33:04.703125
405,-42.37,2021-12-17 17:33:04.718750
406,-44.36,2021-12-17 17:33:04.734375
407,-44.31,2021-12-17 17:33:04.750000
408,-42.01,2021-12-17 17:33:04.765625
409,-37.74,2021-12-17 17:33:04.781250
410,-32.11,2021-12-17 17:33:04.796875
411,-25.83,2021-12-17 17:33:04.812500
412,-19.44,2021-12-17 17:33:04.828125
413,-13.16,2021-12-17 17:33:04.843750
414,-6.95,2021-12-17 17:33:04.859375
415,-0.7,2021-12-17 17:33:04.875000
416,5.62,2021-12-17 17:33:04.890625
417,11.84,2021-12-17 17:33:04.906250
418,17.68,2021-12-17 17:33:04.921875
419,22.85,2021-12-17 17:33:04.937500
420,27.22,2021-12-17 17:33:04.953125
421,30.77,2021-12-17 17:33:04.968750
422,33.59,2021-12-17 17:33:04.984375
423,35.78,2021-12-17 17:33:05.000000
424,37.41,2021-12-17 17:33:05.015625
425,38.47,2021-12-17 17:33:05.031250
426,38.97,2021-12-17 17:33:05.046875
427,38.94,2021-12-17 17:33:05.062500
428,38.51,2021-12-17 17:33:05.078125
429,37.79,2021-12-17 17:33:05.093750
430,36.89,2021-12-17 17:33:05.109375
431,35.86,2021-12-17 17:33:05.125000
432,34.67,2021-12-17 17:33:05.140625
433,33.33,2021-12-17 17:33:05.156250
434,31.85,2021-12-17 17:33:05.171875
435,30.32,2021-12-17 17:33:05.187500
436,28.82,2021-12-17 17:33:05.203125
437,27.35,2021-12-17 17:33:05.218750
438,25.86,2021-12-17 17:33:05.234375
439,24.23,2021-12-17 17:33:05.250000
440,22.38,2021-12-17 17:33:05.265625
441,20.29,2021-12-17 17:33:05.281250
442,18.01,2021-12-17 17:33:05.296875
443,15.62,2021-12-17 17:33:05.312500
444,13.17,2021-12-17 17:33:05.328125
445,10.65,2021-12-17 17:33:05.343750
446,8.01,2021-12-17 17:33:05.359375
447,5.23,2021-12-17 17:33:05.375000
448,2.35,2021-12-17 17:33:05.390625
449,-0.53,2021-12-17 17:33:05.406250
450,-3.31,2021-12-17 17:33:05.421875
451,-5.92,2021-12-17 17:33:05.437500
452,-8.37,2021-12-17 17:33:05.453125
453,-10.7,2021-12-17 17:33:05.468750
454,-13.03,2021-12-17 17:33:05.484375
455,-15.54,2021-12-17 17:33:05.500000
456,-18.41,2021-12-17 17:33:05.515625
457,-21.84,2021-12-17 17:33:05.531250
458,-25.88,2021-12-17 17:33:05.546875
459,-30.38,2021-12-17 17:33:05.562500
460,-34.85,2021-12-17 17:33:05.578125
461,-38.59,2021-12-17 17:33:05.593750
462,-40.82,2021-12-17 17:33:05.609375
463,-40.97,2021-12-17 17:33:05.625000
464,-38.85,2021-12-17 17:33:05.640625
465,-34.73,2021-12-17 17:33:05.656250
466,-29.15,2021-12-17 17:33:05.671875
467,-22.76,2021-12-17 17:33:05.687500
468,-16.07,2021-12-17 17:33:05.703125
469,-9.36,2021-12-17 17:33:05.718750
470,-2.77,2021-12-17 17:33:05.734375
471,3.66,2021-12-17 17:33:05.750000
472,9.83,2021-12-17 17:33:05.765625
473,15.54,2021-12-17 17:33:05.781250
474,20.55,2021-12-17 17:33:05.796875
475,24.65,2021-12-17 17:33:05.812500
476,27.78,2021-12-17 17:33:05.828125
477,30.09,2021-12-17 17:33:05.843750
478,31.77,2021-12-17 17:33:05.859375
479,33.05,2021-12-17 17:33:05.875000
480,34.05,2021-12-17 17:33:05.890625
481,34.78,2021-12-17 17:33:05.906250
482,35.24,2021-12-17 17:33:05.921875
483,35.42,2021-12-17 17:33:05.937500
484,35.37,2021-12-17 17:33:05.953125
485,35.18,2021-12-17 17:33:05.968750
486,34.89,2021-12-17 17:33:05.984375
487,34.45,2021-12-17 17:33:06.000000
488,33.75,2021-12-17 17:33:06.015625
489,32.66,2021-12-17 17:33:06.031250
490,31.15,2021-12-17 17:33:06.046875
491,29.31,2021-12-17 17:33:06.062500
492,27.3,2021-12-17 17:33:06.078125
493,25.26,2021-12-17 17:33:06.093750
494,23.29,2021-12-17 17:33:06.109375
495,21.39,2021-12-17 17:33:06.125000
496,19.55,2021-12-17 17:33:06.140625
497,17.72,2021-12-17 17:33:06.156250
498,15.85,2021-12-17 17:33:06.171875
499,13.93,2021-12-17 17:33:06.187500
500,11.92,2021-12-17 17:33:06.203125
501,9.82,2021-12-17 17:33:06.218750
502,7.62,2021-12-17 17:33:06.234375
503,5.31,2021-12-17 17:33:06.250000
504,2.92,2021-12-17 17:33:06.265625
505,0.4,2021-12-17 17:33:06.281250
506,-2.26,2021-12-17 17:33:06.296875
507,-5.08,2021-12-17 17:33:06.312500
508,-8.06,2021-12-17 17:33:06.328125
509,-11.17,2021-12-17 17:33:06.343750
510,-14.36,2021-12-17 17:33:06.359375
511,-17.69,2021-12-17 17:33:06.375000
512,-21.21,2021-12-17 17:33:06.390625
513,-25.02,2021-12-17 17:33:06.406250
514,-29.06,2021-12-17 17:33:06.421875
515,-33.04,2021-12-17 17:33:06.437500
516,-36.44,2021-12-17 17:33:06.453125
517,-38.59,2021-12-17 17:33:06.468750
518,-38.94,2021-12-17 17:33:06.484375
519,-37.21,2021-12-17 17:33:06.500000
520,-33.53,2021-12-17 17:33:06.515625
521,-28.4,2021-12-17 17:33:06.531250
522,-22.48,2021-12-17 17:33:06.546875
523,-16.35,2021-12-17 17:33:06.562500
524,-10.42,2021-12-17 17:33:06.578125
525,-4.83,2021-12-17 17:33:06.593750
526,0.41,2021-12-17 17:33:06.609375
527,5.39,2021-12-17 17:33:06.625000
528,10.15,2021-12-17 17:33:06.640625
529,14.65,2021-12-17 17:33:06.656250
530,18.81,2021-12-17 17:33:06.671875
531,22.52,2021-12-17 17:33:06.687500
532,25.65,2021-12-17 17:33:06.703125
533,28.12,2021-12-17 17:33:06.718750
534,29.92,2021-12-17 17:33:06.734375
535,31.1,2021-12-17 17:33:06.750000
536,31.79,2021-12-17 17:33:06.765625
537,32.11,2021-12-17 17:33:06.781250
538,32.22,2021-12-17 17:33:06.796875
539,32.19,2021-12-17 17:33:06.812500
540,32.06,2021-12-17 17:33:06.828125
541,31.83,2021-12-17 17:33:06.843750
542,31.53,2021-12-17 17:33:06.859375
543,31.2,2021-12-17 17:33:06.875000
544,30.88,2021-12-17 17:33:06.890625
545,30.56,2021-12-17 17:33:06.906250
546,30.12,2021-12-17 17:33:06.921875
547,29.38,2021-12-17 17:33:06.937500
548,28.16,2021-12-17 17:33:06.953125
549,26.43,2021-12-17 17:33:06.968750
550,24.31,2021-12-17 17:33:06.984375
551,22.01,2021-12-17 17:33:07.000000
552,19.76,2021-12-17 17:33:07.015625
553,17.73,2021-12-17 17:33:07.031250
554,15.85,2021-12-17 17:33:07.046875
555,14.01,2021-12-17 17:33:07.062500
556,12.02,2021-12-17 17:33:07.078125
557,9.81,2021-12-17 17:33:07.093750
558,7.39,2021-12-17 17:33:07.109375
559,4.87,2021-12-17 17:33:07.125000
560,2.34,2021-12-17 17:33:07.140625
561,-0.08,2021-12-17 17:33:07.156250
562,-2.4,2021-12-17 17:33:07.171875
563,-4.63,2021-12-17 17:33:07.187500
564,-6.8,2021-12-17 17:33:07.203125
565,-8.97,2021-12-17 17:33:07.218750
566,-11.23,2021-12-17 17:33:07.234375
567,-13.68,2021-12-17 17:33:07.250000
568,-16.45,2021-12-17 17:33:07.265625
569,-19.62,2021-12-17 17:33:07.281250
570,-23.15,2021-12-17 17:33:07.296875
571,-26.73,2021-12-17 17:33:07.312500
572,-29.86,2021-12-17 17:33:07.328125
573,-31.92,2021-12-17 17:33:07.343750
574,-32.37,2021-12-17 17:33:07.359375
575,-30.93,2021-12-17 17:33:07.375000
576,-27.71,2021-12-17 17:33:07.390625
577,-23.14,2021-12-17 17:33:07.406250
578,-17.82,2021-12-17 17:33:07.421875
579,-12.31,2021-12-17 17:33:07.437500
580,-6.99,2021-12-17 17:33:07.453125
581,-2.03,2021-12-17 17:33:07.468750
582,2.52,2021-12-17 17:33:07.484375
583,6.68,2021-12-17 17:33:07.500000
584,10.42,2021-12-17 17:33:07.515625
585,13.67,2021-12-17 17:33:07.531250
586,16.34,2021-12-17 17:33:07.546875
587,18.42,2021-12-17 17:33:07.562500
588,19.95,2021-12-17 17:33:07.578125
589,21.06,2021-12-17 17:33:07.593750
590,21.91,2021-12-17 17:33:07.609375
591,22.62,2021-12-17 17:33:07.625000
592,23.26,2021-12-17 17:33:07.640625
593,23.84,2021-12-17 17:33:07.656250
594,24.29,2021-12-17 17:33:07.671875
595,24.52,2021-12-17 17:33:07.687500
596,24.47,2021-12-17 17:33:07.703125
597,24.14,2021-12-17 17:33:07.718750
598,23.59,2021-12-17 17:33:07.734375
599,22.89,2021-12-17 17:33:07.750000
600,22.1,2021-12-17 17:33:07.765625
601,21.2,2021-12-17 17:33:07.781250
602,20.13,2021-12-17 17:33:07.796875
603,18.83,2021-12-17 17:33:07.812500
604,17.27,2021-12-17 17:33:07.828125
605,15.57,2021-12-17 17:33:07.843750
606,13.88,2021-12-17 17:33:07.859375
607,12.38,2021-12-17 17:33:07.875000
608,11.11,2021-12-17 17:33:07.890625
609,9.97,2021-12-17 17:33:07.906250
610,8.7,2021-12-17 17:33:07.921875
611,7.05,2021-12-17 17:33:07.937500
612,4.97,2021-12-17 17:33:07.953125
613,2.53,2021-12-17 17:33:07.968750
614,-0.01,2021-12-17 17:33:07.984375
615,-2.42,2021-12-17 17:33:08.000000
616,-4.6,2021-12-17 17:33:08.015625
617,-6.66,2021-12-17 17:33:08.031250
618,-8.75,2021-12-17 17:33:08.046875
619,-11.07,2021-12-17 17:33:08.062500
620,-13.65,2021-12-17 17:33:08.078125
621,-16.5,2021-12-17 17:33:08.093750
622,-19.56,2021-12-17 17:33:08.109375
623,-22.74,2021-12-17 17:33:08.125000
624,-25.92,2021-12-17 17:33:08.140625
625,-28.86,2021-12-17 17:33:08.156250
626,-31.16,2021-12-17 17:33:08.171875
627,-32.38,2021-12-17 17:33:08.187500
628,-32.1,2021-12-17 17:33:08.203125
629,-30.18,2021-12-17 17:33:08.218750
630,-26.75,2021-12-17 17:33:08.234375
631,-22.23,2021-12-17 17:33:08.250000
632,-17.13,2021-12-17 17:33:08.265625
633,-11.94,2021-12-17 17:33:08.281250
634,-6.95,2021-12-17 17:33:08.296875
635,-2.33,2021-12-17 17:33:08.312500
636,1.84,2021-12-17 17:33:08.328125
637,5.55,2021-12-17 17:33:08.343750
638,8.75,2021-12-17 17:33:08.359375
639,11.39,2021-12-17 17:33:08.375000
640,13.44,2021-12-17 17:33:08.390625
641,14.93,2021-12-17 17:33:08.406250
642,15.94,2021-12-17 17:33:08.421875
643,16.6,2021-12-17 17:33:08.437500
644,17.07,2021-12-17 17:33:08.453125
645,17.46,2021-12-17 17:33:08.468750
646,17.85,2021-12-17 17:33:08.484375
647,18.22,2021-12-17 17:33:08.500000
648,18.53,2021-12-17 17:33:08.515625
649,18.69,2021-12-17 17:33:08.531250
650,18.68,2021-12-17 17:33:08.546875
651,18.49,2021-12-17 17:33:08.562500
652,18.17,2021-12-17 17:33:08.578125
653,17.75,2021-12-17 17:33:08.593750
654,17.23,2021-12-17 17:33:08.609375
655,16.49,2021-12-17 17:33:08.625000
656,15.4,2021-12-17 17:33:08.640625
657,13.81,2021-12-17 17:33:08.656250
658,11.73,2021-12-17 17:33:08.671875
659,9.27,2021-12-17 17:33:08.687500
660,6.66,2021-12-17 17:33:08.703125
661,4.13,2021-12-17 17:33:08.718750
662,1.81,2021-12-17 17:33:08.734375
663,-0.32,2021-12-17 17:33:08.750000
664,-2.41,2021-12-17 17:33:08.765625
665,-4.58,2021-12-17 17:33:08.781250
666,-6.91,2021-12-17 17:33:08.796875
667,-9.31,2021-12-17 17:33:08.812500
668,-11.6,2021-12-17 17:33:08.828125
669,-13.62,2021-12-17 17:33:08.843750
670,-15.36,2021-12-17 17:33:08.859375
671,-16.98,2021-12-17 17:33:08.875000
672,-18.75,2021-12-17 17:33:08.890625
673,-20.92,2021-12-17 17:33:08.906250
674,-23.59,2021-12-17 17:33:08.921875
675,-26.58,2021-12-17 17:33:08.937500
676,-29.49,2021-12-17 17:33:08.953125
677,-31.81,2021-12-17 17:33:08.968750
678,-33.07,2021-12-17 17:33:08.984375
679,-33.01,2021-12-17 17:33:09.000000
680,-31.6,2021-12-17 17:33:09.015625
681,-29.06,2021-12-17 17:33:09.031250
682,-25.68,2021-12-17 17:33:09.046875
683,-21.82,2021-12-17 17:33:09.062500
684,-17.72,2021-12-17 17:33:09.078125
685,-13.56,2021-12-17 17:33:09.093750
686,-9.43,2021-12-17 17:33:09.109375
687,-5.37,2021-12-17 17:33:09.125000
688,-1.41,2021-12-17 17:33:09.140625
689,2.41,2021-12-17 17:33:09.156250
690,6.03,2021-12-17 17:33:09.171875
691,9.38,2021-12-17 17:33:09.187500
692,12.37,2021-12-17 17:33:09.203125
693,14.96,2021-12-17 17:33:09.218750
694,17.14,2021-12-17 17:33:09.234375
695,18.97,2021-12-17 17:33:09.250000
696,20.5,2021-12-17 17:33:09.265625
697,21.75,2021-12-17 17:33:09.281250
698,22.7,2021-12-17 17:33:09.296875
699,23.29,2021-12-17 17:33:09.312500
700,23.44,2021-12-17 17:33:09.328125
701,23.17,2021-12-17 17:33:09.343750
702,22.57,2021-12-17 17:33:09.359375
703,21.8,2021-12-17 17:33:09.375000
704,20.98,2021-12-17 17:33:09.390625
705,20.14,2021-12-17 17:33:09.406250
706,19.27,2021-12-17 17:33:09.421875
707,18.27,2021-12-17 17:33:09.437500
708,17.12,2021-12-17 17:33:09.453125
709,15.81,2021-12-17 17:33:09.468750
710,14.39,2021-12-17 17:33:09.484375
711,12.95,2021-12-17 17:33:09.500000
712,11.51,2021-12-17 17:33:09.515625
713,10.05,2021-12-17 17:33:09.531250
714,8.55,2021-12-17 17:33:09.546875
715,6.92,2021-12-17 17:33:09.562500
716,5.15,2021-12-17 17:33:09.578125
717,3.27,2021-12-17 17:33:09.593750
718,1.34,2021-12-17 17:33:09.609375
719,-0.52,2021-12-17 17:33:09.625000
720,-2.25,2021-12-17 17:33:09.640625
721,-3.84,2021-12-17 17:33:09.656250
722,-5.34,2021-12-17 17:33:09.671875
723,-6.93,2021-12-17 17:33:09.687500
724,-8.71,2021-12-17 17:33:09.703125
725,-10.77,2021-12-17 17:33:09.718750
726,-13.12,2021-12-17 17:33:09.734375
727,-15.69,2021-12-17 17:33:09.750000
728,-18.44,2021-12-17 17:33:09.765625
729,-21.26,2021-12-17 17:33:09.781250
730,-24.07,2021-12-17 17:33:09.796875
731,-26.62,2021-12-17 17:33:09.812500
732,-28.63,2021-12-17 17:33:09.828125
733,-29.74,2021-12-17 17:33:09.843750
734,-29.7,2021-12-17 17:33:09.859375
735,-28.36,2021-12-17 17:33:09.875000
736,-25.86,2021-12-17 17:33:09.890625
737,-22.46,2021-12-17 17:33:09.906250
738,-18.51,2021-12-17 17:33:09.921875
739,-14.32,2021-12-17 17:33:09.937500
740,-10.1,2021-12-17 17:33:09.953125
741,-5.97,2021-12-17 17:33:09.968750
742,-1.98,2021-12-17 17:33:09.984375
743,1.83,2021-12-17 17:33:10.000000
744,5.4,2021-12-17 17:33:10.015625
745,8.7,2021-12-17 17:33:10.031250
746,11.76,2021-12-17 17:33:10.046875
747,14.57,2021-12-17 17:33:10.062500
748,17.13,2021-12-17 17:33:10.078125
749,19.38,2021-12-17 17:33:10.093750
750,21.18,2021-12-17 17:33:10.109375
751,22.38,2021-12-17 17:33:10.125000
752,22.95,2021-12-17 17:33:10.140625
753,22.98,2021-12-17 17:33:10.156250
754,22.69,2021-12-17 17:33:10.171875
755,22.37,2021-12-17 17:33:10.187500
756,22.23,2021-12-17 17:33:10.203125
757,22.33,2021-12-17 17:33:10.218750
758,22.56,2021-12-17 17:33:10.234375
759,22.74,2021-12-17 17:33:10.250000
760,22.69,2021-12-17 17:33:10.265625
761,22.29,2021-12-17 17:33:10.281250
762,21.47,2021-12-17 17:33:10.296875
763,20.23,2021-12-17 17:33:10.312500
764,18.56,2021-12-17 17:33:10.328125
765,16.52,2021-12-17 17:33:10.343750
766,14.29,2021-12-17 17:33:10.359375
767,12.07,2021-12-17 17:33:10.375000
768,10.1,2021-12-17 17:33:10.390625
769,8.5,2021-12-17 17:33:10.406250
770,7.21,2021-12-17 17:33:10.421875
771,6.05,2021-12-17 17:33:10.437500
772,4.78,2021-12-17 17:33:10.453125
773,3.26,2021-12-17 17:33:10.468750
774,1.46,2021-12-17 17:33:10.484375
775,-0.5,2021-12-17 17:33:10.500000
776,-2.48,2021-12-17 17:33:10.515625
777,-4.35,2021-12-17 17:33:10.531250
778,-6.09,2021-12-17 17:33:10.546875
779,-7.73,2021-12-17 17:33:10.562500
780,-9.3,2021-12-17 17:33:10.578125
781,-10.87,2021-12-17 17:33:10.593750
782,-12.48,2021-12-17 17:33:10.609375
783,-14.24,2021-12-17 17:33:10.625000
784,-16.27,2021-12-17 17:33:10.640625
785,-18.7,2021-12-17 17:33:10.656250
786,-21.51,2021-12-17 17:33:10.671875
787,-24.49,2021-12-17 17:33:10.687500
788,-27.2,2021-12-17 17:33:10.703125
789,-29.11,2021-12-17 17:33:10.718750
790,-29.75,2021-12-17 17:33:10.734375
791,-28.9,2021-12-17 17:33:10.750000
792,-26.64,2021-12-17 17:33:10.765625
793,-23.3,2021-12-17 17:33:10.781250
794,-19.31,2021-12-17 17:33:10.796875
795,-15.06,2021-12-17 17:33:10.812500
796,-10.85,2021-12-17 17:33:10.828125
797,-6.84,2021-12-17 17:33:10.843750
798,-3.13,2021-12-17 17:33:10.859375
799,0.23,2021-12-17 17:33:10.875000
800,3.27,2021-12-17 17:33:10.890625
801,6.04,2021-12-17 17:33:10.906250
802,8.61,2021-12-17 17:33:10.921875
803,11.03,2021-12-17 17:33:10.937500
804,13.26,2021-12-17 17:33:10.953125
805,15.14,2021-12-17 17:33:10.968750
806,16.54,2021-12-17 17:33:10.984375
807,17.35,2021-12-17 17:33:11.000000
808,17.61,2021-12-17 17:33:11.015625
809,17.49,2021-12-17 17:33:11.031250
810,17.2,2021-12-17 17:33:11.046875
811,16.9,2021-12-17 17:33:11.062500
812,16.71,2021-12-17 17:33:11.078125
813,16.6,2021-12-17 17:33:11.093750
814,16.52,2021-12-17 17:33:11.109375
815,16.37,2021-12-17 17:33:11.125000
816,16.11,2021-12-17 17:33:11.140625
817,15.72,2021-12-17 17:33:11.156250
818,15.2,2021-12-17 17:33:11.171875
819,14.56,2021-12-17 17:33:11.187500
820,13.79,2021-12-17 17:33:11.203125
821,12.88,2021-12-17 17:33:11.218750
822,11.82,2021-12-17 17:33:11.234375
823,10.63,2021-12-17 17:33:11.250000
824,9.37,2021-12-17 17:33:11.265625
825,8.1,2021-12-17 17:33:11.281250
826,6.83,2021-12-17 17:33:11.296875
827,5.58,2021-12-17 17:33:11.312500
828,4.31,2021-12-17 17:33:11.328125
829,2.98,2021-12-17 17:33:11.343750
830,1.6,2021-12-17 17:33:11.359375
831,0.19,2021-12-17 17:33:11.375000
832,-1.24,2021-12-17 17:33:11.390625
833,-2.65,2021-12-17 17:33:11.406250
834,-4.05,2021-12-17 17:33:11.421875
835,-5.39,2021-12-17 17:33:11.437500
836,-6.64,2021-12-17 17:33:11.453125
837,-7.78,2021-12-17 17:33:11.468750
838,-8.83,2021-12-17 17:33:11.484375
839,-9.87,2021-12-17 17:33:11.500000
840,-11.08,2021-12-17 17:33:11.515625
841,-12.62,2021-12-17 17:33:11.531250
842,-14.61,2021-12-17 17:33:11.546875
843,-16.99,2021-12-17 17:33:11.562500
844,-19.52,2021-12-17 17:33:11.578125
845,-21.8,2021-12-17 17:33:11.593750
846,-23.37,2021-12-17 17:33:11.609375
847,-23.86,2021-12-17 17:33:11.625000
848,-23.08,2021-12-17 17:33:11.640625
849,-21.11,2021-12-17 17:33:11.656250
850,-18.26,2021-12-17 17:33:11.671875
851,-14.94,2021-12-17 17:33:11.687500
852,-11.49,2021-12-17 17:33:11.703125
853,-8.12,2021-12-17 17:33:11.718750
854,-4.85,2021-12-17 17:33:11.734375
855,-1.61,2021-12-17 17:33:11.750000
856,1.62,2021-12-17 17:33:11.765625
857,4.76,2021-12-17 17:33:11.781250
858,7.63,2021-12-17 17:33:11.796875
859,10.01,2021-12-17 17:33:11.812500
860,11.8,2021-12-17 17:33:11.828125
861,13.04,2021-12-17 17:33:11.843750
862,13.9,2021-12-17 17:33:11.859375
863,14.55,2021-12-17 17:33:11.875000
864,15.09,2021-12-17 17:33:11.890625
865,15.53,2021-12-17 17:33:11.906250
866,15.83,2021-12-17 17:33:11.921875
867,15.96,2021-12-17 17:33:11.937500
868,15.96,2021-12-17 17:33:11.953125
869,15.92,2021-12-17 17:33:11.968750
870,15.93,2021-12-17 17:33:11.984375
871,15.97,2021-12-17 17:33:12.000000
872,15.97,2021-12-17 17:33:12.015625
873,15.83,2021-12-17 17:33:12.031250
874,15.47,2021-12-17 17:33:12.046875
875,14.93,2021-12-17 17:33:12.062500
876,14.29,2021-12-17 17:33:12.078125
877,13.61,2021-12-17 17:33:12.093750
878,12.92,2021-12-17 17:33:12.109375
879,12.19,2021-12-17 17:33:12.125000
880,11.36,2021-12-17 17:33:12.140625
881,10.37,2021-12-17 17:33:12.156250
882,9.25,2021-12-17 17:33:12.171875
883,8.05,2021-12-17 17:33:12.187500
884,6.85,2021-12-17 17:33:12.203125
885,5.73,2021-12-17 17:33:12.218750
886,4.72,2021-12-17 17:33:12.234375
887,3.78,2021-12-17 17:33:12.250000
888,2.8,2021-12-17 17:33:12.265625
889,1.65,2021-12-17 17:33:12.281250
890,0.23,2021-12-17 17:33:12.296875
891,-1.46,2021-12-17 17:33:12.312500
892,-3.34,2021-12-17 17:33:12.328125
893,-5.24,2021-12-17 17:33:12.343750
894,-6.97,2021-12-17 17:33:12.359375
895,-8.39,2021-12-17 17:33:12.375000
896,-9.46,2021-12-17 17:33:12.390625
897,-10.3,2021-12-17 17:33:12.406250
898,-11.13,2021-12-17 17:33:12.421875
899,-12.2,2021-12-17 17:33:12.437500
900,-13.7,2021-12-17 17:33:12.453125
901,-15.63,2021-12-17 17:33:12.468750
902,-17.77,2021-12-17 17:33:12.484375
903,-19.71,2021-12-17 17:33:12.500000
904,-20.96,2021-12-17 17:33:12.515625
905,-21.18,2021-12-17 17:33:12.531250
906,-20.24,2021-12-17 17:33:12.546875
907,-18.29,2021-12-17 17:33:12.562500
908,-15.6,2021-12-17 17:33:12.578125
909,-12.51,2021-12-17 17:33:12.593750
910,-9.28,2021-12-17 17:33:12.609375
911,-6.07,2021-12-17 17:33:12.625000
912,-3.03,2021-12-17 17:33:12.640625
913,-0.27,2021-12-17 17:33:12.656250
914,2.13,2021-12-17 17:33:12.671875
915,4.14,2021-12-17 17:33:12.687500
916,5.83,2021-12-17 17:33:12.703125
917,7.28,2021-12-17 17:33:12.718750
918,8.6,2021-12-17 17:33:12.734375
919,9.79,2021-12-17 17:33:12.750000
920,10.8,2021-12-17 17:33:12.765625
921,11.6,2021-12-17 17:33:12.781250
922,12.16,2021-12-17 17:33:12.796875
923,12.56,2021-12-17 17:33:12.812500
924,12.86,2021-12-17 17:33:12.828125
925,13.08,2021-12-17 17:33:12.843750
926,13.18,2021-12-17 17:33:12.859375
927,13.08,2021-12-17 17:33:12.875000
928,12.72,2021-12-17 17:33:12.890625
929,12.15,2021-12-17 17:33:12.906250
930,11.47,2021-12-17 17:33:12.921875
931,10.84,2021-12-17 17:33:12.937500
932,10.32,2021-12-17 17:33:12.953125
933,9.95,2021-12-17 17:33:12.968750
934,9.67,2021-12-17 17:33:12.984375
935,9.39,2021-12-17 17:33:13.000000
936,9.04,2021-12-17 17:33:13.015625
937,8.55,2021-12-17 17:33:13.031250
938,7.9,2021-12-17 17:33:13.046875
939,7.1,2021-12-17 17:33:13.062500
940,6.16,2021-12-17 17:33:13.078125
941,5.17,2021-12-17 17:33:13.093750
942,4.22,2021-12-17 17:33:13.109375
943,3.36,2021-12-17 17:33:13.125000
944,2.58,2021-12-17 17:33:13.140625
945,1.78,2021-12-17 17:33:13.156250
946,0.84,2021-12-17 17:33:13.171875
947,-0.32,2021-12-17 17:33:13.187500
948,-1.72,2021-12-17 17:33:13.203125
949,-3.19,2021-12-17 17:33:13.218750
950,-4.56,2021-12-17 17:33:13.234375
951,-5.7,2021-12-17 17:33:13.250000
952,-6.61,2021-12-17 17:33:13.265625
953,-7.39,2021-12-17 17:33:13.281250
954,-8.25,2021-12-17 17:33:13.296875
955,-9.34,2021-12-17 17:33:13.312500
956,-10.71,2021-12-17 17:33:13.328125
957,-12.33,2021-12-17 17:33:13.343750
958,-14.02,2021-12-17 17:33:13.359375
959,-15.59,2021-12-17 17:33:13.375000
960,-16.83,2021-12-17 17:33:13.390625
961,-17.55,2021-12-17 17:33:13.406250
962,-17.6,2021-12-17 17:33:13.421875
963,-16.88,2021-12-17 17:33:13.437500
964,-15.43,2021-12-17 17:33:13.453125
965,-13.34,2021-12-17 17:33:13.468750
966,-10.77,2021-12-17 17:33:13.484375
967,-7.92,2021-12-17 17:33:13.500000
968,-4.96,2021-12-17 17:33:13.515625
969,-2.01,2021-12-17 17:33:13.531250
970,0.77,2021-12-17 17:33:13.546875
971,3.26,2021-12-17 17:33:13.562500
972,5.33,2021-12-17 17:33:13.578125
973,6.87,2021-12-17 17:33:13.593750
974,7.86,2021-12-17 17:33:13.609375
975,8.34,2021-12-17 17:33:13.625000
976,8.47,2021-12-17 17:33:13.640625
977,8.41,2021-12-17 17:33:13.656250
978,8.35,2021-12-17 17:33:13.671875
979,8.38,2021-12-17 17:33:13.687500
980,8.57,2021-12-17 17:33:13.703125
981,8.86,2021-12-17 17:33:13.718750
982,9.18,2021-12-17 17:33:13.734375
983,9.42,2021-12-17 17:33:13.750000
984,9.49,2021-12-17 17:33:13.765625
985,9.36,2021-12-17 17:33:13.781250
986,9.08,2021-12-17 17:33:13.796875
987,8.73,2021-12-17 17:33:13.812500
988,8.4,2021-12-17 17:33:13.828125
989,8.16,2021-12-17 17:33:13.843750
990,7.99,2021-12-17 17:33:13.859375
991,7.87,2021-12-17 17:33:13.875000
992,7.73,2021-12-17 17:33:13.890625
993,7.53,2021-12-17 17:33:13.906250
994,7.21,2021-12-17 17:33:13.921875
995,6.73,2021-12-17 17:33:13.937500
996,6.06,2021-12-17 17:33:13.953125
997,5.21,2021-12-17 17:33:13.968750
998,4.21,2021-12-17 17:33:13.984375
999,3.14,2021-12-17 17:33:14.000000
1000,2.08,2021-12-17 17:33:14.015625
1001,1.05,2021-12-17 17:33:14.031250
1002,0.05,2021-12-17 17:33:14.046875
1003,-1.04,2021-12-17 17:33:14.062500
1004,-2.28,2021-12-17 17:33:14.078125
1005,-3.71,2021-12-17 17:33:14.093750
1006,-5.21,2021-12-17 17:33:14.109375
1007,-6.6,2021-12-17 17:33:14.125000
1008,-7.65,2021-12-17 17:33:14.140625
1009,-8.26,2021-12-17 17:33:14.156250
1010,-8.48,2021-12-17 17:33:14.171875
1011,-8.6,2021-12-17 17:33:14.187500
1012,-8.97,2021-12-17 17:33:14.203125
1013,-9.81,2021-12-17 17:33:14.218750
1014,-11.21,2021-12-17 17:33:14.234375
1015,-12.94,2021-12-17 17:33:14.250000
1016,-14.6,2021-12-17 17:33:14.265625
1017,-15.78,2021-12-17 17:33:14.281250
1018,-16.19,2021-12-17 17:33:14.296875
1019,-15.69,2021-12-17 17:33:14.312500
1020,-14.34,2021-12-17 17:33:14.328125
1021,-12.29,2021-12-17 17:33:14.343750
1022,-9.68,2021-12-17 17:33:14.359375
1023,-6.72,2021-12-17 17:33:14.375000
1024,-3.6,2021-12-17 17:33:14.390625
1025,-0.54,2021-12-17 17:33:14.406250
1026,2.24,2021-12-17 17:33:14.421875
1027,4.63,2021-12-17 17:33:14.437500
1028,6.64,2021-12-17 17:33:14.453125
1029,8.33,2021-12-17 17:33:14.468750
1030,9.8,2021-12-17 17:33:14.484375
1031,11.08,2021-12-17 17:33:14.500000
1032,12.13,2021-12-17 17:33:14.515625
1033,12.82,2021-12-17 17:33:14.531250
1034,13.13,2021-12-17 17:33:14.546875
1035,13.09,2021-12-17 17:33:14.562500
1036,12.79,2021-12-17 17:33:14.578125
1037,12.37,2021-12-17 17:33:14.593750
1038,11.88,2021-12-17 17:33:14.609375
1039,11.34,2021-12-17 17:33:14.625000
1040,10.75,2021-12-17 17:33:14.640625
1041,10.09,2021-12-17 17:33:14.656250
1042,9.42,2021-12-17 17:33:14.671875
1043,8.8,2021-12-17 17:33:14.687500
1044,8.25,2021-12-17 17:33:14.703125
1045,7.75,2021-12-17 17:33:14.718750
1046,7.24,2021-12-17 17:33:14.734375
1047,6.63,2021-12-17 17:33:14.750000
1048,5.88,2021-12-17 17:33:14.765625
1049,4.94,2021-12-17 17:33:14.781250
1050,3.86,2021-12-17 17:33:14.796875
1051,2.72,2021-12-17 17:33:14.812500
1052,1.65,2021-12-17 17:33:14.828125
1053,0.78,2021-12-17 17:33:14.843750
1054,0.17,2021-12-17 17:33:14.859375
1055,-0.21,2021-12-17 17:33:14.875000
1056,-0.48,2021-12-17 17:33:14.890625
1057,-0.81,2021-12-17 17:33:14.906250
1058,-1.37,2021-12-17 17:33:14.921875
1059,-2.23,2021-12-17 17:33:14.937500
1060,-3.32,2021-12-17 17:33:14.953125
1061,-4.52,2021-12-17 17:33:14.968750
1062,-5.71,2021-12-17 17:33:14.984375
1063,-6.82,2021-12-17 17:33:15.000000
1064,-7.83,2021-12-17 17:33:15.015625
1065,-8.76,2021-12-17 17:33:15.031250
1066,-9.61,2021-12-17 17:33:15.046875
1067,-10.4,2021-12-17 17:33:15.062500
1068,-11.17,2021-12-17 17:33:15.078125
1069,-12.0,2021-12-17 17:33:15.093750
1070,-12.95,2021-12-17 17:33:15.109375
1071,-14.04,2021-12-17 17:33:15.125000
1072,-15.17,2021-12-17 17:33:15.140625
1073,-16.15,2021-12-17 17:33:15.156250
1074,-16.74,2021-12-17 17:33:15.171875
1075,-16.76,2021-12-17 17:33:15.187500
1076,-16.11,2021-12-17 17:33:15.203125
1077,-14.8,2021-12-17 17:33:15.218750
1078,-12.89,2021-12-17 17:33:15.234375
1079,-10.49,2021-12-17 17:33:15.250000
1080,-7.68,2021-12-17 17:33:15.265625
1081,-4.59,2021-12-17 17:33:15.281250
1082,-1.4,2021-12-17 17:33:15.296875
1083,1.67,2021-12-17 17:33:15.312500
1084,4.41,2021-12-17 17:33:15.328125
1085,6.65,2021-12-17 17:33:15.343750
1086,8.29,2021-12-17 17:33:15.359375
1087,9.32,2021-12-17 17:33:15.375000
1088,9.8,2021-12-17 17:33:15.390625
1089,9.84,2021-12-17 17:33:15.406250
1090,9.62,2021-12-17 17:33:15.421875
1091,9.34,2021-12-17 17:33:15.437500
1092,9.16,2021-12-17 17:33:15.453125
1093,9.18,2021-12-17 17:33:15.468750
1094,9.38,2021-12-17 17:33:15.484375
1095,9.63,2021-12-17 17:33:15.500000
1096,9.79,2021-12-17 17:33:15.515625
1097,9.75,2021-12-17 17:33:15.531250
1098,9.48,2021-12-17 17:33:15.546875
1099,9.02,2021-12-17 17:33:15.562500
1100,8.42,2021-12-17 17:33:15.578125
1101,7.72,2021-12-17 17:33:15.593750
1102,6.97,2021-12-17 17:33:15.609375
1103,6.21,2021-12-17 17:33:15.625000
1104,5.48,2021-12-17 17:33:15.640625
1105,4.78,2021-12-17 17:33:15.656250
1106,4.06,2021-12-17 17:33:15.671875
1107,3.25,2021-12-17 17:33:15.687500
1108,2.31,2021-12-17 17:33:15.703125
1109,1.27,2021-12-17 17:33:15.718750
1110,0.25,2021-12-17 17:33:15.734375
1111,-0.67,2021-12-17 17:33:15.750000
1112,-1.44,2021-12-17 17:33:15.765625
1113,-2.14,2021-12-17 17:33:15.781250
1114,-2.93,2021-12-17 17:33:15.796875
1115,-3.92,2021-12-17 17:33:15.812500
1116,-5.15,2021-12-17 17:33:15.828125
1117,-6.5,2021-12-17 17:33:15.843750
1118,-7.81,2021-12-17 17:33:15.859375
1119,-8.94,2021-12-17 17:33:15.875000
1120,-9.84,2021-12-17 17:33:15.890625
1121,-10.51,2021-12-17 17:33:15.906250
1122,-11.03,2021-12-17 17:33:15.921875
1123,-11.47,2021-12-17 17:33:15.937500
1124,-11.91,2021-12-17 17:33:15.953125
1125,-12.45,2021-12-17 17:33:15.968750
1126,-13.2,2021-12-17 17:33:15.984375
1127,-14.24,2021-12-17 17:33:16.000000
1128,-15.53,2021-12-17 17:33:16.015625
1129,-16.91,2021-12-17 17:33:16.031250
1130,-18.07,2021-12-17 17:33:16.046875
1131,-18.64,2021-12-17 17:33:16.062500
1132,-18.35,2021-12-17 17:33:16.078125
1133,-17.05,2021-12-17 17:33:16.093750
1134,-14.81,2021-12-17 17:33:16.109375
1135,-11.85,2021-12-17 17:33:16.125000
1136,-8.53,2021-12-17 17:33:16.140625
1137,-5.19,2021-12-17 17:33:16.156250
1138,-2.12,2021-12-17 17:33:16.171875
1139,0.51,2021-12-17 17:33:16.187500
1140,2.69,2021-12-17 17:33:16.203125
1141,4.49,2021-12-17 17:33:16.218750
1142,6.02,2021-12-17 17:33:16.234375
1143,7.31,2021-12-17 17:33:16.250000
1144,8.37,2021-12-17 17:33:16.265625
1145,9.12,2021-12-17 17:33:16.281250
1146,9.51,2021-12-17 17:33:16.296875
1147,9.57,2021-12-17 17:33:16.312500
1148,9.41,2021-12-17 17:33:16.328125
1149,9.21,2021-12-17 17:33:16.343750
1150,9.09,2021-12-17 17:33:16.359375
1151,9.08,2021-12-17 17:33:16.375000
1152,9.09,2021-12-17 17:33:16.390625
1153,8.96,2021-12-17 17:33:16.406250
1154,8.62,2021-12-17 17:33:16.421875
1155,8.08,2021-12-17 17:33:16.437500
1156,7.46,2021-12-17 17:33:16.453125
1157,6.86,2021-12-17 17:33:16.468750
1158,6.35,2021-12-17 17:33:16.484375
1159,5.85,2021-12-17 17:33:16.500000
1160,5.26,2021-12-17 17:33:16.515625
1161,4.48,2021-12-17 17:33:16.531250
1162,3.53,2021-12-17 17:33:16.546875
1163,2.48,2021-12-17 17:33:16.562500
1164,1.45,2021-12-17 17:33:16.578125
1165,0.53,2021-12-17 17:33:16.593750
1166,-0.29,2021-12-17 17:33:16.609375
1167,-1.06,2021-12-17 17:33:16.625000
1168,-1.87,2021-12-17 17:33:16.640625
1169,-2.73,2021-12-17 17:33:16.656250
1170,-3.65,2021-12-17 17:33:16.671875
1171,-4.56,2021-12-17 17:33:16.687500
1172,-5.42,2021-12-17 17:33:16.703125
1173,-6.2,2021-12-17 17:33:16.718750
1174,-6.9,2021-12-17 17:33:16.734375
1175,-7.52,2021-12-17 17:33:16.750000
1176,-8.05,2021-12-17 17:33:16.765625
1177,-8.5,2021-12-17 17:33:16.781250
1178,-8.89,2021-12-17 17:33:16.796875
1179,-9.31,2021-12-17 17:33:16.812500
1180,-9.84,2021-12-17 17:33:16.828125
1181,-10.61,2021-12-17 17:33:16.843750
1182,-11.65,2021-12-17 17:33:16.859375
1183,-12.9,2021-12-17 17:33:16.875000
1184,-14.21,2021-12-17 17:33:16.890625
1185,-15.29,2021-12-17 17:33:16.906250
1186,-15.88,2021-12-17 17:33:16.921875
1187,-15.76,2021-12-17 17:33:16.937500
1188,-14.84,2021-12-17 17:33:16.953125
1189,-13.14,2021-12-17 17:33:16.968750
1190,-10.78,2021-12-17 17:33:16.984375
1191,-7.92,2021-12-17 17:33:17.000000
1192,-4.71,2021-12-17 17:33:17.015625
1193,-1.34,2021-12-17 17:33:17.031250
1194,2.04,2021-12-17 17:33:17.046875
1195,5.27,2021-12-17 17:33:17.062500
1196,8.18,2021-12-17 17:33:17.078125
1197,10.64,2021-12-17 17:33:17.093750
1198,12.52,2021-12-17 17:33:17.109375
1199,13.73,2021-12-17 17:33:17.125000
1200,14.27,2021-12-17 17:33:17.140625
1201,14.23,2021-12-17 17:33:17.156250
1202,13.8,2021-12-17 17:33:17.171875
1203,13.24,2021-12-17 17:33:17.187500
1204,12.8,2021-12-17 17:33:17.203125
1205,12.64,2021-12-17 17:33:17.218750
1206,12.75,2021-12-17 17:33:17.234375
1207,12.97,2021-12-17 17:33:17.250000
1208,13.06,2021-12-17 17:33:17.265625
1209,12.82,2021-12-17 17:33:17.281250
1210,12.19,2021-12-17 17:33:17.296875
1211,11.23,2021-12-17 17:33:17.312500
1212,10.1,2021-12-17 17:33:17.328125
1213,8.97,2021-12-17 17:33:17.343750
1214,7.9,2021-12-17 17:33:17.359375
1215,6.86,2021-12-17 17:33:17.375000
1216,5.73,2021-12-17 17:33:17.390625
1217,4.43,2021-12-17 17:33:17.406250
1218,3.01,2021-12-17 17:33:17.421875
1219,1.59,2021-12-17 17:33:17.437500
1220,0.37,2021-12-17 17:33:17.453125
1221,-0.51,2021-12-17 17:33:17.468750
1222,-1.0,2021-12-17 17:33:17.484375
1223,-1.24,2021-12-17 17:33:17.500000
1224,-1.4,2021-12-17 17:33:17.515625
1225,-1.7,2021-12-17 17:33:17.531250
1226,-2.25,2021-12-17 17:33:17.546875
1227,-3.08,2021-12-17 17:33:17.562500
1228,-4.13,2021-12-17 17:33:17.578125
1229,-5.3,2021-12-17 17:33:17.593750
1230,-6.5,2021-12-17 17:33:17.609375
1231,-7.65,2021-12-17 17:33:17.625000
1232,-8.73,2021-12-17 17:33:17.640625
1233,-9.76,2021-12-17 17:33:17.656250
1234,-10.79,2021-12-17 17:33:17.671875
1235,-11.94,2021-12-17 17:33:17.687500
1236,-13.31,2021-12-17 17:33:17.703125
1237,-14.94,2021-12-17 17:33:17.718750
1238,-16.76,2021-12-17 17:33:17.734375
1239,-18.54,2021-12-17 17:33:17.750000
1240,-19.96,2021-12-17 17:33:17.765625
1241,-20.73,2021-12-17 17:33:17.781250
1242,-20.65,2021-12-17 17:33:17.796875
1243,-19.75,2021-12-17 17:33:17.812500
1244,-18.21,2021-12-17 17:33:17.828125
1245,-16.28,2021-12-17 17:33:17.843750
1246,-14.15,2021-12-17 17:33:17.859375
1247,-11.88,2021-12-17 17:33:17.875000
1248,-9.48,2021-12-17 17:33:17.890625
1249,-6.98,2021-12-17 17:33:17.906250
1250,-4.46,2021-12-17 17:33:17.921875
1251,-2.1,2021-12-17 17:33:17.937500
1252,-0.06,2021-12-17 17:33:17.953125
1253,1.55,2021-12-17 17:33:17.968750
1254,2.75,2021-12-17 17:33:17.984375
1255,3.62,2021-12-17 17:33:18.000000
1256,4.24,2021-12-17 17:33:18.015625
1257,4.65,2021-12-17 17:33:18.031250
1258,4.83,2021-12-17 17:33:18.046875
1259,4.78,2021-12-17 17:33:18.062500
1260,4.55,2021-12-17 17:33:18.078125
1261,4.24,2021-12-17 17:33:18.093750
1262,3.94,2021-12-17 17:33:18.109375
1263,3.73,2021-12-17 17:33:18.125000
1264,3.57,2021-12-17 17:33:18.140625
1265,3.33,2021-12-17 17:33:18.156250
1266,2.9,2021-12-17 17:33:18.171875
1267,2.16,2021-12-17 17:33:18.187500
1268,1.13,2021-12-17 17:33:18.203125
1269,-0.09,2021-12-17 17:33:18.218750
1270,-1.33,2021-12-17 17:33:18.234375
1271,-2.47,2021-12-17 17:33:18.250000
1272,-3.41,2021-12-17 17:33:18.265625
1273,-4.18,2021-12-17 17:33:18.281250
1274,-4.83,2021-12-17 17:33:18.296875
1275,-5.42,2021-12-17 17:33:18.312500
1276,-5.99,2021-12-17 17:33:18.328125
1277,-6.5,2021-12-17 17:33:18.343750
1278,-6.92,2021-12-17 17:33:18.359375
1279,-7.26,2021-12-17 17:33:18.375000
1280,-7.57,2021-12-17 17:33:18.390625
1281,-7.93,2021-12-17 17:33:18.406250
1282,-8.38,2021-12-17 17:33:18.421875
1283,-8.86,2021-12-17 17:33:18.437500
1284,-9.25,2021-12-17 17:33:18.453125
1285,-9.44,2021-12-17 17:33:18.468750
1286,-9.37,2021-12-17 17:33:18.484375
1287,-9.15,2021-12-17 17:33:18.500000
1288,-9.01,2021-12-17 17:33:18.515625
1289,-9.21,2021-12-17 17:33:18.531250
1290,-9.98,2021-12-17 17:33:18.546875
1291,-11.34,2021-12-17 17:33:18.562500
1292,-13.07,2021-12-17 17:33:18.578125
1293,-14.81,2021-12-17 17:33:18.593750
1294,-16.1,2021-12-17 17:33:18.609375
1295,-16.59,2021-12-17 17:33:18.625000
1296,-16.08,2021-12-17 17:33:18.640625
1297,-14.64,2021-12-17 17:33:18.656250
1298,-12.5,2021-12-17 17:33:18.671875
1299,-9.98,2021-12-17 17:33:18.687500
1300,-7.35,2021-12-17 17:33:18.703125
1301,-4.81,2021-12-17 17:33:18.718750
1302,-2.35,2021-12-17 17:33:18.734375
1303,0.11,2021-12-17 17:33:18.750000
1304,2.68,2021-12-17 17:33:18.765625
1305,5.4,2021-12-17 17:33:18.781250
1306,8.17,2021-12-17 17:33:18.796875
1307,10.77,2021-12-17 17:33:18.812500
1308,12.9,2021-12-17 17:33:18.828125
1309,14.31,2021-12-17 17:33:18.843750
1310,14.85,2021-12-17 17:33:18.859375
1311,14.58,2021-12-17 17:33:18.875000
1312,13.71,2021-12-17 17:33:18.890625
1313,12.53,2021-12-17 17:33:18.906250
1314,11.34,2021-12-17 17:33:18.921875
1315,10.34,2021-12-17 17:33:18.937500
1316,9.57,2021-12-17 17:33:18.953125
1317,8.96,2021-12-17 17:33:18.968750
1318,8.37,2021-12-17 17:33:18.984375
1319,7.66,2021-12-17 17:33:19.000000
1320,6.76,2021-12-17 17:33:19.015625
1321,5.69,2021-12-17 17:33:19.031250
1322,4.53,2021-12-17 17:33:19.046875
1323,3.4,2021-12-17 17:33:19.062500
1324,2.4,2021-12-17 17:33:19.078125
1325,1.61,2021-12-17 17:33:19.093750
1326,1.03,2021-12-17 17:33:19.109375
1327,0.64,2021-12-17 17:33:19.125000
1328,0.38,2021-12-17 17:33:19.140625
1329,0.15,2021-12-17 17:33:19.156250
1330,-0.16,2021-12-17 17:33:19.171875
1331,-0.65,2021-12-17 17:33:19.187500
1332,-1.36,2021-12-17 17:33:19.203125
1333,-2.24,2021-12-17 17:33:19.218750
1334,-3.16,2021-12-17 17:33:19.234375
1335,-3.99,2021-12-17 17:33:19.250000
1336,-4.63,2021-12-17 17:33:19.265625
1337,-5.1,2021-12-17 17:33:19.281250
1338,-5.52,2021-12-17 17:33:19.296875
1339,-6.04,2021-12-17 17:33:19.312500
1340,-6.79,2021-12-17 17:33:19.328125
1341,-7.81,2021-12-17 17:33:19.343750
1342,-9.05,2021-12-17 17:33:19.359375
1343,-10.44,2021-12-17 17:33:19.375000
1344,-11.96,2021-12-17 17:33:19.390625
1345,-13.65,2021-12-17 17:33:19.406250
1346,-15.5,2021-12-17 17:33:19.421875
1347,-17.42,2021-12-17 17:33:19.437500
1348,-19.12,2021-12-17 17:33:19.453125
1349,-20.21,2021-12-17 17:33:19.468750
1350,-20.31,2021-12-17 17:33:19.484375
1351,-19.24,2021-12-17 17:33:19.500000
1352,-17.09,2021-12-17 17:33:19.515625
1353,-14.2,2021-12-17 17:33:19.531250
1354,-10.98,2021-12-17 17:33:19.546875
1355,-7.82,2021-12-17 17:33:19.562500
1356,-4.9,2021-12-17 17:33:19.578125
1357,-2.23,2021-12-17 17:33:19.593750
1358,0.28,2021-12-17 17:33:19.609375
1359,2.75,2021-12-17 17:33:19.625000
1360,5.2,2021-12-17 17:33:19.640625
1361,7.55,2021-12-17 17:33:19.656250
1362,9.64,2021-12-17 17:33:19.671875
1363,11.32,2021-12-17 17:33:19.687500
1364,12.46,2021-12-17 17:33:19.703125
1365,13.08,2021-12-17 17:33:19.718750
1366,13.27,2021-12-17 17:33:19.734375
1367,13.18,2021-12-17 17:33:19.750000
1368,12.94,2021-12-17 17:33:19.765625
1369,12.59,2021-12-17 17:33:19.781250
1370,12.14,2021-12-17 17:33:19.796875
1371,11.56,2021-12-17 17:33:19.812500
1372,10.91,2021-12-17 17:33:19.828125
1373,10.29,2021-12-17 17:33:19.843750
1374,9.84,2021-12-17 17:33:19.859375
1375,9.59,2021-12-17 17:33:19.875000
1376,9.49,2021-12-17 17:33:19.890625
1377,9.39,2021-12-17 17:33:19.906250
1378,9.17,2021-12-17 17:33:19.921875
1379,8.74,2021-12-17 17:33:19.937500
1380,8.19,2021-12-17 17:33:19.953125
1381,7.63,2021-12-17 17:33:19.968750
1382,7.16,2021-12-17 17:33:19.984375
1383,6.84,2021-12-17 17:33:20.000000
1384,6.63,2021-12-17 17:33:20.015625
1385,6.44,2021-12-17 17:33:20.031250
1386,6.19,2021-12-17 17:33:20.046875
1387,5.82,2021-12-17 17:33:20.062500
1388,5.27,2021-12-17 17:33:20.078125
1389,4.52,2021-12-17 17:33:20.093750
1390,3.54,2021-12-17 17:33:20.109375
1391,2.35,2021-12-17 17:33:20.125000
1392,1.07,2021-12-17 17:33:20.140625
1393,-0.16,2021-12-17 17:33:20.156250
1394,-1.16,2021-12-17 17:33:20.171875
1395,-1.81,2021-12-17 17:33:20.187500
1396,-2.12,2021-12-17 17:33:20.203125
1397,-2.22,2021-12-17 17:33:20.218750
1398,-2.33,2021-12-17 17:33:20.234375
1399,-2.67,2021-12-17 17:33:20.250000
1400,-3.37,2021-12-17 17:33:20.265625
1401,-4.39,2021-12-17 17:33:20.281250
1402,-5.5,2021-12-17 17:33:20.296875
1403,-6.32,2021-12-17 17:33:20.312500
1404,-6.49,2021-12-17 17:33:20.328125
1405,-5.73,2021-12-17 17:33:20.343750
1406,-4.04,2021-12-17 17:33:20.359375
1407,-1.62,2021-12-17 17:33:20.375000
1408,1.16,2021-12-17 17:33:20.390625
1409,3.98,2021-12-17 17:33:20.406250
1410,6.67,2021-12-17 17:33:20.421875
1411,9.23,2021-12-17 17:33:20.437500
1412,11.8,2021-12-17 17:33:20.453125
1413,14.51,2021-12-17 17:33:20.468750
1414,17.37,2021-12-17 17:33:20.484375
1415,20.25,2021-12-17 17:33:20.500000
1416,22.91,2021-12-17 17:33:20.515625
1417,25.12,2021-12-17 17:33:20.531250
1418,26.74,2021-12-17 17:33:20.546875
1419,27.81,2021-12-17 17:33:20.562500
1420,28.52,2021-12-17 17:33:20.578125
1421,29.17,2021-12-17 17:33:20.593750
1422,30.07,2021-12-17 17:33:20.609375
1423,31.4,2021-12-17 17:33:20.625000
1424,33.17,2021-12-17 17:33:20.640625
1425,35.22,2021-12-17 17:33:20.656250
1426,37.18,2021-12-17 17:33:20.671875
1427,38.62,2021-12-17 17:33:20.687500
1428,39.12,2021-12-17 17:33:20.703125
1429,38.35,2021-12-17 17:33:20.718750
1430,36.21,2021-12-17 17:33:20.734375
1431,32.87,2021-12-17 17:33:20.750000
1432,28.77,2021-12-17 17:33:20.765625
1433,24.57,2021-12-17 17:33:20.781250
1434,20.94,2021-12-17 17:33:20.796875
1435,18.36,2021-12-17 17:33:20.812500
1436,16.92,2021-12-17 17:33:20.828125
1437,16.39,2021-12-17 17:33:20.843750
1438,16.34,2021-12-17 17:33:20.859375
1439,16.39,2021-12-17 17:33:20.875000
1440,16.32,2021-12-17 17:33:20.890625
1441,16.11,2021-12-17 17:33:20.906250
1442,15.82,2021-12-17 17:33:20.921875
1443,15.38,2021-12-17 17:33:20.937500
1444,14.59,2021-12-17 17:33:20.953125
1445,13.16,2021-12-17 17:33:20.968750
1446,10.84,2021-12-17 17:33:20.984375
1447,7.57,2021-12-17 17:33:21.000000
1448,3.48,2021-12-17 17:33:21.015625
1449,-1.16,2021-12-17 17:33:21.031250
1450,-6.08,2021-12-17 17:33:21.046875
1451,-11.03,2021-12-17 17:33:21.062500
1452,-15.79,2021-12-17 17:33:21.078125
1453,-20.16,2021-12-17 17:33:21.093750
1454,-24.01,2021-12-17 17:33:21.109375
1455,-27.3,2021-12-17 17:33:21.125000
1456,-30.14,2021-12-17 17:33:21.140625
1457,-32.72,2021-12-17 17:33:21.156250
1458,-35.24,2021-12-17 17:33:21.171875
1459,-37.77,2021-12-17 17:33:21.187500
1460,-40.19,2021-12-17 17:33:21.203125
1461,-42.26,2021-12-17 17:33:21.218750
1462,-43.74,2021-12-17 17:33:21.234375
1463,-44.47,2021-12-17 17:33:21.250000
1464,-44.46,2021-12-17 17:33:21.265625
1465,-43.82,2021-12-17 17:33:21.281250
1466,-42.64,2021-12-17 17:33:21.296875
1467,-40.96,2021-12-17 17:33:21.312500
1468,-38.75,2021-12-17 17:33:21.328125
1469,-36.02,2021-12-17 17:33:21.343750
1470,-32.88,2021-12-17 17:33:21.359375
1471,-29.6,2021-12-17 17:33:21.375000
1472,-26.48,2021-12-17 17:33:21.390625
1473,-23.75,2021-12-17 17:33:21.406250
1474,-21.47,2021-12-17 17:33:21.421875
1475,-19.53,2021-12-17 17:33:21.437500
1476,-17.77,2021-12-17 17:33:21.453125
1477,-16.04,2021-12-17 17:33:21.468750
1478,-14.37,2021-12-17 17:33:21.484375
1479,-12.89,2021-12-17 17:33:21.500000
1480,-11.75,2021-12-17 17:33:21.515625
1481,-10.98,2021-12-17 17:33:21.531250
1482,-10.48,2021-12-17 17:33:21.546875
1483,-10.02,2021-12-17 17:33:21.562500
1484,-9.4,2021-12-17 17:33:21.578125
1485,-8.51,2021-12-17 17:33:21.593750
1486,-7.45,2021-12-17 17:33:21.609375
1487,-6.41,2021-12-17 17:33:21.625000
1488,-5.63,2021-12-17 17:33:21.640625
1489,-5.23,2021-12-17 17:33:21.656250
1490,-5.21,2021-12-17 17:33:21.671875
1491,-5.4,2021-12-17 17:33:21.687500
1492,-5.62,2021-12-17 17:33:21.703125
1493,-5.68,2021-12-17 17:33:21.718750
1494,-5.53,2021-12-17 17:33:21.734375
1495,-5.18,2021-12-17 17:33:21.750000
1496,-4.74,2021-12-17 17:33:21.765625
1497,-4.31,2021-12-17 17:33:21.781250
1498,-3.95,2021-12-17 17:33:21.796875
1499,-3.73,2021-12-17 17:33:21.812500
1500,-3.71,2021-12-17 17:33:21.828125
1501,-3.93,2021-12-17 17:33:21.843750
1502,-4.43,2021-12-17 17:33:21.859375
1503,-5.18,2021-12-17 17:33:21.875000
1504,-6.1,2021-12-17 17:33:21.890625
1505,-7.06,2021-12-17 17:33:21.906250
1506,-7.93,2021-12-17 17:33:21.921875
1507,-8.63,2021-12-17 17:33:21.937500
1508,-9.17,2021-12-17 17:33:21.953125
1509,-9.59,2021-12-17 17:33:21.968750
1510,-9.92,2021-12-17 17:33:21.984375
1511,-10.2,2021-12-17 17:33:22.000000
1512,-10.47,2021-12-17 17:33:22.015625
1513,-10.81,2021-12-17 17:33:22.031250
1514,-11.35,2021-12-17 17:33:22.046875
1515,-12.22,2021-12-17 17:33:22.062500
1516,-13.47,2021-12-17 17:33:22.078125
1517,-15.0,2021-12-17 17:33:22.093750
1518,-16.55,2021-12-17 17:33:22.109375
1519,-17.78,2021-12-17 17:33:22.125000
1520,-18.39,2021-12-17 17:33:22.140625
1521,-18.22,2021-12-17 17:33:22.156250
1522,-17.26,2021-12-17 17:33:22.171875
1523,-15.68,2021-12-17 17:33:22.187500
1524,-13.67,2021-12-17 17:33:22.203125
1525,-11.43,2021-12-17 17:33:22.218750
1526,-9.08,2021-12-17 17:33:22.234375
1527,-6.66,2021-12-17 17:33:22.250000
1528,-4.2,2021-12-17 17:33:22.265625
1529,-1.71,2021-12-17 17:33:22.281250
1530,0.76,2021-12-17 17:33:22.296875
1531,3.17,2021-12-17 17:33:22.312500
1532,5.43,2021-12-17 17:33:22.328125
1533,7.5,2021-12-17 17:33:22.343750
1534,9.28,2021-12-17 17:33:22.359375
1535,10.7,2021-12-17 17:33:22.375000
1536,11.6,2021-12-17 17:33:22.390625
1537,11.92,2021-12-17 17:33:22.406250
1538,11.63,2021-12-17 17:33:22.421875
1539,10.83,2021-12-17 17:33:22.437500
1540,9.78,2021-12-17 17:33:22.453125
1541,8.79,2021-12-17 17:33:22.468750
1542,8.15,2021-12-17 17:33:22.484375
1543,7.99,2021-12-17 17:33:22.500000
1544,8.26,2021-12-17 17:33:22.515625
1545,8.74,2021-12-17 17:33:22.531250
1546,9.18,2021-12-17 17:33:22.546875
1547,9.41,2021-12-17 17:33:22.562500
1548,9.35,2021-12-17 17:33:22.578125
1549,9.03,2021-12-17 17:33:22.593750
1550,8.48,2021-12-17 17:33:22.609375
1551,7.8,2021-12-17 17:33:22.625000
1552,7.05,2021-12-17 17:33:22.640625
1553,6.39,2021-12-17 17:33:22.656250
1554,5.99,2021-12-17 17:33:22.671875
1555,6.06,2021-12-17 17:33:22.687500
1556,6.69,2021-12-17 17:33:22.703125
1557,7.86,2021-12-17 17:33:22.718750
1558,9.37,2021-12-17 17:33:22.734375
1559,10.95,2021-12-17 17:33:22.750000
1560,12.38,2021-12-17 17:33:22.765625
1561,13.53,2021-12-17 17:33:22.781250
1562,14.36,2021-12-17 17:33:22.796875
1563,14.83,2021-12-17 17:33:22.812500
1564,14.89,2021-12-17 17:33:22.828125
1565,14.39,2021-12-17 17:33:22.843750
1566,13.22,2021-12-17 17:33:22.859375
1567,11.46,2021-12-17 17:33:22.875000
1568,9.37,2021-12-17 17:33:22.890625
1569,7.41,2021-12-17 17:33:22.906250
1570,6.05,2021-12-17 17:33:22.921875
1571,5.58,2021-12-17 17:33:22.937500
1572,6.1,2021-12-17 17:33:22.953125
1573,7.52,2021-12-17 17:33:22.968750
1574,9.72,2021-12-17 17:33:22.984375
1575,12.7,2021-12-17 17:33:23.000000
1576,16.67,2021-12-17 17:33:23.015625
1577,21.91,2021-12-17 17:33:23.031250
1578,28.62,2021-12-17 17:33:23.046875
1579,36.82,2021-12-17 17:33:23.062500
1580,46.24,2021-12-17 17:33:23.078125
1581,56.37,2021-12-17 17:33:23.093750
1582,66.57,2021-12-17 17:33:23.109375
1583,76.17,2021-12-17 17:33:23.125000
1584,84.46,2021-12-17 17:33:23.140625
1585,90.74,2021-12-17 17:33:23.156250
1586,94.29,2021-12-17 17:33:23.171875
1587,94.56,2021-12-17 17:33:23.187500
1588,91.28,2021-12-17 17:33:23.203125
1589,84.69,2021-12-17 17:33:23.218750
1590,75.55,2021-12-17 17:33:23.234375
1591,64.98,2021-12-17 17:33:23.250000
1592,54.15,2021-12-17 17:33:23.265625
1593,43.86,2021-12-17 17:33:23.281250
1594,34.48,2021-12-17 17:33:23.296875
1595,25.92,2021-12-17 17:33:23.312500
1596,17.92,2021-12-17 17:33:23.328125
1597,10.3,2021-12-17 17:33:23.343750
1598,2.95,2021-12-17 17:33:23.359375
1599,-4.18,2021-12-17 17:33:23.375000
1600,-11.21,2021-12-17 17:33:23.390625
1601,-18.36,2021-12-17 17:33:23.406250
1602,-25.85,2021-12-17 17:33:23.421875
1603,-33.64,2021-12-17 17:33:23.437500
1604,-41.43,2021-12-17 17:33:23.453125
1605,-48.66,2021-12-17 17:33:23.468750
1606,-54.85,2021-12-17 17:33:23.484375
1607,-59.76,2021-12-17 17:33:23.500000
1608,-63.5,2021-12-17 17:33:23.515625
1609,-66.34,2021-12-17 17:33:23.531250
1610,-68.54,2021-12-17 17:33:23.546875
1611,-70.1,2021-12-17 17:33:23.562500
1612,-70.82,2021-12-17 17:33:23.578125
1613,-70.43,2021-12-17 17:33:23.593750
1614,-68.87,2021-12-17 17:33:23.609375
1615,-66.34,2021-12-17 17:33:23.625000
1616,-63.31,2021-12-17 17:33:23.640625
1617,-60.38,2021-12-17 17:33:23.656250
1618,-57.98,2021-12-17 17:33:23.671875
1619,-56.28,2021-12-17 17:33:23.687500
1620,-55.13,2021-12-17 17:33:23.703125
1621,-54.2,2021-12-17 17:33:23.718750
1622,-53.18,2021-12-17 17:33:23.734375
1623,-51.95,2021-12-17 17:33:23.750000
1624,-50.59,2021-12-17 17:33:23.765625
1625,-49.27,2021-12-17 17:33:23.781250
1626,-48.09,2021-12-17 17:33:23.796875
1627,-47.02,2021-12-17 17:33:23.812500
1628,-45.91,2021-12-17 17:33:23.828125
1629,-44.65,2021-12-17 17:33:23.843750
1630,-43.31,2021-12-17 17:33:23.859375
1631,-42.11,2021-12-17 17:33:23.875000
1632,-41.31,2021-12-17 17:33:23.890625
1633,-41.0,2021-12-17 17:33:23.906250
1634,-40.95,2021-12-17 17:33:23.921875
1635,-40.65,2021-12-17 17:33:23.937500
1636,-39.53,2021-12-17 17:33:23.953125
1637,-37.21,2021-12-17 17:33:23.968750
1638,-33.7,2021-12-17 17:33:23.984375
1639,-29.36,2021-12-17 17:33:24.000000
1640,-24.75,2021-12-17 17:33:24.015625
1641,-20.37,2021-12-17 17:33:24.031250
1642,-16.49,2021-12-17 17:33:24.046875
1643,-13.12,2021-12-17 17:33:24.062500
1644,-10.08,2021-12-17 17:33:24.078125
1645,-7.09,2021-12-17 17:33:24.093750
1646,-3.95,2021-12-17 17:33:24.109375
1647,-0.52,2021-12-17 17:33:24.125000
1648,3.25,2021-12-17 17:33:24.140625
1649,7.3,2021-12-17 17:33:24.156250
1650,11.51,2021-12-17 17:33:24.171875
1651,15.66,2021-12-17 17:33:24.187500
1652,19.48,2021-12-17 17:33:24.203125
1653,22.71,2021-12-17 17:33:24.218750
1654,25.11,2021-12-17 17:33:24.234375
1655,26.5,2021-12-17 17:33:24.250000
1656,26.81,2021-12-17 17:33:24.265625
1657,26.06,2021-12-17 17:33:24.281250
1658,24.37,2021-12-17 17:33:24.296875
1659,21.95,2021-12-17 17:33:24.312500
1660,19.08,2021-12-17 17:33:24.328125
1661,16.08,2021-12-17 17:33:24.343750
1662,13.25,2021-12-17 17:33:24.359375
1663,10.78,2021-12-17 17:33:24.375000
1664,8.72,2021-12-17 17:33:24.390625
1665,7.0,2021-12-17 17:33:24.406250
1666,5.49,2021-12-17 17:33:24.421875
1667,4.05,2021-12-17 17:33:24.437500
1668,2.61,2021-12-17 17:33:24.453125
1669,1.13,2021-12-17 17:33:24.468750
1670,-0.36,2021-12-17 17:33:24.484375
1671,-1.83,2021-12-17 17:33:24.500000
1672,-3.25,2021-12-17 17:33:24.515625
1673,-4.56,2021-12-17 17:33:24.531250
1674,-5.76,2021-12-17 17:33:24.546875
1675,-6.83,2021-12-17 17:33:24.562500
1676,-7.76,2021-12-17 17:33:24.578125
1677,-8.63,2021-12-17 17:33:24.593750
1678,-9.47,2021-12-17 17:33:24.609375
1679,-10.3,2021-12-17 17:33:24.625000
1680,-11.07,2021-12-17 17:33:24.640625
1681,-11.7,2021-12-17 17:33:24.656250
1682,-12.13,2021-12-17 17:33:24.671875
1683,-12.38,2021-12-17 17:33:24.687500
1684,-12.63,2021-12-17 17:33:24.703125
1685,-13.08,2021-12-17 17:33:24.718750
1686,-13.88,2021-12-17 17:33:24.734375
1687,-15.03,2021-12-17 17:33:24.750000
1688,-16.31,2021-12-17 17:33:24.765625
1689,-17.36,2021-12-17 17:33:24.781250
1690,-17.83,2021-12-17 17:33:24.796875
1691,-17.5,2021-12-17 17:33:24.812500
1692,-16.37,2021-12-17 17:33:24.828125
1693,-14.6,2021-12-17 17:33:24.843750
1694,-12.46,2021-12-17 17:33:24.859375
1695,-10.21,2021-12-17 17:33:24.875000
1696,-8.02,2021-12-17 17:33:24.890625
1697,-5.97,2021-12-17 17:33:24.906250
1698,-4.08,2021-12-17 17:33:24.921875
1699,-2.29,2021-12-17 17:33:24.937500
1700,-0.6,2021-12-17 17:33:24.953125
1701,1.03,2021-12-17 17:33:24.968750
1702,2.53,2021-12-17 17:33:24.984375
1703,3.82,2021-12-17 17:33:25.000000
1704,4.8,2021-12-17 17:33:25.015625
1705,5.45,2021-12-17 17:33:25.031250
1706,5.81,2021-12-17 17:33:25.046875
1707,5.98,2021-12-17 17:33:25.062500
1708,6.09,2021-12-17 17:33:25.078125
1709,6.26,2021-12-17 17:33:25.093750
1710,6.54,2021-12-17 17:33:25.109375
1711,6.93,2021-12-17 17:33:25.125000
1712,7.42,2021-12-17 17:33:25.140625
1713,7.94,2021-12-17 17:33:25.156250
1714,8.39,2021-12-17 17:33:25.171875
1715,8.65,2021-12-17 17:33:25.187500
1716,8.62,2021-12-17 17:33:25.203125
1717,8.21,2021-12-17 17:33:25.218750
1718,7.44,2021-12-17 17:33:25.234375
1719,6.43,2021-12-17 17:33:25.250000
1720,5.35,2021-12-17 17:33:25.265625
1721,4.36,2021-12-17 17:33:25.281250
1722,3.57,2021-12-17 17:33:25.296875
1723,2.93,2021-12-17 17:33:25.312500
1724,2.35,2021-12-17 17:33:25.328125
1725,1.71,2021-12-17 17:33:25.343750
1726,0.93,2021-12-17 17:33:25.359375
1727,0.03,2021-12-17 17:33:25.375000
1728,-0.94,2021-12-17 17:33:25.390625
1729,-1.93,2021-12-17 17:33:25.406250
1730,-2.91,2021-12-17 17:33:25.421875
1731,-3.9,2021-12-17 17:33:25.437500
1732,-4.94,2021-12-17 17:33:25.453125
1733,-6.04,2021-12-17 17:33:25.468750
1734,-7.19,2021-12-17 17:33:25.484375
1735,-8.31,2021-12-17 17:33:25.500000
1736,-9.37,2021-12-17 17:33:25.515625
1737,-10.35,2021-12-17 17:33:25.531250
1738,-11.32,2021-12-17 17:33:25.546875
1739,-12.4,2021-12-17 17:33:25.562500
1740,-13.66,2021-12-17 17:33:25.578125
1741,-15.13,2021-12-17 17:33:25.593750
1742,-16.66,2021-12-17 17:33:25.609375
1743,-18.06,2021-12-17 17:33:25.625000
1744,-19.03,2021-12-17 17:33:25.640625
1745,-19.37,2021-12-17 17:33:25.656250
1746,-18.93,2021-12-17 17:33:25.671875
1747,-17.72,2021-12-17 17:33:25.687500
1748,-15.84,2021-12-17 17:33:25.703125
1749,-13.47,2021-12-17 17:33:25.718750
1750,-10.84,2021-12-17 17:33:25.734375
1751,-8.13,2021-12-17 17:33:25.750000
1752,-5.49,2021-12-17 17:33:25.765625
1753,-3.0,2021-12-17 17:33:25.781250
1754,-0.66,2021-12-17 17:33:25.796875
1755,1.54,2021-12-17 17:33:25.812500
1756,3.6,2021-12-17 17:33:25.828125
1757,5.46,2021-12-17 17:33:25.843750
1758,7.03,2021-12-17 17:33:25.859375
1759,8.21,2021-12-17 17:33:25.875000
1760,9.0,2021-12-17 17:33:25.890625
1761,9.46,2021-12-17 17:33:25.906250
1762,9.76,2021-12-17 17:33:25.921875
1763,10.06,2021-12-17 17:33:25.937500
1764,10.44,2021-12-17 17:33:25.953125
1765,10.89,2021-12-17 17:33:25.968750
1766,11.33,2021-12-17 17:33:25.984375
1767,11.67,2021-12-17 17:33:26.000000
1768,11.89,2021-12-17 17:33:26.015625
1769,12.04,2021-12-17 17:33:26.031250
1770,12.11,2021-12-17 17:33:26.046875
1771,12.1,2021-12-17 17:33:26.062500
1772,11.94,2021-12-17 17:33:26.078125
1773,11.58,2021-12-17 17:33:26.093750
1774,10.96,2021-12-17 17:33:26.109375
1775,10.08,2021-12-17 17:33:26.125000
1776,8.99,2021-12-17 17:33:26.140625
1777,7.75,2021-12-17 17:33:26.156250
1778,6.47,2021-12-17 17:33:26.171875
1779,5.26,2021-12-17 17:33:26.187500
1780,4.23,2021-12-17 17:33:26.203125
1781,3.45,2021-12-17 17:33:26.218750
1782,2.85,2021-12-17 17:33:26.234375
1783,2.29,2021-12-17 17:33:26.250000
1784,1.56,2021-12-17 17:33:26.265625
1785,0.53,2021-12-17 17:33:26.281250
1786,-0.78,2021-12-17 17:33:26.296875
1787,-2.19,2021-12-17 17:33:26.312500
1788,-3.47,2021-12-17 17:33:26.328125
1789,-4.47,2021-12-17 17:33:26.343750
1790,-5.17,2021-12-17 17:33:26.359375
1791,-5.72,2021-12-17 17:33:26.375000
1792,-6.36,2021-12-17 17:33:26.390625
1793,-7.33,2021-12-17 17:33:26.406250
1794,-8.79,2021-12-17 17:33:26.421875
1795,-10.8,2021-12-17 17:33:26.437500
1796,-13.27,2021-12-17 17:33:26.453125
1797,-15.95,2021-12-17 17:33:26.468750
1798,-18.5,2021-12-17 17:33:26.484375
1799,-20.52,2021-12-17 17:33:26.500000
1800,-21.64,2021-12-17 17:33:26.515625
1801,-21.65,2021-12-17 17:33:26.531250
1802,-20.53,2021-12-17 17:33:26.546875
1803,-18.44,2021-12-17 17:33:26.562500
1804,-15.63,2021-12-17 17:33:26.578125
1805,-12.41,2021-12-17 17:33:26.593750
1806,-9.05,2021-12-17 17:33:26.609375
1807,-5.8,2021-12-17 17:33:26.625000
1808,-2.84,2021-12-17 17:33:26.640625
1809,-0.26,2021-12-17 17:33:26.656250
1810,1.95,2021-12-17 17:33:26.671875
1811,3.9,2021-12-17 17:33:26.687500
1812,5.75,2021-12-17 17:33:26.703125
1813,7.59,2021-12-17 17:33:26.718750
1814,9.39,2021-12-17 17:33:26.734375
1815,11.03,2021-12-17 17:33:26.750000
1816,12.34,2021-12-17 17:33:26.765625
1817,13.25,2021-12-17 17:33:26.781250
1818,13.77,2021-12-17 17:33:26.796875
1819,14.0,2021-12-17 17:33:26.812500
1820,14.1,2021-12-17 17:33:26.828125
1821,14.14,2021-12-17 17:33:26.843750
1822,14.13,2021-12-17 17:33:26.859375
1823,14.05,2021-12-17 17:33:26.875000
1824,13.87,2021-12-17 17:33:26.890625
1825,13.6,2021-12-17 17:33:26.906250
1826,13.33,2021-12-17 17:33:26.921875
1827,13.09,2021-12-17 17:33:26.937500
1828,12.89,2021-12-17 17:33:26.953125
1829,12.65,2021-12-17 17:33:26.968750
1830,12.26,2021-12-17 17:33:26.984375
1831,11.62,2021-12-17 17:33:27.000000
1832,10.76,2021-12-17 17:33:27.015625
1833,9.75,2021-12-17 17:33:27.031250
1834,8.78,2021-12-17 17:33:27.046875
1835,7.94,2021-12-17 17:33:27.062500
1836,7.28,2021-12-17 17:33:27.078125
1837,6.71,2021-12-17 17:33:27.093750
1838,6.11,2021-12-17 17:33:27.109375
1839,5.36,2021-12-17 17:33:27.125000
1840,4.39,2021-12-17 17:33:27.140625
1841,3.22,2021-12-17 17:33:27.156250
1842,1.91,2021-12-17 17:33:27.171875
1843,0.58,2021-12-17 17:33:27.187500
1844,-0.7,2021-12-17 17:33:27.203125
1845,-1.83,2021-12-17 17:33:27.218750
1846,-2.8,2021-12-17 17:33:27.234375
1847,-3.65,2021-12-17 17:33:27.250000
1848,-4.53,2021-12-17 17:33:27.265625
1849,-5.6,2021-12-17 17:33:27.281250
1850,-7.01,2021-12-17 17:33:27.296875
1851,-8.83,2021-12-17 17:33:27.312500
1852,-10.94,2021-12-17 17:33:27.328125
1853,-13.11,2021-12-17 17:33:27.343750
1854,-15.0,2021-12-17 17:33:27.359375
1855,-16.25,2021-12-17 17:33:27.375000
1856,-16.64,2021-12-17 17:33:27.390625
1857,-16.04,2021-12-17 17:33:27.406250
1858,-14.51,2021-12-17 17:33:27.421875
1859,-12.18,2021-12-17 17:33:27.437500
1860,-9.29,2021-12-17 17:33:27.453125
1861,-6.07,2021-12-17 17:33:27.468750
1862,-2.77,2021-12-17 17:33:27.484375
1863,0.4,2021-12-17 17:33:27.500000
1864,3.28,2021-12-17 17:33:27.515625
1865,5.76,2021-12-17 17:33:27.531250
1866,7.83,2021-12-17 17:33:27.546875
1867,9.56,2021-12-17 17:33:27.562500
1868,11.08,2021-12-17 17:33:27.578125
1869,12.5,2021-12-17 17:33:27.593750
1870,13.87,2021-12-17 17:33:27.609375
1871,15.16,2021-12-17 17:33:27.625000
1872,16.24,2021-12-17 17:33:27.640625
1873,16.98,2021-12-17 17:33:27.656250
1874,17.35,2021-12-17 17:33:27.671875
1875,17.36,2021-12-17 17:33:27.687500
1876,17.14,2021-12-17 17:33:27.703125
1877,16.85,2021-12-17 17:33:27.718750
1878,16.59,2021-12-17 17:33:27.734375
1879,16.46,2021-12-17 17:33:27.750000
1880,16.46,2021-12-17 17:33:27.765625
1881,16.55,2021-12-17 17:33:27.781250
1882,16.64,2021-12-17 17:33:27.796875
1883,16.58,2021-12-17 17:33:27.812500
1884,16.25,2021-12-17 17:33:27.828125
1885,15.51,2021-12-17 17:33:27.843750
1886,14.33,2021-12-17 17:33:27.859375
1887,12.78,2021-12-17 17:33:27.875000
1888,11.05,2021-12-17 17:33:27.890625
1889,9.35,2021-12-17 17:33:27.906250
1890,7.88,2021-12-17 17:33:27.921875
1891,6.76,2021-12-17 17:33:27.937500
1892,5.98,2021-12-17 17:33:27.953125
1893,5.45,2021-12-17 17:33:27.968750
1894,4.99,2021-12-17 17:33:27.984375
1895,4.44,2021-12-17 17:33:28.000000
1896,3.68,2021-12-17 17:33:28.015625
1897,2.68,2021-12-17 17:33:28.031250
1898,1.53,2021-12-17 17:33:28.046875
1899,0.36,2021-12-17 17:33:28.062500
1900,-0.69,2021-12-17 17:33:28.078125
1901,-1.56,2021-12-17 17:33:28.093750
1902,-2.29,2021-12-17 17:33:28.109375
1903,-3.06,2021-12-17 17:33:28.125000
1904,-4.07,2021-12-17 17:33:28.140625
1905,-5.48,2021-12-17 17:33:28.156250
1906,-7.38,2021-12-17 17:33:28.171875
1907,-9.63,2021-12-17 17:33:28.187500
1908,-11.95,2021-12-17 17:33:28.203125
1909,-13.9,2021-12-17 17:33:28.218750
1910,-15.04,2021-12-17 17:33:28.234375
1911,-15.07,2021-12-17 17:33:28.250000
1912,-13.97,2021-12-17 17:33:28.265625
1913,-11.98,2021-12-17 17:33:28.281250
1914,-9.51,2021-12-17 17:33:28.296875
1915,-7.02,2021-12-17 17:33:28.312500
1916,-4.75,2021-12-17 17:33:28.328125
1917,-2.71,2021-12-17 17:33:28.343750
1918,-0.77,2021-12-17 17:33:28.359375
1919,1.29,2021-12-17 17:33:28.375000
1920,3.53,2021-12-17 17:33:28.390625
1921,5.89,2021-12-17 17:33:28.406250
1922,8.17,2021-12-17 17:33:28.421875
1923,10.19,2021-12-17 17:33:28.437500
1924,11.86,2021-12-17 17:33:28.453125
1925,13.17,2021-12-17 17:33:28.468750
1926,14.19,2021-12-17 17:33:28.484375
1927,14.92,2021-12-17 17:33:28.500000
1928,15.36,2021-12-17 17:33:28.515625
1929,15.47,2021-12-17 17:33:28.531250
1930,15.22,2021-12-17 17:33:28.546875
1931,14.67,2021-12-17 17:33:28.562500
1932,13.92,2021-12-17 17:33:28.578125
1933,13.08,2021-12-17 17:33:28.593750
1934,12.3,2021-12-17 17:33:28.609375
1935,11.65,2021-12-17 17:33:28.625000
1936,11.18,2021-12-17 17:33:28.640625
1937,10.85,2021-12-17 17:33:28.656250
1938,10.58,2021-12-17 17:33:28.671875
1939,10.23,2021-12-17 17:33:28.687500
1940,9.68,2021-12-17 17:33:28.703125
1941,8.9,2021-12-17 17:33:28.718750
1942,7.93,2021-12-17 17:33:28.734375
1943,6.88,2021-12-17 17:33:28.750000
1944,5.92,2021-12-17 17:33:28.765625
1945,5.16,2021-12-17 17:33:28.781250
1946,4.59,2021-12-17 17:33:28.796875
1947,4.17,2021-12-17 17:33:28.812500
1948,3.75,2021-12-17 17:33:28.828125
1949,3.21,2021-12-17 17:33:28.843750
1950,2.45,2021-12-17 17:33:28.859375
1951,1.47,2021-12-17 17:33:28.875000
1952,0.28,2021-12-17 17:33:28.890625
1953,-1.01,2021-12-17 17:33:28.906250
1954,-2.32,2021-12-17 17:33:28.921875
1955,-3.6,2021-12-17 17:33:28.937500
1956,-4.81,2021-12-17 17:33:28.953125
1957,-6.02,2021-12-17 17:33:28.968750
1958,-7.29,2021-12-17 17:33:28.984375
1959,-8.68,2021-12-17 17:33:29.000000
1960,-10.2,2021-12-17 17:33:29.015625
1961,-11.78,2021-12-17 17:33:29.031250
1962,-13.26,2021-12-17 17:33:29.046875
1963,-14.4,2021-12-17 17:33:29.062500
1964,-14.98,2021-12-17 17:33:29.078125
1965,-14.81,2021-12-17 17:33:29.093750
1966,-13.86,2021-12-17 17:33:29.109375
1967,-12.19,2021-12-17 17:33:29.125000
1968,-10.01,2021-12-17 17:33:29.140625
1969,-7.52,2021-12-17 17:33:29.156250
1970,-4.92,2021-12-17 17:33:29.171875
1971,-2.29,2021-12-17 17:33:29.187500
1972,0.34,2021-12-17 17:33:29.203125
1973,2.97,2021-12-17 17:33:29.218750
1974,5.58,2021-12-17 17:33:29.234375
1975,8.06,2021-12-17 17:33:29.250000
1976,10.29,2021-12-17 17:33:29.265625
1977,12.16,2021-12-17 17:33:29.281250
1978,13.61,2021-12-17 17:33:29.296875
1979,14.65,2021-12-17 17:33:29.312500
1980,15.33,2021-12-17 17:33:29.328125
1981,15.72,2021-12-17 17:33:29.343750
1982,15.86,2021-12-17 17:33:29.359375
1983,15.82,2021-12-17 17:33:29.375000
1984,15.63,2021-12-17 17:33:29.390625
1985,15.32,2021-12-17 17:33:29.406250
1986,14.89,2021-12-17 17:33:29.421875
1987,14.32,2021-12-17 17:33:29.437500
1988,13.59,2021-12-17 17:33:29.453125
1989,12.76,2021-12-17 17:33:29.468750
1990,11.9,2021-12-17 17:33:29.484375
1991,11.15,2021-12-17 17:33:29.500000
1992,10.6,2021-12-17 17:33:29.515625
1993,10.2,2021-12-17 17:33:29.531250
1994,9.8,2021-12-17 17:33:29.546875
1995,9.19,2021-12-17 17:33:29.562500
1996,8.25,2021-12-17 17:33:29.578125
1997,7.03,2021-12-17 17:33:29.593750
1998,5.73,2021-12-17 17:33:29.609375
1999,4.67,2021-12-17 17:33:29.625000
2000,4.04,2021-12-17 17:33:29.640625
2001,3.86,2021-12-17 17:33:29.656250
2002,3.96,2021-12-17 17:33:29.671875
2003,4.05,2021-12-17 17:33:29.687500
2004,3.85,2021-12-17 17:33:29.703125
2005,3.26,2021-12-17 17:33:29.718750
2006,2.32,2021-12-17 17:33:29.734375
2007,1.19,2021-12-17 17:33:29.750000
2008,0.11,2021-12-17 17:33:29.765625
2009,-0.79,2021-12-17 17:33:29.781250
2010,-1.45,2021-12-17 17:33:29.796875
2011,-1.98,2021-12-17 17:33:29.812500
2012,-2.56,2021-12-17 17:33:29.828125
2013,-3.43,2021-12-17 17:33:29.843750
2014,-4.7,2021-12-17 17:33:29.859375
2015,-6.36,2021-12-17 17:33:29.875000
2016,-8.18,2021-12-17 17:33:29.890625
2017,-9.83,2021-12-17 17:33:29.906250
2018,-10.91,2021-12-17 17:33:29.921875
2019,-11.2,2021-12-17 17:33:29.937500
2020,-10.63,2021-12-17 17:33:29.953125
2021,-9.33,2021-12-17 17:33:29.968750
2022,-7.59,2021-12-17 17:33:29.984375
2023,-5.66,2021-12-17 17:33:30.000000
2024,-3.75,2021-12-17 17:33:30.015625
2025,-1.91,2021-12-17 17:33:30.031250
2026,-0.13,2021-12-17 17:33:30.046875
2027,1.65,2021-12-17 17:33:30.062500
2028,3.5,2021-12-17 17:33:30.078125
2029,5.38,2021-12-17 17:33:30.093750
2030,7.19,2021-12-17 17:33:30.109375
2031,8.76,2021-12-17 17:33:30.125000
2032,9.92,2021-12-17 17:33:30.140625
2033,10.53,2021-12-17 17:33:30.156250
2034,10.62,2021-12-17 17:33:30.171875
2035,10.33,2021-12-17 17:33:30.187500
2036,9.86,2021-12-17 17:33:30.203125
2037,9.43,2021-12-17 17:33:30.218750
2038,9.12,2021-12-17 17:33:30.234375
2039,8.95,2021-12-17 17:33:30.250000
2040,8.84,2021-12-17 17:33:30.265625
2041,8.68,2021-12-17 17:33:30.281250
2042,8.4,2021-12-17 17:33:30.296875
2043,7.99,2021-12-17 17:33:30.312500
2044,7.48,2021-12-17 17:33:30.328125
2045,6.97,2021-12-17 17:33:30.343750
2046,6.54,2021-12-17 17:33:30.359375
2047,6.21,2021-12-17 17:33:30.375000
2048,5.94,2021-12-17 17:33:30.390625
2049,5.65,2021-12-17 17:33:30.406250
2050,5.2,2021-12-17 17:33:30.421875
2051,4.51,2021-12-17 17:33:30.437500
2052,3.61,2021-12-17 17:33:30.453125
2053,2.62,2021-12-17 17:33:30.468750
2054,1.67,2021-12-17 17:33:30.484375
2055,0.81,2021-12-17 17:33:30.500000
2056,0.01,2021-12-17 17:33:30.515625
2057,-0.84,2021-12-17 17:33:30.531250
2058,-1.88,2021-12-17 17:33:30.546875
2059,-3.12,2021-12-17 17:33:30.562500
2060,-4.47,2021-12-17 17:33:30.578125
2061,-5.76,2021-12-17 17:33:30.593750
2062,-6.86,2021-12-17 17:33:30.609375
2063,-7.72,2021-12-17 17:33:30.625000
2064,-8.39,2021-12-17 17:33:30.640625
2065,-9.02,2021-12-17 17:33:30.656250
2066,-9.76,2021-12-17 17:33:30.671875
2067,-10.75,2021-12-17 17:33:30.687500
2068,-12.05,2021-12-17 17:33:30.703125
2069,-13.62,2021-12-17 17:33:30.718750
2070,-15.3,2021-12-17 17:33:30.734375
2071,-16.82,2021-12-17 17:33:30.750000
2072,-17.85,2021-12-17 17:33:30.765625
2073,-18.11,2021-12-17 17:33:30.781250
2074,-17.45,2021-12-17 17:33:30.796875
2075,-15.89,2021-12-17 17:33:30.812500
2076,-13.67,2021-12-17 17:33:30.828125
2077,-11.11,2021-12-17 17:33:30.843750
2078,-8.54,2021-12-17 17:33:30.859375
2079,-6.18,2021-12-17 17:33:30.875000
2080,-4.12,2021-12-17 17:33:30.890625
2081,-2.36,2021-12-17 17:33:30.906250
2082,-0.85,2021-12-17 17:33:30.921875
2083,0.47,2021-12-17 17:33:30.937500
2084,1.65,2021-12-17 17:33:30.953125
2085,2.68,2021-12-17 17:33:30.968750
2086,3.56,2021-12-17 17:33:30.984375
2087,4.27,2021-12-17 17:33:31.000000
2088,4.77,2021-12-17 17:33:31.015625
2089,5.07,2021-12-17 17:33:31.031250
2090,5.19,2021-12-17 17:33:31.046875
2091,5.19,2021-12-17 17:33:31.062500
2092,5.15,2021-12-17 17:33:31.078125
2093,5.13,2021-12-17 17:33:31.093750
2094,5.12,2021-12-17 17:33:31.109375
2095,5.11,2021-12-17 17:33:31.125000
2096,5.06,2021-12-17 17:33:31.140625
2097,4.96,2021-12-17 17:33:31.156250
2098,4.8,2021-12-17 17:33:31.171875
2099,4.58,2021-12-17 17:33:31.187500
2100,4.27,2021-12-17 17:33:31.203125
2101,3.8,2021-12-17 17:33:31.218750
2102,3.1,2021-12-17 17:33:31.234375
2103,2.13,2021-12-17 17:33:31.250000
2104,0.94,2021-12-17 17:33:31.265625
2105,-0.38,2021-12-17 17:33:31.281250
2106,-1.68,2021-12-17 17:33:31.296875
2107,-2.84,2021-12-17 17:33:31.312500
2108,-3.76,2021-12-17 17:33:31.328125
2109,-4.43,2021-12-17 17:33:31.343750
2110,-4.89,2021-12-17 17:33:31.359375
2111,-5.22,2021-12-17 17:33:31.375000
2112,-5.52,2021-12-17 17:33:31.390625
2113,-5.88,2021-12-17 17:33:31.406250
2114,-6.37,2021-12-17 17:33:31.421875
2115,-6.98,2021-12-17 17:33:31.437500
2116,-7.7,2021-12-17 17:33:31.453125
2117,-8.49,2021-12-17 17:33:31.468750
2118,-9.33,2021-12-17 17:33:31.484375
2119,-10.23,2021-12-17 17:33:31.500000
2120,-11.18,2021-12-17 17:33:31.515625
2121,-12.18,2021-12-17 17:33:31.531250
2122,-13.15,2021-12-17 17:33:31.546875
2123,-14.0,2021-12-17 17:33:31.562500
2124,-14.64,2021-12-17 17:33:31.578125
2125,-15.01,2021-12-17 17:33:31.593750
2126,-15.01,2021-12-17 17:33:31.609375
2127,-14.59,2021-12-17 17:33:31.625000
2128,-13.67,2021-12-17 17:33:31.640625
2129,-12.2,2021-12-17 17:33:31.656250
2130,-10.22,2021-12-17 17:33:31.671875
2131,-7.82,2021-12-17 17:33:31.687500
2132,-5.19,2021-12-17 17:33:31.703125
2133,-2.54,2021-12-17 17:33:31.718750
2134,-0.07,2021-12-17 17:33:31.734375
2135,2.06,2021-12-17 17:33:31.750000
2136,3.76,2021-12-17 17:33:31.765625
2137,4.98,2021-12-17 17:33:31.781250
2138,5.77,2021-12-17 17:33:31.796875
2139,6.18,2021-12-17 17:33:31.812500
2140,6.31,2021-12-17 17:33:31.828125
2141,6.29,2021-12-17 17:33:31.843750
2142,6.26,2021-12-17 17:33:31.859375
2143,6.36,2021-12-17 17:33:31.875000
2144,6.64,2021-12-17 17:33:31.890625
2145,7.06,2021-12-17 17:33:31.906250
2146,7.51,2021-12-17 17:33:31.921875
2147,7.84,2021-12-17 17:33:31.937500
2148,7.91,2021-12-17 17:33:31.953125
2149,7.66,2021-12-17 17:33:31.968750
2150,7.12,2021-12-17 17:33:31.984375
2151,6.4,2021-12-17 17:33:32.000000
2152,5.63,2021-12-17 17:33:32.015625
2153,4.85,2021-12-17 17:33:32.031250
2154,4.1,2021-12-17 17:33:32.046875
2155,3.34,2021-12-17 17:33:32.062500
2156,2.51,2021-12-17 17:33:32.078125
2157,1.53,2021-12-17 17:33:32.093750
2158,0.37,2021-12-17 17:33:32.109375
2159,-1.01,2021-12-17 17:33:32.125000
2160,-2.63,2021-12-17 17:33:32.140625
2161,-4.42,2021-12-17 17:33:32.156250
2162,-6.27,2021-12-17 17:33:32.171875
2163,-8.01,2021-12-17 17:33:32.187500
2164,-9.45,2021-12-17 17:33:32.203125
2165,-10.49,2021-12-17 17:33:32.218750
2166,-11.16,2021-12-17 17:33:32.234375
2167,-11.59,2021-12-17 17:33:32.250000
2168,-12.01,2021-12-17 17:33:32.265625
2169,-12.65,2021-12-17 17:33:32.281250
2170,-13.65,2021-12-17 17:33:32.296875
2171,-15.04,2021-12-17 17:33:32.312500
2172,-16.66,2021-12-17 17:33:32.328125
2173,-18.26,2021-12-17 17:33:32.343750
2174,-19.49,2021-12-17 17:33:32.359375
2175,-20.03,2021-12-17 17:33:32.375000
2176,-19.69,2021-12-17 17:33:32.390625
2177,-18.45,2021-12-17 17:33:32.406250
2178,-16.49,2021-12-17 17:33:32.421875
2179,-14.07,2021-12-17 17:33:32.437500
2180,-11.47,2021-12-17 17:33:32.453125
2181,-8.88,2021-12-17 17:33:32.468750
2182,-6.36,2021-12-17 17:33:32.484375
2183,-3.93,2021-12-17 17:33:32.500000
2184,-1.59,2021-12-17 17:33:32.515625
2185,0.62,2021-12-17 17:33:32.531250
2186,2.58,2021-12-17 17:33:32.546875
2187,4.2,2021-12-17 17:33:32.562500
2188,5.43,2021-12-17 17:33:32.578125
2189,6.34,2021-12-17 17:33:32.593750
2190,7.03,2021-12-17 17:33:32.609375
2191,7.62,2021-12-17 17:33:32.625000
2192,8.17,2021-12-17 17:33:32.640625
2193,8.65,2021-12-17 17:33:32.656250
2194,8.97,2021-12-17 17:33:32.671875
2195,9.07,2021-12-17 17:33:32.687500
2196,8.91,2021-12-17 17:33:32.703125
2197,8.53,2021-12-17 17:33:32.718750
2198,7.95,2021-12-17 17:33:32.734375
2199,7.24,2021-12-17 17:33:32.750000
2200,6.38,2021-12-17 17:33:32.765625
2201,5.43,2021-12-17 17:33:32.781250
2202,4.39,2021-12-17 17:33:32.796875
2203,3.34,2021-12-17 17:33:32.812500
2204,2.33,2021-12-17 17:33:32.828125
2205,1.39,2021-12-17 17:33:32.843750
2206,0.45,2021-12-17 17:33:32.859375
2207,-0.6,2021-12-17 17:33:32.875000
2208,-1.85,2021-12-17 17:33:32.890625
2209,-3.31,2021-12-17 17:33:32.906250
2210,-4.84,2021-12-17 17:33:32.921875
2211,-6.23,2021-12-17 17:33:32.937500
2212,-7.29,2021-12-17 17:33:32.953125
2213,-7.98,2021-12-17 17:33:32.968750
2214,-8.43,2021-12-17 17:33:32.984375
2215,-8.86,2021-12-17 17:33:33.000000
2216,-9.5,2021-12-17 17:33:33.015625
2217,-10.45,2021-12-17 17:33:33.031250
2218,-11.66,2021-12-17 17:33:33.046875
2219,-13.02,2021-12-17 17:33:33.062500
2220,-14.44,2021-12-17 17:33:33.078125
2221,-15.9,2021-12-17 17:33:33.093750
2222,-17.4,2021-12-17 17:33:33.109375
2223,-18.89,2021-12-17 17:33:33.125000
2224,-20.18,2021-12-17 17:33:33.140625
2225,-20.93,2021-12-17 17:33:33.156250
2226,-20.86,2021-12-17 17:33:33.171875
2227,-19.84,2021-12-17 17:33:33.187500
2228,-17.95,2021-12-17 17:33:33.203125
2229,-15.5,2021-12-17 17:33:33.218750
2230,-12.83,2021-12-17 17:33:33.234375
2231,-10.18,2021-12-17 17:33:33.250000
2232,-7.62,2021-12-17 17:33:33.265625
2233,-5.08,2021-12-17 17:33:33.281250
2234,-2.45,2021-12-17 17:33:33.296875
2235,0.26,2021-12-17 17:33:33.312500
2236,2.97,2021-12-17 17:33:33.328125
2237,5.46,2021-12-17 17:33:33.343750
2238,7.52,2021-12-17 17:33:33.359375
2239,9.05,2021-12-17 17:33:33.375000
2240,10.06,2021-12-17 17:33:33.390625
2241,10.7,2021-12-17 17:33:33.406250
2242,11.13,2021-12-17 17:33:33.421875
2243,11.52,2021-12-17 17:33:33.437500
2244,11.94,2021-12-17 17:33:33.453125
2245,12.37,2021-12-17 17:33:33.468750
2246,12.74,2021-12-17 17:33:33.484375
2247,12.98,2021-12-17 17:33:33.500000
2248,13.02,2021-12-17 17:33:33.515625
2249,12.86,2021-12-17 17:33:33.531250
2250,12.51,2021-12-17 17:33:33.546875
2251,12.02,2021-12-17 17:33:33.562500
2252,11.41,2021-12-17 17:33:33.578125
2253,10.72,2021-12-17 17:33:33.593750
2254,9.97,2021-12-17 17:33:33.609375
2255,9.19,2021-12-17 17:33:33.625000
2256,8.43,2021-12-17 17:33:33.640625
2257,7.73,2021-12-17 17:33:33.656250
2258,7.08,2021-12-17 17:33:33.671875
2259,6.43,2021-12-17 17:33:33.687500
2260,5.68,2021-12-17 17:33:33.703125
2261,4.75,2021-12-17 17:33:33.718750
2262,3.62,2021-12-17 17:33:33.734375
2263,2.35,2021-12-17 17:33:33.750000
2264,1.05,2021-12-17 17:33:33.765625
2265,-0.17,2021-12-17 17:33:33.781250
2266,-1.3,2021-12-17 17:33:33.796875
2267,-2.37,2021-12-17 17:33:33.812500
2268,-3.49,2021-12-17 17:33:33.828125
2269,-4.71,2021-12-17 17:33:33.843750
2270,-6.04,2021-12-17 17:33:33.859375
2271,-7.51,2021-12-17 17:33:33.875000
2272,-9.09,2021-12-17 17:33:33.890625
2273,-10.79,2021-12-17 17:33:33.906250
2274,-12.55,2021-12-17 17:33:33.921875
2275,-14.24,2021-12-17 17:33:33.937500
2276,-15.6,2021-12-17 17:33:33.953125
2277,-16.32,2021-12-17 17:33:33.968750
2278,-16.19,2021-12-17 17:33:33.984375
2279,-15.14,2021-12-17 17:33:34.000000
2280,-13.33,2021-12-17 17:33:34.015625
2281,-11.02,2021-12-17 17:33:34.031250
2282,-8.49,2021-12-17 17:33:34.046875
2283,-5.93,2021-12-17 17:33:34.062500
2284,-3.39,2021-12-17 17:33:34.078125
2285,-0.85,2021-12-17 17:33:34.093750
2286,1.73,2021-12-17 17:33:34.109375
2287,4.33,2021-12-17 17:33:34.125000
2288,6.89,2021-12-17 17:33:34.140625
2289,9.3,2021-12-17 17:33:34.156250
2290,11.49,2021-12-17 17:33:34.171875
2291,13.37,2021-12-17 17:33:34.187500
2292,14.94,2021-12-17 17:33:34.203125
2293,16.18,2021-12-17 17:33:34.218750
2294,17.09,2021-12-17 17:33:34.234375
2295,17.65,2021-12-17 17:33:34.250000
2296,17.87,2021-12-17 17:33:34.265625
2297,17.73,2021-12-17 17:33:34.281250
2298,17.28,2021-12-17 17:33:34.296875
2299,16.59,2021-12-17 17:33:34.312500
2300,15.75,2021-12-17 17:33:34.328125
2301,14.91,2021-12-17 17:33:34.343750
2302,14.11,2021-12-17 17:33:34.359375
2303,13.38,2021-12-17 17:33:34.375000
2304,12.63,2021-12-17 17:33:34.390625
2305,11.73,2021-12-17 17:33:34.406250
2306,10.62,2021-12-17 17:33:34.421875
2307,9.31,2021-12-17 17:33:34.437500
2308,7.92,2021-12-17 17:33:34.453125
2309,6.64,2021-12-17 17:33:34.468750
2310,5.63,2021-12-17 17:33:34.484375
2311,4.94,2021-12-17 17:33:34.500000
2312,4.5,2021-12-17 17:33:34.515625
2313,4.13,2021-12-17 17:33:34.531250
2314,3.68,2021-12-17 17:33:34.546875
2315,3.08,2021-12-17 17:33:34.562500
2316,2.32,2021-12-17 17:33:34.578125
2317,1.48,2021-12-17 17:33:34.593750
2318,0.63,2021-12-17 17:33:34.609375
2319,-0.21,2021-12-17 17:33:34.625000
2320,-1.07,2021-12-17 17:33:34.640625
2321,-2.0,2021-12-17 17:33:34.656250
2322,-3.03,2021-12-17 17:33:34.671875
2323,-4.16,2021-12-17 17:33:34.687500
2324,-5.31,2021-12-17 17:33:34.703125
2325,-6.41,2021-12-17 17:33:34.718750
2326,-7.45,2021-12-17 17:33:34.734375
2327,-8.46,2021-12-17 17:33:34.750000
2328,-9.5,2021-12-17 17:33:34.765625
2329,-10.66,2021-12-17 17:33:34.781250
2330,-11.91,2021-12-17 17:33:34.796875
2331,-13.08,2021-12-17 17:33:34.812500
2332,-13.86,2021-12-17 17:33:34.828125
2333,-13.92,2021-12-17 17:33:34.843750
2334,-13.04,2021-12-17 17:33:34.859375
2335,-11.22,2021-12-17 17:33:34.875000
2336,-8.68,2021-12-17 17:33:34.890625
2337,-5.82,2021-12-17 17:33:34.906250
2338,-3.01,2021-12-17 17:33:34.921875
2339,-0.44,2021-12-17 17:33:34.937500
2340,1.89,2021-12-17 17:33:34.953125
2341,4.13,2021-12-17 17:33:34.968750
2342,6.43,2021-12-17 17:33:34.984375
2343,8.82,2021-12-17 17:33:35.000000
2344,11.2,2021-12-17 17:33:35.015625
2345,13.35,2021-12-17 17:33:35.031250
2346,15.07,2021-12-17 17:33:35.046875
2347,16.31,2021-12-17 17:33:35.062500
2348,17.1,2021-12-17 17:33:35.078125
2349,17.59,2021-12-17 17:33:35.093750
2350,17.85,2021-12-17 17:33:35.109375
2351,17.95,2021-12-17 17:33:35.125000
2352,17.82,2021-12-17 17:33:35.140625
2353,17.44,2021-12-17 17:33:35.156250
2354,16.81,2021-12-17 17:33:35.171875
2355,16.02,2021-12-17 17:33:35.187500
2356,15.24,2021-12-17 17:33:35.203125
2357,14.58,2021-12-17 17:33:35.218750
2358,14.07,2021-12-17 17:33:35.234375
2359,13.66,2021-12-17 17:33:35.250000
2360,13.24,2021-12-17 17:33:35.265625
2361,12.66,2021-12-17 17:33:35.281250
2362,11.88,2021-12-17 17:33:35.296875
2363,10.93,2021-12-17 17:33:35.312500
2364,9.86,2021-12-17 17:33:35.328125
2365,8.78,2021-12-17 17:33:35.343750
2366,7.74,2021-12-17 17:33:35.359375
2367,6.76,2021-12-17 17:33:35.375000
2368,5.81,2021-12-17 17:33:35.390625
2369,4.82,2021-12-17 17:33:35.406250
2370,3.71,2021-12-17 17:33:35.421875
2371,2.47,2021-12-17 17:33:35.437500
2372,1.14,2021-12-17 17:33:35.453125
2373,-0.2,2021-12-17 17:33:35.468750
2374,-1.43,2021-12-17 17:33:35.484375
2375,-2.51,2021-12-17 17:33:35.500000
2376,-3.43,2021-12-17 17:33:35.515625
2377,-4.3,2021-12-17 17:33:35.531250
2378,-5.21,2021-12-17 17:33:35.546875
2379,-6.26,2021-12-17 17:33:35.562500
2380,-7.45,2021-12-17 17:33:35.578125
2381,-8.74,2021-12-17 17:33:35.593750
2382,-10.05,2021-12-17 17:33:35.609375
2383,-11.3,2021-12-17 17:33:35.625000
2384,-12.51,2021-12-17 17:33:35.640625
2385,-13.72,2021-12-17 17:33:35.656250
2386,-15.02,2021-12-17 17:33:35.671875
2387,-16.43,2021-12-17 17:33:35.687500
2388,-17.86,2021-12-17 17:33:35.703125
2389,-19.05,2021-12-17 17:33:35.718750
2390,-19.71,2021-12-17 17:33:35.734375
2391,-19.56,2021-12-17 17:33:35.750000
2392,-18.57,2021-12-17 17:33:35.765625
2393,-16.87,2021-12-17 17:33:35.781250
2394,-14.74,2021-12-17 17:33:35.796875
2395,-12.44,2021-12-17 17:33:35.812500
2396,-10.07,2021-12-17 17:33:35.828125
2397,-7.59,2021-12-17 17:33:35.843750
2398,-4.86,2021-12-17 17:33:35.859375
2399,-1.86,2021-12-17 17:33:35.875000
2400,1.31,2021-12-17 17:33:35.890625
2401,4.39,2021-12-17 17:33:35.906250
2402,7.13,2021-12-17 17:33:35.921875
2403,9.35,2021-12-17 17:33:35.937500
2404,11.02,2021-12-17 17:33:35.953125
2405,12.2,2021-12-17 17:33:35.968750
2406,12.98,2021-12-17 17:33:35.984375
2407,13.43,2021-12-17 17:33:36.000000
2408,13.61,2021-12-17 17:33:36.015625
2409,13.61,2021-12-17 17:33:36.031250
2410,13.57,2021-12-17 17:33:36.046875
2411,13.58,2021-12-17 17:33:36.062500
2412,13.7,2021-12-17 17:33:36.078125
2413,13.88,2021-12-17 17:33:36.093750
2414,14.03,2021-12-17 17:33:36.109375
2415,14.04,2021-12-17 17:33:36.125000
2416,13.85,2021-12-17 17:33:36.140625
2417,13.48,2021-12-17 17:33:36.156250
2418,12.94,2021-12-17 17:33:36.171875
2419,12.26,2021-12-17 17:33:36.187500
2420,11.4,2021-12-17 17:33:36.203125
2421,10.35,2021-12-17 17:33:36.218750
2422,9.13,2021-12-17 17:33:36.234375
2423,7.79,2021-12-17 17:33:36.250000
2424,6.44,2021-12-17 17:33:36.265625
2425,5.15,2021-12-17 17:33:36.281250
2426,3.97,2021-12-17 17:33:36.296875
2427,2.92,2021-12-17 17:33:36.312500
2428,1.95,2021-12-17 17:33:36.328125
2429,1.05,2021-12-17 17:33:36.343750
2430,0.24,2021-12-17 17:33:36.359375
2431,-0.51,2021-12-17 17:33:36.375000
2432,-1.24,2021-12-17 17:33:36.390625
2433,-2.0,2021-12-17 17:33:36.406250
2434,-2.86,2021-12-17 17:33:36.421875
2435,-3.85,2021-12-17 17:33:36.437500
2436,-4.92,2021-12-17 17:33:36.453125
2437,-5.96,2021-12-17 17:33:36.468750
2438,-6.85,2021-12-17 17:33:36.484375
2439,-7.53,2021-12-17 17:33:36.500000
2440,-8.04,2021-12-17 17:33:36.515625
2441,-8.51,2021-12-17 17:33:36.531250
2442,-9.19,2021-12-17 17:33:36.546875
2443,-10.27,2021-12-17 17:33:36.562500
2444,-11.83,2021-12-17 17:33:36.578125
2445,-13.74,2021-12-17 17:33:36.593750
2446,-15.65,2021-12-17 17:33:36.609375
2447,-17.05,2021-12-17 17:33:36.625000
2448,-17.51,2021-12-17 17:33:36.640625
2449,-16.82,2021-12-17 17:33:36.656250
2450,-15.1,2021-12-17 17:33:36.671875
2451,-12.75,2021-12-17 17:33:36.687500
2452,-10.24,2021-12-17 17:33:36.703125
2453,-7.89,2021-12-17 17:33:36.718750
2454,-5.7,2021-12-17 17:33:36.734375
2455,-3.47,2021-12-17 17:33:36.750000
2456,-0.92,2021-12-17 17:33:36.765625
2457,2.01,2021-12-17 17:33:36.781250
2458,5.12,2021-12-17 17:33:36.796875
2459,8.02,2021-12-17 17:33:36.812500
2460,10.33,2021-12-17 17:33:36.828125
2461,11.92,2021-12-17 17:33:36.843750
2462,12.88,2021-12-17 17:33:36.859375
2463,13.47,2021-12-17 17:33:36.875000
2464,13.92,2021-12-17 17:33:36.890625
2465,14.29,2021-12-17 17:33:36.906250
2466,14.5,2021-12-17 17:33:36.921875
2467,14.45,2021-12-17 17:33:36.937500
2468,14.08,2021-12-17 17:33:36.953125
2469,13.46,2021-12-17 17:33:36.968750
2470,12.71,2021-12-17 17:33:36.984375
2471,11.9,2021-12-17 17:33:37.000000
2472,11.08,2021-12-17 17:33:37.015625
2473,10.24,2021-12-17 17:33:37.031250
2474,9.4,2021-12-17 17:33:37.046875
2475,8.63,2021-12-17 17:33:37.062500
2476,8.02,2021-12-17 17:33:37.078125
2477,7.57,2021-12-17 17:33:37.093750
2478,7.15,2021-12-17 17:33:37.109375
2479,6.59,2021-12-17 17:33:37.125000
2480,5.7,2021-12-17 17:33:37.140625
2481,4.45,2021-12-17 17:33:37.156250
2482,2.95,2021-12-17 17:33:37.171875
2483,1.47,2021-12-17 17:33:37.187500
2484,0.26,2021-12-17 17:33:37.203125
2485,-0.55,2021-12-17 17:33:37.218750
2486,-0.99,2021-12-17 17:33:37.234375
2487,-1.27,2021-12-17 17:33:37.250000
2488,-1.64,2021-12-17 17:33:37.265625
2489,-2.28,2021-12-17 17:33:37.281250
2490,-3.24,2021-12-17 17:33:37.296875
2491,-4.39,2021-12-17 17:33:37.312500
2492,-5.54,2021-12-17 17:33:37.328125
2493,-6.53,2021-12-17 17:33:37.343750
2494,-7.28,2021-12-17 17:33:37.359375
2495,-7.81,2021-12-17 17:33:37.375000
2496,-8.24,2021-12-17 17:33:37.390625
2497,-8.7,2021-12-17 17:33:37.406250
2498,-9.33,2021-12-17 17:33:37.421875
2499,-10.2,2021-12-17 17:33:37.437500
2500,-11.34,2021-12-17 17:33:37.453125
2501,-12.71,2021-12-17 17:33:37.468750
2502,-14.14,2021-12-17 17:33:37.484375
2503,-15.4,2021-12-17 17:33:37.500000
2504,-16.21,2021-12-17 17:33:37.515625
2505,-16.32,2021-12-17 17:33:37.531250
2506,-15.57,2021-12-17 17:33:37.546875
2507,-14.0,2021-12-17 17:33:37.562500
2508,-11.76,2021-12-17 17:33:37.578125
2509,-9.07,2021-12-17 17:33:37.593750
2510,-6.18,2021-12-17 17:33:37.609375
2511,-3.26,2021-12-17 17:33:37.625000
2512,-0.43,2021-12-17 17:33:37.640625
2513,2.23,2021-12-17 17:33:37.656250
2514,4.64,2021-12-17 17:33:37.671875
2515,6.72,2021-12-17 17:33:37.687500
2516,8.43,2021-12-17 17:33:37.703125
2517,9.77,2021-12-17 17:33:37.718750
2518,10.79,2021-12-17 17:33:37.734375
2519,11.55,2021-12-17 17:33:37.750000
2520,12.09,2021-12-17 17:33:37.765625
2521,12.4,2021-12-17 17:33:37.781250
2522,12.43,2021-12-17 17:33:37.796875
2523,12.08,2021-12-17 17:33:37.812500
2524,11.32,2021-12-17 17:33:37.828125
2525,10.2,2021-12-17 17:33:37.843750
2526,8.9,2021-12-17 17:33:37.859375
2527,7.6,2021-12-17 17:33:37.875000
2528,6.45,2021-12-17 17:33:37.890625
2529,5.53,2021-12-17 17:33:37.906250
2530,4.79,2021-12-17 17:33:37.921875
2531,4.13,2021-12-17 17:33:37.937500
2532,3.4,2021-12-17 17:33:37.953125
2533,2.54,2021-12-17 17:33:37.968750
2534,1.53,2021-12-17 17:33:37.984375
2535,0.4,2021-12-17 17:33:38.000000
2536,-0.8,2021-12-17 17:33:38.015625
2537,-1.96,2021-12-17 17:33:38.031250
2538,-2.99,2021-12-17 17:33:38.046875
2539,-3.78,2021-12-17 17:33:38.062500
2540,-4.26,2021-12-17 17:33:38.078125
2541,-4.45,2021-12-17 17:33:38.093750
2542,-4.44,2021-12-17 17:33:38.109375
2543,-4.42,2021-12-17 17:33:38.125000
2544,-4.59,2021-12-17 17:33:38.140625
2545,-5.08,2021-12-17 17:33:38.156250
2546,-5.9,2021-12-17 17:33:38.171875
2547,-6.93,2021-12-17 17:33:38.187500
2548,-7.99,2021-12-17 17:33:38.203125
2549,-8.87,2021-12-17 17:33:38.218750
2550,-9.47,2021-12-17 17:33:38.234375
2551,-9.8,2021-12-17 17:33:38.250000
2552,-9.99,2021-12-17 17:33:38.265625
2553,-10.2,2021-12-17 17:33:38.281250
2554,-10.58,2021-12-17 17:33:38.296875
2555,-11.21,2021-12-17 17:33:38.312500
2556,-12.06,2021-12-17 17:33:38.328125
2557,-12.99,2021-12-17 17:33:38.343750
2558,-13.84,2021-12-17 17:33:38.359375
2559,-14.41,2021-12-17 17:33:38.375000
2560,-14.51,2021-12-17 17:33:38.390625
2561,-14.01,2021-12-17 17:33:38.406250
2562,-12.84,2021-12-17 17:33:38.421875
2563,-11.02,2021-12-17 17:33:38.437500
2564,-8.66,2021-12-17 17:33:38.453125
2565,-5.93,2021-12-17 17:33:38.468750
2566,-3.06,2021-12-17 17:33:38.484375
2567,-0.26,2021-12-17 17:33:38.500000
2568,2.28,2021-12-17 17:33:38.515625
2569,4.43,2021-12-17 17:33:38.531250
2570,6.13,2021-12-17 17:33:38.546875
2571,7.4,2021-12-17 17:33:38.562500
2572,8.3,2021-12-17 17:33:38.578125
2573,8.94,2021-12-17 17:33:38.593750
2574,9.43,2021-12-17 17:33:38.609375
2575,9.82,2021-12-17 17:33:38.625000
2576,10.08,2021-12-17 17:33:38.640625
2577,10.13,2021-12-17 17:33:38.656250
2578,9.9,2021-12-17 17:33:38.671875
2579,9.41,2021-12-17 17:33:38.687500
2580,8.74,2021-12-17 17:33:38.703125
2581,8.06,2021-12-17 17:33:38.718750
2582,7.48,2021-12-17 17:33:38.734375
2583,7.06,2021-12-17 17:33:38.750000
2584,6.69,2021-12-17 17:33:38.765625
2585,6.25,2021-12-17 17:33:38.781250
2586,5.66,2021-12-17 17:33:38.796875
2587,4.93,2021-12-17 17:33:38.812500
2588,4.14,2021-12-17 17:33:38.828125
2589,3.44,2021-12-17 17:33:38.843750
2590,2.92,2021-12-17 17:33:38.859375
2591,2.56,2021-12-17 17:33:38.875000
2592,2.31,2021-12-17 17:33:38.890625
2593,2.04,2021-12-17 17:33:38.906250
2594,1.69,2021-12-17 17:33:38.921875
2595,1.22,2021-12-17 17:33:38.937500
2596,0.59,2021-12-17 17:33:38.953125
2597,-0.22,2021-12-17 17:33:38.968750
2598,-1.23,2021-12-17 17:33:38.984375
2599,-2.39,2021-12-17 17:33:39.000000
2600,-3.61,2021-12-17 17:33:39.015625
2601,-4.77,2021-12-17 17:33:39.031250
2602,-5.79,2021-12-17 17:33:39.046875
2603,-6.63,2021-12-17 17:33:39.062500
2604,-7.31,2021-12-17 17:33:39.078125
2605,-7.91,2021-12-17 17:33:39.093750
2606,-8.53,2021-12-17 17:33:39.109375
2607,-9.24,2021-12-17 17:33:39.125000
2608,-10.14,2021-12-17 17:33:39.140625
2609,-11.28,2021-12-17 17:33:39.156250
2610,-12.66,2021-12-17 17:33:39.171875
2611,-14.19,2021-12-17 17:33:39.187500
2612,-15.72,2021-12-17 17:33:39.203125
2613,-17.02,2021-12-17 17:33:39.218750
2614,-17.92,2021-12-17 17:33:39.234375
2615,-18.32,2021-12-17 17:33:39.250000
2616,-18.19,2021-12-17 17:33:39.265625
2617,-17.59,2021-12-17 17:33:39.281250
2618,-16.56,2021-12-17 17:33:39.296875
2619,-15.14,2021-12-17 17:33:39.312500
2620,-13.34,2021-12-17 17:33:39.328125
2621,-11.18,2021-12-17 17:33:39.343750
2622,-8.71,2021-12-17 17:33:39.359375
2623,-6.04,2021-12-17 17:33:39.375000
2624,-3.32,2021-12-17 17:33:39.390625
2625,-0.72,2021-12-17 17:33:39.406250
2626,1.61,2021-12-17 17:33:39.421875
2627,3.58,2021-12-17 17:33:39.437500
2628,5.15,2021-12-17 17:33:39.453125
2629,6.32,2021-12-17 17:33:39.468750
2630,7.13,2021-12-17 17:33:39.484375
2631,7.61,2021-12-17 17:33:39.500000
2632,7.83,2021-12-17 17:33:39.515625
2633,7.9,2021-12-17 17:33:39.531250
2634,7.91,2021-12-17 17:33:39.546875
2635,7.93,2021-12-17 17:33:39.562500
2636,7.97,2021-12-17 17:33:39.578125
2637,7.98,2021-12-17 17:33:39.593750
2638,7.84,2021-12-17 17:33:39.609375
2639,7.48,2021-12-17 17:33:39.625000
2640,6.88,2021-12-17 17:33:39.640625
2641,6.09,2021-12-17 17:33:39.656250
2642,5.18,2021-12-17 17:33:39.671875
2643,4.18,2021-12-17 17:33:39.687500
2644,3.11,2021-12-17 17:33:39.703125
2645,2.0,2021-12-17 17:33:39.718750
2646,0.86,2021-12-17 17:33:39.734375
2647,-0.21,2021-12-17 17:33:39.750000
2648,-1.14,2021-12-17 17:33:39.765625
2649,-1.87,2021-12-17 17:33:39.781250
2650,-2.41,2021-12-17 17:33:39.796875
2651,-2.84,2021-12-17 17:33:39.812500
2652,-3.26,2021-12-17 17:33:39.828125
2653,-3.71,2021-12-17 17:33:39.843750
2654,-4.23,2021-12-17 17:33:39.859375
2655,-4.83,2021-12-17 17:33:39.875000
2656,-5.51,2021-12-17 17:33:39.890625
2657,-6.28,2021-12-17 17:33:39.906250
2658,-7.11,2021-12-17 17:33:39.921875
2659,-7.95,2021-12-17 17:33:39.937500
2660,-8.7,2021-12-17 17:33:39.953125
2661,-9.28,2021-12-17 17:33:39.968750
2662,-9.68,2021-12-17 17:33:39.984375
2663,-10.0,2021-12-17 17:33:40.000000
2664,-10.42,2021-12-17 17:33:40.015625
2665,-11.12,2021-12-17 17:33:40.031250
2666,-12.19,2021-12-17 17:33:40.046875
2667,-13.48,2021-12-17 17:33:40.062500
2668,-14.7,2021-12-17 17:33:40.078125
2669,-15.43,2021-12-17 17:33:40.093750
2670,-15.37,2021-12-17 17:33:40.109375
2671,-14.4,2021-12-17 17:33:40.125000
2672,-12.66,2021-12-17 17:33:40.140625
2673,-10.42,2021-12-17 17:33:40.156250
2674,-8.0,2021-12-17 17:33:40.171875
2675,-5.59,2021-12-17 17:33:40.187500
2676,-3.23,2021-12-17 17:33:40.203125
2677,-0.91,2021-12-17 17:33:40.218750
2678,1.41,2021-12-17 17:33:40.234375
2679,3.69,2021-12-17 17:33:40.250000
2680,5.8,2021-12-17 17:33:40.265625
2681,7.58,2021-12-17 17:33:40.281250
2682,8.9,2021-12-17 17:33:40.296875
2683,9.74,2021-12-17 17:33:40.312500
2684,10.18,2021-12-17 17:33:40.328125
2685,10.41,2021-12-17 17:33:40.343750
2686,10.62,2021-12-17 17:33:40.359375
2687,10.92,2021-12-17 17:33:40.375000
2688,11.3,2021-12-17 17:33:40.390625
2689,11.61,2021-12-17 17:33:40.406250
2690,11.7,2021-12-17 17:33:40.421875
2691,11.48,2021-12-17 17:33:40.437500
2692,10.99,2021-12-17 17:33:40.453125
2693,10.38,2021-12-17 17:33:40.468750
2694,9.84,2021-12-17 17:33:40.484375
2695,9.5,2021-12-17 17:33:40.500000
2696,9.32,2021-12-17 17:33:40.515625
2697,9.2,2021-12-17 17:33:40.531250
2698,8.93,2021-12-17 17:33:40.546875
2699,8.39,2021-12-17 17:33:40.562500
2700,7.54,2021-12-17 17:33:40.578125
2701,6.42,2021-12-17 17:33:40.593750
2702,5.12,2021-12-17 17:33:40.609375
2703,3.75,2021-12-17 17:33:40.625000
2704,2.42,2021-12-17 17:33:40.640625
2705,1.23,2021-12-17 17:33:40.656250
2706,0.24,2021-12-17 17:33:40.671875
2707,-0.53,2021-12-17 17:33:40.687500
2708,-1.13,2021-12-17 17:33:40.703125
2709,-1.69,2021-12-17 17:33:40.718750
2710,-2.34,2021-12-17 17:33:40.734375
2711,-3.18,2021-12-17 17:33:40.750000
2712,-4.22,2021-12-17 17:33:40.765625
2713,-5.4,2021-12-17 17:33:40.781250
2714,-6.61,2021-12-17 17:33:40.796875
2715,-7.73,2021-12-17 17:33:40.812500
2716,-8.68,2021-12-17 17:33:40.828125
2717,-9.43,2021-12-17 17:33:40.843750
2718,-10.01,2021-12-17 17:33:40.859375
2719,-10.51,2021-12-17 17:33:40.875000
2720,-10.98,2021-12-17 17:33:40.890625
2721,-11.46,2021-12-17 17:33:40.906250
2722,-11.85,2021-12-17 17:33:40.921875
2723,-11.99,2021-12-17 17:33:40.937500
2724,-11.67,2021-12-17 17:33:40.953125
2725,-10.75,2021-12-17 17:33:40.968750
2726,-9.24,2021-12-17 17:33:40.984375
2727,-7.3,2021-12-17 17:33:41.000000
2728,-5.13,2021-12-17 17:33:41.015625
2729,-2.92,2021-12-17 17:33:41.031250
2730,-0.71,2021-12-17 17:33:41.046875
2731,1.58,2021-12-17 17:33:41.062500
2732,4.06,2021-12-17 17:33:41.078125
2733,6.78,2021-12-17 17:33:41.093750
2734,9.68,2021-12-17 17:33:41.109375
2735,12.58,2021-12-17 17:33:41.125000
2736,15.29,2021-12-17 17:33:41.140625
2737,17.73,2021-12-17 17:33:41.156250
2738,19.91,2021-12-17 17:33:41.171875
2739,21.92,2021-12-17 17:33:41.187500
2740,23.88,2021-12-17 17:33:41.203125
2741,25.83,2021-12-17 17:33:41.218750
2742,27.73,2021-12-17 17:33:41.234375
2743,29.48,2021-12-17 17:33:41.250000
2744,30.88,2021-12-17 17:33:41.265625
2745,31.78,2021-12-17 17:33:41.281250
2746,32.06,2021-12-17 17:33:41.296875
2747,31.64,2021-12-17 17:33:41.312500
2748,30.54,2021-12-17 17:33:41.328125
2749,28.81,2021-12-17 17:33:41.343750
2750,26.54,2021-12-17 17:33:41.359375
2751,23.78,2021-12-17 17:33:41.375000
2752,20.61,2021-12-17 17:33:41.390625
2753,17.14,2021-12-17 17:33:41.406250
2754,13.53,2021-12-17 17:33:41.421875
2755,9.99,2021-12-17 17:33:41.437500
2756,6.66,2021-12-17 17:33:41.453125
2757,3.61,2021-12-17 17:33:41.468750
2758,0.79,2021-12-17 17:33:41.484375
2759,-1.93,2021-12-17 17:33:41.500000
2760,-4.63,2021-12-17 17:33:41.515625
2761,-7.26,2021-12-17 17:33:41.531250
2762,-9.68,2021-12-17 17:33:41.546875
2763,-11.7,2021-12-17 17:33:41.562500
2764,-13.22,2021-12-17 17:33:41.578125
2765,-14.28,2021-12-17 17:33:41.593750
2766,-14.99,2021-12-17 17:33:41.609375
2767,-15.47,2021-12-17 17:33:41.625000
2768,-15.79,2021-12-17 17:33:41.640625
2769,-15.94,2021-12-17 17:33:41.656250
2770,-15.94,2021-12-17 17:33:41.671875
2771,-15.86,2021-12-17 17:33:41.687500
2772,-15.89,2021-12-17 17:33:41.703125
2773,-16.2,2021-12-17 17:33:41.718750
2774,-16.89,2021-12-17 17:33:41.734375
2775,-17.92,2021-12-17 17:33:41.750000
2776,-19.2,2021-12-17 17:33:41.765625
2777,-20.52,2021-12-17 17:33:41.781250
2778,-21.72,2021-12-17 17:33:41.796875
2779,-22.64,2021-12-17 17:33:41.812500
2780,-23.12,2021-12-17 17:33:41.828125
2781,-23.0,2021-12-17 17:33:41.843750
2782,-22.16,2021-12-17 17:33:41.859375
2783,-20.63,2021-12-17 17:33:41.875000
2784,-18.54,2021-12-17 17:33:41.890625
2785,-16.11,2021-12-17 17:33:41.906250
2786,-13.57,2021-12-17 17:33:41.921875
2787,-11.01,2021-12-17 17:33:41.937500
2788,-8.44,2021-12-17 17:33:41.953125
2789,-5.77,2021-12-17 17:33:41.968750
2790,-2.98,2021-12-17 17:33:41.984375
2791,-0.14,2021-12-17 17:33:42.000000
2792,2.53,2021-12-17 17:33:42.015625
2793,4.82,2021-12-17 17:33:42.031250
2794,6.53,2021-12-17 17:33:42.046875
2795,7.66,2021-12-17 17:33:42.062500
2796,8.32,2021-12-17 17:33:42.078125
2797,8.71,2021-12-17 17:33:42.093750
2798,9.02,2021-12-17 17:33:42.109375
2799,9.33,2021-12-17 17:33:42.125000
2800,9.62,2021-12-17 17:33:42.140625
2801,9.82,2021-12-17 17:33:42.156250
2802,9.84,2021-12-17 17:33:42.171875
2803,9.69,2021-12-17 17:33:42.187500
2804,9.41,2021-12-17 17:33:42.203125
2805,9.1,2021-12-17 17:33:42.218750
2806,8.81,2021-12-17 17:33:42.234375
2807,8.56,2021-12-17 17:33:42.250000
2808,8.33,2021-12-17 17:33:42.265625
2809,8.1,2021-12-17 17:33:42.281250
2810,7.87,2021-12-17 17:33:42.296875
2811,7.66,2021-12-17 17:33:42.312500
2812,7.44,2021-12-17 17:33:42.328125
2813,7.19,2021-12-17 17:33:42.343750
2814,6.82,2021-12-17 17:33:42.359375
2815,6.29,2021-12-17 17:33:42.375000
2816,5.59,2021-12-17 17:33:42.390625
2817,4.76,2021-12-17 17:33:42.406250
2818,3.88,2021-12-17 17:33:42.421875
2819,2.99,2021-12-17 17:33:42.437500
2820,2.13,2021-12-17 17:33:42.453125
2821,1.27,2021-12-17 17:33:42.468750
2822,0.36,2021-12-17 17:33:42.484375
2823,-0.66,2021-12-17 17:33:42.500000
2824,-1.84,2021-12-17 17:33:42.515625
2825,-3.15,2021-12-17 17:33:42.531250
2826,-4.59,2021-12-17 17:33:42.546875
2827,-6.11,2021-12-17 17:33:42.562500
2828,-7.65,2021-12-17 17:33:42.578125
2829,-9.23,2021-12-17 17:33:42.593750
2830,-10.87,2021-12-17 17:33:42.609375
2831,-12.56,2021-12-17 17:33:42.625000
2832,-14.23,2021-12-17 17:33:42.640625
2833,-15.68,2021-12-17 17:33:42.656250
2834,-16.68,2021-12-17 17:33:42.671875
2835,-16.98,2021-12-17 17:33:42.687500
2836,-16.48,2021-12-17 17:33:42.703125
2837,-15.22,2021-12-17 17:33:42.718750
2838,-13.36,2021-12-17 17:33:42.734375
2839,-11.1,2021-12-17 17:33:42.750000
2840,-8.6,2021-12-17 17:33:42.765625
2841,-5.93,2021-12-17 17:33:42.781250
2842,-3.09,2021-12-17 17:33:42.796875
2843,-0.12,2021-12-17 17:33:42.812500
2844,2.89,2021-12-17 17:33:42.828125
2845,5.77,2021-12-17 17:33:42.843750
2846,8.35,2021-12-17 17:33:42.859375
2847,10.46,2021-12-17 17:33:42.875000
2848,12.04,2021-12-17 17:33:42.890625
2849,13.11,2021-12-17 17:33:42.906250
2850,13.74,2021-12-17 17:33:42.921875
2851,14.08,2021-12-17 17:33:42.937500
2852,14.25,2021-12-17 17:33:42.953125
2853,14.36,2021-12-17 17:33:42.968750
2854,14.45,2021-12-17 17:33:42.984375
2855,14.48,2021-12-17 17:33:43.000000
2856,14.35,2021-12-17 17:33:43.015625
2857,13.95,2021-12-17 17:33:43.031250
2858,13.22,2021-12-17 17:33:43.046875
2859,12.19,2021-12-17 17:33:43.062500
2860,10.94,2021-12-17 17:33:43.078125
2861,9.6,2021-12-17 17:33:43.093750
2862,8.28,2021-12-17 17:33:43.109375
2863,7.05,2021-12-17 17:33:43.125000
2864,5.92,2021-12-17 17:33:43.140625
2865,4.9,2021-12-17 17:33:43.156250
2866,4.0,2021-12-17 17:33:43.171875
2867,3.22,2021-12-17 17:33:43.187500
2868,2.58,2021-12-17 17:33:43.203125
2869,2.05,2021-12-17 17:33:43.218750
2870,1.57,2021-12-17 17:33:43.234375
2871,1.03,2021-12-17 17:33:43.250000
2872,0.34,2021-12-17 17:33:43.265625
2873,-0.59,2021-12-17 17:33:43.281250
2874,-1.76,2021-12-17 17:33:43.296875
2875,-3.11,2021-12-17 17:33:43.312500
2876,-4.54,2021-12-17 17:33:43.328125
2877,-5.93,2021-12-17 17:33:43.343750
2878,-7.19,2021-12-17 17:33:43.359375
2879,-8.32,2021-12-17 17:33:43.375000
2880,-9.41,2021-12-17 17:33:43.390625
2881,-10.59,2021-12-17 17:33:43.406250
2882,-11.97,2021-12-17 17:33:43.421875
2883,-13.64,2021-12-17 17:33:43.437500
2884,-15.52,2021-12-17 17:33:43.453125
2885,-17.46,2021-12-17 17:33:43.468750
2886,-19.2,2021-12-17 17:33:43.484375
2887,-20.52,2021-12-17 17:33:43.500000
2888,-21.21,2021-12-17 17:33:43.515625
2889,-21.17,2021-12-17 17:33:43.531250
2890,-20.4,2021-12-17 17:33:43.546875
2891,-18.94,2021-12-17 17:33:43.562500
2892,-16.92,2021-12-17 17:33:43.578125
2893,-14.5,2021-12-17 17:33:43.593750
2894,-11.83,2021-12-17 17:33:43.609375
2895,-9.01,2021-12-17 17:33:43.625000
2896,-6.15,2021-12-17 17:33:43.640625
2897,-3.27,2021-12-17 17:33:43.656250
2898,-0.43,2021-12-17 17:33:43.671875
2899,2.34,2021-12-17 17:33:43.687500
2900,4.94,2021-12-17 17:33:43.703125
2901,7.27,2021-12-17 17:33:43.718750
2902,9.21,2021-12-17 17:33:43.734375
2903,10.7,2021-12-17 17:33:43.750000
2904,11.73,2021-12-17 17:33:43.765625
2905,12.35,2021-12-17 17:33:43.781250
2906,12.63,2021-12-17 17:33:43.796875
2907,12.66,2021-12-17 17:33:43.812500
2908,12.52,2021-12-17 17:33:43.828125
2909,12.32,2021-12-17 17:33:43.843750
2910,12.18,2021-12-17 17:33:43.859375
2911,12.18,2021-12-17 17:33:43.875000
2912,12.38,2021-12-17 17:33:43.890625
2913,12.7,2021-12-17 17:33:43.906250
2914,12.95,2021-12-17 17:33:43.921875
2915,12.92,2021-12-17 17:33:43.937500
2916,12.42,2021-12-17 17:33:43.953125
2917,11.39,2021-12-17 17:33:43.968750
2918,9.91,2021-12-17 17:33:43.984375
2919,8.18,2021-12-17 17:33:44.000000
2920,6.39,2021-12-17 17:33:44.015625
2921,4.68,2021-12-17 17:33:44.031250
2922,3.08,2021-12-17 17:33:44.046875
2923,1.53,2021-12-17 17:33:44.062500
2924,-0.05,2021-12-17 17:33:44.078125
2925,-1.75,2021-12-17 17:33:44.093750
2926,-3.58,2021-12-17 17:33:44.109375
2927,-5.49,2021-12-17 17:33:44.125000
2928,-7.4,2021-12-17 17:33:44.140625
2929,-9.16,2021-12-17 17:33:44.156250
2930,-10.66,2021-12-17 17:33:44.171875
2931,-11.84,2021-12-17 17:33:44.187500
2932,-12.72,2021-12-17 17:33:44.203125
2933,-13.47,2021-12-17 17:33:44.218750
2934,-14.31,2021-12-17 17:33:44.234375
2935,-15.5,2021-12-17 17:33:44.250000
2936,-17.19,2021-12-17 17:33:44.265625
2937,-19.31,2021-12-17 17:33:44.281250
2938,-21.62,2021-12-17 17:33:44.296875
2939,-23.73,2021-12-17 17:33:44.312500
2940,-25.3,2021-12-17 17:33:44.328125
2941,-26.03,2021-12-17 17:33:44.343750
2942,-25.88,2021-12-17 17:33:44.359375
2943,-24.94,2021-12-17 17:33:44.375000
2944,-23.42,2021-12-17 17:33:44.390625
2945,-21.56,2021-12-17 17:33:44.406250
2946,-19.52,2021-12-17 17:33:44.421875
2947,-17.41,2021-12-17 17:33:44.437500
2948,-15.22,2021-12-17 17:33:44.453125
2949,-12.94,2021-12-17 17:33:44.468750
2950,-10.61,2021-12-17 17:33:44.484375
2951,-8.35,2021-12-17 17:33:44.500000
2952,-6.35,2021-12-17 17:33:44.515625
2953,-4.84,2021-12-17 17:33:44.531250
2954,-3.93,2021-12-17 17:33:44.546875
2955,-3.66,2021-12-17 17:33:44.562500
2956,-3.89,2021-12-17 17:33:44.578125
2957,-4.41,2021-12-17 17:33:44.593750
2958,-5.03,2021-12-17 17:33:44.609375
2959,-5.63,2021-12-17 17:33:44.625000
2960,-6.23,2021-12-17 17:33:44.640625
2961,-6.94,2021-12-17 17:33:44.656250
2962,-7.86,2021-12-17 17:33:44.671875
2963,-9.05,2021-12-17 17:33:44.687500
2964,-10.47,2021-12-17 17:33:44.703125
2965,-12.0,2021-12-17 17:33:44.718750
2966,-13.44,2021-12-17 17:33:44.734375
2967,-14.68,2021-12-17 17:33:44.750000
2968,-15.59,2021-12-17 17:33:44.765625
2969,-16.18,2021-12-17 17:33:44.781250
2970,-16.5,2021-12-17 17:33:44.796875
2971,-16.64,2021-12-17 17:33:44.812500
2972,-16.73,2021-12-17 17:33:44.828125
2973,-16.87,2021-12-17 17:33:44.843750
2974,-17.08,2021-12-17 17:33:44.859375
2975,-17.32,2021-12-17 17:33:44.875000
2976,-17.48,2021-12-17 17:33:44.890625
2977,-17.44,2021-12-17 17:33:44.906250
2978,-17.14,2021-12-17 17:33:44.921875
2979,-16.68,2021-12-17 17:33:44.937500
2980,-16.18,2021-12-17 17:33:44.953125
2981,-15.81,2021-12-17 17:33:44.968750
2982,-15.59,2021-12-17 17:33:44.984375
2983,-15.44,2021-12-17 17:33:45.000000
2984,-15.17,2021-12-17 17:33:45.015625
2985,-14.69,2021-12-17 17:33:45.031250
2986,-14.09,2021-12-17 17:33:45.046875
2987,-13.64,2021-12-17 17:33:45.062500
2988,-13.62,2021-12-17 17:33:45.078125
2989,-14.18,2021-12-17 17:33:45.093750
2990,-15.16,2021-12-17 17:33:45.109375
2991,-16.15,2021-12-17 17:33:45.125000
2992,-16.6,2021-12-17 17:33:45.140625
2993,-16.11,2021-12-17 17:33:45.156250
2994,-14.47,2021-12-17 17:33:45.171875
2995,-11.82,2021-12-17 17:33:45.187500
2996,-8.44,2021-12-17 17:33:45.203125
2997,-4.69,2021-12-17 17:33:45.218750
2998,-0.89,2021-12-17 17:33:45.234375
2999,2.77,2021-12-17 17:33:45.250000
3000,6.21,2021-12-17 17:33:45.265625
3001,9.46,2021-12-17 17:33:45.281250
3002,12.61,2021-12-17 17:33:45.296875
3003,15.79,2021-12-17 17:33:45.312500
3004,19.05,2021-12-17 17:33:45.328125
3005,22.3,2021-12-17 17:33:45.343750
3006,25.34,2021-12-17 17:33:45.359375
3007,27.87,2021-12-17 17:33:45.375000
3008,29.64,2021-12-17 17:33:45.390625
3009,30.54,2021-12-17 17:33:45.406250
3010,30.62,2021-12-17 17:33:45.421875
3011,30.07,2021-12-17 17:33:45.437500
3012,29.15,2021-12-17 17:33:45.453125
3013,28.05,2021-12-17 17:33:45.468750
3014,26.88,2021-12-17 17:33:45.484375
3015,25.73,2021-12-17 17:33:45.500000
3016,24.61,2021-12-17 17:33:45.515625
3017,23.57,2021-12-17 17:33:45.531250
3018,22.59,2021-12-17 17:33:45.546875
3019,21.62,2021-12-17 17:33:45.562500
3020,20.58,2021-12-17 17:33:45.578125
3021,19.35,2021-12-17 17:33:45.593750
3022,17.9,2021-12-17 17:33:45.609375
3023,16.26,2021-12-17 17:33:45.625000
3024,14.57,2021-12-17 17:33:45.640625
3025,12.96,2021-12-17 17:33:45.656250
3026,11.52,2021-12-17 17:33:45.671875
3027,10.27,2021-12-17 17:33:45.687500
3028,9.14,2021-12-17 17:33:45.703125
3029,8.02,2021-12-17 17:33:45.718750
3030,6.83,2021-12-17 17:33:45.734375
3031,5.53,2021-12-17 17:33:45.750000
3032,4.14,2021-12-17 17:33:45.765625
3033,2.67,2021-12-17 17:33:45.781250
3034,1.17,2021-12-17 17:33:45.796875
3035,-0.33,2021-12-17 17:33:45.812500
3036,-1.81,2021-12-17 17:33:45.828125
3037,-3.29,2021-12-17 17:33:45.843750
3038,-4.84,2021-12-17 17:33:45.859375
3039,-6.6,2021-12-17 17:33:45.875000
3040,-8.68,2021-12-17 17:33:45.890625
3041,-11.08,2021-12-17 17:33:45.906250
3042,-13.66,2021-12-17 17:33:45.921875
3043,-16.09,2021-12-17 17:33:45.937500
3044,-17.91,2021-12-17 17:33:45.953125
3045,-18.73,2021-12-17 17:33:45.968750
3046,-18.3,2021-12-17 17:33:45.984375
3047,-16.63,2021-12-17 17:33:46.000000
3048,-13.92,2021-12-17 17:33:46.015625
3049,-10.49,2021-12-17 17:33:46.031250
3050,-6.67,2021-12-17 17:33:46.046875
3051,-2.79,2021-12-17 17:33:46.062500
3052,0.94,2021-12-17 17:33:46.078125
3053,4.35,2021-12-17 17:33:46.093750
3054,7.4,2021-12-17 17:33:46.109375
3055,10.12,2021-12-17 17:33:46.125000
3056,12.63,2021-12-17 17:33:46.140625
3057,15.04,2021-12-17 17:33:46.156250
3058,17.4,2021-12-17 17:33:46.171875
3059,19.66,2021-12-17 17:33:46.187500
3060,21.63,2021-12-17 17:33:46.203125
3061,23.16,2021-12-17 17:33:46.218750
3062,24.14,2021-12-17 17:33:46.234375
3063,24.59,2021-12-17 17:33:46.250000
3064,24.66,2021-12-17 17:33:46.265625
3065,24.48,2021-12-17 17:33:46.281250
3066,24.17,2021-12-17 17:33:46.296875
3067,23.72,2021-12-17 17:33:46.312500
3068,23.09,2021-12-17 17:33:46.328125
3069,22.19,2021-12-17 17:33:46.343750
3070,21.01,2021-12-17 17:33:46.359375
3071,19.56,2021-12-17 17:33:46.375000
3072,17.95,2021-12-17 17:33:46.390625
3073,16.29,2021-12-17 17:33:46.406250
3074,14.63,2021-12-17 17:33:46.421875
3075,12.98,2021-12-17 17:33:46.437500
3076,11.31,2021-12-17 17:33:46.453125
3077,9.56,2021-12-17 17:33:46.468750
3078,7.71,2021-12-17 17:33:46.484375
3079,5.81,2021-12-17 17:33:46.500000
3080,3.9,2021-12-17 17:33:46.515625
3081,2.06,2021-12-17 17:33:46.531250
3082,0.31,2021-12-17 17:33:46.546875
3083,-1.39,2021-12-17 17:33:46.562500
3084,-3.06,2021-12-17 17:33:46.578125
3085,-4.77,2021-12-17 17:33:46.593750
3086,-6.53,2021-12-17 17:33:46.609375
3087,-8.31,2021-12-17 17:33:46.625000
3088,-10.06,2021-12-17 17:33:46.640625
3089,-11.76,2021-12-17 17:33:46.656250
3090,-13.43,2021-12-17 17:33:46.671875
3091,-15.19,2021-12-17 17:33:46.687500
3092,-17.12,2021-12-17 17:33:46.703125
3093,-19.28,2021-12-17 17:33:46.718750
3094,-21.57,2021-12-17 17:33:46.734375
3095,-23.78,2021-12-17 17:33:46.750000
3096,-25.52,2021-12-17 17:33:46.765625
3097,-26.46,2021-12-17 17:33:46.781250
3098,-26.32,2021-12-17 17:33:46.796875
3099,-25.03,2021-12-17 17:33:46.812500
3100,-22.68,2021-12-17 17:33:46.828125
3101,-19.5,2021-12-17 17:33:46.843750
3102,-15.74,2021-12-17 17:33:46.859375
3103,-11.65,2021-12-17 17:33:46.875000
3104,-7.39,2021-12-17 17:33:46.890625
3105,-3.06,2021-12-17 17:33:46.906250
3106,1.27,2021-12-17 17:33:46.921875
3107,5.54,2021-12-17 17:33:46.937500
3108,9.7,2021-12-17 17:33:46.953125
3109,13.67,2021-12-17 17:33:46.968750
3110,17.35,2021-12-17 17:33:46.984375
3111,20.6,2021-12-17 17:33:47.000000
3112,23.27,2021-12-17 17:33:47.015625
3113,25.25,2021-12-17 17:33:47.031250
3114,26.5,2021-12-17 17:33:47.046875
3115,27.07,2021-12-17 17:33:47.062500
3116,27.1,2021-12-17 17:33:47.078125
3117,26.77,2021-12-17 17:33:47.093750
3118,26.26,2021-12-17 17:33:47.109375
3119,25.72,2021-12-17 17:33:47.125000
3120,25.2,2021-12-17 17:33:47.140625
3121,24.68,2021-12-17 17:33:47.156250
3122,24.11,2021-12-17 17:33:47.171875
3123,23.36,2021-12-17 17:33:47.187500
3124,22.34,2021-12-17 17:33:47.203125
3125,20.96,2021-12-17 17:33:47.218750
3126,19.23,2021-12-17 17:33:47.234375
3127,17.21,2021-12-17 17:33:47.250000
3128,15.05,2021-12-17 17:33:47.265625
3129,12.92,2021-12-17 17:33:47.281250
3130,10.93,2021-12-17 17:33:47.296875
3131,9.11,2021-12-17 17:33:47.312500
3132,7.38,2021-12-17 17:33:47.328125
3133,5.64,2021-12-17 17:33:47.343750
3134,3.77,2021-12-17 17:33:47.359375
3135,1.69,2021-12-17 17:33:47.375000
3136,-0.59,2021-12-17 17:33:47.390625
3137,-3.03,2021-12-17 17:33:47.406250
3138,-5.49,2021-12-17 17:33:47.421875
3139,-7.88,2021-12-17 17:33:47.437500
3140,-10.05,2021-12-17 17:33:47.453125
3141,-11.93,2021-12-17 17:33:47.468750
3142,-13.52,2021-12-17 17:33:47.484375
3143,-14.97,2021-12-17 17:33:47.500000
3144,-16.48,2021-12-17 17:33:47.515625
3145,-18.33,2021-12-17 17:33:47.531250
3146,-20.67,2021-12-17 17:33:47.546875
3147,-23.48,2021-12-17 17:33:47.562500
3148,-26.48,2021-12-17 17:33:47.578125
3149,-29.22,2021-12-17 17:33:47.593750
3150,-31.24,2021-12-17 17:33:47.609375
3151,-32.16,2021-12-17 17:33:47.625000
3152,-31.87,2021-12-17 17:33:47.640625
3153,-30.42,2021-12-17 17:33:47.656250
3154,-28.07,2021-12-17 17:33:47.671875
3155,-25.06,2021-12-17 17:33:47.687500
3156,-21.64,2021-12-17 17:33:47.703125
3157,-17.93,2021-12-17 17:33:47.718750
3158,-14.06,2021-12-17 17:33:47.734375
3159,-10.11,2021-12-17 17:33:47.750000
3160,-6.16,2021-12-17 17:33:47.765625
3161,-2.31,2021-12-17 17:33:47.781250
3162,1.41,2021-12-17 17:33:47.796875
3163,4.92,2021-12-17 17:33:47.812500
3164,8.18,2021-12-17 17:33:47.828125
3165,11.12,2021-12-17 17:33:47.843750
3166,13.61,2021-12-17 17:33:47.859375
3167,15.58,2021-12-17 17:33:47.875000
3168,16.97,2021-12-17 17:33:47.890625
3169,17.82,2021-12-17 17:33:47.906250
3170,18.24,2021-12-17 17:33:47.921875
3171,18.39,2021-12-17 17:33:47.937500
3172,18.42,2021-12-17 17:33:47.953125
3173,18.49,2021-12-17 17:33:47.968750
3174,18.7,2021-12-17 17:33:47.984375
3175,19.13,2021-12-17 17:33:48.000000
3176,19.8,2021-12-17 17:33:48.015625
3177,20.59,2021-12-17 17:33:48.031250
3178,21.33,2021-12-17 17:33:48.046875
3179,21.71,2021-12-17 17:33:48.062500
3180,21.5,2021-12-17 17:33:48.078125
3181,20.56,2021-12-17 17:33:48.093750
3182,19.01,2021-12-17 17:33:48.109375
3183,17.15,2021-12-17 17:33:48.125000
3184,15.34,2021-12-17 17:33:48.140625
3185,13.84,2021-12-17 17:33:48.156250
3186,12.7,2021-12-17 17:33:48.171875
3187,11.77,2021-12-17 17:33:48.187500
3188,10.79,2021-12-17 17:33:48.203125
3189,9.52,2021-12-17 17:33:48.218750
3190,7.87,2021-12-17 17:33:48.234375
3191,5.87,2021-12-17 17:33:48.250000
