,BVP,time
0,199.14,2021-12-17 17:46:20.531250
1,180.28,2021-12-17 17:46:20.546875
2,158.96,2021-12-17 17:46:20.562500
3,135.78,2021-12-17 17:46:20.578125
4,110.83,2021-12-17 17:46:20.593750
5,85.36,2021-12-17 17:46:20.609375
6,62.46,2021-12-17 17:46:20.625000
7,45.79,2021-12-17 17:46:20.640625
8,37.4,2021-12-17 17:46:20.656250
9,36.08,2021-12-17 17:46:20.671875
10,37.59,2021-12-17 17:46:20.687500
11,36.91,2021-12-17 17:46:20.703125
12,30.85,2021-12-17 17:46:20.718750
13,19.39,2021-12-17 17:46:20.734375
14,5.01,2021-12-17 17:46:20.750000
15,-9.43,2021-12-17 17:46:20.765625
16,-22.66,2021-12-17 17:46:20.781250
17,-35.28,2021-12-17 17:46:20.796875
18,-48.36,2021-12-17 17:46:20.812500
19,-61.61,2021-12-17 17:46:20.828125
20,-72.58,2021-12-17 17:46:20.843750
21,-77.6,2021-12-17 17:46:20.859375
22,-73.78,2021-12-17 17:46:20.875000
23,-60.77,2021-12-17 17:46:20.890625
24,-41.04,2021-12-17 17:46:20.906250
25,-18.65,2021-12-17 17:46:20.921875
26,2.55,2021-12-17 17:46:20.937500
27,20.25,2021-12-17 17:46:20.953125
28,33.86,2021-12-17 17:46:20.968750
29,43.75,2021-12-17 17:46:20.984375
30,50.41,2021-12-17 17:46:21.000000
31,54.01,2021-12-17 17:46:21.015625
32,54.56,2021-12-17 17:46:21.031250
33,52.25,2021-12-17 17:46:21.046875
34,47.66,2021-12-17 17:46:21.062500
35,41.63,2021-12-17 17:46:21.078125
36,35.09,2021-12-17 17:46:21.093750
37,28.79,2021-12-17 17:46:21.109375
38,23.19,2021-12-17 17:46:21.125000
39,18.4,2021-12-17 17:46:21.140625
40,14.21,2021-12-17 17:46:21.156250
41,10.16,2021-12-17 17:46:21.171875
42,5.79,2021-12-17 17:46:21.187500
43,0.86,2021-12-17 17:46:21.203125
44,-4.47,2021-12-17 17:46:21.218750
45,-9.81,2021-12-17 17:46:21.234375
46,-14.71,2021-12-17 17:46:21.250000
47,-18.94,2021-12-17 17:46:21.265625
48,-22.66,2021-12-17 17:46:21.281250
49,-26.26,2021-12-17 17:46:21.296875
50,-30.19,2021-12-17 17:46:21.312500
51,-34.67,2021-12-17 17:46:21.328125
52,-39.72,2021-12-17 17:46:21.343750
53,-45.33,2021-12-17 17:46:21.359375
54,-51.65,2021-12-17 17:46:21.375000
55,-59.02,2021-12-17 17:46:21.390625
56,-67.71,2021-12-17 17:46:21.406250
57,-77.41,2021-12-17 17:46:21.421875
58,-86.99,2021-12-17 17:46:21.437500
59,-94.6,2021-12-17 17:46:21.453125
60,-98.33,2021-12-17 17:46:21.468750
61,-97.01,2021-12-17 17:46:21.484375
62,-90.73,2021-12-17 17:46:21.500000
63,-80.74,2021-12-17 17:46:21.515625
64,-68.94,2021-12-17 17:46:21.531250
65,-57.15,2021-12-17 17:46:21.546875
66,-46.68,2021-12-17 17:46:21.562500
67,-38.19,2021-12-17 17:46:21.578125
68,-31.9,2021-12-17 17:46:21.593750
69,-27.77,2021-12-17 17:46:21.609375
70,-25.55,2021-12-17 17:46:21.625000
71,-24.68,2021-12-17 17:46:21.640625
72,-24.38,2021-12-17 17:46:21.656250
73,-23.85,2021-12-17 17:46:21.671875
74,-22.7,2021-12-17 17:46:21.687500
75,-20.97,2021-12-17 17:46:21.703125
76,-18.95,2021-12-17 17:46:21.718750
77,-16.66,2021-12-17 17:46:21.734375
78,-13.53,2021-12-17 17:46:21.750000
79,-8.51,2021-12-17 17:46:21.765625
80,-0.72,2021-12-17 17:46:21.781250
81,9.91,2021-12-17 17:46:21.796875
82,22.28,2021-12-17 17:46:21.812500
83,34.4,2021-12-17 17:46:21.828125
84,44.13,2021-12-17 17:46:21.843750
85,49.92,2021-12-17 17:46:21.859375
86,51.14,2021-12-17 17:46:21.875000
87,47.96,2021-12-17 17:46:21.890625
88,40.96,2021-12-17 17:46:21.906250
89,30.75,2021-12-17 17:46:21.921875
90,17.94,2021-12-17 17:46:21.937500
91,3.34,2021-12-17 17:46:21.953125
92,-11.94,2021-12-17 17:46:21.968750
93,-26.58,2021-12-17 17:46:21.984375
94,-39.44,2021-12-17 17:46:22.000000
95,-49.94,2021-12-17 17:46:22.015625
96,-58.19,2021-12-17 17:46:22.031250
97,-64.76,2021-12-17 17:46:22.046875
98,-70.24,2021-12-17 17:46:22.062500
99,-74.79,2021-12-17 17:46:22.078125
100,-78.06,2021-12-17 17:46:22.093750
101,-79.25,2021-12-17 17:46:22.109375
102,-77.48,2021-12-17 17:46:22.125000
103,-72.09,2021-12-17 17:46:22.140625
104,-62.94,2021-12-17 17:46:22.156250
105,-50.46,2021-12-17 17:46:22.171875
106,-35.65,2021-12-17 17:46:22.187500
107,-19.87,2021-12-17 17:46:22.203125
108,-4.49,2021-12-17 17:46:22.218750
109,9.4,2021-12-17 17:46:22.234375
110,21.21,2021-12-17 17:46:22.250000
111,30.97,2021-12-17 17:46:22.265625
112,39.17,2021-12-17 17:46:22.281250
113,46.6,2021-12-17 17:46:22.296875
114,54.09,2021-12-17 17:46:22.312500
115,62.19,2021-12-17 17:46:22.328125
116,70.97,2021-12-17 17:46:22.343750
117,79.87,2021-12-17 17:46:22.359375
118,87.84,2021-12-17 17:46:22.375000
119,93.62,2021-12-17 17:46:22.390625
120,96.29,2021-12-17 17:46:22.406250
121,95.77,2021-12-17 17:46:22.421875
122,93.02,2021-12-17 17:46:22.437500
123,89.94,2021-12-17 17:46:22.453125
124,88.85,2021-12-17 17:46:22.468750
125,91.8,2021-12-17 17:46:22.484375
126,100.02,2021-12-17 17:46:22.500000
127,113.6,2021-12-17 17:46:22.515625
128,131.4,2021-12-17 17:46:22.531250
129,151.29,2021-12-17 17:46:22.546875
130,170.55,2021-12-17 17:46:22.562500
131,186.34,2021-12-17 17:46:22.578125
132,196.41,2021-12-17 17:46:22.593750
133,199.53,2021-12-17 17:46:22.609375
134,195.7,2021-12-17 17:46:22.625000
135,185.98,2021-12-17 17:46:22.640625
136,171.97,2021-12-17 17:46:22.656250
137,155.34,2021-12-17 17:46:22.671875
138,137.51,2021-12-17 17:46:22.687500
139,119.65,2021-12-17 17:46:22.703125
140,102.69,2021-12-17 17:46:22.718750
141,87.29,2021-12-17 17:46:22.734375
142,73.54,2021-12-17 17:46:22.750000
143,60.71,2021-12-17 17:46:22.765625
144,47.4,2021-12-17 17:46:22.781250
145,32.15,2021-12-17 17:46:22.796875
146,14.41,2021-12-17 17:46:22.812500
147,-4.81,2021-12-17 17:46:22.828125
148,-23.07,2021-12-17 17:46:22.843750
149,-37.67,2021-12-17 17:46:22.859375
150,-47.18,2021-12-17 17:46:22.875000
151,-52.52,2021-12-17 17:46:22.890625
152,-56.87,2021-12-17 17:46:22.906250
153,-64.39,2021-12-17 17:46:22.921875
154,-78.42,2021-12-17 17:46:22.937500
155,-100.1,2021-12-17 17:46:22.953125
156,-128.26,2021-12-17 17:46:22.968750
157,-160.43,2021-12-17 17:46:22.984375
158,-194.07,2021-12-17 17:46:23.000000
159,-227.13,2021-12-17 17:46:23.015625
160,-257.78,2021-12-17 17:46:23.031250
161,-283.69,2021-12-17 17:46:23.046875
162,-301.92,2021-12-17 17:46:23.062500
163,-309.85,2021-12-17 17:46:23.078125
164,-306.62,2021-12-17 17:46:23.093750
165,-294.15,2021-12-17 17:46:23.109375
166,-276.8,2021-12-17 17:46:23.125000
167,-259.58,2021-12-17 17:46:23.140625
168,-245.94,2021-12-17 17:46:23.156250
169,-236.5,2021-12-17 17:46:23.171875
170,-229.38,2021-12-17 17:46:23.187500
171,-222.0,2021-12-17 17:46:23.203125
172,-213.05,2021-12-17 17:46:23.218750
173,-203.4,2021-12-17 17:46:23.234375
174,-195.45,2021-12-17 17:46:23.250000
175,-191.29,2021-12-17 17:46:23.265625
176,-190.99,2021-12-17 17:46:23.281250
177,-191.87,2021-12-17 17:46:23.296875
178,-189.39,2021-12-17 17:46:23.312500
179,-178.79,2021-12-17 17:46:23.328125
180,-156.87,2021-12-17 17:46:23.343750
181,-122.8,2021-12-17 17:46:23.359375
182,-78.41,2021-12-17 17:46:23.375000
183,-27.62,2021-12-17 17:46:23.390625
184,24.19,2021-12-17 17:46:23.406250
185,70.95,2021-12-17 17:46:23.421875
186,107.04,2021-12-17 17:46:23.437500
187,128.8,2021-12-17 17:46:23.453125
188,135.74,2021-12-17 17:46:23.468750
189,130.74,2021-12-17 17:46:23.484375
190,118.85,2021-12-17 17:46:23.500000
191,105.18,2021-12-17 17:46:23.515625
192,93.1,2021-12-17 17:46:23.531250
193,83.7,2021-12-17 17:46:23.546875
194,76.66,2021-12-17 17:46:23.562500
195,71.7,2021-12-17 17:46:23.578125
196,69.55,2021-12-17 17:46:23.593750
197,71.54,2021-12-17 17:46:23.609375
198,78.49,2021-12-17 17:46:23.625000
199,89.61,2021-12-17 17:46:23.640625
200,102.57,2021-12-17 17:46:23.656250
201,114.63,2021-12-17 17:46:23.671875
202,123.85,2021-12-17 17:46:23.687500
203,129.37,2021-12-17 17:46:23.703125
204,130.48,2021-12-17 17:46:23.718750
205,125.69,2021-12-17 17:46:23.734375
206,112.67,2021-12-17 17:46:23.750000
207,89.68,2021-12-17 17:46:23.765625
208,57.34,2021-12-17 17:46:23.781250
209,19.59,2021-12-17 17:46:23.796875
210,-17.27,2021-12-17 17:46:23.812500
211,-47.02,2021-12-17 17:46:23.828125
212,-65.95,2021-12-17 17:46:23.843750
213,-73.97,2021-12-17 17:46:23.859375
214,-73.65,2021-12-17 17:46:23.875000
215,-68.34,2021-12-17 17:46:23.890625
216,-60.31,2021-12-17 17:46:23.906250
217,-50.08,2021-12-17 17:46:23.921875
218,-37.09,2021-12-17 17:46:23.937500
219,-20.78,2021-12-17 17:46:23.953125
220,-1.15,2021-12-17 17:46:23.968750
221,21.43,2021-12-17 17:46:23.984375
222,46.72,2021-12-17 17:46:24.000000
223,74.31,2021-12-17 17:46:24.015625
224,102.76,2021-12-17 17:46:24.031250
225,129.0,2021-12-17 17:46:24.046875
226,148.71,2021-12-17 17:46:24.062500
227,158.21,2021-12-17 17:46:24.078125
228,156.55,2021-12-17 17:46:24.093750
229,146.69,2021-12-17 17:46:24.109375
230,134.64,2021-12-17 17:46:24.125000
231,126.97,2021-12-17 17:46:24.140625
232,128.1,2021-12-17 17:46:24.156250
233,138.81,2021-12-17 17:46:24.171875
234,156.49,2021-12-17 17:46:24.187500
235,176.79,2021-12-17 17:46:24.203125
236,195.28,2021-12-17 17:46:24.218750
237,208.42,2021-12-17 17:46:24.234375
238,213.8,2021-12-17 17:46:24.250000
239,210.07,2021-12-17 17:46:24.265625
240,197.09,2021-12-17 17:46:24.281250
241,176.18,2021-12-17 17:46:24.296875
242,150.3,2021-12-17 17:46:24.312500
243,123.28,2021-12-17 17:46:24.328125
244,98.57,2021-12-17 17:46:24.343750
245,78.11,2021-12-17 17:46:24.359375
246,61.84,2021-12-17 17:46:24.375000
247,47.57,2021-12-17 17:46:24.390625
248,31.34,2021-12-17 17:46:24.406250
249,8.31,2021-12-17 17:46:24.421875
250,-25.61,2021-12-17 17:46:24.437500
251,-71.79,2021-12-17 17:46:24.453125
252,-127.21,2021-12-17 17:46:24.468750
253,-184.37,2021-12-17 17:46:24.484375
254,-233.26,2021-12-17 17:46:24.500000
255,-264.66,2021-12-17 17:46:24.515625
256,-273.73,2021-12-17 17:46:24.531250
257,-261.53,2021-12-17 17:46:24.546875
258,-234.08,2021-12-17 17:46:24.562500
259,-199.25,2021-12-17 17:46:24.578125
260,-163.19,2021-12-17 17:46:24.593750
261,-127.95,2021-12-17 17:46:24.609375
262,-91.49,2021-12-17 17:46:24.625000
263,-49.95,2021-12-17 17:46:24.640625
264,-0.89,2021-12-17 17:46:24.656250
265,54.2,2021-12-17 17:46:24.671875
266,109.85,2021-12-17 17:46:24.687500
267,157.63,2021-12-17 17:46:24.703125
268,188.85,2021-12-17 17:46:24.718750
269,197.15,2021-12-17 17:46:24.734375
270,180.01,2021-12-17 17:46:24.750000
271,138.83,2021-12-17 17:46:24.765625
272,78.22,2021-12-17 17:46:24.781250
273,5.14,2021-12-17 17:46:24.796875
274,-71.59,2021-12-17 17:46:24.812500
275,-141.45,2021-12-17 17:46:24.828125
276,-193.11,2021-12-17 17:46:24.843750
277,-216.21,2021-12-17 17:46:24.859375
278,-204.38,2021-12-17 17:46:24.875000
279,-158.21,2021-12-17 17:46:24.890625
280,-86.57,2021-12-17 17:46:24.906250
281,-4.96,2021-12-17 17:46:24.921875
282,68.89,2021-12-17 17:46:24.937500
283,120.55,2021-12-17 17:46:24.953125
284,143.22,2021-12-17 17:46:24.968750
285,138.69,2021-12-17 17:46:24.984375
286,115.35,2021-12-17 17:46:25.000000
287,84.04,2021-12-17 17:46:25.015625
288,53.7,2021-12-17 17:46:25.031250
289,28.9,2021-12-17 17:46:25.046875
290,9.72,2021-12-17 17:46:25.062500
291,-6.46,2021-12-17 17:46:25.078125
292,-22.69,2021-12-17 17:46:25.093750
293,-40.65,2021-12-17 17:46:25.109375
294,-59.98,2021-12-17 17:46:25.125000
295,-78.57,2021-12-17 17:46:25.140625
296,-93.4,2021-12-17 17:46:25.156250
297,-101.51,2021-12-17 17:46:25.171875
298,-101.08,2021-12-17 17:46:25.187500
299,-92.16,2021-12-17 17:46:25.203125
300,-76.76,2021-12-17 17:46:25.218750
301,-58.05,2021-12-17 17:46:25.234375
302,-38.49,2021-12-17 17:46:25.250000
303,-18.7,2021-12-17 17:46:25.265625
304,2.7,2021-12-17 17:46:25.281250
305,27.4,2021-12-17 17:46:25.296875
306,55.01,2021-12-17 17:46:25.312500
307,81.5,2021-12-17 17:46:25.328125
308,100.06,2021-12-17 17:46:25.343750
309,104.08,2021-12-17 17:46:25.359375
310,90.95,2021-12-17 17:46:25.375000
311,63.88,2021-12-17 17:46:25.390625
312,30.9,2021-12-17 17:46:25.406250
313,1.48,2021-12-17 17:46:25.421875
314,-16.84,2021-12-17 17:46:25.437500
315,-20.53,2021-12-17 17:46:25.453125
316,-9.9,2021-12-17 17:46:25.468750
317,12.1,2021-12-17 17:46:25.484375
318,40.7,2021-12-17 17:46:25.500000
319,69.73,2021-12-17 17:46:25.515625
320,91.99,2021-12-17 17:46:25.531250
321,100.63,2021-12-17 17:46:25.546875
322,91.46,2021-12-17 17:46:25.562500
323,65.02,2021-12-17 17:46:25.578125
324,26.88,2021-12-17 17:46:25.593750
325,-14.59,2021-12-17 17:46:25.609375
326,-51.64,2021-12-17 17:46:25.625000
327,-80.08,2021-12-17 17:46:25.640625
328,-99.82,2021-12-17 17:46:25.656250
329,-113.1,2021-12-17 17:46:25.671875
330,-121.9,2021-12-17 17:46:25.687500
331,-126.32,2021-12-17 17:46:25.703125
332,-125.0,2021-12-17 17:46:25.718750
333,-117.03,2021-12-17 17:46:25.734375
334,-103.88,2021-12-17 17:46:25.750000
335,-89.77,2021-12-17 17:46:25.765625
336,-80.2,2021-12-17 17:46:25.781250
337,-79.58,2021-12-17 17:46:25.796875
338,-88.9,2021-12-17 17:46:25.812500
339,-104.88,2021-12-17 17:46:25.828125
340,-120.82,2021-12-17 17:46:25.843750
341,-129.19,2021-12-17 17:46:25.859375
342,-124.44,2021-12-17 17:46:25.875000
343,-105.27,2021-12-17 17:46:25.890625
344,-75.22,2021-12-17 17:46:25.906250
345,-41.35,2021-12-17 17:46:25.921875
346,-11.38,2021-12-17 17:46:25.937500
347,8.93,2021-12-17 17:46:25.953125
348,17.51,2021-12-17 17:46:25.968750
349,15.98,2021-12-17 17:46:25.984375
350,8.24,2021-12-17 17:46:26.000000
351,-1.5,2021-12-17 17:46:26.015625
352,-9.96,2021-12-17 17:46:26.031250
353,-15.4,2021-12-17 17:46:26.046875
354,-17.28,2021-12-17 17:46:26.062500
355,-15.67,2021-12-17 17:46:26.078125
356,-10.87,2021-12-17 17:46:26.093750
357,-3.34,2021-12-17 17:46:26.109375
358,6.12,2021-12-17 17:46:26.125000
359,16.27,2021-12-17 17:46:26.140625
360,25.52,2021-12-17 17:46:26.156250
361,32.22,2021-12-17 17:46:26.171875
362,35.25,2021-12-17 17:46:26.187500
363,34.42,2021-12-17 17:46:26.203125
364,30.67,2021-12-17 17:46:26.218750
365,25.78,2021-12-17 17:46:26.234375
366,21.85,2021-12-17 17:46:26.250000
367,20.45,2021-12-17 17:46:26.265625
368,22.12,2021-12-17 17:46:26.281250
369,26.18,2021-12-17 17:46:26.296875
370,31.11,2021-12-17 17:46:26.312500
371,35.22,2021-12-17 17:46:26.328125
372,37.34,2021-12-17 17:46:26.343750
373,37.22,2021-12-17 17:46:26.359375
374,35.46,2021-12-17 17:46:26.375000
375,33.08,2021-12-17 17:46:26.390625
376,31.02,2021-12-17 17:46:26.406250
377,29.63,2021-12-17 17:46:26.421875
378,28.68,2021-12-17 17:46:26.437500
379,27.51,2021-12-17 17:46:26.453125
380,25.45,2021-12-17 17:46:26.468750
381,22.18,2021-12-17 17:46:26.484375
382,17.84,2021-12-17 17:46:26.500000
383,12.95,2021-12-17 17:46:26.515625
384,8.1,2021-12-17 17:46:26.531250
385,3.76,2021-12-17 17:46:26.546875
386,0.1,2021-12-17 17:46:26.562500
387,-3.06,2021-12-17 17:46:26.578125
388,-6.1,2021-12-17 17:46:26.593750
389,-9.45,2021-12-17 17:46:26.609375
390,-13.55,2021-12-17 17:46:26.625000
391,-18.59,2021-12-17 17:46:26.640625
392,-24.52,2021-12-17 17:46:26.656250
393,-30.89,2021-12-17 17:46:26.671875
394,-36.96,2021-12-17 17:46:26.687500
395,-41.78,2021-12-17 17:46:26.703125
396,-44.49,2021-12-17 17:46:26.718750
397,-44.6,2021-12-17 17:46:26.734375
398,-42.11,2021-12-17 17:46:26.750000
399,-37.48,2021-12-17 17:46:26.765625
400,-31.49,2021-12-17 17:46:26.781250
401,-24.89,2021-12-17 17:46:26.796875
402,-18.23,2021-12-17 17:46:26.812500
403,-11.79,2021-12-17 17:46:26.828125
404,-5.65,2021-12-17 17:46:26.843750
405,0.2,2021-12-17 17:46:26.859375
406,5.68,2021-12-17 17:46:26.875000
407,10.64,2021-12-17 17:46:26.890625
408,14.88,2021-12-17 17:46:26.906250
409,18.27,2021-12-17 17:46:26.921875
410,20.82,2021-12-17 17:46:26.937500
411,22.69,2021-12-17 17:46:26.953125
412,24.13,2021-12-17 17:46:26.968750
413,25.36,2021-12-17 17:46:26.984375
414,26.48,2021-12-17 17:46:27.000000
415,27.52,2021-12-17 17:46:27.015625
416,28.4,2021-12-17 17:46:27.031250
417,29.08,2021-12-17 17:46:27.046875
418,29.59,2021-12-17 17:46:27.062500
419,30.05,2021-12-17 17:46:27.078125
420,30.54,2021-12-17 17:46:27.093750
421,31.03,2021-12-17 17:46:27.109375
422,31.31,2021-12-17 17:46:27.125000
423,31.04,2021-12-17 17:46:27.140625
424,29.92,2021-12-17 17:46:27.156250
425,27.85,2021-12-17 17:46:27.171875
426,24.97,2021-12-17 17:46:27.187500
427,21.69,2021-12-17 17:46:27.203125
428,18.38,2021-12-17 17:46:27.218750
429,15.25,2021-12-17 17:46:27.234375
430,12.23,2021-12-17 17:46:27.250000
431,9.0,2021-12-17 17:46:27.265625
432,5.19,2021-12-17 17:46:27.281250
433,0.65,2021-12-17 17:46:27.296875
434,-4.54,2021-12-17 17:46:27.312500
435,-9.95,2021-12-17 17:46:27.328125
436,-15.11,2021-12-17 17:46:27.343750
437,-19.6,2021-12-17 17:46:27.359375
438,-23.27,2021-12-17 17:46:27.375000
439,-26.18,2021-12-17 17:46:27.390625
440,-28.57,2021-12-17 17:46:27.406250
441,-30.74,2021-12-17 17:46:27.421875
442,-32.91,2021-12-17 17:46:27.437500
443,-35.23,2021-12-17 17:46:27.453125
444,-37.74,2021-12-17 17:46:27.468750
445,-40.19,2021-12-17 17:46:27.484375
446,-42.07,2021-12-17 17:46:27.500000
447,-42.67,2021-12-17 17:46:27.515625
448,-41.24,2021-12-17 17:46:27.531250
449,-37.37,2021-12-17 17:46:27.546875
450,-31.2,2021-12-17 17:46:27.562500
451,-23.46,2021-12-17 17:46:27.578125
452,-15.22,2021-12-17 17:46:27.593750
453,-7.55,2021-12-17 17:46:27.609375
454,-1.07,2021-12-17 17:46:27.625000
455,4.15,2021-12-17 17:46:27.640625
456,8.5,2021-12-17 17:46:27.656250
457,12.48,2021-12-17 17:46:27.671875
458,16.46,2021-12-17 17:46:27.687500
459,20.46,2021-12-17 17:46:27.703125
460,24.27,2021-12-17 17:46:27.718750
461,27.63,2021-12-17 17:46:27.734375
462,30.36,2021-12-17 17:46:27.750000
463,32.41,2021-12-17 17:46:27.765625
464,33.85,2021-12-17 17:46:27.781250
465,34.78,2021-12-17 17:46:27.796875
466,35.27,2021-12-17 17:46:27.812500
467,35.38,2021-12-17 17:46:27.828125
468,35.13,2021-12-17 17:46:27.843750
469,34.55,2021-12-17 17:46:27.859375
470,33.67,2021-12-17 17:46:27.875000
471,32.55,2021-12-17 17:46:27.890625
472,31.33,2021-12-17 17:46:27.906250
473,30.23,2021-12-17 17:46:27.921875
474,29.48,2021-12-17 17:46:27.937500
475,29.23,2021-12-17 17:46:27.953125
476,29.46,2021-12-17 17:46:27.968750
477,29.97,2021-12-17 17:46:27.984375
478,30.4,2021-12-17 17:46:28.000000
479,30.44,2021-12-17 17:46:28.015625
480,29.95,2021-12-17 17:46:28.031250
481,29.01,2021-12-17 17:46:28.046875
482,27.79,2021-12-17 17:46:28.062500
483,26.41,2021-12-17 17:46:28.078125
484,24.79,2021-12-17 17:46:28.093750
485,22.61,2021-12-17 17:46:28.109375
486,19.48,2021-12-17 17:46:28.125000
487,15.09,2021-12-17 17:46:28.140625
488,9.36,2021-12-17 17:46:28.156250
489,2.45,2021-12-17 17:46:28.171875
490,-5.27,2021-12-17 17:46:28.187500
491,-13.37,2021-12-17 17:46:28.203125
492,-21.45,2021-12-17 17:46:28.218750
493,-29.22,2021-12-17 17:46:28.234375
494,-36.52,2021-12-17 17:46:28.250000
495,-43.26,2021-12-17 17:46:28.265625
496,-49.35,2021-12-17 17:46:28.281250
497,-54.6,2021-12-17 17:46:28.296875
498,-58.68,2021-12-17 17:46:28.312500
499,-61.06,2021-12-17 17:46:28.328125
500,-61.1,2021-12-17 17:46:28.343750
501,-58.2,2021-12-17 17:46:28.359375
502,-52.03,2021-12-17 17:46:28.375000
503,-42.67,2021-12-17 17:46:28.390625
504,-30.74,2021-12-17 17:46:28.406250
505,-17.28,2021-12-17 17:46:28.421875
506,-3.56,2021-12-17 17:46:28.437500
507,9.27,2021-12-17 17:46:28.453125
508,20.34,2021-12-17 17:46:28.468750
509,29.2,2021-12-17 17:46:28.484375
510,35.78,2021-12-17 17:46:28.500000
511,40.21,2021-12-17 17:46:28.515625
512,42.73,2021-12-17 17:46:28.531250
513,43.61,2021-12-17 17:46:28.546875
514,43.17,2021-12-17 17:46:28.562500
515,41.84,2021-12-17 17:46:28.578125
516,40.08,2021-12-17 17:46:28.593750
517,38.38,2021-12-17 17:46:28.609375
518,37.11,2021-12-17 17:46:28.625000
519,36.46,2021-12-17 17:46:28.640625
520,36.41,2021-12-17 17:46:28.656250
521,36.8,2021-12-17 17:46:28.671875
522,37.4,2021-12-17 17:46:28.687500
523,38.04,2021-12-17 17:46:28.703125
524,38.64,2021-12-17 17:46:28.718750
525,39.21,2021-12-17 17:46:28.734375
526,39.75,2021-12-17 17:46:28.750000
527,40.16,2021-12-17 17:46:28.765625
528,40.16,2021-12-17 17:46:28.781250
529,39.24,2021-12-17 17:46:28.796875
530,36.9,2021-12-17 17:46:28.812500
531,32.75,2021-12-17 17:46:28.828125
532,26.77,2021-12-17 17:46:28.843750
533,19.38,2021-12-17 17:46:28.859375
534,11.32,2021-12-17 17:46:28.875000
535,3.5,2021-12-17 17:46:28.890625
536,-3.31,2021-12-17 17:46:28.906250
537,-8.65,2021-12-17 17:46:28.921875
538,-12.48,2021-12-17 17:46:28.937500
539,-15.07,2021-12-17 17:46:28.953125
540,-16.86,2021-12-17 17:46:28.968750
541,-18.28,2021-12-17 17:46:28.984375
542,-19.6,2021-12-17 17:46:29.000000
543,-20.92,2021-12-17 17:46:29.015625
544,-22.1,2021-12-17 17:46:29.031250
545,-22.91,2021-12-17 17:46:29.046875
546,-23.02,2021-12-17 17:46:29.062500
547,-22.14,2021-12-17 17:46:29.078125
548,-20.12,2021-12-17 17:46:29.093750
549,-17.03,2021-12-17 17:46:29.109375
550,-13.21,2021-12-17 17:46:29.125000
551,-9.18,2021-12-17 17:46:29.140625
552,-5.5,2021-12-17 17:46:29.156250
553,-2.61,2021-12-17 17:46:29.171875
554,-0.68,2021-12-17 17:46:29.187500
555,0.44,2021-12-17 17:46:29.203125
556,1.04,2021-12-17 17:46:29.218750
557,1.48,2021-12-17 17:46:29.234375
558,2.03,2021-12-17 17:46:29.250000
559,2.8,2021-12-17 17:46:29.265625
560,3.79,2021-12-17 17:46:29.281250
561,4.96,2021-12-17 17:46:29.296875
562,6.28,2021-12-17 17:46:29.312500
563,7.78,2021-12-17 17:46:29.328125
564,9.48,2021-12-17 17:46:29.343750
565,11.37,2021-12-17 17:46:29.359375
566,13.34,2021-12-17 17:46:29.375000
567,15.27,2021-12-17 17:46:29.390625
568,17.01,2021-12-17 17:46:29.406250
569,18.46,2021-12-17 17:46:29.421875
570,19.57,2021-12-17 17:46:29.437500
571,20.3,2021-12-17 17:46:29.453125
572,20.45,2021-12-17 17:46:29.468750
573,19.71,2021-12-17 17:46:29.484375
574,17.63,2021-12-17 17:46:29.500000
575,13.82,2021-12-17 17:46:29.515625
576,8.18,2021-12-17 17:46:29.531250
577,0.98,2021-12-17 17:46:29.546875
578,-7.14,2021-12-17 17:46:29.562500
579,-15.34,2021-12-17 17:46:29.578125
580,-22.82,2021-12-17 17:46:29.593750
581,-28.96,2021-12-17 17:46:29.609375
582,-33.49,2021-12-17 17:46:29.625000
583,-36.43,2021-12-17 17:46:29.640625
584,-38.06,2021-12-17 17:46:29.656250
585,-38.78,2021-12-17 17:46:29.671875
586,-39.15,2021-12-17 17:46:29.687500
587,-39.62,2021-12-17 17:46:29.703125
588,-40.47,2021-12-17 17:46:29.718750
589,-41.66,2021-12-17 17:46:29.734375
590,-42.87,2021-12-17 17:46:29.750000
591,-43.54,2021-12-17 17:46:29.765625
592,-43.08,2021-12-17 17:46:29.781250
593,-41.06,2021-12-17 17:46:29.796875
594,-37.33,2021-12-17 17:46:29.812500
595,-32.06,2021-12-17 17:46:29.828125
596,-25.6,2021-12-17 17:46:29.843750
597,-18.46,2021-12-17 17:46:29.859375
598,-11.16,2021-12-17 17:46:29.875000
599,-4.13,2021-12-17 17:46:29.890625
600,2.32,2021-12-17 17:46:29.906250
601,8.05,2021-12-17 17:46:29.921875
602,13.04,2021-12-17 17:46:29.937500
603,17.34,2021-12-17 17:46:29.953125
604,20.98,2021-12-17 17:46:29.968750
605,24.0,2021-12-17 17:46:29.984375
606,26.35,2021-12-17 17:46:30.000000
607,28.03,2021-12-17 17:46:30.015625
608,29.09,2021-12-17 17:46:30.031250
609,29.63,2021-12-17 17:46:30.046875
610,29.83,2021-12-17 17:46:30.062500
611,29.82,2021-12-17 17:46:30.078125
612,29.69,2021-12-17 17:46:30.093750
613,29.41,2021-12-17 17:46:30.109375
614,28.92,2021-12-17 17:46:30.125000
615,28.17,2021-12-17 17:46:30.140625
616,27.11,2021-12-17 17:46:30.156250
617,25.75,2021-12-17 17:46:30.171875
618,24.12,2021-12-17 17:46:30.187500
619,22.19,2021-12-17 17:46:30.203125
620,19.96,2021-12-17 17:46:30.218750
621,17.37,2021-12-17 17:46:30.234375
622,14.46,2021-12-17 17:46:30.250000
623,11.3,2021-12-17 17:46:30.265625
624,8.14,2021-12-17 17:46:30.281250
625,5.21,2021-12-17 17:46:30.296875
626,2.72,2021-12-17 17:46:30.312500
627,0.67,2021-12-17 17:46:30.328125
628,-1.18,2021-12-17 17:46:30.343750
629,-3.27,2021-12-17 17:46:30.359375
630,-6.02,2021-12-17 17:46:30.375000
631,-9.58,2021-12-17 17:46:30.390625
632,-13.72,2021-12-17 17:46:30.406250
633,-17.79,2021-12-17 17:46:30.421875
634,-20.91,2021-12-17 17:46:30.437500
635,-22.25,2021-12-17 17:46:30.453125
636,-21.33,2021-12-17 17:46:30.468750
637,-18.12,2021-12-17 17:46:30.484375
638,-13.0,2021-12-17 17:46:30.500000
639,-6.6,2021-12-17 17:46:30.515625
640,0.39,2021-12-17 17:46:30.531250
641,7.42,2021-12-17 17:46:30.546875
642,14.08,2021-12-17 17:46:30.562500
643,20.12,2021-12-17 17:46:30.578125
644,25.37,2021-12-17 17:46:30.593750
645,29.74,2021-12-17 17:46:30.609375
646,33.21,2021-12-17 17:46:30.625000
647,35.81,2021-12-17 17:46:30.640625
648,37.66,2021-12-17 17:46:30.656250
649,38.94,2021-12-17 17:46:30.671875
650,39.85,2021-12-17 17:46:30.687500
651,40.59,2021-12-17 17:46:30.703125
652,41.24,2021-12-17 17:46:30.718750
653,41.84,2021-12-17 17:46:30.734375
654,42.28,2021-12-17 17:46:30.750000
655,42.43,2021-12-17 17:46:30.765625
656,42.19,2021-12-17 17:46:30.781250
657,41.48,2021-12-17 17:46:30.796875
658,40.26,2021-12-17 17:46:30.812500
659,38.51,2021-12-17 17:46:30.828125
660,36.19,2021-12-17 17:46:30.843750
661,33.22,2021-12-17 17:46:30.859375
662,29.56,2021-12-17 17:46:30.875000
663,25.23,2021-12-17 17:46:30.890625
664,20.39,2021-12-17 17:46:30.906250
665,15.35,2021-12-17 17:46:30.921875
666,10.46,2021-12-17 17:46:30.937500
667,6.04,2021-12-17 17:46:30.953125
668,2.29,2021-12-17 17:46:30.968750
669,-0.8,2021-12-17 17:46:30.984375
670,-3.4,2021-12-17 17:46:31.000000
671,-5.83,2021-12-17 17:46:31.015625
672,-8.46,2021-12-17 17:46:31.031250
673,-11.67,2021-12-17 17:46:31.046875
674,-15.74,2021-12-17 17:46:31.062500
675,-20.65,2021-12-17 17:46:31.078125
676,-25.98,2021-12-17 17:46:31.093750
677,-30.92,2021-12-17 17:46:31.109375
678,-34.42,2021-12-17 17:46:31.125000
679,-35.6,2021-12-17 17:46:31.140625
680,-34.07,2021-12-17 17:46:31.156250
681,-30.09,2021-12-17 17:46:31.171875
682,-24.46,2021-12-17 17:46:31.187500
683,-18.2,2021-12-17 17:46:31.203125
684,-12.17,2021-12-17 17:46:31.218750
685,-6.79,2021-12-17 17:46:31.234375
686,-2.04,2021-12-17 17:46:31.250000
687,2.35,2021-12-17 17:46:31.265625
688,6.64,2021-12-17 17:46:31.281250
689,10.87,2021-12-17 17:46:31.296875
690,14.88,2021-12-17 17:46:31.312500
691,18.41,2021-12-17 17:46:31.328125
692,21.19,2021-12-17 17:46:31.343750
693,23.11,2021-12-17 17:46:31.359375
694,24.13,2021-12-17 17:46:31.375000
695,24.32,2021-12-17 17:46:31.390625
696,23.79,2021-12-17 17:46:31.406250
697,22.7,2021-12-17 17:46:31.421875
698,21.27,2021-12-17 17:46:31.437500
699,19.69,2021-12-17 17:46:31.453125
700,18.12,2021-12-17 17:46:31.468750
701,16.66,2021-12-17 17:46:31.484375
702,15.26,2021-12-17 17:46:31.500000
703,13.84,2021-12-17 17:46:31.515625
704,12.25,2021-12-17 17:46:31.531250
705,10.43,2021-12-17 17:46:31.546875
706,8.36,2021-12-17 17:46:31.562500
707,6.09,2021-12-17 17:46:31.578125
708,3.71,2021-12-17 17:46:31.593750
709,1.25,2021-12-17 17:46:31.609375
710,-1.31,2021-12-17 17:46:31.625000
711,-4.02,2021-12-17 17:46:31.640625
712,-6.93,2021-12-17 17:46:31.656250
713,-10.05,2021-12-17 17:46:31.671875
714,-13.34,2021-12-17 17:46:31.687500
715,-16.7,2021-12-17 17:46:31.703125
716,-20.02,2021-12-17 17:46:31.718750
717,-23.21,2021-12-17 17:46:31.734375
718,-26.2,2021-12-17 17:46:31.750000
719,-28.98,2021-12-17 17:46:31.765625
720,-31.56,2021-12-17 17:46:31.781250
721,-34.01,2021-12-17 17:46:31.796875
722,-36.46,2021-12-17 17:46:31.812500
723,-39.07,2021-12-17 17:46:31.828125
724,-42.08,2021-12-17 17:46:31.843750
725,-45.67,2021-12-17 17:46:31.859375
726,-49.89,2021-12-17 17:46:31.875000
727,-54.48,2021-12-17 17:46:31.890625
728,-58.88,2021-12-17 17:46:31.906250
729,-62.28,2021-12-17 17:46:31.921875
730,-63.85,2021-12-17 17:46:31.937500
731,-63.04,2021-12-17 17:46:31.953125
732,-59.73,2021-12-17 17:46:31.968750
733,-54.3,2021-12-17 17:46:31.984375
734,-47.49,2021-12-17 17:46:32.000000
735,-40.11,2021-12-17 17:46:32.015625
736,-32.8,2021-12-17 17:46:32.031250
737,-25.89,2021-12-17 17:46:32.046875
738,-19.38,2021-12-17 17:46:32.062500
739,-13.09,2021-12-17 17:46:32.078125
740,-6.86,2021-12-17 17:46:32.093750
741,-0.68,2021-12-17 17:46:32.109375
742,5.22,2021-12-17 17:46:32.125000
743,10.51,2021-12-17 17:46:32.140625
744,14.86,2021-12-17 17:46:32.156250
745,18.18,2021-12-17 17:46:32.171875
746,20.58,2021-12-17 17:46:32.187500
747,22.36,2021-12-17 17:46:32.203125
748,23.78,2021-12-17 17:46:32.218750
749,24.97,2021-12-17 17:46:32.234375
750,25.87,2021-12-17 17:46:32.250000
751,26.37,2021-12-17 17:46:32.265625
752,26.41,2021-12-17 17:46:32.281250
753,26.09,2021-12-17 17:46:32.296875
754,25.61,2021-12-17 17:46:32.312500
755,25.14,2021-12-17 17:46:32.328125
756,24.72,2021-12-17 17:46:32.343750
757,24.26,2021-12-17 17:46:32.359375
758,23.59,2021-12-17 17:46:32.375000
759,22.57,2021-12-17 17:46:32.390625
760,21.15,2021-12-17 17:46:32.406250
761,19.37,2021-12-17 17:46:32.421875
762,17.31,2021-12-17 17:46:32.437500
763,15.06,2021-12-17 17:46:32.453125
764,12.71,2021-12-17 17:46:32.468750
765,10.32,2021-12-17 17:46:32.484375
766,7.95,2021-12-17 17:46:32.500000
767,5.59,2021-12-17 17:46:32.515625
768,3.2,2021-12-17 17:46:32.531250
769,0.69,2021-12-17 17:46:32.546875
770,-2.03,2021-12-17 17:46:32.562500
771,-4.97,2021-12-17 17:46:32.578125
772,-8.08,2021-12-17 17:46:32.593750
773,-11.21,2021-12-17 17:46:32.609375
774,-14.19,2021-12-17 17:46:32.625000
775,-16.87,2021-12-17 17:46:32.640625
776,-19.19,2021-12-17 17:46:32.656250
777,-21.21,2021-12-17 17:46:32.671875
778,-23.12,2021-12-17 17:46:32.687500
779,-25.23,2021-12-17 17:46:32.703125
780,-27.9,2021-12-17 17:46:32.718750
781,-31.43,2021-12-17 17:46:32.734375
782,-35.92,2021-12-17 17:46:32.750000
783,-41.16,2021-12-17 17:46:32.765625
784,-46.63,2021-12-17 17:46:32.781250
785,-51.54,2021-12-17 17:46:32.796875
786,-55.04,2021-12-17 17:46:32.812500
787,-56.43,2021-12-17 17:46:32.828125
788,-55.37,2021-12-17 17:46:32.843750
789,-51.92,2021-12-17 17:46:32.859375
790,-46.53,2021-12-17 17:46:32.875000
791,-39.88,2021-12-17 17:46:32.890625
792,-32.7,2021-12-17 17:46:32.906250
793,-25.55,2021-12-17 17:46:32.921875
794,-18.77,2021-12-17 17:46:32.937500
795,-12.41,2021-12-17 17:46:32.953125
796,-6.38,2021-12-17 17:46:32.968750
797,-0.53,2021-12-17 17:46:32.984375
798,5.18,2021-12-17 17:46:33.000000
799,10.66,2021-12-17 17:46:33.015625
800,15.71,2021-12-17 17:46:33.031250
801,20.04,2021-12-17 17:46:33.046875
802,23.45,2021-12-17 17:46:33.062500
803,25.84,2021-12-17 17:46:33.078125
804,27.34,2021-12-17 17:46:33.093750
805,28.17,2021-12-17 17:46:33.109375
806,28.62,2021-12-17 17:46:33.125000
807,28.93,2021-12-17 17:46:33.140625
808,29.2,2021-12-17 17:46:33.156250
809,29.46,2021-12-17 17:46:33.171875
810,29.62,2021-12-17 17:46:33.187500
811,29.67,2021-12-17 17:46:33.203125
812,29.59,2021-12-17 17:46:33.218750
813,29.43,2021-12-17 17:46:33.234375
814,29.21,2021-12-17 17:46:33.250000
815,28.89,2021-12-17 17:46:33.265625
816,28.36,2021-12-17 17:46:33.281250
817,27.52,2021-12-17 17:46:33.296875
818,26.33,2021-12-17 17:46:33.312500
819,24.81,2021-12-17 17:46:33.328125
820,23.09,2021-12-17 17:46:33.343750
821,21.27,2021-12-17 17:46:33.359375
822,19.42,2021-12-17 17:46:33.375000
823,17.59,2021-12-17 17:46:33.390625
824,15.79,2021-12-17 17:46:33.406250
825,14.04,2021-12-17 17:46:33.421875
826,12.36,2021-12-17 17:46:33.437500
827,10.71,2021-12-17 17:46:33.453125
828,9.0,2021-12-17 17:46:33.468750
829,7.06,2021-12-17 17:46:33.484375
830,4.71,2021-12-17 17:46:33.500000
831,1.9,2021-12-17 17:46:33.515625
832,-1.29,2021-12-17 17:46:33.531250
833,-4.67,2021-12-17 17:46:33.546875
834,-8.01,2021-12-17 17:46:33.562500
835,-11.15,2021-12-17 17:46:33.578125
836,-14.06,2021-12-17 17:46:33.593750
837,-16.84,2021-12-17 17:46:33.609375
838,-19.63,2021-12-17 17:46:33.625000
839,-22.58,2021-12-17 17:46:33.640625
840,-25.74,2021-12-17 17:46:33.656250
841,-29.06,2021-12-17 17:46:33.671875
842,-32.26,2021-12-17 17:46:33.687500
843,-34.97,2021-12-17 17:46:33.703125
844,-36.64,2021-12-17 17:46:33.718750
845,-36.76,2021-12-17 17:46:33.734375
846,-34.96,2021-12-17 17:46:33.750000
847,-31.15,2021-12-17 17:46:33.765625
848,-25.61,2021-12-17 17:46:33.781250
849,-18.85,2021-12-17 17:46:33.796875
850,-11.49,2021-12-17 17:46:33.812500
851,-4.14,2021-12-17 17:46:33.828125
852,2.83,2021-12-17 17:46:33.843750
853,9.25,2021-12-17 17:46:33.859375
854,15.07,2021-12-17 17:46:33.875000
855,20.34,2021-12-17 17:46:33.890625
856,25.01,2021-12-17 17:46:33.906250
857,28.96,2021-12-17 17:46:33.921875
858,31.97,2021-12-17 17:46:33.937500
859,33.85,2021-12-17 17:46:33.953125
860,34.44,2021-12-17 17:46:33.968750
861,33.81,2021-12-17 17:46:33.984375
862,32.22,2021-12-17 17:46:34.000000
863,30.08,2021-12-17 17:46:34.015625
864,27.8,2021-12-17 17:46:34.031250
865,25.66,2021-12-17 17:46:34.046875
866,23.72,2021-12-17 17:46:34.062500
867,21.88,2021-12-17 17:46:34.078125
868,20.03,2021-12-17 17:46:34.093750
869,18.16,2021-12-17 17:46:34.109375
870,16.43,2021-12-17 17:46:34.125000
871,15.05,2021-12-17 17:46:34.140625
872,14.13,2021-12-17 17:46:34.156250
873,13.54,2021-12-17 17:46:34.171875
874,12.96,2021-12-17 17:46:34.187500
875,12.01,2021-12-17 17:46:34.203125
876,10.49,2021-12-17 17:46:34.218750
877,8.45,2021-12-17 17:46:34.234375
878,6.17,2021-12-17 17:46:34.250000
879,3.99,2021-12-17 17:46:34.265625
880,2.15,2021-12-17 17:46:34.281250
881,0.63,2021-12-17 17:46:34.296875
882,-0.72,2021-12-17 17:46:34.312500
883,-2.17,2021-12-17 17:46:34.328125
884,-3.9,2021-12-17 17:46:34.343750
885,-5.96,2021-12-17 17:46:34.359375
886,-8.3,2021-12-17 17:46:34.375000
887,-10.77,2021-12-17 17:46:34.390625
888,-13.27,2021-12-17 17:46:34.406250
889,-15.65,2021-12-17 17:46:34.421875
890,-17.81,2021-12-17 17:46:34.437500
891,-19.66,2021-12-17 17:46:34.453125
892,-21.23,2021-12-17 17:46:34.468750
893,-22.69,2021-12-17 17:46:34.484375
894,-24.3,2021-12-17 17:46:34.500000
895,-26.4,2021-12-17 17:46:34.515625
896,-29.18,2021-12-17 17:46:34.531250
897,-32.68,2021-12-17 17:46:34.546875
898,-36.59,2021-12-17 17:46:34.562500
899,-40.39,2021-12-17 17:46:34.578125
900,-43.48,2021-12-17 17:46:34.593750
901,-45.31,2021-12-17 17:46:34.609375
902,-45.52,2021-12-17 17:46:34.625000
903,-44.0,2021-12-17 17:46:34.640625
904,-40.84,2021-12-17 17:46:34.656250
905,-36.3,2021-12-17 17:46:34.671875
906,-30.73,2021-12-17 17:46:34.687500
907,-24.59,2021-12-17 17:46:34.703125
908,-18.29,2021-12-17 17:46:34.718750
909,-12.26,2021-12-17 17:46:34.734375
910,-6.81,2021-12-17 17:46:34.750000
911,-2.15,2021-12-17 17:46:34.765625
912,1.65,2021-12-17 17:46:34.781250
913,4.63,2021-12-17 17:46:34.796875
914,6.92,2021-12-17 17:46:34.812500
915,8.7,2021-12-17 17:46:34.828125
916,10.12,2021-12-17 17:46:34.843750
917,11.25,2021-12-17 17:46:34.859375
918,12.07,2021-12-17 17:46:34.875000
919,12.54,2021-12-17 17:46:34.890625
920,12.67,2021-12-17 17:46:34.906250
921,12.55,2021-12-17 17:46:34.921875
922,12.39,2021-12-17 17:46:34.937500
923,12.4,2021-12-17 17:46:34.953125
924,12.65,2021-12-17 17:46:34.968750
925,13.1,2021-12-17 17:46:34.984375
926,13.56,2021-12-17 17:46:35.000000
927,13.86,2021-12-17 17:46:35.015625
928,13.87,2021-12-17 17:46:35.031250
929,13.56,2021-12-17 17:46:35.046875
930,12.96,2021-12-17 17:46:35.062500
931,12.08,2021-12-17 17:46:35.078125
932,10.93,2021-12-17 17:46:35.093750
933,9.46,2021-12-17 17:46:35.109375
934,7.67,2021-12-17 17:46:35.125000
935,5.63,2021-12-17 17:46:35.140625
936,3.45,2021-12-17 17:46:35.156250
937,1.23,2021-12-17 17:46:35.171875
938,-0.98,2021-12-17 17:46:35.187500
939,-3.18,2021-12-17 17:46:35.203125
940,-5.4,2021-12-17 17:46:35.218750
941,-7.62,2021-12-17 17:46:35.234375
942,-9.79,2021-12-17 17:46:35.250000
943,-11.89,2021-12-17 17:46:35.265625
944,-13.93,2021-12-17 17:46:35.281250
945,-16.04,2021-12-17 17:46:35.296875
946,-18.45,2021-12-17 17:46:35.312500
947,-21.4,2021-12-17 17:46:35.328125
948,-24.99,2021-12-17 17:46:35.343750
949,-29.07,2021-12-17 17:46:35.359375
950,-33.22,2021-12-17 17:46:35.375000
951,-36.76,2021-12-17 17:46:35.390625
952,-38.96,2021-12-17 17:46:35.406250
953,-39.27,2021-12-17 17:46:35.421875
954,-37.43,2021-12-17 17:46:35.437500
955,-33.61,2021-12-17 17:46:35.453125
956,-28.26,2021-12-17 17:46:35.468750
957,-21.96,2021-12-17 17:46:35.484375
958,-15.29,2021-12-17 17:46:35.500000
959,-8.72,2021-12-17 17:46:35.515625
960,-2.47,2021-12-17 17:46:35.531250
961,3.31,2021-12-17 17:46:35.546875
962,8.58,2021-12-17 17:46:35.562500
963,13.3,2021-12-17 17:46:35.578125
964,17.4,2021-12-17 17:46:35.593750
965,20.83,2021-12-17 17:46:35.609375
966,23.53,2021-12-17 17:46:35.625000
967,25.52,2021-12-17 17:46:35.640625
968,26.85,2021-12-17 17:46:35.656250
969,27.63,2021-12-17 17:46:35.671875
970,28.01,2021-12-17 17:46:35.687500
971,28.15,2021-12-17 17:46:35.703125
972,28.18,2021-12-17 17:46:35.718750
973,28.2,2021-12-17 17:46:35.734375
974,28.19,2021-12-17 17:46:35.750000
975,28.11,2021-12-17 17:46:35.765625
976,27.87,2021-12-17 17:46:35.781250
977,27.43,2021-12-17 17:46:35.796875
978,26.8,2021-12-17 17:46:35.812500
979,26.04,2021-12-17 17:46:35.828125
980,25.15,2021-12-17 17:46:35.843750
981,24.11,2021-12-17 17:46:35.859375
982,22.84,2021-12-17 17:46:35.875000
983,21.27,2021-12-17 17:46:35.890625
984,19.4,2021-12-17 17:46:35.906250
985,17.37,2021-12-17 17:46:35.921875
986,15.32,2021-12-17 17:46:35.937500
987,13.37,2021-12-17 17:46:35.953125
988,11.53,2021-12-17 17:46:35.968750
989,9.7,2021-12-17 17:46:35.984375
990,7.77,2021-12-17 17:46:36.000000
991,5.64,2021-12-17 17:46:36.015625
992,3.32,2021-12-17 17:46:36.031250
993,0.9,2021-12-17 17:46:36.046875
994,-1.46,2021-12-17 17:46:36.062500
995,-3.67,2021-12-17 17:46:36.078125
996,-5.65,2021-12-17 17:46:36.093750
997,-7.44,2021-12-17 17:46:36.109375
998,-9.14,2021-12-17 17:46:36.125000
999,-10.88,2021-12-17 17:46:36.140625
1000,-12.79,2021-12-17 17:46:36.156250
1001,-14.96,2021-12-17 17:46:36.171875
1002,-17.49,2021-12-17 17:46:36.187500
1003,-20.45,2021-12-17 17:46:36.203125
1004,-23.89,2021-12-17 17:46:36.218750
1005,-27.79,2021-12-17 17:46:36.234375
1006,-31.88,2021-12-17 17:46:36.250000
1007,-35.72,2021-12-17 17:46:36.265625
1008,-38.6,2021-12-17 17:46:36.281250
1009,-39.81,2021-12-17 17:46:36.296875
1010,-38.85,2021-12-17 17:46:36.312500
1011,-35.66,2021-12-17 17:46:36.328125
1012,-30.69,2021-12-17 17:46:36.343750
1013,-24.7,2021-12-17 17:46:36.359375
1014,-18.47,2021-12-17 17:46:36.375000
1015,-12.55,2021-12-17 17:46:36.390625
1016,-7.08,2021-12-17 17:46:36.406250
1017,-1.9,2021-12-17 17:46:36.421875
1018,3.19,2021-12-17 17:46:36.437500
1019,8.25,2021-12-17 17:46:36.453125
1020,13.07,2021-12-17 17:46:36.468750
1021,17.34,2021-12-17 17:46:36.484375
1022,20.79,2021-12-17 17:46:36.500000
1023,23.34,2021-12-17 17:46:36.515625
1024,25.15,2021-12-17 17:46:36.531250
1025,26.49,2021-12-17 17:46:36.546875
1026,27.59,2021-12-17 17:46:36.562500
1027,28.54,2021-12-17 17:46:36.578125
1028,29.34,2021-12-17 17:46:36.593750
1029,29.94,2021-12-17 17:46:36.609375
1030,30.34,2021-12-17 17:46:36.625000
1031,30.66,2021-12-17 17:46:36.640625
1032,31.0,2021-12-17 17:46:36.656250
1033,31.4,2021-12-17 17:46:36.671875
1034,31.75,2021-12-17 17:46:36.687500
1035,31.89,2021-12-17 17:46:36.703125
1036,31.64,2021-12-17 17:46:36.718750
1037,30.89,2021-12-17 17:46:36.734375
1038,29.64,2021-12-17 17:46:36.750000
1039,28.02,2021-12-17 17:46:36.765625
1040,26.14,2021-12-17 17:46:36.781250
1041,24.17,2021-12-17 17:46:36.796875
1042,22.24,2021-12-17 17:46:36.812500
1043,20.45,2021-12-17 17:46:36.828125
1044,18.84,2021-12-17 17:46:36.843750
1045,17.37,2021-12-17 17:46:36.859375
1046,15.91,2021-12-17 17:46:36.875000
1047,14.32,2021-12-17 17:46:36.890625
1048,12.48,2021-12-17 17:46:36.906250
1049,10.41,2021-12-17 17:46:36.921875
1050,8.25,2021-12-17 17:46:36.937500
1051,6.21,2021-12-17 17:46:36.953125
1052,4.51,2021-12-17 17:46:36.968750
1053,3.17,2021-12-17 17:46:36.984375
1054,2.09,2021-12-17 17:46:37.000000
1055,1.0,2021-12-17 17:46:37.015625
1056,-0.36,2021-12-17 17:46:37.031250
1057,-2.22,2021-12-17 17:46:37.046875
1058,-4.61,2021-12-17 17:46:37.062500
1059,-7.42,2021-12-17 17:46:37.078125
1060,-10.4,2021-12-17 17:46:37.093750
1061,-13.25,2021-12-17 17:46:37.109375
1062,-15.81,2021-12-17 17:46:37.125000
1063,-18.02,2021-12-17 17:46:37.140625
1064,-20.06,2021-12-17 17:46:37.156250
1065,-22.23,2021-12-17 17:46:37.171875
1066,-24.86,2021-12-17 17:46:37.187500
1067,-28.2,2021-12-17 17:46:37.203125
1068,-32.22,2021-12-17 17:46:37.218750
1069,-36.61,2021-12-17 17:46:37.234375
1070,-40.81,2021-12-17 17:46:37.250000
1071,-44.08,2021-12-17 17:46:37.265625
1072,-45.71,2021-12-17 17:46:37.281250
1073,-45.24,2021-12-17 17:46:37.296875
1074,-42.55,2021-12-17 17:46:37.312500
1075,-37.96,2021-12-17 17:46:37.328125
1076,-32.11,2021-12-17 17:46:37.343750
1077,-25.74,2021-12-17 17:46:37.359375
1078,-19.5,2021-12-17 17:46:37.375000
1079,-13.78,2021-12-17 17:46:37.390625
1080,-8.66,2021-12-17 17:46:37.406250
1081,-4.03,2021-12-17 17:46:37.421875
1082,0.27,2021-12-17 17:46:37.437500
1083,4.35,2021-12-17 17:46:37.453125
1084,8.24,2021-12-17 17:46:37.468750
1085,11.86,2021-12-17 17:46:37.484375
1086,15.07,2021-12-17 17:46:37.500000
1087,17.77,2021-12-17 17:46:37.515625
1088,19.86,2021-12-17 17:46:37.531250
1089,21.33,2021-12-17 17:46:37.546875
1090,22.21,2021-12-17 17:46:37.562500
1091,22.63,2021-12-17 17:46:37.578125
1092,22.72,2021-12-17 17:46:37.593750
1093,22.63,2021-12-17 17:46:37.609375
1094,22.46,2021-12-17 17:46:37.625000
1095,22.29,2021-12-17 17:46:37.640625
1096,22.17,2021-12-17 17:46:37.656250
1097,22.15,2021-12-17 17:46:37.671875
1098,22.23,2021-12-17 17:46:37.687500
1099,22.4,2021-12-17 17:46:37.703125
1100,22.56,2021-12-17 17:46:37.718750
1101,22.58,2021-12-17 17:46:37.734375
1102,22.27,2021-12-17 17:46:37.750000
1103,21.52,2021-12-17 17:46:37.765625
1104,20.32,2021-12-17 17:46:37.781250
1105,18.73,2021-12-17 17:46:37.796875
1106,16.86,2021-12-17 17:46:37.812500
1107,14.84,2021-12-17 17:46:37.828125
1108,12.73,2021-12-17 17:46:37.843750
1109,10.57,2021-12-17 17:46:37.859375
1110,8.34,2021-12-17 17:46:37.875000
1111,6.03,2021-12-17 17:46:37.890625
1112,3.61,2021-12-17 17:46:37.906250
1113,1.13,2021-12-17 17:46:37.921875
1114,-1.41,2021-12-17 17:46:37.937500
1115,-3.96,2021-12-17 17:46:37.953125
1116,-6.48,2021-12-17 17:46:37.968750
1117,-8.93,2021-12-17 17:46:37.984375
1118,-11.3,2021-12-17 17:46:38.000000
1119,-13.59,2021-12-17 17:46:38.015625
1120,-15.77,2021-12-17 17:46:38.031250
1121,-17.85,2021-12-17 17:46:38.046875
1122,-19.81,2021-12-17 17:46:38.062500
1123,-21.68,2021-12-17 17:46:38.078125
1124,-23.51,2021-12-17 17:46:38.093750
1125,-25.41,2021-12-17 17:46:38.109375
1126,-27.57,2021-12-17 17:46:38.125000
1127,-30.14,2021-12-17 17:46:38.140625
1128,-33.12,2021-12-17 17:46:38.156250
1129,-36.27,2021-12-17 17:46:38.171875
1130,-39.1,2021-12-17 17:46:38.187500
1131,-40.94,2021-12-17 17:46:38.203125
1132,-41.15,2021-12-17 17:46:38.218750
1133,-39.34,2021-12-17 17:46:38.234375
1134,-35.55,2021-12-17 17:46:38.250000
1135,-30.23,2021-12-17 17:46:38.265625
1136,-24.04,2021-12-17 17:46:38.281250
1137,-17.66,2021-12-17 17:46:38.296875
1138,-11.6,2021-12-17 17:46:38.312500
1139,-6.09,2021-12-17 17:46:38.328125
1140,-1.2,2021-12-17 17:46:38.343750
1141,3.09,2021-12-17 17:46:38.359375
1142,6.76,2021-12-17 17:46:38.375000
1143,9.79,2021-12-17 17:46:38.390625
1144,12.17,2021-12-17 17:46:38.406250
1145,13.96,2021-12-17 17:46:38.421875
1146,15.32,2021-12-17 17:46:38.437500
1147,16.44,2021-12-17 17:46:38.453125
1148,17.45,2021-12-17 17:46:38.468750
1149,18.37,2021-12-17 17:46:38.484375
1150,19.13,2021-12-17 17:46:38.500000
1151,19.58,2021-12-17 17:46:38.515625
1152,19.67,2021-12-17 17:46:38.531250
1153,19.4,2021-12-17 17:46:38.546875
1154,18.92,2021-12-17 17:46:38.562500
1155,18.41,2021-12-17 17:46:38.578125
1156,18.05,2021-12-17 17:46:38.593750
1157,17.9,2021-12-17 17:46:38.609375
1158,17.96,2021-12-17 17:46:38.625000
1159,18.09,2021-12-17 17:46:38.640625
1160,18.06,2021-12-17 17:46:38.656250
1161,17.66,2021-12-17 17:46:38.671875
1162,16.71,2021-12-17 17:46:38.687500
1163,15.15,2021-12-17 17:46:38.703125
1164,13.1,2021-12-17 17:46:38.718750
1165,10.77,2021-12-17 17:46:38.734375
1166,8.44,2021-12-17 17:46:38.750000
1167,6.31,2021-12-17 17:46:38.765625
1168,4.42,2021-12-17 17:46:38.781250
1169,2.65,2021-12-17 17:46:38.796875
1170,0.8,2021-12-17 17:46:38.812500
1171,-1.27,2021-12-17 17:46:38.828125
1172,-3.59,2021-12-17 17:46:38.843750
1173,-6.01,2021-12-17 17:46:38.859375
1174,-8.31,2021-12-17 17:46:38.875000
1175,-10.3,2021-12-17 17:46:38.890625
1176,-11.92,2021-12-17 17:46:38.906250
1177,-13.25,2021-12-17 17:46:38.921875
1178,-14.49,2021-12-17 17:46:38.937500
1179,-15.89,2021-12-17 17:46:38.953125
1180,-17.65,2021-12-17 17:46:38.968750
1181,-19.9,2021-12-17 17:46:38.984375
1182,-22.62,2021-12-17 17:46:39.000000
1183,-25.6,2021-12-17 17:46:39.015625
1184,-28.47,2021-12-17 17:46:39.031250
1185,-30.68,2021-12-17 17:46:39.046875
1186,-31.7,2021-12-17 17:46:39.062500
1187,-31.1,2021-12-17 17:46:39.078125
1188,-28.73,2021-12-17 17:46:39.093750
1189,-24.79,2021-12-17 17:46:39.109375
1190,-19.73,2021-12-17 17:46:39.125000
1191,-14.13,2021-12-17 17:46:39.140625
1192,-8.52,2021-12-17 17:46:39.156250
1193,-3.26,2021-12-17 17:46:39.171875
1194,1.5,2021-12-17 17:46:39.187500
1195,5.74,2021-12-17 17:46:39.203125
1196,9.51,2021-12-17 17:46:39.218750
1197,12.79,2021-12-17 17:46:39.234375
1198,15.54,2021-12-17 17:46:39.250000
1199,17.71,2021-12-17 17:46:39.265625
1200,19.31,2021-12-17 17:46:39.281250
1201,20.44,2021-12-17 17:46:39.296875
1202,21.3,2021-12-17 17:46:39.312500
1203,22.09,2021-12-17 17:46:39.328125
1204,22.94,2021-12-17 17:46:39.343750
1205,23.82,2021-12-17 17:46:39.359375
1206,24.57,2021-12-17 17:46:39.375000
1207,25.01,2021-12-17 17:46:39.390625
1208,25.03,2021-12-17 17:46:39.406250
1209,24.66,2021-12-17 17:46:39.421875
1210,24.05,2021-12-17 17:46:39.437500
1211,23.36,2021-12-17 17:46:39.453125
1212,22.71,2021-12-17 17:46:39.468750
1213,22.13,2021-12-17 17:46:39.484375
1214,21.5,2021-12-17 17:46:39.500000
1215,20.7,2021-12-17 17:46:39.515625
1216,19.6,2021-12-17 17:46:39.531250
1217,18.14,2021-12-17 17:46:39.546875
1218,16.38,2021-12-17 17:46:39.562500
1219,14.4,2021-12-17 17:46:39.578125
1220,12.33,2021-12-17 17:46:39.593750
1221,10.31,2021-12-17 17:46:39.609375
1222,8.41,2021-12-17 17:46:39.625000
1223,6.62,2021-12-17 17:46:39.640625
1224,4.87,2021-12-17 17:46:39.656250
1225,3.02,2021-12-17 17:46:39.671875
1226,0.97,2021-12-17 17:46:39.687500
1227,-1.33,2021-12-17 17:46:39.703125
1228,-3.81,2021-12-17 17:46:39.718750
1229,-6.32,2021-12-17 17:46:39.734375
1230,-8.67,2021-12-17 17:46:39.750000
1231,-10.71,2021-12-17 17:46:39.765625
1232,-12.41,2021-12-17 17:46:39.781250
1233,-13.84,2021-12-17 17:46:39.796875
1234,-15.23,2021-12-17 17:46:39.812500
1235,-16.83,2021-12-17 17:46:39.828125
1236,-18.92,2021-12-17 17:46:39.843750
1237,-21.68,2021-12-17 17:46:39.859375
1238,-25.12,2021-12-17 17:46:39.875000
1239,-29.03,2021-12-17 17:46:39.890625
1240,-32.95,2021-12-17 17:46:39.906250
1241,-36.26,2021-12-17 17:46:39.921875
1242,-38.28,2021-12-17 17:46:39.937500
1243,-38.49,2021-12-17 17:46:39.953125
1244,-36.66,2021-12-17 17:46:39.968750
1245,-32.97,2021-12-17 17:46:39.984375
1246,-27.93,2021-12-17 17:46:40.000000
1247,-22.23,2021-12-17 17:46:40.015625
1248,-16.47,2021-12-17 17:46:40.031250
1249,-11.03,2021-12-17 17:46:40.046875
1250,-6.01,2021-12-17 17:46:40.062500
1251,-1.3,2021-12-17 17:46:40.078125
1252,3.19,2021-12-17 17:46:40.093750
1253,7.48,2021-12-17 17:46:40.109375
1254,11.41,2021-12-17 17:46:40.125000
1255,14.78,2021-12-17 17:46:40.140625
1256,17.45,2021-12-17 17:46:40.156250
1257,19.42,2021-12-17 17:46:40.171875
1258,20.85,2021-12-17 17:46:40.187500
1259,21.96,2021-12-17 17:46:40.203125
1260,22.91,2021-12-17 17:46:40.218750
1261,23.79,2021-12-17 17:46:40.234375
1262,24.53,2021-12-17 17:46:40.250000
1263,25.03,2021-12-17 17:46:40.265625
1264,25.24,2021-12-17 17:46:40.281250
1265,25.2,2021-12-17 17:46:40.296875
1266,24.95,2021-12-17 17:46:40.312500
1267,24.58,2021-12-17 17:46:40.328125
1268,24.13,2021-12-17 17:46:40.343750
1269,23.59,2021-12-17 17:46:40.359375
1270,22.91,2021-12-17 17:46:40.375000
1271,22.06,2021-12-17 17:46:40.390625
1272,21.05,2021-12-17 17:46:40.406250
1273,19.87,2021-12-17 17:46:40.421875
1274,18.5,2021-12-17 17:46:40.437500
1275,16.91,2021-12-17 17:46:40.453125
1276,15.06,2021-12-17 17:46:40.468750
1277,13.0,2021-12-17 17:46:40.484375
1278,10.82,2021-12-17 17:46:40.500000
1279,8.69,2021-12-17 17:46:40.515625
1280,6.73,2021-12-17 17:46:40.531250
1281,4.95,2021-12-17 17:46:40.546875
1282,3.26,2021-12-17 17:46:40.562500
1283,1.49,2021-12-17 17:46:40.578125
1284,-0.49,2021-12-17 17:46:40.593750
1285,-2.69,2021-12-17 17:46:40.609375
1286,-4.97,2021-12-17 17:46:40.625000
1287,-7.14,2021-12-17 17:46:40.640625
1288,-9.05,2021-12-17 17:46:40.656250
1289,-10.68,2021-12-17 17:46:40.671875
1290,-12.2,2021-12-17 17:46:40.687500
1291,-13.84,2021-12-17 17:46:40.703125
1292,-15.85,2021-12-17 17:46:40.718750
1293,-18.46,2021-12-17 17:46:40.734375
1294,-21.76,2021-12-17 17:46:40.750000
1295,-25.72,2021-12-17 17:46:40.765625
1296,-30.1,2021-12-17 17:46:40.781250
1297,-34.38,2021-12-17 17:46:40.796875
1298,-37.89,2021-12-17 17:46:40.812500
1299,-39.88,2021-12-17 17:46:40.828125
1300,-39.84,2021-12-17 17:46:40.843750
1301,-37.59,2021-12-17 17:46:40.859375
1302,-33.42,2021-12-17 17:46:40.875000
1303,-27.97,2021-12-17 17:46:40.890625
1304,-21.98,2021-12-17 17:46:40.906250
1305,-16.06,2021-12-17 17:46:40.921875
1306,-10.56,2021-12-17 17:46:40.937500
1307,-5.57,2021-12-17 17:46:40.953125
1308,-1.01,2021-12-17 17:46:40.968750
1309,3.21,2021-12-17 17:46:40.984375
1310,7.13,2021-12-17 17:46:41.000000
1311,10.73,2021-12-17 17:46:41.015625
1312,13.94,2021-12-17 17:46:41.031250
1313,16.67,2021-12-17 17:46:41.046875
1314,18.88,2021-12-17 17:46:41.062500
1315,20.59,2021-12-17 17:46:41.078125
1316,21.85,2021-12-17 17:46:41.093750
1317,22.77,2021-12-17 17:46:41.109375
1318,23.43,2021-12-17 17:46:41.125000
1319,23.93,2021-12-17 17:46:41.140625
1320,24.27,2021-12-17 17:46:41.156250
1321,24.4,2021-12-17 17:46:41.171875
1322,24.27,2021-12-17 17:46:41.187500
1323,23.86,2021-12-17 17:46:41.203125
1324,23.22,2021-12-17 17:46:41.218750
1325,22.41,2021-12-17 17:46:41.234375
1326,21.53,2021-12-17 17:46:41.250000
1327,20.63,2021-12-17 17:46:41.265625
1328,19.69,2021-12-17 17:46:41.281250
1329,18.68,2021-12-17 17:46:41.296875
1330,17.54,2021-12-17 17:46:41.312500
1331,16.25,2021-12-17 17:46:41.328125
1332,14.76,2021-12-17 17:46:41.343750
1333,13.05,2021-12-17 17:46:41.359375
1334,11.13,2021-12-17 17:46:41.375000
1335,9.04,2021-12-17 17:46:41.390625
1336,6.88,2021-12-17 17:46:41.406250
1337,4.82,2021-12-17 17:46:41.421875
1338,3.0,2021-12-17 17:46:41.437500
1339,1.43,2021-12-17 17:46:41.453125
1340,-0.02,2021-12-17 17:46:41.468750
1341,-1.6,2021-12-17 17:46:41.484375
1342,-3.52,2021-12-17 17:46:41.500000
1343,-5.81,2021-12-17 17:46:41.515625
1344,-8.3,2021-12-17 17:46:41.531250
1345,-10.68,2021-12-17 17:46:41.546875
1346,-12.69,2021-12-17 17:46:41.562500
1347,-14.27,2021-12-17 17:46:41.578125
1348,-15.64,2021-12-17 17:46:41.593750
1349,-17.2,2021-12-17 17:46:41.609375
1350,-19.33,2021-12-17 17:46:41.625000
1351,-22.23,2021-12-17 17:46:41.640625
1352,-25.8,2021-12-17 17:46:41.656250
1353,-29.67,2021-12-17 17:46:41.671875
1354,-33.31,2021-12-17 17:46:41.687500
1355,-36.13,2021-12-17 17:46:41.703125
1356,-37.67,2021-12-17 17:46:41.718750
1357,-37.59,2021-12-17 17:46:41.734375
1358,-35.75,2021-12-17 17:46:41.750000
1359,-32.27,2021-12-17 17:46:41.765625
1360,-27.47,2021-12-17 17:46:41.781250
1361,-21.83,2021-12-17 17:46:41.796875
1362,-15.89,2021-12-17 17:46:41.812500
1363,-10.11,2021-12-17 17:46:41.828125
1364,-4.81,2021-12-17 17:46:41.843750
1365,-0.1,2021-12-17 17:46:41.859375
1366,4.04,2021-12-17 17:46:41.875000
1367,7.72,2021-12-17 17:46:41.890625
1368,10.99,2021-12-17 17:46:41.906250
1369,13.88,2021-12-17 17:46:41.921875
1370,16.32,2021-12-17 17:46:41.937500
1371,18.23,2021-12-17 17:46:41.953125
1372,19.55,2021-12-17 17:46:41.968750
1373,20.31,2021-12-17 17:46:41.984375
1374,20.57,2021-12-17 17:46:42.000000
1375,20.45,2021-12-17 17:46:42.015625
1376,20.11,2021-12-17 17:46:42.031250
1377,19.71,2021-12-17 17:46:42.046875
1378,19.39,2021-12-17 17:46:42.062500
1379,19.24,2021-12-17 17:46:42.078125
1380,19.27,2021-12-17 17:46:42.093750
1381,19.4,2021-12-17 17:46:42.109375
1382,19.49,2021-12-17 17:46:42.125000
1383,19.4,2021-12-17 17:46:42.140625
1384,19.05,2021-12-17 17:46:42.156250
1385,18.4,2021-12-17 17:46:42.171875
1386,17.47,2021-12-17 17:46:42.187500
1387,16.28,2021-12-17 17:46:42.203125
1388,14.84,2021-12-17 17:46:42.218750
1389,13.13,2021-12-17 17:46:42.234375
1390,11.21,2021-12-17 17:46:42.250000
1391,9.18,2021-12-17 17:46:42.265625
1392,7.12,2021-12-17 17:46:42.281250
1393,5.08,2021-12-17 17:46:42.296875
1394,3.02,2021-12-17 17:46:42.312500
1395,0.84,2021-12-17 17:46:42.328125
1396,-1.55,2021-12-17 17:46:42.343750
1397,-4.11,2021-12-17 17:46:42.359375
1398,-6.74,2021-12-17 17:46:42.375000
1399,-9.28,2021-12-17 17:46:42.390625
1400,-11.63,2021-12-17 17:46:42.406250
1401,-13.86,2021-12-17 17:46:42.421875
1402,-16.15,2021-12-17 17:46:42.437500
1403,-18.71,2021-12-17 17:46:42.453125
1404,-21.71,2021-12-17 17:46:42.468750
1405,-25.13,2021-12-17 17:46:42.484375
1406,-28.72,2021-12-17 17:46:42.500000
1407,-32.03,2021-12-17 17:46:42.515625
1408,-34.45,2021-12-17 17:46:42.531250
1409,-35.45,2021-12-17 17:46:42.546875
1410,-34.67,2021-12-17 17:46:42.562500
1411,-32.04,2021-12-17 17:46:42.578125
1412,-27.82,2021-12-17 17:46:42.593750
1413,-22.5,2021-12-17 17:46:42.609375
1414,-16.69,2021-12-17 17:46:42.625000
1415,-10.9,2021-12-17 17:46:42.640625
1416,-5.51,2021-12-17 17:46:42.656250
1417,-0.67,2021-12-17 17:46:42.671875
1418,3.58,2021-12-17 17:46:42.687500
1419,7.31,2021-12-17 17:46:42.703125
1420,10.64,2021-12-17 17:46:42.718750
1421,13.59,2021-12-17 17:46:42.734375
1422,16.19,2021-12-17 17:46:42.750000
1423,18.38,2021-12-17 17:46:42.765625
1424,20.13,2021-12-17 17:46:42.781250
1425,21.45,2021-12-17 17:46:42.796875
1426,22.42,2021-12-17 17:46:42.812500
1427,23.19,2021-12-17 17:46:42.828125
1428,23.92,2021-12-17 17:46:42.843750
1429,24.68,2021-12-17 17:46:42.859375
1430,25.43,2021-12-17 17:46:42.875000
1431,26.07,2021-12-17 17:46:42.890625
1432,26.47,2021-12-17 17:46:42.906250
1433,26.59,2021-12-17 17:46:42.921875
1434,26.47,2021-12-17 17:46:42.937500
1435,26.19,2021-12-17 17:46:42.953125
1436,25.76,2021-12-17 17:46:42.968750
1437,25.1,2021-12-17 17:46:42.984375
1438,24.1,2021-12-17 17:46:43.000000
1439,22.62,2021-12-17 17:46:43.015625
1440,20.61,2021-12-17 17:46:43.031250
1441,18.13,2021-12-17 17:46:43.046875
1442,15.33,2021-12-17 17:46:43.062500
1443,12.37,2021-12-17 17:46:43.078125
1444,9.37,2021-12-17 17:46:43.093750
1445,6.33,2021-12-17 17:46:43.109375
1446,3.2,2021-12-17 17:46:43.125000
1447,-0.06,2021-12-17 17:46:43.140625
1448,-3.4,2021-12-17 17:46:43.156250
1449,-6.76,2021-12-17 17:46:43.171875
1450,-9.99,2021-12-17 17:46:43.187500
1451,-13.1,2021-12-17 17:46:43.203125
1452,-16.19,2021-12-17 17:46:43.218750
1453,-19.5,2021-12-17 17:46:43.234375
1454,-23.27,2021-12-17 17:46:43.250000
1455,-27.54,2021-12-17 17:46:43.265625
1456,-32.08,2021-12-17 17:46:43.281250
1457,-36.32,2021-12-17 17:46:43.296875
1458,-39.51,2021-12-17 17:46:43.312500
1459,-40.94,2021-12-17 17:46:43.328125
1460,-40.14,2021-12-17 17:46:43.343750
1461,-37.06,2021-12-17 17:46:43.359375
1462,-32.08,2021-12-17 17:46:43.375000
1463,-25.88,2021-12-17 17:46:43.390625
1464,-19.22,2021-12-17 17:46:43.406250
1465,-12.74,2021-12-17 17:46:43.421875
1466,-6.87,2021-12-17 17:46:43.437500
1467,-1.75,2021-12-17 17:46:43.453125
1468,2.68,2021-12-17 17:46:43.468750
1469,6.56,2021-12-17 17:46:43.484375
1470,10.0,2021-12-17 17:46:43.500000
1471,13.08,2021-12-17 17:46:43.515625
1472,15.78,2021-12-17 17:46:43.531250
1473,18.06,2021-12-17 17:46:43.546875
1474,19.81,2021-12-17 17:46:43.562500
1475,20.97,2021-12-17 17:46:43.578125
1476,21.5,2021-12-17 17:46:43.593750
1477,21.46,2021-12-17 17:46:43.609375
1478,20.99,2021-12-17 17:46:43.625000
1479,20.34,2021-12-17 17:46:43.640625
1480,19.78,2021-12-17 17:46:43.656250
1481,19.46,2021-12-17 17:46:43.671875
1482,19.37,2021-12-17 17:46:43.687500
1483,19.28,2021-12-17 17:46:43.703125
1484,18.85,2021-12-17 17:46:43.718750
1485,17.76,2021-12-17 17:46:43.734375
1486,15.88,2021-12-17 17:46:43.750000
1487,13.32,2021-12-17 17:46:43.765625
1488,10.36,2021-12-17 17:46:43.781250
1489,7.32,2021-12-17 17:46:43.796875
1490,4.48,2021-12-17 17:46:43.812500
1491,1.89,2021-12-17 17:46:43.828125
1492,-0.48,2021-12-17 17:46:43.843750
1493,-2.75,2021-12-17 17:46:43.859375
1494,-5.0,2021-12-17 17:46:43.875000
1495,-7.32,2021-12-17 17:46:43.890625
1496,-9.73,2021-12-17 17:46:43.906250
1497,-12.28,2021-12-17 17:46:43.921875
1498,-14.96,2021-12-17 17:46:43.937500
1499,-17.69,2021-12-17 17:46:43.953125
1500,-20.38,2021-12-17 17:46:43.968750
1501,-22.87,2021-12-17 17:46:43.984375
1502,-25.07,2021-12-17 17:46:44.000000
1503,-26.97,2021-12-17 17:46:44.015625
1504,-28.71,2021-12-17 17:46:44.031250
1505,-30.49,2021-12-17 17:46:44.046875
1506,-32.48,2021-12-17 17:46:44.062500
1507,-34.8,2021-12-17 17:46:44.078125
1508,-37.33,2021-12-17 17:46:44.093750
1509,-39.75,2021-12-17 17:46:44.109375
1510,-41.54,2021-12-17 17:46:44.125000
1511,-42.06,2021-12-17 17:46:44.140625
1512,-40.7,2021-12-17 17:46:44.156250
1513,-37.14,2021-12-17 17:46:44.171875
1514,-31.4,2021-12-17 17:46:44.187500
1515,-23.9,2021-12-17 17:46:44.203125
1516,-15.36,2021-12-17 17:46:44.218750
1517,-6.5,2021-12-17 17:46:44.234375
1518,2.01,2021-12-17 17:46:44.250000
1519,9.72,2021-12-17 17:46:44.265625
1520,16.39,2021-12-17 17:46:44.281250
1521,21.92,2021-12-17 17:46:44.296875
1522,26.33,2021-12-17 17:46:44.312500
1523,29.7,2021-12-17 17:46:44.328125
1524,32.2,2021-12-17 17:46:44.343750
1525,34.0,2021-12-17 17:46:44.359375
1526,35.25,2021-12-17 17:46:44.375000
1527,36.0,2021-12-17 17:46:44.390625
1528,36.24,2021-12-17 17:46:44.406250
1529,35.96,2021-12-17 17:46:44.421875
1530,35.19,2021-12-17 17:46:44.437500
1531,34.12,2021-12-17 17:46:44.453125
1532,32.92,2021-12-17 17:46:44.468750
1533,31.76,2021-12-17 17:46:44.484375
1534,30.59,2021-12-17 17:46:44.500000
1535,29.24,2021-12-17 17:46:44.515625
1536,27.45,2021-12-17 17:46:44.531250
1537,25.07,2021-12-17 17:46:44.546875
1538,22.12,2021-12-17 17:46:44.562500
1539,18.76,2021-12-17 17:46:44.578125
1540,15.26,2021-12-17 17:46:44.593750
1541,11.7,2021-12-17 17:46:44.609375
1542,8.03,2021-12-17 17:46:44.625000
1543,4.02,2021-12-17 17:46:44.640625
1544,-0.6,2021-12-17 17:46:44.656250
1545,-5.96,2021-12-17 17:46:44.671875
1546,-11.92,2021-12-17 17:46:44.687500
1547,-18.1,2021-12-17 17:46:44.703125
1548,-23.98,2021-12-17 17:46:44.718750
1549,-29.12,2021-12-17 17:46:44.734375
1550,-33.33,2021-12-17 17:46:44.750000
1551,-36.78,2021-12-17 17:46:44.765625
1552,-39.97,2021-12-17 17:46:44.781250
1553,-43.57,2021-12-17 17:46:44.796875
1554,-48.16,2021-12-17 17:46:44.812500
1555,-54.06,2021-12-17 17:46:44.828125
1556,-61.23,2021-12-17 17:46:44.843750
1557,-69.18,2021-12-17 17:46:44.859375
1558,-77.1,2021-12-17 17:46:44.875000
1559,-83.82,2021-12-17 17:46:44.890625
1560,-87.89,2021-12-17 17:46:44.906250
1561,-87.81,2021-12-17 17:46:44.921875
1562,-82.49,2021-12-17 17:46:44.937500
1563,-71.82,2021-12-17 17:46:44.953125
1564,-57.0,2021-12-17 17:46:44.968750
1565,-40.37,2021-12-17 17:46:44.984375
1566,-24.65,2021-12-17 17:46:45.000000
1567,-11.85,2021-12-17 17:46:45.015625
1568,-2.48,2021-12-17 17:46:45.031250
1569,4.6,2021-12-17 17:46:45.046875
1570,11.4,2021-12-17 17:46:45.062500
1571,19.72,2021-12-17 17:46:45.078125
1572,30.11,2021-12-17 17:46:45.093750
1573,41.73,2021-12-17 17:46:45.109375
1574,52.94,2021-12-17 17:46:45.125000
1575,62.3,2021-12-17 17:46:45.140625
1576,69.31,2021-12-17 17:46:45.156250
1577,74.52,2021-12-17 17:46:45.171875
1578,78.9,2021-12-17 17:46:45.187500
1579,83.08,2021-12-17 17:46:45.203125
1580,86.9,2021-12-17 17:46:45.218750
1581,89.55,2021-12-17 17:46:45.234375
1582,90.12,2021-12-17 17:46:45.250000
1583,88.19,2021-12-17 17:46:45.265625
1584,84.11,2021-12-17 17:46:45.281250
1585,78.78,2021-12-17 17:46:45.296875
1586,73.14,2021-12-17 17:46:45.312500
1587,67.75,2021-12-17 17:46:45.328125
1588,62.58,2021-12-17 17:46:45.343750
1589,57.28,2021-12-17 17:46:45.359375
1590,51.45,2021-12-17 17:46:45.375000
1591,44.99,2021-12-17 17:46:45.390625
1592,38.05,2021-12-17 17:46:45.406250
1593,30.93,2021-12-17 17:46:45.421875
1594,23.85,2021-12-17 17:46:45.437500
1595,16.81,2021-12-17 17:46:45.453125
1596,9.72,2021-12-17 17:46:45.468750
1597,2.5,2021-12-17 17:46:45.484375
1598,-4.77,2021-12-17 17:46:45.500000
1599,-11.78,2021-12-17 17:46:45.515625
1600,-18.14,2021-12-17 17:46:45.531250
1601,-23.53,2021-12-17 17:46:45.546875
1602,-27.82,2021-12-17 17:46:45.562500
1603,-31.19,2021-12-17 17:46:45.578125
1604,-33.99,2021-12-17 17:46:45.593750
1605,-36.61,2021-12-17 17:46:45.609375
1606,-39.29,2021-12-17 17:46:45.625000
1607,-41.92,2021-12-17 17:46:45.640625
1608,-44.14,2021-12-17 17:46:45.656250
1609,-45.42,2021-12-17 17:46:45.671875
1610,-45.28,2021-12-17 17:46:45.687500
1611,-43.44,2021-12-17 17:46:45.703125
1612,-39.94,2021-12-17 17:46:45.718750
1613,-35.09,2021-12-17 17:46:45.734375
1614,-29.39,2021-12-17 17:46:45.750000
1615,-23.32,2021-12-17 17:46:45.765625
1616,-17.33,2021-12-17 17:46:45.781250
1617,-11.76,2021-12-17 17:46:45.796875
1618,-6.85,2021-12-17 17:46:45.812500
1619,-2.75,2021-12-17 17:46:45.828125
1620,0.45,2021-12-17 17:46:45.843750
1621,2.74,2021-12-17 17:46:45.859375
1622,4.25,2021-12-17 17:46:45.875000
1623,5.17,2021-12-17 17:46:45.890625
1624,5.71,2021-12-17 17:46:45.906250
1625,6.11,2021-12-17 17:46:45.921875
1626,6.53,2021-12-17 17:46:45.937500
1627,7.06,2021-12-17 17:46:45.953125
1628,7.69,2021-12-17 17:46:45.968750
1629,8.38,2021-12-17 17:46:45.984375
1630,9.01,2021-12-17 17:46:46.000000
1631,9.49,2021-12-17 17:46:46.015625
1632,9.76,2021-12-17 17:46:46.031250
1633,9.76,2021-12-17 17:46:46.046875
1634,9.53,2021-12-17 17:46:46.062500
1635,9.12,2021-12-17 17:46:46.078125
1636,8.56,2021-12-17 17:46:46.093750
1637,7.88,2021-12-17 17:46:46.109375
1638,7.06,2021-12-17 17:46:46.125000
1639,6.09,2021-12-17 17:46:46.140625
1640,4.97,2021-12-17 17:46:46.156250
1641,3.73,2021-12-17 17:46:46.171875
1642,2.46,2021-12-17 17:46:46.187500
1643,1.22,2021-12-17 17:46:46.203125
1644,0.09,2021-12-17 17:46:46.218750
1645,-0.96,2021-12-17 17:46:46.234375
1646,-2.0,2021-12-17 17:46:46.250000
1647,-3.15,2021-12-17 17:46:46.265625
1648,-4.56,2021-12-17 17:46:46.281250
1649,-6.3,2021-12-17 17:46:46.296875
1650,-8.37,2021-12-17 17:46:46.312500
1651,-10.63,2021-12-17 17:46:46.328125
1652,-12.89,2021-12-17 17:46:46.343750
1653,-14.94,2021-12-17 17:46:46.359375
1654,-16.68,2021-12-17 17:46:46.375000
1655,-18.15,2021-12-17 17:46:46.390625
1656,-19.56,2021-12-17 17:46:46.406250
1657,-21.14,2021-12-17 17:46:46.421875
1658,-23.14,2021-12-17 17:46:46.437500
1659,-25.6,2021-12-17 17:46:46.453125
1660,-28.45,2021-12-17 17:46:46.468750
1661,-31.38,2021-12-17 17:46:46.484375
1662,-33.97,2021-12-17 17:46:46.500000
1663,-35.75,2021-12-17 17:46:46.515625
1664,-36.28,2021-12-17 17:46:46.531250
1665,-35.25,2021-12-17 17:46:46.546875
1666,-32.61,2021-12-17 17:46:46.562500
1667,-28.59,2021-12-17 17:46:46.578125
1668,-23.7,2021-12-17 17:46:46.593750
1669,-18.53,2021-12-17 17:46:46.609375
1670,-13.63,2021-12-17 17:46:46.625000
1671,-9.26,2021-12-17 17:46:46.640625
1672,-5.45,2021-12-17 17:46:46.656250
1673,-2.02,2021-12-17 17:46:46.671875
1674,1.23,2021-12-17 17:46:46.687500
1675,4.35,2021-12-17 17:46:46.703125
1676,7.24,2021-12-17 17:46:46.718750
1677,9.71,2021-12-17 17:46:46.734375
1678,11.58,2021-12-17 17:46:46.750000
1679,12.83,2021-12-17 17:46:46.765625
1680,13.56,2021-12-17 17:46:46.781250
1681,13.94,2021-12-17 17:46:46.796875
1682,14.11,2021-12-17 17:46:46.812500
1683,14.11,2021-12-17 17:46:46.828125
1684,13.92,2021-12-17 17:46:46.843750
1685,13.55,2021-12-17 17:46:46.859375
1686,13.06,2021-12-17 17:46:46.875000
1687,12.59,2021-12-17 17:46:46.890625
1688,12.23,2021-12-17 17:46:46.906250
1689,12.03,2021-12-17 17:46:46.921875
1690,11.93,2021-12-17 17:46:46.937500
1691,11.82,2021-12-17 17:46:46.953125
1692,11.6,2021-12-17 17:46:46.968750
1693,11.27,2021-12-17 17:46:46.984375
1694,10.84,2021-12-17 17:46:47.000000
1695,10.36,2021-12-17 17:46:47.015625
1696,9.8,2021-12-17 17:46:47.031250
1697,9.12,2021-12-17 17:46:47.046875
1698,8.29,2021-12-17 17:46:47.062500
1699,7.32,2021-12-17 17:46:47.078125
1700,6.31,2021-12-17 17:46:47.093750
1701,5.36,2021-12-17 17:46:47.109375
1702,4.54,2021-12-17 17:46:47.125000
1703,3.86,2021-12-17 17:46:47.140625
1704,3.23,2021-12-17 17:46:47.156250
1705,2.54,2021-12-17 17:46:47.171875
1706,1.65,2021-12-17 17:46:47.187500
1707,0.49,2021-12-17 17:46:47.203125
1708,-0.95,2021-12-17 17:46:47.218750
1709,-2.64,2021-12-17 17:46:47.234375
1710,-4.46,2021-12-17 17:46:47.250000
1711,-6.29,2021-12-17 17:46:47.265625
1712,-8.01,2021-12-17 17:46:47.281250
1713,-9.54,2021-12-17 17:46:47.296875
1714,-10.84,2021-12-17 17:46:47.312500
1715,-11.98,2021-12-17 17:46:47.328125
1716,-13.09,2021-12-17 17:46:47.343750
1717,-14.41,2021-12-17 17:46:47.359375
1718,-16.17,2021-12-17 17:46:47.375000
1719,-18.47,2021-12-17 17:46:47.390625
1720,-21.19,2021-12-17 17:46:47.406250
1721,-23.97,2021-12-17 17:46:47.421875
1722,-26.23,2021-12-17 17:46:47.437500
1723,-27.37,2021-12-17 17:46:47.453125
1724,-26.97,2021-12-17 17:46:47.468750
1725,-24.97,2021-12-17 17:46:47.484375
1726,-21.63,2021-12-17 17:46:47.500000
1727,-17.49,2021-12-17 17:46:47.515625
1728,-13.12,2021-12-17 17:46:47.531250
1729,-8.97,2021-12-17 17:46:47.546875
1730,-5.35,2021-12-17 17:46:47.562500
1731,-2.33,2021-12-17 17:46:47.578125
1732,0.1,2021-12-17 17:46:47.593750
1733,2.04,2021-12-17 17:46:47.609375
1734,3.63,2021-12-17 17:46:47.625000
1735,5.0,2021-12-17 17:46:47.640625
1736,6.26,2021-12-17 17:46:47.656250
1737,7.48,2021-12-17 17:46:47.671875
1738,8.63,2021-12-17 17:46:47.687500
1739,9.62,2021-12-17 17:46:47.703125
1740,10.32,2021-12-17 17:46:47.718750
1741,10.63,2021-12-17 17:46:47.734375
1742,10.61,2021-12-17 17:46:47.750000
1743,10.38,2021-12-17 17:46:47.765625
1744,10.16,2021-12-17 17:46:47.781250
1745,10.07,2021-12-17 17:46:47.796875
1746,10.13,2021-12-17 17:46:47.812500
1747,10.24,2021-12-17 17:46:47.828125
1748,10.21,2021-12-17 17:46:47.843750
1749,9.91,2021-12-17 17:46:47.859375
1750,9.24,2021-12-17 17:46:47.875000
1751,8.21,2021-12-17 17:46:47.890625
1752,6.89,2021-12-17 17:46:47.906250
1753,5.4,2021-12-17 17:46:47.921875
1754,3.83,2021-12-17 17:46:47.937500
1755,2.27,2021-12-17 17:46:47.953125
1756,0.78,2021-12-17 17:46:47.968750
1757,-0.62,2021-12-17 17:46:47.984375
1758,-1.94,2021-12-17 17:46:48.000000
1759,-3.23,2021-12-17 17:46:48.015625
1760,-4.53,2021-12-17 17:46:48.031250
1761,-5.9,2021-12-17 17:46:48.046875
1762,-7.34,2021-12-17 17:46:48.062500
1763,-8.81,2021-12-17 17:46:48.078125
1764,-10.31,2021-12-17 17:46:48.093750
1765,-11.83,2021-12-17 17:46:48.109375
1766,-13.38,2021-12-17 17:46:48.125000
1767,-14.97,2021-12-17 17:46:48.140625
1768,-16.66,2021-12-17 17:46:48.156250
1769,-18.47,2021-12-17 17:46:48.171875
1770,-20.51,2021-12-17 17:46:48.187500
1771,-22.82,2021-12-17 17:46:48.203125
1772,-25.35,2021-12-17 17:46:48.218750
1773,-27.82,2021-12-17 17:46:48.234375
1774,-29.75,2021-12-17 17:46:48.250000
1775,-30.55,2021-12-17 17:46:48.265625
1776,-29.79,2021-12-17 17:46:48.281250
1777,-27.36,2021-12-17 17:46:48.296875
1778,-23.54,2021-12-17 17:46:48.312500
1779,-18.9,2021-12-17 17:46:48.328125
1780,-14.07,2021-12-17 17:46:48.343750
1781,-9.5,2021-12-17 17:46:48.359375
1782,-5.38,2021-12-17 17:46:48.375000
1783,-1.68,2021-12-17 17:46:48.390625
1784,1.74,2021-12-17 17:46:48.406250
1785,4.95,2021-12-17 17:46:48.421875
1786,7.91,2021-12-17 17:46:48.437500
1787,10.48,2021-12-17 17:46:48.453125
1788,12.52,2021-12-17 17:46:48.468750
1789,13.95,2021-12-17 17:46:48.484375
1790,14.8,2021-12-17 17:46:48.500000
1791,15.21,2021-12-17 17:46:48.515625
1792,15.38,2021-12-17 17:46:48.531250
1793,15.48,2021-12-17 17:46:48.546875
1794,15.59,2021-12-17 17:46:48.562500
1795,15.67,2021-12-17 17:46:48.578125
1796,15.67,2021-12-17 17:46:48.593750
1797,15.52,2021-12-17 17:46:48.609375
1798,15.26,2021-12-17 17:46:48.625000
1799,14.95,2021-12-17 17:46:48.640625
1800,14.69,2021-12-17 17:46:48.656250
1801,14.5,2021-12-17 17:46:48.671875
1802,14.28,2021-12-17 17:46:48.687500
1803,13.89,2021-12-17 17:46:48.703125
1804,13.21,2021-12-17 17:46:48.718750
1805,12.21,2021-12-17 17:46:48.734375
1806,11.01,2021-12-17 17:46:48.750000
1807,9.77,2021-12-17 17:46:48.765625
1808,8.65,2021-12-17 17:46:48.781250
1809,7.68,2021-12-17 17:46:48.796875
1810,6.78,2021-12-17 17:46:48.812500
1811,5.76,2021-12-17 17:46:48.828125
1812,4.44,2021-12-17 17:46:48.843750
1813,2.74,2021-12-17 17:46:48.859375
1814,0.64,2021-12-17 17:46:48.875000
1815,-1.7,2021-12-17 17:46:48.890625
1816,-4.12,2021-12-17 17:46:48.906250
1817,-6.39,2021-12-17 17:46:48.921875
1818,-8.4,2021-12-17 17:46:48.937500
1819,-10.07,2021-12-17 17:46:48.953125
1820,-11.46,2021-12-17 17:46:48.968750
1821,-12.74,2021-12-17 17:46:48.984375
1822,-14.15,2021-12-17 17:46:49.000000
1823,-15.94,2021-12-17 17:46:49.015625
1824,-18.34,2021-12-17 17:46:49.031250
1825,-21.39,2021-12-17 17:46:49.046875
1826,-24.88,2021-12-17 17:46:49.062500
1827,-28.33,2021-12-17 17:46:49.078125
1828,-31.13,2021-12-17 17:46:49.093750
1829,-32.61,2021-12-17 17:46:49.109375
1830,-32.34,2021-12-17 17:46:49.125000
1831,-30.22,2021-12-17 17:46:49.140625
1832,-26.5,2021-12-17 17:46:49.156250
1833,-21.7,2021-12-17 17:46:49.171875
1834,-16.4,2021-12-17 17:46:49.187500
1835,-11.11,2021-12-17 17:46:49.203125
1836,-6.14,2021-12-17 17:46:49.218750
1837,-1.65,2021-12-17 17:46:49.234375
1838,2.3,2021-12-17 17:46:49.250000
1839,5.69,2021-12-17 17:46:49.265625
1840,8.56,2021-12-17 17:46:49.281250
1841,10.94,2021-12-17 17:46:49.296875
1842,12.92,2021-12-17 17:46:49.312500
1843,14.58,2021-12-17 17:46:49.328125
1844,15.92,2021-12-17 17:46:49.343750
1845,16.87,2021-12-17 17:46:49.359375
1846,17.35,2021-12-17 17:46:49.375000
1847,17.33,2021-12-17 17:46:49.390625
1848,16.99,2021-12-17 17:46:49.406250
1849,16.62,2021-12-17 17:46:49.421875
1850,16.58,2021-12-17 17:46:49.437500
1851,17.09,2021-12-17 17:46:49.453125
1852,18.15,2021-12-17 17:46:49.468750
1853,19.51,2021-12-17 17:46:49.484375
1854,20.83,2021-12-17 17:46:49.500000
1855,21.8,2021-12-17 17:46:49.515625
1856,22.3,2021-12-17 17:46:49.531250
1857,22.35,2021-12-17 17:46:49.546875
1858,22.03,2021-12-17 17:46:49.562500
1859,21.44,2021-12-17 17:46:49.578125
1860,20.61,2021-12-17 17:46:49.593750
1861,19.55,2021-12-17 17:46:49.609375
1862,18.27,2021-12-17 17:46:49.625000
1863,16.81,2021-12-17 17:46:49.640625
1864,15.19,2021-12-17 17:46:49.656250
1865,13.4,2021-12-17 17:46:49.671875
1866,11.38,2021-12-17 17:46:49.687500
1867,9.06,2021-12-17 17:46:49.703125
1868,6.48,2021-12-17 17:46:49.718750
1869,3.77,2021-12-17 17:46:49.734375
1870,1.17,2021-12-17 17:46:49.750000
1871,-1.08,2021-12-17 17:46:49.765625
1872,-2.86,2021-12-17 17:46:49.781250
1873,-4.18,2021-12-17 17:46:49.796875
1874,-5.2,2021-12-17 17:46:49.812500
1875,-6.2,2021-12-17 17:46:49.828125
1876,-7.49,2021-12-17 17:46:49.843750
1877,-9.31,2021-12-17 17:46:49.859375
1878,-11.76,2021-12-17 17:46:49.875000
1879,-14.75,2021-12-17 17:46:49.890625
1880,-18.08,2021-12-17 17:46:49.906250
1881,-21.45,2021-12-17 17:46:49.921875
1882,-24.67,2021-12-17 17:46:49.937500
1883,-27.71,2021-12-17 17:46:49.953125
1884,-30.69,2021-12-17 17:46:49.968750
1885,-33.76,2021-12-17 17:46:49.984375
1886,-37.01,2021-12-17 17:46:50.000000
1887,-40.3,2021-12-17 17:46:50.015625
1888,-43.18,2021-12-17 17:46:50.031250
1889,-45.02,2021-12-17 17:46:50.046875
1890,-45.22,2021-12-17 17:46:50.062500
1891,-43.37,2021-12-17 17:46:50.078125
1892,-39.52,2021-12-17 17:46:50.093750
1893,-34.09,2021-12-17 17:46:50.109375
1894,-27.83,2021-12-17 17:46:50.125000
1895,-21.54,2021-12-17 17:46:50.140625
1896,-15.85,2021-12-17 17:46:50.156250
1897,-11.03,2021-12-17 17:46:50.171875
1898,-7.03,2021-12-17 17:46:50.187500
1899,-3.55,2021-12-17 17:46:50.203125
1900,-0.29,2021-12-17 17:46:50.218750
1901,2.88,2021-12-17 17:46:50.234375
1902,5.87,2021-12-17 17:46:50.250000
1903,8.49,2021-12-17 17:46:50.265625
1904,10.57,2021-12-17 17:46:50.281250
1905,12.07,2021-12-17 17:46:50.296875
1906,13.15,2021-12-17 17:46:50.312500
1907,14.03,2021-12-17 17:46:50.328125
1908,14.85,2021-12-17 17:46:50.343750
1909,15.65,2021-12-17 17:46:50.359375
1910,16.28,2021-12-17 17:46:50.375000
1911,16.61,2021-12-17 17:46:50.390625
1912,16.54,2021-12-17 17:46:50.406250
1913,16.17,2021-12-17 17:46:50.421875
1914,15.68,2021-12-17 17:46:50.437500
1915,15.3,2021-12-17 17:46:50.453125
1916,15.11,2021-12-17 17:46:50.468750
1917,15.07,2021-12-17 17:46:50.484375
1918,15.02,2021-12-17 17:46:50.500000
1919,14.81,2021-12-17 17:46:50.515625
1920,14.36,2021-12-17 17:46:50.531250
1921,13.7,2021-12-17 17:46:50.546875
1922,12.94,2021-12-17 17:46:50.562500
1923,12.17,2021-12-17 17:46:50.578125
1924,11.42,2021-12-17 17:46:50.593750
1925,10.62,2021-12-17 17:46:50.609375
1926,9.66,2021-12-17 17:46:50.625000
1927,8.45,2021-12-17 17:46:50.640625
1928,6.99,2021-12-17 17:46:50.656250
1929,5.34,2021-12-17 17:46:50.671875
1930,3.61,2021-12-17 17:46:50.687500
1931,1.87,2021-12-17 17:46:50.703125
1932,0.11,2021-12-17 17:46:50.718750
1933,-1.74,2021-12-17 17:46:50.734375
1934,-3.78,2021-12-17 17:46:50.750000
1935,-6.03,2021-12-17 17:46:50.765625
1936,-8.41,2021-12-17 17:46:50.781250
1937,-10.81,2021-12-17 17:46:50.796875
1938,-13.09,2021-12-17 17:46:50.812500
1939,-15.23,2021-12-17 17:46:50.828125
1940,-17.31,2021-12-17 17:46:50.843750
1941,-19.44,2021-12-17 17:46:50.859375
1942,-21.79,2021-12-17 17:46:50.875000
1943,-24.42,2021-12-17 17:46:50.890625
1944,-27.37,2021-12-17 17:46:50.906250
1945,-30.6,2021-12-17 17:46:50.921875
1946,-33.96,2021-12-17 17:46:50.937500
1947,-37.19,2021-12-17 17:46:50.953125
1948,-39.92,2021-12-17 17:46:50.968750
1949,-41.64,2021-12-17 17:46:50.984375
1950,-41.92,2021-12-17 17:46:51.000000
1951,-40.46,2021-12-17 17:46:51.015625
1952,-37.27,2021-12-17 17:46:51.031250
1953,-32.63,2021-12-17 17:46:51.046875
1954,-26.97,2021-12-17 17:46:51.062500
1955,-20.78,2021-12-17 17:46:51.078125
1956,-14.55,2021-12-17 17:46:51.093750
1957,-8.64,2021-12-17 17:46:51.109375
1958,-3.37,2021-12-17 17:46:51.125000
1959,1.08,2021-12-17 17:46:51.140625
1960,4.57,2021-12-17 17:46:51.156250
1961,7.14,2021-12-17 17:46:51.171875
1962,8.92,2021-12-17 17:46:51.187500
1963,10.12,2021-12-17 17:46:51.203125
1964,10.95,2021-12-17 17:46:51.218750
1965,11.59,2021-12-17 17:46:51.234375
1966,12.15,2021-12-17 17:46:51.250000
1967,12.73,2021-12-17 17:46:51.265625
1968,13.4,2021-12-17 17:46:51.281250
1969,14.16,2021-12-17 17:46:51.296875
1970,15.0,2021-12-17 17:46:51.312500
1971,15.83,2021-12-17 17:46:51.328125
1972,16.57,2021-12-17 17:46:51.343750
1973,17.18,2021-12-17 17:46:51.359375
1974,17.67,2021-12-17 17:46:51.375000
1975,18.06,2021-12-17 17:46:51.390625
1976,18.36,2021-12-17 17:46:51.406250
1977,18.48,2021-12-17 17:46:51.421875
1978,18.29,2021-12-17 17:46:51.437500
1979,17.67,2021-12-17 17:46:51.453125
1980,16.63,2021-12-17 17:46:51.468750
1981,15.28,2021-12-17 17:46:51.484375
1982,13.8,2021-12-17 17:46:51.500000
1983,12.32,2021-12-17 17:46:51.515625
1984,10.9,2021-12-17 17:46:51.531250
1985,9.44,2021-12-17 17:46:51.546875
1986,7.8,2021-12-17 17:46:51.562500
1987,5.84,2021-12-17 17:46:51.578125
1988,3.52,2021-12-17 17:46:51.593750
1989,0.88,2021-12-17 17:46:51.609375
1990,-1.93,2021-12-17 17:46:51.625000
1991,-4.71,2021-12-17 17:46:51.640625
1992,-7.27,2021-12-17 17:46:51.656250
1993,-9.47,2021-12-17 17:46:51.671875
1994,-11.34,2021-12-17 17:46:51.687500
1995,-13.02,2021-12-17 17:46:51.703125
1996,-14.83,2021-12-17 17:46:51.718750
1997,-17.09,2021-12-17 17:46:51.734375
1998,-20.03,2021-12-17 17:46:51.750000
1999,-23.67,2021-12-17 17:46:51.765625
2000,-27.7,2021-12-17 17:46:51.781250
2001,-31.56,2021-12-17 17:46:51.796875
2002,-34.53,2021-12-17 17:46:51.812500
2003,-35.98,2021-12-17 17:46:51.828125
2004,-35.49,2021-12-17 17:46:51.843750
2005,-32.97,2021-12-17 17:46:51.859375
2006,-28.72,2021-12-17 17:46:51.875000
2007,-23.26,2021-12-17 17:46:51.890625
2008,-17.23,2021-12-17 17:46:51.906250
2009,-11.18,2021-12-17 17:46:51.921875
2010,-5.52,2021-12-17 17:46:51.937500
2011,-0.41,2021-12-17 17:46:51.953125
2012,4.14,2021-12-17 17:46:51.968750
2013,8.2,2021-12-17 17:46:51.984375
2014,11.88,2021-12-17 17:46:52.000000
2015,15.21,2021-12-17 17:46:52.015625
2016,18.19,2021-12-17 17:46:52.031250
2017,20.73,2021-12-17 17:46:52.046875
2018,22.77,2021-12-17 17:46:52.062500
2019,24.28,2021-12-17 17:46:52.078125
2020,25.32,2021-12-17 17:46:52.093750
2021,25.99,2021-12-17 17:46:52.109375
2022,26.45,2021-12-17 17:46:52.125000
2023,26.81,2021-12-17 17:46:52.140625
2024,27.14,2021-12-17 17:46:52.156250
2025,27.43,2021-12-17 17:46:52.171875
2026,27.59,2021-12-17 17:46:52.187500
2027,27.6,2021-12-17 17:46:52.203125
2028,27.42,2021-12-17 17:46:52.218750
2029,27.11,2021-12-17 17:46:52.234375
2030,26.68,2021-12-17 17:46:52.250000
2031,26.1,2021-12-17 17:46:52.265625
2032,25.27,2021-12-17 17:46:52.281250
2033,24.02,2021-12-17 17:46:52.296875
2034,22.31,2021-12-17 17:46:52.312500
2035,20.18,2021-12-17 17:46:52.328125
2036,17.84,2021-12-17 17:46:52.343750
2037,15.54,2021-12-17 17:46:52.359375
2038,13.44,2021-12-17 17:46:52.375000
2039,11.58,2021-12-17 17:46:52.390625
2040,9.89,2021-12-17 17:46:52.406250
2041,8.21,2021-12-17 17:46:52.421875
2042,6.37,2021-12-17 17:46:52.437500
2043,4.3,2021-12-17 17:46:52.453125
2044,1.98,2021-12-17 17:46:52.468750
2045,-0.56,2021-12-17 17:46:52.484375
2046,-3.26,2021-12-17 17:46:52.500000
2047,-6.03,2021-12-17 17:46:52.515625
2048,-8.79,2021-12-17 17:46:52.531250
2049,-11.47,2021-12-17 17:46:52.546875
2050,-14.03,2021-12-17 17:46:52.562500
2051,-16.51,2021-12-17 17:46:52.578125
2052,-19.04,2021-12-17 17:46:52.593750
2053,-21.76,2021-12-17 17:46:52.609375
2054,-24.83,2021-12-17 17:46:52.625000
2055,-28.34,2021-12-17 17:46:52.640625
2056,-32.26,2021-12-17 17:46:52.656250
2057,-36.35,2021-12-17 17:46:52.671875
2058,-40.16,2021-12-17 17:46:52.687500
2059,-43.05,2021-12-17 17:46:52.703125
2060,-44.37,2021-12-17 17:46:52.718750
2061,-43.65,2021-12-17 17:46:52.734375
2062,-40.76,2021-12-17 17:46:52.750000
2063,-35.98,2021-12-17 17:46:52.765625
2064,-29.9,2021-12-17 17:46:52.781250
2065,-23.2,2021-12-17 17:46:52.796875
2066,-16.52,2021-12-17 17:46:52.812500
2067,-10.26,2021-12-17 17:46:52.828125
2068,-4.62,2021-12-17 17:46:52.843750
2069,0.36,2021-12-17 17:46:52.859375
2070,4.72,2021-12-17 17:46:52.875000
2071,8.54,2021-12-17 17:46:52.890625
2072,11.86,2021-12-17 17:46:52.906250
2073,14.73,2021-12-17 17:46:52.921875
2074,17.16,2021-12-17 17:46:52.937500
2075,19.18,2021-12-17 17:46:52.953125
2076,20.79,2021-12-17 17:46:52.968750
2077,22.03,2021-12-17 17:46:52.984375
2078,22.95,2021-12-17 17:46:53.000000
2079,23.57,2021-12-17 17:46:53.015625
2080,23.96,2021-12-17 17:46:53.031250
2081,24.17,2021-12-17 17:46:53.046875
2082,24.27,2021-12-17 17:46:53.062500
2083,24.38,2021-12-17 17:46:53.078125
2084,24.63,2021-12-17 17:46:53.093750
2085,25.08,2021-12-17 17:46:53.109375
2086,25.68,2021-12-17 17:46:53.125000
2087,26.24,2021-12-17 17:46:53.140625
2088,26.52,2021-12-17 17:46:53.156250
2089,26.33,2021-12-17 17:46:53.171875
2090,25.61,2021-12-17 17:46:53.187500
2091,24.46,2021-12-17 17:46:53.203125
2092,23.12,2021-12-17 17:46:53.218750
2093,21.78,2021-12-17 17:46:53.234375
2094,20.56,2021-12-17 17:46:53.250000
2095,19.39,2021-12-17 17:46:53.265625
2096,18.15,2021-12-17 17:46:53.281250
2097,16.69,2021-12-17 17:46:53.296875
2098,14.98,2021-12-17 17:46:53.312500
2099,13.05,2021-12-17 17:46:53.328125
2100,11.06,2021-12-17 17:46:53.343750
2101,9.17,2021-12-17 17:46:53.359375
2102,7.49,2021-12-17 17:46:53.375000
2103,6.02,2021-12-17 17:46:53.390625
2104,4.64,2021-12-17 17:46:53.406250
2105,3.15,2021-12-17 17:46:53.421875
2106,1.33,2021-12-17 17:46:53.437500
2107,-0.96,2021-12-17 17:46:53.453125
2108,-3.71,2021-12-17 17:46:53.468750
2109,-6.75,2021-12-17 17:46:53.484375
2110,-9.83,2021-12-17 17:46:53.500000
2111,-12.74,2021-12-17 17:46:53.515625
2112,-15.39,2021-12-17 17:46:53.531250
2113,-17.9,2021-12-17 17:46:53.546875
2114,-20.51,2021-12-17 17:46:53.562500
2115,-23.54,2021-12-17 17:46:53.578125
2116,-27.23,2021-12-17 17:46:53.593750
2117,-31.64,2021-12-17 17:46:53.609375
2118,-36.54,2021-12-17 17:46:53.625000
2119,-41.41,2021-12-17 17:46:53.640625
2120,-45.53,2021-12-17 17:46:53.656250
2121,-48.12,2021-12-17 17:46:53.671875
2122,-48.55,2021-12-17 17:46:53.687500
2123,-46.57,2021-12-17 17:46:53.703125
2124,-42.39,2021-12-17 17:46:53.718750
2125,-36.61,2021-12-17 17:46:53.734375
2126,-30.01,2021-12-17 17:46:53.750000
2127,-23.36,2021-12-17 17:46:53.765625
2128,-17.13,2021-12-17 17:46:53.781250
2129,-11.49,2021-12-17 17:46:53.796875
2130,-6.38,2021-12-17 17:46:53.812500
2131,-1.68,2021-12-17 17:46:53.828125
2132,2.66,2021-12-17 17:46:53.843750
2133,6.55,2021-12-17 17:46:53.859375
2134,9.9,2021-12-17 17:46:53.875000
2135,12.61,2021-12-17 17:46:53.890625
2136,14.73,2021-12-17 17:46:53.906250
2137,16.36,2021-12-17 17:46:53.921875
2138,17.64,2021-12-17 17:46:53.937500
2139,18.67,2021-12-17 17:46:53.953125
2140,19.48,2021-12-17 17:46:53.968750
2141,20.1,2021-12-17 17:46:53.984375
2142,20.57,2021-12-17 17:46:54.000000
2143,20.98,2021-12-17 17:46:54.015625
2144,21.4,2021-12-17 17:46:54.031250
2145,21.85,2021-12-17 17:46:54.046875
2146,22.22,2021-12-17 17:46:54.062500
2147,22.33,2021-12-17 17:46:54.078125
2148,22.05,2021-12-17 17:46:54.093750
2149,21.37,2021-12-17 17:46:54.109375
2150,20.45,2021-12-17 17:46:54.125000
2151,19.5,2021-12-17 17:46:54.140625
2152,18.7,2021-12-17 17:46:54.156250
2153,18.08,2021-12-17 17:46:54.171875
2154,17.53,2021-12-17 17:46:54.187500
2155,16.87,2021-12-17 17:46:54.203125
2156,15.99,2021-12-17 17:46:54.218750
2157,14.87,2021-12-17 17:46:54.234375
2158,13.56,2021-12-17 17:46:54.250000
2159,12.15,2021-12-17 17:46:54.265625
2160,10.65,2021-12-17 17:46:54.281250
2161,9.01,2021-12-17 17:46:54.296875
2162,7.18,2021-12-17 17:46:54.312500
2163,5.14,2021-12-17 17:46:54.328125
2164,3.0,2021-12-17 17:46:54.343750
2165,0.9,2021-12-17 17:46:54.359375
2166,-1.01,2021-12-17 17:46:54.375000
2167,-2.67,2021-12-17 17:46:54.390625
2168,-4.11,2021-12-17 17:46:54.406250
2169,-5.47,2021-12-17 17:46:54.421875
2170,-6.87,2021-12-17 17:46:54.437500
2171,-8.38,2021-12-17 17:46:54.453125
2172,-10.0,2021-12-17 17:46:54.468750
2173,-11.71,2021-12-17 17:46:54.484375
2174,-13.54,2021-12-17 17:46:54.500000
2175,-15.63,2021-12-17 17:46:54.515625
2176,-18.16,2021-12-17 17:46:54.531250
2177,-21.3,2021-12-17 17:46:54.546875
2178,-25.01,2021-12-17 17:46:54.562500
2179,-28.98,2021-12-17 17:46:54.578125
2180,-32.66,2021-12-17 17:46:54.593750
2181,-35.38,2021-12-17 17:46:54.609375
2182,-36.52,2021-12-17 17:46:54.625000
2183,-35.74,2021-12-17 17:46:54.640625
2184,-32.99,2021-12-17 17:46:54.656250
2185,-28.55,2021-12-17 17:46:54.671875
2186,-22.89,2021-12-17 17:46:54.687500
2187,-16.59,2021-12-17 17:46:54.703125
2188,-10.16,2021-12-17 17:46:54.718750
2189,-4.02,2021-12-17 17:46:54.734375
2190,1.54,2021-12-17 17:46:54.750000
2191,6.44,2021-12-17 17:46:54.765625
2192,10.73,2021-12-17 17:46:54.781250
2193,14.54,2021-12-17 17:46:54.796875
2194,18.01,2021-12-17 17:46:54.812500
2195,21.19,2021-12-17 17:46:54.828125
2196,23.99,2021-12-17 17:46:54.843750
2197,26.31,2021-12-17 17:46:54.859375
2198,28.05,2021-12-17 17:46:54.875000
2199,29.27,2021-12-17 17:46:54.890625
2200,30.16,2021-12-17 17:46:54.906250
2201,30.97,2021-12-17 17:46:54.921875
2202,31.89,2021-12-17 17:46:54.937500
2203,32.96,2021-12-17 17:46:54.953125
2204,34.03,2021-12-17 17:46:54.968750
2205,34.89,2021-12-17 17:46:54.984375
2206,35.32,2021-12-17 17:46:55.000000
2207,35.23,2021-12-17 17:46:55.015625
2208,34.66,2021-12-17 17:46:55.031250
2209,33.74,2021-12-17 17:46:55.046875
2210,32.58,2021-12-17 17:46:55.062500
2211,31.27,2021-12-17 17:46:55.078125
2212,29.79,2021-12-17 17:46:55.093750
2213,28.17,2021-12-17 17:46:55.109375
2214,26.43,2021-12-17 17:46:55.125000
2215,24.67,2021-12-17 17:46:55.140625
2216,22.96,2021-12-17 17:46:55.156250
2217,21.37,2021-12-17 17:46:55.171875
2218,19.83,2021-12-17 17:46:55.187500
2219,18.25,2021-12-17 17:46:55.203125
2220,16.49,2021-12-17 17:46:55.218750
2221,14.49,2021-12-17 17:46:55.234375
2222,12.32,2021-12-17 17:46:55.250000
2223,10.19,2021-12-17 17:46:55.265625
2224,8.3,2021-12-17 17:46:55.281250
2225,6.81,2021-12-17 17:46:55.296875
2226,5.69,2021-12-17 17:46:55.312500
2227,4.71,2021-12-17 17:46:55.328125
2228,3.53,2021-12-17 17:46:55.343750
2229,1.83,2021-12-17 17:46:55.359375
2230,-0.53,2021-12-17 17:46:55.375000
2231,-3.45,2021-12-17 17:46:55.390625
2232,-6.62,2021-12-17 17:46:55.406250
2233,-9.66,2021-12-17 17:46:55.421875
2234,-12.38,2021-12-17 17:46:55.437500
2235,-14.78,2021-12-17 17:46:55.453125
2236,-17.16,2021-12-17 17:46:55.468750
2237,-19.93,2021-12-17 17:46:55.484375
2238,-23.37,2021-12-17 17:46:55.500000
2239,-27.54,2021-12-17 17:46:55.515625
2240,-32.1,2021-12-17 17:46:55.531250
2241,-36.45,2021-12-17 17:46:55.546875
2242,-39.82,2021-12-17 17:46:55.562500
2243,-41.54,2021-12-17 17:46:55.578125
2244,-41.23,2021-12-17 17:46:55.593750
2245,-38.87,2021-12-17 17:46:55.609375
2246,-34.78,2021-12-17 17:46:55.625000
2247,-29.49,2021-12-17 17:46:55.640625
2248,-23.58,2021-12-17 17:46:55.656250
2249,-17.52,2021-12-17 17:46:55.671875
2250,-11.63,2021-12-17 17:46:55.687500
2251,-6.08,2021-12-17 17:46:55.703125
2252,-0.93,2021-12-17 17:46:55.718750
2253,3.81,2021-12-17 17:46:55.734375
2254,8.11,2021-12-17 17:46:55.750000
2255,11.94,2021-12-17 17:46:55.765625
2256,15.27,2021-12-17 17:46:55.781250
2257,18.09,2021-12-17 17:46:55.796875
2258,20.41,2021-12-17 17:46:55.812500
2259,22.28,2021-12-17 17:46:55.828125
2260,23.75,2021-12-17 17:46:55.843750
2261,24.89,2021-12-17 17:46:55.859375
2262,25.75,2021-12-17 17:46:55.875000
2263,26.39,2021-12-17 17:46:55.890625
2264,26.83,2021-12-17 17:46:55.906250
2265,27.12,2021-12-17 17:46:55.921875
2266,27.3,2021-12-17 17:46:55.937500
2267,27.38,2021-12-17 17:46:55.953125
2268,27.35,2021-12-17 17:46:55.968750
2269,27.12,2021-12-17 17:46:55.984375
2270,26.56,2021-12-17 17:46:56.000000
2271,25.57,2021-12-17 17:46:56.015625
2272,24.09,2021-12-17 17:46:56.031250
2273,22.18,2021-12-17 17:46:56.046875
2274,20.01,2021-12-17 17:46:56.062500
2275,17.82,2021-12-17 17:46:56.078125
2276,15.8,2021-12-17 17:46:56.093750
2277,14.1,2021-12-17 17:46:56.109375
2278,12.72,2021-12-17 17:46:56.125000
2279,11.59,2021-12-17 17:46:56.140625
2280,10.6,2021-12-17 17:46:56.156250
2281,9.65,2021-12-17 17:46:56.171875
2282,8.65,2021-12-17 17:46:56.187500
2283,7.57,2021-12-17 17:46:56.203125
2284,6.39,2021-12-17 17:46:56.218750
2285,5.09,2021-12-17 17:46:56.234375
2286,3.69,2021-12-17 17:46:56.250000
2287,2.2,2021-12-17 17:46:56.265625
2288,0.66,2021-12-17 17:46:56.281250
2289,-0.91,2021-12-17 17:46:56.296875
2290,-2.59,2021-12-17 17:46:56.312500
2291,-4.45,2021-12-17 17:46:56.328125
2292,-6.58,2021-12-17 17:46:56.343750
2293,-8.97,2021-12-17 17:46:56.359375
2294,-11.54,2021-12-17 17:46:56.375000
2295,-14.13,2021-12-17 17:46:56.390625
2296,-16.57,2021-12-17 17:46:56.406250
2297,-18.81,2021-12-17 17:46:56.421875
2298,-20.93,2021-12-17 17:46:56.437500
2299,-23.11,2021-12-17 17:46:56.453125
2300,-25.59,2021-12-17 17:46:56.468750
2301,-28.49,2021-12-17 17:46:56.484375
2302,-31.86,2021-12-17 17:46:56.500000
2303,-35.54,2021-12-17 17:46:56.515625
2304,-39.25,2021-12-17 17:46:56.531250
2305,-42.59,2021-12-17 17:46:56.546875
2306,-45.09,2021-12-17 17:46:56.562500
2307,-46.29,2021-12-17 17:46:56.578125
2308,-45.87,2021-12-17 17:46:56.593750
2309,-43.71,2021-12-17 17:46:56.609375
2310,-40.01,2021-12-17 17:46:56.625000
2311,-35.18,2021-12-17 17:46:56.640625
2312,-29.73,2021-12-17 17:46:56.656250
2313,-24.09,2021-12-17 17:46:56.671875
2314,-18.57,2021-12-17 17:46:56.687500
2315,-13.3,2021-12-17 17:46:56.703125
2316,-8.38,2021-12-17 17:46:56.718750
2317,-3.9,2021-12-17 17:46:56.734375
2318,0.02,2021-12-17 17:46:56.750000
2319,3.25,2021-12-17 17:46:56.765625
2320,5.76,2021-12-17 17:46:56.781250
2321,7.62,2021-12-17 17:46:56.796875
2322,9.0,2021-12-17 17:46:56.812500
2323,10.09,2021-12-17 17:46:56.828125
2324,11.02,2021-12-17 17:46:56.843750
2325,11.85,2021-12-17 17:46:56.859375
2326,12.59,2021-12-17 17:46:56.875000
2327,13.26,2021-12-17 17:46:56.890625
2328,13.88,2021-12-17 17:46:56.906250
2329,14.51,2021-12-17 17:46:56.921875
2330,15.16,2021-12-17 17:46:56.937500
2331,15.79,2021-12-17 17:46:56.953125
2332,16.26,2021-12-17 17:46:56.968750
2333,16.44,2021-12-17 17:46:56.984375
2334,16.27,2021-12-17 17:46:57.000000
2335,15.77,2021-12-17 17:46:57.015625
2336,15.07,2021-12-17 17:46:57.031250
2337,14.28,2021-12-17 17:46:57.046875
2338,13.46,2021-12-17 17:46:57.062500
2339,12.55,2021-12-17 17:46:57.078125
2340,11.45,2021-12-17 17:46:57.093750
2341,10.12,2021-12-17 17:46:57.109375
2342,8.62,2021-12-17 17:46:57.125000
2343,7.12,2021-12-17 17:46:57.140625
2344,5.83,2021-12-17 17:46:57.156250
2345,4.91,2021-12-17 17:46:57.171875
2346,4.32,2021-12-17 17:46:57.187500
2347,3.89,2021-12-17 17:46:57.203125
2348,3.38,2021-12-17 17:46:57.218750
2349,2.55,2021-12-17 17:46:57.234375
2350,1.34,2021-12-17 17:46:57.250000
2351,-0.23,2021-12-17 17:46:57.265625
2352,-2.0,2021-12-17 17:46:57.281250
2353,-3.84,2021-12-17 17:46:57.296875
2354,-5.62,2021-12-17 17:46:57.312500
2355,-7.32,2021-12-17 17:46:57.328125
2356,-8.94,2021-12-17 17:46:57.343750
2357,-10.55,2021-12-17 17:46:57.359375
2358,-12.18,2021-12-17 17:46:57.375000
2359,-13.89,2021-12-17 17:46:57.390625
2360,-15.76,2021-12-17 17:46:57.406250
2361,-17.9,2021-12-17 17:46:57.421875
2362,-20.45,2021-12-17 17:46:57.437500
2363,-23.42,2021-12-17 17:46:57.453125
2364,-26.62,2021-12-17 17:46:57.468750
2365,-29.55,2021-12-17 17:46:57.484375
2366,-31.54,2021-12-17 17:46:57.500000
2367,-31.94,2021-12-17 17:46:57.515625
2368,-30.36,2021-12-17 17:46:57.531250
2369,-26.89,2021-12-17 17:46:57.546875
2370,-22.03,2021-12-17 17:46:57.562500
2371,-16.52,2021-12-17 17:46:57.578125
2372,-11.04,2021-12-17 17:46:57.593750
2373,-6.04,2021-12-17 17:46:57.609375
2374,-1.65,2021-12-17 17:46:57.625000
2375,2.22,2021-12-17 17:46:57.640625
2376,5.73,2021-12-17 17:46:57.656250
2377,9.01,2021-12-17 17:46:57.671875
2378,12.04,2021-12-17 17:46:57.687500
2379,14.77,2021-12-17 17:46:57.703125
2380,17.12,2021-12-17 17:46:57.718750
2381,19.06,2021-12-17 17:46:57.734375
2382,20.61,2021-12-17 17:46:57.750000
2383,21.83,2021-12-17 17:46:57.765625
2384,22.76,2021-12-17 17:46:57.781250
2385,23.43,2021-12-17 17:46:57.796875
2386,23.81,2021-12-17 17:46:57.812500
2387,23.88,2021-12-17 17:46:57.828125
2388,23.64,2021-12-17 17:46:57.843750
2389,23.19,2021-12-17 17:46:57.859375
2390,22.66,2021-12-17 17:46:57.875000
2391,22.17,2021-12-17 17:46:57.890625
2392,21.78,2021-12-17 17:46:57.906250
2393,21.44,2021-12-17 17:46:57.921875
2394,21.02,2021-12-17 17:46:57.937500
2395,20.43,2021-12-17 17:46:57.953125
2396,19.63,2021-12-17 17:46:57.968750
2397,18.65,2021-12-17 17:46:57.984375
2398,17.5,2021-12-17 17:46:58.000000
2399,16.2,2021-12-17 17:46:58.015625
2400,14.71,2021-12-17 17:46:58.031250
2401,13.05,2021-12-17 17:46:58.046875
2402,11.26,2021-12-17 17:46:58.062500
2403,9.47,2021-12-17 17:46:58.078125
2404,7.81,2021-12-17 17:46:58.093750
2405,6.34,2021-12-17 17:46:58.109375
2406,5.03,2021-12-17 17:46:58.125000
2407,3.72,2021-12-17 17:46:58.140625
2408,2.26,2021-12-17 17:46:58.156250
2409,0.52,2021-12-17 17:46:58.171875
2410,-1.51,2021-12-17 17:46:58.187500
2411,-3.73,2021-12-17 17:46:58.203125
2412,-5.96,2021-12-17 17:46:58.218750
2413,-8.07,2021-12-17 17:46:58.234375
2414,-10.01,2021-12-17 17:46:58.250000
2415,-11.82,2021-12-17 17:46:58.265625
2416,-13.67,2021-12-17 17:46:58.281250
2417,-15.72,2021-12-17 17:46:58.296875
2418,-18.13,2021-12-17 17:46:58.312500
2419,-21.0,2021-12-17 17:46:58.328125
2420,-24.31,2021-12-17 17:46:58.343750
2421,-27.94,2021-12-17 17:46:58.359375
2422,-31.6,2021-12-17 17:46:58.375000
2423,-34.85,2021-12-17 17:46:58.390625
2424,-37.12,2021-12-17 17:46:58.406250
2425,-37.87,2021-12-17 17:46:58.421875
2426,-36.76,2021-12-17 17:46:58.437500
2427,-33.79,2021-12-17 17:46:58.453125
2428,-29.36,2021-12-17 17:46:58.468750
2429,-24.14,2021-12-17 17:46:58.484375
2430,-18.81,2021-12-17 17:46:58.500000
2431,-13.91,2021-12-17 17:46:58.515625
2432,-9.62,2021-12-17 17:46:58.531250
2433,-5.83,2021-12-17 17:46:58.546875
2434,-2.31,2021-12-17 17:46:58.562500
2435,1.14,2021-12-17 17:46:58.578125
2436,4.54,2021-12-17 17:46:58.593750
2437,7.77,2021-12-17 17:46:58.609375
2438,10.6,2021-12-17 17:46:58.625000
2439,12.81,2021-12-17 17:46:58.640625
2440,14.31,2021-12-17 17:46:58.656250
2441,15.21,2021-12-17 17:46:58.671875
2442,15.68,2021-12-17 17:46:58.687500
2443,15.94,2021-12-17 17:46:58.703125
2444,16.17,2021-12-17 17:46:58.718750
2445,16.42,2021-12-17 17:46:58.734375
2446,16.66,2021-12-17 17:46:58.750000
2447,16.81,2021-12-17 17:46:58.765625
2448,16.88,2021-12-17 17:46:58.781250
2449,16.92,2021-12-17 17:46:58.796875
2450,17.03,2021-12-17 17:46:58.812500
2451,17.25,2021-12-17 17:46:58.828125
2452,17.52,2021-12-17 17:46:58.843750
2453,17.68,2021-12-17 17:46:58.859375
2454,17.54,2021-12-17 17:46:58.875000
2455,16.99,2021-12-17 17:46:58.890625
2456,16.08,2021-12-17 17:46:58.906250
2457,14.98,2021-12-17 17:46:58.921875
2458,13.85,2021-12-17 17:46:58.937500
2459,12.77,2021-12-17 17:46:58.953125
2460,11.69,2021-12-17 17:46:58.968750
2461,10.44,2021-12-17 17:46:58.984375
2462,8.91,2021-12-17 17:46:59.000000
2463,7.06,2021-12-17 17:46:59.015625
2464,5.0,2021-12-17 17:46:59.031250
2465,2.93,2021-12-17 17:46:59.046875
2466,1.03,2021-12-17 17:46:59.062500
2467,-0.62,2021-12-17 17:46:59.078125
2468,-2.05,2021-12-17 17:46:59.093750
2469,-3.37,2021-12-17 17:46:59.109375
2470,-4.77,2021-12-17 17:46:59.125000
2471,-6.45,2021-12-17 17:46:59.140625
2472,-8.52,2021-12-17 17:46:59.156250
2473,-10.99,2021-12-17 17:46:59.171875
2474,-13.7,2021-12-17 17:46:59.187500
2475,-16.46,2021-12-17 17:46:59.203125
2476,-19.08,2021-12-17 17:46:59.218750
2477,-21.48,2021-12-17 17:46:59.234375
2478,-23.75,2021-12-17 17:46:59.250000
2479,-26.16,2021-12-17 17:46:59.265625
2480,-28.98,2021-12-17 17:46:59.281250
2481,-32.46,2021-12-17 17:46:59.296875
2482,-36.55,2021-12-17 17:46:59.312500
2483,-40.96,2021-12-17 17:46:59.328125
2484,-45.09,2021-12-17 17:46:59.343750
2485,-48.21,2021-12-17 17:46:59.359375
2486,-49.64,2021-12-17 17:46:59.375000
2487,-48.95,2021-12-17 17:46:59.390625
2488,-46.15,2021-12-17 17:46:59.406250
2489,-41.69,2021-12-17 17:46:59.421875
2490,-36.26,2021-12-17 17:46:59.437500
2491,-30.52,2021-12-17 17:46:59.453125
2492,-24.96,2021-12-17 17:46:59.468750
2493,-19.76,2021-12-17 17:46:59.484375
2494,-14.88,2021-12-17 17:46:59.500000
2495,-10.28,2021-12-17 17:46:59.515625
2496,-6.0,2021-12-17 17:46:59.531250
2497,-2.15,2021-12-17 17:46:59.546875
2498,1.15,2021-12-17 17:46:59.562500
2499,3.89,2021-12-17 17:46:59.578125
2500,6.2,2021-12-17 17:46:59.593750
2501,8.25,2021-12-17 17:46:59.609375
2502,10.22,2021-12-17 17:46:59.625000
2503,12.18,2021-12-17 17:46:59.640625
2504,14.05,2021-12-17 17:46:59.656250
2505,15.72,2021-12-17 17:46:59.671875
2506,17.08,2021-12-17 17:46:59.687500
2507,18.08,2021-12-17 17:46:59.703125
2508,18.72,2021-12-17 17:46:59.718750
2509,19.07,2021-12-17 17:46:59.734375
2510,19.22,2021-12-17 17:46:59.750000
2511,19.28,2021-12-17 17:46:59.765625
2512,19.3,2021-12-17 17:46:59.781250
2513,19.26,2021-12-17 17:46:59.796875
2514,19.08,2021-12-17 17:46:59.812500
2515,18.65,2021-12-17 17:46:59.828125
2516,17.88,2021-12-17 17:46:59.843750
2517,16.78,2021-12-17 17:46:59.859375
2518,15.46,2021-12-17 17:46:59.875000
2519,14.09,2021-12-17 17:46:59.890625
2520,12.85,2021-12-17 17:46:59.906250
2521,11.8,2021-12-17 17:46:59.921875
2522,10.92,2021-12-17 17:46:59.937500
2523,10.07,2021-12-17 17:46:59.953125
2524,9.09,2021-12-17 17:46:59.968750
2525,7.8,2021-12-17 17:46:59.984375
2526,6.11,2021-12-17 17:47:00.000000
2527,4.0,2021-12-17 17:47:00.015625
2528,1.55,2021-12-17 17:47:00.031250
2529,-1.05,2021-12-17 17:47:00.046875
2530,-3.56,2021-12-17 17:47:00.062500
2531,-5.76,2021-12-17 17:47:00.078125
2532,-7.55,2021-12-17 17:47:00.093750
2533,-8.98,2021-12-17 17:47:00.109375
2534,-10.27,2021-12-17 17:47:00.125000
2535,-11.7,2021-12-17 17:47:00.140625
2536,-13.53,2021-12-17 17:47:00.156250
2537,-15.88,2021-12-17 17:47:00.171875
2538,-18.78,2021-12-17 17:47:00.187500
2539,-22.22,2021-12-17 17:47:00.203125
2540,-26.13,2021-12-17 17:47:00.218750
2541,-30.37,2021-12-17 17:47:00.234375
2542,-34.65,2021-12-17 17:47:00.250000
2543,-38.51,2021-12-17 17:47:00.265625
2544,-41.35,2021-12-17 17:47:00.281250
2545,-42.59,2021-12-17 17:47:00.296875
2546,-41.86,2021-12-17 17:47:00.312500
2547,-39.16,2021-12-17 17:47:00.328125
2548,-34.84,2021-12-17 17:47:00.343750
2549,-29.47,2021-12-17 17:47:00.359375
2550,-23.7,2021-12-17 17:47:00.375000
2551,-18.06,2021-12-17 17:47:00.390625
2552,-12.79,2021-12-17 17:47:00.406250
2553,-7.95,2021-12-17 17:47:00.421875
2554,-3.42,2021-12-17 17:47:00.437500
2555,0.94,2021-12-17 17:47:00.453125
2556,5.16,2021-12-17 17:47:00.468750
2557,9.14,2021-12-17 17:47:00.484375
2558,12.7,2021-12-17 17:47:00.500000
2559,15.68,2021-12-17 17:47:00.515625
2560,18.02,2021-12-17 17:47:00.531250
2561,19.8,2021-12-17 17:47:00.546875
2562,21.2,2021-12-17 17:47:00.562500
2563,22.43,2021-12-17 17:47:00.578125
2564,23.59,2021-12-17 17:47:00.593750
2565,24.71,2021-12-17 17:47:00.609375
2566,25.71,2021-12-17 17:47:00.625000
2567,26.51,2021-12-17 17:47:00.640625
2568,27.02,2021-12-17 17:47:00.656250
2569,27.23,2021-12-17 17:47:00.671875
2570,27.18,2021-12-17 17:47:00.687500
2571,26.96,2021-12-17 17:47:00.703125
2572,26.63,2021-12-17 17:47:00.718750
2573,26.26,2021-12-17 17:47:00.734375
2574,25.8,2021-12-17 17:47:00.750000
2575,25.14,2021-12-17 17:47:00.765625
2576,24.13,2021-12-17 17:47:00.781250
2577,22.7,2021-12-17 17:47:00.796875
2578,20.89,2021-12-17 17:47:00.812500
2579,18.94,2021-12-17 17:47:00.828125
2580,17.11,2021-12-17 17:47:00.843750
2581,15.58,2021-12-17 17:47:00.859375
2582,14.35,2021-12-17 17:47:00.875000
2583,13.17,2021-12-17 17:47:00.890625
2584,11.71,2021-12-17 17:47:00.906250
2585,9.68,2021-12-17 17:47:00.921875
2586,7.05,2021-12-17 17:47:00.937500
2587,3.97,2021-12-17 17:47:00.953125
2588,0.72,2021-12-17 17:47:00.968750
2589,-2.45,2021-12-17 17:47:00.984375
2590,-5.43,2021-12-17 17:47:01.000000
2591,-8.21,2021-12-17 17:47:01.015625
2592,-10.84,2021-12-17 17:47:01.031250
2593,-13.38,2021-12-17 17:47:01.046875
2594,-15.85,2021-12-17 17:47:01.062500
2595,-18.34,2021-12-17 17:47:01.078125
2596,-21.05,2021-12-17 17:47:01.093750
2597,-24.22,2021-12-17 17:47:01.109375
2598,-28.01,2021-12-17 17:47:01.125000
2599,-32.28,2021-12-17 17:47:01.140625
2600,-36.51,2021-12-17 17:47:01.156250
2601,-39.94,2021-12-17 17:47:01.171875
2602,-41.73,2021-12-17 17:47:01.187500
2603,-41.33,2021-12-17 17:47:01.203125
2604,-38.68,2021-12-17 17:47:01.218750
2605,-34.16,2021-12-17 17:47:01.234375
2606,-28.46,2021-12-17 17:47:01.250000
2607,-22.33,2021-12-17 17:47:01.265625
2608,-16.35,2021-12-17 17:47:01.281250
2609,-10.85,2021-12-17 17:47:01.296875
2610,-5.93,2021-12-17 17:47:01.312500
2611,-1.54,2021-12-17 17:47:01.328125
2612,2.4,2021-12-17 17:47:01.343750
2613,5.96,2021-12-17 17:47:01.359375
2614,9.2,2021-12-17 17:47:01.375000
2615,12.15,2021-12-17 17:47:01.390625
2616,14.81,2021-12-17 17:47:01.406250
2617,17.18,2021-12-17 17:47:01.421875
2618,19.22,2021-12-17 17:47:01.437500
2619,20.92,2021-12-17 17:47:01.453125
2620,22.27,2021-12-17 17:47:01.468750
2621,23.33,2021-12-17 17:47:01.484375
2622,24.2,2021-12-17 17:47:01.500000
2623,25.02,2021-12-17 17:47:01.515625
2624,25.88,2021-12-17 17:47:01.531250
2625,26.81,2021-12-17 17:47:01.546875
2626,27.73,2021-12-17 17:47:01.562500
2627,28.53,2021-12-17 17:47:01.578125
2628,29.05,2021-12-17 17:47:01.593750
2629,29.23,2021-12-17 17:47:01.609375
2630,29.04,2021-12-17 17:47:01.625000
2631,28.52,2021-12-17 17:47:01.640625
2632,27.66,2021-12-17 17:47:01.656250
2633,26.44,2021-12-17 17:47:01.671875
2634,24.82,2021-12-17 17:47:01.687500
2635,22.77,2021-12-17 17:47:01.703125
2636,20.35,2021-12-17 17:47:01.718750
2637,17.72,2021-12-17 17:47:01.734375
2638,15.05,2021-12-17 17:47:01.750000
2639,12.51,2021-12-17 17:47:01.765625
2640,10.18,2021-12-17 17:47:01.781250
2641,8.05,2021-12-17 17:47:01.796875
2642,6.05,2021-12-17 17:47:01.812500
2643,4.03,2021-12-17 17:47:01.828125
2644,1.9,2021-12-17 17:47:01.843750
2645,-0.45,2021-12-17 17:47:01.859375
2646,-3.04,2021-12-17 17:47:01.875000
2647,-5.78,2021-12-17 17:47:01.890625
2648,-8.55,2021-12-17 17:47:01.906250
2649,-11.22,2021-12-17 17:47:01.921875
2650,-13.76,2021-12-17 17:47:01.937500
2651,-16.23,2021-12-17 17:47:01.953125
2652,-18.83,2021-12-17 17:47:01.968750
2653,-21.76,2021-12-17 17:47:01.984375
2654,-25.18,2021-12-17 17:47:02.000000
2655,-29.09,2021-12-17 17:47:02.015625
2656,-33.34,2021-12-17 17:47:02.031250
2657,-37.61,2021-12-17 17:47:02.046875
2658,-41.48,2021-12-17 17:47:02.062500
2659,-44.43,2021-12-17 17:47:02.078125
2660,-45.91,2021-12-17 17:47:02.093750
2661,-45.52,2021-12-17 17:47:02.109375
2662,-43.02,2021-12-17 17:47:02.125000
2663,-38.56,2021-12-17 17:47:02.140625
2664,-32.61,2021-12-17 17:47:02.156250
2665,-25.86,2021-12-17 17:47:02.171875
2666,-19.01,2021-12-17 17:47:02.187500
2667,-12.55,2021-12-17 17:47:02.203125
2668,-6.72,2021-12-17 17:47:02.218750
2669,-1.47,2021-12-17 17:47:02.234375
2670,3.31,2021-12-17 17:47:02.250000
2671,7.68,2021-12-17 17:47:02.265625
2672,11.59,2021-12-17 17:47:02.281250
2673,14.93,2021-12-17 17:47:02.296875
2674,17.62,2021-12-17 17:47:02.312500
2675,19.72,2021-12-17 17:47:02.328125
2676,21.36,2021-12-17 17:47:02.343750
2677,22.74,2021-12-17 17:47:02.359375
2678,24.01,2021-12-17 17:47:02.375000
2679,25.18,2021-12-17 17:47:02.390625
2680,26.22,2021-12-17 17:47:02.406250
2681,27.06,2021-12-17 17:47:02.421875
2682,27.72,2021-12-17 17:47:02.437500
2683,28.29,2021-12-17 17:47:02.453125
2684,28.9,2021-12-17 17:47:02.468750
2685,29.59,2021-12-17 17:47:02.484375
2686,30.3,2021-12-17 17:47:02.500000
2687,30.8,2021-12-17 17:47:02.515625
2688,30.87,2021-12-17 17:47:02.531250
2689,30.33,2021-12-17 17:47:02.546875
2690,29.18,2021-12-17 17:47:02.562500
2691,27.56,2021-12-17 17:47:02.578125
2692,25.72,2021-12-17 17:47:02.593750
2693,23.84,2021-12-17 17:47:02.609375
2694,21.99,2021-12-17 17:47:02.625000
2695,20.13,2021-12-17 17:47:02.640625
2696,18.11,2021-12-17 17:47:02.656250
2697,15.85,2021-12-17 17:47:02.671875
2698,13.34,2021-12-17 17:47:02.687500
2699,10.71,2021-12-17 17:47:02.703125
2700,8.1,2021-12-17 17:47:02.718750
2701,5.64,2021-12-17 17:47:02.734375
2702,3.35,2021-12-17 17:47:02.750000
2703,1.17,2021-12-17 17:47:02.765625
2704,-0.98,2021-12-17 17:47:02.781250
2705,-3.16,2021-12-17 17:47:02.796875
2706,-5.37,2021-12-17 17:47:02.812500
2707,-7.54,2021-12-17 17:47:02.828125
2708,-9.65,2021-12-17 17:47:02.843750
2709,-11.72,2021-12-17 17:47:02.859375
2710,-13.82,2021-12-17 17:47:02.875000
2711,-16.07,2021-12-17 17:47:02.890625
2712,-18.64,2021-12-17 17:47:02.906250
2713,-21.67,2021-12-17 17:47:02.921875
2714,-25.28,2021-12-17 17:47:02.937500
2715,-29.45,2021-12-17 17:47:02.953125
2716,-33.97,2021-12-17 17:47:02.968750
2717,-38.38,2021-12-17 17:47:02.984375
2718,-42.01,2021-12-17 17:47:03.000000
2719,-44.17,2021-12-17 17:47:03.015625
2720,-44.29,2021-12-17 17:47:03.031250
2721,-42.17,2021-12-17 17:47:03.046875
2722,-38.04,2021-12-17 17:47:03.062500
2723,-32.47,2021-12-17 17:47:03.078125
2724,-26.23,2021-12-17 17:47:03.093750
2725,-19.96,2021-12-17 17:47:03.109375
2726,-14.1,2021-12-17 17:47:03.125000
2727,-8.81,2021-12-17 17:47:03.140625
2728,-4.05,2021-12-17 17:47:03.156250
2729,0.34,2021-12-17 17:47:03.171875
2730,4.47,2021-12-17 17:47:03.187500
2731,8.39,2021-12-17 17:47:03.203125
2732,12.07,2021-12-17 17:47:03.218750
2733,15.4,2021-12-17 17:47:03.234375
2734,18.26,2021-12-17 17:47:03.250000
2735,20.58,2021-12-17 17:47:03.265625
2736,22.32,2021-12-17 17:47:03.281250
2737,23.55,2021-12-17 17:47:03.296875
2738,24.4,2021-12-17 17:47:03.312500
2739,25.0,2021-12-17 17:47:03.328125
2740,25.48,2021-12-17 17:47:03.343750
2741,25.87,2021-12-17 17:47:03.359375
2742,26.16,2021-12-17 17:47:03.375000
2743,26.35,2021-12-17 17:47:03.390625
2744,26.45,2021-12-17 17:47:03.406250
2745,26.5,2021-12-17 17:47:03.421875
2746,26.56,2021-12-17 17:47:03.437500
2747,26.61,2021-12-17 17:47:03.453125
2748,26.59,2021-12-17 17:47:03.468750
2749,26.38,2021-12-17 17:47:03.484375
2750,25.82,2021-12-17 17:47:03.500000
2751,24.8,2021-12-17 17:47:03.515625
2752,23.28,2021-12-17 17:47:03.531250
2753,21.29,2021-12-17 17:47:03.546875
2754,18.96,2021-12-17 17:47:03.562500
2755,16.46,2021-12-17 17:47:03.578125
2756,13.94,2021-12-17 17:47:03.593750
2757,11.52,2021-12-17 17:47:03.609375
2758,9.25,2021-12-17 17:47:03.625000
2759,7.13,2021-12-17 17:47:03.640625
2760,5.09,2021-12-17 17:47:03.656250
2761,3.07,2021-12-17 17:47:03.671875
2762,1.01,2021-12-17 17:47:03.687500
2763,-1.12,2021-12-17 17:47:03.703125
2764,-3.32,2021-12-17 17:47:03.718750
2765,-5.61,2021-12-17 17:47:03.734375
2766,-7.97,2021-12-17 17:47:03.750000
2767,-10.39,2021-12-17 17:47:03.765625
2768,-12.86,2021-12-17 17:47:03.781250
2769,-15.35,2021-12-17 17:47:03.796875
2770,-17.87,2021-12-17 17:47:03.812500
2771,-20.47,2021-12-17 17:47:03.828125
2772,-23.26,2021-12-17 17:47:03.843750
2773,-26.34,2021-12-17 17:47:03.859375
2774,-29.7,2021-12-17 17:47:03.875000
2775,-33.1,2021-12-17 17:47:03.890625
2776,-36.06,2021-12-17 17:47:03.906250
2777,-37.93,2021-12-17 17:47:03.921875
2778,-38.13,2021-12-17 17:47:03.937500
2779,-36.36,2021-12-17 17:47:03.953125
2780,-32.75,2021-12-17 17:47:03.968750
2781,-27.78,2021-12-17 17:47:03.984375
2782,-22.1,2021-12-17 17:47:04.000000
2783,-16.29,2021-12-17 17:47:04.015625
2784,-10.69,2021-12-17 17:47:04.031250
2785,-5.44,2021-12-17 17:47:04.046875
2786,-0.57,2021-12-17 17:47:04.062500
2787,3.9,2021-12-17 17:47:04.078125
2788,7.83,2021-12-17 17:47:04.093750
2789,11.1,2021-12-17 17:47:04.109375
2790,13.56,2021-12-17 17:47:04.125000
2791,15.21,2021-12-17 17:47:04.140625
2792,16.14,2021-12-17 17:47:04.156250
2793,16.56,2021-12-17 17:47:04.171875
2794,16.75,2021-12-17 17:47:04.187500
2795,17.01,2021-12-17 17:47:04.203125
2796,17.54,2021-12-17 17:47:04.218750
2797,18.4,2021-12-17 17:47:04.234375
2798,19.46,2021-12-17 17:47:04.250000
2799,20.43,2021-12-17 17:47:04.265625
2800,21.01,2021-12-17 17:47:04.281250
2801,21.05,2021-12-17 17:47:04.296875
2802,20.62,2021-12-17 17:47:04.312500
2803,19.99,2021-12-17 17:47:04.328125
2804,19.46,2021-12-17 17:47:04.343750
2805,19.19,2021-12-17 17:47:04.359375
2806,19.08,2021-12-17 17:47:04.375000
2807,18.87,2021-12-17 17:47:04.390625
2808,18.22,2021-12-17 17:47:04.406250
2809,16.95,2021-12-17 17:47:04.421875
2810,15.09,2021-12-17 17:47:04.437500
2811,12.87,2021-12-17 17:47:04.453125
2812,10.59,2021-12-17 17:47:04.468750
2813,8.48,2021-12-17 17:47:04.484375
2814,6.64,2021-12-17 17:47:04.500000
2815,4.99,2021-12-17 17:47:04.515625
2816,3.36,2021-12-17 17:47:04.531250
2817,1.59,2021-12-17 17:47:04.546875
2818,-0.35,2021-12-17 17:47:04.562500
2819,-2.43,2021-12-17 17:47:04.578125
2820,-4.5,2021-12-17 17:47:04.593750
2821,-6.44,2021-12-17 17:47:04.609375
2822,-8.21,2021-12-17 17:47:04.625000
2823,-9.87,2021-12-17 17:47:04.640625
2824,-11.57,2021-12-17 17:47:04.656250
2825,-13.49,2021-12-17 17:47:04.671875
2826,-15.74,2021-12-17 17:47:04.687500
2827,-18.42,2021-12-17 17:47:04.703125
2828,-21.52,2021-12-17 17:47:04.718750
2829,-24.96,2021-12-17 17:47:04.734375
2830,-28.55,2021-12-17 17:47:04.750000
2831,-31.94,2021-12-17 17:47:04.765625
2832,-34.63,2021-12-17 17:47:04.781250
2833,-36.01,2021-12-17 17:47:04.796875
2834,-35.59,2021-12-17 17:47:04.812500
2835,-33.16,2021-12-17 17:47:04.828125
2836,-28.9,2021-12-17 17:47:04.843750
2837,-23.36,2021-12-17 17:47:04.859375
2838,-17.28,2021-12-17 17:47:04.875000
2839,-11.28,2021-12-17 17:47:04.890625
2840,-5.76,2021-12-17 17:47:04.906250
2841,-0.76,2021-12-17 17:47:04.921875
2842,3.84,2021-12-17 17:47:04.937500
2843,8.18,2021-12-17 17:47:04.953125
2844,12.27,2021-12-17 17:47:04.968750
2845,15.96,2021-12-17 17:47:04.984375
2846,19.05,2021-12-17 17:47:05.000000
2847,21.38,2021-12-17 17:47:05.015625
2848,22.96,2021-12-17 17:47:05.031250
2849,23.93,2021-12-17 17:47:05.046875
2850,24.55,2021-12-17 17:47:05.062500
2851,25.04,2021-12-17 17:47:05.078125
2852,25.52,2021-12-17 17:47:05.093750
2853,26.0,2021-12-17 17:47:05.109375
2854,26.38,2021-12-17 17:47:05.125000
2855,26.55,2021-12-17 17:47:05.140625
2856,26.42,2021-12-17 17:47:05.156250
2857,26.0,2021-12-17 17:47:05.171875
2858,25.38,2021-12-17 17:47:05.187500
2859,24.63,2021-12-17 17:47:05.203125
2860,23.76,2021-12-17 17:47:05.218750
2861,22.7,2021-12-17 17:47:05.234375
2862,21.35,2021-12-17 17:47:05.250000
2863,19.65,2021-12-17 17:47:05.265625
2864,17.63,2021-12-17 17:47:05.281250
2865,15.43,2021-12-17 17:47:05.296875
2866,13.24,2021-12-17 17:47:05.312500
2867,11.24,2021-12-17 17:47:05.328125
2868,9.48,2021-12-17 17:47:05.343750
2869,7.93,2021-12-17 17:47:05.359375
2870,6.42,2021-12-17 17:47:05.375000
2871,4.81,2021-12-17 17:47:05.390625
2872,2.99,2021-12-17 17:47:05.406250
2873,0.9,2021-12-17 17:47:05.421875
2874,-1.39,2021-12-17 17:47:05.437500
2875,-3.81,2021-12-17 17:47:05.453125
2876,-6.26,2021-12-17 17:47:05.468750
2877,-8.69,2021-12-17 17:47:05.484375
2878,-11.06,2021-12-17 17:47:05.500000
2879,-13.41,2021-12-17 17:47:05.515625
2880,-15.75,2021-12-17 17:47:05.531250
2881,-18.19,2021-12-17 17:47:05.546875
2882,-20.84,2021-12-17 17:47:05.562500
2883,-23.8,2021-12-17 17:47:05.578125
2884,-27.16,2021-12-17 17:47:05.593750
2885,-30.91,2021-12-17 17:47:05.609375
2886,-34.84,2021-12-17 17:47:05.625000
2887,-38.58,2021-12-17 17:47:05.640625
2888,-41.62,2021-12-17 17:47:05.656250
2889,-43.39,2021-12-17 17:47:05.671875
2890,-43.47,2021-12-17 17:47:05.687500
2891,-41.65,2021-12-17 17:47:05.703125
2892,-38.07,2021-12-17 17:47:05.718750
2893,-33.15,2021-12-17 17:47:05.734375
2894,-27.45,2021-12-17 17:47:05.750000
2895,-21.52,2021-12-17 17:47:05.765625
2896,-15.76,2021-12-17 17:47:05.781250
2897,-10.41,2021-12-17 17:47:05.796875
2898,-5.51,2021-12-17 17:47:05.812500
2899,-1.02,2021-12-17 17:47:05.828125
2900,3.07,2021-12-17 17:47:05.843750
2901,6.79,2021-12-17 17:47:05.859375
2902,10.08,2021-12-17 17:47:05.875000
2903,12.92,2021-12-17 17:47:05.890625
2904,15.32,2021-12-17 17:47:05.906250
2905,17.35,2021-12-17 17:47:05.921875
2906,19.13,2021-12-17 17:47:05.937500
2907,20.76,2021-12-17 17:47:05.953125
2908,22.23,2021-12-17 17:47:05.968750
2909,23.45,2021-12-17 17:47:05.984375
2910,24.26,2021-12-17 17:47:06.000000
2911,24.58,2021-12-17 17:47:06.015625
2912,24.46,2021-12-17 17:47:06.031250
2913,24.1,2021-12-17 17:47:06.046875
2914,23.78,2021-12-17 17:47:06.062500
2915,23.67,2021-12-17 17:47:06.078125
2916,23.82,2021-12-17 17:47:06.093750
2917,24.04,2021-12-17 17:47:06.109375
2918,24.09,2021-12-17 17:47:06.125000
2919,23.72,2021-12-17 17:47:06.140625
2920,22.81,2021-12-17 17:47:06.156250
2921,21.38,2021-12-17 17:47:06.171875
2922,19.5,2021-12-17 17:47:06.187500
2923,17.35,2021-12-17 17:47:06.203125
2924,15.01,2021-12-17 17:47:06.218750
2925,12.62,2021-12-17 17:47:06.234375
2926,10.27,2021-12-17 17:47:06.250000
2927,8.04,2021-12-17 17:47:06.265625
2928,5.96,2021-12-17 17:47:06.281250
2929,3.98,2021-12-17 17:47:06.296875
2930,1.99,2021-12-17 17:47:06.312500
2931,-0.12,2021-12-17 17:47:06.328125
2932,-2.46,2021-12-17 17:47:06.343750
2933,-5.03,2021-12-17 17:47:06.359375
2934,-7.79,2021-12-17 17:47:06.375000
2935,-10.68,2021-12-17 17:47:06.390625
2936,-13.58,2021-12-17 17:47:06.406250
2937,-16.46,2021-12-17 17:47:06.421875
2938,-19.33,2021-12-17 17:47:06.437500
2939,-22.24,2021-12-17 17:47:06.453125
2940,-25.35,2021-12-17 17:47:06.468750
2941,-28.77,2021-12-17 17:47:06.484375
2942,-32.58,2021-12-17 17:47:06.500000
2943,-36.67,2021-12-17 17:47:06.515625
2944,-40.72,2021-12-17 17:47:06.531250
2945,-44.16,2021-12-17 17:47:06.546875
2946,-46.36,2021-12-17 17:47:06.562500
2947,-46.8,2021-12-17 17:47:06.578125
2948,-45.22,2021-12-17 17:47:06.593750
2949,-41.75,2021-12-17 17:47:06.609375
2950,-36.87,2021-12-17 17:47:06.625000
2951,-31.2,2021-12-17 17:47:06.640625
2952,-25.34,2021-12-17 17:47:06.656250
2953,-19.73,2021-12-17 17:47:06.671875
2954,-14.58,2021-12-17 17:47:06.687500
2955,-9.91,2021-12-17 17:47:06.703125
2956,-5.67,2021-12-17 17:47:06.718750
2957,-1.83,2021-12-17 17:47:06.734375
2958,1.64,2021-12-17 17:47:06.750000
2959,4.74,2021-12-17 17:47:06.765625
2960,7.48,2021-12-17 17:47:06.781250
2961,9.88,2021-12-17 17:47:06.796875
2962,11.94,2021-12-17 17:47:06.812500
2963,13.69,2021-12-17 17:47:06.828125
2964,15.13,2021-12-17 17:47:06.843750
2965,16.3,2021-12-17 17:47:06.859375
2966,17.23,2021-12-17 17:47:06.875000
2967,18.01,2021-12-17 17:47:06.890625
2968,18.7,2021-12-17 17:47:06.906250
2969,19.36,2021-12-17 17:47:06.921875
2970,20.04,2021-12-17 17:47:06.937500
2971,20.72,2021-12-17 17:47:06.953125
2972,21.34,2021-12-17 17:47:06.968750
2973,21.74,2021-12-17 17:47:06.984375
2974,21.75,2021-12-17 17:47:07.000000
2975,21.17,2021-12-17 17:47:07.015625
2976,19.91,2021-12-17 17:47:07.031250
2977,18.03,2021-12-17 17:47:07.046875
2978,15.71,2021-12-17 17:47:07.062500
2979,13.27,2021-12-17 17:47:07.078125
2980,10.98,2021-12-17 17:47:07.093750
2981,9.01,2021-12-17 17:47:07.109375
2982,7.34,2021-12-17 17:47:07.125000
2983,5.84,2021-12-17 17:47:07.140625
2984,4.29,2021-12-17 17:47:07.156250
2985,2.58,2021-12-17 17:47:07.171875
2986,0.67,2021-12-17 17:47:07.187500
2987,-1.35,2021-12-17 17:47:07.203125
2988,-3.36,2021-12-17 17:47:07.218750
2989,-5.28,2021-12-17 17:47:07.234375
2990,-7.09,2021-12-17 17:47:07.250000
2991,-8.91,2021-12-17 17:47:07.265625
2992,-10.87,2021-12-17 17:47:07.281250
2993,-13.12,2021-12-17 17:47:07.296875
2994,-15.78,2021-12-17 17:47:07.312500
2995,-18.94,2021-12-17 17:47:07.328125
2996,-22.61,2021-12-17 17:47:07.343750
2997,-26.74,2021-12-17 17:47:07.359375
2998,-31.08,2021-12-17 17:47:07.375000
2999,-35.23,2021-12-17 17:47:07.390625
3000,-38.6,2021-12-17 17:47:07.406250
3001,-40.55,2021-12-17 17:47:07.421875
3002,-40.57,2021-12-17 17:47:07.437500
3003,-38.46,2021-12-17 17:47:07.453125
3004,-34.41,2021-12-17 17:47:07.468750
3005,-28.95,2021-12-17 17:47:07.484375
3006,-22.71,2021-12-17 17:47:07.500000
3007,-16.31,2021-12-17 17:47:07.515625
3008,-10.13,2021-12-17 17:47:07.531250
3009,-4.36,2021-12-17 17:47:07.546875
3010,0.95,2021-12-17 17:47:07.562500
3011,5.77,2021-12-17 17:47:07.578125
3012,10.07,2021-12-17 17:47:07.593750
3013,13.77,2021-12-17 17:47:07.609375
3014,16.87,2021-12-17 17:47:07.625000
3015,19.39,2021-12-17 17:47:07.640625
3016,21.45,2021-12-17 17:47:07.656250
3017,23.18,2021-12-17 17:47:07.671875
3018,24.71,2021-12-17 17:47:07.687500
3019,26.08,2021-12-17 17:47:07.703125
3020,27.29,2021-12-17 17:47:07.718750
3021,28.31,2021-12-17 17:47:07.734375
3022,29.08,2021-12-17 17:47:07.750000
3023,29.6,2021-12-17 17:47:07.765625
3024,29.9,2021-12-17 17:47:07.781250
3025,29.99,2021-12-17 17:47:07.796875
3026,29.89,2021-12-17 17:47:07.812500
3027,29.56,2021-12-17 17:47:07.828125
3028,28.95,2021-12-17 17:47:07.843750
3029,27.99,2021-12-17 17:47:07.859375
3030,26.64,2021-12-17 17:47:07.875000
3031,24.94,2021-12-17 17:47:07.890625
3032,22.95,2021-12-17 17:47:07.906250
3033,20.72,2021-12-17 17:47:07.921875
3034,18.27,2021-12-17 17:47:07.937500
3035,15.59,2021-12-17 17:47:07.953125
3036,12.68,2021-12-17 17:47:07.968750
3037,9.61,2021-12-17 17:47:07.984375
3038,6.53,2021-12-17 17:47:08.000000
3039,3.61,2021-12-17 17:47:08.015625
3040,0.98,2021-12-17 17:47:08.031250
3041,-1.34,2021-12-17 17:47:08.046875
3042,-3.45,2021-12-17 17:47:08.062500
3043,-5.57,2021-12-17 17:47:08.078125
3044,-7.94,2021-12-17 17:47:08.093750
3045,-10.75,2021-12-17 17:47:08.109375
3046,-14.11,2021-12-17 17:47:08.125000
3047,-17.92,2021-12-17 17:47:08.140625
3048,-21.85,2021-12-17 17:47:08.156250
3049,-25.37,2021-12-17 17:47:08.171875
3050,-27.86,2021-12-17 17:47:08.187500
3051,-28.79,2021-12-17 17:47:08.203125
3052,-27.88,2021-12-17 17:47:08.218750
3053,-25.19,2021-12-17 17:47:08.234375
3054,-21.04,2021-12-17 17:47:08.250000
3055,-15.94,2021-12-17 17:47:08.265625
3056,-10.39,2021-12-17 17:47:08.281250
3057,-4.81,2021-12-17 17:47:08.296875
3058,0.44,2021-12-17 17:47:08.312500
3059,5.11,2021-12-17 17:47:08.328125
3060,9.02,2021-12-17 17:47:08.343750
3061,12.09,2021-12-17 17:47:08.359375
3062,14.39,2021-12-17 17:47:08.375000
3063,16.11,2021-12-17 17:47:08.390625
3064,17.48,2021-12-17 17:47:08.406250
3065,18.69,2021-12-17 17:47:08.421875
3066,19.75,2021-12-17 17:47:08.437500
3067,20.6,2021-12-17 17:47:08.453125
3068,21.15,2021-12-17 17:47:08.468750
3069,21.36,2021-12-17 17:47:08.484375
3070,21.3,2021-12-17 17:47:08.500000
3071,21.03,2021-12-17 17:47:08.515625
3072,20.65,2021-12-17 17:47:08.531250
3073,20.15,2021-12-17 17:47:08.546875
3074,19.5,2021-12-17 17:47:08.562500
3075,18.68,2021-12-17 17:47:08.578125
3076,17.67,2021-12-17 17:47:08.593750
3077,16.53,2021-12-17 17:47:08.609375
3078,15.31,2021-12-17 17:47:08.625000
3079,14.03,2021-12-17 17:47:08.640625
3080,12.63,2021-12-17 17:47:08.656250
3081,11.04,2021-12-17 17:47:08.671875
3082,9.18,2021-12-17 17:47:08.687500
3083,7.0,2021-12-17 17:47:08.703125
3084,4.57,2021-12-17 17:47:08.718750
3085,1.97,2021-12-17 17:47:08.734375
3086,-0.69,2021-12-17 17:47:08.750000
3087,-3.38,2021-12-17 17:47:08.765625
3088,-6.1,2021-12-17 17:47:08.781250
3089,-8.89,2021-12-17 17:47:08.796875
3090,-11.78,2021-12-17 17:47:08.812500
3091,-14.72,2021-12-17 17:47:08.828125
3092,-17.56,2021-12-17 17:47:08.843750
3093,-20.12,2021-12-17 17:47:08.859375
3094,-22.29,2021-12-17 17:47:08.875000
3095,-24.1,2021-12-17 17:47:08.890625
3096,-25.76,2021-12-17 17:47:08.906250
3097,-27.6,2021-12-17 17:47:08.921875
3098,-29.93,2021-12-17 17:47:08.937500
3099,-32.94,2021-12-17 17:47:08.953125
3100,-36.49,2021-12-17 17:47:08.968750
3101,-40.18,2021-12-17 17:47:08.984375
3102,-43.39,2021-12-17 17:47:09.000000
3103,-45.46,2021-12-17 17:47:09.015625
3104,-45.9,2021-12-17 17:47:09.031250
3105,-44.51,2021-12-17 17:47:09.046875
3106,-41.38,2021-12-17 17:47:09.062500
3107,-36.89,2021-12-17 17:47:09.078125
3108,-31.5,2021-12-17 17:47:09.093750
3109,-25.68,2021-12-17 17:47:09.109375
3110,-19.81,2021-12-17 17:47:09.125000
3111,-14.18,2021-12-17 17:47:09.140625
3112,-8.96,2021-12-17 17:47:09.156250
3113,-4.22,2021-12-17 17:47:09.171875
3114,0.05,2021-12-17 17:47:09.187500
3115,3.95,2021-12-17 17:47:09.203125
3116,7.55,2021-12-17 17:47:09.218750
3117,10.88,2021-12-17 17:47:09.234375
3118,13.88,2021-12-17 17:47:09.250000
3119,16.41,2021-12-17 17:47:09.265625
3120,18.38,2021-12-17 17:47:09.281250
3121,19.73,2021-12-17 17:47:09.296875
3122,20.61,2021-12-17 17:47:09.312500
3123,21.16,2021-12-17 17:47:09.328125
3124,21.56,2021-12-17 17:47:09.343750
3125,21.86,2021-12-17 17:47:09.359375
3126,21.98,2021-12-17 17:47:09.375000
3127,21.81,2021-12-17 17:47:09.390625
3128,21.25,2021-12-17 17:47:09.406250
3129,20.34,2021-12-17 17:47:09.421875
3130,19.17,2021-12-17 17:47:09.437500
3131,17.89,2021-12-17 17:47:09.453125
3132,16.54,2021-12-17 17:47:09.468750
3133,15.08,2021-12-17 17:47:09.484375
3134,13.39,2021-12-17 17:47:09.500000
3135,11.4,2021-12-17 17:47:09.515625
3136,9.11,2021-12-17 17:47:09.531250
3137,6.66,2021-12-17 17:47:09.546875
3138,4.23,2021-12-17 17:47:09.562500
3139,2.01,2021-12-17 17:47:09.578125
3140,0.09,2021-12-17 17:47:09.593750
3141,-1.59,2021-12-17 17:47:09.609375
3142,-3.12,2021-12-17 17:47:09.625000
3143,-4.64,2021-12-17 17:47:09.640625
3144,-6.3,2021-12-17 17:47:09.656250
3145,-8.18,2021-12-17 17:47:09.671875
3146,-10.44,2021-12-17 17:47:09.687500
3147,-13.18,2021-12-17 17:47:09.703125
3148,-16.48,2021-12-17 17:47:09.718750
3149,-20.3,2021-12-17 17:47:09.734375
3150,-24.33,2021-12-17 17:47:09.750000
3151,-28.03,2021-12-17 17:47:09.765625
3152,-30.7,2021-12-17 17:47:09.781250
3153,-31.75,2021-12-17 17:47:09.796875
3154,-30.87,2021-12-17 17:47:09.812500
3155,-28.21,2021-12-17 17:47:09.828125
3156,-24.27,2021-12-17 17:47:09.843750
3157,-19.69,2021-12-17 17:47:09.859375
3158,-15.02,2021-12-17 17:47:09.875000
3159,-10.54,2021-12-17 17:47:09.890625
3160,-6.24,2021-12-17 17:47:09.906250
3161,-2.0,2021-12-17 17:47:09.921875
3162,2.29,2021-12-17 17:47:09.937500
3163,6.57,2021-12-17 17:47:09.953125
3164,10.68,2021-12-17 17:47:09.968750
3165,14.37,2021-12-17 17:47:09.984375
3166,17.52,2021-12-17 17:47:10.000000
3167,20.07,2021-12-17 17:47:10.015625
3168,22.1,2021-12-17 17:47:10.031250
3169,23.67,2021-12-17 17:47:10.046875
3170,24.85,2021-12-17 17:47:10.062500
3171,25.64,2021-12-17 17:47:10.078125
3172,26.03,2021-12-17 17:47:10.093750
3173,26.06,2021-12-17 17:47:10.109375
